milliseconds, ECG, ECG HR, PPG, PPG HR, SpO2, PI
0,-983040,87,-56,-1,-1,0
33,-983040,87,-56,-1,-1,0
66,-655360,87,-56,-1,-1,0
100,-917504,87,-56,-1,-1,0
133,-851968,85,-56,-1,-1,0
166,7405568,85,-56,-1,-1,0
200,-524288,85,-56,-1,-1,0
233,-458752,85,-56,-1,-1,0
266,-393216,85,-56,-1,-1,0
300,65536,85,-56,-1,-1,0
333,1114112,85,-56,-1,-1,0
366,1507328,85,-56,-1,-1,0
400,262144,85,-56,-1,-1,0
433,-65536,85,-56,-1,-1,0
466,-65536,85,-56,-1,-1,0
500,-65536,85,-56,-1,-1,0
533,-327680,85,-56,-1,-1,0
566,-458752,85,-56,-1,-1,0
600,-589824,85,-56,-1,-1,0
633,-589824,85,-56,-1,-1,0
666,-589824,85,-56,-1,-1,0
700,-720896,85,-56,-1,-1,0
733,1310720,85,-56,-1,-1,0
766,-720896,85,-56,-1,-1,0
800,-786432,85,-56,-1,-1,0
833,-720896,85,-56,-1,-1,0
866,-524288,85,-56,-1,-1,0
900,196608,85,-56,-1,-1,0
933,1114112,85,-56,-1,-1,0
966,0,85,-56,-1,-1,0
1000,-589824,85,-56,-1,-1,0
1033,-720896,85,-56,-1,-1,0
1066,-458752,85,-56,-1,-1,0
1100,-655360,85,-56,-1,-1,0
1133,-720896,85,-56,-1,-1,0
1166,-917504,85,-56,-1,-1,0
1200,-851968,85,-56,-1,-1,0
1233,-655360,85,-56,-1,-1,0
1266,-851968,85,-56,-1,-1,0
1300,-851968,85,-56,-1,-1,0
1333,8126464,85,-56,-1,-1,0
1366,-720896,85,-56,-1,-1,0
1400,-589824,85,-56,-1,-1,0
1433,-524288,85,-56,-1,-1,0
1466,-65536,85,-56,-1,-1,0
1500,983040,85,-56,-1,-1,0
1533,1245184,85,-56,-1,-1,0
1566,-65536,85,-56,-1,-1,0
1600,-393216,85,-56,-1,-1,0
1633,-65536,85,-56,-1,-1,0
1666,0,85,-56,-1,-1,0
1700,-131072,85,-56,-1,-1,0
1733,-262144,85,-56,-1,-1,0
1766,-262144,85,-56,-1,-1,0
1800,-131072,85,-56,-1,-1,0
1833,-393216,85,-56,-1,-1,0
1866,-458752,85,-56,-1,-1,0
1900,4194304,85,-56,-1,-1,0
1933,-720896,85,-56,-1,-1,0
1966,-524288,85,-56,-1,-1,0
2000,-655360,85,-56,-1,-1,0
2033,-327680,85,-56,-1,-1,0
2066,524288,85,-56,-1,-1,0
2100,1245184,85,-56,-1,-1,0
2133,65536,85,-56,-1,-1,0
2166,-393216,85,-56,-1,-1,0
2200,-393216,85,-56,-1,-1,0
2233,-327680,85,-56,-1,-1,0
2266,-458752,85,-56,-1,-1,0
2300,-720896,85,-56,-1,-1,0
2333,-851968,85,-56,-1,-1,0
2366,-851968,85,-56,-1,-1,0
2400,-720896,85,-56,-1,-1,0
2433,-720896,85,-56,-1,-1,0
2466,-917504,85,-56,-1,-1,0
2500,131072,85,-56,-1,-1,0
2533,851968,84,-56,-1,-1,0
2566,-720896,84,-56,-1,-1,0
2600,-589824,84,-56,-1,-1,0
2633,-262144,84,-56,-1,-1,0
2666,458752,84,-56,-1,-1,0
2700,1441792,84,-56,-1,-1,0
2733,720896,84,-56,-1,-1,0
2766,-196608,84,-56,-1,-1,0
2800,-196608,84,-56,-1,-1,0
2833,-65536,84,-56,-1,-1,0
2866,-196608,84,-56,-1,-1,0
2900,-393216,84,-56,-1,-1,0
2933,-393216,84,-56,-1,-1,0
2966,-458752,84,-56,-1,-1,0
3000,-786432,84,-56,-1,-1,0
3033,-524288,84,-56,-1,-1,0
3066,-524288,84,-56,-1,-1,0
3100,-851968,84,-56,-1,-1,0
3133,196608,84,-56,-1,-1,0
3166,851968,83,-56,-1,-1,0
3200,-983040,83,-56,-1,-1,0
3233,-786432,83,-56,-1,-1,0
3266,-589824,83,-56,-1,-1,0
3300,65536,83,-56,-1,-1,0
3333,1179648,83,-56,-1,-1,0
3366,458752,83,-56,-1,-1,0
3400,-393216,83,-56,-1,-1,0
3433,-458752,83,-56,-1,-1,0
3466,-262144,83,-56,-1,-1,0
3500,-262144,83,-56,-1,-1,0
3533,-458752,83,-56,-1,-1,0
3566,-720896,83,-56,-1,-1,0
3600,-655360,83,-56,-1,-1,0
3633,-655360,83,-56,-1,-1,0
3666,-262144,83,-56,-1,-1,0
3699,-655360,83,-56,-1,-1,0
3733,-655360,83,-56,-1,-1,0
3766,7733248,82,-56,-1,-1,0
3800,-393216,82,-56,-1,-1,0
3833,-589824,82,-56,-1,-1,0
3866,-458752,82,-56,-1,-1,0
3900,0,82,-56,-1,-1,0
3933,917504,82,-56,-1,-1,0
3966,1441792,82,-56,-1,-1,0
4000,65536,82,-56,-1,-1,0
4033,-262144,82,-56,-1,-1,0
4066,-196608,82,-56,-1,-1,0
4100,-65536,82,-56,-1,-1,0
4133,-196608,82,-56,-1,-1,0
4166,-393216,82,-56,-1,-1,0
4200,-458752,82,-56,-1,-1,0
4233,-458752,82,-56,-1,-1,0
4266,-262144,82,-56,-1,-1,0
4300,-393216,82,-56,-1,-1,0
4333,-655360,82,-56,-1,-1,0
4366,262144,81,-56,-1,-1,0
4400,1048576,81,-56,-1,-1,0
4433,-524288,81,-56,-1,-1,0
4466,-720896,81,-56,-1,-1,0
4500,-327680,81,-56,-1,-1,0
4533,458752,81,-56,-1,-1,0
4566,1310720,81,-56,-1,-1,0
4600,458752,81,-56,-1,-1,0
4633,-458752,81,-56,-1,-1,0
4666,-655360,81,-56,-1,-1,0
4700,-524288,81,-56,-1,-1,0
4733,-589824,81,-56,-1,-1,0
4766,-786432,81,-56,-1,-1,0
4800,-786432,81,-56,-1,-1,0
4833,-786432,81,-56,-1,-1,0
4866,-327680,81,-56,-1,-1,0
4900,-720896,81,-56,-1,-1,0
4933,-786432,82,-56,-1,-1,0
4966,8192000,82,-56,-1,-1,0
5000,-589824,82,-56,-1,-1,0
5033,-589824,82,-56,-1,-1,0
5066,-458752,82,-56,-1,-1,0
5100,0,82,-56,-1,-1,0
5133,983040,82,-56,-1,-1,0
5166,1310720,82,-56,-1,-1,0
5200,0,82,-56,-1,-1,0
5233,-262144,82,-56,-1,-1,0
5266,-196608,82,-56,-1,-1,0
5300,-65536,82,-56,-1,-1,0
5333,-196608,82,-56,-1,-1,0
5366,-393216,82,-56,-1,-1,0
5400,-393216,82,-56,-1,-1,0
5433,-327680,82,-56,-1,-1,0
5466,-196608,82,-56,-1,-1,0
5500,-524288,82,-56,-1,-1,0
5533,-589824,83,-56,-1,-1,0
5566,6946816,83,-56,-1,-1,0
5600,-851968,83,-56,-1,-1,0
5633,-786432,83,-56,-1,-1,0
5666,-327680,83,-56,-1,-1,0
5700,0,83,-56,-1,-1,0
5733,1048576,83,-56,-1,-1,0
5766,917504,83,-56,-1,-1,0
5800,-327680,83,-56,-1,-1,0
5833,-458752,83,-56,-1,-1,0
5866,-393216,83,-56,-1,-1,0
5900,-327680,83,-56,-1,-1,0
5933,-851968,83,-56,-1,-1,0
5966,-851968,83,-56,-1,-1,0
6000,-851968,83,-56,-1,-1,0
6033,-262144,83,-56,-1,-1,0
6066,-589824,83,-56,-1,-1,0
6100,-589824,83,-56,-1,-1,0
6133,8388608,83,-56,-1,-1,0
6166,-720896,83,-56,-1,-1,0
6200,-851968,83,-56,-1,-1,0
6233,-524288,83,-56,-1,-1,0
6266,-262144,83,-56,-1,-1,0
6300,851968,83,-56,-1,-1,0
6333,1048576,83,-56,-1,-1,0
6366,-65536,83,-56,-1,-1,0
6400,-458752,83,-56,-1,-1,0
6433,-196608,83,-56,-1,-1,0
6466,-327680,83,-56,-1,-1,0
6500,-393216,83,-56,-1,-1,0
6533,-655360,83,-56,-1,-1,0
6566,-327680,83,-56,-1,-1,0
6600,-589824,84,-56,-1,-1,0
6633,-720896,84,-56,-1,-1,0
6666,1703936,84,-56,-1,-1,0
6700,-458752,84,-56,-1,-1,0
6733,-720896,84,-56,-1,-1,0
6766,-327680,84,-56,-1,-1,0
6800,-65536,84,-56,-1,-1,0
6833,589824,84,-56,-1,-1,0
6866,1376256,84,-56,-1,-1,0
6899,393216,84,-56,-1,-1,0
6933,-327680,84,-56,-1,-1,0
6966,-196608,84,-56,-1,-1,0
7000,-393216,84,-56,-1,-1,0
7033,-655360,84,-56,-1,-1,0
7066,-851968,84,-56,-1,-1,0
7100,-917504,84,-56,-1,-1,0
7133,-589824,84,-56,-1,-1,0
7166,-983040,84,-56,-1,-1,0
7200,-917504,84,-56,-1,-1,0
7233,6225920,84,-56,-1,-1,0
7266,-983040,84,-56,-1,-1,0
7300,-851968,84,-56,-1,-1,0
7333,-655360,84,-56,-1,-1,0
7366,-196608,84,-56,-1,-1,0
7399,786432,84,-56,-1,-1,0
7433,720896,84,-56,-1,-1,0
7466,-196608,84,-56,-1,-1,0
7500,-196608,84,-56,-1,-1,0
7533,0,84,-56,-1,-1,0
7566,-131072,84,-56,-1,-1,0
7600,-327680,84,-56,-1,-1,0
7633,-327680,84,-56,-1,-1,0
7666,-262144,85,-56,-1,-1,0
7700,-720896,85,-56,-1,-1,0
7733,-393216,85,-56,-1,-1,0
7766,4063232,85,-56,-1,-1,0
7800,-524288,85,-56,-1,-1,0
7833,-655360,85,-56,-1,-1,0
7866,-458752,85,-56,-1,-1,0
7899,-131072,85,-56,-1,-1,0
7933,851968,85,-56,-1,-1,0
7966,262144,85,-56,-1,-1,0
8000,-524288,85,-56,-1,-1,0
8033,-589824,85,-56,-1,-1,0
8066,-589824,85,-56,-1,-1,0
8100,-720896,85,-56,-1,-1,0
8133,-917504,85,-56,-1,-1,0
8166,-458752,85,-56,-1,-1,0
8200,-851968,86,-56,-1,-1,0
8233,-589824,86,-56,-1,-1,0
8266,1179648,86,-56,-1,-1,0
8300,-720896,86,-56,-1,-1,0
8333,-655360,86,-56,-1,-1,0
8366,-524288,86,-56,-1,-1,0
8400,-524288,86,-56,-1,-1,0
8433,131072,86,-56,-1,-1,0
8466,917504,86,-56,-1,-1,0
8500,131072,86,-56,-1,-1,0
8533,-262144,86,-56,-1,-1,0
8566,-131072,86,-56,-1,-1,0
8600,-65536,86,-56,-1,-1,0
8633,-196608,86,-56,-1,-1,0
8666,-393216,86,-56,-1,-1,0
8700,-131072,87,-56,-1,-1,0
8733,-655360,87,-56,-1,-1,0
8766,-524288,87,-56,-1,-1,0
8800,3801088,87,-56,-1,-1,0
8833,-1245184,87,-56,-1,-1,0
8866,-786432,87,-56,-1,-1,0
8900,-524288,87,-56,-1,-1,0
8933,-458752,87,-56,-1,-1,0
8966,458752,87,-56,-1,-1,0
9000,1048576,87,-56,-1,-1,0
9033,0,87,-56,-1,-1,0
9066,-393216,87,-56,-1,-1,0
9100,-327680,87,-56,-1,-1,0
9133,-262144,87,-56,-1,-1,0
9166,-655360,87,-56,-1,-1,0
9200,-327680,87,-56,-1,-1,0
9233,-458752,88,-56,-1,-1,0
9266,-524288,88,-56,-1,-1,0
9300,786432,88,-56,-1,-1,0
9333,-393216,88,-56,-1,-1,0
9366,-851968,88,-56,-1,-1,0
9400,-917504,88,-56,-1,-1,0
9433,-655360,88,-56,-1,-1,0
9466,65536,88,-56,-1,-1,0
9500,1114112,88,-56,-1,-1,0
9533,327680,88,-56,-1,-1,0
9566,-131072,88,-56,-1,-1,0
9600,-65536,88,-56,-1,-1,0
9633,-65536,88,-56,-1,-1,0
9666,-262144,88,-56,-1,-1,0
9700,-262144,88,-56,-1,-1,0
9733,-327680,88,-56,-1,-1,0
9766,-720896,89,-56,-1,-1,0
9800,-589824,89,-56,-1,-1,0
9833,7143424,89,-56,-1,-1,0
9866,-786432,89,-56,-1,-1,0
9900,-851968,89,-56,-1,-1,0
9933,-655360,89,-56,-1,-1,0
9966,-196608,89,-56,-1,-1,0
10000,655360,89,-56,-1,-1,0
10033,524288,89,-56,-1,-1,0
10066,-524288,89,-56,-1,-1,0
10100,-589824,89,-56,-1,-1,0
10133,-524288,89,-56,-1,-1,0
10166,-393216,89,-56,-1,-1,0
10200,-589824,89,-56,-1,-1,0
10233,-524288,89,-56,-1,-1,0
10266,-262144,89,-56,-1,-1,0
10300,-589824,90,-56,-1,-1,0
10333,-720896,90,-56,-1,-1,0
10366,8126464,90,-56,-1,-1,0
10400,-655360,90,-56,-1,-1,0
10433,-720896,90,-56,-1,-1,0
10466,-524288,90,-56,-1,-1,0
10500,0,90,-56,-1,-1,0
10533,917504,90,-56,-1,-1,0
10566,1048576,90,-56,-1,-1,0
10600,65536,90,-56,-1,-1,0
10633,0,90,-56,-1,-1,0
10666,65536,90,-56,-1,-1,0
10700,-65536,90,-56,-1,-1,0
10733,-393216,90,-56,-1,-1,0
10766,-655360,90,-56,-1,-1,0
10800,-196608,90,-56,-1,-1,0
10833,-589824,90,-56,-1,-1,0
10866,-589824,90,-56,-1,-1,0
10900,2555904,90,-56,-1,-1,0
10933,-983040,90,-56,-1,-1,0
10966,-851968,90,-56,-1,-1,0
11000,-589824,90,-56,-1,-1,0
11033,-393216,90,-56,-1,-1,0
11066,327680,90,-56,-1,-1,0
11100,851968,90,-56,-1,-1,0
11133,393216,90,-56,-1,-1,0
11166,-131072,90,-56,-1,-1,0
11200,0,90,-56,-1,-1,0
11233,131072,90,-56,-1,-1,0
11266,-327680,90,-56,-1,-1,0
11300,-262144,90,-56,-1,-1,0
11333,-524288,90,-56,-1,-1,0
11366,-327680,90,-56,-1,-1,0
11400,-786432,90,-56,-1,-1,0
11433,-786432,90,-56,-1,-1,0
11466,5505024,90,-56,-1,-1,0
11500,-720896,90,-56,-1,-1,0
11533,-655360,90,-56,-1,-1,0
11566,-589824,90,-56,-1,-1,0
11600,-196608,90,-56,-1,-1,0
11633,589824,90,-56,-1,-1,0
11666,1245184,90,-56,-1,-1,0
11700,-65536,90,-56,-1,-1,0
11733,-327680,90,-56,-1,-1,0
11766,-327680,90,-56,-1,-1,0
11800,-262144,90,-56,-1,-1,0
11833,-524288,90,-56,-1,-1,0
11866,-655360,90,-56,-1,-1,0
11900,-524288,92,-56,-1,-1,0
11933,-983040,92,-56,-1,-1,0
11966,-1048576,92,-56,-1,-1,0
12000,8781824,92,-56,-1,-1,0
12033,-917504,92,-56,-1,-1,0
12066,-983040,92,-56,-1,-1,0
12100,-655360,92,-56,-1,-1,0
12133,-196608,92,-56,-1,-1,0
12166,1114112,92,-56,-1,-1,0
12200,1048576,92,-56,-1,-1,0
12233,-327680,92,-56,-1,-1,0
12266,-589824,92,-56,-1,-1,0
12300,-524288,92,-56,-1,-1,0
12333,-589824,92,-56,-1,-1,0
12366,-786432,92,-56,-1,-1,0
12400,-655360,93,-56,-1,-1,0
12433,-1048576,93,-56,-1,-1,0
12466,-983040,93,-56,-1,-1,0
12500,9633792,93,-56,-1,-1,0
12533,-720896,93,-56,-1,-1,0
12566,-720896,93,-56,-1,-1,0
12600,-589824,93,-56,-1,-1,0
12633,-262144,93,-56,-1,-1,0
12666,1114112,93,-56,-1,-1,0
12700,1376256,93,-56,-1,-1,0
12733,-65536,93,-56,-1,-1,0
12766,-393216,93,-56,-1,-1,0
12800,-196608,93,-56,-1,-1,0
12833,-393216,93,-56,-1,-1,0
12866,-589824,93,-56,-1,-1,0
12900,-589824,93,-56,-1,-1,0
12933,-1114112,93,-56,-1,-1,0
12966,-1245184,93,-56,-1,-1,0
13000,8781824,93,-56,-1,-1,0
13033,-917504,93,-56,-1,-1,0
13066,-983040,93,-56,-1,-1,0
13100,-917504,93,-56,-1,-1,0
13133,-131072,93,-56,-1,-1,0
13166,720896,93,-56,-1,-1,0
13200,917504,93,-56,-1,-1,0
13233,-196608,93,-56,-1,-1,0
13266,-720896,93,-56,-1,-1,0
13299,-327680,93,-56,-1,-1,0
13333,-327680,93,-56,-1,-1,0
13366,-655360,93,-56,-1,-1,0
13400,-327680,94,-56,-1,-1,0
13433,-786432,94,-56,-1,-1,0
13466,-720896,94,-56,-1,-1,0
13500,6356992,94,-56,-1,-1,0
13533,-851968,94,-56,-1,-1,0
13566,-65536,94,-56,-1,-1,0
13600,-851968,94,-56,-1,-1,0
13633,-524288,94,-56,-1,-1,0
13666,393216,94,-56,-1,-1,0
13700,1179648,94,-56,-1,-1,0
13733,-262144,94,-56,-1,-1,0
13766,-524288,94,-56,-1,-1,0
13799,-524288,94,-56,-1,-1,0
13833,-393216,94,-56,-1,-1,0
13866,-786432,94,-56,-1,-1,0
13900,-786432,94,-56,-1,-1,0
13933,-655360,94,-56,-1,-1,0
13966,-1048576,94,-56,-1,-1,0
14000,-917504,94,-56,-1,-1,0
14033,6619136,94,-56,-1,-1,0
14066,-655360,94,-56,-1,-1,0
14100,-720896,94,-56,-1,-1,0
14133,-589824,94,-56,-1,-1,0
14166,0,94,-56,-1,-1,0
14200,655360,94,-56,-1,-1,0
14233,655360,94,-56,-1,-1,0
14266,-196608,94,-56,-1,-1,0
14299,-262144,94,-56,-1,-1,0
14333,-131072,94,-56,-1,-1,0
14366,-65536,94,-56,-1,-1,0
14400,-327680,94,-56,-1,-1,0
14433,-393216,94,-56,-1,-1,0
14466,-196608,94,-56,-1,-1,0
14500,-262144,94,-56,-1,-1,0
14533,-458752,94,-56,-1,-1,0
14566,393216,94,-56,-1,-1,0
14600,1245184,94,-56,-1,-1,0
14633,-524288,94,-56,-1,-1,0
14666,-393216,94,-56,-1,-1,0
14700,-262144,94,-56,-1,-1,0
14733,196608,94,-56,-1,-1,0
14766,983040,94,-56,-1,-1,0
14799,327680,94,-56,-1,-1,0
14833,-589824,94,-56,-1,-1,0
14866,-393216,94,-56,-1,-1,0
14900,-262144,94,-56,-1,-1,0
14933,-655360,94,-56,-1,-1,0
14966,-851968,94,-56,-1,-1,0
15000,-655360,94,-56,-1,-1,0
15033,-327680,94,-56,-1,-1,0
15066,-917504,94,-56,-1,-1,0
15100,-655360,94,-56,-1,-1,0
15133,8519680,94,-56,-1,-1,0
15166,-655360,94,-56,-1,-1,0
15200,-720896,94,-56,-1,-1,0
15233,-589824,94,-56,-1,-1,0
15266,-65536,94,-56,-1,-1,0
15299,917504,94,-56,-1,-1,0
15333,1048576,94,-56,-1,-1,0
15366,0,94,-56,-1,-1,0
15400,-65536,94,-56,-1,-1,0
15433,131072,94,-56,-1,-1,0
15466,0,94,-56,-1,-1,0
15500,-131072,94,-56,-1,-1,0
15533,-589824,94,-56,-1,-1,0
15566,-327680,94,-56,-1,-1,0
15600,-917504,94,-56,-1,-1,0
15633,-983040,94,-56,-1,-1,0
15666,2883584,94,-56,-1,-1,0
15700,-1310720,94,-56,-1,-1,0
15733,-1048576,94,-56,-1,-1,0
15766,-983040,94,-56,-1,-1,0
15799,-720896,94,-56,-1,-1,0
15833,65536,94,-56,-1,-1,0
15866,786432,94,-56,-1,-1,0
15900,-196608,94,-56,-1,-1,0
15933,-458752,94,-56,-1,-1,0
15966,-196608,94,-56,-1,-1,0
16000,-196608,94,-56,-1,-1,0
16033,-196608,94,-56,-1,-1,0
16066,-458752,94,-56,-1,-1,0
16100,-524288,94,-56,-1,-1,0
16133,0,94,-56,-1,-1,0
16166,-655360,93,-56,-1,-1,0
16200,-589824,93,-56,-1,-1,0
16233,5963776,93,-56,-1,-1,0
16266,-589824,93,-56,-1,-1,0
16300,-393216,93,-56,-1,-1,0
16333,-393216,93,-56,-1,-1,0
16366,0,93,-56,-1,-1,0
16400,720896,93,-56,-1,-1,0
16433,1245184,93,-56,-1,-1,0
16466,196608,93,-56,-1,-1,0
16500,-65536,93,-56,-1,-1,0
16533,-327680,93,-56,-1,-1,0
16566,-262144,93,-56,-1,-1,0
16600,-458752,93,-56,-1,-1,0
16633,-720896,93,-56,-1,-1,0
16666,-458752,93,-56,-1,-1,0
16700,-786432,93,-56,-1,-1,0
16733,-917504,93,-56,-1,-1,0
16766,-65536,93,-56,-1,-1,0
16800,851968,93,-56,-1,-1,0
16833,-917504,93,-56,-1,-1,0
16866,-851968,93,-56,-1,-1,0
16900,-589824,93,-56,-1,-1,0
16933,327680,93,-56,-1,-1,0
16966,1048576,93,-56,-1,-1,0
17000,524288,93,-56,-1,-1,0
17033,-196608,93,-56,-1,-1,0
17066,-393216,93,-56,-1,-1,0
17100,-327680,93,-56,-1,-1,0
17133,-458752,93,-56,-1,-1,0
17166,-524288,93,-56,-1,-1,0
17200,-655360,93,-56,-1,-1,0
17233,-393216,93,-56,-1,-1,0
17266,-589824,93,-56,-1,-1,0
17300,-458752,93,-56,-1,-1,0
17333,5636096,93,-56,-1,-1,0
17366,-589824,93,-56,-1,-1,0
17400,-458752,93,-56,-1,-1,0
17433,-262144,93,-56,-1,-1,0
17466,65536,93,-56,-1,-1,0
17500,1048576,93,-56,-1,-1,0
17533,851968,93,-56,-1,-1,0
17566,-327680,93,-56,-1,-1,0
17600,-393216,93,-56,-1,-1,0
17633,-262144,93,-56,-1,-1,0
17666,-720896,93,-56,-1,-1,0
17700,-851968,93,-56,-1,-1,0
17733,-786432,93,-56,-1,-1,0
17766,-720896,92,-56,-1,-1,0
17800,-1179648,92,-56,-1,-1,0
17833,-1048576,92,-56,-1,-1,0
17866,6881280,92,-56,-1,-1,0
17900,-655360,92,-56,-1,-1,0
17933,-589824,92,-56,-1,-1,0
17966,-589824,92,-56,-1,-1,0
18000,-196608,92,-56,-1,-1,0
18033,655360,92,-56,-1,-1,0
18066,851968,92,-56,-1,-1,0
18100,0,92,-56,-1,-1,0
18133,-131072,92,-56,-1,-1,0
18166,65536,92,-56,-1,-1,0
18200,-65536,92,-56,-1,-1,0
18233,-262144,92,-56,-1,-1,0
18266,-327680,92,-56,-1,-1,0
18300,-131072,92,-56,-1,-1,0
18333,-589824,92,-56,-1,-1,0
18366,-589824,92,-56,-1,-1,0
18400,7602176,92,-56,-1,-1,0
18433,-655360,92,-56,-1,-1,0
18466,-655360,92,-56,-1,-1,0
18500,-655360,92,-56,-1,-1,0
18533,-327680,92,-56,-1,-1,0
18566,524288,92,-56,-1,-1,0
18600,458752,92,-56,-1,-1,0
18633,-524288,92,-56,-1,-1,0
18666,-589824,92,-56,-1,-1,0
18700,-458752,92,-56,-1,-1,0
18733,-524288,92,-56,-1,-1,0
18766,-720896,92,-56,-1,-1,0
18800,-131072,93,-56,-1,-1,0
18833,-786432,93,-56,-1,-1,0
18866,-917504,93,-56,-1,-1,0
18900,8388608,93,-56,-1,-1,0
18933,-786432,93,-56,-1,-1,0
18966,-851968,93,-56,-1,-1,0
19000,-720896,93,-56,-1,-1,0
19033,-131072,93,-56,-1,-1,0
19066,655360,93,-56,-1,-1,0
19100,1114112,93,-56,-1,-1,0
19133,0,93,-56,-1,-1,0
19166,-262144,93,-56,-1,-1,0
19200,-196608,93,-56,-1,-1,0
19233,-196608,93,-56,-1,-1,0
19266,-458752,93,-56,-1,-1,0
19300,-393216,93,-56,-1,-1,0
19333,-655360,93,-56,-1,-1,0
19366,-851968,93,-56,-1,-1,0
19400,3407872,93,-56,-1,-1,0
19433,-1245184,93,-56,-1,-1,0
19466,-983040,93,-56,-1,-1,0
19500,-1179648,93,-56,-1,-1,0
19533,-720896,93,-56,-1,-1,0
19566,131072,93,-56,-1,-1,0
19600,851968,93,-56,-1,-1,0
19633,65536,93,-56,-1,-1,0
19666,-262144,93,-56,-1,-1,0
19700,-131072,93,-56,-1,-1,0
19733,-327680,93,-56,-1,-1,0
19766,-589824,93,-56,-1,-1,0
19800,-327680,94,-56,-1,-1,0
19833,-786432,94,-56,-1,-1,0
19866,-851968,94,-56,-1,-1,0
19900,2752512,94,-56,-1,-1,0
19933,-786432,94,-56,-1,-1,0
19966,-720896,94,-56,-1,-1,0
20000,-589824,94,-56,-1,-1,0
20033,-327680,94,-56,-1,-1,0
20066,524288,94,-56,-1,-1,0
20100,1114112,94,-56,-1,-1,0
20133,65536,94,-56,-1,-1,0
20166,-327680,94,-56,-1,-1,0
20200,-196608,94,-56,-1,-1,0
20233,-131072,94,-56,-1,-1,0
20266,-458752,94,-56,-1,-1,0
20300,-393216,94,-56,-1,-1,0
20333,-851968,94,-56,-1,-1,0
20366,-983040,94,-56,-1,-1,0
20400,-262144,94,-56,-1,-1,0
20433,1048576,94,-56,-1,-1,0
20466,-1048576,94,-56,-1,-1,0
20500,-1048576,94,-56,-1,-1,0
20533,-589824,94,-56,-1,-1,0
20566,65536,94,-56,-1,-1,0
20600,786432,94,-56,-1,-1,0
20633,458752,94,-56,-1,-1,0
20666,-327680,94,-56,-1,-1,0
20700,-393216,94,-56,-1,-1,0
20733,-327680,94,-56,-1,-1,0
20766,-524288,94,-56,-1,-1,0
20800,-458752,94,-56,-1,-1,0
20833,-327680,94,-56,-1,-1,0
20866,-524288,94,-56,-1,-1,0
20900,-393216,94,-56,-1,-1,0
20933,4587520,94,-56,-1,-1,0
20966,-589824,94,-56,-1,-1,0
21000,-589824,94,-56,-1,-1,0
21033,-393216,94,-56,-1,-1,0
21066,0,94,-56,-1,-1,0
21100,851968,94,-56,-1,-1,0
21133,327680,94,-56,-1,-1,0
21166,-327680,94,-56,-1,-1,0
21200,-524288,94,-56,-1,-1,0
21233,-458752,94,-56,-1,-1,0
21266,-786432,94,-56,-1,-1,0
21300,-720896,94,-56,-1,-1,0
21333,-786432,94,-56,-1,-1,0
21366,-983040,94,-56,-1,-1,0
21400,-1048576,94,-56,-1,-1,0
21433,5505024,94,-56,-1,-1,0
21466,-786432,94,-56,-1,-1,0
21500,-786432,94,-56,-1,-1,0
21533,-851968,94,-56,-1,-1,0
21566,-393216,94,-56,-1,-1,0
21600,524288,94,-56,-1,-1,0
21633,327680,94,-56,-1,-1,0
21666,-262144,94,-56,-1,-1,0
21700,-393216,94,-56,-1,-1,0
21733,-196608,94,-56,-1,-1,0
21766,-196608,94,-56,-1,-1,0
21800,-589824,94,-56,-1,-1,0
21833,-196608,94,-56,-1,-1,0
21866,-655360,94,-56,-1,-1,0
21900,-851968,94,-56,-1,-1,0
21933,6488064,94,-56,-1,-1,0
21966,-1114112,94,-56,-1,-1,0
22000,-851968,94,-56,-1,-1,0
22033,-589824,94,-56,-1,-1,0
22066,-196608,94,-56,-1,-1,0
22100,393216,94,-56,-1,-1,0
22133,589824,94,-56,-1,-1,0
22166,-393216,94,-56,-1,-1,0
22200,-524288,94,-56,-1,-1,0
22233,-458752,94,-56,-1,-1,0
22266,-1048576,94,-56,-1,-1,0
22300,-393216,94,-56,-1,-1,0
22333,-524288,95,-56,-1,-1,0
22366,-262144,95,-56,-1,-1,0
22400,-851968,95,-56,-1,-1,0
22433,-786432,95,-56,-1,-1,0
22466,3997696,95,-56,-1,-1,0
22500,-1114112,95,-56,-1,-1,0
22533,-1048576,95,-56,-1,-1,0
22566,-983040,95,-56,-1,-1,0
22600,-262144,95,-56,-1,-1,0
22633,655360,95,-56,-1,-1,0
22666,262144,95,-56,-1,-1,0
22700,-393216,95,-56,-1,-1,0
22733,-458752,95,-56,-1,-1,0
22766,-196608,95,-56,-1,-1,0
22800,-131072,96,-56,-1,-1,0
22833,-131072,96,-56,-1,-1,0
22866,-131072,96,-56,-1,-1,0
22900,-262144,96,-56,-1,-1,0
22933,1179648,96,-56,-1,-1,0
22966,720896,96,-56,-1,-1,0
23000,-851968,96,-56,-1,-1,0
23033,-589824,96,-56,-1,-1,0
23066,-983040,96,-56,-1,-1,0
23100,65536,96,-56,-1,-1,0
23133,1048576,96,-56,-1,-1,0
23166,-131072,96,-56,-1,-1,0
23200,-655360,96,-56,-1,-1,0
23233,-786432,96,-56,-1,-1,0
23266,-393216,96,-56,-1,-1,0
23300,-851968,97,-56,-1,-1,0
23333,-917504,97,-56,-1,-1,0
23366,-1114112,97,-56,-1,-1,0
23400,3211264,97,-56,-1,-1,0
23433,-786432,97,-56,-1,-1,0
23466,-1179648,97,-56,-1,-1,0
23500,-917504,97,-56,-1,-1,0
23533,-524288,97,-56,-1,-1,0
23566,327680,97,-56,-1,-1,0
23600,1179648,97,-56,-1,-1,0
23633,-131072,97,-56,-1,-1,0
23666,-655360,97,-56,-1,-1,0
23700,-393216,97,-56,-1,-1,0
23733,-262144,97,-56,-1,-1,0
23766,-589824,97,-56,-1,-1,0
23800,-655360,98,-56,-1,-1,0
23833,-786432,98,-56,-1,-1,0
23866,-1179648,98,-56,-1,-1,0
23900,327680,98,-56,-1,-1,0
23933,786432,98,-56,-1,-1,0
23966,-917504,98,-56,-1,-1,0
24000,-917504,98,-56,-1,-1,0
24033,-524288,98,-56,-1,-1,0
24066,196608,98,-56,-1,-1,0
24100,1048576,98,-56,-1,-1,0
24133,327680,98,-56,-1,-1,0
24166,-327680,98,-56,-1,-1,0
24200,-524288,98,-56,-1,-1,0
24233,-524288,98,-56,-1,-1,0
24266,-786432,98,-56,-1,-1,0
24300,-655360,98,-56,-1,-1,0
24333,-1048576,98,-56,-1,-1,0
24366,-851968,98,-56,-1,-1,0
24400,8060928,98,-56,-1,-1,0
24433,-851968,98,-56,-1,-1,0
24466,-851968,98,-56,-1,-1,0
24500,-851968,98,-56,-1,-1,0
24533,-458752,98,-56,-1,-1,0
24566,458752,98,-56,-1,-1,0
24600,655360,98,-56,-1,-1,0
24633,-262144,98,-56,-1,-1,0
24666,-327680,98,-56,-1,-1,0
24700,-262144,98,-56,-1,-1,0
24733,-327680,98,-56,-1,-1,0
24766,-458752,99,-56,-1,-1,0
24800,-524288,99,-56,-1,-1,0
24833,-917504,99,-56,-1,-1,0
24866,-655360,99,-56,-1,-1,0
24900,3538944,99,-56,-1,-1,0
24933,-524288,99,-56,-1,-1,0
24966,-524288,99,-56,-1,-1,0
25000,-262144,99,-56,-1,-1,0
25033,65536,99,-56,-1,-1,0
25066,786432,99,-56,-1,-1,0
25100,393216,99,-56,-1,-1,0
25133,-327680,99,-56,-1,-1,0
25166,-262144,99,-56,-1,-1,0
25200,-65536,99,-56,-1,-1,0
25233,-196608,99,-56,-1,-1,0
25266,-196608,99,-56,-1,-1,0
25300,-327680,99,-56,-1,-1,0
25333,-458752,99,-56,-1,-1,0
25366,3276800,99,-56,-1,-1,0
25400,-524288,99,-56,-1,-1,0
25433,-655360,99,-56,-1,-1,0
25466,-393216,99,-56,-1,-1,0
25500,-65536,99,-56,-1,-1,0
25533,458752,99,-56,-1,-1,0
25566,1048576,99,-56,-1,-1,0
25600,65536,99,-56,-1,-1,0
25633,-327680,99,-56,-1,-1,0
25666,-327680,99,-56,-1,-1,0
25700,-458752,99,-56,-1,-1,0
25733,-786432,100,-56,-1,-1,0
25766,-524288,100,-56,-1,-1,0
25800,-786432,100,-56,-1,-1,0
25833,-720896,100,-56,-1,-1,0
25866,6160384,100,-56,-1,-1,0
25900,-720896,100,-56,-1,-1,0
25933,-786432,100,-56,-1,-1,0
25966,-983040,100,-56,-1,-1,0
26000,-524288,100,-56,-1,-1,0
26033,0,100,-56,-1,-1,0
26066,0,100,-56,-1,-1,0
26099,-524288,100,-56,-1,-1,0
26133,-589824,100,-56,-1,-1,0
26166,-458752,100,-56,-1,-1,0
26200,-720896,100,-56,-1,-1,0
26233,-589824,100,-56,-1,-1,0
26266,-983040,100,-56,-1,-1,0
26300,-917504,100,-56,-1,-1,0
26333,4325376,100,-56,-1,-1,0
26366,-1048576,100,-56,-1,-1,0
26400,-1245184,100,-56,-1,-1,0
26433,-851968,100,-56,-1,-1,0
26466,-524288,100,-56,-1,-1,0
26500,131072,100,-56,-1,-1,0
26533,393216,100,-56,-1,-1,0
26566,-262144,100,-56,-1,-1,0
26599,-655360,100,-56,-1,-1,0
26633,-327680,100,-56,-1,-1,0
26666,-524288,101,-56,-1,-1,0
26700,-524288,101,-56,-1,-1,0
26733,-393216,101,-56,-1,-1,0
26766,-655360,101,-56,-1,-1,0
26800,-720896,101,-56,-1,-1,0
26833,5242880,101,-56,-1,-1,0
26866,-851968,101,-56,-1,-1,0
26900,-851968,101,-56,-1,-1,0
26933,-589824,101,-56,-1,-1,0
26966,-131072,101,-56,-1,-1,0
27000,655360,101,-56,-1,-1,0
27033,589824,101,-56,-1,-1,0
27066,-65536,101,-56,-1,-1,0
27099,0,101,-56,-1,-1,0
27133,0,101,-56,-1,-1,0
27166,-131072,102,-56,-1,-1,0
27200,-131072,102,-56,-1,-1,0
27233,-589824,102,-56,-1,-1,0
27266,-524288,102,-56,-1,-1,0
27300,7143424,102,-56,-1,-1,0
27333,-589824,102,-56,-1,-1,0
27366,-524288,102,-56,-1,-1,0
27400,-327680,102,-56,-1,-1,0
27433,-65536,102,-56,-1,-1,0
27466,524288,102,-56,-1,-1,0
27500,131072,102,-56,-1,-1,0
27533,-589824,102,-56,-1,-1,0
27566,-262144,102,-56,-1,-1,0
27599,-131072,102,-56,-1,-1,0
27633,-196608,102,-56,-1,-1,0
27666,-196608,102,-56,-1,-1,0
27700,-524288,102,-56,-1,-1,0
27733,-655360,102,-56,-1,-1,0
27766,6488064,102,-56,-1,-1,0
27800,-851968,102,-56,-1,-1,0
27833,-851968,102,-56,-1,-1,0
27866,-851968,102,-56,-1,-1,0
27900,-458752,102,-56,-1,-1,0
27933,262144,102,-56,-1,-1,0
27966,720896,102,-56,-1,-1,0
28000,0,102,-56,-1,-1,0
28033,-196608,102,-56,-1,-1,0
28066,0,102,-56,-1,-1,0
28099,0,102,-56,-1,-1,0
28133,-131072,102,-56,-1,-1,0
28166,-65536,102,-56,-1,-1,0
28200,-589824,102,-56,-1,-1,0
28233,-393216,102,-56,-1,-1,0
28266,3080192,102,-56,-1,-1,0
28300,-851968,102,-56,-1,-1,0
28333,-786432,102,-56,-1,-1,0
28366,-851968,102,-56,-1,-1,0
28400,-262144,102,-56,-1,-1,0
28433,327680,102,-56,-1,-1,0
28466,131072,102,-56,-1,-1,0
28500,-196608,102,-56,-1,-1,0
28533,-196608,102,-56,-1,-1,0
28566,-65536,102,-56,-1,-1,0
28599,-262144,102,-56,-1,-1,0
28633,-327680,102,-56,-1,-1,0
28666,-458752,102,-56,-1,-1,0
28700,-720896,102,-56,-1,-1,0
28733,1048576,102,-56,-1,-1,0
28766,65536,102,-56,-1,-1,0
28800,-720896,102,-56,-1,-1,0
28833,-458752,102,-56,-1,-1,0
28866,-196608,102,-56,-1,-1,0
28900,327680,102,-56,-1,-1,0
28933,983040,102,-56,-1,-1,0
28966,196608,102,-56,-1,-1,0
29000,-131072,102,-56,-1,-1,0
29033,0,102,-56,-1,-1,0
29066,-131072,102,-56,-1,-1,0
29099,-262144,102,-56,-1,-1,0
29133,-327680,102,-56,-1,-1,0
29166,-655360,102,-56,-1,-1,0
29200,-655360,102,-56,-1,-1,0
29233,2686976,102,-56,-1,-1,0
29266,-1179648,102,-56,-1,-1,0
29300,-917504,102,-56,-1,-1,0
29333,-851968,102,-56,-1,-1,0
29366,-524288,102,-56,-1,-1,0
29400,262144,102,-56,-1,-1,0
29433,851968,102,-56,-1,-1,0
29466,65536,102,-56,-1,-1,0
29500,-262144,102,-56,-1,-1,0
29533,-196608,102,-56,-1,-1,0
29566,-262144,102,-56,-1,-1,0
29599,-589824,102,-56,-1,-1,0
29633,-655360,102,-56,-1,-1,0
29666,-589824,102,-56,-1,-1,0
29700,-786432,102,-56,-1,-1,0
29733,-196608,102,-56,-1,-1,0
29766,2490368,102,-56,-1,-1,0
29800,-589824,102,-56,-1,-1,0
29833,-327680,102,-56,-1,-1,0
29866,-786432,102,-56,-1,-1,0
29900,262144,102,-56,-1,-1,0
29933,851968,102,-56,-1,-1,0
29966,655360,102,-56,-1,-1,0
30000,65536,102,-56,-1,-1,0
30033,65536,102,-56,-1,-1,0
30066,65536,102,-56,-1,-1,0
30099,-196608,102,-56,-1,-1,0
30133,-589824,102,-56,-1,-1,0
30166,-262144,102,-56,-1,-1,0
30200,-786432,102,-56,-1,-1,0
30233,-917504,102,-56,-1,-1,0
30266,4259840,102,-56,-1,-1,0
30300,-983040,102,-56,-1,-1,0
30333,-851968,102,-56,-1,-1,0
30366,-458752,102,-56,-1,-1,0
30400,-393216,102,-56,-1,-1,0
30433,65536,102,-56,-1,-1,0
30466,393216,102,-56,-1,-1,0
30500,-196608,102,-56,-1,-1,0
30533,-524288,102,-56,-1,-1,0
30566,-458752,102,-56,-1,-1,0
30599,-393216,102,-56,-1,-1,0
30633,-589824,102,-56,-1,-1,0
30666,-655360,102,-56,-1,-1,0
30700,-327680,102,-56,-1,-1,0
30733,-786432,102,-56,-1,-1,0
30766,-917504,102,-56,-1,-1,0
30800,6946816,102,-56,-1,-1,0
30833,-851968,102,-56,-1,-1,0
30866,-1048576,102,-56,-1,-1,0
30900,-1114112,102,-56,-1,-1,0
30933,-524288,102,-56,-1,-1,0
30966,196608,102,-56,-1,-1,0
31000,0,102,-56,-1,-1,0
31033,-786432,102,-56,-1,-1,0
31066,-851968,102,-56,-1,-1,0
31099,-655360,102,-56,-1,-1,0
31133,-851968,102,-56,-1,-1,0
31166,-983040,102,-56,-1,-1,0
31200,-589824,102,-56,-1,-1,0
31233,-983040,102,-56,-1,-1,0
31266,-983040,102,-56,-1,-1,0
31300,6029312,102,-56,-1,-1,0
31333,-1048576,102,-56,-1,-1,0
31366,-1179648,102,-56,-1,-1,0
31400,-1048576,102,-56,-1,-1,0
31433,-524288,102,-56,-1,-1,0
31466,65536,102,-56,-1,-1,0
31500,589824,102,-56,-1,-1,0
31533,-65536,102,-56,-1,-1,0
31566,-327680,102,-56,-1,-1,0
31599,131072,102,-56,-1,-1,0
31633,-65536,102,-56,-1,-1,0
31666,-458752,102,-56,-1,-1,0
31700,-196608,102,-56,-1,-1,0
31733,-327680,102,-56,-1,-1,0
31766,-458752,102,-56,-1,-1,0
31800,131072,102,-56,-1,-1,0
31833,1245184,102,-56,-1,-1,0
31866,-655360,102,-56,-1,-1,0
31900,-720896,102,-56,-1,-1,0
31933,-524288,102,-56,-1,-1,0
31966,0,102,-56,-1,-1,0
32000,589824,102,-56,-1,-1,0
32033,393216,102,-56,-1,-1,0
32066,0,102,-56,-1,-1,0
32100,65536,102,-56,-1,-1,0
32133,-65536,102,-56,-1,-1,0
32166,-393216,102,-56,-1,-1,0
32200,-589824,102,-56,-1,-1,0
32233,-327680,102,-56,-1,-1,0
32266,-851968,102,-56,-1,-1,0
32299,-917504,102,-56,-1,-1,0
32333,7798784,102,-56,-1,-1,0
32366,-655360,102,-56,-1,-1,0
32400,-655360,102,-56,-1,-1,0
32433,-393216,102,-56,-1,-1,0
32466,-65536,102,-56,-1,-1,0
32500,655360,102,-56,-1,-1,0
32533,917504,102,-56,-1,-1,0
32566,196608,102,-56,-1,-1,0
32600,-131072,102,-56,-1,-1,0
32633,196608,102,-56,-1,-1,0
32666,65536,101,-56,-1,-1,0
32700,-196608,101,-56,-1,-1,0
32733,0,101,-56,-1,-1,0
32766,-524288,101,-56,-1,-1,0
32800,-524288,101,-56,-1,-1,0
32833,7929856,101,-56,-1,-1,0
32866,-524288,101,-56,-1,-1,0
32900,-327680,101,-56,-1,-1,0
32933,-196608,101,-56,-1,-1,0
32966,131072,101,-56,-1,-1,0
33000,1048576,101,-56,-1,-1,0
33033,1114112,101,-56,-1,-1,0
33066,-131072,101,-56,-1,-1,0
33100,-589824,101,-56,-1,-1,0
33133,-393216,101,-56,-1,-1,0
33166,-786432,101,-56,-1,-1,0
33200,-458752,101,-56,-1,-1,0
33233,-851968,101,-56,-1,-1,0
33266,-786432,101,-56,-1,-1,0
33300,7667712,101,-56,-1,-1,0
33333,-720896,101,-56,-1,-1,0
33366,-786432,101,-56,-1,-1,0
33400,-786432,101,-56,-1,-1,0
33433,-65536,101,-56,-1,-1,0
33466,983040,101,-56,-1,-1,0
33500,262144,101,-56,-1,-1,0
33533,-524288,101,-56,-1,-1,0
33566,-524288,102,-56,-1,-1,0
33600,-393216,102,-56,-1,-1,0
33633,-720896,102,-56,-1,-1,0
33666,-983040,102,-56,-1,-1,0
33700,-1114112,102,-56,-1,-1,0
33733,8781824,102,-56,-1,-1,0
33766,-1048576,102,-56,-1,-1,0
33800,-1048576,102,-56,-1,-1,0
33833,-720896,102,-56,-1,-1,0
33866,-196608,102,-56,-1,-1,0
33900,524288,102,-56,-1,-1,0
33933,524288,102,-56,-1,-1,0
33966,-655360,102,-56,-1,-1,0
34000,-917504,102,-56,-1,-1,0
34033,-589824,102,-56,-1,-1,0
34066,-786432,101,-56,-1,-1,0
34100,-655360,101,-56,-1,-1,0
34133,-983040,101,-56,-1,-1,0
34166,786432,101,-56,-1,-1,0
34200,786432,101,-56,-1,-1,0
34233,-1048576,101,-56,-1,-1,0
34266,-1114112,101,-56,-1,-1,0
34300,-851968,101,-56,-1,-1,0
34333,-196608,101,-56,-1,-1,0
34366,458752,101,-56,-1,-1,0
34400,-262144,101,-56,-1,-1,0
34433,-851968,101,-56,-1,-1,0
34466,-720896,101,-56,-1,-1,0
34500,-786432,101,-56,-1,-1,0
34533,-1048576,101,-56,-1,-1,0
34566,-1179648,101,-56,-1,-1,0
34600,-983040,101,-56,-1,-1,0
34633,-1179648,101,-56,-1,-1,0
34666,65536,101,-56,-1,-1,0
34700,1310720,101,-56,-1,-1,0
34733,-786432,101,-56,-1,-1,0
34766,-1114112,101,-56,-1,-1,0
34800,-917504,101,-56,-1,-1,0
34833,-524288,101,-56,-1,-1,0
34866,393216,101,-56,-1,-1,0
34900,196608,101,-56,-1,-1,0
34933,-196608,101,-56,-1,-1,0
34966,-262144,101,-56,-1,-1,0
35000,-131072,101,-56,-1,-1,0
35033,-196608,101,-56,-1,-1,0
35066,-131072,100,-56,-1,-1,0
35100,-327680,100,-56,-1,-1,0
35133,-458752,100,-56,-1,-1,0
35166,4784128,100,-56,-1,-1,0
35200,-327680,100,-56,-1,-1,0
35233,-524288,100,-56,-1,-1,0
35266,-393216,100,-56,-1,-1,0
35300,0,100,-56,-1,-1,0
35333,655360,100,-56,-1,-1,0
35366,393216,100,-56,-1,-1,0
35400,-196608,100,-56,-1,-1,0
35433,-196608,100,-56,-1,-1,0
35466,-196608,100,-56,-1,-1,0
35500,-327680,100,-56,-1,-1,0
35533,-458752,100,-56,-1,-1,0
35566,-65536,100,-56,-1,-1,0
35600,-786432,100,-56,-1,-1,0
35633,-917504,100,-56,-1,-1,0
35666,8192000,100,-56,-1,-1,0
35700,-851968,100,-56,-1,-1,0
35733,-851968,100,-56,-1,-1,0
35766,-786432,100,-56,-1,-1,0
35800,-196608,100,-56,-1,-1,0
35833,655360,100,-56,-1,-1,0
35866,917504,100,-56,-1,-1,0
35900,0,100,-56,-1,-1,0
35933,-65536,100,-56,-1,-1,0
35966,196608,100,-56,-1,-1,0
36000,-196608,100,-56,-1,-1,0
36033,-131072,100,-56,-1,-1,0
36066,0,100,-56,-1,-1,0
36100,-393216,100,-56,-1,-1,0
36133,1507328,100,-56,-1,-1,0
36166,-327680,100,-56,-1,-1,0
36200,-524288,100,-56,-1,-1,0
36233,-589824,100,-56,-1,-1,0
36266,-393216,100,-56,-1,-1,0
36300,196608,100,-56,-1,-1,0
36333,589824,100,-56,-1,-1,0
36366,0,100,-56,-1,-1,0
36400,-458752,100,-56,-1,-1,0
36433,65536,100,-56,-1,-1,0
36466,-65536,100,-56,-1,-1,0
36500,-262144,100,-56,-1,-1,0
36533,-262144,100,-56,-1,-1,0
36566,-720896,100,-56,-1,-1,0
36600,-655360,100,-56,-1,-1,0
36633,589824,100,-56,-1,-1,0
36666,458752,100,-56,-1,-1,0
36700,-720896,100,-56,-1,-1,0
36733,-589824,100,-56,-1,-1,0
36766,-589824,100,-56,-1,-1,0
36800,196608,100,-56,-1,-1,0
36833,917504,100,-56,-1,-1,0
36866,524288,100,-56,-1,-1,0
36900,65536,100,-56,-1,-1,0
36933,0,100,-56,-1,-1,0
36966,-196608,100,-56,-1,-1,0
37000,-393216,100,-56,-1,-1,0
37033,-524288,100,-56,-1,-1,0
37066,-393216,99,-56,-1,-1,0
37100,-851968,99,-56,-1,-1,0
37133,-524288,99,-56,-1,-1,0
37166,4784128,99,-56,-1,-1,0
37200,-786432,99,-56,-1,-1,0
37233,-917504,99,-56,-1,-1,0
37266,-851968,99,-56,-1,-1,0
37300,-131072,99,-56,-1,-1,0
37333,720896,99,-56,-1,-1,0
37366,458752,99,-56,-1,-1,0
37400,-262144,99,-56,-1,-1,0
37433,-131072,99,-56,-1,-1,0
37466,-393216,99,-56,-1,-1,0
37500,-655360,99,-56,-1,-1,0
37533,-851968,99,-56,-1,-1,0
37566,-589824,99,-56,-1,-1,0
37600,-983040,99,-56,-1,-1,0
37633,-1048576,99,-56,-1,-1,0
37666,7405568,99,-56,-1,-1,0
37700,-786432,99,-56,-1,-1,0
37733,-1048576,99,-56,-1,-1,0
37766,-786432,99,-56,-1,-1,0
37800,-655360,99,-56,-1,-1,0
37833,327680,99,-56,-1,-1,0
37866,524288,99,-56,-1,-1,0
37900,-131072,99,-56,-1,-1,0
37933,-131072,99,-56,-1,-1,0
37966,0,99,-56,-1,-1,0
38000,-196608,99,-56,-1,-1,0
38033,-262144,100,-56,-1,-1,0
38066,-196608,100,-56,-1,-1,0
38100,-720896,100,-56,-1,-1,0
38133,-655360,100,-56,-1,-1,0
38166,5570560,100,-56,-1,-1,0
38200,-655360,100,-56,-1,-1,0
38233,-524288,100,-56,-1,-1,0
38266,-393216,100,-56,-1,-1,0
38300,-65536,100,-56,-1,-1,0
38333,393216,100,-56,-1,-1,0
38366,0,100,-56,-1,-1,0
38400,-458752,100,-56,-1,-1,0
38433,-393216,100,-56,-1,-1,0
38466,-327680,100,-56,-1,-1,0
38500,-589824,100,-56,-1,-1,0
38533,-393216,100,-56,-1,-1,0
38566,-458752,100,-56,-1,-1,0
38600,-655360,100,-56,-1,-1,0
38633,458752,100,-56,-1,-1,0
38666,1048576,100,-56,-1,-1,0
38700,-589824,100,-56,-1,-1,0
38733,-655360,100,-56,-1,-1,0
38766,-458752,100,-56,-1,-1,0
38800,65536,100,-56,-1,-1,0
38833,786432,100,-56,-1,-1,0
38866,327680,100,-56,-1,-1,0
38900,0,100,-56,-1,-1,0
38933,0,100,-56,-1,-1,0
38966,-65536,100,-56,-1,-1,0
39000,-393216,100,-56,-1,-1,0
39033,-131072,100,-56,-1,-1,0
39066,-524288,100,-56,-1,-1,0
39100,-524288,100,-56,-1,-1,0
39133,3866624,100,-56,-1,-1,0
39166,-917504,100,-56,-1,-1,0
39200,-851968,100,-56,-1,-1,0
39233,-786432,100,-56,-1,-1,0
39266,-589824,100,-56,-1,-1,0
39300,131072,100,-56,-1,-1,0
39333,589824,100,-56,-1,-1,0
39366,-196608,100,-56,-1,-1,0
39400,-589824,100,-56,-1,-1,0
39433,-196608,100,-56,-1,-1,0
39466,-393216,101,-56,-1,-1,0
39500,-458752,101,-56,-1,-1,0
39533,-655360,101,-56,-1,-1,0
39566,-786432,101,-56,-1,-1,0
39600,720896,101,-56,-1,-1,0
39633,-131072,101,-56,-1,-1,0
39666,-655360,101,-56,-1,-1,0
39700,-524288,101,-56,-1,-1,0
39733,-196608,101,-56,-1,-1,0
39766,262144,101,-56,-1,-1,0
39800,589824,101,-56,-1,-1,0
39833,0,101,-56,-1,-1,0
39866,-458752,101,-56,-1,-1,0
39900,-196608,101,-56,-1,-1,0
39933,-458752,102,-56,-1,-1,0
39966,-524288,102,-56,-1,-1,0
40000,-458752,102,-56,-1,-1,0
40033,-720896,102,-56,-1,-1,0
40066,5636096,102,-56,-1,-1,0
40100,-720896,102,-56,-1,-1,0
40133,-1114112,102,-56,-1,-1,0
40166,-1048576,102,-56,-1,-1,0
40200,-720896,102,-56,-1,-1,0
40233,0,102,-56,-1,-1,0
40266,262144,102,-56,-1,-1,0
40300,-327680,102,-56,-1,-1,0
40333,-262144,102,-56,-1,-1,0
40366,-131072,102,-56,-1,-1,0
40400,-458752,102,-56,-1,-1,0
40433,-524288,102,-56,-1,-1,0
40466,-393216,102,-56,-1,-1,0
40500,-524288,102,-56,-1,-1,0
40533,-589824,102,-56,-1,-1,0
40566,3145728,102,-56,-1,-1,0
40600,-786432,102,-56,-1,-1,0
40633,-655360,102,-56,-1,-1,0
40666,-262144,102,-56,-1,-1,0
40700,65536,102,-56,-1,-1,0
40733,589824,102,-56,-1,-1,0
40766,131072,102,-56,-1,-1,0
40800,-262144,102,-56,-1,-1,0
40833,0,102,-56,-1,-1,0
40866,0,103,-56,-1,-1,0
40900,-262144,103,-56,-1,-1,0
40933,-65536,103,-56,-1,-1,0
40966,-589824,103,-56,-1,-1,0
41000,-917504,103,-56,-1,-1,0
41033,7471104,103,-56,-1,-1,0
41066,-983040,103,-56,-1,-1,0
41100,-1114112,103,-56,-1,-1,0
41133,-851968,103,-56,-1,-1,0
41166,-196608,103,-56,-1,-1,0
41200,458752,103,-56,-1,-1,0
41233,327680,103,-56,-1,-1,0
41266,-393216,103,-56,-1,-1,0
41300,-196608,103,-56,-1,-1,0
41333,-196608,103,-56,-1,-1,0
41366,-393216,103,-56,-1,-1,0
41400,-131072,103,-56,-1,-1,0
41433,-720896,103,-56,-1,-1,0
41466,-524288,103,-56,-1,-1,0
41500,7733248,103,-56,-1,-1,0
41533,-327680,103,-56,-1,-1,0
41566,-524288,103,-56,-1,-1,0
41600,-262144,103,-56,-1,-1,0
41633,0,103,-56,-1,-1,0
41666,524288,103,-56,-1,-1,0
41700,196608,103,-56,-1,-1,0
41733,-327680,103,-56,-1,-1,0
41766,-262144,103,-56,-1,-1,0
41800,-196608,103,-56,-1,-1,0
41833,-327680,103,-56,-1,-1,0
41866,-131072,103,-56,-1,-1,0
41900,-524288,103,-56,-1,-1,0
41933,-786432,103,-56,-1,-1,0
41966,8192000,103,-56,-1,-1,0
42000,-1114112,103,-56,-1,-1,0
42033,-1048576,103,-56,-1,-1,0
42066,-1048576,103,-56,-1,-1,0
42100,-393216,103,-56,-1,-1,0
42133,393216,103,-56,-1,-1,0
42166,393216,103,-56,-1,-1,0
42200,-262144,103,-56,-1,-1,0
42233,-65536,103,-56,-1,-1,0
42266,-65536,103,-56,-1,-1,0
42300,-262144,103,-56,-1,-1,0
42333,-393216,103,-56,-1,-1,0
42366,-720896,103,-56,-1,-1,0
42400,-720896,103,-56,-1,-1,0
42433,6029312,103,-56,-1,-1,0
42466,-851968,103,-56,-1,-1,0
42500,-786432,103,-56,-1,-1,0
42533,-655360,103,-56,-1,-1,0
42566,-327680,103,-56,-1,-1,0
42600,393216,103,-56,-1,-1,0
42633,458752,103,-56,-1,-1,0
42666,0,103,-56,-1,-1,0
42700,-131072,103,-56,-1,-1,0
42733,0,103,-56,-1,-1,0
42766,-262144,104,-56,-1,-1,0
42800,-327680,104,-56,-1,-1,0
42833,-524288,104,-56,-1,-1,0
42866,-786432,104,-56,-1,-1,0
42900,1179648,104,-56,-1,-1,0
42933,-589824,104,-56,-1,-1,0
42966,-983040,104,-56,-1,-1,0
43000,-917504,104,-56,-1,-1,0
43033,-589824,104,-56,-1,-1,0
43066,131072,104,-56,-1,-1,0
43100,851968,104,-56,-1,-1,0
43133,0,104,-56,-1,-1,0
43166,-131072,104,-56,-1,-1,0
43200,0,104,-56,-1,-1,0
43233,-65536,104,-56,-1,-1,0
43266,-458752,104,-56,-1,-1,0
43300,-458752,104,-56,-1,-1,0
43333,-720896,104,-56,-1,-1,0
43366,458752,104,-56,-1,-1,0
43400,720896,104,-56,-1,-1,0
43433,-720896,104,-56,-1,-1,0
43466,-655360,104,-56,-1,-1,0
43500,-720896,104,-56,-1,-1,0
43533,131072,104,-56,-1,-1,0
43566,655360,104,-56,-1,-1,0
43600,-131072,104,-56,-1,-1,0
43633,-262144,104,-56,-1,-1,0
43666,65536,104,-56,-1,-1,0
43700,0,104,-56,-1,-1,0
43733,-458752,104,-56,-1,-1,0
43766,-327680,104,-56,-1,-1,0
43800,-917504,104,-56,-1,-1,0
43833,-720896,104,-56,-1,-1,0
43866,7536640,104,-56,-1,-1,0
43900,-917504,104,-56,-1,-1,0
43933,-851968,104,-56,-1,-1,0
43966,-720896,104,-56,-1,-1,0
44000,-327680,104,-56,-1,-1,0
44033,393216,104,-56,-1,-1,0
44066,458752,104,-56,-1,-1,0
44100,-196608,104,-56,-1,-1,0
44133,-262144,104,-56,-1,-1,0
44166,0,104,-56,-1,-1,0
44200,-262144,104,-56,-1,-1,0
44233,-262144,104,-56,-1,-1,0
44266,-655360,104,-56,-1,-1,0
44300,-589824,104,-56,-1,-1,0
44333,1638400,104,-56,-1,-1,0
44366,-851968,104,-56,-1,-1,0
44400,-720896,104,-56,-1,-1,0
44433,-524288,104,-56,-1,-1,0
44466,-458752,104,-56,-1,-1,0
44500,458752,104,-56,-1,-1,0
44533,851968,104,-56,-1,-1,0
44566,458752,104,-56,-1,-1,0
44600,-65536,104,-56,-1,-1,0
44633,131072,104,-56,-1,-1,0
44666,-131072,104,-56,-1,-1,0
44700,-458752,104,-56,-1,-1,0
44733,-393216,104,-56,-1,-1,0
44766,-720896,104,-56,-1,-1,0
44800,-655360,104,-56,-1,-1,0
44833,4521984,104,-56,-1,-1,0
44866,-720896,104,-56,-1,-1,0
44900,-720896,104,-56,-1,-1,0
44933,-458752,104,-56,-1,-1,0
44966,196608,104,-56,-1,-1,0
45000,720896,104,-56,-1,-1,0
45033,0,104,-56,-1,-1,0
45066,-589824,104,-56,-1,-1,0
45100,-458752,104,-56,-1,-1,0
45133,-262144,104,-56,-1,-1,0
45166,-655360,104,-56,-1,-1,0
45200,-458752,104,-56,-1,-1,0
45233,-917504,104,-56,-1,-1,0
45266,-983040,104,-56,-1,-1,0
45300,4390912,104,-56,-1,-1,0
45333,-917504,104,-56,-1,-1,0
45366,-1048576,104,-56,-1,-1,0
45400,-589824,104,-56,-1,-1,0
45433,-65536,104,-56,-1,-1,0
45466,589824,104,-56,-1,-1,0
45500,0,104,-56,-1,-1,0
45533,-458752,104,-56,-1,-1,0
45566,-393216,104,-56,-1,-1,0
45600,-393216,105,-56,-1,-1,0
45633,-655360,105,-56,-1,-1,0
45666,-458752,105,-56,-1,-1,0
45700,-851968,105,-56,-1,-1,0
45733,-851968,105,-56,-1,-1,0
45766,6029312,105,-56,-1,-1,0
45800,-786432,105,-56,-1,-1,0
45833,-786432,105,-56,-1,-1,0
45866,-589824,105,-56,-1,-1,0
45900,0,105,-56,-1,-1,0
45933,589824,105,-56,-1,-1,0
45966,393216,105,-56,-1,-1,0
46000,-65536,105,-56,-1,-1,0
46033,-131072,105,-56,-1,-1,0
46066,0,105,-56,-1,-1,0
46100,-393216,105,-56,-1,-1,0
46133,-131072,105,-56,-1,-1,0
46166,-589824,105,-56,-1,-1,0
46200,-589824,105,-56,-1,-1,0
46233,4849664,105,-56,-1,-1,0
46266,-786432,105,-56,-1,-1,0
46300,-524288,105,-56,-1,-1,0
46333,-327680,105,-56,-1,-1,0
46366,131072,105,-56,-1,-1,0
46400,786432,105,-56,-1,-1,0
46433,393216,105,-56,-1,-1,0
46466,-393216,105,-56,-1,-1,0
46500,-262144,105,-56,-1,-1,0
46533,-458752,106,-56,-1,-1,0
46566,-458752,106,-56,-1,-1,0
46600,-655360,106,-56,-1,-1,0
46633,-786432,106,-56,-1,-1,0
46666,1441792,106,-56,-1,-1,0
46700,-262144,106,-56,-1,-1,0
46733,-720896,106,-56,-1,-1,0
46766,-589824,106,-56,-1,-1,0
46800,-262144,106,-56,-1,-1,0
46833,196608,106,-56,-1,-1,0
46866,655360,106,-56,-1,-1,0
46900,0,106,-56,-1,-1,0
46933,-131072,106,-56,-1,-1,0
46966,-131072,106,-56,-1,-1,0
47000,-196608,106,-56,-1,-1,0
47033,-262144,106,-56,-1,-1,0
47066,-786432,106,-56,-1,-1,0
47100,-917504,106,-56,-1,-1,0
47133,4980736,106,-56,-1,-1,0
47166,-1114112,106,-56,-1,-1,0
47200,-655360,106,-56,-1,-1,0
47233,-589824,106,-56,-1,-1,0
47266,-131072,106,-56,-1,-1,0
47300,458752,106,-56,-1,-1,0
47333,655360,106,-56,-1,-1,0
47366,-262144,106,-56,-1,-1,0
47400,-327680,106,-56,-1,-1,0
47433,-524288,106,-56,-1,-1,0
47466,-786432,106,-56,-1,-1,0
47500,-458752,106,-56,-1,-1,0
47533,-917504,106,-56,-1,-1,0
47566,-917504,106,-56,-1,-1,0
47600,7995392,106,-56,-1,-1,0
47633,-720896,106,-56,-1,-1,0
47666,-917504,106,-56,-1,-1,0
47700,-589824,106,-56,-1,-1,0
47733,-131072,106,-56,-1,-1,0
47766,131072,106,-56,-1,-1,0
47800,262144,106,-56,-1,-1,0
47833,-196608,106,-56,-1,-1,0
47866,-262144,106,-56,-1,-1,0
47900,-196608,106,-56,-1,-1,0
47933,-262144,106,-56,-1,-1,0
47966,-655360,106,-56,-1,-1,0
48000,-917504,106,-56,-1,-1,0
48033,1900544,106,-56,-1,-1,0
48066,-917504,106,-56,-1,-1,0
48100,-720896,106,-56,-1,-1,0
48133,-458752,106,-56,-1,-1,0
48166,-131072,106,-56,-1,-1,0
48200,393216,106,-56,-1,-1,0
48233,589824,106,-56,-1,-1,0
48266,-393216,106,-56,-1,-1,0
48300,-655360,106,-56,-1,-1,0
48333,-524288,107,-56,-1,-1,0
48366,-720896,107,-56,-1,-1,0
48400,-458752,107,-56,-1,-1,0
48433,-1048576,107,-56,-1,-1,0
48466,-1048576,107,-56,-1,-1,0
48500,8192000,107,-56,-1,-1,0
48533,-917504,107,-56,-1,-1,0
48566,-786432,107,-56,-1,-1,0
48600,-458752,107,-56,-1,-1,0
48633,-393216,107,-56,-1,-1,0
48666,393216,107,-56,-1,-1,0
48700,65536,107,-56,-1,-1,0
48733,-458752,107,-56,-1,-1,0
48766,-327680,107,-56,-1,-1,0
48800,-327680,107,-56,-1,-1,0
48833,-720896,107,-56,-1,-1,0
48866,-720896,107,-56,-1,-1,0
48900,-1048576,107,-56,-1,-1,0
48933,-655360,107,-56,-1,-1,0
48966,1048576,107,-56,-1,-1,0
49000,-1114112,107,-56,-1,-1,0
49033,-720896,107,-56,-1,-1,0
49066,-655360,107,-56,-1,-1,0
49100,-65536,107,-56,-1,-1,0
49133,327680,107,-56,-1,-1,0
49166,-262144,107,-56,-1,-1,0
49200,-589824,107,-56,-1,-1,0
49233,-655360,107,-56,-1,-1,0
49266,-851968,107,-56,-1,-1,0
49300,-720896,107,-56,-1,-1,0
49333,-983040,107,-56,-1,-1,0
49366,-1048576,107,-56,-1,-1,0
49400,4980736,107,-56,-1,-1,0
49433,-1048576,107,-56,-1,-1,0
49466,-786432,107,-56,-1,-1,0
49500,-589824,107,-56,-1,-1,0
49533,-393216,107,-56,-1,-1,0
49566,196608,107,-56,-1,-1,0
49600,720896,107,-56,-1,-1,0
49633,-458752,107,-56,-1,-1,0
49666,-131072,107,-56,-1,-1,0
49700,-262144,107,-56,-1,-1,0
49733,-458752,107,-56,-1,-1,0
49766,-458752,107,-56,-1,-1,0
49800,-983040,107,-56,-1,-1,0
49833,-917504,107,-56,-1,-1,0
49866,6029312,107,-56,-1,-1,0
49900,-720896,107,-56,-1,-1,0
49933,-720896,107,-56,-1,-1,0
49966,-393216,107,-56,-1,-1,0
50000,131072,107,-56,-1,-1,0
