milliseconds, ECG, ECG HR, PPG, PPG HR, SpO2, PI
1523626530780,-983040,87,-56,-1,-1,0
1523626530780,-917504,87,-56,-1,-1,0
1523626530780,-917504,87,-56,-1,-1,0
1523626530780,-983040,87,-56,-1,-1,0
1523626530780,-983040,87,-56,-1,-1,0
1523626530825,-983040,87,-56,-1,-1,0
1523626530825,-1048576,87,-56,-1,-1,0
1523626530825,-983040,87,-56,-1,-1,0
1523626530825,-917504,87,-56,-1,-1,0
1523626530825,-786432,87,-56,-1,-1,0
1523626530860,-655360,87,-56,-1,-1,0
1523626530860,-524288,87,-56,-1,-1,0
1523626530860,-589824,87,-56,-1,-1,0
1523626530860,-720896,87,-56,-1,-1,0
1523626530860,-851968,87,-56,-1,-1,0
1523626530900,-917504,87,-56,-1,-1,0
1523626530900,-917504,87,-56,-1,-1,0
1523626530900,-917504,87,-56,-1,-1,0
1523626530900,-917504,87,-56,-1,-1,0
1523626530900,-917504,87,-56,-1,-1,0
1523626530940,-851968,85,-56,-1,-1,0
1523626530940,-917504,85,-56,-1,-1,0
1523626530940,-851968,85,-56,-1,-1,0
1523626530940,196608,85,-56,-1,-1,0
1523626530940,3276800,85,-56,-1,-1,0
1523626530980,7405568,85,-56,-1,-1,0
1523626530980,9175040,85,-56,-1,-1,0
1523626530980,5701632,85,-56,-1,-1,0
1523626530980,983040,85,-56,-1,-1,0
1523626530980,-655360,85,-56,-1,-1,0
1523626531020,-524288,85,-56,-1,-1,0
1523626531020,-524288,85,-56,-1,-1,0
1523626531020,-589824,85,-56,-1,-1,0
1523626531020,-524288,85,-56,-1,-1,0
1523626531020,-524288,85,-56,-1,-1,0
1523626531060,-458752,85,-56,-1,-1,0
1523626531060,-524288,85,-56,-1,-1,0
1523626531060,-524288,85,-56,-1,-1,0
1523626531060,-458752,85,-56,-1,-1,0
1523626531060,-393216,85,-56,-1,-1,0
1523626531100,-393216,85,-56,-1,-1,0
1523626531100,-327680,85,-56,-1,-1,0
1523626531100,-262144,85,-56,-1,-1,0
1523626531100,-131072,85,-56,-1,-1,0
1523626531100,0,85,-56,-1,-1,0
1523626531140,65536,85,-56,-1,-1,0
1523626531140,196608,85,-56,-1,-1,0
1523626531140,327680,85,-56,-1,-1,0
1523626531140,589824,85,-56,-1,-1,0
1523626531140,851968,85,-56,-1,-1,0
1523626531180,1114112,85,-56,-1,-1,0
1523626531180,1310720,85,-56,-1,-1,0
1523626531180,1441792,85,-56,-1,-1,0
1523626531180,1572864,85,-56,-1,-1,0
1523626531180,1572864,85,-56,-1,-1,0
1523626531220,1507328,85,-56,-1,-1,0
1523626531220,1376256,85,-56,-1,-1,0
1523626531220,1114112,85,-56,-1,-1,0
1523626531220,786432,85,-56,-1,-1,0
1523626531220,458752,85,-56,-1,-1,0
1523626531260,262144,85,-56,-1,-1,0
1523626531260,65536,85,-56,-1,-1,0
1523626531260,0,85,-56,-1,-1,0
1523626531260,0,85,-56,-1,-1,0
1523626531260,-65536,85,-56,-1,-1,0
1523626531300,-65536,85,-56,-1,-1,0
1523626531300,-65536,85,-56,-1,-1,0
1523626531300,-65536,85,-56,-1,-1,0
1523626531300,0,85,-56,-1,-1,0
1523626531300,-65536,85,-56,-1,-1,0
1523626531340,-65536,85,-56,-1,-1,0
1523626531340,0,85,-56,-1,-1,0
1523626531340,0,85,-56,-1,-1,0
1523626531340,0,85,-56,-1,-1,0
1523626531340,0,85,-56,-1,-1,0
1523626531380,-65536,85,-56,-1,-1,0
1523626531380,-65536,85,-56,-1,-1,0
1523626531380,-131072,85,-56,-1,-1,0
1523626531380,-131072,85,-56,-1,-1,0
1523626531380,-262144,85,-56,-1,-1,0
1523626531420,-327680,85,-56,-1,-1,0
1523626531420,-327680,85,-56,-1,-1,0
1523626531420,-327680,85,-56,-1,-1,0
1523626531420,-393216,85,-56,-1,-1,0
1523626531420,-393216,85,-56,-1,-1,0
1523626531461,-458752,85,-56,-1,-1,0
1523626531461,-524288,85,-56,-1,-1,0
1523626531461,-589824,85,-56,-1,-1,0
1523626531461,-589824,85,-56,-1,-1,0
1523626531461,-589824,85,-56,-1,-1,0
1523626531500,-589824,85,-56,-1,-1,0
1523626531500,-589824,85,-56,-1,-1,0
1523626531500,-589824,85,-56,-1,-1,0
1523626531500,-655360,85,-56,-1,-1,0
1523626531500,-655360,85,-56,-1,-1,0
1523626531540,-589824,85,-56,-1,-1,0
1523626531540,-458752,85,-56,-1,-1,0
1523626531540,-327680,85,-56,-1,-1,0
1523626531540,-393216,85,-56,-1,-1,0
1523626531540,-458752,85,-56,-1,-1,0
1523626531580,-589824,85,-56,-1,-1,0
1523626531580,-720896,85,-56,-1,-1,0
1523626531580,-786432,85,-56,-1,-1,0
1523626531580,-786432,85,-56,-1,-1,0
1523626531580,-720896,85,-56,-1,-1,0
1523626531620,-720896,85,-56,-1,-1,0
1523626531620,-720896,85,-56,-1,-1,0
1523626531620,-786432,85,-56,-1,-1,0
1523626531620,-851968,85,-56,-1,-1,0
1523626531620,-458752,85,-56,-1,-1,0
1523626531660,1310720,85,-56,-1,-1,0
1523626531660,4849664,85,-56,-1,-1,0
1523626531660,7995392,85,-56,-1,-1,0
1523626531660,6946816,85,-56,-1,-1,0
1523626531660,2490368,85,-56,-1,-1,0
1523626531700,-720896,85,-56,-1,-1,0
1523626531700,-917504,85,-56,-1,-1,0
1523626531700,-720896,85,-56,-1,-1,0
1523626531700,-786432,85,-56,-1,-1,0
1523626531700,-786432,85,-56,-1,-1,0
1523626531740,-786432,85,-56,-1,-1,0
1523626531740,-851968,85,-56,-1,-1,0
1523626531740,-851968,85,-56,-1,-1,0
1523626531740,-786432,85,-56,-1,-1,0
1523626531740,-720896,85,-56,-1,-1,0
1523626531780,-720896,85,-56,-1,-1,0
1523626531780,-720896,85,-56,-1,-1,0
1523626531780,-655360,85,-56,-1,-1,0
1523626531780,-655360,85,-56,-1,-1,0
1523626531780,-589824,85,-56,-1,-1,0
1523626531820,-524288,85,-56,-1,-1,0
1523626531820,-458752,85,-56,-1,-1,0
1523626531820,-262144,85,-56,-1,-1,0
1523626531820,-131072,85,-56,-1,-1,0
1523626531820,0,85,-56,-1,-1,0
1523626531860,196608,85,-56,-1,-1,0
1523626531860,458752,85,-56,-1,-1,0
1523626531860,720896,85,-56,-1,-1,0
1523626531860,917504,85,-56,-1,-1,0
1523626531860,1048576,85,-56,-1,-1,0
1523626531902,1114112,85,-56,-1,-1,0
1523626531902,1048576,85,-56,-1,-1,0
1523626531902,983040,85,-56,-1,-1,0
1523626531902,655360,85,-56,-1,-1,0
1523626531902,262144,85,-56,-1,-1,0
1523626531940,0,85,-56,-1,-1,0
1523626531940,-262144,85,-56,-1,-1,0
1523626531940,-393216,85,-56,-1,-1,0
1523626531940,-524288,85,-56,-1,-1,0
1523626531940,-589824,85,-56,-1,-1,0
1523626531980,-589824,85,-56,-1,-1,0
1523626531980,-720896,85,-56,-1,-1,0
1523626531980,-720896,85,-56,-1,-1,0
1523626531980,-720896,85,-56,-1,-1,0
1523626531980,-720896,85,-56,-1,-1,0
1523626532020,-720896,85,-56,-1,-1,0
1523626532020,-720896,85,-56,-1,-1,0
1523626532020,-589824,85,-56,-1,-1,0
1523626532020,-458752,85,-56,-1,-1,0
1523626532020,-393216,85,-56,-1,-1,0
1523626532060,-458752,85,-56,-1,-1,0
1523626532060,-458752,85,-56,-1,-1,0
1523626532060,-524288,85,-56,-1,-1,0
1523626532060,-524288,85,-56,-1,-1,0
1523626532060,-589824,85,-56,-1,-1,0
1523626532101,-655360,85,-56,-1,-1,0
1523626532101,-720896,85,-56,-1,-1,0
1523626532101,-786432,85,-56,-1,-1,0
1523626532101,-786432,85,-56,-1,-1,0
1523626532101,-720896,85,-56,-1,-1,0
1523626532140,-720896,85,-56,-1,-1,0
1523626532140,-786432,85,-56,-1,-1,0
1523626532140,-851968,85,-56,-1,-1,0
1523626532140,-851968,85,-56,-1,-1,0
1523626532140,-917504,85,-56,-1,-1,0
1523626532180,-917504,85,-56,-1,-1,0
1523626532180,-917504,85,-56,-1,-1,0
1523626532180,-983040,85,-56,-1,-1,0
1523626532180,-983040,85,-56,-1,-1,0
1523626532180,-917504,85,-56,-1,-1,0
1523626532220,-851968,85,-56,-1,-1,0
1523626532220,-851968,85,-56,-1,-1,0
1523626532220,-917504,85,-56,-1,-1,0
1523626532220,-851968,85,-56,-1,-1,0
1523626532220,-786432,85,-56,-1,-1,0
1523626532260,-655360,85,-56,-1,-1,0
1523626532260,-524288,85,-56,-1,-1,0
1523626532260,-524288,85,-56,-1,-1,0
1523626532260,-786432,85,-56,-1,-1,0
1523626532260,-917504,85,-56,-1,-1,0
1523626532300,-851968,85,-56,-1,-1,0
1523626532300,-851968,85,-56,-1,-1,0
1523626532300,-851968,85,-56,-1,-1,0
1523626532300,-851968,85,-56,-1,-1,0
1523626532300,-786432,85,-56,-1,-1,0
1523626532340,-851968,85,-56,-1,-1,0
1523626532340,-983040,85,-56,-1,-1,0
1523626532340,-720896,85,-56,-1,-1,0
1523626532340,917504,85,-56,-1,-1,0
1523626532340,4325376,85,-56,-1,-1,0
1523626532380,8126464,85,-56,-1,-1,0
1523626532380,8126464,85,-56,-1,-1,0
1523626532380,3866624,85,-56,-1,-1,0
1523626532380,-131072,85,-56,-1,-1,0
1523626532380,-917504,85,-56,-1,-1,0
1523626532420,-720896,85,-56,-1,-1,0
1523626532420,-720896,85,-56,-1,-1,0
1523626532420,-655360,85,-56,-1,-1,0
1523626532420,-589824,85,-56,-1,-1,0
1523626532420,-589824,85,-56,-1,-1,0
1523626532460,-589824,85,-56,-1,-1,0
1523626532460,-589824,85,-56,-1,-1,0
1523626532460,-589824,85,-56,-1,-1,0
1523626532460,-655360,85,-56,-1,-1,0
1523626532460,-589824,85,-56,-1,-1,0
1523626532500,-524288,85,-56,-1,-1,0
1523626532500,-393216,85,-56,-1,-1,0
1523626532500,-393216,85,-56,-1,-1,0
1523626532500,-327680,85,-56,-1,-1,0
1523626532500,-262144,85,-56,-1,-1,0
1523626532540,-65536,85,-56,-1,-1,0
1523626532540,131072,85,-56,-1,-1,0
1523626532540,327680,85,-56,-1,-1,0
1523626532540,458752,85,-56,-1,-1,0
1523626532540,720896,85,-56,-1,-1,0
1523626532580,983040,85,-56,-1,-1,0
1523626532580,1179648,85,-56,-1,-1,0
1523626532580,1310720,85,-56,-1,-1,0
1523626532580,1310720,85,-56,-1,-1,0
1523626532580,1310720,85,-56,-1,-1,0
1523626532620,1245184,85,-56,-1,-1,0
1523626532620,1048576,85,-56,-1,-1,0
1523626532620,720896,85,-56,-1,-1,0
1523626532620,458752,85,-56,-1,-1,0
1523626532620,131072,85,-56,-1,-1,0
1523626532660,-65536,85,-56,-1,-1,0
1523626532660,-196608,85,-56,-1,-1,0
1523626532660,-262144,85,-56,-1,-1,0
1523626532660,-327680,85,-56,-1,-1,0
1523626532660,-327680,85,-56,-1,-1,0
1523626532700,-393216,85,-56,-1,-1,0
1523626532700,-327680,85,-56,-1,-1,0
1523626532700,-262144,85,-56,-1,-1,0
1523626532700,-196608,85,-56,-1,-1,0
1523626532700,-131072,85,-56,-1,-1,0
1523626532741,-65536,85,-56,-1,-1,0
1523626532741,-65536,85,-56,-1,-1,0
1523626532741,0,85,-56,-1,-1,0
1523626532741,0,85,-56,-1,-1,0
1523626532741,0,85,-56,-1,-1,0
1523626532780,0,85,-56,-1,-1,0
1523626532780,0,85,-56,-1,-1,0
1523626532780,0,85,-56,-1,-1,0
1523626532780,0,85,-56,-1,-1,0
1523626532780,-65536,85,-56,-1,-1,0
1523626532820,-131072,85,-56,-1,-1,0
1523626532820,-131072,85,-56,-1,-1,0
1523626532820,-131072,85,-56,-1,-1,0
1523626532820,-131072,85,-56,-1,-1,0
1523626532820,-196608,85,-56,-1,-1,0
1523626532861,-262144,85,-56,-1,-1,0
1523626532861,-327680,85,-56,-1,-1,0
1523626532861,-327680,85,-56,-1,-1,0
1523626532861,-262144,85,-56,-1,-1,0
1523626532861,-196608,85,-56,-1,-1,0
1523626532900,-262144,85,-56,-1,-1,0
1523626532900,-393216,85,-56,-1,-1,0
1523626532900,-393216,85,-56,-1,-1,0
1523626532900,-327680,85,-56,-1,-1,0
1523626532900,-262144,85,-56,-1,-1,0
1523626532940,-131072,85,-56,-1,-1,0
1523626532940,-65536,85,-56,-1,-1,0
1523626532940,-65536,85,-56,-1,-1,0
1523626532940,-196608,85,-56,-1,-1,0
1523626532940,-327680,85,-56,-1,-1,0
1523626532980,-393216,85,-56,-1,-1,0
1523626532980,-524288,85,-56,-1,-1,0
1523626532980,-524288,85,-56,-1,-1,0
1523626532980,-524288,85,-56,-1,-1,0
1523626532980,-458752,85,-56,-1,-1,0
1523626533020,-458752,85,-56,-1,-1,0
1523626533020,-524288,85,-56,-1,-1,0
1523626533020,-589824,85,-56,-1,-1,0
1523626533020,-262144,85,-56,-1,-1,0
1523626533020,1048576,85,-56,-1,-1,0
1523626533060,4194304,85,-56,-1,-1,0
1523626533060,7733248,85,-56,-1,-1,0
1523626533060,7798784,85,-56,-1,-1,0
1523626533060,3735552,85,-56,-1,-1,0
1523626533060,0,85,-56,-1,-1,0
1523626533100,-720896,85,-56,-1,-1,0
1523626533100,-524288,85,-56,-1,-1,0
1523626533100,-655360,85,-56,-1,-1,0
1523626533100,-655360,85,-56,-1,-1,0
1523626533100,-589824,85,-56,-1,-1,0
1523626533140,-524288,85,-56,-1,-1,0
1523626533140,-458752,85,-56,-1,-1,0
1523626533140,-589824,85,-56,-1,-1,0
1523626533140,-589824,85,-56,-1,-1,0
1523626533140,-589824,85,-56,-1,-1,0
1523626533180,-655360,85,-56,-1,-1,0
1523626533180,-589824,85,-56,-1,-1,0
1523626533180,-458752,85,-56,-1,-1,0
1523626533180,-393216,85,-56,-1,-1,0
1523626533180,-393216,85,-56,-1,-1,0
1523626533220,-327680,85,-56,-1,-1,0
1523626533220,-196608,85,-56,-1,-1,0
1523626533220,0,85,-56,-1,-1,0
1523626533220,196608,85,-56,-1,-1,0
1523626533220,262144,85,-56,-1,-1,0
1523626533260,524288,85,-56,-1,-1,0
1523626533260,851968,85,-56,-1,-1,0
1523626533260,1114112,85,-56,-1,-1,0
1523626533260,1179648,85,-56,-1,-1,0
1523626533260,1310720,85,-56,-1,-1,0
1523626533300,1245184,85,-56,-1,-1,0
1523626533300,1114112,85,-56,-1,-1,0
1523626533300,917504,85,-56,-1,-1,0
1523626533300,589824,85,-56,-1,-1,0
1523626533300,262144,85,-56,-1,-1,0
1523626533340,65536,85,-56,-1,-1,0
1523626533340,0,85,-56,-1,-1,0
1523626533340,-196608,85,-56,-1,-1,0
1523626533340,-327680,85,-56,-1,-1,0
1523626533340,-458752,85,-56,-1,-1,0
1523626533381,-393216,85,-56,-1,-1,0
1523626533381,-393216,85,-56,-1,-1,0
1523626533381,-393216,85,-56,-1,-1,0
1523626533381,-393216,85,-56,-1,-1,0
1523626533381,-393216,85,-56,-1,-1,0
1523626533420,-393216,85,-56,-1,-1,0
1523626533420,-327680,85,-56,-1,-1,0
1523626533420,-262144,85,-56,-1,-1,0
1523626533420,-262144,85,-56,-1,-1,0
1523626533420,-327680,85,-56,-1,-1,0
1523626533460,-327680,85,-56,-1,-1,0
1523626533460,-327680,85,-56,-1,-1,0
1523626533460,-327680,85,-56,-1,-1,0
1523626533460,-393216,85,-56,-1,-1,0
1523626533460,-458752,85,-56,-1,-1,0
1523626533501,-458752,85,-56,-1,-1,0
1523626533501,-524288,85,-56,-1,-1,0
1523626533501,-589824,85,-56,-1,-1,0
1523626533501,-589824,85,-56,-1,-1,0
1523626533501,-655360,85,-56,-1,-1,0
1523626533540,-720896,85,-56,-1,-1,0
1523626533540,-720896,85,-56,-1,-1,0
1523626533540,-720896,85,-56,-1,-1,0
1523626533540,-786432,85,-56,-1,-1,0
1523626533540,-851968,85,-56,-1,-1,0
1523626533580,-851968,85,-56,-1,-1,0
1523626533580,-851968,85,-56,-1,-1,0
1523626533580,-851968,85,-56,-1,-1,0
1523626533580,-786432,85,-56,-1,-1,0
1523626533580,-786432,85,-56,-1,-1,0
1523626533620,-851968,85,-56,-1,-1,0
1523626533620,-851968,85,-56,-1,-1,0
1523626533620,-917504,85,-56,-1,-1,0
1523626533620,-917504,85,-56,-1,-1,0
1523626533620,-851968,85,-56,-1,-1,0
1523626533660,-720896,85,-56,-1,-1,0
1523626533660,-589824,85,-56,-1,-1,0
1523626533660,-458752,85,-56,-1,-1,0
1523626533660,-458752,85,-56,-1,-1,0
1523626533660,-524288,85,-56,-1,-1,0
1523626533700,-720896,85,-56,-1,-1,0
1523626533700,-851968,85,-56,-1,-1,0
1523626533700,-917504,85,-56,-1,-1,0
1523626533700,-917504,85,-56,-1,-1,0
1523626533700,-917504,85,-56,-1,-1,0
1523626533740,-917504,85,-56,-1,-1,0
1523626533740,-851968,85,-56,-1,-1,0
1523626533740,-851968,85,-56,-1,-1,0
1523626533740,-917504,85,-56,-1,-1,0
1523626533740,-851968,85,-56,-1,-1,0
1523626533780,131072,85,-56,-1,-1,0
1523626533780,2883584,85,-56,-1,-1,0
1523626533780,6619136,85,-56,-1,-1,0
1523626533780,8192000,85,-56,-1,-1,0
1523626533780,5177344,85,-56,-1,-1,0
1523626533820,851968,84,-56,-1,-1,0
1523626533820,-851968,84,-56,-1,-1,0
1523626533820,-720896,84,-56,-1,-1,0
1523626533820,-655360,84,-56,-1,-1,0
1523626533820,-720896,84,-56,-1,-1,0
1523626533860,-720896,84,-56,-1,-1,0
1523626533860,-786432,84,-56,-1,-1,0
1523626533860,-720896,84,-56,-1,-1,0
1523626533860,-720896,84,-56,-1,-1,0
1523626533860,-655360,84,-56,-1,-1,0
1523626533900,-589824,84,-56,-1,-1,0
1523626533900,-524288,84,-56,-1,-1,0
1523626533900,-524288,84,-56,-1,-1,0
1523626533900,-458752,84,-56,-1,-1,0
1523626533900,-393216,84,-56,-1,-1,0
1523626533940,-262144,84,-56,-1,-1,0
1523626533940,-196608,84,-56,-1,-1,0
1523626533940,-131072,84,-56,-1,-1,0
1523626533940,0,84,-56,-1,-1,0
1523626533940,196608,84,-56,-1,-1,0
1523626533980,458752,84,-56,-1,-1,0
1523626533980,655360,84,-56,-1,-1,0
1523626533980,917504,84,-56,-1,-1,0
1523626533980,1179648,84,-56,-1,-1,0
1523626533980,1310720,84,-56,-1,-1,0
1523626534021,1441792,84,-56,-1,-1,0
1523626534021,1507328,84,-56,-1,-1,0
1523626534021,1441792,84,-56,-1,-1,0
1523626534021,1310720,84,-56,-1,-1,0
1523626534021,983040,84,-56,-1,-1,0
1523626534060,720896,84,-56,-1,-1,0
1523626534060,393216,84,-56,-1,-1,0
1523626534060,131072,84,-56,-1,-1,0
1523626534060,0,84,-56,-1,-1,0
1523626534060,-65536,84,-56,-1,-1,0
1523626534100,-196608,84,-56,-1,-1,0
1523626534100,-196608,84,-56,-1,-1,0
1523626534100,-196608,84,-56,-1,-1,0
1523626534100,-131072,84,-56,-1,-1,0
1523626534100,-196608,84,-56,-1,-1,0
1523626534140,-196608,84,-56,-1,-1,0
1523626534140,-131072,84,-56,-1,-1,0
1523626534140,-131072,84,-56,-1,-1,0
1523626534140,-131072,84,-56,-1,-1,0
1523626534140,-65536,84,-56,-1,-1,0
1523626534180,-65536,84,-56,-1,-1,0
1523626534180,-131072,84,-56,-1,-1,0
1523626534180,-131072,84,-56,-1,-1,0
1523626534180,-196608,84,-56,-1,-1,0
1523626534180,-196608,84,-56,-1,-1,0
1523626534220,-196608,84,-56,-1,-1,0
1523626534220,-196608,84,-56,-1,-1,0
1523626534220,-262144,84,-56,-1,-1,0
1523626534220,-327680,84,-56,-1,-1,0
1523626534220,-327680,84,-56,-1,-1,0
1523626534260,-393216,84,-56,-1,-1,0
1523626534260,-393216,84,-56,-1,-1,0
1523626534260,-393216,84,-56,-1,-1,0
1523626534260,-393216,84,-56,-1,-1,0
1523626534260,-327680,84,-56,-1,-1,0
1523626534300,-393216,84,-56,-1,-1,0
1523626534300,-458752,84,-56,-1,-1,0
1523626534300,-589824,84,-56,-1,-1,0
1523626534300,-655360,84,-56,-1,-1,0
1523626534300,-589824,84,-56,-1,-1,0
1523626534340,-458752,84,-56,-1,-1,0
1523626534340,-393216,84,-56,-1,-1,0
1523626534340,-393216,84,-56,-1,-1,0
1523626534340,-524288,84,-56,-1,-1,0
1523626534340,-655360,84,-56,-1,-1,0
1523626534380,-786432,84,-56,-1,-1,0
1523626534380,-851968,84,-56,-1,-1,0
1523626534380,-786432,84,-56,-1,-1,0
1523626534380,-589824,84,-56,-1,-1,0
1523626534380,-655360,84,-56,-1,-1,0
1523626534420,-524288,84,-56,-1,-1,0
1523626534420,-393216,84,-56,-1,-1,0
1523626534420,-327680,84,-56,-1,-1,0
1523626534420,-327680,84,-56,-1,-1,0
1523626534420,-458752,84,-56,-1,-1,0
1523626534460,-524288,84,-56,-1,-1,0
1523626534460,-655360,84,-56,-1,-1,0
1523626534460,-786432,84,-56,-1,-1,0
1523626534460,-786432,84,-56,-1,-1,0
1523626534460,-786432,84,-56,-1,-1,0
1523626534500,-851968,84,-56,-1,-1,0
1523626534500,-917504,84,-56,-1,-1,0
1523626534500,-851968,84,-56,-1,-1,0
1523626534500,-851968,84,-56,-1,-1,0
1523626534500,-786432,84,-56,-1,-1,0
1523626534540,196608,84,-56,-1,-1,0
1523626534540,2752512,84,-56,-1,-1,0
1523626534540,6225920,84,-56,-1,-1,0
1523626534540,7929856,84,-56,-1,-1,0
1523626534540,5177344,84,-56,-1,-1,0
1523626534580,851968,83,-56,-1,-1,0
1523626534580,-983040,83,-56,-1,-1,0
1523626534580,-851968,83,-56,-1,-1,0
1523626534580,-786432,83,-56,-1,-1,0
1523626534580,-917504,83,-56,-1,-1,0
1523626534620,-983040,83,-56,-1,-1,0
1523626534620,-1048576,83,-56,-1,-1,0
1523626534620,-917504,83,-56,-1,-1,0
1523626534620,-851968,83,-56,-1,-1,0
1523626534620,-786432,83,-56,-1,-1,0
1523626534661,-786432,83,-56,-1,-1,0
1523626534661,-720896,83,-56,-1,-1,0
1523626534661,-786432,83,-56,-1,-1,0
1523626534661,-786432,83,-56,-1,-1,0
1523626534661,-720896,83,-56,-1,-1,0
1523626534700,-589824,83,-56,-1,-1,0
1523626534700,-393216,83,-56,-1,-1,0
1523626534700,-196608,83,-56,-1,-1,0
1523626534700,-131072,83,-56,-1,-1,0
1523626534700,-65536,83,-56,-1,-1,0
1523626534740,65536,83,-56,-1,-1,0
1523626534740,327680,83,-56,-1,-1,0
1523626534740,589824,83,-56,-1,-1,0
1523626534740,851968,83,-56,-1,-1,0
1523626534740,1048576,83,-56,-1,-1,0
1523626534780,1179648,83,-56,-1,-1,0
1523626534780,1245184,83,-56,-1,-1,0
1523626534780,1179648,83,-56,-1,-1,0
1523626534780,917504,83,-56,-1,-1,0
1523626534780,655360,83,-56,-1,-1,0
1523626534820,458752,83,-56,-1,-1,0
1523626534820,196608,83,-56,-1,-1,0
1523626534820,0,83,-56,-1,-1,0
1523626534820,-196608,83,-56,-1,-1,0
1523626534820,-262144,83,-56,-1,-1,0
1523626534860,-393216,83,-56,-1,-1,0
1523626534860,-458752,83,-56,-1,-1,0
1523626534860,-589824,83,-56,-1,-1,0
1523626534860,-589824,83,-56,-1,-1,0
1523626534860,-589824,83,-56,-1,-1,0
1523626534900,-458752,83,-56,-1,-1,0
1523626534900,-458752,83,-56,-1,-1,0
1523626534900,-393216,83,-56,-1,-1,0
1523626534900,-262144,83,-56,-1,-1,0
1523626534900,-196608,83,-56,-1,-1,0
1523626534940,-262144,83,-56,-1,-1,0
1523626534940,-327680,83,-56,-1,-1,0
1523626534940,-327680,83,-56,-1,-1,0
1523626534940,-327680,83,-56,-1,-1,0
1523626534940,-262144,83,-56,-1,-1,0
1523626534980,-262144,83,-56,-1,-1,0
1523626534980,-262144,83,-56,-1,-1,0
1523626534980,-458752,83,-56,-1,-1,0
1523626534980,-589824,83,-56,-1,-1,0
1523626534980,-524288,83,-56,-1,-1,0
1523626535020,-458752,83,-56,-1,-1,0
1523626535020,-524288,83,-56,-1,-1,0
1523626535020,-524288,83,-56,-1,-1,0
1523626535020,-589824,83,-56,-1,-1,0
1523626535020,-589824,83,-56,-1,-1,0
1523626535060,-720896,83,-56,-1,-1,0
1523626535060,-720896,83,-56,-1,-1,0
1523626535060,-720896,83,-56,-1,-1,0
1523626535060,-720896,83,-56,-1,-1,0
1523626535060,-720896,83,-56,-1,-1,0
1523626535100,-655360,83,-56,-1,-1,0
1523626535100,-589824,83,-56,-1,-1,0
1523626535100,-720896,83,-56,-1,-1,0
1523626535100,-786432,83,-56,-1,-1,0
1523626535100,-720896,83,-56,-1,-1,0
1523626535140,-655360,83,-56,-1,-1,0
1523626535140,-589824,83,-56,-1,-1,0
1523626535140,-524288,83,-56,-1,-1,0
1523626535140,-458752,83,-56,-1,-1,0
1523626535140,-327680,83,-56,-1,-1,0
1523626535180,-262144,83,-56,-1,-1,0
1523626535180,-262144,83,-56,-1,-1,0
1523626535180,-327680,83,-56,-1,-1,0
1523626535180,-458752,83,-56,-1,-1,0
1523626535180,-589824,83,-56,-1,-1,0
1523626535220,-655360,83,-56,-1,-1,0
1523626535220,-589824,83,-56,-1,-1,0
1523626535220,-524288,83,-56,-1,-1,0
1523626535220,-524288,83,-56,-1,-1,0
1523626535220,-524288,83,-56,-1,-1,0
1523626535260,-655360,83,-56,-1,-1,0
1523626535260,-720896,83,-56,-1,-1,0
1523626535260,-393216,83,-56,-1,-1,0
1523626535260,1114112,83,-56,-1,-1,0
1523626535260,4194304,83,-56,-1,-1,0
1523626535301,7733248,82,-56,-1,-1,0
1523626535301,7929856,82,-56,-1,-1,0
1523626535301,4063232,82,-56,-1,-1,0
1523626535301,131072,82,-56,-1,-1,0
1523626535301,-589824,82,-56,-1,-1,0
1523626535340,-393216,82,-56,-1,-1,0
1523626535340,-458752,82,-56,-1,-1,0
1523626535340,-524288,82,-56,-1,-1,0
1523626535340,-589824,82,-56,-1,-1,0
1523626535340,-589824,82,-56,-1,-1,0
1523626535380,-589824,82,-56,-1,-1,0
1523626535380,-589824,82,-56,-1,-1,0
1523626535380,-524288,82,-56,-1,-1,0
1523626535380,-524288,82,-56,-1,-1,0
1523626535380,-524288,82,-56,-1,-1,0
1523626535420,-458752,82,-56,-1,-1,0
1523626535420,-393216,82,-56,-1,-1,0
1523626535420,-393216,82,-56,-1,-1,0
1523626535420,-327680,82,-56,-1,-1,0
1523626535420,-196608,82,-56,-1,-1,0
1523626535460,0,82,-56,-1,-1,0
1523626535460,65536,82,-56,-1,-1,0
1523626535460,262144,82,-56,-1,-1,0
1523626535460,393216,82,-56,-1,-1,0
1523626535460,655360,82,-56,-1,-1,0
1523626535500,917504,82,-56,-1,-1,0
1523626535500,1114112,82,-56,-1,-1,0
1523626535500,1245184,82,-56,-1,-1,0
1523626535500,1376256,82,-56,-1,-1,0
1523626535500,1441792,82,-56,-1,-1,0
1523626535541,1441792,82,-56,-1,-1,0
1523626535541,1245184,82,-56,-1,-1,0
1523626535541,983040,82,-56,-1,-1,0
1523626535541,655360,82,-56,-1,-1,0
1523626535541,327680,82,-56,-1,-1,0
1523626535580,65536,82,-56,-1,-1,0
1523626535580,0,82,-56,-1,-1,0
1523626535580,-131072,82,-56,-1,-1,0
1523626535580,-196608,82,-56,-1,-1,0
1523626535580,-196608,82,-56,-1,-1,0
1523626535620,-262144,82,-56,-1,-1,0
1523626535620,-262144,82,-56,-1,-1,0
1523626535620,-262144,82,-56,-1,-1,0
1523626535620,-196608,82,-56,-1,-1,0
1523626535620,-196608,82,-56,-1,-1,0
1523626535660,-196608,82,-56,-1,-1,0
1523626535660,-131072,82,-56,-1,-1,0
1523626535660,-131072,82,-56,-1,-1,0
1523626535660,-65536,82,-56,-1,-1,0
1523626535660,-65536,82,-56,-1,-1,0
1523626535700,-65536,82,-56,-1,-1,0
1523626535700,-131072,82,-56,-1,-1,0
1523626535700,-131072,82,-56,-1,-1,0
1523626535700,-196608,82,-56,-1,-1,0
1523626535700,-196608,82,-56,-1,-1,0
1523626535740,-196608,82,-56,-1,-1,0
1523626535740,-262144,82,-56,-1,-1,0
1523626535740,-327680,82,-56,-1,-1,0
1523626535740,-393216,82,-56,-1,-1,0
1523626535740,-393216,82,-56,-1,-1,0
1523626535780,-393216,82,-56,-1,-1,0
1523626535780,-393216,82,-56,-1,-1,0
1523626535780,-458752,82,-56,-1,-1,0
1523626535780,-393216,82,-56,-1,-1,0
1523626535780,-458752,82,-56,-1,-1,0
1523626535820,-458752,82,-56,-1,-1,0
1523626535820,-458752,82,-56,-1,-1,0
1523626535820,-458752,82,-56,-1,-1,0
1523626535820,-458752,82,-56,-1,-1,0
1523626535820,-393216,82,-56,-1,-1,0
1523626535860,-458752,82,-56,-1,-1,0
1523626535860,-524288,82,-56,-1,-1,0
1523626535860,-524288,82,-56,-1,-1,0
1523626535860,-524288,82,-56,-1,-1,0
1523626535860,-393216,82,-56,-1,-1,0
1523626535900,-262144,82,-56,-1,-1,0
1523626535900,-131072,82,-56,-1,-1,0
1523626535900,-65536,82,-56,-1,-1,0
1523626535900,-196608,82,-56,-1,-1,0
1523626535900,-327680,82,-56,-1,-1,0
1523626535941,-393216,82,-56,-1,-1,0
1523626535941,-458752,82,-56,-1,-1,0
1523626535941,-589824,82,-56,-1,-1,0
1523626535941,-655360,82,-56,-1,-1,0
1523626535941,-655360,82,-56,-1,-1,0
1523626535980,-655360,82,-56,-1,-1,0
1523626535980,-655360,82,-56,-1,-1,0
1523626535980,-720896,82,-56,-1,-1,0
1523626535980,-786432,82,-56,-1,-1,0
1523626535980,-720896,82,-56,-1,-1,0
1523626536020,262144,81,-56,-1,-1,0
1523626536020,2949120,81,-56,-1,-1,0
1523626536020,6619136,81,-56,-1,-1,0
1523626536020,8454144,81,-56,-1,-1,0
1523626536020,5570560,81,-56,-1,-1,0
1523626536060,1048576,81,-56,-1,-1,0
1523626536060,-917504,81,-56,-1,-1,0
1523626536060,-786432,81,-56,-1,-1,0
1523626536060,-720896,81,-56,-1,-1,0
1523626536060,-655360,81,-56,-1,-1,0
1523626536100,-524288,81,-56,-1,-1,0
1523626536100,-589824,81,-56,-1,-1,0
1523626536100,-589824,81,-56,-1,-1,0
1523626536100,-655360,81,-56,-1,-1,0
1523626536100,-589824,81,-56,-1,-1,0
1523626536140,-720896,81,-56,-1,-1,0
1523626536140,-786432,81,-56,-1,-1,0
1523626536140,-655360,81,-56,-1,-1,0
1523626536140,-393216,81,-56,-1,-1,0
1523626536140,-393216,81,-56,-1,-1,0
1523626536180,-327680,81,-56,-1,-1,0
1523626536180,-327680,81,-56,-1,-1,0
1523626536180,-196608,81,-56,-1,-1,0
1523626536180,-65536,81,-56,-1,-1,0
1523626536180,131072,81,-56,-1,-1,0
1523626536220,458752,81,-56,-1,-1,0
1523626536220,720896,81,-56,-1,-1,0
1523626536220,851968,81,-56,-1,-1,0
1523626536220,983040,81,-56,-1,-1,0
1523626536220,1179648,81,-56,-1,-1,0
1523626536260,1310720,81,-56,-1,-1,0
1523626536260,1376256,81,-56,-1,-1,0
1523626536260,1310720,81,-56,-1,-1,0
1523626536260,1114112,81,-56,-1,-1,0
1523626536260,786432,81,-56,-1,-1,0
1523626536300,458752,81,-56,-1,-1,0
1523626536300,131072,81,-56,-1,-1,0
1523626536300,-65536,81,-56,-1,-1,0
1523626536300,-196608,81,-56,-1,-1,0
1523626536300,-262144,81,-56,-1,-1,0
1523626536340,-458752,81,-56,-1,-1,0
1523626536340,-524288,81,-56,-1,-1,0
1523626536340,-589824,81,-56,-1,-1,0
1523626536340,-655360,81,-56,-1,-1,0
1523626536340,-655360,81,-56,-1,-1,0
1523626536380,-655360,81,-56,-1,-1,0
1523626536380,-655360,81,-56,-1,-1,0
1523626536380,-589824,81,-56,-1,-1,0
1523626536380,-589824,81,-56,-1,-1,0
1523626536380,-524288,81,-56,-1,-1,0
1523626536420,-524288,81,-56,-1,-1,0
1523626536420,-524288,81,-56,-1,-1,0
1523626536420,-589824,81,-56,-1,-1,0
1523626536420,-589824,81,-56,-1,-1,0
1523626536420,-589824,81,-56,-1,-1,0
1523626536460,-589824,81,-56,-1,-1,0
1523626536460,-655360,81,-56,-1,-1,0
1523626536460,-720896,81,-56,-1,-1,0
1523626536460,-720896,81,-56,-1,-1,0
1523626536460,-786432,81,-56,-1,-1,0
1523626536500,-786432,81,-56,-1,-1,0
1523626536500,-786432,81,-56,-1,-1,0
1523626536500,-917504,81,-56,-1,-1,0
1523626536500,-851968,81,-56,-1,-1,0
1523626536500,-786432,81,-56,-1,-1,0
1523626536540,-786432,81,-56,-1,-1,0
1523626536540,-851968,81,-56,-1,-1,0
1523626536540,-917504,81,-56,-1,-1,0
1523626536540,-917504,81,-56,-1,-1,0
1523626536540,-917504,81,-56,-1,-1,0
1523626536581,-786432,81,-56,-1,-1,0
1523626536581,-720896,81,-56,-1,-1,0
1523626536581,-655360,81,-56,-1,-1,0
1523626536581,-458752,81,-56,-1,-1,0
1523626536581,-327680,81,-56,-1,-1,0
1523626536621,-327680,81,-56,-1,-1,0
1523626536621,-393216,81,-56,-1,-1,0
1523626536621,-524288,81,-56,-1,-1,0
1523626536621,-720896,81,-56,-1,-1,0
1523626536621,-786432,81,-56,-1,-1,0
1523626536660,-720896,81,-56,-1,-1,0
1523626536660,-786432,81,-56,-1,-1,0
1523626536660,-786432,81,-56,-1,-1,0
1523626536660,-720896,81,-56,-1,-1,0
1523626536660,-786432,81,-56,-1,-1,0
1523626536700,-786432,82,-56,-1,-1,0
1523626536700,-851968,82,-56,-1,-1,0
1523626536700,-458752,82,-56,-1,-1,0
1523626536700,1310720,82,-56,-1,-1,0
1523626536700,4718592,82,-56,-1,-1,0
1523626536740,8192000,82,-56,-1,-1,0
1523626536740,7667712,82,-56,-1,-1,0
1523626536740,3276800,82,-56,-1,-1,0
1523626536740,-393216,82,-56,-1,-1,0
1523626536740,-851968,82,-56,-1,-1,0
1523626536780,-589824,82,-56,-1,-1,0
1523626536780,-655360,82,-56,-1,-1,0
1523626536780,-655360,82,-56,-1,-1,0
1523626536780,-720896,82,-56,-1,-1,0
1523626536780,-655360,82,-56,-1,-1,0
1523626536820,-589824,82,-56,-1,-1,0
1523626536820,-524288,82,-56,-1,-1,0
1523626536820,-524288,82,-56,-1,-1,0
1523626536820,-524288,82,-56,-1,-1,0
1523626536820,-458752,82,-56,-1,-1,0
1523626536860,-458752,82,-56,-1,-1,0
1523626536860,-458752,82,-56,-1,-1,0
1523626536860,-393216,82,-56,-1,-1,0
1523626536860,-262144,82,-56,-1,-1,0
1523626536860,-196608,82,-56,-1,-1,0
1523626536900,0,82,-56,-1,-1,0
1523626536900,131072,82,-56,-1,-1,0
1523626536900,262144,82,-56,-1,-1,0
1523626536900,458752,82,-56,-1,-1,0
1523626536900,786432,82,-56,-1,-1,0
1523626536940,983040,82,-56,-1,-1,0
1523626536940,1245184,82,-56,-1,-1,0
1523626536940,1376256,82,-56,-1,-1,0
1523626536940,1441792,82,-56,-1,-1,0
1523626536940,1441792,82,-56,-1,-1,0
1523626536980,1310720,82,-56,-1,-1,0
1523626536980,1114112,82,-56,-1,-1,0
1523626536980,786432,82,-56,-1,-1,0
1523626536980,458752,82,-56,-1,-1,0
1523626536980,196608,82,-56,-1,-1,0
1523626537020,0,82,-56,-1,-1,0
1523626537020,-131072,82,-56,-1,-1,0
1523626537020,-131072,82,-56,-1,-1,0
1523626537020,-196608,82,-56,-1,-1,0
1523626537020,-262144,82,-56,-1,-1,0
1523626537060,-262144,82,-56,-1,-1,0
1523626537060,-262144,82,-56,-1,-1,0
1523626537060,-262144,82,-56,-1,-1,0
1523626537060,-262144,82,-56,-1,-1,0
1523626537060,-262144,82,-56,-1,-1,0
1523626537100,-196608,82,-56,-1,-1,0
1523626537100,-131072,82,-56,-1,-1,0
1523626537100,-65536,82,-56,-1,-1,0
1523626537100,0,82,-56,-1,-1,0
1523626537100,0,82,-56,-1,-1,0
1523626537140,-65536,82,-56,-1,-1,0
1523626537140,-131072,82,-56,-1,-1,0
1523626537140,-196608,82,-56,-1,-1,0
1523626537140,-196608,82,-56,-1,-1,0
1523626537140,-196608,82,-56,-1,-1,0
1523626537180,-196608,82,-56,-1,-1,0
1523626537180,-262144,82,-56,-1,-1,0
1523626537180,-327680,82,-56,-1,-1,0
1523626537180,-327680,82,-56,-1,-1,0
1523626537180,-393216,82,-56,-1,-1,0
1523626537221,-393216,82,-56,-1,-1,0
1523626537221,-458752,82,-56,-1,-1,0
1523626537221,-458752,82,-56,-1,-1,0
1523626537221,-458752,82,-56,-1,-1,0
1523626537221,-393216,82,-56,-1,-1,0
1523626537261,-393216,82,-56,-1,-1,0
1523626537261,-393216,82,-56,-1,-1,0
1523626537261,-458752,82,-56,-1,-1,0
1523626537261,-524288,82,-56,-1,-1,0
1523626537261,-458752,82,-56,-1,-1,0
1523626537300,-327680,82,-56,-1,-1,0
1523626537300,-196608,82,-56,-1,-1,0
1523626537300,-65536,82,-56,-1,-1,0
1523626537300,-65536,82,-56,-1,-1,0
1523626537300,-65536,82,-56,-1,-1,0
1523626537340,-196608,82,-56,-1,-1,0
1523626537340,-327680,82,-56,-1,-1,0
1523626537340,-393216,82,-56,-1,-1,0
1523626537340,-393216,82,-56,-1,-1,0
1523626537340,-393216,82,-56,-1,-1,0
1523626537380,-524288,82,-56,-1,-1,0
1523626537380,-655360,82,-56,-1,-1,0
1523626537380,-655360,82,-56,-1,-1,0
1523626537380,-589824,82,-56,-1,-1,0
1523626537380,-589824,82,-56,-1,-1,0
1523626537420,-589824,83,-56,-1,-1,0
1523626537420,65536,83,-56,-1,-1,0
1523626537420,2490368,83,-56,-1,-1,0
1523626537420,6291456,83,-56,-1,-1,0
1523626537420,8978432,83,-56,-1,-1,0
1523626537460,6946816,83,-56,-1,-1,0
1523626537460,2359296,83,-56,-1,-1,0
1523626537460,-589824,83,-56,-1,-1,0
1523626537460,-786432,83,-56,-1,-1,0
1523626537460,-720896,83,-56,-1,-1,0
1523626537500,-851968,83,-56,-1,-1,0
1523626537500,-786432,83,-56,-1,-1,0
1523626537500,-589824,83,-56,-1,-1,0
1523626537500,-589824,83,-56,-1,-1,0
1523626537500,-786432,83,-56,-1,-1,0
1523626537540,-786432,83,-56,-1,-1,0
1523626537540,-720896,83,-56,-1,-1,0
1523626537540,-589824,83,-56,-1,-1,0
1523626537540,-458752,83,-56,-1,-1,0
1523626537540,-327680,83,-56,-1,-1,0
1523626537581,-327680,83,-56,-1,-1,0
1523626537581,-393216,83,-56,-1,-1,0
1523626537581,-327680,83,-56,-1,-1,0
1523626537581,-327680,83,-56,-1,-1,0
1523626537581,-196608,83,-56,-1,-1,0
1523626537621,0,83,-56,-1,-1,0
1523626537621,262144,83,-56,-1,-1,0
1523626537621,524288,83,-56,-1,-1,0
1523626537621,786432,83,-56,-1,-1,0
1523626537621,917504,83,-56,-1,-1,0
1523626537659,1048576,83,-56,-1,-1,0
1523626537659,1179648,83,-56,-1,-1,0
1523626537659,1310720,83,-56,-1,-1,0
1523626537659,1310720,83,-56,-1,-1,0
1523626537659,1114112,83,-56,-1,-1,0
1523626537699,917504,83,-56,-1,-1,0
1523626537699,655360,83,-56,-1,-1,0
1523626537699,327680,83,-56,-1,-1,0
1523626537699,131072,83,-56,-1,-1,0
1523626537699,-131072,83,-56,-1,-1,0
1523626537739,-327680,83,-56,-1,-1,0
1523626537739,-262144,83,-56,-1,-1,0
1523626537739,-131072,83,-56,-1,-1,0
1523626537739,-131072,83,-56,-1,-1,0
1523626537739,-262144,83,-56,-1,-1,0
1523626537780,-458752,83,-56,-1,-1,0
1523626537780,-589824,83,-56,-1,-1,0
1523626537780,-524288,83,-56,-1,-1,0
1523626537780,-458752,83,-56,-1,-1,0
1523626537780,-393216,83,-56,-1,-1,0
1523626537819,-393216,83,-56,-1,-1,0
1523626537819,-327680,83,-56,-1,-1,0
1523626537819,-327680,83,-56,-1,-1,0
1523626537819,-458752,83,-56,-1,-1,0
1523626537819,-524288,83,-56,-1,-1,0
1523626537861,-327680,83,-56,-1,-1,0
1523626537861,-327680,83,-56,-1,-1,0
1523626537861,-458752,83,-56,-1,-1,0
1523626537861,-655360,83,-56,-1,-1,0
1523626537861,-720896,83,-56,-1,-1,0
1523626537899,-851968,83,-56,-1,-1,0
1523626537899,-786432,83,-56,-1,-1,0
1523626537899,-720896,83,-56,-1,-1,0
1523626537899,-851968,83,-56,-1,-1,0
1523626537899,-983040,83,-56,-1,-1,0
1523626537939,-851968,83,-56,-1,-1,0
1523626537939,-786432,83,-56,-1,-1,0
1523626537939,-720896,83,-56,-1,-1,0
1523626537939,-786432,83,-56,-1,-1,0
1523626537939,-786432,83,-56,-1,-1,0
1523626537980,-851968,83,-56,-1,-1,0
1523626537980,-851968,83,-56,-1,-1,0
1523626537980,-655360,83,-56,-1,-1,0
1523626537980,-393216,83,-56,-1,-1,0
1523626537980,-262144,83,-56,-1,-1,0
1523626538019,-262144,83,-56,-1,-1,0
1523626538019,-327680,83,-56,-1,-1,0
1523626538019,-524288,83,-56,-1,-1,0
1523626538019,-655360,83,-56,-1,-1,0
1523626538019,-655360,83,-56,-1,-1,0
1523626538060,-589824,83,-56,-1,-1,0
1523626538060,-720896,83,-56,-1,-1,0
1523626538060,-851968,83,-56,-1,-1,0
1523626538060,-917504,83,-56,-1,-1,0
1523626538060,-786432,83,-56,-1,-1,0
1523626538099,-589824,83,-56,-1,-1,0
1523626538099,-524288,83,-56,-1,-1,0
1523626538099,0,83,-56,-1,-1,0
1523626538099,1966080,83,-56,-1,-1,0
1523626538099,5505024,83,-56,-1,-1,0
1523626538140,8388608,83,-56,-1,-1,0
1523626538140,6684672,83,-56,-1,-1,0
1523626538140,2228224,83,-56,-1,-1,0
1523626538140,-655360,83,-56,-1,-1,0
1523626538140,-720896,83,-56,-1,-1,0
1523626538180,-720896,83,-56,-1,-1,0
1523626538180,-851968,83,-56,-1,-1,0
1523626538180,-720896,83,-56,-1,-1,0
1523626538180,-589824,83,-56,-1,-1,0
1523626538180,-655360,83,-56,-1,-1,0
1523626538220,-851968,83,-56,-1,-1,0
1523626538220,-851968,83,-56,-1,-1,0
1523626538220,-786432,83,-56,-1,-1,0
1523626538220,-720896,83,-56,-1,-1,0
1523626538220,-655360,83,-56,-1,-1,0
1523626538260,-524288,83,-56,-1,-1,0
1523626538260,-458752,83,-56,-1,-1,0
1523626538260,-393216,83,-56,-1,-1,0
1523626538260,-393216,83,-56,-1,-1,0
1523626538260,-393216,83,-56,-1,-1,0
1523626538300,-262144,83,-56,-1,-1,0
1523626538300,-131072,83,-56,-1,-1,0
1523626538300,0,83,-56,-1,-1,0
1523626538300,131072,83,-56,-1,-1,0
1523626538300,524288,83,-56,-1,-1,0
1523626538340,851968,83,-56,-1,-1,0
1523626538340,1048576,83,-56,-1,-1,0
1523626538340,1179648,83,-56,-1,-1,0
1523626538340,1179648,83,-56,-1,-1,0
1523626538340,1114112,83,-56,-1,-1,0
1523626538380,1048576,83,-56,-1,-1,0
1523626538380,917504,83,-56,-1,-1,0
1523626538380,524288,83,-56,-1,-1,0
1523626538380,262144,83,-56,-1,-1,0
1523626538380,65536,83,-56,-1,-1,0
1523626538420,-65536,83,-56,-1,-1,0
1523626538420,-262144,83,-56,-1,-1,0
1523626538420,-327680,83,-56,-1,-1,0
1523626538420,-458752,83,-56,-1,-1,0
1523626538420,-458752,83,-56,-1,-1,0
1523626538460,-458752,83,-56,-1,-1,0
1523626538460,-524288,83,-56,-1,-1,0
1523626538460,-458752,83,-56,-1,-1,0
1523626538460,-327680,83,-56,-1,-1,0
1523626538460,-262144,83,-56,-1,-1,0
1523626538501,-196608,83,-56,-1,-1,0
1523626538501,-131072,83,-56,-1,-1,0
1523626538501,-131072,83,-56,-1,-1,0
1523626538501,-196608,83,-56,-1,-1,0
1523626538501,-262144,83,-56,-1,-1,0
1523626538540,-327680,83,-56,-1,-1,0
1523626538540,-327680,83,-56,-1,-1,0
1523626538540,-327680,83,-56,-1,-1,0
1523626538540,-327680,83,-56,-1,-1,0
1523626538540,-393216,83,-56,-1,-1,0
1523626538580,-393216,83,-56,-1,-1,0
1523626538580,-393216,83,-56,-1,-1,0
1523626538580,-458752,83,-56,-1,-1,0
1523626538580,-524288,83,-56,-1,-1,0
1523626538580,-589824,83,-56,-1,-1,0
1523626538620,-655360,83,-56,-1,-1,0
1523626538620,-589824,83,-56,-1,-1,0
1523626538620,-589824,83,-56,-1,-1,0
1523626538620,-589824,83,-56,-1,-1,0
1523626538620,-458752,83,-56,-1,-1,0
1523626538660,-327680,83,-56,-1,-1,0
1523626538660,-196608,83,-56,-1,-1,0
1523626538660,-262144,83,-56,-1,-1,0
1523626538660,-327680,83,-56,-1,-1,0
1523626538660,-458752,83,-56,-1,-1,0
1523626538701,-589824,84,-56,-1,-1,0
1523626538701,-655360,84,-56,-1,-1,0
1523626538701,-655360,84,-56,-1,-1,0
1523626538701,-655360,84,-56,-1,-1,0
1523626538701,-655360,84,-56,-1,-1,0
1523626538740,-720896,84,-56,-1,-1,0
1523626538740,-720896,84,-56,-1,-1,0
1523626538740,-720896,84,-56,-1,-1,0
1523626538740,-786432,84,-56,-1,-1,0
1523626538740,-327680,84,-56,-1,-1,0
1523626538780,1703936,84,-56,-1,-1,0
1523626538780,5439488,84,-56,-1,-1,0
1523626538780,8585216,84,-56,-1,-1,0
1523626538780,7274496,84,-56,-1,-1,0
1523626538780,2752512,84,-56,-1,-1,0
1523626538820,-458752,84,-56,-1,-1,0
1523626538820,-720896,84,-56,-1,-1,0
1523626538820,-458752,84,-56,-1,-1,0
1523626538820,-458752,84,-56,-1,-1,0
1523626538820,-589824,84,-56,-1,-1,0
1523626538860,-720896,84,-56,-1,-1,0
1523626538860,-720896,84,-56,-1,-1,0
1523626538860,-720896,84,-56,-1,-1,0
1523626538860,-655360,84,-56,-1,-1,0
1523626538860,-524288,84,-56,-1,-1,0
1523626538900,-327680,84,-56,-1,-1,0
1523626538900,-262144,84,-56,-1,-1,0
1523626538900,-393216,84,-56,-1,-1,0
1523626538900,-393216,84,-56,-1,-1,0
1523626538900,-262144,84,-56,-1,-1,0
1523626538940,-65536,84,-56,-1,-1,0
1523626538940,0,84,-56,-1,-1,0
1523626538940,0,84,-56,-1,-1,0
1523626538940,131072,84,-56,-1,-1,0
1523626538940,458752,84,-56,-1,-1,0
1523626538980,589824,84,-56,-1,-1,0
1523626538980,720896,84,-56,-1,-1,0
1523626538980,917504,84,-56,-1,-1,0
1523626538980,1179648,84,-56,-1,-1,0
1523626538980,1310720,84,-56,-1,-1,0
1523626539020,1376256,84,-56,-1,-1,0
1523626539020,1310720,84,-56,-1,-1,0
1523626539020,1179648,84,-56,-1,-1,0
1523626539020,983040,84,-56,-1,-1,0
1523626539020,720896,84,-56,-1,-1,0
1523626539060,393216,84,-56,-1,-1,0
1523626539060,65536,84,-56,-1,-1,0
1523626539060,0,84,-56,-1,-1,0
1523626539060,-131072,84,-56,-1,-1,0
1523626539060,-262144,84,-56,-1,-1,0
1523626539100,-327680,84,-56,-1,-1,0
1523626539100,-393216,84,-56,-1,-1,0
1523626539100,-327680,84,-56,-1,-1,0
1523626539100,-327680,84,-56,-1,-1,0
1523626539100,-327680,84,-56,-1,-1,0
1523626539141,-196608,84,-56,-1,-1,0
1523626539141,-131072,84,-56,-1,-1,0
1523626539141,-196608,84,-56,-1,-1,0
1523626539141,-327680,84,-56,-1,-1,0
1523626539141,-393216,84,-56,-1,-1,0
1523626539180,-393216,84,-56,-1,-1,0
1523626539180,-458752,84,-56,-1,-1,0
1523626539180,-393216,84,-56,-1,-1,0
1523626539180,-393216,84,-56,-1,-1,0
1523626539180,-524288,84,-56,-1,-1,0
1523626539220,-655360,84,-56,-1,-1,0
1523626539220,-720896,84,-56,-1,-1,0
1523626539220,-786432,84,-56,-1,-1,0
1523626539220,-851968,84,-56,-1,-1,0
1523626539220,-917504,84,-56,-1,-1,0
1523626539260,-851968,84,-56,-1,-1,0
1523626539260,-720896,84,-56,-1,-1,0
1523626539260,-720896,84,-56,-1,-1,0
1523626539260,-917504,84,-56,-1,-1,0
1523626539260,-1114112,84,-56,-1,-1,0
1523626539300,-917504,84,-56,-1,-1,0
1523626539300,-589824,84,-56,-1,-1,0
1523626539300,-393216,84,-56,-1,-1,0
1523626539300,-524288,84,-56,-1,-1,0
1523626539300,-589824,84,-56,-1,-1,0
1523626539340,-589824,84,-56,-1,-1,0
1523626539340,-720896,84,-56,-1,-1,0
1523626539340,-917504,84,-56,-1,-1,0
1523626539340,-983040,84,-56,-1,-1,0
1523626539340,-983040,84,-56,-1,-1,0
1523626539380,-983040,84,-56,-1,-1,0
1523626539380,-983040,84,-56,-1,-1,0
1523626539380,-851968,84,-56,-1,-1,0
1523626539380,-786432,84,-56,-1,-1,0
1523626539380,-786432,84,-56,-1,-1,0
1523626539420,-917504,84,-56,-1,-1,0
1523626539420,-262144,84,-56,-1,-1,0
1523626539420,1966080,84,-56,-1,-1,0
1523626539420,5373952,84,-56,-1,-1,0
1523626539420,7929856,84,-56,-1,-1,0
1523626539460,6225920,84,-56,-1,-1,0
1523626539460,1900544,84,-56,-1,-1,0
1523626539460,-786432,84,-56,-1,-1,0
1523626539460,-983040,84,-56,-1,-1,0
1523626539460,-917504,84,-56,-1,-1,0
1523626539500,-983040,84,-56,-1,-1,0
1523626539500,-917504,84,-56,-1,-1,0
1523626539500,-983040,84,-56,-1,-1,0
1523626539500,-983040,84,-56,-1,-1,0
1523626539500,-917504,84,-56,-1,-1,0
1523626539540,-851968,84,-56,-1,-1,0
1523626539540,-786432,84,-56,-1,-1,0
1523626539540,-851968,84,-56,-1,-1,0
1523626539540,-786432,84,-56,-1,-1,0
1523626539540,-720896,84,-56,-1,-1,0
1523626539580,-655360,84,-56,-1,-1,0
1523626539580,-655360,84,-56,-1,-1,0
1523626539580,-589824,84,-56,-1,-1,0
1523626539580,-524288,84,-56,-1,-1,0
1523626539580,-393216,84,-56,-1,-1,0
1523626539620,-196608,84,-56,-1,-1,0
1523626539620,0,84,-56,-1,-1,0
1523626539620,196608,84,-56,-1,-1,0
1523626539620,524288,84,-56,-1,-1,0
1523626539620,655360,84,-56,-1,-1,0
1523626539660,786432,84,-56,-1,-1,0
1523626539660,917504,84,-56,-1,-1,0
1523626539660,1048576,84,-56,-1,-1,0
1523626539660,1048576,84,-56,-1,-1,0
1523626539660,917504,84,-56,-1,-1,0
1523626539700,720896,84,-56,-1,-1,0
1523626539700,393216,84,-56,-1,-1,0
1523626539700,196608,84,-56,-1,-1,0
1523626539700,65536,84,-56,-1,-1,0
1523626539700,-65536,84,-56,-1,-1,0
1523626539740,-196608,84,-56,-1,-1,0
1523626539740,-196608,84,-56,-1,-1,0
1523626539740,-196608,84,-56,-1,-1,0
1523626539740,-262144,84,-56,-1,-1,0
1523626539740,-262144,84,-56,-1,-1,0
1523626539781,-196608,84,-56,-1,-1,0
1523626539781,-196608,84,-56,-1,-1,0
1523626539781,-131072,84,-56,-1,-1,0
1523626539781,-65536,84,-56,-1,-1,0
1523626539781,0,84,-56,-1,-1,0
1523626539820,0,84,-56,-1,-1,0
1523626539820,0,84,-56,-1,-1,0
1523626539820,-65536,84,-56,-1,-1,0
1523626539820,-131072,84,-56,-1,-1,0
1523626539820,-131072,84,-56,-1,-1,0
1523626539860,-131072,84,-56,-1,-1,0
1523626539860,-65536,84,-56,-1,-1,0
1523626539860,-131072,84,-56,-1,-1,0
1523626539860,-196608,84,-56,-1,-1,0
1523626539860,-262144,84,-56,-1,-1,0
1523626539900,-327680,84,-56,-1,-1,0
1523626539900,-327680,84,-56,-1,-1,0
1523626539900,-393216,84,-56,-1,-1,0
1523626539900,-458752,84,-56,-1,-1,0
1523626539900,-393216,84,-56,-1,-1,0
1523626539940,-327680,84,-56,-1,-1,0
1523626539940,-196608,84,-56,-1,-1,0
1523626539940,-65536,84,-56,-1,-1,0
1523626539940,0,84,-56,-1,-1,0
1523626539940,-131072,84,-56,-1,-1,0
1523626539980,-262144,85,-56,-1,-1,0
1523626539980,-393216,85,-56,-1,-1,0
1523626539980,-458752,85,-56,-1,-1,0
1523626539980,-524288,85,-56,-1,-1,0
1523626539980,-589824,85,-56,-1,-1,0
1523626540020,-720896,85,-56,-1,-1,0
1523626540020,-720896,85,-56,-1,-1,0
1523626540020,-720896,85,-56,-1,-1,0
1523626540020,-720896,85,-56,-1,-1,0
1523626540020,-786432,85,-56,-1,-1,0
1523626540060,-393216,85,-56,-1,-1,0
1523626540060,983040,85,-56,-1,-1,0
1523626540060,3932160,85,-56,-1,-1,0
1523626540060,7208960,85,-56,-1,-1,0
1523626540060,7733248,85,-56,-1,-1,0
1523626540100,4063232,85,-56,-1,-1,0
1523626540100,196608,85,-56,-1,-1,0
1523626540100,-720896,85,-56,-1,-1,0
1523626540100,-458752,85,-56,-1,-1,0
1523626540100,-458752,85,-56,-1,-1,0
1523626540140,-524288,85,-56,-1,-1,0
1523626540140,-589824,85,-56,-1,-1,0
1523626540140,-786432,85,-56,-1,-1,0
1523626540140,-851968,85,-56,-1,-1,0
1523626540140,-720896,85,-56,-1,-1,0
1523626540180,-655360,85,-56,-1,-1,0
1523626540180,-917504,85,-56,-1,-1,0
1523626540180,-720896,85,-56,-1,-1,0
1523626540180,-327680,85,-56,-1,-1,0
1523626540180,-262144,85,-56,-1,-1,0
1523626540220,-458752,85,-56,-1,-1,0
1523626540220,-524288,85,-56,-1,-1,0
1523626540220,-589824,85,-56,-1,-1,0
1523626540220,-524288,85,-56,-1,-1,0
1523626540220,-262144,85,-56,-1,-1,0
1523626540260,-131072,85,-56,-1,-1,0
1523626540260,0,85,-56,-1,-1,0
1523626540260,327680,85,-56,-1,-1,0
1523626540260,589824,85,-56,-1,-1,0
1523626540260,720896,85,-56,-1,-1,0
1523626540300,851968,85,-56,-1,-1,0
1523626540300,917504,85,-56,-1,-1,0
1523626540300,786432,85,-56,-1,-1,0
1523626540300,589824,85,-56,-1,-1,0
1523626540300,327680,85,-56,-1,-1,0
1523626540340,262144,85,-56,-1,-1,0
1523626540340,196608,85,-56,-1,-1,0
1523626540340,0,85,-56,-1,-1,0
1523626540340,-393216,85,-56,-1,-1,0
1523626540340,-524288,85,-56,-1,-1,0
1523626540380,-524288,85,-56,-1,-1,0
1523626540380,-655360,85,-56,-1,-1,0
1523626540380,-720896,85,-56,-1,-1,0
1523626540380,-655360,85,-56,-1,-1,0
1523626540380,-589824,85,-56,-1,-1,0
1523626540421,-589824,85,-56,-1,-1,0
1523626540421,-655360,85,-56,-1,-1,0
1523626540421,-589824,85,-56,-1,-1,0
1523626540421,-458752,85,-56,-1,-1,0
1523626540421,-524288,85,-56,-1,-1,0
1523626540460,-589824,85,-56,-1,-1,0
1523626540460,-524288,85,-56,-1,-1,0
1523626540460,-458752,85,-56,-1,-1,0
1523626540460,-524288,85,-56,-1,-1,0
1523626540460,-655360,85,-56,-1,-1,0
1523626540500,-720896,85,-56,-1,-1,0
1523626540500,-786432,85,-56,-1,-1,0
1523626540500,-655360,85,-56,-1,-1,0
1523626540500,-589824,85,-56,-1,-1,0
1523626540500,-720896,85,-56,-1,-1,0
1523626540540,-917504,85,-56,-1,-1,0
1523626540540,-851968,85,-56,-1,-1,0
1523626540540,-589824,85,-56,-1,-1,0
1523626540540,-524288,85,-56,-1,-1,0
1523626540540,-524288,85,-56,-1,-1,0
1523626540580,-458752,85,-56,-1,-1,0
1523626540580,-393216,85,-56,-1,-1,0
1523626540580,-327680,85,-56,-1,-1,0
1523626540580,-393216,85,-56,-1,-1,0
1523626540580,-655360,85,-56,-1,-1,0
1523626540620,-851968,86,-56,-1,-1,0
1523626540620,-851968,86,-56,-1,-1,0
1523626540620,-851968,86,-56,-1,-1,0
1523626540620,-786432,86,-56,-1,-1,0
1523626540620,-655360,86,-56,-1,-1,0
1523626540660,-589824,86,-56,-1,-1,0
1523626540660,-589824,86,-56,-1,-1,0
1523626540660,-720896,86,-56,-1,-1,0
1523626540660,-851968,86,-56,-1,-1,0
1523626540660,-393216,86,-56,-1,-1,0
1523626540700,1179648,86,-56,-1,-1,0
1523626540700,4194304,86,-56,-1,-1,0
1523626540700,7143424,86,-56,-1,-1,0
1523626540700,6553600,86,-56,-1,-1,0
1523626540700,2555904,86,-56,-1,-1,0
1523626540740,-720896,86,-56,-1,-1,0
1523626540740,-917504,86,-56,-1,-1,0
1523626540740,-458752,86,-56,-1,-1,0
1523626540740,-458752,86,-56,-1,-1,0
1523626540740,-589824,86,-56,-1,-1,0
1523626540780,-655360,86,-56,-1,-1,0
1523626540780,-786432,86,-56,-1,-1,0
1523626540780,-851968,86,-56,-1,-1,0
1523626540780,-786432,86,-56,-1,-1,0
1523626540780,-589824,86,-56,-1,-1,0
1523626540820,-524288,86,-56,-1,-1,0
1523626540820,-524288,86,-56,-1,-1,0
1523626540820,-589824,86,-56,-1,-1,0
1523626540820,-589824,86,-56,-1,-1,0
1523626540820,-589824,86,-56,-1,-1,0
1523626540860,-524288,86,-56,-1,-1,0
1523626540860,-393216,86,-56,-1,-1,0
1523626540860,-262144,86,-56,-1,-1,0
1523626540860,-131072,86,-56,-1,-1,0
1523626540860,0,86,-56,-1,-1,0
1523626540900,131072,86,-56,-1,-1,0
1523626540900,327680,86,-56,-1,-1,0
1523626540900,524288,86,-56,-1,-1,0
1523626540900,720896,86,-56,-1,-1,0
1523626540900,851968,86,-56,-1,-1,0
1523626540940,917504,86,-56,-1,-1,0
1523626540940,983040,86,-56,-1,-1,0
1523626540940,917504,86,-56,-1,-1,0
1523626540940,720896,86,-56,-1,-1,0
1523626540940,393216,86,-56,-1,-1,0
1523626540980,131072,86,-56,-1,-1,0
1523626540980,65536,86,-56,-1,-1,0
1523626540980,-65536,86,-56,-1,-1,0
1523626540980,-262144,86,-56,-1,-1,0
1523626540980,-262144,86,-56,-1,-1,0
1523626541020,-262144,86,-56,-1,-1,0
1523626541020,-393216,86,-56,-1,-1,0
1523626541020,-393216,86,-56,-1,-1,0
1523626541020,-262144,86,-56,-1,-1,0
1523626541020,-131072,86,-56,-1,-1,0
1523626541061,-131072,86,-56,-1,-1,0
1523626541061,-196608,86,-56,-1,-1,0
1523626541061,-131072,86,-56,-1,-1,0
1523626541061,-131072,86,-56,-1,-1,0
1523626541061,-65536,86,-56,-1,-1,0
1523626541100,-65536,86,-56,-1,-1,0
1523626541100,-131072,86,-56,-1,-1,0
1523626541100,-196608,86,-56,-1,-1,0
1523626541100,-196608,86,-56,-1,-1,0
1523626541100,-196608,86,-56,-1,-1,0
1523626541140,-196608,86,-56,-1,-1,0
1523626541140,-262144,86,-56,-1,-1,0
1523626541140,-262144,86,-56,-1,-1,0
1523626541140,-327680,86,-56,-1,-1,0
1523626541140,-327680,86,-56,-1,-1,0
1523626541180,-393216,86,-56,-1,-1,0
1523626541180,-458752,86,-56,-1,-1,0
1523626541180,-524288,86,-56,-1,-1,0
1523626541180,-458752,86,-56,-1,-1,0
1523626541180,-262144,86,-56,-1,-1,0
1523626541220,-131072,87,-56,-1,-1,0
1523626541220,-131072,87,-56,-1,-1,0
1523626541220,-196608,87,-56,-1,-1,0
1523626541220,-393216,87,-56,-1,-1,0
1523626541220,-524288,87,-56,-1,-1,0
1523626541260,-655360,87,-56,-1,-1,0
1523626541260,-720896,87,-56,-1,-1,0
1523626541260,-720896,87,-56,-1,-1,0
1523626541260,-655360,87,-56,-1,-1,0
1523626541260,-655360,87,-56,-1,-1,0
1523626541300,-524288,87,-56,-1,-1,0
1523626541300,-524288,87,-56,-1,-1,0
1523626541300,-720896,87,-56,-1,-1,0
1523626541300,-655360,87,-56,-1,-1,0
1523626541300,720896,87,-56,-1,-1,0
1523626541340,3801088,87,-56,-1,-1,0
1523626541340,7274496,87,-56,-1,-1,0
1523626541340,7602176,87,-56,-1,-1,0
1523626541340,3801088,87,-56,-1,-1,0
1523626541340,-196608,87,-56,-1,-1,0
1523626541380,-1245184,87,-56,-1,-1,0
1523626541380,-917504,87,-56,-1,-1,0
1523626541380,-655360,87,-56,-1,-1,0
1523626541380,-589824,87,-56,-1,-1,0
1523626541380,-786432,87,-56,-1,-1,0
1523626541420,-786432,87,-56,-1,-1,0
1523626541420,-851968,87,-56,-1,-1,0
1523626541420,-917504,87,-56,-1,-1,0
1523626541420,-786432,87,-56,-1,-1,0
1523626541420,-655360,87,-56,-1,-1,0
1523626541460,-524288,87,-56,-1,-1,0
1523626541460,-524288,87,-56,-1,-1,0
1523626541460,-589824,87,-56,-1,-1,0
1523626541460,-589824,87,-56,-1,-1,0
1523626541460,-458752,87,-56,-1,-1,0
1523626541500,-458752,87,-56,-1,-1,0
1523626541500,-196608,87,-56,-1,-1,0
1523626541500,0,87,-56,-1,-1,0
1523626541500,327680,87,-56,-1,-1,0
1523626541500,393216,87,-56,-1,-1,0
1523626541540,458752,87,-56,-1,-1,0
1523626541540,458752,87,-56,-1,-1,0
1523626541540,589824,87,-56,-1,-1,0
1523626541540,786432,87,-56,-1,-1,0
1523626541540,1048576,87,-56,-1,-1,0
1523626541580,1048576,87,-56,-1,-1,0
1523626541580,851968,87,-56,-1,-1,0
1523626541580,589824,87,-56,-1,-1,0
1523626541580,327680,87,-56,-1,-1,0
1523626541580,196608,87,-56,-1,-1,0
1523626541620,0,87,-56,-1,-1,0
1523626541620,-65536,87,-56,-1,-1,0
1523626541620,-327680,87,-56,-1,-1,0
1523626541620,-458752,87,-56,-1,-1,0
1523626541620,-524288,87,-56,-1,-1,0
1523626541660,-393216,87,-56,-1,-1,0
1523626541660,-458752,87,-56,-1,-1,0
1523626541660,-458752,87,-56,-1,-1,0
1523626541660,-393216,87,-56,-1,-1,0
1523626541660,-327680,87,-56,-1,-1,0
1523626541701,-327680,87,-56,-1,-1,0
1523626541701,-327680,87,-56,-1,-1,0
1523626541701,-393216,87,-56,-1,-1,0
1523626541701,-458752,87,-56,-1,-1,0
1523626541701,-327680,87,-56,-1,-1,0
1523626541740,-262144,87,-56,-1,-1,0
1523626541740,-262144,87,-56,-1,-1,0
1523626541740,-327680,87,-56,-1,-1,0
1523626541740,-393216,87,-56,-1,-1,0
1523626541740,-524288,87,-56,-1,-1,0
1523626541780,-655360,87,-56,-1,-1,0
1523626541780,-655360,87,-56,-1,-1,0
1523626541780,-458752,87,-56,-1,-1,0
1523626541780,-327680,87,-56,-1,-1,0
1523626541780,-393216,87,-56,-1,-1,0
1523626541820,-327680,87,-56,-1,-1,0
1523626541820,-131072,87,-56,-1,-1,0
1523626541820,-131072,87,-56,-1,-1,0
1523626541820,-393216,87,-56,-1,-1,0
1523626541820,-524288,87,-56,-1,-1,0
1523626541860,-458752,88,-56,-1,-1,0
1523626541860,-458752,88,-56,-1,-1,0
1523626541860,-524288,88,-56,-1,-1,0
1523626541860,-589824,88,-56,-1,-1,0
1523626541860,-655360,88,-56,-1,-1,0
1523626541900,-524288,88,-56,-1,-1,0
1523626541900,-589824,88,-56,-1,-1,0
1523626541900,-655360,88,-56,-1,-1,0
1523626541900,-851968,88,-56,-1,-1,0
1523626541900,-524288,88,-56,-1,-1,0
1523626541940,786432,88,-56,-1,-1,0
1523626541940,3670016,88,-56,-1,-1,0
1523626541940,6815744,88,-56,-1,-1,0
1523626541940,6946816,88,-56,-1,-1,0
1523626541940,3276800,88,-56,-1,-1,0
1523626541980,-393216,88,-56,-1,-1,0
1523626541980,-1179648,88,-56,-1,-1,0
1523626541980,-851968,88,-56,-1,-1,0
1523626541980,-720896,88,-56,-1,-1,0
1523626541980,-720896,88,-56,-1,-1,0
1523626542020,-851968,88,-56,-1,-1,0
1523626542020,-851968,88,-56,-1,-1,0
1523626542020,-917504,88,-56,-1,-1,0
1523626542020,-917504,88,-56,-1,-1,0
1523626542020,-917504,88,-56,-1,-1,0
1523626542060,-917504,88,-56,-1,-1,0
1523626542060,-786432,88,-56,-1,-1,0
1523626542060,-786432,88,-56,-1,-1,0
1523626542060,-786432,88,-56,-1,-1,0
1523626542060,-786432,88,-56,-1,-1,0
1523626542100,-655360,88,-56,-1,-1,0
1523626542100,-458752,88,-56,-1,-1,0
1523626542100,-262144,88,-56,-1,-1,0
1523626542100,-196608,88,-56,-1,-1,0
1523626542100,0,88,-56,-1,-1,0
1523626542140,65536,88,-56,-1,-1,0
1523626542140,327680,88,-56,-1,-1,0
1523626542140,458752,88,-56,-1,-1,0
1523626542140,655360,88,-56,-1,-1,0
1523626542140,917504,88,-56,-1,-1,0
1523626542180,1114112,88,-56,-1,-1,0
1523626542180,1114112,88,-56,-1,-1,0
1523626542180,983040,88,-56,-1,-1,0
1523626542180,851968,88,-56,-1,-1,0
1523626542180,589824,88,-56,-1,-1,0
1523626542220,327680,88,-56,-1,-1,0
1523626542220,65536,88,-56,-1,-1,0
1523626542220,0,88,-56,-1,-1,0
1523626542220,-65536,88,-56,-1,-1,0
1523626542220,-65536,88,-56,-1,-1,0
1523626542260,-131072,88,-56,-1,-1,0
1523626542260,-196608,88,-56,-1,-1,0
1523626542260,-196608,88,-56,-1,-1,0
1523626542260,-131072,88,-56,-1,-1,0
1523626542260,-131072,88,-56,-1,-1,0
1523626542300,-65536,88,-56,-1,-1,0
1523626542300,0,88,-56,-1,-1,0
1523626542300,0,88,-56,-1,-1,0
1523626542300,-65536,88,-56,-1,-1,0
1523626542300,-65536,88,-56,-1,-1,0
1523626542341,-65536,88,-56,-1,-1,0
1523626542341,-65536,88,-56,-1,-1,0
1523626542341,-65536,88,-56,-1,-1,0
1523626542341,-196608,88,-56,-1,-1,0
1523626542341,-327680,88,-56,-1,-1,0
1523626542380,-262144,88,-56,-1,-1,0
1523626542380,-196608,88,-56,-1,-1,0
1523626542380,-262144,88,-56,-1,-1,0
1523626542380,-327680,88,-56,-1,-1,0
1523626542380,-327680,88,-56,-1,-1,0
1523626542420,-262144,88,-56,-1,-1,0
1523626542420,-262144,88,-56,-1,-1,0
1523626542420,-131072,88,-56,-1,-1,0
1523626542420,-65536,88,-56,-1,-1,0
1523626542420,-196608,88,-56,-1,-1,0
1523626542460,-327680,88,-56,-1,-1,0
1523626542460,-262144,88,-56,-1,-1,0
1523626542460,-262144,88,-56,-1,-1,0
1523626542460,-393216,88,-56,-1,-1,0
1523626542460,-524288,88,-56,-1,-1,0
1523626542500,-720896,89,-56,-1,-1,0
1523626542500,-589824,89,-56,-1,-1,0
1523626542500,-524288,89,-56,-1,-1,0
1523626542500,-655360,89,-56,-1,-1,0
1523626542500,-655360,89,-56,-1,-1,0
1523626542540,-589824,89,-56,-1,-1,0
1523626542540,-458752,89,-56,-1,-1,0
1523626542540,458752,89,-56,-1,-1,0
1523626542540,3145728,89,-56,-1,-1,0
1523626542540,6422528,89,-56,-1,-1,0
1523626542580,7143424,89,-56,-1,-1,0
1523626542580,3735552,89,-56,-1,-1,0
1523626542580,0,89,-56,-1,-1,0
1523626542580,-983040,89,-56,-1,-1,0
1523626542580,-786432,89,-56,-1,-1,0
1523626542620,-786432,89,-56,-1,-1,0
1523626542620,-786432,89,-56,-1,-1,0
1523626542620,-851968,89,-56,-1,-1,0
1523626542620,-917504,89,-56,-1,-1,0
1523626542620,-851968,89,-56,-1,-1,0
1523626542660,-851968,89,-56,-1,-1,0
1523626542660,-851968,89,-56,-1,-1,0
1523626542660,-851968,89,-56,-1,-1,0
1523626542660,-655360,89,-56,-1,-1,0
1523626542660,-720896,89,-56,-1,-1,0
1523626542700,-655360,89,-56,-1,-1,0
1523626542700,-655360,89,-56,-1,-1,0
1523626542700,-524288,89,-56,-1,-1,0
1523626542700,-524288,89,-56,-1,-1,0
1523626542700,-393216,89,-56,-1,-1,0
1523626542740,-196608,89,-56,-1,-1,0
1523626542740,-65536,89,-56,-1,-1,0
1523626542740,0,89,-56,-1,-1,0
1523626542740,196608,89,-56,-1,-1,0
1523626542740,524288,89,-56,-1,-1,0
1523626542780,655360,89,-56,-1,-1,0
1523626542780,720896,89,-56,-1,-1,0
1523626542780,786432,89,-56,-1,-1,0
1523626542780,786432,89,-56,-1,-1,0
1523626542780,655360,89,-56,-1,-1,0
1523626542820,524288,89,-56,-1,-1,0
1523626542820,327680,89,-56,-1,-1,0
1523626542820,65536,89,-56,-1,-1,0
1523626542820,-65536,89,-56,-1,-1,0
1523626542820,-196608,89,-56,-1,-1,0
1523626542860,-524288,89,-56,-1,-1,0
1523626542860,-720896,89,-56,-1,-1,0
1523626542860,-655360,89,-56,-1,-1,0
1523626542860,-393216,89,-56,-1,-1,0
1523626542860,-458752,89,-56,-1,-1,0
1523626542900,-589824,89,-56,-1,-1,0
1523626542900,-589824,89,-56,-1,-1,0
1523626542900,-524288,89,-56,-1,-1,0
1523626542900,-393216,89,-56,-1,-1,0
1523626542900,-458752,89,-56,-1,-1,0
1523626542940,-524288,89,-56,-1,-1,0
1523626542940,-262144,89,-56,-1,-1,0
1523626542940,-131072,89,-56,-1,-1,0
1523626542940,-262144,89,-56,-1,-1,0
1523626542940,-458752,89,-56,-1,-1,0
1523626542981,-393216,89,-56,-1,-1,0
1523626542981,-393216,89,-56,-1,-1,0
1523626542981,-393216,89,-56,-1,-1,0
1523626542981,-458752,89,-56,-1,-1,0
1523626542981,-589824,89,-56,-1,-1,0
1523626543020,-589824,89,-56,-1,-1,0
1523626543020,-458752,89,-56,-1,-1,0
1523626543020,-524288,89,-56,-1,-1,0
1523626543020,-589824,89,-56,-1,-1,0
1523626543020,-655360,89,-56,-1,-1,0
1523626543060,-524288,89,-56,-1,-1,0
1523626543060,-393216,89,-56,-1,-1,0
1523626543060,-196608,89,-56,-1,-1,0
1523626543060,-131072,89,-56,-1,-1,0
1523626543060,-131072,89,-56,-1,-1,0
1523626543100,-262144,89,-56,-1,-1,0
1523626543100,-458752,89,-56,-1,-1,0
1523626543100,-589824,89,-56,-1,-1,0
1523626543100,-524288,89,-56,-1,-1,0
1523626543100,-524288,89,-56,-1,-1,0
1523626543140,-589824,90,-56,-1,-1,0
1523626543140,-720896,90,-56,-1,-1,0
1523626543140,-720896,90,-56,-1,-1,0
1523626543140,-655360,90,-56,-1,-1,0
1523626543140,-655360,90,-56,-1,-1,0
1523626543180,-720896,90,-56,-1,-1,0
1523626543180,-524288,90,-56,-1,-1,0
1523626543180,589824,90,-56,-1,-1,0
1523626543180,3407872,90,-56,-1,-1,0
1523626543180,6946816,90,-56,-1,-1,0
1523626543220,8126464,90,-56,-1,-1,0
1523626543220,4784128,90,-56,-1,-1,0
1523626543220,589824,90,-56,-1,-1,0
1523626543220,-786432,90,-56,-1,-1,0
1523626543220,-655360,90,-56,-1,-1,0
1523626543260,-655360,90,-56,-1,-1,0
1523626543260,-720896,90,-56,-1,-1,0
1523626543260,-720896,90,-56,-1,-1,0
1523626543260,-720896,90,-56,-1,-1,0
1523626543260,-720896,90,-56,-1,-1,0
1523626543300,-720896,90,-56,-1,-1,0
1523626543300,-589824,90,-56,-1,-1,0
1523626543300,-589824,90,-56,-1,-1,0
1523626543300,-589824,90,-56,-1,-1,0
1523626543300,-589824,90,-56,-1,-1,0
1523626543340,-524288,90,-56,-1,-1,0
1523626543340,-524288,90,-56,-1,-1,0
1523626543340,-327680,90,-56,-1,-1,0
1523626543340,-196608,90,-56,-1,-1,0
1523626543340,-65536,90,-56,-1,-1,0
1523626543380,0,90,-56,-1,-1,0
1523626543380,65536,90,-56,-1,-1,0
1523626543380,262144,90,-56,-1,-1,0
1523626543380,458752,90,-56,-1,-1,0
1523626543380,655360,90,-56,-1,-1,0
1523626543420,917504,90,-56,-1,-1,0
1523626543420,1048576,90,-56,-1,-1,0
1523626543420,1114112,90,-56,-1,-1,0
1523626543420,1245184,90,-56,-1,-1,0
1523626543420,1245184,90,-56,-1,-1,0
1523626543460,1048576,90,-56,-1,-1,0
1523626543460,786432,90,-56,-1,-1,0
1523626543460,589824,90,-56,-1,-1,0
1523626543460,393216,90,-56,-1,-1,0
1523626543460,262144,90,-56,-1,-1,0
1523626543500,65536,90,-56,-1,-1,0
1523626543500,-65536,90,-56,-1,-1,0
1523626543500,-131072,90,-56,-1,-1,0
1523626543500,-131072,90,-56,-1,-1,0
1523626543500,-65536,90,-56,-1,-1,0
1523626543540,0,90,-56,-1,-1,0
1523626543540,0,90,-56,-1,-1,0
1523626543540,0,90,-56,-1,-1,0
1523626543540,65536,90,-56,-1,-1,0
1523626543540,131072,90,-56,-1,-1,0
1523626543580,65536,90,-56,-1,-1,0
1523626543580,0,90,-56,-1,-1,0
1523626543580,0,90,-56,-1,-1,0
1523626543580,0,90,-56,-1,-1,0
1523626543580,-65536,90,-56,-1,-1,0
1523626543621,-65536,90,-56,-1,-1,0
1523626543621,-131072,90,-56,-1,-1,0
1523626543621,-196608,90,-56,-1,-1,0
1523626543621,-262144,90,-56,-1,-1,0
1523626543621,-393216,90,-56,-1,-1,0
1523626543660,-393216,90,-56,-1,-1,0
1523626543660,-458752,90,-56,-1,-1,0
1523626543660,-458752,90,-56,-1,-1,0
1523626543660,-458752,90,-56,-1,-1,0
1523626543660,-458752,90,-56,-1,-1,0
1523626543700,-655360,90,-56,-1,-1,0
1523626543700,-589824,90,-56,-1,-1,0
1523626543700,-524288,90,-56,-1,-1,0
1523626543700,-655360,90,-56,-1,-1,0
1523626543700,-524288,90,-56,-1,-1,0
1523626543740,-196608,90,-56,-1,-1,0
1523626543740,-65536,90,-56,-1,-1,0
1523626543740,-196608,90,-56,-1,-1,0
1523626543740,-393216,90,-56,-1,-1,0
1523626543740,-524288,90,-56,-1,-1,0
1523626543780,-589824,90,-56,-1,-1,0
1523626543780,-720896,90,-56,-1,-1,0
1523626543780,-786432,90,-56,-1,-1,0
1523626543780,-851968,90,-56,-1,-1,0
1523626543780,-720896,90,-56,-1,-1,0
1523626543820,-589824,90,-56,-1,-1,0
1523626543820,-589824,90,-56,-1,-1,0
1523626543820,-851968,90,-56,-1,-1,0
1523626543820,-786432,90,-56,-1,-1,0
1523626543820,196608,90,-56,-1,-1,0
1523626543860,2555904,90,-56,-1,-1,0
1523626543860,5636096,90,-56,-1,-1,0
1523626543860,6815744,90,-56,-1,-1,0
1523626543860,3997696,90,-56,-1,-1,0
1523626543860,262144,90,-56,-1,-1,0
1523626543900,-983040,90,-56,-1,-1,0
1523626543900,-786432,90,-56,-1,-1,0
1523626543900,-655360,90,-56,-1,-1,0
1523626543900,-786432,90,-56,-1,-1,0
1523626543900,-851968,90,-56,-1,-1,0
1523626543940,-851968,90,-56,-1,-1,0
1523626543940,-720896,90,-56,-1,-1,0
1523626543940,-720896,90,-56,-1,-1,0
1523626543940,-786432,90,-56,-1,-1,0
1523626543940,-720896,90,-56,-1,-1,0
1523626543980,-589824,90,-56,-1,-1,0
1523626543980,-655360,90,-56,-1,-1,0
1523626543980,-655360,90,-56,-1,-1,0
1523626543980,-589824,90,-56,-1,-1,0
1523626543980,-458752,90,-56,-1,-1,0
1523626544020,-393216,90,-56,-1,-1,0
1523626544020,-262144,90,-56,-1,-1,0
1523626544020,-262144,90,-56,-1,-1,0
1523626544020,-262144,90,-56,-1,-1,0
1523626544020,0,90,-56,-1,-1,0
1523626544060,327680,90,-56,-1,-1,0
1523626544060,589824,90,-56,-1,-1,0
1523626544060,655360,90,-56,-1,-1,0
1523626544060,786432,90,-56,-1,-1,0
1523626544060,851968,90,-56,-1,-1,0
1523626544100,851968,90,-56,-1,-1,0
1523626544100,786432,90,-56,-1,-1,0
1523626544100,655360,90,-56,-1,-1,0
1523626544100,589824,90,-56,-1,-1,0
1523626544100,589824,90,-56,-1,-1,0
1523626544140,393216,90,-56,-1,-1,0
1523626544140,131072,90,-56,-1,-1,0
1523626544140,0,90,-56,-1,-1,0
1523626544140,-196608,90,-56,-1,-1,0
1523626544140,-262144,90,-56,-1,-1,0
1523626544180,-131072,90,-56,-1,-1,0
1523626544180,-65536,90,-56,-1,-1,0
1523626544180,-131072,90,-56,-1,-1,0
1523626544180,-131072,90,-56,-1,-1,0
1523626544180,0,90,-56,-1,-1,0
1523626544219,0,90,-56,-1,-1,0
1523626544219,0,90,-56,-1,-1,0
1523626544219,0,90,-56,-1,-1,0
1523626544219,0,90,-56,-1,-1,0
1523626544219,65536,90,-56,-1,-1,0
1523626544261,131072,90,-56,-1,-1,0
1523626544261,65536,90,-56,-1,-1,0
1523626544261,0,90,-56,-1,-1,0
1523626544261,-196608,90,-56,-1,-1,0
1523626544261,-262144,90,-56,-1,-1,0
1523626544299,-327680,90,-56,-1,-1,0
1523626544299,-262144,90,-56,-1,-1,0
1523626544299,-196608,90,-56,-1,-1,0
1523626544299,-262144,90,-56,-1,-1,0
1523626544299,-327680,90,-56,-1,-1,0
1523626544339,-262144,90,-56,-1,-1,0
1523626544339,-327680,90,-56,-1,-1,0
1523626544339,-458752,90,-56,-1,-1,0
1523626544339,-524288,90,-56,-1,-1,0
1523626544339,-524288,90,-56,-1,-1,0
1523626544379,-524288,90,-56,-1,-1,0
1523626544379,-589824,90,-56,-1,-1,0
1523626544379,-524288,90,-56,-1,-1,0
1523626544379,-393216,90,-56,-1,-1,0
1523626544379,-327680,90,-56,-1,-1,0
1523626544419,-327680,90,-56,-1,-1,0
1523626544419,-393216,90,-56,-1,-1,0
1523626544419,-393216,90,-56,-1,-1,0
1523626544419,-524288,90,-56,-1,-1,0
1523626544419,-655360,90,-56,-1,-1,0
1523626544459,-786432,90,-56,-1,-1,0
1523626544459,-851968,90,-56,-1,-1,0
1523626544459,-851968,90,-56,-1,-1,0
1523626544459,-851968,90,-56,-1,-1,0
1523626544459,-851968,90,-56,-1,-1,0
1523626544499,-786432,90,-56,-1,-1,0
1523626544499,-851968,90,-56,-1,-1,0
1523626544499,-917504,90,-56,-1,-1,0
1523626544499,-262144,90,-56,-1,-1,0
1523626544499,1835008,90,-56,-1,-1,0
1523626544539,5505024,90,-56,-1,-1,0
1523626544539,8519680,90,-56,-1,-1,0
1523626544539,7012352,90,-56,-1,-1,0
1523626544539,2490368,90,-56,-1,-1,0
1523626544539,-524288,90,-56,-1,-1,0
1523626544579,-720896,90,-56,-1,-1,0
1523626544579,-655360,90,-56,-1,-1,0
1523626544579,-720896,90,-56,-1,-1,0
1523626544579,-720896,90,-56,-1,-1,0
1523626544579,-720896,90,-56,-1,-1,0
1523626544619,-655360,90,-56,-1,-1,0
1523626544619,-655360,90,-56,-1,-1,0
1523626544619,-589824,90,-56,-1,-1,0
1523626544619,-589824,90,-56,-1,-1,0
1523626544619,-589824,90,-56,-1,-1,0
1523626544659,-589824,90,-56,-1,-1,0
1523626544659,-524288,90,-56,-1,-1,0
1523626544659,-458752,90,-56,-1,-1,0
1523626544659,-393216,90,-56,-1,-1,0
1523626544659,-262144,90,-56,-1,-1,0
1523626544699,-196608,90,-56,-1,-1,0
1523626544699,0,90,-56,-1,-1,0
1523626544699,65536,90,-56,-1,-1,0
1523626544699,196608,90,-56,-1,-1,0
1523626544699,393216,90,-56,-1,-1,0
1523626544739,589824,90,-56,-1,-1,0
1523626544739,786432,90,-56,-1,-1,0
1523626544739,917504,90,-56,-1,-1,0
1523626544739,1048576,90,-56,-1,-1,0
1523626544739,1179648,90,-56,-1,-1,0
1523626544779,1245184,90,-56,-1,-1,0
1523626544779,1114112,90,-56,-1,-1,0
1523626544779,786432,90,-56,-1,-1,0
1523626544779,589824,90,-56,-1,-1,0
1523626544779,196608,90,-56,-1,-1,0
1523626544819,-65536,90,-56,-1,-1,0
1523626544819,-327680,90,-56,-1,-1,0
1523626544819,-458752,90,-56,-1,-1,0
1523626544819,-458752,90,-56,-1,-1,0
1523626544819,-393216,90,-56,-1,-1,0
1523626544859,-327680,90,-56,-1,-1,0
1523626544859,-393216,90,-56,-1,-1,0
1523626544859,-327680,90,-56,-1,-1,0
1523626544859,-327680,90,-56,-1,-1,0
1523626544859,-393216,90,-56,-1,-1,0
1523626544901,-327680,90,-56,-1,-1,0
1523626544901,-196608,90,-56,-1,-1,0
1523626544901,-262144,90,-56,-1,-1,0
1523626544901,-327680,90,-56,-1,-1,0
1523626544901,-393216,90,-56,-1,-1,0
1523626544939,-262144,90,-56,-1,-1,0
1523626544939,-196608,90,-56,-1,-1,0
1523626544939,-196608,90,-56,-1,-1,0
1523626544939,-393216,90,-56,-1,-1,0
1523626544939,-458752,90,-56,-1,-1,0
1523626544979,-524288,90,-56,-1,-1,0
1523626544979,-524288,90,-56,-1,-1,0
1523626544979,-589824,90,-56,-1,-1,0
1523626544979,-589824,90,-56,-1,-1,0
1523626544979,-655360,90,-56,-1,-1,0
1523626545019,-655360,90,-56,-1,-1,0
1523626545019,-655360,90,-56,-1,-1,0
1523626545019,-524288,90,-56,-1,-1,0
1523626545019,-524288,90,-56,-1,-1,0
1523626545019,-458752,90,-56,-1,-1,0
1523626545059,-524288,92,-56,-1,-1,0
1523626545059,-589824,92,-56,-1,-1,0
1523626545059,-720896,92,-56,-1,-1,0
1523626545059,-851968,92,-56,-1,-1,0
1523626545059,-983040,92,-56,-1,-1,0
1523626545099,-983040,92,-56,-1,-1,0
1523626545099,-1048576,92,-56,-1,-1,0
1523626545099,-1048576,92,-56,-1,-1,0
1523626545099,-1048576,92,-56,-1,-1,0
1523626545099,-1048576,92,-56,-1,-1,0
1523626545139,-1048576,92,-56,-1,-1,0
1523626545139,-1048576,92,-56,-1,-1,0
1523626545139,-262144,92,-56,-1,-1,0
1523626545139,2097152,92,-56,-1,-1,0
1523626545139,6029312,92,-56,-1,-1,0
1523626545179,8781824,92,-56,-1,-1,0
1523626545179,6356992,92,-56,-1,-1,0
1523626545179,1310720,92,-56,-1,-1,0
1523626545179,-1441792,92,-56,-1,-1,0
1523626545179,-1245184,92,-56,-1,-1,0
1523626545219,-917504,92,-56,-1,-1,0
1523626545219,-1048576,92,-56,-1,-1,0
1523626545219,-1048576,92,-56,-1,-1,0
1523626545219,-983040,92,-56,-1,-1,0
1523626545219,-917504,92,-56,-1,-1,0
1523626545259,-983040,92,-56,-1,-1,0
1523626545259,-917504,92,-56,-1,-1,0
1523626545259,-983040,92,-56,-1,-1,0
1523626545259,-983040,92,-56,-1,-1,0
1523626545259,-851968,92,-56,-1,-1,0
1523626545299,-655360,92,-56,-1,-1,0
1523626545299,-655360,92,-56,-1,-1,0
1523626545299,-655360,92,-56,-1,-1,0
1523626545299,-524288,92,-56,-1,-1,0
1523626545299,-393216,92,-56,-1,-1,0
1523626545339,-196608,92,-56,-1,-1,0
1523626545339,0,92,-56,-1,-1,0
1523626545339,262144,92,-56,-1,-1,0
1523626545339,524288,92,-56,-1,-1,0
1523626545339,786432,92,-56,-1,-1,0
1523626545379,1114112,92,-56,-1,-1,0
1523626545379,1179648,92,-56,-1,-1,0
1523626545379,1179648,92,-56,-1,-1,0
1523626545379,1179648,92,-56,-1,-1,0
1523626545379,1179648,92,-56,-1,-1,0
1523626545419,1048576,92,-56,-1,-1,0
1523626545419,720896,92,-56,-1,-1,0
1523626545419,262144,92,-56,-1,-1,0
1523626545419,0,92,-56,-1,-1,0
1523626545419,-262144,92,-56,-1,-1,0
1523626545459,-327680,92,-56,-1,-1,0
1523626545459,-393216,92,-56,-1,-1,0
1523626545459,-524288,92,-56,-1,-1,0
1523626545459,-589824,92,-56,-1,-1,0
1523626545459,-589824,92,-56,-1,-1,0
1523626545499,-589824,92,-56,-1,-1,0
1523626545499,-655360,92,-56,-1,-1,0
1523626545499,-589824,92,-56,-1,-1,0
1523626545499,-589824,92,-56,-1,-1,0
1523626545499,-524288,92,-56,-1,-1,0
1523626545541,-524288,92,-56,-1,-1,0
1523626545541,-524288,92,-56,-1,-1,0
1523626545541,-589824,92,-56,-1,-1,0
1523626545541,-524288,92,-56,-1,-1,0
1523626545541,-524288,92,-56,-1,-1,0
1523626545579,-589824,92,-56,-1,-1,0
1523626545579,-655360,92,-56,-1,-1,0
1523626545579,-655360,92,-56,-1,-1,0
1523626545579,-655360,92,-56,-1,-1,0
1523626545579,-655360,92,-56,-1,-1,0
1523626545619,-786432,92,-56,-1,-1,0
1523626545619,-917504,92,-56,-1,-1,0
1523626545619,-851968,92,-56,-1,-1,0
1523626545619,-720896,92,-56,-1,-1,0
1523626545619,-655360,92,-56,-1,-1,0
1523626545659,-655360,93,-56,-1,-1,0
1523626545659,-589824,93,-56,-1,-1,0
1523626545659,-589824,93,-56,-1,-1,0
1523626545659,-786432,93,-56,-1,-1,0
1523626545659,-983040,93,-56,-1,-1,0
1523626545699,-1048576,93,-56,-1,-1,0
1523626545699,-1048576,93,-56,-1,-1,0
1523626545699,-1048576,93,-56,-1,-1,0
1523626545699,-1048576,93,-56,-1,-1,0
1523626545699,-983040,93,-56,-1,-1,0
1523626545739,-983040,93,-56,-1,-1,0
1523626545739,-1179648,93,-56,-1,-1,0
1523626545739,-917504,93,-56,-1,-1,0
1523626545739,786432,93,-56,-1,-1,0
1523626545739,4718592,93,-56,-1,-1,0
1523626545779,9633792,93,-56,-1,-1,0
1523626545779,11141120,93,-56,-1,-1,0
1523626545779,6619136,93,-56,-1,-1,0
1523626545779,851968,93,-56,-1,-1,0
1523626545779,-917504,93,-56,-1,-1,0
1523626545820,-720896,93,-56,-1,-1,0
1523626545820,-720896,93,-56,-1,-1,0
1523626545820,-917504,93,-56,-1,-1,0
1523626545820,-917504,93,-56,-1,-1,0
1523626545820,-851968,93,-56,-1,-1,0
1523626545859,-720896,93,-56,-1,-1,0
1523626545859,-720896,93,-56,-1,-1,0
1523626545859,-720896,93,-56,-1,-1,0
1523626545859,-786432,93,-56,-1,-1,0
1523626545859,-655360,93,-56,-1,-1,0
1523626545899,-589824,93,-56,-1,-1,0
1523626545899,-458752,93,-56,-1,-1,0
1523626545899,-458752,93,-56,-1,-1,0
1523626545899,-327680,93,-56,-1,-1,0
1523626545899,-327680,93,-56,-1,-1,0
1523626545939,-262144,93,-56,-1,-1,0
1523626545939,0,93,-56,-1,-1,0
1523626545939,196608,93,-56,-1,-1,0
1523626545939,393216,93,-56,-1,-1,0
1523626545939,786432,93,-56,-1,-1,0
1523626545979,1114112,93,-56,-1,-1,0
1523626545979,1179648,93,-56,-1,-1,0
1523626545979,1245184,93,-56,-1,-1,0
1523626545979,1441792,93,-56,-1,-1,0
1523626545979,1507328,93,-56,-1,-1,0
1523626546019,1376256,93,-56,-1,-1,0
1523626546019,983040,93,-56,-1,-1,0
1523626546019,720896,93,-56,-1,-1,0
1523626546019,393216,93,-56,-1,-1,0
1523626546019,65536,93,-56,-1,-1,0
1523626546059,-65536,93,-56,-1,-1,0
1523626546059,-196608,93,-56,-1,-1,0
1523626546059,-327680,93,-56,-1,-1,0
1523626546059,-393216,93,-56,-1,-1,0
1523626546059,-327680,93,-56,-1,-1,0
1523626546099,-393216,93,-56,-1,-1,0
1523626546099,-458752,93,-56,-1,-1,0
1523626546099,-524288,93,-56,-1,-1,0
1523626546099,-393216,93,-56,-1,-1,0
1523626546099,-262144,93,-56,-1,-1,0
1523626546140,-196608,93,-56,-1,-1,0
1523626546140,-262144,93,-56,-1,-1,0
1523626546140,-327680,93,-56,-1,-1,0
1523626546140,-393216,93,-56,-1,-1,0
1523626546140,-327680,93,-56,-1,-1,0
1523626546181,-393216,93,-56,-1,-1,0
1523626546181,-393216,93,-56,-1,-1,0
1523626546181,-524288,93,-56,-1,-1,0
1523626546181,-720896,93,-56,-1,-1,0
1523626546181,-720896,93,-56,-1,-1,0
1523626546219,-589824,93,-56,-1,-1,0
1523626546219,-655360,93,-56,-1,-1,0
1523626546219,-786432,93,-56,-1,-1,0
1523626546219,-851968,93,-56,-1,-1,0
1523626546219,-720896,93,-56,-1,-1,0
1523626546259,-589824,93,-56,-1,-1,0
1523626546259,-655360,93,-56,-1,-1,0
1523626546259,-851968,93,-56,-1,-1,0
1523626546259,-983040,93,-56,-1,-1,0
1523626546259,-1114112,93,-56,-1,-1,0
1523626546299,-1114112,93,-56,-1,-1,0
1523626546299,-1179648,93,-56,-1,-1,0
1523626546299,-1179648,93,-56,-1,-1,0
1523626546299,-1245184,93,-56,-1,-1,0
1523626546299,-1310720,93,-56,-1,-1,0
1523626546339,-1245184,93,-56,-1,-1,0
1523626546339,-1310720,93,-56,-1,-1,0
1523626546339,-1048576,93,-56,-1,-1,0
1523626546339,720896,93,-56,-1,-1,0
1523626546339,4390912,93,-56,-1,-1,0
1523626546379,8781824,93,-56,-1,-1,0
1523626546379,9568256,93,-56,-1,-1,0
1523626546379,4980736,93,-56,-1,-1,0
1523626546379,0,93,-56,-1,-1,0
1523626546379,-1179648,93,-56,-1,-1,0
1523626546419,-917504,93,-56,-1,-1,0
1523626546419,-983040,93,-56,-1,-1,0
1523626546419,-1048576,93,-56,-1,-1,0
1523626546419,-983040,93,-56,-1,-1,0
1523626546419,-983040,93,-56,-1,-1,0
1523626546459,-983040,93,-56,-1,-1,0
1523626546459,-983040,93,-56,-1,-1,0
1523626546459,-786432,93,-56,-1,-1,0
1523626546459,-786432,93,-56,-1,-1,0
1523626546459,-851968,93,-56,-1,-1,0
1523626546499,-917504,93,-56,-1,-1,0
1523626546499,-786432,93,-56,-1,-1,0
1523626546499,-655360,93,-56,-1,-1,0
1523626546499,-393216,93,-56,-1,-1,0
1523626546499,-262144,93,-56,-1,-1,0
1523626546539,-131072,93,-56,-1,-1,0
1523626546539,-131072,93,-56,-1,-1,0
1523626546539,65536,93,-56,-1,-1,0
1523626546539,393216,93,-56,-1,-1,0
1523626546539,655360,93,-56,-1,-1,0
1523626546579,720896,93,-56,-1,-1,0
1523626546579,917504,93,-56,-1,-1,0
1523626546579,1048576,93,-56,-1,-1,0
1523626546579,1114112,93,-56,-1,-1,0
1523626546579,1114112,93,-56,-1,-1,0
1523626546619,917504,93,-56,-1,-1,0
1523626546619,786432,93,-56,-1,-1,0
1523626546619,655360,93,-56,-1,-1,0
1523626546619,327680,93,-56,-1,-1,0
1523626546619,0,93,-56,-1,-1,0
1523626546659,-196608,93,-56,-1,-1,0
1523626546659,-393216,93,-56,-1,-1,0
1523626546659,-524288,93,-56,-1,-1,0
1523626546659,-589824,93,-56,-1,-1,0
1523626546659,-655360,93,-56,-1,-1,0
1523626546699,-720896,93,-56,-1,-1,0
1523626546699,-720896,93,-56,-1,-1,0
1523626546699,-655360,93,-56,-1,-1,0
1523626546699,-524288,93,-56,-1,-1,0
1523626546699,-458752,93,-56,-1,-1,0
1523626546739,-327680,93,-56,-1,-1,0
1523626546739,-262144,93,-56,-1,-1,0
1523626546739,-262144,93,-56,-1,-1,0
1523626546739,-262144,93,-56,-1,-1,0
1523626546739,-327680,93,-56,-1,-1,0
1523626546779,-327680,93,-56,-1,-1,0
1523626546779,-393216,93,-56,-1,-1,0
1523626546779,-458752,93,-56,-1,-1,0
1523626546779,-524288,93,-56,-1,-1,0
1523626546779,-655360,93,-56,-1,-1,0
1523626546821,-655360,93,-56,-1,-1,0
1523626546821,-589824,93,-56,-1,-1,0
1523626546821,-589824,93,-56,-1,-1,0
1523626546821,-524288,93,-56,-1,-1,0
1523626546821,-393216,93,-56,-1,-1,0
1523626546859,-327680,94,-56,-1,-1,0
1523626546859,-327680,94,-56,-1,-1,0
1523626546859,-393216,94,-56,-1,-1,0
1523626546859,-589824,94,-56,-1,-1,0
1523626546859,-720896,94,-56,-1,-1,0
1523626546899,-786432,94,-56,-1,-1,0
1523626546899,-720896,94,-56,-1,-1,0
1523626546899,-720896,94,-56,-1,-1,0
1523626546899,-786432,94,-56,-1,-1,0
1523626546899,-786432,94,-56,-1,-1,0
1523626546939,-720896,94,-56,-1,-1,0
1523626546939,-786432,94,-56,-1,-1,0
1523626546939,-786432,94,-56,-1,-1,0
1523626546939,0,94,-56,-1,-1,0
1523626546939,2424832,94,-56,-1,-1,0
1523626546979,6356992,94,-56,-1,-1,0
1523626546979,9175040,94,-56,-1,-1,0
1523626546979,7274496,94,-56,-1,-1,0
1523626546979,2424832,94,-56,-1,-1,0
1523626546979,-589824,94,-56,-1,-1,0
1523626547021,-851968,94,-56,-1,-1,0
1523626547021,-720896,94,-56,-1,-1,0
1523626547021,-786432,94,-56,-1,-1,0
1523626547021,-589824,94,-56,-1,-1,0
1523626547021,-524288,94,-56,-1,-1,0
1523626547059,-65536,94,-56,-1,-1,0
1523626547059,0,94,-56,-1,-1,0
1523626547059,-196608,94,-56,-1,-1,0
1523626547059,-655360,94,-56,-1,-1,0
1523626547059,-786432,94,-56,-1,-1,0
1523626547099,-851968,94,-56,-1,-1,0
1523626547099,-851968,94,-56,-1,-1,0
1523626547099,-720896,94,-56,-1,-1,0
1523626547099,-589824,94,-56,-1,-1,0
1523626547099,-524288,94,-56,-1,-1,0
1523626547139,-524288,94,-56,-1,-1,0
1523626547139,-458752,94,-56,-1,-1,0
1523626547139,-196608,94,-56,-1,-1,0
1523626547139,0,94,-56,-1,-1,0
1523626547139,131072,94,-56,-1,-1,0
1523626547179,393216,94,-56,-1,-1,0
1523626547179,655360,94,-56,-1,-1,0
1523626547179,851968,94,-56,-1,-1,0
1523626547179,917504,94,-56,-1,-1,0
1523626547179,1114112,94,-56,-1,-1,0
1523626547219,1179648,94,-56,-1,-1,0
1523626547219,1048576,94,-56,-1,-1,0
1523626547219,589824,94,-56,-1,-1,0
1523626547219,196608,94,-56,-1,-1,0
1523626547219,0,94,-56,-1,-1,0
1523626547259,-262144,94,-56,-1,-1,0
1523626547259,-393216,94,-56,-1,-1,0
1523626547259,-327680,94,-56,-1,-1,0
1523626547259,-262144,94,-56,-1,-1,0
1523626547259,-393216,94,-56,-1,-1,0
1523626547299,-524288,94,-56,-1,-1,0
1523626547299,-524288,94,-56,-1,-1,0
1523626547299,-458752,94,-56,-1,-1,0
1523626547299,-458752,94,-56,-1,-1,0
1523626547299,-524288,94,-56,-1,-1,0
1523626547339,-524288,94,-56,-1,-1,0
1523626547339,-458752,94,-56,-1,-1,0
1523626547339,-393216,94,-56,-1,-1,0
1523626547339,-393216,94,-56,-1,-1,0
1523626547339,-393216,94,-56,-1,-1,0
1523626547379,-393216,94,-56,-1,-1,0
1523626547379,-393216,94,-56,-1,-1,0
1523626547379,-458752,94,-56,-1,-1,0
1523626547379,-589824,94,-56,-1,-1,0
1523626547379,-720896,94,-56,-1,-1,0
1523626547419,-786432,94,-56,-1,-1,0
1523626547419,-786432,94,-56,-1,-1,0
1523626547419,-786432,94,-56,-1,-1,0
1523626547419,-720896,94,-56,-1,-1,0
1523626547419,-720896,94,-56,-1,-1,0
1523626547461,-786432,94,-56,-1,-1,0
1523626547461,-720896,94,-56,-1,-1,0
1523626547461,-589824,94,-56,-1,-1,0
1523626547461,-524288,94,-56,-1,-1,0
1523626547461,-655360,94,-56,-1,-1,0
1523626547499,-655360,94,-56,-1,-1,0
1523626547499,-655360,94,-56,-1,-1,0
1523626547499,-720896,94,-56,-1,-1,0
1523626547499,-917504,94,-56,-1,-1,0
1523626547499,-983040,94,-56,-1,-1,0
1523626547539,-1048576,94,-56,-1,-1,0
1523626547539,-983040,94,-56,-1,-1,0
1523626547539,-917504,94,-56,-1,-1,0
1523626547539,-851968,94,-56,-1,-1,0
1523626547539,-917504,94,-56,-1,-1,0
1523626547579,-917504,94,-56,-1,-1,0
1523626547579,-262144,94,-56,-1,-1,0
1523626547579,1769472,94,-56,-1,-1,0
1523626547579,5308416,94,-56,-1,-1,0
1523626547579,8192000,94,-56,-1,-1,0
1523626547619,6619136,94,-56,-1,-1,0
1523626547619,2228224,94,-56,-1,-1,0
1523626547619,-786432,94,-56,-1,-1,0
1523626547619,-917504,94,-56,-1,-1,0
1523626547619,-655360,94,-56,-1,-1,0
1523626547659,-655360,94,-56,-1,-1,0
1523626547659,-786432,94,-56,-1,-1,0
1523626547659,-786432,94,-56,-1,-1,0
1523626547659,-720896,94,-56,-1,-1,0
1523626547659,-720896,94,-56,-1,-1,0
1523626547699,-720896,94,-56,-1,-1,0
1523626547699,-720896,94,-56,-1,-1,0
1523626547699,-655360,94,-56,-1,-1,0
1523626547699,-589824,94,-56,-1,-1,0
1523626547699,-458752,94,-56,-1,-1,0
1523626547740,-589824,94,-56,-1,-1,0
1523626547740,-589824,94,-56,-1,-1,0
1523626547740,-524288,94,-56,-1,-1,0
1523626547740,-262144,94,-56,-1,-1,0
1523626547740,0,94,-56,-1,-1,0
1523626547779,0,94,-56,-1,-1,0
1523626547779,0,94,-56,-1,-1,0
1523626547779,0,94,-56,-1,-1,0
1523626547779,131072,94,-56,-1,-1,0
1523626547779,327680,94,-56,-1,-1,0
1523626547819,655360,94,-56,-1,-1,0
1523626547819,851968,94,-56,-1,-1,0
1523626547819,983040,94,-56,-1,-1,0
1523626547819,983040,94,-56,-1,-1,0
1523626547819,851968,94,-56,-1,-1,0
1523626547859,655360,94,-56,-1,-1,0
1523626547859,393216,94,-56,-1,-1,0
1523626547859,196608,94,-56,-1,-1,0
1523626547859,65536,94,-56,-1,-1,0
1523626547859,-65536,94,-56,-1,-1,0
1523626547899,-196608,94,-56,-1,-1,0
1523626547899,-262144,94,-56,-1,-1,0
1523626547899,-196608,94,-56,-1,-1,0
1523626547899,-196608,94,-56,-1,-1,0
1523626547899,-262144,94,-56,-1,-1,0
1523626547939,-262144,94,-56,-1,-1,0
1523626547939,-262144,94,-56,-1,-1,0
1523626547939,-196608,94,-56,-1,-1,0
1523626547939,-196608,94,-56,-1,-1,0
1523626547939,-131072,94,-56,-1,-1,0
1523626547979,-131072,94,-56,-1,-1,0
1523626547979,-131072,94,-56,-1,-1,0
1523626547979,-196608,94,-56,-1,-1,0
1523626547979,-131072,94,-56,-1,-1,0
1523626547979,-65536,94,-56,-1,-1,0
1523626548019,-65536,94,-56,-1,-1,0
1523626548019,-196608,94,-56,-1,-1,0
1523626548019,-262144,94,-56,-1,-1,0
1523626548019,-196608,94,-56,-1,-1,0
1523626548019,-262144,94,-56,-1,-1,0
1523626548059,-327680,94,-56,-1,-1,0
1523626548059,-327680,94,-56,-1,-1,0
1523626548059,-393216,94,-56,-1,-1,0
1523626548059,-393216,94,-56,-1,-1,0
1523626548059,-327680,94,-56,-1,-1,0
1523626548101,-393216,94,-56,-1,-1,0
1523626548101,-393216,94,-56,-1,-1,0
1523626548101,-393216,94,-56,-1,-1,0
1523626548101,-393216,94,-56,-1,-1,0
1523626548101,-327680,94,-56,-1,-1,0
1523626548139,-196608,94,-56,-1,-1,0
1523626548139,-65536,94,-56,-1,-1,0
1523626548139,0,94,-56,-1,-1,0
1523626548139,-131072,94,-56,-1,-1,0
1523626548139,-196608,94,-56,-1,-1,0
1523626548179,-262144,94,-56,-1,-1,0
1523626548179,-393216,94,-56,-1,-1,0
1523626548179,-458752,94,-56,-1,-1,0
1523626548179,-458752,94,-56,-1,-1,0
1523626548179,-458752,94,-56,-1,-1,0
1523626548219,-458752,94,-56,-1,-1,0
1523626548219,-458752,94,-56,-1,-1,0
1523626548219,-458752,94,-56,-1,-1,0
1523626548219,-524288,94,-56,-1,-1,0
1523626548219,-458752,94,-56,-1,-1,0
1523626548259,393216,94,-56,-1,-1,0
1523626548259,3014656,94,-56,-1,-1,0
1523626548259,6750208,94,-56,-1,-1,0
1523626548259,8585216,94,-56,-1,-1,0
1523626548259,5636096,94,-56,-1,-1,0
1523626548299,1245184,94,-56,-1,-1,0
1523626548299,-655360,94,-56,-1,-1,0
1523626548299,-458752,94,-56,-1,-1,0
1523626548299,-458752,94,-56,-1,-1,0
1523626548299,-524288,94,-56,-1,-1,0
1523626548339,-524288,94,-56,-1,-1,0
1523626548339,-589824,94,-56,-1,-1,0
1523626548339,-786432,94,-56,-1,-1,0
1523626548339,-786432,94,-56,-1,-1,0
1523626548339,-524288,94,-56,-1,-1,0
1523626548379,-393216,94,-56,-1,-1,0
1523626548379,-393216,94,-56,-1,-1,0
1523626548379,-393216,94,-56,-1,-1,0
1523626548379,-458752,94,-56,-1,-1,0
1523626548379,-524288,94,-56,-1,-1,0
1523626548419,-262144,94,-56,-1,-1,0
1523626548419,-131072,94,-56,-1,-1,0
1523626548419,-131072,94,-56,-1,-1,0
1523626548419,-196608,94,-56,-1,-1,0
1523626548419,-65536,94,-56,-1,-1,0
1523626548459,196608,94,-56,-1,-1,0
1523626548459,393216,94,-56,-1,-1,0
1523626548459,458752,94,-56,-1,-1,0
1523626548459,589824,94,-56,-1,-1,0
1523626548459,786432,94,-56,-1,-1,0
1523626548499,983040,94,-56,-1,-1,0
1523626548499,1114112,94,-56,-1,-1,0
1523626548499,1114112,94,-56,-1,-1,0
1523626548499,983040,94,-56,-1,-1,0
1523626548499,655360,94,-56,-1,-1,0
1523626548540,327680,94,-56,-1,-1,0
1523626548540,0,94,-56,-1,-1,0
1523626548540,-196608,94,-56,-1,-1,0
1523626548540,-327680,94,-56,-1,-1,0
1523626548540,-393216,94,-56,-1,-1,0
1523626548580,-589824,94,-56,-1,-1,0
1523626548580,-589824,94,-56,-1,-1,0
1523626548580,-524288,94,-56,-1,-1,0
1523626548580,-393216,94,-56,-1,-1,0
1523626548580,-393216,94,-56,-1,-1,0
1523626548619,-393216,94,-56,-1,-1,0
1523626548619,-524288,94,-56,-1,-1,0
1523626548619,-655360,94,-56,-1,-1,0
1523626548619,-524288,94,-56,-1,-1,0
1523626548619,-327680,94,-56,-1,-1,0
1523626548659,-262144,94,-56,-1,-1,0
1523626548659,-393216,94,-56,-1,-1,0
1523626548659,-524288,94,-56,-1,-1,0
1523626548659,-589824,94,-56,-1,-1,0
1523626548659,-655360,94,-56,-1,-1,0
1523626548699,-655360,94,-56,-1,-1,0
1523626548699,-655360,94,-56,-1,-1,0
1523626548699,-524288,94,-56,-1,-1,0
1523626548699,-589824,94,-56,-1,-1,0
1523626548699,-720896,94,-56,-1,-1,0
1523626548741,-851968,94,-56,-1,-1,0
1523626548741,-917504,94,-56,-1,-1,0
1523626548741,-917504,94,-56,-1,-1,0
1523626548741,-786432,94,-56,-1,-1,0
1523626548741,-720896,94,-56,-1,-1,0
1523626548779,-655360,94,-56,-1,-1,0
1523626548779,-589824,94,-56,-1,-1,0
1523626548779,-458752,94,-56,-1,-1,0
1523626548779,-327680,94,-56,-1,-1,0
1523626548779,-262144,94,-56,-1,-1,0
1523626548819,-327680,94,-56,-1,-1,0
1523626548819,-524288,94,-56,-1,-1,0
1523626548819,-720896,94,-56,-1,-1,0
1523626548819,-786432,94,-56,-1,-1,0
1523626548819,-917504,94,-56,-1,-1,0
1523626548859,-917504,94,-56,-1,-1,0
1523626548859,-851968,94,-56,-1,-1,0
1523626548859,-786432,94,-56,-1,-1,0
1523626548859,-786432,94,-56,-1,-1,0
1523626548859,-589824,94,-56,-1,-1,0
1523626548899,-655360,94,-56,-1,-1,0
1523626548899,-393216,94,-56,-1,-1,0
1523626548899,1114112,94,-56,-1,-1,0
1523626548899,4456448,94,-56,-1,-1,0
1523626548899,8257536,94,-56,-1,-1,0
1523626548940,8519680,94,-56,-1,-1,0
1523626548940,4325376,94,-56,-1,-1,0
1523626548940,65536,94,-56,-1,-1,0
1523626548940,-786432,94,-56,-1,-1,0
1523626548940,-524288,94,-56,-1,-1,0
1523626548979,-655360,94,-56,-1,-1,0
1523626548979,-720896,94,-56,-1,-1,0
1523626548979,-720896,94,-56,-1,-1,0
1523626548979,-786432,94,-56,-1,-1,0
1523626548979,-720896,94,-56,-1,-1,0
1523626549019,-720896,94,-56,-1,-1,0
1523626549019,-655360,94,-56,-1,-1,0
1523626549019,-720896,94,-56,-1,-1,0
1523626549019,-655360,94,-56,-1,-1,0
1523626549019,-655360,94,-56,-1,-1,0
1523626549059,-589824,94,-56,-1,-1,0
1523626549059,-524288,94,-56,-1,-1,0
1523626549059,-458752,94,-56,-1,-1,0
1523626549059,-393216,94,-56,-1,-1,0
1523626549059,-262144,94,-56,-1,-1,0
1523626549101,-65536,94,-56,-1,-1,0
1523626549101,131072,94,-56,-1,-1,0
1523626549101,262144,94,-56,-1,-1,0
1523626549101,524288,94,-56,-1,-1,0
1523626549101,720896,94,-56,-1,-1,0
1523626549139,917504,94,-56,-1,-1,0
1523626549139,1048576,94,-56,-1,-1,0
1523626549139,1114112,94,-56,-1,-1,0
1523626549139,1179648,94,-56,-1,-1,0
1523626549139,1179648,94,-56,-1,-1,0
1523626549179,1048576,94,-56,-1,-1,0
1523626549179,786432,94,-56,-1,-1,0
1523626549179,458752,94,-56,-1,-1,0
1523626549179,262144,94,-56,-1,-1,0
1523626549179,131072,94,-56,-1,-1,0
1523626549219,0,94,-56,-1,-1,0
1523626549219,0,94,-56,-1,-1,0
1523626549219,0,94,-56,-1,-1,0
1523626549219,0,94,-56,-1,-1,0
1523626549219,0,94,-56,-1,-1,0
1523626549259,-65536,94,-56,-1,-1,0
1523626549259,-131072,94,-56,-1,-1,0
1523626549259,-65536,94,-56,-1,-1,0
1523626549259,0,94,-56,-1,-1,0
1523626549259,131072,94,-56,-1,-1,0
1523626549299,131072,94,-56,-1,-1,0
1523626549299,65536,94,-56,-1,-1,0
1523626549299,0,94,-56,-1,-1,0
1523626549299,0,94,-56,-1,-1,0
1523626549299,-65536,94,-56,-1,-1,0
1523626549339,0,94,-56,-1,-1,0
1523626549339,0,94,-56,-1,-1,0
1523626549339,131072,94,-56,-1,-1,0
1523626549339,0,94,-56,-1,-1,0
1523626549339,-65536,94,-56,-1,-1,0
1523626549381,-131072,94,-56,-1,-1,0
1523626549381,-131072,94,-56,-1,-1,0
1523626549381,-262144,94,-56,-1,-1,0
1523626549381,-458752,94,-56,-1,-1,0
1523626549381,-589824,94,-56,-1,-1,0
1523626549419,-589824,94,-56,-1,-1,0
1523626549419,-524288,94,-56,-1,-1,0
1523626549419,-524288,94,-56,-1,-1,0
1523626549419,-589824,94,-56,-1,-1,0
1523626549419,-524288,94,-56,-1,-1,0
1523626549459,-327680,94,-56,-1,-1,0
1523626549459,-327680,94,-56,-1,-1,0
1523626549459,-393216,94,-56,-1,-1,0
1523626549459,-524288,94,-56,-1,-1,0
1523626549459,-720896,94,-56,-1,-1,0
1523626549499,-917504,94,-56,-1,-1,0
1523626549499,-1048576,94,-56,-1,-1,0
1523626549499,-1114112,94,-56,-1,-1,0
1523626549499,-1179648,94,-56,-1,-1,0
1523626549499,-1114112,94,-56,-1,-1,0
1523626549539,-983040,94,-56,-1,-1,0
1523626549539,-917504,94,-56,-1,-1,0
1523626549539,-1048576,94,-56,-1,-1,0
1523626549539,-851968,94,-56,-1,-1,0
1523626549539,196608,94,-56,-1,-1,0
1523626549579,2883584,94,-56,-1,-1,0
1523626549579,6225920,94,-56,-1,-1,0
1523626549579,6946816,94,-56,-1,-1,0
1523626549579,3538944,94,-56,-1,-1,0
1523626549579,-262144,94,-56,-1,-1,0
1523626549619,-1310720,94,-56,-1,-1,0
1523626549619,-917504,94,-56,-1,-1,0
1523626549619,-851968,94,-56,-1,-1,0
1523626549619,-917504,94,-56,-1,-1,0
1523626549619,-983040,94,-56,-1,-1,0
1523626549659,-1048576,94,-56,-1,-1,0
1523626549659,-1048576,94,-56,-1,-1,0
1523626549659,-1048576,94,-56,-1,-1,0
1523626549659,-1048576,94,-56,-1,-1,0
1523626549659,-1048576,94,-56,-1,-1,0
1523626549699,-983040,94,-56,-1,-1,0
1523626549699,-983040,94,-56,-1,-1,0
1523626549699,-917504,94,-56,-1,-1,0
1523626549699,-851968,94,-56,-1,-1,0
1523626549699,-720896,94,-56,-1,-1,0
1523626549739,-720896,94,-56,-1,-1,0
1523626549739,-589824,94,-56,-1,-1,0
1523626549739,-458752,94,-56,-1,-1,0
1523626549739,-327680,94,-56,-1,-1,0
1523626549739,-196608,94,-56,-1,-1,0
1523626549779,65536,94,-56,-1,-1,0
1523626549779,327680,94,-56,-1,-1,0
1523626549779,458752,94,-56,-1,-1,0
1523626549779,524288,94,-56,-1,-1,0
1523626549779,655360,94,-56,-1,-1,0
1523626549819,786432,94,-56,-1,-1,0
1523626549819,851968,94,-56,-1,-1,0
1523626549819,655360,94,-56,-1,-1,0
1523626549819,327680,94,-56,-1,-1,0
1523626549819,65536,94,-56,-1,-1,0
1523626549859,-196608,94,-56,-1,-1,0
1523626549859,-393216,94,-56,-1,-1,0
1523626549859,-393216,94,-56,-1,-1,0
1523626549859,-458752,94,-56,-1,-1,0
1523626549859,-524288,94,-56,-1,-1,0
1523626549899,-458752,94,-56,-1,-1,0
1523626549899,-327680,94,-56,-1,-1,0
1523626549899,-327680,94,-56,-1,-1,0
1523626549899,-327680,94,-56,-1,-1,0
1523626549899,-196608,94,-56,-1,-1,0
1523626549939,-196608,94,-56,-1,-1,0
1523626549939,-262144,94,-56,-1,-1,0
1523626549939,-262144,94,-56,-1,-1,0
1523626549939,-196608,94,-56,-1,-1,0
1523626549939,-131072,94,-56,-1,-1,0
1523626549979,-196608,94,-56,-1,-1,0
1523626549979,-196608,94,-56,-1,-1,0
1523626549979,-196608,94,-56,-1,-1,0
1523626549979,-131072,94,-56,-1,-1,0
1523626549979,-131072,94,-56,-1,-1,0
1523626550021,-196608,94,-56,-1,-1,0
1523626550021,-262144,94,-56,-1,-1,0
1523626550021,-327680,94,-56,-1,-1,0
1523626550021,-458752,94,-56,-1,-1,0
1523626550021,-458752,94,-56,-1,-1,0
1523626550059,-458752,94,-56,-1,-1,0
1523626550059,-458752,94,-56,-1,-1,0
1523626550059,-524288,94,-56,-1,-1,0
1523626550059,-589824,94,-56,-1,-1,0
1523626550059,-589824,94,-56,-1,-1,0
1523626550099,-524288,94,-56,-1,-1,0
1523626550099,-458752,94,-56,-1,-1,0
1523626550099,-524288,94,-56,-1,-1,0
1523626550099,-458752,94,-56,-1,-1,0
1523626550099,-196608,94,-56,-1,-1,0
1523626550139,0,94,-56,-1,-1,0
1523626550139,-65536,94,-56,-1,-1,0
1523626550139,-196608,94,-56,-1,-1,0
1523626550139,-393216,94,-56,-1,-1,0
1523626550139,-589824,94,-56,-1,-1,0
1523626550179,-655360,93,-56,-1,-1,0
1523626550179,-720896,93,-56,-1,-1,0
1523626550179,-655360,93,-56,-1,-1,0
1523626550179,-524288,93,-56,-1,-1,0
1523626550179,-524288,93,-56,-1,-1,0
1523626550219,-589824,93,-56,-1,-1,0
1523626550219,-589824,93,-56,-1,-1,0
1523626550219,-589824,93,-56,-1,-1,0
1523626550219,65536,93,-56,-1,-1,0
1523626550219,2359296,93,-56,-1,-1,0
1523626550260,5963776,93,-56,-1,-1,0
1523626550260,8716288,93,-56,-1,-1,0
1523626550260,6881280,93,-56,-1,-1,0
1523626550260,2424832,93,-56,-1,-1,0
1523626550260,-458752,93,-56,-1,-1,0
1523626550299,-589824,93,-56,-1,-1,0
1523626550299,-458752,93,-56,-1,-1,0
1523626550299,-458752,93,-56,-1,-1,0
1523626550299,-458752,93,-56,-1,-1,0
1523626550299,-524288,93,-56,-1,-1,0
1523626550339,-393216,93,-56,-1,-1,0
1523626550339,-393216,93,-56,-1,-1,0
1523626550339,-458752,93,-56,-1,-1,0
1523626550339,-458752,93,-56,-1,-1,0
1523626550339,-393216,93,-56,-1,-1,0
1523626550379,-393216,93,-56,-1,-1,0
1523626550379,-393216,93,-56,-1,-1,0
1523626550379,-262144,93,-56,-1,-1,0
1523626550379,-131072,93,-56,-1,-1,0
1523626550379,-65536,93,-56,-1,-1,0
1523626550419,0,93,-56,-1,-1,0
1523626550419,65536,93,-56,-1,-1,0
1523626550419,262144,93,-56,-1,-1,0
1523626550419,458752,93,-56,-1,-1,0
1523626550419,589824,93,-56,-1,-1,0
1523626550460,720896,93,-56,-1,-1,0
1523626550460,983040,93,-56,-1,-1,0
1523626550460,1114112,93,-56,-1,-1,0
1523626550460,1179648,93,-56,-1,-1,0
1523626550460,1245184,93,-56,-1,-1,0
1523626550499,1245184,93,-56,-1,-1,0
1523626550499,1179648,93,-56,-1,-1,0
1523626550499,983040,93,-56,-1,-1,0
1523626550499,720896,93,-56,-1,-1,0
1523626550499,458752,93,-56,-1,-1,0
1523626550540,196608,93,-56,-1,-1,0
1523626550540,0,93,-56,-1,-1,0
1523626550540,65536,93,-56,-1,-1,0
1523626550540,65536,93,-56,-1,-1,0
1523626550540,0,93,-56,-1,-1,0
1523626550580,-65536,93,-56,-1,-1,0
1523626550580,-65536,93,-56,-1,-1,0
1523626550580,-65536,93,-56,-1,-1,0
1523626550580,-196608,93,-56,-1,-1,0
1523626550580,-393216,93,-56,-1,-1,0
1523626550619,-327680,93,-56,-1,-1,0
1523626550619,0,93,-56,-1,-1,0
1523626550619,65536,93,-56,-1,-1,0
1523626550619,0,93,-56,-1,-1,0
1523626550619,-131072,93,-56,-1,-1,0
1523626550661,-262144,93,-56,-1,-1,0
1523626550661,-327680,93,-56,-1,-1,0
1523626550661,-196608,93,-56,-1,-1,0
1523626550661,-131072,93,-56,-1,-1,0
1523626550661,-262144,93,-56,-1,-1,0
1523626550700,-458752,93,-56,-1,-1,0
1523626550700,-458752,93,-56,-1,-1,0
1523626550700,-458752,93,-56,-1,-1,0
1523626550700,-589824,93,-56,-1,-1,0
1523626550700,-720896,93,-56,-1,-1,0
1523626550740,-720896,93,-56,-1,-1,0
1523626550740,-589824,93,-56,-1,-1,0
1523626550740,-589824,93,-56,-1,-1,0
1523626550740,-589824,93,-56,-1,-1,0
1523626550740,-589824,93,-56,-1,-1,0
1523626550780,-458752,93,-56,-1,-1,0
1523626550780,-393216,93,-56,-1,-1,0
1523626550780,-393216,93,-56,-1,-1,0
1523626550780,-458752,93,-56,-1,-1,0
1523626550780,-589824,93,-56,-1,-1,0
1523626550820,-786432,93,-56,-1,-1,0
1523626550820,-917504,93,-56,-1,-1,0
1523626550820,-917504,93,-56,-1,-1,0
1523626550820,-917504,93,-56,-1,-1,0
1523626550820,-851968,93,-56,-1,-1,0
1523626550860,-917504,93,-56,-1,-1,0
1523626550860,-851968,93,-56,-1,-1,0
1523626550860,-851968,93,-56,-1,-1,0
1523626550860,-983040,93,-56,-1,-1,0
1523626550860,-983040,93,-56,-1,-1,0
1523626550899,-65536,93,-56,-1,-1,0
1523626550899,2490368,93,-56,-1,-1,0
1523626550899,6094848,93,-56,-1,-1,0
1523626550899,8126464,93,-56,-1,-1,0
1523626550899,5373952,93,-56,-1,-1,0
1523626550940,851968,93,-56,-1,-1,0
1523626550940,-1179648,93,-56,-1,-1,0
1523626550940,-983040,93,-56,-1,-1,0
1523626550940,-786432,93,-56,-1,-1,0
1523626550940,-917504,93,-56,-1,-1,0
1523626550980,-917504,93,-56,-1,-1,0
1523626550980,-983040,93,-56,-1,-1,0
1523626550980,-983040,93,-56,-1,-1,0
1523626550980,-983040,93,-56,-1,-1,0
1523626550980,-917504,93,-56,-1,-1,0
1523626551020,-851968,93,-56,-1,-1,0
1523626551020,-786432,93,-56,-1,-1,0
1523626551020,-786432,93,-56,-1,-1,0
1523626551020,-720896,93,-56,-1,-1,0
1523626551020,-655360,93,-56,-1,-1,0
1523626551060,-589824,93,-56,-1,-1,0
1523626551060,-524288,93,-56,-1,-1,0
1523626551060,-393216,93,-56,-1,-1,0
1523626551060,-262144,93,-56,-1,-1,0
1523626551060,0,93,-56,-1,-1,0
1523626551100,327680,93,-56,-1,-1,0
1523626551100,524288,93,-56,-1,-1,0
1523626551100,589824,93,-56,-1,-1,0
1523626551100,786432,93,-56,-1,-1,0
1523626551100,983040,93,-56,-1,-1,0
1523626551140,1048576,93,-56,-1,-1,0
1523626551140,1114112,93,-56,-1,-1,0
1523626551140,983040,93,-56,-1,-1,0
1523626551140,786432,93,-56,-1,-1,0
1523626551140,589824,93,-56,-1,-1,0
1523626551180,524288,93,-56,-1,-1,0
1523626551180,262144,93,-56,-1,-1,0
1523626551180,196608,93,-56,-1,-1,0
1523626551180,131072,93,-56,-1,-1,0
1523626551180,0,93,-56,-1,-1,0
1523626551220,-196608,93,-56,-1,-1,0
1523626551220,-262144,93,-56,-1,-1,0
1523626551220,-393216,93,-56,-1,-1,0
1523626551220,-458752,93,-56,-1,-1,0
1523626551220,-458752,93,-56,-1,-1,0
1523626551260,-393216,93,-56,-1,-1,0
1523626551260,-393216,93,-56,-1,-1,0
1523626551260,-327680,93,-56,-1,-1,0
1523626551260,-262144,93,-56,-1,-1,0
1523626551260,-327680,93,-56,-1,-1,0
1523626551301,-327680,93,-56,-1,-1,0
1523626551301,-262144,93,-56,-1,-1,0
1523626551301,-196608,93,-56,-1,-1,0
1523626551301,-393216,93,-56,-1,-1,0
1523626551301,-458752,93,-56,-1,-1,0
1523626551340,-458752,93,-56,-1,-1,0
1523626551340,-589824,93,-56,-1,-1,0
1523626551340,-524288,93,-56,-1,-1,0
1523626551340,-393216,93,-56,-1,-1,0
1523626551340,-393216,93,-56,-1,-1,0
1523626551380,-524288,93,-56,-1,-1,0
1523626551380,-589824,93,-56,-1,-1,0
1523626551380,-655360,93,-56,-1,-1,0
1523626551380,-786432,93,-56,-1,-1,0
1523626551380,-786432,93,-56,-1,-1,0
1523626551420,-655360,93,-56,-1,-1,0
1523626551420,-524288,93,-56,-1,-1,0
1523626551420,-393216,93,-56,-1,-1,0
1523626551420,-393216,93,-56,-1,-1,0
1523626551420,-327680,93,-56,-1,-1,0
1523626551460,-393216,93,-56,-1,-1,0
1523626551460,-589824,93,-56,-1,-1,0
1523626551460,-720896,93,-56,-1,-1,0
1523626551460,-720896,93,-56,-1,-1,0
1523626551460,-655360,93,-56,-1,-1,0
1523626551500,-589824,93,-56,-1,-1,0
1523626551500,-524288,93,-56,-1,-1,0
1523626551500,-589824,93,-56,-1,-1,0
1523626551500,-655360,93,-56,-1,-1,0
1523626551500,-655360,93,-56,-1,-1,0
1523626551540,-458752,93,-56,-1,-1,0
1523626551540,720896,93,-56,-1,-1,0
1523626551540,3801088,93,-56,-1,-1,0
1523626551540,7667712,93,-56,-1,-1,0
1523626551540,9109504,93,-56,-1,-1,0
1523626551580,5636096,93,-56,-1,-1,0
1523626551580,983040,93,-56,-1,-1,0
1523626551580,-655360,93,-56,-1,-1,0
1523626551580,-524288,93,-56,-1,-1,0
1523626551580,-458752,93,-56,-1,-1,0
1523626551620,-589824,93,-56,-1,-1,0
1523626551620,-589824,93,-56,-1,-1,0
1523626551620,-524288,93,-56,-1,-1,0
1523626551620,-458752,93,-56,-1,-1,0
1523626551620,-458752,93,-56,-1,-1,0
1523626551660,-458752,93,-56,-1,-1,0
1523626551660,-524288,93,-56,-1,-1,0
1523626551660,-393216,93,-56,-1,-1,0
1523626551660,-327680,93,-56,-1,-1,0
1523626551660,-262144,93,-56,-1,-1,0
1523626551700,-262144,93,-56,-1,-1,0
1523626551700,-196608,93,-56,-1,-1,0
1523626551700,-131072,93,-56,-1,-1,0
1523626551700,-65536,93,-56,-1,-1,0
1523626551700,-65536,93,-56,-1,-1,0
1523626551740,65536,93,-56,-1,-1,0
1523626551740,458752,93,-56,-1,-1,0
1523626551740,786432,93,-56,-1,-1,0
1523626551740,917504,93,-56,-1,-1,0
1523626551740,917504,93,-56,-1,-1,0
1523626551780,1048576,93,-56,-1,-1,0
1523626551780,1245184,93,-56,-1,-1,0
1523626551780,1245184,93,-56,-1,-1,0
1523626551780,1048576,93,-56,-1,-1,0
1523626551780,983040,93,-56,-1,-1,0
1523626551820,851968,93,-56,-1,-1,0
1523626551820,655360,93,-56,-1,-1,0
1523626551820,327680,93,-56,-1,-1,0
1523626551820,0,93,-56,-1,-1,0
1523626551820,-262144,93,-56,-1,-1,0
1523626551860,-327680,93,-56,-1,-1,0
1523626551860,-327680,93,-56,-1,-1,0
1523626551860,-262144,93,-56,-1,-1,0
1523626551860,-327680,93,-56,-1,-1,0
1523626551860,-393216,93,-56,-1,-1,0
1523626551900,-393216,93,-56,-1,-1,0
1523626551900,-327680,93,-56,-1,-1,0
1523626551900,-262144,93,-56,-1,-1,0
1523626551900,-262144,93,-56,-1,-1,0
1523626551900,-262144,93,-56,-1,-1,0
1523626551941,-262144,93,-56,-1,-1,0
1523626551941,-262144,93,-56,-1,-1,0
1523626551941,-327680,93,-56,-1,-1,0
1523626551941,-393216,93,-56,-1,-1,0
1523626551941,-589824,93,-56,-1,-1,0
1523626551980,-720896,93,-56,-1,-1,0
1523626551980,-655360,93,-56,-1,-1,0
1523626551980,-589824,93,-56,-1,-1,0
1523626551980,-589824,93,-56,-1,-1,0
1523626551980,-786432,93,-56,-1,-1,0
1523626552020,-851968,93,-56,-1,-1,0
1523626552020,-917504,93,-56,-1,-1,0
1523626552020,-917504,93,-56,-1,-1,0
1523626552020,-917504,93,-56,-1,-1,0
1523626552020,-917504,93,-56,-1,-1,0
1523626552060,-786432,93,-56,-1,-1,0
1523626552060,-720896,93,-56,-1,-1,0
1523626552060,-655360,93,-56,-1,-1,0
1523626552060,-524288,93,-56,-1,-1,0
1523626552060,-589824,93,-56,-1,-1,0
1523626552100,-720896,92,-56,-1,-1,0
1523626552100,-851968,92,-56,-1,-1,0
1523626552100,-1048576,92,-56,-1,-1,0
1523626552100,-1179648,92,-56,-1,-1,0
1523626552100,-1179648,92,-56,-1,-1,0
1523626552140,-1179648,92,-56,-1,-1,0
1523626552140,-1114112,92,-56,-1,-1,0
1523626552140,-1048576,92,-56,-1,-1,0
1523626552140,-983040,92,-56,-1,-1,0
1523626552140,-1048576,92,-56,-1,-1,0
1523626552180,-1048576,92,-56,-1,-1,0
1523626552180,-720896,92,-56,-1,-1,0
1523626552180,851968,92,-56,-1,-1,0
1523626552180,3997696,92,-56,-1,-1,0
1523626552180,7143424,92,-56,-1,-1,0
1523626552220,6881280,92,-56,-1,-1,0
1523626552220,3080192,92,-56,-1,-1,0
1523626552220,-327680,92,-56,-1,-1,0
1523626552220,-917504,92,-56,-1,-1,0
1523626552220,-655360,92,-56,-1,-1,0
1523626552260,-655360,92,-56,-1,-1,0
1523626552260,-786432,92,-56,-1,-1,0
1523626552260,-786432,92,-56,-1,-1,0
1523626552260,-917504,92,-56,-1,-1,0
1523626552260,-851968,92,-56,-1,-1,0
1523626552300,-589824,92,-56,-1,-1,0
1523626552300,-524288,92,-56,-1,-1,0
1523626552300,-720896,92,-56,-1,-1,0
1523626552300,-720896,92,-56,-1,-1,0
1523626552300,-720896,92,-56,-1,-1,0
1523626552340,-589824,92,-56,-1,-1,0
1523626552340,-524288,92,-56,-1,-1,0
1523626552340,-458752,92,-56,-1,-1,0
1523626552340,-524288,92,-56,-1,-1,0
1523626552340,-393216,92,-56,-1,-1,0
1523626552380,-196608,92,-56,-1,-1,0
1523626552380,0,92,-56,-1,-1,0
1523626552380,131072,92,-56,-1,-1,0
1523626552380,327680,92,-56,-1,-1,0
1523626552380,458752,92,-56,-1,-1,0
1523626552420,655360,92,-56,-1,-1,0
1523626552420,786432,92,-56,-1,-1,0
1523626552420,917504,92,-56,-1,-1,0
1523626552420,983040,92,-56,-1,-1,0
1523626552420,1048576,92,-56,-1,-1,0
1523626552460,851968,92,-56,-1,-1,0
1523626552460,589824,92,-56,-1,-1,0
1523626552460,327680,92,-56,-1,-1,0
1523626552460,196608,92,-56,-1,-1,0
1523626552460,131072,92,-56,-1,-1,0
1523626552500,0,92,-56,-1,-1,0
1523626552500,-131072,92,-56,-1,-1,0
1523626552500,-262144,92,-56,-1,-1,0
1523626552500,-262144,92,-56,-1,-1,0
1523626552500,-196608,92,-56,-1,-1,0
1523626552540,-131072,92,-56,-1,-1,0
1523626552540,-65536,92,-56,-1,-1,0
1523626552540,-65536,92,-56,-1,-1,0
1523626552540,-65536,92,-56,-1,-1,0
1523626552540,0,92,-56,-1,-1,0
1523626552581,65536,92,-56,-1,-1,0
1523626552581,0,92,-56,-1,-1,0
1523626552581,-65536,92,-56,-1,-1,0
1523626552581,0,92,-56,-1,-1,0
1523626552581,0,92,-56,-1,-1,0
1523626552620,-65536,92,-56,-1,-1,0
1523626552620,-196608,92,-56,-1,-1,0
1523626552620,-262144,92,-56,-1,-1,0
1523626552620,-262144,92,-56,-1,-1,0
1523626552620,-262144,92,-56,-1,-1,0
1523626552660,-262144,92,-56,-1,-1,0
1523626552660,-327680,92,-56,-1,-1,0
1523626552660,-393216,92,-56,-1,-1,0
1523626552660,-458752,92,-56,-1,-1,0
1523626552660,-393216,92,-56,-1,-1,0
1523626552700,-327680,92,-56,-1,-1,0
1523626552700,-196608,92,-56,-1,-1,0
1523626552700,-131072,92,-56,-1,-1,0
1523626552700,0,92,-56,-1,-1,0
1523626552700,0,92,-56,-1,-1,0
1523626552740,-131072,92,-56,-1,-1,0
1523626552740,-196608,92,-56,-1,-1,0
1523626552740,-196608,92,-56,-1,-1,0
1523626552740,-327680,92,-56,-1,-1,0
1523626552740,-458752,92,-56,-1,-1,0
1523626552780,-589824,92,-56,-1,-1,0
1523626552780,-589824,92,-56,-1,-1,0
1523626552780,-524288,92,-56,-1,-1,0
1523626552780,-458752,92,-56,-1,-1,0
1523626552780,-458752,92,-56,-1,-1,0
1523626552820,-589824,92,-56,-1,-1,0
1523626552820,-327680,92,-56,-1,-1,0
1523626552820,1114112,92,-56,-1,-1,0
1523626552820,4325376,92,-56,-1,-1,0
1523626552820,7733248,92,-56,-1,-1,0
1523626552860,7602176,92,-56,-1,-1,0
1523626552860,3604480,92,-56,-1,-1,0
1523626552860,-131072,92,-56,-1,-1,0
1523626552860,-851968,92,-56,-1,-1,0
1523626552860,-655360,92,-56,-1,-1,0
1523626552900,-655360,92,-56,-1,-1,0
1523626552900,-655360,92,-56,-1,-1,0
1523626552900,-655360,92,-56,-1,-1,0
1523626552900,-655360,92,-56,-1,-1,0
1523626552900,-655360,92,-56,-1,-1,0
1523626552940,-655360,92,-56,-1,-1,0
1523626552940,-720896,92,-56,-1,-1,0
1523626552940,-720896,92,-56,-1,-1,0
1523626552940,-655360,92,-56,-1,-1,0
1523626552940,-720896,92,-56,-1,-1,0
1523626552980,-655360,92,-56,-1,-1,0
1523626552980,-589824,92,-56,-1,-1,0
1523626552980,-458752,92,-56,-1,-1,0
1523626552980,-458752,92,-56,-1,-1,0
1523626552980,-393216,92,-56,-1,-1,0
1523626553020,-327680,92,-56,-1,-1,0
1523626553020,-196608,92,-56,-1,-1,0
1523626553020,0,92,-56,-1,-1,0
1523626553020,131072,92,-56,-1,-1,0
1523626553020,327680,92,-56,-1,-1,0
1523626553060,524288,92,-56,-1,-1,0
1523626553060,589824,92,-56,-1,-1,0
1523626553060,655360,92,-56,-1,-1,0
1523626553060,589824,92,-56,-1,-1,0
1523626553060,589824,92,-56,-1,-1,0
1523626553100,458752,92,-56,-1,-1,0
1523626553100,196608,92,-56,-1,-1,0
1523626553100,-65536,92,-56,-1,-1,0
1523626553100,-393216,92,-56,-1,-1,0
1523626553100,-458752,92,-56,-1,-1,0
1523626553140,-524288,92,-56,-1,-1,0
1523626553140,-655360,92,-56,-1,-1,0
1523626553140,-655360,92,-56,-1,-1,0
1523626553140,-589824,92,-56,-1,-1,0
1523626553140,-524288,92,-56,-1,-1,0
1523626553180,-589824,92,-56,-1,-1,0
1523626553180,-589824,92,-56,-1,-1,0
1523626553180,-589824,92,-56,-1,-1,0
1523626553180,-589824,92,-56,-1,-1,0
1523626553180,-524288,92,-56,-1,-1,0
1523626553221,-458752,92,-56,-1,-1,0
1523626553221,-393216,92,-56,-1,-1,0
1523626553221,-327680,92,-56,-1,-1,0
1523626553221,-327680,92,-56,-1,-1,0
1523626553221,-458752,92,-56,-1,-1,0
1523626553259,-524288,92,-56,-1,-1,0
1523626553259,-524288,92,-56,-1,-1,0
1523626553259,-524288,92,-56,-1,-1,0
1523626553259,-655360,92,-56,-1,-1,0
1523626553259,-720896,92,-56,-1,-1,0
1523626553299,-720896,92,-56,-1,-1,0
1523626553299,-655360,92,-56,-1,-1,0
1523626553299,-720896,92,-56,-1,-1,0
1523626553299,-655360,92,-56,-1,-1,0
1523626553299,-327680,92,-56,-1,-1,0
1523626553339,-131072,93,-56,-1,-1,0
1523626553339,-262144,93,-56,-1,-1,0
1523626553339,-458752,93,-56,-1,-1,0
1523626553339,-655360,93,-56,-1,-1,0
1523626553339,-786432,93,-56,-1,-1,0
1523626553379,-786432,93,-56,-1,-1,0
1523626553379,-786432,93,-56,-1,-1,0
1523626553379,-720896,93,-56,-1,-1,0
1523626553379,-720896,93,-56,-1,-1,0
1523626553379,-786432,93,-56,-1,-1,0
1523626553419,-917504,93,-56,-1,-1,0
1523626553419,-917504,93,-56,-1,-1,0
1523626553419,-720896,93,-56,-1,-1,0
1523626553419,589824,93,-56,-1,-1,0
1523626553419,3932160,93,-56,-1,-1,0
1523626553459,8388608,93,-56,-1,-1,0
1523626553459,10158080,93,-56,-1,-1,0
1523626553459,6291456,93,-56,-1,-1,0
1523626553459,1048576,93,-56,-1,-1,0
1523626553459,-851968,93,-56,-1,-1,0
1523626553499,-786432,93,-56,-1,-1,0
1523626553499,-786432,93,-56,-1,-1,0
1523626553499,-917504,93,-56,-1,-1,0
1523626553499,-851968,93,-56,-1,-1,0
1523626553499,-851968,93,-56,-1,-1,0
1523626553539,-851968,93,-56,-1,-1,0
1523626553539,-983040,93,-56,-1,-1,0
1523626553539,-917504,93,-56,-1,-1,0
1523626553539,-786432,93,-56,-1,-1,0
1523626553539,-589824,93,-56,-1,-1,0
1523626553579,-720896,93,-56,-1,-1,0
1523626553579,-720896,93,-56,-1,-1,0
1523626553579,-720896,93,-56,-1,-1,0
1523626553579,-524288,93,-56,-1,-1,0
1523626553579,-327680,93,-56,-1,-1,0
1523626553619,-131072,93,-56,-1,-1,0
1523626553619,0,93,-56,-1,-1,0
1523626553619,65536,93,-56,-1,-1,0
1523626553619,262144,93,-56,-1,-1,0
1523626553619,458752,93,-56,-1,-1,0
1523626553659,655360,93,-56,-1,-1,0
1523626553659,917504,93,-56,-1,-1,0
1523626553659,1114112,93,-56,-1,-1,0
1523626553659,1179648,93,-56,-1,-1,0
1523626553659,1245184,93,-56,-1,-1,0
1523626553699,1114112,93,-56,-1,-1,0
1523626553699,917504,93,-56,-1,-1,0
1523626553699,524288,93,-56,-1,-1,0
1523626553699,327680,93,-56,-1,-1,0
1523626553699,196608,93,-56,-1,-1,0
1523626553739,0,93,-56,-1,-1,0
1523626553739,-196608,93,-56,-1,-1,0
1523626553739,-327680,93,-56,-1,-1,0
1523626553739,-327680,93,-56,-1,-1,0
1523626553739,-262144,93,-56,-1,-1,0
1523626553779,-262144,93,-56,-1,-1,0
1523626553779,-327680,93,-56,-1,-1,0
1523626553779,-262144,93,-56,-1,-1,0
1523626553779,-65536,93,-56,-1,-1,0
1523626553779,-131072,93,-56,-1,-1,0
1523626553819,-196608,93,-56,-1,-1,0
1523626553819,-196608,93,-56,-1,-1,0
1523626553819,-65536,93,-56,-1,-1,0
1523626553819,-131072,93,-56,-1,-1,0
1523626553819,-196608,93,-56,-1,-1,0
1523626553861,-196608,93,-56,-1,-1,0
1523626553861,-262144,93,-56,-1,-1,0
1523626553861,-393216,93,-56,-1,-1,0
1523626553861,-458752,93,-56,-1,-1,0
1523626553861,-327680,93,-56,-1,-1,0
1523626553899,-458752,93,-56,-1,-1,0
1523626553899,-589824,93,-56,-1,-1,0
1523626553899,-458752,93,-56,-1,-1,0
1523626553899,-196608,93,-56,-1,-1,0
1523626553899,-262144,93,-56,-1,-1,0
1523626553939,-393216,93,-56,-1,-1,0
1523626553939,-393216,93,-56,-1,-1,0
1523626553939,-327680,93,-56,-1,-1,0
1523626553939,-393216,93,-56,-1,-1,0
1523626553939,-589824,93,-56,-1,-1,0
1523626553979,-655360,93,-56,-1,-1,0
1523626553979,-655360,93,-56,-1,-1,0
1523626553979,-720896,93,-56,-1,-1,0
1523626553979,-851968,93,-56,-1,-1,0
1523626553979,-917504,93,-56,-1,-1,0
1523626554019,-851968,93,-56,-1,-1,0
1523626554019,-851968,93,-56,-1,-1,0
1523626554019,-851968,93,-56,-1,-1,0
1523626554019,-720896,93,-56,-1,-1,0
1523626554019,458752,93,-56,-1,-1,0
1523626554059,3407872,93,-56,-1,-1,0
1523626554059,6881280,93,-56,-1,-1,0
1523626554059,7667712,93,-56,-1,-1,0
1523626554059,4063232,93,-56,-1,-1,0
1523626554059,0,93,-56,-1,-1,0
1523626554099,-1245184,93,-56,-1,-1,0
1523626554099,-1048576,93,-56,-1,-1,0
1523626554099,-1114112,93,-56,-1,-1,0
1523626554099,-1179648,93,-56,-1,-1,0
1523626554099,-1114112,93,-56,-1,-1,0
1523626554139,-983040,93,-56,-1,-1,0
1523626554139,-983040,93,-56,-1,-1,0
1523626554139,-1048576,93,-56,-1,-1,0
1523626554139,-1179648,93,-56,-1,-1,0
1523626554139,-1179648,93,-56,-1,-1,0
1523626554179,-1179648,93,-56,-1,-1,0
1523626554179,-1114112,93,-56,-1,-1,0
1523626554179,-917504,93,-56,-1,-1,0
1523626554179,-851968,93,-56,-1,-1,0
1523626554179,-720896,93,-56,-1,-1,0
1523626554219,-720896,93,-56,-1,-1,0
1523626554219,-655360,93,-56,-1,-1,0
1523626554219,-589824,93,-56,-1,-1,0
1523626554219,-327680,93,-56,-1,-1,0
1523626554219,-65536,93,-56,-1,-1,0
1523626554259,131072,93,-56,-1,-1,0
1523626554259,327680,93,-56,-1,-1,0
1523626554259,524288,93,-56,-1,-1,0
1523626554259,720896,93,-56,-1,-1,0
1523626554259,851968,93,-56,-1,-1,0
1523626554301,851968,93,-56,-1,-1,0
1523626554301,720896,93,-56,-1,-1,0
1523626554301,589824,93,-56,-1,-1,0
1523626554301,393216,93,-56,-1,-1,0
1523626554301,262144,93,-56,-1,-1,0
1523626554339,65536,93,-56,-1,-1,0
1523626554339,-131072,93,-56,-1,-1,0
1523626554339,-393216,93,-56,-1,-1,0
1523626554339,-393216,93,-56,-1,-1,0
1523626554339,-262144,93,-56,-1,-1,0
1523626554379,-262144,93,-56,-1,-1,0
1523626554379,-262144,93,-56,-1,-1,0
1523626554379,-131072,93,-56,-1,-1,0
1523626554379,-131072,93,-56,-1,-1,0
1523626554379,-131072,93,-56,-1,-1,0
1523626554419,-131072,93,-56,-1,-1,0
1523626554419,-131072,93,-56,-1,-1,0
1523626554419,-196608,93,-56,-1,-1,0
1523626554419,-262144,93,-56,-1,-1,0
1523626554419,-327680,93,-56,-1,-1,0
1523626554459,-327680,93,-56,-1,-1,0
1523626554459,-327680,93,-56,-1,-1,0
1523626554459,-393216,93,-56,-1,-1,0
1523626554459,-458752,93,-56,-1,-1,0
1523626554459,-524288,93,-56,-1,-1,0
1523626554501,-589824,93,-56,-1,-1,0
1523626554501,-589824,93,-56,-1,-1,0
1523626554501,-524288,93,-56,-1,-1,0
1523626554501,-393216,93,-56,-1,-1,0
1523626554501,-327680,93,-56,-1,-1,0
1523626554539,-327680,94,-56,-1,-1,0
1523626554539,-393216,94,-56,-1,-1,0
1523626554539,-458752,94,-56,-1,-1,0
1523626554539,-589824,94,-56,-1,-1,0
1523626554539,-720896,94,-56,-1,-1,0
1523626554579,-786432,94,-56,-1,-1,0
1523626554579,-917504,94,-56,-1,-1,0
1523626554579,-917504,94,-56,-1,-1,0
1523626554579,-786432,94,-56,-1,-1,0
1523626554579,-786432,94,-56,-1,-1,0
1523626554619,-851968,94,-56,-1,-1,0
1523626554619,-983040,94,-56,-1,-1,0
1523626554619,-917504,94,-56,-1,-1,0
1523626554619,-720896,94,-56,-1,-1,0
1523626554619,196608,94,-56,-1,-1,0
1523626554659,2752512,94,-56,-1,-1,0
1523626554659,6684672,94,-56,-1,-1,0
1523626554659,9109504,94,-56,-1,-1,0
1523626554659,6553600,94,-56,-1,-1,0
1523626554659,1703936,94,-56,-1,-1,0
1523626554699,-786432,94,-56,-1,-1,0
1523626554699,-786432,94,-56,-1,-1,0
1523626554699,-786432,94,-56,-1,-1,0
1523626554699,-917504,94,-56,-1,-1,0
1523626554699,-851968,94,-56,-1,-1,0
1523626554739,-720896,94,-56,-1,-1,0
1523626554739,-524288,94,-56,-1,-1,0
1523626554739,-589824,94,-56,-1,-1,0
1523626554739,-655360,94,-56,-1,-1,0
1523626554739,-655360,94,-56,-1,-1,0
1523626554779,-589824,94,-56,-1,-1,0
1523626554779,-589824,94,-56,-1,-1,0
1523626554779,-524288,94,-56,-1,-1,0
1523626554779,-589824,94,-56,-1,-1,0
1523626554779,-458752,94,-56,-1,-1,0
1523626554819,-327680,94,-56,-1,-1,0
1523626554819,-131072,94,-56,-1,-1,0
1523626554819,-131072,94,-56,-1,-1,0
1523626554819,0,94,-56,-1,-1,0
1523626554819,262144,94,-56,-1,-1,0
1523626554859,524288,94,-56,-1,-1,0
1523626554859,720896,94,-56,-1,-1,0
1523626554859,786432,94,-56,-1,-1,0
1523626554859,917504,94,-56,-1,-1,0
1523626554859,1048576,94,-56,-1,-1,0
1523626554899,1114112,94,-56,-1,-1,0
1523626554899,1114112,94,-56,-1,-1,0
1523626554899,983040,94,-56,-1,-1,0
1523626554899,655360,94,-56,-1,-1,0
1523626554899,327680,94,-56,-1,-1,0
1523626554939,65536,94,-56,-1,-1,0
1523626554939,0,94,-56,-1,-1,0
1523626554939,0,94,-56,-1,-1,0
1523626554939,-131072,94,-56,-1,-1,0
1523626554939,-262144,94,-56,-1,-1,0
1523626554979,-327680,94,-56,-1,-1,0
1523626554979,-327680,94,-56,-1,-1,0
1523626554979,-327680,94,-56,-1,-1,0
1523626554979,-196608,94,-56,-1,-1,0
1523626554979,-196608,94,-56,-1,-1,0
1523626555019,-196608,94,-56,-1,-1,0
1523626555019,-262144,94,-56,-1,-1,0
1523626555019,-327680,94,-56,-1,-1,0
1523626555019,-327680,94,-56,-1,-1,0
1523626555019,-196608,94,-56,-1,-1,0
1523626555059,-131072,94,-56,-1,-1,0
1523626555059,-262144,94,-56,-1,-1,0
1523626555059,-393216,94,-56,-1,-1,0
1523626555059,-458752,94,-56,-1,-1,0
1523626555059,-393216,94,-56,-1,-1,0
1523626555099,-458752,94,-56,-1,-1,0
1523626555099,-589824,94,-56,-1,-1,0
1523626555099,-655360,94,-56,-1,-1,0
1523626555099,-655360,94,-56,-1,-1,0
1523626555099,-524288,94,-56,-1,-1,0
1523626555141,-393216,94,-56,-1,-1,0
1523626555141,-327680,94,-56,-1,-1,0
1523626555141,-327680,94,-56,-1,-1,0
1523626555141,-458752,94,-56,-1,-1,0
1523626555141,-589824,94,-56,-1,-1,0
1523626555179,-851968,94,-56,-1,-1,0
1523626555179,-917504,94,-56,-1,-1,0
1523626555179,-917504,94,-56,-1,-1,0
1523626555179,-917504,94,-56,-1,-1,0
1523626555179,-917504,94,-56,-1,-1,0
1523626555219,-983040,94,-56,-1,-1,0
1523626555219,-1048576,94,-56,-1,-1,0
1523626555219,-1114112,94,-56,-1,-1,0
1523626555219,-1048576,94,-56,-1,-1,0
1523626555219,-1048576,94,-56,-1,-1,0
1523626555259,-262144,94,-56,-1,-1,0
1523626555259,1900544,94,-56,-1,-1,0
1523626555259,5242880,94,-56,-1,-1,0
1523626555259,7471104,94,-56,-1,-1,0
1523626555259,5242880,94,-56,-1,-1,0
1523626555299,1048576,94,-56,-1,-1,0
1523626555299,-1179648,94,-56,-1,-1,0
1523626555299,-1179648,94,-56,-1,-1,0
1523626555299,-1048576,94,-56,-1,-1,0
1523626555299,-1114112,94,-56,-1,-1,0
1523626555339,-1048576,94,-56,-1,-1,0
1523626555339,-917504,94,-56,-1,-1,0
1523626555339,-851968,94,-56,-1,-1,0
1523626555339,-1048576,94,-56,-1,-1,0
1523626555339,-1114112,94,-56,-1,-1,0
1523626555379,-1048576,94,-56,-1,-1,0
1523626555379,-786432,94,-56,-1,-1,0
1523626555379,-720896,94,-56,-1,-1,0
1523626555379,-720896,94,-56,-1,-1,0
1523626555379,-655360,94,-56,-1,-1,0
1523626555419,-589824,94,-56,-1,-1,0
1523626555419,-393216,94,-56,-1,-1,0
1523626555419,-327680,94,-56,-1,-1,0
1523626555419,-327680,94,-56,-1,-1,0
1523626555419,-196608,94,-56,-1,-1,0
1523626555459,65536,94,-56,-1,-1,0
1523626555459,458752,94,-56,-1,-1,0
1523626555459,655360,94,-56,-1,-1,0
1523626555459,655360,94,-56,-1,-1,0
1523626555459,655360,94,-56,-1,-1,0
1523626555499,786432,94,-56,-1,-1,0
1523626555499,1048576,94,-56,-1,-1,0
1523626555499,1114112,94,-56,-1,-1,0
1523626555499,917504,94,-56,-1,-1,0
1523626555499,720896,94,-56,-1,-1,0
1523626555539,458752,94,-56,-1,-1,0
1523626555539,196608,94,-56,-1,-1,0
1523626555539,0,94,-56,-1,-1,0
1523626555539,-131072,94,-56,-1,-1,0
1523626555539,-262144,94,-56,-1,-1,0
1523626555579,-327680,94,-56,-1,-1,0
1523626555579,-393216,94,-56,-1,-1,0
1523626555579,-393216,94,-56,-1,-1,0
1523626555579,-393216,94,-56,-1,-1,0
1523626555579,-327680,94,-56,-1,-1,0
1523626555619,-393216,94,-56,-1,-1,0
1523626555619,-393216,94,-56,-1,-1,0
1523626555619,-327680,94,-56,-1,-1,0
1523626555619,-327680,94,-56,-1,-1,0
1523626555619,-327680,94,-56,-1,-1,0
1523626555659,-327680,94,-56,-1,-1,0
1523626555659,-327680,94,-56,-1,-1,0
1523626555659,-327680,94,-56,-1,-1,0
1523626555659,-458752,94,-56,-1,-1,0
1523626555659,-524288,94,-56,-1,-1,0
1523626555699,-524288,94,-56,-1,-1,0
1523626555699,-524288,94,-56,-1,-1,0
1523626555699,-589824,94,-56,-1,-1,0
1523626555699,-589824,94,-56,-1,-1,0
1523626555699,-524288,94,-56,-1,-1,0
1523626555739,-458752,94,-56,-1,-1,0
1523626555739,-393216,94,-56,-1,-1,0
1523626555739,-327680,94,-56,-1,-1,0
1523626555739,-262144,94,-56,-1,-1,0
1523626555739,-262144,94,-56,-1,-1,0
1523626555781,-327680,94,-56,-1,-1,0
1523626555781,-524288,94,-56,-1,-1,0
1523626555781,-655360,94,-56,-1,-1,0
1523626555781,-655360,94,-56,-1,-1,0
1523626555781,-589824,94,-56,-1,-1,0
1523626555819,-524288,94,-56,-1,-1,0
1523626555819,-524288,94,-56,-1,-1,0
1523626555819,-524288,94,-56,-1,-1,0
1523626555819,-589824,94,-56,-1,-1,0
1523626555819,-720896,94,-56,-1,-1,0
1523626555859,-393216,94,-56,-1,-1,0
1523626555859,1310720,94,-56,-1,-1,0
1523626555859,4915200,94,-56,-1,-1,0
1523626555859,8847360,94,-56,-1,-1,0
1523626555859,8978432,94,-56,-1,-1,0
1523626555899,4587520,94,-56,-1,-1,0
1523626555899,196608,94,-56,-1,-1,0
1523626555899,-655360,94,-56,-1,-1,0
1523626555899,-458752,94,-56,-1,-1,0
1523626555899,-458752,94,-56,-1,-1,0
1523626555939,-589824,94,-56,-1,-1,0
1523626555939,-655360,94,-56,-1,-1,0
1523626555939,-655360,94,-56,-1,-1,0
1523626555939,-589824,94,-56,-1,-1,0
1523626555939,-655360,94,-56,-1,-1,0
1523626555979,-589824,94,-56,-1,-1,0
1523626555979,-393216,94,-56,-1,-1,0
1523626555979,-131072,94,-56,-1,-1,0
1523626555979,-262144,94,-56,-1,-1,0
1523626555979,-327680,94,-56,-1,-1,0
1523626556019,-393216,94,-56,-1,-1,0
1523626556019,-327680,94,-56,-1,-1,0
1523626556019,-327680,94,-56,-1,-1,0
1523626556019,-196608,94,-56,-1,-1,0
1523626556019,-131072,94,-56,-1,-1,0
1523626556059,0,94,-56,-1,-1,0
1523626556059,262144,94,-56,-1,-1,0
1523626556059,655360,94,-56,-1,-1,0
1523626556059,720896,94,-56,-1,-1,0
1523626556059,851968,94,-56,-1,-1,0
1523626556099,851968,94,-56,-1,-1,0
1523626556099,983040,94,-56,-1,-1,0
1523626556099,983040,94,-56,-1,-1,0
1523626556099,786432,94,-56,-1,-1,0
1523626556099,524288,94,-56,-1,-1,0
1523626556139,327680,94,-56,-1,-1,0
1523626556139,131072,94,-56,-1,-1,0
1523626556139,0,94,-56,-1,-1,0
1523626556139,-196608,94,-56,-1,-1,0
1523626556139,-262144,94,-56,-1,-1,0
1523626556179,-327680,94,-56,-1,-1,0
1523626556179,-327680,94,-56,-1,-1,0
1523626556179,-393216,94,-56,-1,-1,0
1523626556179,-458752,94,-56,-1,-1,0
1523626556179,-589824,94,-56,-1,-1,0
1523626556219,-524288,94,-56,-1,-1,0
1523626556219,-524288,94,-56,-1,-1,0
1523626556219,-458752,94,-56,-1,-1,0
1523626556219,-458752,94,-56,-1,-1,0
1523626556219,-393216,94,-56,-1,-1,0
1523626556259,-458752,94,-56,-1,-1,0
1523626556259,-524288,94,-56,-1,-1,0
1523626556259,-589824,94,-56,-1,-1,0
1523626556259,-655360,94,-56,-1,-1,0
1523626556259,-786432,94,-56,-1,-1,0
1523626556299,-786432,94,-56,-1,-1,0
1523626556299,-786432,94,-56,-1,-1,0
1523626556299,-786432,94,-56,-1,-1,0
1523626556299,-851968,94,-56,-1,-1,0
1523626556299,-851968,94,-56,-1,-1,0
1523626556339,-720896,94,-56,-1,-1,0
1523626556339,-655360,94,-56,-1,-1,0
1523626556339,-720896,94,-56,-1,-1,0
1523626556339,-786432,94,-56,-1,-1,0
1523626556339,-786432,94,-56,-1,-1,0
1523626556381,-786432,94,-56,-1,-1,0
1523626556381,-917504,94,-56,-1,-1,0
1523626556381,-851968,94,-56,-1,-1,0
1523626556381,-851968,94,-56,-1,-1,0
1523626556381,-917504,94,-56,-1,-1,0
1523626556422,-983040,94,-56,-1,-1,0
1523626556422,-983040,94,-56,-1,-1,0
1523626556422,-983040,94,-56,-1,-1,0
1523626556422,-983040,94,-56,-1,-1,0
1523626556422,-1048576,94,-56,-1,-1,0
1523626556459,-1048576,94,-56,-1,-1,0
1523626556459,-196608,94,-56,-1,-1,0
1523626556459,2031616,94,-56,-1,-1,0
1523626556459,5505024,94,-56,-1,-1,0
1523626556459,7733248,94,-56,-1,-1,0
1523626556499,5505024,94,-56,-1,-1,0
1523626556499,1179648,94,-56,-1,-1,0
1523626556499,-983040,94,-56,-1,-1,0
1523626556499,-851968,94,-56,-1,-1,0
1523626556499,-720896,94,-56,-1,-1,0
1523626556539,-786432,94,-56,-1,-1,0
1523626556539,-851968,94,-56,-1,-1,0
1523626556539,-917504,94,-56,-1,-1,0
1523626556539,-720896,94,-56,-1,-1,0
1523626556539,-720896,94,-56,-1,-1,0
1523626556579,-786432,94,-56,-1,-1,0
1523626556579,-917504,94,-56,-1,-1,0
1523626556579,-851968,94,-56,-1,-1,0
1523626556579,-786432,94,-56,-1,-1,0
1523626556579,-786432,94,-56,-1,-1,0
1523626556619,-851968,94,-56,-1,-1,0
1523626556619,-720896,94,-56,-1,-1,0
1523626556619,-589824,94,-56,-1,-1,0
1523626556619,-589824,94,-56,-1,-1,0
1523626556619,-524288,94,-56,-1,-1,0
1523626556659,-393216,94,-56,-1,-1,0
1523626556659,-131072,94,-56,-1,-1,0
1523626556659,0,94,-56,-1,-1,0
1523626556659,196608,94,-56,-1,-1,0
1523626556659,327680,94,-56,-1,-1,0
1523626556699,524288,94,-56,-1,-1,0
1523626556699,655360,94,-56,-1,-1,0
1523626556699,720896,94,-56,-1,-1,0
1523626556699,720896,94,-56,-1,-1,0
1523626556699,589824,94,-56,-1,-1,0
1523626556739,327680,94,-56,-1,-1,0
1523626556739,131072,94,-56,-1,-1,0
1523626556739,-65536,94,-56,-1,-1,0
1523626556739,-262144,94,-56,-1,-1,0
1523626556739,-262144,94,-56,-1,-1,0
1523626556779,-262144,94,-56,-1,-1,0
1523626556779,-327680,94,-56,-1,-1,0
1523626556779,-393216,94,-56,-1,-1,0
1523626556779,-393216,94,-56,-1,-1,0
1523626556779,-327680,94,-56,-1,-1,0
1523626556819,-393216,94,-56,-1,-1,0
1523626556819,-327680,94,-56,-1,-1,0
1523626556819,-262144,94,-56,-1,-1,0
1523626556819,-196608,94,-56,-1,-1,0
1523626556819,-196608,94,-56,-1,-1,0
1523626556859,-196608,94,-56,-1,-1,0
1523626556859,-131072,94,-56,-1,-1,0
1523626556859,-131072,94,-56,-1,-1,0
1523626556859,-131072,94,-56,-1,-1,0
1523626556859,-131072,94,-56,-1,-1,0
1523626556899,-196608,94,-56,-1,-1,0
1523626556899,-327680,94,-56,-1,-1,0
1523626556899,-393216,94,-56,-1,-1,0
1523626556899,-458752,94,-56,-1,-1,0
1523626556899,-589824,94,-56,-1,-1,0
1523626556939,-589824,94,-56,-1,-1,0
1523626556939,-524288,94,-56,-1,-1,0
1523626556939,-327680,94,-56,-1,-1,0
1523626556939,-131072,94,-56,-1,-1,0
