milliseconds, ECG, ECG HR, PPG, PPG HR, SpO2, PI
0,-4521984,79,-56,-1,-1,0
33,-720896,80,-56,-1,-1,0
66,-196608,80,-56,-1,-1,0
100,589824,80,-56,-1,-1,0
133,2621440,80,-56,-1,-1,0
166,4456448,80,-56,-1,-1,0
200,1507328,80,-56,-1,-1,0
233,-524288,80,-56,-1,-1,0
266,-851968,80,-56,-1,-1,0
300,-851968,80,-56,-1,-1,0
333,-851968,80,-56,-1,-1,0
366,-851968,80,-56,-1,-1,0
400,-917504,80,-56,-1,-1,0
433,-1048576,80,-56,-1,-1,0
466,-1114112,80,-56,-1,-1,0
500,-983040,80,-56,-1,-1,0
533,-1048576,80,-56,-1,-1,0
566,-983040,80,-56,-1,-1,0
600,-851968,80,-56,-1,-1,0
633,6488064,80,-56,-1,-1,0
666,-4653056,80,-56,-1,-1,0
700,-524288,80,-56,-1,-1,0
733,0,80,-56,-1,-1,0
766,720896,80,-56,-1,-1,0
800,2883584,80,-56,-1,-1,0
833,4849664,80,-56,-1,-1,0
866,1835008,80,-56,-1,-1,0
900,-327680,80,-56,-1,-1,0
933,-720896,80,-56,-1,-1,0
966,-720896,80,-56,-1,-1,0
1000,-720896,80,-56,-1,-1,0
1033,-655360,80,-56,-1,-1,0
1066,-851968,80,-56,-1,-1,0
1100,-851968,80,-56,-1,-1,0
1133,-1048576,80,-56,-1,-1,0
1166,-917504,80,-56,-1,-1,0
1200,-983040,80,-56,-1,-1,0
1233,-1114112,80,-56,-1,-1,0
1266,-983040,80,-56,-1,-1,0
1300,6881280,80,-56,-1,-1,0
1333,-4587520,80,-56,-1,-1,0
1366,-655360,80,-56,-1,-1,0
1400,-131072,80,-56,-1,-1,0
1433,589824,80,-56,-1,-1,0
1466,2752512,80,-56,-1,-1,0
1500,4718592,80,-56,-1,-1,0
1533,1769472,80,-56,-1,-1,0
1566,-458752,80,-56,-1,-1,0
1600,-786432,80,-56,-1,-1,0
1633,-786432,80,-56,-1,-1,0
1666,-786432,80,-56,-1,-1,0
1700,-786432,80,-56,-1,-1,0
1733,-851968,80,-56,-1,-1,0
1766,-917504,80,-56,-1,-1,0
1800,-983040,80,-56,-1,-1,0
1833,-1048576,80,-56,-1,-1,0
1866,-720896,80,-56,-1,-1,0
1900,-1048576,80,-56,-1,-1,0
1933,-1048576,80,-56,-1,-1,0
1966,-983040,80,-56,-1,-1,0
2000,7929856,80,-56,-1,-1,0
2033,-2949120,80,-56,-1,-1,0
2066,-393216,80,-56,-1,-1,0
2100,65536,80,-56,-1,-1,0
2133,1179648,80,-56,-1,-1,0
2166,3670016,80,-56,-1,-1,0
2200,4653056,80,-56,-1,-1,0
2233,1114112,80,-56,-1,-1,0
2266,-393216,80,-56,-1,-1,0
2300,-655360,80,-56,-1,-1,0
2333,-655360,80,-56,-1,-1,0
2366,-655360,80,-56,-1,-1,0
2400,-655360,80,-56,-1,-1,0
2433,-720896,80,-56,-1,-1,0
2466,-851968,80,-56,-1,-1,0
2500,-851968,80,-56,-1,-1,0
2533,-851968,80,-56,-1,-1,0
2566,-983040,80,-56,-1,-1,0
2600,-655360,80,-56,-1,-1,0
2633,-983040,80,-56,-1,-1,0
2666,-983040,80,-56,-1,-1,0
2700,-917504,80,-56,-1,-1,0
2733,8323072,80,-56,-1,-1,0
2766,-3604480,80,-56,-1,-1,0
2800,-458752,80,-56,-1,-1,0
2833,0,80,-56,-1,-1,0
2866,917504,80,-56,-1,-1,0
2900,3473408,80,-56,-1,-1,0
2933,4849664,80,-56,-1,-1,0
2966,1441792,80,-56,-1,-1,0
3000,-393216,80,-56,-1,-1,0
3033,-655360,80,-56,-1,-1,0
3066,-655360,80,-56,-1,-1,0
3100,-655360,80,-56,-1,-1,0
3133,-655360,80,-56,-1,-1,0
3166,-786432,80,-56,-1,-1,0
3200,-851968,80,-56,-1,-1,0
3233,-917504,80,-56,-1,-1,0
3266,-983040,80,-56,-1,-1,0
3300,-720896,80,-56,-1,-1,0
3333,-1048576,80,-56,-1,-1,0
3366,-983040,80,-56,-1,-1,0
3400,-786432,80,-56,-1,-1,0
3433,1769472,80,-56,-1,-1,0
3466,-1703936,80,-56,-1,-1,0
3500,-327680,80,-56,-1,-1,0
3533,131072,80,-56,-1,-1,0
3566,1441792,79,-56,-1,-1,0
3600,4128768,79,-56,-1,-1,0
3633,3866624,79,-56,-1,-1,0
3666,262144,79,-56,-1,-1,0
3699,-589824,79,-56,-1,-1,0
3733,-720896,79,-56,-1,-1,0
3766,-655360,79,-56,-1,-1,0
3800,-655360,79,-56,-1,-1,0
3833,-720896,79,-56,-1,-1,0
3866,-786432,79,-56,-1,-1,0
3900,-851968,79,-56,-1,-1,0
3933,-851968,79,-56,-1,-1,0
3966,-917504,79,-56,-1,-1,0
4000,-983040,79,-56,-1,-1,0
4033,-786432,79,-56,-1,-1,0
4066,-917504,79,-56,-1,-1,0
4100,-917504,79,-56,-1,-1,0
4133,-851968,79,-56,-1,-1,0
4166,6946816,79,-56,-1,-1,0
4200,-4456448,79,-56,-1,-1,0
4233,-524288,77,-56,-1,-1,0
4266,-65536,77,-56,-1,-1,0
4300,655360,77,-56,-1,-1,0
4333,2818048,77,-56,-1,-1,0
4366,4784128,77,-56,-1,-1,0
4400,2228224,77,-56,-1,-1,0
4433,-262144,77,-56,-1,-1,0
4466,-720896,77,-56,-1,-1,0
4500,-720896,77,-56,-1,-1,0
4533,-655360,77,-56,-1,-1,0
4566,-720896,77,-56,-1,-1,0
4600,-786432,77,-56,-1,-1,0
4633,-917504,77,-56,-1,-1,0
4666,-983040,77,-56,-1,-1,0
4700,-1048576,77,-56,-1,-1,0
4733,-851968,77,-56,-1,-1,0
4766,-1048576,77,-56,-1,-1,0
4800,-983040,77,-56,-1,-1,0
4833,-327680,77,-56,-1,-1,0
4866,-851968,75,-56,-1,-1,0
4900,-1376256,75,-56,-1,-1,0
4933,-327680,75,-56,-1,-1,0
4966,196608,75,-56,-1,-1,0
5000,1703936,75,-56,-1,-1,0
5033,4390912,75,-56,-1,-1,0
5066,3604480,75,-56,-1,-1,0
5100,131072,75,-56,-1,-1,0
5133,-655360,75,-56,-1,-1,0
5166,-786432,75,-56,-1,-1,0
5200,-720896,75,-56,-1,-1,0
5233,-720896,75,-56,-1,-1,0
5266,-851968,75,-56,-1,-1,0
5300,-983040,75,-56,-1,-1,0
5333,-1048576,75,-56,-1,-1,0
5366,-786432,75,-56,-1,-1,0
5400,-1114112,75,-56,-1,-1,0
5433,-1048576,75,-56,-1,-1,0
5466,-851968,75,-56,-1,-1,0
5500,1966080,75,-56,-1,-1,0
5533,-1966080,75,-56,-1,-1,0
5566,-393216,75,-56,-1,-1,0
5600,65536,75,-56,-1,-1,0
5633,1376256,75,-56,-1,-1,0
5666,4063232,75,-56,-1,-1,0
5700,3670016,75,-56,-1,-1,0
5733,131072,75,-56,-1,-1,0
5766,-655360,75,-56,-1,-1,0
5800,-655360,75,-56,-1,-1,0
5833,-655360,75,-56,-1,-1,0
5866,-655360,75,-56,-1,-1,0
5900,-720896,75,-56,-1,-1,0
5933,-917504,75,-56,-1,-1,0
5966,-720896,75,-56,-1,-1,0
6000,-851968,75,-56,-1,-1,0
6033,-851968,75,-56,-1,-1,0
6066,-851968,75,-56,-1,-1,0
6100,8257536,75,-56,-1,-1,0
6133,-3997696,75,-56,-1,-1,0
6166,-589824,75,-56,-1,-1,0
6200,-131072,75,-56,-1,-1,0
6233,720896,75,-56,-1,-1,0
6266,2949120,75,-56,-1,-1,0
6300,4194304,75,-56,-1,-1,0
6333,1179648,75,-56,-1,-1,0
6366,-655360,75,-56,-1,-1,0
6400,-786432,75,-56,-1,-1,0
6433,-720896,75,-56,-1,-1,0
6466,-655360,75,-56,-1,-1,0
6500,-655360,75,-56,-1,-1,0
6533,-851968,75,-56,-1,-1,0
6566,-524288,75,-56,-1,-1,0
6600,-917504,75,-56,-1,-1,0
6633,-983040,75,-56,-1,-1,0
6666,-1048576,75,-56,-1,-1,0
6700,3604480,75,-56,-1,-1,0
6733,-2359296,75,-56,-1,-1,0
6766,-524288,75,-56,-1,-1,0
6800,-131072,75,-56,-1,-1,0
6833,851968,75,-56,-1,-1,0
6866,3145728,75,-56,-1,-1,0
6899,3342336,75,-56,-1,-1,0
6933,131072,75,-56,-1,-1,0
6966,-786432,75,-56,-1,-1,0
7000,-917504,75,-56,-1,-1,0
7033,-786432,75,-56,-1,-1,0
7066,-851968,75,-56,-1,-1,0
7100,-917504,75,-56,-1,-1,0
7133,-786432,75,-56,-1,-1,0
7166,-1179648,75,-56,-1,-1,0
7200,-1179648,75,-56,-1,-1,0
7233,-1179648,75,-56,-1,-1,0
7266,6225920,75,-56,-1,-1,0
7300,-4784128,75,-56,-1,-1,0
7333,-983040,75,-56,-1,-1,0
7366,-458752,75,-56,-1,-1,0
7399,327680,75,-56,-1,-1,0
7433,2424832,75,-56,-1,-1,0
7466,3735552,75,-56,-1,-1,0
7500,1179648,75,-56,-1,-1,0
7533,-589824,75,-56,-1,-1,0
7566,-720896,75,-56,-1,-1,0
7600,-720896,75,-56,-1,-1,0
7633,-720896,75,-56,-1,-1,0
7666,-720896,75,-56,-1,-1,0
7700,-589824,75,-56,-1,-1,0
7733,-917504,75,-56,-1,-1,0
7766,-786432,75,-56,-1,-1,0
7800,-851968,75,-56,-1,-1,0
7833,6881280,75,-56,-1,-1,0
7866,-3538944,75,-56,-1,-1,0
7899,-655360,75,-56,-1,-1,0
7933,-131072,75,-56,-1,-1,0
7966,655360,75,-56,-1,-1,0
8000,2818048,75,-56,-1,-1,0
8033,3342336,75,-56,-1,-1,0
8066,327680,75,-56,-1,-1,0
8100,-786432,75,-56,-1,-1,0
8133,-917504,75,-56,-1,-1,0
8166,-786432,75,-56,-1,-1,0
8200,-786432,75,-56,-1,-1,0
8233,-720896,75,-56,-1,-1,0
8266,-786432,75,-56,-1,-1,0
8300,-1114112,75,-56,-1,-1,0
8333,-1179648,76,-56,-1,-1,0
8366,-524288,76,-56,-1,-1,0
8400,-327680,76,-56,-1,-1,0
8433,-1507328,76,-56,-1,-1,0
8466,-589824,76,-56,-1,-1,0
8500,-65536,76,-56,-1,-1,0
8533,1245184,76,-56,-1,-1,0
8566,3670016,76,-56,-1,-1,0
8600,2686976,76,-56,-1,-1,0
8633,-262144,76,-56,-1,-1,0
8666,-1048576,76,-56,-1,-1,0
8700,-1114112,76,-56,-1,-1,0
8733,-1048576,76,-56,-1,-1,0
8766,-917504,76,-56,-1,-1,0
8800,-917504,76,-56,-1,-1,0
8833,-1179648,76,-56,-1,-1,0
8866,-1245184,76,-56,-1,-1,0
8900,-1310720,78,-56,-1,-1,0
8933,983040,78,-56,-1,-1,0
8966,-3473408,78,-56,-1,-1,0
9000,-1310720,78,-56,-1,-1,0
9033,-655360,78,-56,-1,-1,0
9066,0,78,-56,-1,-1,0
9100,1572864,78,-56,-1,-1,0
9133,3997696,78,-56,-1,-1,0
9166,2162688,78,-56,-1,-1,0
9200,-327680,78,-56,-1,-1,0
9233,-786432,78,-56,-1,-1,0
9266,-786432,78,-56,-1,-1,0
9300,-786432,78,-56,-1,-1,0
9333,-786432,78,-56,-1,-1,0
9366,-851968,78,-56,-1,-1,0
9400,-720896,78,-56,-1,-1,0
9433,-1048576,78,-56,-1,-1,0
9466,-917504,78,-56,-1,-1,0
9500,-983040,81,-56,-1,-1,0
9533,2752512,81,-56,-1,-1,0
9566,-1966080,81,-56,-1,-1,0
9600,-458752,81,-56,-1,-1,0
9633,-65536,81,-56,-1,-1,0
9666,1245184,81,-56,-1,-1,0
9700,3670016,81,-56,-1,-1,0
9733,3145728,81,-56,-1,-1,0
9766,0,81,-56,-1,-1,0
9800,-851968,81,-56,-1,-1,0
9833,-917504,81,-56,-1,-1,0
9866,-720896,81,-56,-1,-1,0
9900,-786432,81,-56,-1,-1,0
9933,-851968,81,-56,-1,-1,0
9966,-1048576,81,-56,-1,-1,0
10000,-786432,81,-56,-1,-1,0
10033,-983040,81,-56,-1,-1,0
10066,-1114112,81,-56,-1,-1,0
10100,-1114112,81,-56,-1,-1,0
10133,4915200,82,-56,-1,-1,0
10166,-1769472,82,-56,-1,-1,0
10200,-327680,82,-56,-1,-1,0
10233,65536,82,-56,-1,-1,0
10266,1310720,82,-56,-1,-1,0
10300,3932160,82,-56,-1,-1,0
10333,3670016,82,-56,-1,-1,0
10366,196608,82,-56,-1,-1,0
10400,-720896,82,-56,-1,-1,0
10433,-851968,82,-56,-1,-1,0
10466,-786432,82,-56,-1,-1,0
10500,-786432,82,-56,-1,-1,0
10533,-786432,82,-56,-1,-1,0
10566,-786432,82,-56,-1,-1,0
10600,-786432,82,-56,-1,-1,0
10633,-1048576,82,-56,-1,-1,0
10666,-983040,82,-56,-1,-1,0
10700,-1114112,82,-56,-1,-1,0
10733,5767168,83,-56,-1,-1,0
10766,-2228224,83,-56,-1,-1,0
10800,-524288,83,-56,-1,-1,0
10833,0,83,-56,-1,-1,0
10866,1048576,83,-56,-1,-1,0
10900,3407872,83,-56,-1,-1,0
10933,3604480,83,-56,-1,-1,0
10966,262144,83,-56,-1,-1,0
11000,-720896,83,-56,-1,-1,0
11033,-851968,83,-56,-1,-1,0
11066,-851968,83,-56,-1,-1,0
11100,-786432,83,-56,-1,-1,0
11133,-851968,83,-56,-1,-1,0
11166,-983040,83,-56,-1,-1,0
11200,-1048576,83,-56,-1,-1,0
11233,-786432,83,-56,-1,-1,0
11266,-1114112,83,-56,-1,-1,0
11300,-983040,83,-56,-1,-1,0
11333,-851968,83,-56,-1,-1,0
11366,1769472,83,-56,-1,-1,0
11400,-1900544,83,-56,-1,-1,0
11433,-393216,83,-56,-1,-1,0
11466,0,83,-56,-1,-1,0
11500,1245184,83,-56,-1,-1,0
11533,3801088,83,-56,-1,-1,0
11566,3407872,83,-56,-1,-1,0
11600,196608,83,-56,-1,-1,0
11633,-524288,83,-56,-1,-1,0
11666,-655360,83,-56,-1,-1,0
11700,-524288,83,-56,-1,-1,0
11733,-458752,83,-56,-1,-1,0
11766,-589824,83,-56,-1,-1,0
11800,-786432,83,-56,-1,-1,0
11833,-458752,83,-56,-1,-1,0
11866,-720896,83,-56,-1,-1,0
11900,-786432,83,-56,-1,-1,0
11933,-720896,83,-56,-1,-1,0
11966,8388608,84,-56,-1,-1,0
12000,-3932160,84,-56,-1,-1,0
12033,-458752,84,-56,-1,-1,0
12066,0,84,-56,-1,-1,0
12100,851968,84,-56,-1,-1,0
12133,3080192,84,-56,-1,-1,0
12166,4063232,84,-56,-1,-1,0
12200,983040,84,-56,-1,-1,0
12233,-655360,84,-56,-1,-1,0
12266,-851968,84,-56,-1,-1,0
12300,-786432,84,-56,-1,-1,0
12333,-786432,84,-56,-1,-1,0
12366,-851968,84,-56,-1,-1,0
12400,-917504,84,-56,-1,-1,0
12433,-917504,84,-56,-1,-1,0
12466,-983040,84,-56,-1,-1,0
12500,-983040,84,-56,-1,-1,0
12533,-983040,84,-56,-1,-1,0
12566,1507328,84,-56,-1,-1,0
12600,-3080192,84,-56,-1,-1,0
12633,-1048576,84,-56,-1,-1,0
12666,-393216,84,-56,-1,-1,0
12700,65536,84,-56,-1,-1,0
12733,1703936,84,-56,-1,-1,0
12766,3997696,84,-56,-1,-1,0
12800,2293760,84,-56,-1,-1,0
12833,-524288,84,-56,-1,-1,0
12866,-1048576,84,-56,-1,-1,0
12900,-1179648,84,-56,-1,-1,0
12933,-1114112,84,-56,-1,-1,0
12966,-1179648,84,-56,-1,-1,0
13000,-1245184,84,-56,-1,-1,0
13033,-1310720,84,-56,-1,-1,0
13066,-1179648,84,-56,-1,-1,0
13100,-1310720,84,-56,-1,-1,0
13133,-1310720,84,-56,-1,-1,0
13166,-786432,83,-56,-1,-1,0
13200,1441792,83,-56,-1,-1,0
13233,-1769472,83,-56,-1,-1,0
13266,-393216,83,-56,-1,-1,0
13299,131072,83,-56,-1,-1,0
13333,1507328,83,-56,-1,-1,0
13366,4194304,83,-56,-1,-1,0
13400,3604480,83,-56,-1,-1,0
13433,196608,83,-56,-1,-1,0
13466,-655360,83,-56,-1,-1,0
13500,-720896,83,-56,-1,-1,0
13533,-786432,83,-56,-1,-1,0
13566,-720896,83,-56,-1,-1,0
13600,-786432,83,-56,-1,-1,0
13633,-917504,83,-56,-1,-1,0
13666,-851968,83,-56,-1,-1,0
13700,-983040,83,-56,-1,-1,0
13733,-917504,83,-56,-1,-1,0
13766,-262144,83,-56,-1,-1,0
13799,-131072,84,-56,-1,-1,0
13833,-1376256,84,-56,-1,-1,0
13866,-327680,84,-56,-1,-1,0
13900,0,84,-56,-1,-1,0
13933,1507328,84,-56,-1,-1,0
13966,4063232,84,-56,-1,-1,0
14000,3080192,84,-56,-1,-1,0
14033,-196608,84,-56,-1,-1,0
14066,-917504,84,-56,-1,-1,0
14100,-983040,84,-56,-1,-1,0
14133,-917504,84,-56,-1,-1,0
14166,-851968,84,-56,-1,-1,0
14200,-983040,84,-56,-1,-1,0
14233,-1114112,84,-56,-1,-1,0
14266,-851968,84,-56,-1,-1,0
14299,-1048576,84,-56,-1,-1,0
14333,-1179648,84,-56,-1,-1,0
14366,-1048576,84,-56,-1,-1,0
14400,9306112,84,-56,-1,-1,0
14433,-3407872,84,-56,-1,-1,0
14466,-589824,84,-56,-1,-1,0
14500,-196608,84,-56,-1,-1,0
14533,851968,84,-56,-1,-1,0
14566,3211264,84,-56,-1,-1,0
14600,4259840,84,-56,-1,-1,0
14633,851968,84,-56,-1,-1,0
14666,-851968,84,-56,-1,-1,0
14700,-1048576,84,-56,-1,-1,0
14733,-1114112,84,-56,-1,-1,0
14766,-1179648,84,-56,-1,-1,0
14799,-1179648,84,-56,-1,-1,0
14833,-1310720,84,-56,-1,-1,0
14866,-1441792,84,-56,-1,-1,0
14900,-1376256,84,-56,-1,-1,0
14933,-1572864,84,-56,-1,-1,0
14966,-1572864,84,-56,-1,-1,0
15000,-983040,84,-56,-1,-1,0
15033,-655360,82,-56,-1,-1,0
15066,-1835008,82,-56,-1,-1,0
15100,-851968,82,-56,-1,-1,0
15133,-262144,82,-56,-1,-1,0
15166,1179648,82,-56,-1,-1,0
15200,3670016,82,-56,-1,-1,0
15233,2949120,82,-56,-1,-1,0
15266,-196608,82,-56,-1,-1,0
15299,-917504,82,-56,-1,-1,0
15333,-851968,82,-56,-1,-1,0
15366,-851968,82,-56,-1,-1,0
15400,-786432,82,-56,-1,-1,0
15433,-851968,82,-56,-1,-1,0
15466,-851968,82,-56,-1,-1,0
15500,-589824,82,-56,-1,-1,0
15533,-917504,82,-56,-1,-1,0
15566,-917504,82,-56,-1,-1,0
15600,-851968,82,-56,-1,-1,0
15633,7995392,82,-56,-1,-1,0
15666,-4587520,82,-56,-1,-1,0
15700,-589824,82,-56,-1,-1,0
15733,-65536,82,-56,-1,-1,0
15766,720896,82,-56,-1,-1,0
15799,2883584,82,-56,-1,-1,0
15833,4587520,82,-56,-1,-1,0
15866,1441792,82,-56,-1,-1,0
15900,-524288,82,-56,-1,-1,0
15933,-851968,82,-56,-1,-1,0
15966,-720896,82,-56,-1,-1,0
16000,-655360,82,-56,-1,-1,0
16033,-786432,82,-56,-1,-1,0
16066,-851968,82,-56,-1,-1,0
16100,-589824,82,-56,-1,-1,0
16133,-851968,82,-56,-1,-1,0
16166,-917504,82,-56,-1,-1,0
16200,-851968,82,-56,-1,-1,0
16233,7274496,82,-56,-1,-1,0
16266,-4456448,82,-56,-1,-1,0
16300,-458752,82,-56,-1,-1,0
16333,0,82,-56,-1,-1,0
16366,786432,82,-56,-1,-1,0
16400,2949120,82,-56,-1,-1,0
16433,4653056,82,-56,-1,-1,0
16466,1835008,82,-56,-1,-1,0
16500,-393216,82,-56,-1,-1,0
16533,-655360,82,-56,-1,-1,0
16566,-655360,82,-56,-1,-1,0
16600,-655360,82,-56,-1,-1,0
16633,-720896,82,-56,-1,-1,0
16666,-851968,82,-56,-1,-1,0
16700,-917504,82,-56,-1,-1,0
16733,-983040,82,-56,-1,-1,0
16766,-1114112,82,-56,-1,-1,0
16800,-1048576,82,-56,-1,-1,0
16833,4718592,82,-56,-1,-1,0
16866,-4521984,82,-56,-1,-1,0
16900,-851968,82,-56,-1,-1,0
16933,-262144,82,-56,-1,-1,0
16966,327680,82,-56,-1,-1,0
17000,2293760,82,-56,-1,-1,0
17033,4259840,82,-56,-1,-1,0
17066,1900544,82,-56,-1,-1,0
17100,-524288,82,-56,-1,-1,0
17133,-917504,82,-56,-1,-1,0
17166,-851968,82,-56,-1,-1,0
17200,-851968,82,-56,-1,-1,0
17233,-851968,82,-56,-1,-1,0
17266,-1048576,82,-56,-1,-1,0
17300,-851968,82,-56,-1,-1,0
17333,-1114112,82,-56,-1,-1,0
17366,-1179648,82,-56,-1,-1,0
17400,-1179648,82,-56,-1,-1,0
17433,7864320,82,-56,-1,-1,0
17466,-4259840,82,-56,-1,-1,0
17500,-720896,82,-56,-1,-1,0
17533,-327680,82,-56,-1,-1,0
17566,524288,82,-56,-1,-1,0
17600,2752512,82,-56,-1,-1,0
17633,4128768,82,-56,-1,-1,0
17666,1114112,82,-56,-1,-1,0
17700,-655360,82,-56,-1,-1,0
17733,-851968,82,-56,-1,-1,0
17766,-786432,82,-56,-1,-1,0
17800,-786432,82,-56,-1,-1,0
17833,-851968,82,-56,-1,-1,0
17866,-917504,82,-56,-1,-1,0
17900,-655360,82,-56,-1,-1,0
17933,-1048576,82,-56,-1,-1,0
17966,-1114112,82,-56,-1,-1,0
18000,-983040,82,-56,-1,-1,0
18033,8388608,82,-56,-1,-1,0
18066,-3735552,82,-56,-1,-1,0
18100,-589824,82,-56,-1,-1,0
18133,-65536,82,-56,-1,-1,0
18166,917504,82,-56,-1,-1,0
18200,3342336,82,-56,-1,-1,0
18233,4259840,82,-56,-1,-1,0
18266,917504,82,-56,-1,-1,0
18300,-589824,82,-56,-1,-1,0
18333,-786432,82,-56,-1,-1,0
18366,-720896,82,-56,-1,-1,0
18400,-720896,82,-56,-1,-1,0
18433,-851968,82,-56,-1,-1,0
18466,-851968,82,-56,-1,-1,0
18500,-917504,82,-56,-1,-1,0
18533,-1114112,82,-56,-1,-1,0
18566,-1048576,82,-56,-1,-1,0
18600,2818048,82,-56,-1,-1,0
18633,-4456448,82,-56,-1,-1,0
18666,-983040,82,-56,-1,-1,0
18700,-393216,82,-56,-1,-1,0
18733,196608,82,-56,-1,-1,0
18766,1966080,82,-56,-1,-1,0
18800,4128768,82,-56,-1,-1,0
18833,1900544,82,-56,-1,-1,0
18866,-524288,82,-56,-1,-1,0
18900,-917504,82,-56,-1,-1,0
18933,-851968,82,-56,-1,-1,0
18966,-917504,82,-56,-1,-1,0
19000,-851968,82,-56,-1,-1,0
19033,-983040,82,-56,-1,-1,0
19066,-851968,82,-56,-1,-1,0
19100,-1114112,82,-56,-1,-1,0
19133,-1179648,82,-56,-1,-1,0
19166,-1179648,82,-56,-1,-1,0
19200,7143424,82,-56,-1,-1,0
19233,-2424832,82,-56,-1,-1,0
19266,-655360,82,-56,-1,-1,0
19300,-65536,82,-56,-1,-1,0
19333,983040,82,-56,-1,-1,0
19366,3538944,82,-56,-1,-1,0
19400,3670016,82,-56,-1,-1,0
19433,393216,82,-56,-1,-1,0
19466,-720896,82,-56,-1,-1,0
19500,-917504,82,-56,-1,-1,0
19533,-851968,82,-56,-1,-1,0
19566,-851968,82,-56,-1,-1,0
19600,-1048576,82,-56,-1,-1,0
19633,-786432,82,-56,-1,-1,0
19666,-1114112,82,-56,-1,-1,0
19700,-1179648,82,-56,-1,-1,0
19733,-1179648,83,-56,-1,-1,0
19766,7929856,83,-56,-1,-1,0
19800,-3866624,83,-56,-1,-1,0
19833,-851968,83,-56,-1,-1,0
19866,-327680,83,-56,-1,-1,0
19900,524288,83,-56,-1,-1,0
19933,2949120,83,-56,-1,-1,0
19966,3866624,83,-56,-1,-1,0
20000,720896,83,-56,-1,-1,0
20033,-851968,83,-56,-1,-1,0
20066,-983040,83,-56,-1,-1,0
20100,-1048576,83,-56,-1,-1,0
20133,-983040,83,-56,-1,-1,0
20166,-983040,83,-56,-1,-1,0
20200,-720896,83,-56,-1,-1,0
20233,-983040,83,-56,-1,-1,0
20266,-1114112,83,-56,-1,-1,0
20300,-917504,83,-56,-1,-1,0
20333,7471104,83,-56,-1,-1,0
20366,-3866624,83,-56,-1,-1,0
20400,-524288,83,-56,-1,-1,0
20433,0,83,-56,-1,-1,0
20466,720896,83,-56,-1,-1,0
20500,2818048,83,-56,-1,-1,0
20533,3866624,83,-56,-1,-1,0
20566,917504,83,-56,-1,-1,0
20600,-524288,83,-56,-1,-1,0
20633,-851968,83,-56,-1,-1,0
20666,-720896,83,-56,-1,-1,0
20700,-786432,83,-56,-1,-1,0
20733,-851968,83,-56,-1,-1,0
20766,-720896,83,-56,-1,-1,0
20800,-983040,83,-56,-1,-1,0
20833,-1179648,83,-56,-1,-1,0
20866,-983040,84,-56,-1,-1,0
20900,6946816,84,-56,-1,-1,0
20933,-3735552,84,-56,-1,-1,0
20966,-720896,84,-56,-1,-1,0
21000,-196608,84,-56,-1,-1,0
21033,720896,84,-56,-1,-1,0
21066,2752512,84,-56,-1,-1,0
21100,3407872,84,-56,-1,-1,0
21133,786432,84,-56,-1,-1,0
21166,-720896,84,-56,-1,-1,0
21200,-851968,84,-56,-1,-1,0
21233,-786432,84,-56,-1,-1,0
21266,-720896,84,-56,-1,-1,0
21300,-851968,84,-56,-1,-1,0
21333,-524288,84,-56,-1,-1,0
21366,-917504,84,-56,-1,-1,0
21400,-983040,84,-56,-1,-1,0
21433,-851968,84,-56,-1,-1,0
21466,5177344,84,-56,-1,-1,0
21500,-2621440,84,-56,-1,-1,0
21533,-589824,84,-56,-1,-1,0
21566,-65536,84,-56,-1,-1,0
21600,851968,84,-56,-1,-1,0
21633,2818048,84,-56,-1,-1,0
21666,3276800,84,-56,-1,-1,0
21700,262144,84,-56,-1,-1,0
21733,-786432,84,-56,-1,-1,0
21766,-589824,84,-56,-1,-1,0
21800,-589824,84,-56,-1,-1,0
21833,-720896,84,-56,-1,-1,0
21866,-786432,84,-56,-1,-1,0
21900,-589824,84,-56,-1,-1,0
21933,-1048576,84,-56,-1,-1,0
21966,-983040,85,-56,-1,-1,0
22000,131072,85,-56,-1,-1,0
22033,-2162688,85,-56,-1,-1,0
22066,-1114112,85,-56,-1,-1,0
22100,-327680,85,-56,-1,-1,0
22133,65536,85,-56,-1,-1,0
22166,1245184,85,-56,-1,-1,0
22200,3211264,85,-56,-1,-1,0
22233,2293760,85,-56,-1,-1,0
22266,-131072,85,-56,-1,-1,0
22300,-655360,85,-56,-1,-1,0
22333,-720896,85,-56,-1,-1,0
22366,-589824,85,-56,-1,-1,0
22400,-720896,85,-56,-1,-1,0
22433,-393216,85,-56,-1,-1,0
22466,-720896,85,-56,-1,-1,0
22500,-983040,86,-56,-1,-1,0
22533,-851968,86,-56,-1,-1,0
22566,5963776,86,-56,-1,-1,0
22600,-3342336,86,-56,-1,-1,0
22633,-720896,86,-56,-1,-1,0
22666,-262144,86,-56,-1,-1,0
22700,458752,86,-56,-1,-1,0
22733,2359296,86,-56,-1,-1,0
22766,2883584,86,-56,-1,-1,0
22800,196608,86,-56,-1,-1,0
22833,-1048576,86,-56,-1,-1,0
22866,-983040,86,-56,-1,-1,0
22900,-917504,86,-56,-1,-1,0
22933,-851968,86,-56,-1,-1,0
22966,-655360,86,-56,-1,-1,0
23000,-917504,86,-56,-1,-1,0
23033,-917504,86,-56,-1,-1,0
23066,-917504,86,-56,-1,-1,0
23100,7274496,86,-56,-1,-1,0
23133,-4063232,86,-56,-1,-1,0
23166,-393216,86,-56,-1,-1,0
23200,262144,86,-56,-1,-1,0
23233,1245184,86,-56,-1,-1,0
23266,3604480,86,-56,-1,-1,0
23300,4325376,86,-56,-1,-1,0
23333,1179648,86,-56,-1,-1,0
23366,-131072,86,-56,-1,-1,0
23400,-524288,86,-56,-1,-1,0
23433,-524288,86,-56,-1,-1,0
23466,-589824,86,-56,-1,-1,0
23500,-458752,86,-56,-1,-1,0
23533,-983040,86,-56,-1,-1,0
23566,-983040,87,-56,-1,-1,0
23600,-1179648,87,-56,-1,-1,0
23633,5177344,87,-56,-1,-1,0
23666,-2818048,87,-56,-1,-1,0
23700,-589824,87,-56,-1,-1,0
23733,0,87,-56,-1,-1,0
23766,655360,87,-56,-1,-1,0
23800,2555904,87,-56,-1,-1,0
23833,2490368,87,-56,-1,-1,0
23866,0,87,-56,-1,-1,0
23900,-786432,87,-56,-1,-1,0
23933,-983040,87,-56,-1,-1,0
23966,-917504,87,-56,-1,-1,0
24000,-983040,87,-56,-1,-1,0
24033,-65536,87,-56,-1,-1,0
24066,-983040,88,-56,-1,-1,0
24100,-917504,88,-56,-1,-1,0
24133,-1048576,88,-56,-1,-1,0
24166,3276800,88,-56,-1,-1,0
24200,-2162688,88,-56,-1,-1,0
24233,-589824,88,-56,-1,-1,0
24266,-196608,88,-56,-1,-1,0
24300,458752,88,-56,-1,-1,0
24333,2293760,88,-56,-1,-1,0
24366,2359296,88,-56,-1,-1,0
24400,-65536,88,-56,-1,-1,0
24433,-851968,88,-56,-1,-1,0
24466,-1048576,88,-56,-1,-1,0
24500,-917504,88,-56,-1,-1,0
24533,-720896,88,-56,-1,-1,0
24566,-786432,88,-56,-1,-1,0
24600,-1114112,89,-56,-1,-1,0
24633,-1114112,89,-56,-1,-1,0
24666,1638400,89,-56,-1,-1,0
24700,-3342336,89,-56,-1,-1,0
24733,-1048576,89,-56,-1,-1,0
24766,-327680,89,-56,-1,-1,0
24800,262144,89,-56,-1,-1,0
24833,2097152,89,-56,-1,-1,0
24866,3866624,89,-56,-1,-1,0
24900,1900544,89,-56,-1,-1,0
24933,-262144,89,-56,-1,-1,0
24966,-786432,89,-56,-1,-1,0
25000,-786432,89,-56,-1,-1,0
25033,-655360,89,-56,-1,-1,0
25066,-458752,89,-56,-1,-1,0
25100,-851968,89,-56,-1,-1,0
25133,-983040,89,-56,-1,-1,0
25166,-983040,89,-56,-1,-1,0
25200,7405568,89,-56,-1,-1,0
25233,-4259840,89,-56,-1,-1,0
25266,-524288,89,-56,-1,-1,0
25300,-196608,89,-56,-1,-1,0
25333,524288,89,-56,-1,-1,0
25366,2686976,89,-56,-1,-1,0
25400,3604480,89,-56,-1,-1,0
25433,458752,89,-56,-1,-1,0
25466,-851968,89,-56,-1,-1,0
25500,-1048576,89,-56,-1,-1,0
25533,-983040,89,-56,-1,-1,0
25566,-917504,89,-56,-1,-1,0
25600,-851968,89,-56,-1,-1,0
25633,-786432,89,-56,-1,-1,0
25666,-1048576,89,-56,-1,-1,0
25700,-1048576,89,-56,-1,-1,0
25733,-589824,89,-56,-1,-1,0
25766,0,89,-56,-1,-1,0
25800,-1507328,89,-56,-1,-1,0
25833,-262144,89,-56,-1,-1,0
25866,0,89,-56,-1,-1,0
25900,1572864,89,-56,-1,-1,0
25933,3997696,89,-56,-1,-1,0
25966,2752512,89,-56,-1,-1,0
26000,-196608,89,-56,-1,-1,0
26033,-786432,89,-56,-1,-1,0
26066,-851968,89,-56,-1,-1,0
26099,-917504,89,-56,-1,-1,0
26133,-851968,89,-56,-1,-1,0
26166,-983040,89,-56,-1,-1,0
26200,-983040,89,-56,-1,-1,0
26233,-1114112,89,-56,-1,-1,0
26266,-1114112,89,-56,-1,-1,0
26300,-1048576,89,-56,-1,-1,0
26333,2359296,89,-56,-1,-1,0
26366,-3866624,89,-56,-1,-1,0
26400,-983040,89,-56,-1,-1,0
26433,-262144,89,-56,-1,-1,0
26466,327680,90,-56,-1,-1,0
26500,2097152,90,-56,-1,-1,0
26533,4128768,90,-56,-1,-1,0
26566,2031616,90,-56,-1,-1,0
26599,-458752,90,-56,-1,-1,0
26633,-786432,90,-56,-1,-1,0
26666,-851968,90,-56,-1,-1,0
26700,-786432,90,-56,-1,-1,0
26733,-851968,90,-56,-1,-1,0
26766,-983040,90,-56,-1,-1,0
26800,-1114112,90,-56,-1,-1,0
26833,-1179648,90,-56,-1,-1,0
26866,-1114112,90,-56,-1,-1,0
26900,-1245184,90,-56,-1,-1,0
26933,-1179648,90,-56,-1,-1,0
26966,-1114112,90,-56,-1,-1,0
27000,-1310720,90,-56,-1,-1,0
27033,-1245184,90,-56,-1,-1,0
27066,5308416,90,-56,-1,-1,0
27099,-4718592,90,-56,-1,-1,0
27133,-983040,90,-56,-1,-1,0
27166,-327680,90,-56,-1,-1,0
27200,262144,90,-56,-1,-1,0
27233,2359296,90,-56,-1,-1,0
27266,4325376,90,-56,-1,-1,0
27300,1966080,90,-56,-1,-1,0
27333,-458752,90,-56,-1,-1,0
27366,-786432,90,-56,-1,-1,0
27400,-786432,90,-56,-1,-1,0
27433,-720896,90,-56,-1,-1,0
27466,-720896,90,-56,-1,-1,0
27500,-720896,90,-56,-1,-1,0
27533,-786432,90,-56,-1,-1,0
27566,-720896,90,-56,-1,-1,0
27599,-655360,90,-56,-1,-1,0
27633,-524288,90,-56,-1,-1,0
27666,-589824,90,-56,-1,-1,0
27700,-196608,90,-56,-1,-1,0
27733,-458752,90,-56,-1,-1,0
27766,-393216,90,-56,-1,-1,0
27800,-327680,90,-56,-1,-1,0
27833,5832704,90,-56,-1,-1,0
27866,-1376256,90,-56,-1,-1,0
27900,262144,90,-56,-1,-1,0
27933,720896,90,-56,-1,-1,0
27966,1900544,90,-56,-1,-1,0
28000,4456448,90,-56,-1,-1,0
28033,4521984,90,-56,-1,-1,0
28066,786432,90,-56,-1,-1,0
28099,-458752,90,-56,-1,-1,0
28133,-786432,90,-56,-1,-1,0
28166,-786432,90,-56,-1,-1,0
28200,-786432,90,-56,-1,-1,0
28233,-851968,90,-56,-1,-1,0
28266,-983040,90,-56,-1,-1,0
28300,-1048576,90,-56,-1,-1,0
28333,-1048576,90,-56,-1,-1,0
28366,-1114112,90,-56,-1,-1,0
28400,-786432,90,-56,-1,-1,0
28433,-1179648,90,-56,-1,-1,0
28466,-1179648,90,-56,-1,-1,0
28500,-1179648,90,-56,-1,-1,0
28533,7143424,90,-56,-1,-1,0
28566,-2228224,90,-56,-1,-1,0
28599,-327680,90,-56,-1,-1,0
28633,196608,90,-56,-1,-1,0
28666,1376256,90,-56,-1,-1,0
28700,4128768,90,-56,-1,-1,0
28733,4718592,90,-56,-1,-1,0
28766,917504,90,-56,-1,-1,0
28800,-458752,90,-56,-1,-1,0
28833,-720896,90,-56,-1,-1,0
28866,-851968,90,-56,-1,-1,0
28900,-655360,90,-56,-1,-1,0
28933,-786432,90,-56,-1,-1,0
28966,-917504,90,-56,-1,-1,0
29000,-1048576,90,-56,-1,-1,0
29033,-1048576,90,-56,-1,-1,0
29066,-1245184,90,-56,-1,-1,0
29099,-917504,90,-56,-1,-1,0
29133,-1245184,90,-56,-1,-1,0
29166,-1179648,90,-56,-1,-1,0
29200,0,90,-56,-1,-1,0
29233,-1507328,90,-56,-1,-1,0
29266,-1310720,90,-56,-1,-1,0
29300,-327680,90,-56,-1,-1,0
29333,196608,90,-56,-1,-1,0
29366,1769472,90,-56,-1,-1,0
29400,4521984,90,-56,-1,-1,0
29433,3670016,90,-56,-1,-1,0
29466,65536,90,-56,-1,-1,0
29500,-720896,90,-56,-1,-1,0
29533,-851968,90,-56,-1,-1,0
29566,-786432,90,-56,-1,-1,0
29599,-720896,90,-56,-1,-1,0
29633,-786432,90,-56,-1,-1,0
29666,-917504,90,-56,-1,-1,0
29700,-720896,90,-56,-1,-1,0
29733,-983040,90,-56,-1,-1,0
29766,-1114112,90,-56,-1,-1,0
29800,-917504,90,-56,-1,-1,0
29833,8323072,90,-56,-1,-1,0
29866,-4521984,88,-56,-1,-1,0
29900,-458752,88,-56,-1,-1,0
29933,0,88,-56,-1,-1,0
29966,786432,88,-56,-1,-1,0
30000,3080192,88,-56,-1,-1,0
30033,4849664,88,-56,-1,-1,0
30066,1638400,88,-56,-1,-1,0
30099,-524288,88,-56,-1,-1,0
30133,-786432,88,-56,-1,-1,0
30166,-851968,88,-56,-1,-1,0
30200,-786432,88,-56,-1,-1,0
30233,-786432,88,-56,-1,-1,0
30266,-851968,88,-56,-1,-1,0
30300,-917504,88,-56,-1,-1,0
30333,-786432,88,-56,-1,-1,0
30366,-983040,88,-56,-1,-1,0
30400,-1048576,88,-56,-1,-1,0
30433,-983040,88,-56,-1,-1,0
30466,8257536,85,-56,-1,-1,0
30500,-4259840,85,-56,-1,-1,0
30533,-851968,85,-56,-1,-1,0
30566,-393216,85,-56,-1,-1,0
30599,524288,85,-56,-1,-1,0
30633,2490368,85,-56,-1,-1,0
30666,3735552,85,-56,-1,-1,0
30700,983040,85,-56,-1,-1,0
30733,-720896,85,-56,-1,-1,0
30766,-983040,85,-56,-1,-1,0
30800,-917504,85,-56,-1,-1,0
30833,-983040,85,-56,-1,-1,0
30866,-1048576,85,-56,-1,-1,0
30900,-1114112,85,-56,-1,-1,0
30933,-1048576,85,-56,-1,-1,0
30966,-1179648,85,-56,-1,-1,0
31000,-1245184,85,-56,-1,-1,0
31033,-1245184,83,-56,-1,-1,0
31066,7274496,83,-56,-1,-1,0
31099,-4325376,83,-56,-1,-1,0
31133,-917504,83,-56,-1,-1,0
31166,-393216,83,-56,-1,-1,0
31200,327680,83,-56,-1,-1,0
31233,2424832,83,-56,-1,-1,0
31266,3801088,83,-56,-1,-1,0
31300,1114112,83,-56,-1,-1,0
31333,-720896,83,-56,-1,-1,0
31366,-1048576,83,-56,-1,-1,0
31400,-917504,83,-56,-1,-1,0
31433,-917504,83,-56,-1,-1,0
31466,-983040,83,-56,-1,-1,0
31500,-1048576,83,-56,-1,-1,0
31533,-851968,83,-56,-1,-1,0
31566,-1179648,83,-56,-1,-1,0
31599,-1179648,82,-56,-1,-1,0
31633,-720896,82,-56,-1,-1,0
31666,131072,82,-56,-1,-1,0
31700,-1638400,82,-56,-1,-1,0
31733,-393216,82,-56,-1,-1,0
31766,65536,82,-56,-1,-1,0
31800,1507328,82,-56,-1,-1,0
31833,4259840,82,-56,-1,-1,0
31866,3407872,82,-56,-1,-1,0
31900,65536,82,-56,-1,-1,0
31933,-720896,82,-56,-1,-1,0
31966,-720896,82,-56,-1,-1,0
32000,-720896,82,-56,-1,-1,0
32033,-720896,82,-56,-1,-1,0
32066,-655360,82,-56,-1,-1,0
32100,-720896,82,-56,-1,-1,0
32133,-851968,82,-56,-1,-1,0
32166,-786432,82,-56,-1,-1,0
32200,1572864,82,-56,-1,-1,0
32233,-3604480,82,-56,-1,-1,0
32266,-917504,82,-56,-1,-1,0
32299,0,82,-56,-1,-1,0
32333,524288,82,-56,-1,-1,0
32366,2228224,82,-56,-1,-1,0
32400,4456448,82,-56,-1,-1,0
32433,2490368,82,-56,-1,-1,0
32466,-262144,82,-56,-1,-1,0
32500,-720896,82,-56,-1,-1,0
32533,-720896,82,-56,-1,-1,0
32566,-720896,82,-56,-1,-1,0
32600,-917504,82,-56,-1,-1,0
32633,-786432,82,-56,-1,-1,0
32666,-1114112,82,-56,-1,-1,0
32700,-1179648,82,-56,-1,-1,0
32733,-1179648,82,-56,-1,-1,0
32766,7274496,82,-56,-1,-1,0
32800,-4718592,82,-56,-1,-1,0
32833,-1179648,82,-56,-1,-1,0
32866,-655360,82,-56,-1,-1,0
32900,131072,82,-56,-1,-1,0
32933,2228224,82,-56,-1,-1,0
32966,3735552,82,-56,-1,-1,0
33000,851968,82,-56,-1,-1,0
33033,-1048576,82,-56,-1,-1,0
33066,-1179648,82,-56,-1,-1,0
33100,-1114112,82,-56,-1,-1,0
33133,-983040,82,-56,-1,-1,0
33166,-983040,82,-56,-1,-1,0
33200,-786432,82,-56,-1,-1,0
33233,-1114112,82,-56,-1,-1,0
33266,-1179648,82,-56,-1,-1,0
33300,-1179648,82,-56,-1,-1,0
33333,3407872,82,-56,-1,-1,0
33366,-2162688,82,-56,-1,-1,0
33400,-524288,82,-56,-1,-1,0
33433,-65536,82,-56,-1,-1,0
33466,1245184,82,-56,-1,-1,0
33500,3801088,82,-56,-1,-1,0
33533,3342336,82,-56,-1,-1,0
33566,-131072,82,-56,-1,-1,0
33600,-851968,82,-56,-1,-1,0
33633,-851968,82,-56,-1,-1,0
33666,-851968,82,-56,-1,-1,0
33700,-786432,82,-56,-1,-1,0
33733,-851968,82,-56,-1,-1,0
33766,-589824,82,-56,-1,-1,0
33800,-917504,82,-56,-1,-1,0
33833,-917504,82,-56,-1,-1,0
33866,-983040,82,-56,-1,-1,0
33900,7405568,82,-56,-1,-1,0
33933,-2162688,82,-56,-1,-1,0
33966,-262144,82,-56,-1,-1,0
34000,196608,82,-56,-1,-1,0
34033,1376256,82,-56,-1,-1,0
34066,3801088,82,-56,-1,-1,0
34100,3932160,82,-56,-1,-1,0
34133,327680,82,-56,-1,-1,0
34166,-786432,82,-56,-1,-1,0
34200,-917504,82,-56,-1,-1,0
34233,-851968,82,-56,-1,-1,0
34266,-851968,82,-56,-1,-1,0
34300,-917504,82,-56,-1,-1,0
34333,-983040,82,-56,-1,-1,0
34366,-1048576,82,-56,-1,-1,0
34400,-1245184,82,-56,-1,-1,0
34433,-1245184,82,-56,-1,-1,0
34466,196608,82,-56,-1,-1,0
34500,-2752512,82,-56,-1,-1,0
34533,-1441792,82,-56,-1,-1,0
34566,-720896,82,-56,-1,-1,0
34600,-196608,82,-56,-1,-1,0
34633,1507328,82,-56,-1,-1,0
34666,3801088,82,-56,-1,-1,0
34700,2097152,82,-56,-1,-1,0
34733,-851968,82,-56,-1,-1,0
34766,-1376256,82,-56,-1,-1,0
34800,-1245184,82,-56,-1,-1,0
34833,-1310720,82,-56,-1,-1,0
34866,-1179648,82,-56,-1,-1,0
34900,-1376256,82,-56,-1,-1,0
34933,-1441792,82,-56,-1,-1,0
34966,-1245184,82,-56,-1,-1,0
35000,-1376256,82,-56,-1,-1,0
35033,-1376256,82,-56,-1,-1,0
35066,-1179648,82,-56,-1,-1,0
35100,8454144,82,-56,-1,-1,0
35133,-4259840,83,-56,-1,-1,0
35166,-720896,83,-56,-1,-1,0
35200,-196608,83,-56,-1,-1,0
35233,720896,83,-56,-1,-1,0
35266,3145728,83,-56,-1,-1,0
35300,4390912,83,-56,-1,-1,0
35333,1048576,83,-56,-1,-1,0
35366,-720896,83,-56,-1,-1,0
35400,-786432,83,-56,-1,-1,0
35433,-786432,83,-56,-1,-1,0
35466,-655360,83,-56,-1,-1,0
35500,-851968,83,-56,-1,-1,0
35533,-917504,83,-56,-1,-1,0
35566,-1114112,83,-56,-1,-1,0
35600,-851968,83,-56,-1,-1,0
35633,-1114112,83,-56,-1,-1,0
35666,-1114112,83,-56,-1,-1,0
35700,-1114112,83,-56,-1,-1,0
35733,6946816,83,-56,-1,-1,0
35766,-2883584,83,-56,-1,-1,0
35800,-458752,83,-56,-1,-1,0
35833,0,83,-56,-1,-1,0
35866,1245184,83,-56,-1,-1,0
35900,3735552,83,-56,-1,-1,0
35933,4194304,83,-56,-1,-1,0
35966,589824,83,-56,-1,-1,0
36000,-589824,83,-56,-1,-1,0
36033,-720896,83,-56,-1,-1,0
36066,-720896,83,-56,-1,-1,0
36100,-655360,83,-56,-1,-1,0
36133,-655360,83,-56,-1,-1,0
36166,-786432,83,-56,-1,-1,0
36200,-720896,83,-56,-1,-1,0
36233,-851968,83,-56,-1,-1,0
36266,-524288,83,-56,-1,-1,0
36300,-851968,83,-56,-1,-1,0
36333,-851968,83,-56,-1,-1,0
36366,-720896,83,-56,-1,-1,0
36400,3866624,83,-56,-1,-1,0
36433,-1245184,83,-56,-1,-1,0
36466,131072,83,-56,-1,-1,0
36500,720896,83,-56,-1,-1,0
36533,1835008,83,-56,-1,-1,0
36566,4521984,83,-56,-1,-1,0
36600,4259840,83,-56,-1,-1,0
36633,720896,83,-56,-1,-1,0
36666,-131072,83,-56,-1,-1,0
36700,-262144,83,-56,-1,-1,0
36733,-262144,83,-56,-1,-1,0
36766,-196608,83,-56,-1,-1,0
36800,-327680,83,-56,-1,-1,0
36833,-524288,83,-56,-1,-1,0
36866,-589824,83,-56,-1,-1,0
36900,-458752,83,-56,-1,-1,0
36933,-720896,83,-56,-1,-1,0
36966,-720896,83,-56,-1,-1,0
37000,-720896,83,-56,-1,-1,0
37033,8585216,83,-56,-1,-1,0
37066,-3735552,83,-56,-1,-1,0
37100,-458752,83,-56,-1,-1,0
37133,65536,83,-56,-1,-1,0
37166,851968,83,-56,-1,-1,0
37200,3014656,83,-56,-1,-1,0
37233,4259840,83,-56,-1,-1,0
37266,1114112,83,-56,-1,-1,0
37300,-720896,83,-56,-1,-1,0
37333,-1048576,83,-56,-1,-1,0
37366,-917504,83,-56,-1,-1,0
37400,-786432,83,-56,-1,-1,0
37433,-786432,83,-56,-1,-1,0
37466,-851968,83,-56,-1,-1,0
37500,-917504,83,-56,-1,-1,0
37533,-786432,83,-56,-1,-1,0
37566,-589824,83,-56,-1,-1,0
37600,-1114112,83,-56,-1,-1,0
37633,-983040,83,-56,-1,-1,0
37666,-1048576,83,-56,-1,-1,0
37700,2359296,82,-56,-1,-1,0
37733,-1638400,82,-56,-1,-1,0
37766,-458752,82,-56,-1,-1,0
37800,131072,82,-56,-1,-1,0
37833,1441792,82,-56,-1,-1,0
37866,3407872,82,-56,-1,-1,0
37900,3604480,82,-56,-1,-1,0
37933,262144,82,-56,-1,-1,0
37966,-524288,82,-56,-1,-1,0
38000,-393216,82,-56,-1,-1,0
38033,-524288,82,-56,-1,-1,0
38066,-786432,82,-56,-1,-1,0
38100,-983040,82,-56,-1,-1,0
38133,-1048576,82,-56,-1,-1,0
38166,-917504,82,-56,-1,-1,0
38200,-1376256,82,-56,-1,-1,0
38233,-1245184,82,-56,-1,-1,0
38266,-1048576,82,-56,-1,-1,0
38300,5898240,83,-56,-1,-1,0
38333,-3211264,83,-56,-1,-1,0
38366,-524288,83,-56,-1,-1,0
38400,-196608,83,-56,-1,-1,0
38433,786432,83,-56,-1,-1,0
38466,2752512,83,-56,-1,-1,0
38500,3342336,83,-56,-1,-1,0
38533,393216,83,-56,-1,-1,0
38566,-851968,83,-56,-1,-1,0
38600,-655360,83,-56,-1,-1,0
38633,-720896,83,-56,-1,-1,0
38666,-720896,83,-56,-1,-1,0
38700,-917504,83,-56,-1,-1,0
38733,-1048576,83,-56,-1,-1,0
38766,-720896,83,-56,-1,-1,0
38800,-983040,83,-56,-1,-1,0
38833,-983040,83,-56,-1,-1,0
38866,-983040,83,-56,-1,-1,0
38900,6488064,83,-56,-1,-1,0
38933,-2818048,83,-56,-1,-1,0
38966,-524288,83,-56,-1,-1,0
39000,-65536,83,-56,-1,-1,0
39033,720896,83,-56,-1,-1,0
39066,2818048,83,-56,-1,-1,0
39100,3211264,83,-56,-1,-1,0
39133,262144,83,-56,-1,-1,0
39166,-851968,83,-56,-1,-1,0
39200,-1048576,83,-56,-1,-1,0
39233,-983040,83,-56,-1,-1,0
39266,-917504,83,-56,-1,-1,0
39300,-1114112,83,-56,-1,-1,0
39333,-786432,83,-56,-1,-1,0
39366,-983040,83,-56,-1,-1,0
39400,-1114112,83,-56,-1,-1,0
39433,-1179648,83,-56,-1,-1,0
39466,7340032,83,-56,-1,-1,0
39500,-3801088,83,-56,-1,-1,0
39533,-655360,83,-56,-1,-1,0
39566,-196608,83,-56,-1,-1,0
39600,786432,83,-56,-1,-1,0
39633,3342336,83,-56,-1,-1,0
39666,4194304,83,-56,-1,-1,0
39700,720896,83,-56,-1,-1,0
39733,-720896,83,-56,-1,-1,0
39766,-786432,83,-56,-1,-1,0
39800,-720896,83,-56,-1,-1,0
39833,-720896,83,-56,-1,-1,0
39866,-786432,83,-56,-1,-1,0
39900,-720896,83,-56,-1,-1,0
39933,-983040,83,-56,-1,-1,0
39966,-917504,83,-56,-1,-1,0
40000,1835008,83,-56,-1,-1,0
40033,-3538944,83,-56,-1,-1,0
40066,-917504,83,-56,-1,-1,0
40100,-262144,83,-56,-1,-1,0
40133,262144,83,-56,-1,-1,0
40166,1900544,83,-56,-1,-1,0
40200,4194304,83,-56,-1,-1,0
40233,1966080,83,-56,-1,-1,0
40266,-786432,83,-56,-1,-1,0
40300,-1310720,83,-56,-1,-1,0
40333,-1310720,83,-56,-1,-1,0
40366,-1376256,83,-56,-1,-1,0
40400,-1572864,83,-56,-1,-1,0
40433,-1507328,83,-56,-1,-1,0
40466,-1769472,83,-56,-1,-1,0
40500,-1835008,83,-56,-1,-1,0
40533,-1900544,83,-56,-1,-1,0
40566,6160384,83,-56,-1,-1,0
40600,-2752512,83,-56,-1,-1,0
40633,-1048576,83,-56,-1,-1,0
40666,-458752,83,-56,-1,-1,0
40700,786432,83,-56,-1,-1,0
40733,3407872,83,-56,-1,-1,0
40766,3342336,83,-56,-1,-1,0
40800,-65536,83,-56,-1,-1,0
40833,-1114112,83,-56,-1,-1,0
40866,-1179648,83,-56,-1,-1,0
40900,-1048576,83,-56,-1,-1,0
40933,-917504,83,-56,-1,-1,0
40966,-1048576,83,-56,-1,-1,0
41000,-851968,83,-56,-1,-1,0
41033,-1245184,83,-56,-1,-1,0
41066,-1245184,83,-56,-1,-1,0
41100,0,83,-56,-1,-1,0
41133,-1769472,83,-56,-1,-1,0
41166,-1048576,83,-56,-1,-1,0
41200,-327680,83,-56,-1,-1,0
41233,262144,83,-56,-1,-1,0
41266,2031616,83,-56,-1,-1,0
41300,4456448,83,-56,-1,-1,0
41333,2621440,83,-56,-1,-1,0
41366,-393216,83,-56,-1,-1,0
41400,-917504,83,-56,-1,-1,0
41433,-983040,83,-56,-1,-1,0
41466,-1048576,83,-56,-1,-1,0
41500,-1114112,83,-56,-1,-1,0
41533,-1179648,83,-56,-1,-1,0
41566,-1245184,83,-56,-1,-1,0
41600,-1507328,83,-56,-1,-1,0
41633,-1441792,83,-56,-1,-1,0
41666,6553600,83,-56,-1,-1,0
41700,-4915200,83,-56,-1,-1,0
41733,-851968,83,-56,-1,-1,0
41766,-196608,83,-56,-1,-1,0
41800,720896,83,-56,-1,-1,0
41833,3014656,83,-56,-1,-1,0
41866,4456448,83,-56,-1,-1,0
41900,1310720,83,-56,-1,-1,0
41933,-524288,83,-56,-1,-1,0
41966,-786432,83,-56,-1,-1,0
42000,-917504,83,-56,-1,-1,0
42033,-720896,83,-56,-1,-1,0
42066,-786432,83,-56,-1,-1,0
42100,-917504,83,-56,-1,-1,0
42133,-720896,83,-56,-1,-1,0
42166,-786432,83,-56,-1,-1,0
42200,-851968,83,-56,-1,-1,0
42233,-786432,83,-56,-1,-1,0
42266,9437184,83,-56,-1,-1,0
42300,-3276800,83,-56,-1,-1,0
42333,-524288,83,-56,-1,-1,0
42366,0,83,-56,-1,-1,0
42400,786432,83,-56,-1,-1,0
42433,3211264,83,-56,-1,-1,0
42466,4128768,83,-56,-1,-1,0
42500,786432,83,-56,-1,-1,0
42533,-720896,83,-56,-1,-1,0
42566,-917504,83,-56,-1,-1,0
42600,-851968,83,-56,-1,-1,0
42633,-720896,83,-56,-1,-1,0
42666,-720896,83,-56,-1,-1,0
42700,-786432,83,-56,-1,-1,0
42733,-851968,83,-56,-1,-1,0
42766,-524288,83,-56,-1,-1,0
42800,-917504,83,-56,-1,-1,0
42833,-917504,83,-56,-1,-1,0
42866,-851968,83,-56,-1,-1,0
42900,1572864,83,-56,-1,-1,0
42933,-1441792,83,-56,-1,-1,0
42966,-327680,83,-56,-1,-1,0
43000,131072,83,-56,-1,-1,0
43033,1638400,83,-56,-1,-1,0
43066,4194304,83,-56,-1,-1,0
43100,3342336,83,-56,-1,-1,0
43133,-131072,83,-56,-1,-1,0
43166,-851968,83,-56,-1,-1,0
43200,-983040,83,-56,-1,-1,0
43233,-851968,83,-56,-1,-1,0
43266,-917504,83,-56,-1,-1,0
43300,-917504,83,-56,-1,-1,0
43333,-917504,83,-56,-1,-1,0
43366,-917504,83,-56,-1,-1,0
43400,-917504,83,-56,-1,-1,0
43433,-1114112,83,-56,-1,-1,0
43466,-983040,83,-56,-1,-1,0
43500,5046272,83,-56,-1,-1,0
43533,-5046272,83,-56,-1,-1,0
43566,-786432,83,-56,-1,-1,0
43600,-131072,83,-56,-1,-1,0
43633,589824,83,-56,-1,-1,0
43666,2621440,83,-56,-1,-1,0
43700,4456448,83,-56,-1,-1,0
43733,1769472,83,-56,-1,-1,0
43766,-393216,83,-56,-1,-1,0
43800,-655360,83,-56,-1,-1,0
43833,-720896,83,-56,-1,-1,0
43866,-720896,83,-56,-1,-1,0
43900,-851968,83,-56,-1,-1,0
43933,-1048576,83,-56,-1,-1,0
43966,-1179648,83,-56,-1,-1,0
44000,-1179648,83,-56,-1,-1,0
44033,-1310720,83,-56,-1,-1,0
44066,-1441792,83,-56,-1,-1,0
44100,-1376256,83,-56,-1,-1,0
44133,6619136,83,-56,-1,-1,0
44166,-4980736,83,-56,-1,-1,0
44200,-983040,83,-56,-1,-1,0
44233,-589824,83,-56,-1,-1,0
44266,196608,83,-56,-1,-1,0
44300,2424832,83,-56,-1,-1,0
44333,4194304,83,-56,-1,-1,0
44366,1245184,83,-56,-1,-1,0
44400,-917504,83,-56,-1,-1,0
44433,-1245184,83,-56,-1,-1,0
44466,-1245184,83,-56,-1,-1,0
44500,-1179648,83,-56,-1,-1,0
44533,-1114112,83,-56,-1,-1,0
44566,-1114112,83,-56,-1,-1,0
44600,-1114112,83,-56,-1,-1,0
44633,-1048576,83,-56,-1,-1,0
44666,-786432,83,-56,-1,-1,0
44700,-917504,83,-56,-1,-1,0
44733,-851968,83,-56,-1,-1,0
44766,2752512,83,-56,-1,-1,0
44800,-4128768,83,-56,-1,-1,0
44833,-720896,83,-56,-1,-1,0
44866,-65536,83,-56,-1,-1,0
44900,655360,83,-56,-1,-1,0
44933,2621440,83,-56,-1,-1,0
44966,4980736,83,-56,-1,-1,0
45000,2752512,83,-56,-1,-1,0
45033,-131072,83,-56,-1,-1,0
45066,-589824,83,-56,-1,-1,0
45100,-655360,83,-56,-1,-1,0
45133,-589824,83,-56,-1,-1,0
45166,-589824,83,-56,-1,-1,0
45200,-720896,83,-56,-1,-1,0
45233,-786432,83,-56,-1,-1,0
45266,-851968,83,-56,-1,-1,0
45300,-458752,83,-56,-1,-1,0
45333,-720896,83,-56,-1,-1,0
45366,-720896,83,-56,-1,-1,0
45400,-720896,83,-56,-1,-1,0
45433,3735552,83,-56,-1,-1,0
45466,-1507328,83,-56,-1,-1,0
45500,-131072,83,-56,-1,-1,0
45533,196608,83,-56,-1,-1,0
45566,1507328,83,-56,-1,-1,0
45600,3932160,83,-56,-1,-1,0
45633,3604480,83,-56,-1,-1,0
45666,65536,83,-56,-1,-1,0
45700,-983040,83,-56,-1,-1,0
45733,-1245184,83,-56,-1,-1,0
45766,-1179648,83,-56,-1,-1,0
45800,-1245184,83,-56,-1,-1,0
45833,-1376256,83,-56,-1,-1,0
45866,-1376256,83,-56,-1,-1,0
45900,-1441792,83,-56,-1,-1,0
45933,-1114112,83,-56,-1,-1,0
45966,-1376256,83,-56,-1,-1,0
46000,-1441792,83,-56,-1,-1,0
46033,-1507328,83,-56,-1,-1,0
46066,6488064,83,-56,-1,-1,0
46100,-3473408,83,-56,-1,-1,0
46133,-983040,83,-56,-1,-1,0
46166,-458752,83,-56,-1,-1,0
46200,655360,83,-56,-1,-1,0
46233,3080192,83,-56,-1,-1,0
46266,3801088,83,-56,-1,-1,0
46300,458752,83,-56,-1,-1,0
46333,-720896,83,-56,-1,-1,0
46366,-786432,83,-56,-1,-1,0
46400,-589824,83,-56,-1,-1,0
46433,-589824,83,-56,-1,-1,0
46466,-655360,83,-56,-1,-1,0
46500,-786432,83,-56,-1,-1,0
46533,-720896,83,-56,-1,-1,0
46566,-655360,83,-56,-1,-1,0
46600,-720896,83,-56,-1,-1,0
46633,-655360,83,-56,-1,-1,0
46666,5242880,82,-56,-1,-1,0
46700,-4587520,82,-56,-1,-1,0
46733,-589824,82,-56,-1,-1,0
46766,-65536,82,-56,-1,-1,0
46800,458752,82,-56,-1,-1,0
46833,2490368,82,-56,-1,-1,0
46866,4390912,82,-56,-1,-1,0
46900,1835008,82,-56,-1,-1,0
46933,-524288,82,-56,-1,-1,0
46966,-786432,82,-56,-1,-1,0
47000,-655360,82,-56,-1,-1,0
47033,-524288,82,-56,-1,-1,0
47066,-393216,82,-56,-1,-1,0
47100,-524288,82,-56,-1,-1,0
47133,-589824,82,-56,-1,-1,0
47166,-524288,82,-56,-1,-1,0
47200,-720896,82,-56,-1,-1,0
47233,-655360,82,-56,-1,-1,0
47266,2949120,81,-56,-1,-1,0
47300,-4063232,81,-56,-1,-1,0
47333,-786432,81,-56,-1,-1,0
47366,-262144,81,-56,-1,-1,0
47400,196608,81,-56,-1,-1,0
47433,2031616,81,-56,-1,-1,0
47466,4325376,81,-56,-1,-1,0
47500,2097152,81,-56,-1,-1,0
47533,-720896,81,-56,-1,-1,0
47566,-1114112,81,-56,-1,-1,0
47600,-1048576,81,-56,-1,-1,0
47633,-983040,81,-56,-1,-1,0
47666,-983040,81,-56,-1,-1,0
47700,-1114112,81,-56,-1,-1,0
47733,-983040,81,-56,-1,-1,0
47766,-1114112,81,-56,-1,-1,0
47800,-1310720,81,-56,-1,-1,0
47833,-1048576,81,-56,-1,-1,0
47866,6881280,81,-56,-1,-1,0
47900,-4521984,81,-56,-1,-1,0
47933,-524288,81,-56,-1,-1,0
47966,0,81,-56,-1,-1,0
48000,720896,81,-56,-1,-1,0
48033,3014656,81,-56,-1,-1,0
48066,4718592,81,-56,-1,-1,0
48100,1703936,81,-56,-1,-1,0
48133,-458752,81,-56,-1,-1,0
48166,-851968,81,-56,-1,-1,0
48200,-851968,81,-56,-1,-1,0
48233,-720896,81,-56,-1,-1,0
48266,-851968,81,-56,-1,-1,0
48300,-983040,81,-56,-1,-1,0
48333,-851968,81,-56,-1,-1,0
48366,-917504,81,-56,-1,-1,0
48400,-1048576,81,-56,-1,-1,0
48433,-917504,81,-56,-1,-1,0
48466,7340032,81,-56,-1,-1,0
48500,-4325376,81,-56,-1,-1,0
48533,-589824,81,-56,-1,-1,0
48566,-65536,81,-56,-1,-1,0
48600,720896,81,-56,-1,-1,0
48633,3014656,81,-56,-1,-1,0
48666,4653056,81,-56,-1,-1,0
48700,1638400,81,-56,-1,-1,0
48733,-458752,81,-56,-1,-1,0
48766,-720896,81,-56,-1,-1,0
48800,-589824,81,-56,-1,-1,0
48833,-524288,81,-56,-1,-1,0
48866,-655360,81,-56,-1,-1,0
48900,-786432,81,-56,-1,-1,0
48933,-851968,81,-56,-1,-1,0
48966,-917504,81,-56,-1,-1,0
49000,-983040,81,-56,-1,-1,0
49033,-983040,81,-56,-1,-1,0
49066,5832704,81,-56,-1,-1,0
49100,-4653056,81,-56,-1,-1,0
49133,-655360,81,-56,-1,-1,0
49166,-196608,81,-56,-1,-1,0
49200,589824,81,-56,-1,-1,0
49233,2818048,81,-56,-1,-1,0
49266,4521984,81,-56,-1,-1,0
49300,1638400,81,-56,-1,-1,0
49333,-589824,81,-56,-1,-1,0
49366,-983040,81,-56,-1,-1,0
49400,-1114112,81,-56,-1,-1,0
49433,-1114112,81,-56,-1,-1,0
49466,-1310720,81,-56,-1,-1,0
49500,-1441792,81,-56,-1,-1,0
49533,-1638400,81,-56,-1,-1,0
49566,-1441792,81,-56,-1,-1,0
49600,-1572864,81,-56,-1,-1,0
49633,-1638400,81,-56,-1,-1,0
49666,-327680,81,-56,-1,-1,0
49700,-3145728,81,-56,-1,-1,0
49733,-1703936,81,-56,-1,-1,0
49766,-983040,81,-56,-1,-1,0
49800,-393216,81,-56,-1,-1,0
49833,1179648,81,-56,-1,-1,0
49866,3407872,81,-56,-1,-1,0
49900,1966080,81,-56,-1,-1,0
49933,-851968,81,-56,-1,-1,0
49966,-1310720,81,-56,-1,-1,0
50000,-1310720,81,-56,-1,-1,0
