milliseconds, ECG, ECG HR, PPG, PPG HR, SpO2, PI,Landmark_0,Landmark_1,Landmark_2,Landmark_3,Landmark_4,Landmark_5,Landmark_6,Landmark_7,Landmark_8,Landmark_9,Landmark_10,Landmark_11,Landmark_12,Landmark_13,Landmark_14,Landmark_15,Landmark_16,Landmark_17,Landmark_18,Landmark_19,Landmark_20,Landmark_21,Landmark_22,Landmark_23,Landmark_24,Landmark_25,Landmark_26,Landmark_27,Landmark_28,Landmark_29,Landmark_30,Landmark_31,Landmark_32,Landmark_33,Landmark_34,Landmark_35,Landmark_36,Landmark_37,Landmark_38,Landmark_39,Landmark_40,Landmark_41,Landmark_42,Landmark_43,Landmark_44,Landmark_45,Landmark_46,Landmark_47,Landmark_48,Landmark_49,Landmark_50,Landmark_51,Landmark_52,Landmark_53,Landmark_54,Landmark_55,Landmark_56,Landmark_57,Landmark_58,Landmark_59,Landmark_60,Landmark_61,Landmark_62,Landmark_63,Landmark_64,Landmark_65,Landmark_66,Landmark_67,EyeAspectRatio,MouthAspectRatio,LightIntensity,FaceWidthRatio,EyebrowHeight,LipsWidthRatio,LipsHeightRatio,EyeOpening,NoseWidthRatio,NoseHeightRatio,AvgRedForehead,AvgGreenForehead,AvgBlueForehead,AvgRedLips,AvgGreenLips,AvgBlueLips,AvgRedCheeks,AvgGreenCheeks,AvgBlueCheeks
0,-4521984,79,-56,-1,-1,0,"(1122, 348)","(1121, 372)","(1123, 395)","(1125, 419)","(1132, 442)","(1143, 463)","(1158, 482)","(1177, 496)","(1200, 500)","(1222, 497)","(1242, 485)","(1259, 468)","(1271, 448)","(1279, 426)","(1284, 402)","(1287, 379)","(1289, 356)","(1136, 337)","(1146, 328)","(1162, 325)","(1177, 328)","(1192, 335)","(1218, 336)","(1234, 330)","(1250, 328)","(1266, 331)","(1276, 343)","(1205, 351)","(1204, 367)","(1203, 383)","(1202, 400)","(1185, 410)","(1193, 414)","(1202, 417)","(1211, 415)","(1219, 411)","(1153, 351)","(1162, 344)","(1174, 345)","(1183, 354)","(1172, 356)","(1160, 356)","(1226, 355)","(1237, 347)","(1249, 347)","(1257, 354)","(1249, 359)","(1237, 359)","(1171, 442)","(1182, 437)","(1193, 435)","(1201, 437)","(1209, 435)","(1221, 438)","(1232, 444)","(1221, 454)","(1210, 458)","(1201, 459)","(1192, 458)","(1182, 453)","(1176, 443)","(1193, 443)","(1201, 444)","(1209, 443)","(1227, 444)","(1209, 446)","(1201, 447)","(1193, 446)",0.38,0.88,29.0,0.36,0.04,0.36,0.02,-12.0,0.08,0.32,13.7,31.0,55.2,5.9,13.95,31.7,5.76,16.52,29.64
33,-720896,80,-56,-1,-1,0,"(1124, 342)","(1122, 363)","(1123, 384)","(1126, 405)","(1131, 427)","(1140, 448)","(1153, 466)","(1169, 481)","(1190, 486)","(1212, 484)","(1233, 474)","(1251, 458)","(1265, 439)","(1274, 416)","(1278, 393)","(1281, 370)","(1281, 346)","(1130, 327)","(1139, 320)","(1151, 320)","(1164, 324)","(1176, 331)","(1201, 330)","(1216, 324)","(1232, 322)","(1248, 325)","(1259, 334)","(1188, 347)","(1186, 361)","(1184, 376)","(1182, 392)","(1170, 400)","(1177, 405)","(1185, 408)","(1194, 406)","(1202, 402)","(1145, 345)","(1153, 339)","(1163, 340)","(1172, 348)","(1162, 350)","(1152, 350)","(1212, 349)","(1222, 342)","(1233, 342)","(1242, 348)","(1233, 353)","(1222, 353)","(1163, 430)","(1171, 426)","(1179, 424)","(1186, 427)","(1194, 425)","(1206, 427)","(1220, 432)","(1208, 442)","(1196, 446)","(1188, 447)","(1180, 446)","(1172, 441)","(1168, 431)","(1180, 431)","(1186, 432)","(1194, 432)","(1214, 433)","(1195, 436)","(1188, 436)","(1181, 435)",0.36,1.08,31.0,0.36,0.07,0.36,0.03,-11.0,0.08,0.32,16.3,32.1,56.8,6.95,16.8,36.4,5.41,16.47,27.11
66,-196608,80,-56,-1,-1,0,"(1124, 343)","(1122, 364)","(1123, 386)","(1126, 407)","(1132, 428)","(1141, 449)","(1154, 467)","(1170, 482)","(1191, 487)","(1213, 485)","(1234, 474)","(1252, 459)","(1265, 439)","(1274, 417)","(1278, 394)","(1280, 370)","(1281, 347)","(1129, 328)","(1138, 320)","(1151, 320)","(1164, 324)","(1176, 331)","(1201, 330)","(1216, 323)","(1232, 321)","(1248, 324)","(1259, 334)","(1189, 346)","(1187, 361)","(1185, 376)","(1183, 391)","(1171, 401)","(1178, 405)","(1186, 407)","(1195, 405)","(1203, 402)","(1145, 345)","(1153, 340)","(1163, 340)","(1172, 348)","(1162, 350)","(1152, 350)","(1212, 349)","(1222, 342)","(1233, 342)","(1242, 348)","(1234, 353)","(1223, 352)","(1164, 431)","(1172, 426)","(1180, 424)","(1187, 427)","(1195, 425)","(1207, 428)","(1221, 433)","(1209, 443)","(1197, 447)","(1189, 447)","(1182, 446)","(1173, 441)","(1169, 431)","(1181, 431)","(1187, 432)","(1195, 432)","(1215, 433)","(1196, 436)","(1189, 437)","(1182, 435)",0.35,1.08,31.0,0.36,0.06,0.36,0.03,-10.5,0.08,0.31,16.4,33.1,59.0,7.05,16.65,37.0,5.47,16.64,27.94
100,589824,80,-56,-1,-1,0,"(1124, 341)","(1123, 363)","(1124, 384)","(1126, 405)","(1132, 427)","(1141, 448)","(1154, 467)","(1170, 482)","(1191, 487)","(1213, 485)","(1234, 474)","(1251, 459)","(1265, 439)","(1274, 417)","(1278, 393)","(1281, 370)","(1281, 346)","(1130, 328)","(1138, 320)","(1151, 320)","(1164, 324)","(1177, 331)","(1202, 330)","(1216, 324)","(1232, 321)","(1248, 325)","(1260, 335)","(1189, 346)","(1187, 361)","(1185, 376)","(1184, 392)","(1171, 400)","(1178, 405)","(1186, 408)","(1195, 405)","(1203, 402)","(1145, 344)","(1153, 339)","(1164, 340)","(1173, 347)","(1163, 350)","(1152, 350)","(1213, 349)","(1222, 342)","(1233, 342)","(1242, 348)","(1234, 352)","(1223, 352)","(1164, 430)","(1171, 426)","(1180, 425)","(1187, 427)","(1195, 425)","(1208, 428)","(1221, 432)","(1209, 443)","(1198, 447)","(1189, 447)","(1182, 446)","(1172, 441)","(1169, 431)","(1181, 431)","(1188, 433)","(1196, 432)","(1216, 433)","(1197, 436)","(1189, 437)","(1182, 435)",0.34,1.1,31.0,0.36,0.07,0.36,0.02,-10.5,0.08,0.32,16.9,32.9,56.9,5.5,16.8,36.2,5.29,15.88,27.47
133,2621440,80,-56,-1,-1,0,"(1124, 341)","(1122, 362)","(1123, 383)","(1125, 405)","(1131, 427)","(1140, 448)","(1153, 466)","(1169, 481)","(1190, 487)","(1212, 485)","(1234, 474)","(1251, 459)","(1265, 439)","(1274, 417)","(1278, 394)","(1281, 370)","(1282, 346)","(1130, 327)","(1139, 320)","(1152, 320)","(1165, 324)","(1177, 331)","(1202, 330)","(1217, 324)","(1233, 322)","(1249, 325)","(1260, 335)","(1189, 346)","(1187, 361)","(1185, 376)","(1183, 392)","(1171, 401)","(1178, 405)","(1186, 408)","(1195, 406)","(1203, 403)","(1145, 344)","(1153, 339)","(1164, 340)","(1173, 347)","(1163, 350)","(1152, 349)","(1213, 349)","(1223, 342)","(1234, 343)","(1243, 349)","(1234, 353)","(1223, 353)","(1163, 430)","(1171, 426)","(1180, 425)","(1187, 427)","(1195, 425)","(1207, 428)","(1221, 432)","(1209, 442)","(1197, 446)","(1189, 447)","(1181, 445)","(1172, 440)","(1168, 430)","(1180, 432)","(1187, 433)","(1195, 432)","(1215, 433)","(1196, 436)","(1188, 436)","(1181, 435)",0.35,1.05,31.0,0.36,0.08,0.36,0.02,-11.0,0.08,0.32,16.1,32.2,55.8,6.0,16.1,36.15,5.35,16.29,27.05
166,4456448,80,-56,-1,-1,0,"(1131, 345)","(1129, 365)","(1129, 385)","(1132, 406)","(1137, 427)","(1145, 447)","(1156, 466)","(1171, 481)","(1191, 486)","(1213, 484)","(1235, 474)","(1255, 458)","(1270, 440)","(1281, 417)","(1285, 394)","(1288, 369)","(1288, 345)","(1133, 331)","(1141, 323)","(1153, 322)","(1165, 326)","(1177, 332)","(1202, 331)","(1217, 325)","(1233, 323)","(1250, 326)","(1262, 336)","(1188, 348)","(1186, 363)","(1184, 377)","(1182, 392)","(1171, 401)","(1177, 406)","(1185, 408)","(1194, 406)","(1203, 403)","(1148, 347)","(1155, 342)","(1165, 342)","(1174, 350)","(1164, 352)","(1154, 352)","(1213, 350)","(1223, 343)","(1234, 344)","(1243, 349)","(1234, 354)","(1223, 353)","(1164, 430)","(1171, 426)","(1180, 425)","(1186, 427)","(1194, 425)","(1207, 427)","(1221, 432)","(1208, 442)","(1196, 446)","(1188, 447)","(1180, 445)","(1172, 441)","(1169, 431)","(1180, 431)","(1186, 432)","(1194, 432)","(1215, 432)","(1195, 436)","(1187, 436)","(1180, 435)",0.33,1.12,31.0,0.35,0.05,0.36,0.03,-10.5,0.09,0.31,13.9,29.3,51.4,5.7,15.6,36.95,6.58,15.05,25.94
200,1507328,80,-56,-1,-1,0,"(1130, 343)","(1128, 364)","(1129, 384)","(1131, 405)","(1136, 426)","(1144, 446)","(1155, 465)","(1170, 480)","(1190, 486)","(1212, 484)","(1235, 473)","(1254, 458)","(1270, 439)","(1281, 417)","(1286, 393)","(1288, 369)","(1289, 344)","(1132, 330)","(1140, 322)","(1152, 322)","(1165, 325)","(1177, 332)","(1201, 332)","(1217, 325)","(1233, 323)","(1250, 326)","(1262, 335)","(1188, 348)","(1186, 363)","(1184, 377)","(1182, 393)","(1171, 401)","(1177, 406)","(1185, 409)","(1194, 406)","(1203, 403)","(1147, 346)","(1154, 341)","(1165, 342)","(1174, 349)","(1164, 352)","(1153, 351)","(1213, 350)","(1223, 344)","(1234, 344)","(1243, 350)","(1234, 354)","(1223, 354)","(1164, 430)","(1171, 427)","(1179, 425)","(1186, 427)","(1194, 426)","(1206, 428)","(1220, 432)","(1207, 442)","(1195, 446)","(1187, 446)","(1180, 445)","(1171, 440)","(1169, 431)","(1179, 432)","(1186, 433)","(1194, 432)","(1215, 433)","(1195, 436)","(1187, 436)","(1180, 435)",0.33,1.1,31.0,0.35,0.04,0.35,0.02,-10.5,0.09,0.32,14.5,31.6,55.7,6.25,15.85,36.1,5.0,14.64,23.82
233,-524288,80,-56,-1,-1,0,"(1122, 346)","(1121, 367)","(1122, 388)","(1124, 409)","(1130, 431)","(1139, 451)","(1153, 468)","(1169, 483)","(1190, 487)","(1212, 485)","(1233, 475)","(1252, 460)","(1266, 442)","(1275, 420)","(1279, 397)","(1282, 373)","(1284, 350)","(1131, 332)","(1140, 325)","(1152, 324)","(1165, 327)","(1178, 333)","(1201, 332)","(1215, 326)","(1231, 324)","(1247, 328)","(1259, 337)","(1189, 348)","(1187, 362)","(1185, 377)","(1183, 392)","(1171, 402)","(1178, 406)","(1186, 409)","(1195, 406)","(1203, 403)","(1146, 347)","(1154, 342)","(1164, 342)","(1173, 350)","(1163, 352)","(1153, 352)","(1213, 351)","(1222, 343)","(1233, 343)","(1241, 349)","(1233, 354)","(1222, 354)","(1165, 432)","(1172, 427)","(1180, 425)","(1187, 427)","(1195, 425)","(1207, 428)","(1220, 433)","(1208, 442)","(1197, 446)","(1189, 446)","(1181, 445)","(1173, 441)","(1169, 432)","(1181, 432)","(1187, 433)","(1195, 432)","(1215, 433)","(1196, 435)","(1188, 436)","(1182, 435)",0.39,1.08,31.0,0.34,0.05,0.33,0.02,-10.5,0.08,0.31,13.9,29.8,52.0,5.7,16.25,35.65,5.41,16.17,26.29
266,-851968,80,-56,-1,-1,0,"(1122, 346)","(1121, 367)","(1122, 388)","(1125, 409)","(1130, 430)","(1140, 450)","(1153, 468)","(1169, 483)","(1189, 488)","(1211, 486)","(1232, 476)","(1251, 461)","(1265, 443)","(1274, 421)","(1279, 398)","(1282, 374)","(1283, 351)","(1131, 332)","(1140, 324)","(1152, 324)","(1165, 327)","(1178, 333)","(1201, 332)","(1215, 326)","(1231, 324)","(1248, 328)","(1259, 338)","(1189, 348)","(1187, 362)","(1185, 377)","(1183, 393)","(1171, 402)","(1178, 406)","(1186, 409)","(1195, 406)","(1203, 403)","(1146, 347)","(1153, 341)","(1164, 342)","(1173, 350)","(1163, 352)","(1153, 352)","(1213, 351)","(1222, 343)","(1233, 344)","(1242, 350)","(1233, 354)","(1222, 354)","(1164, 432)","(1171, 427)","(1180, 425)","(1187, 427)","(1194, 426)","(1206, 428)","(1219, 433)","(1207, 442)","(1196, 446)","(1188, 446)","(1181, 445)","(1172, 441)","(1169, 432)","(1180, 432)","(1187, 433)","(1194, 432)","(1214, 434)","(1195, 436)","(1188, 436)","(1181, 435)",0.36,1.06,31.0,0.34,0.06,0.34,0.02,-11.0,0.08,0.32,14.9,30.6,53.9,6.95,16.7,36.75,5.41,16.41,27.94
300,-851968,80,-56,-1,-1,0,"(1127, 347)","(1126, 367)","(1128, 388)","(1130, 409)","(1136, 430)","(1144, 450)","(1156, 467)","(1170, 482)","(1190, 487)","(1212, 485)","(1234, 475)","(1254, 460)","(1269, 442)","(1279, 420)","(1284, 396)","(1287, 372)","(1289, 347)","(1131, 334)","(1139, 326)","(1152, 325)","(1165, 328)","(1177, 334)","(1200, 333)","(1216, 326)","(1232, 325)","(1249, 329)","(1262, 338)","(1188, 348)","(1186, 363)","(1184, 378)","(1182, 394)","(1170, 403)","(1177, 407)","(1185, 410)","(1194, 407)","(1203, 404)","(1146, 347)","(1153, 342)","(1164, 343)","(1173, 350)","(1163, 353)","(1153, 352)","(1213, 351)","(1222, 344)","(1233, 344)","(1243, 350)","(1234, 354)","(1222, 354)","(1164, 432)","(1171, 428)","(1179, 426)","(1186, 428)","(1194, 426)","(1206, 429)","(1220, 434)","(1207, 443)","(1195, 447)","(1187, 447)","(1179, 446)","(1171, 442)","(1168, 433)","(1179, 432)","(1186, 433)","(1194, 433)","(1214, 434)","(1195, 436)","(1187, 437)","(1180, 436)",0.33,1.09,31.0,0.35,0.04,0.34,0.02,-10.5,0.09,0.33,13.3,28.9,50.6,6.85,16.5,36.2,5.17,14.47,24.64
333,-851968,80,-56,-1,-1,0,"(1126, 346)","(1125, 367)","(1127, 388)","(1129, 409)","(1135, 430)","(1144, 450)","(1155, 468)","(1170, 483)","(1190, 488)","(1213, 485)","(1235, 475)","(1254, 460)","(1269, 441)","(1280, 420)","(1285, 396)","(1288, 372)","(1289, 347)","(1130, 334)","(1138, 326)","(1151, 325)","(1164, 328)","(1177, 334)","(1199, 333)","(1215, 327)","(1232, 325)","(1249, 329)","(1262, 338)","(1188, 348)","(1186, 363)","(1184, 378)","(1182, 394)","(1169, 402)","(1176, 407)","(1184, 410)","(1194, 407)","(1202, 404)","(1145, 347)","(1152, 342)","(1163, 343)","(1172, 350)","(1162, 353)","(1152, 352)","(1212, 351)","(1222, 344)","(1233, 344)","(1242, 350)","(1233, 354)","(1222, 354)","(1163, 432)","(1170, 428)","(1179, 426)","(1186, 428)","(1194, 426)","(1206, 429)","(1220, 433)","(1207, 443)","(1195, 447)","(1187, 447)","(1179, 446)","(1170, 442)","(1167, 433)","(1179, 433)","(1186, 434)","(1194, 433)","(1214, 434)","(1194, 436)","(1186, 437)","(1179, 436)",0.33,1.07,31.0,0.35,0.03,0.34,0.02,-10.5,0.08,0.32,12.2,28.6,51.5,6.1,15.7,36.45,5.0,14.35,23.29
366,-851968,80,-56,-1,-1,0,"(1126, 347)","(1125, 368)","(1127, 389)","(1129, 410)","(1134, 431)","(1143, 451)","(1155, 469)","(1170, 484)","(1190, 489)","(1213, 486)","(1235, 476)","(1254, 461)","(1269, 442)","(1280, 420)","(1285, 396)","(1288, 371)","(1289, 346)","(1130, 335)","(1138, 326)","(1150, 325)","(1163, 328)","(1176, 334)","(1199, 333)","(1215, 327)","(1232, 324)","(1249, 328)","(1262, 338)","(1187, 348)","(1185, 363)","(1183, 378)","(1181, 394)","(1170, 403)","(1176, 407)","(1184, 410)","(1193, 407)","(1202, 404)","(1145, 348)","(1152, 343)","(1163, 343)","(1172, 351)","(1162, 353)","(1152, 353)","(1212, 351)","(1222, 344)","(1233, 344)","(1242, 350)","(1234, 354)","(1222, 354)","(1163, 433)","(1170, 429)","(1179, 426)","(1186, 429)","(1194, 427)","(1206, 429)","(1220, 434)","(1207, 444)","(1195, 448)","(1187, 448)","(1179, 447)","(1171, 443)","(1168, 434)","(1179, 433)","(1186, 434)","(1194, 434)","(1214, 435)","(1194, 437)","(1186, 438)","(1179, 436)",0.33,1.07,31.0,0.35,0.02,0.34,0.02,-10.0,0.09,0.32,13.2,28.7,51.7,5.55,16.3,35.3,5.05,14.17,24.82
400,-917504,80,-56,-1,-1,0,"(1125, 348)","(1124, 369)","(1126, 390)","(1129, 411)","(1134, 432)","(1143, 452)","(1154, 470)","(1170, 485)","(1190, 489)","(1212, 487)","(1234, 477)","(1254, 462)","(1269, 443)","(1279, 421)","(1284, 397)","(1288, 373)","(1289, 348)","(1129, 335)","(1137, 326)","(1150, 325)","(1163, 328)","(1176, 334)","(1199, 333)","(1215, 327)","(1232, 325)","(1249, 329)","(1262, 339)","(1187, 349)","(1185, 364)","(1183, 378)","(1181, 394)","(1169, 403)","(1176, 407)","(1184, 410)","(1193, 408)","(1202, 405)","(1144, 348)","(1151, 343)","(1162, 343)","(1172, 351)","(1161, 354)","(1151, 353)","(1212, 352)","(1221, 344)","(1233, 344)","(1242, 351)","(1233, 355)","(1222, 355)","(1162, 433)","(1169, 429)","(1178, 427)","(1185, 429)","(1193, 427)","(1206, 430)","(1220, 435)","(1207, 445)","(1195, 449)","(1186, 449)","(1178, 448)","(1170, 443)","(1167, 434)","(1178, 434)","(1186, 435)","(1194, 434)","(1214, 435)","(1194, 438)","(1186, 439)","(1179, 437)",0.36,1.1,31.0,0.35,0.03,0.35,0.02,-11.0,0.09,0.32,13.1,28.8,52.3,6.1,16.3,36.25,5.29,14.47,23.88
433,-1048576,80,-56,-1,-1,0,"(1124, 348)","(1123, 369)","(1125, 390)","(1128, 411)","(1133, 433)","(1142, 453)","(1154, 471)","(1169, 486)","(1189, 491)","(1212, 489)","(1234, 478)","(1253, 463)","(1268, 444)","(1279, 422)","(1284, 398)","(1287, 373)","(1288, 348)","(1128, 336)","(1136, 327)","(1149, 326)","(1162, 328)","(1175, 335)","(1199, 334)","(1215, 327)","(1232, 325)","(1249, 329)","(1262, 339)","(1186, 349)","(1185, 365)","(1183, 380)","(1181, 396)","(1168, 404)","(1175, 409)","(1183, 412)","(1193, 409)","(1202, 406)","(1143, 349)","(1151, 343)","(1162, 344)","(1171, 352)","(1161, 354)","(1150, 354)","(1212, 352)","(1221, 345)","(1233, 345)","(1242, 351)","(1233, 356)","(1222, 355)","(1161, 434)","(1169, 430)","(1178, 428)","(1185, 430)","(1193, 428)","(1206, 431)","(1220, 435)","(1207, 446)","(1194, 450)","(1186, 450)","(1178, 449)","(1169, 444)","(1166, 434)","(1178, 434)","(1185, 435)","(1193, 435)","(1214, 436)","(1194, 439)","(1186, 440)","(1178, 438)",0.35,1.07,31.0,0.35,0.02,0.35,0.03,-11.0,0.09,0.33,14.5,29.2,53.1,6.55,16.1,36.75,5.0,14.64,24.82
466,-1114112,80,-56,-1,-1,0,"(1123, 350)","(1122, 371)","(1124, 392)","(1127, 414)","(1133, 435)","(1141, 455)","(1154, 473)","(1169, 487)","(1190, 492)","(1212, 490)","(1234, 479)","(1253, 464)","(1269, 445)","(1279, 422)","(1284, 398)","(1287, 374)","(1287, 349)","(1128, 337)","(1136, 328)","(1149, 327)","(1162, 330)","(1175, 336)","(1199, 335)","(1214, 328)","(1231, 326)","(1248, 330)","(1261, 340)","(1186, 350)","(1185, 365)","(1183, 381)","(1181, 397)","(1169, 406)","(1175, 410)","(1184, 413)","(1193, 410)","(1202, 407)","(1143, 350)","(1151, 345)","(1162, 345)","(1171, 353)","(1161, 355)","(1150, 355)","(1211, 353)","(1221, 346)","(1232, 346)","(1242, 352)","(1233, 356)","(1221, 356)","(1161, 436)","(1169, 431)","(1178, 429)","(1185, 431)","(1193, 429)","(1206, 432)","(1220, 437)","(1207, 447)","(1195, 451)","(1186, 452)","(1178, 450)","(1169, 446)","(1166, 436)","(1178, 436)","(1185, 437)","(1193, 436)","(1214, 437)","(1194, 440)","(1186, 441)","(1178, 440)",0.32,1.06,31.0,0.36,0.02,0.35,0.02,-10.0,0.09,0.33,14.4,28.4,49.2,6.75,17.1,37.4,5.58,14.64,24.94
500,-983040,80,-56,-1,-1,0,"(1123, 349)","(1122, 371)","(1124, 392)","(1126, 413)","(1132, 435)","(1140, 455)","(1152, 473)","(1167, 488)","(1188, 494)","(1210, 492)","(1232, 481)","(1252, 466)","(1267, 446)","(1278, 424)","(1283, 400)","(1286, 375)","(1288, 350)","(1128, 336)","(1136, 328)","(1149, 326)","(1162, 329)","(1175, 336)","(1199, 335)","(1215, 329)","(1232, 327)","(1249, 331)","(1262, 341)","(1186, 351)","(1184, 366)","(1182, 382)","(1180, 398)","(1168, 407)","(1175, 411)","(1183, 414)","(1193, 412)","(1201, 408)","(1143, 350)","(1151, 344)","(1161, 345)","(1171, 353)","(1160, 355)","(1150, 355)","(1212, 354)","(1221, 346)","(1233, 347)","(1242, 353)","(1233, 357)","(1222, 357)","(1160, 436)","(1168, 432)","(1177, 430)","(1184, 433)","(1192, 431)","(1205, 434)","(1219, 438)","(1206, 448)","(1193, 453)","(1185, 453)","(1177, 452)","(1168, 446)","(1165, 437)","(1177, 437)","(1184, 438)","(1192, 438)","(1213, 439)","(1193, 442)","(1185, 442)","(1177, 441)",0.35,1.08,31.0,0.35,0.04,0.35,0.03,-11.0,0.09,0.32,14.1,29.3,52.8,6.2,16.2,36.9,5.76,14.35,24.94
533,-1048576,80,-56,-1,-1,0,"(1123, 350)","(1122, 371)","(1123, 393)","(1126, 414)","(1131, 435)","(1140, 456)","(1152, 474)","(1167, 489)","(1188, 494)","(1210, 492)","(1233, 481)","(1252, 466)","(1268, 447)","(1278, 424)","(1283, 400)","(1286, 375)","(1287, 350)","(1127, 337)","(1135, 329)","(1148, 328)","(1161, 331)","(1174, 337)","(1198, 337)","(1214, 330)","(1231, 328)","(1248, 331)","(1261, 341)","(1186, 352)","(1184, 368)","(1182, 383)","(1180, 399)","(1167, 408)","(1174, 412)","(1183, 415)","(1192, 413)","(1201, 409)","(1142, 351)","(1150, 346)","(1161, 346)","(1170, 354)","(1160, 357)","(1149, 356)","(1211, 355)","(1220, 348)","(1232, 348)","(1241, 354)","(1232, 358)","(1221, 358)","(1160, 438)","(1168, 434)","(1177, 432)","(1184, 434)","(1192, 432)","(1204, 435)","(1218, 439)","(1205, 449)","(1193, 453)","(1184, 453)","(1176, 452)","(1168, 447)","(1165, 438)","(1176, 439)","(1184, 440)","(1192, 439)","(1212, 440)","(1192, 442)","(1184, 443)","(1177, 441)",0.33,1.03,31.0,0.35,0.03,0.35,0.02,-10.5,0.09,0.33,15.0,28.7,50.9,5.55,14.9,35.5,6.23,16.58,28.23
566,-983040,80,-56,-1,-1,0,"(1123, 353)","(1122, 373)","(1123, 394)","(1126, 416)","(1131, 437)","(1139, 458)","(1151, 476)","(1166, 490)","(1186, 495)","(1209, 494)","(1232, 483)","(1252, 469)","(1267, 450)","(1278, 427)","(1283, 403)","(1286, 378)","(1287, 353)","(1127, 340)","(1135, 330)","(1147, 329)","(1161, 332)","(1174, 338)","(1198, 338)","(1214, 331)","(1231, 329)","(1248, 333)","(1261, 343)","(1185, 353)","(1183, 369)","(1181, 384)","(1179, 400)","(1166, 409)","(1173, 413)","(1181, 417)","(1191, 414)","(1200, 411)","(1142, 353)","(1149, 347)","(1160, 348)","(1170, 356)","(1159, 358)","(1149, 358)","(1211, 356)","(1220, 349)","(1232, 349)","(1241, 355)","(1232, 360)","(1221, 360)","(1158, 439)","(1166, 434)","(1175, 433)","(1182, 435)","(1191, 433)","(1203, 436)","(1218, 440)","(1204, 449)","(1191, 453)","(1183, 454)","(1175, 452)","(1166, 448)","(1163, 439)","(1175, 439)","(1182, 441)","(1191, 440)","(1212, 441)","(1191, 442)","(1183, 443)","(1175, 441)",0.36,1.04,30.0,0.35,0.01,0.36,0.02,-11.0,0.09,0.33,12.9,29.6,50.3,6.65,16.05,37.4,6.23,16.29,27.17
600,-851968,80,-56,-1,-1,0,"(1121, 353)","(1120, 374)","(1121, 395)","(1124, 417)","(1129, 439)","(1138, 459)","(1150, 478)","(1165, 492)","(1186, 497)","(1209, 495)","(1232, 485)","(1251, 469)","(1267, 450)","(1278, 427)","(1283, 403)","(1286, 378)","(1287, 353)","(1126, 339)","(1133, 330)","(1146, 329)","(1160, 332)","(1173, 338)","(1197, 338)","(1213, 331)","(1231, 329)","(1248, 333)","(1261, 343)","(1184, 354)","(1183, 369)","(1181, 385)","(1179, 401)","(1166, 410)","(1173, 415)","(1181, 418)","(1191, 415)","(1200, 412)","(1140, 353)","(1148, 348)","(1159, 348)","(1169, 356)","(1158, 358)","(1147, 358)","(1210, 357)","(1220, 350)","(1231, 350)","(1241, 356)","(1232, 360)","(1220, 360)","(1157, 441)","(1165, 436)","(1175, 434)","(1182, 436)","(1190, 434)","(1203, 437)","(1217, 442)","(1203, 451)","(1191, 455)","(1182, 456)","(1174, 455)","(1166, 450)","(1162, 441)","(1175, 441)","(1182, 443)","(1190, 442)","(1211, 443)","(1191, 444)","(1183, 445)","(1175, 443)",0.32,1.03,30.0,0.36,0.02,0.36,0.01,-10.0,0.09,0.32,14.7,30.8,52.7,6.45,16.75,40.0,5.35,15.64,28.47
633,6488064,80,-56,-1,-1,0,"(1121, 354)","(1120, 376)","(1121, 397)","(1124, 419)","(1130, 440)","(1138, 461)","(1150, 479)","(1166, 494)","(1186, 499)","(1209, 497)","(1232, 486)","(1251, 470)","(1267, 451)","(1277, 428)","(1282, 404)","(1285, 379)","(1286, 354)","(1126, 341)","(1133, 332)","(1146, 330)","(1160, 332)","(1172, 339)","(1198, 338)","(1213, 331)","(1231, 330)","(1248, 334)","(1260, 344)","(1184, 355)","(1182, 370)","(1180, 386)","(1178, 402)","(1166, 411)","(1172, 416)","(1181, 419)","(1190, 416)","(1199, 413)","(1140, 354)","(1148, 349)","(1159, 349)","(1169, 357)","(1158, 360)","(1147, 359)","(1210, 358)","(1219, 350)","(1231, 350)","(1241, 357)","(1232, 361)","(1220, 361)","(1158, 442)","(1166, 438)","(1175, 435)","(1182, 438)","(1190, 436)","(1203, 439)","(1216, 444)","(1203, 453)","(1191, 457)","(1182, 457)","(1175, 456)","(1166, 451)","(1163, 443)","(1175, 443)","(1182, 444)","(1190, 443)","(1211, 444)","(1191, 445)","(1183, 446)","(1175, 445)",0.35,1.05,31.0,0.36,0.02,0.35,0.02,-11.0,0.09,0.32,15.0,30.6,55.0,7.0,16.65,38.2,6.05,17.58,29.05
666,-4653056,80,-56,-1,-1,0,"(1114, 349)","(1113, 371)","(1115, 393)","(1118, 416)","(1123, 438)","(1132, 460)","(1145, 480)","(1162, 495)","(1184, 500)","(1208, 499)","(1230, 488)","(1249, 472)","(1263, 451)","(1272, 428)","(1277, 404)","(1280, 379)","(1281, 355)","(1121, 337)","(1130, 329)","(1144, 329)","(1158, 332)","(1171, 339)","(1197, 339)","(1213, 332)","(1230, 330)","(1247, 334)","(1259, 344)","(1184, 354)","(1182, 370)","(1180, 386)","(1178, 403)","(1165, 412)","(1172, 416)","(1180, 420)","(1190, 417)","(1198, 414)","(1137, 352)","(1145, 347)","(1157, 348)","(1166, 356)","(1156, 359)","(1144, 358)","(1208, 358)","(1219, 350)","(1231, 351)","(1240, 357)","(1231, 362)","(1219, 361)","(1156, 443)","(1165, 439)","(1174, 437)","(1181, 439)","(1189, 437)","(1201, 440)","(1215, 445)","(1203, 454)","(1191, 459)","(1182, 459)","(1175, 458)","(1165, 453)","(1161, 444)","(1174, 444)","(1181, 445)","(1189, 445)","(1209, 445)","(1190, 447)","(1182, 448)","(1175, 446)",0.34,1.02,30.0,0.36,0.06,0.35,0.02,-12.0,0.08,0.33,13.4,30.3,53.1,7.85,16.9,40.05,7.17,18.82,30.7
700,-524288,80,-56,-1,-1,0,"(1113, 349)","(1112, 372)","(1114, 394)","(1118, 417)","(1123, 439)","(1132, 461)","(1145, 481)","(1162, 496)","(1184, 502)","(1207, 500)","(1229, 489)","(1248, 473)","(1262, 453)","(1271, 430)","(1276, 405)","(1279, 380)","(1280, 355)","(1120, 338)","(1129, 330)","(1143, 329)","(1157, 332)","(1170, 339)","(1196, 339)","(1212, 332)","(1230, 331)","(1246, 335)","(1259, 345)","(1183, 355)","(1181, 371)","(1179, 387)","(1177, 404)","(1164, 413)","(1171, 417)","(1179, 420)","(1189, 418)","(1197, 415)","(1137, 353)","(1145, 348)","(1156, 348)","(1165, 357)","(1155, 360)","(1144, 359)","(1208, 359)","(1218, 351)","(1230, 351)","(1239, 358)","(1230, 363)","(1218, 362)","(1156, 444)","(1164, 440)","(1173, 438)","(1180, 441)","(1188, 439)","(1200, 442)","(1214, 447)","(1201, 456)","(1190, 459)","(1181, 460)","(1174, 458)","(1165, 454)","(1161, 445)","(1173, 445)","(1180, 447)","(1188, 446)","(1208, 447)","(1189, 448)","(1181, 449)","(1174, 447)",0.37,1.05,30.0,0.35,0.05,0.34,0.02,-12.0,0.08,0.33,15.1,29.8,53.2,8.3,17.95,40.45,6.58,18.47,31.05
733,0,80,-56,-1,-1,0,"(1112, 350)","(1110, 373)","(1112, 395)","(1115, 418)","(1121, 441)","(1130, 463)","(1144, 483)","(1160, 499)","(1182, 504)","(1205, 502)","(1227, 491)","(1246, 474)","(1260, 454)","(1270, 430)","(1275, 405)","(1278, 380)","(1279, 355)","(1118, 339)","(1128, 330)","(1142, 329)","(1156, 333)","(1170, 340)","(1195, 339)","(1212, 333)","(1229, 331)","(1246, 335)","(1259, 346)","(1182, 356)","(1180, 372)","(1178, 388)","(1176, 405)","(1163, 414)","(1170, 419)","(1179, 422)","(1188, 419)","(1197, 416)","(1135, 354)","(1143, 348)","(1155, 349)","(1164, 357)","(1154, 360)","(1142, 359)","(1207, 359)","(1217, 351)","(1229, 351)","(1239, 358)","(1230, 363)","(1218, 362)","(1154, 445)","(1163, 441)","(1172, 439)","(1179, 442)","(1187, 440)","(1199, 443)","(1213, 447)","(1200, 457)","(1189, 461)","(1180, 462)","(1172, 461)","(1163, 456)","(1159, 446)","(1172, 447)","(1179, 448)","(1187, 447)","(1207, 448)","(1188, 450)","(1180, 450)","(1173, 449)",0.36,1.01,30.0,0.36,0.06,0.35,0.02,-12.0,0.08,0.33,14.6,29.8,53.6,7.65,17.7,40.1,7.11,19.76,33.23
766,720896,80,-56,-1,-1,0,"(1110, 351)","(1109, 374)","(1110, 396)","(1114, 419)","(1120, 442)","(1129, 464)","(1142, 484)","(1159, 500)","(1180, 506)","(1204, 504)","(1226, 492)","(1245, 476)","(1260, 455)","(1270, 432)","(1275, 407)","(1278, 382)","(1279, 356)","(1117, 339)","(1126, 330)","(1140, 329)","(1155, 333)","(1169, 340)","(1195, 340)","(1211, 333)","(1228, 331)","(1245, 335)","(1258, 345)","(1181, 357)","(1179, 373)","(1177, 389)","(1175, 406)","(1161, 415)","(1169, 420)","(1177, 423)","(1187, 421)","(1196, 417)","(1134, 354)","(1142, 349)","(1154, 349)","(1163, 358)","(1152, 361)","(1141, 360)","(1206, 360)","(1217, 352)","(1229, 352)","(1238, 359)","(1229, 364)","(1217, 363)","(1152, 446)","(1161, 442)","(1171, 440)","(1178, 443)","(1186, 441)","(1198, 444)","(1212, 449)","(1199, 459)","(1187, 463)","(1179, 464)","(1171, 462)","(1161, 457)","(1158, 447)","(1171, 448)","(1178, 449)","(1186, 449)","(1206, 449)","(1187, 451)","(1179, 452)","(1171, 450)",0.35,1.0,30.0,0.36,0.04,0.35,0.02,-12.0,0.08,0.32,14.8,30.7,54.8,7.4,17.5,39.55,6.88,19.64,32.41
800,2883584,80,-56,-1,-1,0,"(1111, 353)","(1109, 376)","(1111, 398)","(1114, 421)","(1120, 444)","(1128, 467)","(1141, 486)","(1158, 502)","(1180, 507)","(1203, 505)","(1226, 494)","(1245, 477)","(1260, 457)","(1270, 433)","(1274, 408)","(1278, 383)","(1278, 358)","(1116, 340)","(1125, 331)","(1139, 330)","(1153, 333)","(1167, 340)","(1194, 340)","(1210, 333)","(1228, 332)","(1245, 336)","(1257, 347)","(1180, 357)","(1178, 373)","(1176, 389)","(1174, 406)","(1161, 416)","(1168, 421)","(1176, 424)","(1186, 421)","(1195, 418)","(1133, 355)","(1141, 349)","(1153, 350)","(1163, 359)","(1151, 361)","(1140, 361)","(1205, 360)","(1215, 352)","(1228, 352)","(1237, 359)","(1228, 364)","(1216, 364)","(1152, 448)","(1161, 444)","(1170, 442)","(1177, 444)","(1185, 442)","(1198, 445)","(1211, 451)","(1199, 460)","(1186, 464)","(1178, 465)","(1170, 464)","(1161, 458)","(1157, 449)","(1170, 449)","(1177, 450)","(1185, 450)","(1205, 451)","(1186, 452)","(1178, 453)","(1171, 451)",0.37,1.03,30.0,0.37,0.05,0.35,0.02,-12.0,0.08,0.32,14.9,30.8,52.3,8.15,16.35,37.25,7.76,20.05,33.29
833,4849664,80,-56,-1,-1,0,"(1110, 354)","(1108, 377)","(1110, 399)","(1113, 422)","(1118, 445)","(1127, 468)","(1140, 488)","(1157, 504)","(1179, 510)","(1203, 507)","(1226, 496)","(1246, 479)","(1260, 458)","(1270, 434)","(1275, 409)","(1278, 384)","(1279, 358)","(1115, 342)","(1123, 332)","(1137, 331)","(1152, 334)","(1166, 341)","(1192, 341)","(1209, 334)","(1227, 332)","(1245, 337)","(1257, 348)","(1178, 358)","(1176, 374)","(1174, 390)","(1172, 407)","(1159, 417)","(1166, 421)","(1175, 425)","(1184, 422)","(1194, 419)","(1131, 356)","(1139, 350)","(1151, 351)","(1161, 360)","(1150, 362)","(1138, 362)","(1204, 361)","(1215, 353)","(1227, 354)","(1237, 361)","(1227, 366)","(1215, 365)","(1151, 449)","(1159, 444)","(1169, 442)","(1176, 444)","(1184, 442)","(1197, 445)","(1211, 451)","(1198, 461)","(1186, 466)","(1177, 466)","(1168, 465)","(1159, 459)","(1156, 449)","(1168, 450)","(1176, 451)","(1184, 450)","(1205, 451)","(1185, 454)","(1177, 454)","(1169, 453)",0.36,1.05,30.0,0.37,0.04,0.35,0.02,-12.5,0.09,0.32,14.7,29.1,51.6,7.65,16.25,37.1,8.29,20.0,34.47
866,1835008,80,-56,-1,-1,0,"(1106, 356)","(1106, 379)","(1108, 402)","(1111, 425)","(1117, 448)","(1126, 470)","(1139, 490)","(1156, 506)","(1178, 511)","(1202, 509)","(1225, 498)","(1244, 482)","(1260, 461)","(1271, 438)","(1276, 412)","(1280, 386)","(1282, 360)","(1113, 343)","(1122, 333)","(1136, 331)","(1151, 335)","(1165, 342)","(1191, 341)","(1207, 334)","(1225, 333)","(1243, 337)","(1256, 348)","(1177, 358)","(1175, 375)","(1173, 391)","(1171, 409)","(1157, 419)","(1164, 423)","(1173, 426)","(1183, 424)","(1192, 420)","(1130, 357)","(1138, 351)","(1150, 352)","(1160, 361)","(1149, 363)","(1137, 362)","(1203, 362)","(1214, 354)","(1226, 354)","(1236, 361)","(1226, 366)","(1214, 365)","(1149, 452)","(1157, 447)","(1167, 444)","(1174, 447)","(1183, 445)","(1195, 448)","(1210, 453)","(1196, 464)","(1184, 468)","(1175, 469)","(1167, 468)","(1157, 462)","(1154, 452)","(1166, 452)","(1174, 453)","(1183, 452)","(1204, 454)","(1184, 456)","(1175, 457)","(1167, 455)",0.34,1.03,30.0,0.35,0.04,0.34,0.02,-12.0,0.08,0.33,15.2,29.2,53.6,6.25,15.9,37.25,7.47,18.94,30.82
900,-327680,80,-56,-1,-1,0,"(1106, 358)","(1104, 381)","(1106, 404)","(1110, 427)","(1116, 450)","(1125, 473)","(1137, 492)","(1154, 508)","(1175, 514)","(1199, 512)","(1223, 501)","(1243, 485)","(1259, 465)","(1270, 441)","(1276, 416)","(1280, 389)","(1282, 362)","(1113, 343)","(1122, 333)","(1136, 332)","(1150, 335)","(1164, 342)","(1190, 342)","(1206, 335)","(1224, 333)","(1243, 337)","(1256, 349)","(1176, 359)","(1173, 376)","(1171, 393)","(1169, 410)","(1155, 420)","(1163, 425)","(1171, 428)","(1181, 425)","(1191, 422)","(1129, 358)","(1137, 352)","(1149, 353)","(1158, 362)","(1147, 364)","(1136, 363)","(1203, 363)","(1213, 355)","(1225, 355)","(1235, 362)","(1225, 367)","(1213, 366)","(1147, 453)","(1155, 448)","(1165, 446)","(1172, 448)","(1181, 446)","(1194, 450)","(1208, 455)","(1195, 466)","(1182, 471)","(1173, 471)","(1164, 470)","(1155, 464)","(1152, 454)","(1164, 453)","(1172, 455)","(1181, 454)","(1202, 456)","(1182, 458)","(1173, 459)","(1165, 457)",0.35,1.05,30.0,0.34,0.04,0.34,0.02,-12.0,0.08,0.32,16.7,32.2,57.0,6.9,16.25,37.8,7.82,19.41,32.11
933,-720896,80,-56,-1,-1,0,"(1104, 359)","(1102, 382)","(1104, 406)","(1107, 429)","(1113, 453)","(1122, 475)","(1135, 495)","(1151, 512)","(1173, 517)","(1198, 515)","(1221, 503)","(1242, 487)","(1258, 467)","(1269, 443)","(1275, 417)","(1279, 390)","(1280, 363)","(1111, 345)","(1119, 335)","(1134, 333)","(1148, 336)","(1162, 343)","(1188, 343)","(1205, 336)","(1223, 334)","(1241, 338)","(1254, 350)","(1174, 360)","(1172, 377)","(1169, 394)","(1167, 412)","(1154, 422)","(1161, 427)","(1169, 430)","(1180, 427)","(1189, 424)","(1127, 359)","(1135, 353)","(1147, 354)","(1157, 363)","(1146, 365)","(1134, 365)","(1201, 364)","(1211, 356)","(1224, 356)","(1234, 363)","(1224, 368)","(1212, 367)","(1145, 456)","(1153, 450)","(1163, 448)","(1170, 450)","(1179, 448)","(1192, 452)","(1206, 458)","(1193, 469)","(1180, 474)","(1171, 474)","(1162, 473)","(1153, 467)","(1150, 457)","(1163, 455)","(1170, 456)","(1179, 456)","(1200, 458)","(1180, 461)","(1171, 462)","(1163, 460)",0.34,1.05,30.0,0.35,0.03,0.34,0.03,-12.0,0.08,0.33,15.1,31.9,55.7,7.45,17.4,37.85,8.58,19.7,33.05
966,-720896,80,-56,-1,-1,0,"(1104, 362)","(1102, 385)","(1104, 409)","(1107, 432)","(1112, 455)","(1121, 478)","(1133, 498)","(1149, 514)","(1172, 520)","(1197, 518)","(1220, 507)","(1241, 490)","(1257, 470)","(1269, 446)","(1275, 420)","(1279, 393)","(1280, 366)","(1109, 346)","(1118, 336)","(1132, 334)","(1146, 337)","(1160, 344)","(1187, 344)","(1204, 337)","(1222, 335)","(1240, 340)","(1254, 352)","(1172, 361)","(1170, 378)","(1167, 395)","(1165, 413)","(1152, 423)","(1159, 428)","(1168, 431)","(1178, 429)","(1188, 425)","(1125, 360)","(1133, 354)","(1145, 355)","(1155, 364)","(1144, 366)","(1132, 366)","(1199, 366)","(1210, 357)","(1223, 358)","(1232, 365)","(1223, 369)","(1210, 369)","(1142, 457)","(1151, 451)","(1161, 449)","(1169, 452)","(1178, 450)","(1192, 453)","(1206, 459)","(1192, 471)","(1179, 476)","(1169, 476)","(1160, 474)","(1151, 468)","(1148, 457)","(1161, 457)","(1169, 458)","(1178, 458)","(1200, 460)","(1178, 463)","(1169, 464)","(1161, 462)",0.34,1.04,30.0,0.35,0.03,0.36,0.03,-12.0,0.09,0.32,16.4,33.6,55.8,7.6,17.5,38.05,8.7,19.64,34.23
1000,-720896,80,-56,-1,-1,0,"(1102, 363)","(1100, 386)","(1102, 409)","(1104, 432)","(1110, 456)","(1119, 478)","(1131, 499)","(1147, 515)","(1168, 522)","(1193, 520)","(1217, 509)","(1238, 492)","(1255, 471)","(1267, 447)","(1273, 421)","(1277, 394)","(1278, 366)","(1107, 346)","(1115, 336)","(1129, 335)","(1144, 338)","(1157, 346)","(1185, 346)","(1203, 339)","(1221, 337)","(1240, 342)","(1254, 353)","(1170, 363)","(1168, 380)","(1165, 397)","(1163, 415)","(1149, 424)","(1156, 429)","(1165, 433)","(1176, 430)","(1186, 427)","(1122, 361)","(1130, 355)","(1142, 356)","(1153, 365)","(1141, 367)","(1129, 367)","(1198, 367)","(1209, 358)","(1222, 359)","(1232, 366)","(1222, 371)","(1209, 371)","(1139, 456)","(1148, 451)","(1158, 449)","(1166, 452)","(1175, 450)","(1190, 454)","(1204, 461)","(1190, 473)","(1176, 479)","(1166, 479)","(1157, 477)","(1147, 470)","(1144, 457)","(1158, 457)","(1166, 458)","(1175, 458)","(1198, 461)","(1176, 466)","(1166, 466)","(1158, 464)",0.36,1.08,30.0,0.37,0.05,0.36,0.04,-12.5,0.09,0.32,15.3,32.2,54.6,7.1,17.95,39.5,7.88,19.41,33.82
1033,-655360,80,-56,-1,-1,0,"(1090, 351)","(1087, 377)","(1087, 402)","(1090, 427)","(1097, 452)","(1107, 476)","(1122, 498)","(1141, 517)","(1165, 523)","(1191, 522)","(1216, 510)","(1237, 492)","(1254, 469)","(1266, 444)","(1272, 417)","(1275, 389)","(1276, 362)","(1100, 338)","(1111, 331)","(1125, 332)","(1140, 337)","(1154, 346)","(1184, 346)","(1201, 339)","(1220, 337)","(1238, 341)","(1251, 351)","(1168, 365)","(1166, 383)","(1164, 400)","(1161, 419)","(1146, 427)","(1154, 433)","(1163, 437)","(1174, 434)","(1183, 430)","(1117, 359)","(1126, 354)","(1139, 355)","(1149, 365)","(1137, 367)","(1125, 366)","(1195, 368)","(1207, 360)","(1220, 361)","(1230, 368)","(1220, 373)","(1207, 372)","(1136, 460)","(1146, 456)","(1156, 455)","(1164, 458)","(1172, 456)","(1186, 459)","(1200, 464)","(1186, 474)","(1173, 479)","(1164, 479)","(1156, 477)","(1146, 471)","(1142, 461)","(1156, 463)","(1164, 465)","(1172, 464)","(1194, 465)","(1173, 466)","(1164, 467)","(1157, 465)",0.34,1.01,30.0,0.36,0.11,0.34,0.01,-13.0,0.08,0.34,15.5,33.6,58.8,7.45,17.1,38.15,8.94,20.17,31.52
1066,-851968,80,-56,-1,-1,0,"(1084, 354)","(1082, 379)","(1083, 405)","(1086, 430)","(1092, 455)","(1103, 480)","(1117, 503)","(1136, 521)","(1160, 527)","(1187, 526)","(1213, 514)","(1235, 497)","(1253, 475)","(1265, 450)","(1272, 422)","(1276, 394)","(1278, 366)","(1096, 342)","(1107, 334)","(1123, 335)","(1138, 340)","(1152, 348)","(1181, 348)","(1199, 341)","(1218, 339)","(1237, 343)","(1251, 354)","(1165, 366)","(1163, 384)","(1160, 402)","(1157, 421)","(1142, 429)","(1150, 435)","(1159, 439)","(1170, 437)","(1180, 433)","(1113, 361)","(1123, 356)","(1136, 357)","(1146, 367)","(1134, 369)","(1121, 368)","(1193, 370)","(1204, 362)","(1218, 362)","(1228, 370)","(1218, 375)","(1205, 374)","(1132, 463)","(1142, 460)","(1152, 458)","(1160, 462)","(1168, 460)","(1182, 463)","(1197, 468)","(1182, 477)","(1169, 481)","(1159, 481)","(1151, 479)","(1142, 473)","(1137, 464)","(1152, 466)","(1160, 468)","(1168, 468)","(1190, 468)","(1169, 468)","(1160, 468)","(1152, 466)",0.35,1.02,30.0,0.35,0.09,0.33,0.01,-13.0,0.07,0.34,15.8,33.0,58.2,7.9,18.5,44.35,8.88,19.47,31.52
1100,-851968,80,-56,-1,-1,0,"(1084, 359)","(1082, 385)","(1084, 410)","(1087, 435)","(1093, 460)","(1103, 485)","(1118, 507)","(1136, 524)","(1160, 531)","(1186, 529)","(1212, 517)","(1234, 499)","(1252, 477)","(1264, 452)","(1270, 424)","(1275, 396)","(1276, 367)","(1094, 346)","(1104, 338)","(1119, 338)","(1135, 343)","(1149, 351)","(1178, 351)","(1196, 343)","(1215, 341)","(1234, 345)","(1248, 356)","(1162, 368)","(1160, 386)","(1157, 405)","(1154, 424)","(1140, 433)","(1148, 438)","(1157, 442)","(1167, 440)","(1177, 436)","(1111, 364)","(1120, 359)","(1133, 360)","(1143, 369)","(1131, 372)","(1119, 371)","(1191, 372)","(1202, 363)","(1215, 364)","(1226, 371)","(1215, 376)","(1202, 376)","(1130, 467)","(1140, 463)","(1150, 462)","(1157, 465)","(1166, 463)","(1180, 466)","(1195, 472)","(1180, 481)","(1167, 484)","(1157, 484)","(1149, 483)","(1140, 478)","(1136, 468)","(1149, 469)","(1157, 471)","(1166, 471)","(1188, 472)","(1166, 471)","(1158, 472)","(1150, 470)",0.35,1.03,30.0,0.35,0.08,0.33,0.01,-13.0,0.07,0.34,15.6,31.6,56.3,8.7,18.9,43.75,8.82,19.88,30.7
1133,-1048576,80,-56,-1,-1,0,"(1082, 360)","(1080, 385)","(1082, 411)","(1085, 436)","(1092, 461)","(1101, 486)","(1115, 509)","(1133, 527)","(1156, 534)","(1183, 532)","(1209, 520)","(1232, 503)","(1250, 480)","(1263, 455)","(1269, 427)","(1274, 398)","(1276, 369)","(1090, 347)","(1101, 339)","(1116, 339)","(1131, 344)","(1146, 352)","(1175, 352)","(1194, 345)","(1213, 343)","(1233, 347)","(1248, 358)","(1159, 370)","(1157, 389)","(1154, 408)","(1151, 427)","(1136, 436)","(1144, 441)","(1153, 445)","(1164, 442)","(1174, 439)","(1108, 366)","(1117, 360)","(1130, 361)","(1140, 371)","(1128, 374)","(1115, 373)","(1188, 374)","(1200, 366)","(1213, 366)","(1224, 374)","(1214, 379)","(1200, 379)","(1126, 470)","(1136, 466)","(1146, 465)","(1154, 468)","(1163, 466)","(1176, 469)","(1192, 474)","(1177, 484)","(1163, 488)","(1154, 488)","(1145, 486)","(1136, 481)","(1132, 471)","(1145, 472)","(1154, 474)","(1163, 474)","(1185, 474)","(1163, 475)","(1154, 475)","(1146, 473)",0.36,1.01,30.0,0.35,0.08,0.34,0.02,-13.5,0.07,0.34,16.7,32.3,58.3,8.15,18.95,43.25,8.11,19.94,30.76
1166,-917504,80,-56,-1,-1,0,"(1072, 358)","(1069, 385)","(1069, 411)","(1071, 437)","(1078, 463)","(1088, 489)","(1103, 513)","(1123, 532)","(1148, 540)","(1175, 539)","(1201, 527)","(1223, 508)","(1241, 485)","(1253, 459)","(1260, 431)","(1265, 403)","(1267, 374)","(1085, 345)","(1097, 337)","(1112, 339)","(1127, 344)","(1142, 353)","(1173, 354)","(1191, 347)","(1210, 345)","(1229, 349)","(1242, 360)","(1156, 373)","(1153, 392)","(1151, 411)","(1148, 431)","(1132, 439)","(1140, 445)","(1149, 449)","(1160, 447)","(1170, 443)","(1102, 367)","(1112, 361)","(1125, 363)","(1135, 372)","(1123, 375)","(1110, 374)","(1184, 377)","(1196, 368)","(1210, 369)","(1220, 377)","(1210, 382)","(1196, 381)","(1121, 473)","(1131, 470)","(1142, 469)","(1150, 472)","(1159, 470)","(1172, 474)","(1187, 480)","(1172, 489)","(1159, 493)","(1150, 493)","(1141, 491)","(1131, 485)","(1127, 475)","(1142, 477)","(1150, 479)","(1159, 479)","(1180, 480)","(1159, 479)","(1150, 479)","(1142, 477)",0.36,0.99,30.0,0.35,0.11,0.33,0.01,-14.0,0.07,0.34,15.8,32.5,59.5,8.85,18.25,42.5,9.11,22.05,34.64
1200,-983040,80,-56,-1,-1,0,"(1070, 361)","(1067, 387)","(1068, 413)","(1071, 439)","(1077, 465)","(1088, 491)","(1102, 516)","(1121, 536)","(1147, 543)","(1174, 542)","(1200, 530)","(1222, 511)","(1240, 488)","(1252, 461)","(1259, 433)","(1263, 403)","(1265, 374)","(1081, 347)","(1092, 339)","(1108, 341)","(1123, 347)","(1138, 356)","(1169, 356)","(1187, 349)","(1206, 347)","(1225, 350)","(1239, 362)","(1152, 375)","(1150, 394)","(1147, 413)","(1144, 433)","(1129, 442)","(1137, 448)","(1146, 452)","(1157, 449)","(1167, 446)","(1099, 369)","(1108, 363)","(1122, 365)","(1132, 374)","(1120, 378)","(1107, 376)","(1181, 378)","(1193, 370)","(1206, 371)","(1217, 378)","(1207, 384)","(1193, 383)","(1118, 476)","(1129, 473)","(1139, 472)","(1147, 475)","(1156, 473)","(1170, 477)","(1185, 482)","(1170, 492)","(1157, 497)","(1147, 497)","(1138, 494)","(1128, 488)","(1124, 477)","(1139, 480)","(1147, 482)","(1156, 482)","(1178, 482)","(1156, 483)","(1147, 483)","(1139, 481)",0.36,1.0,30.0,0.35,0.12,0.34,0.02,-14.5,0.07,0.34,14.1,33.1,58.0,7.55,17.95,43.3,8.94,22.41,34.17
1233,-1114112,80,-56,-1,-1,0,"(1069, 362)","(1066, 388)","(1066, 414)","(1069, 441)","(1075, 468)","(1086, 494)","(1100, 519)","(1120, 540)","(1145, 547)","(1173, 546)","(1200, 533)","(1222, 514)","(1240, 490)","(1253, 463)","(1259, 434)","(1263, 405)","(1264, 375)","(1078, 349)","(1089, 342)","(1104, 343)","(1120, 349)","(1135, 358)","(1165, 358)","(1184, 351)","(1203, 348)","(1223, 352)","(1237, 363)","(1149, 377)","(1146, 397)","(1143, 416)","(1140, 436)","(1126, 444)","(1133, 450)","(1143, 454)","(1154, 452)","(1164, 448)","(1095, 371)","(1105, 365)","(1118, 367)","(1129, 377)","(1116, 380)","(1103, 378)","(1178, 380)","(1190, 372)","(1204, 373)","(1215, 380)","(1205, 386)","(1191, 385)","(1116, 479)","(1126, 476)","(1136, 475)","(1144, 478)","(1153, 476)","(1167, 479)","(1183, 485)","(1168, 496)","(1154, 500)","(1144, 500)","(1136, 498)","(1126, 492)","(1122, 481)","(1136, 483)","(1144, 485)","(1153, 485)","(1176, 485)","(1154, 486)","(1145, 487)","(1137, 484)",0.35,1.05,30.0,0.36,0.11,0.34,0.02,-14.5,0.07,0.34,16.7,34.1,60.1,9.15,18.55,42.55,9.0,21.47,33.82
1266,-983040,80,-56,-1,-1,0,"(1065, 367)","(1063, 394)","(1064, 420)","(1067, 447)","(1073, 474)","(1084, 500)","(1098, 524)","(1117, 544)","(1142, 551)","(1170, 550)","(1198, 537)","(1221, 518)","(1240, 495)","(1252, 468)","(1259, 438)","(1263, 408)","(1266, 378)","(1075, 354)","(1086, 346)","(1102, 346)","(1117, 351)","(1132, 360)","(1162, 360)","(1180, 353)","(1200, 350)","(1220, 355)","(1235, 367)","(1146, 378)","(1143, 398)","(1140, 418)","(1137, 438)","(1122, 447)","(1130, 453)","(1140, 457)","(1151, 454)","(1161, 450)","(1093, 373)","(1102, 367)","(1116, 369)","(1126, 379)","(1114, 382)","(1101, 380)","(1175, 382)","(1187, 374)","(1201, 374)","(1212, 382)","(1201, 388)","(1188, 387)","(1113, 483)","(1123, 479)","(1133, 477)","(1140, 481)","(1150, 479)","(1164, 483)","(1179, 488)","(1164, 498)","(1150, 502)","(1141, 502)","(1132, 500)","(1122, 494)","(1119, 484)","(1132, 485)","(1140, 487)","(1150, 487)","(1173, 488)","(1150, 488)","(1141, 489)","(1133, 486)",0.36,1.04,30.0,0.35,0.1,0.32,0.02,-14.5,0.07,0.34,15.0,33.1,57.8,6.9,16.3,38.95,8.88,21.7,32.47
1300,6881280,80,-56,-1,-1,0,"(1064, 369)","(1062, 395)","(1064, 422)","(1067, 448)","(1073, 475)","(1083, 501)","(1096, 526)","(1115, 546)","(1139, 553)","(1167, 552)","(1195, 540)","(1218, 521)","(1237, 498)","(1250, 471)","(1257, 441)","(1262, 410)","(1265, 380)","(1072, 355)","(1083, 346)","(1098, 347)","(1114, 352)","(1129, 361)","(1159, 361)","(1178, 354)","(1199, 352)","(1219, 357)","(1234, 368)","(1143, 380)","(1140, 400)","(1137, 420)","(1133, 441)","(1119, 449)","(1126, 455)","(1136, 459)","(1148, 456)","(1158, 453)","(1090, 374)","(1099, 368)","(1113, 370)","(1123, 380)","(1111, 383)","(1098, 382)","(1173, 384)","(1185, 375)","(1199, 376)","(1210, 384)","(1200, 389)","(1186, 388)","(1109, 485)","(1119, 481)","(1129, 480)","(1137, 483)","(1147, 481)","(1161, 485)","(1178, 490)","(1162, 501)","(1147, 506)","(1137, 505)","(1128, 503)","(1118, 497)","(1115, 486)","(1128, 488)","(1137, 490)","(1147, 489)","(1171, 491)","(1147, 491)","(1137, 492)","(1129, 489)",0.35,1.06,30.0,0.35,0.09,0.34,0.01,-14.5,0.07,0.35,16.4,33.2,58.4,7.4,16.2,39.1,8.64,21.58,34.64
1333,-4587520,80,-56,-1,-1,0,"(1062, 372)","(1060, 398)","(1062, 425)","(1065, 451)","(1072, 478)","(1082, 504)","(1096, 529)","(1113, 549)","(1138, 557)","(1166, 556)","(1193, 543)","(1216, 524)","(1236, 500)","(1249, 473)","(1256, 443)","(1261, 412)","(1263, 381)","(1069, 357)","(1080, 348)","(1095, 349)","(1111, 355)","(1125, 363)","(1156, 363)","(1175, 355)","(1195, 353)","(1216, 358)","(1231, 370)","(1139, 382)","(1136, 402)","(1133, 422)","(1130, 443)","(1115, 451)","(1123, 457)","(1133, 462)","(1145, 459)","(1156, 455)","(1087, 377)","(1096, 371)","(1110, 372)","(1120, 382)","(1108, 385)","(1095, 383)","(1170, 386)","(1182, 377)","(1196, 378)","(1208, 385)","(1197, 391)","(1183, 390)","(1106, 486)","(1116, 483)","(1126, 481)","(1134, 485)","(1144, 483)","(1159, 486)","(1176, 492)","(1160, 505)","(1145, 510)","(1135, 510)","(1125, 507)","(1115, 500)","(1112, 488)","(1126, 489)","(1134, 491)","(1144, 491)","(1169, 492)","(1145, 495)","(1135, 496)","(1126, 493)",0.34,1.09,30.0,0.35,0.09,0.34,0.03,-14.0,0.08,0.34,15.3,32.6,58.4,7.2,16.5,38.65,9.23,21.58,34.7
1366,-655360,80,-56,-1,-1,0,"(1060, 375)","(1058, 401)","(1060, 428)","(1063, 455)","(1069, 481)","(1080, 507)","(1093, 531)","(1111, 552)","(1135, 560)","(1163, 558)","(1190, 545)","(1214, 526)","(1234, 503)","(1248, 475)","(1255, 445)","(1259, 414)","(1261, 383)","(1066, 360)","(1076, 350)","(1092, 351)","(1108, 356)","(1122, 364)","(1153, 364)","(1173, 356)","(1194, 354)","(1214, 359)","(1230, 372)","(1136, 384)","(1133, 404)","(1130, 424)","(1127, 445)","(1112, 453)","(1120, 459)","(1130, 464)","(1142, 461)","(1153, 457)","(1084, 379)","(1093, 373)","(1106, 374)","(1117, 385)","(1104, 387)","(1091, 386)","(1168, 388)","(1180, 379)","(1194, 380)","(1206, 387)","(1194, 393)","(1180, 392)","(1103, 488)","(1113, 485)","(1123, 483)","(1132, 487)","(1142, 485)","(1157, 488)","(1174, 494)","(1158, 507)","(1143, 512)","(1132, 512)","(1122, 510)","(1112, 502)","(1109, 490)","(1123, 492)","(1132, 494)","(1142, 493)","(1167, 494)","(1142, 498)","(1132, 498)","(1123, 495)",0.34,1.08,30.0,0.35,0.08,0.35,0.02,-14.0,0.08,0.34,16.9,34.1,58.4,6.3,16.15,37.1,9.88,22.35,35.52
1400,-131072,80,-56,-1,-1,0,"(1045, 373)","(1042, 401)","(1043, 429)","(1046, 457)","(1054, 485)","(1067, 511)","(1084, 536)","(1104, 557)","(1131, 564)","(1159, 563)","(1186, 549)","(1208, 529)","(1225, 504)","(1237, 476)","(1243, 446)","(1248, 416)","(1249, 386)","(1058, 357)","(1071, 349)","(1087, 350)","(1104, 356)","(1119, 365)","(1150, 366)","(1169, 358)","(1189, 356)","(1209, 359)","(1224, 371)","(1134, 385)","(1131, 405)","(1129, 425)","(1126, 446)","(1109, 455)","(1118, 462)","(1128, 466)","(1140, 463)","(1150, 459)","(1077, 379)","(1087, 373)","(1101, 374)","(1112, 385)","(1099, 388)","(1085, 386)","(1163, 389)","(1176, 380)","(1190, 380)","(1201, 388)","(1190, 394)","(1176, 393)","(1099, 491)","(1109, 487)","(1120, 485)","(1129, 489)","(1139, 487)","(1154, 491)","(1170, 497)","(1155, 510)","(1141, 515)","(1130, 515)","(1120, 513)","(1109, 505)","(1105, 493)","(1120, 495)","(1129, 497)","(1139, 496)","(1163, 498)","(1140, 500)","(1130, 500)","(1121, 498)",0.35,1.06,30.0,0.35,0.09,0.34,0.02,-14.5,0.07,0.34,18.2,36.0,60.9,6.75,17.1,39.2,13.88,28.41,42.94
1433,589824,80,-56,-1,-1,0,"(1044, 374)","(1041, 402)","(1042, 430)","(1045, 458)","(1053, 486)","(1065, 513)","(1082, 538)","(1102, 559)","(1129, 567)","(1157, 565)","(1184, 551)","(1206, 530)","(1223, 506)","(1235, 477)","(1241, 448)","(1246, 417)","(1247, 387)","(1054, 360)","(1067, 351)","(1084, 352)","(1100, 357)","(1116, 367)","(1148, 367)","(1168, 359)","(1188, 356)","(1209, 361)","(1223, 373)","(1131, 386)","(1129, 407)","(1126, 427)","(1123, 449)","(1106, 457)","(1115, 464)","(1126, 468)","(1137, 465)","(1148, 461)","(1074, 381)","(1084, 374)","(1098, 375)","(1109, 387)","(1096, 389)","(1082, 388)","(1161, 390)","(1174, 380)","(1189, 381)","(1200, 390)","(1189, 395)","(1174, 395)","(1096, 493)","(1106, 489)","(1118, 487)","(1126, 491)","(1136, 489)","(1152, 493)","(1168, 498)","(1153, 511)","(1138, 517)","(1128, 517)","(1118, 515)","(1107, 507)","(1102, 494)","(1117, 496)","(1126, 498)","(1137, 498)","(1161, 499)","(1138, 502)","(1128, 502)","(1119, 500)",0.37,1.07,30.0,0.36,0.09,0.35,0.02,-15.0,0.08,0.34,18.5,36.7,64.5,7.3,16.7,38.3,14.0,29.0,43.29
1466,2752512,80,-56,-1,-1,0,"(1043, 375)","(1040, 403)","(1041, 431)","(1044, 459)","(1051, 487)","(1063, 514)","(1079, 540)","(1099, 561)","(1126, 569)","(1154, 567)","(1181, 553)","(1204, 532)","(1222, 507)","(1235, 479)","(1241, 449)","(1245, 418)","(1247, 387)","(1052, 361)","(1064, 352)","(1081, 353)","(1097, 359)","(1113, 368)","(1145, 368)","(1165, 360)","(1186, 358)","(1206, 362)","(1221, 375)","(1128, 388)","(1126, 409)","(1123, 430)","(1120, 451)","(1103, 460)","(1112, 466)","(1122, 471)","(1134, 468)","(1145, 463)","(1071, 382)","(1081, 376)","(1095, 378)","(1107, 388)","(1093, 391)","(1080, 390)","(1159, 392)","(1171, 383)","(1186, 383)","(1198, 392)","(1186, 397)","(1172, 397)","(1093, 495)","(1103, 491)","(1114, 490)","(1123, 494)","(1133, 492)","(1149, 495)","(1166, 501)","(1150, 514)","(1135, 520)","(1124, 520)","(1114, 517)","(1103, 509)","(1099, 496)","(1114, 499)","(1123, 501)","(1133, 500)","(1159, 501)","(1135, 505)","(1124, 506)","(1115, 503)",0.35,1.09,30.0,0.36,0.1,0.35,0.02,-14.5,0.08,0.34,18.2,37.7,62.3,8.1,16.8,38.2,14.23,29.58,43.52
1500,4718592,80,-56,-1,-1,0,"(1042, 377)","(1039, 405)","(1040, 433)","(1044, 461)","(1051, 489)","(1063, 517)","(1079, 541)","(1098, 563)","(1125, 571)","(1153, 569)","(1181, 555)","(1204, 535)","(1222, 509)","(1235, 481)","(1241, 450)","(1245, 419)","(1247, 387)","(1049, 362)","(1060, 353)","(1077, 354)","(1093, 360)","(1109, 369)","(1142, 369)","(1162, 361)","(1183, 359)","(1204, 363)","(1220, 375)","(1125, 390)","(1122, 411)","(1120, 431)","(1117, 453)","(1100, 462)","(1109, 468)","(1119, 472)","(1132, 469)","(1143, 465)","(1068, 384)","(1078, 377)","(1092, 379)","(1104, 390)","(1090, 393)","(1076, 392)","(1156, 394)","(1169, 384)","(1184, 384)","(1196, 393)","(1184, 399)","(1170, 398)","(1090, 497)","(1100, 493)","(1112, 492)","(1120, 496)","(1131, 494)","(1147, 497)","(1164, 503)","(1148, 516)","(1133, 522)","(1122, 522)","(1112, 520)","(1101, 512)","(1096, 498)","(1111, 501)","(1120, 503)","(1131, 502)","(1157, 503)","(1132, 507)","(1122, 508)","(1112, 505)",0.36,1.08,30.0,0.37,0.09,0.36,0.02,-15.5,0.08,0.34,19.3,36.9,63.6,7.0,16.5,36.9,14.0,28.23,42.94
1533,1769472,80,-56,-1,-1,0,"(1043, 381)","(1040, 409)","(1041, 436)","(1044, 464)","(1051, 492)","(1062, 519)","(1077, 545)","(1096, 566)","(1122, 574)","(1151, 572)","(1178, 558)","(1202, 537)","(1220, 512)","(1234, 484)","(1240, 453)","(1245, 422)","(1246, 390)","(1048, 366)","(1059, 357)","(1075, 357)","(1092, 362)","(1108, 371)","(1140, 371)","(1160, 363)","(1181, 360)","(1203, 365)","(1218, 378)","(1123, 391)","(1120, 412)","(1117, 433)","(1114, 454)","(1098, 463)","(1106, 469)","(1117, 474)","(1129, 471)","(1140, 467)","(1067, 386)","(1077, 380)","(1091, 381)","(1102, 392)","(1089, 395)","(1075, 393)","(1154, 395)","(1167, 385)","(1182, 386)","(1193, 394)","(1182, 400)","(1167, 399)","(1089, 499)","(1098, 495)","(1109, 494)","(1118, 497)","(1128, 495)","(1144, 499)","(1161, 505)","(1145, 518)","(1130, 524)","(1119, 524)","(1109, 522)","(1098, 514)","(1095, 501)","(1109, 503)","(1118, 505)","(1128, 504)","(1153, 505)","(1129, 509)","(1119, 510)","(1110, 507)",0.35,1.11,30.0,0.36,0.08,0.35,0.02,-15.0,0.08,0.34,17.6,34.8,60.2,8.1,16.45,37.45,13.41,27.41,42.29
1566,-458752,80,-56,-1,-1,0,"(1041, 381)","(1038, 409)","(1039, 437)","(1042, 465)","(1048, 494)","(1059, 522)","(1074, 547)","(1092, 569)","(1119, 577)","(1148, 575)","(1176, 561)","(1200, 540)","(1219, 515)","(1233, 486)","(1240, 455)","(1244, 423)","(1246, 391)","(1044, 365)","(1055, 355)","(1072, 356)","(1089, 361)","(1105, 371)","(1137, 371)","(1158, 363)","(1180, 361)","(1202, 366)","(1217, 379)","(1120, 392)","(1117, 413)","(1114, 435)","(1110, 457)","(1094, 464)","(1103, 471)","(1114, 476)","(1126, 473)","(1138, 469)","(1063, 386)","(1073, 380)","(1087, 381)","(1099, 392)","(1085, 395)","(1071, 394)","(1152, 396)","(1165, 386)","(1180, 387)","(1192, 396)","(1181, 401)","(1166, 401)","(1084, 501)","(1094, 497)","(1105, 496)","(1114, 500)","(1125, 498)","(1141, 502)","(1159, 507)","(1142, 521)","(1126, 526)","(1115, 526)","(1105, 524)","(1094, 516)","(1091, 503)","(1105, 505)","(1114, 507)","(1125, 507)","(1151, 508)","(1126, 512)","(1115, 512)","(1106, 509)",0.36,1.1,30.0,0.37,0.09,0.36,0.02,-15.0,0.08,0.35,17.7,37.6,64.9,8.0,16.75,38.6,13.23,27.52,42.58
1600,-786432,80,-56,-1,-1,0,"(1042, 386)","(1039, 414)","(1040, 441)","(1043, 468)","(1049, 496)","(1059, 524)","(1074, 549)","(1092, 570)","(1118, 578)","(1147, 576)","(1176, 563)","(1200, 543)","(1220, 518)","(1233, 489)","(1240, 458)","(1244, 426)","(1246, 394)","(1044, 369)","(1054, 358)","(1070, 359)","(1087, 364)","(1102, 373)","(1135, 373)","(1156, 365)","(1179, 363)","(1201, 368)","(1216, 382)","(1118, 394)","(1115, 415)","(1111, 436)","(1108, 457)","(1093, 466)","(1101, 473)","(1111, 477)","(1124, 474)","(1135, 470)","(1062, 389)","(1072, 382)","(1086, 384)","(1098, 394)","(1084, 397)","(1070, 396)","(1151, 398)","(1164, 388)","(1179, 389)","(1191, 398)","(1179, 403)","(1164, 402)","(1084, 503)","(1093, 499)","(1104, 498)","(1113, 501)","(1123, 499)","(1140, 503)","(1157, 509)","(1141, 521)","(1125, 526)","(1114, 526)","(1104, 524)","(1093, 517)","(1090, 505)","(1104, 507)","(1113, 509)","(1123, 508)","(1150, 509)","(1124, 512)","(1114, 512)","(1105, 509)",0.35,1.13,30.0,0.37,0.08,0.35,0.02,-15.0,0.08,0.34,15.3,32.8,58.6,9.05,18.25,41.2,12.82,26.94,42.05
1633,-786432,80,-56,-1,-1,0,"(1041, 388)","(1038, 415)","(1039, 443)","(1042, 470)","(1048, 498)","(1059, 525)","(1073, 550)","(1091, 571)","(1116, 579)","(1145, 578)","(1174, 564)","(1198, 544)","(1218, 519)","(1232, 490)","(1239, 459)","(1244, 426)","(1245, 394)","(1042, 370)","(1052, 359)","(1068, 359)","(1085, 364)","(1101, 373)","(1133, 374)","(1154, 365)","(1177, 363)","(1199, 369)","(1215, 383)","(1116, 394)","(1113, 416)","(1109, 437)","(1106, 459)","(1091, 468)","(1099, 474)","(1109, 479)","(1122, 476)","(1133, 472)","(1061, 390)","(1070, 383)","(1084, 384)","(1096, 395)","(1083, 398)","(1069, 397)","(1149, 399)","(1162, 389)","(1177, 390)","(1189, 398)","(1177, 404)","(1162, 403)","(1083, 506)","(1092, 502)","(1102, 500)","(1111, 504)","(1121, 501)","(1137, 505)","(1155, 511)","(1138, 523)","(1123, 528)","(1112, 528)","(1102, 526)","(1092, 519)","(1089, 507)","(1102, 509)","(1111, 511)","(1121, 510)","(1148, 511)","(1122, 513)","(1112, 513)","(1103, 511)",0.34,1.13,30.0,0.36,0.07,0.35,0.02,-15.0,0.08,0.35,17.2,33.1,60.4,9.55,18.9,43.95,12.35,27.0,42.7
1666,-786432,80,-56,-1,-1,0,"(1035, 389)","(1033, 417)","(1035, 445)","(1039, 473)","(1046, 501)","(1057, 528)","(1072, 553)","(1090, 574)","(1115, 581)","(1145, 580)","(1173, 565)","(1197, 545)","(1217, 521)","(1231, 492)","(1238, 461)","(1244, 428)","(1246, 395)","(1040, 372)","(1050, 362)","(1066, 361)","(1083, 366)","(1099, 374)","(1131, 374)","(1151, 366)","(1174, 364)","(1196, 369)","(1212, 383)","(1114, 394)","(1111, 416)","(1108, 437)","(1105, 459)","(1089, 468)","(1098, 474)","(1108, 479)","(1121, 475)","(1132, 471)","(1058, 390)","(1068, 383)","(1082, 384)","(1094, 396)","(1080, 398)","(1067, 397)","(1147, 399)","(1160, 388)","(1175, 389)","(1187, 398)","(1175, 404)","(1160, 403)","(1081, 505)","(1090, 500)","(1101, 498)","(1110, 502)","(1121, 499)","(1137, 504)","(1155, 511)","(1138, 525)","(1122, 531)","(1111, 531)","(1100, 528)","(1090, 520)","(1087, 507)","(1101, 507)","(1110, 509)","(1121, 509)","(1148, 511)","(1122, 515)","(1111, 516)","(1101, 513)",0.37,1.12,30.0,0.36,0.07,0.35,0.03,-15.5,0.08,0.34,14.9,32.5,56.7,8.45,17.9,42.4,14.52,29.35,44.7
1700,-786432,80,-56,-1,-1,0,"(1034, 388)","(1032, 416)","(1034, 444)","(1037, 472)","(1043, 500)","(1054, 527)","(1068, 552)","(1086, 574)","(1112, 582)","(1142, 581)","(1170, 567)","(1195, 547)","(1216, 522)","(1231, 493)","(1238, 462)","(1244, 429)","(1246, 396)","(1038, 372)","(1049, 361)","(1065, 361)","(1082, 366)","(1098, 374)","(1130, 375)","(1151, 367)","(1174, 365)","(1196, 370)","(1213, 384)","(1113, 395)","(1110, 416)","(1106, 438)","(1102, 459)","(1087, 468)","(1096, 475)","(1106, 479)","(1119, 476)","(1131, 473)","(1057, 390)","(1067, 383)","(1081, 384)","(1093, 396)","(1079, 399)","(1065, 397)","(1146, 399)","(1159, 389)","(1174, 390)","(1187, 399)","(1175, 405)","(1160, 404)","(1078, 505)","(1087, 500)","(1099, 499)","(1108, 503)","(1119, 500)","(1136, 505)","(1154, 512)","(1137, 526)","(1120, 532)","(1108, 532)","(1098, 529)","(1087, 520)","(1084, 506)","(1098, 508)","(1108, 510)","(1119, 510)","(1146, 512)","(1119, 517)","(1108, 517)","(1099, 514)",0.36,1.13,30.0,0.36,0.07,0.35,0.03,-16.0,0.08,0.34,15.3,31.9,58.0,8.5,17.65,39.8,13.41,27.35,41.0
1733,-851968,80,-56,-1,-1,0,"(1034, 390)","(1032, 418)","(1034, 445)","(1037, 474)","(1044, 501)","(1054, 529)","(1069, 554)","(1087, 575)","(1112, 583)","(1142, 582)","(1171, 568)","(1196, 547)","(1217, 522)","(1231, 493)","(1239, 461)","(1244, 428)","(1246, 395)","(1037, 372)","(1047, 361)","(1063, 361)","(1080, 365)","(1096, 374)","(1129, 374)","(1150, 366)","(1173, 364)","(1195, 370)","(1212, 384)","(1111, 395)","(1108, 416)","(1105, 437)","(1101, 460)","(1086, 469)","(1095, 475)","(1105, 480)","(1118, 477)","(1130, 473)","(1055, 391)","(1065, 383)","(1079, 384)","(1091, 396)","(1078, 399)","(1064, 398)","(1146, 399)","(1158, 389)","(1174, 390)","(1186, 399)","(1174, 404)","(1159, 404)","(1078, 505)","(1087, 501)","(1098, 500)","(1107, 504)","(1118, 501)","(1136, 506)","(1154, 512)","(1136, 526)","(1119, 532)","(1108, 532)","(1098, 530)","(1087, 521)","(1084, 507)","(1098, 509)","(1108, 511)","(1118, 511)","(1146, 513)","(1119, 517)","(1108, 518)","(1099, 515)",0.36,1.17,30.0,0.36,0.07,0.35,0.03,-15.5,0.08,0.34,14.9,32.9,58.4,8.45,18.1,38.6,13.0,26.29,40.94
1766,-917504,80,-56,-1,-1,0,"(1022, 378)","(1018, 408)","(1017, 437)","(1020, 467)","(1027, 497)","(1038, 528)","(1055, 554)","(1077, 576)","(1106, 585)","(1138, 583)","(1169, 569)","(1195, 548)","(1215, 521)","(1230, 490)","(1237, 457)","(1241, 424)","(1243, 391)","(1032, 360)","(1045, 351)","(1063, 354)","(1079, 362)","(1095, 372)","(1130, 372)","(1150, 364)","(1173, 361)","(1195, 366)","(1210, 378)","(1112, 394)","(1109, 415)","(1105, 436)","(1102, 459)","(1084, 468)","(1093, 475)","(1104, 480)","(1117, 477)","(1129, 473)","(1052, 387)","(1062, 380)","(1077, 382)","(1089, 393)","(1075, 396)","(1061, 395)","(1144, 398)","(1158, 388)","(1173, 389)","(1186, 398)","(1174, 404)","(1158, 403)","(1072, 506)","(1083, 502)","(1095, 501)","(1105, 505)","(1116, 503)","(1133, 507)","(1151, 513)","(1133, 527)","(1117, 532)","(1105, 532)","(1095, 529)","(1083, 521)","(1079, 508)","(1095, 511)","(1105, 513)","(1116, 513)","(1143, 513)","(1117, 517)","(1106, 517)","(1096, 514)",0.35,1.06,30.0,0.35,0.13,0.35,0.02,-16.0,0.07,0.34,19.0,39.3,65.4,9.0,18.45,39.55,16.35,31.76,45.64
1800,-983040,80,-56,-1,-1,0,"(1021, 375)","(1017, 405)","(1016, 434)","(1018, 464)","(1024, 494)","(1036, 525)","(1053, 553)","(1075, 575)","(1104, 584)","(1136, 583)","(1168, 569)","(1195, 547)","(1215, 520)","(1230, 489)","(1237, 456)","(1241, 423)","(1243, 389)","(1033, 359)","(1045, 350)","(1063, 353)","(1080, 360)","(1095, 371)","(1129, 371)","(1150, 362)","(1173, 359)","(1195, 363)","(1211, 376)","(1111, 393)","(1108, 414)","(1105, 435)","(1101, 457)","(1083, 467)","(1093, 474)","(1104, 479)","(1116, 476)","(1128, 471)","(1052, 385)","(1063, 379)","(1077, 381)","(1089, 392)","(1075, 395)","(1061, 393)","(1144, 396)","(1157, 387)","(1173, 388)","(1185, 396)","(1173, 402)","(1158, 401)","(1071, 505)","(1083, 500)","(1095, 500)","(1105, 504)","(1116, 502)","(1133, 505)","(1151, 511)","(1133, 525)","(1117, 531)","(1105, 531)","(1094, 528)","(1082, 520)","(1078, 506)","(1095, 509)","(1104, 511)","(1116, 511)","(1143, 511)","(1116, 516)","(1105, 516)","(1095, 513)",0.34,1.04,30.0,0.35,0.12,0.36,0.02,-15.5,0.07,0.33,19.6,38.9,66.3,8.55,18.0,39.55,15.23,30.76,44.41
1833,-1048576,80,-56,-1,-1,0,"(1038, 389)","(1036, 416)","(1037, 443)","(1041, 470)","(1047, 498)","(1058, 526)","(1071, 551)","(1089, 573)","(1115, 581)","(1144, 579)","(1173, 565)","(1198, 545)","(1219, 519)","(1233, 490)","(1240, 458)","(1244, 425)","(1245, 391)","(1039, 369)","(1048, 358)","(1064, 356)","(1080, 361)","(1096, 370)","(1129, 369)","(1150, 360)","(1173, 358)","(1195, 364)","(1212, 378)","(1111, 391)","(1108, 412)","(1105, 434)","(1101, 455)","(1087, 466)","(1095, 472)","(1106, 476)","(1118, 473)","(1130, 469)","(1057, 389)","(1066, 382)","(1080, 383)","(1092, 393)","(1078, 396)","(1065, 395)","(1146, 396)","(1159, 386)","(1174, 387)","(1186, 395)","(1174, 401)","(1159, 400)","(1080, 504)","(1088, 500)","(1099, 498)","(1108, 502)","(1119, 499)","(1136, 503)","(1154, 509)","(1137, 523)","(1121, 529)","(1109, 529)","(1099, 527)","(1089, 519)","(1086, 506)","(1099, 507)","(1108, 509)","(1119, 508)","(1147, 509)","(1120, 514)","(1109, 514)","(1100, 512)",0.34,1.17,30.0,0.36,0.06,0.35,0.03,-14.5,0.09,0.33,18.4,35.7,60.7,8.1,16.05,37.8,12.58,25.82,40.23
1866,-720896,80,-56,-1,-1,0,"(1038, 389)","(1035, 416)","(1037, 443)","(1041, 471)","(1047, 498)","(1058, 526)","(1071, 551)","(1090, 572)","(1115, 580)","(1145, 578)","(1174, 564)","(1199, 543)","(1219, 518)","(1233, 488)","(1240, 457)","(1244, 424)","(1245, 390)","(1039, 369)","(1048, 358)","(1064, 356)","(1081, 360)","(1097, 369)","(1130, 368)","(1151, 359)","(1174, 357)","(1196, 363)","(1212, 377)","(1112, 390)","(1109, 411)","(1106, 432)","(1103, 453)","(1088, 464)","(1097, 470)","(1107, 475)","(1120, 471)","(1132, 467)","(1058, 388)","(1067, 381)","(1081, 382)","(1093, 392)","(1080, 395)","(1066, 394)","(1146, 394)","(1159, 384)","(1174, 385)","(1187, 393)","(1175, 399)","(1159, 399)","(1081, 503)","(1089, 498)","(1100, 496)","(1109, 499)","(1120, 497)","(1137, 501)","(1155, 507)","(1138, 521)","(1122, 527)","(1110, 527)","(1100, 525)","(1090, 518)","(1087, 504)","(1100, 505)","(1109, 507)","(1120, 506)","(1148, 508)","(1121, 512)","(1110, 513)","(1101, 511)",0.35,1.16,30.0,0.36,0.05,0.35,0.02,-14.5,0.09,0.33,16.3,33.1,57.0,7.65,17.35,39.25,12.82,26.47,40.52
1900,-1048576,80,-56,-1,-1,0,"(1037, 385)","(1034, 413)","(1036, 440)","(1040, 468)","(1046, 496)","(1057, 523)","(1071, 549)","(1090, 570)","(1116, 578)","(1146, 575)","(1175, 561)","(1199, 540)","(1219, 515)","(1233, 485)","(1240, 454)","(1244, 421)","(1245, 389)","(1040, 366)","(1050, 355)","(1066, 354)","(1082, 358)","(1098, 367)","(1131, 366)","(1152, 357)","(1175, 355)","(1197, 361)","(1213, 375)","(1114, 388)","(1111, 409)","(1107, 429)","(1104, 451)","(1089, 462)","(1098, 468)","(1108, 472)","(1121, 469)","(1132, 465)","(1059, 386)","(1068, 378)","(1082, 379)","(1094, 390)","(1081, 393)","(1067, 392)","(1147, 392)","(1160, 382)","(1175, 382)","(1187, 391)","(1175, 397)","(1160, 397)","(1081, 501)","(1090, 496)","(1101, 494)","(1110, 498)","(1121, 495)","(1137, 499)","(1155, 505)","(1139, 519)","(1122, 525)","(1111, 525)","(1101, 523)","(1091, 516)","(1087, 503)","(1101, 503)","(1110, 505)","(1121, 505)","(1148, 506)","(1122, 510)","(1111, 510)","(1102, 508)",0.37,1.12,30.0,0.36,0.06,0.35,0.03,-15.0,0.08,0.33,16.8,33.2,58.7,8.0,17.1,39.55,13.41,26.94,41.23
1933,-1048576,80,-56,-1,-1,0,"(1038, 385)","(1036, 412)","(1037, 440)","(1041, 467)","(1047, 495)","(1058, 522)","(1072, 547)","(1091, 568)","(1117, 576)","(1146, 574)","(1175, 560)","(1199, 540)","(1219, 515)","(1233, 486)","(1240, 454)","(1244, 422)","(1245, 389)","(1042, 366)","(1051, 353)","(1067, 352)","(1084, 356)","(1100, 364)","(1132, 363)","(1153, 355)","(1176, 353)","(1198, 359)","(1213, 374)","(1115, 386)","(1112, 406)","(1109, 427)","(1105, 448)","(1091, 460)","(1099, 466)","(1110, 470)","(1122, 466)","(1134, 462)","(1060, 384)","(1070, 377)","(1084, 378)","(1096, 388)","(1082, 391)","(1069, 391)","(1149, 390)","(1161, 380)","(1176, 381)","(1188, 389)","(1177, 395)","(1162, 395)","(1083, 500)","(1092, 494)","(1103, 492)","(1112, 495)","(1122, 493)","(1139, 497)","(1157, 503)","(1140, 517)","(1124, 522)","(1113, 523)","(1103, 521)","(1092, 514)","(1089, 501)","(1102, 501)","(1112, 503)","(1122, 502)","(1149, 504)","(1123, 508)","(1113, 508)","(1103, 506)",0.37,1.13,30.0,0.36,0.05,0.35,0.02,-14.5,0.09,0.32,16.1,34.0,60.0,8.25,17.95,40.35,13.05,26.94,41.58
1966,-983040,80,-56,-1,-1,0,"(1038, 383)","(1036, 411)","(1038, 438)","(1041, 466)","(1048, 494)","(1058, 521)","(1073, 546)","(1092, 567)","(1118, 574)","(1148, 571)","(1176, 557)","(1201, 537)","(1220, 512)","(1233, 483)","(1240, 452)","(1244, 419)","(1245, 387)","(1042, 365)","(1052, 352)","(1068, 350)","(1086, 355)","(1102, 363)","(1133, 362)","(1154, 353)","(1177, 351)","(1199, 357)","(1214, 372)","(1116, 384)","(1114, 404)","(1110, 424)","(1107, 446)","(1092, 458)","(1101, 463)","(1111, 467)","(1123, 464)","(1135, 460)","(1061, 383)","(1071, 375)","(1085, 376)","(1097, 387)","(1083, 390)","(1070, 389)","(1149, 388)","(1162, 379)","(1177, 379)","(1189, 388)","(1177, 393)","(1162, 393)","(1084, 498)","(1093, 492)","(1104, 490)","(1113, 493)","(1123, 490)","(1139, 494)","(1157, 501)","(1141, 514)","(1125, 519)","(1114, 520)","(1104, 518)","(1093, 512)","(1090, 499)","(1104, 499)","(1113, 500)","(1123, 500)","(1150, 501)","(1124, 505)","(1114, 506)","(1105, 503)",0.35,1.11,30.0,0.36,0.04,0.35,0.03,-14.5,0.09,0.32,15.3,33.7,60.2,9.0,17.7,39.3,12.52,27.11,41.17
2000,7929856,80,-56,-1,-1,0,"(1037, 379)","(1035, 407)","(1036, 435)","(1040, 463)","(1047, 491)","(1057, 518)","(1073, 543)","(1092, 564)","(1119, 571)","(1149, 569)","(1177, 555)","(1202, 535)","(1222, 510)","(1235, 481)","(1241, 450)","(1246, 417)","(1247, 385)","(1043, 360)","(1053, 348)","(1070, 347)","(1087, 352)","(1103, 360)","(1136, 360)","(1156, 352)","(1178, 349)","(1200, 355)","(1216, 370)","(1118, 381)","(1115, 401)","(1112, 422)","(1109, 443)","(1094, 455)","(1102, 460)","(1113, 464)","(1125, 461)","(1136, 457)","(1062, 379)","(1072, 372)","(1086, 373)","(1098, 384)","(1084, 387)","(1071, 386)","(1151, 386)","(1164, 377)","(1179, 377)","(1191, 386)","(1179, 391)","(1164, 391)","(1084, 494)","(1094, 489)","(1105, 486)","(1114, 490)","(1125, 487)","(1141, 491)","(1159, 498)","(1142, 510)","(1127, 516)","(1115, 516)","(1105, 514)","(1095, 508)","(1091, 495)","(1105, 495)","(1115, 497)","(1125, 496)","(1152, 498)","(1126, 501)","(1116, 502)","(1106, 500)",0.35,1.07,30.0,0.36,0.06,0.35,0.02,-14.5,0.08,0.32,15.8,34.8,59.8,7.5,17.3,39.85,12.23,27.7,41.17
2033,-2949120,80,-56,-1,-1,0,"(1038, 377)","(1036, 405)","(1038, 433)","(1041, 461)","(1048, 489)","(1059, 516)","(1074, 541)","(1094, 561)","(1121, 568)","(1151, 566)","(1179, 552)","(1204, 532)","(1223, 508)","(1236, 479)","(1243, 448)","(1247, 415)","(1249, 384)","(1045, 359)","(1055, 347)","(1072, 346)","(1089, 350)","(1106, 359)","(1138, 357)","(1159, 349)","(1181, 347)","(1203, 353)","(1218, 368)","(1121, 379)","(1118, 399)","(1115, 419)","(1112, 440)","(1097, 453)","(1105, 458)","(1115, 462)","(1127, 459)","(1138, 455)","(1065, 378)","(1074, 370)","(1088, 372)","(1100, 382)","(1087, 385)","(1073, 384)","(1153, 384)","(1166, 374)","(1181, 375)","(1193, 383)","(1181, 389)","(1167, 388)","(1086, 492)","(1096, 487)","(1107, 484)","(1117, 488)","(1127, 485)","(1143, 489)","(1161, 496)","(1145, 508)","(1129, 514)","(1118, 514)","(1107, 512)","(1097, 505)","(1093, 493)","(1107, 493)","(1117, 495)","(1127, 494)","(1154, 496)","(1128, 499)","(1118, 500)","(1108, 497)",0.35,1.07,30.0,0.35,0.06,0.35,0.02,-15.0,0.08,0.32,15.5,35.8,63.1,8.15,17.85,40.0,14.23,28.11,41.35
2066,-393216,80,-56,-1,-1,0,"(1038, 375)","(1036, 403)","(1038, 431)","(1041, 460)","(1049, 487)","(1061, 514)","(1076, 539)","(1096, 559)","(1123, 566)","(1153, 563)","(1180, 549)","(1205, 530)","(1224, 506)","(1237, 477)","(1243, 446)","(1247, 414)","(1249, 382)","(1046, 357)","(1057, 345)","(1074, 344)","(1092, 349)","(1108, 357)","(1139, 356)","(1159, 348)","(1181, 346)","(1202, 351)","(1217, 365)","(1122, 378)","(1120, 397)","(1117, 417)","(1114, 437)","(1098, 450)","(1107, 456)","(1117, 459)","(1129, 456)","(1141, 453)","(1066, 376)","(1076, 369)","(1090, 370)","(1102, 381)","(1089, 383)","(1075, 383)","(1154, 383)","(1167, 373)","(1182, 374)","(1193, 382)","(1182, 387)","(1167, 387)","(1088, 489)","(1098, 483)","(1110, 481)","(1119, 484)","(1129, 482)","(1145, 486)","(1163, 493)","(1147, 505)","(1131, 511)","(1120, 511)","(1110, 510)","(1098, 503)","(1094, 490)","(1109, 490)","(1119, 492)","(1129, 491)","(1156, 493)","(1130, 496)","(1120, 497)","(1110, 495)",0.34,1.07,30.0,0.35,0.05,0.35,0.02,-14.0,0.09,0.31,17.5,36.1,61.7,8.4,18.85,39.8,13.11,27.7,41.52
2100,65536,80,-56,-1,-1,0,"(1038, 373)","(1036, 401)","(1038, 429)","(1042, 457)","(1049, 485)","(1061, 512)","(1076, 536)","(1097, 556)","(1124, 563)","(1154, 560)","(1181, 546)","(1205, 527)","(1223, 503)","(1236, 474)","(1242, 443)","(1246, 412)","(1247, 381)","(1048, 354)","(1059, 343)","(1076, 342)","(1094, 347)","(1110, 355)","(1141, 354)","(1161, 346)","(1182, 344)","(1203, 349)","(1218, 363)","(1124, 375)","(1122, 395)","(1119, 414)","(1116, 435)","(1101, 447)","(1109, 453)","(1119, 456)","(1131, 453)","(1142, 450)","(1068, 374)","(1078, 367)","(1092, 368)","(1103, 378)","(1090, 381)","(1077, 380)","(1156, 380)","(1168, 371)","(1183, 371)","(1194, 379)","(1183, 385)","(1169, 384)","(1090, 486)","(1100, 480)","(1111, 478)","(1120, 481)","(1131, 479)","(1147, 483)","(1164, 490)","(1148, 502)","(1133, 508)","(1122, 508)","(1111, 506)","(1100, 499)","(1097, 487)","(1111, 487)","(1121, 488)","(1131, 488)","(1157, 490)","(1132, 493)","(1122, 494)","(1112, 492)",0.35,1.07,30.0,0.35,0.06,0.35,0.03,-14.0,0.08,0.31,17.2,35.3,59.9,9.25,18.9,41.15,13.7,28.64,43.64
2133,1179648,80,-56,-1,-1,0,"(1038, 372)","(1036, 400)","(1038, 428)","(1041, 456)","(1049, 483)","(1061, 510)","(1078, 534)","(1099, 554)","(1126, 560)","(1156, 558)","(1183, 544)","(1206, 524)","(1225, 500)","(1237, 472)","(1243, 441)","(1247, 410)","(1248, 380)","(1050, 353)","(1061, 341)","(1079, 340)","(1096, 345)","(1113, 353)","(1143, 352)","(1163, 344)","(1184, 342)","(1205, 347)","(1219, 361)","(1127, 373)","(1125, 392)","(1122, 412)","(1120, 432)","(1103, 445)","(1112, 450)","(1122, 454)","(1134, 451)","(1145, 447)","(1069, 372)","(1080, 365)","(1094, 366)","(1105, 376)","(1092, 379)","(1079, 378)","(1158, 378)","(1170, 369)","(1185, 369)","(1196, 377)","(1185, 383)","(1171, 382)","(1092, 484)","(1103, 478)","(1114, 475)","(1123, 478)","(1133, 476)","(1149, 480)","(1166, 487)","(1150, 500)","(1135, 505)","(1124, 505)","(1114, 504)","(1103, 497)","(1099, 485)","(1114, 484)","(1123, 486)","(1134, 485)","(1159, 488)","(1135, 490)","(1124, 491)","(1115, 488)",0.35,1.04,30.0,0.35,0.05,0.35,0.02,-14.0,0.08,0.31,17.7,36.0,60.0,9.25,19.1,41.9,14.7,29.23,43.58
2166,3670016,80,-56,-1,-1,0,"(1043, 367)","(1041, 394)","(1042, 422)","(1045, 449)","(1052, 477)","(1064, 504)","(1080, 529)","(1101, 550)","(1128, 557)","(1157, 554)","(1184, 540)","(1207, 520)","(1225, 495)","(1237, 467)","(1243, 437)","(1246, 406)","(1247, 376)","(1054, 350)","(1065, 339)","(1081, 338)","(1099, 343)","(1115, 352)","(1147, 350)","(1167, 342)","(1188, 340)","(1208, 345)","(1222, 359)","(1130, 371)","(1128, 391)","(1125, 410)","(1122, 430)","(1106, 442)","(1115, 447)","(1125, 451)","(1136, 448)","(1147, 445)","(1073, 370)","(1083, 363)","(1097, 364)","(1109, 374)","(1095, 378)","(1082, 377)","(1160, 376)","(1173, 367)","(1188, 367)","(1199, 376)","(1188, 381)","(1173, 381)","(1094, 480)","(1105, 474)","(1117, 472)","(1126, 475)","(1136, 473)","(1152, 477)","(1168, 484)","(1153, 496)","(1138, 502)","(1127, 502)","(1117, 501)","(1105, 493)","(1101, 481)","(1116, 481)","(1126, 483)","(1136, 482)","(1161, 484)","(1137, 488)","(1127, 488)","(1118, 486)",0.35,1.02,30.0,0.36,0.07,0.36,0.02,-14.5,0.08,0.31,17.5,36.6,60.9,8.4,19.25,42.5,14.11,28.7,44.0
2200,4653056,80,-56,-1,-1,0,"(1044, 366)","(1042, 394)","(1043, 421)","(1046, 449)","(1054, 476)","(1066, 502)","(1083, 526)","(1103, 546)","(1131, 553)","(1159, 551)","(1186, 537)","(1208, 517)","(1226, 493)","(1238, 465)","(1243, 435)","(1247, 405)","(1248, 375)","(1056, 348)","(1068, 337)","(1085, 337)","(1102, 342)","(1118, 350)","(1150, 349)","(1169, 341)","(1190, 339)","(1210, 343)","(1224, 357)","(1133, 370)","(1131, 389)","(1128, 408)","(1125, 427)","(1109, 440)","(1118, 445)","(1128, 449)","(1139, 446)","(1150, 442)","(1076, 369)","(1086, 362)","(1100, 363)","(1111, 373)","(1098, 376)","(1085, 375)","(1163, 375)","(1176, 366)","(1190, 366)","(1201, 374)","(1191, 380)","(1176, 379)","(1098, 477)","(1108, 471)","(1120, 469)","(1129, 472)","(1139, 470)","(1154, 474)","(1171, 481)","(1156, 493)","(1141, 498)","(1130, 499)","(1120, 497)","(1109, 490)","(1104, 478)","(1120, 478)","(1129, 480)","(1139, 480)","(1164, 481)","(1140, 484)","(1130, 485)","(1121, 482)",0.35,1.04,30.0,0.35,0.06,0.35,0.02,-14.0,0.08,0.31,17.9,36.6,61.8,9.35,19.65,41.85,13.76,28.88,44.0
2233,1114112,80,-56,-1,-1,0,"(1046, 364)","(1043, 391)","(1043, 419)","(1047, 447)","(1055, 474)","(1068, 501)","(1086, 524)","(1107, 544)","(1134, 551)","(1163, 548)","(1189, 534)","(1211, 514)","(1228, 490)","(1239, 462)","(1245, 432)","(1248, 402)","(1249, 373)","(1060, 345)","(1072, 335)","(1089, 335)","(1105, 340)","(1121, 349)","(1153, 348)","(1171, 339)","(1191, 337)","(1211, 341)","(1224, 354)","(1137, 369)","(1134, 388)","(1132, 406)","(1130, 426)","(1113, 438)","(1122, 444)","(1132, 447)","(1143, 444)","(1154, 441)","(1079, 367)","(1089, 360)","(1103, 361)","(1114, 371)","(1102, 374)","(1088, 374)","(1165, 373)","(1178, 364)","(1192, 364)","(1203, 372)","(1192, 378)","(1178, 377)","(1101, 475)","(1112, 469)","(1124, 467)","(1133, 470)","(1143, 468)","(1158, 472)","(1175, 478)","(1160, 491)","(1145, 496)","(1134, 497)","(1124, 495)","(1113, 488)","(1108, 476)","(1124, 477)","(1133, 478)","(1143, 478)","(1168, 479)","(1144, 482)","(1134, 483)","(1125, 480)",0.35,1.01,30.0,0.36,0.07,0.36,0.02,-14.0,0.08,0.31,18.4,37.1,63.6,9.65,19.65,42.45,14.76,29.41,43.88
2266,-393216,80,-56,-1,-1,0,"(1061, 364)","(1059, 390)","(1060, 416)","(1062, 442)","(1068, 468)","(1078, 495)","(1093, 519)","(1112, 538)","(1138, 546)","(1167, 544)","(1194, 531)","(1218, 512)","(1237, 489)","(1249, 461)","(1256, 432)","(1260, 401)","(1261, 371)","(1066, 346)","(1077, 335)","(1093, 334)","(1109, 339)","(1125, 347)","(1156, 346)","(1176, 338)","(1197, 336)","(1218, 342)","(1233, 355)","(1139, 366)","(1137, 385)","(1134, 404)","(1131, 424)","(1116, 435)","(1124, 440)","(1134, 444)","(1145, 441)","(1156, 438)","(1085, 365)","(1094, 358)","(1108, 359)","(1120, 369)","(1107, 372)","(1093, 371)","(1171, 371)","(1183, 362)","(1197, 363)","(1209, 371)","(1198, 376)","(1183, 376)","(1105, 470)","(1115, 465)","(1127, 463)","(1135, 467)","(1146, 465)","(1162, 469)","(1179, 475)","(1162, 487)","(1147, 493)","(1136, 493)","(1126, 491)","(1115, 484)","(1112, 472)","(1126, 472)","(1135, 474)","(1146, 474)","(1172, 476)","(1146, 479)","(1136, 479)","(1127, 477)",0.35,1.06,30.0,0.36,0.06,0.37,0.03,-14.0,0.08,0.32,18.6,37.5,61.9,10.15,21.2,44.4,13.17,27.0,38.94
2300,-655360,80,-56,-1,-1,0,"(1063, 363)","(1061, 388)","(1062, 414)","(1065, 440)","(1071, 466)","(1082, 491)","(1097, 515)","(1116, 535)","(1141, 542)","(1170, 540)","(1197, 528)","(1221, 510)","(1240, 487)","(1252, 460)","(1258, 430)","(1262, 401)","(1264, 371)","(1070, 346)","(1081, 336)","(1097, 335)","(1114, 339)","(1129, 347)","(1160, 345)","(1180, 338)","(1201, 336)","(1221, 342)","(1236, 355)","(1144, 366)","(1141, 384)","(1138, 402)","(1136, 421)","(1121, 433)","(1129, 438)","(1139, 442)","(1150, 439)","(1160, 435)","(1090, 365)","(1099, 358)","(1113, 359)","(1124, 369)","(1111, 372)","(1098, 371)","(1174, 371)","(1186, 362)","(1200, 363)","(1211, 371)","(1201, 376)","(1187, 375)","(1110, 468)","(1120, 463)","(1131, 461)","(1140, 464)","(1150, 462)","(1166, 466)","(1183, 472)","(1167, 484)","(1151, 489)","(1140, 489)","(1131, 487)","(1120, 481)","(1116, 469)","(1131, 470)","(1140, 471)","(1150, 471)","(1176, 473)","(1151, 476)","(1141, 476)","(1132, 474)",0.35,1.07,30.0,0.35,0.07,0.36,0.02,-14.0,0.07,0.31,16.9,34.4,58.7,10.3,20.9,45.45,11.58,24.7,36.76
2333,-655360,80,-56,-1,-1,0,"(1065, 361)","(1063, 387)","(1064, 413)","(1067, 439)","(1073, 465)","(1084, 490)","(1099, 514)","(1119, 533)","(1145, 540)","(1173, 539)","(1200, 526)","(1223, 508)","(1241, 485)","(1253, 458)","(1258, 429)","(1262, 399)","(1264, 370)","(1075, 346)","(1086, 335)","(1102, 334)","(1118, 338)","(1134, 346)","(1165, 345)","(1184, 337)","(1204, 336)","(1224, 341)","(1238, 354)","(1148, 365)","(1146, 383)","(1143, 401)","(1140, 420)","(1125, 431)","(1133, 436)","(1143, 440)","(1154, 437)","(1165, 434)","(1094, 364)","(1104, 358)","(1117, 358)","(1128, 368)","(1116, 371)","(1103, 370)","(1177, 370)","(1190, 361)","(1203, 362)","(1214, 370)","(1204, 375)","(1190, 374)","(1114, 465)","(1124, 461)","(1136, 459)","(1144, 462)","(1154, 460)","(1169, 464)","(1186, 469)","(1170, 482)","(1155, 487)","(1145, 487)","(1135, 486)","(1124, 479)","(1120, 467)","(1135, 467)","(1144, 469)","(1154, 469)","(1180, 470)","(1155, 474)","(1145, 474)","(1136, 472)",0.35,1.04,30.0,0.35,0.06,0.36,0.02,-13.5,0.08,0.31,17.5,34.8,58.2,9.45,20.6,44.3,9.47,23.58,35.41
2366,-655360,80,-56,-1,-1,0,"(1068, 361)","(1066, 386)","(1067, 411)","(1069, 437)","(1076, 463)","(1087, 488)","(1102, 511)","(1122, 530)","(1148, 537)","(1176, 536)","(1202, 523)","(1225, 506)","(1242, 483)","(1254, 457)","(1260, 428)","(1264, 399)","(1266, 371)","(1081, 345)","(1092, 335)","(1108, 334)","(1124, 338)","(1140, 346)","(1169, 345)","(1188, 338)","(1207, 336)","(1227, 341)","(1240, 354)","(1153, 364)","(1151, 382)","(1148, 400)","(1146, 419)","(1130, 430)","(1138, 435)","(1148, 439)","(1159, 436)","(1169, 432)","(1099, 364)","(1109, 357)","(1122, 358)","(1133, 367)","(1121, 370)","(1108, 369)","(1182, 370)","(1194, 361)","(1207, 362)","(1218, 369)","(1208, 374)","(1194, 373)","(1118, 463)","(1129, 459)","(1140, 457)","(1149, 460)","(1159, 458)","(1174, 462)","(1190, 468)","(1175, 480)","(1160, 484)","(1150, 485)","(1140, 483)","(1129, 476)","(1124, 464)","(1140, 465)","(1149, 466)","(1159, 466)","(1184, 468)","(1159, 472)","(1150, 472)","(1141, 470)",0.33,1.02,30.0,0.35,0.07,0.36,0.03,-13.0,0.08,0.31,16.1,33.1,55.6,8.35,20.6,45.25,8.35,21.88,34.41
2400,-655360,80,-56,-1,-1,0,"(1070, 358)","(1067, 383)","(1068, 408)","(1070, 434)","(1076, 460)","(1088, 485)","(1104, 508)","(1124, 527)","(1151, 534)","(1178, 534)","(1204, 522)","(1226, 504)","(1243, 482)","(1254, 456)","(1260, 428)","(1264, 399)","(1267, 371)","(1084, 344)","(1096, 334)","(1112, 333)","(1129, 338)","(1144, 346)","(1173, 345)","(1192, 338)","(1211, 336)","(1230, 342)","(1243, 355)","(1158, 364)","(1156, 382)","(1153, 399)","(1150, 418)","(1134, 428)","(1142, 433)","(1152, 437)","(1163, 435)","(1174, 431)","(1103, 362)","(1113, 356)","(1126, 357)","(1136, 366)","(1124, 369)","(1112, 368)","(1185, 369)","(1198, 361)","(1211, 362)","(1221, 369)","(1211, 374)","(1198, 373)","(1121, 460)","(1132, 456)","(1144, 455)","(1153, 458)","(1163, 457)","(1178, 460)","(1194, 466)","(1178, 478)","(1164, 483)","(1153, 483)","(1143, 481)","(1132, 474)","(1127, 462)","(1144, 463)","(1153, 464)","(1163, 464)","(1187, 467)","(1163, 470)","(1154, 471)","(1144, 468)",0.33,1.0,30.0,0.35,0.08,0.37,0.03,-13.0,0.08,0.31,15.5,32.7,53.7,10.35,21.75,46.85,10.0,22.94,35.76
2433,-720896,80,-56,-1,-1,0,"(1072, 357)","(1069, 382)","(1068, 408)","(1071, 434)","(1077, 460)","(1089, 485)","(1106, 508)","(1127, 526)","(1153, 533)","(1181, 532)","(1206, 521)","(1228, 503)","(1246, 481)","(1257, 455)","(1263, 427)","(1267, 399)","(1269, 372)","(1089, 343)","(1101, 334)","(1117, 334)","(1133, 338)","(1149, 346)","(1179, 346)","(1197, 339)","(1216, 337)","(1235, 342)","(1247, 355)","(1163, 364)","(1160, 382)","(1158, 399)","(1155, 417)","(1138, 427)","(1147, 432)","(1156, 436)","(1168, 434)","(1178, 430)","(1108, 362)","(1118, 356)","(1131, 357)","(1141, 366)","(1129, 369)","(1117, 367)","(1189, 369)","(1202, 361)","(1215, 362)","(1225, 369)","(1215, 374)","(1202, 373)","(1124, 458)","(1135, 455)","(1148, 454)","(1157, 457)","(1167, 455)","(1182, 458)","(1197, 464)","(1182, 475)","(1167, 480)","(1157, 480)","(1147, 478)","(1135, 472)","(1130, 460)","(1147, 461)","(1156, 463)","(1166, 462)","(1191, 465)","(1167, 469)","(1157, 469)","(1148, 466)",0.33,0.97,31.0,0.35,0.09,0.37,0.02,-13.0,0.07,0.31,14.6,30.6,54.3,10.15,21.7,46.3,10.35,23.11,36.41
2466,-851968,80,-56,-1,-1,0,"(1083, 361)","(1080, 386)","(1081, 411)","(1083, 435)","(1090, 460)","(1100, 484)","(1115, 506)","(1134, 524)","(1159, 531)","(1187, 530)","(1213, 519)","(1236, 502)","(1255, 480)","(1267, 455)","(1273, 427)","(1277, 399)","(1279, 371)","(1094, 345)","(1106, 335)","(1122, 334)","(1138, 338)","(1153, 346)","(1183, 345)","(1201, 338)","(1221, 337)","(1240, 342)","(1253, 355)","(1166, 364)","(1164, 381)","(1161, 398)","(1159, 416)","(1143, 426)","(1151, 431)","(1160, 435)","(1171, 432)","(1182, 429)","(1113, 363)","(1123, 357)","(1135, 357)","(1146, 367)","(1134, 369)","(1122, 368)","(1195, 369)","(1206, 361)","(1220, 362)","(1230, 369)","(1220, 374)","(1207, 373)","(1129, 458)","(1140, 453)","(1152, 451)","(1161, 454)","(1171, 453)","(1186, 456)","(1202, 463)","(1186, 475)","(1171, 480)","(1160, 480)","(1151, 478)","(1140, 471)","(1135, 459)","(1152, 459)","(1161, 460)","(1171, 460)","(1196, 463)","(1171, 467)","(1161, 468)","(1152, 465)",0.34,1.0,31.0,0.34,0.07,0.37,0.03,-12.5,0.08,0.31,15.4,32.2,54.7,9.15,23.0,46.85,8.05,21.52,32.82
2500,-851968,80,-56,-1,-1,0,"(1085, 359)","(1083, 384)","(1083, 409)","(1085, 434)","(1091, 459)","(1102, 483)","(1118, 505)","(1137, 523)","(1163, 530)","(1190, 529)","(1216, 517)","(1240, 501)","(1258, 479)","(1269, 454)","(1275, 426)","(1279, 398)","(1281, 370)","(1098, 344)","(1110, 335)","(1126, 334)","(1142, 338)","(1157, 346)","(1186, 345)","(1204, 338)","(1223, 337)","(1242, 342)","(1255, 355)","(1170, 363)","(1168, 380)","(1165, 397)","(1162, 415)","(1146, 424)","(1154, 429)","(1164, 434)","(1175, 431)","(1185, 428)","(1117, 362)","(1127, 356)","(1139, 357)","(1150, 366)","(1138, 368)","(1126, 367)","(1197, 369)","(1209, 361)","(1222, 362)","(1232, 369)","(1222, 373)","(1209, 372)","(1132, 455)","(1143, 450)","(1155, 449)","(1164, 453)","(1175, 451)","(1190, 454)","(1206, 461)","(1190, 473)","(1175, 478)","(1164, 478)","(1154, 476)","(1143, 469)","(1138, 456)","(1155, 456)","(1164, 458)","(1174, 458)","(1200, 461)","(1175, 467)","(1164, 467)","(1155, 464)",0.31,1.0,31.0,0.34,0.08,0.37,0.03,-12.0,0.07,0.31,15.5,31.4,53.2,9.65,23.0,47.8,8.29,21.7,32.94
2533,-851968,80,-56,-1,-1,0,"(1086, 360)","(1084, 385)","(1084, 410)","(1086, 435)","(1093, 460)","(1104, 483)","(1120, 504)","(1140, 521)","(1166, 528)","(1192, 526)","(1218, 516)","(1241, 499)","(1258, 478)","(1270, 454)","(1275, 426)","(1279, 399)","(1281, 372)","(1101, 345)","(1112, 335)","(1129, 333)","(1145, 337)","(1161, 346)","(1188, 345)","(1207, 338)","(1226, 337)","(1245, 343)","(1258, 356)","(1174, 363)","(1171, 379)","(1168, 396)","(1166, 414)","(1149, 423)","(1157, 428)","(1167, 432)","(1178, 430)","(1189, 427)","(1120, 362)","(1129, 356)","(1142, 357)","(1152, 366)","(1141, 367)","(1129, 366)","(1201, 368)","(1212, 361)","(1225, 362)","(1235, 369)","(1225, 373)","(1212, 372)","(1134, 452)","(1146, 448)","(1158, 447)","(1168, 451)","(1178, 449)","(1194, 452)","(1210, 459)","(1194, 471)","(1179, 476)","(1167, 476)","(1157, 474)","(1145, 467)","(1140, 454)","(1158, 454)","(1168, 456)","(1178, 456)","(1204, 459)","(1179, 465)","(1168, 465)","(1158, 462)",0.32,1.0,31.0,0.33,0.08,0.38,0.03,-11.5,0.07,0.3,15.4,30.9,54.8,10.45,24.2,48.85,8.35,21.29,33.05
2566,-983040,80,-56,-1,-1,0,"(1104, 366)","(1101, 388)","(1101, 411)","(1103, 434)","(1108, 458)","(1117, 480)","(1130, 501)","(1147, 518)","(1169, 525)","(1195, 524)","(1220, 513)","(1241, 497)","(1259, 478)","(1271, 454)","(1277, 428)","(1281, 401)","(1282, 374)","(1112, 348)","(1120, 337)","(1134, 334)","(1149, 337)","(1163, 344)","(1191, 344)","(1208, 337)","(1227, 336)","(1246, 342)","(1258, 355)","(1175, 363)","(1173, 379)","(1170, 395)","(1167, 412)","(1152, 422)","(1160, 427)","(1169, 431)","(1180, 428)","(1191, 425)","(1127, 363)","(1136, 357)","(1147, 358)","(1157, 366)","(1146, 368)","(1135, 367)","(1203, 368)","(1214, 361)","(1227, 362)","(1237, 369)","(1227, 372)","(1214, 372)","(1138, 451)","(1149, 447)","(1160, 445)","(1170, 448)","(1180, 447)","(1195, 451)","(1212, 458)","(1196, 471)","(1180, 476)","(1169, 476)","(1159, 474)","(1148, 467)","(1144, 453)","(1160, 452)","(1169, 454)","(1180, 454)","(1206, 458)","(1180, 465)","(1169, 465)","(1160, 463)",0.3,1.03,31.0,0.36,0.04,0.41,0.04,-11.0,0.08,0.3,15.5,34.2,58.4,11.35,23.5,48.4,8.17,20.05,34.35
2600,-655360,80,-56,-1,-1,0,"(1105, 365)","(1103, 387)","(1103, 410)","(1105, 433)","(1110, 457)","(1119, 479)","(1132, 500)","(1149, 516)","(1172, 523)","(1197, 521)","(1221, 511)","(1242, 495)","(1259, 475)","(1270, 451)","(1276, 425)","(1280, 399)","(1282, 372)","(1112, 348)","(1121, 337)","(1135, 334)","(1151, 337)","(1165, 344)","(1193, 343)","(1210, 336)","(1229, 335)","(1247, 341)","(1259, 355)","(1177, 362)","(1174, 378)","(1172, 395)","(1169, 412)","(1154, 421)","(1162, 426)","(1171, 430)","(1182, 427)","(1193, 424)","(1128, 363)","(1137, 357)","(1148, 357)","(1159, 366)","(1148, 367)","(1136, 367)","(1204, 367)","(1215, 360)","(1228, 360)","(1237, 367)","(1228, 371)","(1215, 370)","(1141, 450)","(1151, 446)","(1162, 444)","(1172, 447)","(1182, 446)","(1198, 449)","(1214, 456)","(1198, 470)","(1182, 476)","(1171, 476)","(1161, 474)","(1150, 466)","(1146, 451)","(1162, 451)","(1172, 453)","(1182, 452)","(1208, 456)","(1182, 464)","(1172, 465)","(1162, 462)",0.31,1.06,31.0,0.36,0.05,0.41,0.04,-10.5,0.09,0.31,16.8,33.4,58.4,9.6,21.75,46.35,8.88,21.52,36.11
2633,-983040,80,-56,-1,-1,0,"(1105, 365)","(1103, 387)","(1103, 410)","(1105, 434)","(1110, 457)","(1119, 479)","(1133, 499)","(1150, 516)","(1173, 523)","(1198, 521)","(1222, 511)","(1243, 495)","(1260, 475)","(1272, 451)","(1277, 425)","(1281, 398)","(1282, 372)","(1113, 349)","(1122, 338)","(1136, 334)","(1152, 337)","(1166, 344)","(1193, 344)","(1210, 337)","(1229, 336)","(1247, 342)","(1259, 355)","(1177, 362)","(1175, 378)","(1172, 394)","(1170, 411)","(1154, 420)","(1162, 425)","(1172, 429)","(1183, 426)","(1193, 423)","(1130, 363)","(1138, 357)","(1149, 358)","(1159, 366)","(1148, 367)","(1137, 367)","(1204, 368)","(1215, 360)","(1227, 361)","(1237, 367)","(1227, 371)","(1215, 370)","(1142, 449)","(1151, 444)","(1163, 443)","(1173, 446)","(1183, 444)","(1198, 448)","(1214, 455)","(1199, 469)","(1183, 475)","(1172, 475)","(1162, 472)","(1150, 465)","(1147, 450)","(1163, 449)","(1172, 451)","(1183, 451)","(1209, 455)","(1183, 463)","(1172, 463)","(1162, 461)",0.3,1.06,31.0,0.35,0.03,0.4,0.05,-10.5,0.09,0.3,14.4,30.7,53.4,10.2,22.0,47.1,8.11,20.76,33.94
2666,-983040,80,-56,-1,-1,0,"(1106, 363)","(1104, 386)","(1104, 409)","(1106, 432)","(1111, 456)","(1120, 478)","(1134, 498)","(1151, 515)","(1174, 522)","(1199, 520)","(1223, 509)","(1244, 493)","(1261, 473)","(1272, 450)","(1278, 424)","(1281, 398)","(1283, 372)","(1115, 349)","(1123, 338)","(1137, 334)","(1152, 337)","(1166, 344)","(1194, 343)","(1211, 336)","(1229, 335)","(1247, 341)","(1259, 355)","(1178, 362)","(1176, 377)","(1173, 393)","(1170, 410)","(1155, 419)","(1163, 424)","(1172, 428)","(1183, 425)","(1194, 422)","(1131, 363)","(1139, 357)","(1150, 358)","(1160, 366)","(1149, 367)","(1138, 367)","(1205, 367)","(1216, 360)","(1228, 361)","(1238, 367)","(1228, 370)","(1216, 370)","(1142, 448)","(1152, 443)","(1164, 441)","(1173, 444)","(1183, 443)","(1199, 446)","(1215, 453)","(1199, 468)","(1183, 474)","(1172, 474)","(1162, 472)","(1151, 464)","(1147, 449)","(1163, 448)","(1173, 450)","(1183, 449)","(1209, 454)","(1183, 463)","(1173, 463)","(1163, 461)",0.28,1.06,31.0,0.35,0.04,0.41,0.05,-10.0,0.09,0.3,16.0,31.9,55.7,10.6,22.1,47.6,8.64,20.64,34.58
2700,-917504,80,-56,-1,-1,0,"(1107, 363)","(1105, 386)","(1105, 408)","(1106, 432)","(1111, 455)","(1120, 477)","(1134, 498)","(1150, 514)","(1173, 521)","(1199, 519)","(1223, 509)","(1244, 493)","(1261, 473)","(1272, 450)","(1278, 424)","(1281, 398)","(1283, 372)","(1115, 348)","(1123, 337)","(1137, 334)","(1152, 336)","(1166, 343)","(1193, 343)","(1210, 336)","(1229, 335)","(1247, 342)","(1259, 355)","(1178, 361)","(1175, 377)","(1172, 393)","(1169, 410)","(1155, 418)","(1163, 423)","(1172, 427)","(1183, 424)","(1194, 421)","(1131, 362)","(1139, 356)","(1150, 357)","(1160, 365)","(1149, 366)","(1138, 366)","(1205, 367)","(1216, 360)","(1228, 360)","(1237, 367)","(1228, 370)","(1216, 369)","(1141, 446)","(1151, 442)","(1163, 441)","(1173, 443)","(1183, 442)","(1199, 445)","(1216, 452)","(1200, 467)","(1184, 473)","(1172, 473)","(1162, 471)","(1150, 463)","(1146, 448)","(1163, 446)","(1173, 448)","(1183, 448)","(1210, 453)","(1184, 462)","(1173, 463)","(1163, 460)",0.29,1.06,31.0,0.34,0.04,0.42,0.05,-10.0,0.09,0.3,16.0,32.2,55.3,9.35,22.05,47.7,8.29,20.0,33.76
2733,8323072,80,-56,-1,-1,0,"(1107, 364)","(1104, 387)","(1104, 409)","(1106, 432)","(1112, 455)","(1120, 477)","(1133, 498)","(1150, 514)","(1173, 521)","(1198, 519)","(1222, 508)","(1243, 493)","(1259, 473)","(1271, 450)","(1276, 424)","(1280, 397)","(1282, 371)","(1113, 349)","(1121, 338)","(1136, 334)","(1151, 337)","(1165, 344)","(1192, 343)","(1209, 336)","(1228, 335)","(1246, 342)","(1258, 355)","(1177, 361)","(1174, 377)","(1172, 393)","(1169, 409)","(1154, 418)","(1162, 423)","(1171, 427)","(1183, 424)","(1193, 421)","(1130, 363)","(1138, 357)","(1149, 358)","(1159, 365)","(1148, 367)","(1137, 366)","(1204, 367)","(1215, 360)","(1227, 360)","(1237, 367)","(1227, 370)","(1215, 369)","(1140, 446)","(1150, 441)","(1163, 440)","(1172, 443)","(1183, 441)","(1199, 444)","(1216, 451)","(1200, 467)","(1183, 473)","(1172, 474)","(1161, 472)","(1150, 463)","(1146, 448)","(1162, 446)","(1172, 448)","(1183, 448)","(1210, 452)","(1183, 462)","(1172, 463)","(1162, 460)",0.28,1.05,31.0,0.35,0.04,0.43,0.06,-10.0,0.09,0.3,16.1,32.3,55.2,9.85,23.4,47.85,9.64,21.0,35.11
2766,-3604480,80,-56,-1,-1,0,"(1105, 364)","(1103, 387)","(1103, 410)","(1105, 433)","(1111, 456)","(1121, 478)","(1134, 498)","(1150, 515)","(1173, 521)","(1198, 519)","(1221, 508)","(1242, 492)","(1259, 472)","(1270, 449)","(1276, 423)","(1279, 397)","(1280, 371)","(1112, 349)","(1121, 338)","(1135, 335)","(1150, 337)","(1164, 344)","(1191, 344)","(1207, 337)","(1226, 336)","(1244, 341)","(1256, 354)","(1176, 362)","(1174, 378)","(1171, 394)","(1169, 410)","(1153, 419)","(1161, 424)","(1171, 428)","(1182, 425)","(1192, 421)","(1128, 363)","(1137, 357)","(1148, 358)","(1158, 366)","(1147, 367)","(1136, 367)","(1203, 367)","(1213, 360)","(1225, 360)","(1235, 367)","(1225, 370)","(1213, 369)","(1140, 446)","(1150, 441)","(1162, 440)","(1172, 443)","(1183, 442)","(1199, 444)","(1215, 451)","(1199, 468)","(1183, 475)","(1171, 475)","(1161, 473)","(1149, 464)","(1145, 448)","(1162, 446)","(1172, 448)","(1183, 448)","(1209, 452)","(1183, 463)","(1172, 464)","(1161, 462)",0.29,1.05,31.0,0.35,0.02,0.42,0.06,-10.0,0.09,0.3,15.3,32.2,57.5,8.9,22.65,48.4,8.11,20.23,33.82
2800,-458752,80,-56,-1,-1,0,"(1104, 365)","(1102, 388)","(1103, 410)","(1105, 433)","(1110, 456)","(1120, 478)","(1133, 498)","(1150, 514)","(1172, 520)","(1197, 518)","(1221, 507)","(1241, 491)","(1258, 471)","(1269, 448)","(1274, 422)","(1278, 395)","(1279, 369)","(1111, 351)","(1119, 340)","(1133, 336)","(1148, 339)","(1162, 346)","(1188, 345)","(1205, 338)","(1224, 336)","(1242, 342)","(1254, 355)","(1174, 362)","(1172, 378)","(1169, 394)","(1167, 411)","(1152, 419)","(1160, 424)","(1169, 428)","(1181, 425)","(1191, 421)","(1127, 364)","(1135, 358)","(1146, 359)","(1156, 366)","(1145, 368)","(1135, 368)","(1201, 367)","(1211, 360)","(1223, 360)","(1233, 367)","(1223, 370)","(1211, 369)","(1138, 446)","(1149, 442)","(1161, 441)","(1171, 444)","(1181, 442)","(1198, 444)","(1214, 450)","(1198, 466)","(1182, 473)","(1171, 473)","(1160, 471)","(1148, 463)","(1144, 448)","(1161, 447)","(1171, 448)","(1181, 448)","(1209, 451)","(1182, 462)","(1171, 462)","(1161, 460)",0.29,1.04,31.0,0.34,0.02,0.43,0.06,-10.0,0.09,0.31,15.3,32.0,55.9,10.7,23.7,48.0,7.58,19.52,32.76
2833,0,80,-56,-1,-1,0,"(1093, 365)","(1091, 388)","(1092, 412)","(1096, 436)","(1104, 458)","(1116, 480)","(1131, 499)","(1149, 514)","(1173, 519)","(1196, 517)","(1218, 505)","(1235, 488)","(1249, 467)","(1259, 445)","(1264, 420)","(1267, 395)","(1267, 370)","(1105, 348)","(1115, 338)","(1130, 336)","(1145, 338)","(1160, 345)","(1187, 345)","(1203, 338)","(1221, 337)","(1238, 342)","(1249, 354)","(1173, 363)","(1172, 379)","(1170, 395)","(1168, 412)","(1151, 420)","(1160, 425)","(1170, 429)","(1181, 426)","(1192, 422)","(1122, 363)","(1132, 357)","(1143, 358)","(1153, 366)","(1142, 367)","(1131, 367)","(1198, 368)","(1209, 360)","(1220, 361)","(1230, 367)","(1220, 370)","(1209, 370)","(1136, 446)","(1148, 442)","(1161, 441)","(1171, 444)","(1182, 442)","(1198, 445)","(1213, 450)","(1199, 466)","(1183, 473)","(1171, 474)","(1160, 472)","(1147, 463)","(1141, 447)","(1161, 447)","(1171, 449)","(1182, 448)","(1208, 451)","(1183, 462)","(1172, 463)","(1161, 461)",0.29,0.98,31.0,0.36,0.04,0.44,0.05,-10.0,0.1,0.31,14.9,31.7,56.1,10.7,22.55,46.45,9.35,22.11,34.58
2866,917504,80,-56,-1,-1,0,"(1093, 366)","(1092, 389)","(1092, 412)","(1095, 436)","(1103, 458)","(1114, 480)","(1129, 499)","(1148, 514)","(1171, 519)","(1195, 517)","(1217, 506)","(1235, 489)","(1249, 469)","(1259, 446)","(1263, 421)","(1266, 396)","(1266, 371)","(1104, 351)","(1114, 340)","(1129, 337)","(1144, 340)","(1159, 347)","(1186, 346)","(1202, 339)","(1220, 338)","(1237, 343)","(1248, 356)","(1172, 364)","(1170, 380)","(1169, 396)","(1167, 412)","(1150, 420)","(1159, 425)","(1169, 429)","(1180, 426)","(1190, 422)","(1122, 364)","(1131, 359)","(1142, 360)","(1152, 367)","(1141, 369)","(1130, 368)","(1197, 368)","(1208, 361)","(1219, 362)","(1228, 368)","(1219, 371)","(1208, 371)","(1135, 446)","(1146, 442)","(1160, 441)","(1170, 444)","(1180, 442)","(1196, 444)","(1212, 450)","(1197, 465)","(1181, 472)","(1170, 473)","(1159, 471)","(1146, 463)","(1140, 447)","(1159, 447)","(1170, 449)","(1180, 448)","(1206, 451)","(1181, 462)","(1170, 463)","(1160, 460)",0.3,0.99,31.0,0.35,0.04,0.44,0.05,-10.0,0.1,0.3,13.7,29.2,52.5,11.35,22.65,47.0,8.41,21.47,33.29
2900,3473408,80,-56,-1,-1,0,"(1092, 364)","(1091, 388)","(1092, 411)","(1095, 434)","(1103, 457)","(1114, 478)","(1130, 497)","(1148, 513)","(1171, 518)","(1195, 516)","(1217, 504)","(1235, 487)","(1249, 466)","(1259, 443)","(1264, 418)","(1266, 392)","(1266, 367)","(1102, 351)","(1112, 340)","(1127, 338)","(1142, 340)","(1157, 347)","(1184, 346)","(1200, 339)","(1218, 337)","(1236, 342)","(1247, 355)","(1170, 364)","(1169, 380)","(1167, 396)","(1166, 412)","(1149, 420)","(1158, 425)","(1168, 429)","(1179, 425)","(1189, 421)","(1120, 364)","(1129, 359)","(1140, 359)","(1151, 367)","(1140, 369)","(1129, 368)","(1195, 368)","(1206, 361)","(1218, 361)","(1227, 367)","(1218, 370)","(1206, 370)","(1134, 445)","(1146, 442)","(1159, 441)","(1169, 444)","(1180, 442)","(1195, 444)","(1211, 449)","(1197, 465)","(1181, 472)","(1170, 473)","(1159, 471)","(1146, 463)","(1139, 447)","(1159, 446)","(1169, 448)","(1180, 447)","(1206, 450)","(1181, 462)","(1170, 463)","(1159, 460)",0.28,0.97,31.0,0.36,0.03,0.44,0.06,-9.5,0.1,0.31,15.0,31.2,53.6,9.4,21.2,44.7,8.7,22.11,33.47
2933,4849664,80,-56,-1,-1,0,"(1092, 365)","(1091, 388)","(1092, 411)","(1095, 434)","(1102, 457)","(1113, 478)","(1128, 497)","(1147, 512)","(1170, 518)","(1194, 515)","(1216, 503)","(1235, 487)","(1249, 467)","(1259, 444)","(1263, 419)","(1265, 393)","(1265, 369)","(1102, 352)","(1111, 341)","(1126, 338)","(1141, 340)","(1156, 346)","(1183, 346)","(1199, 339)","(1217, 337)","(1234, 342)","(1246, 355)","(1169, 363)","(1167, 379)","(1166, 395)","(1164, 412)","(1147, 419)","(1156, 424)","(1166, 428)","(1177, 424)","(1188, 420)","(1120, 364)","(1129, 359)","(1139, 359)","(1150, 366)","(1139, 368)","(1128, 367)","(1194, 367)","(1205, 360)","(1216, 360)","(1226, 367)","(1217, 370)","(1205, 369)","(1132, 444)","(1144, 440)","(1157, 440)","(1167, 442)","(1178, 441)","(1194, 442)","(1211, 447)","(1196, 463)","(1180, 470)","(1168, 471)","(1157, 469)","(1144, 461)","(1137, 445)","(1157, 445)","(1168, 447)","(1179, 446)","(1205, 448)","(1179, 460)","(1168, 461)","(1157, 459)",0.29,1.0,31.0,0.35,0.01,0.45,0.05,-9.5,0.1,0.31,14.0,28.7,52.4,9.85,21.2,45.1,8.11,21.29,33.41
2966,1441792,80,-56,-1,-1,0,"(1091, 363)","(1090, 387)","(1091, 410)","(1095, 433)","(1102, 455)","(1113, 476)","(1128, 495)","(1146, 511)","(1169, 516)","(1193, 514)","(1215, 502)","(1233, 486)","(1248, 466)","(1257, 443)","(1262, 418)","(1264, 392)","(1265, 367)","(1102, 350)","(1111, 339)","(1126, 336)","(1141, 339)","(1156, 346)","(1182, 345)","(1199, 338)","(1216, 336)","(1233, 342)","(1245, 354)","(1168, 362)","(1167, 378)","(1165, 393)","(1164, 410)","(1147, 418)","(1156, 422)","(1166, 426)","(1177, 423)","(1187, 419)","(1119, 362)","(1128, 357)","(1139, 358)","(1149, 365)","(1139, 367)","(1128, 366)","(1194, 367)","(1204, 359)","(1216, 359)","(1225, 366)","(1216, 369)","(1205, 369)","(1133, 443)","(1144, 439)","(1157, 438)","(1167, 441)","(1178, 439)","(1194, 441)","(1209, 447)","(1195, 463)","(1179, 470)","(1167, 471)","(1156, 469)","(1144, 461)","(1138, 444)","(1157, 444)","(1167, 445)","(1178, 445)","(1204, 448)","(1179, 459)","(1168, 460)","(1157, 458)",0.32,1.0,31.0,0.35,0.03,0.43,0.06,-10.0,0.1,0.31,13.7,29.3,51.8,8.65,19.45,43.4,9.11,21.47,33.11
3000,-393216,80,-56,-1,-1,0,"(1091, 363)","(1090, 386)","(1091, 409)","(1094, 432)","(1101, 454)","(1112, 475)","(1127, 494)","(1145, 510)","(1168, 515)","(1192, 513)","(1214, 501)","(1233, 485)","(1248, 465)","(1257, 442)","(1261, 417)","(1263, 392)","(1264, 367)","(1102, 350)","(1111, 339)","(1125, 336)","(1140, 338)","(1155, 345)","(1181, 345)","(1197, 337)","(1215, 336)","(1232, 341)","(1243, 354)","(1167, 362)","(1166, 377)","(1164, 393)","(1163, 409)","(1146, 417)","(1155, 422)","(1165, 426)","(1176, 422)","(1186, 418)","(1119, 363)","(1128, 357)","(1139, 358)","(1148, 365)","(1138, 367)","(1127, 366)","(1192, 366)","(1203, 359)","(1214, 359)","(1224, 365)","(1214, 369)","(1203, 369)","(1131, 442)","(1143, 438)","(1156, 437)","(1166, 440)","(1176, 438)","(1192, 440)","(1208, 445)","(1193, 462)","(1178, 469)","(1166, 470)","(1155, 468)","(1143, 460)","(1137, 444)","(1156, 443)","(1166, 445)","(1177, 444)","(1203, 446)","(1177, 459)","(1166, 460)","(1156, 458)",0.31,0.98,31.0,0.35,0.02,0.44,0.05,-10.0,0.1,0.3,15.8,30.5,53.1,8.9,19.8,44.3,8.17,21.41,32.94
3033,-655360,80,-56,-1,-1,0,"(1091, 364)","(1089, 387)","(1090, 409)","(1093, 432)","(1100, 454)","(1111, 475)","(1126, 494)","(1144, 509)","(1167, 514)","(1191, 512)","(1213, 500)","(1232, 484)","(1247, 464)","(1257, 442)","(1261, 417)","(1263, 391)","(1263, 367)","(1101, 351)","(1109, 340)","(1124, 336)","(1139, 338)","(1153, 345)","(1179, 344)","(1195, 336)","(1213, 335)","(1230, 340)","(1242, 353)","(1166, 361)","(1164, 377)","(1163, 392)","(1161, 409)","(1145, 416)","(1153, 421)","(1164, 425)","(1175, 422)","(1185, 418)","(1118, 363)","(1126, 358)","(1137, 358)","(1147, 365)","(1136, 366)","(1126, 366)","(1191, 365)","(1201, 359)","(1213, 359)","(1222, 364)","(1213, 367)","(1202, 367)","(1130, 441)","(1141, 437)","(1154, 436)","(1165, 439)","(1176, 437)","(1192, 439)","(1208, 444)","(1193, 461)","(1177, 468)","(1165, 469)","(1154, 467)","(1141, 459)","(1135, 443)","(1155, 442)","(1165, 444)","(1176, 443)","(1202, 445)","(1176, 458)","(1165, 459)","(1154, 456)",0.25,1.0,31.0,0.34,0.01,0.45,0.05,-8.0,0.11,0.31,15.3,31.0,53.0,7.9,19.75,43.75,9.47,21.7,33.11
3066,-655360,80,-56,-1,-1,0,"(1090, 363)","(1088, 386)","(1089, 408)","(1091, 431)","(1098, 453)","(1109, 474)","(1124, 493)","(1142, 508)","(1165, 514)","(1189, 511)","(1211, 500)","(1230, 483)","(1245, 464)","(1255, 441)","(1259, 416)","(1261, 391)","(1261, 366)","(1100, 351)","(1109, 340)","(1123, 336)","(1139, 338)","(1153, 344)","(1178, 344)","(1194, 336)","(1212, 335)","(1229, 340)","(1240, 353)","(1165, 361)","(1164, 377)","(1162, 392)","(1160, 409)","(1144, 416)","(1153, 421)","(1162, 425)","(1173, 421)","(1184, 418)","(1117, 363)","(1126, 357)","(1136, 358)","(1146, 365)","(1136, 366)","(1125, 366)","(1190, 365)","(1200, 358)","(1211, 358)","(1221, 364)","(1212, 367)","(1201, 367)","(1129, 441)","(1140, 437)","(1154, 436)","(1164, 439)","(1174, 437)","(1190, 439)","(1206, 444)","(1191, 460)","(1175, 468)","(1164, 468)","(1153, 467)","(1140, 459)","(1134, 442)","(1154, 442)","(1164, 443)","(1174, 443)","(1201, 445)","(1175, 457)","(1164, 458)","(1153, 456)",0.29,0.99,31.0,0.35,0.0,0.45,0.06,-9.0,0.11,0.31,14.9,29.6,52.5,8.9,19.15,42.5,8.7,21.05,32.94
3100,-655360,80,-56,-1,-1,0,"(1089, 362)","(1088, 385)","(1089, 407)","(1092, 430)","(1099, 452)","(1109, 473)","(1124, 492)","(1141, 507)","(1164, 513)","(1188, 511)","(1210, 499)","(1229, 483)","(1245, 463)","(1255, 440)","(1259, 415)","(1262, 389)","(1262, 364)","(1100, 351)","(1108, 340)","(1122, 336)","(1137, 338)","(1151, 345)","(1177, 344)","(1193, 336)","(1211, 334)","(1229, 340)","(1240, 352)","(1164, 361)","(1162, 377)","(1160, 392)","(1159, 409)","(1143, 416)","(1151, 421)","(1161, 425)","(1172, 421)","(1182, 417)","(1116, 362)","(1125, 357)","(1135, 358)","(1145, 365)","(1135, 366)","(1124, 366)","(1189, 365)","(1199, 358)","(1211, 358)","(1220, 364)","(1211, 367)","(1200, 367)","(1128, 441)","(1140, 437)","(1152, 436)","(1162, 439)","(1173, 437)","(1189, 439)","(1205, 444)","(1189, 461)","(1174, 468)","(1162, 468)","(1152, 467)","(1139, 458)","(1133, 442)","(1152, 442)","(1162, 443)","(1173, 443)","(1199, 445)","(1173, 457)","(1162, 458)","(1152, 456)",0.29,0.99,31.0,0.34,0.0,0.44,0.06,-9.0,0.1,0.31,15.4,31.8,54.3,8.45,19.05,43.4,9.47,21.35,33.7
3133,-655360,80,-56,-1,-1,0,"(1089, 362)","(1087, 385)","(1088, 407)","(1090, 430)","(1097, 452)","(1108, 473)","(1123, 492)","(1140, 508)","(1163, 513)","(1188, 511)","(1210, 499)","(1229, 483)","(1245, 463)","(1255, 440)","(1260, 415)","(1262, 389)","(1262, 364)","(1098, 351)","(1106, 339)","(1121, 336)","(1136, 338)","(1150, 345)","(1176, 343)","(1192, 336)","(1210, 334)","(1228, 339)","(1239, 352)","(1162, 360)","(1161, 376)","(1159, 392)","(1157, 409)","(1141, 416)","(1150, 421)","(1160, 425)","(1171, 421)","(1181, 417)","(1115, 362)","(1123, 357)","(1134, 357)","(1144, 364)","(1133, 366)","(1123, 365)","(1188, 364)","(1198, 357)","(1210, 357)","(1219, 363)","(1210, 366)","(1199, 366)","(1127, 441)","(1138, 437)","(1151, 436)","(1161, 439)","(1172, 437)","(1188, 438)","(1204, 443)","(1189, 460)","(1173, 467)","(1161, 468)","(1150, 466)","(1138, 458)","(1132, 442)","(1151, 442)","(1161, 443)","(1172, 443)","(1199, 444)","(1172, 456)","(1161, 457)","(1151, 455)",0.29,1.0,31.0,0.34,0.01,0.44,0.06,-9.0,0.1,0.32,14.2,30.4,52.5,8.55,19.0,42.6,9.23,20.58,32.94
3166,-786432,80,-56,-1,-1,0,"(1089, 363)","(1088, 385)","(1088, 408)","(1091, 430)","(1098, 452)","(1108, 473)","(1123, 492)","(1140, 507)","(1162, 513)","(1187, 510)","(1209, 498)","(1228, 482)","(1244, 463)","(1254, 440)","(1258, 415)","(1261, 389)","(1261, 364)","(1098, 351)","(1106, 340)","(1120, 336)","(1135, 338)","(1149, 344)","(1175, 343)","(1191, 336)","(1209, 334)","(1226, 340)","(1238, 352)","(1161, 361)","(1160, 376)","(1158, 392)","(1156, 408)","(1141, 416)","(1149, 420)","(1159, 424)","(1170, 421)","(1180, 417)","(1114, 363)","(1123, 358)","(1133, 358)","(1143, 365)","(1133, 366)","(1122, 366)","(1187, 365)","(1197, 358)","(1208, 358)","(1218, 363)","(1209, 366)","(1198, 366)","(1126, 440)","(1138, 437)","(1150, 436)","(1160, 438)","(1171, 437)","(1187, 438)","(1204, 442)","(1188, 459)","(1172, 467)","(1161, 467)","(1150, 466)","(1137, 458)","(1131, 442)","(1150, 441)","(1161, 443)","(1171, 442)","(1198, 444)","(1172, 456)","(1161, 457)","(1150, 455)",0.25,1.0,31.0,0.34,0.0,0.45,0.05,-8.0,0.11,0.3,13.2,29.8,52.5,7.8,18.0,41.6,9.58,20.94,34.23
3200,-851968,80,-56,-1,-1,0,"(1087, 364)","(1086, 387)","(1088, 409)","(1090, 432)","(1097, 453)","(1108, 474)","(1122, 493)","(1140, 508)","(1163, 514)","(1187, 511)","(1209, 499)","(1229, 482)","(1244, 463)","(1254, 439)","(1258, 414)","(1261, 389)","(1261, 363)","(1095, 351)","(1103, 340)","(1118, 336)","(1133, 338)","(1147, 344)","(1174, 343)","(1190, 336)","(1208, 334)","(1226, 339)","(1238, 351)","(1160, 360)","(1158, 376)","(1157, 392)","(1155, 409)","(1139, 416)","(1148, 421)","(1158, 425)","(1169, 421)","(1179, 417)","(1112, 363)","(1121, 357)","(1131, 357)","(1142, 365)","(1131, 366)","(1120, 366)","(1186, 365)","(1196, 357)","(1208, 357)","(1218, 363)","(1208, 366)","(1197, 366)","(1125, 441)","(1136, 437)","(1149, 436)","(1160, 438)","(1170, 436)","(1187, 438)","(1203, 443)","(1188, 460)","(1172, 467)","(1160, 468)","(1149, 466)","(1136, 458)","(1130, 442)","(1149, 442)","(1160, 443)","(1171, 442)","(1198, 444)","(1171, 457)","(1160, 458)","(1149, 456)",0.28,1.01,31.0,0.35,-0.0,0.44,0.05,-9.0,0.1,0.31,13.7,29.6,51.7,8.45,19.05,44.0,8.88,20.76,33.11
3233,-917504,80,-56,-1,-1,0,"(1087, 365)","(1086, 387)","(1087, 409)","(1090, 432)","(1097, 454)","(1108, 474)","(1122, 493)","(1140, 509)","(1162, 514)","(1186, 511)","(1209, 499)","(1228, 483)","(1244, 463)","(1254, 439)","(1258, 414)","(1261, 388)","(1261, 363)","(1095, 351)","(1103, 340)","(1116, 336)","(1131, 338)","(1146, 344)","(1172, 343)","(1189, 335)","(1207, 333)","(1224, 338)","(1237, 350)","(1158, 361)","(1157, 377)","(1155, 393)","(1154, 409)","(1138, 417)","(1147, 421)","(1157, 425)","(1168, 421)","(1178, 417)","(1111, 363)","(1119, 358)","(1130, 358)","(1140, 365)","(1130, 367)","(1119, 366)","(1185, 365)","(1195, 357)","(1207, 357)","(1217, 363)","(1207, 366)","(1196, 366)","(1125, 442)","(1136, 438)","(1149, 437)","(1159, 439)","(1169, 437)","(1186, 439)","(1203, 443)","(1187, 460)","(1171, 468)","(1160, 469)","(1149, 467)","(1136, 459)","(1130, 443)","(1149, 443)","(1159, 444)","(1170, 443)","(1197, 444)","(1170, 457)","(1159, 458)","(1149, 456)",0.28,1.03,31.0,0.35,-0.01,0.44,0.05,-9.0,0.11,0.31,15.6,31.3,56.9,9.65,19.35,43.15,9.29,20.94,33.23
3266,-983040,80,-56,-1,-1,0,"(1088, 365)","(1087, 387)","(1088, 410)","(1091, 432)","(1098, 454)","(1108, 474)","(1122, 493)","(1139, 509)","(1162, 515)","(1186, 512)","(1209, 500)","(1228, 483)","(1244, 463)","(1254, 440)","(1259, 415)","(1261, 389)","(1261, 364)","(1095, 351)","(1103, 340)","(1117, 337)","(1131, 339)","(1145, 345)","(1172, 343)","(1188, 336)","(1206, 334)","(1224, 339)","(1236, 351)","(1158, 361)","(1156, 377)","(1155, 393)","(1153, 410)","(1138, 417)","(1146, 422)","(1156, 426)","(1167, 422)","(1178, 418)","(1112, 364)","(1120, 358)","(1130, 359)","(1141, 365)","(1130, 367)","(1119, 367)","(1185, 365)","(1195, 358)","(1206, 358)","(1216, 363)","(1206, 366)","(1195, 367)","(1124, 442)","(1135, 438)","(1148, 437)","(1158, 439)","(1169, 437)","(1186, 439)","(1203, 443)","(1187, 461)","(1171, 468)","(1159, 469)","(1148, 468)","(1135, 460)","(1130, 443)","(1148, 443)","(1158, 444)","(1169, 443)","(1197, 444)","(1170, 458)","(1159, 459)","(1148, 457)",0.27,1.03,30.0,0.34,0.0,0.45,0.05,-8.5,0.11,0.31,15.1,30.3,54.2,8.8,19.6,42.0,8.23,20.52,32.29
3300,-720896,80,-56,-1,-1,0,"(1076, 363)","(1076, 386)","(1078, 410)","(1082, 433)","(1090, 455)","(1104, 476)","(1120, 495)","(1139, 510)","(1162, 515)","(1185, 511)","(1205, 499)","(1222, 481)","(1235, 461)","(1244, 438)","(1247, 413)","(1249, 389)","(1249, 365)","(1090, 350)","(1100, 339)","(1115, 336)","(1130, 338)","(1145, 345)","(1171, 344)","(1186, 336)","(1204, 334)","(1220, 339)","(1232, 351)","(1158, 361)","(1158, 377)","(1157, 393)","(1156, 410)","(1138, 418)","(1148, 422)","(1158, 426)","(1169, 422)","(1178, 418)","(1108, 363)","(1117, 357)","(1128, 358)","(1138, 365)","(1128, 366)","(1117, 366)","(1182, 365)","(1193, 358)","(1204, 358)","(1214, 363)","(1205, 367)","(1193, 367)","(1123, 442)","(1135, 439)","(1149, 438)","(1159, 440)","(1170, 438)","(1185, 440)","(1201, 444)","(1187, 461)","(1172, 468)","(1161, 469)","(1149, 467)","(1136, 459)","(1128, 443)","(1149, 443)","(1159, 445)","(1170, 444)","(1196, 445)","(1171, 457)","(1160, 458)","(1150, 457)",0.28,0.95,30.0,0.35,0.01,0.45,0.05,-9.0,0.11,0.31,13.0,28.7,52.5,8.3,18.4,41.25,10.23,23.58,36.35
3333,-1048576,80,-56,-1,-1,0,"(1087, 365)","(1086, 387)","(1087, 410)","(1089, 432)","(1096, 454)","(1107, 475)","(1121, 495)","(1139, 510)","(1162, 516)","(1186, 513)","(1209, 501)","(1229, 484)","(1245, 464)","(1255, 441)","(1259, 415)","(1261, 389)","(1261, 363)","(1094, 352)","(1101, 341)","(1115, 338)","(1130, 340)","(1144, 346)","(1171, 344)","(1187, 337)","(1206, 335)","(1223, 340)","(1236, 352)","(1157, 362)","(1156, 378)","(1154, 394)","(1152, 411)","(1137, 418)","(1145, 423)","(1155, 427)","(1167, 423)","(1177, 419)","(1110, 364)","(1119, 359)","(1129, 359)","(1139, 366)","(1129, 368)","(1118, 367)","(1184, 366)","(1194, 359)","(1206, 358)","(1216, 364)","(1206, 367)","(1195, 367)","(1124, 443)","(1134, 439)","(1147, 439)","(1157, 441)","(1169, 439)","(1186, 440)","(1203, 444)","(1187, 462)","(1171, 470)","(1159, 471)","(1148, 469)","(1135, 461)","(1129, 445)","(1147, 444)","(1158, 445)","(1169, 444)","(1197, 446)","(1170, 460)","(1159, 461)","(1148, 459)",0.26,1.05,30.0,0.35,0.0,0.45,0.06,-8.5,0.11,0.31,13.7,29.6,53.2,8.1,18.6,42.15,9.29,21.05,33.29
3366,-983040,80,-56,-1,-1,0,"(1086, 366)","(1085, 388)","(1086, 411)","(1088, 433)","(1095, 455)","(1106, 476)","(1121, 496)","(1138, 512)","(1161, 517)","(1186, 514)","(1208, 502)","(1228, 485)","(1244, 465)","(1255, 442)","(1259, 416)","(1261, 390)","(1261, 365)","(1093, 352)","(1101, 341)","(1115, 338)","(1130, 340)","(1144, 346)","(1171, 345)","(1187, 337)","(1206, 335)","(1223, 340)","(1236, 352)","(1157, 363)","(1156, 379)","(1154, 395)","(1153, 412)","(1137, 419)","(1145, 424)","(1155, 428)","(1167, 424)","(1177, 420)","(1110, 365)","(1118, 360)","(1129, 360)","(1139, 367)","(1129, 369)","(1118, 368)","(1184, 367)","(1194, 359)","(1205, 359)","(1215, 365)","(1206, 368)","(1194, 368)","(1123, 444)","(1134, 440)","(1147, 439)","(1157, 441)","(1168, 440)","(1185, 441)","(1202, 445)","(1186, 463)","(1170, 471)","(1158, 472)","(1147, 470)","(1134, 462)","(1128, 445)","(1147, 445)","(1157, 446)","(1169, 445)","(1196, 447)","(1169, 460)","(1158, 462)","(1147, 460)",0.29,1.03,30.0,0.34,-0.0,0.45,0.06,-9.0,0.11,0.31,14.0,31.2,55.6,7.95,18.3,42.9,9.41,21.88,34.0
3400,-786432,80,-56,-1,-1,0,"(1087, 365)","(1085, 388)","(1086, 411)","(1089, 434)","(1096, 456)","(1107, 478)","(1121, 497)","(1139, 514)","(1162, 519)","(1187, 516)","(1209, 504)","(1229, 486)","(1246, 465)","(1256, 441)","(1260, 415)","(1262, 389)","(1262, 363)","(1093, 353)","(1100, 342)","(1115, 339)","(1130, 341)","(1144, 347)","(1171, 345)","(1187, 337)","(1206, 335)","(1224, 340)","(1237, 352)","(1157, 363)","(1155, 380)","(1154, 396)","(1152, 414)","(1137, 421)","(1145, 425)","(1155, 429)","(1167, 425)","(1178, 421)","(1110, 365)","(1118, 360)","(1129, 360)","(1139, 367)","(1128, 369)","(1118, 368)","(1184, 367)","(1194, 359)","(1206, 359)","(1216, 365)","(1206, 368)","(1195, 368)","(1123, 445)","(1134, 442)","(1147, 441)","(1157, 443)","(1169, 441)","(1186, 442)","(1203, 446)","(1187, 464)","(1171, 472)","(1158, 473)","(1147, 472)","(1134, 463)","(1128, 447)","(1147, 446)","(1158, 448)","(1169, 447)","(1197, 447)","(1170, 462)","(1158, 463)","(1147, 461)",0.28,1.02,30.0,0.34,-0.0,0.45,0.05,-9.0,0.12,0.32,15.1,32.2,57.4,10.2,19.9,43.15,8.76,20.82,32.82
3433,1769472,80,-56,-1,-1,0,"(1086, 366)","(1085, 389)","(1086, 412)","(1088, 435)","(1095, 457)","(1106, 479)","(1121, 498)","(1138, 515)","(1161, 521)","(1186, 518)","(1209, 506)","(1229, 488)","(1245, 467)","(1255, 443)","(1259, 417)","(1261, 391)","(1261, 365)","(1093, 353)","(1100, 342)","(1114, 339)","(1129, 341)","(1143, 347)","(1171, 346)","(1187, 338)","(1206, 336)","(1224, 341)","(1236, 353)","(1157, 364)","(1155, 381)","(1154, 397)","(1152, 415)","(1136, 422)","(1145, 427)","(1155, 430)","(1167, 426)","(1178, 422)","(1109, 366)","(1118, 360)","(1129, 361)","(1139, 368)","(1128, 369)","(1117, 369)","(1184, 368)","(1194, 360)","(1206, 360)","(1216, 366)","(1206, 369)","(1195, 369)","(1123, 446)","(1134, 443)","(1147, 442)","(1158, 445)","(1169, 443)","(1186, 444)","(1203, 448)","(1187, 466)","(1171, 474)","(1158, 475)","(1147, 473)","(1134, 464)","(1128, 448)","(1147, 448)","(1158, 450)","(1169, 448)","(1197, 449)","(1170, 463)","(1158, 464)","(1147, 462)",0.28,1.02,30.0,0.35,-0.0,0.45,0.05,-9.0,0.12,0.32,15.9,32.1,57.8,7.85,19.15,42.95,8.94,21.17,34.0
3466,-1703936,80,-56,-1,-1,0,"(1087, 368)","(1085, 390)","(1086, 412)","(1088, 435)","(1095, 458)","(1106, 479)","(1121, 500)","(1138, 517)","(1161, 523)","(1186, 520)","(1209, 508)","(1229, 490)","(1245, 469)","(1256, 445)","(1260, 418)","(1262, 392)","(1261, 366)","(1093, 355)","(1100, 344)","(1114, 340)","(1129, 343)","(1143, 349)","(1171, 348)","(1188, 340)","(1206, 338)","(1224, 343)","(1236, 355)","(1157, 366)","(1155, 383)","(1154, 399)","(1152, 417)","(1136, 424)","(1145, 429)","(1155, 433)","(1167, 429)","(1178, 425)","(1109, 367)","(1118, 362)","(1129, 363)","(1139, 370)","(1128, 371)","(1117, 371)","(1184, 369)","(1194, 362)","(1206, 362)","(1216, 368)","(1207, 371)","(1195, 371)","(1123, 448)","(1134, 445)","(1147, 444)","(1157, 447)","(1169, 445)","(1186, 446)","(1203, 449)","(1187, 468)","(1170, 476)","(1158, 477)","(1147, 475)","(1134, 466)","(1128, 449)","(1147, 450)","(1157, 452)","(1169, 451)","(1198, 451)","(1169, 465)","(1158, 466)","(1147, 464)",0.28,1.03,30.0,0.35,-0.0,0.45,0.05,-9.0,0.12,0.32,13.8,31.0,55.1,8.2,19.7,42.3,8.47,20.35,34.52
3500,-327680,80,-56,-1,-1,0,"(1086, 369)","(1084, 391)","(1085, 414)","(1087, 437)","(1094, 460)","(1105, 482)","(1119, 502)","(1137, 519)","(1160, 526)","(1186, 523)","(1209, 510)","(1228, 493)","(1244, 471)","(1255, 447)","(1259, 421)","(1261, 394)","(1260, 368)","(1093, 356)","(1101, 345)","(1115, 342)","(1130, 344)","(1144, 351)","(1171, 350)","(1188, 342)","(1206, 340)","(1224, 345)","(1237, 357)","(1157, 368)","(1156, 385)","(1154, 402)","(1153, 419)","(1136, 426)","(1145, 431)","(1155, 435)","(1167, 431)","(1178, 427)","(1109, 369)","(1118, 364)","(1129, 364)","(1139, 371)","(1128, 373)","(1117, 372)","(1184, 371)","(1195, 364)","(1207, 364)","(1217, 370)","(1207, 373)","(1195, 373)","(1123, 450)","(1134, 447)","(1147, 447)","(1157, 449)","(1169, 448)","(1186, 449)","(1203, 453)","(1187, 471)","(1170, 478)","(1158, 479)","(1146, 477)","(1134, 468)","(1128, 451)","(1147, 453)","(1157, 454)","(1169, 453)","(1198, 454)","(1169, 468)","(1158, 469)","(1147, 466)",0.27,1.03,30.0,0.36,0.0,0.45,0.05,-9.0,0.12,0.32,14.0,31.8,56.6,8.45,18.5,42.55,8.05,21.05,35.41
3533,131072,80,-56,-1,-1,0,"(1088, 370)","(1086, 392)","(1086, 415)","(1089, 438)","(1095, 461)","(1106, 483)","(1120, 503)","(1137, 521)","(1160, 528)","(1185, 525)","(1208, 512)","(1228, 494)","(1244, 472)","(1255, 448)","(1259, 422)","(1261, 395)","(1261, 369)","(1092, 357)","(1100, 347)","(1114, 344)","(1129, 346)","(1144, 353)","(1172, 352)","(1189, 344)","(1207, 342)","(1225, 347)","(1238, 359)","(1157, 370)","(1156, 387)","(1154, 405)","(1152, 422)","(1135, 428)","(1144, 434)","(1155, 438)","(1166, 434)","(1177, 430)","(1109, 370)","(1117, 365)","(1128, 366)","(1139, 373)","(1128, 375)","(1117, 374)","(1184, 374)","(1195, 366)","(1207, 366)","(1217, 372)","(1208, 376)","(1196, 376)","(1121, 452)","(1133, 450)","(1146, 450)","(1156, 452)","(1168, 450)","(1185, 451)","(1202, 455)","(1186, 473)","(1169, 481)","(1157, 482)","(1145, 480)","(1132, 471)","(1126, 454)","(1146, 455)","(1156, 457)","(1168, 456)","(1197, 456)","(1168, 470)","(1157, 471)","(1146, 469)",0.3,1.01,30.0,0.36,0.01,0.46,0.05,-10.0,0.11,0.32,16.0,33.2,58.5,9.8,19.65,43.0,8.64,20.0,34.64
3566,1441792,79,-56,-1,-1,0,"(1087, 372)","(1085, 395)","(1086, 417)","(1088, 441)","(1095, 464)","(1106, 487)","(1119, 508)","(1137, 525)","(1160, 532)","(1185, 529)","(1208, 516)","(1228, 498)","(1244, 476)","(1255, 451)","(1259, 425)","(1261, 398)","(1260, 371)","(1092, 359)","(1100, 348)","(1114, 345)","(1129, 348)","(1143, 355)","(1171, 353)","(1188, 346)","(1207, 344)","(1225, 348)","(1237, 360)","(1157, 372)","(1155, 390)","(1153, 407)","(1151, 426)","(1135, 431)","(1143, 437)","(1154, 441)","(1166, 437)","(1177, 433)","(1108, 373)","(1116, 367)","(1127, 368)","(1138, 375)","(1127, 377)","(1116, 377)","(1184, 375)","(1195, 368)","(1207, 368)","(1217, 374)","(1207, 377)","(1195, 377)","(1120, 455)","(1132, 452)","(1145, 452)","(1156, 455)","(1168, 453)","(1185, 454)","(1203, 457)","(1186, 476)","(1169, 485)","(1156, 485)","(1145, 483)","(1131, 474)","(1126, 457)","(1145, 458)","(1156, 460)","(1168, 459)","(1197, 459)","(1168, 473)","(1156, 474)","(1145, 472)",0.27,1.01,30.0,0.36,0.01,0.47,0.05,-9.5,0.11,0.33,17.5,35.4,60.1,10.05,20.1,43.75,8.52,21.47,35.64
3600,4128768,79,-56,-1,-1,0,"(1087, 373)","(1085, 395)","(1085, 418)","(1087, 442)","(1094, 465)","(1105, 488)","(1118, 510)","(1136, 528)","(1159, 534)","(1185, 531)","(1208, 518)","(1228, 499)","(1244, 477)","(1255, 452)","(1259, 426)","(1261, 399)","(1261, 372)","(1090, 360)","(1099, 349)","(1113, 346)","(1128, 349)","(1142, 357)","(1171, 355)","(1189, 347)","(1207, 345)","(1226, 350)","(1238, 362)","(1157, 374)","(1155, 392)","(1153, 409)","(1151, 428)","(1134, 433)","(1143, 439)","(1154, 443)","(1166, 439)","(1177, 435)","(1107, 374)","(1115, 369)","(1127, 369)","(1138, 377)","(1126, 378)","(1115, 378)","(1184, 377)","(1195, 370)","(1207, 370)","(1218, 376)","(1208, 379)","(1196, 379)","(1119, 456)","(1131, 454)","(1145, 455)","(1156, 457)","(1168, 455)","(1185, 456)","(1203, 459)","(1186, 479)","(1169, 487)","(1156, 488)","(1144, 486)","(1131, 476)","(1125, 458)","(1145, 460)","(1156, 462)","(1168, 461)","(1197, 461)","(1168, 476)","(1156, 477)","(1145, 474)",0.26,1.0,30.0,0.37,0.02,0.48,0.06,-9.0,0.11,0.33,17.6,35.7,62.9,7.75,18.65,41.6,8.88,21.52,35.76
3633,3866624,79,-56,-1,-1,0,"(1069, 365)","(1067, 390)","(1067, 415)","(1070, 440)","(1077, 465)","(1090, 489)","(1106, 512)","(1127, 531)","(1154, 538)","(1181, 536)","(1206, 522)","(1227, 503)","(1243, 480)","(1254, 454)","(1258, 426)","(1260, 399)","(1260, 371)","(1081, 355)","(1092, 346)","(1108, 345)","(1125, 349)","(1141, 358)","(1171, 357)","(1189, 349)","(1208, 347)","(1226, 352)","(1238, 364)","(1156, 375)","(1154, 393)","(1152, 411)","(1151, 430)","(1132, 435)","(1141, 441)","(1152, 446)","(1165, 442)","(1176, 437)","(1101, 372)","(1111, 367)","(1123, 368)","(1134, 376)","(1122, 378)","(1110, 377)","(1183, 378)","(1194, 371)","(1207, 372)","(1217, 377)","(1207, 381)","(1195, 381)","(1115, 456)","(1128, 455)","(1143, 457)","(1154, 460)","(1166, 458)","(1184, 458)","(1201, 461)","(1185, 480)","(1167, 488)","(1154, 488)","(1142, 486)","(1128, 476)","(1120, 459)","(1143, 462)","(1154, 464)","(1166, 464)","(1195, 463)","(1167, 477)","(1155, 478)","(1143, 475)",0.28,0.98,30.0,0.35,0.07,0.45,0.05,-10.5,0.1,0.33,14.9,31.4,56.7,7.1,17.65,40.15,8.29,21.35,32.94
