milliseconds, ECG, ECG HR, PPG, PPG HR, SpO2, PI
1523634534392,-4521984,79,-56,-1,-1,0
1523634534392,-3604480,79,-56,-1,-1,0
1523634534392,-2228224,79,-56,-1,-1,0
1523634534392,-1310720,79,-56,-1,-1,0
1523634534392,-917504,79,-56,-1,-1,0
1523634534432,-720896,80,-56,-1,-1,0
1523634534432,-589824,80,-56,-1,-1,0
1523634534432,-393216,80,-56,-1,-1,0
1523634534432,-327680,80,-56,-1,-1,0
1523634534432,-262144,80,-56,-1,-1,0
1523634534472,-196608,80,-56,-1,-1,0
1523634534472,-131072,80,-56,-1,-1,0
1523634534472,0,80,-56,-1,-1,0
1523634534472,196608,80,-56,-1,-1,0
1523634534472,393216,80,-56,-1,-1,0
1523634534512,589824,80,-56,-1,-1,0
1523634534512,851968,80,-56,-1,-1,0
1523634534512,1179648,80,-56,-1,-1,0
1523634534512,1572864,80,-56,-1,-1,0
1523634534512,2097152,80,-56,-1,-1,0
1523634534552,2621440,80,-56,-1,-1,0
1523634534552,3211264,80,-56,-1,-1,0
1523634534552,3735552,80,-56,-1,-1,0
1523634534552,4128768,80,-56,-1,-1,0
1523634534552,4390912,80,-56,-1,-1,0
1523634534591,4456448,80,-56,-1,-1,0
1523634534591,4259840,80,-56,-1,-1,0
1523634534591,3866624,80,-56,-1,-1,0
1523634534591,3211264,80,-56,-1,-1,0
1523634534591,2424832,80,-56,-1,-1,0
1523634534631,1507328,80,-56,-1,-1,0
1523634534631,786432,80,-56,-1,-1,0
1523634534631,327680,80,-56,-1,-1,0
1523634534631,0,80,-56,-1,-1,0
1523634534631,-262144,80,-56,-1,-1,0
1523634534671,-524288,80,-56,-1,-1,0
1523634534671,-655360,80,-56,-1,-1,0
1523634534671,-786432,80,-56,-1,-1,0
1523634534671,-851968,80,-56,-1,-1,0
1523634534671,-851968,80,-56,-1,-1,0
1523634534711,-851968,80,-56,-1,-1,0
1523634534711,-917504,80,-56,-1,-1,0
1523634534711,-917504,80,-56,-1,-1,0
1523634534711,-917504,80,-56,-1,-1,0
1523634534711,-851968,80,-56,-1,-1,0
1523634534751,-851968,80,-56,-1,-1,0
1523634534751,-851968,80,-56,-1,-1,0
1523634534751,-851968,80,-56,-1,-1,0
1523634534751,-851968,80,-56,-1,-1,0
1523634534751,-851968,80,-56,-1,-1,0
1523634534791,-851968,80,-56,-1,-1,0
1523634534791,-851968,80,-56,-1,-1,0
1523634534791,-851968,80,-56,-1,-1,0
1523634534791,-786432,80,-56,-1,-1,0
1523634534791,-851968,80,-56,-1,-1,0
1523634534831,-851968,80,-56,-1,-1,0
1523634534831,-851968,80,-56,-1,-1,0
1523634534831,-851968,80,-56,-1,-1,0
1523634534831,-917504,80,-56,-1,-1,0
1523634534831,-917504,80,-56,-1,-1,0
1523634534871,-917504,80,-56,-1,-1,0
1523634534871,-917504,80,-56,-1,-1,0
1523634534871,-983040,80,-56,-1,-1,0
1523634534871,-917504,80,-56,-1,-1,0
1523634534871,-983040,80,-56,-1,-1,0
1523634534911,-1048576,80,-56,-1,-1,0
1523634534911,-1048576,80,-56,-1,-1,0
1523634534911,-1048576,80,-56,-1,-1,0
1523634534911,-1048576,80,-56,-1,-1,0
1523634534911,-1048576,80,-56,-1,-1,0
1523634534951,-1114112,80,-56,-1,-1,0
1523634534951,-1114112,80,-56,-1,-1,0
1523634534951,-1048576,80,-56,-1,-1,0
1523634534951,-1048576,80,-56,-1,-1,0
1523634534951,-1048576,80,-56,-1,-1,0
1523634534991,-983040,80,-56,-1,-1,0
1523634534991,-851968,80,-56,-1,-1,0
1523634534991,-720896,80,-56,-1,-1,0
1523634534991,-720896,80,-56,-1,-1,0
1523634534991,-917504,80,-56,-1,-1,0
1523634535031,-1048576,80,-56,-1,-1,0
1523634535031,-1048576,80,-56,-1,-1,0
1523634535031,-983040,80,-56,-1,-1,0
1523634535031,-983040,80,-56,-1,-1,0
1523634535031,-983040,80,-56,-1,-1,0
1523634535071,-983040,80,-56,-1,-1,0
1523634535071,-983040,80,-56,-1,-1,0
1523634535071,-983040,80,-56,-1,-1,0
1523634535071,-917504,80,-56,-1,-1,0
1523634535071,-851968,80,-56,-1,-1,0
1523634535113,-851968,80,-56,-1,-1,0
1523634535113,-851968,80,-56,-1,-1,0
1523634535113,-917504,80,-56,-1,-1,0
1523634535113,-327680,80,-56,-1,-1,0
1523634535113,2228224,80,-56,-1,-1,0
1523634535151,6488064,80,-56,-1,-1,0
1523634535151,8519680,80,-56,-1,-1,0
1523634535151,5439488,80,-56,-1,-1,0
1523634535151,-131072,80,-56,-1,-1,0
1523634535151,-3932160,80,-56,-1,-1,0
1523634535191,-4653056,80,-56,-1,-1,0
1523634535191,-3866624,80,-56,-1,-1,0
1523634535191,-2490368,80,-56,-1,-1,0
1523634535191,-1376256,80,-56,-1,-1,0
1523634535191,-786432,80,-56,-1,-1,0
1523634535231,-524288,80,-56,-1,-1,0
1523634535231,-327680,80,-56,-1,-1,0
1523634535231,-262144,80,-56,-1,-1,0
1523634535231,-196608,80,-56,-1,-1,0
1523634535231,-131072,80,-56,-1,-1,0
1523634535271,0,80,-56,-1,-1,0
1523634535271,65536,80,-56,-1,-1,0
1523634535271,196608,80,-56,-1,-1,0
1523634535271,327680,80,-56,-1,-1,0
1523634535271,458752,80,-56,-1,-1,0
1523634535311,720896,80,-56,-1,-1,0
1523634535311,1048576,80,-56,-1,-1,0
1523634535311,1376256,80,-56,-1,-1,0
1523634535311,1769472,80,-56,-1,-1,0
1523634535311,2359296,80,-56,-1,-1,0
1523634535351,2883584,80,-56,-1,-1,0
1523634535351,3473408,80,-56,-1,-1,0
1523634535351,4063232,80,-56,-1,-1,0
1523634535351,4521984,80,-56,-1,-1,0
1523634535351,4784128,80,-56,-1,-1,0
1523634535391,4849664,80,-56,-1,-1,0
1523634535391,4653056,80,-56,-1,-1,0
1523634535391,4194304,80,-56,-1,-1,0
1523634535391,3538944,80,-56,-1,-1,0
1523634535391,2686976,80,-56,-1,-1,0
1523634535431,1835008,80,-56,-1,-1,0
1523634535431,1114112,80,-56,-1,-1,0
1523634535431,524288,80,-56,-1,-1,0
1523634535431,65536,80,-56,-1,-1,0
1523634535431,-196608,80,-56,-1,-1,0
1523634535471,-327680,80,-56,-1,-1,0
1523634535471,-458752,80,-56,-1,-1,0
1523634535471,-524288,80,-56,-1,-1,0
1523634535471,-589824,80,-56,-1,-1,0
1523634535471,-655360,80,-56,-1,-1,0
1523634535511,-720896,80,-56,-1,-1,0
1523634535511,-720896,80,-56,-1,-1,0
1523634535511,-655360,80,-56,-1,-1,0
1523634535511,-655360,80,-56,-1,-1,0
1523634535511,-720896,80,-56,-1,-1,0
1523634535551,-720896,80,-56,-1,-1,0
1523634535551,-655360,80,-56,-1,-1,0
1523634535551,-655360,80,-56,-1,-1,0
1523634535551,-655360,80,-56,-1,-1,0
1523634535551,-720896,80,-56,-1,-1,0
1523634535591,-720896,80,-56,-1,-1,0
1523634535591,-655360,80,-56,-1,-1,0
1523634535591,-655360,80,-56,-1,-1,0
1523634535591,-720896,80,-56,-1,-1,0
1523634535591,-655360,80,-56,-1,-1,0
1523634535631,-655360,80,-56,-1,-1,0
1523634535631,-720896,80,-56,-1,-1,0
1523634535631,-786432,80,-56,-1,-1,0
1523634535631,-851968,80,-56,-1,-1,0
1523634535631,-786432,80,-56,-1,-1,0
1523634535671,-851968,80,-56,-1,-1,0
1523634535671,-917504,80,-56,-1,-1,0
1523634535671,-917504,80,-56,-1,-1,0
1523634535671,-851968,80,-56,-1,-1,0
1523634535671,-851968,80,-56,-1,-1,0
1523634535711,-851968,80,-56,-1,-1,0
1523634535711,-917504,80,-56,-1,-1,0
1523634535711,-917504,80,-56,-1,-1,0
1523634535711,-917504,80,-56,-1,-1,0
1523634535711,-983040,80,-56,-1,-1,0
1523634535752,-1048576,80,-56,-1,-1,0
1523634535752,-1048576,80,-56,-1,-1,0
1523634535752,-983040,80,-56,-1,-1,0
1523634535752,-983040,80,-56,-1,-1,0
1523634535752,-983040,80,-56,-1,-1,0
1523634535791,-917504,80,-56,-1,-1,0
1523634535791,-786432,80,-56,-1,-1,0
1523634535791,-720896,80,-56,-1,-1,0
1523634535791,-786432,80,-56,-1,-1,0
1523634535791,-917504,80,-56,-1,-1,0
1523634535831,-983040,80,-56,-1,-1,0
1523634535831,-1048576,80,-56,-1,-1,0
1523634535831,-1048576,80,-56,-1,-1,0
1523634535831,-1048576,80,-56,-1,-1,0
1523634535831,-1048576,80,-56,-1,-1,0
1523634535871,-1114112,80,-56,-1,-1,0
1523634535871,-1114112,80,-56,-1,-1,0
1523634535871,-1114112,80,-56,-1,-1,0
1523634535871,-1048576,80,-56,-1,-1,0
1523634535871,-983040,80,-56,-1,-1,0
1523634535911,-983040,80,-56,-1,-1,0
1523634535911,-1048576,80,-56,-1,-1,0
1523634535911,-1114112,80,-56,-1,-1,0
1523634535911,-327680,80,-56,-1,-1,0
1523634535911,2490368,80,-56,-1,-1,0
1523634535951,6881280,80,-56,-1,-1,0
1523634535951,8912896,80,-56,-1,-1,0
1523634535951,5570560,80,-56,-1,-1,0
1523634535951,-327680,80,-56,-1,-1,0
1523634535951,-4128768,80,-56,-1,-1,0
1523634535991,-4587520,80,-56,-1,-1,0
1523634535991,-3473408,80,-56,-1,-1,0
1523634535991,-2228224,80,-56,-1,-1,0
1523634535991,-1310720,80,-56,-1,-1,0
1523634535991,-917504,80,-56,-1,-1,0
1523634536031,-655360,80,-56,-1,-1,0
1523634536031,-524288,80,-56,-1,-1,0
1523634536031,-458752,80,-56,-1,-1,0
1523634536031,-393216,80,-56,-1,-1,0
1523634536031,-262144,80,-56,-1,-1,0
1523634536071,-131072,80,-56,-1,-1,0
1523634536071,-65536,80,-56,-1,-1,0
1523634536071,0,80,-56,-1,-1,0
1523634536071,131072,80,-56,-1,-1,0
1523634536071,327680,80,-56,-1,-1,0
1523634536111,589824,80,-56,-1,-1,0
1523634536111,917504,80,-56,-1,-1,0
1523634536111,1245184,80,-56,-1,-1,0
1523634536111,1638400,80,-56,-1,-1,0
1523634536111,2162688,80,-56,-1,-1,0
1523634536151,2752512,80,-56,-1,-1,0
1523634536151,3342336,80,-56,-1,-1,0
1523634536151,3932160,80,-56,-1,-1,0
1523634536151,4390912,80,-56,-1,-1,0
1523634536151,4653056,80,-56,-1,-1,0
1523634536191,4718592,80,-56,-1,-1,0
1523634536191,4587520,80,-56,-1,-1,0
1523634536191,4128768,80,-56,-1,-1,0
1523634536191,3473408,80,-56,-1,-1,0
1523634536191,2621440,80,-56,-1,-1,0
1523634536231,1769472,80,-56,-1,-1,0
1523634536231,983040,80,-56,-1,-1,0
1523634536231,393216,80,-56,-1,-1,0
1523634536231,0,80,-56,-1,-1,0
1523634536231,-262144,80,-56,-1,-1,0
1523634536271,-458752,80,-56,-1,-1,0
1523634536271,-589824,80,-56,-1,-1,0
1523634536271,-720896,80,-56,-1,-1,0
1523634536271,-786432,80,-56,-1,-1,0
1523634536271,-786432,80,-56,-1,-1,0
1523634536311,-786432,80,-56,-1,-1,0
1523634536311,-786432,80,-56,-1,-1,0
1523634536311,-786432,80,-56,-1,-1,0
1523634536311,-851968,80,-56,-1,-1,0
1523634536311,-851968,80,-56,-1,-1,0
1523634536351,-786432,80,-56,-1,-1,0
1523634536351,-786432,80,-56,-1,-1,0
1523634536351,-786432,80,-56,-1,-1,0
1523634536351,-786432,80,-56,-1,-1,0
1523634536351,-786432,80,-56,-1,-1,0
1523634536393,-786432,80,-56,-1,-1,0
1523634536393,-720896,80,-56,-1,-1,0
1523634536393,-720896,80,-56,-1,-1,0
1523634536393,-720896,80,-56,-1,-1,0
1523634536393,-720896,80,-56,-1,-1,0
1523634536431,-786432,80,-56,-1,-1,0
1523634536431,-786432,80,-56,-1,-1,0
1523634536431,-786432,80,-56,-1,-1,0
1523634536431,-786432,80,-56,-1,-1,0
1523634536431,-786432,80,-56,-1,-1,0
1523634536471,-851968,80,-56,-1,-1,0
1523634536471,-851968,80,-56,-1,-1,0
1523634536471,-851968,80,-56,-1,-1,0
1523634536471,-851968,80,-56,-1,-1,0
1523634536471,-917504,80,-56,-1,-1,0
1523634536511,-917504,80,-56,-1,-1,0
1523634536511,-983040,80,-56,-1,-1,0
1523634536511,-983040,80,-56,-1,-1,0
1523634536511,-983040,80,-56,-1,-1,0
1523634536511,-983040,80,-56,-1,-1,0
1523634536551,-983040,80,-56,-1,-1,0
1523634536551,-983040,80,-56,-1,-1,0
1523634536551,-1048576,80,-56,-1,-1,0
1523634536551,-1048576,80,-56,-1,-1,0
1523634536551,-1048576,80,-56,-1,-1,0
1523634536591,-1048576,80,-56,-1,-1,0
1523634536591,-1114112,80,-56,-1,-1,0
1523634536591,-1048576,80,-56,-1,-1,0
1523634536591,-917504,80,-56,-1,-1,0
1523634536591,-786432,80,-56,-1,-1,0
1523634536631,-720896,80,-56,-1,-1,0
1523634536631,-720896,80,-56,-1,-1,0
1523634536631,-786432,80,-56,-1,-1,0
1523634536631,-851968,80,-56,-1,-1,0
1523634536631,-983040,80,-56,-1,-1,0
1523634536671,-1048576,80,-56,-1,-1,0
1523634536671,-1048576,80,-56,-1,-1,0
1523634536671,-1048576,80,-56,-1,-1,0
1523634536671,-1048576,80,-56,-1,-1,0
1523634536671,-1048576,80,-56,-1,-1,0
1523634536711,-1048576,80,-56,-1,-1,0
1523634536711,-1048576,80,-56,-1,-1,0
1523634536711,-1048576,80,-56,-1,-1,0
1523634536711,-917504,80,-56,-1,-1,0
1523634536711,-917504,80,-56,-1,-1,0
1523634536751,-983040,80,-56,-1,-1,0
1523634536751,-917504,80,-56,-1,-1,0
1523634536751,262144,80,-56,-1,-1,0
1523634536751,3604480,80,-56,-1,-1,0
1523634536751,7536640,80,-56,-1,-1,0
1523634536791,7929856,80,-56,-1,-1,0
1523634536791,3538944,80,-56,-1,-1,0
1523634536791,-1835008,80,-56,-1,-1,0
1523634536791,-4521984,80,-56,-1,-1,0
1523634536791,-4325376,80,-56,-1,-1,0
1523634536831,-2949120,80,-56,-1,-1,0
1523634536831,-1638400,80,-56,-1,-1,0
1523634536831,-983040,80,-56,-1,-1,0
1523634536831,-655360,80,-56,-1,-1,0
1523634536831,-458752,80,-56,-1,-1,0
1523634536871,-393216,80,-56,-1,-1,0
1523634536871,-262144,80,-56,-1,-1,0
1523634536871,-196608,80,-56,-1,-1,0
1523634536871,-65536,80,-56,-1,-1,0
1523634536871,0,80,-56,-1,-1,0
1523634536911,65536,80,-56,-1,-1,0
1523634536911,196608,80,-56,-1,-1,0
1523634536911,327680,80,-56,-1,-1,0
1523634536911,589824,80,-56,-1,-1,0
1523634536911,851968,80,-56,-1,-1,0
1523634536951,1179648,80,-56,-1,-1,0
1523634536951,1507328,80,-56,-1,-1,0
1523634536951,1900544,80,-56,-1,-1,0
1523634536951,2424832,80,-56,-1,-1,0
1523634536951,3080192,80,-56,-1,-1,0
1523634536991,3670016,80,-56,-1,-1,0
1523634536991,4194304,80,-56,-1,-1,0
1523634536991,4587520,80,-56,-1,-1,0
1523634536991,4849664,80,-56,-1,-1,0
1523634536991,4849664,80,-56,-1,-1,0
1523634537033,4653056,80,-56,-1,-1,0
1523634537033,4194304,80,-56,-1,-1,0
1523634537033,3538944,80,-56,-1,-1,0
1523634537033,2686976,80,-56,-1,-1,0
1523634537033,1835008,80,-56,-1,-1,0
1523634537071,1114112,80,-56,-1,-1,0
1523634537071,524288,80,-56,-1,-1,0
1523634537071,131072,80,-56,-1,-1,0
1523634537071,-65536,80,-56,-1,-1,0
1523634537071,-262144,80,-56,-1,-1,0
1523634537111,-393216,80,-56,-1,-1,0
1523634537111,-524288,80,-56,-1,-1,0
1523634537111,-589824,80,-56,-1,-1,0
1523634537111,-589824,80,-56,-1,-1,0
1523634537111,-589824,80,-56,-1,-1,0
1523634537151,-655360,80,-56,-1,-1,0
1523634537151,-655360,80,-56,-1,-1,0
1523634537151,-655360,80,-56,-1,-1,0
1523634537151,-655360,80,-56,-1,-1,0
1523634537151,-655360,80,-56,-1,-1,0
1523634537191,-655360,80,-56,-1,-1,0
1523634537191,-720896,80,-56,-1,-1,0
1523634537191,-655360,80,-56,-1,-1,0
1523634537191,-655360,80,-56,-1,-1,0
1523634537191,-589824,80,-56,-1,-1,0
1523634537231,-655360,80,-56,-1,-1,0
1523634537231,-655360,80,-56,-1,-1,0
1523634537231,-655360,80,-56,-1,-1,0
1523634537231,-589824,80,-56,-1,-1,0
1523634537231,-655360,80,-56,-1,-1,0
1523634537271,-655360,80,-56,-1,-1,0
1523634537271,-655360,80,-56,-1,-1,0
1523634537271,-655360,80,-56,-1,-1,0
1523634537271,-720896,80,-56,-1,-1,0
1523634537271,-720896,80,-56,-1,-1,0
1523634537311,-720896,80,-56,-1,-1,0
1523634537311,-786432,80,-56,-1,-1,0
1523634537311,-851968,80,-56,-1,-1,0
1523634537311,-851968,80,-56,-1,-1,0
1523634537311,-851968,80,-56,-1,-1,0
1523634537351,-851968,80,-56,-1,-1,0
1523634537351,-851968,80,-56,-1,-1,0
1523634537351,-917504,80,-56,-1,-1,0
1523634537351,-917504,80,-56,-1,-1,0
1523634537351,-917504,80,-56,-1,-1,0
1523634537391,-851968,80,-56,-1,-1,0
1523634537391,-851968,80,-56,-1,-1,0
1523634537391,-917504,80,-56,-1,-1,0
1523634537391,-917504,80,-56,-1,-1,0
1523634537391,-917504,80,-56,-1,-1,0
1523634537431,-851968,80,-56,-1,-1,0
1523634537431,-917504,80,-56,-1,-1,0
1523634537431,-983040,80,-56,-1,-1,0
1523634537431,-983040,80,-56,-1,-1,0
1523634537431,-983040,80,-56,-1,-1,0
1523634537471,-983040,80,-56,-1,-1,0
1523634537471,-1048576,80,-56,-1,-1,0
1523634537471,-1048576,80,-56,-1,-1,0
1523634537471,-917504,80,-56,-1,-1,0
1523634537471,-720896,80,-56,-1,-1,0
1523634537511,-655360,80,-56,-1,-1,0
1523634537511,-655360,80,-56,-1,-1,0
1523634537511,-786432,80,-56,-1,-1,0
1523634537511,-917504,80,-56,-1,-1,0
1523634537511,-983040,80,-56,-1,-1,0
1523634537551,-983040,80,-56,-1,-1,0
1523634537551,-983040,80,-56,-1,-1,0
1523634537551,-983040,80,-56,-1,-1,0
1523634537551,-983040,80,-56,-1,-1,0
1523634537551,-983040,80,-56,-1,-1,0
1523634537591,-983040,80,-56,-1,-1,0
1523634537591,-983040,80,-56,-1,-1,0
1523634537591,-1048576,80,-56,-1,-1,0
1523634537591,-983040,80,-56,-1,-1,0
1523634537591,-917504,80,-56,-1,-1,0
1523634537631,-917504,80,-56,-1,-1,0
1523634537631,-917504,80,-56,-1,-1,0
1523634537631,-131072,80,-56,-1,-1,0
1523634537631,2490368,80,-56,-1,-1,0
1523634537631,6553600,80,-56,-1,-1,0
1523634537673,8323072,80,-56,-1,-1,0
1523634537673,5111808,80,-56,-1,-1,0
1523634537673,-458752,80,-56,-1,-1,0
1523634537673,-4128768,80,-56,-1,-1,0
1523634537673,-4718592,80,-56,-1,-1,0
1523634537711,-3604480,80,-56,-1,-1,0
1523634537711,-2162688,80,-56,-1,-1,0
1523634537711,-1245184,80,-56,-1,-1,0
1523634537711,-786432,80,-56,-1,-1,0
1523634537711,-589824,80,-56,-1,-1,0
1523634537751,-458752,80,-56,-1,-1,0
1523634537751,-327680,80,-56,-1,-1,0
1523634537751,-196608,80,-56,-1,-1,0
1523634537751,-131072,80,-56,-1,-1,0
1523634537751,0,80,-56,-1,-1,0
1523634537791,0,80,-56,-1,-1,0
1523634537791,196608,80,-56,-1,-1,0
1523634537791,327680,80,-56,-1,-1,0
1523634537791,458752,80,-56,-1,-1,0
1523634537791,655360,80,-56,-1,-1,0
1523634537831,917504,80,-56,-1,-1,0
1523634537831,1310720,80,-56,-1,-1,0
1523634537831,1769472,80,-56,-1,-1,0
1523634537831,2293760,80,-56,-1,-1,0
1523634537831,2883584,80,-56,-1,-1,0
1523634537871,3473408,80,-56,-1,-1,0
1523634537871,3997696,80,-56,-1,-1,0
1523634537871,4521984,80,-56,-1,-1,0
1523634537871,4849664,80,-56,-1,-1,0
1523634537871,5046272,80,-56,-1,-1,0
1523634537911,4849664,80,-56,-1,-1,0
1523634537911,4390912,80,-56,-1,-1,0
1523634537911,3801088,80,-56,-1,-1,0
1523634537911,3014656,80,-56,-1,-1,0
1523634537911,2228224,80,-56,-1,-1,0
1523634537951,1441792,80,-56,-1,-1,0
1523634537951,786432,80,-56,-1,-1,0
1523634537951,262144,80,-56,-1,-1,0
1523634537951,-65536,80,-56,-1,-1,0
1523634537951,-327680,80,-56,-1,-1,0
1523634537991,-393216,80,-56,-1,-1,0
1523634537991,-524288,80,-56,-1,-1,0
1523634537991,-589824,80,-56,-1,-1,0
1523634537991,-655360,80,-56,-1,-1,0
1523634537991,-655360,80,-56,-1,-1,0
1523634538031,-655360,80,-56,-1,-1,0
1523634538031,-655360,80,-56,-1,-1,0
1523634538031,-655360,80,-56,-1,-1,0
1523634538031,-655360,80,-56,-1,-1,0
1523634538031,-655360,80,-56,-1,-1,0
1523634538071,-655360,80,-56,-1,-1,0
1523634538071,-655360,80,-56,-1,-1,0
1523634538071,-655360,80,-56,-1,-1,0
1523634538071,-589824,80,-56,-1,-1,0
1523634538071,-655360,80,-56,-1,-1,0
1523634538111,-655360,80,-56,-1,-1,0
1523634538111,-589824,80,-56,-1,-1,0
1523634538111,-589824,80,-56,-1,-1,0
1523634538111,-655360,80,-56,-1,-1,0
1523634538111,-720896,80,-56,-1,-1,0
1523634538151,-655360,80,-56,-1,-1,0
1523634538151,-655360,80,-56,-1,-1,0
1523634538151,-720896,80,-56,-1,-1,0
1523634538151,-720896,80,-56,-1,-1,0
1523634538151,-786432,80,-56,-1,-1,0
1523634538191,-786432,80,-56,-1,-1,0
1523634538191,-851968,80,-56,-1,-1,0
1523634538191,-851968,80,-56,-1,-1,0
1523634538191,-851968,80,-56,-1,-1,0
1523634538191,-851968,80,-56,-1,-1,0
1523634538231,-851968,80,-56,-1,-1,0
1523634538231,-851968,80,-56,-1,-1,0
1523634538231,-917504,80,-56,-1,-1,0
1523634538231,-917504,80,-56,-1,-1,0
1523634538231,-917504,80,-56,-1,-1,0
1523634538271,-917504,80,-56,-1,-1,0
1523634538271,-983040,80,-56,-1,-1,0
1523634538271,-983040,80,-56,-1,-1,0
1523634538271,-983040,80,-56,-1,-1,0
1523634538271,-983040,80,-56,-1,-1,0
1523634538313,-983040,80,-56,-1,-1,0
1523634538313,-917504,80,-56,-1,-1,0
1523634538313,-851968,80,-56,-1,-1,0
1523634538313,-720896,80,-56,-1,-1,0
1523634538313,-655360,80,-56,-1,-1,0
1523634538351,-720896,80,-56,-1,-1,0
1523634538351,-917504,80,-56,-1,-1,0
1523634538351,-983040,80,-56,-1,-1,0
1523634538351,-983040,80,-56,-1,-1,0
1523634538351,-983040,80,-56,-1,-1,0
1523634538391,-1048576,80,-56,-1,-1,0
1523634538391,-1048576,80,-56,-1,-1,0
1523634538391,-1048576,80,-56,-1,-1,0
1523634538391,-1048576,80,-56,-1,-1,0
1523634538391,-983040,80,-56,-1,-1,0
1523634538431,-983040,80,-56,-1,-1,0
1523634538431,-983040,80,-56,-1,-1,0
1523634538431,-983040,80,-56,-1,-1,0
1523634538431,-983040,80,-56,-1,-1,0
1523634538431,-1048576,80,-56,-1,-1,0
1523634538471,-786432,80,-56,-1,-1,0
1523634538471,917504,80,-56,-1,-1,0
1523634538471,4784128,80,-56,-1,-1,0
1523634538471,8192000,80,-56,-1,-1,0
1523634538471,7143424,80,-56,-1,-1,0
1523634538511,1769472,80,-56,-1,-1,0
1523634538511,-3080192,80,-56,-1,-1,0
1523634538511,-4849664,80,-56,-1,-1,0
1523634538511,-4325376,80,-56,-1,-1,0
1523634538511,-2949120,80,-56,-1,-1,0
1523634538551,-1703936,80,-56,-1,-1,0
1523634538551,-1048576,80,-56,-1,-1,0
1523634538551,-720896,80,-56,-1,-1,0
1523634538551,-524288,80,-56,-1,-1,0
1523634538551,-393216,80,-56,-1,-1,0
1523634538591,-327680,80,-56,-1,-1,0
1523634538591,-196608,80,-56,-1,-1,0
1523634538591,-131072,80,-56,-1,-1,0
1523634538591,0,80,-56,-1,-1,0
1523634538591,0,80,-56,-1,-1,0
1523634538631,131072,80,-56,-1,-1,0
1523634538631,327680,80,-56,-1,-1,0
1523634538631,458752,80,-56,-1,-1,0
1523634538631,720896,80,-56,-1,-1,0
1523634538631,1048576,80,-56,-1,-1,0
1523634538671,1441792,79,-56,-1,-1,0
1523634538671,1966080,79,-56,-1,-1,0
1523634538671,2490368,79,-56,-1,-1,0
1523634538671,3080192,79,-56,-1,-1,0
1523634538671,3670016,79,-56,-1,-1,0
1523634538711,4128768,79,-56,-1,-1,0
1523634538711,4521984,79,-56,-1,-1,0
1523634538711,4718592,79,-56,-1,-1,0
1523634538711,4718592,79,-56,-1,-1,0
1523634538711,4456448,79,-56,-1,-1,0
1523634538751,3866624,79,-56,-1,-1,0
1523634538751,3145728,79,-56,-1,-1,0
1523634538751,2359296,79,-56,-1,-1,0
1523634538751,1507328,79,-56,-1,-1,0
1523634538751,786432,79,-56,-1,-1,0
1523634538791,262144,79,-56,-1,-1,0
1523634538791,0,79,-56,-1,-1,0
1523634538791,-327680,79,-56,-1,-1,0
1523634538791,-458752,79,-56,-1,-1,0
1523634538791,-589824,79,-56,-1,-1,0
1523634538831,-589824,79,-56,-1,-1,0
1523634538831,-655360,79,-56,-1,-1,0
1523634538831,-655360,79,-56,-1,-1,0
1523634538831,-720896,79,-56,-1,-1,0
1523634538831,-720896,79,-56,-1,-1,0
1523634538871,-720896,79,-56,-1,-1,0
1523634538871,-720896,79,-56,-1,-1,0
1523634538871,-720896,79,-56,-1,-1,0
1523634538871,-720896,79,-56,-1,-1,0
1523634538871,-655360,79,-56,-1,-1,0
1523634538911,-655360,79,-56,-1,-1,0
1523634538911,-655360,79,-56,-1,-1,0
1523634538911,-655360,79,-56,-1,-1,0
1523634538911,-655360,79,-56,-1,-1,0
1523634538911,-655360,79,-56,-1,-1,0
1523634538952,-655360,79,-56,-1,-1,0
1523634538952,-655360,79,-56,-1,-1,0
1523634538952,-720896,79,-56,-1,-1,0
1523634538952,-720896,79,-56,-1,-1,0
1523634538952,-720896,79,-56,-1,-1,0
1523634538991,-720896,79,-56,-1,-1,0
1523634538991,-720896,79,-56,-1,-1,0
1523634538991,-786432,79,-56,-1,-1,0
1523634538991,-851968,79,-56,-1,-1,0
1523634538991,-786432,79,-56,-1,-1,0
1523634539031,-786432,79,-56,-1,-1,0
1523634539031,-851968,79,-56,-1,-1,0
1523634539031,-851968,79,-56,-1,-1,0
1523634539031,-851968,79,-56,-1,-1,0
1523634539031,-851968,79,-56,-1,-1,0
1523634539071,-851968,79,-56,-1,-1,0
1523634539071,-851968,79,-56,-1,-1,0
1523634539071,-917504,79,-56,-1,-1,0
1523634539071,-917504,79,-56,-1,-1,0
1523634539071,-917504,79,-56,-1,-1,0
1523634539111,-851968,79,-56,-1,-1,0
1523634539111,-851968,79,-56,-1,-1,0
1523634539111,-851968,79,-56,-1,-1,0
1523634539111,-851968,79,-56,-1,-1,0
1523634539111,-917504,79,-56,-1,-1,0
1523634539151,-917504,79,-56,-1,-1,0
1523634539151,-917504,79,-56,-1,-1,0
1523634539151,-917504,79,-56,-1,-1,0
1523634539151,-917504,79,-56,-1,-1,0
1523634539151,-917504,79,-56,-1,-1,0
1523634539192,-983040,79,-56,-1,-1,0
1523634539192,-983040,79,-56,-1,-1,0
1523634539192,-983040,79,-56,-1,-1,0
1523634539192,-983040,79,-56,-1,-1,0
1523634539192,-917504,79,-56,-1,-1,0
1523634539231,-786432,79,-56,-1,-1,0
1523634539231,-720896,79,-56,-1,-1,0
1523634539231,-655360,79,-56,-1,-1,0
1523634539231,-655360,79,-56,-1,-1,0
1523634539231,-786432,79,-56,-1,-1,0
1523634539271,-917504,79,-56,-1,-1,0
1523634539271,-983040,79,-56,-1,-1,0
1523634539271,-983040,79,-56,-1,-1,0
1523634539271,-983040,79,-56,-1,-1,0
1523634539271,-983040,79,-56,-1,-1,0
1523634539311,-917504,79,-56,-1,-1,0
1523634539311,-917504,79,-56,-1,-1,0
1523634539311,-917504,79,-56,-1,-1,0
1523634539311,-917504,79,-56,-1,-1,0
1523634539311,-917504,79,-56,-1,-1,0
1523634539351,-851968,79,-56,-1,-1,0
1523634539351,-851968,79,-56,-1,-1,0
1523634539351,-917504,79,-56,-1,-1,0
1523634539351,0,79,-56,-1,-1,0
1523634539351,2883584,79,-56,-1,-1,0
1523634539391,6946816,79,-56,-1,-1,0
1523634539391,8323072,79,-56,-1,-1,0
1523634539391,4718592,79,-56,-1,-1,0
1523634539391,-917504,79,-56,-1,-1,0
1523634539391,-4259840,79,-56,-1,-1,0
1523634539431,-4456448,79,-56,-1,-1,0
1523634539431,-3145728,79,-56,-1,-1,0
1523634539431,-1835008,79,-56,-1,-1,0
1523634539431,-1114112,79,-56,-1,-1,0
1523634539431,-720896,79,-56,-1,-1,0
1523634539471,-524288,77,-56,-1,-1,0
1523634539471,-393216,77,-56,-1,-1,0
1523634539471,-327680,77,-56,-1,-1,0
1523634539471,-262144,77,-56,-1,-1,0
1523634539471,-196608,77,-56,-1,-1,0
1523634539511,-65536,77,-56,-1,-1,0
1523634539511,0,77,-56,-1,-1,0
1523634539511,65536,77,-56,-1,-1,0
1523634539511,262144,77,-56,-1,-1,0
1523634539511,458752,77,-56,-1,-1,0
1523634539551,655360,77,-56,-1,-1,0
1523634539551,917504,77,-56,-1,-1,0
1523634539551,1245184,77,-56,-1,-1,0
1523634539551,1703936,77,-56,-1,-1,0
1523634539551,2228224,77,-56,-1,-1,0
1523634539592,2818048,77,-56,-1,-1,0
1523634539592,3407872,77,-56,-1,-1,0
1523634539592,3997696,77,-56,-1,-1,0
1523634539592,4390912,77,-56,-1,-1,0
1523634539592,4718592,77,-56,-1,-1,0
1523634539631,4784128,77,-56,-1,-1,0
1523634539631,4718592,77,-56,-1,-1,0
1523634539631,4325376,77,-56,-1,-1,0
1523634539631,3735552,77,-56,-1,-1,0
1523634539631,3014656,77,-56,-1,-1,0
1523634539671,2228224,77,-56,-1,-1,0
1523634539671,1441792,77,-56,-1,-1,0
1523634539671,786432,77,-56,-1,-1,0
1523634539671,262144,77,-56,-1,-1,0
1523634539671,0,77,-56,-1,-1,0
1523634539711,-262144,77,-56,-1,-1,0
1523634539711,-458752,77,-56,-1,-1,0
1523634539711,-524288,77,-56,-1,-1,0
1523634539711,-589824,77,-56,-1,-1,0
1523634539711,-655360,77,-56,-1,-1,0
1523634539751,-720896,77,-56,-1,-1,0
1523634539751,-720896,77,-56,-1,-1,0
1523634539751,-720896,77,-56,-1,-1,0
1523634539751,-720896,77,-56,-1,-1,0
1523634539751,-720896,77,-56,-1,-1,0
1523634539791,-720896,77,-56,-1,-1,0
1523634539791,-655360,77,-56,-1,-1,0
1523634539791,-655360,77,-56,-1,-1,0
1523634539791,-720896,77,-56,-1,-1,0
1523634539791,-720896,77,-56,-1,-1,0
1523634539831,-655360,77,-56,-1,-1,0
1523634539831,-655360,77,-56,-1,-1,0
1523634539831,-720896,77,-56,-1,-1,0
1523634539831,-720896,77,-56,-1,-1,0
1523634539831,-720896,77,-56,-1,-1,0
1523634539871,-720896,77,-56,-1,-1,0
1523634539871,-720896,77,-56,-1,-1,0
1523634539871,-786432,77,-56,-1,-1,0
1523634539871,-786432,77,-56,-1,-1,0
1523634539871,-786432,77,-56,-1,-1,0
1523634539911,-786432,77,-56,-1,-1,0
1523634539911,-851968,77,-56,-1,-1,0
1523634539911,-917504,77,-56,-1,-1,0
1523634539911,-917504,77,-56,-1,-1,0
1523634539911,-851968,77,-56,-1,-1,0
1523634539951,-917504,77,-56,-1,-1,0
1523634539951,-983040,77,-56,-1,-1,0
1523634539951,-983040,77,-56,-1,-1,0
1523634539951,-983040,77,-56,-1,-1,0
1523634539951,-983040,77,-56,-1,-1,0
1523634539991,-983040,77,-56,-1,-1,0
1523634539991,-983040,77,-56,-1,-1,0
1523634539991,-1048576,77,-56,-1,-1,0
1523634539991,-1114112,77,-56,-1,-1,0
1523634539991,-1114112,77,-56,-1,-1,0
1523634540031,-1048576,77,-56,-1,-1,0
1523634540031,-983040,77,-56,-1,-1,0
1523634540031,-917504,77,-56,-1,-1,0
1523634540031,-786432,77,-56,-1,-1,0
1523634540031,-720896,77,-56,-1,-1,0
1523634540071,-851968,77,-56,-1,-1,0
1523634540071,-983040,77,-56,-1,-1,0
1523634540071,-1048576,77,-56,-1,-1,0
1523634540071,-1048576,77,-56,-1,-1,0
1523634540071,-1048576,77,-56,-1,-1,0
1523634540111,-1048576,77,-56,-1,-1,0
1523634540111,-1114112,77,-56,-1,-1,0
1523634540111,-1114112,77,-56,-1,-1,0
1523634540111,-1114112,77,-56,-1,-1,0
1523634540111,-1114112,77,-56,-1,-1,0
1523634540151,-983040,77,-56,-1,-1,0
1523634540151,-983040,77,-56,-1,-1,0
1523634540151,-983040,77,-56,-1,-1,0
1523634540151,-1048576,77,-56,-1,-1,0
1523634540151,-1114112,77,-56,-1,-1,0
1523634540191,-327680,77,-56,-1,-1,0
1523634540191,2424832,77,-56,-1,-1,0
1523634540191,6553600,77,-56,-1,-1,0
1523634540191,8192000,77,-56,-1,-1,0
1523634540191,4718592,77,-56,-1,-1,0
1523634540232,-851968,75,-56,-1,-1,0
1523634540232,-4325376,75,-56,-1,-1,0
1523634540232,-4784128,75,-56,-1,-1,0
1523634540232,-3670016,75,-56,-1,-1,0
1523634540232,-2293760,75,-56,-1,-1,0
1523634540271,-1376256,75,-56,-1,-1,0
1523634540271,-983040,75,-56,-1,-1,0
1523634540271,-720896,75,-56,-1,-1,0
1523634540271,-524288,75,-56,-1,-1,0
1523634540271,-393216,75,-56,-1,-1,0
1523634540311,-327680,75,-56,-1,-1,0
1523634540311,-262144,75,-56,-1,-1,0
1523634540311,-196608,75,-56,-1,-1,0
1523634540311,-131072,75,-56,-1,-1,0
1523634540311,0,75,-56,-1,-1,0
1523634540351,196608,75,-56,-1,-1,0
1523634540351,327680,75,-56,-1,-1,0
1523634540351,524288,75,-56,-1,-1,0
1523634540351,851968,75,-56,-1,-1,0
1523634540351,1245184,75,-56,-1,-1,0
1523634540391,1703936,75,-56,-1,-1,0
1523634540391,2162688,75,-56,-1,-1,0
1523634540391,2752512,75,-56,-1,-1,0
1523634540391,3342336,75,-56,-1,-1,0
1523634540391,3932160,75,-56,-1,-1,0
1523634540431,4390912,75,-56,-1,-1,0
1523634540431,4718592,75,-56,-1,-1,0
1523634540431,4718592,75,-56,-1,-1,0
1523634540431,4587520,75,-56,-1,-1,0
1523634540431,4259840,75,-56,-1,-1,0
1523634540471,3604480,75,-56,-1,-1,0
1523634540471,2818048,75,-56,-1,-1,0
1523634540471,2031616,75,-56,-1,-1,0
1523634540471,1245184,75,-56,-1,-1,0
1523634540471,655360,75,-56,-1,-1,0
1523634540511,131072,75,-56,-1,-1,0
1523634540511,-196608,75,-56,-1,-1,0
1523634540511,-458752,75,-56,-1,-1,0
1523634540511,-589824,75,-56,-1,-1,0
1523634540511,-589824,75,-56,-1,-1,0
1523634540552,-655360,75,-56,-1,-1,0
1523634540552,-720896,75,-56,-1,-1,0
1523634540552,-786432,75,-56,-1,-1,0
1523634540552,-786432,75,-56,-1,-1,0
1523634540552,-786432,75,-56,-1,-1,0
1523634540591,-786432,75,-56,-1,-1,0
1523634540591,-720896,75,-56,-1,-1,0
1523634540591,-720896,75,-56,-1,-1,0
1523634540591,-720896,75,-56,-1,-1,0
1523634540591,-720896,75,-56,-1,-1,0
1523634540631,-720896,75,-56,-1,-1,0
1523634540631,-720896,75,-56,-1,-1,0
1523634540631,-720896,75,-56,-1,-1,0
1523634540631,-720896,75,-56,-1,-1,0
1523634540631,-655360,75,-56,-1,-1,0
1523634540671,-720896,75,-56,-1,-1,0
1523634540671,-720896,75,-56,-1,-1,0
1523634540671,-786432,75,-56,-1,-1,0
1523634540671,-786432,75,-56,-1,-1,0
1523634540671,-786432,75,-56,-1,-1,0
1523634540711,-851968,75,-56,-1,-1,0
1523634540711,-851968,75,-56,-1,-1,0
1523634540711,-851968,75,-56,-1,-1,0
1523634540711,-851968,75,-56,-1,-1,0
1523634540711,-917504,75,-56,-1,-1,0
1523634540751,-983040,75,-56,-1,-1,0
1523634540751,-983040,75,-56,-1,-1,0
1523634540751,-983040,75,-56,-1,-1,0
1523634540751,-983040,75,-56,-1,-1,0
1523634540751,-983040,75,-56,-1,-1,0
1523634540791,-1048576,75,-56,-1,-1,0
1523634540791,-983040,75,-56,-1,-1,0
1523634540791,-851968,75,-56,-1,-1,0
1523634540791,-720896,75,-56,-1,-1,0
1523634540791,-720896,75,-56,-1,-1,0
1523634540831,-786432,75,-56,-1,-1,0
1523634540831,-917504,75,-56,-1,-1,0
1523634540831,-983040,75,-56,-1,-1,0
1523634540831,-983040,75,-56,-1,-1,0
1523634540831,-1048576,75,-56,-1,-1,0
1523634540872,-1114112,75,-56,-1,-1,0
1523634540872,-1114112,75,-56,-1,-1,0
1523634540872,-1114112,75,-56,-1,-1,0
1523634540872,-1048576,75,-56,-1,-1,0
1523634540872,-1048576,75,-56,-1,-1,0
1523634540911,-1048576,75,-56,-1,-1,0
1523634540911,-1048576,75,-56,-1,-1,0
1523634540911,-983040,75,-56,-1,-1,0
1523634540911,-917504,75,-56,-1,-1,0
1523634540911,-983040,75,-56,-1,-1,0
1523634540951,-851968,75,-56,-1,-1,0
1523634540951,720896,75,-56,-1,-1,0
1523634540951,4653056,75,-56,-1,-1,0
1523634540951,8323072,75,-56,-1,-1,0
1523634540951,7405568,75,-56,-1,-1,0
1523634540992,1966080,75,-56,-1,-1,0
1523634540992,-2949120,75,-56,-1,-1,0
1523634540992,-4849664,75,-56,-1,-1,0
1523634540992,-4456448,75,-56,-1,-1,0
1523634540992,-3145728,75,-56,-1,-1,0
1523634541031,-1966080,75,-56,-1,-1,0
1523634541031,-1179648,75,-56,-1,-1,0
1523634541031,-786432,75,-56,-1,-1,0
1523634541031,-589824,75,-56,-1,-1,0
1523634541031,-524288,75,-56,-1,-1,0
1523634541071,-393216,75,-56,-1,-1,0
1523634541071,-262144,75,-56,-1,-1,0
1523634541071,-196608,75,-56,-1,-1,0
1523634541071,-131072,75,-56,-1,-1,0
1523634541071,0,75,-56,-1,-1,0
1523634541111,65536,75,-56,-1,-1,0
1523634541111,196608,75,-56,-1,-1,0
1523634541111,393216,75,-56,-1,-1,0
1523634541111,655360,75,-56,-1,-1,0
1523634541111,917504,75,-56,-1,-1,0
1523634541151,1376256,75,-56,-1,-1,0
1523634541151,1900544,75,-56,-1,-1,0
1523634541151,2424832,75,-56,-1,-1,0
1523634541151,3014656,75,-56,-1,-1,0
1523634541151,3538944,75,-56,-1,-1,0
1523634541192,4063232,75,-56,-1,-1,0
1523634541192,4521984,75,-56,-1,-1,0
1523634541192,4653056,75,-56,-1,-1,0
1523634541192,4587520,75,-56,-1,-1,0
1523634541192,4259840,75,-56,-1,-1,0
1523634541231,3670016,75,-56,-1,-1,0
1523634541231,2949120,75,-56,-1,-1,0
1523634541231,2162688,75,-56,-1,-1,0
1523634541231,1376256,75,-56,-1,-1,0
1523634541231,655360,75,-56,-1,-1,0
1523634541273,131072,75,-56,-1,-1,0
1523634541273,-131072,75,-56,-1,-1,0
1523634541273,-393216,75,-56,-1,-1,0
1523634541273,-524288,75,-56,-1,-1,0
1523634541273,-589824,75,-56,-1,-1,0
1523634541311,-655360,75,-56,-1,-1,0
1523634541311,-720896,75,-56,-1,-1,0
1523634541311,-720896,75,-56,-1,-1,0
1523634541311,-720896,75,-56,-1,-1,0
1523634541311,-720896,75,-56,-1,-1,0
1523634541351,-655360,75,-56,-1,-1,0
1523634541351,-720896,75,-56,-1,-1,0
1523634541351,-720896,75,-56,-1,-1,0
1523634541351,-720896,75,-56,-1,-1,0
1523634541351,-655360,75,-56,-1,-1,0
1523634541391,-655360,75,-56,-1,-1,0
1523634541391,-589824,75,-56,-1,-1,0
1523634541391,-655360,75,-56,-1,-1,0
1523634541391,-720896,75,-56,-1,-1,0
1523634541391,-720896,75,-56,-1,-1,0
1523634541431,-655360,75,-56,-1,-1,0
1523634541431,-655360,75,-56,-1,-1,0
1523634541431,-589824,75,-56,-1,-1,0
1523634541431,-655360,75,-56,-1,-1,0
1523634541431,-720896,75,-56,-1,-1,0
1523634541471,-720896,75,-56,-1,-1,0
1523634541471,-720896,75,-56,-1,-1,0
1523634541471,-655360,75,-56,-1,-1,0
1523634541471,-720896,75,-56,-1,-1,0
1523634541471,-851968,75,-56,-1,-1,0
1523634541512,-917504,75,-56,-1,-1,0
1523634541512,-851968,75,-56,-1,-1,0
1523634541512,-851968,75,-56,-1,-1,0
1523634541512,-917504,75,-56,-1,-1,0
1523634541512,-851968,75,-56,-1,-1,0
1523634541551,-720896,75,-56,-1,-1,0
1523634541551,-589824,75,-56,-1,-1,0
1523634541551,-589824,75,-56,-1,-1,0
1523634541551,-655360,75,-56,-1,-1,0
1523634541551,-786432,75,-56,-1,-1,0
1523634541591,-851968,75,-56,-1,-1,0
1523634541591,-917504,75,-56,-1,-1,0
1523634541591,-983040,75,-56,-1,-1,0
1523634541591,-917504,75,-56,-1,-1,0
1523634541591,-851968,75,-56,-1,-1,0
1523634541631,-851968,75,-56,-1,-1,0
1523634541631,-917504,75,-56,-1,-1,0
1523634541631,-983040,75,-56,-1,-1,0
1523634541631,-917504,75,-56,-1,-1,0
1523634541631,-851968,75,-56,-1,-1,0
1523634541671,-851968,75,-56,-1,-1,0
1523634541671,-917504,75,-56,-1,-1,0
1523634541671,-720896,75,-56,-1,-1,0
1523634541671,983040,75,-56,-1,-1,0
1523634541671,4915200,75,-56,-1,-1,0
1523634541711,8257536,75,-56,-1,-1,0
1523634541711,7012352,75,-56,-1,-1,0
1523634541711,1638400,75,-56,-1,-1,0
1523634541711,-2949120,75,-56,-1,-1,0
1523634541711,-4587520,75,-56,-1,-1,0
1523634541751,-3997696,75,-56,-1,-1,0
1523634541751,-2752512,75,-56,-1,-1,0
1523634541751,-1638400,75,-56,-1,-1,0
1523634541751,-1048576,75,-56,-1,-1,0
1523634541751,-720896,75,-56,-1,-1,0
1523634541791,-589824,75,-56,-1,-1,0
1523634541791,-458752,75,-56,-1,-1,0
1523634541791,-327680,75,-56,-1,-1,0
1523634541791,-327680,75,-56,-1,-1,0
1523634541791,-262144,75,-56,-1,-1,0
1523634541831,-131072,75,-56,-1,-1,0
1523634541831,0,75,-56,-1,-1,0
1523634541831,65536,75,-56,-1,-1,0
1523634541831,262144,75,-56,-1,-1,0
1523634541831,458752,75,-56,-1,-1,0
1523634541871,720896,75,-56,-1,-1,0
1523634541871,983040,75,-56,-1,-1,0
1523634541871,1376256,75,-56,-1,-1,0
1523634541871,1835008,75,-56,-1,-1,0
1523634541871,2359296,75,-56,-1,-1,0
1523634541911,2949120,75,-56,-1,-1,0
1523634541911,3407872,75,-56,-1,-1,0
1523634541911,3801088,75,-56,-1,-1,0
1523634541911,4128768,75,-56,-1,-1,0
1523634541911,4325376,75,-56,-1,-1,0
1523634541951,4194304,75,-56,-1,-1,0
1523634541951,3932160,75,-56,-1,-1,0
1523634541951,3407872,75,-56,-1,-1,0
1523634541951,2752512,75,-56,-1,-1,0
1523634541951,1966080,75,-56,-1,-1,0
1523634541991,1179648,75,-56,-1,-1,0
1523634541991,524288,75,-56,-1,-1,0
1523634541991,65536,75,-56,-1,-1,0
1523634541991,-196608,75,-56,-1,-1,0
1523634541991,-524288,75,-56,-1,-1,0
1523634542031,-655360,75,-56,-1,-1,0
1523634542031,-655360,75,-56,-1,-1,0
1523634542031,-720896,75,-56,-1,-1,0
1523634542031,-786432,75,-56,-1,-1,0
1523634542031,-786432,75,-56,-1,-1,0
1523634542071,-786432,75,-56,-1,-1,0
1523634542071,-786432,75,-56,-1,-1,0
1523634542071,-720896,75,-56,-1,-1,0
1523634542071,-786432,75,-56,-1,-1,0
1523634542071,-720896,75,-56,-1,-1,0
1523634542111,-720896,75,-56,-1,-1,0
1523634542111,-720896,75,-56,-1,-1,0
1523634542111,-720896,75,-56,-1,-1,0
1523634542111,-720896,75,-56,-1,-1,0
1523634542111,-655360,75,-56,-1,-1,0
1523634542152,-655360,75,-56,-1,-1,0
1523634542152,-720896,75,-56,-1,-1,0
1523634542152,-720896,75,-56,-1,-1,0
1523634542152,-655360,75,-56,-1,-1,0
1523634542152,-655360,75,-56,-1,-1,0
1523634542191,-655360,75,-56,-1,-1,0
1523634542191,-720896,75,-56,-1,-1,0
1523634542191,-720896,75,-56,-1,-1,0
1523634542191,-786432,75,-56,-1,-1,0
1523634542191,-851968,75,-56,-1,-1,0
1523634542231,-851968,75,-56,-1,-1,0
1523634542231,-786432,75,-56,-1,-1,0
1523634542231,-655360,75,-56,-1,-1,0
1523634542231,-589824,75,-56,-1,-1,0
1523634542231,-524288,75,-56,-1,-1,0
1523634542271,-524288,75,-56,-1,-1,0
1523634542271,-720896,75,-56,-1,-1,0
1523634542271,-917504,75,-56,-1,-1,0
1523634542271,-983040,75,-56,-1,-1,0
1523634542271,-917504,75,-56,-1,-1,0
1523634542311,-917504,75,-56,-1,-1,0
1523634542311,-983040,75,-56,-1,-1,0
1523634542311,-1048576,75,-56,-1,-1,0
1523634542311,-1048576,75,-56,-1,-1,0
1523634542311,-1048576,75,-56,-1,-1,0
1523634542351,-983040,75,-56,-1,-1,0
1523634542351,-917504,75,-56,-1,-1,0
1523634542351,-917504,75,-56,-1,-1,0
1523634542351,-917504,75,-56,-1,-1,0
1523634542351,-983040,75,-56,-1,-1,0
1523634542391,-1048576,75,-56,-1,-1,0
1523634542391,-327680,75,-56,-1,-1,0
1523634542391,2293760,75,-56,-1,-1,0
1523634542391,5963776,75,-56,-1,-1,0
1523634542391,6946816,75,-56,-1,-1,0
1523634542431,3604480,75,-56,-1,-1,0
1523634542431,-1179648,75,-56,-1,-1,0
1523634542431,-4063232,75,-56,-1,-1,0
1523634542431,-4456448,75,-56,-1,-1,0
1523634542431,-3538944,75,-56,-1,-1,0
1523634542471,-2359296,75,-56,-1,-1,0
1523634542471,-1507328,75,-56,-1,-1,0
1523634542471,-1114112,75,-56,-1,-1,0
1523634542471,-851968,75,-56,-1,-1,0
1523634542471,-589824,75,-56,-1,-1,0
1523634542511,-524288,75,-56,-1,-1,0
1523634542511,-458752,75,-56,-1,-1,0
1523634542511,-393216,75,-56,-1,-1,0
1523634542511,-327680,75,-56,-1,-1,0
1523634542511,-262144,75,-56,-1,-1,0
1523634542551,-131072,75,-56,-1,-1,0
1523634542551,0,75,-56,-1,-1,0
1523634542551,131072,75,-56,-1,-1,0
1523634542551,393216,75,-56,-1,-1,0
1523634542551,655360,75,-56,-1,-1,0
1523634542591,851968,75,-56,-1,-1,0
1523634542591,1245184,75,-56,-1,-1,0
1523634542591,1769472,75,-56,-1,-1,0
1523634542591,2228224,75,-56,-1,-1,0
1523634542591,2686976,75,-56,-1,-1,0
1523634542631,3145728,75,-56,-1,-1,0
1523634542631,3538944,75,-56,-1,-1,0
1523634542631,3735552,75,-56,-1,-1,0
1523634542631,3735552,75,-56,-1,-1,0
1523634542631,3670016,75,-56,-1,-1,0
1523634542671,3342336,75,-56,-1,-1,0
1523634542671,2621440,75,-56,-1,-1,0
1523634542671,1900544,75,-56,-1,-1,0
1523634542671,1245184,75,-56,-1,-1,0
1523634542671,655360,75,-56,-1,-1,0
1523634542711,131072,75,-56,-1,-1,0
1523634542711,-196608,75,-56,-1,-1,0
1523634542711,-524288,75,-56,-1,-1,0
1523634542711,-720896,75,-56,-1,-1,0
1523634542711,-786432,75,-56,-1,-1,0
1523634542751,-786432,75,-56,-1,-1,0
1523634542751,-851968,75,-56,-1,-1,0
1523634542751,-917504,75,-56,-1,-1,0
1523634542751,-917504,75,-56,-1,-1,0
1523634542751,-917504,75,-56,-1,-1,0
1523634542793,-917504,75,-56,-1,-1,0
1523634542793,-983040,75,-56,-1,-1,0
1523634542793,-983040,75,-56,-1,-1,0
1523634542793,-917504,75,-56,-1,-1,0
1523634542793,-851968,75,-56,-1,-1,0
1523634542831,-786432,75,-56,-1,-1,0
1523634542831,-851968,75,-56,-1,-1,0
1523634542831,-851968,75,-56,-1,-1,0
1523634542831,-851968,75,-56,-1,-1,0
1523634542831,-851968,75,-56,-1,-1,0
1523634542871,-851968,75,-56,-1,-1,0
1523634542871,-851968,75,-56,-1,-1,0
1523634542871,-786432,75,-56,-1,-1,0
1523634542871,-851968,75,-56,-1,-1,0
1523634542871,-917504,75,-56,-1,-1,0
1523634542911,-917504,75,-56,-1,-1,0
1523634542911,-917504,75,-56,-1,-1,0
1523634542911,-917504,75,-56,-1,-1,0
1523634542911,-851968,75,-56,-1,-1,0
1523634542911,-786432,75,-56,-1,-1,0
1523634542951,-786432,75,-56,-1,-1,0
1523634542951,-786432,75,-56,-1,-1,0
1523634542951,-851968,75,-56,-1,-1,0
1523634542951,-917504,75,-56,-1,-1,0
1523634542951,-1114112,75,-56,-1,-1,0
1523634542991,-1179648,75,-56,-1,-1,0
1523634542991,-1114112,75,-56,-1,-1,0
1523634542991,-1114112,75,-56,-1,-1,0
1523634542991,-1179648,75,-56,-1,-1,0
1523634542991,-1179648,75,-56,-1,-1,0
1523634543031,-1179648,75,-56,-1,-1,0
1523634543031,-1245184,75,-56,-1,-1,0
1523634543031,-1179648,75,-56,-1,-1,0
1523634543031,-1179648,75,-56,-1,-1,0
1523634543031,-1179648,75,-56,-1,-1,0
1523634543071,-1179648,75,-56,-1,-1,0
1523634543071,-1179648,75,-56,-1,-1,0
1523634543071,-983040,75,-56,-1,-1,0
1523634543071,196608,75,-56,-1,-1,0
1523634543071,3211264,75,-56,-1,-1,0
1523634543111,6225920,75,-56,-1,-1,0
1523634543111,5701632,75,-56,-1,-1,0
1523634543111,1376256,75,-56,-1,-1,0
1523634543111,-2752512,75,-56,-1,-1,0
1523634543111,-4718592,75,-56,-1,-1,0
1523634543151,-4784128,75,-56,-1,-1,0
1523634543151,-3670016,75,-56,-1,-1,0
1523634543151,-2424832,75,-56,-1,-1,0
1523634543151,-1638400,75,-56,-1,-1,0
1523634543151,-1245184,75,-56,-1,-1,0
1523634543191,-983040,75,-56,-1,-1,0
1523634543191,-720896,75,-56,-1,-1,0
1523634543191,-589824,75,-56,-1,-1,0
1523634543191,-524288,75,-56,-1,-1,0
1523634543191,-524288,75,-56,-1,-1,0
1523634543231,-458752,75,-56,-1,-1,0
1523634543231,-327680,75,-56,-1,-1,0
1523634543231,-131072,75,-56,-1,-1,0
1523634543231,0,75,-56,-1,-1,0
1523634543231,196608,75,-56,-1,-1,0
1523634543271,327680,75,-56,-1,-1,0
1523634543271,524288,75,-56,-1,-1,0
1523634543271,851968,75,-56,-1,-1,0
1523634543271,1310720,75,-56,-1,-1,0
1523634543271,1900544,75,-56,-1,-1,0
1523634543311,2424832,75,-56,-1,-1,0
1523634543311,2949120,75,-56,-1,-1,0
1523634543311,3407872,75,-56,-1,-1,0
1523634543311,3604480,75,-56,-1,-1,0
1523634543311,3670016,75,-56,-1,-1,0
1523634543351,3735552,75,-56,-1,-1,0
1523634543351,3670016,75,-56,-1,-1,0
1523634543351,3145728,75,-56,-1,-1,0
1523634543351,2490368,75,-56,-1,-1,0
1523634543351,1769472,75,-56,-1,-1,0
1523634543391,1179648,75,-56,-1,-1,0
1523634543391,589824,75,-56,-1,-1,0
1523634543391,0,75,-56,-1,-1,0
1523634543391,-262144,75,-56,-1,-1,0
1523634543391,-524288,75,-56,-1,-1,0
1523634543432,-589824,75,-56,-1,-1,0
1523634543432,-589824,75,-56,-1,-1,0
1523634543432,-524288,75,-56,-1,-1,0
1523634543432,-524288,75,-56,-1,-1,0
1523634543432,-589824,75,-56,-1,-1,0
1523634543471,-720896,75,-56,-1,-1,0
1523634543471,-720896,75,-56,-1,-1,0
1523634543471,-720896,75,-56,-1,-1,0
1523634543471,-655360,75,-56,-1,-1,0
1523634543471,-655360,75,-56,-1,-1,0
1523634543511,-720896,75,-56,-1,-1,0
1523634543511,-655360,75,-56,-1,-1,0
1523634543511,-589824,75,-56,-1,-1,0
1523634543511,-655360,75,-56,-1,-1,0
1523634543511,-786432,75,-56,-1,-1,0
1523634543551,-720896,75,-56,-1,-1,0
1523634543551,-524288,75,-56,-1,-1,0
1523634543551,-393216,75,-56,-1,-1,0
1523634543551,-393216,75,-56,-1,-1,0
1523634543551,-524288,75,-56,-1,-1,0
1523634543591,-720896,75,-56,-1,-1,0
1523634543591,-851968,75,-56,-1,-1,0
1523634543591,-655360,75,-56,-1,-1,0
1523634543591,-524288,75,-56,-1,-1,0
1523634543591,-524288,75,-56,-1,-1,0
1523634543631,-589824,75,-56,-1,-1,0
1523634543631,-524288,75,-56,-1,-1,0
1523634543631,-589824,75,-56,-1,-1,0
1523634543631,-720896,75,-56,-1,-1,0
1523634543631,-720896,75,-56,-1,-1,0
1523634543671,-917504,75,-56,-1,-1,0
1523634543671,-1048576,75,-56,-1,-1,0
1523634543671,-917504,75,-56,-1,-1,0
1523634543671,-851968,75,-56,-1,-1,0
1523634543671,-786432,75,-56,-1,-1,0
1523634543711,-786432,75,-56,-1,-1,0
1523634543711,-983040,75,-56,-1,-1,0
1523634543711,-1114112,75,-56,-1,-1,0
1523634543711,-983040,75,-56,-1,-1,0
1523634543711,-851968,75,-56,-1,-1,0
1523634543751,-851968,75,-56,-1,-1,0
1523634543751,-720896,75,-56,-1,-1,0
1523634543751,131072,75,-56,-1,-1,0
1523634543751,2949120,75,-56,-1,-1,0
1523634543751,6488064,75,-56,-1,-1,0
1523634543791,6881280,75,-56,-1,-1,0
1523634543791,2818048,75,-56,-1,-1,0
1523634543791,-1900544,75,-56,-1,-1,0
1523634543791,-4390912,75,-56,-1,-1,0
1523634543791,-4521984,75,-56,-1,-1,0
1523634543831,-3538944,75,-56,-1,-1,0
1523634543831,-2424832,75,-56,-1,-1,0
1523634543831,-1507328,75,-56,-1,-1,0
1523634543831,-983040,75,-56,-1,-1,0
1523634543831,-786432,75,-56,-1,-1,0
1523634543871,-655360,75,-56,-1,-1,0
1523634543871,-458752,75,-56,-1,-1,0
1523634543871,-327680,75,-56,-1,-1,0
1523634543871,-327680,75,-56,-1,-1,0
1523634543871,-262144,75,-56,-1,-1,0
1523634543911,-131072,75,-56,-1,-1,0
1523634543911,-65536,75,-56,-1,-1,0
1523634543911,0,75,-56,-1,-1,0
1523634543911,131072,75,-56,-1,-1,0
1523634543911,393216,75,-56,-1,-1,0
1523634543951,655360,75,-56,-1,-1,0
1523634543951,917504,75,-56,-1,-1,0
1523634543951,1376256,75,-56,-1,-1,0
1523634543951,1769472,75,-56,-1,-1,0
1523634543951,2359296,75,-56,-1,-1,0
1523634543991,2818048,75,-56,-1,-1,0
1523634543991,3276800,75,-56,-1,-1,0
1523634543991,3538944,75,-56,-1,-1,0
1523634543991,3735552,75,-56,-1,-1,0
1523634543991,3604480,75,-56,-1,-1,0
1523634544031,3342336,75,-56,-1,-1,0
1523634544031,2949120,75,-56,-1,-1,0
1523634544031,2228224,75,-56,-1,-1,0
1523634544031,1507328,75,-56,-1,-1,0
1523634544031,851968,75,-56,-1,-1,0
1523634544072,327680,75,-56,-1,-1,0
1523634544072,-131072,75,-56,-1,-1,0
1523634544072,-327680,75,-56,-1,-1,0
1523634544072,-524288,75,-56,-1,-1,0
1523634544072,-655360,75,-56,-1,-1,0
1523634544111,-786432,75,-56,-1,-1,0
1523634544111,-851968,75,-56,-1,-1,0
1523634544111,-917504,75,-56,-1,-1,0
1523634544111,-917504,75,-56,-1,-1,0
1523634544111,-917504,75,-56,-1,-1,0
1523634544151,-917504,75,-56,-1,-1,0
1523634544151,-917504,75,-56,-1,-1,0
1523634544151,-917504,75,-56,-1,-1,0
1523634544151,-917504,75,-56,-1,-1,0
1523634544151,-917504,75,-56,-1,-1,0
1523634544191,-786432,75,-56,-1,-1,0
1523634544191,-786432,75,-56,-1,-1,0
1523634544191,-851968,75,-56,-1,-1,0
1523634544191,-917504,75,-56,-1,-1,0
1523634544191,-786432,75,-56,-1,-1,0
1523634544231,-786432,75,-56,-1,-1,0
1523634544231,-720896,75,-56,-1,-1,0
1523634544231,-786432,75,-56,-1,-1,0
1523634544231,-851968,75,-56,-1,-1,0
1523634544231,-851968,75,-56,-1,-1,0
1523634544271,-720896,75,-56,-1,-1,0
1523634544271,-655360,75,-56,-1,-1,0
1523634544271,-655360,75,-56,-1,-1,0
1523634544271,-655360,75,-56,-1,-1,0
1523634544271,-720896,75,-56,-1,-1,0
1523634544311,-786432,75,-56,-1,-1,0
1523634544311,-917504,75,-56,-1,-1,0
1523634544311,-1048576,75,-56,-1,-1,0
1523634544311,-1048576,75,-56,-1,-1,0
1523634544311,-1048576,75,-56,-1,-1,0
1523634544351,-1114112,75,-56,-1,-1,0
1523634544351,-1114112,75,-56,-1,-1,0
1523634544351,-1114112,75,-56,-1,-1,0
1523634544351,-1114112,75,-56,-1,-1,0
1523634544351,-1114112,75,-56,-1,-1,0
1523634544391,-1179648,76,-56,-1,-1,0
1523634544391,-1179648,76,-56,-1,-1,0
1523634544391,-1114112,76,-56,-1,-1,0
1523634544391,-1114112,76,-56,-1,-1,0
1523634544391,-1114112,76,-56,-1,-1,0
1523634544431,-524288,76,-56,-1,-1,0
1523634544431,1835008,76,-56,-1,-1,0
1523634544431,5832704,76,-56,-1,-1,0
1523634544431,7733248,76,-56,-1,-1,0
1523634544431,4915200,76,-56,-1,-1,0
1523634544476,-327680,76,-56,-1,-1,0
1523634544476,-3932160,76,-56,-1,-1,0
1523634544476,-4718592,76,-56,-1,-1,0
1523634544476,-3866624,76,-56,-1,-1,0
1523634544476,-2490368,76,-56,-1,-1,0
1523634544511,-1507328,76,-56,-1,-1,0
1523634544511,-1114112,76,-56,-1,-1,0
1523634544511,-917504,76,-56,-1,-1,0
1523634544511,-720896,76,-56,-1,-1,0
1523634544511,-655360,76,-56,-1,-1,0
1523634544551,-589824,76,-56,-1,-1,0
1523634544551,-524288,76,-56,-1,-1,0
1523634544551,-458752,76,-56,-1,-1,0
1523634544551,-327680,76,-56,-1,-1,0
1523634544551,-196608,76,-56,-1,-1,0
1523634544591,-65536,76,-56,-1,-1,0
1523634544591,131072,76,-56,-1,-1,0
1523634544591,327680,76,-56,-1,-1,0
1523634544591,524288,76,-56,-1,-1,0
1523634544591,851968,76,-56,-1,-1,0
1523634544631,1245184,76,-56,-1,-1,0
1523634544631,1703936,76,-56,-1,-1,0
1523634544631,2293760,76,-56,-1,-1,0
1523634544631,2883584,76,-56,-1,-1,0
1523634544631,3342336,76,-56,-1,-1,0
1523634544671,3670016,76,-56,-1,-1,0
1523634544671,3866624,76,-56,-1,-1,0
1523634544671,3866624,76,-56,-1,-1,0
1523634544671,3670016,76,-56,-1,-1,0
1523634544671,3276800,76,-56,-1,-1,0
1523634544713,2686976,76,-56,-1,-1,0
1523634544713,1900544,76,-56,-1,-1,0
1523634544713,1179648,76,-56,-1,-1,0
1523634544713,524288,76,-56,-1,-1,0
1523634544713,65536,76,-56,-1,-1,0
1523634544751,-262144,76,-56,-1,-1,0
1523634544751,-589824,76,-56,-1,-1,0
1523634544751,-720896,76,-56,-1,-1,0
1523634544751,-786432,76,-56,-1,-1,0
1523634544751,-917504,76,-56,-1,-1,0
1523634544791,-1048576,76,-56,-1,-1,0
1523634544791,-983040,76,-56,-1,-1,0
1523634544791,-917504,76,-56,-1,-1,0
1523634544791,-917504,76,-56,-1,-1,0
1523634544791,-1048576,76,-56,-1,-1,0
1523634544831,-1114112,76,-56,-1,-1,0
1523634544831,-1114112,76,-56,-1,-1,0
1523634544831,-983040,76,-56,-1,-1,0
1523634544831,-983040,76,-56,-1,-1,0
1523634544831,-983040,76,-56,-1,-1,0
1523634544871,-1048576,76,-56,-1,-1,0
1523634544871,-1048576,76,-56,-1,-1,0
1523634544871,-1048576,76,-56,-1,-1,0
1523634544871,-1114112,76,-56,-1,-1,0
1523634544871,-1048576,76,-56,-1,-1,0
1523634544911,-917504,76,-56,-1,-1,0
1523634544911,-983040,76,-56,-1,-1,0
1523634544911,-1114112,76,-56,-1,-1,0
1523634544911,-1048576,76,-56,-1,-1,0
1523634544911,-917504,76,-56,-1,-1,0
1523634544953,-917504,76,-56,-1,-1,0
1523634544953,-851968,76,-56,-1,-1,0
1523634544953,-786432,76,-56,-1,-1,0
1523634544953,-851968,76,-56,-1,-1,0
1523634544953,-1048576,76,-56,-1,-1,0
1523634544993,-1179648,76,-56,-1,-1,0
1523634544993,-1245184,76,-56,-1,-1,0
1523634544993,-1310720,76,-56,-1,-1,0
1523634544993,-1310720,76,-56,-1,-1,0
1523634544993,-1310720,76,-56,-1,-1,0
1523634545031,-1245184,76,-56,-1,-1,0
1523634545031,-1310720,76,-56,-1,-1,0
1523634545031,-1310720,76,-56,-1,-1,0
1523634545031,-1376256,76,-56,-1,-1,0
1523634545031,-1376256,76,-56,-1,-1,0
1523634545071,-1310720,78,-56,-1,-1,0
1523634545071,-1245184,78,-56,-1,-1,0
1523634545071,-1310720,78,-56,-1,-1,0
1523634545071,-1376256,78,-56,-1,-1,0
1523634545071,-1048576,78,-56,-1,-1,0
1523634545111,983040,78,-56,-1,-1,0
1523634545111,4915200,78,-56,-1,-1,0
1523634545111,7667712,78,-56,-1,-1,0
1523634545111,5767168,78,-56,-1,-1,0
1523634545111,589824,78,-56,-1,-1,0
1523634545151,-3473408,78,-56,-1,-1,0
1523634545151,-4718592,78,-56,-1,-1,0
1523634545151,-4194304,78,-56,-1,-1,0
1523634545151,-2949120,78,-56,-1,-1,0
1523634545151,-1835008,78,-56,-1,-1,0
1523634545191,-1310720,78,-56,-1,-1,0
1523634545191,-1114112,78,-56,-1,-1,0
1523634545191,-917504,78,-56,-1,-1,0
1523634545191,-786432,78,-56,-1,-1,0
1523634545191,-720896,78,-56,-1,-1,0
1523634545232,-655360,78,-56,-1,-1,0
1523634545232,-524288,78,-56,-1,-1,0
1523634545232,-458752,78,-56,-1,-1,0
1523634545232,-262144,78,-56,-1,-1,0
1523634545232,-131072,78,-56,-1,-1,0
1523634545271,0,78,-56,-1,-1,0
1523634545271,131072,78,-56,-1,-1,0
1523634545271,458752,78,-56,-1,-1,0
1523634545271,786432,78,-56,-1,-1,0
1523634545271,1179648,78,-56,-1,-1,0
1523634545311,1572864,78,-56,-1,-1,0
1523634545311,2162688,78,-56,-1,-1,0
1523634545311,2752512,78,-56,-1,-1,0
1523634545311,3211264,78,-56,-1,-1,0
1523634545311,3670016,78,-56,-1,-1,0
1523634545352,3997696,78,-56,-1,-1,0
1523634545352,3997696,78,-56,-1,-1,0
1523634545352,3735552,78,-56,-1,-1,0
1523634545352,3407872,78,-56,-1,-1,0
1523634545352,2883584,78,-56,-1,-1,0
1523634545392,2162688,78,-56,-1,-1,0
1523634545392,1507328,78,-56,-1,-1,0
1523634545392,851968,78,-56,-1,-1,0
1523634545392,262144,78,-56,-1,-1,0
1523634545392,-65536,78,-56,-1,-1,0
1523634545431,-327680,78,-56,-1,-1,0
1523634545431,-524288,78,-56,-1,-1,0
1523634545431,-655360,78,-56,-1,-1,0
1523634545431,-720896,78,-56,-1,-1,0
1523634545431,-786432,78,-56,-1,-1,0
1523634545471,-786432,78,-56,-1,-1,0
1523634545471,-786432,78,-56,-1,-1,0
1523634545471,-786432,78,-56,-1,-1,0
1523634545471,-851968,78,-56,-1,-1,0
1523634545471,-851968,78,-56,-1,-1,0
1523634545511,-786432,78,-56,-1,-1,0
1523634545511,-786432,78,-56,-1,-1,0
1523634545511,-786432,78,-56,-1,-1,0
1523634545511,-786432,78,-56,-1,-1,0
1523634545511,-786432,78,-56,-1,-1,0
1523634545551,-786432,78,-56,-1,-1,0
1523634545551,-720896,78,-56,-1,-1,0
1523634545551,-720896,78,-56,-1,-1,0
1523634545551,-786432,78,-56,-1,-1,0
1523634545551,-786432,78,-56,-1,-1,0
1523634545591,-786432,78,-56,-1,-1,0
1523634545591,-786432,78,-56,-1,-1,0
1523634545591,-786432,78,-56,-1,-1,0
1523634545591,-786432,78,-56,-1,-1,0
1523634545591,-851968,78,-56,-1,-1,0
1523634545631,-851968,78,-56,-1,-1,0
1523634545631,-786432,78,-56,-1,-1,0
1523634545631,-655360,78,-56,-1,-1,0
1523634545631,-655360,78,-56,-1,-1,0
1523634545631,-655360,78,-56,-1,-1,0
1523634545672,-720896,78,-56,-1,-1,0
1523634545672,-851968,78,-56,-1,-1,0
1523634545672,-917504,78,-56,-1,-1,0
1523634545672,-983040,78,-56,-1,-1,0
1523634545672,-983040,78,-56,-1,-1,0
1523634545711,-1048576,78,-56,-1,-1,0
1523634545711,-983040,78,-56,-1,-1,0
1523634545711,-983040,78,-56,-1,-1,0
1523634545711,-1048576,78,-56,-1,-1,0
1523634545711,-983040,78,-56,-1,-1,0
1523634545751,-917504,78,-56,-1,-1,0
1523634545751,-917504,78,-56,-1,-1,0
1523634545751,-851968,78,-56,-1,-1,0
1523634545751,-917504,78,-56,-1,-1,0
1523634545751,-1048576,78,-56,-1,-1,0
1523634545791,-983040,81,-56,-1,-1,0
1523634545791,458752,81,-56,-1,-1,0
1523634545791,4259840,81,-56,-1,-1,0
1523634545791,8060928,81,-56,-1,-1,0
1523634545791,7733248,81,-56,-1,-1,0
1523634545831,2752512,81,-56,-1,-1,0
1523634545831,-2293760,81,-56,-1,-1,0
1523634545831,-4521984,81,-56,-1,-1,0
1523634545831,-4325376,81,-56,-1,-1,0
1523634545831,-3211264,81,-56,-1,-1,0
1523634545871,-1966080,81,-56,-1,-1,0
1523634545871,-1245184,81,-56,-1,-1,0
1523634545871,-917504,81,-56,-1,-1,0
1523634545871,-720896,81,-56,-1,-1,0
1523634545871,-589824,81,-56,-1,-1,0
1523634545911,-458752,81,-56,-1,-1,0
1523634545911,-393216,81,-56,-1,-1,0
1523634545911,-262144,81,-56,-1,-1,0
1523634545911,-196608,81,-56,-1,-1,0
1523634545911,-196608,81,-56,-1,-1,0
1523634545951,-65536,81,-56,-1,-1,0
1523634545951,131072,81,-56,-1,-1,0
1523634545951,327680,81,-56,-1,-1,0
1523634545951,458752,81,-56,-1,-1,0
1523634545951,786432,81,-56,-1,-1,0
1523634545992,1245184,81,-56,-1,-1,0
1523634545992,1703936,81,-56,-1,-1,0
1523634545992,2162688,81,-56,-1,-1,0
1523634545992,2686976,81,-56,-1,-1,0
1523634545992,3211264,81,-56,-1,-1,0
1523634546031,3670016,81,-56,-1,-1,0
1523634546031,3997696,81,-56,-1,-1,0
1523634546031,4063232,81,-56,-1,-1,0
1523634546031,3866624,81,-56,-1,-1,0
1523634546031,3604480,81,-56,-1,-1,0
1523634546071,3145728,81,-56,-1,-1,0
1523634546071,2490368,81,-56,-1,-1,0
1523634546071,1703936,81,-56,-1,-1,0
1523634546071,917504,81,-56,-1,-1,0
1523634546071,393216,81,-56,-1,-1,0
1523634546111,0,81,-56,-1,-1,0
1523634546111,-393216,81,-56,-1,-1,0
1523634546111,-524288,81,-56,-1,-1,0
1523634546111,-589824,81,-56,-1,-1,0
1523634546111,-720896,81,-56,-1,-1,0
1523634546151,-851968,81,-56,-1,-1,0
1523634546151,-917504,81,-56,-1,-1,0
1523634546151,-786432,81,-56,-1,-1,0
1523634546151,-786432,81,-56,-1,-1,0
1523634546151,-917504,81,-56,-1,-1,0
1523634546191,-917504,81,-56,-1,-1,0
1523634546191,-851968,81,-56,-1,-1,0
1523634546191,-786432,81,-56,-1,-1,0
1523634546191,-786432,81,-56,-1,-1,0
1523634546191,-851968,81,-56,-1,-1,0
1523634546231,-720896,81,-56,-1,-1,0
1523634546231,-720896,81,-56,-1,-1,0
1523634546231,-720896,81,-56,-1,-1,0
1523634546231,-786432,81,-56,-1,-1,0
1523634546231,-786432,81,-56,-1,-1,0
1523634546271,-786432,81,-56,-1,-1,0
1523634546271,-786432,81,-56,-1,-1,0
1523634546271,-786432,81,-56,-1,-1,0
1523634546271,-851968,81,-56,-1,-1,0
1523634546271,-851968,81,-56,-1,-1,0
1523634546311,-851968,81,-56,-1,-1,0
1523634546311,-917504,81,-56,-1,-1,0
1523634546311,-983040,81,-56,-1,-1,0
1523634546311,-983040,81,-56,-1,-1,0
1523634546311,-1048576,81,-56,-1,-1,0
1523634546351,-1048576,81,-56,-1,-1,0
1523634546351,-983040,81,-56,-1,-1,0
1523634546351,-851968,81,-56,-1,-1,0
1523634546351,-720896,81,-56,-1,-1,0
1523634546351,-720896,81,-56,-1,-1,0
1523634546391,-786432,81,-56,-1,-1,0
1523634546391,-917504,81,-56,-1,-1,0
1523634546391,-1048576,81,-56,-1,-1,0
1523634546391,-1048576,81,-56,-1,-1,0
1523634546391,-1048576,81,-56,-1,-1,0
1523634546431,-983040,81,-56,-1,-1,0
1523634546431,-1048576,81,-56,-1,-1,0
1523634546431,-1048576,81,-56,-1,-1,0
1523634546431,-1048576,81,-56,-1,-1,0
1523634546431,-1048576,81,-56,-1,-1,0
1523634546471,-1114112,81,-56,-1,-1,0
1523634546471,-1114112,81,-56,-1,-1,0
1523634546471,-983040,81,-56,-1,-1,0
1523634546471,-917504,81,-56,-1,-1,0
1523634546471,-1048576,81,-56,-1,-1,0
1523634546511,-1114112,81,-56,-1,-1,0
1523634546511,65536,81,-56,-1,-1,0
1523634546511,3735552,81,-56,-1,-1,0
1523634546511,8323072,81,-56,-1,-1,0
1523634546511,9306112,81,-56,-1,-1,0
1523634546551,4915200,82,-56,-1,-1,0
1523634546551,-983040,82,-56,-1,-1,0
1523634546551,-4194304,82,-56,-1,-1,0
1523634546551,-4194304,82,-56,-1,-1,0
1523634546551,-2883584,82,-56,-1,-1,0
1523634546591,-1769472,82,-56,-1,-1,0
1523634546591,-1114112,82,-56,-1,-1,0
1523634546591,-786432,82,-56,-1,-1,0
1523634546591,-589824,82,-56,-1,-1,0
1523634546591,-393216,82,-56,-1,-1,0
1523634546632,-327680,82,-56,-1,-1,0
1523634546632,-327680,82,-56,-1,-1,0
1523634546632,-262144,82,-56,-1,-1,0
1523634546632,-131072,82,-56,-1,-1,0
1523634546632,0,82,-56,-1,-1,0
1523634546671,65536,82,-56,-1,-1,0
1523634546671,196608,82,-56,-1,-1,0
1523634546671,458752,82,-56,-1,-1,0
1523634546671,720896,82,-56,-1,-1,0
1523634546671,1048576,82,-56,-1,-1,0
1523634546711,1310720,82,-56,-1,-1,0
1523634546711,1769472,82,-56,-1,-1,0
1523634546711,2293760,82,-56,-1,-1,0
1523634546711,2949120,82,-56,-1,-1,0
1523634546711,3473408,82,-56,-1,-1,0
1523634546751,3932160,82,-56,-1,-1,0
1523634546751,4259840,82,-56,-1,-1,0
1523634546751,4456448,82,-56,-1,-1,0
1523634546751,4390912,82,-56,-1,-1,0
1523634546751,4194304,82,-56,-1,-1,0
1523634546791,3670016,82,-56,-1,-1,0
1523634546791,2949120,82,-56,-1,-1,0
1523634546791,2097152,82,-56,-1,-1,0
1523634546791,1376256,82,-56,-1,-1,0
1523634546791,720896,82,-56,-1,-1,0
1523634546831,196608,82,-56,-1,-1,0
1523634546831,-131072,82,-56,-1,-1,0
1523634546831,-393216,82,-56,-1,-1,0
1523634546831,-524288,82,-56,-1,-1,0
1523634546831,-589824,82,-56,-1,-1,0
1523634546871,-720896,82,-56,-1,-1,0
1523634546871,-786432,82,-56,-1,-1,0
1523634546871,-786432,82,-56,-1,-1,0
1523634546871,-786432,82,-56,-1,-1,0
1523634546871,-851968,82,-56,-1,-1,0
1523634546911,-851968,82,-56,-1,-1,0
1523634546911,-851968,82,-56,-1,-1,0
1523634546911,-851968,82,-56,-1,-1,0
1523634546911,-786432,82,-56,-1,-1,0
1523634546911,-786432,82,-56,-1,-1,0
1523634546951,-786432,82,-56,-1,-1,0
1523634546951,-786432,82,-56,-1,-1,0
1523634546951,-720896,82,-56,-1,-1,0
1523634546951,-786432,82,-56,-1,-1,0
1523634546951,-786432,82,-56,-1,-1,0
1523634546991,-786432,82,-56,-1,-1,0
1523634546991,-720896,82,-56,-1,-1,0
1523634546991,-720896,82,-56,-1,-1,0
1523634546991,-720896,82,-56,-1,-1,0
1523634546991,-786432,82,-56,-1,-1,0
1523634547031,-786432,82,-56,-1,-1,0
1523634547031,-851968,82,-56,-1,-1,0
1523634547031,-917504,82,-56,-1,-1,0
1523634547031,-983040,82,-56,-1,-1,0
1523634547031,-917504,82,-56,-1,-1,0
1523634547071,-786432,82,-56,-1,-1,0
1523634547071,-786432,82,-56,-1,-1,0
1523634547071,-786432,82,-56,-1,-1,0
1523634547071,-786432,82,-56,-1,-1,0
1523634547071,-655360,82,-56,-1,-1,0
1523634547111,-786432,82,-56,-1,-1,0
1523634547111,-851968,82,-56,-1,-1,0
1523634547111,-851968,82,-56,-1,-1,0
1523634547111,-917504,82,-56,-1,-1,0
1523634547111,-1048576,82,-56,-1,-1,0
1523634547151,-1048576,82,-56,-1,-1,0
1523634547151,-1048576,82,-56,-1,-1,0
1523634547151,-1048576,82,-56,-1,-1,0
1523634547151,-1048576,82,-56,-1,-1,0
1523634547151,-983040,82,-56,-1,-1,0
1523634547191,-983040,82,-56,-1,-1,0
1523634547191,-983040,82,-56,-1,-1,0
1523634547191,-983040,82,-56,-1,-1,0
1523634547191,-983040,82,-56,-1,-1,0
1523634547191,-983040,82,-56,-1,-1,0
1523634547231,-1114112,82,-56,-1,-1,0
1523634547231,-458752,82,-56,-1,-1,0
1523634547231,1900544,82,-56,-1,-1,0
1523634547231,6029312,82,-56,-1,-1,0
1523634547231,8323072,82,-56,-1,-1,0
1523634547272,5767168,83,-56,-1,-1,0
1523634547272,458752,83,-56,-1,-1,0
1523634547272,-3342336,83,-56,-1,-1,0
1523634547272,-4259840,83,-56,-1,-1,0
1523634547272,-3473408,83,-56,-1,-1,0
1523634547311,-2228224,83,-56,-1,-1,0
1523634547311,-1376256,83,-56,-1,-1,0
1523634547311,-983040,83,-56,-1,-1,0
1523634547311,-720896,83,-56,-1,-1,0
1523634547311,-589824,83,-56,-1,-1,0
1523634547351,-524288,83,-56,-1,-1,0
1523634547351,-393216,83,-56,-1,-1,0
1523634547351,-262144,83,-56,-1,-1,0
1523634547351,-196608,83,-56,-1,-1,0
1523634547351,-65536,83,-56,-1,-1,0
1523634547391,0,83,-56,-1,-1,0
1523634547391,131072,83,-56,-1,-1,0
1523634547391,262144,83,-56,-1,-1,0
1523634547391,458752,83,-56,-1,-1,0
1523634547391,720896,83,-56,-1,-1,0
1523634547431,1048576,83,-56,-1,-1,0
1523634547431,1441792,83,-56,-1,-1,0
1523634547431,1900544,83,-56,-1,-1,0
1523634547431,2424832,83,-56,-1,-1,0
1523634547431,2949120,83,-56,-1,-1,0
1523634547471,3407872,83,-56,-1,-1,0
1523634547471,3801088,83,-56,-1,-1,0
1523634547471,3997696,83,-56,-1,-1,0
1523634547471,4128768,83,-56,-1,-1,0
1523634547471,3997696,83,-56,-1,-1,0
1523634547512,3604480,83,-56,-1,-1,0
1523634547512,3014656,83,-56,-1,-1,0
1523634547512,2293760,83,-56,-1,-1,0
1523634547512,1572864,83,-56,-1,-1,0
1523634547512,851968,83,-56,-1,-1,0
1523634547551,262144,83,-56,-1,-1,0
1523634547551,-65536,83,-56,-1,-1,0
1523634547551,-327680,83,-56,-1,-1,0
1523634547551,-524288,83,-56,-1,-1,0
1523634547551,-655360,83,-56,-1,-1,0
1523634547591,-720896,83,-56,-1,-1,0
1523634547591,-786432,83,-56,-1,-1,0
1523634547591,-786432,83,-56,-1,-1,0
1523634547591,-851968,83,-56,-1,-1,0
1523634547591,-851968,83,-56,-1,-1,0
1523634547631,-851968,83,-56,-1,-1,0
1523634547631,-786432,83,-56,-1,-1,0
1523634547631,-786432,83,-56,-1,-1,0
1523634547631,-786432,83,-56,-1,-1,0
1523634547631,-786432,83,-56,-1,-1,0
1523634547671,-851968,83,-56,-1,-1,0
1523634547671,-851968,83,-56,-1,-1,0
1523634547671,-851968,83,-56,-1,-1,0
1523634547671,-851968,83,-56,-1,-1,0
1523634547671,-851968,83,-56,-1,-1,0
1523634547711,-786432,83,-56,-1,-1,0
1523634547711,-786432,83,-56,-1,-1,0
1523634547711,-786432,83,-56,-1,-1,0
1523634547711,-786432,83,-56,-1,-1,0
1523634547711,-851968,83,-56,-1,-1,0
1523634547751,-851968,83,-56,-1,-1,0
1523634547751,-851968,83,-56,-1,-1,0
1523634547751,-917504,83,-56,-1,-1,0
1523634547751,-917504,83,-56,-1,-1,0
1523634547751,-983040,83,-56,-1,-1,0
1523634547791,-983040,83,-56,-1,-1,0
1523634547791,-983040,83,-56,-1,-1,0
1523634547791,-983040,83,-56,-1,-1,0
1523634547791,-1048576,83,-56,-1,-1,0
1523634547791,-983040,83,-56,-1,-1,0
1523634547831,-1048576,83,-56,-1,-1,0
1523634547831,-1048576,83,-56,-1,-1,0
1523634547831,-917504,83,-56,-1,-1,0
1523634547831,-720896,83,-56,-1,-1,0
1523634547831,-720896,83,-56,-1,-1,0
1523634547871,-786432,83,-56,-1,-1,0
1523634547871,-917504,83,-56,-1,-1,0
1523634547871,-983040,83,-56,-1,-1,0
1523634547871,-1114112,83,-56,-1,-1,0
1523634547871,-1114112,83,-56,-1,-1,0
1523634547912,-1114112,83,-56,-1,-1,0
1523634547912,-983040,83,-56,-1,-1,0
1523634547912,-1048576,83,-56,-1,-1,0
1523634547912,-1114112,83,-56,-1,-1,0
1523634547912,-1114112,83,-56,-1,-1,0
1523634547951,-983040,83,-56,-1,-1,0
1523634547951,-983040,83,-56,-1,-1,0
1523634547951,-1048576,83,-56,-1,-1,0
1523634547951,-1048576,83,-56,-1,-1,0
1523634547951,-1114112,83,-56,-1,-1,0
1523634547991,-851968,83,-56,-1,-1,0
1523634547991,655360,83,-56,-1,-1,0
1523634547991,4194304,83,-56,-1,-1,0
1523634547991,7405568,83,-56,-1,-1,0
1523634547991,6553600,83,-56,-1,-1,0
1523634548031,1769472,83,-56,-1,-1,0
1523634548031,-2686976,83,-56,-1,-1,0
1523634548031,-4521984,83,-56,-1,-1,0
1523634548031,-4259840,83,-56,-1,-1,0
1523634548031,-3080192,83,-56,-1,-1,0
1523634548071,-1900544,83,-56,-1,-1,0
1523634548071,-1245184,83,-56,-1,-1,0
1523634548071,-917504,83,-56,-1,-1,0
1523634548071,-655360,83,-56,-1,-1,0
1523634548071,-524288,83,-56,-1,-1,0
1523634548111,-393216,83,-56,-1,-1,0
1523634548111,-327680,83,-56,-1,-1,0
1523634548111,-327680,83,-56,-1,-1,0
1523634548111,-262144,83,-56,-1,-1,0
1523634548111,-131072,83,-56,-1,-1,0
1523634548151,0,83,-56,-1,-1,0
1523634548151,65536,83,-56,-1,-1,0
1523634548151,327680,83,-56,-1,-1,0
1523634548151,655360,83,-56,-1,-1,0
1523634548151,917504,83,-56,-1,-1,0
1523634548191,1245184,83,-56,-1,-1,0
1523634548191,1638400,83,-56,-1,-1,0
1523634548191,2162688,83,-56,-1,-1,0
1523634548191,2752512,83,-56,-1,-1,0
1523634548191,3342336,83,-56,-1,-1,0
1523634548231,3801088,83,-56,-1,-1,0
1523634548231,4063232,83,-56,-1,-1,0
1523634548231,4194304,83,-56,-1,-1,0
1523634548231,4194304,83,-56,-1,-1,0
1523634548231,3932160,83,-56,-1,-1,0
1523634548271,3407872,83,-56,-1,-1,0
1523634548271,2752512,83,-56,-1,-1,0
1523634548271,1966080,83,-56,-1,-1,0
1523634548271,1245184,83,-56,-1,-1,0
1523634548271,589824,83,-56,-1,-1,0
1523634548311,196608,83,-56,-1,-1,0
1523634548311,-65536,83,-56,-1,-1,0
1523634548311,-262144,83,-56,-1,-1,0
1523634548311,-393216,83,-56,-1,-1,0
1523634548311,-458752,83,-56,-1,-1,0
1523634548351,-524288,83,-56,-1,-1,0
1523634548351,-655360,83,-56,-1,-1,0
1523634548351,-720896,83,-56,-1,-1,0
1523634548351,-655360,83,-56,-1,-1,0
1523634548351,-589824,83,-56,-1,-1,0
1523634548391,-655360,83,-56,-1,-1,0
1523634548391,-655360,83,-56,-1,-1,0
1523634548391,-655360,83,-56,-1,-1,0
1523634548391,-589824,83,-56,-1,-1,0
1523634548391,-524288,83,-56,-1,-1,0
1523634548431,-524288,83,-56,-1,-1,0
1523634548431,-524288,83,-56,-1,-1,0
1523634548431,-524288,83,-56,-1,-1,0
1523634548431,-589824,83,-56,-1,-1,0
1523634548431,-524288,83,-56,-1,-1,0
1523634548471,-458752,83,-56,-1,-1,0
1523634548471,-524288,83,-56,-1,-1,0
1523634548471,-589824,83,-56,-1,-1,0
1523634548471,-655360,83,-56,-1,-1,0
1523634548471,-589824,83,-56,-1,-1,0
1523634548511,-589824,83,-56,-1,-1,0
1523634548511,-589824,83,-56,-1,-1,0
1523634548511,-655360,83,-56,-1,-1,0
1523634548511,-720896,83,-56,-1,-1,0
1523634548511,-720896,83,-56,-1,-1,0
1523634548552,-786432,83,-56,-1,-1,0
1523634548552,-720896,83,-56,-1,-1,0
1523634548552,-655360,83,-56,-1,-1,0
1523634548552,-524288,83,-56,-1,-1,0
1523634548552,-458752,83,-56,-1,-1,0
1523634548592,-458752,83,-56,-1,-1,0
1523634548592,-524288,83,-56,-1,-1,0
1523634548592,-655360,83,-56,-1,-1,0
1523634548592,-655360,83,-56,-1,-1,0
1523634548592,-655360,83,-56,-1,-1,0
1523634548631,-720896,83,-56,-1,-1,0
1523634548631,-851968,83,-56,-1,-1,0
1523634548631,-917504,83,-56,-1,-1,0
1523634548631,-851968,83,-56,-1,-1,0
1523634548631,-786432,83,-56,-1,-1,0
1523634548671,-786432,83,-56,-1,-1,0
1523634548671,-786432,83,-56,-1,-1,0
1523634548671,-786432,83,-56,-1,-1,0
1523634548671,-655360,83,-56,-1,-1,0
1523634548671,-720896,83,-56,-1,-1,0
1523634548711,-720896,83,-56,-1,-1,0
1523634548711,-786432,83,-56,-1,-1,0
1523634548711,-393216,83,-56,-1,-1,0
1523634548711,1769472,83,-56,-1,-1,0
1523634548711,5832704,83,-56,-1,-1,0
1523634548751,8388608,84,-56,-1,-1,0
1523634548751,6029312,84,-56,-1,-1,0
1523634548751,655360,84,-56,-1,-1,0
1523634548751,-3342336,84,-56,-1,-1,0
1523634548751,-4456448,84,-56,-1,-1,0
1523634548791,-3932160,84,-56,-1,-1,0
1523634548791,-2686976,84,-56,-1,-1,0
1523634548791,-1507328,84,-56,-1,-1,0
1523634548791,-917504,84,-56,-1,-1,0
1523634548791,-655360,84,-56,-1,-1,0
1523634548831,-458752,84,-56,-1,-1,0
1523634548831,-393216,84,-56,-1,-1,0
1523634548831,-262144,84,-56,-1,-1,0
1523634548831,-196608,84,-56,-1,-1,0
1523634548831,-65536,84,-56,-1,-1,0
1523634548871,0,84,-56,-1,-1,0
1523634548871,65536,84,-56,-1,-1,0
1523634548871,196608,84,-56,-1,-1,0
1523634548871,393216,84,-56,-1,-1,0
1523634548871,589824,84,-56,-1,-1,0
1523634548911,851968,84,-56,-1,-1,0
1523634548911,1114112,84,-56,-1,-1,0
1523634548911,1441792,84,-56,-1,-1,0
1523634548911,1900544,84,-56,-1,-1,0
1523634548911,2490368,84,-56,-1,-1,0
1523634548951,3080192,84,-56,-1,-1,0
1523634548951,3538944,84,-56,-1,-1,0
1523634548951,3997696,84,-56,-1,-1,0
1523634548951,4194304,84,-56,-1,-1,0
1523634548951,4259840,84,-56,-1,-1,0
1523634548991,4063232,84,-56,-1,-1,0
1523634548991,3670016,84,-56,-1,-1,0
1523634548991,3080192,84,-56,-1,-1,0
1523634548991,2359296,84,-56,-1,-1,0
1523634548991,1703936,84,-56,-1,-1,0
1523634549032,983040,84,-56,-1,-1,0
1523634549032,327680,84,-56,-1,-1,0
1523634549032,-65536,84,-56,-1,-1,0
1523634549032,-327680,84,-56,-1,-1,0
1523634549032,-524288,84,-56,-1,-1,0
1523634549071,-655360,84,-56,-1,-1,0
1523634549071,-720896,84,-56,-1,-1,0
1523634549071,-720896,84,-56,-1,-1,0
1523634549071,-720896,84,-56,-1,-1,0
1523634549071,-851968,84,-56,-1,-1,0
1523634549112,-851968,84,-56,-1,-1,0
1523634549112,-786432,84,-56,-1,-1,0
1523634549112,-851968,84,-56,-1,-1,0
1523634549112,-851968,84,-56,-1,-1,0
1523634549112,-786432,84,-56,-1,-1,0
1523634549151,-786432,84,-56,-1,-1,0
1523634549151,-786432,84,-56,-1,-1,0
1523634549151,-786432,84,-56,-1,-1,0
1523634549151,-720896,84,-56,-1,-1,0
1523634549151,-786432,84,-56,-1,-1,0
1523634549192,-786432,84,-56,-1,-1,0
1523634549192,-786432,84,-56,-1,-1,0
1523634549192,-851968,84,-56,-1,-1,0
1523634549192,-917504,84,-56,-1,-1,0
1523634549192,-851968,84,-56,-1,-1,0
1523634549231,-851968,84,-56,-1,-1,0
1523634549231,-851968,84,-56,-1,-1,0
1523634549231,-917504,84,-56,-1,-1,0
1523634549231,-851968,84,-56,-1,-1,0
1523634549231,-851968,84,-56,-1,-1,0
1523634549272,-917504,84,-56,-1,-1,0
1523634549272,-917504,84,-56,-1,-1,0
1523634549272,-851968,84,-56,-1,-1,0
1523634549272,-851968,84,-56,-1,-1,0
1523634549272,-917504,84,-56,-1,-1,0
1523634549311,-917504,84,-56,-1,-1,0
1523634549311,-851968,84,-56,-1,-1,0
1523634549311,-655360,84,-56,-1,-1,0
1523634549311,-589824,84,-56,-1,-1,0
1523634549311,-786432,84,-56,-1,-1,0
1523634549351,-983040,84,-56,-1,-1,0
1523634549351,-1048576,84,-56,-1,-1,0
1523634549351,-983040,84,-56,-1,-1,0
1523634549351,-1048576,84,-56,-1,-1,0
1523634549351,-1048576,84,-56,-1,-1,0
1523634549391,-983040,84,-56,-1,-1,0
1523634549391,-983040,84,-56,-1,-1,0
1523634549391,-1048576,84,-56,-1,-1,0
1523634549391,-1048576,84,-56,-1,-1,0
1523634549391,-1048576,84,-56,-1,-1,0
1523634549431,-983040,84,-56,-1,-1,0
1523634549431,-983040,84,-56,-1,-1,0
1523634549431,-1048576,84,-56,-1,-1,0
1523634549431,-1114112,84,-56,-1,-1,0
1523634549431,-655360,84,-56,-1,-1,0
1523634549471,1507328,84,-56,-1,-1,0
1523634549471,5636096,84,-56,-1,-1,0
1523634549471,8519680,84,-56,-1,-1,0
1523634549471,6684672,84,-56,-1,-1,0
1523634549471,1310720,84,-56,-1,-1,0
1523634549511,-3080192,84,-56,-1,-1,0
1523634549511,-4521984,84,-56,-1,-1,0
1523634549511,-3866624,84,-56,-1,-1,0
1523634549511,-2555904,84,-56,-1,-1,0
1523634549511,-1507328,84,-56,-1,-1,0
1523634549551,-1048576,84,-56,-1,-1,0
1523634549551,-786432,84,-56,-1,-1,0
1523634549551,-589824,84,-56,-1,-1,0
1523634549551,-458752,84,-56,-1,-1,0
1523634549551,-393216,84,-56,-1,-1,0
1523634549592,-393216,84,-56,-1,-1,0
1523634549592,-327680,84,-56,-1,-1,0
1523634549592,-196608,84,-56,-1,-1,0
1523634549592,-65536,84,-56,-1,-1,0
1523634549592,0,84,-56,-1,-1,0
1523634549631,65536,84,-56,-1,-1,0
1523634549631,327680,84,-56,-1,-1,0
1523634549631,589824,84,-56,-1,-1,0
1523634549631,917504,84,-56,-1,-1,0
1523634549631,1310720,84,-56,-1,-1,0
1523634549671,1703936,84,-56,-1,-1,0
1523634549671,2228224,84,-56,-1,-1,0
1523634549671,2818048,84,-56,-1,-1,0
1523634549671,3276800,84,-56,-1,-1,0
1523634549671,3670016,84,-56,-1,-1,0
1523634549711,3997696,84,-56,-1,-1,0
1523634549711,4128768,84,-56,-1,-1,0
1523634549711,3997696,84,-56,-1,-1,0
1523634549711,3670016,84,-56,-1,-1,0
1523634549711,3080192,84,-56,-1,-1,0
1523634549751,2293760,84,-56,-1,-1,0
1523634549751,1507328,84,-56,-1,-1,0
1523634549751,851968,84,-56,-1,-1,0
1523634549751,262144,84,-56,-1,-1,0
1523634549751,-196608,84,-56,-1,-1,0
1523634549791,-524288,84,-56,-1,-1,0
1523634549791,-720896,84,-56,-1,-1,0
1523634549791,-917504,84,-56,-1,-1,0
1523634549791,-983040,84,-56,-1,-1,0
1523634549791,-1048576,84,-56,-1,-1,0
1523634549832,-1048576,84,-56,-1,-1,0
1523634549832,-1114112,84,-56,-1,-1,0
1523634549832,-1179648,84,-56,-1,-1,0
1523634549832,-1179648,84,-56,-1,-1,0
1523634549832,-1179648,84,-56,-1,-1,0
1523634549871,-1179648,84,-56,-1,-1,0
1523634549871,-1179648,84,-56,-1,-1,0
1523634549871,-1179648,84,-56,-1,-1,0
1523634549871,-1179648,84,-56,-1,-1,0
1523634549871,-1179648,84,-56,-1,-1,0
1523634549911,-1114112,84,-56,-1,-1,0
1523634549911,-1114112,84,-56,-1,-1,0
1523634549911,-1179648,84,-56,-1,-1,0
1523634549911,-1179648,84,-56,-1,-1,0
1523634549911,-1179648,84,-56,-1,-1,0
1523634549952,-1179648,84,-56,-1,-1,0
1523634549952,-1245184,84,-56,-1,-1,0
1523634549952,-1310720,84,-56,-1,-1,0
1523634549952,-1245184,84,-56,-1,-1,0
1523634549952,-1245184,84,-56,-1,-1,0
1523634549993,-1245184,84,-56,-1,-1,0
1523634549993,-1245184,84,-56,-1,-1,0
1523634549993,-1310720,84,-56,-1,-1,0
1523634549993,-1310720,84,-56,-1,-1,0
1523634549993,-1310720,84,-56,-1,-1,0
1523634550031,-1310720,84,-56,-1,-1,0
1523634550031,-1245184,84,-56,-1,-1,0
1523634550031,-1179648,84,-56,-1,-1,0
1523634550031,-1048576,84,-56,-1,-1,0
1523634550031,-1048576,84,-56,-1,-1,0
1523634550071,-1179648,84,-56,-1,-1,0
1523634550071,-1245184,84,-56,-1,-1,0
1523634550071,-1179648,84,-56,-1,-1,0
1523634550071,-1179648,84,-56,-1,-1,0
1523634550071,-1245184,84,-56,-1,-1,0
1523634550111,-1310720,84,-56,-1,-1,0
1523634550111,-1376256,84,-56,-1,-1,0
1523634550111,-1310720,84,-56,-1,-1,0
1523634550111,-1310720,84,-56,-1,-1,0
1523634550111,-1310720,84,-56,-1,-1,0
1523634550151,-1310720,84,-56,-1,-1,0
1523634550151,-1310720,84,-56,-1,-1,0
1523634550151,-1245184,84,-56,-1,-1,0
1523634550151,-1179648,84,-56,-1,-1,0
1523634550151,-1179648,84,-56,-1,-1,0
1523634550191,-786432,83,-56,-1,-1,0
1523634550191,1179648,83,-56,-1,-1,0
1523634550191,5177344,83,-56,-1,-1,0
1523634550191,8257536,83,-56,-1,-1,0
1523634550191,6750208,83,-56,-1,-1,0
1523634550231,1441792,83,-56,-1,-1,0
1523634550231,-3145728,83,-56,-1,-1,0
1523634550231,-4784128,83,-56,-1,-1,0
1523634550231,-4259840,83,-56,-1,-1,0
1523634550231,-2883584,83,-56,-1,-1,0
1523634550271,-1769472,83,-56,-1,-1,0
1523634550271,-1114112,83,-56,-1,-1,0
1523634550271,-851968,83,-56,-1,-1,0
1523634550271,-720896,83,-56,-1,-1,0
1523634550271,-524288,83,-56,-1,-1,0
1523634550311,-393216,83,-56,-1,-1,0
1523634550311,-393216,83,-56,-1,-1,0
1523634550311,-393216,83,-56,-1,-1,0
1523634550311,-196608,83,-56,-1,-1,0
1523634550311,0,83,-56,-1,-1,0
1523634550351,131072,83,-56,-1,-1,0
1523634550351,262144,83,-56,-1,-1,0
1523634550351,458752,83,-56,-1,-1,0
1523634550351,720896,83,-56,-1,-1,0
1523634550351,1048576,83,-56,-1,-1,0
1523634550391,1507328,83,-56,-1,-1,0
1523634550391,2031616,83,-56,-1,-1,0
1523634550391,2621440,83,-56,-1,-1,0
1523634550391,3211264,83,-56,-1,-1,0
1523634550391,3735552,83,-56,-1,-1,0
1523634550431,4194304,83,-56,-1,-1,0
1523634550431,4521984,83,-56,-1,-1,0
1523634550431,4587520,83,-56,-1,-1,0
1523634550431,4521984,83,-56,-1,-1,0
1523634550431,4194304,83,-56,-1,-1,0
1523634550472,3604480,83,-56,-1,-1,0
1523634550472,2883584,83,-56,-1,-1,0
1523634550472,2097152,83,-56,-1,-1,0
1523634550472,1310720,83,-56,-1,-1,0
1523634550472,655360,83,-56,-1,-1,0
1523634550511,196608,83,-56,-1,-1,0
1523634550511,-65536,83,-56,-1,-1,0
1523634550511,-393216,83,-56,-1,-1,0
1523634550511,-589824,83,-56,-1,-1,0
1523634550511,-589824,83,-56,-1,-1,0
1523634550551,-655360,83,-56,-1,-1,0
1523634550551,-720896,83,-56,-1,-1,0
1523634550551,-720896,83,-56,-1,-1,0
1523634550551,-720896,83,-56,-1,-1,0
1523634550551,-720896,83,-56,-1,-1,0
1523634550591,-720896,83,-56,-1,-1,0
1523634550591,-720896,83,-56,-1,-1,0
1523634550591,-786432,83,-56,-1,-1,0
1523634550591,-720896,83,-56,-1,-1,0
1523634550591,-720896,83,-56,-1,-1,0
1523634550631,-786432,83,-56,-1,-1,0
1523634550631,-720896,83,-56,-1,-1,0
1523634550631,-655360,83,-56,-1,-1,0
1523634550631,-720896,83,-56,-1,-1,0
1523634550631,-720896,83,-56,-1,-1,0
1523634550672,-720896,83,-56,-1,-1,0
1523634550672,-655360,83,-56,-1,-1,0
1523634550672,-720896,83,-56,-1,-1,0
1523634550672,-786432,83,-56,-1,-1,0
1523634550672,-786432,83,-56,-1,-1,0
1523634550711,-786432,83,-56,-1,-1,0
1523634550711,-851968,83,-56,-1,-1,0
1523634550711,-917504,83,-56,-1,-1,0
1523634550711,-917504,83,-56,-1,-1,0
1523634550711,-917504,83,-56,-1,-1,0
1523634550751,-917504,83,-56,-1,-1,0
1523634550751,-786432,83,-56,-1,-1,0
1523634550751,-655360,83,-56,-1,-1,0
1523634550751,-655360,83,-56,-1,-1,0
1523634550751,-720896,83,-56,-1,-1,0
1523634550791,-851968,83,-56,-1,-1,0
1523634550791,-983040,83,-56,-1,-1,0
1523634550791,-983040,83,-56,-1,-1,0
1523634550791,-983040,83,-56,-1,-1,0
1523634550791,-983040,83,-56,-1,-1,0
1523634550831,-983040,83,-56,-1,-1,0
1523634550831,-983040,83,-56,-1,-1,0
1523634550831,-1048576,83,-56,-1,-1,0
1523634550831,-1048576,83,-56,-1,-1,0
1523634550831,-983040,83,-56,-1,-1,0
1523634550871,-917504,83,-56,-1,-1,0
1523634550871,-917504,83,-56,-1,-1,0
1523634550871,-917504,83,-56,-1,-1,0
1523634550871,-917504,83,-56,-1,-1,0
1523634550871,-983040,83,-56,-1,-1,0
1523634550911,-262144,83,-56,-1,-1,0
1523634550911,2555904,83,-56,-1,-1,0
1523634550911,6946816,83,-56,-1,-1,0
1523634550911,9043968,83,-56,-1,-1,0
1523634550911,5701632,83,-56,-1,-1,0
1523634550951,-131072,84,-56,-1,-1,0
1523634550951,-4063232,84,-56,-1,-1,0
1523634550951,-4718592,84,-56,-1,-1,0
1523634550951,-3735552,84,-56,-1,-1,0
1523634550951,-2424832,84,-56,-1,-1,0
1523634550991,-1376256,84,-56,-1,-1,0
1523634550991,-851968,84,-56,-1,-1,0
1523634550991,-655360,84,-56,-1,-1,0
1523634550991,-589824,84,-56,-1,-1,0
1523634550991,-458752,84,-56,-1,-1,0
1523634551031,-327680,84,-56,-1,-1,0
1523634551031,-262144,84,-56,-1,-1,0
1523634551031,-196608,84,-56,-1,-1,0
1523634551031,-65536,84,-56,-1,-1,0
1523634551031,0,84,-56,-1,-1,0
1523634551071,0,84,-56,-1,-1,0
1523634551071,196608,84,-56,-1,-1,0
1523634551071,458752,84,-56,-1,-1,0
1523634551071,786432,84,-56,-1,-1,0
1523634551071,1114112,84,-56,-1,-1,0
1523634551112,1507328,84,-56,-1,-1,0
1523634551112,2031616,84,-56,-1,-1,0
1523634551112,2555904,84,-56,-1,-1,0
1523634551112,3080192,84,-56,-1,-1,0
1523634551112,3604480,84,-56,-1,-1,0
1523634551151,4063232,84,-56,-1,-1,0
1523634551151,4325376,84,-56,-1,-1,0
1523634551151,4325376,84,-56,-1,-1,0
1523634551151,4063232,84,-56,-1,-1,0
1523634551151,3670016,84,-56,-1,-1,0
1523634551191,3080192,84,-56,-1,-1,0
1523634551191,2293760,84,-56,-1,-1,0
1523634551191,1441792,84,-56,-1,-1,0
1523634551191,720896,84,-56,-1,-1,0
1523634551191,196608,84,-56,-1,-1,0
1523634551231,-196608,84,-56,-1,-1,0
1523634551231,-458752,84,-56,-1,-1,0
1523634551231,-589824,84,-56,-1,-1,0
1523634551231,-720896,84,-56,-1,-1,0
1523634551231,-851968,84,-56,-1,-1,0
1523634551271,-917504,84,-56,-1,-1,0
1523634551271,-983040,84,-56,-1,-1,0
1523634551271,-983040,84,-56,-1,-1,0
1523634551271,-983040,84,-56,-1,-1,0
1523634551271,-983040,84,-56,-1,-1,0
1523634551311,-983040,84,-56,-1,-1,0
1523634551311,-917504,84,-56,-1,-1,0
1523634551311,-917504,84,-56,-1,-1,0
1523634551311,-983040,84,-56,-1,-1,0
1523634551311,-983040,84,-56,-1,-1,0
1523634551351,-917504,84,-56,-1,-1,0
1523634551351,-851968,84,-56,-1,-1,0
1523634551351,-851968,84,-56,-1,-1,0
1523634551351,-851968,84,-56,-1,-1,0
1523634551351,-851968,84,-56,-1,-1,0
1523634551391,-851968,84,-56,-1,-1,0
1523634551391,-917504,84,-56,-1,-1,0
1523634551391,-983040,84,-56,-1,-1,0
1523634551391,-983040,84,-56,-1,-1,0
1523634551391,-983040,84,-56,-1,-1,0
1523634551431,-983040,84,-56,-1,-1,0
1523634551431,-983040,84,-56,-1,-1,0
1523634551431,-983040,84,-56,-1,-1,0
1523634551431,-1048576,84,-56,-1,-1,0
1523634551431,-1114112,84,-56,-1,-1,0
1523634551471,-1114112,84,-56,-1,-1,0
1523634551471,-1114112,84,-56,-1,-1,0
1523634551471,-1114112,84,-56,-1,-1,0
1523634551471,-1048576,84,-56,-1,-1,0
1523634551471,-917504,84,-56,-1,-1,0
1523634551511,-851968,84,-56,-1,-1,0
1523634551511,-851968,84,-56,-1,-1,0
1523634551511,-917504,84,-56,-1,-1,0
1523634551511,-983040,84,-56,-1,-1,0
1523634551511,-1048576,84,-56,-1,-1,0
1523634551551,-1048576,84,-56,-1,-1,0
1523634551551,-1114112,84,-56,-1,-1,0
1523634551551,-1179648,84,-56,-1,-1,0
1523634551551,-1179648,84,-56,-1,-1,0
1523634551551,-1179648,84,-56,-1,-1,0
1523634551591,-1179648,84,-56,-1,-1,0
1523634551591,-1179648,84,-56,-1,-1,0
1523634551591,-1114112,84,-56,-1,-1,0
1523634551591,-1048576,84,-56,-1,-1,0
1523634551591,-1048576,84,-56,-1,-1,0
1523634551631,-1048576,84,-56,-1,-1,0
1523634551631,-1179648,84,-56,-1,-1,0
1523634551631,-458752,84,-56,-1,-1,0
1523634551631,2424832,84,-56,-1,-1,0
1523634551631,7077888,84,-56,-1,-1,0
1523634551671,9306112,84,-56,-1,-1,0
1523634551671,6094848,84,-56,-1,-1,0
1523634551671,0,84,-56,-1,-1,0
1523634551671,-3932160,84,-56,-1,-1,0
1523634551671,-4521984,84,-56,-1,-1,0
1523634551711,-3407872,84,-56,-1,-1,0
1523634551711,-2162688,84,-56,-1,-1,0
1523634551711,-1376256,84,-56,-1,-1,0
1523634551711,-917504,84,-56,-1,-1,0
1523634551711,-720896,84,-56,-1,-1,0
1523634551752,-589824,84,-56,-1,-1,0
1523634551752,-524288,84,-56,-1,-1,0
1523634551752,-393216,84,-56,-1,-1,0
1523634551752,-327680,84,-56,-1,-1,0
1523634551752,-262144,84,-56,-1,-1,0
1523634551791,-196608,84,-56,-1,-1,0
1523634551791,0,84,-56,-1,-1,0
1523634551791,65536,84,-56,-1,-1,0
1523634551791,262144,84,-56,-1,-1,0
1523634551791,524288,84,-56,-1,-1,0
1523634551831,851968,84,-56,-1,-1,0
1523634551831,1179648,84,-56,-1,-1,0
1523634551831,1638400,84,-56,-1,-1,0
1523634551831,2162688,84,-56,-1,-1,0
1523634551831,2686976,84,-56,-1,-1,0
1523634551871,3211264,84,-56,-1,-1,0
1523634551871,3735552,84,-56,-1,-1,0
1523634551871,4194304,84,-56,-1,-1,0
1523634551871,4390912,84,-56,-1,-1,0
1523634551871,4456448,84,-56,-1,-1,0
1523634551911,4259840,84,-56,-1,-1,0
1523634551911,3801088,84,-56,-1,-1,0
1523634551911,3145728,84,-56,-1,-1,0
1523634551911,2359296,84,-56,-1,-1,0
1523634551911,1572864,84,-56,-1,-1,0
1523634551951,851968,84,-56,-1,-1,0
1523634551951,196608,84,-56,-1,-1,0
1523634551951,-196608,84,-56,-1,-1,0
1523634551951,-458752,84,-56,-1,-1,0
1523634551951,-655360,84,-56,-1,-1,0
1523634551991,-851968,84,-56,-1,-1,0
1523634551991,-983040,84,-56,-1,-1,0
1523634551991,-983040,84,-56,-1,-1,0
1523634551991,-1048576,84,-56,-1,-1,0
1523634551991,-1048576,84,-56,-1,-1,0
1523634552031,-1048576,84,-56,-1,-1,0
1523634552031,-1048576,84,-56,-1,-1,0
1523634552031,-1114112,84,-56,-1,-1,0
1523634552031,-1114112,84,-56,-1,-1,0
1523634552031,-1114112,84,-56,-1,-1,0
1523634552071,-1114112,84,-56,-1,-1,0
1523634552071,-1048576,84,-56,-1,-1,0
1523634552071,-1048576,84,-56,-1,-1,0
1523634552071,-1114112,84,-56,-1,-1,0
1523634552071,-1179648,84,-56,-1,-1,0
1523634552111,-1179648,84,-56,-1,-1,0
1523634552111,-1114112,84,-56,-1,-1,0
1523634552111,-1114112,84,-56,-1,-1,0
1523634552111,-1179648,84,-56,-1,-1,0
1523634552111,-1179648,84,-56,-1,-1,0
1523634552151,-1179648,84,-56,-1,-1,0
1523634552151,-1179648,84,-56,-1,-1,0
1523634552151,-1245184,84,-56,-1,-1,0
1523634552151,-1245184,84,-56,-1,-1,0
1523634552151,-1245184,84,-56,-1,-1,0
1523634552191,-1310720,84,-56,-1,-1,0
1523634552191,-1441792,84,-56,-1,-1,0
1523634552191,-1441792,84,-56,-1,-1,0
1523634552191,-1441792,84,-56,-1,-1,0
1523634552191,-1441792,84,-56,-1,-1,0
1523634552231,-1441792,84,-56,-1,-1,0
1523634552231,-1376256,84,-56,-1,-1,0
1523634552231,-1310720,84,-56,-1,-1,0
1523634552231,-1245184,84,-56,-1,-1,0
1523634552231,-1310720,84,-56,-1,-1,0
1523634552271,-1376256,84,-56,-1,-1,0
1523634552271,-1376256,84,-56,-1,-1,0
1523634552271,-1441792,84,-56,-1,-1,0
1523634552271,-1507328,84,-56,-1,-1,0
1523634552271,-1572864,84,-56,-1,-1,0
1523634552311,-1572864,84,-56,-1,-1,0
1523634552311,-1638400,84,-56,-1,-1,0
1523634552311,-1638400,84,-56,-1,-1,0
1523634552311,-1638400,84,-56,-1,-1,0
1523634552311,-1572864,84,-56,-1,-1,0
1523634552351,-1572864,84,-56,-1,-1,0
1523634552351,-1572864,84,-56,-1,-1,0
1523634552351,-1572864,84,-56,-1,-1,0
1523634552351,-1638400,84,-56,-1,-1,0
1523634552351,-1703936,84,-56,-1,-1,0
1523634552392,-983040,84,-56,-1,-1,0
1523634552392,1703936,84,-56,-1,-1,0
1523634552392,5963776,84,-56,-1,-1,0
1523634552392,7995392,84,-56,-1,-1,0
1523634552392,4849664,84,-56,-1,-1,0
1523634552431,-655360,82,-56,-1,-1,0
1523634552431,-4390912,82,-56,-1,-1,0
1523634552431,-5046272,82,-56,-1,-1,0
1523634552431,-4128768,82,-56,-1,-1,0
1523634552431,-2818048,82,-56,-1,-1,0
1523634552471,-1835008,82,-56,-1,-1,0
1523634552471,-1376256,82,-56,-1,-1,0
1523634552471,-1179648,82,-56,-1,-1,0
1523634552471,-1114112,82,-56,-1,-1,0
1523634552471,-917504,82,-56,-1,-1,0
1523634552511,-851968,82,-56,-1,-1,0
1523634552511,-655360,82,-56,-1,-1,0
1523634552511,-589824,82,-56,-1,-1,0
1523634552511,-458752,82,-56,-1,-1,0
1523634552511,-393216,82,-56,-1,-1,0
1523634552551,-262144,82,-56,-1,-1,0
1523634552551,-65536,82,-56,-1,-1,0
1523634552551,65536,82,-56,-1,-1,0
1523634552551,327680,82,-56,-1,-1,0
1523634552551,720896,82,-56,-1,-1,0
1523634552591,1179648,82,-56,-1,-1,0
1523634552591,1703936,82,-56,-1,-1,0
1523634552591,2228224,82,-56,-1,-1,0
1523634552591,2752512,82,-56,-1,-1,0
1523634552591,3276800,82,-56,-1,-1,0
1523634552631,3670016,82,-56,-1,-1,0
1523634552631,3932160,82,-56,-1,-1,0
1523634552631,3997696,82,-56,-1,-1,0
1523634552631,3801088,82,-56,-1,-1,0
1523634552631,3538944,82,-56,-1,-1,0
1523634552671,2949120,82,-56,-1,-1,0
1523634552671,2228224,82,-56,-1,-1,0
1523634552671,1441792,82,-56,-1,-1,0
1523634552671,720896,82,-56,-1,-1,0
1523634552671,131072,82,-56,-1,-1,0
1523634552711,-196608,82,-56,-1,-1,0
1523634552711,-393216,82,-56,-1,-1,0
1523634552711,-524288,82,-56,-1,-1,0
1523634552711,-720896,82,-56,-1,-1,0
1523634552711,-851968,82,-56,-1,-1,0
1523634552751,-917504,82,-56,-1,-1,0
1523634552751,-917504,82,-56,-1,-1,0
1523634552751,-917504,82,-56,-1,-1,0
1523634552751,-917504,82,-56,-1,-1,0
1523634552751,-917504,82,-56,-1,-1,0
1523634552791,-851968,82,-56,-1,-1,0
1523634552791,-851968,82,-56,-1,-1,0
1523634552791,-851968,82,-56,-1,-1,0
1523634552791,-851968,82,-56,-1,-1,0
1523634552791,-851968,82,-56,-1,-1,0
1523634552831,-851968,82,-56,-1,-1,0
1523634552831,-786432,82,-56,-1,-1,0
1523634552831,-786432,82,-56,-1,-1,0
1523634552831,-786432,82,-56,-1,-1,0
1523634552831,-851968,82,-56,-1,-1,0
1523634552871,-786432,82,-56,-1,-1,0
1523634552871,-720896,82,-56,-1,-1,0
1523634552871,-786432,82,-56,-1,-1,0
1523634552871,-786432,82,-56,-1,-1,0
1523634552871,-851968,82,-56,-1,-1,0
1523634552911,-851968,82,-56,-1,-1,0
1523634552911,-851968,82,-56,-1,-1,0
1523634552911,-786432,82,-56,-1,-1,0
1523634552911,-786432,82,-56,-1,-1,0
1523634552911,-851968,82,-56,-1,-1,0
1523634552951,-851968,82,-56,-1,-1,0
1523634552951,-786432,82,-56,-1,-1,0
1523634552951,-786432,82,-56,-1,-1,0
1523634552951,-786432,82,-56,-1,-1,0
1523634552951,-720896,82,-56,-1,-1,0
1523634552991,-589824,82,-56,-1,-1,0
1523634552991,-589824,82,-56,-1,-1,0
1523634552991,-720896,82,-56,-1,-1,0
1523634552991,-851968,82,-56,-1,-1,0
1523634552991,-917504,82,-56,-1,-1,0
1523634553032,-917504,82,-56,-1,-1,0
1523634553032,-917504,82,-56,-1,-1,0
1523634553032,-983040,82,-56,-1,-1,0
1523634553032,-983040,82,-56,-1,-1,0
1523634553032,-917504,82,-56,-1,-1,0
1523634553071,-917504,82,-56,-1,-1,0
1523634553071,-983040,82,-56,-1,-1,0
1523634553071,-983040,82,-56,-1,-1,0
1523634553071,-917504,82,-56,-1,-1,0
1523634553071,-851968,82,-56,-1,-1,0
1523634553111,-851968,82,-56,-1,-1,0
1523634553111,-917504,82,-56,-1,-1,0
1523634553111,-917504,82,-56,-1,-1,0
1523634553111,262144,82,-56,-1,-1,0
1523634553111,3801088,82,-56,-1,-1,0
1523634553151,7995392,82,-56,-1,-1,0
1523634553151,8323072,82,-56,-1,-1,0
1523634553151,3538944,82,-56,-1,-1,0
1523634553151,-1835008,82,-56,-1,-1,0
1523634553151,-4521984,82,-56,-1,-1,0
1523634553191,-4587520,82,-56,-1,-1,0
1523634553191,-3538944,82,-56,-1,-1,0
1523634553191,-2162688,82,-56,-1,-1,0
1523634553191,-1245184,82,-56,-1,-1,0
1523634553191,-786432,82,-56,-1,-1,0
1523634553231,-589824,82,-56,-1,-1,0
1523634553231,-458752,82,-56,-1,-1,0
1523634553231,-393216,82,-56,-1,-1,0
1523634553231,-327680,82,-56,-1,-1,0
1523634553231,-196608,82,-56,-1,-1,0
1523634553271,-65536,82,-56,-1,-1,0
1523634553271,0,82,-56,-1,-1,0
1523634553271,65536,82,-56,-1,-1,0
1523634553271,262144,82,-56,-1,-1,0
1523634553271,524288,82,-56,-1,-1,0
1523634553311,720896,82,-56,-1,-1,0
1523634553311,983040,82,-56,-1,-1,0
1523634553311,1376256,82,-56,-1,-1,0
1523634553311,1835008,82,-56,-1,-1,0
1523634553311,2293760,82,-56,-1,-1,0
1523634553351,2883584,82,-56,-1,-1,0
1523634553351,3473408,82,-56,-1,-1,0
1523634553351,3932160,82,-56,-1,-1,0
1523634553351,4259840,82,-56,-1,-1,0
1523634553351,4521984,82,-56,-1,-1,0
1523634553391,4587520,82,-56,-1,-1,0
1523634553391,4194304,82,-56,-1,-1,0
1523634553391,3670016,82,-56,-1,-1,0
1523634553391,3014656,82,-56,-1,-1,0
1523634553391,2293760,82,-56,-1,-1,0
1523634553431,1441792,82,-56,-1,-1,0
1523634553431,720896,82,-56,-1,-1,0
1523634553431,196608,82,-56,-1,-1,0
1523634553431,-65536,82,-56,-1,-1,0
1523634553431,-327680,82,-56,-1,-1,0
1523634553471,-524288,82,-56,-1,-1,0
1523634553471,-589824,82,-56,-1,-1,0
1523634553471,-720896,82,-56,-1,-1,0
1523634553471,-720896,82,-56,-1,-1,0
1523634553471,-786432,82,-56,-1,-1,0
1523634553511,-851968,82,-56,-1,-1,0
1523634553511,-786432,82,-56,-1,-1,0
1523634553511,-720896,82,-56,-1,-1,0
1523634553511,-655360,82,-56,-1,-1,0
1523634553511,-655360,82,-56,-1,-1,0
1523634553552,-720896,82,-56,-1,-1,0
1523634553552,-720896,82,-56,-1,-1,0
1523634553552,-655360,82,-56,-1,-1,0
1523634553552,-655360,82,-56,-1,-1,0
1523634553552,-720896,82,-56,-1,-1,0
1523634553591,-655360,82,-56,-1,-1,0
1523634553591,-655360,82,-56,-1,-1,0
1523634553591,-720896,82,-56,-1,-1,0
1523634553591,-720896,82,-56,-1,-1,0
1523634553591,-720896,82,-56,-1,-1,0
1523634553631,-786432,82,-56,-1,-1,0
1523634553631,-786432,82,-56,-1,-1,0
1523634553631,-786432,82,-56,-1,-1,0
1523634553631,-786432,82,-56,-1,-1,0
1523634553631,-851968,82,-56,-1,-1,0
1523634553675,-851968,82,-56,-1,-1,0
1523634553675,-851968,82,-56,-1,-1,0
1523634553675,-851968,82,-56,-1,-1,0
1523634553675,-851968,82,-56,-1,-1,0
1523634553675,-786432,82,-56,-1,-1,0
1523634553711,-589824,82,-56,-1,-1,0
1523634553711,-524288,82,-56,-1,-1,0
1523634553711,-524288,82,-56,-1,-1,0
1523634553711,-720896,82,-56,-1,-1,0
1523634553711,-851968,82,-56,-1,-1,0
1523634553753,-851968,82,-56,-1,-1,0
1523634553753,-851968,82,-56,-1,-1,0
1523634553753,-851968,82,-56,-1,-1,0
1523634553753,-917504,82,-56,-1,-1,0
1523634553753,-917504,82,-56,-1,-1,0
1523634553791,-917504,82,-56,-1,-1,0
1523634553791,-851968,82,-56,-1,-1,0
1523634553791,-851968,82,-56,-1,-1,0
1523634553791,-917504,82,-56,-1,-1,0
1523634553791,-917504,82,-56,-1,-1,0
1523634553833,-851968,82,-56,-1,-1,0
1523634553833,-851968,82,-56,-1,-1,0
1523634553833,-917504,82,-56,-1,-1,0
1523634553833,-131072,82,-56,-1,-1,0
1523634553833,2752512,82,-56,-1,-1,0
1523634553871,7274496,82,-56,-1,-1,0
1523634553871,9240576,82,-56,-1,-1,0
1523634553871,5701632,82,-56,-1,-1,0
1523634553871,-131072,82,-56,-1,-1,0
1523634553871,-3866624,82,-56,-1,-1,0
1523634553911,-4456448,82,-56,-1,-1,0
1523634553911,-3407872,82,-56,-1,-1,0
1523634553911,-2031616,82,-56,-1,-1,0
1523634553911,-1179648,82,-56,-1,-1,0
1523634553911,-720896,82,-56,-1,-1,0
1523634553952,-458752,82,-56,-1,-1,0
1523634553952,-327680,82,-56,-1,-1,0
1523634553952,-262144,82,-56,-1,-1,0
1523634553952,-196608,82,-56,-1,-1,0
1523634553952,-65536,82,-56,-1,-1,0
1523634553991,0,82,-56,-1,-1,0
1523634553991,131072,82,-56,-1,-1,0
1523634553991,196608,82,-56,-1,-1,0
1523634553991,327680,82,-56,-1,-1,0
1523634553991,524288,82,-56,-1,-1,0
1523634554032,786432,82,-56,-1,-1,0
1523634554032,1114112,82,-56,-1,-1,0
1523634554032,1441792,82,-56,-1,-1,0
1523634554032,1900544,82,-56,-1,-1,0
1523634554032,2424832,82,-56,-1,-1,0
1523634554071,2949120,82,-56,-1,-1,0
1523634554071,3473408,82,-56,-1,-1,0
1523634554071,3997696,82,-56,-1,-1,0
1523634554071,4456448,82,-56,-1,-1,0
1523634554071,4653056,82,-56,-1,-1,0
1523634554111,4653056,82,-56,-1,-1,0
1523634554111,4456448,82,-56,-1,-1,0
1523634554111,4063232,82,-56,-1,-1,0
1523634554111,3473408,82,-56,-1,-1,0
1523634554111,2686976,82,-56,-1,-1,0
1523634554151,1835008,82,-56,-1,-1,0
1523634554151,1114112,82,-56,-1,-1,0
1523634554151,589824,82,-56,-1,-1,0
1523634554151,65536,82,-56,-1,-1,0
1523634554151,-196608,82,-56,-1,-1,0
1523634554191,-393216,82,-56,-1,-1,0
1523634554191,-458752,82,-56,-1,-1,0
1523634554191,-524288,82,-56,-1,-1,0
1523634554191,-589824,82,-56,-1,-1,0
1523634554191,-589824,82,-56,-1,-1,0
1523634554231,-655360,82,-56,-1,-1,0
1523634554231,-655360,82,-56,-1,-1,0
1523634554231,-655360,82,-56,-1,-1,0
1523634554231,-655360,82,-56,-1,-1,0
1523634554231,-655360,82,-56,-1,-1,0
1523634554271,-655360,82,-56,-1,-1,0
1523634554271,-655360,82,-56,-1,-1,0
1523634554271,-589824,82,-56,-1,-1,0
1523634554271,-589824,82,-56,-1,-1,0
1523634554271,-655360,82,-56,-1,-1,0
1523634554312,-655360,82,-56,-1,-1,0
1523634554312,-589824,82,-56,-1,-1,0
1523634554312,-589824,82,-56,-1,-1,0
1523634554312,-655360,82,-56,-1,-1,0
1523634554312,-655360,82,-56,-1,-1,0
1523634554351,-720896,82,-56,-1,-1,0
1523634554351,-720896,82,-56,-1,-1,0
1523634554351,-786432,82,-56,-1,-1,0
1523634554351,-720896,82,-56,-1,-1,0
1523634554351,-786432,82,-56,-1,-1,0
1523634554391,-851968,82,-56,-1,-1,0
1523634554391,-983040,82,-56,-1,-1,0
1523634554391,-983040,82,-56,-1,-1,0
1523634554391,-983040,82,-56,-1,-1,0
1523634554391,-917504,82,-56,-1,-1,0
1523634554431,-917504,82,-56,-1,-1,0
1523634554431,-786432,82,-56,-1,-1,0
1523634554431,-786432,82,-56,-1,-1,0
1523634554431,-786432,82,-56,-1,-1,0
1523634554431,-851968,82,-56,-1,-1,0
1523634554471,-983040,82,-56,-1,-1,0
1523634554471,-1048576,82,-56,-1,-1,0
1523634554471,-1048576,82,-56,-1,-1,0
1523634554471,-1114112,82,-56,-1,-1,0
1523634554471,-1114112,82,-56,-1,-1,0
1523634554511,-1114112,82,-56,-1,-1,0
1523634554511,-1114112,82,-56,-1,-1,0
1523634554511,-1114112,82,-56,-1,-1,0
1523634554511,-1048576,82,-56,-1,-1,0
1523634554511,-1048576,82,-56,-1,-1,0
1523634554551,-1048576,82,-56,-1,-1,0
1523634554551,-1048576,82,-56,-1,-1,0
1523634554551,-1179648,82,-56,-1,-1,0
1523634554551,-983040,82,-56,-1,-1,0
1523634554551,655360,82,-56,-1,-1,0
1523634554591,4718592,82,-56,-1,-1,0
1523634554591,8585216,82,-56,-1,-1,0
1523634554591,7929856,82,-56,-1,-1,0
1523634554591,2621440,82,-56,-1,-1,0
1523634554591,-2490368,82,-56,-1,-1,0
1523634554631,-4521984,82,-56,-1,-1,0
1523634554631,-3997696,82,-56,-1,-1,0
1523634554631,-2686976,82,-56,-1,-1,0
1523634554631,-1638400,82,-56,-1,-1,0
1523634554631,-1114112,82,-56,-1,-1,0
1523634554671,-851968,82,-56,-1,-1,0
1523634554671,-720896,82,-56,-1,-1,0
1523634554671,-589824,82,-56,-1,-1,0
1523634554671,-458752,82,-56,-1,-1,0
1523634554671,-393216,82,-56,-1,-1,0
1523634554711,-262144,82,-56,-1,-1,0
1523634554711,-196608,82,-56,-1,-1,0
1523634554711,-65536,82,-56,-1,-1,0
1523634554711,0,82,-56,-1,-1,0
1523634554711,131072,82,-56,-1,-1,0
1523634554751,327680,82,-56,-1,-1,0
1523634554751,589824,82,-56,-1,-1,0
1523634554751,917504,82,-56,-1,-1,0
1523634554751,1310720,82,-56,-1,-1,0
1523634554751,1769472,82,-56,-1,-1,0
1523634554791,2293760,82,-56,-1,-1,0
1523634554791,2818048,82,-56,-1,-1,0
1523634554791,3407872,82,-56,-1,-1,0
1523634554791,3801088,82,-56,-1,-1,0
1523634554791,4063232,82,-56,-1,-1,0
1523634554831,4259840,82,-56,-1,-1,0
1523634554831,4194304,82,-56,-1,-1,0
1523634554831,3866624,82,-56,-1,-1,0
1523634554831,3276800,82,-56,-1,-1,0
1523634554831,2621440,82,-56,-1,-1,0
1523634554871,1900544,82,-56,-1,-1,0
1523634554871,1179648,82,-56,-1,-1,0
1523634554871,524288,82,-56,-1,-1,0
1523634554871,0,82,-56,-1,-1,0
1523634554871,-262144,82,-56,-1,-1,0
1523634554911,-524288,82,-56,-1,-1,0
1523634554911,-655360,82,-56,-1,-1,0
1523634554911,-786432,82,-56,-1,-1,0
1523634554911,-851968,82,-56,-1,-1,0
1523634554911,-917504,82,-56,-1,-1,0
1523634554952,-917504,82,-56,-1,-1,0
1523634554952,-917504,82,-56,-1,-1,0
1523634554952,-851968,82,-56,-1,-1,0
1523634554952,-851968,82,-56,-1,-1,0
1523634554952,-851968,82,-56,-1,-1,0
1523634554991,-851968,82,-56,-1,-1,0
1523634554991,-917504,82,-56,-1,-1,0
1523634554991,-851968,82,-56,-1,-1,0
1523634554991,-786432,82,-56,-1,-1,0
1523634554991,-786432,82,-56,-1,-1,0
1523634555031,-851968,82,-56,-1,-1,0
1523634555031,-917504,82,-56,-1,-1,0
1523634555031,-851968,82,-56,-1,-1,0
1523634555031,-851968,82,-56,-1,-1,0
1523634555031,-851968,82,-56,-1,-1,0
1523634555071,-851968,82,-56,-1,-1,0
1523634555071,-851968,82,-56,-1,-1,0
1523634555071,-917504,82,-56,-1,-1,0
1523634555071,-983040,82,-56,-1,-1,0
1523634555071,-1048576,82,-56,-1,-1,0
1523634555111,-1048576,82,-56,-1,-1,0
1523634555111,-1114112,82,-56,-1,-1,0
1523634555111,-1048576,82,-56,-1,-1,0
1523634555111,-1048576,82,-56,-1,-1,0
1523634555111,-917504,82,-56,-1,-1,0
1523634555151,-851968,82,-56,-1,-1,0
1523634555151,-851968,82,-56,-1,-1,0
1523634555151,-917504,82,-56,-1,-1,0
1523634555151,-983040,82,-56,-1,-1,0
1523634555151,-1048576,82,-56,-1,-1,0
1523634555191,-1114112,82,-56,-1,-1,0
1523634555191,-1114112,82,-56,-1,-1,0
1523634555191,-1114112,82,-56,-1,-1,0
1523634555191,-1179648,82,-56,-1,-1,0
1523634555191,-1179648,82,-56,-1,-1,0
1523634555231,-1179648,82,-56,-1,-1,0
1523634555231,-1179648,82,-56,-1,-1,0
1523634555231,-1114112,82,-56,-1,-1,0
1523634555231,-1114112,82,-56,-1,-1,0
1523634555231,-1114112,82,-56,-1,-1,0
1523634555271,-1179648,82,-56,-1,-1,0
1523634555271,-1245184,82,-56,-1,-1,0
1523634555271,-1114112,82,-56,-1,-1,0
1523634555271,327680,82,-56,-1,-1,0
1523634555271,4063232,82,-56,-1,-1,0
1523634555311,7864320,82,-56,-1,-1,0
1523634555311,7340032,82,-56,-1,-1,0
1523634555311,2359296,82,-56,-1,-1,0
1523634555311,-2555904,82,-56,-1,-1,0
1523634555311,-4653056,82,-56,-1,-1,0
1523634555351,-4259840,82,-56,-1,-1,0
1523634555351,-2949120,82,-56,-1,-1,0
1523634555351,-1769472,82,-56,-1,-1,0
1523634555351,-1245184,82,-56,-1,-1,0
1523634555351,-917504,82,-56,-1,-1,0
1523634555391,-720896,82,-56,-1,-1,0
1523634555391,-655360,82,-56,-1,-1,0
1523634555391,-524288,82,-56,-1,-1,0
1523634555391,-458752,82,-56,-1,-1,0
1523634555391,-393216,82,-56,-1,-1,0
1523634555431,-327680,82,-56,-1,-1,0
1523634555431,-196608,82,-56,-1,-1,0
1523634555431,0,82,-56,-1,-1,0
1523634555431,65536,82,-56,-1,-1,0
1523634555431,262144,82,-56,-1,-1,0
1523634555471,524288,82,-56,-1,-1,0
1523634555471,851968,82,-56,-1,-1,0
1523634555471,1245184,82,-56,-1,-1,0
1523634555471,1703936,82,-56,-1,-1,0
1523634555471,2228224,82,-56,-1,-1,0
1523634555511,2752512,82,-56,-1,-1,0
1523634555511,3342336,82,-56,-1,-1,0
1523634555511,3735552,82,-56,-1,-1,0
1523634555511,3997696,82,-56,-1,-1,0
1523634555511,4194304,82,-56,-1,-1,0
1523634555551,4128768,82,-56,-1,-1,0
1523634555551,3801088,82,-56,-1,-1,0
1523634555551,3276800,82,-56,-1,-1,0
1523634555551,2621440,82,-56,-1,-1,0
1523634555551,1835008,82,-56,-1,-1,0
1523634555592,1114112,82,-56,-1,-1,0
1523634555592,524288,82,-56,-1,-1,0
1523634555592,65536,82,-56,-1,-1,0
1523634555592,-262144,82,-56,-1,-1,0
1523634555592,-458752,82,-56,-1,-1,0
1523634555632,-655360,82,-56,-1,-1,0
1523634555632,-720896,82,-56,-1,-1,0
1523634555632,-786432,82,-56,-1,-1,0
1523634555632,-851968,82,-56,-1,-1,0
1523634555632,-851968,82,-56,-1,-1,0
1523634555671,-851968,82,-56,-1,-1,0
1523634555671,-786432,82,-56,-1,-1,0
1523634555671,-786432,82,-56,-1,-1,0
1523634555671,-786432,82,-56,-1,-1,0
1523634555671,-786432,82,-56,-1,-1,0
1523634555711,-786432,82,-56,-1,-1,0
1523634555711,-851968,82,-56,-1,-1,0
1523634555711,-786432,82,-56,-1,-1,0
1523634555711,-720896,82,-56,-1,-1,0
1523634555711,-720896,82,-56,-1,-1,0
1523634555751,-786432,82,-56,-1,-1,0
1523634555751,-786432,82,-56,-1,-1,0
1523634555751,-786432,82,-56,-1,-1,0
1523634555751,-786432,82,-56,-1,-1,0
1523634555751,-786432,82,-56,-1,-1,0
1523634555791,-851968,82,-56,-1,-1,0
1523634555791,-851968,82,-56,-1,-1,0
1523634555791,-851968,82,-56,-1,-1,0
1523634555791,-917504,82,-56,-1,-1,0
1523634555791,-851968,82,-56,-1,-1,0
1523634555831,-917504,82,-56,-1,-1,0
1523634555831,-917504,82,-56,-1,-1,0
1523634555831,-983040,82,-56,-1,-1,0
1523634555831,-917504,82,-56,-1,-1,0
1523634555831,-786432,82,-56,-1,-1,0
1523634555871,-655360,82,-56,-1,-1,0
1523634555871,-655360,82,-56,-1,-1,0
1523634555871,-786432,82,-56,-1,-1,0
1523634555871,-917504,82,-56,-1,-1,0
1523634555871,-983040,82,-56,-1,-1,0
1523634555911,-1048576,82,-56,-1,-1,0
1523634555911,-983040,82,-56,-1,-1,0
1523634555911,-983040,82,-56,-1,-1,0
1523634555911,-983040,82,-56,-1,-1,0
1523634555911,-1048576,82,-56,-1,-1,0
1523634555951,-1114112,82,-56,-1,-1,0
1523634555951,-1048576,82,-56,-1,-1,0
1523634555951,-1048576,82,-56,-1,-1,0
1523634555951,-1048576,82,-56,-1,-1,0
1523634555951,-983040,82,-56,-1,-1,0
1523634555991,-983040,82,-56,-1,-1,0
1523634555991,-1048576,82,-56,-1,-1,0
1523634555991,-327680,82,-56,-1,-1,0
1523634555991,2359296,82,-56,-1,-1,0
1523634555991,6684672,82,-56,-1,-1,0
1523634556031,8388608,82,-56,-1,-1,0
1523634556031,4915200,82,-56,-1,-1,0
1523634556031,-720896,82,-56,-1,-1,0
1523634556031,-4194304,82,-56,-1,-1,0
1523634556031,-4718592,82,-56,-1,-1,0
1523634556071,-3735552,82,-56,-1,-1,0
1523634556071,-2359296,82,-56,-1,-1,0
1523634556071,-1441792,82,-56,-1,-1,0
1523634556071,-983040,82,-56,-1,-1,0
1523634556071,-720896,82,-56,-1,-1,0
1523634556111,-589824,82,-56,-1,-1,0
1523634556111,-458752,82,-56,-1,-1,0
1523634556111,-393216,82,-56,-1,-1,0
1523634556111,-262144,82,-56,-1,-1,0
1523634556111,-131072,82,-56,-1,-1,0
1523634556151,-65536,82,-56,-1,-1,0
1523634556151,0,82,-56,-1,-1,0
1523634556151,131072,82,-56,-1,-1,0
1523634556151,393216,82,-56,-1,-1,0
1523634556151,589824,82,-56,-1,-1,0
1523634556191,917504,82,-56,-1,-1,0
1523634556191,1310720,82,-56,-1,-1,0
1523634556191,1703936,82,-56,-1,-1,0
1523634556191,2228224,82,-56,-1,-1,0
1523634556191,2752512,82,-56,-1,-1,0
1523634556232,3342336,82,-56,-1,-1,0
1523634556232,3801088,82,-56,-1,-1,0
1523634556232,4194304,82,-56,-1,-1,0
1523634556232,4390912,82,-56,-1,-1,0
1523634556232,4456448,82,-56,-1,-1,0
1523634556271,4259840,82,-56,-1,-1,0
1523634556271,3801088,82,-56,-1,-1,0
1523634556271,3080192,82,-56,-1,-1,0
1523634556271,2359296,82,-56,-1,-1,0
1523634556271,1638400,82,-56,-1,-1,0
1523634556311,917504,82,-56,-1,-1,0
1523634556311,262144,82,-56,-1,-1,0
1523634556311,-65536,82,-56,-1,-1,0
1523634556311,-327680,82,-56,-1,-1,0
1523634556311,-524288,82,-56,-1,-1,0
1523634556351,-589824,82,-56,-1,-1,0
1523634556351,-655360,82,-56,-1,-1,0
1523634556351,-720896,82,-56,-1,-1,0
1523634556351,-720896,82,-56,-1,-1,0
1523634556351,-786432,82,-56,-1,-1,0
1523634556391,-786432,82,-56,-1,-1,0
1523634556391,-720896,82,-56,-1,-1,0
1523634556391,-720896,82,-56,-1,-1,0
1523634556391,-720896,82,-56,-1,-1,0
1523634556391,-720896,82,-56,-1,-1,0
1523634556431,-720896,82,-56,-1,-1,0
1523634556431,-720896,82,-56,-1,-1,0
1523634556431,-720896,82,-56,-1,-1,0
1523634556431,-720896,82,-56,-1,-1,0
1523634556431,-720896,82,-56,-1,-1,0
1523634556471,-720896,82,-56,-1,-1,0
1523634556471,-720896,82,-56,-1,-1,0
1523634556471,-720896,82,-56,-1,-1,0
1523634556471,-786432,82,-56,-1,-1,0
1523634556471,-851968,82,-56,-1,-1,0
1523634556511,-851968,82,-56,-1,-1,0
1523634556511,-851968,82,-56,-1,-1,0
1523634556511,-851968,82,-56,-1,-1,0
1523634556511,-851968,82,-56,-1,-1,0
1523634556511,-851968,82,-56,-1,-1,0
1523634556551,-851968,82,-56,-1,-1,0
1523634556551,-786432,82,-56,-1,-1,0
1523634556551,-720896,82,-56,-1,-1,0
1523634556551,-720896,82,-56,-1,-1,0
1523634556551,-786432,82,-56,-1,-1,0
1523634556591,-917504,82,-56,-1,-1,0
1523634556591,-983040,82,-56,-1,-1,0
1523634556591,-1048576,82,-56,-1,-1,0
1523634556591,-1048576,82,-56,-1,-1,0
1523634556591,-1048576,82,-56,-1,-1,0
1523634556631,-1114112,82,-56,-1,-1,0
1523634556631,-1114112,82,-56,-1,-1,0
1523634556631,-1114112,82,-56,-1,-1,0
1523634556631,-1114112,82,-56,-1,-1,0
1523634556631,-1048576,82,-56,-1,-1,0
1523634556671,-1048576,82,-56,-1,-1,0
1523634556671,-1048576,82,-56,-1,-1,0
1523634556671,-1114112,82,-56,-1,-1,0
1523634556671,-1114112,82,-56,-1,-1,0
1523634556671,-196608,82,-56,-1,-1,0
1523634556711,2818048,82,-56,-1,-1,0
1523634556711,7143424,82,-56,-1,-1,0
1523634556711,8388608,82,-56,-1,-1,0
1523634556711,4325376,82,-56,-1,-1,0
1523634556711,-1245184,82,-56,-1,-1,0
1523634556751,-4456448,82,-56,-1,-1,0
1523634556751,-4653056,82,-56,-1,-1,0
1523634556751,-3604480,82,-56,-1,-1,0
1523634556751,-2293760,82,-56,-1,-1,0
1523634556751,-1441792,82,-56,-1,-1,0
1523634556791,-983040,82,-56,-1,-1,0
1523634556791,-786432,82,-56,-1,-1,0
1523634556791,-655360,82,-56,-1,-1,0
1523634556791,-589824,82,-56,-1,-1,0
1523634556791,-458752,82,-56,-1,-1,0
1523634556831,-393216,82,-56,-1,-1,0
1523634556831,-262144,82,-56,-1,-1,0
1523634556831,-196608,82,-56,-1,-1,0
1523634556831,-131072,82,-56,-1,-1,0
1523634556831,0,82,-56,-1,-1,0
1523634556872,196608,82,-56,-1,-1,0
1523634556872,458752,82,-56,-1,-1,0
1523634556872,720896,82,-56,-1,-1,0
1523634556872,1114112,82,-56,-1,-1,0
1523634556872,1507328,82,-56,-1,-1,0
1523634556911,1966080,82,-56,-1,-1,0
1523634556911,2555904,82,-56,-1,-1,0
1523634556911,3145728,82,-56,-1,-1,0
1523634556911,3670016,82,-56,-1,-1,0
1523634556911,3997696,82,-56,-1,-1,0
1523634556951,4128768,82,-56,-1,-1,0
1523634556951,4128768,82,-56,-1,-1,0
1523634556951,3866624,82,-56,-1,-1,0
1523634556951,3407872,82,-56,-1,-1,0
1523634556951,2752512,82,-56,-1,-1,0
1523634556991,1900544,82,-56,-1,-1,0
1523634556991,1114112,82,-56,-1,-1,0
1523634556991,458752,82,-56,-1,-1,0
1523634556991,0,82,-56,-1,-1,0
1523634556991,-262144,82,-56,-1,-1,0
1523634557031,-524288,82,-56,-1,-1,0
1523634557031,-720896,82,-56,-1,-1,0
1523634557031,-851968,82,-56,-1,-1,0
1523634557031,-917504,82,-56,-1,-1,0
1523634557031,-917504,82,-56,-1,-1,0
1523634557071,-917504,82,-56,-1,-1,0
1523634557071,-917504,82,-56,-1,-1,0
1523634557071,-917504,82,-56,-1,-1,0
1523634557071,-983040,82,-56,-1,-1,0
1523634557071,-917504,82,-56,-1,-1,0
1523634557111,-851968,82,-56,-1,-1,0
1523634557111,-851968,82,-56,-1,-1,0
1523634557111,-851968,82,-56,-1,-1,0
1523634557111,-851968,82,-56,-1,-1,0
1523634557111,-851968,82,-56,-1,-1,0
1523634557151,-917504,82,-56,-1,-1,0
1523634557151,-917504,82,-56,-1,-1,0
1523634557151,-851968,82,-56,-1,-1,0
1523634557151,-851968,82,-56,-1,-1,0
1523634557151,-851968,82,-56,-1,-1,0
1523634557191,-851968,82,-56,-1,-1,0
1523634557191,-851968,82,-56,-1,-1,0
1523634557191,-851968,82,-56,-1,-1,0
1523634557191,-917504,82,-56,-1,-1,0
1523634557191,-983040,82,-56,-1,-1,0
1523634557231,-983040,82,-56,-1,-1,0
1523634557231,-983040,82,-56,-1,-1,0
1523634557231,-983040,82,-56,-1,-1,0
1523634557231,-983040,82,-56,-1,-1,0
1523634557231,-851968,82,-56,-1,-1,0
1523634557271,-851968,82,-56,-1,-1,0
1523634557271,-917504,82,-56,-1,-1,0
1523634557271,-983040,82,-56,-1,-1,0
1523634557271,-1048576,82,-56,-1,-1,0
1523634557271,-1048576,82,-56,-1,-1,0
1523634557311,-1114112,82,-56,-1,-1,0
1523634557311,-1179648,82,-56,-1,-1,0
1523634557311,-1179648,82,-56,-1,-1,0
1523634557311,-1179648,82,-56,-1,-1,0
1523634557311,-1245184,82,-56,-1,-1,0
1523634557351,-1179648,82,-56,-1,-1,0
1523634557351,-1179648,82,-56,-1,-1,0
1523634557351,-1114112,82,-56,-1,-1,0
1523634557351,-1114112,82,-56,-1,-1,0
1523634557351,-1048576,82,-56,-1,-1,0
1523634557391,-1179648,82,-56,-1,-1,0
1523634557391,-917504,82,-56,-1,-1,0
1523634557391,1114112,82,-56,-1,-1,0
1523634557391,5505024,82,-56,-1,-1,0
1523634557391,8847360,82,-56,-1,-1,0
1523634557431,7143424,82,-56,-1,-1,0
1523634557431,1441792,82,-56,-1,-1,0
1523634557431,-3211264,82,-56,-1,-1,0
1523634557431,-4587520,82,-56,-1,-1,0
1523634557431,-3735552,82,-56,-1,-1,0
1523634557471,-2424832,82,-56,-1,-1,0
1523634557471,-1507328,82,-56,-1,-1,0
1523634557471,-1048576,82,-56,-1,-1,0
1523634557471,-851968,82,-56,-1,-1,0
1523634557471,-720896,82,-56,-1,-1,0
1523634557512,-655360,82,-56,-1,-1,0
1523634557512,-524288,82,-56,-1,-1,0
1523634557512,-393216,82,-56,-1,-1,0
1523634557512,-262144,82,-56,-1,-1,0
1523634557512,-196608,82,-56,-1,-1,0
1523634557551,-65536,82,-56,-1,-1,0
1523634557551,65536,82,-56,-1,-1,0
1523634557551,196608,82,-56,-1,-1,0
1523634557551,393216,82,-56,-1,-1,0
1523634557551,655360,82,-56,-1,-1,0
1523634557591,983040,82,-56,-1,-1,0
1523634557591,1376256,82,-56,-1,-1,0
1523634557591,1900544,82,-56,-1,-1,0
1523634557591,2490368,82,-56,-1,-1,0
1523634557591,3014656,82,-56,-1,-1,0
1523634557631,3538944,82,-56,-1,-1,0
1523634557631,3997696,82,-56,-1,-1,0
1523634557631,4194304,82,-56,-1,-1,0
1523634557631,4259840,82,-56,-1,-1,0
1523634557631,4063232,82,-56,-1,-1,0
1523634557671,3670016,82,-56,-1,-1,0
1523634557671,3014656,82,-56,-1,-1,0
1523634557671,2293760,82,-56,-1,-1,0
1523634557671,1572864,82,-56,-1,-1,0
1523634557671,917504,82,-56,-1,-1,0
1523634557711,393216,82,-56,-1,-1,0
1523634557711,0,82,-56,-1,-1,0
1523634557711,-262144,82,-56,-1,-1,0
1523634557711,-524288,82,-56,-1,-1,0
1523634557711,-655360,82,-56,-1,-1,0
1523634557751,-720896,82,-56,-1,-1,0
1523634557751,-720896,82,-56,-1,-1,0
1523634557751,-786432,82,-56,-1,-1,0
1523634557751,-786432,82,-56,-1,-1,0
1523634557751,-851968,82,-56,-1,-1,0
1523634557791,-917504,82,-56,-1,-1,0
1523634557791,-851968,82,-56,-1,-1,0
1523634557791,-851968,82,-56,-1,-1,0
1523634557791,-786432,82,-56,-1,-1,0
1523634557791,-851968,82,-56,-1,-1,0
1523634557831,-851968,82,-56,-1,-1,0
1523634557831,-851968,82,-56,-1,-1,0
1523634557831,-786432,82,-56,-1,-1,0
1523634557831,-720896,82,-56,-1,-1,0
1523634557831,-851968,82,-56,-1,-1,0
1523634557871,-851968,82,-56,-1,-1,0
1523634557871,-851968,82,-56,-1,-1,0
1523634557871,-851968,82,-56,-1,-1,0
1523634557871,-917504,82,-56,-1,-1,0
1523634557871,-983040,82,-56,-1,-1,0
1523634557911,-1048576,82,-56,-1,-1,0
1523634557911,-983040,82,-56,-1,-1,0
1523634557911,-1048576,82,-56,-1,-1,0
1523634557911,-983040,82,-56,-1,-1,0
1523634557911,-917504,82,-56,-1,-1,0
1523634557952,-786432,82,-56,-1,-1,0
1523634557952,-720896,82,-56,-1,-1,0
1523634557952,-851968,82,-56,-1,-1,0
1523634557952,-983040,82,-56,-1,-1,0
1523634557952,-1048576,82,-56,-1,-1,0
1523634557991,-1114112,82,-56,-1,-1,0
1523634557991,-1179648,82,-56,-1,-1,0
1523634557991,-1179648,82,-56,-1,-1,0
1523634557991,-1245184,82,-56,-1,-1,0
1523634557991,-1179648,82,-56,-1,-1,0
1523634558031,-1179648,82,-56,-1,-1,0
1523634558031,-1179648,82,-56,-1,-1,0
1523634558031,-1179648,82,-56,-1,-1,0
1523634558031,-1179648,82,-56,-1,-1,0
1523634558031,-1179648,82,-56,-1,-1,0
1523634558071,-1179648,83,-56,-1,-1,0
1523634558071,-1310720,83,-56,-1,-1,0
1523634558071,-983040,83,-56,-1,-1,0
1523634558071,983040,83,-56,-1,-1,0
1523634558071,5111808,83,-56,-1,-1,0
1523634558111,7929856,83,-56,-1,-1,0
1523634558111,5963776,83,-56,-1,-1,0
1523634558111,458752,83,-56,-1,-1,0
1523634558111,-3735552,83,-56,-1,-1,0
1523634558111,-4784128,83,-56,-1,-1,0
1523634558152,-3866624,83,-56,-1,-1,0
1523634558152,-2555904,83,-56,-1,-1,0
1523634558152,-1572864,83,-56,-1,-1,0
1523634558152,-1114112,83,-56,-1,-1,0
1523634558152,-983040,83,-56,-1,-1,0
1523634558193,-851968,83,-56,-1,-1,0
1523634558193,-720896,83,-56,-1,-1,0
1523634558193,-655360,83,-56,-1,-1,0
1523634558193,-524288,83,-56,-1,-1,0
1523634558193,-393216,83,-56,-1,-1,0
1523634558231,-327680,83,-56,-1,-1,0
1523634558231,-262144,83,-56,-1,-1,0
1523634558231,-65536,83,-56,-1,-1,0
1523634558231,65536,83,-56,-1,-1,0
1523634558231,262144,83,-56,-1,-1,0
1523634558271,524288,83,-56,-1,-1,0
1523634558271,917504,83,-56,-1,-1,0
1523634558271,1376256,83,-56,-1,-1,0
1523634558271,1900544,83,-56,-1,-1,0
1523634558271,2359296,83,-56,-1,-1,0
1523634558311,2949120,83,-56,-1,-1,0
1523634558311,3407872,83,-56,-1,-1,0
1523634558311,3801088,83,-56,-1,-1,0
1523634558311,3997696,83,-56,-1,-1,0
1523634558311,3997696,83,-56,-1,-1,0
1523634558351,3866624,83,-56,-1,-1,0
1523634558351,3473408,83,-56,-1,-1,0
1523634558351,2883584,83,-56,-1,-1,0
1523634558351,2162688,83,-56,-1,-1,0
1523634558351,1376256,83,-56,-1,-1,0
1523634558391,720896,83,-56,-1,-1,0
1523634558391,131072,83,-56,-1,-1,0
1523634558391,-262144,83,-56,-1,-1,0
1523634558391,-524288,83,-56,-1,-1,0
1523634558391,-720896,83,-56,-1,-1,0
1523634558431,-851968,83,-56,-1,-1,0
1523634558431,-917504,83,-56,-1,-1,0
1523634558431,-983040,83,-56,-1,-1,0
1523634558431,-1048576,83,-56,-1,-1,0
1523634558431,-1048576,83,-56,-1,-1,0
1523634558471,-983040,83,-56,-1,-1,0
1523634558471,-1048576,83,-56,-1,-1,0
1523634558471,-1048576,83,-56,-1,-1,0
1523634558471,-1048576,83,-56,-1,-1,0
1523634558471,-1114112,83,-56,-1,-1,0
1523634558511,-1048576,83,-56,-1,-1,0
1523634558511,-917504,83,-56,-1,-1,0
1523634558511,-851968,83,-56,-1,-1,0
1523634558511,-983040,83,-56,-1,-1,0
1523634558511,-983040,83,-56,-1,-1,0
1523634558551,-983040,83,-56,-1,-1,0
1523634558551,-983040,83,-56,-1,-1,0
1523634558551,-983040,83,-56,-1,-1,0
1523634558551,-983040,83,-56,-1,-1,0
1523634558551,-983040,83,-56,-1,-1,0
1523634558591,-983040,83,-56,-1,-1,0
1523634558591,-917504,83,-56,-1,-1,0
1523634558591,-983040,83,-56,-1,-1,0
1523634558591,-983040,83,-56,-1,-1,0
1523634558591,-917504,83,-56,-1,-1,0
1523634558631,-720896,83,-56,-1,-1,0
1523634558631,-655360,83,-56,-1,-1,0
1523634558631,-720896,83,-56,-1,-1,0
1523634558631,-851968,83,-56,-1,-1,0
1523634558631,-983040,83,-56,-1,-1,0
1523634558671,-983040,83,-56,-1,-1,0
1523634558671,-983040,83,-56,-1,-1,0
1523634558671,-1048576,83,-56,-1,-1,0
1523634558671,-1114112,83,-56,-1,-1,0
1523634558671,-1179648,83,-56,-1,-1,0
1523634558711,-1114112,83,-56,-1,-1,0
1523634558711,-983040,83,-56,-1,-1,0
1523634558711,-983040,83,-56,-1,-1,0
1523634558711,-983040,83,-56,-1,-1,0
1523634558711,-917504,83,-56,-1,-1,0
1523634558752,-917504,83,-56,-1,-1,0
1523634558752,-1048576,83,-56,-1,-1,0
1523634558752,-720896,83,-56,-1,-1,0
1523634558752,983040,83,-56,-1,-1,0
1523634558752,4653056,83,-56,-1,-1,0
1523634558791,7471104,83,-56,-1,-1,0
1523634558791,5767168,83,-56,-1,-1,0
1523634558791,655360,83,-56,-1,-1,0
1523634558791,-3342336,83,-56,-1,-1,0
1523634558791,-4521984,83,-56,-1,-1,0
1523634558831,-3866624,83,-56,-1,-1,0
1523634558831,-2621440,83,-56,-1,-1,0
1523634558831,-1507328,83,-56,-1,-1,0
1523634558831,-917504,83,-56,-1,-1,0
1523634558831,-720896,83,-56,-1,-1,0
1523634558871,-524288,83,-56,-1,-1,0
1523634558871,-458752,83,-56,-1,-1,0
1523634558871,-327680,83,-56,-1,-1,0
1523634558871,-262144,83,-56,-1,-1,0
1523634558871,-196608,83,-56,-1,-1,0
1523634558911,0,83,-56,-1,-1,0
1523634558911,65536,83,-56,-1,-1,0
1523634558911,262144,83,-56,-1,-1,0
1523634558911,327680,83,-56,-1,-1,0
1523634558911,524288,83,-56,-1,-1,0
1523634558951,720896,83,-56,-1,-1,0
1523634558951,1048576,83,-56,-1,-1,0
1523634558951,1441792,83,-56,-1,-1,0
1523634558951,1900544,83,-56,-1,-1,0
1523634558951,2359296,83,-56,-1,-1,0
1523634558991,2818048,83,-56,-1,-1,0
1523634558991,3276800,83,-56,-1,-1,0
1523634558991,3604480,83,-56,-1,-1,0
1523634558991,3866624,83,-56,-1,-1,0
1523634558991,3932160,83,-56,-1,-1,0
1523634559031,3866624,83,-56,-1,-1,0
1523634559031,3538944,83,-56,-1,-1,0
1523634559031,3014656,83,-56,-1,-1,0
1523634559031,2293760,83,-56,-1,-1,0
1523634559031,1572864,83,-56,-1,-1,0
1523634559071,917504,83,-56,-1,-1,0
1523634559071,393216,83,-56,-1,-1,0
1523634559071,0,83,-56,-1,-1,0
1523634559071,-262144,83,-56,-1,-1,0
1523634559071,-393216,83,-56,-1,-1,0
1523634559111,-524288,83,-56,-1,-1,0
1523634559111,-589824,83,-56,-1,-1,0
1523634559111,-655360,83,-56,-1,-1,0
1523634559111,-720896,83,-56,-1,-1,0
1523634559111,-786432,83,-56,-1,-1,0
1523634559151,-851968,83,-56,-1,-1,0
1523634559151,-720896,83,-56,-1,-1,0
1523634559151,-655360,83,-56,-1,-1,0
1523634559151,-655360,83,-56,-1,-1,0
1523634559151,-655360,83,-56,-1,-1,0
1523634559191,-720896,83,-56,-1,-1,0
1523634559191,-720896,83,-56,-1,-1,0
1523634559191,-720896,83,-56,-1,-1,0
1523634559191,-720896,83,-56,-1,-1,0
1523634559191,-655360,83,-56,-1,-1,0
1523634559231,-786432,83,-56,-1,-1,0
1523634559231,-786432,83,-56,-1,-1,0
1523634559231,-720896,83,-56,-1,-1,0
1523634559231,-655360,83,-56,-1,-1,0
1523634559231,-786432,83,-56,-1,-1,0
1523634559271,-851968,83,-56,-1,-1,0
1523634559271,-851968,83,-56,-1,-1,0
1523634559271,-786432,83,-56,-1,-1,0
1523634559271,-851968,83,-56,-1,-1,0
1523634559271,-851968,83,-56,-1,-1,0
1523634559312,-720896,83,-56,-1,-1,0
1523634559312,-655360,83,-56,-1,-1,0
1523634559312,-655360,83,-56,-1,-1,0
1523634559312,-786432,83,-56,-1,-1,0
1523634559312,-851968,83,-56,-1,-1,0
1523634559355,-983040,83,-56,-1,-1,0
1523634559355,-1048576,83,-56,-1,-1,0
1523634559355,-983040,83,-56,-1,-1,0
1523634559355,-983040,83,-56,-1,-1,0
1523634559355,-1114112,83,-56,-1,-1,0
1523634559391,-1179648,83,-56,-1,-1,0
1523634559391,-1179648,83,-56,-1,-1,0
1523634559391,-1114112,83,-56,-1,-1,0
1523634559391,-1048576,83,-56,-1,-1,0
1523634559391,-1048576,83,-56,-1,-1,0
1523634559431,-983040,84,-56,-1,-1,0
1523634559431,-1048576,84,-56,-1,-1,0
1523634559431,-655360,84,-56,-1,-1,0
1523634559431,1114112,84,-56,-1,-1,0
1523634559431,4718592,84,-56,-1,-1,0
1523634559471,6946816,84,-56,-1,-1,0
1523634559471,4784128,84,-56,-1,-1,0
1523634559471,-65536,84,-56,-1,-1,0
1523634559471,-3604480,84,-56,-1,-1,0
1523634559471,-4456448,84,-56,-1,-1,0
1523634559511,-3735552,84,-56,-1,-1,0
1523634559511,-2490368,84,-56,-1,-1,0
1523634559511,-1507328,84,-56,-1,-1,0
1523634559511,-917504,84,-56,-1,-1,0
1523634559511,-786432,84,-56,-1,-1,0
1523634559551,-720896,84,-56,-1,-1,0
1523634559551,-589824,84,-56,-1,-1,0
1523634559551,-524288,84,-56,-1,-1,0
1523634559551,-393216,84,-56,-1,-1,0
1523634559551,-262144,84,-56,-1,-1,0
1523634559591,-196608,84,-56,-1,-1,0
1523634559591,-131072,84,-56,-1,-1,0
1523634559591,-65536,84,-56,-1,-1,0
1523634559591,65536,84,-56,-1,-1,0
1523634559591,393216,84,-56,-1,-1,0
1523634559631,720896,84,-56,-1,-1,0
1523634559631,917504,84,-56,-1,-1,0
1523634559631,1179648,84,-56,-1,-1,0
1523634559631,1638400,84,-56,-1,-1,0
1523634559631,2162688,84,-56,-1,-1,0
1523634559671,2752512,84,-56,-1,-1,0
1523634559671,3145728,84,-56,-1,-1,0
1523634559671,3407872,84,-56,-1,-1,0
1523634559671,3538944,84,-56,-1,-1,0
1523634559671,3604480,84,-56,-1,-1,0
1523634559711,3407872,84,-56,-1,-1,0
1523634559711,3080192,84,-56,-1,-1,0
1523634559711,2621440,84,-56,-1,-1,0
1523634559711,2031616,84,-56,-1,-1,0
1523634559711,1310720,84,-56,-1,-1,0
1523634559751,786432,84,-56,-1,-1,0
1523634559751,262144,84,-56,-1,-1,0
1523634559751,-65536,84,-56,-1,-1,0
1523634559751,-458752,84,-56,-1,-1,0
1523634559751,-655360,84,-56,-1,-1,0
1523634559791,-720896,84,-56,-1,-1,0
1523634559791,-655360,84,-56,-1,-1,0
1523634559791,-720896,84,-56,-1,-1,0
1523634559791,-786432,84,-56,-1,-1,0
1523634559791,-917504,84,-56,-1,-1,0
1523634559831,-851968,84,-56,-1,-1,0
1523634559831,-786432,84,-56,-1,-1,0
1523634559831,-720896,84,-56,-1,-1,0
1523634559831,-786432,84,-56,-1,-1,0
1523634559831,-786432,84,-56,-1,-1,0
1523634559871,-786432,84,-56,-1,-1,0
1523634559871,-720896,84,-56,-1,-1,0
1523634559871,-720896,84,-56,-1,-1,0
1523634559871,-720896,84,-56,-1,-1,0
1523634559871,-720896,84,-56,-1,-1,0
1523634559911,-720896,84,-56,-1,-1,0
1523634559911,-720896,84,-56,-1,-1,0
1523634559911,-720896,84,-56,-1,-1,0
1523634559911,-720896,84,-56,-1,-1,0
1523634559911,-851968,84,-56,-1,-1,0
1523634559951,-851968,84,-56,-1,-1,0
1523634559951,-786432,84,-56,-1,-1,0
1523634559951,-786432,84,-56,-1,-1,0
1523634559951,-655360,84,-56,-1,-1,0
1523634559951,-524288,84,-56,-1,-1,0
1523634559991,-524288,84,-56,-1,-1,0
1523634559991,-589824,84,-56,-1,-1,0
1523634559991,-720896,84,-56,-1,-1,0
1523634559991,-851968,84,-56,-1,-1,0
1523634559991,-851968,84,-56,-1,-1,0
1523634560031,-917504,84,-56,-1,-1,0
1523634560031,-1048576,84,-56,-1,-1,0
1523634560031,-1048576,84,-56,-1,-1,0
1523634560031,-983040,84,-56,-1,-1,0
1523634560031,-917504,84,-56,-1,-1,0
1523634560072,-983040,84,-56,-1,-1,0
1523634560072,-917504,84,-56,-1,-1,0
1523634560072,-851968,84,-56,-1,-1,0
1523634560072,-917504,84,-56,-1,-1,0
1523634560072,-917504,84,-56,-1,-1,0
1523634560111,-851968,84,-56,-1,-1,0
1523634560111,-655360,84,-56,-1,-1,0
1523634560111,786432,84,-56,-1,-1,0
1523634560111,4128768,84,-56,-1,-1,0
1523634560111,6684672,84,-56,-1,-1,0
1523634560151,5177344,84,-56,-1,-1,0
1523634560151,589824,84,-56,-1,-1,0
1523634560151,-3014656,84,-56,-1,-1,0
1523634560151,-4325376,84,-56,-1,-1,0
1523634560151,-3801088,84,-56,-1,-1,0
1523634560191,-2621440,84,-56,-1,-1,0
1523634560191,-1572864,84,-56,-1,-1,0
1523634560191,-983040,84,-56,-1,-1,0
1523634560191,-655360,84,-56,-1,-1,0
1523634560191,-524288,84,-56,-1,-1,0
1523634560231,-589824,84,-56,-1,-1,0
1523634560231,-524288,84,-56,-1,-1,0
1523634560231,-262144,84,-56,-1,-1,0
1523634560231,-65536,84,-56,-1,-1,0
1523634560231,-65536,84,-56,-1,-1,0
1523634560271,-65536,84,-56,-1,-1,0
1523634560271,-65536,84,-56,-1,-1,0
1523634560271,65536,84,-56,-1,-1,0
1523634560271,327680,84,-56,-1,-1,0
1523634560271,589824,84,-56,-1,-1,0
1523634560311,851968,84,-56,-1,-1,0
