milliseconds, ECG, ECG HR, PPG, PPG HR, SpO2, PI
1523612950963,6291456,-112,-56,-1,-1,0
1523612950963,6356992,-112,-56,-1,-1,0
1523612950963,6291456,-112,-56,-1,-1,0
1523612950963,6094848,-112,-56,-1,-1,0
1523612950963,5963776,-112,-56,-1,-1,0
1523612951007,5767168,-112,-56,-1,-1,0
1523612951007,5636096,-112,-56,-1,-1,0
1523612951007,5505024,-112,-56,-1,-1,0
1523612951007,5439488,-112,-56,-1,-1,0
1523612951007,5308416,-112,-56,-1,-1,0
1523612951043,5242880,-112,-56,-1,-1,0
1523612951043,5046272,-112,-56,-1,-1,0
1523612951043,4980736,-112,-56,-1,-1,0
1523612951043,4980736,-112,-56,-1,-1,0
1523612951043,5242880,-112,-56,-1,-1,0
1523612951083,5439488,-112,-56,-1,-1,0
1523612951083,5439488,-112,-56,-1,-1,0
1523612951083,5570560,-112,-56,-1,-1,0
1523612951083,5505024,-112,-56,-1,-1,0
1523612951083,5177344,-112,-56,-1,-1,0
1523612951123,4784128,-112,-56,-1,-1,0
1523612951123,4587520,-112,-56,-1,-1,0
1523612951123,4587520,-112,-56,-1,-1,0
1523612951123,4653056,-112,-56,-1,-1,0
1523612951123,4718592,-112,-56,-1,-1,0
1523612951163,4521984,-112,-56,-1,-1,0
1523612951163,3604480,-112,-56,-1,-1,0
1523612951163,2686976,-112,-56,-1,-1,0
1523612951163,3604480,-112,-56,-1,-1,0
1523612951163,6815744,-112,-56,-1,-1,0
1523612951203,9437184,-112,-56,-1,-1,0
1523612951203,8257536,-112,-56,-1,-1,0
1523612951203,4390912,-112,-56,-1,-1,0
1523612951203,1179648,-112,-56,-1,-1,0
1523612951203,327680,-112,-56,-1,-1,0
1523612951243,851968,-112,-56,-1,-1,0
1523612951243,1703936,-112,-56,-1,-1,0
1523612951243,2031616,-112,-56,-1,-1,0
1523612951243,1966080,-112,-56,-1,-1,0
1523612951243,1835008,-112,-56,-1,-1,0
1523612951283,1769472,-112,-56,-1,-1,0
1523612951283,2424832,-112,-56,-1,-1,0
1523612951283,3014656,-112,-56,-1,-1,0
1523612951283,2818048,-112,-56,-1,-1,0
1523612951283,2686976,-112,-56,-1,-1,0
1523612951323,2752512,-112,-56,-1,-1,0
1523612951323,2752512,-112,-56,-1,-1,0
1523612951323,2949120,-112,-56,-1,-1,0
1523612951323,3080192,-112,-56,-1,-1,0
1523612951323,2949120,-112,-56,-1,-1,0
1523612951363,2949120,-112,-56,-1,-1,0
1523612951363,2883584,-112,-56,-1,-1,0
1523612951363,2228224,-112,-56,-1,-1,0
1523612951363,1966080,-112,-56,-1,-1,0
1523612951363,2162688,-112,-56,-1,-1,0
1523612951403,2031616,-112,-56,-1,-1,0
1523612951403,1572864,-112,-56,-1,-1,0
1523612951403,1179648,-112,-56,-1,-1,0
1523612951403,851968,-112,-56,-1,-1,0
1523612951403,589824,-112,-56,-1,-1,0
1523612951443,524288,-112,-56,-1,-1,0
1523612951443,458752,-112,-56,-1,-1,0
1523612951443,393216,-112,-56,-1,-1,0
1523612951443,393216,-112,-56,-1,-1,0
1523612951443,327680,-112,-56,-1,-1,0
1523612951483,131072,-112,-56,-1,-1,0
1523612951483,0,-112,-56,-1,-1,0
1523612951483,-131072,-112,-56,-1,-1,0
1523612951483,-65536,-112,-56,-1,-1,0
1523612951483,-65536,-112,-56,-1,-1,0
1523612951523,-327680,-112,-56,-1,-1,0
1523612951523,-720896,-112,-56,-1,-1,0
1523612951523,-851968,-112,-56,-1,-1,0
1523612951523,-917504,-112,-56,-1,-1,0
1523612951523,-1048576,-112,-56,-1,-1,0
1523612951563,-1507328,-112,-56,-1,-1,0
1523612951563,-2031616,-112,-56,-1,-1,0
1523612951563,-2621440,-112,-56,-1,-1,0
1523612951563,-3342336,-112,-56,-1,-1,0
1523612951563,-3473408,-112,-56,-1,-1,0
1523612951603,-1638400,-112,-56,-1,-1,0
1523612951603,1572864,-112,-56,-1,-1,0
1523612951603,3014656,-112,-56,-1,-1,0
1523612951603,589824,-112,-56,-1,-1,0
1523612951603,-2949120,-112,-56,-1,-1,0
1523612951645,-4653056,-112,-56,-1,-1,0
1523612951645,-4849664,-112,-56,-1,-1,0
1523612951645,-4653056,-112,-56,-1,-1,0
1523612951645,-4194304,-112,-56,-1,-1,0
1523612951645,-3801088,-112,-56,-1,-1,0
1523612951683,-3604480,-112,-56,-1,-1,0
1523612951683,-3735552,-112,-56,-1,-1,0
1523612951683,-3801088,-112,-56,-1,-1,0
1523612951683,-3866624,-112,-56,-1,-1,0
1523612951683,-3735552,-112,-56,-1,-1,0
1523612951724,-3735552,-112,-56,-1,-1,0
1523612951724,-3670016,-112,-56,-1,-1,0
1523612951724,-3538944,-112,-56,-1,-1,0
1523612951724,-3342336,-112,-56,-1,-1,0
1523612951724,-3276800,-112,-56,-1,-1,0
1523612951763,-3473408,-112,-56,-1,-1,0
1523612951763,-3342336,-112,-56,-1,-1,0
1523612951763,-3080192,-112,-56,-1,-1,0
1523612951763,-3276800,-112,-56,-1,-1,0
1523612951763,-3670016,-112,-56,-1,-1,0
1523612951803,-3801088,-112,-56,-1,-1,0
1523612951803,-3735552,-112,-56,-1,-1,0
1523612951803,-3997696,-112,-56,-1,-1,0
1523612951803,-4194304,-112,-56,-1,-1,0
1523612951803,-4194304,-112,-56,-1,-1,0
1523612951843,-3997696,-112,-56,-1,-1,0
1523612951843,-4194304,-112,-56,-1,-1,0
1523612951843,-4390912,-112,-56,-1,-1,0
1523612951843,-4390912,-112,-56,-1,-1,0
1523612951843,-4194304,-112,-56,-1,-1,0
1523612951883,-4325376,-112,-56,-1,-1,0
1523612951883,-4194304,-112,-56,-1,-1,0
1523612951883,-3801088,-112,-56,-1,-1,0
1523612951883,-3538944,-112,-56,-1,-1,0
1523612951883,-3473408,-112,-56,-1,-1,0
1523612951923,-3473408,-112,-56,-1,-1,0
1523612951923,-3932160,-112,-56,-1,-1,0
1523612951923,-3932160,-112,-56,-1,-1,0
1523612951923,-3604480,-112,-56,-1,-1,0
1523612951923,-3407872,-112,-56,-1,-1,0
1523612951963,-3604480,-112,-56,-1,-1,0
1523612951963,-3801088,-112,-56,-1,-1,0
1523612951963,-3866624,-112,-56,-1,-1,0
1523612951963,-3735552,-112,-56,-1,-1,0
1523612951963,-4259840,-112,-56,-1,-1,0
1523612952003,-4587520,-112,-56,-1,-1,0
1523612952003,-3145728,-112,-56,-1,-1,0
1523612952003,0,-112,-56,-1,-1,0
1523612952003,1966080,-112,-56,-1,-1,0
1523612952003,393216,-112,-56,-1,-1,0
1523612952043,-2490368,-112,-56,-1,-1,0
1523612952043,-4128768,-112,-56,-1,-1,0
1523612952043,-4128768,-112,-56,-1,-1,0
1523612952043,-3604480,-112,-56,-1,-1,0
1523612952043,-3276800,-112,-56,-1,-1,0
1523612952083,-3145728,-112,-56,-1,-1,0
1523612952083,-3014656,-112,-56,-1,-1,0
1523612952083,-2621440,-112,-56,-1,-1,0
1523612952083,-2490368,-112,-56,-1,-1,0
1523612952083,-2359296,-112,-56,-1,-1,0
1523612952123,-2293760,-112,-56,-1,-1,0
1523612952123,-1835008,-112,-56,-1,-1,0
1523612952123,-1441792,-112,-56,-1,-1,0
1523612952123,-1376256,-112,-56,-1,-1,0
1523612952123,-1507328,-112,-56,-1,-1,0
1523612952163,-1310720,-112,-56,-1,-1,0
1523612952163,-983040,-112,-56,-1,-1,0
1523612952163,-917504,-112,-56,-1,-1,0
1523612952163,-983040,-112,-56,-1,-1,0
1523612952163,-983040,-112,-56,-1,-1,0
1523612952203,-917504,-112,-56,-1,-1,0
1523612952203,-917504,-112,-56,-1,-1,0
1523612952203,-1048576,-112,-56,-1,-1,0
1523612952203,-1179648,-112,-56,-1,-1,0
1523612952203,-1507328,-112,-56,-1,-1,0
1523612952243,-1638400,-112,-56,-1,-1,0
1523612952243,-1572864,-112,-56,-1,-1,0
1523612952243,-1572864,-112,-56,-1,-1,0
1523612952243,-1638400,-112,-56,-1,-1,0
1523612952243,-1638400,-112,-56,-1,-1,0
1523612952284,-1638400,-112,-56,-1,-1,0
1523612952284,-1572864,-112,-56,-1,-1,0
1523612952284,-1376256,-112,-56,-1,-1,0
1523612952284,-1245184,-112,-56,-1,-1,0
1523612952284,-1114112,-112,-56,-1,-1,0
1523612952323,-1114112,-112,-56,-1,-1,0
1523612952323,-1114112,-112,-56,-1,-1,0
1523612952323,-1179648,-112,-56,-1,-1,0
1523612952323,-1376256,-112,-56,-1,-1,0
1523612952323,-1507328,-112,-56,-1,-1,0
1523612952363,-1572864,-112,-56,-1,-1,0
1523612952363,-1507328,-112,-56,-1,-1,0
1523612952363,-1441792,-112,-56,-1,-1,0
1523612952363,-1507328,-112,-56,-1,-1,0
1523612952363,-1769472,-112,-56,-1,-1,0
1523612952403,-2228224,-112,-56,-1,-1,0
1523612952403,-2359296,-112,-56,-1,-1,0
1523612952403,-917504,-112,-56,-1,-1,0
1523612952403,1900544,-112,-56,-1,-1,0
1523612952403,3211264,-112,-56,-1,-1,0
1523612952443,1310720,-112,-56,-1,-1,0
1523612952443,-1769472,-112,-56,-1,-1,0
1523612952443,-3276800,-112,-56,-1,-1,0
1523612952443,-3276800,-112,-56,-1,-1,0
1523612952443,-2752512,-112,-56,-1,-1,0
1523612952483,-2228224,-112,-56,-1,-1,0
1523612952483,-1900544,-112,-56,-1,-1,0
1523612952483,-1900544,-112,-56,-1,-1,0
1523612952483,-1900544,-112,-56,-1,-1,0
1523612952483,-1769472,-112,-56,-1,-1,0
1523612952523,-1572864,-112,-56,-1,-1,0
1523612952523,-1507328,-112,-56,-1,-1,0
1523612952523,-1441792,-112,-56,-1,-1,0
1523612952523,-1376256,-112,-56,-1,-1,0
1523612952523,-1310720,-112,-56,-1,-1,0
1523612952563,-1245184,-112,-56,-1,-1,0
1523612952563,-1048576,-112,-56,-1,-1,0
1523612952563,-917504,-112,-56,-1,-1,0
1523612952563,-917504,-112,-56,-1,-1,0
1523612952563,-1048576,-112,-56,-1,-1,0
1523612952603,-1114112,-112,-56,-1,-1,0
1523612952603,-1114112,-112,-56,-1,-1,0
1523612952603,-1114112,-112,-56,-1,-1,0
1523612952603,-1310720,-112,-56,-1,-1,0
1523612952603,-1572864,-112,-56,-1,-1,0
1523612952643,-1900544,-112,-56,-1,-1,0
1523612952643,-2097152,-112,-56,-1,-1,0
1523612952643,-2162688,-112,-56,-1,-1,0
1523612952643,-2162688,-112,-56,-1,-1,0
1523612952643,-2097152,-112,-56,-1,-1,0
1523612952683,-2162688,-112,-56,-1,-1,0
1523612952683,-2162688,-112,-56,-1,-1,0
1523612952683,-2097152,-112,-56,-1,-1,0
1523612952683,-1966080,-112,-56,-1,-1,0
1523612952683,-1900544,-112,-56,-1,-1,0
1523612952723,-1900544,-112,-56,-1,-1,0
1523612952723,-1769472,-112,-56,-1,-1,0
1523612952723,-1835008,-112,-56,-1,-1,0
1523612952723,-1900544,-112,-56,-1,-1,0
1523612952723,-1966080,-112,-56,-1,-1,0
1523612952763,-1966080,-112,-56,-1,-1,0
1523612952763,-1966080,-112,-56,-1,-1,0
1523612952763,-1966080,-112,-56,-1,-1,0
1523612952763,-1900544,-112,-56,-1,-1,0
1523612952763,-1966080,-112,-56,-1,-1,0
1523612952803,-2228224,-112,-56,-1,-1,0
1523612952803,-2883584,-112,-56,-1,-1,0
1523612952803,-2818048,-112,-56,-1,-1,0
1523612952803,-786432,-112,-56,-1,-1,0
1523612952803,2293760,-112,-56,-1,-1,0
1523612952843,3276800,-112,-56,-1,-1,0
1523612952843,655360,-112,-56,-1,-1,0
1523612952843,-2555904,-112,-56,-1,-1,0
1523612952843,-3801088,-112,-56,-1,-1,0
1523612952843,-3670016,-112,-56,-1,-1,0
1523612952883,-3014656,-112,-56,-1,-1,0
1523612952883,-2424832,-112,-56,-1,-1,0
1523612952883,-2097152,-112,-56,-1,-1,0
1523612952883,-1900544,-112,-56,-1,-1,0
1523612952883,-1769472,-112,-56,-1,-1,0
1523612952924,-1638400,-112,-56,-1,-1,0
1523612952924,-1507328,-112,-56,-1,-1,0
1523612952924,-1310720,-112,-56,-1,-1,0
1523612952924,-917504,-112,-56,-1,-1,0
1523612952924,-655360,-112,-56,-1,-1,0
1523612952963,-458752,-112,-56,-1,-1,0
1523612952963,-393216,-112,-56,-1,-1,0
1523612952963,-196608,-112,-56,-1,-1,0
1523612952963,0,-112,-56,-1,-1,0
1523612952963,131072,-112,-56,-1,-1,0
1523612953003,65536,-112,-56,-1,-1,0
1523612953003,0,-112,-56,-1,-1,0
1523612953003,0,-112,-56,-1,-1,0
1523612953003,0,-112,-56,-1,-1,0
1523612953003,-262144,-112,-56,-1,-1,0
1523612953043,-524288,-112,-56,-1,-1,0
1523612953043,-720896,-112,-56,-1,-1,0
1523612953043,-851968,-112,-56,-1,-1,0
1523612953043,-983040,-112,-56,-1,-1,0
1523612953043,-983040,-112,-56,-1,-1,0
1523612953083,-917504,-112,-56,-1,-1,0
1523612953083,-917504,-112,-56,-1,-1,0
1523612953083,-917504,-112,-56,-1,-1,0
1523612953083,-851968,-112,-56,-1,-1,0
1523612953083,-655360,-112,-56,-1,-1,0
1523612953123,-458752,-112,-56,-1,-1,0
1523612953123,-458752,-112,-56,-1,-1,0
1523612953123,-524288,-112,-56,-1,-1,0
1523612953123,-524288,-112,-56,-1,-1,0
1523612953123,-589824,-112,-56,-1,-1,0
1523612953163,-655360,-112,-56,-1,-1,0
1523612953163,-720896,-112,-56,-1,-1,0
1523612953163,-720896,-112,-56,-1,-1,0
1523612953163,-655360,-112,-56,-1,-1,0
1523612953163,-524288,-112,-56,-1,-1,0
1523612953203,-589824,-112,-56,-1,-1,0
1523612953203,-1179648,-112,-56,-1,-1,0
1523612953203,-1835008,-112,-56,-1,-1,0
1523612953203,-917504,-112,-56,-1,-1,0
1523612953203,1835008,-112,-56,-1,-1,0
1523612953243,4653056,-112,-56,-1,-1,0
1523612953243,4063232,-112,-56,-1,-1,0
1523612953243,786432,-112,-56,-1,-1,0
1523612953243,-1769472,-112,-56,-1,-1,0
1523612953243,-2359296,-112,-56,-1,-1,0
1523612953283,-2031616,-112,-56,-1,-1,0
1523612953283,-1310720,-112,-56,-1,-1,0
1523612953283,-589824,-112,-56,-1,-1,0
1523612953283,-262144,-112,-56,-1,-1,0
1523612953283,-131072,-112,-56,-1,-1,0
1523612953323,-196608,-112,-56,-1,-1,0
1523612953323,-196608,-112,-56,-1,-1,0
1523612953323,0,-112,-56,-1,-1,0
1523612953323,131072,-112,-56,-1,-1,0
1523612953323,196608,-112,-56,-1,-1,0
1523612953363,262144,-112,-56,-1,-1,0
1523612953363,524288,-112,-56,-1,-1,0
1523612953363,720896,-112,-56,-1,-1,0
1523612953363,851968,-112,-56,-1,-1,0
1523612953363,720896,-112,-56,-1,-1,0
1523612953403,655360,-112,-56,-1,-1,0
1523612953403,655360,-112,-56,-1,-1,0
1523612953403,655360,-112,-56,-1,-1,0
1523612953403,458752,-112,-56,-1,-1,0
1523612953403,196608,-112,-56,-1,-1,0
1523612953443,65536,-112,-56,-1,-1,0
1523612953443,0,-112,-56,-1,-1,0
1523612953443,-262144,-112,-56,-1,-1,0
1523612953443,-524288,-112,-56,-1,-1,0
1523612953443,-589824,-112,-56,-1,-1,0
1523612953483,-458752,-112,-56,-1,-1,0
1523612953483,-262144,-112,-56,-1,-1,0
1523612953483,-327680,-112,-56,-1,-1,0
1523612953483,-327680,-112,-56,-1,-1,0
1523612953483,-196608,-112,-56,-1,-1,0
1523612953523,0,-112,-56,-1,-1,0
1523612953523,0,-112,-56,-1,-1,0
1523612953523,-65536,-112,-56,-1,-1,0
1523612953523,-65536,-112,-56,-1,-1,0
1523612953523,65536,-112,-56,-1,-1,0
1523612953564,131072,-112,-56,-1,-1,0
1523612953564,0,-112,-56,-1,-1,0
1523612953564,-196608,-112,-56,-1,-1,0
1523612953564,-65536,-112,-56,-1,-1,0
1523612953564,0,-112,-56,-1,-1,0
1523612953603,-131072,-112,-56,-1,-1,0
1523612953603,-327680,-112,-56,-1,-1,0
1523612953603,-851968,-112,-56,-1,-1,0
1523612953603,-1179648,-112,-56,-1,-1,0
1523612953603,-327680,-112,-56,-1,-1,0
1523612953643,2424832,-112,-56,-1,-1,0
1523612953643,5242880,-112,-56,-1,-1,0
1523612953643,4653056,-112,-56,-1,-1,0
1523612953643,1376256,-112,-56,-1,-1,0
1523612953643,-1245184,-112,-56,-1,-1,0
1523612953683,-1769472,-112,-56,-1,-1,0
1523612953683,-1179648,-112,-56,-1,-1,0
1523612953683,-458752,-112,-56,-1,-1,0
1523612953683,-131072,-112,-56,-1,-1,0
1523612953683,-131072,-112,-56,-1,-1,0
1523612953722,0,-112,-56,-1,-1,0
1523612953722,65536,-112,-56,-1,-1,0
1523612953722,262144,-112,-56,-1,-1,0
1523612953722,262144,-112,-56,-1,-1,0
1523612953722,327680,-112,-56,-1,-1,0
1523612953763,458752,-112,-56,-1,-1,0
1523612953763,655360,-112,-56,-1,-1,0
1523612953763,720896,-112,-56,-1,-1,0
1523612953763,720896,-112,-56,-1,-1,0
1523612953763,786432,-112,-56,-1,-1,0
1523612953803,786432,-112,-56,-1,-1,0
1523612953803,720896,-112,-56,-1,-1,0
1523612953803,655360,-112,-56,-1,-1,0
1523612953803,524288,-112,-56,-1,-1,0
1523612953803,458752,-112,-56,-1,-1,0
1523612953843,393216,-112,-56,-1,-1,0
1523612953843,262144,-112,-56,-1,-1,0
1523612953843,131072,-112,-56,-1,-1,0
1523612953843,65536,-112,-56,-1,-1,0
1523612953843,65536,-112,-56,-1,-1,0
1523612953883,0,-112,-56,-1,-1,0
1523612953883,0,-112,-56,-1,-1,0
1523612953883,0,-112,-56,-1,-1,0
1523612953883,0,-112,-56,-1,-1,0
1523612953883,131072,-112,-56,-1,-1,0
1523612953923,327680,-112,-56,-1,-1,0
1523612953923,458752,-112,-56,-1,-1,0
1523612953923,589824,-112,-56,-1,-1,0
1523612953923,655360,-112,-56,-1,-1,0
1523612953923,589824,-112,-56,-1,-1,0
1523612953963,524288,-112,-56,-1,-1,0
1523612953963,458752,-112,-56,-1,-1,0
1523612953963,393216,-112,-56,-1,-1,0
1523612953963,393216,-112,-56,-1,-1,0
1523612953963,327680,-112,-56,-1,-1,0
1523612954003,262144,-112,-56,-1,-1,0
1523612954003,196608,-112,-56,-1,-1,0
1523612954003,131072,-112,-56,-1,-1,0
1523612954003,-196608,-112,-56,-1,-1,0
1523612954003,-720896,-112,-56,-1,-1,0
1523612954043,-262144,-112,-56,-1,-1,0
1523612954043,2031616,-112,-56,-1,-1,0
1523612954043,4587520,-112,-56,-1,-1,0
1523612954043,4128768,-112,-56,-1,-1,0
1523612954043,1245184,-112,-56,-1,-1,0
1523612954083,-983040,-112,-56,-1,-1,0
1523612954083,-1179648,-112,-56,-1,-1,0
1523612954083,-655360,-112,-56,-1,-1,0
1523612954083,0,-112,-56,-1,-1,0
1523612954083,327680,-112,-56,-1,-1,0
1523612954123,524288,-112,-56,-1,-1,0
1523612954123,655360,-112,-56,-1,-1,0
1523612954123,720896,-112,-56,-1,-1,0
1523612954123,851968,-112,-56,-1,-1,0
1523612954123,917504,-112,-56,-1,-1,0
1523612954163,1048576,-112,-56,-1,-1,0
1523612954163,1114112,-112,-56,-1,-1,0
1523612954163,1245184,-112,-56,-1,-1,0
1523612954163,1376256,-112,-56,-1,-1,0
1523612954163,1507328,-112,-56,-1,-1,0
1523612954204,1572864,-112,-56,-1,-1,0
1523612954204,1572864,-112,-56,-1,-1,0
1523612954204,1507328,-112,-56,-1,-1,0
1523612954204,1376256,-112,-56,-1,-1,0
1523612954204,1310720,-112,-56,-1,-1,0
1523612954243,1245184,-112,-56,-1,-1,0
1523612954243,1114112,-112,-56,-1,-1,0
1523612954243,851968,-112,-56,-1,-1,0
1523612954243,589824,-112,-56,-1,-1,0
1523612954243,327680,-112,-56,-1,-1,0
1523612954283,196608,-112,-56,-1,-1,0
1523612954283,65536,-112,-56,-1,-1,0
1523612954283,0,-112,-56,-1,-1,0
1523612954283,0,-112,-56,-1,-1,0
1523612954283,0,-112,-56,-1,-1,0
1523612954323,0,-112,-56,-1,-1,0
1523612954323,0,-112,-56,-1,-1,0
1523612954323,0,-112,-56,-1,-1,0
1523612954323,65536,-112,-56,-1,-1,0
1523612954323,131072,-112,-56,-1,-1,0
1523612954363,131072,-112,-56,-1,-1,0
1523612954363,65536,-112,-56,-1,-1,0
1523612954363,0,-112,-56,-1,-1,0
1523612954363,-131072,-112,-56,-1,-1,0
1523612954363,-196608,-112,-56,-1,-1,0
1523612954403,-196608,-112,-56,-1,-1,0
1523612954403,-262144,-112,-56,-1,-1,0
1523612954403,-262144,-112,-56,-1,-1,0
1523612954403,-393216,-112,-56,-1,-1,0
1523612954403,-851968,-112,-56,-1,-1,0
1523612954443,-1703936,-112,-56,-1,-1,0
1523612954443,-1638400,-112,-56,-1,-1,0
1523612954443,393216,-112,-56,-1,-1,0
1523612954443,3145728,-112,-56,-1,-1,0
1523612954443,3145728,-112,-56,-1,-1,0
1523612954483,327680,-112,-56,-1,-1,0
1523612954483,-2228224,-112,-56,-1,-1,0
1523612954483,-2686976,-112,-56,-1,-1,0
1523612954483,-2293760,-112,-56,-1,-1,0
1523612954483,-1703936,-112,-56,-1,-1,0
1523612954523,-1179648,-112,-56,-1,-1,0
1523612954523,-983040,-112,-56,-1,-1,0
1523612954523,-917504,-112,-56,-1,-1,0
1523612954523,-851968,-112,-56,-1,-1,0
1523612954523,-720896,-112,-56,-1,-1,0
1523612954563,-524288,-112,-56,-1,-1,0
1523612954563,-393216,-112,-56,-1,-1,0
1523612954563,-262144,-112,-56,-1,-1,0
1523612954563,-131072,-112,-56,-1,-1,0
1523612954563,0,-112,-56,-1,-1,0
1523612954603,65536,-112,-56,-1,-1,0
1523612954603,196608,-112,-56,-1,-1,0
1523612954603,262144,-112,-56,-1,-1,0
1523612954603,262144,-112,-56,-1,-1,0
1523612954603,262144,-112,-56,-1,-1,0
1523612954643,262144,-112,-56,-1,-1,0
1523612954643,262144,-112,-56,-1,-1,0
1523612954643,131072,-112,-56,-1,-1,0
1523612954643,0,-112,-56,-1,-1,0
1523612954643,-196608,-112,-56,-1,-1,0
1523612954682,-327680,-112,-56,-1,-1,0
1523612954682,-458752,-112,-56,-1,-1,0
1523612954682,-524288,-112,-56,-1,-1,0
1523612954682,-655360,-112,-56,-1,-1,0
1523612954682,-720896,-112,-56,-1,-1,0
1523612954723,-720896,-112,-56,-1,-1,0
1523612954723,-589824,-112,-56,-1,-1,0
1523612954723,-524288,-112,-56,-1,-1,0
1523612954723,-458752,-112,-56,-1,-1,0
1523612954723,-458752,-112,-56,-1,-1,0
1523612954763,-393216,-112,-56,-1,-1,0
1523612954763,-262144,-112,-56,-1,-1,0
1523612954763,-196608,-112,-56,-1,-1,0
1523612954763,-196608,-112,-56,-1,-1,0
1523612954763,-262144,-112,-56,-1,-1,0
1523612954803,-327680,-112,-56,-1,-1,0
1523612954803,-458752,-112,-56,-1,-1,0
1523612954803,-524288,-112,-56,-1,-1,0
1523612954803,-524288,-112,-56,-1,-1,0
1523612954803,-589824,-112,-56,-1,-1,0
1523612954844,-1179648,-112,-56,-1,-1,0
1523612954844,-1835008,-112,-56,-1,-1,0
1523612954844,-1310720,-112,-56,-1,-1,0
1523612954844,1179648,-112,-56,-1,-1,0
1523612954844,3801088,-112,-56,-1,-1,0
1523612954883,3342336,-112,-56,-1,-1,0
1523612954883,458752,-112,-56,-1,-1,0
1523612954883,-1703936,-112,-56,-1,-1,0
1523612954883,-2097152,-112,-56,-1,-1,0
1523612954883,-1638400,-112,-56,-1,-1,0
1523612954923,-1048576,-112,-56,-1,-1,0
1523612954923,-786432,-112,-56,-1,-1,0
1523612954923,-655360,-112,-56,-1,-1,0
1523612954923,-589824,-112,-56,-1,-1,0
1523612954923,-458752,-112,-56,-1,-1,0
1523612954963,-327680,-112,-56,-1,-1,0
1523612954963,-196608,-112,-56,-1,-1,0
1523612954963,-131072,-112,-56,-1,-1,0
1523612954963,0,-112,-56,-1,-1,0
1523612954963,131072,-112,-56,-1,-1,0
1523612955003,327680,-112,-56,-1,-1,0
1523612955003,458752,-112,-56,-1,-1,0
1523612955003,589824,-112,-56,-1,-1,0
1523612955003,655360,-112,-56,-1,-1,0
1523612955003,655360,-112,-56,-1,-1,0
1523612955043,655360,-112,-56,-1,-1,0
1523612955043,589824,-112,-56,-1,-1,0
1523612955043,524288,-112,-56,-1,-1,0
1523612955043,458752,-112,-56,-1,-1,0
1523612955043,393216,-112,-56,-1,-1,0
1523612955083,262144,-112,-56,-1,-1,0
1523612955083,131072,-112,-56,-1,-1,0
1523612955083,65536,-112,-56,-1,-1,0
1523612955083,0,-112,-56,-1,-1,0
1523612955083,-65536,-112,-56,-1,-1,0
1523612955123,-131072,-112,-56,-1,-1,0
1523612955123,-131072,-112,-56,-1,-1,0
1523612955123,-65536,-112,-56,-1,-1,0
1523612955123,0,-112,-56,-1,-1,0
1523612955123,65536,-112,-56,-1,-1,0
1523612955163,196608,-112,-56,-1,-1,0
1523612955163,327680,-112,-56,-1,-1,0
1523612955163,327680,-112,-56,-1,-1,0
1523612955163,327680,-112,-56,-1,-1,0
1523612955163,327680,-112,-56,-1,-1,0
1523612955203,262144,-112,-56,-1,-1,0
1523612955203,262144,-112,-56,-1,-1,0
1523612955203,262144,-112,-56,-1,-1,0
1523612955203,327680,-112,-56,-1,-1,0
1523612955203,393216,-112,-56,-1,-1,0
1523612955243,131072,-112,-56,-1,-1,0
1523612955243,-458752,-112,-56,-1,-1,0
1523612955243,-589824,-112,-56,-1,-1,0
1523612955243,983040,-112,-56,-1,-1,0
1523612955243,3866624,-112,-56,-1,-1,0
1523612955283,5308416,-112,-56,-1,-1,0
1523612955283,3407872,-112,-56,-1,-1,0
1523612955283,458752,-112,-56,-1,-1,0
1523612955283,-655360,-112,-56,-1,-1,0
1523612955283,-393216,-112,-56,-1,-1,0
1523612955323,131072,-112,-56,-1,-1,0
1523612955323,720896,-112,-56,-1,-1,0
1523612955323,1048576,-112,-56,-1,-1,0
1523612955323,1179648,-112,-56,-1,-1,0
1523612955323,1245184,-112,-56,-1,-1,0
1523612955363,1376256,-111,-56,-1,-1,0
1523612955363,1572864,-111,-56,-1,-1,0
1523612955363,1769472,-111,-56,-1,-1,0
1523612955363,1966080,-111,-56,-1,-1,0
1523612955363,2162688,-111,-56,-1,-1,0
1523612955403,2293760,-111,-56,-1,-1,0
1523612955403,2424832,-111,-56,-1,-1,0
1523612955403,2621440,-111,-56,-1,-1,0
1523612955403,2818048,-111,-56,-1,-1,0
1523612955403,2949120,-111,-56,-1,-1,0
1523612955443,2949120,-111,-56,-1,-1,0
1523612955443,2949120,-111,-56,-1,-1,0
1523612955443,2949120,-111,-56,-1,-1,0
1523612955443,3014656,-111,-56,-1,-1,0
1523612955443,2949120,-111,-56,-1,-1,0
1523612955484,2818048,-111,-56,-1,-1,0
1523612955484,2752512,-111,-56,-1,-1,0
1523612955484,2686976,-111,-56,-1,-1,0
1523612955484,2621440,-111,-56,-1,-1,0
1523612955484,2555904,-111,-56,-1,-1,0
1523612955523,2555904,-111,-56,-1,-1,0
1523612955523,2555904,-111,-56,-1,-1,0
1523612955523,2621440,-111,-56,-1,-1,0
1523612955523,2621440,-111,-56,-1,-1,0
1523612955523,2752512,-111,-56,-1,-1,0
1523612955563,2949120,-111,-56,-1,-1,0
1523612955563,3080192,-111,-56,-1,-1,0
1523612955563,3145728,-111,-56,-1,-1,0
1523612955563,3145728,-111,-56,-1,-1,0
1523612955563,3080192,-111,-56,-1,-1,0
1523612955603,3014656,-111,-56,-1,-1,0
1523612955603,2949120,-111,-56,-1,-1,0
1523612955603,2883584,-111,-56,-1,-1,0
1523612955603,2883584,-111,-56,-1,-1,0
1523612955603,2949120,-111,-56,-1,-1,0
1523612955643,2883584,-111,-56,-1,-1,0
1523612955643,2293760,-111,-56,-1,-1,0
1523612955643,1638400,-111,-56,-1,-1,0
1523612955643,2293760,-111,-56,-1,-1,0
1523612955643,4849664,-111,-56,-1,-1,0
1523612955683,7077888,-111,-56,-1,-1,0
1523612955683,6029312,-111,-56,-1,-1,0
1523612955683,2949120,-111,-56,-1,-1,0
1523612955683,983040,-111,-56,-1,-1,0
1523612955683,917504,-111,-56,-1,-1,0
1523612955723,1441792,-111,-56,-1,-1,0
1523612955723,1966080,-111,-56,-1,-1,0
1523612955723,2293760,-111,-56,-1,-1,0
1523612955723,2424832,-111,-56,-1,-1,0
1523612955723,2490368,-111,-56,-1,-1,0
1523612955763,2555904,-111,-56,-1,-1,0
1523612955763,2621440,-111,-56,-1,-1,0
1523612955763,2686976,-111,-56,-1,-1,0
1523612955763,2818048,-111,-56,-1,-1,0
1523612955763,2883584,-111,-56,-1,-1,0
1523612955803,2949120,-111,-56,-1,-1,0
1523612955803,3080192,-111,-56,-1,-1,0
1523612955803,3211264,-111,-56,-1,-1,0
1523612955803,3276800,-111,-56,-1,-1,0
1523612955803,3342336,-111,-56,-1,-1,0
1523612955843,3342336,-111,-56,-1,-1,0
1523612955843,3342336,-111,-56,-1,-1,0
1523612955843,3276800,-111,-56,-1,-1,0
1523612955843,3014656,-111,-56,-1,-1,0
1523612955843,2752512,-111,-56,-1,-1,0
1523612955883,2424832,-111,-56,-1,-1,0
1523612955883,2162688,-111,-56,-1,-1,0
1523612955883,1900544,-111,-56,-1,-1,0
1523612955883,1638400,-111,-56,-1,-1,0
1523612955883,1441792,-111,-56,-1,-1,0
1523612955923,1310720,-111,-56,-1,-1,0
1523612955923,1245184,-111,-56,-1,-1,0
1523612955923,1179648,-111,-56,-1,-1,0
1523612955923,1048576,-111,-56,-1,-1,0
1523612955923,983040,-111,-56,-1,-1,0
1523612955963,983040,-111,-56,-1,-1,0
1523612955963,983040,-111,-56,-1,-1,0
1523612955963,917504,-111,-56,-1,-1,0
1523612955963,786432,-111,-56,-1,-1,0
1523612955963,655360,-111,-56,-1,-1,0
1523612956004,524288,-111,-56,-1,-1,0
1523612956004,393216,-111,-56,-1,-1,0
1523612956004,262144,-111,-56,-1,-1,0
1523612956004,131072,-111,-56,-1,-1,0
1523612956004,0,-111,-56,-1,-1,0
1523612956043,-65536,-111,-56,-1,-1,0
1523612956043,-458752,-111,-56,-1,-1,0
1523612956043,-1245184,-111,-56,-1,-1,0
1523612956043,-1376256,-111,-56,-1,-1,0
1523612956043,393216,-111,-56,-1,-1,0
1523612956083,3211264,-111,-56,-1,-1,0
1523612956083,3670016,-111,-56,-1,-1,0
1523612956083,917504,-111,-56,-1,-1,0
1523612956083,-1900544,-111,-56,-1,-1,0
1523612956083,-2752512,-111,-56,-1,-1,0
1523612956124,-2293760,-111,-56,-1,-1,0
1523612956124,-1638400,-111,-56,-1,-1,0
1523612956124,-1179648,-111,-56,-1,-1,0
1523612956124,-983040,-111,-56,-1,-1,0
1523612956124,-917504,-111,-56,-1,-1,0
1523612956163,-917504,-111,-56,-1,-1,0
1523612956163,-917504,-111,-56,-1,-1,0
1523612956163,-851968,-111,-56,-1,-1,0
1523612956163,-720896,-111,-56,-1,-1,0
1523612956163,-589824,-111,-56,-1,-1,0
1523612956203,-524288,-111,-56,-1,-1,0
1523612956203,-458752,-111,-56,-1,-1,0
1523612956203,-393216,-111,-56,-1,-1,0
1523612956203,-262144,-111,-56,-1,-1,0
1523612956203,-196608,-111,-56,-1,-1,0
1523612956243,-131072,-111,-56,-1,-1,0
1523612956243,-131072,-111,-56,-1,-1,0
1523612956243,-65536,-111,-56,-1,-1,0
1523612956243,-196608,-111,-56,-1,-1,0
1523612956243,-393216,-111,-56,-1,-1,0
1523612956283,-786432,-111,-56,-1,-1,0
1523612956283,-1179648,-111,-56,-1,-1,0
1523612956283,-1376256,-111,-56,-1,-1,0
1523612956283,-1572864,-111,-56,-1,-1,0
1523612956283,-1769472,-111,-56,-1,-1,0
1523612956323,-1835008,-111,-56,-1,-1,0
1523612956323,-1835008,-111,-56,-1,-1,0
1523612956323,-1835008,-111,-56,-1,-1,0
1523612956323,-1835008,-111,-56,-1,-1,0
1523612956323,-1769472,-111,-56,-1,-1,0
1523612956363,-1703936,-111,-56,-1,-1,0
1523612956363,-1638400,-111,-56,-1,-1,0
1523612956363,-1703936,-111,-56,-1,-1,0
1523612956363,-1835008,-111,-56,-1,-1,0
1523612956363,-1966080,-111,-56,-1,-1,0
1523612956403,-1835008,-111,-56,-1,-1,0
1523612956403,-1835008,-111,-56,-1,-1,0
1523612956403,-1966080,-111,-56,-1,-1,0
1523612956403,-2097152,-111,-56,-1,-1,0
1523612956403,-2097152,-111,-56,-1,-1,0
1523612956444,-2162688,-111,-56,-1,-1,0
1523612956444,-2359296,-111,-56,-1,-1,0
1523612956444,-3080192,-111,-56,-1,-1,0
1523612956444,-3735552,-111,-56,-1,-1,0
1523612956444,-2883584,-111,-56,-1,-1,0
1523612956483,-262144,-111,-56,-1,-1,0
1523612956483,1769472,-111,-56,-1,-1,0
1523612956483,458752,-111,-56,-1,-1,0
1523612956483,-2490368,-111,-56,-1,-1,0
1523612956483,-4259840,-111,-56,-1,-1,0
1523612956523,-4194304,-111,-56,-1,-1,0
1523612956523,-3670016,-111,-56,-1,-1,0
1523612956523,-3145728,-111,-56,-1,-1,0
1523612956523,-2752512,-111,-56,-1,-1,0
1523612956523,-2490368,-111,-56,-1,-1,0
1523612956563,-2424832,-109,-56,-1,-1,0
1523612956563,-2359296,-109,-56,-1,-1,0
1523612956563,-2228224,-109,-56,-1,-1,0
1523612956563,-2097152,-109,-56,-1,-1,0
1523612956563,-1966080,-109,-56,-1,-1,0
1523612956603,-1900544,-109,-56,-1,-1,0
1523612956603,-1638400,-109,-56,-1,-1,0
1523612956603,-1376256,-109,-56,-1,-1,0
1523612956603,-1245184,-109,-56,-1,-1,0
1523612956603,-1245184,-109,-56,-1,-1,0
1523612956643,-1114112,-109,-56,-1,-1,0
1523612956643,-851968,-109,-56,-1,-1,0
1523612956643,-720896,-109,-56,-1,-1,0
1523612956643,-720896,-109,-56,-1,-1,0
1523612956643,-917504,-109,-56,-1,-1,0
1523612956683,-1179648,-109,-56,-1,-1,0
1523612956683,-1245184,-109,-56,-1,-1,0
1523612956683,-1245184,-109,-56,-1,-1,0
1523612956683,-1376256,-109,-56,-1,-1,0
1523612956683,-1507328,-109,-56,-1,-1,0
1523612956723,-1703936,-109,-56,-1,-1,0
1523612956723,-1703936,-109,-56,-1,-1,0
1523612956723,-1638400,-109,-56,-1,-1,0
1523612956723,-1572864,-109,-56,-1,-1,0
1523612956723,-1572864,-109,-56,-1,-1,0
1523612956764,-1507328,-109,-56,-1,-1,0
1523612956764,-1376256,-109,-56,-1,-1,0
1523612956764,-1310720,-109,-56,-1,-1,0
1523612956764,-1179648,-109,-56,-1,-1,0
1523612956764,-1048576,-109,-56,-1,-1,0
1523612956803,-1114112,-109,-56,-1,-1,0
1523612956803,-1245184,-109,-56,-1,-1,0
1523612956803,-1245184,-109,-56,-1,-1,0
1523612956803,-1179648,-109,-56,-1,-1,0
1523612956803,-1048576,-109,-56,-1,-1,0
1523612956843,-1114112,-109,-56,-1,-1,0
1523612956843,-1179648,-109,-56,-1,-1,0
1523612956843,-1769472,-109,-56,-1,-1,0
1523612956843,-2490368,-109,-56,-1,-1,0
1523612956843,-1900544,-109,-56,-1,-1,0
1523612956883,786432,-109,-56,-1,-1,0
1523612956883,3211264,-109,-56,-1,-1,0
1523612956883,2359296,-109,-56,-1,-1,0
1523612956883,-524288,-109,-56,-1,-1,0
1523612956883,-2621440,-109,-56,-1,-1,0
1523612956923,-2883584,-109,-56,-1,-1,0
1523612956923,-2424832,-109,-56,-1,-1,0
1523612956923,-1638400,-109,-56,-1,-1,0
1523612956923,-1114112,-109,-56,-1,-1,0
1523612956923,-983040,-109,-56,-1,-1,0
1523612956963,-917504,-109,-56,-1,-1,0
1523612956963,-851968,-109,-56,-1,-1,0
1523612956963,-655360,-109,-56,-1,-1,0
1523612956963,-458752,-109,-56,-1,-1,0
1523612956963,-262144,-109,-56,-1,-1,0
1523612957003,-327680,-109,-56,-1,-1,0
1523612957003,-327680,-109,-56,-1,-1,0
1523612957003,-196608,-109,-56,-1,-1,0
1523612957003,-131072,-109,-56,-1,-1,0
1523612957003,196608,-109,-56,-1,-1,0
1523612957043,458752,-109,-56,-1,-1,0
1523612957043,131072,-109,-56,-1,-1,0
1523612957043,-196608,-109,-56,-1,-1,0
1523612957043,-65536,-109,-56,-1,-1,0
1523612957043,-65536,-109,-56,-1,-1,0
1523612957083,-262144,-109,-56,-1,-1,0
1523612957083,-393216,-109,-56,-1,-1,0
1523612957083,-458752,-109,-56,-1,-1,0
1523612957083,-655360,-109,-56,-1,-1,0
1523612957083,-917504,-109,-56,-1,-1,0
1523612957123,-983040,-109,-56,-1,-1,0
1523612957123,-917504,-109,-56,-1,-1,0
1523612957123,-1048576,-109,-56,-1,-1,0
1523612957123,-1179648,-109,-56,-1,-1,0
1523612957123,-1048576,-109,-56,-1,-1,0
1523612957163,-786432,-109,-56,-1,-1,0
1523612957163,-720896,-109,-56,-1,-1,0
1523612957163,-655360,-109,-56,-1,-1,0
1523612957163,-458752,-109,-56,-1,-1,0
1523612957163,-393216,-109,-56,-1,-1,0
1523612957203,-589824,-109,-56,-1,-1,0
1523612957203,-589824,-109,-56,-1,-1,0
1523612957203,-393216,-109,-56,-1,-1,0
1523612957203,-327680,-109,-56,-1,-1,0
1523612957203,-524288,-109,-56,-1,-1,0
1523612957243,-720896,-109,-56,-1,-1,0
1523612957243,-786432,-109,-56,-1,-1,0
1523612957243,-1245184,-109,-56,-1,-1,0
1523612957243,-1769472,-109,-56,-1,-1,0
1523612957243,-1048576,-109,-56,-1,-1,0
1523612957283,1507328,-109,-56,-1,-1,0
1523612957283,3801088,-109,-56,-1,-1,0
1523612957283,3014656,-109,-56,-1,-1,0
1523612957283,131072,-109,-56,-1,-1,0
1523612957283,-1900544,-109,-56,-1,-1,0
1523612957323,-2162688,-109,-56,-1,-1,0
1523612957323,-1769472,-109,-56,-1,-1,0
1523612957323,-1245184,-109,-56,-1,-1,0
1523612957323,-983040,-109,-56,-1,-1,0
1523612957323,-983040,-109,-56,-1,-1,0
1523612957363,-720896,-109,-56,-1,-1,0
1523612957363,-524288,-109,-56,-1,-1,0
1523612957363,-393216,-109,-56,-1,-1,0
1523612957363,-327680,-109,-56,-1,-1,0
1523612957363,-196608,-109,-56,-1,-1,0
1523612957404,0,-109,-56,-1,-1,0
1523612957404,131072,-109,-56,-1,-1,0
1523612957404,196608,-109,-56,-1,-1,0
1523612957404,327680,-109,-56,-1,-1,0
1523612957404,458752,-109,-56,-1,-1,0
1523612957443,524288,-109,-56,-1,-1,0
1523612957443,524288,-109,-56,-1,-1,0
1523612957443,524288,-109,-56,-1,-1,0
1523612957443,524288,-109,-56,-1,-1,0
1523612957443,524288,-109,-56,-1,-1,0
1523612957483,524288,-109,-56,-1,-1,0
1523612957483,262144,-109,-56,-1,-1,0
1523612957483,-65536,-109,-56,-1,-1,0
1523612957483,-262144,-109,-56,-1,-1,0
1523612957483,-393216,-109,-56,-1,-1,0
1523612957523,-458752,-109,-56,-1,-1,0
1523612957523,-524288,-109,-56,-1,-1,0
1523612957523,-393216,-109,-56,-1,-1,0
1523612957523,-327680,-109,-56,-1,-1,0
1523612957523,-393216,-109,-56,-1,-1,0
1523612957563,-393216,-109,-56,-1,-1,0
1523612957563,-327680,-109,-56,-1,-1,0
1523612957563,-262144,-109,-56,-1,-1,0
1523612957563,-262144,-109,-56,-1,-1,0
1523612957563,-262144,-109,-56,-1,-1,0
1523612957603,-327680,-109,-56,-1,-1,0
1523612957603,-393216,-109,-56,-1,-1,0
1523612957603,-524288,-109,-56,-1,-1,0
1523612957603,-524288,-109,-56,-1,-1,0
1523612957603,-524288,-109,-56,-1,-1,0
1523612957643,-458752,-109,-56,-1,-1,0
1523612957643,-655360,-109,-56,-1,-1,0
1523612957643,-1310720,-109,-56,-1,-1,0
1523612957643,-1572864,-109,-56,-1,-1,0
1523612957643,-65536,-109,-56,-1,-1,0
1523612957684,2818048,-109,-56,-1,-1,0
1523612957684,4259840,-109,-56,-1,-1,0
1523612957684,2097152,-109,-56,-1,-1,0
1523612957684,-1048576,-109,-56,-1,-1,0
1523612957684,-2424832,-109,-56,-1,-1,0
1523612957722,-2228224,-109,-56,-1,-1,0
1523612957722,-1638400,-109,-56,-1,-1,0
1523612957722,-983040,-109,-56,-1,-1,0
1523612957722,-655360,-109,-56,-1,-1,0
1523612957722,-524288,-109,-56,-1,-1,0
1523612957763,-393216,-109,-56,-1,-1,0
1523612957763,-262144,-109,-56,-1,-1,0
1523612957763,-131072,-109,-56,-1,-1,0
1523612957763,-65536,-109,-56,-1,-1,0
1523612957763,65536,-109,-56,-1,-1,0
1523612957803,327680,-109,-56,-1,-1,0
1523612957803,524288,-109,-56,-1,-1,0
1523612957803,655360,-109,-56,-1,-1,0
1523612957803,917504,-109,-56,-1,-1,0
1523612957803,1114112,-109,-56,-1,-1,0
1523612957843,1179648,-109,-56,-1,-1,0
1523612957843,1114112,-109,-56,-1,-1,0
1523612957843,1114112,-109,-56,-1,-1,0
1523612957843,1048576,-109,-56,-1,-1,0
1523612957843,917504,-109,-56,-1,-1,0
1523612957883,655360,-109,-56,-1,-1,0
1523612957883,327680,-109,-56,-1,-1,0
1523612957883,0,-109,-56,-1,-1,0
1523612957883,-65536,-109,-56,-1,-1,0
1523612957883,-65536,-109,-56,-1,-1,0
1523612957923,-131072,-109,-56,-1,-1,0
1523612957923,-196608,-109,-56,-1,-1,0
1523612957923,-262144,-109,-56,-1,-1,0
1523612957923,-131072,-109,-56,-1,-1,0
1523612957923,0,-109,-56,-1,-1,0
1523612957963,65536,-109,-56,-1,-1,0
1523612957963,65536,-109,-56,-1,-1,0
1523612957963,196608,-109,-56,-1,-1,0
1523612957963,131072,-109,-56,-1,-1,0
1523612957963,0,-109,-56,-1,-1,0
1523612958003,-65536,-109,-56,-1,-1,0
1523612958003,-65536,-109,-56,-1,-1,0
1523612958003,-131072,-109,-56,-1,-1,0
1523612958003,-262144,-109,-56,-1,-1,0
1523612958003,-393216,-109,-56,-1,-1,0
1523612958044,-393216,-109,-56,-1,-1,0
1523612958044,-786432,-109,-56,-1,-1,0
1523612958044,-1507328,-109,-56,-1,-1,0
1523612958044,-1441792,-109,-56,-1,-1,0
1523612958044,720896,-109,-56,-1,-1,0
1523612958083,3735552,-109,-56,-1,-1,0
1523612958083,4194304,-109,-56,-1,-1,0
1523612958083,1441792,-109,-56,-1,-1,0
1523612958083,-1376256,-109,-56,-1,-1,0
1523612958083,-2293760,-109,-56,-1,-1,0
1523612958123,-1966080,-109,-56,-1,-1,0
1523612958123,-1376256,-109,-56,-1,-1,0
1523612958123,-786432,-109,-56,-1,-1,0
1523612958123,-458752,-109,-56,-1,-1,0
1523612958123,-327680,-109,-56,-1,-1,0
1523612958163,-196608,-108,-56,-1,-1,0
1523612958163,-131072,-108,-56,-1,-1,0
1523612958163,0,-108,-56,-1,-1,0
1523612958163,65536,-108,-56,-1,-1,0
1523612958163,262144,-108,-56,-1,-1,0
1523612958203,393216,-108,-56,-1,-1,0
1523612958203,655360,-108,-56,-1,-1,0
1523612958203,851968,-108,-56,-1,-1,0
1523612958203,1048576,-108,-56,-1,-1,0
1523612958203,1114112,-108,-56,-1,-1,0
1523612958243,1114112,-108,-56,-1,-1,0
1523612958243,983040,-108,-56,-1,-1,0
1523612958243,917504,-108,-56,-1,-1,0
1523612958243,851968,-108,-56,-1,-1,0
1523612958243,720896,-108,-56,-1,-1,0
1523612958283,524288,-108,-56,-1,-1,0
1523612958283,196608,-108,-56,-1,-1,0
1523612958283,0,-108,-56,-1,-1,0
1523612958283,-196608,-108,-56,-1,-1,0
1523612958283,-262144,-108,-56,-1,-1,0
1523612958323,-327680,-108,-56,-1,-1,0
1523612958323,-393216,-108,-56,-1,-1,0
1523612958323,-393216,-108,-56,-1,-1,0
1523612958323,-327680,-108,-56,-1,-1,0
1523612958323,-262144,-108,-56,-1,-1,0
1523612958363,-131072,-108,-56,-1,-1,0
1523612958363,0,-108,-56,-1,-1,0
1523612958363,0,-108,-56,-1,-1,0
1523612958363,0,-108,-56,-1,-1,0
1523612958363,-65536,-108,-56,-1,-1,0
1523612958403,-131072,-108,-56,-1,-1,0
1523612958403,-196608,-108,-56,-1,-1,0
1523612958403,-262144,-108,-56,-1,-1,0
1523612958403,-327680,-108,-56,-1,-1,0
1523612958403,-327680,-108,-56,-1,-1,0
1523612958443,-458752,-108,-56,-1,-1,0
1523612958443,-1114112,-108,-56,-1,-1,0
1523612958443,-1703936,-108,-56,-1,-1,0
1523612958443,-917504,-108,-56,-1,-1,0
1523612958443,1966080,-108,-56,-1,-1,0
1523612958483,4784128,-108,-56,-1,-1,0
1523612958483,4194304,-108,-56,-1,-1,0
1523612958483,983040,-108,-56,-1,-1,0
1523612958483,-1441792,-108,-56,-1,-1,0
1523612958483,-1966080,-108,-56,-1,-1,0
1523612958523,-1703936,-108,-56,-1,-1,0
1523612958523,-1179648,-108,-56,-1,-1,0
1523612958523,-851968,-108,-56,-1,-1,0
1523612958523,-786432,-108,-56,-1,-1,0
1523612958523,-720896,-108,-56,-1,-1,0
1523612958563,-720896,-108,-56,-1,-1,0
1523612958563,-589824,-108,-56,-1,-1,0
1523612958563,-393216,-108,-56,-1,-1,0
1523612958563,-262144,-108,-56,-1,-1,0
1523612958563,-131072,-108,-56,-1,-1,0
1523612958603,0,-108,-56,-1,-1,0
1523612958603,196608,-108,-56,-1,-1,0
1523612958603,458752,-108,-56,-1,-1,0
1523612958603,524288,-108,-56,-1,-1,0
1523612958603,524288,-108,-56,-1,-1,0
1523612958643,458752,-108,-56,-1,-1,0
1523612958643,458752,-108,-56,-1,-1,0
1523612958643,327680,-108,-56,-1,-1,0
1523612958643,196608,-108,-56,-1,-1,0
1523612958643,65536,-108,-56,-1,-1,0
1523612958684,0,-108,-56,-1,-1,0
1523612958684,-262144,-108,-56,-1,-1,0
1523612958684,-458752,-108,-56,-1,-1,0
1523612958684,-655360,-108,-56,-1,-1,0
1523612958684,-655360,-108,-56,-1,-1,0
1523612958723,-655360,-108,-56,-1,-1,0
1523612958723,-720896,-108,-56,-1,-1,0
1523612958723,-720896,-108,-56,-1,-1,0
1523612958723,-589824,-108,-56,-1,-1,0
1523612958723,-524288,-108,-56,-1,-1,0
1523612958763,-393216,-108,-56,-1,-1,0
1523612958763,-327680,-108,-56,-1,-1,0
1523612958763,-327680,-108,-56,-1,-1,0
1523612958763,-262144,-108,-56,-1,-1,0
1523612958763,-327680,-108,-56,-1,-1,0
1523612958803,-393216,-108,-56,-1,-1,0
1523612958803,-458752,-108,-56,-1,-1,0
1523612958803,-524288,-108,-56,-1,-1,0
1523612958803,-524288,-108,-56,-1,-1,0
1523612958803,-524288,-108,-56,-1,-1,0
1523612958843,-589824,-108,-56,-1,-1,0
1523612958843,-1245184,-108,-56,-1,-1,0
1523612958843,-1572864,-108,-56,-1,-1,0
1523612958843,-262144,-108,-56,-1,-1,0
1523612958843,2752512,-108,-56,-1,-1,0
1523612958883,4980736,-108,-56,-1,-1,0
1523612958883,3473408,-108,-56,-1,-1,0
1523612958883,65536,-108,-56,-1,-1,0
1523612958883,-1966080,-108,-56,-1,-1,0
1523612958883,-2097152,-108,-56,-1,-1,0
1523612958923,-1638400,-108,-56,-1,-1,0
1523612958923,-1114112,-108,-56,-1,-1,0
1523612958923,-917504,-108,-56,-1,-1,0
1523612958923,-851968,-108,-56,-1,-1,0
1523612958923,-720896,-108,-56,-1,-1,0
1523612958963,-589824,-108,-56,-1,-1,0
1523612958963,-458752,-108,-56,-1,-1,0
1523612958963,-327680,-108,-56,-1,-1,0
1523612958963,-262144,-108,-56,-1,-1,0
1523612958963,-196608,-108,-56,-1,-1,0
1523612959003,0,-108,-56,-1,-1,0
1523612959003,131072,-108,-56,-1,-1,0
1523612959003,262144,-108,-56,-1,-1,0
1523612959003,393216,-108,-56,-1,-1,0
1523612959003,458752,-108,-56,-1,-1,0
1523612959043,458752,-108,-56,-1,-1,0
1523612959043,393216,-108,-56,-1,-1,0
1523612959043,196608,-108,-56,-1,-1,0
1523612959043,131072,-108,-56,-1,-1,0
1523612959043,0,-108,-56,-1,-1,0
1523612959083,0,-108,-56,-1,-1,0
1523612959083,-196608,-108,-56,-1,-1,0
1523612959083,-393216,-108,-56,-1,-1,0
1523612959083,-458752,-108,-56,-1,-1,0
1523612959083,-458752,-108,-56,-1,-1,0
1523612959123,-393216,-108,-56,-1,-1,0
1523612959123,-393216,-108,-56,-1,-1,0
1523612959123,-393216,-108,-56,-1,-1,0
1523612959123,-393216,-108,-56,-1,-1,0
1523612959123,-262144,-108,-56,-1,-1,0
1523612959164,-65536,-108,-56,-1,-1,0
1523612959164,0,-108,-56,-1,-1,0
1523612959164,0,-108,-56,-1,-1,0
1523612959164,-65536,-108,-56,-1,-1,0
1523612959164,-65536,-108,-56,-1,-1,0
1523612959203,-196608,-108,-56,-1,-1,0
1523612959203,-262144,-108,-56,-1,-1,0
1523612959203,-262144,-108,-56,-1,-1,0
1523612959203,-131072,-108,-56,-1,-1,0
1523612959203,-131072,-108,-56,-1,-1,0
1523612959243,-262144,-108,-56,-1,-1,0
1523612959243,-983040,-108,-56,-1,-1,0
1523612959243,-1310720,-108,-56,-1,-1,0
1523612959243,131072,-108,-56,-1,-1,0
1523612959243,3342336,-108,-56,-1,-1,0
1523612959283,5177344,-108,-56,-1,-1,0
1523612959283,3145728,-108,-56,-1,-1,0
1523612959283,-196608,-108,-56,-1,-1,0
1523612959283,-2097152,-108,-56,-1,-1,0
1523612959283,-2031616,-108,-56,-1,-1,0
1523612959324,-1376256,-108,-56,-1,-1,0
1523612959324,-655360,-108,-56,-1,-1,0
1523612959324,-327680,-108,-56,-1,-1,0
1523612959324,-262144,-108,-56,-1,-1,0
1523612959324,-458752,-108,-56,-1,-1,0
1523612959363,-327680,-108,-56,-1,-1,0
1523612959363,-65536,-108,-56,-1,-1,0
1523612959363,65536,-108,-56,-1,-1,0
1523612959363,131072,-108,-56,-1,-1,0
1523612959363,196608,-108,-56,-1,-1,0
1523612959403,393216,-108,-56,-1,-1,0
1523612959403,655360,-108,-56,-1,-1,0
1523612959403,786432,-108,-56,-1,-1,0
1523612959403,720896,-108,-56,-1,-1,0
1523612959403,1048576,-108,-56,-1,-1,0
1523612959443,1376256,-108,-56,-1,-1,0
1523612959443,1179648,-108,-56,-1,-1,0
1523612959443,655360,-108,-56,-1,-1,0
1523612959443,655360,-108,-56,-1,-1,0
1523612959443,524288,-108,-56,-1,-1,0
1523612959483,262144,-108,-56,-1,-1,0
1523612959483,65536,-108,-56,-1,-1,0
1523612959483,65536,-108,-56,-1,-1,0
1523612959483,196608,-108,-56,-1,-1,0
1523612959483,196608,-108,-56,-1,-1,0
1523612959523,0,-108,-56,-1,-1,0
1523612959523,-65536,-108,-56,-1,-1,0
1523612959523,-65536,-108,-56,-1,-1,0
1523612959523,0,-108,-56,-1,-1,0
1523612959523,0,-108,-56,-1,-1,0
1523612959563,131072,-108,-56,-1,-1,0
1523612959563,262144,-108,-56,-1,-1,0
1523612959563,393216,-108,-56,-1,-1,0
1523612959563,196608,-108,-56,-1,-1,0
1523612959563,131072,-108,-56,-1,-1,0
1523612959603,131072,-108,-56,-1,-1,0
1523612959603,131072,-108,-56,-1,-1,0
1523612959603,0,-108,-56,-1,-1,0
1523612959603,-65536,-108,-56,-1,-1,0
1523612959603,0,-108,-56,-1,-1,0
1523612959644,0,-108,-56,-1,-1,0
1523612959644,-589824,-108,-56,-1,-1,0
1523612959644,-917504,-108,-56,-1,-1,0
1523612959644,-65536,-108,-56,-1,-1,0
1523612959644,2686976,-108,-56,-1,-1,0
1523612959683,4980736,-108,-56,-1,-1,0
1523612959683,4063232,-108,-56,-1,-1,0
1523612959683,1048576,-108,-56,-1,-1,0
1523612959683,-917504,-108,-56,-1,-1,0
1523612959683,-1376256,-108,-56,-1,-1,0
1523612959724,-1179648,-108,-56,-1,-1,0
1523612959724,-589824,-108,-56,-1,-1,0
1523612959724,-196608,-108,-56,-1,-1,0
1523612959724,-196608,-108,-56,-1,-1,0
1523612959724,-196608,-108,-56,-1,-1,0
1523612959763,-131072,-108,-56,-1,-1,0
1523612959763,0,-108,-56,-1,-1,0
1523612959763,196608,-108,-56,-1,-1,0
1523612959763,327680,-108,-56,-1,-1,0
1523612959763,393216,-108,-56,-1,-1,0
1523612959803,589824,-108,-56,-1,-1,0
1523612959803,720896,-108,-56,-1,-1,0
1523612959803,851968,-108,-56,-1,-1,0
1523612959803,917504,-108,-56,-1,-1,0
1523612959803,1048576,-108,-56,-1,-1,0
1523612959843,1179648,-108,-56,-1,-1,0
1523612959843,1376256,-108,-56,-1,-1,0
1523612959843,1441792,-108,-56,-1,-1,0
1523612959843,1179648,-108,-56,-1,-1,0
1523612959843,983040,-108,-56,-1,-1,0
1523612959884,917504,-108,-56,-1,-1,0
1523612959884,983040,-108,-56,-1,-1,0
1523612959884,720896,-108,-56,-1,-1,0
1523612959884,458752,-108,-56,-1,-1,0
1523612959884,393216,-108,-56,-1,-1,0
1523612959924,393216,-108,-56,-1,-1,0
1523612959924,458752,-108,-56,-1,-1,0
1523612959924,524288,-108,-56,-1,-1,0
1523612959924,589824,-108,-56,-1,-1,0
1523612959924,589824,-108,-56,-1,-1,0
1523612959965,720896,-108,-56,-1,-1,0
1523612959965,851968,-108,-56,-1,-1,0
1523612959965,917504,-108,-56,-1,-1,0
1523612959965,917504,-108,-56,-1,-1,0
1523612959965,851968,-108,-56,-1,-1,0
1523612960003,851968,-108,-56,-1,-1,0
1523612960003,786432,-108,-56,-1,-1,0
1523612960003,786432,-108,-56,-1,-1,0
1523612960003,720896,-108,-56,-1,-1,0
1523612960003,720896,-108,-56,-1,-1,0
1523612960043,589824,-108,-56,-1,-1,0
1523612960043,327680,-108,-56,-1,-1,0
1523612960043,0,-108,-56,-1,-1,0
1523612960043,0,-108,-56,-1,-1,0
1523612960043,1179648,-108,-56,-1,-1,0
1523612960083,3801088,-108,-56,-1,-1,0
1523612960083,5570560,-108,-56,-1,-1,0
1523612960083,4456448,-108,-56,-1,-1,0
1523612960083,1703936,-108,-56,-1,-1,0
1523612960083,-65536,-108,-56,-1,-1,0
1523612960123,-458752,-108,-56,-1,-1,0
1523612960123,-65536,-108,-56,-1,-1,0
1523612960123,262144,-108,-56,-1,-1,0
1523612960123,327680,-108,-56,-1,-1,0
1523612960123,327680,-108,-56,-1,-1,0
1523612960163,327680,-108,-56,-1,-1,0
1523612960163,262144,-108,-56,-1,-1,0
1523612960163,327680,-108,-56,-1,-1,0
1523612960163,393216,-108,-56,-1,-1,0
1523612960163,458752,-108,-56,-1,-1,0
1523612960203,524288,-108,-56,-1,-1,0
1523612960203,589824,-108,-56,-1,-1,0
1523612960203,655360,-108,-56,-1,-1,0
1523612960203,786432,-108,-56,-1,-1,0
1523612960203,851968,-108,-56,-1,-1,0
1523612960243,851968,-108,-56,-1,-1,0
1523612960243,851968,-108,-56,-1,-1,0
1523612960243,851968,-108,-56,-1,-1,0
1523612960243,786432,-108,-56,-1,-1,0
1523612960243,720896,-108,-56,-1,-1,0
1523612960283,720896,-108,-56,-1,-1,0
1523612960283,655360,-108,-56,-1,-1,0
1523612960283,524288,-108,-56,-1,-1,0
1523612960283,393216,-108,-56,-1,-1,0
1523612960283,327680,-108,-56,-1,-1,0
1523612960323,393216,-108,-56,-1,-1,0
1523612960323,393216,-108,-56,-1,-1,0
1523612960323,262144,-108,-56,-1,-1,0
1523612960323,131072,-108,-56,-1,-1,0
1523612960323,65536,-108,-56,-1,-1,0
1523612960363,65536,-108,-56,-1,-1,0
1523612960363,196608,-108,-56,-1,-1,0
1523612960363,262144,-108,-56,-1,-1,0
1523612960363,393216,-108,-56,-1,-1,0
1523612960363,393216,-108,-56,-1,-1,0
1523612960403,262144,-108,-56,-1,-1,0
1523612960403,262144,-108,-56,-1,-1,0
1523612960403,196608,-108,-56,-1,-1,0
1523612960403,65536,-108,-56,-1,-1,0
1523612960403,0,-108,-56,-1,-1,0
1523612960443,0,-108,-56,-1,-1,0
1523612960443,0,-108,-56,-1,-1,0
1523612960443,-65536,-108,-56,-1,-1,0
1523612960443,-524288,-108,-56,-1,-1,0
1523612960443,-983040,-108,-56,-1,-1,0
1523612960483,-393216,-108,-56,-1,-1,0
1523612960483,2097152,-108,-56,-1,-1,0
1523612960483,4653056,-108,-56,-1,-1,0
1523612960483,4128768,-108,-56,-1,-1,0
1523612960483,917504,-108,-56,-1,-1,0
1523612960523,-1572864,-108,-56,-1,-1,0
1523612960523,-2031616,-108,-56,-1,-1,0
1523612960523,-1638400,-108,-56,-1,-1,0
1523612960523,-983040,-108,-56,-1,-1,0
1523612960523,-458752,-108,-56,-1,-1,0
1523612960563,-196608,-108,-56,-1,-1,0
1523612960563,-131072,-108,-56,-1,-1,0
1523612960563,-65536,-108,-56,-1,-1,0
1523612960563,-65536,-108,-56,-1,-1,0
1523612960563,0,-108,-56,-1,-1,0
1523612960604,65536,-108,-56,-1,-1,0
1523612960604,196608,-108,-56,-1,-1,0
1523612960604,327680,-108,-56,-1,-1,0
1523612960604,524288,-108,-56,-1,-1,0
1523612960604,655360,-108,-56,-1,-1,0
1523612960643,786432,-108,-56,-1,-1,0
1523612960643,851968,-108,-56,-1,-1,0
1523612960643,786432,-108,-56,-1,-1,0
1523612960643,720896,-108,-56,-1,-1,0
1523612960643,655360,-108,-56,-1,-1,0
1523612960683,655360,-108,-56,-1,-1,0
1523612960683,524288,-108,-56,-1,-1,0
1523612960683,327680,-108,-56,-1,-1,0
1523612960683,0,-108,-56,-1,-1,0
1523612960683,-196608,-108,-56,-1,-1,0
1523612960723,-327680,-108,-56,-1,-1,0
1523612960723,-327680,-108,-56,-1,-1,0
1523612960723,-393216,-108,-56,-1,-1,0
1523612960723,-524288,-108,-56,-1,-1,0
1523612960723,-524288,-108,-56,-1,-1,0
1523612960763,-458752,-108,-56,-1,-1,0
1523612960763,-458752,-108,-56,-1,-1,0
1523612960763,-393216,-108,-56,-1,-1,0
1523612960763,-327680,-108,-56,-1,-1,0
1523612960763,-262144,-108,-56,-1,-1,0
1523612960803,-262144,-108,-56,-1,-1,0
1523612960803,-327680,-108,-56,-1,-1,0
1523612960803,-393216,-108,-56,-1,-1,0
1523612960803,-393216,-108,-56,-1,-1,0
1523612960803,-393216,-108,-56,-1,-1,0
1523612960843,-393216,-108,-56,-1,-1,0
1523612960843,-458752,-108,-56,-1,-1,0
1523612960843,-524288,-108,-56,-1,-1,0
1523612960843,-458752,-108,-56,-1,-1,0
1523612960843,-524288,-108,-56,-1,-1,0
1523612960883,-1179648,-108,-56,-1,-1,0
1523612960883,-1703936,-108,-56,-1,-1,0
1523612960883,-720896,-108,-56,-1,-1,0
1523612960883,2031616,-108,-56,-1,-1,0
1523612960883,4194304,-108,-56,-1,-1,0
1523612960923,2686976,-108,-56,-1,-1,0
1523612960923,-524288,-108,-56,-1,-1,0
1523612960923,-2424832,-108,-56,-1,-1,0
1523612960923,-2490368,-108,-56,-1,-1,0
1523612960923,-1966080,-108,-56,-1,-1,0
1523612960964,-1310720,-108,-56,-1,-1,0
1523612960964,-851968,-108,-56,-1,-1,0
1523612960964,-655360,-108,-56,-1,-1,0
1523612960964,-524288,-108,-56,-1,-1,0
1523612960964,-458752,-108,-56,-1,-1,0
1523612961003,-393216,-108,-56,-1,-1,0
1523612961003,-327680,-108,-56,-1,-1,0
1523612961003,-262144,-108,-56,-1,-1,0
1523612961003,-196608,-108,-56,-1,-1,0
1523612961003,-131072,-108,-56,-1,-1,0
1523612961043,0,-108,-56,-1,-1,0
1523612961043,262144,-108,-56,-1,-1,0
1523612961043,458752,-108,-56,-1,-1,0
1523612961043,589824,-108,-56,-1,-1,0
1523612961043,589824,-108,-56,-1,-1,0
1523612961083,524288,-108,-56,-1,-1,0
1523612961083,393216,-108,-56,-1,-1,0
1523612961083,327680,-108,-56,-1,-1,0
1523612961083,131072,-108,-56,-1,-1,0
1523612961083,-131072,-108,-56,-1,-1,0
1523612961124,-393216,-108,-56,-1,-1,0
1523612961124,-589824,-108,-56,-1,-1,0
1523612961124,-786432,-108,-56,-1,-1,0
1523612961124,-851968,-108,-56,-1,-1,0
1523612961124,-851968,-108,-56,-1,-1,0
1523612961163,-786432,-108,-56,-1,-1,0
1523612961163,-851968,-108,-56,-1,-1,0
1523612961163,-983040,-108,-56,-1,-1,0
1523612961163,-1048576,-108,-56,-1,-1,0
1523612961163,-917504,-108,-56,-1,-1,0
1523612961203,-851968,-108,-56,-1,-1,0
1523612961203,-786432,-108,-56,-1,-1,0
1523612961203,-786432,-108,-56,-1,-1,0
1523612961203,-851968,-108,-56,-1,-1,0
1523612961203,-917504,-108,-56,-1,-1,0
1523612961244,-983040,-108,-56,-1,-1,0
1523612961244,-983040,-108,-56,-1,-1,0
1523612961244,-1048576,-108,-56,-1,-1,0
1523612961244,-1048576,-108,-56,-1,-1,0
1523612961244,-1114112,-108,-56,-1,-1,0
1523612961283,-1114112,-108,-56,-1,-1,0
1523612961283,-1441792,-108,-56,-1,-1,0
1523612961283,-2228224,-108,-56,-1,-1,0
1523612961283,-2162688,-108,-56,-1,-1,0
1523612961283,-65536,-108,-56,-1,-1,0
1523612961322,2818048,-108,-56,-1,-1,0
1523612961322,3407872,-108,-56,-1,-1,0
1523612961322,786432,-108,-56,-1,-1,0
1523612961322,-1966080,-108,-56,-1,-1,0
1523612961322,-2818048,-108,-56,-1,-1,0
1523612961363,-2424832,-108,-56,-1,-1,0
1523612961363,-1835008,-108,-56,-1,-1,0
1523612961363,-1310720,-108,-56,-1,-1,0
1523612961363,-983040,-108,-56,-1,-1,0
1523612961363,-851968,-108,-56,-1,-1,0
1523612961403,-786432,-108,-56,-1,-1,0
1523612961403,-720896,-108,-56,-1,-1,0
1523612961403,-589824,-108,-56,-1,-1,0
1523612961403,-393216,-108,-56,-1,-1,0
1523612961403,-196608,-108,-56,-1,-1,0
1523612961443,-65536,-108,-56,-1,-1,0
1523612961443,131072,-108,-56,-1,-1,0
1523612961443,327680,-108,-56,-1,-1,0
1523612961443,524288,-108,-56,-1,-1,0
1523612961443,589824,-108,-56,-1,-1,0
1523612961483,589824,-108,-56,-1,-1,0
1523612961483,524288,-108,-56,-1,-1,0
1523612961483,524288,-108,-56,-1,-1,0
1523612961483,458752,-108,-56,-1,-1,0
1523612961483,393216,-108,-56,-1,-1,0
1523612961523,196608,-108,-56,-1,-1,0
1523612961523,0,-108,-56,-1,-1,0
1523612961523,-327680,-108,-56,-1,-1,0
1523612961523,-524288,-108,-56,-1,-1,0
1523612961523,-655360,-108,-56,-1,-1,0
1523612961563,-720896,-108,-56,-1,-1,0
1523612961563,-720896,-108,-56,-1,-1,0
1523612961563,-720896,-108,-56,-1,-1,0
1523612961563,-786432,-108,-56,-1,-1,0
1523612961563,-786432,-108,-56,-1,-1,0
1523612961604,-786432,-108,-56,-1,-1,0
1523612961604,-655360,-108,-56,-1,-1,0
1523612961604,-524288,-108,-56,-1,-1,0
1523612961604,-458752,-108,-56,-1,-1,0
1523612961604,-524288,-108,-56,-1,-1,0
1523612961643,-589824,-108,-56,-1,-1,0
1523612961643,-720896,-108,-56,-1,-1,0
1523612961643,-786432,-108,-56,-1,-1,0
1523612961643,-786432,-108,-56,-1,-1,0
1523612961643,-786432,-108,-56,-1,-1,0
1523612961683,-786432,-108,-56,-1,-1,0
1523612961683,-851968,-108,-56,-1,-1,0
1523612961683,-1048576,-108,-56,-1,-1,0
1523612961683,-1769472,-108,-56,-1,-1,0
1523612961683,-2097152,-108,-56,-1,-1,0
1523612961721,-720896,-108,-56,-1,-1,0
1523612961721,2359296,-108,-56,-1,-1,0
1523612961721,4325376,-108,-56,-1,-1,0
1523612961721,2818048,-108,-56,-1,-1,0
1523612961721,-327680,-108,-56,-1,-1,0
1523612961763,-2162688,-108,-56,-1,-1,0
1523612961763,-2228224,-108,-56,-1,-1,0
1523612961763,-1769472,-108,-56,-1,-1,0
1523612961763,-1310720,-108,-56,-1,-1,0
1523612961763,-1048576,-108,-56,-1,-1,0
1523612961801,-983040,-108,-56,-1,-1,0
1523612961801,-917504,-108,-56,-1,-1,0
1523612961801,-851968,-108,-56,-1,-1,0
1523612961801,-720896,-108,-56,-1,-1,0
1523612961801,-655360,-108,-56,-1,-1,0
1523612961843,-524288,-108,-56,-1,-1,0
1523612961843,-458752,-108,-56,-1,-1,0
1523612961843,-327680,-108,-56,-1,-1,0
1523612961843,-131072,-108,-56,-1,-1,0
1523612961843,0,-108,-56,-1,-1,0
1523612961884,65536,-108,-56,-1,-1,0
1523612961884,65536,-108,-56,-1,-1,0
1523612961884,0,-108,-56,-1,-1,0
1523612961884,-65536,-108,-56,-1,-1,0
1523612961884,-65536,-108,-56,-1,-1,0
1523612961923,-131072,-108,-56,-1,-1,0
1523612961923,-196608,-108,-56,-1,-1,0
1523612961923,-393216,-108,-56,-1,-1,0
1523612961923,-589824,-108,-56,-1,-1,0
1523612961923,-786432,-108,-56,-1,-1,0
1523612961961,-917504,-108,-56,-1,-1,0
1523612961961,-983040,-108,-56,-1,-1,0
1523612961961,-983040,-108,-56,-1,-1,0
1523612961961,-917504,-108,-56,-1,-1,0
1523612961961,-983040,-108,-56,-1,-1,0
1523612962003,-1048576,-108,-56,-1,-1,0
1523612962003,-1048576,-108,-56,-1,-1,0
1523612962003,-917504,-108,-56,-1,-1,0
1523612962003,-851968,-108,-56,-1,-1,0
1523612962003,-786432,-108,-56,-1,-1,0
1523612962041,-720896,-108,-56,-1,-1,0
1523612962041,-720896,-108,-56,-1,-1,0
1523612962041,-786432,-108,-56,-1,-1,0
1523612962041,-851968,-108,-56,-1,-1,0
1523612962041,-851968,-108,-56,-1,-1,0
1523612962083,-786432,-108,-56,-1,-1,0
1523612962083,-851968,-108,-56,-1,-1,0
1523612962083,-851968,-108,-56,-1,-1,0
1523612962083,-917504,-108,-56,-1,-1,0
1523612962083,-1376256,-108,-56,-1,-1,0
1523612962121,-1966080,-108,-56,-1,-1,0
1523612962121,-1572864,-108,-56,-1,-1,0
1523612962121,851968,-108,-56,-1,-1,0
1523612962121,3932160,-108,-56,-1,-1,0
1523612962121,4063232,-108,-56,-1,-1,0
1523612962163,1048576,-108,-56,-1,-1,0
1523612962163,-1769472,-108,-56,-1,-1,0
1523612962163,-2490368,-108,-56,-1,-1,0
1523612962163,-2228224,-108,-56,-1,-1,0
1523612962163,-1572864,-108,-56,-1,-1,0
1523612962201,-1048576,-108,-56,-1,-1,0
1523612962201,-851968,-108,-56,-1,-1,0
1523612962201,-786432,-108,-56,-1,-1,0
1523612962201,-720896,-108,-56,-1,-1,0
1523612962201,-655360,-108,-56,-1,-1,0
1523612962243,-458752,-108,-56,-1,-1,0
1523612962243,-327680,-108,-56,-1,-1,0
1523612962243,-196608,-108,-56,-1,-1,0
1523612962243,0,-108,-56,-1,-1,0
1523612962243,65536,-108,-56,-1,-1,0
1523612962281,196608,-108,-56,-1,-1,0
1523612962281,327680,-108,-56,-1,-1,0
1523612962281,393216,-108,-56,-1,-1,0
1523612962281,393216,-108,-56,-1,-1,0
1523612962281,327680,-108,-56,-1,-1,0
1523612962323,196608,-108,-56,-1,-1,0
1523612962323,131072,-108,-56,-1,-1,0
1523612962323,131072,-108,-56,-1,-1,0
1523612962323,0,-108,-56,-1,-1,0
1523612962323,-196608,-108,-56,-1,-1,0
1523612962361,-458752,-108,-56,-1,-1,0
1523612962361,-655360,-108,-56,-1,-1,0
1523612962361,-720896,-108,-56,-1,-1,0
1523612962361,-655360,-108,-56,-1,-1,0
1523612962361,-589824,-108,-56,-1,-1,0
1523612962401,-589824,-108,-56,-1,-1,0
1523612962401,-589824,-108,-56,-1,-1,0
1523612962401,-655360,-108,-56,-1,-1,0
1523612962401,-589824,-108,-56,-1,-1,0
1523612962401,-393216,-108,-56,-1,-1,0
1523612962441,-262144,-108,-56,-1,-1,0
1523612962441,-131072,-108,-56,-1,-1,0
1523612962441,-131072,-108,-56,-1,-1,0
1523612962441,-196608,-108,-56,-1,-1,0
1523612962441,-262144,-108,-56,-1,-1,0
1523612962484,-262144,-108,-56,-1,-1,0
1523612962484,-327680,-108,-56,-1,-1,0
1523612962484,-262144,-108,-56,-1,-1,0
1523612962484,-196608,-108,-56,-1,-1,0
1523612962484,-196608,-108,-56,-1,-1,0
1523612962525,-393216,-108,-56,-1,-1,0
1523612962525,-1114112,-108,-56,-1,-1,0
1523612962525,-1310720,-108,-56,-1,-1,0
1523612962525,458752,-108,-56,-1,-1,0
1523612962525,3735552,-108,-56,-1,-1,0
1523612962563,5242880,-108,-56,-1,-1,0
1523612962563,2949120,-108,-56,-1,-1,0
1523612962563,-393216,-108,-56,-1,-1,0
1523612962563,-1835008,-108,-56,-1,-1,0
1523612962563,-1572864,-108,-56,-1,-1,0
1523612962601,-917504,-108,-56,-1,-1,0
1523612962601,-327680,-108,-56,-1,-1,0
1523612962601,-65536,-108,-56,-1,-1,0
1523612962601,0,-108,-56,-1,-1,0
1523612962601,131072,-108,-56,-1,-1,0
1523612962641,262144,-108,-56,-1,-1,0
1523612962641,393216,-108,-56,-1,-1,0
1523612962641,458752,-108,-56,-1,-1,0
1523612962641,524288,-108,-56,-1,-1,0
1523612962641,720896,-108,-56,-1,-1,0
1523612962681,917504,-108,-56,-1,-1,0
1523612962681,1114112,-108,-56,-1,-1,0
1523612962681,1245184,-108,-56,-1,-1,0
1523612962681,1310720,-108,-56,-1,-1,0
1523612962681,1245184,-108,-56,-1,-1,0
1523612962723,1179648,-108,-56,-1,-1,0
1523612962723,1114112,-108,-56,-1,-1,0
1523612962723,1114112,-108,-56,-1,-1,0
1523612962723,1048576,-108,-56,-1,-1,0
1523612962723,851968,-108,-56,-1,-1,0
1523612962761,524288,-108,-56,-1,-1,0
1523612962761,327680,-108,-56,-1,-1,0
1523612962761,131072,-108,-56,-1,-1,0
1523612962761,65536,-108,-56,-1,-1,0
1523612962761,0,-108,-56,-1,-1,0
1523612962803,0,-108,-56,-1,-1,0
1523612962803,0,-108,-56,-1,-1,0
1523612962803,0,-108,-56,-1,-1,0
1523612962803,0,-108,-56,-1,-1,0
1523612962803,65536,-108,-56,-1,-1,0
1523612962841,196608,-108,-56,-1,-1,0
1523612962841,327680,-108,-56,-1,-1,0
1523612962841,327680,-108,-56,-1,-1,0
1523612962841,262144,-108,-56,-1,-1,0
1523612962841,196608,-108,-56,-1,-1,0
1523612962881,131072,-108,-56,-1,-1,0
1523612962881,65536,-108,-56,-1,-1,0
1523612962881,0,-108,-56,-1,-1,0
1523612962881,0,-108,-56,-1,-1,0
1523612962881,0,-108,-56,-1,-1,0
1523612962921,0,-108,-56,-1,-1,0
1523612962921,-65536,-108,-56,-1,-1,0
1523612962921,-589824,-108,-56,-1,-1,0
1523612962921,-1245184,-108,-56,-1,-1,0
1523612962921,-786432,-108,-56,-1,-1,0
1523612962961,1769472,-108,-56,-1,-1,0
1523612962961,4587520,-108,-56,-1,-1,0
1523612962961,4259840,-108,-56,-1,-1,0
1523612962961,1179648,-108,-56,-1,-1,0
1523612962961,-1310720,-108,-56,-1,-1,0
1523612963001,-1703936,-108,-56,-1,-1,0
1523612963001,-1310720,-108,-56,-1,-1,0
1523612963001,-720896,-108,-56,-1,-1,0
1523612963001,-196608,-108,-56,-1,-1,0
1523612963001,0,-108,-56,-1,-1,0
1523612963041,131072,-108,-56,-1,-1,0
1523612963041,131072,-108,-56,-1,-1,0
1523612963041,196608,-108,-56,-1,-1,0
1523612963041,262144,-108,-56,-1,-1,0
1523612963041,393216,-108,-56,-1,-1,0
1523612963081,589824,-108,-56,-1,-1,0
1523612963081,720896,-108,-56,-1,-1,0
1523612963081,983040,-108,-56,-1,-1,0
1523612963081,1179648,-108,-56,-1,-1,0
1523612963081,1310720,-108,-56,-1,-1,0
1523612963121,1376256,-108,-56,-1,-1,0
1523612963121,1376256,-108,-56,-1,-1,0
1523612963121,1310720,-108,-56,-1,-1,0
1523612963121,1310720,-108,-56,-1,-1,0
1523612963121,1310720,-108,-56,-1,-1,0
1523612963163,1179648,-108,-56,-1,-1,0
1523612963163,851968,-108,-56,-1,-1,0
1523612963163,589824,-108,-56,-1,-1,0
1523612963163,393216,-108,-56,-1,-1,0
1523612963163,262144,-108,-56,-1,-1,0
1523612963201,196608,-108,-56,-1,-1,0
1523612963201,131072,-108,-56,-1,-1,0
1523612963201,131072,-108,-56,-1,-1,0
1523612963201,131072,-108,-56,-1,-1,0
1523612963201,131072,-108,-56,-1,-1,0
1523612963241,196608,-108,-56,-1,-1,0
1523612963241,196608,-108,-56,-1,-1,0
1523612963241,262144,-108,-56,-1,-1,0
1523612963241,327680,-108,-56,-1,-1,0
1523612963241,393216,-108,-56,-1,-1,0
1523612963281,393216,-108,-56,-1,-1,0
1523612963281,393216,-108,-56,-1,-1,0
1523612963281,327680,-108,-56,-1,-1,0
1523612963281,262144,-108,-56,-1,-1,0
1523612963281,262144,-108,-56,-1,-1,0
1523612963321,262144,-108,-56,-1,-1,0
1523612963321,262144,-108,-56,-1,-1,0
1523612963321,262144,-108,-56,-1,-1,0
1523612963321,65536,-108,-56,-1,-1,0
1523612963321,-589824,-108,-56,-1,-1,0
1523612963361,-1048576,-108,-56,-1,-1,0
1523612963361,131072,-108,-56,-1,-1,0
1523612963361,3276800,-108,-56,-1,-1,0
1523612963361,5439488,-108,-56,-1,-1,0
1523612963361,3866624,-108,-56,-1,-1,0
1523612963401,524288,-108,-56,-1,-1,0
1523612963401,-1179648,-108,-56,-1,-1,0
1523612963401,-1179648,-108,-56,-1,-1,0
1523612963401,-655360,-108,-56,-1,-1,0
1523612963401,-131072,-108,-56,-1,-1,0
1523612963441,65536,-108,-56,-1,-1,0
1523612963441,131072,-108,-56,-1,-1,0
1523612963441,262144,-108,-56,-1,-1,0
1523612963441,393216,-108,-56,-1,-1,0
1523612963441,524288,-108,-56,-1,-1,0
1523612963482,655360,-108,-56,-1,-1,0
1523612963482,786432,-108,-56,-1,-1,0
1523612963482,983040,-108,-56,-1,-1,0
1523612963482,1179648,-108,-56,-1,-1,0
1523612963482,1376256,-108,-56,-1,-1,0
1523612963522,1572864,-108,-56,-1,-1,0
1523612963522,1638400,-108,-56,-1,-1,0
1523612963522,1703936,-108,-56,-1,-1,0
1523612963522,1638400,-108,-56,-1,-1,0
1523612963522,1572864,-108,-56,-1,-1,0
1523612963561,1507328,-108,-56,-1,-1,0
1523612963561,1507328,-108,-56,-1,-1,0
1523612963561,1376256,-108,-56,-1,-1,0
1523612963561,1114112,-108,-56,-1,-1,0
1523612963561,851968,-108,-56,-1,-1,0
1523612963601,655360,-108,-56,-1,-1,0
1523612963601,655360,-108,-56,-1,-1,0
1523612963601,655360,-108,-56,-1,-1,0
1523612963601,655360,-108,-56,-1,-1,0
1523612963601,589824,-108,-56,-1,-1,0
1523612963641,524288,-108,-56,-1,-1,0
1523612963641,458752,-108,-56,-1,-1,0
1523612963641,458752,-108,-56,-1,-1,0
1523612963641,524288,-108,-56,-1,-1,0
1523612963641,655360,-108,-56,-1,-1,0
1523612963681,720896,-108,-56,-1,-1,0
1523612963681,786432,-108,-56,-1,-1,0
1523612963681,720896,-108,-56,-1,-1,0
1523612963681,655360,-108,-56,-1,-1,0
1523612963681,589824,-108,-56,-1,-1,0
1523612963722,524288,-108,-56,-1,-1,0
1523612963722,524288,-108,-56,-1,-1,0
1523612963722,524288,-108,-56,-1,-1,0
1523612963722,589824,-108,-56,-1,-1,0
1523612963722,524288,-108,-56,-1,-1,0
1523612963761,262144,-108,-56,-1,-1,0
1523612963761,-458752,-108,-56,-1,-1,0
1523612963761,-851968,-108,-56,-1,-1,0
1523612963761,458752,-108,-56,-1,-1,0
1523612963761,3538944,-108,-56,-1,-1,0
1523612963803,5570560,-108,-56,-1,-1,0
1523612963803,4063232,-108,-56,-1,-1,0
1523612963803,786432,-108,-56,-1,-1,0
1523612963803,-983040,-108,-56,-1,-1,0
1523612963803,-1048576,-108,-56,-1,-1,0
1523612963842,-524288,-108,-56,-1,-1,0
1523612963842,-65536,-108,-56,-1,-1,0
1523612963842,196608,-108,-56,-1,-1,0
1523612963842,262144,-108,-56,-1,-1,0
1523612963842,262144,-108,-56,-1,-1,0
1523612963881,262144,-108,-56,-1,-1,0
1523612963881,393216,-108,-56,-1,-1,0
1523612963881,524288,-108,-56,-1,-1,0
1523612963881,655360,-108,-56,-1,-1,0
1523612963881,786432,-108,-56,-1,-1,0
1523612963921,983040,-108,-56,-1,-1,0
1523612963921,1114112,-108,-56,-1,-1,0
1523612963921,1245184,-108,-56,-1,-1,0
1523612963921,1310720,-108,-56,-1,-1,0
1523612963921,1310720,-108,-56,-1,-1,0
1523612963961,1310720,-108,-56,-1,-1,0
1523612963961,1310720,-108,-56,-1,-1,0
1523612963961,1245184,-108,-56,-1,-1,0
1523612963961,1179648,-108,-56,-1,-1,0
1523612963961,1114112,-108,-56,-1,-1,0
1523612964002,917504,-108,-56,-1,-1,0
1523612964002,786432,-108,-56,-1,-1,0
1523612964002,655360,-108,-56,-1,-1,0
1523612964002,589824,-108,-56,-1,-1,0
1523612964002,524288,-108,-56,-1,-1,0
1523612964042,458752,-108,-56,-1,-1,0
1523612964042,458752,-108,-56,-1,-1,0
1523612964042,393216,-108,-56,-1,-1,0
1523612964042,262144,-108,-56,-1,-1,0
1523612964042,262144,-108,-56,-1,-1,0
1523612964082,262144,-108,-56,-1,-1,0
1523612964082,327680,-108,-56,-1,-1,0
1523612964082,393216,-108,-56,-1,-1,0
1523612964082,524288,-108,-56,-1,-1,0
1523612964082,458752,-108,-56,-1,-1,0
1523612964121,327680,-108,-56,-1,-1,0
1523612964121,196608,-108,-56,-1,-1,0
1523612964121,65536,-108,-56,-1,-1,0
1523612964121,0,-108,-56,-1,-1,0
1523612964121,-65536,-108,-56,-1,-1,0
1523612964162,-131072,-108,-56,-1,-1,0
1523612964162,-196608,-108,-56,-1,-1,0
1523612964162,-327680,-108,-56,-1,-1,0
1523612964162,-851968,-108,-56,-1,-1,0
1523612964162,-1572864,-108,-56,-1,-1,0
1523612964202,-1114112,-108,-56,-1,-1,0
1523612964202,1310720,-108,-56,-1,-1,0
1523612964202,4259840,-108,-56,-1,-1,0
1523612964202,4194304,-108,-56,-1,-1,0
1523612964202,1245184,-108,-56,-1,-1,0
1523612964241,-1441792,-108,-56,-1,-1,0
1523612964241,-2097152,-108,-56,-1,-1,0
1523612964241,-1703936,-108,-56,-1,-1,0
1523612964241,-1245184,-108,-56,-1,-1,0
1523612964241,-786432,-108,-56,-1,-1,0
1523612964282,-589824,-108,-56,-1,-1,0
1523612964282,-458752,-108,-56,-1,-1,0
1523612964282,-393216,-108,-56,-1,-1,0
1523612964282,-262144,-108,-56,-1,-1,0
1523612964282,-196608,-108,-56,-1,-1,0
1523612964322,-131072,-108,-56,-1,-1,0
1523612964322,-65536,-108,-56,-1,-1,0
1523612964322,0,-108,-56,-1,-1,0
1523612964322,131072,-108,-56,-1,-1,0
1523612964322,327680,-108,-56,-1,-1,0
1523612964362,458752,-108,-56,-1,-1,0
1523612964362,524288,-108,-56,-1,-1,0
1523612964362,524288,-108,-56,-1,-1,0
1523612964362,458752,-108,-56,-1,-1,0
1523612964362,393216,-108,-56,-1,-1,0
1523612964402,327680,-108,-56,-1,-1,0
1523612964402,196608,-108,-56,-1,-1,0
1523612964402,0,-108,-56,-1,-1,0
1523612964402,-262144,-108,-56,-1,-1,0
1523612964402,-458752,-108,-56,-1,-1,0
1523612964443,-589824,-108,-56,-1,-1,0
1523612964443,-655360,-108,-56,-1,-1,0
1523612964443,-589824,-108,-56,-1,-1,0
1523612964443,-655360,-108,-56,-1,-1,0
1523612964443,-720896,-108,-56,-1,-1,0
1523612964483,-786432,-108,-56,-1,-1,0
1523612964483,-786432,-108,-56,-1,-1,0
1523612964483,-786432,-108,-56,-1,-1,0
1523612964483,-720896,-108,-56,-1,-1,0
1523612964483,-589824,-108,-56,-1,-1,0
1523612964522,-524288,-108,-56,-1,-1,0
1523612964522,-524288,-108,-56,-1,-1,0
1523612964522,-589824,-108,-56,-1,-1,0
1523612964522,-655360,-108,-56,-1,-1,0
1523612964522,-720896,-108,-56,-1,-1,0
1523612964562,-720896,-108,-56,-1,-1,0
1523612964562,-720896,-108,-56,-1,-1,0
1523612964562,-786432,-108,-56,-1,-1,0
1523612964562,-851968,-108,-56,-1,-1,0
1523612964562,-851968,-108,-56,-1,-1,0
1523612964602,-1310720,-108,-56,-1,-1,0
1523612964602,-1966080,-108,-56,-1,-1,0
1523612964602,-1507328,-108,-56,-1,-1,0
1523612964602,983040,-108,-56,-1,-1,0
1523612964602,3866624,-108,-56,-1,-1,0
1523612964642,3604480,-108,-56,-1,-1,0
1523612964642,524288,-108,-56,-1,-1,0
1523612964642,-2097152,-108,-56,-1,-1,0
1523612964642,-2686976,-108,-56,-1,-1,0
1523612964642,-2293760,-108,-56,-1,-1,0
1523612964682,-1572864,-108,-56,-1,-1,0
1523612964682,-983040,-108,-56,-1,-1,0
1523612964682,-655360,-108,-56,-1,-1,0
1523612964682,-524288,-108,-56,-1,-1,0
1523612964682,-524288,-108,-56,-1,-1,0
1523612964722,-393216,-109,-56,-1,-1,0
1523612964722,-262144,-109,-56,-1,-1,0
1523612964722,-131072,-109,-56,-1,-1,0
1523612964722,0,-109,-56,-1,-1,0
1523612964722,196608,-109,-56,-1,-1,0
1523612964762,327680,-109,-56,-1,-1,0
1523612964762,589824,-109,-56,-1,-1,0
1523612964762,786432,-109,-56,-1,-1,0
1523612964762,917504,-109,-56,-1,-1,0
1523612964762,917504,-109,-56,-1,-1,0
1523612964802,983040,-109,-56,-1,-1,0
1523612964802,1048576,-109,-56,-1,-1,0
1523612964802,1048576,-109,-56,-1,-1,0
1523612964802,917504,-109,-56,-1,-1,0
1523612964802,720896,-109,-56,-1,-1,0
1523612964842,393216,-109,-56,-1,-1,0
1523612964842,131072,-109,-56,-1,-1,0
1523612964842,0,-109,-56,-1,-1,0
1523612964842,-65536,-109,-56,-1,-1,0
1523612964842,0,-109,-56,-1,-1,0
1523612964882,0,-109,-56,-1,-1,0
1523612964882,131072,-109,-56,-1,-1,0
1523612964882,196608,-109,-56,-1,-1,0
1523612964882,196608,-109,-56,-1,-1,0
1523612964882,196608,-109,-56,-1,-1,0
1523612964922,262144,-109,-56,-1,-1,0
1523612964922,393216,-109,-56,-1,-1,0
1523612964922,458752,-109,-56,-1,-1,0
1523612964922,458752,-109,-56,-1,-1,0
1523612964922,524288,-109,-56,-1,-1,0
1523612964963,524288,-109,-56,-1,-1,0
1523612964963,524288,-109,-56,-1,-1,0
1523612964963,524288,-109,-56,-1,-1,0
1523612964963,589824,-109,-56,-1,-1,0
1523612964963,655360,-109,-56,-1,-1,0
1523612965002,655360,-109,-56,-1,-1,0
1523612965002,589824,-109,-56,-1,-1,0
1523612965002,65536,-109,-56,-1,-1,0
1523612965002,-458752,-109,-56,-1,-1,0
1523612965002,262144,-109,-56,-1,-1,0
1523612965042,3080192,-109,-56,-1,-1,0
1523612965042,5701632,-109,-56,-1,-1,0
1523612965042,4980736,-109,-56,-1,-1,0
1523612965042,1769472,-109,-56,-1,-1,0
1523612965042,-589824,-109,-56,-1,-1,0
1523612965083,-851968,-109,-56,-1,-1,0
1523612965083,-327680,-109,-56,-1,-1,0
1523612965083,327680,-109,-56,-1,-1,0
1523612965083,786432,-109,-56,-1,-1,0
1523612965083,917504,-109,-56,-1,-1,0
1523612965122,983040,-109,-56,-1,-1,0
1523612965122,1114112,-109,-56,-1,-1,0
1523612965122,1245184,-109,-56,-1,-1,0
1523612965122,1310720,-109,-56,-1,-1,0
1523612965122,1376256,-109,-56,-1,-1,0
1523612965163,1572864,-109,-56,-1,-1,0
1523612965163,1769472,-109,-56,-1,-1,0
1523612965163,1966080,-109,-56,-1,-1,0
1523612965163,2097152,-109,-56,-1,-1,0
1523612965163,2228224,-109,-56,-1,-1,0
1523612965202,2293760,-109,-56,-1,-1,0
1523612965202,2228224,-109,-56,-1,-1,0
1523612965202,2097152,-109,-56,-1,-1,0
1523612965202,2031616,-109,-56,-1,-1,0
1523612965202,1966080,-109,-56,-1,-1,0
1523612965242,1835008,-109,-56,-1,-1,0
1523612965242,1572864,-109,-56,-1,-1,0
1523612965242,1179648,-109,-56,-1,-1,0
1523612965242,851968,-109,-56,-1,-1,0
1523612965242,655360,-109,-56,-1,-1,0
1523612965282,589824,-109,-56,-1,-1,0
1523612965282,524288,-109,-56,-1,-1,0
1523612965282,524288,-109,-56,-1,-1,0
1523612965282,524288,-109,-56,-1,-1,0
1523612965282,458752,-109,-56,-1,-1,0
1523612965322,393216,-109,-56,-1,-1,0
1523612965322,327680,-109,-56,-1,-1,0
1523612965322,327680,-109,-56,-1,-1,0
1523612965322,393216,-109,-56,-1,-1,0
1523612965322,393216,-109,-56,-1,-1,0
1523612965362,327680,-109,-56,-1,-1,0
1523612965362,327680,-109,-56,-1,-1,0
1523612965362,196608,-109,-56,-1,-1,0
1523612965362,131072,-109,-56,-1,-1,0
1523612965362,0,-109,-56,-1,-1,0
1523612965402,0,-109,-56,-1,-1,0
1523612965402,-65536,-109,-56,-1,-1,0
1523612965402,-65536,-109,-56,-1,-1,0
1523612965402,-131072,-109,-56,-1,-1,0
1523612965402,-786432,-109,-56,-1,-1,0
1523612965442,-1507328,-109,-56,-1,-1,0
1523612965442,-851968,-109,-56,-1,-1,0
1523612965442,1835008,-109,-56,-1,-1,0
1523612965442,4521984,-109,-56,-1,-1,0
1523612965442,3735552,-109,-56,-1,-1,0
1523612965482,524288,-109,-56,-1,-1,0
1523612965482,-1769472,-109,-56,-1,-1,0
1523612965482,-2097152,-109,-56,-1,-1,0
1523612965482,-1703936,-109,-56,-1,-1,0
1523612965482,-1179648,-109,-56,-1,-1,0
1523612965522,-786432,-109,-56,-1,-1,0
1523612965522,-655360,-109,-56,-1,-1,0
1523612965522,-524288,-109,-56,-1,-1,0
1523612965522,-458752,-109,-56,-1,-1,0
1523612965522,-393216,-109,-56,-1,-1,0
1523612965562,-327680,-109,-56,-1,-1,0
1523612965562,-262144,-109,-56,-1,-1,0
1523612965562,-196608,-109,-56,-1,-1,0
1523612965562,0,-109,-56,-1,-1,0
1523612965562,65536,-109,-56,-1,-1,0
1523612965602,196608,-109,-56,-1,-1,0
1523612965602,327680,-109,-56,-1,-1,0
1523612965602,262144,-109,-56,-1,-1,0
1523612965602,196608,-109,-56,-1,-1,0
1523612965602,65536,-109,-56,-1,-1,0
1523612965642,0,-109,-56,-1,-1,0
1523612965642,0,-109,-56,-1,-1,0
1523612965642,-131072,-109,-56,-1,-1,0
1523612965642,-393216,-109,-56,-1,-1,0
1523612965642,-720896,-109,-56,-1,-1,0
1523612965682,-1048576,-109,-56,-1,-1,0
1523612965682,-1179648,-109,-56,-1,-1,0
1523612965682,-1245184,-109,-56,-1,-1,0
1523612965682,-1310720,-109,-56,-1,-1,0
1523612965682,-1376256,-109,-56,-1,-1,0
1523612965723,-1441792,-109,-56,-1,-1,0
1523612965723,-1507328,-109,-56,-1,-1,0
1523612965723,-1572864,-109,-56,-1,-1,0
1523612965723,-1507328,-109,-56,-1,-1,0
1523612965723,-1441792,-109,-56,-1,-1,0
1523612965763,-1310720,-109,-56,-1,-1,0
1523612965763,-1245184,-109,-56,-1,-1,0
1523612965763,-1310720,-109,-56,-1,-1,0
1523612965763,-1376256,-109,-56,-1,-1,0
1523612965763,-1376256,-109,-56,-1,-1,0
1523612965802,-1441792,-109,-56,-1,-1,0
1523612965802,-1507328,-109,-56,-1,-1,0
1523612965802,-1507328,-109,-56,-1,-1,0
1523612965802,-1507328,-109,-56,-1,-1,0
1523612965802,-1572864,-109,-56,-1,-1,0
1523612965842,-1900544,-109,-56,-1,-1,0
1523612965842,-2752512,-109,-56,-1,-1,0
1523612965842,-3014656,-109,-56,-1,-1,0
1523612965842,-1114112,-109,-56,-1,-1,0
1523612965842,2162688,-109,-56,-1,-1,0
1523612965882,3538944,-109,-56,-1,-1,0
1523612965882,1245184,-109,-56,-1,-1,0
1523612965882,-1900544,-109,-56,-1,-1,0
1523612965882,-3211264,-109,-56,-1,-1,0
1523612965882,-3014656,-109,-56,-1,-1,0
1523612965922,-2490368,-109,-56,-1,-1,0
1523612965922,-2097152,-109,-56,-1,-1,0
1523612965922,-1900544,-109,-56,-1,-1,0
1523612965922,-1769472,-109,-56,-1,-1,0
1523612965922,-1703936,-109,-56,-1,-1,0
1523612965962,-1572864,-109,-56,-1,-1,0
1523612965962,-1507328,-109,-56,-1,-1,0
1523612965962,-1441792,-109,-56,-1,-1,0
1523612965962,-1310720,-109,-56,-1,-1,0
1523612965962,-1114112,-109,-56,-1,-1,0
1523612966002,-983040,-109,-56,-1,-1,0
1523612966002,-851968,-109,-56,-1,-1,0
1523612966002,-786432,-109,-56,-1,-1,0
1523612966002,-655360,-109,-56,-1,-1,0
1523612966002,-655360,-109,-56,-1,-1,0
1523612966042,-655360,-109,-56,-1,-1,0
1523612966042,-720896,-109,-56,-1,-1,0
1523612966042,-786432,-109,-56,-1,-1,0
1523612966042,-851968,-109,-56,-1,-1,0
1523612966042,-1048576,-109,-56,-1,-1,0
1523612966082,-1310720,-109,-56,-1,-1,0
1523612966082,-1507328,-109,-56,-1,-1,0
1523612966082,-1638400,-109,-56,-1,-1,0
1523612966082,-1703936,-109,-56,-1,-1,0
1523612966082,-1703936,-109,-56,-1,-1,0
1523612966122,-1703936,-109,-56,-1,-1,0
1523612966122,-1769472,-109,-56,-1,-1,0
1523612966122,-1835008,-109,-56,-1,-1,0
1523612966122,-1835008,-109,-56,-1,-1,0
1523612966122,-1703936,-109,-56,-1,-1,0
1523612966162,-1572864,-109,-56,-1,-1,0
1523612966162,-1441792,-109,-56,-1,-1,0
1523612966162,-1376256,-109,-56,-1,-1,0
1523612966162,-1376256,-109,-56,-1,-1,0
1523612966162,-1310720,-109,-56,-1,-1,0
1523612966202,-1376256,-109,-56,-1,-1,0
1523612966202,-1376256,-109,-56,-1,-1,0
1523612966202,-1441792,-109,-56,-1,-1,0
1523612966202,-1507328,-109,-56,-1,-1,0
1523612966202,-1507328,-109,-56,-1,-1,0
1523612966243,-1507328,-109,-56,-1,-1,0
1523612966243,-1638400,-109,-56,-1,-1,0
1523612966243,-2359296,-109,-56,-1,-1,0
1523612966243,-2818048,-109,-56,-1,-1,0
1523612966243,-1572864,-109,-56,-1,-1,0
1523612966282,1376256,-109,-56,-1,-1,0
1523612966282,3473408,-109,-56,-1,-1,0
1523612966282,1900544,-109,-56,-1,-1,0
1523612966282,-1310720,-109,-56,-1,-1,0
1523612966282,-3211264,-109,-56,-1,-1,0
1523612966322,-3145728,-109,-56,-1,-1,0
1523612966322,-2555904,-109,-56,-1,-1,0
1523612966322,-1966080,-109,-56,-1,-1,0
1523612966322,-1638400,-109,-56,-1,-1,0
1523612966322,-1507328,-109,-56,-1,-1,0
1523612966363,-1376256,-109,-56,-1,-1,0
1523612966363,-1376256,-109,-56,-1,-1,0
1523612966363,-1245184,-109,-56,-1,-1,0
1523612966363,-1179648,-109,-56,-1,-1,0
1523612966363,-1048576,-109,-56,-1,-1,0
1523612966402,-851968,-109,-56,-1,-1,0
1523612966402,-655360,-109,-56,-1,-1,0
1523612966402,-458752,-109,-56,-1,-1,0
1523612966402,-327680,-109,-56,-1,-1,0
1523612966402,-196608,-109,-56,-1,-1,0
1523612966442,-131072,-109,-56,-1,-1,0
1523612966442,-196608,-109,-56,-1,-1,0
1523612966442,-196608,-109,-56,-1,-1,0
1523612966442,-131072,-109,-56,-1,-1,0
1523612966442,-196608,-109,-56,-1,-1,0
1523612966482,-327680,-109,-56,-1,-1,0
1523612966482,-524288,-109,-56,-1,-1,0
1523612966482,-786432,-109,-56,-1,-1,0
1523612966482,-983040,-109,-56,-1,-1,0
1523612966482,-1048576,-109,-56,-1,-1,0
1523612966522,-1179648,-109,-56,-1,-1,0
1523612966522,-1245184,-109,-56,-1,-1,0
1523612966522,-1245184,-109,-56,-1,-1,0
1523612966522,-1179648,-109,-56,-1,-1,0
1523612966522,-1245184,-109,-56,-1,-1,0
1523612966562,-1245184,-109,-56,-1,-1,0
1523612966562,-1114112,-109,-56,-1,-1,0
1523612966562,-1048576,-109,-56,-1,-1,0
1523612966562,-983040,-109,-56,-1,-1,0
1523612966562,-1048576,-109,-56,-1,-1,0
1523612966602,-1179648,-109,-56,-1,-1,0
1523612966602,-1179648,-109,-56,-1,-1,0
1523612966602,-1179648,-109,-56,-1,-1,0
1523612966602,-1179648,-109,-56,-1,-1,0
1523612966602,-1179648,-109,-56,-1,-1,0
1523612966642,-1245184,-109,-56,-1,-1,0
1523612966642,-1310720,-109,-56,-1,-1,0
1523612966642,-1638400,-109,-56,-1,-1,0
1523612966642,-2293760,-109,-56,-1,-1,0
1523612966642,-2359296,-109,-56,-1,-1,0
1523612966682,-589824,-109,-56,-1,-1,0
1523612966682,2293760,-109,-56,-1,-1,0
1523612966682,3276800,-109,-56,-1,-1,0
1523612966682,917504,-109,-56,-1,-1,0
1523612966682,-2097152,-109,-56,-1,-1,0
1523612966722,-3211264,-109,-56,-1,-1,0
1523612966722,-2949120,-109,-56,-1,-1,0
1523612966722,-2293760,-109,-56,-1,-1,0
1523612966722,-1638400,-109,-56,-1,-1,0
1523612966722,-1310720,-109,-56,-1,-1,0
1523612966762,-1179648,-109,-56,-1,-1,0
1523612966762,-1048576,-109,-56,-1,-1,0
1523612966762,-917504,-109,-56,-1,-1,0
1523612966762,-786432,-109,-56,-1,-1,0
1523612966762,-720896,-109,-56,-1,-1,0
1523612966802,-458752,-109,-56,-1,-1,0
1523612966802,-327680,-109,-56,-1,-1,0
1523612966802,-131072,-109,-56,-1,-1,0
1523612966802,0,-109,-56,-1,-1,0
1523612966802,131072,-109,-56,-1,-1,0
1523612966842,327680,-109,-56,-1,-1,0
1523612966842,458752,-109,-56,-1,-1,0
1523612966842,327680,-109,-56,-1,-1,0
1523612966842,196608,-109,-56,-1,-1,0
1523612966842,196608,-109,-56,-1,-1,0
1523612966882,196608,-109,-56,-1,-1,0
1523612966882,0,-109,-56,-1,-1,0
1523612966882,-262144,-109,-56,-1,-1,0
1523612966882,-589824,-109,-56,-1,-1,0
1523612966882,-720896,-109,-56,-1,-1,0
1523612966922,-851968,-109,-56,-1,-1,0
1523612966922,-917504,-109,-56,-1,-1,0
1523612966922,-983040,-109,-56,-1,-1,0
1523612966922,-917504,-109,-56,-1,-1,0
1523612966922,-851968,-109,-56,-1,-1,0
1523612966962,-786432,-109,-56,-1,-1,0
1523612966962,-655360,-109,-56,-1,-1,0
1523612966962,-589824,-109,-56,-1,-1,0
1523612966962,-458752,-109,-56,-1,-1,0
1523612966962,-458752,-109,-56,-1,-1,0
1523612967003,-524288,-109,-56,-1,-1,0
1523612967003,-655360,-109,-56,-1,-1,0
1523612967003,-720896,-109,-56,-1,-1,0
1523612967003,-655360,-109,-56,-1,-1,0
1523612967003,-655360,-109,-56,-1,-1,0
1523612967042,-655360,-109,-56,-1,-1,0
1523612967042,-655360,-109,-56,-1,-1,0
1523612967042,-786432,-109,-56,-1,-1,0
1523612967042,-1507328,-109,-56,-1,-1,0
1523612967042,-1900544,-109,-56,-1,-1,0
1523612967082,-458752,-109,-56,-1,-1,0
1523612967082,2621440,-109,-56,-1,-1,0
1523612967082,4194304,-109,-56,-1,-1,0
1523612967082,2162688,-109,-56,-1,-1,0
1523612967082,-917504,-109,-56,-1,-1,0
1523612967122,-2359296,-109,-56,-1,-1,0
1523612967122,-2162688,-109,-56,-1,-1,0
1523612967122,-1507328,-109,-56,-1,-1,0
1523612967122,-720896,-109,-56,-1,-1,0
1523612967122,-327680,-109,-56,-1,-1,0
1523612967162,-196608,-109,-56,-1,-1,0
1523612967162,-65536,-109,-56,-1,-1,0
1523612967162,0,-109,-56,-1,-1,0
1523612967162,65536,-109,-56,-1,-1,0
1523612967162,131072,-109,-56,-1,-1,0
1523612967202,327680,-109,-56,-1,-1,0
1523612967202,589824,-109,-56,-1,-1,0
1523612967202,786432,-109,-56,-1,-1,0
1523612967202,917504,-109,-56,-1,-1,0
1523612967202,1114112,-109,-56,-1,-1,0
1523612967242,1310720,-109,-56,-1,-1,0
1523612967242,1310720,-109,-56,-1,-1,0
1523612967242,1310720,-109,-56,-1,-1,0
1523612967242,1245184,-109,-56,-1,-1,0
1523612967242,1245184,-109,-56,-1,-1,0
1523612967282,1114112,-109,-56,-1,-1,0
1523612967282,983040,-109,-56,-1,-1,0
1523612967282,786432,-109,-56,-1,-1,0
1523612967282,524288,-109,-56,-1,-1,0
1523612967282,327680,-109,-56,-1,-1,0
1523612967322,262144,-109,-56,-1,-1,0
1523612967322,262144,-109,-56,-1,-1,0
1523612967322,262144,-109,-56,-1,-1,0
1523612967322,262144,-109,-56,-1,-1,0
1523612967322,327680,-109,-56,-1,-1,0
1523612967362,458752,-109,-56,-1,-1,0
1523612967362,589824,-109,-56,-1,-1,0
1523612967362,655360,-109,-56,-1,-1,0
1523612967362,786432,-109,-56,-1,-1,0
1523612967362,851968,-109,-56,-1,-1,0
1523612967402,851968,-109,-56,-1,-1,0
1523612967402,851968,-109,-56,-1,-1,0
1523612967402,786432,-109,-56,-1,-1,0
1523612967402,786432,-109,-56,-1,-1,0
1523612967402,786432,-109,-56,-1,-1,0
1523612967442,851968,-109,-56,-1,-1,0
1523612967442,917504,-109,-56,-1,-1,0
1523612967442,655360,-109,-56,-1,-1,0
1523612967442,0,-109,-56,-1,-1,0
1523612967442,-262144,-109,-56,-1,-1,0
1523612967482,1376256,-109,-56,-1,-1,0
1523612967482,4390912,-109,-56,-1,-1,0
1523612967482,5636096,-109,-56,-1,-1,0
1523612967482,3407872,-109,-56,-1,-1,0
1523612967482,393216,-109,-56,-1,-1,0
1523612967522,-655360,-109,-56,-1,-1,0
1523612967522,-393216,-109,-56,-1,-1,0
1523612967522,131072,-109,-56,-1,-1,0
1523612967522,720896,-109,-56,-1,-1,0
1523612967522,983040,-109,-56,-1,-1,0
1523612967562,1114112,-109,-56,-1,-1,0
1523612967562,1245184,-109,-56,-1,-1,0
1523612967562,1310720,-109,-56,-1,-1,0
1523612967562,1441792,-109,-56,-1,-1,0
1523612967562,1441792,-109,-56,-1,-1,0
1523612967602,1572864,-109,-56,-1,-1,0
1523612967602,1703936,-109,-56,-1,-1,0
1523612967602,1835008,-109,-56,-1,-1,0
1523612967602,1966080,-109,-56,-1,-1,0
1523612967602,2097152,-109,-56,-1,-1,0
1523612967643,2228224,-109,-56,-1,-1,0
1523612967643,2162688,-109,-56,-1,-1,0
1523612967643,2097152,-109,-56,-1,-1,0
1523612967643,1966080,-109,-56,-1,-1,0
1523612967643,1900544,-109,-56,-1,-1,0
1523612967682,1769472,-109,-56,-1,-1,0
1523612967682,1572864,-109,-56,-1,-1,0
1523612967682,1376256,-109,-56,-1,-1,0
1523612967682,1179648,-109,-56,-1,-1,0
1523612967682,983040,-109,-56,-1,-1,0
1523612967722,917504,-109,-56,-1,-1,0
1523612967722,851968,-109,-56,-1,-1,0
1523612967722,786432,-109,-56,-1,-1,0
1523612967722,786432,-109,-56,-1,-1,0
1523612967722,786432,-109,-56,-1,-1,0
1523612967762,786432,-109,-56,-1,-1,0
1523612967762,851968,-109,-56,-1,-1,0
1523612967762,983040,-109,-56,-1,-1,0
1523612967762,1048576,-109,-56,-1,-1,0
1523612967762,1048576,-109,-56,-1,-1,0
1523612967802,917504,-109,-56,-1,-1,0
1523612967802,786432,-109,-56,-1,-1,0
1523612967802,786432,-109,-56,-1,-1,0
1523612967802,720896,-109,-56,-1,-1,0
1523612967802,655360,-109,-56,-1,-1,0
1523612967842,589824,-109,-56,-1,-1,0
1523612967842,524288,-109,-56,-1,-1,0
1523612967842,65536,-109,-56,-1,-1,0
1523612967842,-786432,-109,-56,-1,-1,0
1523612967842,-786432,-109,-56,-1,-1,0
1523612967882,1310720,-109,-56,-1,-1,0
1523612967882,4063232,-109,-56,-1,-1,0
1523612967882,3997696,-109,-56,-1,-1,0
1523612967882,1179648,-109,-56,-1,-1,0
1523612967882,-1179648,-109,-56,-1,-1,0
1523612967922,-1507328,-109,-56,-1,-1,0
1523612967922,-983040,-109,-56,-1,-1,0
1523612967922,-458752,-109,-56,-1,-1,0
1523612967922,-65536,-109,-56,-1,-1,0
1523612967922,65536,-109,-56,-1,-1,0
1523612967962,196608,-109,-56,-1,-1,0
1523612967962,327680,-109,-56,-1,-1,0
1523612967962,393216,-109,-56,-1,-1,0
1523612967962,458752,-109,-56,-1,-1,0
1523612967962,524288,-109,-56,-1,-1,0
1523612968002,589824,-109,-56,-1,-1,0
1523612968002,786432,-109,-56,-1,-1,0
1523612968002,917504,-109,-56,-1,-1,0
1523612968002,1114112,-109,-56,-1,-1,0
1523612968002,1245184,-109,-56,-1,-1,0
1523612968042,1310720,-109,-56,-1,-1,0
1523612968042,1310720,-109,-56,-1,-1,0
1523612968042,1245184,-109,-56,-1,-1,0
1523612968042,1179648,-109,-56,-1,-1,0
1523612968042,1114112,-109,-56,-1,-1,0
1523612968082,917504,-109,-56,-1,-1,0
1523612968082,655360,-109,-56,-1,-1,0
1523612968082,393216,-109,-56,-1,-1,0
1523612968082,262144,-109,-56,-1,-1,0
1523612968082,131072,-109,-56,-1,-1,0
1523612968122,0,-109,-56,-1,-1,0
1523612968122,-65536,-109,-56,-1,-1,0
1523612968122,-131072,-109,-56,-1,-1,0
1523612968122,-65536,-109,-56,-1,-1,0
1523612968122,-65536,-109,-56,-1,-1,0
1523612968161,0,-109,-56,-1,-1,0
1523612968161,65536,-109,-56,-1,-1,0
1523612968161,131072,-109,-56,-1,-1,0
1523612968161,65536,-109,-56,-1,-1,0
1523612968161,0,-109,-56,-1,-1,0
1523612968201,0,-109,-56,-1,-1,0
1523612968201,0,-109,-56,-1,-1,0
1523612968201,-65536,-109,-56,-1,-1,0
1523612968201,-131072,-109,-56,-1,-1,0
1523612968201,-131072,-109,-56,-1,-1,0
1523612968243,-196608,-109,-56,-1,-1,0
1523612968243,-458752,-109,-56,-1,-1,0
1523612968243,-1245184,-109,-56,-1,-1,0
1523612968243,-1703936,-109,-56,-1,-1,0
1523612968243,-458752,-109,-56,-1,-1,0
1523612968299,2293760,-109,-56,-1,-1,0
1523612968299,3735552,-109,-56,-1,-1,0
1523612968299,1900544,-109,-56,-1,-1,0
1523612968299,-917504,-109,-56,-1,-1,0
1523612968299,-2162688,-109,-56,-1,-1,0
1523612968322,-1900544,-109,-56,-1,-1,0
1523612968322,-1441792,-109,-56,-1,-1,0
1523612968322,-983040,-109,-56,-1,-1,0
1523612968322,-786432,-109,-56,-1,-1,0
1523612968322,-720896,-109,-56,-1,-1,0
1523612968361,-589824,-109,-56,-1,-1,0
1523612968361,-524288,-109,-56,-1,-1,0
1523612968361,-524288,-109,-56,-1,-1,0
1523612968361,-458752,-109,-56,-1,-1,0
1523612968361,-393216,-109,-56,-1,-1,0
1523612968402,-327680,-109,-56,-1,-1,0
1523612968402,-196608,-109,-56,-1,-1,0
1523612968402,0,-109,-56,-1,-1,0
1523612968402,65536,-109,-56,-1,-1,0
1523612968402,65536,-109,-56,-1,-1,0
1523612968441,65536,-109,-56,-1,-1,0
1523612968441,0,-109,-56,-1,-1,0
1523612968441,65536,-109,-56,-1,-1,0
1523612968441,196608,-109,-56,-1,-1,0
1523612968441,131072,-109,-56,-1,-1,0
1523612968482,0,-109,-56,-1,-1,0
1523612968482,-262144,-109,-56,-1,-1,0
1523612968482,-393216,-109,-56,-1,-1,0
1523612968482,-524288,-109,-56,-1,-1,0
1523612968482,-655360,-109,-56,-1,-1,0
1523612968521,-786432,-109,-56,-1,-1,0
1523612968521,-851968,-109,-56,-1,-1,0
1523612968521,-851968,-109,-56,-1,-1,0
1523612968521,-851968,-109,-56,-1,-1,0
1523612968521,-786432,-109,-56,-1,-1,0
1523612968561,-786432,-109,-56,-1,-1,0
1523612968561,-720896,-109,-56,-1,-1,0
1523612968561,-720896,-109,-56,-1,-1,0
1523612968561,-720896,-109,-56,-1,-1,0
1523612968561,-720896,-109,-56,-1,-1,0
1523612968601,-786432,-109,-56,-1,-1,0
1523612968601,-851968,-109,-56,-1,-1,0
1523612968601,-917504,-109,-56,-1,-1,0
1523612968601,-983040,-109,-56,-1,-1,0
1523612968601,-917504,-109,-56,-1,-1,0
1523612968642,-1114112,-109,-56,-1,-1,0
1523612968642,-1900544,-109,-56,-1,-1,0
1523612968642,-2359296,-109,-56,-1,-1,0
1523612968642,-851968,-109,-56,-1,-1,0
1523612968642,1966080,-109,-56,-1,-1,0
1523612968682,3342336,-109,-56,-1,-1,0
1523612968682,1245184,-109,-56,-1,-1,0
1523612968682,-1703936,-109,-56,-1,-1,0
1523612968682,-3014656,-109,-56,-1,-1,0
1523612968682,-2752512,-109,-56,-1,-1,0
1523612968722,-2097152,-109,-56,-1,-1,0
1523612968722,-1376256,-109,-56,-1,-1,0
1523612968722,-983040,-109,-56,-1,-1,0
1523612968722,-851968,-109,-56,-1,-1,0
1523612968722,-851968,-109,-56,-1,-1,0
1523612968761,-851968,-109,-56,-1,-1,0
1523612968761,-655360,-109,-56,-1,-1,0
1523612968761,-393216,-109,-56,-1,-1,0
1523612968761,-262144,-109,-56,-1,-1,0
1523612968761,-196608,-109,-56,-1,-1,0
1523612968801,-131072,-109,-56,-1,-1,0
1523612968801,0,-109,-56,-1,-1,0
1523612968801,196608,-109,-56,-1,-1,0
1523612968801,458752,-109,-56,-1,-1,0
1523612968801,524288,-109,-56,-1,-1,0
1523612968843,458752,-109,-56,-1,-1,0
1523612968843,458752,-109,-56,-1,-1,0
1523612968843,458752,-109,-56,-1,-1,0
1523612968843,327680,-109,-56,-1,-1,0
1523612968843,131072,-109,-56,-1,-1,0
1523612968881,-65536,-109,-56,-1,-1,0
1523612968881,-262144,-109,-56,-1,-1,0
1523612968881,-458752,-109,-56,-1,-1,0
1523612968881,-589824,-109,-56,-1,-1,0
1523612968881,-786432,-109,-56,-1,-1,0
1523612968923,-786432,-109,-56,-1,-1,0
1523612968923,-786432,-109,-56,-1,-1,0
1523612968923,-786432,-109,-56,-1,-1,0
1523612968923,-655360,-109,-56,-1,-1,0
1523612968923,-458752,-109,-56,-1,-1,0
1523612968961,-327680,-109,-56,-1,-1,0
1523612968961,-393216,-109,-56,-1,-1,0
1523612968961,-393216,-109,-56,-1,-1,0
1523612968961,-393216,-109,-56,-1,-1,0
1523612968961,-458752,-109,-56,-1,-1,0
1523612969002,-524288,-109,-56,-1,-1,0
1523612969002,-589824,-109,-56,-1,-1,0
1523612969002,-589824,-109,-56,-1,-1,0
1523612969002,-589824,-109,-56,-1,-1,0
1523612969002,-983040,-109,-56,-1,-1,0
1523612969042,-1769472,-109,-56,-1,-1,0
1523612969042,-1703936,-109,-56,-1,-1,0
1523612969042,524288,-109,-56,-1,-1,0
1523612969042,3407872,-109,-56,-1,-1,0
1523612969042,3407872,-109,-56,-1,-1,0
1523612969081,458752,-109,-56,-1,-1,0
1523612969081,-2097152,-109,-56,-1,-1,0
1523612969081,-2555904,-109,-56,-1,-1,0
1523612969081,-2097152,-109,-56,-1,-1,0
1523612969081,-1507328,-109,-56,-1,-1,0
1523612969121,-917504,-109,-56,-1,-1,0
1523612969121,-655360,-109,-56,-1,-1,0
1523612969121,-524288,-109,-56,-1,-1,0
1523612969121,-458752,-109,-56,-1,-1,0
1523612969121,-393216,-109,-56,-1,-1,0
1523612969161,-327680,-109,-56,-1,-1,0
1523612969161,-262144,-109,-56,-1,-1,0
1523612969161,-196608,-109,-56,-1,-1,0
1523612969161,-65536,-109,-56,-1,-1,0
1523612969161,65536,-109,-56,-1,-1,0
1523612969201,262144,-109,-56,-1,-1,0
1523612969201,458752,-109,-56,-1,-1,0
1523612969201,524288,-109,-56,-1,-1,0
1523612969201,524288,-109,-56,-1,-1,0
1523612969201,458752,-109,-56,-1,-1,0
1523612969241,458752,-109,-56,-1,-1,0
1523612969241,393216,-109,-56,-1,-1,0
1523612969241,327680,-109,-56,-1,-1,0
1523612969241,65536,-109,-56,-1,-1,0
1523612969241,-196608,-109,-56,-1,-1,0
1523612969284,-458752,-109,-56,-1,-1,0
1523612969284,-589824,-109,-56,-1,-1,0
1523612969284,-720896,-109,-56,-1,-1,0
1523612969284,-786432,-109,-56,-1,-1,0
1523612969284,-786432,-109,-56,-1,-1,0
1523612969321,-786432,-109,-56,-1,-1,0
1523612969321,-720896,-109,-56,-1,-1,0
1523612969321,-655360,-109,-56,-1,-1,0
1523612969321,-524288,-109,-56,-1,-1,0
1523612969321,-458752,-109,-56,-1,-1,0
1523612969361,-458752,-109,-56,-1,-1,0
1523612969361,-524288,-109,-56,-1,-1,0
1523612969361,-589824,-109,-56,-1,-1,0
1523612969361,-655360,-109,-56,-1,-1,0
1523612969361,-655360,-109,-56,-1,-1,0
1523612969402,-589824,-109,-56,-1,-1,0
1523612969402,-655360,-109,-56,-1,-1,0
1523612969402,-786432,-109,-56,-1,-1,0
1523612969402,-1310720,-109,-56,-1,-1,0
1523612969402,-2031616,-109,-56,-1,-1,0
1523612969441,-1703936,-109,-56,-1,-1,0
1523612969441,720896,-109,-56,-1,-1,0
1523612969441,3407872,-109,-56,-1,-1,0
1523612969441,2752512,-109,-56,-1,-1,0
1523612969441,-196608,-109,-56,-1,-1,0
1523612969482,-2424832,-109,-56,-1,-1,0
1523612969482,-2555904,-109,-56,-1,-1,0
1523612969482,-1966080,-109,-56,-1,-1,0
1523612969482,-1245184,-109,-56,-1,-1,0
1523612969482,-851968,-109,-56,-1,-1,0
1523612969521,-655360,-109,-56,-1,-1,0
1523612969521,-524288,-109,-56,-1,-1,0
1523612969521,-458752,-109,-56,-1,-1,0
1523612969521,-458752,-109,-56,-1,-1,0
1523612969521,-393216,-109,-56,-1,-1,0
1523612969563,-327680,-109,-56,-1,-1,0
1523612969563,-131072,-109,-56,-1,-1,0
1523612969563,0,-109,-56,-1,-1,0
1523612969563,196608,-109,-56,-1,-1,0
1523612969563,393216,-109,-56,-1,-1,0
1523612969602,589824,-109,-56,-1,-1,0
1523612969602,720896,-109,-56,-1,-1,0
1523612969602,786432,-109,-56,-1,-1,0
1523612969602,655360,-109,-56,-1,-1,0
1523612969602,524288,-109,-56,-1,-1,0
1523612969642,458752,-109,-56,-1,-1,0
1523612969642,393216,-109,-56,-1,-1,0
1523612969642,131072,-109,-56,-1,-1,0
1523612969642,-65536,-109,-56,-1,-1,0
1523612969642,-262144,-109,-56,-1,-1,0
1523612969681,-327680,-109,-56,-1,-1,0
1523612969681,-458752,-109,-56,-1,-1,0
1523612969681,-524288,-109,-56,-1,-1,0
1523612969681,-524288,-109,-56,-1,-1,0
1523612969681,-524288,-109,-56,-1,-1,0
1523612969721,-393216,-109,-56,-1,-1,0
1523612969721,-327680,-109,-56,-1,-1,0
1523612969721,-262144,-109,-56,-1,-1,0
1523612969721,-262144,-109,-56,-1,-1,0
1523612969721,-196608,-109,-56,-1,-1,0
1523612969762,-262144,-109,-56,-1,-1,0
1523612969762,-327680,-109,-56,-1,-1,0
1523612969762,-327680,-109,-56,-1,-1,0
1523612969762,-393216,-109,-56,-1,-1,0
1523612969762,-458752,-109,-56,-1,-1,0
1523612969802,-524288,-109,-56,-1,-1,0
1523612969802,-655360,-109,-56,-1,-1,0
1523612969802,-1310720,-109,-56,-1,-1,0
1523612969802,-1900544,-109,-56,-1,-1,0
1523612969802,-983040,-109,-56,-1,-1,0
1523612969842,1900544,-109,-56,-1,-1,0
1523612969842,4063232,-109,-56,-1,-1,0
1523612969842,2621440,-109,-56,-1,-1,0
1523612969842,-458752,-109,-56,-1,-1,0
1523612969842,-2162688,-109,-56,-1,-1,0
1523612969881,-2031616,-109,-56,-1,-1,0
1523612969881,-1441792,-109,-56,-1,-1,0
1523612969881,-851968,-109,-56,-1,-1,0
1523612969881,-589824,-109,-56,-1,-1,0
1523612969881,-524288,-109,-56,-1,-1,0
1523612969921,-458752,-109,-56,-1,-1,0
1523612969921,-393216,-109,-56,-1,-1,0
1523612969921,-262144,-109,-56,-1,-1,0
1523612969921,-131072,-109,-56,-1,-1,0
1523612969921,0,-109,-56,-1,-1,0
1523612969961,65536,-109,-56,-1,-1,0
1523612969961,196608,-109,-56,-1,-1,0
1523612969961,327680,-109,-56,-1,-1,0
1523612969961,458752,-109,-56,-1,-1,0
1523612969961,589824,-109,-56,-1,-1,0
1523612970001,589824,-109,-56,-1,-1,0
1523612970001,524288,-109,-56,-1,-1,0
1523612970001,458752,-109,-56,-1,-1,0
1523612970001,458752,-109,-56,-1,-1,0
1523612970001,393216,-109,-56,-1,-1,0
1523612970042,327680,-109,-56,-1,-1,0
1523612970042,131072,-109,-56,-1,-1,0
1523612970042,0,-109,-56,-1,-1,0
1523612970042,-196608,-109,-56,-1,-1,0
1523612970042,-262144,-109,-56,-1,-1,0
1523612970081,-327680,-109,-56,-1,-1,0
1523612970081,-393216,-109,-56,-1,-1,0
1523612970081,-393216,-109,-56,-1,-1,0
1523612970081,-327680,-109,-56,-1,-1,0
1523612970081,-327680,-109,-56,-1,-1,0
1523612970121,-262144,-109,-56,-1,-1,0
1523612970121,-196608,-109,-56,-1,-1,0
1523612970121,-196608,-109,-56,-1,-1,0
1523612970121,-262144,-109,-56,-1,-1,0
1523612970121,-327680,-109,-56,-1,-1,0
1523612970162,-393216,-109,-56,-1,-1,0
1523612970162,-393216,-109,-56,-1,-1,0
1523612970162,-393216,-109,-56,-1,-1,0
1523612970162,-458752,-109,-56,-1,-1,0
1523612970162,-524288,-109,-56,-1,-1,0
1523612970203,-786432,-109,-56,-1,-1,0
1523612970203,-1507328,-109,-56,-1,-1,0
1523612970203,-1769472,-109,-56,-1,-1,0
1523612970203,0,-109,-56,-1,-1,0
1523612970203,2883584,-109,-56,-1,-1,0
1523612970241,3801088,-109,-56,-1,-1,0
1523612970241,1245184,-109,-56,-1,-1,0
1523612970241,-1507328,-109,-56,-1,-1,0
1523612970241,-2359296,-109,-56,-1,-1,0
1523612970241,-1966080,-109,-56,-1,-1,0
1523612970282,-1376256,-109,-56,-1,-1,0
1523612970282,-851968,-109,-56,-1,-1,0
1523612970282,-524288,-109,-56,-1,-1,0
1523612970282,-458752,-109,-56,-1,-1,0
1523612970282,-393216,-109,-56,-1,-1,0
1523612970321,-327680,-109,-56,-1,-1,0
1523612970321,-196608,-109,-56,-1,-1,0
1523612970321,-65536,-109,-56,-1,-1,0
1523612970321,0,-109,-56,-1,-1,0
1523612970321,65536,-109,-56,-1,-1,0
1523612970361,262144,-109,-56,-1,-1,0
1523612970361,458752,-109,-56,-1,-1,0
1523612970361,655360,-109,-56,-1,-1,0
1523612970361,720896,-109,-56,-1,-1,0
1523612970361,786432,-109,-56,-1,-1,0
1523612970401,786432,-109,-56,-1,-1,0
1523612970401,851968,-109,-56,-1,-1,0
1523612970401,851968,-109,-56,-1,-1,0
1523612970401,786432,-109,-56,-1,-1,0
1523612970401,589824,-109,-56,-1,-1,0
1523612970441,327680,-109,-56,-1,-1,0
1523612970441,65536,-109,-56,-1,-1,0
1523612970441,0,-109,-56,-1,-1,0
1523612970441,-131072,-109,-56,-1,-1,0
1523612970441,-196608,-109,-56,-1,-1,0
1523612970482,-262144,-109,-56,-1,-1,0
1523612970482,-262144,-109,-56,-1,-1,0
1523612970482,-262144,-109,-56,-1,-1,0
1523612970482,-196608,-109,-56,-1,-1,0
1523612970482,-65536,-109,-56,-1,-1,0
1523612970523,-65536,-109,-56,-1,-1,0
1523612970523,-65536,-109,-56,-1,-1,0
1523612970523,-131072,-109,-56,-1,-1,0
1523612970523,-196608,-109,-56,-1,-1,0
1523612970523,-262144,-109,-56,-1,-1,0
1523612970564,-262144,-109,-56,-1,-1,0
1523612970564,-262144,-109,-56,-1,-1,0
1523612970564,-327680,-109,-56,-1,-1,0
1523612970564,-393216,-109,-56,-1,-1,0
1523612970564,-786432,-109,-56,-1,-1,0
1523612970601,-1572864,-109,-56,-1,-1,0
1523612970601,-1638400,-109,-56,-1,-1,0
1523612970601,262144,-109,-56,-1,-1,0
1523612970601,3276800,-109,-56,-1,-1,0
1523612970601,3735552,-109,-56,-1,-1,0
1523612970641,1114112,-109,-56,-1,-1,0
1523612970641,-1572864,-109,-56,-1,-1,0
1523612970641,-2162688,-109,-56,-1,-1,0
1523612970641,-1769472,-109,-56,-1,-1,0
1523612970641,-1245184,-109,-56,-1,-1,0
1523612970682,-786432,-108,-56,-1,-1,0
1523612970682,-589824,-108,-56,-1,-1,0
1523612970682,-458752,-108,-56,-1,-1,0
1523612970682,-327680,-108,-56,-1,-1,0
1523612970682,-262144,-108,-56,-1,-1,0
1523612970721,-131072,-108,-56,-1,-1,0
1523612970721,0,-108,-56,-1,-1,0
1523612970721,65536,-108,-56,-1,-1,0
1523612970721,196608,-108,-56,-1,-1,0
1523612970721,393216,-108,-56,-1,-1,0
1523612970761,589824,-108,-56,-1,-1,0
1523612970761,720896,-108,-56,-1,-1,0
1523612970761,786432,-108,-56,-1,-1,0
1523612970761,786432,-108,-56,-1,-1,0
1523612970761,720896,-108,-56,-1,-1,0
1523612970801,720896,-108,-56,-1,-1,0
1523612970801,720896,-108,-56,-1,-1,0
1523612970801,655360,-108,-56,-1,-1,0
1523612970801,393216,-108,-56,-1,-1,0
1523612970801,196608,-108,-56,-1,-1,0
1523612970843,65536,-108,-56,-1,-1,0
1523612970843,0,-108,-56,-1,-1,0
1523612970843,-65536,-108,-56,-1,-1,0
1523612970843,-131072,-108,-56,-1,-1,0
1523612970843,-196608,-108,-56,-1,-1,0
1523612970881,-131072,-108,-56,-1,-1,0
1523612970881,-65536,-108,-56,-1,-1,0
1523612970881,-65536,-108,-56,-1,-1,0
1523612970881,-65536,-108,-56,-1,-1,0
1523612970881,0,-108,-56,-1,-1,0
1523612970922,65536,-108,-56,-1,-1,0
1523612970922,0,-108,-56,-1,-1,0
1523612970922,-65536,-108,-56,-1,-1,0
1523612970922,-65536,-108,-56,-1,-1,0
1523612970922,-65536,-108,-56,-1,-1,0
1523612970961,0,-108,-56,-1,-1,0
1523612970961,0,-108,-56,-1,-1,0
1523612970961,-65536,-108,-56,-1,-1,0
1523612970961,-655360,-108,-56,-1,-1,0
1523612970961,-1507328,-108,-56,-1,-1,0
1523612971001,-1048576,-108,-56,-1,-1,0
1523612971001,1507328,-108,-56,-1,-1,0
1523612971001,4259840,-108,-56,-1,-1,0
1523612971001,3670016,-108,-56,-1,-1,0
1523612971001,589824,-108,-56,-1,-1,0
1523612971041,-1507328,-108,-56,-1,-1,0
1523612971041,-1703936,-108,-56,-1,-1,0
1523612971041,-1310720,-108,-56,-1,-1,0
1523612971041,-786432,-108,-56,-1,-1,0
1523612971041,-393216,-108,-56,-1,-1,0
1523612971082,-262144,-108,-56,-1,-1,0
1523612971082,-196608,-108,-56,-1,-1,0
1523612971082,0,-108,-56,-1,-1,0
1523612971082,131072,-108,-56,-1,-1,0
1523612971082,196608,-108,-56,-1,-1,0
1523612971121,262144,-108,-56,-1,-1,0
1523612971121,393216,-108,-56,-1,-1,0
1523612971121,589824,-108,-56,-1,-1,0
1523612971121,851968,-108,-56,-1,-1,0
1523612971121,983040,-108,-56,-1,-1,0
1523612971162,917504,-108,-56,-1,-1,0
1523612971162,917504,-108,-56,-1,-1,0
1523612971162,983040,-108,-56,-1,-1,0
1523612971162,1114112,-108,-56,-1,-1,0
1523612971162,1179648,-108,-56,-1,-1,0
1523612971201,1179648,-108,-56,-1,-1,0
1523612971201,917504,-108,-56,-1,-1,0
1523612971201,458752,-108,-56,-1,-1,0
1523612971201,0,-108,-56,-1,-1,0
1523612971201,-65536,-108,-56,-1,-1,0
1523612971242,-65536,-108,-56,-1,-1,0
1523612971242,-131072,-108,-56,-1,-1,0
1523612971242,-327680,-108,-56,-1,-1,0
1523612971242,-458752,-108,-56,-1,-1,0
1523612971242,-196608,-108,-56,-1,-1,0
1523612971281,65536,-108,-56,-1,-1,0
1523612971281,327680,-108,-56,-1,-1,0
1523612971281,196608,-108,-56,-1,-1,0
1523612971281,0,-108,-56,-1,-1,0
1523612971281,0,-108,-56,-1,-1,0
1523612971321,196608,-108,-56,-1,-1,0
1523612971321,262144,-108,-56,-1,-1,0
1523612971321,262144,-108,-56,-1,-1,0
1523612971321,327680,-108,-56,-1,-1,0
1523612971321,393216,-108,-56,-1,-1,0
1523612971361,393216,-108,-56,-1,-1,0
1523612971361,131072,-108,-56,-1,-1,0
1523612971361,-458752,-108,-56,-1,-1,0
1523612971361,-589824,-108,-56,-1,-1,0
1523612971361,1179648,-108,-56,-1,-1,0
1523612971401,4194304,-108,-56,-1,-1,0
1523612971401,5242880,-108,-56,-1,-1,0
1523612971401,2752512,-108,-56,-1,-1,0
1523612971401,-262144,-108,-56,-1,-1,0
1523612971401,-1245184,-108,-56,-1,-1,0
1523612971441,-851968,-106,-56,-1,-1,0
1523612971441,-196608,-106,-56,-1,-1,0
1523612971441,393216,-106,-56,-1,-1,0
1523612971441,786432,-106,-56,-1,-1,0
1523612971441,983040,-106,-56,-1,-1,0
1523612971483,1310720,-106,-56,-1,-1,0
1523612971483,1441792,-106,-56,-1,-1,0
1523612971483,1441792,-106,-56,-1,-1,0
1523612971483,1310720,-106,-56,-1,-1,0
1523612971483,1376256,-106,-56,-1,-1,0
1523612971521,1572864,-106,-56,-1,-1,0
1523612971521,1769472,-106,-56,-1,-1,0
1523612971521,1966080,-106,-56,-1,-1,0
1523612971521,2097152,-106,-56,-1,-1,0
1523612971521,2097152,-106,-56,-1,-1,0
1523612971562,2031616,-106,-56,-1,-1,0
1523612971562,1900544,-106,-56,-1,-1,0
1523612971562,1900544,-106,-56,-1,-1,0
1523612971562,1769472,-106,-56,-1,-1,0
1523612971562,1638400,-106,-56,-1,-1,0
1523612971601,1376256,-106,-56,-1,-1,0
1523612971601,1048576,-106,-56,-1,-1,0
1523612971601,851968,-106,-56,-1,-1,0
1523612971601,589824,-106,-56,-1,-1,0
1523612971601,327680,-106,-56,-1,-1,0
1523612971642,262144,-106,-56,-1,-1,0
1523612971642,327680,-106,-56,-1,-1,0
1523612971642,393216,-106,-56,-1,-1,0
1523612971642,393216,-106,-56,-1,-1,0
1523612971642,524288,-106,-56,-1,-1,0
1523612971681,589824,-106,-56,-1,-1,0
1523612971681,655360,-106,-56,-1,-1,0
1523612971681,786432,-106,-56,-1,-1,0
1523612971681,917504,-106,-56,-1,-1,0
1523612971681,655360,-106,-56,-1,-1,0
1523612971721,524288,-106,-56,-1,-1,0
1523612971721,589824,-106,-56,-1,-1,0
1523612971721,589824,-106,-56,-1,-1,0
1523612971721,262144,-106,-56,-1,-1,0
1523612971721,-65536,-106,-56,-1,-1,0
1523612971761,-524288,-106,-56,-1,-1,0
1523612971761,-917504,-106,-56,-1,-1,0
1523612971761,-262144,-106,-56,-1,-1,0
1523612971761,1966080,-106,-56,-1,-1,0
1523612971761,4587520,-106,-56,-1,-1,0
1523612971802,4259840,-106,-56,-1,-1,0
1523612971802,1048576,-106,-56,-1,-1,0
1523612971802,-1638400,-106,-56,-1,-1,0
1523612971802,-2162688,-106,-56,-1,-1,0
1523612971802,-1703936,-106,-56,-1,-1,0
1523612971841,-917504,-106,-56,-1,-1,0
1523612971841,-196608,-106,-56,-1,-1,0
1523612971841,0,-106,-56,-1,-1,0
1523612971841,0,-106,-56,-1,-1,0
1523612971841,-65536,-106,-56,-1,-1,0
1523612971882,0,-106,-56,-1,-1,0
1523612971882,65536,-106,-56,-1,-1,0
1523612971882,65536,-106,-56,-1,-1,0
1523612971882,131072,-106,-56,-1,-1,0
1523612971882,327680,-106,-56,-1,-1,0
1523612971921,589824,-106,-56,-1,-1,0
1523612971921,786432,-106,-56,-1,-1,0
1523612971921,983040,-106,-56,-1,-1,0
1523612971921,983040,-106,-56,-1,-1,0
1523612971921,917504,-106,-56,-1,-1,0
1523612971962,786432,-106,-56,-1,-1,0
1523612971962,655360,-106,-56,-1,-1,0
1523612971962,589824,-106,-56,-1,-1,0
1523612971962,458752,-106,-56,-1,-1,0
1523612971962,524288,-106,-56,-1,-1,0
1523612972001,458752,-106,-56,-1,-1,0
1523612972001,262144,-106,-56,-1,-1,0
1523612972001,-65536,-106,-56,-1,-1,0
1523612972001,-458752,-106,-56,-1,-1,0
1523612972001,-589824,-106,-56,-1,-1,0
1523612972042,-262144,-106,-56,-1,-1,0
1523612972042,-65536,-106,-56,-1,-1,0
1523612972042,-65536,-106,-56,-1,-1,0
1523612972042,-65536,-106,-56,-1,-1,0
1523612972042,0,-106,-56,-1,-1,0
1523612972082,0,-106,-56,-1,-1,0
1523612972082,0,-106,-56,-1,-1,0
1523612972082,131072,-106,-56,-1,-1,0
1523612972082,0,-106,-56,-1,-1,0
1523612972082,0,-106,-56,-1,-1,0
1523612972124,-65536,-106,-56,-1,-1,0
1523612972124,-65536,-106,-56,-1,-1,0
1523612972124,-131072,-106,-56,-1,-1,0
1523612972124,-131072,-106,-56,-1,-1,0
1523612972124,-589824,-106,-56,-1,-1,0
1523612972161,-1310720,-106,-56,-1,-1,0
1523612972161,-458752,-106,-56,-1,-1,0
1523612972161,2424832,-106,-56,-1,-1,0
1523612972161,4915200,-106,-56,-1,-1,0
1523612972161,3801088,-106,-56,-1,-1,0
1523612972202,589824,-106,-56,-1,-1,0
1523612972202,-1507328,-106,-56,-1,-1,0
1523612972202,-1572864,-106,-56,-1,-1,0
1523612972202,-983040,-106,-56,-1,-1,0
1523612972202,-393216,-106,-56,-1,-1,0
1523612972241,0,-105,-56,-1,-1,0
1523612972241,131072,-105,-56,-1,-1,0
1523612972241,196608,-105,-56,-1,-1,0
1523612972241,131072,-105,-56,-1,-1,0
1523612972241,65536,-105,-56,-1,-1,0
1523612972282,327680,-105,-56,-1,-1,0
1523612972282,655360,-105,-56,-1,-1,0
1523612972282,720896,-105,-56,-1,-1,0
1523612972282,655360,-105,-56,-1,-1,0
1523612972282,786432,-105,-56,-1,-1,0
1523612972321,1048576,-105,-56,-1,-1,0
1523612972321,1245184,-105,-56,-1,-1,0
1523612972321,1507328,-105,-56,-1,-1,0
1523612972321,1507328,-105,-56,-1,-1,0
1523612972321,1179648,-105,-56,-1,-1,0
1523612972362,983040,-105,-56,-1,-1,0
1523612972362,1048576,-105,-56,-1,-1,0
1523612972362,1114112,-105,-56,-1,-1,0
1523612972362,1114112,-105,-56,-1,-1,0
1523612972362,983040,-105,-56,-1,-1,0
1523612972401,786432,-105,-56,-1,-1,0
1523612972401,589824,-105,-56,-1,-1,0
1523612972401,458752,-105,-56,-1,-1,0
1523612972401,524288,-105,-56,-1,-1,0
1523612972401,655360,-105,-56,-1,-1,0
1523612972442,720896,-105,-56,-1,-1,0
1523612972442,720896,-105,-56,-1,-1,0
1523612972442,851968,-105,-56,-1,-1,0
1523612972442,917504,-105,-56,-1,-1,0
1523612972442,917504,-105,-56,-1,-1,0
1523612972481,1048576,-105,-56,-1,-1,0
1523612972481,1310720,-105,-56,-1,-1,0
1523612972481,1376256,-105,-56,-1,-1,0
1523612972481,1048576,-105,-56,-1,-1,0
1523612972481,851968,-105,-56,-1,-1,0
1523612972521,917504,-105,-56,-1,-1,0
1523612972521,1048576,-105,-56,-1,-1,0
1523612972521,917504,-105,-56,-1,-1,0
1523612972521,196608,-105,-56,-1,-1,0
1523612972521,-262144,-105,-56,-1,-1,0
1523612972561,917504,-105,-56,-1,-1,0
1523612972561,3932160,-105,-56,-1,-1,0
1523612972561,5832704,-105,-56,-1,-1,0
1523612972561,4063232,-105,-56,-1,-1,0
1523612972561,917504,-105,-56,-1,-1,0
1523612972601,-720896,-105,-56,-1,-1,0
1523612972601,-655360,-105,-56,-1,-1,0
1523612972601,-131072,-105,-56,-1,-1,0
1523612972601,589824,-105,-56,-1,-1,0
1523612972601,1048576,-105,-56,-1,-1,0
1523612972641,1114112,-105,-56,-1,-1,0
1523612972641,1179648,-105,-56,-1,-1,0
1523612972641,1310720,-105,-56,-1,-1,0
1523612972641,1441792,-105,-56,-1,-1,0
1523612972641,1441792,-105,-56,-1,-1,0
1523612972681,1572864,-105,-56,-1,-1,0
1523612972681,1835008,-105,-56,-1,-1,0
1523612972681,1900544,-105,-56,-1,-1,0
1523612972681,2031616,-105,-56,-1,-1,0
1523612972681,2228224,-105,-56,-1,-1,0
1523612972721,2424832,-105,-56,-1,-1,0
1523612972721,2555904,-105,-56,-1,-1,0
1523612972721,2555904,-105,-56,-1,-1,0
1523612972721,2490368,-105,-56,-1,-1,0
1523612972721,2424832,-105,-56,-1,-1,0
1523612972762,2424832,-105,-56,-1,-1,0
1523612972762,2359296,-105,-56,-1,-1,0
1523612972762,2162688,-105,-56,-1,-1,0
1523612972762,1966080,-105,-56,-1,-1,0
1523612972762,1769472,-105,-56,-1,-1,0
1523612972804,1638400,-105,-56,-1,-1,0
1523612972804,1507328,-105,-56,-1,-1,0
1523612972804,1441792,-105,-56,-1,-1,0
1523612972804,1441792,-105,-56,-1,-1,0
1523612972804,1507328,-105,-56,-1,-1,0
1523612972842,1507328,-105,-56,-1,-1,0
1523612972842,1638400,-105,-56,-1,-1,0
1523612972842,1703936,-105,-56,-1,-1,0
1523612972842,1572864,-105,-56,-1,-1,0
1523612972842,1507328,-105,-56,-1,-1,0
1523612972881,1703936,-105,-56,-1,-1,0
1523612972881,1769472,-105,-56,-1,-1,0
1523612972881,1638400,-105,-56,-1,-1,0
1523612972881,1310720,-105,-56,-1,-1,0
1523612972881,1179648,-105,-56,-1,-1,0
1523612972921,1245184,-105,-56,-1,-1,0
1523612972921,983040,-105,-56,-1,-1,0
1523612972921,196608,-105,-56,-1,-1,0
1523612972921,262144,-105,-56,-1,-1,0
1523612972921,2555904,-105,-56,-1,-1,0
1523612972961,5767168,-105,-56,-1,-1,0
1523612972961,6160384,-105,-56,-1,-1,0
1523612972961,3276800,-105,-56,-1,-1,0
1523612972961,393216,-105,-56,-1,-1,0
1523612972961,-196608,-105,-56,-1,-1,0
1523612973001,262144,-103,-56,-1,-1,0
1523612973001,851968,-103,-56,-1,-1,0
1523612973001,1376256,-103,-56,-1,-1,0
1523612973001,1638400,-103,-56,-1,-1,0
1523612973001,1835008,-103,-56,-1,-1,0
1523612973041,1966080,-103,-56,-1,-1,0
1523612973041,2228224,-103,-56,-1,-1,0
1523612973041,2555904,-103,-56,-1,-1,0
1523612973041,2621440,-103,-56,-1,-1,0
1523612973041,2490368,-103,-56,-1,-1,0
1523612973082,2359296,-103,-56,-1,-1,0
1523612973082,2424832,-103,-56,-1,-1,0
1523612973082,2424832,-103,-56,-1,-1,0
1523612973082,2293760,-103,-56,-1,-1,0
1523612973082,2162688,-103,-56,-1,-1,0
1523612973121,1900544,-103,-56,-1,-1,0
1523612973121,1507328,-103,-56,-1,-1,0
1523612973121,1179648,-103,-56,-1,-1,0
1523612973121,851968,-103,-56,-1,-1,0
1523612973121,589824,-103,-56,-1,-1,0
1523612973161,131072,-103,-56,-1,-1,0
1523612973161,-262144,-103,-56,-1,-1,0
1523612973161,-655360,-103,-56,-1,-1,0
1523612973161,-786432,-103,-56,-1,-1,0
1523612973161,-851968,-103,-56,-1,-1,0
1523612973201,-786432,-103,-56,-1,-1,0
1523612973201,-720896,-103,-56,-1,-1,0
1523612973201,-524288,-103,-56,-1,-1,0
1523612973201,-327680,-103,-56,-1,-1,0
1523612973201,-262144,-103,-56,-1,-1,0
1523612973242,-196608,-103,-56,-1,-1,0
1523612973242,-262144,-103,-56,-1,-1,0
1523612973242,-393216,-103,-56,-1,-1,0
1523612973242,-589824,-103,-56,-1,-1,0
1523612973242,-786432,-103,-56,-1,-1,0
1523612973281,-851968,-103,-56,-1,-1,0
1523612973281,-983040,-103,-56,-1,-1,0
1523612973281,-1114112,-103,-56,-1,-1,0
1523612973281,-1245184,-103,-56,-1,-1,0
1523612973281,-1441792,-103,-56,-1,-1,0
1523612973321,-2097152,-103,-56,-1,-1,0
1523612973321,-2883584,-103,-56,-1,-1,0
1523612973321,-2424832,-103,-56,-1,-1,0
1523612973321,327680,-103,-56,-1,-1,0
1523612973321,2949120,-103,-56,-1,-1,0
1523612973361,1703936,-103,-56,-1,-1,0
1523612973361,-1703936,-103,-56,-1,-1,0
1523612973361,-4063232,-103,-56,-1,-1,0
1523612973361,-4390912,-103,-56,-1,-1,0
1523612973361,-4063232,-103,-56,-1,-1,0
1523612973403,-3670016,-103,-56,-1,-1,0
1523612973403,-3407872,-103,-56,-1,-1,0
1523612973403,-3342336,-103,-56,-1,-1,0
1523612973403,-3342336,-103,-56,-1,-1,0
1523612973403,-3407872,-103,-56,-1,-1,0
1523612973441,-3276800,-103,-56,-1,-1,0
1523612973441,-3145728,-103,-56,-1,-1,0
1523612973441,-3080192,-103,-56,-1,-1,0
1523612973441,-3080192,-103,-56,-1,-1,0
1523612973441,-2949120,-103,-56,-1,-1,0
1523612973482,-2752512,-103,-56,-1,-1,0
1523612973482,-2490368,-103,-56,-1,-1,0
1523612973482,-2228224,-103,-56,-1,-1,0
1523612973482,-2162688,-103,-56,-1,-1,0
1523612973482,-2162688,-103,-56,-1,-1,0
1523612973521,-2162688,-103,-56,-1,-1,0
1523612973521,-2097152,-103,-56,-1,-1,0
1523612973521,-2097152,-103,-56,-1,-1,0
1523612973521,-2162688,-103,-56,-1,-1,0
1523612973521,-2424832,-103,-56,-1,-1,0
1523612973561,-2621440,-103,-56,-1,-1,0
1523612973561,-2752512,-103,-56,-1,-1,0
1523612973561,-2686976,-103,-56,-1,-1,0
1523612973561,-2621440,-103,-56,-1,-1,0
1523612973561,-2424832,-103,-56,-1,-1,0
1523612973601,-2359296,-103,-56,-1,-1,0
1523612973601,-2293760,-103,-56,-1,-1,0
1523612973601,-2228224,-103,-56,-1,-1,0
1523612973601,-2162688,-103,-56,-1,-1,0
1523612973601,-2031616,-103,-56,-1,-1,0
1523612973641,-1966080,-103,-56,-1,-1,0
1523612973641,-1900544,-103,-56,-1,-1,0
1523612973641,-1900544,-103,-56,-1,-1,0
1523612973641,-1966080,-103,-56,-1,-1,0
1523612973641,-2031616,-103,-56,-1,-1,0
1523612973681,-2031616,-103,-56,-1,-1,0
1523612973681,-2097152,-103,-56,-1,-1,0
1523612973681,-2031616,-103,-56,-1,-1,0
1523612973681,-2228224,-103,-56,-1,-1,0
1523612973681,-2949120,-103,-56,-1,-1,0
1523612973721,-2949120,-103,-56,-1,-1,0
1523612973721,-655360,-103,-56,-1,-1,0
1523612973721,2555904,-103,-56,-1,-1,0
1523612973721,3342336,-103,-56,-1,-1,0
1523612973721,655360,-103,-56,-1,-1,0
1523612973761,-2228224,-103,-56,-1,-1,0
1523612973761,-3080192,-103,-56,-1,-1,0
1523612973761,-2686976,-103,-56,-1,-1,0
1523612973761,-2162688,-103,-56,-1,-1,0
1523612973761,-1638400,-103,-56,-1,-1,0
1523612973802,-1310720,-103,-56,-1,-1,0
1523612973802,-1048576,-103,-56,-1,-1,0
1523612973802,-851968,-103,-56,-1,-1,0
1523612973802,-786432,-103,-56,-1,-1,0
1523612973802,-851968,-103,-56,-1,-1,0
1523612973841,-786432,-103,-56,-1,-1,0
1523612973841,-655360,-103,-56,-1,-1,0
1523612973841,-458752,-103,-56,-1,-1,0
1523612973841,-196608,-103,-56,-1,-1,0
1523612973841,0,-103,-56,-1,-1,0
1523612973882,393216,-103,-56,-1,-1,0
1523612973882,524288,-103,-56,-1,-1,0
1523612973882,262144,-103,-56,-1,-1,0
1523612973882,0,-103,-56,-1,-1,0
1523612973882,0,-103,-56,-1,-1,0
1523612973921,0,-103,-56,-1,-1,0
1523612973921,0,-103,-56,-1,-1,0
1523612973921,-196608,-103,-56,-1,-1,0
1523612973921,-524288,-103,-56,-1,-1,0
1523612973921,-720896,-103,-56,-1,-1,0
1523612973961,-851968,-103,-56,-1,-1,0
1523612973961,-1114112,-103,-56,-1,-1,0
1523612973961,-1376256,-103,-56,-1,-1,0
1523612973961,-1572864,-103,-56,-1,-1,0
1523612973961,-1703936,-103,-56,-1,-1,0
1523612974001,-1769472,-103,-56,-1,-1,0
1523612974001,-1638400,-103,-56,-1,-1,0
1523612974001,-1245184,-103,-56,-1,-1,0
1523612974001,-851968,-103,-56,-1,-1,0
1523612974001,-786432,-103,-56,-1,-1,0
1523612974043,-983040,-103,-56,-1,-1,0
1523612974043,-1179648,-103,-56,-1,-1,0
1523612974043,-1245184,-103,-56,-1,-1,0
1523612974043,-1245184,-103,-56,-1,-1,0
1523612974043,-1376256,-103,-56,-1,-1,0
1523612974082,-1310720,-103,-56,-1,-1,0
1523612974082,-1310720,-103,-56,-1,-1,0
1523612974082,-1835008,-103,-56,-1,-1,0
1523612974082,-2621440,-103,-56,-1,-1,0
1523612974082,-2359296,-103,-56,-1,-1,0
1523612974122,131072,-103,-56,-1,-1,0
1523612974122,3211264,-103,-56,-1,-1,0
1523612974122,3080192,-103,-56,-1,-1,0
1523612974122,0,-103,-56,-1,-1,0
1523612974122,-2818048,-103,-56,-1,-1,0
1523612974162,-3342336,-103,-56,-1,-1,0
1523612974162,-2883584,-103,-56,-1,-1,0
1523612974162,-2293760,-103,-56,-1,-1,0
1523612974162,-1900544,-103,-56,-1,-1,0
1523612974162,-1769472,-103,-56,-1,-1,0
1523612974203,-1638400,-103,-56,-1,-1,0
1523612974203,-1572864,-103,-56,-1,-1,0
1523612974203,-1441792,-103,-56,-1,-1,0
1523612974203,-1376256,-103,-56,-1,-1,0
1523612974203,-1179648,-103,-56,-1,-1,0
1523612974241,-1048576,-103,-56,-1,-1,0
1523612974241,-983040,-103,-56,-1,-1,0
1523612974241,-851968,-103,-56,-1,-1,0
1523612974241,-589824,-103,-56,-1,-1,0
1523612974241,-393216,-103,-56,-1,-1,0
1523612974282,-196608,-103,-56,-1,-1,0
1523612974282,-196608,-103,-56,-1,-1,0
1523612974282,-196608,-103,-56,-1,-1,0
1523612974282,-327680,-103,-56,-1,-1,0
1523612974282,-393216,-103,-56,-1,-1,0
1523612974321,-393216,-103,-56,-1,-1,0
1523612974321,-524288,-103,-56,-1,-1,0
1523612974321,-720896,-103,-56,-1,-1,0
1523612974321,-983040,-103,-56,-1,-1,0
1523612974321,-1114112,-103,-56,-1,-1,0
1523612974362,-1245184,-103,-56,-1,-1,0
1523612974362,-1310720,-103,-56,-1,-1,0
1523612974362,-1376256,-103,-56,-1,-1,0
1523612974362,-1310720,-103,-56,-1,-1,0
1523612974362,-1179648,-103,-56,-1,-1,0
1523612974402,-1048576,-103,-56,-1,-1,0
1523612974402,-983040,-103,-56,-1,-1,0
1523612974402,-983040,-103,-56,-1,-1,0
1523612974402,-983040,-103,-56,-1,-1,0
1523612974402,-917504,-103,-56,-1,-1,0
1523612974442,-983040,-103,-56,-1,-1,0
1523612974442,-1114112,-103,-56,-1,-1,0
1523612974442,-1114112,-103,-56,-1,-1,0
1523612974442,-1114112,-103,-56,-1,-1,0
1523612974442,-1048576,-103,-56,-1,-1,0
1523612974481,-1179648,-103,-56,-1,-1,0
1523612974481,-1966080,-103,-56,-1,-1,0
1523612974481,-2621440,-103,-56,-1,-1,0
1523612974481,-1507328,-103,-56,-1,-1,0
1523612974481,1572864,-103,-56,-1,-1,0
1523612974522,4128768,-103,-56,-1,-1,0
1523612974522,2883584,-103,-56,-1,-1,0
1523612974522,-393216,-103,-56,-1,-1,0
1523612974522,-2555904,-103,-56,-1,-1,0
1523612974522,-2686976,-103,-56,-1,-1,0
1523612974561,-2228224,-102,-56,-1,-1,0
1523612974561,-1572864,-102,-56,-1,-1,0
1523612974561,-1245184,-102,-56,-1,-1,0
1523612974561,-1114112,-102,-56,-1,-1,0
1523612974561,-1048576,-102,-56,-1,-1,0
1523612974602,-983040,-102,-56,-1,-1,0
1523612974602,-851968,-102,-56,-1,-1,0
1523612974602,-655360,-102,-56,-1,-1,0
1523612974602,-458752,-102,-56,-1,-1,0
1523612974602,-327680,-102,-56,-1,-1,0
1523612974642,-196608,-102,-56,-1,-1,0
1523612974642,0,-102,-56,-1,-1,0
1523612974642,65536,-102,-56,-1,-1,0
1523612974642,131072,-102,-56,-1,-1,0
1523612974642,262144,-102,-56,-1,-1,0
1523612974682,262144,-102,-56,-1,-1,0
1523612974682,196608,-102,-56,-1,-1,0
1523612974682,196608,-102,-56,-1,-1,0
1523612974682,131072,-102,-56,-1,-1,0
1523612974682,0,-102,-56,-1,-1,0
1523612974721,-131072,-102,-56,-1,-1,0
1523612974721,-327680,-102,-56,-1,-1,0
1523612974721,-524288,-102,-56,-1,-1,0
1523612974721,-655360,-102,-56,-1,-1,0
1523612974721,-655360,-102,-56,-1,-1,0
1523612974762,-524288,-102,-56,-1,-1,0
1523612974762,-458752,-102,-56,-1,-1,0
1523612974762,-458752,-102,-56,-1,-1,0
1523612974762,-524288,-102,-56,-1,-1,0
1523612974762,-458752,-102,-56,-1,-1,0
1523612974802,-262144,-102,-56,-1,-1,0
1523612974802,-131072,-102,-56,-1,-1,0
1523612974802,-196608,-102,-56,-1,-1,0
1523612974802,-393216,-102,-56,-1,-1,0
1523612974802,-524288,-102,-56,-1,-1,0
1523612974842,-524288,-102,-56,-1,-1,0
1523612974842,-458752,-102,-56,-1,-1,0
1523612974842,-393216,-102,-56,-1,-1,0
1523612974842,-458752,-102,-56,-1,-1,0
1523612974842,-524288,-102,-56,-1,-1,0
1523612974881,-1048576,-102,-56,-1,-1,0
1523612974881,-1835008,-102,-56,-1,-1,0
1523612974881,-1310720,-102,-56,-1,-1,0
1523612974881,1507328,-102,-56,-1,-1,0
1523612974881,4653056,-102,-56,-1,-1,0
1523612974922,4194304,-102,-56,-1,-1,0
1523612974922,983040,-102,-56,-1,-1,0
1523612974922,-1572864,-102,-56,-1,-1,0
1523612974922,-2031616,-102,-56,-1,-1,0
1523612974922,-1638400,-102,-56,-1,-1,0
1523612974962,-1048576,-102,-56,-1,-1,0
1523612974962,-589824,-102,-56,-1,-1,0
1523612974962,-393216,-102,-56,-1,-1,0
1523612974962,-262144,-102,-56,-1,-1,0
1523612974962,-196608,-102,-56,-1,-1,0
1523612975002,-65536,-102,-56,-1,-1,0
1523612975002,0,-102,-56,-1,-1,0
1523612975002,131072,-102,-56,-1,-1,0
1523612975002,262144,-102,-56,-1,-1,0
1523612975002,458752,-102,-56,-1,-1,0
1523612975041,655360,-102,-56,-1,-1,0
1523612975041,851968,-102,-56,-1,-1,0
1523612975041,983040,-102,-56,-1,-1,0
1523612975041,1048576,-102,-56,-1,-1,0
1523612975041,1048576,-102,-56,-1,-1,0
1523612975082,983040,-102,-56,-1,-1,0
1523612975082,983040,-102,-56,-1,-1,0
1523612975082,917504,-102,-56,-1,-1,0
1523612975082,786432,-102,-56,-1,-1,0
1523612975082,655360,-102,-56,-1,-1,0
1523612975121,393216,-102,-56,-1,-1,0
1523612975121,262144,-102,-56,-1,-1,0
1523612975121,131072,-102,-56,-1,-1,0
1523612975121,65536,-102,-56,-1,-1,0
1523612975121,65536,-102,-56,-1,-1,0
1523612975162,0,-102,-56,-1,-1,0
1523612975162,65536,-102,-56,-1,-1,0
1523612975162,65536,-102,-56,-1,-1,0
1523612975162,65536,-102,-56,-1,-1,0
1523612975162,131072,-102,-56,-1,-1,0
1523612975202,196608,-102,-56,-1,-1,0
1523612975202,131072,-102,-56,-1,-1,0
1523612975202,65536,-102,-56,-1,-1,0
1523612975202,0,-102,-56,-1,-1,0
1523612975202,0,-102,-56,-1,-1,0
1523612975242,0,-102,-56,-1,-1,0
1523612975242,0,-102,-56,-1,-1,0
1523612975242,-65536,-102,-56,-1,-1,0
1523612975242,-131072,-102,-56,-1,-1,0
1523612975242,-458752,-102,-56,-1,-1,0
1523612975282,-1310720,-102,-56,-1,-1,0
1523612975282,-1441792,-102,-56,-1,-1,0
1523612975282,655360,-102,-56,-1,-1,0
1523612975282,4128768,-102,-56,-1,-1,0
1523612975282,5242880,-102,-56,-1,-1,0
1523612975323,2686976,-102,-56,-1,-1,0
1523612975323,-458752,-102,-56,-1,-1,0
1523612975323,-1638400,-102,-56,-1,-1,0
1523612975323,-1376256,-102,-56,-1,-1,0
1523612975323,-917504,-102,-56,-1,-1,0
1523612975362,-458752,-102,-56,-1,-1,0
1523612975362,-262144,-102,-56,-1,-1,0
1523612975362,-131072,-102,-56,-1,-1,0
1523612975362,0,-102,-56,-1,-1,0
1523612975362,0,-102,-56,-1,-1,0
1523612975402,131072,-102,-56,-1,-1,0
1523612975402,196608,-102,-56,-1,-1,0
1523612975402,327680,-102,-56,-1,-1,0
1523612975402,458752,-102,-56,-1,-1,0
1523612975402,589824,-102,-56,-1,-1,0
1523612975442,786432,-102,-56,-1,-1,0
1523612975442,917504,-102,-56,-1,-1,0
1523612975442,983040,-102,-56,-1,-1,0
1523612975442,917504,-102,-56,-1,-1,0
1523612975442,786432,-102,-56,-1,-1,0
1523612975482,786432,-102,-56,-1,-1,0
1523612975482,720896,-102,-56,-1,-1,0
1523612975482,655360,-102,-56,-1,-1,0
1523612975482,524288,-102,-56,-1,-1,0
1523612975482,327680,-102,-56,-1,-1,0
1523612975522,131072,-102,-56,-1,-1,0
1523612975522,0,-102,-56,-1,-1,0
1523612975522,0,-102,-56,-1,-1,0
1523612975522,-65536,-102,-56,-1,-1,0
1523612975522,-131072,-102,-56,-1,-1,0
1523612975562,-131072,-102,-56,-1,-1,0
1523612975562,-131072,-102,-56,-1,-1,0
1523612975562,-65536,-102,-56,-1,-1,0
1523612975562,0,-102,-56,-1,-1,0
1523612975562,0,-102,-56,-1,-1,0
1523612975602,0,-102,-56,-1,-1,0
1523612975602,0,-102,-56,-1,-1,0
1523612975602,-65536,-102,-56,-1,-1,0
1523612975602,-65536,-102,-56,-1,-1,0
1523612975602,-131072,-102,-56,-1,-1,0
1523612975642,-262144,-102,-56,-1,-1,0
1523612975642,-327680,-102,-56,-1,-1,0
1523612975642,-393216,-102,-56,-1,-1,0
1523612975642,-458752,-102,-56,-1,-1,0
1523612975642,-1114112,-102,-56,-1,-1,0
1523612975682,-1835008,-102,-56,-1,-1,0
1523612975682,-1114112,-102,-56,-1,-1,0
1523612975682,1638400,-102,-56,-1,-1,0
1523612975682,4390912,-102,-56,-1,-1,0
1523612975682,3735552,-102,-56,-1,-1,0
1523612975722,524288,-102,-56,-1,-1,0
1523612975722,-1835008,-102,-56,-1,-1,0
1523612975722,-2293760,-102,-56,-1,-1,0
1523612975722,-1900544,-102,-56,-1,-1,0
1523612975722,-1441792,-102,-56,-1,-1,0
1523612975762,-1048576,-102,-56,-1,-1,0
1523612975762,-851968,-102,-56,-1,-1,0
1523612975762,-786432,-102,-56,-1,-1,0
1523612975762,-720896,-102,-56,-1,-1,0
1523612975762,-589824,-102,-56,-1,-1,0
1523612975802,-524288,-102,-56,-1,-1,0
