milliseconds, ECG, ECG HR, PPG, PPG HR, SpO2, PI
1523631461829,-1310720,91,-56,-1,-1,0
1523631461829,-1507328,91,-56,-1,-1,0
1523631461829,-1835008,91,-56,-1,-1,0
1523631461829,-2162688,91,-56,-1,-1,0
1523631461829,-2293760,91,-56,-1,-1,0
1523631461871,-2228224,92,-56,-1,-1,0
1523631461871,-1900544,92,-56,-1,-1,0
1523631461871,-1310720,92,-56,-1,-1,0
1523631461871,-851968,92,-56,-1,-1,0
1523631461871,-786432,92,-56,-1,-1,0
1523631461909,-1048576,92,-56,-1,-1,0
1523631461909,-1245184,92,-56,-1,-1,0
1523631461909,-1376256,92,-56,-1,-1,0
1523631461909,-1441792,92,-56,-1,-1,0
1523631461909,-1376256,92,-56,-1,-1,0
1523631461949,-1245184,92,-56,-1,-1,0
1523631461949,-131072,92,-56,-1,-1,0
1523631461949,3997696,92,-56,-1,-1,0
1523631461949,9371648,92,-56,-1,-1,0
1523631461949,8847360,92,-56,-1,-1,0
1523631461989,1638400,92,-56,-1,-1,0
1523631461989,-4063232,92,-56,-1,-1,0
1523631461989,-4194304,92,-56,-1,-1,0
1523631461989,-2293760,92,-56,-1,-1,0
1523631461989,-1376256,92,-56,-1,-1,0
1523631462029,-1114112,92,-56,-1,-1,0
1523631462029,-1179648,92,-56,-1,-1,0
1523631462029,-1245184,92,-56,-1,-1,0
1523631462029,-1245184,92,-56,-1,-1,0
1523631462029,-1114112,92,-56,-1,-1,0
1523631462069,-851968,92,-56,-1,-1,0
1523631462069,-720896,92,-56,-1,-1,0
1523631462069,-720896,92,-56,-1,-1,0
1523631462069,-720896,92,-56,-1,-1,0
1523631462069,-458752,92,-56,-1,-1,0
1523631462109,-196608,92,-56,-1,-1,0
1523631462109,-65536,92,-56,-1,-1,0
1523631462109,0,92,-56,-1,-1,0
1523631462109,262144,92,-56,-1,-1,0
1523631462109,720896,92,-56,-1,-1,0
1523631462149,1179648,92,-56,-1,-1,0
1523631462149,1572864,92,-56,-1,-1,0
1523631462149,2031616,92,-56,-1,-1,0
1523631462149,2621440,92,-56,-1,-1,0
1523631462149,3276800,92,-56,-1,-1,0
1523631462189,4063232,92,-56,-1,-1,0
1523631462189,4587520,92,-56,-1,-1,0
1523631462189,4784128,92,-56,-1,-1,0
1523631462189,4980736,92,-56,-1,-1,0
1523631462189,4915200,92,-56,-1,-1,0
1523631462229,4521984,92,-56,-1,-1,0
1523631462229,3670016,92,-56,-1,-1,0
1523631462229,2752512,92,-56,-1,-1,0
1523631462229,1900544,92,-56,-1,-1,0
1523631462229,917504,92,-56,-1,-1,0
1523631462269,65536,92,-56,-1,-1,0
1523631462269,-393216,92,-56,-1,-1,0
1523631462269,-589824,92,-56,-1,-1,0
1523631462269,-720896,92,-56,-1,-1,0
1523631462269,-786432,92,-56,-1,-1,0
1523631462309,-851968,92,-56,-1,-1,0
1523631462309,-851968,92,-56,-1,-1,0
1523631462309,-851968,92,-56,-1,-1,0
1523631462309,-983040,92,-56,-1,-1,0
1523631462309,-1114112,92,-56,-1,-1,0
1523631462349,-1114112,92,-56,-1,-1,0
1523631462349,-1245184,92,-56,-1,-1,0
1523631462349,-1310720,92,-56,-1,-1,0
1523631462349,-1376256,92,-56,-1,-1,0
1523631462349,-1310720,92,-56,-1,-1,0
1523631462389,-1245184,92,-56,-1,-1,0
1523631462389,-1310720,92,-56,-1,-1,0
1523631462389,-1310720,92,-56,-1,-1,0
1523631462389,-1376256,92,-56,-1,-1,0
1523631462389,-1441792,92,-56,-1,-1,0
1523631462429,-1376256,92,-56,-1,-1,0
1523631462429,-1245184,92,-56,-1,-1,0
1523631462429,-1376256,92,-56,-1,-1,0
1523631462429,-1638400,92,-56,-1,-1,0
1523631462429,-1900544,92,-56,-1,-1,0
1523631462469,-2097152,92,-56,-1,-1,0
1523631462469,-2162688,92,-56,-1,-1,0
1523631462469,-2097152,92,-56,-1,-1,0
1523631462469,-1835008,92,-56,-1,-1,0
1523631462469,-1245184,92,-56,-1,-1,0
1523631462510,-851968,92,-56,-1,-1,0
1523631462510,-786432,92,-56,-1,-1,0
1523631462510,-1114112,92,-56,-1,-1,0
1523631462510,-1245184,92,-56,-1,-1,0
1523631462510,-1310720,92,-56,-1,-1,0
1523631462549,-1310720,92,-56,-1,-1,0
1523631462549,-1310720,92,-56,-1,-1,0
1523631462549,-1376256,92,-56,-1,-1,0
1523631462549,-786432,92,-56,-1,-1,0
1523631462549,2686976,92,-56,-1,-1,0
1523631462589,8519680,92,-56,-1,-1,0
1523631462589,9306112,92,-56,-1,-1,0
1523631462589,2621440,92,-56,-1,-1,0
1523631462589,-3932160,92,-56,-1,-1,0
1523631462589,-4718592,92,-56,-1,-1,0
1523631462629,-2752512,92,-56,-1,-1,0
1523631462629,-1638400,92,-56,-1,-1,0
1523631462629,-1376256,92,-56,-1,-1,0
1523631462629,-1441792,92,-56,-1,-1,0
1523631462629,-1310720,92,-56,-1,-1,0
1523631462669,-1114112,92,-56,-1,-1,0
1523631462669,-851968,92,-56,-1,-1,0
1523631462669,-786432,92,-56,-1,-1,0
1523631462669,-851968,92,-56,-1,-1,0
1523631462669,-655360,92,-56,-1,-1,0
1523631462709,-589824,92,-56,-1,-1,0
1523631462709,-524288,92,-56,-1,-1,0
1523631462709,-393216,92,-56,-1,-1,0
1523631462709,-65536,92,-56,-1,-1,0
1523631462709,131072,92,-56,-1,-1,0
1523631462749,458752,92,-56,-1,-1,0
1523631462749,786432,92,-56,-1,-1,0
1523631462749,1114112,92,-56,-1,-1,0
1523631462749,1638400,92,-56,-1,-1,0
1523631462749,2228224,92,-56,-1,-1,0
1523631462789,2818048,92,-56,-1,-1,0
1523631462789,3407872,92,-56,-1,-1,0
1523631462789,3997696,92,-56,-1,-1,0
1523631462789,4587520,92,-56,-1,-1,0
1523631462789,5111808,92,-56,-1,-1,0
1523631462829,5439488,92,-56,-1,-1,0
1523631462829,5439488,92,-56,-1,-1,0
1523631462829,5046272,92,-56,-1,-1,0
1523631462829,4128768,92,-56,-1,-1,0
1523631462829,3080192,92,-56,-1,-1,0
1523631462869,2097152,92,-56,-1,-1,0
1523631462869,1245184,92,-56,-1,-1,0
1523631462869,589824,92,-56,-1,-1,0
1523631462869,131072,92,-56,-1,-1,0
1523631462869,-196608,92,-56,-1,-1,0
1523631462909,-524288,92,-56,-1,-1,0
1523631462909,-589824,92,-56,-1,-1,0
1523631462909,-655360,92,-56,-1,-1,0
1523631462909,-851968,92,-56,-1,-1,0
1523631462909,-1114112,92,-56,-1,-1,0
1523631462949,-1114112,92,-56,-1,-1,0
1523631462949,-1114112,92,-56,-1,-1,0
1523631462949,-1179648,92,-56,-1,-1,0
1523631462949,-1179648,92,-56,-1,-1,0
1523631462949,-1245184,92,-56,-1,-1,0
1523631462989,-1245184,92,-56,-1,-1,0
1523631462989,-1179648,92,-56,-1,-1,0
1523631462989,-1310720,92,-56,-1,-1,0
1523631462989,-1441792,92,-56,-1,-1,0
1523631462989,-1507328,92,-56,-1,-1,0
1523631463029,-1572864,93,-56,-1,-1,0
1523631463029,-1638400,93,-56,-1,-1,0
1523631463029,-1769472,93,-56,-1,-1,0
1523631463029,-1900544,93,-56,-1,-1,0
1523631463029,-2097152,93,-56,-1,-1,0
1523631463069,-2293760,93,-56,-1,-1,0
1523631463069,-2359296,93,-56,-1,-1,0
1523631463069,-2228224,93,-56,-1,-1,0
1523631463069,-1835008,93,-56,-1,-1,0
1523631463069,-1179648,93,-56,-1,-1,0
1523631463109,-917504,93,-56,-1,-1,0
1523631463109,-1114112,93,-56,-1,-1,0
1523631463109,-1310720,93,-56,-1,-1,0
1523631463109,-1441792,93,-56,-1,-1,0
1523631463109,-1507328,93,-56,-1,-1,0
1523631463150,-1376256,93,-56,-1,-1,0
1523631463150,-1179648,93,-56,-1,-1,0
1523631463150,-983040,93,-56,-1,-1,0
1523631463150,655360,93,-56,-1,-1,0
1523631463150,5111808,93,-56,-1,-1,0
1523631463189,8323072,93,-56,-1,-1,0
1523631463189,4587520,93,-56,-1,-1,0
1523631463189,-3145728,93,-56,-1,-1,0
1523631463189,-6815744,93,-56,-1,-1,0
1523631463189,-5242880,93,-56,-1,-1,0
1523631463229,-2818048,93,-56,-1,-1,0
1523631463229,-1572864,93,-56,-1,-1,0
1523631463229,-1114112,93,-56,-1,-1,0
1523631463229,-1114112,93,-56,-1,-1,0
1523631463229,-1179648,93,-56,-1,-1,0
1523631463269,-983040,93,-56,-1,-1,0
1523631463269,-786432,93,-56,-1,-1,0
1523631463269,-720896,93,-56,-1,-1,0
1523631463269,-720896,93,-56,-1,-1,0
1523631463269,-655360,93,-56,-1,-1,0
1523631463309,-589824,93,-56,-1,-1,0
1523631463309,-458752,93,-56,-1,-1,0
1523631463309,-262144,93,-56,-1,-1,0
1523631463309,-65536,93,-56,-1,-1,0
1523631463309,196608,93,-56,-1,-1,0
1523631463349,589824,93,-56,-1,-1,0
1523631463349,1048576,93,-56,-1,-1,0
1523631463349,1507328,93,-56,-1,-1,0
1523631463349,2031616,93,-56,-1,-1,0
1523631463349,2490368,93,-56,-1,-1,0
1523631463389,2949120,93,-56,-1,-1,0
1523631463389,3407872,93,-56,-1,-1,0
1523631463389,3932160,93,-56,-1,-1,0
1523631463389,4456448,93,-56,-1,-1,0
1523631463389,4784128,93,-56,-1,-1,0
1523631463429,4915200,93,-56,-1,-1,0
1523631463429,4653056,93,-56,-1,-1,0
1523631463429,3997696,93,-56,-1,-1,0
1523631463429,2949120,93,-56,-1,-1,0
1523631463429,1966080,93,-56,-1,-1,0
1523631463469,1179648,93,-56,-1,-1,0
1523631463469,524288,93,-56,-1,-1,0
1523631463469,0,93,-56,-1,-1,0
1523631463469,-262144,93,-56,-1,-1,0
1523631463469,-393216,93,-56,-1,-1,0
1523631463509,-393216,93,-56,-1,-1,0
1523631463509,-655360,93,-56,-1,-1,0
1523631463509,-851968,93,-56,-1,-1,0
1523631463509,-917504,93,-56,-1,-1,0
1523631463509,-851968,93,-56,-1,-1,0
1523631463549,-786432,93,-56,-1,-1,0
1523631463549,-786432,93,-56,-1,-1,0
1523631463549,-917504,93,-56,-1,-1,0
1523631463549,-1048576,93,-56,-1,-1,0
1523631463549,-1179648,93,-56,-1,-1,0
1523631463589,-1114112,93,-56,-1,-1,0
1523631463589,-1114112,93,-56,-1,-1,0
1523631463589,-1114112,93,-56,-1,-1,0
1523631463589,-1114112,93,-56,-1,-1,0
1523631463589,-1179648,93,-56,-1,-1,0
1523631463629,-1310720,93,-56,-1,-1,0
1523631463629,-1507328,93,-56,-1,-1,0
1523631463629,-1703936,93,-56,-1,-1,0
1523631463629,-1835008,93,-56,-1,-1,0
1523631463629,-1835008,93,-56,-1,-1,0
1523631463669,-1835008,93,-56,-1,-1,0
1523631463669,-1638400,93,-56,-1,-1,0
1523631463669,-1245184,93,-56,-1,-1,0
1523631463669,-917504,93,-56,-1,-1,0
1523631463669,-851968,93,-56,-1,-1,0
1523631463709,-983040,93,-56,-1,-1,0
1523631463709,-1179648,93,-56,-1,-1,0
1523631463709,-1376256,93,-56,-1,-1,0
1523631463709,-1310720,93,-56,-1,-1,0
1523631463709,-1245184,93,-56,-1,-1,0
1523631463749,-1179648,93,-56,-1,-1,0
1523631463749,-131072,93,-56,-1,-1,0
1523631463749,3735552,93,-56,-1,-1,0
1523631463749,8716288,93,-56,-1,-1,0
1523631463749,7536640,93,-56,-1,-1,0
1523631463790,131072,93,-56,-1,-1,0
1523631463790,-5046272,93,-56,-1,-1,0
1523631463790,-4456448,93,-56,-1,-1,0
1523631463790,-2293760,93,-56,-1,-1,0
1523631463790,-1310720,93,-56,-1,-1,0
1523631463829,-1114112,93,-56,-1,-1,0
1523631463829,-1048576,93,-56,-1,-1,0
1523631463829,-917504,93,-56,-1,-1,0
1523631463829,-786432,93,-56,-1,-1,0
1523631463829,-720896,93,-56,-1,-1,0
1523631463869,-655360,93,-56,-1,-1,0
1523631463869,-524288,93,-56,-1,-1,0
1523631463869,-458752,93,-56,-1,-1,0
1523631463869,-327680,93,-56,-1,-1,0
1523631463869,-196608,93,-56,-1,-1,0
1523631463909,-131072,93,-56,-1,-1,0
1523631463909,0,93,-56,-1,-1,0
1523631463909,131072,93,-56,-1,-1,0
1523631463909,393216,93,-56,-1,-1,0
1523631463909,458752,93,-56,-1,-1,0
1523631463949,655360,93,-56,-1,-1,0
1523631463949,1114112,93,-56,-1,-1,0
1523631463949,1703936,93,-56,-1,-1,0
1523631463949,2228224,93,-56,-1,-1,0
1523631463949,2621440,93,-56,-1,-1,0
1523631463989,2883584,93,-56,-1,-1,0
1523631463989,3276800,93,-56,-1,-1,0
1523631463989,3604480,93,-56,-1,-1,0
1523631463989,3670016,93,-56,-1,-1,0
1523631463989,3473408,93,-56,-1,-1,0
1523631464029,3080192,93,-56,-1,-1,0
1523631464029,2293760,93,-56,-1,-1,0
1523631464029,1441792,93,-56,-1,-1,0
1523631464029,851968,93,-56,-1,-1,0
1523631464029,262144,93,-56,-1,-1,0
1523631464069,-327680,93,-56,-1,-1,0
1523631464069,-655360,93,-56,-1,-1,0
1523631464069,-720896,93,-56,-1,-1,0
1523631464069,-786432,93,-56,-1,-1,0
1523631464069,-851968,93,-56,-1,-1,0
1523631464109,-851968,93,-56,-1,-1,0
1523631464109,-851968,93,-56,-1,-1,0
1523631464109,-917504,93,-56,-1,-1,0
1523631464109,-1048576,93,-56,-1,-1,0
1523631464109,-1114112,93,-56,-1,-1,0
1523631464149,-1179648,93,-56,-1,-1,0
1523631464149,-1179648,93,-56,-1,-1,0
1523631464149,-1179648,93,-56,-1,-1,0
1523631464149,-1245184,93,-56,-1,-1,0
1523631464149,-1245184,93,-56,-1,-1,0
1523631464189,-1245184,94,-56,-1,-1,0
1523631464189,-1310720,94,-56,-1,-1,0
1523631464189,-1441792,94,-56,-1,-1,0
1523631464189,-1638400,94,-56,-1,-1,0
1523631464189,-1900544,94,-56,-1,-1,0
1523631464229,-2097152,94,-56,-1,-1,0
1523631464229,-2228224,94,-56,-1,-1,0
1523631464229,-2359296,94,-56,-1,-1,0
1523631464229,-2097152,94,-56,-1,-1,0
1523631464229,-1572864,94,-56,-1,-1,0
1523631464269,-1114112,94,-56,-1,-1,0
1523631464269,-983040,94,-56,-1,-1,0
1523631464269,-1114112,94,-56,-1,-1,0
1523631464269,-1310720,94,-56,-1,-1,0
1523631464269,-1441792,94,-56,-1,-1,0
1523631464309,-1376256,94,-56,-1,-1,0
1523631464309,-1310720,94,-56,-1,-1,0
1523631464309,-1310720,94,-56,-1,-1,0
1523631464309,-524288,94,-56,-1,-1,0
1523631464309,3145728,94,-56,-1,-1,0
1523631464349,8781824,94,-56,-1,-1,0
1523631464349,9043968,94,-56,-1,-1,0
1523631464349,1966080,94,-56,-1,-1,0
1523631464349,-4194304,94,-56,-1,-1,0
1523631464349,-4325376,94,-56,-1,-1,0
1523631464389,-2293760,94,-56,-1,-1,0
1523631464389,-1376256,94,-56,-1,-1,0
1523631464389,-1310720,94,-56,-1,-1,0
1523631464389,-1310720,94,-56,-1,-1,0
1523631464389,-1179648,94,-56,-1,-1,0
1523631464430,-983040,94,-56,-1,-1,0
1523631464430,-917504,94,-56,-1,-1,0
1523631464430,-786432,94,-56,-1,-1,0
1523631464430,-720896,94,-56,-1,-1,0
1523631464430,-524288,94,-56,-1,-1,0
1523631464468,-524288,94,-56,-1,-1,0
1523631464468,-393216,94,-56,-1,-1,0
1523631464468,-262144,94,-56,-1,-1,0
1523631464468,-65536,94,-56,-1,-1,0
1523631464468,131072,94,-56,-1,-1,0
1523631464508,393216,94,-56,-1,-1,0
1523631464508,655360,94,-56,-1,-1,0
1523631464508,1048576,94,-56,-1,-1,0
1523631464508,1376256,94,-56,-1,-1,0
1523631464508,1769472,94,-56,-1,-1,0
1523631464549,2162688,94,-56,-1,-1,0
1523631464549,2686976,94,-56,-1,-1,0
1523631464549,3145728,94,-56,-1,-1,0
1523631464549,3604480,94,-56,-1,-1,0
1523631464549,3866624,94,-56,-1,-1,0
1523631464588,4063232,94,-56,-1,-1,0
1523631464588,3866624,94,-56,-1,-1,0
1523631464588,3342336,94,-56,-1,-1,0
1523631464588,2555904,94,-56,-1,-1,0
1523631464588,1703936,94,-56,-1,-1,0
1523631464629,851968,94,-56,-1,-1,0
1523631464629,262144,94,-56,-1,-1,0
1523631464629,0,94,-56,-1,-1,0
1523631464629,-262144,94,-56,-1,-1,0
1523631464629,-458752,94,-56,-1,-1,0
1523631464669,-655360,94,-56,-1,-1,0
1523631464669,-786432,94,-56,-1,-1,0
1523631464669,-851968,94,-56,-1,-1,0
1523631464669,-851968,94,-56,-1,-1,0
1523631464669,-851968,94,-56,-1,-1,0
1523631464709,-917504,94,-56,-1,-1,0
1523631464709,-917504,94,-56,-1,-1,0
1523631464709,-917504,94,-56,-1,-1,0
1523631464709,-983040,94,-56,-1,-1,0
1523631464709,-1114112,94,-56,-1,-1,0
1523631464748,-1114112,94,-56,-1,-1,0
1523631464748,-1048576,94,-56,-1,-1,0
1523631464748,-1114112,94,-56,-1,-1,0
1523631464748,-1114112,94,-56,-1,-1,0
1523631464748,-1179648,94,-56,-1,-1,0
1523631464789,-1179648,94,-56,-1,-1,0
1523631464789,-1310720,94,-56,-1,-1,0
1523631464789,-1507328,94,-56,-1,-1,0
1523631464789,-1769472,94,-56,-1,-1,0
1523631464789,-1966080,94,-56,-1,-1,0
1523631464829,-2031616,94,-56,-1,-1,0
1523631464829,-1900544,94,-56,-1,-1,0
1523631464829,-1507328,94,-56,-1,-1,0
1523631464829,-983040,94,-56,-1,-1,0
1523631464829,-720896,94,-56,-1,-1,0
1523631464869,-851968,94,-56,-1,-1,0
1523631464869,-1114112,94,-56,-1,-1,0
1523631464869,-1376256,94,-56,-1,-1,0
1523631464869,-1441792,94,-56,-1,-1,0
1523631464869,-1376256,94,-56,-1,-1,0
1523631464908,-1310720,94,-56,-1,-1,0
1523631464908,-851968,94,-56,-1,-1,0
1523631464908,1835008,94,-56,-1,-1,0
1523631464908,7602176,94,-56,-1,-1,0
1523631464908,10354688,94,-56,-1,-1,0
1523631464949,4980736,94,-56,-1,-1,0
1523631464949,-2621440,94,-56,-1,-1,0
1523631464949,-4784128,94,-56,-1,-1,0
1523631464949,-2949120,94,-56,-1,-1,0
1523631464949,-1572864,94,-56,-1,-1,0
1523631464989,-1179648,94,-56,-1,-1,0
1523631464989,-1114112,94,-56,-1,-1,0
1523631464989,-1048576,94,-56,-1,-1,0
1523631464989,-851968,94,-56,-1,-1,0
1523631464989,-786432,94,-56,-1,-1,0
1523631465029,-720896,94,-56,-1,-1,0
1523631465029,-655360,94,-56,-1,-1,0
1523631465029,-589824,94,-56,-1,-1,0
1523631465029,-458752,94,-56,-1,-1,0
1523631465029,-327680,94,-56,-1,-1,0
1523631465070,-262144,94,-56,-1,-1,0
1523631465070,-131072,94,-56,-1,-1,0
1523631465070,65536,94,-56,-1,-1,0
1523631465070,393216,94,-56,-1,-1,0
1523631465070,720896,94,-56,-1,-1,0
1523631465109,983040,94,-56,-1,-1,0
1523631465109,1310720,94,-56,-1,-1,0
1523631465109,1769472,94,-56,-1,-1,0
1523631465109,2293760,94,-56,-1,-1,0
1523631465109,2818048,94,-56,-1,-1,0
1523631465149,3342336,94,-56,-1,-1,0
1523631465149,3801088,94,-56,-1,-1,0
1523631465149,4259840,94,-56,-1,-1,0
1523631465149,4521984,94,-56,-1,-1,0
1523631465149,4390912,94,-56,-1,-1,0
1523631465189,3866624,94,-56,-1,-1,0
1523631465189,3080192,94,-56,-1,-1,0
1523631465189,2293760,94,-56,-1,-1,0
1523631465189,1441792,94,-56,-1,-1,0
1523631465189,655360,94,-56,-1,-1,0
1523631465229,65536,94,-56,-1,-1,0
1523631465229,-131072,94,-56,-1,-1,0
1523631465229,-327680,94,-56,-1,-1,0
1523631465229,-458752,94,-56,-1,-1,0
1523631465229,-589824,94,-56,-1,-1,0
1523631465269,-720896,94,-56,-1,-1,0
1523631465269,-786432,94,-56,-1,-1,0
1523631465269,-786432,94,-56,-1,-1,0
1523631465269,-851968,94,-56,-1,-1,0
1523631465269,-917504,94,-56,-1,-1,0
1523631465309,-851968,94,-56,-1,-1,0
1523631465309,-851968,94,-56,-1,-1,0
1523631465309,-983040,94,-56,-1,-1,0
1523631465309,-1048576,94,-56,-1,-1,0
1523631465309,-1048576,94,-56,-1,-1,0
1523631465349,-1114112,94,-56,-1,-1,0
1523631465349,-1179648,94,-56,-1,-1,0
1523631465349,-1245184,94,-56,-1,-1,0
1523631465349,-1245184,94,-56,-1,-1,0
1523631465349,-1310720,94,-56,-1,-1,0
1523631465389,-1376256,94,-56,-1,-1,0
1523631465389,-1310720,94,-56,-1,-1,0
1523631465389,-1376256,94,-56,-1,-1,0
1523631465389,-1507328,94,-56,-1,-1,0
1523631465389,-1638400,94,-56,-1,-1,0
1523631465429,-1769472,94,-56,-1,-1,0
1523631465429,-1966080,94,-56,-1,-1,0
1523631465429,-2228224,94,-56,-1,-1,0
1523631465429,-2162688,94,-56,-1,-1,0
1523631465429,-1769472,94,-56,-1,-1,0
1523631465469,-1245184,94,-56,-1,-1,0
1523631465469,-1114112,94,-56,-1,-1,0
1523631465469,-1179648,94,-56,-1,-1,0
1523631465469,-1376256,94,-56,-1,-1,0
1523631465469,-1441792,94,-56,-1,-1,0
1523631465509,-1376256,94,-56,-1,-1,0
1523631465509,-1310720,94,-56,-1,-1,0
1523631465509,-1114112,94,-56,-1,-1,0
1523631465509,1179648,94,-56,-1,-1,0
1523631465509,6684672,94,-56,-1,-1,0
1523631465548,10027008,94,-56,-1,-1,0
1523631465548,5373952,94,-56,-1,-1,0
1523631465548,-2555904,94,-56,-1,-1,0
1523631465548,-5505024,94,-56,-1,-1,0
1523631465548,-3735552,94,-56,-1,-1,0
1523631465589,-2031616,94,-56,-1,-1,0
1523631465589,-1507328,94,-56,-1,-1,0
1523631465589,-1441792,94,-56,-1,-1,0
1523631465589,-1376256,94,-56,-1,-1,0
1523631465589,-1310720,94,-56,-1,-1,0
1523631465629,-1245184,94,-56,-1,-1,0
1523631465629,-1114112,94,-56,-1,-1,0
1523631465629,-1048576,94,-56,-1,-1,0
1523631465629,-983040,94,-56,-1,-1,0
1523631465629,-786432,94,-56,-1,-1,0
1523631465669,-655360,94,-56,-1,-1,0
1523631465669,-589824,94,-56,-1,-1,0
1523631465669,-393216,94,-56,-1,-1,0
1523631465669,-131072,94,-56,-1,-1,0
1523631465669,131072,94,-56,-1,-1,0
1523631465710,393216,94,-56,-1,-1,0
1523631465710,720896,94,-56,-1,-1,0
1523631465710,1048576,94,-56,-1,-1,0
1523631465710,1507328,94,-56,-1,-1,0
1523631465710,2097152,94,-56,-1,-1,0
1523631465749,2686976,94,-56,-1,-1,0
1523631465749,3276800,94,-56,-1,-1,0
1523631465749,3866624,94,-56,-1,-1,0
1523631465749,4325376,94,-56,-1,-1,0
1523631465749,4653056,94,-56,-1,-1,0
1523631465789,4718592,94,-56,-1,-1,0
1523631465789,4325376,94,-56,-1,-1,0
1523631465789,3604480,94,-56,-1,-1,0
1523631465789,2686976,94,-56,-1,-1,0
1523631465789,1835008,94,-56,-1,-1,0
1523631465829,1048576,94,-56,-1,-1,0
1523631465829,327680,94,-56,-1,-1,0
1523631465829,-131072,94,-56,-1,-1,0
1523631465829,-458752,94,-56,-1,-1,0
1523631465829,-655360,94,-56,-1,-1,0
1523631465869,-786432,94,-56,-1,-1,0
1523631465869,-851968,94,-56,-1,-1,0
1523631465869,-917504,94,-56,-1,-1,0
1523631465869,-917504,94,-56,-1,-1,0
1523631465869,-983040,94,-56,-1,-1,0
1523631465909,-983040,94,-56,-1,-1,0
1523631465909,-1048576,94,-56,-1,-1,0
1523631465909,-1114112,94,-56,-1,-1,0
1523631465909,-1114112,94,-56,-1,-1,0
1523631465909,-1114112,94,-56,-1,-1,0
1523631465949,-1114112,94,-56,-1,-1,0
1523631465949,-1114112,94,-56,-1,-1,0
1523631465949,-1114112,94,-56,-1,-1,0
1523631465949,-1179648,94,-56,-1,-1,0
1523631465949,-1376256,94,-56,-1,-1,0
1523631465989,-1441792,94,-56,-1,-1,0
1523631465989,-1376256,94,-56,-1,-1,0
1523631465989,-1376256,94,-56,-1,-1,0
1523631465989,-1376256,94,-56,-1,-1,0
1523631465989,-1376256,94,-56,-1,-1,0
1523631466029,-1376256,94,-56,-1,-1,0
1523631466029,-1441792,94,-56,-1,-1,0
1523631466029,-1638400,94,-56,-1,-1,0
1523631466029,-1835008,94,-56,-1,-1,0
1523631466029,-2031616,94,-56,-1,-1,0
1523631466069,-2097152,95,-56,-1,-1,0
1523631466069,-1966080,95,-56,-1,-1,0
1523631466069,-1572864,95,-56,-1,-1,0
1523631466069,-1114112,95,-56,-1,-1,0
1523631466069,-917504,95,-56,-1,-1,0
1523631466109,-1048576,95,-56,-1,-1,0
1523631466109,-1245184,95,-56,-1,-1,0
1523631466109,-1441792,95,-56,-1,-1,0
1523631466109,-1441792,95,-56,-1,-1,0
1523631466109,-1376256,95,-56,-1,-1,0
1523631466149,-1310720,95,-56,-1,-1,0
1523631466149,262144,95,-56,-1,-1,0
1523631466149,5308416,95,-56,-1,-1,0
1523631466149,10223616,95,-56,-1,-1,0
1523631466149,7667712,95,-56,-1,-1,0
1523631466189,-393216,95,-56,-1,-1,0
1523631466189,-5177344,95,-56,-1,-1,0
1523631466189,-4325376,95,-56,-1,-1,0
1523631466189,-2162688,95,-56,-1,-1,0
1523631466189,-1310720,95,-56,-1,-1,0
1523631466229,-1179648,95,-56,-1,-1,0
1523631466229,-1310720,95,-56,-1,-1,0
1523631466229,-1245184,95,-56,-1,-1,0
1523631466229,-1114112,95,-56,-1,-1,0
1523631466229,-983040,95,-56,-1,-1,0
1523631466269,-917504,95,-56,-1,-1,0
1523631466269,-851968,95,-56,-1,-1,0
1523631466269,-720896,95,-56,-1,-1,0
1523631466269,-524288,95,-56,-1,-1,0
1523631466269,-393216,95,-56,-1,-1,0
1523631466309,-196608,95,-56,-1,-1,0
1523631466309,0,95,-56,-1,-1,0
1523631466309,196608,95,-56,-1,-1,0
1523631466309,524288,95,-56,-1,-1,0
1523631466309,851968,95,-56,-1,-1,0
1523631466350,1245184,95,-56,-1,-1,0
1523631466350,1638400,95,-56,-1,-1,0
1523631466350,2162688,95,-56,-1,-1,0
1523631466350,2752512,95,-56,-1,-1,0
1523631466350,3342336,95,-56,-1,-1,0
1523631466389,3932160,95,-56,-1,-1,0
1523631466389,4456448,95,-56,-1,-1,0
1523631466389,4784128,95,-56,-1,-1,0
1523631466389,4980736,95,-56,-1,-1,0
1523631466389,4849664,95,-56,-1,-1,0
1523631466429,4325376,95,-56,-1,-1,0
1523631466429,3473408,95,-56,-1,-1,0
1523631466429,2555904,95,-56,-1,-1,0
1523631466429,1703936,95,-56,-1,-1,0
1523631466429,983040,95,-56,-1,-1,0
1523631466469,327680,95,-56,-1,-1,0
1523631466469,-65536,95,-56,-1,-1,0
1523631466469,-327680,95,-56,-1,-1,0
1523631466469,-458752,95,-56,-1,-1,0
1523631466469,-458752,95,-56,-1,-1,0
1523631466509,-524288,95,-56,-1,-1,0
1523631466509,-655360,95,-56,-1,-1,0
1523631466509,-851968,95,-56,-1,-1,0
1523631466509,-851968,95,-56,-1,-1,0
1523631466509,-851968,95,-56,-1,-1,0
1523631466549,-917504,95,-56,-1,-1,0
1523631466549,-983040,95,-56,-1,-1,0
1523631466549,-917504,95,-56,-1,-1,0
1523631466549,-917504,95,-56,-1,-1,0
1523631466549,-983040,95,-56,-1,-1,0
1523631466589,-983040,95,-56,-1,-1,0
1523631466589,-1048576,95,-56,-1,-1,0
1523631466589,-1179648,95,-56,-1,-1,0
1523631466589,-1245184,95,-56,-1,-1,0
1523631466589,-1245184,95,-56,-1,-1,0
1523631466629,-1245184,95,-56,-1,-1,0
1523631466629,-1245184,95,-56,-1,-1,0
1523631466629,-1310720,95,-56,-1,-1,0
1523631466629,-1441792,95,-56,-1,-1,0
1523631466629,-1572864,95,-56,-1,-1,0
1523631466669,-1703936,96,-56,-1,-1,0
1523631466669,-1769472,96,-56,-1,-1,0
1523631466669,-1769472,96,-56,-1,-1,0
1523631466669,-1638400,96,-56,-1,-1,0
1523631466669,-1245184,96,-56,-1,-1,0
1523631466709,-851968,96,-56,-1,-1,0
1523631466709,-720896,96,-56,-1,-1,0
1523631466709,-851968,96,-56,-1,-1,0
1523631466709,-1048576,96,-56,-1,-1,0
1523631466709,-1245184,96,-56,-1,-1,0
1523631466749,-1310720,96,-56,-1,-1,0
1523631466749,-1245184,96,-56,-1,-1,0
1523631466749,-1245184,96,-56,-1,-1,0
1523631466749,-196608,96,-56,-1,-1,0
1523631466749,3407872,96,-56,-1,-1,0
1523631466789,8126464,96,-56,-1,-1,0
1523631466789,7077888,96,-56,-1,-1,0
1523631466789,-131072,96,-56,-1,-1,0
1523631466789,-5898240,96,-56,-1,-1,0
1523631466789,-5701632,96,-56,-1,-1,0
1523631466829,-3276800,96,-56,-1,-1,0
1523631466829,-1638400,96,-56,-1,-1,0
1523631466829,-1179648,96,-56,-1,-1,0
1523631466829,-1179648,96,-56,-1,-1,0
1523631466829,-1048576,96,-56,-1,-1,0
1523631466869,-917504,96,-56,-1,-1,0
1523631466869,-786432,96,-56,-1,-1,0
1523631466869,-786432,96,-56,-1,-1,0
1523631466869,-720896,96,-56,-1,-1,0
1523631466869,-589824,96,-56,-1,-1,0
1523631466909,-393216,96,-56,-1,-1,0
1523631466909,-262144,96,-56,-1,-1,0
1523631466909,-65536,96,-56,-1,-1,0
1523631466909,131072,96,-56,-1,-1,0
1523631466909,327680,96,-56,-1,-1,0
1523631466949,589824,96,-56,-1,-1,0
1523631466949,851968,96,-56,-1,-1,0
1523631466949,1179648,96,-56,-1,-1,0
1523631466949,1572864,96,-56,-1,-1,0
1523631466949,1966080,96,-56,-1,-1,0
1523631466990,2490368,96,-56,-1,-1,0
1523631466990,3014656,96,-56,-1,-1,0
1523631466990,3538944,96,-56,-1,-1,0
1523631466990,3997696,96,-56,-1,-1,0
1523631466990,4325376,96,-56,-1,-1,0
1523631467029,4521984,96,-56,-1,-1,0
1523631467029,4456448,96,-56,-1,-1,0
1523631467029,3997696,96,-56,-1,-1,0
1523631467029,3211264,96,-56,-1,-1,0
1523631467029,2293760,96,-56,-1,-1,0
1523631467069,1376256,96,-56,-1,-1,0
1523631467069,655360,96,-56,-1,-1,0
1523631467069,131072,96,-56,-1,-1,0
1523631467069,-131072,96,-56,-1,-1,0
1523631467069,-327680,96,-56,-1,-1,0
1523631467109,-458752,96,-56,-1,-1,0
1523631467109,-524288,96,-56,-1,-1,0
1523631467109,-589824,96,-56,-1,-1,0
1523631467109,-720896,96,-56,-1,-1,0
1523631467109,-720896,96,-56,-1,-1,0
1523631467149,-720896,96,-56,-1,-1,0
1523631467149,-720896,96,-56,-1,-1,0
1523631467149,-786432,96,-56,-1,-1,0
1523631467149,-851968,96,-56,-1,-1,0
1523631467149,-917504,96,-56,-1,-1,0
1523631467189,-983040,96,-56,-1,-1,0
1523631467189,-983040,96,-56,-1,-1,0
1523631467189,-917504,96,-56,-1,-1,0
1523631467189,-983040,96,-56,-1,-1,0
1523631467189,-1114112,96,-56,-1,-1,0
1523631467229,-1179648,96,-56,-1,-1,0
1523631467229,-1179648,96,-56,-1,-1,0
1523631467229,-1245184,96,-56,-1,-1,0
1523631467229,-1310720,96,-56,-1,-1,0
1523631467229,-1441792,96,-56,-1,-1,0
1523631467269,-1638400,96,-56,-1,-1,0
1523631467269,-1835008,96,-56,-1,-1,0
1523631467269,-1966080,96,-56,-1,-1,0
1523631467269,-1966080,96,-56,-1,-1,0
1523631467269,-1769472,96,-56,-1,-1,0
1523631467309,-1310720,96,-56,-1,-1,0
1523631467309,-983040,96,-56,-1,-1,0
1523631467309,-851968,96,-56,-1,-1,0
1523631467309,-983040,96,-56,-1,-1,0
1523631467309,-1179648,96,-56,-1,-1,0
1523631467349,-1310720,96,-56,-1,-1,0
1523631467349,-1310720,96,-56,-1,-1,0
1523631467349,-1245184,96,-56,-1,-1,0
1523631467349,-1114112,96,-56,-1,-1,0
1523631467349,262144,96,-56,-1,-1,0
1523631467389,4718592,96,-56,-1,-1,0
1523631467389,9633792,96,-56,-1,-1,0
1523631467389,7667712,96,-56,-1,-1,0
1523631467389,-131072,96,-56,-1,-1,0
1523631467389,-5111808,96,-56,-1,-1,0
1523631467429,-4259840,96,-56,-1,-1,0
1523631467429,-2162688,96,-56,-1,-1,0
1523631467429,-1310720,96,-56,-1,-1,0
1523631467429,-1114112,96,-56,-1,-1,0
1523631467429,-1048576,96,-56,-1,-1,0
1523631467469,-983040,96,-56,-1,-1,0
1523631467469,-851968,96,-56,-1,-1,0
1523631467469,-720896,96,-56,-1,-1,0
1523631467469,-655360,96,-56,-1,-1,0
1523631467469,-524288,96,-56,-1,-1,0
1523631467509,-458752,96,-56,-1,-1,0
1523631467509,-393216,96,-56,-1,-1,0
1523631467509,-262144,96,-56,-1,-1,0
1523631467509,-65536,96,-56,-1,-1,0
1523631467509,65536,96,-56,-1,-1,0
1523631467549,327680,96,-56,-1,-1,0
1523631467549,589824,96,-56,-1,-1,0
1523631467549,720896,96,-56,-1,-1,0
1523631467549,983040,96,-56,-1,-1,0
1523631467549,1245184,96,-56,-1,-1,0
1523631467589,1638400,96,-56,-1,-1,0
1523631467589,2097152,96,-56,-1,-1,0
1523631467589,2555904,96,-56,-1,-1,0
1523631467589,3014656,96,-56,-1,-1,0
1523631467589,3342336,96,-56,-1,-1,0
1523631467630,3538944,96,-56,-1,-1,0
1523631467630,3670016,96,-56,-1,-1,0
1523631467630,3538944,96,-56,-1,-1,0
1523631467630,3014656,96,-56,-1,-1,0
1523631467630,2359296,96,-56,-1,-1,0
1523631467669,1638400,96,-56,-1,-1,0
1523631467669,983040,96,-56,-1,-1,0
1523631467669,393216,96,-56,-1,-1,0
1523631467669,-65536,96,-56,-1,-1,0
1523631467669,-393216,96,-56,-1,-1,0
1523631467709,-524288,96,-56,-1,-1,0
1523631467709,-655360,96,-56,-1,-1,0
1523631467709,-720896,96,-56,-1,-1,0
1523631467709,-786432,96,-56,-1,-1,0
1523631467709,-851968,96,-56,-1,-1,0
1523631467749,-917504,96,-56,-1,-1,0
1523631467749,-917504,96,-56,-1,-1,0
1523631467749,-917504,96,-56,-1,-1,0
1523631467749,-917504,96,-56,-1,-1,0
1523631467749,-917504,96,-56,-1,-1,0
1523631467789,-983040,96,-56,-1,-1,0
1523631467789,-1048576,96,-56,-1,-1,0
1523631467789,-983040,96,-56,-1,-1,0
1523631467789,-983040,96,-56,-1,-1,0
1523631467789,-1114112,96,-56,-1,-1,0
1523631467829,-1179648,96,-56,-1,-1,0
1523631467829,-1179648,96,-56,-1,-1,0
1523631467829,-1179648,96,-56,-1,-1,0
1523631467829,-1245184,96,-56,-1,-1,0
1523631467829,-1245184,96,-56,-1,-1,0
1523631467869,-1179648,96,-56,-1,-1,0
1523631467869,-1114112,96,-56,-1,-1,0
1523631467869,-1179648,96,-56,-1,-1,0
1523631467869,-1245184,96,-56,-1,-1,0
1523631467869,-1310720,96,-56,-1,-1,0
1523631467909,-1376256,96,-56,-1,-1,0
1523631467909,-1572864,96,-56,-1,-1,0
1523631467909,-1835008,96,-56,-1,-1,0
1523631467909,-2031616,96,-56,-1,-1,0
1523631467909,-2031616,96,-56,-1,-1,0
1523631467949,-1835008,96,-56,-1,-1,0
1523631467949,-1310720,96,-56,-1,-1,0
1523631467949,-917504,96,-56,-1,-1,0
1523631467949,-917504,96,-56,-1,-1,0
1523631467949,-1114112,96,-56,-1,-1,0
1523631467989,-1245184,96,-56,-1,-1,0
1523631467989,-1310720,96,-56,-1,-1,0
1523631467989,-1245184,96,-56,-1,-1,0
1523631467989,-1114112,96,-56,-1,-1,0
1523631467989,-524288,96,-56,-1,-1,0
1523631468029,2424832,96,-56,-1,-1,0
1523631468029,8192000,96,-56,-1,-1,0
1523631468029,10354688,96,-56,-1,-1,0
1523631468029,4521984,96,-56,-1,-1,0
1523631468029,-2883584,96,-56,-1,-1,0
1523631468069,-4587520,96,-56,-1,-1,0
1523631468069,-2686976,96,-56,-1,-1,0
1523631468069,-1376256,96,-56,-1,-1,0
1523631468069,-1048576,96,-56,-1,-1,0
1523631468069,-983040,96,-56,-1,-1,0
1523631468109,-983040,96,-56,-1,-1,0
1523631468109,-851968,96,-56,-1,-1,0
1523631468109,-720896,96,-56,-1,-1,0
1523631468109,-589824,96,-56,-1,-1,0
1523631468109,-524288,96,-56,-1,-1,0
1523631468149,-458752,96,-56,-1,-1,0
1523631468149,-393216,96,-56,-1,-1,0
1523631468149,-262144,96,-56,-1,-1,0
1523631468149,-131072,96,-56,-1,-1,0
1523631468149,0,96,-56,-1,-1,0
1523631468189,131072,96,-56,-1,-1,0
1523631468189,327680,96,-56,-1,-1,0
1523631468189,589824,96,-56,-1,-1,0
1523631468189,917504,96,-56,-1,-1,0
1523631468189,1245184,96,-56,-1,-1,0
1523631468229,1572864,96,-56,-1,-1,0
1523631468229,2031616,96,-56,-1,-1,0
1523631468229,2490368,96,-56,-1,-1,0
1523631468229,2883584,96,-56,-1,-1,0
1523631468229,3276800,96,-56,-1,-1,0
1523631468270,3670016,96,-56,-1,-1,0
1523631468270,3932160,96,-56,-1,-1,0
1523631468270,4063232,96,-56,-1,-1,0
1523631468270,3866624,96,-56,-1,-1,0
1523631468270,3342336,96,-56,-1,-1,0
1523631468309,2621440,96,-56,-1,-1,0
1523631468309,1703936,96,-56,-1,-1,0
1523631468309,983040,96,-56,-1,-1,0
1523631468309,393216,96,-56,-1,-1,0
1523631468309,0,96,-56,-1,-1,0
1523631468349,-262144,96,-56,-1,-1,0
1523631468349,-524288,96,-56,-1,-1,0
1523631468349,-589824,96,-56,-1,-1,0
1523631468349,-589824,96,-56,-1,-1,0
1523631468349,-589824,96,-56,-1,-1,0
1523631468389,-720896,96,-56,-1,-1,0
1523631468389,-720896,96,-56,-1,-1,0
1523631468389,-720896,96,-56,-1,-1,0
1523631468389,-720896,96,-56,-1,-1,0
1523631468389,-786432,96,-56,-1,-1,0
1523631468429,-851968,96,-56,-1,-1,0
1523631468429,-917504,96,-56,-1,-1,0
1523631468429,-983040,96,-56,-1,-1,0
1523631468429,-1048576,96,-56,-1,-1,0
1523631468429,-983040,96,-56,-1,-1,0
1523631468469,-983040,96,-56,-1,-1,0
1523631468469,-1048576,96,-56,-1,-1,0
1523631468469,-1048576,96,-56,-1,-1,0
1523631468469,-1048576,96,-56,-1,-1,0
1523631468469,-1048576,96,-56,-1,-1,0
1523631468509,-1048576,96,-56,-1,-1,0
1523631468509,-1048576,96,-56,-1,-1,0
1523631468509,-1114112,96,-56,-1,-1,0
1523631468509,-1114112,96,-56,-1,-1,0
1523631468509,-1048576,96,-56,-1,-1,0
1523631468549,-1048576,96,-56,-1,-1,0
1523631468549,-1114112,96,-56,-1,-1,0
1523631468549,-1245184,96,-56,-1,-1,0
1523631468549,-1245184,96,-56,-1,-1,0
1523631468549,-1179648,96,-56,-1,-1,0
1523631468589,-1179648,96,-56,-1,-1,0
1523631468589,-1245184,96,-56,-1,-1,0
1523631468589,-1441792,96,-56,-1,-1,0
1523631468589,-1703936,96,-56,-1,-1,0
1523631468589,-1900544,96,-56,-1,-1,0
1523631468629,-1900544,96,-56,-1,-1,0
1523631468629,-1769472,96,-56,-1,-1,0
1523631468629,-1376256,96,-56,-1,-1,0
1523631468629,-786432,96,-56,-1,-1,0
1523631468629,-589824,96,-56,-1,-1,0
1523631468670,-786432,96,-56,-1,-1,0
1523631468670,-1114112,96,-56,-1,-1,0
1523631468670,-1310720,96,-56,-1,-1,0
1523631468670,-1179648,96,-56,-1,-1,0
1523631468670,-1048576,96,-56,-1,-1,0
1523631468709,-524288,96,-56,-1,-1,0
1523631468709,2228224,96,-56,-1,-1,0
1523631468709,7929856,96,-56,-1,-1,0
1523631468709,10551296,96,-56,-1,-1,0
1523631468709,5046272,96,-56,-1,-1,0
1523631468749,-2555904,96,-56,-1,-1,0
1523631468749,-4653056,96,-56,-1,-1,0
1523631468749,-2686976,96,-56,-1,-1,0
1523631468749,-1310720,96,-56,-1,-1,0
1523631468749,-1048576,96,-56,-1,-1,0
1523631468789,-1114112,96,-56,-1,-1,0
1523631468789,-1048576,96,-56,-1,-1,0
1523631468789,-917504,96,-56,-1,-1,0
1523631468789,-851968,96,-56,-1,-1,0
1523631468789,-786432,96,-56,-1,-1,0
1523631468829,-655360,96,-56,-1,-1,0
1523631468829,-524288,96,-56,-1,-1,0
1523631468829,-458752,96,-56,-1,-1,0
1523631468829,-327680,96,-56,-1,-1,0
1523631468829,-196608,96,-56,-1,-1,0
1523631468869,0,96,-56,-1,-1,0
1523631468869,131072,96,-56,-1,-1,0
1523631468869,327680,96,-56,-1,-1,0
1523631468869,589824,96,-56,-1,-1,0
1523631468869,851968,96,-56,-1,-1,0
1523631468910,1245184,96,-56,-1,-1,0
1523631468910,1572864,96,-56,-1,-1,0
1523631468910,2031616,96,-56,-1,-1,0
1523631468910,2555904,96,-56,-1,-1,0
1523631468910,3145728,96,-56,-1,-1,0
1523631468949,3604480,96,-56,-1,-1,0
1523631468949,3997696,96,-56,-1,-1,0
1523631468949,4325376,96,-56,-1,-1,0
1523631468949,4456448,96,-56,-1,-1,0
1523631468949,4390912,96,-56,-1,-1,0
1523631468989,3866624,96,-56,-1,-1,0
1523631468989,3080192,96,-56,-1,-1,0
1523631468989,2228224,96,-56,-1,-1,0
1523631468989,1376256,96,-56,-1,-1,0
1523631468989,655360,96,-56,-1,-1,0
1523631469029,131072,96,-56,-1,-1,0
1523631469029,-131072,96,-56,-1,-1,0
1523631469029,-327680,96,-56,-1,-1,0
1523631469029,-458752,96,-56,-1,-1,0
1523631469029,-589824,96,-56,-1,-1,0
1523631469069,-655360,96,-56,-1,-1,0
1523631469069,-655360,96,-56,-1,-1,0
1523631469069,-720896,96,-56,-1,-1,0
1523631469069,-786432,96,-56,-1,-1,0
1523631469069,-917504,96,-56,-1,-1,0
1523631469109,-917504,96,-56,-1,-1,0
1523631469109,-917504,96,-56,-1,-1,0
1523631469109,-917504,96,-56,-1,-1,0
1523631469109,-917504,96,-56,-1,-1,0
1523631469109,-983040,96,-56,-1,-1,0
1523631469149,-1048576,96,-56,-1,-1,0
1523631469149,-1048576,96,-56,-1,-1,0
1523631469149,-1048576,96,-56,-1,-1,0
1523631469149,-1048576,96,-56,-1,-1,0
1523631469149,-1048576,96,-56,-1,-1,0
1523631469189,-1048576,96,-56,-1,-1,0
1523631469189,-983040,96,-56,-1,-1,0
1523631469189,-1048576,96,-56,-1,-1,0
1523631469189,-1179648,96,-56,-1,-1,0
1523631469189,-1376256,96,-56,-1,-1,0
1523631469229,-1376256,96,-56,-1,-1,0
1523631469229,-1310720,96,-56,-1,-1,0
1523631469229,-1245184,96,-56,-1,-1,0
1523631469229,-1179648,96,-56,-1,-1,0
1523631469229,-1245184,96,-56,-1,-1,0
1523631469269,-1179648,96,-56,-1,-1,0
1523631469269,-1179648,96,-56,-1,-1,0
1523631469269,-1114112,96,-56,-1,-1,0
1523631469269,-1114112,96,-56,-1,-1,0
1523631469269,-1376256,96,-56,-1,-1,0
1523631469309,-1769472,96,-56,-1,-1,0
1523631469309,-1966080,96,-56,-1,-1,0
1523631469309,-2031616,96,-56,-1,-1,0
1523631469309,-1900544,96,-56,-1,-1,0
1523631469309,-1441792,96,-56,-1,-1,0
1523631469349,-917504,96,-56,-1,-1,0
1523631469349,-720896,96,-56,-1,-1,0
1523631469349,-851968,96,-56,-1,-1,0
1523631469349,-1114112,96,-56,-1,-1,0
1523631469349,-1245184,96,-56,-1,-1,0
1523631469389,-1179648,96,-56,-1,-1,0
1523631469389,-1114112,96,-56,-1,-1,0
1523631469389,-589824,96,-56,-1,-1,0
1523631469389,2490368,96,-56,-1,-1,0
1523631469389,8323072,96,-56,-1,-1,0
1523631469429,10289152,96,-56,-1,-1,0
1523631469429,4325376,96,-56,-1,-1,0
1523631469429,-3014656,96,-56,-1,-1,0
1523631469429,-4653056,96,-56,-1,-1,0
1523631469429,-2818048,96,-56,-1,-1,0
1523631469469,-1507328,96,-56,-1,-1,0
1523631469469,-1179648,96,-56,-1,-1,0
1523631469469,-1114112,96,-56,-1,-1,0
1523631469469,-1048576,96,-56,-1,-1,0
1523631469469,-983040,96,-56,-1,-1,0
1523631469509,-851968,96,-56,-1,-1,0
1523631469509,-720896,96,-56,-1,-1,0
1523631469509,-655360,96,-56,-1,-1,0
1523631469509,-720896,96,-56,-1,-1,0
1523631469509,-589824,96,-56,-1,-1,0
1523631469550,-393216,96,-56,-1,-1,0
1523631469550,-327680,96,-56,-1,-1,0
1523631469550,-196608,96,-56,-1,-1,0
1523631469550,0,96,-56,-1,-1,0
1523631469550,196608,96,-56,-1,-1,0
1523631469589,524288,96,-56,-1,-1,0
1523631469589,786432,96,-56,-1,-1,0
1523631469589,1114112,96,-56,-1,-1,0
1523631469589,1507328,96,-56,-1,-1,0
1523631469589,1966080,96,-56,-1,-1,0
1523631469629,2555904,96,-56,-1,-1,0
1523631469629,3014656,96,-56,-1,-1,0
1523631469629,3538944,96,-56,-1,-1,0
1523631469629,4063232,96,-56,-1,-1,0
1523631469629,4390912,96,-56,-1,-1,0
1523631469669,4521984,96,-56,-1,-1,0
1523631469669,4325376,96,-56,-1,-1,0
1523631469669,3801088,96,-56,-1,-1,0
1523631469669,2949120,96,-56,-1,-1,0
1523631469669,2162688,96,-56,-1,-1,0
1523631469709,1310720,96,-56,-1,-1,0
1523631469709,589824,96,-56,-1,-1,0
1523631469709,65536,96,-56,-1,-1,0
1523631469709,-196608,96,-56,-1,-1,0
1523631469709,-393216,96,-56,-1,-1,0
1523631469749,-524288,96,-56,-1,-1,0
1523631469749,-655360,96,-56,-1,-1,0
1523631469749,-720896,96,-56,-1,-1,0
1523631469749,-786432,96,-56,-1,-1,0
1523631469749,-851968,96,-56,-1,-1,0
1523631469789,-851968,96,-56,-1,-1,0
1523631469789,-917504,96,-56,-1,-1,0
1523631469789,-917504,96,-56,-1,-1,0
1523631469789,-983040,96,-56,-1,-1,0
1523631469789,-983040,96,-56,-1,-1,0
1523631469829,-983040,96,-56,-1,-1,0
1523631469829,-983040,96,-56,-1,-1,0
1523631469829,-1048576,96,-56,-1,-1,0
1523631469829,-1114112,96,-56,-1,-1,0
1523631469829,-1048576,96,-56,-1,-1,0
1523631469869,-1114112,96,-56,-1,-1,0
1523631469869,-1179648,96,-56,-1,-1,0
1523631469869,-1245184,96,-56,-1,-1,0
1523631469869,-1179648,96,-56,-1,-1,0
1523631469869,-1179648,96,-56,-1,-1,0
1523631469909,-1114112,96,-56,-1,-1,0
1523631469909,-1179648,96,-56,-1,-1,0
1523631469909,-1179648,96,-56,-1,-1,0
1523631469909,-1245184,96,-56,-1,-1,0
1523631469909,-1245184,96,-56,-1,-1,0
1523631469949,-1245184,96,-56,-1,-1,0
1523631469949,-1245184,96,-56,-1,-1,0
1523631469949,-1310720,96,-56,-1,-1,0
1523631469949,-1310720,96,-56,-1,-1,0
1523631469949,-1310720,96,-56,-1,-1,0
1523631469989,-1376256,96,-56,-1,-1,0
1523631469989,-1507328,96,-56,-1,-1,0
1523631469989,-1638400,96,-56,-1,-1,0
1523631469989,-1769472,96,-56,-1,-1,0
1523631469989,-1769472,96,-56,-1,-1,0
1523631470029,-1441792,96,-56,-1,-1,0
1523631470029,-917504,96,-56,-1,-1,0
1523631470029,-655360,96,-56,-1,-1,0
1523631470029,-720896,96,-56,-1,-1,0
1523631470029,-983040,96,-56,-1,-1,0
1523631470069,-1179648,96,-56,-1,-1,0
1523631470069,-1179648,96,-56,-1,-1,0
1523631470069,-1114112,96,-56,-1,-1,0
1523631470069,-851968,96,-56,-1,-1,0
1523631470069,1048576,96,-56,-1,-1,0
1523631470109,6029312,96,-56,-1,-1,0
1523631470109,9895936,96,-56,-1,-1,0
1523631470109,6291456,96,-56,-1,-1,0
1523631470109,-1638400,96,-56,-1,-1,0
1523631470109,-5439488,96,-56,-1,-1,0
1523631470149,-4128768,96,-56,-1,-1,0
1523631470149,-2031616,96,-56,-1,-1,0
1523631470149,-1245184,96,-56,-1,-1,0
1523631470149,-983040,96,-56,-1,-1,0
1523631470149,-917504,96,-56,-1,-1,0
1523631470190,-851968,96,-56,-1,-1,0
1523631470190,-851968,96,-56,-1,-1,0
1523631470190,-786432,96,-56,-1,-1,0
1523631470190,-720896,96,-56,-1,-1,0
1523631470190,-589824,96,-56,-1,-1,0
1523631470229,-524288,96,-56,-1,-1,0
1523631470229,-327680,96,-56,-1,-1,0
1523631470229,-196608,96,-56,-1,-1,0
1523631470229,0,96,-56,-1,-1,0
1523631470229,65536,96,-56,-1,-1,0
1523631470269,262144,96,-56,-1,-1,0
1523631470269,524288,96,-56,-1,-1,0
1523631470269,851968,96,-56,-1,-1,0
1523631470269,1179648,96,-56,-1,-1,0
1523631470269,1638400,96,-56,-1,-1,0
1523631470309,2228224,96,-56,-1,-1,0
1523631470309,2818048,96,-56,-1,-1,0
1523631470309,3407872,96,-56,-1,-1,0
1523631470309,3932160,96,-56,-1,-1,0
1523631470309,4456448,96,-56,-1,-1,0
1523631470349,4915200,96,-56,-1,-1,0
1523631470349,5177344,96,-56,-1,-1,0
1523631470349,5111808,96,-56,-1,-1,0
1523631470349,4718592,96,-56,-1,-1,0
1523631470349,3866624,96,-56,-1,-1,0
1523631470389,2883584,96,-56,-1,-1,0
1523631470389,1966080,96,-56,-1,-1,0
1523631470389,1179648,96,-56,-1,-1,0
1523631470389,524288,96,-56,-1,-1,0
1523631470389,0,96,-56,-1,-1,0
1523631470429,-262144,96,-56,-1,-1,0
1523631470429,-458752,96,-56,-1,-1,0
1523631470429,-589824,96,-56,-1,-1,0
1523631470429,-655360,96,-56,-1,-1,0
1523631470429,-655360,96,-56,-1,-1,0
1523631470469,-655360,96,-56,-1,-1,0
1523631470469,-786432,96,-56,-1,-1,0
1523631470469,-851968,96,-56,-1,-1,0
1523631470469,-917504,96,-56,-1,-1,0
1523631470469,-917504,96,-56,-1,-1,0
1523631470509,-917504,96,-56,-1,-1,0
1523631470509,-983040,96,-56,-1,-1,0
1523631470509,-983040,96,-56,-1,-1,0
1523631470509,-983040,96,-56,-1,-1,0
1523631470509,-983040,96,-56,-1,-1,0
1523631470549,-1048576,96,-56,-1,-1,0
1523631470549,-1179648,96,-56,-1,-1,0
1523631470549,-1245184,96,-56,-1,-1,0
1523631470549,-1179648,96,-56,-1,-1,0
1523631470549,-1114112,96,-56,-1,-1,0
1523631470589,-1048576,96,-56,-1,-1,0
1523631470589,-1179648,96,-56,-1,-1,0
1523631470589,-1310720,96,-56,-1,-1,0
1523631470589,-1310720,96,-56,-1,-1,0
1523631470589,-1245184,96,-56,-1,-1,0
1523631470629,-1179648,96,-56,-1,-1,0
1523631470629,-1179648,96,-56,-1,-1,0
1523631470629,-1179648,96,-56,-1,-1,0
1523631470629,-1376256,96,-56,-1,-1,0
1523631470629,-1638400,96,-56,-1,-1,0
1523631470669,-1835008,96,-56,-1,-1,0
1523631470669,-1966080,96,-56,-1,-1,0
1523631470669,-2097152,96,-56,-1,-1,0
1523631470669,-1966080,96,-56,-1,-1,0
1523631470669,-1572864,96,-56,-1,-1,0
1523631470709,-1114112,96,-56,-1,-1,0
1523631470709,-917504,96,-56,-1,-1,0
1523631470709,-917504,96,-56,-1,-1,0
1523631470709,-1114112,96,-56,-1,-1,0
1523631470709,-1245184,96,-56,-1,-1,0
1523631470749,-1245184,96,-56,-1,-1,0
1523631470749,-1245184,96,-56,-1,-1,0
1523631470749,-1114112,96,-56,-1,-1,0
1523631470749,393216,96,-56,-1,-1,0
1523631470749,5242880,96,-56,-1,-1,0
1523631470789,9961472,96,-56,-1,-1,0
1523631470789,7602176,96,-56,-1,-1,0
1523631470789,-196608,96,-56,-1,-1,0
1523631470789,-4784128,96,-56,-1,-1,0
1523631470789,-3866624,96,-56,-1,-1,0
1523631470830,-2031616,96,-56,-1,-1,0
1523631470830,-1310720,96,-56,-1,-1,0
1523631470830,-1114112,96,-56,-1,-1,0
1523631470830,-1048576,96,-56,-1,-1,0
1523631470830,-1048576,96,-56,-1,-1,0
1523631470869,-983040,96,-56,-1,-1,0
1523631470869,-786432,96,-56,-1,-1,0
1523631470869,-655360,96,-56,-1,-1,0
1523631470869,-589824,96,-56,-1,-1,0
1523631470869,-524288,96,-56,-1,-1,0
1523631470909,-458752,96,-56,-1,-1,0
1523631470909,-327680,96,-56,-1,-1,0
1523631470909,-196608,96,-56,-1,-1,0
1523631470909,0,96,-56,-1,-1,0
1523631470909,131072,96,-56,-1,-1,0
1523631470949,393216,96,-56,-1,-1,0
1523631470949,655360,96,-56,-1,-1,0
1523631470949,917504,96,-56,-1,-1,0
1523631470949,1245184,96,-56,-1,-1,0
1523631470949,1703936,96,-56,-1,-1,0
1523631470989,2228224,96,-56,-1,-1,0
1523631470989,2818048,96,-56,-1,-1,0
1523631470989,3407872,96,-56,-1,-1,0
1523631470989,3801088,96,-56,-1,-1,0
1523631470989,4128768,96,-56,-1,-1,0
1523631471029,4390912,96,-56,-1,-1,0
1523631471029,4390912,96,-56,-1,-1,0
1523631471029,3932160,96,-56,-1,-1,0
1523631471029,3211264,96,-56,-1,-1,0
1523631471029,2359296,96,-56,-1,-1,0
1523631471069,1507328,96,-56,-1,-1,0
1523631471069,786432,96,-56,-1,-1,0
1523631471069,196608,96,-56,-1,-1,0
1523631471069,-131072,96,-56,-1,-1,0
1523631471069,-393216,96,-56,-1,-1,0
1523631471108,-589824,96,-56,-1,-1,0
1523631471108,-655360,96,-56,-1,-1,0
1523631471108,-720896,96,-56,-1,-1,0
1523631471108,-786432,96,-56,-1,-1,0
1523631471108,-851968,96,-56,-1,-1,0
1523631471148,-917504,96,-56,-1,-1,0
1523631471148,-983040,96,-56,-1,-1,0
1523631471148,-983040,96,-56,-1,-1,0
1523631471148,-983040,96,-56,-1,-1,0
1523631471148,-983040,96,-56,-1,-1,0
1523631471188,-1048576,96,-56,-1,-1,0
1523631471188,-1048576,96,-56,-1,-1,0
1523631471188,-1048576,96,-56,-1,-1,0
1523631471188,-1114112,96,-56,-1,-1,0
1523631471188,-1114112,96,-56,-1,-1,0
1523631471228,-1114112,96,-56,-1,-1,0
1523631471228,-1179648,96,-56,-1,-1,0
1523631471228,-1245184,96,-56,-1,-1,0
1523631471228,-1245184,96,-56,-1,-1,0
1523631471228,-1245184,96,-56,-1,-1,0
1523631471268,-1245184,96,-56,-1,-1,0
1523631471268,-1245184,96,-56,-1,-1,0
1523631471268,-1179648,96,-56,-1,-1,0
1523631471268,-1114112,96,-56,-1,-1,0
1523631471268,-1310720,96,-56,-1,-1,0
1523631471308,-1638400,96,-56,-1,-1,0
1523631471308,-1966080,96,-56,-1,-1,0
1523631471308,-2031616,96,-56,-1,-1,0
1523631471308,-2031616,96,-56,-1,-1,0
1523631471308,-1900544,96,-56,-1,-1,0
1523631471348,-1507328,96,-56,-1,-1,0
1523631471348,-1114112,96,-56,-1,-1,0
1523631471348,-851968,96,-56,-1,-1,0
1523631471348,-983040,96,-56,-1,-1,0
1523631471348,-1114112,96,-56,-1,-1,0
1523631471388,-1179648,96,-56,-1,-1,0
1523631471388,-1245184,96,-56,-1,-1,0
1523631471388,-1179648,96,-56,-1,-1,0
1523631471388,-1114112,96,-56,-1,-1,0
1523631471388,393216,96,-56,-1,-1,0
1523631471428,5242880,96,-56,-1,-1,0
1523631471428,10092544,96,-56,-1,-1,0
1523631471428,7798784,96,-56,-1,-1,0
1523631471428,0,96,-56,-1,-1,0
1523631471428,-4521984,96,-56,-1,-1,0
1523631471470,-3735552,96,-56,-1,-1,0
1523631471470,-1966080,96,-56,-1,-1,0
1523631471470,-1245184,96,-56,-1,-1,0
1523631471470,-1114112,96,-56,-1,-1,0
1523631471470,-1114112,96,-56,-1,-1,0
1523631471508,-983040,96,-56,-1,-1,0
1523631471508,-917504,96,-56,-1,-1,0
1523631471508,-851968,96,-56,-1,-1,0
1523631471508,-720896,96,-56,-1,-1,0
1523631471508,-655360,96,-56,-1,-1,0
1523631471548,-524288,96,-56,-1,-1,0
1523631471548,-393216,96,-56,-1,-1,0
1523631471548,-327680,96,-56,-1,-1,0
1523631471548,-196608,96,-56,-1,-1,0
1523631471548,0,96,-56,-1,-1,0
1523631471588,131072,96,-56,-1,-1,0
1523631471588,458752,96,-56,-1,-1,0
1523631471588,655360,96,-56,-1,-1,0
1523631471588,917504,96,-56,-1,-1,0
1523631471588,1310720,96,-56,-1,-1,0
1523631471628,1835008,96,-56,-1,-1,0
1523631471628,2359296,96,-56,-1,-1,0
1523631471628,2883584,96,-56,-1,-1,0
1523631471628,3473408,96,-56,-1,-1,0
1523631471628,3932160,96,-56,-1,-1,0
1523631471668,4390912,96,-56,-1,-1,0
1523631471668,4653056,96,-56,-1,-1,0
1523631471668,4587520,96,-56,-1,-1,0
1523631471668,4063232,96,-56,-1,-1,0
1523631471668,3145728,96,-56,-1,-1,0
1523631471708,2162688,96,-56,-1,-1,0
1523631471708,1310720,96,-56,-1,-1,0
1523631471708,655360,96,-56,-1,-1,0
1523631471708,131072,96,-56,-1,-1,0
1523631471708,-131072,96,-56,-1,-1,0
1523631471748,-393216,96,-56,-1,-1,0
1523631471748,-524288,96,-56,-1,-1,0
1523631471748,-655360,96,-56,-1,-1,0
1523631471748,-851968,96,-56,-1,-1,0
1523631471748,-917504,96,-56,-1,-1,0
1523631471788,-917504,96,-56,-1,-1,0
1523631471788,-983040,96,-56,-1,-1,0
1523631471788,-983040,96,-56,-1,-1,0
1523631471788,-983040,96,-56,-1,-1,0
1523631471788,-983040,96,-56,-1,-1,0
1523631471828,-1048576,96,-56,-1,-1,0
1523631471828,-1114112,96,-56,-1,-1,0
1523631471828,-1114112,96,-56,-1,-1,0
1523631471828,-1114112,96,-56,-1,-1,0
1523631471828,-1179648,96,-56,-1,-1,0
1523631471868,-1245184,96,-56,-1,-1,0
1523631471868,-1245184,96,-56,-1,-1,0
1523631471868,-1245184,96,-56,-1,-1,0
1523631471868,-1245184,96,-56,-1,-1,0
1523631471868,-1245184,96,-56,-1,-1,0
1523631471908,-1245184,96,-56,-1,-1,0
1523631471908,-1245184,96,-56,-1,-1,0
1523631471908,-1245184,96,-56,-1,-1,0
1523631471908,-1310720,96,-56,-1,-1,0
1523631471908,-1441792,96,-56,-1,-1,0
1523631471948,-1703936,96,-56,-1,-1,0
1523631471948,-1900544,96,-56,-1,-1,0
1523631471948,-1966080,96,-56,-1,-1,0
1523631471948,-2031616,96,-56,-1,-1,0
1523631471948,-2031616,96,-56,-1,-1,0
1523631471988,-1703936,95,-56,-1,-1,0
1523631471988,-1245184,95,-56,-1,-1,0
1523631471988,-917504,95,-56,-1,-1,0
1523631471988,-983040,95,-56,-1,-1,0
1523631471988,-1179648,95,-56,-1,-1,0
1523631472028,-1310720,95,-56,-1,-1,0
1523631472028,-1310720,95,-56,-1,-1,0
1523631472028,-1245184,95,-56,-1,-1,0
1523631472028,-1179648,95,-56,-1,-1,0
1523631472028,-524288,95,-56,-1,-1,0
1523631472068,2686976,95,-56,-1,-1,0
1523631472068,8388608,95,-56,-1,-1,0
1523631472068,9764864,95,-56,-1,-1,0
1523631472068,3538944,95,-56,-1,-1,0
1523631472068,-3276800,95,-56,-1,-1,0
1523631472110,-4456448,95,-56,-1,-1,0
1523631472110,-2555904,95,-56,-1,-1,0
1523631472110,-1376256,95,-56,-1,-1,0
1523631472110,-1114112,95,-56,-1,-1,0
1523631472110,-1114112,95,-56,-1,-1,0
1523631472148,-1114112,95,-56,-1,-1,0
1523631472148,-1048576,95,-56,-1,-1,0
1523631472148,-917504,95,-56,-1,-1,0
1523631472148,-786432,95,-56,-1,-1,0
1523631472148,-655360,95,-56,-1,-1,0
1523631472188,-655360,95,-56,-1,-1,0
1523631472188,-589824,95,-56,-1,-1,0
1523631472188,-524288,95,-56,-1,-1,0
1523631472188,-393216,95,-56,-1,-1,0
1523631472188,-196608,95,-56,-1,-1,0
1523631472228,0,95,-56,-1,-1,0
1523631472228,262144,95,-56,-1,-1,0
1523631472228,524288,95,-56,-1,-1,0
1523631472228,917504,95,-56,-1,-1,0
1523631472228,1310720,95,-56,-1,-1,0
1523631472268,1703936,95,-56,-1,-1,0
1523631472268,2162688,95,-56,-1,-1,0
1523631472268,2818048,95,-56,-1,-1,0
1523631472268,3342336,95,-56,-1,-1,0
1523631472268,3932160,95,-56,-1,-1,0
1523631472308,4325376,95,-56,-1,-1,0
1523631472308,4653056,95,-56,-1,-1,0
1523631472308,4784128,95,-56,-1,-1,0
1523631472308,4390912,95,-56,-1,-1,0
1523631472308,3604480,95,-56,-1,-1,0
1523631472348,2621440,95,-56,-1,-1,0
1523631472348,1703936,95,-56,-1,-1,0
1523631472348,917504,95,-56,-1,-1,0
1523631472348,327680,95,-56,-1,-1,0
1523631472348,0,95,-56,-1,-1,0
1523631472388,-327680,95,-56,-1,-1,0
1523631472388,-589824,95,-56,-1,-1,0
1523631472388,-786432,95,-56,-1,-1,0
1523631472388,-851968,95,-56,-1,-1,0
1523631472388,-983040,95,-56,-1,-1,0
1523631472428,-1048576,95,-56,-1,-1,0
1523631472428,-1114112,95,-56,-1,-1,0
1523631472428,-1048576,95,-56,-1,-1,0
1523631472428,-1048576,95,-56,-1,-1,0
1523631472428,-1048576,95,-56,-1,-1,0
1523631472468,-983040,95,-56,-1,-1,0
1523631472468,-983040,95,-56,-1,-1,0
1523631472468,-983040,95,-56,-1,-1,0
1523631472468,-983040,95,-56,-1,-1,0
1523631472468,-1114112,95,-56,-1,-1,0
1523631472508,-1376256,95,-56,-1,-1,0
1523631472508,-1441792,95,-56,-1,-1,0
1523631472508,-1376256,95,-56,-1,-1,0
1523631472508,-1310720,95,-56,-1,-1,0
1523631472508,-1310720,95,-56,-1,-1,0
1523631472548,-1441792,95,-56,-1,-1,0
1523631472548,-1441792,95,-56,-1,-1,0
1523631472548,-1376256,95,-56,-1,-1,0
1523631472548,-1376256,95,-56,-1,-1,0
1523631472548,-1703936,95,-56,-1,-1,0
1523631472587,-1966080,95,-56,-1,-1,0
1523631472587,-2031616,95,-56,-1,-1,0
1523631472587,-2097152,95,-56,-1,-1,0
1523631472587,-2097152,95,-56,-1,-1,0
1523631472587,-1507328,95,-56,-1,-1,0
1523631472628,-851968,94,-56,-1,-1,0
1523631472628,-720896,94,-56,-1,-1,0
1523631472628,-917504,94,-56,-1,-1,0
1523631472628,-1179648,94,-56,-1,-1,0
1523631472628,-1310720,94,-56,-1,-1,0
1523631472668,-1376256,94,-56,-1,-1,0
1523631472668,-1441792,94,-56,-1,-1,0
1523631472668,-1376256,94,-56,-1,-1,0
1523631472668,-262144,94,-56,-1,-1,0
1523631472668,3735552,94,-56,-1,-1,0
1523631472708,9240576,94,-56,-1,-1,0
1523631472708,8847360,94,-56,-1,-1,0
1523631472708,1572864,94,-56,-1,-1,0
1523631472708,-4259840,94,-56,-1,-1,0
1523631472708,-4325376,94,-56,-1,-1,0
1523631472750,-2359296,94,-56,-1,-1,0
1523631472750,-1441792,94,-56,-1,-1,0
1523631472750,-1245184,94,-56,-1,-1,0
1523631472750,-1245184,94,-56,-1,-1,0
1523631472750,-1179648,94,-56,-1,-1,0
1523631472788,-1114112,94,-56,-1,-1,0
1523631472788,-983040,94,-56,-1,-1,0
1523631472788,-917504,94,-56,-1,-1,0
1523631472788,-786432,94,-56,-1,-1,0
1523631472788,-720896,94,-56,-1,-1,0
1523631472828,-589824,94,-56,-1,-1,0
1523631472828,-458752,94,-56,-1,-1,0
1523631472828,-262144,94,-56,-1,-1,0
1523631472828,0,94,-56,-1,-1,0
1523631472828,131072,94,-56,-1,-1,0
1523631472868,262144,94,-56,-1,-1,0
1523631472868,458752,94,-56,-1,-1,0
1523631472868,851968,94,-56,-1,-1,0
1523631472868,1376256,94,-56,-1,-1,0
1523631472868,1835008,94,-56,-1,-1,0
1523631472908,2359296,94,-56,-1,-1,0
1523631472908,3014656,94,-56,-1,-1,0
1523631472908,3604480,94,-56,-1,-1,0
1523631472908,4259840,94,-56,-1,-1,0
1523631472908,4587520,94,-56,-1,-1,0
1523631472948,4849664,94,-56,-1,-1,0
1523631472948,4784128,94,-56,-1,-1,0
1523631472948,4259840,94,-56,-1,-1,0
1523631472948,3407872,94,-56,-1,-1,0
1523631472948,2359296,94,-56,-1,-1,0
1523631472988,1376256,94,-56,-1,-1,0
1523631472988,589824,94,-56,-1,-1,0
1523631472988,65536,94,-56,-1,-1,0
1523631472988,-262144,94,-56,-1,-1,0
1523631472988,-458752,94,-56,-1,-1,0
1523631473028,-589824,94,-56,-1,-1,0
1523631473028,-655360,94,-56,-1,-1,0
1523631473028,-786432,94,-56,-1,-1,0
1523631473028,-917504,94,-56,-1,-1,0
1523631473028,-983040,94,-56,-1,-1,0
1523631473068,-983040,94,-56,-1,-1,0
1523631473068,-983040,94,-56,-1,-1,0
1523631473068,-983040,94,-56,-1,-1,0
1523631473068,-917504,94,-56,-1,-1,0
1523631473068,-983040,94,-56,-1,-1,0
1523631473108,-1179648,94,-56,-1,-1,0
1523631473108,-1245184,94,-56,-1,-1,0
1523631473108,-1310720,94,-56,-1,-1,0
1523631473108,-1310720,94,-56,-1,-1,0
1523631473108,-1310720,94,-56,-1,-1,0
1523631473148,-1245184,94,-56,-1,-1,0
1523631473148,-1245184,94,-56,-1,-1,0
1523631473148,-1245184,94,-56,-1,-1,0
1523631473148,-1179648,94,-56,-1,-1,0
1523631473148,-1245184,94,-56,-1,-1,0
1523631473188,-1376256,94,-56,-1,-1,0
1523631473188,-1376256,94,-56,-1,-1,0
1523631473188,-1376256,94,-56,-1,-1,0
1523631473188,-1441792,94,-56,-1,-1,0
1523631473188,-1638400,94,-56,-1,-1,0
1523631473228,-1835008,94,-56,-1,-1,0
1523631473228,-1900544,94,-56,-1,-1,0
1523631473228,-2031616,94,-56,-1,-1,0
1523631473228,-2162688,94,-56,-1,-1,0
1523631473228,-1900544,94,-56,-1,-1,0
1523631473268,-1376256,94,-56,-1,-1,0
1523631473268,-1048576,94,-56,-1,-1,0
1523631473268,-983040,94,-56,-1,-1,0
1523631473268,-1114112,94,-56,-1,-1,0
1523631473268,-1245184,94,-56,-1,-1,0
1523631473308,-1245184,94,-56,-1,-1,0
1523631473308,-1114112,94,-56,-1,-1,0
1523631473308,-1245184,94,-56,-1,-1,0
1523631473308,-524288,94,-56,-1,-1,0
1523631473308,3276800,94,-56,-1,-1,0
1523631473348,9109504,94,-56,-1,-1,0
1523631473348,9568256,94,-56,-1,-1,0
1523631473348,2621440,94,-56,-1,-1,0
1523631473348,-3932160,94,-56,-1,-1,0
1523631473348,-4587520,94,-56,-1,-1,0
1523631473390,-2621440,94,-56,-1,-1,0
1523631473390,-1507328,94,-56,-1,-1,0
1523631473390,-1245184,94,-56,-1,-1,0
1523631473390,-1179648,94,-56,-1,-1,0
1523631473390,-1048576,94,-56,-1,-1,0
1523631473428,-983040,94,-56,-1,-1,0
1523631473428,-917504,94,-56,-1,-1,0
1523631473428,-917504,94,-56,-1,-1,0
1523631473428,-851968,94,-56,-1,-1,0
1523631473428,-786432,94,-56,-1,-1,0
1523631473469,-655360,94,-56,-1,-1,0
1523631473469,-393216,94,-56,-1,-1,0
1523631473469,-262144,94,-56,-1,-1,0
1523631473469,-131072,94,-56,-1,-1,0
1523631473469,0,94,-56,-1,-1,0
1523631473508,262144,94,-56,-1,-1,0
1523631473508,589824,94,-56,-1,-1,0
1523631473508,1114112,94,-56,-1,-1,0
1523631473508,1507328,94,-56,-1,-1,0
1523631473508,1900544,94,-56,-1,-1,0
1523631473548,2424832,94,-56,-1,-1,0
1523631473548,3014656,94,-56,-1,-1,0
1523631473548,3604480,94,-56,-1,-1,0
1523631473548,4259840,94,-56,-1,-1,0
1523631473548,4718592,94,-56,-1,-1,0
1523631473588,4980736,94,-56,-1,-1,0
1523631473588,4849664,94,-56,-1,-1,0
1523631473588,4456448,94,-56,-1,-1,0
1523631473588,3670016,94,-56,-1,-1,0
1523631473588,2752512,94,-56,-1,-1,0
1523631473628,1769472,94,-56,-1,-1,0
1523631473628,1048576,94,-56,-1,-1,0
1523631473628,393216,94,-56,-1,-1,0
1523631473628,-65536,94,-56,-1,-1,0
1523631473628,-458752,94,-56,-1,-1,0
1523631473668,-589824,94,-56,-1,-1,0
1523631473668,-720896,94,-56,-1,-1,0
1523631473668,-786432,94,-56,-1,-1,0
1523631473668,-786432,94,-56,-1,-1,0
1523631473668,-786432,94,-56,-1,-1,0
1523631473708,-720896,94,-56,-1,-1,0
1523631473708,-851968,94,-56,-1,-1,0
1523631473708,-1179648,94,-56,-1,-1,0
1523631473708,-1245184,94,-56,-1,-1,0
1523631473708,-1179648,94,-56,-1,-1,0
1523631473748,-1179648,94,-56,-1,-1,0
1523631473748,-1179648,94,-56,-1,-1,0
1523631473748,-1179648,94,-56,-1,-1,0
1523631473748,-1179648,94,-56,-1,-1,0
1523631473748,-1245184,94,-56,-1,-1,0
1523631473788,-1179648,94,-56,-1,-1,0
1523631473788,-1179648,94,-56,-1,-1,0
1523631473788,-1179648,94,-56,-1,-1,0
1523631473788,-1310720,94,-56,-1,-1,0
1523631473788,-1376256,94,-56,-1,-1,0
1523631473828,-1310720,94,-56,-1,-1,0
1523631473828,-1245184,94,-56,-1,-1,0
1523631473828,-1310720,94,-56,-1,-1,0
1523631473828,-1572864,94,-56,-1,-1,0
1523631473828,-1769472,94,-56,-1,-1,0
1523631473869,-1966080,94,-56,-1,-1,0
1523631473869,-2162688,94,-56,-1,-1,0
1523631473869,-2162688,94,-56,-1,-1,0
1523631473869,-1966080,94,-56,-1,-1,0
1523631473869,-1507328,94,-56,-1,-1,0
1523631473908,-983040,93,-56,-1,-1,0
1523631473908,-851968,93,-56,-1,-1,0
1523631473908,-983040,93,-56,-1,-1,0
1523631473908,-1114112,93,-56,-1,-1,0
1523631473908,-1245184,93,-56,-1,-1,0
1523631473948,-1376256,93,-56,-1,-1,0
1523631473948,-1507328,93,-56,-1,-1,0
1523631473948,-1179648,93,-56,-1,-1,0
1523631473948,1114112,93,-56,-1,-1,0
1523631473948,6684672,93,-56,-1,-1,0
1523631473988,10420224,93,-56,-1,-1,0
1523631473988,6225920,93,-56,-1,-1,0
1523631473988,-1507328,93,-56,-1,-1,0
1523631473988,-4718592,93,-56,-1,-1,0
1523631473988,-3342336,93,-56,-1,-1,0
1523631474030,-1769472,93,-56,-1,-1,0
1523631474030,-1245184,93,-56,-1,-1,0
1523631474030,-1179648,93,-56,-1,-1,0
1523631474030,-1179648,93,-56,-1,-1,0
1523631474030,-1179648,93,-56,-1,-1,0
1523631474068,-1114112,93,-56,-1,-1,0
1523631474068,-1114112,93,-56,-1,-1,0
1523631474068,-1048576,93,-56,-1,-1,0
1523631474068,-851968,93,-56,-1,-1,0
1523631474068,-720896,93,-56,-1,-1,0
1523631474109,-524288,93,-56,-1,-1,0
1523631474109,-327680,93,-56,-1,-1,0
1523631474109,-196608,93,-56,-1,-1,0
1523631474109,0,93,-56,-1,-1,0
1523631474109,196608,93,-56,-1,-1,0
1523631474149,458752,93,-56,-1,-1,0
1523631474149,917504,93,-56,-1,-1,0
1523631474149,1441792,93,-56,-1,-1,0
1523631474149,1835008,93,-56,-1,-1,0
1523631474149,2228224,93,-56,-1,-1,0
1523631474189,2752512,93,-56,-1,-1,0
1523631474189,3342336,93,-56,-1,-1,0
1523631474189,3997696,93,-56,-1,-1,0
1523631474189,4587520,93,-56,-1,-1,0
1523631474189,5046272,93,-56,-1,-1,0
1523631474229,5177344,93,-56,-1,-1,0
1523631474229,4784128,93,-56,-1,-1,0
1523631474229,3997696,93,-56,-1,-1,0
1523631474229,3211264,93,-56,-1,-1,0
1523631474229,2228224,93,-56,-1,-1,0
1523631474269,1245184,93,-56,-1,-1,0
1523631474269,327680,93,-56,-1,-1,0
1523631474269,-65536,93,-56,-1,-1,0
1523631474269,-393216,93,-56,-1,-1,0
1523631474269,-589824,93,-56,-1,-1,0
1523631474309,-786432,93,-56,-1,-1,0
1523631474309,-851968,93,-56,-1,-1,0
1523631474309,-851968,93,-56,-1,-1,0
1523631474309,-917504,93,-56,-1,-1,0
1523631474309,-1048576,93,-56,-1,-1,0
1523631474349,-1245184,93,-56,-1,-1,0
1523631474349,-1245184,93,-56,-1,-1,0
1523631474349,-1245184,93,-56,-1,-1,0
1523631474349,-1179648,93,-56,-1,-1,0
1523631474349,-1179648,93,-56,-1,-1,0
1523631474389,-1245184,93,-56,-1,-1,0
1523631474389,-1310720,93,-56,-1,-1,0
1523631474389,-1310720,93,-56,-1,-1,0
1523631474389,-1310720,93,-56,-1,-1,0
1523631474389,-1376256,93,-56,-1,-1,0
1523631474429,-1376256,93,-56,-1,-1,0
1523631474429,-1441792,93,-56,-1,-1,0
1523631474429,-1376256,93,-56,-1,-1,0
1523631474429,-1376256,93,-56,-1,-1,0
1523631474429,-1310720,93,-56,-1,-1,0
1523631474469,-1310720,93,-56,-1,-1,0
1523631474469,-1376256,93,-56,-1,-1,0
1523631474469,-1572864,93,-56,-1,-1,0
1523631474469,-1769472,93,-56,-1,-1,0
1523631474469,-1966080,93,-56,-1,-1,0
1523631474509,-2162688,93,-56,-1,-1,0
1523631474509,-2228224,93,-56,-1,-1,0
1523631474509,-2031616,93,-56,-1,-1,0
1523631474509,-1507328,93,-56,-1,-1,0
1523631474509,-1048576,93,-56,-1,-1,0
1523631474549,-983040,93,-56,-1,-1,0
1523631474549,-1179648,93,-56,-1,-1,0
1523631474549,-1441792,93,-56,-1,-1,0
1523631474549,-1572864,93,-56,-1,-1,0
1523631474549,-1572864,93,-56,-1,-1,0
1523631474589,-1376256,93,-56,-1,-1,0
1523631474589,-1245184,93,-56,-1,-1,0
1523631474589,-524288,93,-56,-1,-1,0
1523631474589,2949120,93,-56,-1,-1,0
1523631474589,8781824,93,-56,-1,-1,0
1523631474629,9764864,93,-56,-1,-1,0
1523631474629,3145728,93,-56,-1,-1,0
1523631474629,-3801088,93,-56,-1,-1,0
1523631474629,-4915200,93,-56,-1,-1,0
1523631474629,-3014656,93,-56,-1,-1,0
1523631474670,-1769472,93,-56,-1,-1,0
1523631474670,-1441792,93,-56,-1,-1,0
1523631474670,-1441792,93,-56,-1,-1,0
1523631474670,-1441792,93,-56,-1,-1,0
1523631474670,-1310720,93,-56,-1,-1,0
1523631474709,-1310720,93,-56,-1,-1,0
1523631474709,-1376256,93,-56,-1,-1,0
1523631474709,-1245184,93,-56,-1,-1,0
1523631474709,-1114112,93,-56,-1,-1,0
1523631474709,-917504,93,-56,-1,-1,0
1523631474749,-786432,93,-56,-1,-1,0
1523631474749,-655360,93,-56,-1,-1,0
1523631474749,-458752,93,-56,-1,-1,0
1523631474749,-327680,93,-56,-1,-1,0
1523631474749,-65536,93,-56,-1,-1,0
1523631474789,262144,93,-56,-1,-1,0
1523631474789,720896,93,-56,-1,-1,0
1523631474789,1245184,93,-56,-1,-1,0
1523631474789,1769472,93,-56,-1,-1,0
1523631474789,2424832,93,-56,-1,-1,0
1523631474829,3080192,93,-56,-1,-1,0
1523631474829,3670016,93,-56,-1,-1,0
1523631474829,4325376,93,-56,-1,-1,0
1523631474829,4980736,93,-56,-1,-1,0
1523631474829,5373952,93,-56,-1,-1,0
1523631474869,5570560,93,-56,-1,-1,0
1523631474869,5242880,93,-56,-1,-1,0
1523631474869,4456448,93,-56,-1,-1,0
1523631474869,3342336,93,-56,-1,-1,0
1523631474869,2293760,93,-56,-1,-1,0
1523631474909,1441792,93,-56,-1,-1,0
1523631474909,655360,93,-56,-1,-1,0
1523631474909,0,93,-56,-1,-1,0
1523631474909,-262144,93,-56,-1,-1,0
1523631474909,-393216,93,-56,-1,-1,0
1523631474949,-458752,93,-56,-1,-1,0
1523631474949,-524288,93,-56,-1,-1,0
1523631474949,-655360,93,-56,-1,-1,0
1523631474949,-720896,93,-56,-1,-1,0
1523631474949,-720896,93,-56,-1,-1,0
1523631474989,-720896,93,-56,-1,-1,0
1523631474989,-720896,93,-56,-1,-1,0
1523631474989,-720896,93,-56,-1,-1,0
1523631474989,-720896,93,-56,-1,-1,0
1523631474989,-851968,93,-56,-1,-1,0
1523631475029,-983040,93,-56,-1,-1,0
1523631475029,-1048576,93,-56,-1,-1,0
1523631475029,-1048576,93,-56,-1,-1,0
1523631475029,-1048576,93,-56,-1,-1,0
1523631475029,-1114112,93,-56,-1,-1,0
1523631475069,-1179648,93,-56,-1,-1,0
1523631475069,-1114112,93,-56,-1,-1,0
1523631475069,-1114112,93,-56,-1,-1,0
1523631475069,-1179648,93,-56,-1,-1,0
1523631475069,-1376256,93,-56,-1,-1,0
1523631475109,-1572864,93,-56,-1,-1,0
1523631475109,-1835008,93,-56,-1,-1,0
1523631475109,-1900544,93,-56,-1,-1,0
1523631475109,-1703936,93,-56,-1,-1,0
1523631475109,-1179648,93,-56,-1,-1,0
1523631475149,-589824,93,-56,-1,-1,0
1523631475149,-327680,93,-56,-1,-1,0
1523631475149,-655360,93,-56,-1,-1,0
1523631475149,-1114112,93,-56,-1,-1,0
1523631475149,-1441792,93,-56,-1,-1,0
1523631475189,-1507328,93,-56,-1,-1,0
1523631475189,-1507328,93,-56,-1,-1,0
1523631475189,-1507328,93,-56,-1,-1,0
1523631475189,-917504,93,-56,-1,-1,0
1523631475189,1572864,93,-56,-1,-1,0
1523631475229,6619136,93,-56,-1,-1,0
1523631475229,8454144,93,-56,-1,-1,0
1523631475229,3080192,93,-56,-1,-1,0
1523631475229,-4456448,93,-56,-1,-1,0
1523631475229,-6881280,93,-56,-1,-1,0
1523631475269,-5046272,93,-56,-1,-1,0
1523631475269,-2752512,93,-56,-1,-1,0
1523631475269,-1769472,93,-56,-1,-1,0
1523631475269,-1572864,93,-56,-1,-1,0
1523631475269,-1507328,93,-56,-1,-1,0
1523631475310,-1179648,93,-56,-1,-1,0
1523631475310,-983040,93,-56,-1,-1,0
1523631475310,-1048576,93,-56,-1,-1,0
1523631475310,-1114112,93,-56,-1,-1,0
1523631475310,-917504,93,-56,-1,-1,0
1523631475349,-720896,93,-56,-1,-1,0
1523631475349,-589824,93,-56,-1,-1,0
1523631475349,-393216,93,-56,-1,-1,0
1523631475349,-65536,93,-56,-1,-1,0
1523631475349,196608,93,-56,-1,-1,0
1523631475389,458752,93,-56,-1,-1,0
1523631475389,720896,93,-56,-1,-1,0
1523631475389,1114112,93,-56,-1,-1,0
1523631475389,1638400,93,-56,-1,-1,0
1523631475389,2228224,93,-56,-1,-1,0
1523631475429,2752512,93,-56,-1,-1,0
1523631475429,3342336,93,-56,-1,-1,0
1523631475429,3997696,93,-56,-1,-1,0
1523631475429,4718592,93,-56,-1,-1,0
1523631475429,5308416,93,-56,-1,-1,0
1523631475469,5767168,93,-56,-1,-1,0
1523631475469,5898240,93,-56,-1,-1,0
1523631475469,5570560,93,-56,-1,-1,0
1523631475469,4718592,93,-56,-1,-1,0
1523631475469,3735552,93,-56,-1,-1,0
1523631475509,2621440,93,-56,-1,-1,0
1523631475509,1572864,93,-56,-1,-1,0
1523631475509,720896,93,-56,-1,-1,0
1523631475509,196608,93,-56,-1,-1,0
1523631475509,-65536,93,-56,-1,-1,0
1523631475549,-327680,93,-56,-1,-1,0
1523631475549,-589824,93,-56,-1,-1,0
1523631475549,-786432,93,-56,-1,-1,0
1523631475549,-786432,93,-56,-1,-1,0
1523631475549,-720896,93,-56,-1,-1,0
1523631475589,-720896,93,-56,-1,-1,0
1523631475589,-851968,93,-56,-1,-1,0
1523631475589,-1048576,93,-56,-1,-1,0
1523631475589,-1179648,93,-56,-1,-1,0
1523631475589,-1179648,93,-56,-1,-1,0
1523631475629,-1179648,93,-56,-1,-1,0
1523631475629,-1114112,93,-56,-1,-1,0
1523631475629,-1114112,93,-56,-1,-1,0
1523631475629,-1245184,93,-56,-1,-1,0
1523631475629,-1310720,93,-56,-1,-1,0
1523631475669,-1441792,93,-56,-1,-1,0
1523631475669,-1703936,93,-56,-1,-1,0
1523631475669,-1835008,93,-56,-1,-1,0
1523631475669,-1835008,93,-56,-1,-1,0
1523631475669,-1703936,93,-56,-1,-1,0
1523631475709,-1572864,93,-56,-1,-1,0
1523631475709,-1441792,93,-56,-1,-1,0
1523631475709,-1179648,93,-56,-1,-1,0
1523631475709,-917504,93,-56,-1,-1,0
1523631475709,-983040,93,-56,-1,-1,0
1523631475749,-1310720,93,-56,-1,-1,0
1523631475749,-1507328,93,-56,-1,-1,0
1523631475749,-1507328,93,-56,-1,-1,0
1523631475749,-1441792,93,-56,-1,-1,0
1523631475749,-1572864,93,-56,-1,-1,0
1523631475789,-1507328,93,-56,-1,-1,0
1523631475789,-524288,93,-56,-1,-1,0
1523631475789,2883584,93,-56,-1,-1,0
1523631475789,7602176,93,-56,-1,-1,0
1523631475789,7274496,93,-56,-1,-1,0
1523631475829,458752,93,-56,-1,-1,0
1523631475829,-5963776,93,-56,-1,-1,0
1523631475829,-6619136,93,-56,-1,-1,0
1523631475829,-4259840,93,-56,-1,-1,0
1523631475829,-2228224,93,-56,-1,-1,0
1523631475869,-1441792,93,-56,-1,-1,0
1523631475869,-1507328,93,-56,-1,-1,0
1523631475869,-1572864,93,-56,-1,-1,0
1523631475869,-1703936,93,-56,-1,-1,0
1523631475869,-1572864,93,-56,-1,-1,0
1523631475909,-1376256,93,-56,-1,-1,0
1523631475909,-1179648,93,-56,-1,-1,0
1523631475909,-917504,93,-56,-1,-1,0
1523631475909,-589824,93,-56,-1,-1,0
1523631475909,-458752,93,-56,-1,-1,0
1523631475950,-393216,93,-56,-1,-1,0
1523631475950,-327680,93,-56,-1,-1,0
1523631475950,-65536,93,-56,-1,-1,0
1523631475950,196608,93,-56,-1,-1,0
1523631475950,524288,93,-56,-1,-1,0
1523631475989,1048576,93,-56,-1,-1,0
1523631475989,1769472,93,-56,-1,-1,0
1523631475989,2490368,93,-56,-1,-1,0
1523631475989,2621440,93,-56,-1,-1,0
1523631475989,2621440,93,-56,-1,-1,0
1523631476029,3145728,93,-56,-1,-1,0
1523631476029,3866624,93,-56,-1,-1,0
1523631476029,4390912,93,-56,-1,-1,0
1523631476029,4718592,93,-56,-1,-1,0
1523631476029,4849664,93,-56,-1,-1,0
1523631476069,4456448,93,-56,-1,-1,0
1523631476069,3604480,93,-56,-1,-1,0
1523631476069,2424832,93,-56,-1,-1,0
1523631476069,1376256,93,-56,-1,-1,0
1523631476069,458752,93,-56,-1,-1,0
1523631476109,-327680,93,-56,-1,-1,0
1523631476109,-655360,93,-56,-1,-1,0
1523631476109,-589824,93,-56,-1,-1,0
1523631476109,-720896,93,-56,-1,-1,0
1523631476109,-1114112,93,-56,-1,-1,0
1523631476149,-1179648,93,-56,-1,-1,0
1523631476149,-1048576,93,-56,-1,-1,0
1523631476149,-1179648,93,-56,-1,-1,0
1523631476149,-1572864,93,-56,-1,-1,0
1523631476149,-1638400,93,-56,-1,-1,0
1523631476189,-1310720,93,-56,-1,-1,0
1523631476189,-983040,93,-56,-1,-1,0
1523631476189,-1048576,93,-56,-1,-1,0
1523631476189,-1245184,93,-56,-1,-1,0
1523631476189,-1245184,93,-56,-1,-1,0
1523631476229,-1179648,93,-56,-1,-1,0
1523631476229,-1507328,93,-56,-1,-1,0
1523631476229,-1835008,93,-56,-1,-1,0
1523631476229,-1900544,93,-56,-1,-1,0
1523631476229,-1769472,93,-56,-1,-1,0
1523631476269,-1835008,93,-56,-1,-1,0
1523631476269,-2228224,93,-56,-1,-1,0
1523631476269,-2555904,93,-56,-1,-1,0
1523631476269,-2490368,93,-56,-1,-1,0
1523631476269,-2031616,93,-56,-1,-1,0
1523631476309,-1441792,93,-56,-1,-1,0
1523631476309,-983040,93,-56,-1,-1,0
1523631476309,-851968,93,-56,-1,-1,0
1523631476309,-1179648,93,-56,-1,-1,0
1523631476309,-1638400,93,-56,-1,-1,0
1523631476349,-1703936,93,-56,-1,-1,0
1523631476349,-1572864,93,-56,-1,-1,0
1523631476349,-1572864,93,-56,-1,-1,0
1523631476349,-1507328,93,-56,-1,-1,0
1523631476349,-393216,93,-56,-1,-1,0
1523631476389,3211264,93,-56,-1,-1,0
1523631476389,8323072,93,-56,-1,-1,0
1523631476389,8454144,93,-56,-1,-1,0
1523631476389,1703936,93,-56,-1,-1,0
1523631476389,-4980736,93,-56,-1,-1,0
1523631476429,-6160384,93,-56,-1,-1,0
1523631476429,-4390912,93,-56,-1,-1,0
1523631476429,-2621440,93,-56,-1,-1,0
1523631476429,-1769472,93,-56,-1,-1,0
1523631476429,-1507328,93,-56,-1,-1,0
1523631476469,-1310720,93,-56,-1,-1,0
1523631476469,-1114112,93,-56,-1,-1,0
1523631476469,-1048576,93,-56,-1,-1,0
1523631476469,-1114112,93,-56,-1,-1,0
1523631476469,-983040,93,-56,-1,-1,0
1523631476509,-589824,93,-56,-1,-1,0
1523631476509,-262144,93,-56,-1,-1,0
1523631476509,-196608,93,-56,-1,-1,0
1523631476509,-131072,93,-56,-1,-1,0
1523631476509,65536,93,-56,-1,-1,0
1523631476549,458752,93,-56,-1,-1,0
1523631476549,720896,93,-56,-1,-1,0
1523631476549,1245184,93,-56,-1,-1,0
1523631476549,1835008,93,-56,-1,-1,0
1523631476549,2162688,93,-56,-1,-1,0
1523631476590,2555904,93,-56,-1,-1,0
1523631476590,3014656,93,-56,-1,-1,0
1523631476590,3670016,93,-56,-1,-1,0
1523631476590,4325376,93,-56,-1,-1,0
1523631476590,4784128,93,-56,-1,-1,0
1523631476629,4980736,93,-56,-1,-1,0
1523631476629,5373952,93,-56,-1,-1,0
1523631476629,5570560,93,-56,-1,-1,0
1523631476629,4980736,93,-56,-1,-1,0
1523631476629,3801088,93,-56,-1,-1,0
1523631476669,2621440,93,-56,-1,-1,0
1523631476669,1835008,93,-56,-1,-1,0
1523631476669,1310720,93,-56,-1,-1,0
1523631476669,851968,93,-56,-1,-1,0
1523631476669,327680,93,-56,-1,-1,0
1523631476709,-196608,93,-56,-1,-1,0
1523631476709,-720896,93,-56,-1,-1,0
1523631476709,-917504,93,-56,-1,-1,0
1523631476709,-851968,93,-56,-1,-1,0
1523631476709,-720896,93,-56,-1,-1,0
1523631476749,-720896,93,-56,-1,-1,0
1523631476749,-851968,93,-56,-1,-1,0
1523631476749,-917504,93,-56,-1,-1,0
1523631476749,-917504,93,-56,-1,-1,0
1523631476749,-983040,93,-56,-1,-1,0
1523631476789,-1179648,93,-56,-1,-1,0
1523631476789,-1310720,93,-56,-1,-1,0
1523631476789,-1245184,93,-56,-1,-1,0
1523631476789,-1048576,93,-56,-1,-1,0
1523631476789,-1114112,93,-56,-1,-1,0
1523631476829,-1245184,93,-56,-1,-1,0
1523631476829,-1376256,93,-56,-1,-1,0
1523631476829,-1441792,93,-56,-1,-1,0
1523631476829,-1441792,93,-56,-1,-1,0
1523631476829,-1441792,93,-56,-1,-1,0
1523631476869,-1703936,93,-56,-1,-1,0
1523631476869,-2097152,93,-56,-1,-1,0
1523631476869,-2228224,93,-56,-1,-1,0
1523631476869,-2031616,93,-56,-1,-1,0
1523631476869,-1769472,93,-56,-1,-1,0
1523631476909,-1638400,93,-56,-1,-1,0
1523631476909,-1310720,93,-56,-1,-1,0
1523631476909,-1048576,93,-56,-1,-1,0
1523631476909,-1048576,93,-56,-1,-1,0
1523631476909,-1376256,93,-56,-1,-1,0
1523631476949,-1572864,93,-56,-1,-1,0
1523631476949,-1638400,93,-56,-1,-1,0
1523631476949,-1638400,93,-56,-1,-1,0
1523631476949,-1572864,93,-56,-1,-1,0
1523631476949,-589824,93,-56,-1,-1,0
1523631476990,3145728,93,-56,-1,-1,0
1523631476990,8585216,93,-56,-1,-1,0
1523631476990,8585216,93,-56,-1,-1,0
1523631476990,1441792,93,-56,-1,-1,0
1523631476990,-5177344,93,-56,-1,-1,0
1523631477029,-5963776,93,-56,-1,-1,0
1523631477029,-3932160,93,-56,-1,-1,0
1523631477029,-2359296,93,-56,-1,-1,0
1523631477029,-1572864,93,-56,-1,-1,0
1523631477029,-1245184,93,-56,-1,-1,0
1523631477069,-1114112,93,-56,-1,-1,0
1523631477069,-1245184,93,-56,-1,-1,0
1523631477069,-1441792,93,-56,-1,-1,0
1523631477069,-1245184,93,-56,-1,-1,0
1523631477069,-851968,93,-56,-1,-1,0
1523631477109,-655360,93,-56,-1,-1,0
1523631477109,-720896,93,-56,-1,-1,0
1523631477109,-524288,93,-56,-1,-1,0
1523631477109,-131072,93,-56,-1,-1,0
1523631477109,196608,93,-56,-1,-1,0
1523631477149,524288,93,-56,-1,-1,0
1523631477149,720896,93,-56,-1,-1,0
1523631477149,917504,93,-56,-1,-1,0
1523631477149,1376256,93,-56,-1,-1,0
1523631477149,1835008,93,-56,-1,-1,0
1523631477189,2359296,93,-56,-1,-1,0
1523631477189,3080192,93,-56,-1,-1,0
1523631477189,3801088,93,-56,-1,-1,0
1523631477189,4194304,93,-56,-1,-1,0
1523631477189,4456448,93,-56,-1,-1,0
1523631477230,4521984,93,-56,-1,-1,0
1523631477230,4718592,93,-56,-1,-1,0
1523631477230,4718592,93,-56,-1,-1,0
1523631477230,4456448,93,-56,-1,-1,0
1523631477230,3801088,93,-56,-1,-1,0
1523631477269,3014656,93,-56,-1,-1,0
1523631477269,2097152,93,-56,-1,-1,0
1523631477269,1048576,93,-56,-1,-1,0
1523631477269,131072,93,-56,-1,-1,0
1523631477269,-196608,93,-56,-1,-1,0
1523631477309,-262144,93,-56,-1,-1,0
1523631477309,-458752,93,-56,-1,-1,0
1523631477309,-720896,93,-56,-1,-1,0
1523631477309,-917504,93,-56,-1,-1,0
1523631477309,-851968,93,-56,-1,-1,0
1523631477349,-786432,93,-56,-1,-1,0
1523631477349,-786432,93,-56,-1,-1,0
1523631477349,-851968,93,-56,-1,-1,0
1523631477349,-851968,93,-56,-1,-1,0
1523631477349,-851968,93,-56,-1,-1,0
1523631477389,-786432,93,-56,-1,-1,0
1523631477389,-720896,93,-56,-1,-1,0
1523631477389,-720896,93,-56,-1,-1,0
1523631477389,-655360,93,-56,-1,-1,0
1523631477389,-917504,93,-56,-1,-1,0
1523631477429,-1245184,93,-56,-1,-1,0
1523631477429,-1310720,93,-56,-1,-1,0
1523631477429,-1310720,93,-56,-1,-1,0
1523631477429,-1310720,93,-56,-1,-1,0
1523631477429,-1179648,93,-56,-1,-1,0
1523631477469,-851968,93,-56,-1,-1,0
1523631477469,-917504,93,-56,-1,-1,0
1523631477469,-1441792,93,-56,-1,-1,0
1523631477469,-1703936,93,-56,-1,-1,0
1523631477469,-1507328,93,-56,-1,-1,0
1523631477509,-1310720,93,-56,-1,-1,0
1523631477509,-1441792,93,-56,-1,-1,0
1523631477509,-1638400,93,-56,-1,-1,0
1523631477509,-1638400,93,-56,-1,-1,0
1523631477509,-1572864,93,-56,-1,-1,0
1523631477549,-1507328,93,-56,-1,-1,0
1523631477549,-1507328,93,-56,-1,-1,0
1523631477549,-1441792,93,-56,-1,-1,0
1523631477549,-1376256,93,-56,-1,-1,0
1523631477549,-1638400,93,-56,-1,-1,0
1523631477589,-1900544,93,-56,-1,-1,0
1523631477589,-2031616,93,-56,-1,-1,0
1523631477589,-1966080,93,-56,-1,-1,0
1523631477589,-1703936,93,-56,-1,-1,0
1523631477589,-1310720,93,-56,-1,-1,0
1523631477629,-917504,93,-56,-1,-1,0
1523631477629,-786432,93,-56,-1,-1,0
1523631477629,-1048576,93,-56,-1,-1,0
1523631477629,-1441792,93,-56,-1,-1,0
1523631477629,-1441792,93,-56,-1,-1,0
1523631477668,-1441792,93,-56,-1,-1,0
1523631477668,-1441792,93,-56,-1,-1,0
1523631477668,-1441792,93,-56,-1,-1,0
1523631477668,65536,93,-56,-1,-1,0
1523631477668,4784128,93,-56,-1,-1,0
1523631477708,9764864,93,-56,-1,-1,0
1523631477708,8126464,93,-56,-1,-1,0
1523631477708,327680,93,-56,-1,-1,0
1523631477708,-4980736,93,-56,-1,-1,0
1523631477708,-4718592,93,-56,-1,-1,0
1523631477748,-2621440,93,-56,-1,-1,0
1523631477748,-1638400,93,-56,-1,-1,0
1523631477748,-1179648,93,-56,-1,-1,0
1523631477748,-1048576,93,-56,-1,-1,0
1523631477748,-1179648,93,-56,-1,-1,0
1523631477788,-1310720,93,-56,-1,-1,0
1523631477788,-1310720,93,-56,-1,-1,0
1523631477788,-1048576,93,-56,-1,-1,0
1523631477788,-851968,93,-56,-1,-1,0
1523631477788,-524288,93,-56,-1,-1,0
1523631477828,-327680,93,-56,-1,-1,0
1523631477828,-131072,93,-56,-1,-1,0
1523631477828,0,93,-56,-1,-1,0
1523631477828,196608,93,-56,-1,-1,0
1523631477828,655360,93,-56,-1,-1,0
1523631477870,1048576,93,-56,-1,-1,0
1523631477870,1507328,93,-56,-1,-1,0
1523631477870,1703936,93,-56,-1,-1,0
1523631477870,2162688,93,-56,-1,-1,0
1523631477870,2752512,93,-56,-1,-1,0
1523631477908,3407872,93,-56,-1,-1,0
1523631477908,3801088,93,-56,-1,-1,0
1523631477908,4194304,93,-56,-1,-1,0
1523631477908,4718592,93,-56,-1,-1,0
1523631477908,5242880,93,-56,-1,-1,0
1523631477948,5505024,93,-56,-1,-1,0
1523631477948,5505024,93,-56,-1,-1,0
1523631477948,5308416,93,-56,-1,-1,0
1523631477948,4849664,93,-56,-1,-1,0
1523631477948,4063232,93,-56,-1,-1,0
1523631477988,3211264,93,-56,-1,-1,0
1523631477988,2359296,93,-56,-1,-1,0
1523631477988,1441792,93,-56,-1,-1,0
1523631477988,655360,93,-56,-1,-1,0
1523631477988,262144,93,-56,-1,-1,0
1523631478027,262144,93,-56,-1,-1,0
1523631478027,196608,93,-56,-1,-1,0
1523631478027,0,93,-56,-1,-1,0
1523631478027,-65536,93,-56,-1,-1,0
1523631478027,-65536,93,-56,-1,-1,0
1523631478068,0,93,-56,-1,-1,0
1523631478068,0,93,-56,-1,-1,0
1523631478068,65536,93,-56,-1,-1,0
1523631478068,0,93,-56,-1,-1,0
1523631478068,-131072,93,-56,-1,-1,0
1523631478108,-262144,93,-56,-1,-1,0
1523631478108,-262144,93,-56,-1,-1,0
1523631478108,-131072,93,-56,-1,-1,0
1523631478108,-262144,93,-56,-1,-1,0
1523631478108,-393216,93,-56,-1,-1,0
1523631478148,-393216,93,-56,-1,-1,0
1523631478148,-393216,93,-56,-1,-1,0
1523631478148,-458752,93,-56,-1,-1,0
1523631478148,-589824,93,-56,-1,-1,0
1523631478148,-720896,93,-56,-1,-1,0
1523631478188,-720896,93,-56,-1,-1,0
1523631478188,-655360,93,-56,-1,-1,0
1523631478188,-589824,93,-56,-1,-1,0
1523631478188,-524288,93,-56,-1,-1,0
1523631478188,-655360,93,-56,-1,-1,0
1523631478228,-851968,93,-56,-1,-1,0
1523631478228,-917504,93,-56,-1,-1,0
1523631478228,-917504,93,-56,-1,-1,0
1523631478228,-851968,93,-56,-1,-1,0
1523631478228,-851968,93,-56,-1,-1,0
1523631478268,-851968,93,-56,-1,-1,0
1523631478268,-1048576,93,-56,-1,-1,0
1523631478268,-1048576,93,-56,-1,-1,0
1523631478268,-1179648,93,-56,-1,-1,0
1523631478268,-1179648,93,-56,-1,-1,0
1523631478308,-1048576,93,-56,-1,-1,0
1523631478308,-786432,93,-56,-1,-1,0
1523631478308,-720896,93,-56,-1,-1,0
1523631478308,-851968,93,-56,-1,-1,0
1523631478308,-1048576,93,-56,-1,-1,0
1523631478348,-1114112,93,-56,-1,-1,0
1523631478348,-1048576,93,-56,-1,-1,0
1523631478348,-1048576,93,-56,-1,-1,0
1523631478348,-983040,93,-56,-1,-1,0
1523631478348,-1179648,93,-56,-1,-1,0
1523631478388,-1441792,93,-56,-1,-1,0
1523631478388,-1441792,93,-56,-1,-1,0
1523631478388,-1441792,93,-56,-1,-1,0
1523631478388,-1507328,93,-56,-1,-1,0
1523631478388,-1703936,93,-56,-1,-1,0
1523631478428,-1703936,93,-56,-1,-1,0
1523631478428,-1703936,93,-56,-1,-1,0
1523631478428,-1703936,93,-56,-1,-1,0
1523631478428,-1507328,93,-56,-1,-1,0
1523631478428,-1245184,93,-56,-1,-1,0
1523631478468,-1376256,93,-56,-1,-1,0
1523631478468,-1638400,93,-56,-1,-1,0
1523631478468,-1703936,93,-56,-1,-1,0
1523631478468,-1572864,93,-56,-1,-1,0
1523631478468,-1507328,93,-56,-1,-1,0
1523631478510,-1441792,93,-56,-1,-1,0
1523631478510,-1376256,93,-56,-1,-1,0
1523631478510,-1179648,93,-56,-1,-1,0
1523631478510,-1114112,93,-56,-1,-1,0
1523631478510,-1245184,93,-56,-1,-1,0
1523631478548,-1572864,93,-56,-1,-1,0
1523631478548,-1638400,93,-56,-1,-1,0
1523631478548,-1507328,93,-56,-1,-1,0
1523631478548,-1310720,93,-56,-1,-1,0
1523631478548,-1179648,93,-56,-1,-1,0
1523631478588,-786432,93,-56,-1,-1,0
1523631478588,-524288,93,-56,-1,-1,0
1523631478588,-393216,93,-56,-1,-1,0
1523631478588,-393216,93,-56,-1,-1,0
1523631478588,-655360,93,-56,-1,-1,0
1523631478628,-1048576,93,-56,-1,-1,0
1523631478628,-1245184,93,-56,-1,-1,0
1523631478628,-1114112,93,-56,-1,-1,0
1523631478628,-983040,93,-56,-1,-1,0
1523631478628,-524288,93,-56,-1,-1,0
1523631478668,1966080,93,-56,-1,-1,0
1523631478668,7602176,93,-56,-1,-1,0
1523631478668,11141120,93,-56,-1,-1,0
1523631478668,6750208,93,-56,-1,-1,0
1523631478668,-1048576,93,-56,-1,-1,0
1523631478708,-4456448,93,-56,-1,-1,0
1523631478708,-3014656,93,-56,-1,-1,0
1523631478708,-1507328,93,-56,-1,-1,0
1523631478708,-1048576,93,-56,-1,-1,0
1523631478708,-851968,93,-56,-1,-1,0
1523631478748,-655360,93,-56,-1,-1,0
1523631478748,-655360,93,-56,-1,-1,0
1523631478748,-589824,93,-56,-1,-1,0
1523631478748,-524288,93,-56,-1,-1,0
1523631478748,-458752,93,-56,-1,-1,0
1523631478788,-393216,93,-56,-1,-1,0
1523631478788,-196608,93,-56,-1,-1,0
1523631478788,-65536,93,-56,-1,-1,0
1523631478788,65536,93,-56,-1,-1,0
1523631478788,65536,93,-56,-1,-1,0
1523631478828,327680,93,-56,-1,-1,0
1523631478828,655360,93,-56,-1,-1,0
1523631478828,1179648,93,-56,-1,-1,0
1523631478828,1376256,93,-56,-1,-1,0
1523631478828,1441792,93,-56,-1,-1,0
1523631478868,1638400,94,-56,-1,-1,0
1523631478868,2031616,94,-56,-1,-1,0
1523631478868,2883584,94,-56,-1,-1,0
1523631478868,3670016,94,-56,-1,-1,0
1523631478868,4128768,94,-56,-1,-1,0
1523631478908,4521984,94,-56,-1,-1,0
1523631478908,4849664,94,-56,-1,-1,0
1523631478908,5177344,94,-56,-1,-1,0
1523631478908,5242880,94,-56,-1,-1,0
1523631478908,5308416,94,-56,-1,-1,0
1523631478948,5177344,94,-56,-1,-1,0
1523631478948,4849664,94,-56,-1,-1,0
1523631478948,4194304,94,-56,-1,-1,0
1523631478948,3276800,94,-56,-1,-1,0
1523631478948,2293760,94,-56,-1,-1,0
1523631478988,1572864,94,-56,-1,-1,0
1523631478988,1048576,94,-56,-1,-1,0
1523631478988,524288,94,-56,-1,-1,0
1523631478988,131072,94,-56,-1,-1,0
1523631478988,131072,94,-56,-1,-1,0
1523631479028,196608,94,-56,-1,-1,0
1523631479028,65536,94,-56,-1,-1,0
1523631479028,-65536,94,-56,-1,-1,0
1523631479028,-65536,94,-56,-1,-1,0
1523631479028,-65536,94,-56,-1,-1,0
1523631479068,-196608,94,-56,-1,-1,0
1523631479068,-262144,94,-56,-1,-1,0
1523631479068,-196608,94,-56,-1,-1,0
1523631479068,-393216,94,-56,-1,-1,0
1523631479068,-524288,94,-56,-1,-1,0
1523631479108,-524288,94,-56,-1,-1,0
1523631479108,-786432,94,-56,-1,-1,0
1523631479108,-1048576,94,-56,-1,-1,0
1523631479108,-1114112,94,-56,-1,-1,0
1523631479108,-1048576,94,-56,-1,-1,0
1523631479150,-983040,94,-56,-1,-1,0
1523631479150,-1048576,94,-56,-1,-1,0
1523631479150,-1114112,94,-56,-1,-1,0
1523631479150,-1441792,94,-56,-1,-1,0
1523631479150,-1441792,94,-56,-1,-1,0
1523631479188,-1114112,94,-56,-1,-1,0
1523631479188,-851968,94,-56,-1,-1,0
1523631479188,-983040,94,-56,-1,-1,0
1523631479188,-1048576,94,-56,-1,-1,0
1523631479188,-1048576,94,-56,-1,-1,0
1523631479228,-1048576,94,-56,-1,-1,0
1523631479228,-1179648,94,-56,-1,-1,0
1523631479228,-1245184,94,-56,-1,-1,0
1523631479228,-1114112,94,-56,-1,-1,0
1523631479228,-1048576,94,-56,-1,-1,0
1523631479268,-1048576,94,-56,-1,-1,0
1523631479268,-1179648,94,-56,-1,-1,0
1523631479268,-1179648,94,-56,-1,-1,0
1523631479268,-1114112,94,-56,-1,-1,0
1523631479268,-1114112,94,-56,-1,-1,0
1523631479308,-1245184,94,-56,-1,-1,0
1523631479308,-1376256,94,-56,-1,-1,0
1523631479308,-1441792,94,-56,-1,-1,0
1523631479308,-1507328,94,-56,-1,-1,0
1523631479308,-1376256,94,-56,-1,-1,0
1523631479348,-1245184,94,-56,-1,-1,0
1523631479348,-1310720,94,-56,-1,-1,0
1523631479348,-1376256,94,-56,-1,-1,0
1523631479348,-1310720,94,-56,-1,-1,0
1523631479348,-1310720,94,-56,-1,-1,0
1523631479388,-1376256,94,-56,-1,-1,0
1523631479388,-1376256,94,-56,-1,-1,0
1523631479388,-1376256,94,-56,-1,-1,0
1523631479388,-1179648,94,-56,-1,-1,0
1523631479388,-1179648,94,-56,-1,-1,0
1523631479428,-1507328,94,-56,-1,-1,0
1523631479428,-1703936,94,-56,-1,-1,0
1523631479428,-1572864,94,-56,-1,-1,0
1523631479428,-1441792,94,-56,-1,-1,0
1523631479428,-1441792,94,-56,-1,-1,0
1523631479468,-1441792,94,-56,-1,-1,0
1523631479468,-1245184,94,-56,-1,-1,0
1523631479468,-851968,94,-56,-1,-1,0
1523631479468,-458752,94,-56,-1,-1,0
1523631479468,-196608,94,-56,-1,-1,0
1523631479508,-327680,94,-56,-1,-1,0
1523631479508,-720896,94,-56,-1,-1,0
1523631479508,-1310720,94,-56,-1,-1,0
1523631479508,-1638400,94,-56,-1,-1,0
1523631479508,-1572864,94,-56,-1,-1,0
1523631479548,-1441792,94,-56,-1,-1,0
1523631479548,-1638400,94,-56,-1,-1,0
1523631479548,-1441792,94,-56,-1,-1,0
1523631479548,262144,94,-56,-1,-1,0
1523631479548,4587520,94,-56,-1,-1,0
1523631479588,9175040,94,-56,-1,-1,0
1523631479588,7864320,94,-56,-1,-1,0
1523631479588,786432,94,-56,-1,-1,0
1523631479588,-4980736,94,-56,-1,-1,0
1523631479588,-5832704,94,-56,-1,-1,0
1523631479628,-4259840,94,-56,-1,-1,0
1523631479628,-2621440,94,-56,-1,-1,0
1523631479628,-1638400,94,-56,-1,-1,0
1523631479628,-1572864,94,-56,-1,-1,0
1523631479628,-1572864,94,-56,-1,-1,0
1523631479668,-1376256,94,-56,-1,-1,0
1523631479668,-1245184,94,-56,-1,-1,0
1523631479668,-983040,94,-56,-1,-1,0
1523631479668,-589824,94,-56,-1,-1,0
1523631479668,-589824,94,-56,-1,-1,0
1523631479708,-655360,94,-56,-1,-1,0
1523631479708,-393216,94,-56,-1,-1,0
1523631479708,65536,94,-56,-1,-1,0
1523631479708,262144,94,-56,-1,-1,0
1523631479708,327680,94,-56,-1,-1,0
1523631479748,524288,94,-56,-1,-1,0
1523631479748,917504,94,-56,-1,-1,0
1523631479748,1507328,94,-56,-1,-1,0
1523631479748,2031616,94,-56,-1,-1,0
1523631479748,2490368,94,-56,-1,-1,0
1523631479790,2949120,94,-56,-1,-1,0
1523631479790,3473408,94,-56,-1,-1,0
1523631479790,4128768,94,-56,-1,-1,0
1523631479790,4653056,94,-56,-1,-1,0
1523631479790,5177344,94,-56,-1,-1,0
1523631479828,5439488,94,-56,-1,-1,0
1523631479828,5701632,94,-56,-1,-1,0
1523631479828,5832704,94,-56,-1,-1,0
1523631479828,5505024,94,-56,-1,-1,0
1523631479828,4784128,94,-56,-1,-1,0
1523631479868,4128768,94,-56,-1,-1,0
1523631479868,3407872,94,-56,-1,-1,0
1523631479868,2359296,94,-56,-1,-1,0
1523631479868,1441792,94,-56,-1,-1,0
1523631479868,786432,94,-56,-1,-1,0
1523631479908,196608,94,-56,-1,-1,0
1523631479908,-65536,94,-56,-1,-1,0
1523631479908,-262144,94,-56,-1,-1,0
1523631479908,-393216,94,-56,-1,-1,0
1523631479908,-458752,94,-56,-1,-1,0
1523631479948,-458752,94,-56,-1,-1,0
1523631479948,-393216,94,-56,-1,-1,0
1523631479948,-393216,94,-56,-1,-1,0
1523631479948,-458752,94,-56,-1,-1,0
1523631479948,-655360,94,-56,-1,-1,0
1523631479988,-786432,94,-56,-1,-1,0
1523631479988,-917504,94,-56,-1,-1,0
1523631479988,-917504,94,-56,-1,-1,0
1523631479988,-983040,94,-56,-1,-1,0
1523631479988,-1048576,94,-56,-1,-1,0
1523631480028,-1114112,94,-56,-1,-1,0
1523631480028,-1179648,94,-56,-1,-1,0
1523631480028,-1245184,94,-56,-1,-1,0
1523631480028,-1376256,94,-56,-1,-1,0
1523631480028,-1310720,94,-56,-1,-1,0
1523631480068,-1245184,94,-56,-1,-1,0
1523631480068,-1245184,94,-56,-1,-1,0
1523631480068,-1310720,94,-56,-1,-1,0
1523631480068,-1441792,94,-56,-1,-1,0
1523631480068,-1507328,94,-56,-1,-1,0
1523631480108,-1507328,94,-56,-1,-1,0
1523631480108,-1376256,94,-56,-1,-1,0
1523631480108,-1376256,94,-56,-1,-1,0
1523631480108,-1245184,94,-56,-1,-1,0
1523631480108,-1179648,94,-56,-1,-1,0
1523631480148,-1179648,94,-56,-1,-1,0
1523631480148,-1376256,94,-56,-1,-1,0
1523631480148,-1507328,94,-56,-1,-1,0
1523631480148,-1769472,94,-56,-1,-1,0
1523631480148,-1835008,94,-56,-1,-1,0
1523631480188,-1572864,94,-56,-1,-1,0
1523631480188,-1310720,94,-56,-1,-1,0
1523631480188,-1310720,94,-56,-1,-1,0
1523631480188,-1376256,94,-56,-1,-1,0
1523631480188,-1507328,94,-56,-1,-1,0
1523631480228,-1507328,94,-56,-1,-1,0
1523631480228,-1572864,94,-56,-1,-1,0
1523631480228,-1638400,94,-56,-1,-1,0
1523631480228,-1507328,94,-56,-1,-1,0
1523631480228,-1441792,94,-56,-1,-1,0
1523631480268,-1572864,94,-56,-1,-1,0
1523631480268,-1376256,94,-56,-1,-1,0
1523631480268,-1048576,94,-56,-1,-1,0
1523631480268,-720896,94,-56,-1,-1,0
1523631480268,-589824,94,-56,-1,-1,0
1523631480308,-720896,94,-56,-1,-1,0
1523631480308,-983040,94,-56,-1,-1,0
1523631480308,-1114112,94,-56,-1,-1,0
1523631480308,-1310720,94,-56,-1,-1,0
1523631480308,-1441792,94,-56,-1,-1,0
1523631480348,-1245184,94,-56,-1,-1,0
1523631480348,-1179648,94,-56,-1,-1,0
1523631480348,-720896,94,-56,-1,-1,0
1523631480348,2162688,94,-56,-1,-1,0
1523631480348,8060928,94,-56,-1,-1,0
1523631480388,10223616,94,-56,-1,-1,0
1523631480388,4194304,94,-56,-1,-1,0
1523631480388,-3604480,94,-56,-1,-1,0
1523631480388,-5832704,94,-56,-1,-1,0
1523631480388,-3932160,94,-56,-1,-1,0
1523631480430,-2228224,94,-56,-1,-1,0
1523631480430,-1507328,94,-56,-1,-1,0
1523631480430,-1179648,94,-56,-1,-1,0
1523631480430,-1048576,94,-56,-1,-1,0
1523631480430,-917504,94,-56,-1,-1,0
1523631480468,-720896,94,-56,-1,-1,0
1523631480468,-786432,94,-56,-1,-1,0
1523631480468,-917504,94,-56,-1,-1,0
1523631480468,-851968,94,-56,-1,-1,0
1523631480468,-524288,94,-56,-1,-1,0
1523631480508,-327680,94,-56,-1,-1,0
1523631480508,-65536,94,-56,-1,-1,0
1523631480508,393216,94,-56,-1,-1,0
1523631480508,655360,94,-56,-1,-1,0
1523631480508,786432,94,-56,-1,-1,0
1523631480548,983040,94,-56,-1,-1,0
1523631480548,1507328,94,-56,-1,-1,0
1523631480548,1966080,94,-56,-1,-1,0
1523631480548,2228224,94,-56,-1,-1,0
1523631480548,2686976,94,-56,-1,-1,0
1523631480588,3342336,94,-56,-1,-1,0
1523631480588,3801088,94,-56,-1,-1,0
1523631480588,4128768,94,-56,-1,-1,0
1523631480588,4849664,94,-56,-1,-1,0
1523631480588,5373952,94,-56,-1,-1,0
1523631480628,5439488,94,-56,-1,-1,0
1523631480628,5177344,94,-56,-1,-1,0
1523631480628,4980736,94,-56,-1,-1,0
1523631480628,4718592,94,-56,-1,-1,0
1523631480628,3997696,94,-56,-1,-1,0
1523631480668,3014656,94,-56,-1,-1,0
1523631480668,2097152,94,-56,-1,-1,0
1523631480668,1179648,94,-56,-1,-1,0
1523631480668,393216,94,-56,-1,-1,0
1523631480668,0,94,-56,-1,-1,0
1523631480708,0,94,-56,-1,-1,0
1523631480708,0,94,-56,-1,-1,0
1523631480708,-131072,94,-56,-1,-1,0
1523631480708,-327680,94,-56,-1,-1,0
1523631480708,-327680,94,-56,-1,-1,0
1523631480748,-327680,94,-56,-1,-1,0
1523631480748,-524288,94,-56,-1,-1,0
1523631480748,-720896,94,-56,-1,-1,0
1523631480748,-655360,94,-56,-1,-1,0
1523631480748,-393216,94,-56,-1,-1,0
1523631480788,-196608,94,-56,-1,-1,0
1523631480788,-262144,94,-56,-1,-1,0
1523631480788,-589824,94,-56,-1,-1,0
1523631480788,-983040,94,-56,-1,-1,0
1523631480788,-1048576,94,-56,-1,-1,0
1523631480828,-786432,94,-56,-1,-1,0
1523631480828,-851968,94,-56,-1,-1,0
1523631480828,-1048576,94,-56,-1,-1,0
1523631480828,-1114112,94,-56,-1,-1,0
1523631480828,-917504,94,-56,-1,-1,0
1523631480868,-786432,94,-56,-1,-1,0
1523631480868,-786432,94,-56,-1,-1,0
1523631480868,-983040,94,-56,-1,-1,0
1523631480868,-983040,94,-56,-1,-1,0
1523631480868,-1114112,94,-56,-1,-1,0
1523631480908,-1114112,94,-56,-1,-1,0
1523631480908,-1048576,94,-56,-1,-1,0
1523631480908,-1179648,94,-56,-1,-1,0
1523631480908,-1310720,94,-56,-1,-1,0
1523631480908,-1310720,94,-56,-1,-1,0
1523631480948,-1179648,94,-56,-1,-1,0
1523631480948,-1179648,94,-56,-1,-1,0
1523631480948,-1114112,94,-56,-1,-1,0
1523631480948,-1245184,94,-56,-1,-1,0
1523631480948,-1179648,94,-56,-1,-1,0
1523631480988,-1310720,94,-56,-1,-1,0
1523631480988,-1572864,94,-56,-1,-1,0
1523631480988,-1507328,94,-56,-1,-1,0
1523631480988,-1245184,94,-56,-1,-1,0
1523631480988,-1310720,94,-56,-1,-1,0
1523631481028,-1572864,94,-56,-1,-1,0
1523631481028,-1572864,94,-56,-1,-1,0
1523631481028,-1769472,94,-56,-1,-1,0
1523631481028,-1769472,94,-56,-1,-1,0
1523631481028,-1441792,94,-56,-1,-1,0
1523631481070,-720896,94,-56,-1,-1,0
1523631481070,131072,94,-56,-1,-1,0
1523631481070,458752,94,-56,-1,-1,0
1523631481070,-196608,94,-56,-1,-1,0
1523631481070,-1114112,94,-56,-1,-1,0
1523631481108,-1376256,94,-56,-1,-1,0
1523631481108,-1572864,94,-56,-1,-1,0
1523631481108,-1835008,94,-56,-1,-1,0
1523631481108,-1835008,94,-56,-1,-1,0
1523631481108,-1376256,94,-56,-1,-1,0
1523631481148,0,94,-56,-1,-1,0
1523631481148,3735552,94,-56,-1,-1,0
1523631481148,8978432,94,-56,-1,-1,0
1523631481148,9371648,94,-56,-1,-1,0
1523631481148,2228224,94,-56,-1,-1,0
1523631481188,-4390912,94,-56,-1,-1,0
1523631481188,-5111808,94,-56,-1,-1,0
1523631481188,-2949120,94,-56,-1,-1,0
1523631481188,-1703936,94,-56,-1,-1,0
1523631481188,-1310720,94,-56,-1,-1,0
1523631481228,-1310720,92,-56,-1,-1,0
1523631481228,-1245184,92,-56,-1,-1,0
1523631481228,-1048576,92,-56,-1,-1,0
1523631481228,-851968,92,-56,-1,-1,0
1523631481228,-786432,92,-56,-1,-1,0
1523631481268,-720896,92,-56,-1,-1,0
1523631481268,-655360,92,-56,-1,-1,0
1523631481268,-458752,92,-56,-1,-1,0
1523631481268,-262144,92,-56,-1,-1,0
1523631481268,-65536,92,-56,-1,-1,0
1523631481308,131072,92,-56,-1,-1,0
1523631481308,393216,92,-56,-1,-1,0
1523631481308,655360,92,-56,-1,-1,0
1523631481308,983040,92,-56,-1,-1,0
1523631481308,1376256,92,-56,-1,-1,0
1523631481348,1703936,92,-56,-1,-1,0
1523631481348,2097152,92,-56,-1,-1,0
1523631481348,2686976,92,-56,-1,-1,0
1523631481348,3473408,92,-56,-1,-1,0
1523631481348,3932160,92,-56,-1,-1,0
1523631481388,4194304,92,-56,-1,-1,0
1523631481388,4521984,92,-56,-1,-1,0
1523631481388,4915200,92,-56,-1,-1,0
1523631481388,5111808,92,-56,-1,-1,0
1523631481388,5177344,92,-56,-1,-1,0
1523631481428,4915200,92,-56,-1,-1,0
1523631481428,4325376,92,-56,-1,-1,0
1523631481428,3276800,92,-56,-1,-1,0
1523631481428,2228224,92,-56,-1,-1,0
1523631481428,1310720,92,-56,-1,-1,0
1523631481468,720896,92,-56,-1,-1,0
1523631481468,262144,92,-56,-1,-1,0
1523631481468,-131072,92,-56,-1,-1,0
1523631481468,-589824,92,-56,-1,-1,0
1523631481468,-786432,92,-56,-1,-1,0
1523631481508,-720896,92,-56,-1,-1,0
1523631481508,-589824,92,-56,-1,-1,0
1523631481508,-655360,92,-56,-1,-1,0
1523631481508,-786432,92,-56,-1,-1,0
1523631481508,-786432,92,-56,-1,-1,0
1523631481548,-720896,92,-56,-1,-1,0
1523631481548,-851968,92,-56,-1,-1,0
1523631481548,-983040,92,-56,-1,-1,0
1523631481548,-851968,92,-56,-1,-1,0
1523631481548,-786432,92,-56,-1,-1,0
1523631481588,-983040,92,-56,-1,-1,0
1523631481588,-1179648,92,-56,-1,-1,0
1523631481588,-1245184,92,-56,-1,-1,0
1523631481588,-1114112,92,-56,-1,-1,0
1523631481588,-1114112,92,-56,-1,-1,0
1523631481628,-1179648,92,-56,-1,-1,0
1523631481628,-1179648,92,-56,-1,-1,0
1523631481628,-1179648,92,-56,-1,-1,0
1523631481628,-1245184,92,-56,-1,-1,0
1523631481628,-1310720,92,-56,-1,-1,0
1523631481668,-1245184,92,-56,-1,-1,0
1523631481668,-1179648,92,-56,-1,-1,0
1523631481668,-1245184,92,-56,-1,-1,0
1523631481668,-1310720,92,-56,-1,-1,0
1523631481668,-1441792,92,-56,-1,-1,0
1523631481709,-1572864,92,-56,-1,-1,0
1523631481709,-1441792,92,-56,-1,-1,0
1523631481709,-1310720,92,-56,-1,-1,0
1523631481709,-1310720,92,-56,-1,-1,0
1523631481709,-1441792,92,-56,-1,-1,0
1523631481748,-1376256,92,-56,-1,-1,0
1523631481748,-1310720,92,-56,-1,-1,0
1523631481748,-1245184,92,-56,-1,-1,0
1523631481748,-1245184,92,-56,-1,-1,0
1523631481748,-1245184,92,-56,-1,-1,0
1523631481788,-1376256,92,-56,-1,-1,0
1523631481788,-1572864,92,-56,-1,-1,0
1523631481788,-1572864,92,-56,-1,-1,0
1523631481788,-1507328,92,-56,-1,-1,0
1523631481788,-1507328,92,-56,-1,-1,0
1523631481828,-1638400,92,-56,-1,-1,0
1523631481828,-1572864,92,-56,-1,-1,0
1523631481828,-1376256,92,-56,-1,-1,0
1523631481828,-1114112,92,-56,-1,-1,0
1523631481828,-655360,92,-56,-1,-1,0
1523631481868,-196608,92,-56,-1,-1,0
1523631481868,-131072,92,-56,-1,-1,0
1523631481868,-524288,92,-56,-1,-1,0
1523631481868,-1048576,92,-56,-1,-1,0
1523631481868,-1245184,92,-56,-1,-1,0
1523631481908,-1179648,92,-56,-1,-1,0
1523631481908,-1114112,92,-56,-1,-1,0
1523631481908,-983040,92,-56,-1,-1,0
1523631481908,-655360,92,-56,-1,-1,0
1523631481908,1245184,92,-56,-1,-1,0
1523631481948,6225920,92,-56,-1,-1,0
1523631481948,10747904,92,-56,-1,-1,0
1523631481948,8323072,92,-56,-1,-1,0
1523631481948,393216,92,-56,-1,-1,0
1523631481948,-4325376,92,-56,-1,-1,0
1523631481988,-3735552,92,-56,-1,-1,0
1523631481988,-1966080,92,-56,-1,-1,0
1523631481988,-1179648,92,-56,-1,-1,0
1523631481988,-720896,92,-56,-1,-1,0
1523631481988,-458752,92,-56,-1,-1,0
1523631482028,-327680,88,-56,-1,-1,0
1523631482028,-589824,88,-56,-1,-1,0
1523631482028,-786432,88,-56,-1,-1,0
1523631482028,-720896,88,-56,-1,-1,0
1523631482028,-458752,88,-56,-1,-1,0
1523631482068,-131072,88,-56,-1,-1,0
1523631482068,131072,88,-56,-1,-1,0
1523631482068,524288,88,-56,-1,-1,0
1523631482068,589824,88,-56,-1,-1,0
1523631482068,524288,88,-56,-1,-1,0
1523631482108,655360,88,-56,-1,-1,0
1523631482108,1048576,88,-56,-1,-1,0
1523631482108,1376256,88,-56,-1,-1,0
1523631482108,1703936,88,-56,-1,-1,0
1523631482108,2228224,88,-56,-1,-1,0
1523631482148,2752512,88,-56,-1,-1,0
1523631482148,3211264,88,-56,-1,-1,0
1523631482148,3604480,88,-56,-1,-1,0
1523631482148,4194304,88,-56,-1,-1,0
1523631482148,4849664,88,-56,-1,-1,0
1523631482188,5177344,88,-56,-1,-1,0
1523631482188,5308416,88,-56,-1,-1,0
1523631482188,5505024,88,-56,-1,-1,0
1523631482188,5570560,88,-56,-1,-1,0
1523631482188,5046272,88,-56,-1,-1,0
1523631482228,4456448,88,-56,-1,-1,0
1523631482228,3801088,88,-56,-1,-1,0
1523631482228,2686976,88,-56,-1,-1,0
1523631482228,1638400,88,-56,-1,-1,0
1523631482228,1048576,88,-56,-1,-1,0
1523631482268,655360,88,-56,-1,-1,0
1523631482268,131072,88,-56,-1,-1,0
1523631482268,0,88,-56,-1,-1,0
1523631482268,0,88,-56,-1,-1,0
1523631482268,65536,88,-56,-1,-1,0
1523631482308,0,88,-56,-1,-1,0
1523631482308,-458752,88,-56,-1,-1,0
1523631482308,-589824,88,-56,-1,-1,0
1523631482308,-393216,88,-56,-1,-1,0
1523631482308,-393216,88,-56,-1,-1,0
1523631482349,-589824,88,-56,-1,-1,0
1523631482349,-524288,88,-56,-1,-1,0
1523631482349,-524288,88,-56,-1,-1,0
1523631482349,-786432,88,-56,-1,-1,0
1523631482349,-786432,88,-56,-1,-1,0
1523631482388,-1048576,88,-56,-1,-1,0
1523631482388,-1310720,88,-56,-1,-1,0
1523631482388,-1245184,88,-56,-1,-1,0
1523631482388,-851968,88,-56,-1,-1,0
1523631482388,-1179648,88,-56,-1,-1,0
1523631482428,-1245184,88,-56,-1,-1,0
1523631482428,-1048576,88,-56,-1,-1,0
1523631482428,-1179648,88,-56,-1,-1,0
1523631482428,-1441792,88,-56,-1,-1,0
1523631482428,-1572864,88,-56,-1,-1,0
1523631482468,-1703936,88,-56,-1,-1,0
1523631482468,-1769472,88,-56,-1,-1,0
1523631482468,-1703936,88,-56,-1,-1,0
1523631482468,-1376256,88,-56,-1,-1,0
1523631482468,-1310720,88,-56,-1,-1,0
1523631482508,-1376256,88,-56,-1,-1,0
1523631482508,-1572864,88,-56,-1,-1,0
1523631482508,-1769472,88,-56,-1,-1,0
1523631482508,-1703936,88,-56,-1,-1,0
1523631482508,-1310720,88,-56,-1,-1,0
1523631482548,-1376256,88,-56,-1,-1,0
1523631482548,-1900544,88,-56,-1,-1,0
1523631482548,-2293760,88,-56,-1,-1,0
1523631482548,-2162688,88,-56,-1,-1,0
1523631482548,-1769472,88,-56,-1,-1,0
1523631482588,-1507328,88,-56,-1,-1,0
1523631482588,-1507328,88,-56,-1,-1,0
1523631482588,-1769472,88,-56,-1,-1,0
1523631482588,-2162688,88,-56,-1,-1,0
1523631482588,-2031616,88,-56,-1,-1,0
1523631482628,-1703936,88,-56,-1,-1,0
1523631482628,-1572864,88,-56,-1,-1,0
1523631482628,-1638400,88,-56,-1,-1,0
1523631482628,-1507328,88,-56,-1,-1,0
1523631482628,-1245184,88,-56,-1,-1,0
1523631482668,-983040,88,-56,-1,-1,0
1523631482668,-786432,88,-56,-1,-1,0
1523631482668,-720896,88,-56,-1,-1,0
1523631482668,-786432,88,-56,-1,-1,0
1523631482668,-1114112,88,-56,-1,-1,0
1523631482708,-1245184,88,-56,-1,-1,0
1523631482708,-1310720,88,-56,-1,-1,0
1523631482708,-1376256,88,-56,-1,-1,0
1523631482708,-1441792,88,-56,-1,-1,0
1523631482708,-1245184,88,-56,-1,-1,0
1523631482748,589824,88,-56,-1,-1,0
1523631482748,5308416,88,-56,-1,-1,0
1523631482748,9568256,88,-56,-1,-1,0
1523631482748,7077888,88,-56,-1,-1,0
1523631482748,-851968,88,-56,-1,-1,0
1523631482788,-5963776,84,-56,-1,-1,0
1523631482788,-5177344,84,-56,-1,-1,0
1523631482788,-3014656,84,-56,-1,-1,0
1523631482788,-2031616,84,-56,-1,-1,0
1523631482788,-1835008,84,-56,-1,-1,0
1523631482828,-1703936,84,-56,-1,-1,0
1523631482828,-1310720,84,-56,-1,-1,0
1523631482828,-1179648,84,-56,-1,-1,0
1523631482828,-1376256,84,-56,-1,-1,0
1523631482828,-1376256,84,-56,-1,-1,0
1523631482868,-1114112,84,-56,-1,-1,0
1523631482868,-917504,84,-56,-1,-1,0
1523631482868,-917504,84,-56,-1,-1,0
1523631482868,-589824,84,-56,-1,-1,0
1523631482868,-327680,84,-56,-1,-1,0
1523631482908,-131072,84,-56,-1,-1,0
1523631482908,262144,84,-56,-1,-1,0
1523631482908,786432,84,-56,-1,-1,0
1523631482908,983040,84,-56,-1,-1,0
1523631482908,1245184,84,-56,-1,-1,0
1523631482948,1769472,84,-56,-1,-1,0
1523631482948,2162688,84,-56,-1,-1,0
1523631482948,2686976,84,-56,-1,-1,0
1523631482948,3276800,84,-56,-1,-1,0
1523631482948,3932160,84,-56,-1,-1,0
1523631482989,4653056,84,-56,-1,-1,0
1523631482989,5373952,84,-56,-1,-1,0
1523631482989,5636096,84,-56,-1,-1,0
1523631482989,5767168,84,-56,-1,-1,0
1523631482989,5767168,84,-56,-1,-1,0
1523631483028,5505024,84,-56,-1,-1,0
1523631483028,4784128,84,-56,-1,-1,0
1523631483028,3866624,84,-56,-1,-1,0
1523631483028,2949120,84,-56,-1,-1,0
1523631483028,2097152,84,-56,-1,-1,0
1523631483068,1179648,84,-56,-1,-1,0
1523631483068,524288,84,-56,-1,-1,0
1523631483068,196608,84,-56,-1,-1,0
1523631483068,0,84,-56,-1,-1,0
1523631483068,-327680,84,-56,-1,-1,0
1523631483108,-655360,84,-56,-1,-1,0
1523631483108,-786432,84,-56,-1,-1,0
1523631483108,-524288,84,-56,-1,-1,0
1523631483108,-327680,84,-56,-1,-1,0
1523631483108,-262144,84,-56,-1,-1,0
1523631483148,-524288,84,-56,-1,-1,0
1523631483148,-720896,84,-56,-1,-1,0
1523631483148,-720896,84,-56,-1,-1,0
1523631483148,-720896,84,-56,-1,-1,0
1523631483148,-917504,84,-56,-1,-1,0
1523631483188,-1245184,84,-56,-1,-1,0
1523631483188,-1310720,84,-56,-1,-1,0
1523631483188,-1179648,84,-56,-1,-1,0
1523631483188,-1114112,84,-56,-1,-1,0
1523631483188,-1310720,84,-56,-1,-1,0
1523631483228,-1376256,84,-56,-1,-1,0
1523631483228,-1507328,84,-56,-1,-1,0
1523631483228,-1376256,84,-56,-1,-1,0
1523631483228,-1310720,84,-56,-1,-1,0
1523631483228,-1507328,84,-56,-1,-1,0
1523631483268,-1179648,84,-56,-1,-1,0
1523631483268,-983040,84,-56,-1,-1,0
1523631483268,-1376256,84,-56,-1,-1,0
1523631483268,-1769472,84,-56,-1,-1,0
1523631483268,-1769472,84,-56,-1,-1,0
1523631483308,-1638400,84,-56,-1,-1,0
1523631483308,-1638400,84,-56,-1,-1,0
1523631483308,-1638400,84,-56,-1,-1,0
1523631483308,-1900544,84,-56,-1,-1,0
1523631483308,-1966080,84,-56,-1,-1,0
1523631483348,-1900544,84,-56,-1,-1,0
1523631483348,-1769472,84,-56,-1,-1,0
1523631483348,-1900544,84,-56,-1,-1,0
1523631483348,-1835008,84,-56,-1,-1,0
1523631483348,-1638400,84,-56,-1,-1,0
1523631483388,-1703936,84,-56,-1,-1,0
1523631483388,-1966080,84,-56,-1,-1,0
1523631483388,-2031616,84,-56,-1,-1,0
1523631483388,-2097152,84,-56,-1,-1,0
1523631483388,-1769472,84,-56,-1,-1,0
1523631483428,-1376256,84,-56,-1,-1,0
1523631483428,-917504,84,-56,-1,-1,0
1523631483428,-524288,84,-56,-1,-1,0
1523631483428,-655360,84,-56,-1,-1,0
1523631483428,-1310720,84,-56,-1,-1,0
1523631483468,-1835008,84,-56,-1,-1,0
1523631483468,-1900544,84,-56,-1,-1,0
1523631483468,-1703936,84,-56,-1,-1,0
1523631483468,-1572864,84,-56,-1,-1,0
1523631483468,-1638400,84,-56,-1,-1,0
1523631483508,-1572864,84,-56,-1,-1,0
1523631483508,-65536,84,-56,-1,-1,0
1523631483508,4390912,84,-56,-1,-1,0
1523631483508,9306112,84,-56,-1,-1,0
1523631483508,7667712,84,-56,-1,-1,0
1523631483548,262144,81,-56,-1,-1,0
1523631483548,-5308416,81,-56,-1,-1,0
1523631483548,-5636096,81,-56,-1,-1,0
1523631483548,-3932160,81,-56,-1,-1,0
1523631483548,-2490368,81,-56,-1,-1,0
1523631483588,-1966080,81,-56,-1,-1,0
1523631483588,-1966080,81,-56,-1,-1,0
1523631483588,-1769472,81,-56,-1,-1,0
1523631483588,-1441792,81,-56,-1,-1,0
1523631483588,-1310720,81,-56,-1,-1,0
1523631483630,-1245184,81,-56,-1,-1,0
1523631483630,-1048576,81,-56,-1,-1,0
1523631483630,-786432,81,-56,-1,-1,0
1523631483630,-589824,81,-56,-1,-1,0
1523631483630,-458752,81,-56,-1,-1,0
1523631483668,-393216,81,-56,-1,-1,0
1523631483668,-196608,81,-56,-1,-1,0
1523631483668,196608,81,-56,-1,-1,0
1523631483668,720896,81,-56,-1,-1,0
1523631483668,851968,81,-56,-1,-1,0
1523631483708,720896,81,-56,-1,-1,0
1523631483708,1048576,81,-56,-1,-1,0
1523631483708,1835008,81,-56,-1,-1,0
1523631483708,2883584,81,-56,-1,-1,0
1523631483708,3735552,81,-56,-1,-1,0
1523631483748,4259840,81,-56,-1,-1,0
1523631483748,4718592,81,-56,-1,-1,0
1523631483748,5111808,81,-56,-1,-1,0
1523631483748,5373952,81,-56,-1,-1,0
1523631483748,5570560,81,-56,-1,-1,0
1523631483788,5701632,81,-56,-1,-1,0
1523631483788,5439488,81,-56,-1,-1,0
1523631483788,4718592,81,-56,-1,-1,0
1523631483788,3801088,81,-56,-1,-1,0
1523631483788,2818048,81,-56,-1,-1,0
1523631483828,1966080,81,-56,-1,-1,0
1523631483828,1114112,81,-56,-1,-1,0
1523631483828,524288,81,-56,-1,-1,0
1523631483828,-65536,81,-56,-1,-1,0
1523631483828,-458752,81,-56,-1,-1,0
1523631483868,-458752,81,-56,-1,-1,0
1523631483868,-262144,81,-56,-1,-1,0
1523631483868,-327680,81,-56,-1,-1,0
1523631483868,-524288,81,-56,-1,-1,0
1523631483868,-655360,81,-56,-1,-1,0
1523631483908,-786432,81,-56,-1,-1,0
1523631483908,-720896,81,-56,-1,-1,0
1523631483908,-655360,81,-56,-1,-1,0
1523631483908,-983040,81,-56,-1,-1,0
1523631483908,-917504,81,-56,-1,-1,0
1523631483948,-589824,81,-56,-1,-1,0
1523631483948,-655360,81,-56,-1,-1,0
1523631483948,-1114112,81,-56,-1,-1,0
1523631483948,-1310720,81,-56,-1,-1,0
1523631483948,-1048576,81,-56,-1,-1,0
1523631483988,-655360,81,-56,-1,-1,0
1523631483988,-589824,81,-56,-1,-1,0
1523631483988,-1048576,81,-56,-1,-1,0
1523631483988,-1310720,81,-56,-1,-1,0
1523631483988,-1376256,81,-56,-1,-1,0
1523631484028,-1114112,81,-56,-1,-1,0
1523631484028,-1048576,81,-56,-1,-1,0
1523631484028,-1310720,81,-56,-1,-1,0
1523631484028,-1441792,81,-56,-1,-1,0
1523631484028,-1507328,81,-56,-1,-1,0
1523631484068,-1376256,81,-56,-1,-1,0
1523631484068,-1245184,81,-56,-1,-1,0
1523631484068,-1048576,81,-56,-1,-1,0
1523631484068,-1179648,81,-56,-1,-1,0
1523631484068,-1114112,81,-56,-1,-1,0
1523631484108,-983040,81,-56,-1,-1,0
1523631484108,-983040,81,-56,-1,-1,0
1523631484108,-1114112,81,-56,-1,-1,0
1523631484108,-1376256,81,-56,-1,-1,0
1523631484108,-1507328,81,-56,-1,-1,0
1523631484148,-1245184,81,-56,-1,-1,0
1523631484148,-786432,81,-56,-1,-1,0
1523631484148,-589824,81,-56,-1,-1,0
1523631484148,-393216,81,-56,-1,-1,0
1523631484148,-65536,81,-56,-1,-1,0
1523631484188,65536,79,-56,-1,-1,0
1523631484188,-65536,79,-56,-1,-1,0
1523631484188,-655360,79,-56,-1,-1,0
1523631484188,-1048576,79,-56,-1,-1,0
1523631484188,-1310720,79,-56,-1,-1,0
1523631484228,-1310720,79,-56,-1,-1,0
1523631484228,-1376256,79,-56,-1,-1,0
1523631484228,-1507328,79,-56,-1,-1,0
1523631484228,-720896,79,-56,-1,-1,0
1523631484228,2818048,79,-56,-1,-1,0
1523631484269,8519680,79,-56,-1,-1,0
1523631484269,9568256,79,-56,-1,-1,0
1523631484269,3211264,79,-56,-1,-1,0
1523631484269,-3932160,79,-56,-1,-1,0
1523631484269,-5701632,79,-56,-1,-1,0
1523631484308,-3932160,79,-56,-1,-1,0
1523631484308,-2228224,79,-56,-1,-1,0
1523631484308,-1769472,79,-56,-1,-1,0
1523631484308,-1638400,79,-56,-1,-1,0
1523631484308,-1507328,79,-56,-1,-1,0
1523631484348,-1507328,79,-56,-1,-1,0
1523631484348,-1441792,79,-56,-1,-1,0
1523631484348,-1376256,79,-56,-1,-1,0
1523631484348,-1245184,79,-56,-1,-1,0
1523631484348,-851968,79,-56,-1,-1,0
1523631484388,-720896,79,-56,-1,-1,0
1523631484388,-851968,79,-56,-1,-1,0
1523631484388,-786432,79,-56,-1,-1,0
1523631484388,-524288,79,-56,-1,-1,0
1523631484388,-131072,79,-56,-1,-1,0
1523631484428,262144,79,-56,-1,-1,0
1523631484428,589824,79,-56,-1,-1,0
1523631484428,917504,79,-56,-1,-1,0
1523631484428,1179648,79,-56,-1,-1,0
1523631484428,1507328,79,-56,-1,-1,0
1523631484468,1966080,79,-56,-1,-1,0
1523631484468,2555904,79,-56,-1,-1,0
1523631484468,3342336,79,-56,-1,-1,0
1523631484468,4063232,79,-56,-1,-1,0
1523631484468,4456448,79,-56,-1,-1,0
1523631484508,4521984,79,-56,-1,-1,0
1523631484508,4587520,79,-56,-1,-1,0
1523631484508,4784128,79,-56,-1,-1,0
1523631484508,4718592,79,-56,-1,-1,0
1523631484508,4194304,79,-56,-1,-1,0
1523631484548,3276800,79,-56,-1,-1,0
1523631484548,2293760,79,-56,-1,-1,0
1523631484548,1376256,79,-56,-1,-1,0
1523631484548,524288,79,-56,-1,-1,0
1523631484548,-65536,79,-56,-1,-1,0
1523631484588,-458752,79,-56,-1,-1,0
1523631484588,-589824,79,-56,-1,-1,0
1523631484588,-327680,79,-56,-1,-1,0
1523631484588,-327680,79,-56,-1,-1,0
1523631484588,-720896,79,-56,-1,-1,0
1523631484628,-1114112,79,-56,-1,-1,0
1523631484628,-1114112,79,-56,-1,-1,0
1523631484628,-983040,79,-56,-1,-1,0
1523631484628,-983040,79,-56,-1,-1,0
1523631484628,-786432,79,-56,-1,-1,0
1523631484668,-655360,79,-56,-1,-1,0
1523631484668,-720896,79,-56,-1,-1,0
1523631484668,-1048576,79,-56,-1,-1,0
1523631484668,-1376256,79,-56,-1,-1,0
1523631484668,-1245184,79,-56,-1,-1,0
1523631484708,-917504,79,-56,-1,-1,0
1523631484708,-917504,79,-56,-1,-1,0
1523631484708,-1048576,79,-56,-1,-1,0
1523631484708,-1179648,79,-56,-1,-1,0
1523631484708,-1245184,79,-56,-1,-1,0
1523631484748,-1310720,79,-56,-1,-1,0
1523631484748,-1245184,79,-56,-1,-1,0
1523631484748,-1048576,79,-56,-1,-1,0
1523631484748,-1048576,79,-56,-1,-1,0
1523631484748,-1245184,79,-56,-1,-1,0
1523631484788,-1703936,79,-56,-1,-1,0
1523631484788,-1769472,79,-56,-1,-1,0
1523631484788,-1703936,79,-56,-1,-1,0
1523631484788,-1638400,79,-56,-1,-1,0
1523631484788,-1572864,79,-56,-1,-1,0
1523631484828,-1179648,79,-56,-1,-1,0
1523631484828,-655360,79,-56,-1,-1,0
1523631484828,-393216,79,-56,-1,-1,0
1523631484828,-524288,79,-56,-1,-1,0
1523631484828,-851968,79,-56,-1,-1,0
1523631484868,-1179648,79,-56,-1,-1,0
1523631484868,-1245184,79,-56,-1,-1,0
1523631484868,-1114112,79,-56,-1,-1,0
1523631484868,-1179648,79,-56,-1,-1,0
1523631484868,-1179648,79,-56,-1,-1,0
1523631484909,524288,79,-56,-1,-1,0
1523631484909,5570560,79,-56,-1,-1,0
1523631484909,10289152,79,-56,-1,-1,0
1523631484909,8060928,79,-56,-1,-1,0
1523631484909,655360,79,-56,-1,-1,0
1523631484948,-3997696,79,-56,-1,-1,0
1523631484948,-3801088,79,-56,-1,-1,0
1523631484948,-2424832,79,-56,-1,-1,0
1523631484948,-1638400,79,-56,-1,-1,0
1523631484948,-1179648,79,-56,-1,-1,0
1523631484988,-1114112,79,-56,-1,-1,0
1523631484988,-1179648,79,-56,-1,-1,0
1523631484988,-1376256,79,-56,-1,-1,0
1523631484988,-1310720,79,-56,-1,-1,0
1523631484988,-983040,79,-56,-1,-1,0
1523631485028,-786432,79,-56,-1,-1,0
1523631485028,-917504,79,-56,-1,-1,0
1523631485028,-720896,79,-56,-1,-1,0
1523631485028,-524288,79,-56,-1,-1,0
1523631485028,-458752,79,-56,-1,-1,0
1523631485068,-65536,79,-56,-1,-1,0
1523631485068,327680,79,-56,-1,-1,0
1523631485068,655360,79,-56,-1,-1,0
1523631485068,917504,79,-56,-1,-1,0
1523631485068,1245184,79,-56,-1,-1,0
1523631485108,1703936,79,-56,-1,-1,0
1523631485108,2424832,79,-56,-1,-1,0
1523631485108,2949120,79,-56,-1,-1,0
1523631485108,3211264,79,-56,-1,-1,0
1523631485108,3473408,79,-56,-1,-1,0
1523631485148,3735552,79,-56,-1,-1,0
1523631485148,4259840,79,-56,-1,-1,0
1523631485148,4718592,79,-56,-1,-1,0
1523631485148,4915200,79,-56,-1,-1,0
1523631485148,4653056,79,-56,-1,-1,0
1523631485188,4128768,79,-56,-1,-1,0
1523631485188,3211264,79,-56,-1,-1,0
1523631485188,2097152,79,-56,-1,-1,0
1523631485188,1114112,79,-56,-1,-1,0
1523631485188,327680,79,-56,-1,-1,0
1523631485228,-196608,79,-56,-1,-1,0
1523631485228,-524288,79,-56,-1,-1,0
1523631485228,-720896,79,-56,-1,-1,0
1523631485228,-786432,79,-56,-1,-1,0
1523631485228,-786432,79,-56,-1,-1,0
1523631485268,-851968,79,-56,-1,-1,0
1523631485268,-983040,79,-56,-1,-1,0
1523631485268,-1114112,79,-56,-1,-1,0
1523631485268,-1114112,79,-56,-1,-1,0
1523631485268,-1114112,79,-56,-1,-1,0
1523631485308,-1245184,79,-56,-1,-1,0
1523631485308,-1376256,79,-56,-1,-1,0
1523631485308,-1310720,79,-56,-1,-1,0
1523631485308,-1245184,79,-56,-1,-1,0
1523631485308,-1245184,79,-56,-1,-1,0
1523631485348,-1310720,79,-56,-1,-1,0
1523631485348,-1376256,79,-56,-1,-1,0
1523631485348,-1441792,79,-56,-1,-1,0
1523631485348,-1507328,79,-56,-1,-1,0
1523631485348,-1572864,79,-56,-1,-1,0
1523631485388,-1572864,79,-56,-1,-1,0
1523631485388,-1638400,79,-56,-1,-1,0
1523631485388,-1769472,79,-56,-1,-1,0
1523631485388,-1966080,79,-56,-1,-1,0
1523631485388,-2162688,79,-56,-1,-1,0
1523631485428,-2293760,79,-56,-1,-1,0
1523631485428,-2293760,79,-56,-1,-1,0
1523631485428,-2031616,79,-56,-1,-1,0
1523631485428,-1441792,79,-56,-1,-1,0
1523631485428,-983040,79,-56,-1,-1,0
1523631485468,-851968,79,-56,-1,-1,0
1523631485468,-1114112,79,-56,-1,-1,0
1523631485468,-1441792,79,-56,-1,-1,0
1523631485468,-1572864,79,-56,-1,-1,0
1523631485468,-1638400,79,-56,-1,-1,0
1523631485508,-1703936,79,-56,-1,-1,0
1523631485508,-1703936,79,-56,-1,-1,0
1523631485508,-1572864,79,-56,-1,-1,0
1523631485508,196608,79,-56,-1,-1,0
1523631485508,5570560,79,-56,-1,-1,0
1523631485549,10551296,79,-56,-1,-1,0
1523631485549,8060928,79,-56,-1,-1,0
1523631485549,-65536,79,-56,-1,-1,0
1523631485549,-5046272,79,-56,-1,-1,0
1523631485549,-4587520,79,-56,-1,-1,0
1523631485588,-2818048,79,-56,-1,-1,0
1523631485588,-1966080,79,-56,-1,-1,0
1523631485588,-1638400,79,-56,-1,-1,0
1523631485588,-1572864,79,-56,-1,-1,0
1523631485588,-1572864,79,-56,-1,-1,0
1523631485628,-1441792,79,-56,-1,-1,0
1523631485628,-1179648,79,-56,-1,-1,0
1523631485628,-1114112,79,-56,-1,-1,0
1523631485628,-1114112,79,-56,-1,-1,0
1523631485628,-1048576,79,-56,-1,-1,0
1523631485668,-983040,79,-56,-1,-1,0
1523631485668,-786432,79,-56,-1,-1,0
1523631485668,-327680,79,-56,-1,-1,0
1523631485668,0,79,-56,-1,-1,0
1523631485668,65536,79,-56,-1,-1,0
1523631485708,458752,79,-56,-1,-1,0
1523631485708,1114112,79,-56,-1,-1,0
1523631485708,1572864,79,-56,-1,-1,0
1523631485708,1966080,79,-56,-1,-1,0
1523631485708,2555904,79,-56,-1,-1,0
1523631485748,3211264,79,-56,-1,-1,0
1523631485748,3604480,79,-56,-1,-1,0
1523631485748,4194304,79,-56,-1,-1,0
1523631485748,4849664,79,-56,-1,-1,0
1523631485748,5177344,79,-56,-1,-1,0
1523631485788,5177344,79,-56,-1,-1,0
1523631485788,5177344,79,-56,-1,-1,0
1523631485788,4980736,79,-56,-1,-1,0
1523631485788,4194304,79,-56,-1,-1,0
1523631485788,3080192,79,-56,-1,-1,0
1523631485828,1966080,79,-56,-1,-1,0
1523631485828,1245184,79,-56,-1,-1,0
1523631485828,655360,79,-56,-1,-1,0
1523631485828,-65536,79,-56,-1,-1,0
1523631485828,-983040,79,-56,-1,-1,0
1523631485868,-1245184,79,-56,-1,-1,0
1523631485868,-1048576,79,-56,-1,-1,0
1523631485868,-983040,79,-56,-1,-1,0
1523631485868,-917504,79,-56,-1,-1,0
1523631485868,-917504,79,-56,-1,-1,0
1523631485908,-851968,79,-56,-1,-1,0
1523631485908,-851968,79,-56,-1,-1,0
1523631485908,-851968,79,-56,-1,-1,0
1523631485908,-983040,79,-56,-1,-1,0
1523631485908,-1048576,79,-56,-1,-1,0
1523631485948,-1114112,79,-56,-1,-1,0
1523631485948,-1048576,79,-56,-1,-1,0
1523631485948,-1179648,79,-56,-1,-1,0
1523631485948,-1310720,79,-56,-1,-1,0
1523631485948,-1638400,79,-56,-1,-1,0
1523631485988,-1900544,79,-56,-1,-1,0
1523631485988,-1769472,79,-56,-1,-1,0
1523631485988,-1179648,79,-56,-1,-1,0
1523631485988,-983040,79,-56,-1,-1,0
1523631485988,-1245184,79,-56,-1,-1,0
1523631486029,-1572864,79,-56,-1,-1,0
1523631486029,-1572864,79,-56,-1,-1,0
1523631486029,-1638400,79,-56,-1,-1,0
1523631486029,-1835008,79,-56,-1,-1,0
1523631486029,-2031616,79,-56,-1,-1,0
1523631486068,-2031616,79,-56,-1,-1,0
1523631486068,-2162688,79,-56,-1,-1,0
1523631486068,-2097152,79,-56,-1,-1,0
1523631486068,-1703936,79,-56,-1,-1,0
1523631486068,-983040,79,-56,-1,-1,0
1523631486108,-917504,79,-56,-1,-1,0
1523631486108,-1245184,79,-56,-1,-1,0
1523631486108,-1507328,79,-56,-1,-1,0
1523631486108,-1638400,79,-56,-1,-1,0
1523631486108,-1638400,79,-56,-1,-1,0
1523631486148,-1703936,79,-56,-1,-1,0
1523631486148,-1835008,79,-56,-1,-1,0
1523631486148,-1310720,79,-56,-1,-1,0
1523631486148,1835008,79,-56,-1,-1,0
1523631486148,8126464,79,-56,-1,-1,0
1523631486189,10944512,79,-56,-1,-1,0
1523631486189,5701632,79,-56,-1,-1,0
1523631486189,-2424832,79,-56,-1,-1,0
1523631486189,-5701632,79,-56,-1,-1,0
1523631486189,-4456448,79,-56,-1,-1,0
1523631486229,-2555904,79,-56,-1,-1,0
1523631486229,-1703936,79,-56,-1,-1,0
1523631486229,-1507328,79,-56,-1,-1,0
1523631486229,-1441792,79,-56,-1,-1,0
1523631486229,-1376256,79,-56,-1,-1,0
1523631486268,-1310720,79,-56,-1,-1,0
1523631486268,-1179648,79,-56,-1,-1,0
1523631486268,-1179648,79,-56,-1,-1,0
1523631486268,-1310720,79,-56,-1,-1,0
1523631486268,-1310720,79,-56,-1,-1,0
1523631486308,-917504,79,-56,-1,-1,0
1523631486308,-589824,79,-56,-1,-1,0
1523631486308,-327680,79,-56,-1,-1,0
1523631486308,-196608,79,-56,-1,-1,0
1523631486308,-65536,79,-56,-1,-1,0
1523631486348,65536,79,-56,-1,-1,0
1523631486348,524288,79,-56,-1,-1,0
1523631486348,1245184,79,-56,-1,-1,0
1523631486348,1966080,79,-56,-1,-1,0
1523631486348,2359296,79,-56,-1,-1,0
1523631486388,2818048,79,-56,-1,-1,0
1523631486388,3342336,79,-56,-1,-1,0
1523631486388,4063232,79,-56,-1,-1,0
1523631486388,4390912,79,-56,-1,-1,0
1523631486388,4587520,79,-56,-1,-1,0
1523631486428,4521984,79,-56,-1,-1,0
1523631486428,4521984,79,-56,-1,-1,0
1523631486428,4325376,79,-56,-1,-1,0
1523631486428,3801088,79,-56,-1,-1,0
1523631486428,2949120,79,-56,-1,-1,0
1523631486469,1769472,79,-56,-1,-1,0
1523631486469,786432,79,-56,-1,-1,0
1523631486469,65536,79,-56,-1,-1,0
1523631486469,-393216,79,-56,-1,-1,0
1523631486469,-720896,79,-56,-1,-1,0
1523631486508,-786432,79,-56,-1,-1,0
1523631486508,-720896,79,-56,-1,-1,0
1523631486508,-917504,79,-56,-1,-1,0
1523631486508,-1048576,79,-56,-1,-1,0
1523631486508,-983040,79,-56,-1,-1,0
1523631486549,-851968,79,-56,-1,-1,0
1523631486549,-917504,79,-56,-1,-1,0
1523631486549,-1114112,79,-56,-1,-1,0
1523631486549,-1310720,79,-56,-1,-1,0
1523631486549,-1310720,79,-56,-1,-1,0
1523631486589,-1245184,79,-56,-1,-1,0
1523631486589,-1179648,79,-56,-1,-1,0
1523631486589,-1310720,79,-56,-1,-1,0
1523631486589,-1572864,79,-56,-1,-1,0
1523631486589,-1572864,79,-56,-1,-1,0
1523631486628,-1572864,79,-56,-1,-1,0
1523631486628,-1572864,79,-56,-1,-1,0
1523631486628,-1703936,79,-56,-1,-1,0
1523631486628,-1769472,79,-56,-1,-1,0
1523631486628,-1638400,79,-56,-1,-1,0
1523631486668,-1572864,79,-56,-1,-1,0
1523631486668,-1572864,79,-56,-1,-1,0
1523631486668,-1572864,79,-56,-1,-1,0
1523631486668,-1507328,79,-56,-1,-1,0
1523631486668,-1638400,79,-56,-1,-1,0
1523631486708,-1835008,79,-56,-1,-1,0
1523631486708,-2031616,79,-56,-1,-1,0
1523631486708,-2031616,79,-56,-1,-1,0
1523631486708,-1966080,79,-56,-1,-1,0
1523631486708,-1703936,79,-56,-1,-1,0
1523631486747,-1245184,79,-56,-1,-1,0
1523631486747,-983040,79,-56,-1,-1,0
1523631486747,-1048576,79,-56,-1,-1,0
1523631486747,-1179648,79,-56,-1,-1,0
1523631486747,-1376256,79,-56,-1,-1,0
1523631486788,-1572864,79,-56,-1,-1,0
1523631486788,-1703936,79,-56,-1,-1,0
1523631486788,-1769472,79,-56,-1,-1,0
1523631486788,-983040,79,-56,-1,-1,0
1523631486788,2228224,79,-56,-1,-1,0
1523631486830,8126464,79,-56,-1,-1,0
1523631486830,10158080,79,-56,-1,-1,0
1523631486830,4390912,79,-56,-1,-1,0
1523631486830,-3145728,79,-56,-1,-1,0
1523631486830,-5505024,79,-56,-1,-1,0
1523631486868,-3735552,79,-56,-1,-1,0
1523631486868,-2228224,79,-56,-1,-1,0
1523631486868,-1769472,79,-56,-1,-1,0
1523631486868,-1835008,79,-56,-1,-1,0
1523631486868,-1703936,79,-56,-1,-1,0
1523631486907,-1572864,79,-56,-1,-1,0
1523631486907,-1245184,79,-56,-1,-1,0
1523631486907,-1114112,79,-56,-1,-1,0
1523631486907,-1179648,79,-56,-1,-1,0
1523631486907,-1310720,79,-56,-1,-1,0
1523631486948,-1245184,79,-56,-1,-1,0
1523631486948,-917504,79,-56,-1,-1,0
1523631486948,-524288,79,-56,-1,-1,0
1523631486948,-262144,79,-56,-1,-1,0
1523631486948,-327680,79,-56,-1,-1,0
1523631486988,-262144,79,-56,-1,-1,0
1523631486988,131072,79,-56,-1,-1,0
1523631486988,983040,79,-56,-1,-1,0
1523631486988,1572864,79,-56,-1,-1,0
1523631486988,1966080,79,-56,-1,-1,0
1523631487028,2293760,79,-56,-1,-1,0
1523631487028,2818048,79,-56,-1,-1,0
1523631487028,3342336,79,-56,-1,-1,0
1523631487028,3801088,79,-56,-1,-1,0
1523631487028,4259840,79,-56,-1,-1,0
1523631487068,4653056,79,-56,-1,-1,0
1523631487068,5046272,79,-56,-1,-1,0
1523631487068,5046272,79,-56,-1,-1,0
1523631487068,4718592,79,-56,-1,-1,0
1523631487068,3932160,79,-56,-1,-1,0
1523631487108,2949120,79,-56,-1,-1,0
1523631487108,2031616,79,-56,-1,-1,0
1523631487108,983040,79,-56,-1,-1,0
1523631487108,196608,79,-56,-1,-1,0
1523631487108,-65536,79,-56,-1,-1,0
1523631487148,-196608,79,-56,-1,-1,0
1523631487148,-262144,79,-56,-1,-1,0
1523631487148,-196608,79,-56,-1,-1,0
1523631487148,-458752,79,-56,-1,-1,0
1523631487148,-917504,79,-56,-1,-1,0
1523631487188,-1114112,79,-56,-1,-1,0
1523631487188,-983040,79,-56,-1,-1,0
1523631487188,-851968,79,-56,-1,-1,0
1523631487188,-983040,79,-56,-1,-1,0
1523631487188,-1048576,79,-56,-1,-1,0
1523631487227,-983040,79,-56,-1,-1,0
1523631487227,-720896,79,-56,-1,-1,0
1523631487227,-786432,79,-56,-1,-1,0
1523631487227,-1048576,79,-56,-1,-1,0
1523631487227,-1507328,79,-56,-1,-1,0
1523631487268,-1638400,79,-56,-1,-1,0
1523631487268,-1572864,79,-56,-1,-1,0
1523631487268,-1376256,79,-56,-1,-1,0
1523631487268,-1376256,79,-56,-1,-1,0
1523631487268,-1441792,79,-56,-1,-1,0
1523631487307,-1507328,79,-56,-1,-1,0
1523631487307,-1507328,79,-56,-1,-1,0
1523631487307,-1507328,79,-56,-1,-1,0
1523631487307,-1572864,79,-56,-1,-1,0
1523631487307,-1572864,79,-56,-1,-1,0
1523631487348,-1507328,79,-56,-1,-1,0
1523631487348,-1572864,79,-56,-1,-1,0
1523631487348,-1638400,79,-56,-1,-1,0
1523631487348,-1703936,79,-56,-1,-1,0
1523631487348,-1769472,79,-56,-1,-1,0
1523631487387,-1900544,79,-56,-1,-1,0
1523631487387,-1966080,79,-56,-1,-1,0
1523631487387,-1769472,79,-56,-1,-1,0
1523631487387,-1245184,79,-56,-1,-1,0
1523631487387,-917504,79,-56,-1,-1,0
1523631487430,-1114112,80,-56,-1,-1,0
1523631487430,-1376256,80,-56,-1,-1,0
1523631487430,-1572864,80,-56,-1,-1,0
1523631487430,-1507328,80,-56,-1,-1,0
1523631487430,-1376256,80,-56,-1,-1,0
1523631487473,-1245184,80,-56,-1,-1,0
1523631487473,-917504,80,-56,-1,-1,0
1523631487473,1310720,80,-56,-1,-1,0
1523631487473,6684672,80,-56,-1,-1,0
1523631487473,9699328,80,-56,-1,-1,0
1523631487508,5242880,80,-56,-1,-1,0
1523631487508,-2359296,80,-56,-1,-1,0
1523631487508,-5505024,80,-56,-1,-1,0
1523631487508,-4063232,80,-56,-1,-1,0
1523631487508,-2424832,80,-56,-1,-1,0
1523631487547,-1703936,80,-56,-1,-1,0
