milliseconds, ECG, ECG HR, PPG, PPG HR, SpO2, PI,Landmark_0,Landmark_1,Landmark_2,Landmark_3,Landmark_4,Landmark_5,Landmark_6,Landmark_7,Landmark_8,Landmark_9,Landmark_10,Landmark_11,Landmark_12,Landmark_13,Landmark_14,Landmark_15,Landmark_16,Landmark_17,Landmark_18,Landmark_19,Landmark_20,Landmark_21,Landmark_22,Landmark_23,Landmark_24,Landmark_25,Landmark_26,Landmark_27,Landmark_28,Landmark_29,Landmark_30,Landmark_31,Landmark_32,Landmark_33,Landmark_34,Landmark_35,Landmark_36,Landmark_37,Landmark_38,Landmark_39,Landmark_40,Landmark_41,Landmark_42,Landmark_43,Landmark_44,Landmark_45,Landmark_46,Landmark_47,Landmark_48,Landmark_49,Landmark_50,Landmark_51,Landmark_52,Landmark_53,Landmark_54,Landmark_55,Landmark_56,Landmark_57,Landmark_58,Landmark_59,Landmark_60,Landmark_61,Landmark_62,Landmark_63,Landmark_64,Landmark_65,Landmark_66,Landmark_67,EyeAspectRatio,MouthAspectRatio,LightIntensity,FaceWidthRatio,EyebrowHeight,LipsWidthRatio,LipsHeightRatio,EyeOpening,NoseWidthRatio,NoseHeightRatio,AvgRedForehead,AvgGreenForehead,AvgBlueForehead,AvgRedLips,AvgGreenLips,AvgBlueLips,AvgRedCheeks,AvgGreenCheeks,AvgBlueCheeks
0,-1048576,92,-56,-1,-1,0,"(1147, 428)","(1145, 472)","(1146, 517)","(1150, 558)","(1166, 600)","(1189, 636)","(1219, 668)","(1251, 692)","(1286, 698)","(1317, 691)","(1341, 664)","(1363, 631)","(1384, 598)","(1399, 564)","(1409, 530)","(1414, 496)","(1413, 462)","(1203, 451)","(1231, 444)","(1261, 448)","(1289, 456)","(1314, 468)","(1351, 470)","(1370, 458)","(1389, 449)","(1409, 445)","(1422, 453)","(1331, 489)","(1332, 518)","(1333, 548)","(1334, 579)","(1290, 574)","(1306, 584)","(1323, 593)","(1340, 588)","(1354, 579)","(1234, 475)","(1252, 471)","(1271, 472)","(1285, 484)","(1269, 487)","(1250, 485)","(1355, 485)","(1369, 474)","(1386, 473)","(1396, 479)","(1387, 488)","(1371, 489)","(1246, 601)","(1276, 607)","(1301, 611)","(1317, 616)","(1331, 614)","(1346, 614)","(1358, 614)","(1339, 637)","(1322, 648)","(1306, 649)","(1289, 645)","(1266, 629)","(1256, 604)","(1300, 619)","(1316, 623)","(1330, 622)","(1351, 617)","(1325, 629)","(1309, 631)","(1293, 627)",0.36,0.6,102.0,0.34,-0.04,0.42,0.03,-15.0,0.08,0.43,72.0,85.2,128.9,51.8,56.2,99.5,68.11,78.41,109.35
33,-1179648,92,-56,-1,-1,0,"(1295, 334)","(1293, 354)","(1293, 373)","(1294, 392)","(1298, 412)","(1305, 431)","(1315, 450)","(1327, 465)","(1345, 472)","(1365, 470)","(1384, 458)","(1399, 443)","(1413, 426)","(1423, 406)","(1428, 385)","(1433, 364)","(1436, 342)","(1301, 327)","(1308, 319)","(1319, 318)","(1331, 321)","(1342, 327)","(1368, 328)","(1382, 323)","(1396, 322)","(1410, 325)","(1420, 334)","(1353, 341)","(1350, 355)","(1348, 370)","(1345, 385)","(1333, 388)","(1339, 392)","(1346, 396)","(1356, 393)","(1364, 390)","(1314, 340)","(1321, 338)","(1330, 338)","(1337, 342)","(1329, 344)","(1321, 343)","(1376, 344)","(1385, 341)","(1394, 342)","(1401, 345)","(1393, 348)","(1384, 347)","(1322, 409)","(1330, 406)","(1339, 406)","(1347, 409)","(1355, 407)","(1367, 409)","(1378, 414)","(1367, 428)","(1355, 434)","(1345, 435)","(1337, 433)","(1328, 425)","(1326, 410)","(1338, 411)","(1346, 413)","(1355, 412)","(1374, 415)","(1355, 424)","(1346, 425)","(1338, 422)",0.24,1.03,105.0,0.34,0.05,0.39,0.06,-6.5,0.07,0.33,47.4,60.6,105.8,54.3,59.35,125.05,46.58,60.35,101.58
66,-262144,92,-56,-1,-1,0,"(1295, 336)","(1293, 355)","(1293, 374)","(1293, 394)","(1297, 413)","(1305, 432)","(1314, 451)","(1327, 467)","(1345, 473)","(1365, 471)","(1383, 460)","(1399, 444)","(1412, 427)","(1422, 408)","(1427, 387)","(1432, 365)","(1435, 343)","(1300, 330)","(1307, 322)","(1318, 321)","(1330, 324)","(1341, 330)","(1368, 331)","(1382, 326)","(1396, 325)","(1410, 328)","(1420, 337)","(1353, 344)","(1350, 358)","(1347, 372)","(1345, 387)","(1332, 390)","(1338, 394)","(1346, 398)","(1355, 395)","(1364, 392)","(1314, 343)","(1321, 340)","(1330, 341)","(1337, 344)","(1329, 346)","(1320, 346)","(1375, 346)","(1384, 343)","(1393, 344)","(1401, 347)","(1393, 350)","(1384, 349)","(1321, 411)","(1329, 408)","(1338, 408)","(1346, 411)","(1354, 409)","(1366, 411)","(1378, 416)","(1366, 430)","(1354, 437)","(1345, 437)","(1336, 435)","(1327, 427)","(1325, 412)","(1338, 413)","(1346, 415)","(1354, 414)","(1373, 416)","(1354, 426)","(1345, 427)","(1337, 424)",0.23,1.04,106.0,0.34,0.05,0.4,0.06,-6.5,0.07,0.33,45.2,58.2,102.8,53.45,59.4,125.9,46.11,60.58,101.64
100,-851968,92,-56,-1,-1,0,"(1288, 336)","(1285, 355)","(1285, 376)","(1286, 396)","(1291, 416)","(1300, 435)","(1311, 454)","(1325, 470)","(1344, 476)","(1363, 474)","(1381, 463)","(1396, 448)","(1409, 430)","(1418, 411)","(1423, 390)","(1426, 369)","(1428, 347)","(1299, 331)","(1307, 324)","(1318, 323)","(1331, 326)","(1342, 333)","(1367, 334)","(1380, 329)","(1394, 327)","(1408, 330)","(1417, 339)","(1353, 347)","(1350, 361)","(1348, 375)","(1345, 389)","(1332, 393)","(1339, 397)","(1347, 401)","(1355, 398)","(1364, 395)","(1313, 345)","(1320, 342)","(1329, 343)","(1337, 347)","(1328, 349)","(1320, 348)","(1374, 349)","(1383, 346)","(1392, 346)","(1399, 350)","(1391, 353)","(1383, 352)","(1321, 414)","(1329, 410)","(1338, 410)","(1346, 413)","(1355, 412)","(1366, 414)","(1377, 419)","(1367, 433)","(1355, 439)","(1346, 440)","(1337, 438)","(1328, 429)","(1325, 414)","(1338, 415)","(1346, 417)","(1355, 417)","(1373, 419)","(1355, 429)","(1346, 430)","(1338, 427)",0.26,1.02,106.0,0.34,0.07,0.4,0.06,-7.0,0.07,0.32,45.8,59.9,106.9,53.35,59.05,125.15,49.29,63.41,99.41
133,-1572864,92,-56,-1,-1,0,"(1290, 337)","(1287, 356)","(1286, 376)","(1287, 396)","(1292, 416)","(1300, 436)","(1311, 455)","(1325, 471)","(1344, 478)","(1363, 475)","(1381, 463)","(1396, 448)","(1409, 430)","(1418, 411)","(1423, 390)","(1426, 369)","(1428, 348)","(1299, 333)","(1306, 326)","(1318, 325)","(1330, 328)","(1341, 335)","(1367, 336)","(1380, 331)","(1394, 329)","(1407, 332)","(1416, 341)","(1352, 349)","(1349, 363)","(1347, 377)","(1344, 391)","(1331, 394)","(1338, 399)","(1345, 403)","(1354, 400)","(1363, 397)","(1312, 347)","(1320, 344)","(1328, 345)","(1336, 349)","(1327, 350)","(1319, 350)","(1373, 351)","(1382, 348)","(1391, 348)","(1399, 351)","(1391, 354)","(1382, 353)","(1319, 414)","(1327, 412)","(1337, 412)","(1345, 415)","(1353, 413)","(1365, 415)","(1377, 420)","(1366, 434)","(1354, 441)","(1345, 441)","(1336, 439)","(1326, 431)","(1323, 415)","(1337, 417)","(1345, 419)","(1353, 418)","(1372, 420)","(1354, 431)","(1345, 431)","(1337, 429)",0.21,1.03,106.0,0.36,0.07,0.42,0.06,-6.0,0.07,0.32,47.6,60.5,107.1,54.3,61.0,126.0,48.47,62.7,102.41
166,-1310720,92,-56,-1,-1,0,"(1289, 338)","(1287, 357)","(1286, 377)","(1287, 397)","(1291, 417)","(1300, 437)","(1310, 456)","(1324, 472)","(1343, 478)","(1363, 476)","(1380, 464)","(1395, 449)","(1408, 431)","(1417, 412)","(1421, 391)","(1425, 370)","(1427, 349)","(1297, 334)","(1305, 327)","(1316, 326)","(1328, 329)","(1340, 336)","(1365, 337)","(1379, 332)","(1393, 330)","(1407, 333)","(1416, 342)","(1351, 350)","(1348, 364)","(1346, 378)","(1343, 393)","(1330, 396)","(1337, 400)","(1345, 404)","(1353, 402)","(1362, 398)","(1311, 348)","(1318, 345)","(1327, 346)","(1335, 350)","(1326, 352)","(1318, 351)","(1372, 352)","(1381, 349)","(1391, 349)","(1398, 353)","(1390, 355)","(1381, 355)","(1319, 416)","(1326, 413)","(1336, 413)","(1344, 416)","(1353, 415)","(1365, 416)","(1376, 421)","(1365, 436)","(1353, 443)","(1344, 443)","(1335, 441)","(1325, 432)","(1323, 417)","(1336, 418)","(1344, 420)","(1353, 420)","(1372, 422)","(1353, 432)","(1344, 433)","(1336, 430)",0.23,1.04,106.0,0.36,0.07,0.41,0.06,-6.5,0.07,0.33,49.0,62.9,109.9,53.05,59.65,125.6,49.0,62.64,103.29
200,-851968,92,-56,-1,-1,0,"(1287, 339)","(1285, 358)","(1285, 378)","(1286, 398)","(1291, 418)","(1299, 438)","(1310, 457)","(1324, 472)","(1343, 479)","(1362, 476)","(1380, 464)","(1395, 449)","(1407, 431)","(1416, 411)","(1420, 391)","(1424, 370)","(1425, 349)","(1295, 334)","(1302, 327)","(1314, 326)","(1326, 329)","(1337, 335)","(1364, 337)","(1377, 332)","(1391, 331)","(1405, 333)","(1414, 342)","(1349, 350)","(1347, 364)","(1344, 378)","(1342, 392)","(1329, 396)","(1336, 400)","(1343, 404)","(1352, 401)","(1360, 398)","(1309, 348)","(1316, 345)","(1325, 345)","(1333, 350)","(1324, 352)","(1315, 351)","(1371, 352)","(1380, 348)","(1389, 349)","(1397, 352)","(1389, 355)","(1379, 355)","(1318, 417)","(1326, 414)","(1336, 414)","(1343, 416)","(1352, 415)","(1363, 417)","(1375, 421)","(1364, 436)","(1352, 443)","(1343, 443)","(1334, 441)","(1325, 433)","(1322, 418)","(1336, 419)","(1343, 421)","(1352, 420)","(1370, 422)","(1352, 432)","(1343, 433)","(1335, 430)",0.25,1.01,106.0,0.36,0.06,0.41,0.06,-7.0,0.07,0.32,46.9,63.1,108.5,54.25,60.1,126.1,47.17,61.11,101.0
233,8060928,92,-56,-1,-1,0,"(1284, 340)","(1282, 360)","(1283, 380)","(1284, 401)","(1289, 420)","(1297, 440)","(1308, 457)","(1322, 473)","(1341, 479)","(1361, 476)","(1378, 464)","(1394, 449)","(1407, 432)","(1416, 413)","(1421, 392)","(1425, 370)","(1428, 349)","(1292, 334)","(1300, 327)","(1312, 326)","(1324, 329)","(1335, 335)","(1362, 336)","(1375, 331)","(1390, 330)","(1404, 332)","(1413, 341)","(1347, 348)","(1344, 363)","(1342, 377)","(1339, 392)","(1327, 395)","(1333, 400)","(1341, 403)","(1350, 401)","(1358, 397)","(1307, 347)","(1314, 344)","(1323, 345)","(1331, 349)","(1322, 350)","(1314, 350)","(1369, 351)","(1378, 347)","(1387, 348)","(1395, 351)","(1387, 354)","(1378, 353)","(1316, 416)","(1324, 414)","(1333, 413)","(1341, 416)","(1349, 414)","(1361, 416)","(1372, 421)","(1362, 435)","(1350, 441)","(1340, 442)","(1332, 439)","(1323, 432)","(1320, 417)","(1333, 418)","(1341, 420)","(1349, 420)","(1368, 422)","(1350, 431)","(1341, 431)","(1333, 429)",0.23,1.04,105.0,0.34,0.06,0.38,0.06,-6.5,0.07,0.33,44.3,58.6,105.1,52.15,57.35,125.8,49.47,62.7,100.7
266,-720896,92,-56,-1,-1,0,"(1279, 336)","(1278, 357)","(1278, 377)","(1279, 397)","(1284, 418)","(1293, 437)","(1305, 456)","(1320, 472)","(1339, 477)","(1358, 475)","(1376, 463)","(1391, 447)","(1403, 430)","(1411, 410)","(1415, 389)","(1418, 368)","(1420, 347)","(1288, 332)","(1296, 325)","(1308, 324)","(1321, 327)","(1332, 334)","(1359, 335)","(1372, 330)","(1386, 328)","(1400, 330)","(1409, 339)","(1345, 348)","(1343, 362)","(1340, 376)","(1338, 391)","(1326, 395)","(1332, 399)","(1340, 402)","(1348, 400)","(1356, 397)","(1304, 346)","(1311, 344)","(1320, 344)","(1328, 348)","(1319, 350)","(1311, 349)","(1366, 350)","(1375, 346)","(1384, 347)","(1392, 350)","(1384, 353)","(1375, 352)","(1315, 416)","(1322, 413)","(1332, 412)","(1340, 415)","(1348, 414)","(1360, 415)","(1371, 420)","(1361, 435)","(1349, 442)","(1340, 442)","(1331, 441)","(1322, 432)","(1318, 417)","(1332, 418)","(1340, 420)","(1348, 419)","(1366, 421)","(1349, 431)","(1340, 432)","(1332, 430)",0.23,1.05,105.0,0.35,0.06,0.39,0.06,-6.5,0.07,0.33,48.1,62.6,108.1,53.0,58.7,125.65,51.7,64.11,102.52
300,-393216,92,-56,-1,-1,0,"(1278, 335)","(1277, 356)","(1277, 376)","(1279, 396)","(1284, 417)","(1292, 437)","(1304, 456)","(1318, 472)","(1337, 478)","(1357, 475)","(1374, 462)","(1389, 446)","(1402, 429)","(1410, 409)","(1415, 388)","(1418, 367)","(1420, 345)","(1286, 331)","(1294, 324)","(1306, 323)","(1318, 326)","(1330, 332)","(1357, 333)","(1370, 328)","(1385, 327)","(1398, 329)","(1408, 338)","(1342, 347)","(1340, 361)","(1338, 376)","(1336, 391)","(1323, 395)","(1330, 399)","(1337, 402)","(1346, 400)","(1354, 397)","(1301, 345)","(1309, 343)","(1318, 343)","(1326, 347)","(1317, 349)","(1308, 348)","(1364, 349)","(1373, 345)","(1383, 346)","(1391, 349)","(1383, 352)","(1373, 351)","(1312, 416)","(1320, 413)","(1330, 412)","(1338, 415)","(1346, 414)","(1358, 415)","(1369, 420)","(1359, 435)","(1347, 442)","(1338, 443)","(1329, 441)","(1319, 433)","(1316, 417)","(1330, 418)","(1338, 420)","(1346, 419)","(1364, 420)","(1346, 431)","(1338, 432)","(1329, 430)",0.22,1.02,105.0,0.36,0.06,0.4,0.06,-6.5,0.08,0.33,48.8,63.4,108.6,51.4,58.35,125.05,50.64,64.35,105.0
333,458752,92,-56,-1,-1,0,"(1278, 338)","(1277, 358)","(1276, 378)","(1277, 399)","(1282, 419)","(1290, 439)","(1300, 458)","(1314, 474)","(1333, 480)","(1354, 477)","(1372, 464)","(1387, 448)","(1400, 430)","(1410, 410)","(1415, 389)","(1419, 367)","(1422, 344)","(1284, 331)","(1291, 323)","(1303, 321)","(1316, 324)","(1327, 330)","(1355, 331)","(1369, 326)","(1384, 325)","(1398, 328)","(1408, 337)","(1339, 345)","(1337, 360)","(1334, 375)","(1332, 390)","(1319, 393)","(1325, 398)","(1333, 402)","(1343, 399)","(1351, 395)","(1298, 344)","(1306, 341)","(1315, 342)","(1323, 346)","(1314, 347)","(1305, 347)","(1363, 347)","(1372, 344)","(1382, 345)","(1389, 348)","(1381, 351)","(1372, 350)","(1308, 416)","(1316, 413)","(1326, 412)","(1334, 415)","(1342, 413)","(1354, 415)","(1366, 420)","(1354, 434)","(1342, 441)","(1333, 442)","(1324, 440)","(1314, 432)","(1312, 417)","(1325, 417)","(1334, 419)","(1342, 419)","(1361, 420)","(1342, 430)","(1333, 431)","(1325, 429)",0.23,1.01,105.0,0.35,0.04,0.4,0.06,-6.5,0.08,0.33,49.7,64.0,109.8,52.35,58.4,124.95,47.82,60.23,101.23
366,720896,92,-56,-1,-1,0,"(1274, 333)","(1273, 354)","(1274, 375)","(1275, 396)","(1279, 417)","(1288, 437)","(1298, 456)","(1313, 472)","(1332, 478)","(1353, 475)","(1371, 463)","(1387, 446)","(1399, 428)","(1408, 407)","(1412, 386)","(1415, 364)","(1417, 342)","(1278, 328)","(1286, 321)","(1298, 320)","(1311, 323)","(1323, 329)","(1352, 330)","(1366, 325)","(1380, 324)","(1395, 326)","(1405, 335)","(1336, 344)","(1334, 359)","(1331, 375)","(1329, 390)","(1315, 394)","(1322, 398)","(1331, 402)","(1340, 399)","(1349, 396)","(1293, 343)","(1301, 340)","(1310, 340)","(1319, 345)","(1309, 346)","(1300, 346)","(1359, 346)","(1369, 342)","(1378, 343)","(1387, 347)","(1378, 350)","(1369, 349)","(1304, 415)","(1312, 413)","(1322, 412)","(1331, 415)","(1340, 413)","(1352, 415)","(1364, 420)","(1353, 435)","(1341, 442)","(1331, 442)","(1321, 440)","(1311, 432)","(1308, 417)","(1322, 418)","(1331, 420)","(1340, 419)","(1359, 420)","(1340, 431)","(1331, 432)","(1322, 429)",0.24,1.01,104.0,0.37,0.05,0.41,0.05,-7.0,0.09,0.34,47.9,62.6,107.0,57.5,64.85,129.65,50.7,62.47,102.76
400,2228224,92,-56,-1,-1,0,"(1270, 332)","(1269, 354)","(1271, 374)","(1272, 395)","(1276, 416)","(1284, 437)","(1295, 456)","(1309, 472)","(1329, 478)","(1350, 476)","(1369, 463)","(1385, 446)","(1398, 428)","(1407, 407)","(1411, 385)","(1415, 362)","(1417, 340)","(1274, 326)","(1282, 319)","(1294, 318)","(1307, 321)","(1319, 327)","(1348, 328)","(1362, 323)","(1377, 322)","(1392, 324)","(1403, 333)","(1332, 342)","(1330, 358)","(1327, 373)","(1325, 390)","(1312, 392)","(1319, 397)","(1327, 401)","(1336, 398)","(1345, 395)","(1289, 341)","(1297, 338)","(1306, 339)","(1315, 343)","(1305, 345)","(1296, 345)","(1356, 345)","(1366, 341)","(1376, 342)","(1384, 345)","(1376, 349)","(1366, 348)","(1300, 415)","(1308, 412)","(1319, 412)","(1327, 415)","(1336, 413)","(1349, 415)","(1360, 419)","(1349, 435)","(1337, 442)","(1327, 442)","(1317, 440)","(1307, 432)","(1304, 416)","(1318, 417)","(1327, 419)","(1336, 419)","(1356, 420)","(1337, 431)","(1327, 432)","(1318, 429)",0.25,1.02,104.0,0.36,0.05,0.4,0.06,-7.5,0.08,0.35,50.8,65.1,109.9,55.0,59.45,127.5,51.52,63.47,104.29
433,917504,92,-56,-1,-1,0,"(1265, 330)","(1264, 351)","(1265, 372)","(1267, 394)","(1272, 415)","(1280, 437)","(1291, 457)","(1304, 474)","(1324, 480)","(1346, 477)","(1364, 464)","(1381, 447)","(1394, 427)","(1404, 406)","(1409, 384)","(1414, 361)","(1416, 337)","(1269, 325)","(1276, 317)","(1289, 315)","(1302, 317)","(1315, 324)","(1346, 325)","(1361, 320)","(1377, 318)","(1391, 322)","(1402, 331)","(1328, 341)","(1326, 357)","(1323, 372)","(1321, 388)","(1307, 391)","(1314, 396)","(1322, 400)","(1332, 397)","(1341, 393)","(1284, 340)","(1292, 337)","(1302, 337)","(1311, 341)","(1301, 344)","(1291, 343)","(1353, 343)","(1363, 340)","(1373, 341)","(1382, 344)","(1373, 347)","(1362, 346)","(1297, 415)","(1304, 412)","(1315, 412)","(1323, 415)","(1331, 413)","(1344, 415)","(1356, 419)","(1345, 435)","(1332, 442)","(1322, 443)","(1313, 441)","(1303, 432)","(1301, 417)","(1314, 418)","(1323, 419)","(1331, 419)","(1351, 420)","(1332, 431)","(1323, 432)","(1314, 430)",0.2,1.07,104.0,0.37,0.04,0.39,0.06,-7.0,0.08,0.33,55.5,69.4,115.4,52.2,56.3,126.25,52.23,65.05,106.23
466,-983040,92,-56,-1,-1,0,"(1256, 329)","(1256, 351)","(1258, 373)","(1261, 396)","(1265, 418)","(1273, 439)","(1284, 459)","(1297, 478)","(1317, 484)","(1339, 481)","(1359, 467)","(1376, 449)","(1390, 430)","(1401, 408)","(1407, 385)","(1412, 360)","(1416, 335)","(1262, 324)","(1270, 315)","(1284, 313)","(1297, 316)","(1310, 323)","(1340, 324)","(1355, 318)","(1371, 317)","(1387, 320)","(1398, 331)","(1322, 338)","(1320, 354)","(1317, 371)","(1315, 388)","(1301, 392)","(1308, 396)","(1316, 400)","(1326, 397)","(1336, 393)","(1279, 338)","(1287, 335)","(1297, 335)","(1305, 340)","(1295, 342)","(1286, 342)","(1348, 341)","(1358, 338)","(1368, 339)","(1377, 343)","(1367, 345)","(1357, 344)","(1290, 416)","(1298, 413)","(1308, 412)","(1317, 415)","(1326, 413)","(1339, 415)","(1351, 420)","(1339, 437)","(1325, 444)","(1315, 445)","(1306, 442)","(1296, 434)","(1294, 417)","(1308, 418)","(1317, 420)","(1326, 419)","(1346, 421)","(1325, 432)","(1316, 433)","(1307, 430)",0.2,1.04,104.0,0.34,0.04,0.38,0.06,-7.0,0.08,0.34,54.8,69.7,115.4,53.4,60.15,127.5,50.82,63.88,104.05
500,-1245184,92,-56,-1,-1,0,"(1249, 325)","(1247, 348)","(1247, 371)","(1249, 393)","(1255, 416)","(1264, 439)","(1276, 460)","(1291, 478)","(1312, 485)","(1334, 482)","(1354, 468)","(1372, 450)","(1386, 429)","(1397, 406)","(1402, 383)","(1406, 359)","(1409, 334)","(1255, 320)","(1263, 312)","(1276, 311)","(1290, 314)","(1303, 321)","(1334, 322)","(1350, 316)","(1366, 314)","(1382, 317)","(1393, 327)","(1317, 339)","(1314, 355)","(1311, 371)","(1308, 388)","(1294, 392)","(1301, 397)","(1310, 401)","(1320, 398)","(1330, 394)","(1270, 337)","(1279, 334)","(1289, 334)","(1299, 339)","(1288, 341)","(1278, 341)","(1342, 341)","(1353, 337)","(1364, 338)","(1373, 342)","(1364, 345)","(1353, 344)","(1284, 418)","(1291, 414)","(1302, 413)","(1310, 416)","(1319, 414)","(1333, 417)","(1345, 422)","(1334, 439)","(1320, 447)","(1310, 447)","(1301, 445)","(1291, 436)","(1288, 419)","(1302, 420)","(1310, 421)","(1319, 421)","(1340, 423)","(1320, 434)","(1311, 435)","(1302, 433)",0.22,1.1,104.0,0.37,0.05,0.38,0.06,-7.5,0.08,0.33,58.6,72.9,118.0,56.65,61.85,130.95,51.58,64.47,104.35
533,-983040,92,-56,-1,-1,0,"(1237, 317)","(1234, 342)","(1235, 367)","(1238, 391)","(1244, 415)","(1253, 439)","(1266, 461)","(1281, 480)","(1303, 488)","(1325, 485)","(1346, 472)","(1364, 453)","(1379, 432)","(1390, 409)","(1398, 385)","(1403, 359)","(1406, 333)","(1241, 305)","(1251, 297)","(1265, 298)","(1280, 302)","(1293, 312)","(1331, 315)","(1347, 310)","(1364, 309)","(1380, 313)","(1390, 324)","(1310, 337)","(1307, 353)","(1304, 370)","(1301, 388)","(1285, 392)","(1293, 398)","(1302, 402)","(1312, 400)","(1322, 396)","(1257, 329)","(1266, 325)","(1279, 327)","(1290, 336)","(1277, 338)","(1264, 336)","(1335, 340)","(1347, 334)","(1360, 336)","(1370, 342)","(1359, 346)","(1346, 345)","(1275, 418)","(1284, 415)","(1295, 414)","(1302, 417)","(1311, 416)","(1325, 419)","(1337, 426)","(1325, 443)","(1311, 450)","(1302, 451)","(1292, 448)","(1282, 438)","(1281, 420)","(1294, 421)","(1302, 423)","(1311, 423)","(1331, 426)","(1312, 437)","(1303, 438)","(1294, 435)",0.3,1.07,103.0,0.4,0.14,0.36,0.06,-12.5,0.07,0.33,71.7,86.6,135.4,53.65,59.05,128.0,57.47,70.0,109.41
566,-393216,92,-56,-1,-1,0,"(1223, 327)","(1225, 352)","(1228, 377)","(1232, 401)","(1237, 425)","(1246, 449)","(1258, 472)","(1272, 491)","(1295, 498)","(1319, 495)","(1340, 480)","(1359, 461)","(1376, 440)","(1387, 417)","(1394, 391)","(1401, 364)","(1407, 337)","(1235, 322)","(1244, 312)","(1259, 310)","(1274, 313)","(1288, 320)","(1319, 321)","(1337, 316)","(1354, 315)","(1372, 318)","(1384, 329)","(1301, 337)","(1298, 354)","(1295, 372)","(1292, 390)","(1278, 395)","(1285, 400)","(1294, 404)","(1304, 401)","(1314, 397)","(1254, 337)","(1263, 334)","(1274, 335)","(1282, 339)","(1272, 342)","(1262, 341)","(1329, 341)","(1340, 338)","(1351, 339)","(1360, 343)","(1350, 346)","(1339, 345)","(1267, 425)","(1275, 420)","(1286, 419)","(1295, 422)","(1304, 420)","(1317, 423)","(1329, 429)","(1317, 446)","(1304, 453)","(1294, 454)","(1284, 452)","(1274, 443)","(1272, 426)","(1286, 425)","(1295, 427)","(1304, 426)","(1324, 430)","(1304, 440)","(1294, 441)","(1285, 438)",0.22,1.03,103.0,0.32,0.04,0.33,0.05,-8.0,0.07,0.32,58.9,72.0,117.1,54.85,60.85,131.35,56.64,69.05,110.05
600,-393216,92,-56,-1,-1,0,"(1221, 331)","(1220, 355)","(1220, 379)","(1221, 404)","(1226, 429)","(1234, 453)","(1246, 476)","(1261, 496)","(1284, 504)","(1310, 502)","(1332, 488)","(1351, 468)","(1367, 446)","(1379, 422)","(1386, 396)","(1391, 369)","(1395, 342)","(1226, 322)","(1235, 312)","(1249, 311)","(1264, 314)","(1278, 321)","(1311, 323)","(1329, 317)","(1347, 315)","(1365, 320)","(1376, 331)","(1292, 340)","(1289, 358)","(1285, 376)","(1282, 394)","(1267, 400)","(1275, 405)","(1284, 410)","(1295, 406)","(1306, 403)","(1243, 339)","(1252, 336)","(1263, 336)","(1273, 342)","(1262, 344)","(1251, 343)","(1321, 344)","(1332, 340)","(1344, 341)","(1353, 345)","(1343, 349)","(1332, 347)","(1255, 431)","(1264, 426)","(1275, 425)","(1284, 428)","(1295, 426)","(1308, 429)","(1321, 436)","(1308, 452)","(1294, 460)","(1283, 460)","(1273, 458)","(1262, 449)","(1260, 432)","(1275, 432)","(1284, 434)","(1294, 433)","(1316, 437)","(1294, 446)","(1284, 447)","(1274, 444)",0.23,1.01,103.0,0.35,0.05,0.37,0.05,-8.5,0.08,0.32,60.9,73.8,119.0,64.05,69.65,136.35,56.76,70.05,111.58
633,-524288,92,-56,-1,-1,0,"(1206, 333)","(1204, 359)","(1206, 384)","(1208, 409)","(1213, 436)","(1221, 462)","(1233, 488)","(1249, 510)","(1274, 518)","(1300, 515)","(1324, 499)","(1344, 478)","(1361, 454)","(1373, 428)","(1380, 401)","(1386, 373)","(1390, 344)","(1211, 326)","(1220, 316)","(1235, 315)","(1251, 318)","(1266, 326)","(1302, 328)","(1320, 321)","(1340, 320)","(1358, 325)","(1371, 337)","(1281, 345)","(1278, 364)","(1274, 383)","(1270, 402)","(1256, 407)","(1263, 413)","(1273, 417)","(1284, 414)","(1295, 410)","(1230, 345)","(1240, 342)","(1251, 342)","(1261, 347)","(1250, 350)","(1238, 349)","(1312, 349)","(1323, 346)","(1335, 347)","(1345, 351)","(1334, 355)","(1323, 354)","(1245, 439)","(1253, 434)","(1263, 433)","(1273, 436)","(1283, 434)","(1298, 438)","(1311, 445)","(1298, 462)","(1284, 470)","(1272, 471)","(1261, 468)","(1251, 458)","(1251, 441)","(1263, 440)","(1273, 442)","(1283, 442)","(1304, 445)","(1284, 456)","(1273, 457)","(1263, 454)",0.24,1.1,103.0,0.34,0.06,0.35,0.06,-8.5,0.07,0.32,62.4,75.8,121.1,61.6,66.95,134.1,56.64,68.29,110.64
666,-393216,92,-56,-1,-1,0,"(1193, 344)","(1192, 370)","(1193, 396)","(1196, 422)","(1201, 449)","(1209, 476)","(1220, 501)","(1236, 523)","(1261, 532)","(1288, 529)","(1313, 514)","(1335, 493)","(1353, 469)","(1366, 443)","(1374, 414)","(1381, 385)","(1386, 354)","(1200, 334)","(1208, 324)","(1223, 322)","(1238, 325)","(1253, 333)","(1289, 335)","(1308, 329)","(1329, 328)","(1348, 332)","(1362, 345)","(1268, 353)","(1264, 373)","(1260, 392)","(1256, 413)","(1242, 419)","(1249, 424)","(1259, 429)","(1271, 425)","(1282, 421)","(1217, 353)","(1227, 350)","(1238, 350)","(1248, 355)","(1236, 358)","(1226, 357)","(1300, 358)","(1312, 355)","(1324, 356)","(1335, 360)","(1324, 363)","(1312, 362)","(1231, 452)","(1239, 447)","(1250, 445)","(1260, 449)","(1271, 447)","(1285, 450)","(1299, 458)","(1285, 476)","(1270, 484)","(1258, 484)","(1247, 482)","(1237, 472)","(1237, 454)","(1249, 453)","(1260, 455)","(1270, 454)","(1293, 459)","(1270, 469)","(1259, 470)","(1248, 467)",0.19,1.07,103.0,0.34,0.05,0.35,0.05,-8.0,0.07,0.33,64.7,77.2,121.3,65.85,71.15,137.1,60.88,72.52,115.76
700,-262144,92,-56,-1,-1,0,"(1176, 355)","(1174, 382)","(1175, 409)","(1177, 437)","(1183, 464)","(1192, 492)","(1204, 519)","(1220, 543)","(1245, 552)","(1273, 549)","(1298, 533)","(1321, 512)","(1341, 488)","(1355, 461)","(1364, 431)","(1371, 400)","(1376, 369)","(1184, 345)","(1193, 335)","(1208, 333)","(1224, 337)","(1240, 345)","(1276, 346)","(1296, 340)","(1317, 339)","(1337, 344)","(1351, 357)","(1255, 365)","(1251, 386)","(1246, 406)","(1242, 427)","(1226, 433)","(1234, 439)","(1245, 444)","(1257, 440)","(1269, 436)","(1202, 365)","(1212, 362)","(1224, 362)","(1234, 367)","(1222, 370)","(1211, 370)","(1288, 370)","(1300, 367)","(1313, 368)","(1324, 373)","(1312, 376)","(1300, 375)","(1215, 468)","(1223, 462)","(1235, 461)","(1245, 465)","(1257, 463)","(1273, 466)","(1287, 474)","(1273, 493)","(1257, 501)","(1244, 501)","(1232, 498)","(1222, 488)","(1221, 469)","(1234, 469)","(1245, 471)","(1257, 470)","(1280, 475)","(1257, 486)","(1245, 486)","(1234, 483)",0.22,1.1,103.0,0.34,0.07,0.36,0.06,-8.5,0.07,0.33,63.3,75.4,120.5,69.6,75.25,140.2,61.0,71.64,112.76
733,-327680,92,-56,-1,-1,0,"(1159, 368)","(1156, 397)","(1156, 425)","(1159, 454)","(1165, 483)","(1175, 511)","(1187, 539)","(1204, 564)","(1230, 573)","(1259, 572)","(1285, 556)","(1308, 533)","(1329, 508)","(1344, 480)","(1353, 449)","(1360, 417)","(1364, 385)","(1166, 358)","(1176, 348)","(1192, 347)","(1209, 351)","(1224, 360)","(1262, 362)","(1282, 355)","(1304, 354)","(1325, 359)","(1339, 372)","(1240, 382)","(1235, 403)","(1231, 424)","(1226, 446)","(1211, 453)","(1219, 459)","(1229, 464)","(1242, 460)","(1254, 457)","(1185, 380)","(1195, 377)","(1207, 378)","(1218, 383)","(1206, 386)","(1194, 385)","(1274, 387)","(1287, 383)","(1300, 385)","(1312, 389)","(1299, 393)","(1286, 392)","(1199, 489)","(1207, 483)","(1220, 482)","(1230, 486)","(1241, 484)","(1258, 488)","(1273, 496)","(1258, 515)","(1241, 523)","(1229, 523)","(1217, 520)","(1206, 509)","(1204, 491)","(1219, 490)","(1230, 493)","(1241, 492)","(1266, 496)","(1241, 506)","(1230, 507)","(1219, 504)",0.22,1.12,103.0,0.34,0.08,0.36,0.05,-9.5,0.06,0.33,66.6,80.3,125.5,71.4,76.85,143.4,65.23,76.29,115.11
766,-262144,91,-56,-1,-1,0,"(1125, 374)","(1122, 405)","(1121, 438)","(1123, 470)","(1130, 502)","(1143, 533)","(1158, 563)","(1178, 591)","(1208, 603)","(1240, 602)","(1269, 584)","(1294, 560)","(1315, 532)","(1332, 501)","(1342, 468)","(1350, 434)","(1357, 399)","(1140, 363)","(1155, 355)","(1174, 359)","(1191, 367)","(1208, 378)","(1248, 381)","(1269, 375)","(1291, 373)","(1313, 378)","(1329, 390)","(1224, 400)","(1220, 423)","(1215, 446)","(1210, 470)","(1192, 474)","(1200, 481)","(1211, 488)","(1225, 484)","(1237, 480)","(1162, 390)","(1174, 388)","(1188, 390)","(1200, 398)","(1185, 401)","(1171, 399)","(1258, 405)","(1272, 401)","(1287, 404)","(1299, 409)","(1286, 414)","(1271, 412)","(1179, 510)","(1189, 507)","(1202, 506)","(1212, 511)","(1224, 509)","(1241, 513)","(1256, 521)","(1241, 539)","(1223, 546)","(1210, 546)","(1198, 543)","(1187, 531)","(1186, 512)","(1201, 515)","(1212, 519)","(1223, 519)","(1248, 521)","(1224, 529)","(1212, 529)","(1201, 525)",0.25,1.08,103.0,0.34,0.16,0.33,0.04,-13.0,0.05,0.34,77.8,90.0,133.2,70.65,77.1,142.35,72.64,82.41,113.41
800,8454144,91,-56,-1,-1,0,"(1120, 408)","(1118, 438)","(1118, 470)","(1121, 502)","(1128, 532)","(1140, 562)","(1153, 592)","(1170, 619)","(1197, 630)","(1229, 629)","(1257, 611)","(1283, 586)","(1306, 559)","(1323, 529)","(1334, 496)","(1342, 462)","(1348, 426)","(1132, 396)","(1143, 386)","(1160, 386)","(1177, 391)","(1193, 400)","(1234, 403)","(1257, 397)","(1280, 396)","(1301, 401)","(1318, 415)","(1209, 425)","(1205, 448)","(1200, 471)","(1195, 495)","(1178, 501)","(1186, 508)","(1197, 514)","(1211, 510)","(1225, 505)","(1151, 421)","(1162, 418)","(1176, 419)","(1187, 425)","(1173, 428)","(1160, 427)","(1246, 430)","(1260, 426)","(1274, 428)","(1286, 433)","(1273, 437)","(1259, 436)","(1166, 539)","(1176, 534)","(1188, 533)","(1199, 537)","(1211, 535)","(1228, 539)","(1244, 547)","(1228, 567)","(1210, 576)","(1197, 576)","(1184, 572)","(1173, 561)","(1172, 541)","(1187, 542)","(1198, 545)","(1210, 544)","(1236, 548)","(1210, 558)","(1198, 559)","(1186, 555)",0.23,1.09,103.0,0.33,0.1,0.34,0.05,-10.5,0.07,0.34,70.4,81.9,129.3,75.0,80.0,146.2,73.82,82.7,115.23
833,196608,91,-56,-1,-1,0,"(1101, 425)","(1098, 457)","(1097, 489)","(1100, 521)","(1108, 553)","(1121, 584)","(1135, 616)","(1152, 647)","(1180, 659)","(1212, 658)","(1242, 640)","(1268, 615)","(1292, 587)","(1310, 554)","(1321, 520)","(1330, 483)","(1336, 446)","(1114, 415)","(1126, 407)","(1144, 409)","(1161, 415)","(1177, 425)","(1219, 428)","(1241, 421)","(1265, 420)","(1288, 425)","(1305, 437)","(1193, 450)","(1189, 474)","(1183, 499)","(1178, 523)","(1161, 527)","(1169, 535)","(1181, 542)","(1195, 538)","(1209, 533)","(1134, 443)","(1146, 441)","(1160, 442)","(1171, 448)","(1157, 451)","(1144, 450)","(1231, 454)","(1245, 451)","(1260, 453)","(1273, 458)","(1259, 463)","(1245, 460)","(1150, 564)","(1159, 561)","(1171, 561)","(1182, 566)","(1195, 563)","(1213, 567)","(1229, 575)","(1213, 596)","(1194, 605)","(1181, 605)","(1168, 601)","(1157, 588)","(1157, 567)","(1170, 570)","(1182, 573)","(1194, 573)","(1222, 576)","(1195, 587)","(1182, 587)","(1170, 583)",0.22,1.14,103.0,0.33,0.13,0.33,0.05,-11.0,0.06,0.34,73.1,85.4,131.5,75.9,79.3,147.2,73.58,82.29,112.88
866,196608,91,-56,-1,-1,0,"(1084, 446)","(1079, 478)","(1079, 511)","(1082, 543)","(1090, 576)","(1103, 608)","(1117, 642)","(1135, 674)","(1165, 687)","(1198, 687)","(1228, 669)","(1255, 643)","(1280, 614)","(1299, 581)","(1310, 545)","(1318, 508)","(1323, 470)","(1096, 436)","(1110, 428)","(1128, 431)","(1145, 438)","(1162, 449)","(1204, 452)","(1226, 445)","(1250, 443)","(1273, 447)","(1292, 460)","(1179, 474)","(1174, 499)","(1169, 524)","(1164, 550)","(1146, 553)","(1155, 562)","(1167, 568)","(1182, 564)","(1195, 560)","(1118, 465)","(1130, 463)","(1144, 465)","(1156, 471)","(1142, 474)","(1128, 472)","(1218, 478)","(1232, 475)","(1248, 476)","(1261, 481)","(1247, 486)","(1232, 484)","(1136, 590)","(1145, 587)","(1157, 588)","(1168, 593)","(1181, 591)","(1199, 595)","(1216, 602)","(1200, 624)","(1181, 632)","(1167, 632)","(1154, 627)","(1143, 614)","(1143, 593)","(1156, 597)","(1168, 601)","(1180, 600)","(1208, 603)","(1181, 614)","(1168, 614)","(1156, 609)",0.22,1.17,103.0,0.33,0.14,0.33,0.04,-11.0,0.06,0.35,77.2,89.1,135.5,77.05,79.5,146.25,72.82,82.52,111.94
900,327680,91,-56,-1,-1,0,"(1077, 473)","(1073, 505)","(1073, 538)","(1077, 570)","(1085, 602)","(1098, 635)","(1111, 669)","(1128, 701)","(1156, 714)","(1190, 713)","(1220, 694)","(1248, 668)","(1272, 638)","(1291, 605)","(1302, 569)","(1312, 531)","(1317, 492)","(1082, 462)","(1094, 452)","(1113, 454)","(1131, 460)","(1148, 472)","(1191, 475)","(1216, 468)","(1241, 467)","(1266, 472)","(1285, 486)","(1166, 496)","(1161, 522)","(1156, 548)","(1150, 575)","(1131, 577)","(1141, 586)","(1154, 593)","(1169, 589)","(1184, 584)","(1104, 488)","(1116, 487)","(1130, 488)","(1142, 495)","(1127, 497)","(1114, 495)","(1207, 501)","(1222, 498)","(1238, 500)","(1252, 506)","(1237, 510)","(1221, 508)","(1122, 614)","(1131, 612)","(1144, 613)","(1156, 618)","(1169, 616)","(1189, 620)","(1207, 628)","(1189, 650)","(1169, 659)","(1154, 658)","(1141, 654)","(1129, 640)","(1129, 617)","(1143, 621)","(1155, 625)","(1169, 625)","(1199, 628)","(1169, 640)","(1155, 641)","(1143, 636)",0.22,1.18,103.0,0.34,0.13,0.35,0.05,-11.0,0.07,0.36,75.3,87.7,135.3,80.2,82.65,150.55,72.23,82.17,116.52
933,1179648,91,-56,-1,-1,0,"(1064, 492)","(1060, 524)","(1060, 557)","(1065, 590)","(1074, 622)","(1086, 657)","(1099, 692)","(1116, 724)","(1145, 737)","(1179, 736)","(1210, 718)","(1238, 692)","(1262, 662)","(1282, 628)","(1292, 591)","(1301, 553)","(1306, 514)","(1069, 478)","(1083, 470)","(1102, 474)","(1119, 482)","(1136, 493)","(1180, 497)","(1204, 490)","(1230, 488)","(1255, 492)","(1274, 506)","(1154, 519)","(1149, 546)","(1143, 573)","(1138, 600)","(1119, 601)","(1129, 610)","(1142, 617)","(1157, 613)","(1172, 609)","(1091, 508)","(1103, 507)","(1118, 509)","(1130, 516)","(1115, 518)","(1101, 516)","(1196, 524)","(1212, 520)","(1228, 522)","(1242, 527)","(1227, 532)","(1211, 530)","(1111, 638)","(1120, 636)","(1132, 636)","(1144, 642)","(1158, 640)","(1178, 644)","(1197, 652)","(1179, 674)","(1159, 683)","(1143, 683)","(1130, 679)","(1118, 664)","(1117, 641)","(1132, 646)","(1144, 650)","(1158, 650)","(1189, 652)","(1158, 664)","(1144, 664)","(1132, 659)",0.21,1.21,103.0,0.35,0.15,0.35,0.05,-11.5,0.07,0.37,79.6,91.4,138.6,78.6,82.45,150.3,66.0,74.76,108.47
966,2883584,91,-56,-1,-1,0,"(1043, 497)","(1040, 532)","(1042, 568)","(1049, 602)","(1062, 635)","(1077, 670)","(1091, 708)","(1108, 744)","(1136, 759)","(1169, 759)","(1200, 739)","(1228, 711)","(1255, 680)","(1276, 644)","(1289, 606)","(1299, 565)","(1306, 524)","(1053, 488)","(1069, 481)","(1089, 488)","(1107, 498)","(1125, 511)","(1170, 515)","(1195, 508)","(1221, 506)","(1247, 510)","(1269, 522)","(1144, 536)","(1138, 564)","(1133, 593)","(1127, 622)","(1109, 620)","(1118, 630)","(1131, 638)","(1146, 634)","(1161, 628)","(1077, 519)","(1090, 517)","(1107, 520)","(1120, 530)","(1103, 534)","(1086, 531)","(1185, 540)","(1201, 535)","(1219, 538)","(1235, 545)","(1219, 551)","(1201, 548)","(1103, 656)","(1111, 655)","(1123, 657)","(1134, 663)","(1147, 661)","(1166, 665)","(1185, 672)","(1167, 695)","(1148, 704)","(1134, 703)","(1121, 698)","(1110, 683)","(1110, 660)","(1121, 666)","(1133, 670)","(1146, 670)","(1176, 672)","(1148, 684)","(1135, 684)","(1123, 678)",0.25,1.23,103.0,0.35,0.18,0.31,0.04,-16.5,0.06,0.38,91.0,102.3,146.8,74.75,77.35,147.5,67.7,76.47,106.0
1000,1703936,91,-56,-1,-1,0,"(1040, 519)","(1038, 554)","(1039, 589)","(1046, 623)","(1059, 657)","(1074, 692)","(1088, 729)","(1105, 763)","(1134, 776)","(1168, 774)","(1200, 752)","(1229, 723)","(1254, 691)","(1275, 655)","(1286, 617)","(1294, 577)","(1299, 535)","(1047, 509)","(1060, 500)","(1080, 504)","(1098, 512)","(1116, 525)","(1164, 529)","(1190, 521)","(1217, 519)","(1243, 523)","(1264, 536)","(1137, 553)","(1132, 580)","(1126, 608)","(1120, 635)","(1102, 636)","(1112, 645)","(1126, 652)","(1142, 648)","(1157, 642)","(1072, 541)","(1084, 540)","(1099, 542)","(1112, 548)","(1096, 551)","(1082, 549)","(1181, 556)","(1197, 553)","(1213, 556)","(1228, 560)","(1212, 565)","(1196, 563)","(1097, 672)","(1105, 671)","(1117, 672)","(1129, 678)","(1143, 675)","(1163, 678)","(1183, 685)","(1165, 708)","(1145, 718)","(1130, 718)","(1116, 714)","(1104, 699)","(1104, 675)","(1117, 681)","(1129, 685)","(1143, 685)","(1175, 686)","(1144, 699)","(1130, 699)","(1118, 694)",0.2,1.24,103.0,0.33,0.14,0.33,0.05,-11.5,0.07,0.36,88.7,100.5,143.9,76.6,79.3,148.6,64.94,73.82,103.11
1033,524288,91,-56,-1,-1,0,"(1035, 531)","(1035, 566)","(1039, 601)","(1047, 636)","(1059, 669)","(1074, 703)","(1087, 739)","(1102, 773)","(1130, 786)","(1163, 784)","(1194, 763)","(1222, 735)","(1248, 704)","(1270, 668)","(1283, 630)","(1293, 589)","(1301, 547)","(1043, 520)","(1057, 511)","(1076, 514)","(1095, 523)","(1113, 534)","(1159, 538)","(1186, 531)","(1213, 529)","(1240, 533)","(1261, 548)","(1133, 559)","(1128, 588)","(1122, 617)","(1117, 645)","(1099, 645)","(1108, 654)","(1122, 661)","(1138, 657)","(1154, 651)","(1068, 549)","(1081, 548)","(1096, 549)","(1109, 556)","(1093, 559)","(1078, 557)","(1177, 564)","(1193, 560)","(1209, 563)","(1225, 568)","(1208, 573)","(1192, 570)","(1094, 682)","(1102, 681)","(1113, 681)","(1125, 687)","(1140, 684)","(1159, 688)","(1178, 695)","(1160, 718)","(1141, 727)","(1125, 727)","(1111, 722)","(1101, 708)","(1101, 686)","(1113, 690)","(1125, 694)","(1139, 693)","(1170, 696)","(1140, 707)","(1126, 707)","(1113, 702)",0.2,1.22,103.0,0.33,0.14,0.31,0.04,-12.0,0.07,0.37,83.3,94.3,139.0,73.7,76.25,148.2,70.47,80.82,111.35
1066,-65536,91,-56,-1,-1,0,"(1034, 533)","(1034, 568)","(1039, 604)","(1048, 637)","(1060, 670)","(1073, 704)","(1086, 739)","(1103, 771)","(1131, 784)","(1164, 782)","(1196, 763)","(1224, 736)","(1249, 705)","(1270, 670)","(1283, 633)","(1293, 592)","(1300, 550)","(1040, 524)","(1054, 513)","(1074, 517)","(1094, 525)","(1113, 537)","(1159, 541)","(1186, 533)","(1214, 531)","(1241, 536)","(1263, 551)","(1133, 563)","(1128, 591)","(1122, 619)","(1117, 647)","(1099, 647)","(1109, 656)","(1122, 664)","(1138, 659)","(1153, 654)","(1067, 552)","(1080, 551)","(1095, 552)","(1108, 560)","(1093, 563)","(1077, 561)","(1177, 568)","(1193, 564)","(1210, 566)","(1226, 571)","(1210, 577)","(1193, 575)","(1095, 685)","(1103, 684)","(1114, 684)","(1126, 690)","(1139, 687)","(1158, 692)","(1178, 698)","(1159, 719)","(1140, 727)","(1125, 726)","(1112, 722)","(1102, 708)","(1102, 688)","(1113, 693)","(1125, 697)","(1139, 697)","(1169, 699)","(1140, 707)","(1126, 707)","(1114, 702)",0.22,1.23,103.0,0.34,0.13,0.31,0.04,-12.5,0.07,0.38,85.6,97.3,141.0,73.5,74.5,148.8,75.35,85.41,114.7
1100,-655360,91,-56,-1,-1,0,"(1033, 519)","(1032, 555)","(1036, 591)","(1045, 625)","(1057, 658)","(1072, 692)","(1086, 729)","(1103, 763)","(1131, 778)","(1164, 778)","(1196, 759)","(1225, 732)","(1252, 701)","(1273, 665)","(1287, 626)","(1298, 584)","(1304, 541)","(1040, 506)","(1057, 499)","(1078, 506)","(1098, 517)","(1116, 530)","(1163, 536)","(1190, 528)","(1217, 527)","(1244, 531)","(1267, 544)","(1136, 556)","(1131, 585)","(1126, 614)","(1120, 643)","(1101, 642)","(1111, 652)","(1124, 660)","(1140, 656)","(1155, 651)","(1065, 537)","(1079, 534)","(1097, 537)","(1110, 551)","(1093, 555)","(1075, 551)","(1180, 562)","(1197, 554)","(1217, 557)","(1232, 565)","(1216, 573)","(1197, 571)","(1096, 678)","(1106, 679)","(1117, 680)","(1128, 686)","(1140, 684)","(1160, 689)","(1180, 695)","(1160, 715)","(1141, 722)","(1127, 721)","(1115, 716)","(1105, 702)","(1104, 682)","(1116, 690)","(1127, 694)","(1140, 695)","(1171, 695)","(1141, 701)","(1128, 700)","(1117, 695)",0.31,1.21,103.0,0.36,0.18,0.3,0.03,-20.0,0.07,0.39,95.4,106.1,150.4,68.55,71.2,145.6,71.35,80.29,110.64
1133,-393216,91,-56,-1,-1,0,"(1055, 528)","(1052, 561)","(1054, 593)","(1059, 626)","(1069, 658)","(1082, 692)","(1095, 726)","(1113, 757)","(1142, 769)","(1176, 766)","(1208, 746)","(1235, 719)","(1259, 689)","(1277, 655)","(1287, 618)","(1294, 581)","(1298, 542)","(1056, 513)","(1068, 503)","(1088, 506)","(1106, 513)","(1124, 524)","(1169, 528)","(1194, 520)","(1220, 519)","(1246, 523)","(1265, 537)","(1144, 549)","(1139, 576)","(1134, 602)","(1130, 630)","(1111, 633)","(1121, 641)","(1134, 648)","(1150, 644)","(1165, 639)","(1079, 541)","(1091, 539)","(1106, 541)","(1118, 547)","(1103, 549)","(1089, 548)","(1187, 554)","(1202, 551)","(1218, 553)","(1233, 558)","(1217, 562)","(1202, 560)","(1103, 669)","(1113, 669)","(1126, 670)","(1137, 675)","(1151, 673)","(1171, 676)","(1192, 681)","(1172, 700)","(1152, 707)","(1137, 707)","(1124, 703)","(1112, 691)","(1110, 672)","(1125, 680)","(1137, 683)","(1151, 683)","(1184, 682)","(1152, 688)","(1138, 689)","(1125, 684)",0.19,1.15,103.0,0.35,0.12,0.36,0.03,-10.5,0.08,0.36,80.0,92.3,138.9,76.0,78.75,150.3,67.41,76.64,113.23
1166,-589824,91,-56,-1,-1,0,"(1057, 508)","(1056, 543)","(1060, 577)","(1068, 611)","(1079, 643)","(1093, 676)","(1105, 710)","(1123, 740)","(1151, 751)","(1183, 748)","(1214, 728)","(1243, 701)","(1269, 671)","(1289, 638)","(1301, 602)","(1310, 563)","(1316, 523)","(1063, 499)","(1077, 489)","(1096, 491)","(1116, 497)","(1134, 508)","(1179, 512)","(1206, 504)","(1232, 503)","(1259, 507)","(1280, 521)","(1154, 533)","(1149, 559)","(1143, 586)","(1138, 613)","(1121, 616)","(1130, 624)","(1142, 631)","(1158, 627)","(1173, 622)","(1088, 525)","(1100, 522)","(1116, 524)","(1130, 532)","(1114, 535)","(1098, 534)","(1196, 538)","(1212, 532)","(1230, 534)","(1244, 540)","(1229, 546)","(1212, 545)","(1114, 653)","(1123, 652)","(1135, 652)","(1146, 658)","(1159, 655)","(1178, 659)","(1198, 664)","(1178, 684)","(1159, 691)","(1145, 691)","(1133, 687)","(1122, 675)","(1121, 656)","(1134, 662)","(1146, 665)","(1159, 665)","(1189, 665)","(1159, 672)","(1146, 672)","(1134, 668)",0.26,1.18,103.0,0.34,0.1,0.32,0.03,-13.5,0.07,0.36,84.9,97.6,140.8,79.15,81.6,152.1,76.29,85.29,118.76
1200,-393216,91,-56,-1,-1,0,"(1080, 494)","(1076, 525)","(1076, 556)","(1079, 587)","(1087, 618)","(1100, 650)","(1114, 683)","(1133, 712)","(1162, 724)","(1196, 723)","(1227, 704)","(1254, 678)","(1278, 649)","(1296, 616)","(1305, 581)","(1311, 545)","(1315, 508)","(1082, 480)","(1094, 470)","(1112, 471)","(1130, 478)","(1147, 489)","(1191, 492)","(1216, 484)","(1241, 482)","(1266, 487)","(1284, 501)","(1166, 515)","(1162, 540)","(1157, 565)","(1153, 591)","(1134, 594)","(1144, 603)","(1156, 610)","(1172, 605)","(1187, 600)","(1103, 508)","(1115, 506)","(1129, 508)","(1142, 513)","(1127, 516)","(1113, 515)","(1207, 519)","(1223, 516)","(1238, 518)","(1253, 523)","(1237, 527)","(1222, 525)","(1125, 630)","(1135, 629)","(1148, 630)","(1159, 636)","(1172, 633)","(1192, 636)","(1212, 642)","(1192, 660)","(1172, 667)","(1158, 667)","(1145, 663)","(1133, 651)","(1132, 633)","(1147, 640)","(1159, 643)","(1172, 643)","(1204, 643)","(1172, 650)","(1159, 650)","(1147, 646)",0.19,1.15,104.0,0.36,0.11,0.37,0.03,-10.5,0.08,0.36,82.9,95.1,142.2,79.85,84.3,152.95,65.64,74.7,112.29
1233,-786432,91,-56,-1,-1,0,"(1084, 470)","(1082, 501)","(1083, 532)","(1087, 563)","(1097, 594)","(1112, 624)","(1127, 656)","(1146, 687)","(1175, 699)","(1208, 698)","(1237, 679)","(1263, 654)","(1286, 626)","(1304, 594)","(1313, 560)","(1321, 523)","(1325, 487)","(1095, 458)","(1109, 449)","(1128, 451)","(1145, 458)","(1163, 468)","(1205, 470)","(1228, 463)","(1252, 462)","(1275, 466)","(1294, 478)","(1181, 492)","(1177, 516)","(1173, 540)","(1168, 565)","(1150, 570)","(1160, 578)","(1172, 584)","(1186, 580)","(1200, 575)","(1118, 485)","(1131, 483)","(1145, 484)","(1157, 491)","(1142, 494)","(1128, 492)","(1220, 496)","(1234, 493)","(1250, 494)","(1263, 499)","(1249, 504)","(1234, 502)","(1140, 607)","(1151, 605)","(1163, 605)","(1174, 610)","(1187, 608)","(1205, 611)","(1224, 616)","(1206, 635)","(1187, 642)","(1174, 642)","(1161, 639)","(1150, 627)","(1147, 610)","(1162, 614)","(1174, 617)","(1186, 617)","(1216, 618)","(1187, 625)","(1175, 625)","(1163, 621)",0.22,1.1,104.0,0.34,0.11,0.34,0.03,-11.0,0.07,0.35,80.0,92.1,138.4,79.4,82.3,151.45,73.47,82.82,113.41
1266,-720896,91,-56,-1,-1,0,"(1107, 443)","(1102, 473)","(1101, 504)","(1103, 535)","(1110, 566)","(1124, 597)","(1139, 628)","(1157, 657)","(1186, 669)","(1219, 667)","(1248, 649)","(1275, 625)","(1298, 597)","(1315, 565)","(1324, 532)","(1330, 497)","(1333, 462)","(1115, 434)","(1127, 425)","(1144, 426)","(1162, 432)","(1179, 443)","(1220, 445)","(1243, 438)","(1267, 437)","(1289, 442)","(1306, 454)","(1196, 467)","(1192, 490)","(1187, 513)","(1183, 536)","(1165, 541)","(1174, 549)","(1186, 555)","(1200, 551)","(1213, 547)","(1136, 460)","(1147, 458)","(1161, 459)","(1173, 465)","(1159, 469)","(1145, 467)","(1233, 471)","(1247, 468)","(1262, 470)","(1275, 474)","(1261, 479)","(1247, 477)","(1154, 576)","(1164, 575)","(1177, 576)","(1187, 581)","(1200, 579)","(1217, 582)","(1236, 587)","(1217, 604)","(1199, 611)","(1186, 611)","(1174, 607)","(1162, 596)","(1161, 579)","(1176, 585)","(1187, 588)","(1199, 588)","(1228, 588)","(1199, 595)","(1187, 595)","(1176, 591)",0.21,1.08,104.0,0.35,0.12,0.36,0.03,-11.0,0.07,0.34,79.0,91.4,137.4,78.8,82.2,152.25,73.58,82.52,114.29
1300,-983040,91,-56,-1,-1,0,"(1130, 426)","(1126, 454)","(1125, 483)","(1127, 513)","(1134, 542)","(1146, 571)","(1160, 600)","(1177, 629)","(1204, 640)","(1235, 638)","(1264, 621)","(1289, 597)","(1312, 570)","(1329, 539)","(1338, 507)","(1345, 473)","(1349, 438)","(1135, 415)","(1145, 405)","(1162, 405)","(1179, 410)","(1195, 419)","(1235, 421)","(1258, 414)","(1282, 412)","(1304, 417)","(1321, 431)","(1212, 442)","(1208, 464)","(1204, 486)","(1200, 509)","(1183, 515)","(1191, 522)","(1202, 528)","(1216, 524)","(1229, 519)","(1155, 439)","(1166, 437)","(1179, 437)","(1191, 442)","(1177, 446)","(1164, 445)","(1249, 446)","(1263, 443)","(1277, 445)","(1290, 450)","(1276, 454)","(1262, 452)","(1173, 551)","(1183, 549)","(1195, 549)","(1205, 554)","(1216, 552)","(1234, 555)","(1252, 560)","(1233, 576)","(1216, 583)","(1203, 583)","(1192, 580)","(1181, 570)","(1180, 554)","(1194, 558)","(1204, 561)","(1216, 560)","(1244, 560)","(1216, 567)","(1204, 567)","(1194, 564)",0.21,1.11,104.0,0.35,0.09,0.36,0.03,-10.0,0.07,0.33,75.2,86.0,132.8,76.4,79.05,148.7,72.17,81.17,118.58
1333,-851968,91,-56,-1,-1,0,"(1146, 400)","(1140, 428)","(1139, 456)","(1140, 485)","(1146, 516)","(1158, 545)","(1173, 573)","(1193, 598)","(1221, 608)","(1252, 606)","(1280, 591)","(1303, 568)","(1323, 542)","(1337, 513)","(1344, 482)","(1349, 450)","(1351, 419)","(1154, 391)","(1165, 382)","(1182, 383)","(1199, 389)","(1215, 398)","(1253, 400)","(1273, 393)","(1295, 391)","(1315, 395)","(1330, 407)","(1231, 420)","(1228, 441)","(1224, 462)","(1220, 484)","(1202, 490)","(1211, 497)","(1222, 503)","(1235, 499)","(1248, 495)","(1173, 415)","(1184, 413)","(1197, 413)","(1208, 419)","(1195, 422)","(1183, 421)","(1265, 424)","(1279, 420)","(1292, 422)","(1304, 426)","(1292, 430)","(1278, 429)","(1190, 523)","(1201, 521)","(1213, 521)","(1223, 526)","(1235, 524)","(1252, 527)","(1269, 533)","(1252, 549)","(1235, 556)","(1222, 556)","(1211, 553)","(1199, 542)","(1196, 525)","(1213, 530)","(1223, 533)","(1235, 533)","(1261, 534)","(1235, 541)","(1223, 541)","(1212, 537)",0.21,1.06,104.0,0.36,0.1,0.38,0.03,-9.5,0.08,0.34,74.2,85.9,133.5,74.4,78.5,147.9,70.17,80.11,112.35
1366,-1114112,90,-56,-1,-1,0,"(1169, 382)","(1166, 410)","(1166, 437)","(1170, 464)","(1177, 492)","(1188, 521)","(1202, 548)","(1220, 572)","(1246, 581)","(1274, 578)","(1300, 562)","(1322, 540)","(1339, 515)","(1352, 487)","(1359, 458)","(1364, 428)","(1366, 397)","(1175, 374)","(1186, 365)","(1202, 366)","(1218, 370)","(1234, 379)","(1271, 381)","(1291, 374)","(1311, 372)","(1331, 376)","(1346, 387)","(1250, 400)","(1247, 420)","(1244, 440)","(1240, 461)","(1224, 468)","(1232, 474)","(1243, 479)","(1255, 476)","(1267, 472)","(1194, 397)","(1205, 394)","(1217, 395)","(1228, 400)","(1216, 403)","(1204, 402)","(1283, 404)","(1296, 400)","(1309, 402)","(1321, 406)","(1309, 410)","(1296, 408)","(1214, 501)","(1223, 498)","(1235, 498)","(1244, 502)","(1255, 500)","(1271, 503)","(1287, 509)","(1272, 525)","(1256, 532)","(1244, 533)","(1233, 530)","(1222, 520)","(1219, 503)","(1234, 506)","(1244, 509)","(1255, 509)","(1280, 509)","(1255, 517)","(1244, 518)","(1234, 515)",0.21,1.1,104.0,0.36,0.08,0.37,0.04,-9.5,0.08,0.33,69.8,81.8,128.2,68.7,73.1,143.1,59.7,69.64,110.82
1400,917504,90,-56,-1,-1,0,"(1185, 369)","(1184, 396)","(1188, 423)","(1193, 450)","(1198, 477)","(1208, 504)","(1220, 530)","(1237, 551)","(1262, 559)","(1289, 556)","(1313, 540)","(1334, 520)","(1351, 496)","(1364, 470)","(1372, 442)","(1379, 412)","(1384, 382)","(1193, 359)","(1204, 349)","(1220, 348)","(1236, 351)","(1252, 359)","(1287, 361)","(1306, 355)","(1326, 354)","(1346, 358)","(1361, 370)","(1267, 379)","(1264, 398)","(1260, 418)","(1257, 439)","(1241, 446)","(1249, 452)","(1259, 456)","(1271, 453)","(1282, 449)","(1213, 379)","(1224, 375)","(1236, 376)","(1246, 381)","(1235, 384)","(1223, 383)","(1299, 384)","(1311, 380)","(1324, 382)","(1335, 386)","(1324, 390)","(1311, 389)","(1231, 482)","(1240, 478)","(1251, 476)","(1260, 480)","(1271, 478)","(1286, 481)","(1301, 488)","(1287, 503)","(1271, 510)","(1260, 511)","(1249, 508)","(1239, 500)","(1236, 484)","(1250, 484)","(1260, 487)","(1271, 486)","(1294, 489)","(1271, 495)","(1260, 496)","(1250, 493)",0.23,1.08,105.0,0.34,0.06,0.35,0.04,-9.5,0.07,0.33,68.3,78.9,125.9,66.65,69.65,141.85,61.82,73.29,115.52
1433,-786432,90,-56,-1,-1,0,"(1202, 351)","(1202, 378)","(1205, 405)","(1208, 431)","(1213, 458)","(1221, 484)","(1233, 509)","(1250, 530)","(1274, 537)","(1301, 535)","(1324, 519)","(1345, 499)","(1362, 476)","(1374, 450)","(1382, 423)","(1390, 394)","(1395, 364)","(1209, 345)","(1219, 334)","(1235, 333)","(1250, 336)","(1266, 344)","(1301, 345)","(1320, 339)","(1340, 338)","(1359, 343)","(1373, 355)","(1281, 362)","(1278, 381)","(1274, 400)","(1270, 420)","(1256, 428)","(1263, 433)","(1273, 437)","(1284, 434)","(1295, 430)","(1228, 363)","(1239, 359)","(1250, 360)","(1261, 365)","(1249, 368)","(1237, 367)","(1312, 367)","(1324, 364)","(1336, 365)","(1347, 370)","(1335, 373)","(1323, 372)","(1245, 464)","(1253, 459)","(1265, 457)","(1274, 461)","(1284, 459)","(1299, 462)","(1312, 468)","(1299, 484)","(1284, 490)","(1273, 490)","(1262, 488)","(1252, 480)","(1250, 465)","(1264, 465)","(1274, 467)","(1284, 467)","(1306, 469)","(1284, 475)","(1274, 476)","(1264, 473)",0.22,1.06,104.0,0.35,0.06,0.34,0.04,-9.0,0.07,0.33,62.1,74.4,119.9,65.15,67.75,139.5,59.17,71.0,113.88
1466,-524288,90,-56,-1,-1,0,"(1214, 342)","(1213, 366)","(1216, 389)","(1219, 413)","(1224, 436)","(1235, 457)","(1249, 475)","(1268, 489)","(1292, 495)","(1316, 493)","(1338, 483)","(1357, 467)","(1370, 448)","(1379, 426)","(1384, 403)","(1388, 378)","(1391, 353)","(1221, 331)","(1232, 321)","(1248, 319)","(1264, 323)","(1279, 330)","(1311, 332)","(1329, 326)","(1347, 324)","(1365, 328)","(1377, 341)","(1295, 348)","(1293, 363)","(1290, 379)","(1288, 395)","(1272, 404)","(1281, 408)","(1290, 412)","(1301, 409)","(1311, 407)","(1240, 349)","(1250, 346)","(1261, 346)","(1273, 351)","(1261, 353)","(1250, 353)","(1321, 354)","(1333, 349)","(1345, 351)","(1356, 356)","(1345, 358)","(1333, 357)","(1260, 434)","(1270, 428)","(1282, 426)","(1290, 429)","(1299, 427)","(1313, 431)","(1326, 438)","(1314, 449)","(1301, 454)","(1291, 454)","(1281, 452)","(1270, 446)","(1265, 435)","(1281, 434)","(1290, 436)","(1300, 436)","(1320, 438)","(1301, 441)","(1291, 441)","(1282, 439)",0.21,0.98,104.0,0.38,0.05,0.37,0.03,-8.0,0.09,0.31,63.7,77.6,121.6,73.7,80.0,143.55,67.7,80.58,124.0
1500,-196608,90,-56,-1,-1,0,"(1230, 329)","(1229, 354)","(1230, 377)","(1232, 401)","(1237, 426)","(1246, 450)","(1258, 472)","(1274, 491)","(1297, 498)","(1322, 496)","(1345, 483)","(1364, 464)","(1379, 443)","(1389, 419)","(1395, 393)","(1400, 367)","(1403, 340)","(1235, 320)","(1245, 310)","(1259, 309)","(1274, 312)","(1288, 320)","(1321, 321)","(1338, 315)","(1356, 314)","(1374, 318)","(1386, 330)","(1302, 339)","(1300, 356)","(1297, 374)","(1294, 392)","(1279, 399)","(1286, 404)","(1296, 408)","(1307, 405)","(1317, 402)","(1252, 338)","(1262, 335)","(1273, 336)","(1283, 341)","(1272, 343)","(1261, 342)","(1331, 344)","(1343, 340)","(1354, 341)","(1364, 345)","(1354, 348)","(1342, 347)","(1268, 430)","(1277, 426)","(1287, 424)","(1296, 427)","(1306, 425)","(1320, 429)","(1333, 436)","(1321, 450)","(1307, 456)","(1296, 457)","(1286, 455)","(1276, 446)","(1273, 431)","(1287, 432)","(1296, 434)","(1306, 434)","(1328, 436)","(1306, 443)","(1296, 443)","(1287, 441)",0.21,1.05,104.0,0.37,0.06,0.37,0.04,-8.0,0.08,0.33,63.9,76.6,122.0,62.95,67.4,138.8,57.52,69.47,111.88
1533,917504,90,-56,-1,-1,0,"(1236, 320)","(1234, 344)","(1234, 368)","(1236, 391)","(1241, 415)","(1251, 439)","(1264, 461)","(1281, 480)","(1304, 487)","(1328, 484)","(1350, 471)","(1369, 453)","(1384, 432)","(1394, 408)","(1399, 383)","(1403, 358)","(1405, 332)","(1245, 313)","(1254, 304)","(1268, 302)","(1283, 306)","(1297, 313)","(1328, 315)","(1345, 308)","(1362, 307)","(1379, 311)","(1390, 322)","(1311, 332)","(1308, 349)","(1305, 366)","(1302, 384)","(1287, 390)","(1295, 395)","(1304, 399)","(1315, 396)","(1324, 393)","(1262, 331)","(1271, 328)","(1282, 328)","(1292, 333)","(1281, 336)","(1270, 335)","(1337, 336)","(1349, 332)","(1360, 333)","(1370, 337)","(1360, 340)","(1348, 339)","(1276, 419)","(1285, 415)","(1296, 414)","(1305, 417)","(1314, 416)","(1328, 419)","(1342, 426)","(1329, 440)","(1315, 446)","(1304, 447)","(1294, 445)","(1284, 436)","(1282, 420)","(1296, 422)","(1305, 424)","(1314, 423)","(1336, 426)","(1314, 434)","(1305, 434)","(1296, 432)",0.21,1.06,104.0,0.37,0.05,0.39,0.04,-8.0,0.07,0.33,61.3,73.9,117.6,65.25,70.05,139.35,55.41,68.0,106.52
1566,1966080,90,-56,-1,-1,0,"(1244, 319)","(1240, 342)","(1240, 365)","(1242, 387)","(1249, 410)","(1259, 432)","(1272, 454)","(1288, 473)","(1310, 480)","(1333, 478)","(1354, 466)","(1372, 448)","(1387, 428)","(1398, 405)","(1404, 380)","(1408, 355)","(1410, 330)","(1253, 310)","(1262, 301)","(1276, 299)","(1291, 302)","(1305, 310)","(1334, 311)","(1350, 305)","(1368, 304)","(1385, 308)","(1396, 319)","(1318, 329)","(1315, 345)","(1312, 361)","(1309, 378)","(1295, 386)","(1302, 390)","(1311, 394)","(1321, 392)","(1331, 389)","(1270, 327)","(1279, 324)","(1290, 325)","(1299, 330)","(1289, 332)","(1278, 331)","(1344, 332)","(1355, 328)","(1366, 329)","(1375, 333)","(1366, 337)","(1354, 336)","(1286, 416)","(1293, 412)","(1304, 410)","(1312, 414)","(1321, 412)","(1334, 415)","(1347, 422)","(1335, 435)","(1322, 441)","(1312, 442)","(1303, 440)","(1293, 432)","(1291, 417)","(1303, 418)","(1312, 420)","(1321, 420)","(1341, 422)","(1322, 429)","(1312, 429)","(1304, 427)",0.25,1.08,104.0,0.36,0.06,0.36,0.04,-8.5,0.07,0.32,61.6,74.4,118.4,61.5,65.9,134.75,56.35,67.17,105.88
1600,65536,90,-56,-1,-1,0,"(1257, 319)","(1256, 341)","(1257, 364)","(1261, 386)","(1266, 409)","(1273, 432)","(1284, 455)","(1298, 474)","(1319, 481)","(1341, 479)","(1361, 465)","(1379, 448)","(1393, 427)","(1404, 404)","(1410, 380)","(1415, 355)","(1419, 329)","(1262, 312)","(1269, 302)","(1283, 301)","(1297, 304)","(1310, 311)","(1341, 311)","(1357, 306)","(1373, 305)","(1390, 309)","(1401, 320)","(1323, 328)","(1320, 344)","(1317, 360)","(1314, 377)","(1301, 384)","(1308, 389)","(1317, 392)","(1327, 390)","(1336, 387)","(1278, 328)","(1287, 325)","(1297, 325)","(1306, 330)","(1296, 332)","(1286, 332)","(1350, 332)","(1361, 328)","(1371, 329)","(1380, 334)","(1371, 337)","(1360, 336)","(1292, 415)","(1299, 410)","(1309, 409)","(1317, 412)","(1327, 410)","(1340, 413)","(1353, 420)","(1341, 435)","(1328, 442)","(1318, 443)","(1308, 441)","(1299, 432)","(1296, 416)","(1309, 416)","(1317, 417)","(1327, 417)","(1348, 420)","(1328, 430)","(1318, 431)","(1309, 428)",0.26,1.1,104.0,0.35,0.06,0.37,0.06,-8.0,0.08,0.32,55.1,68.8,112.6,59.05,64.7,132.15,50.11,62.29,103.82
1633,-786432,90,-56,-1,-1,0,"(1262, 322)","(1263, 345)","(1266, 367)","(1269, 389)","(1273, 412)","(1281, 434)","(1291, 455)","(1304, 473)","(1324, 479)","(1346, 477)","(1366, 463)","(1383, 446)","(1397, 426)","(1408, 404)","(1414, 381)","(1421, 356)","(1426, 331)","(1268, 316)","(1276, 306)","(1289, 304)","(1303, 306)","(1317, 313)","(1346, 314)","(1362, 309)","(1379, 308)","(1395, 312)","(1406, 322)","(1329, 329)","(1326, 345)","(1323, 361)","(1320, 378)","(1308, 385)","(1314, 389)","(1322, 393)","(1332, 390)","(1341, 387)","(1285, 330)","(1294, 327)","(1303, 327)","(1312, 332)","(1302, 334)","(1293, 334)","(1355, 333)","(1365, 330)","(1375, 331)","(1384, 335)","(1375, 338)","(1365, 337)","(1298, 416)","(1305, 412)","(1315, 411)","(1323, 414)","(1331, 412)","(1344, 415)","(1355, 420)","(1344, 434)","(1332, 440)","(1322, 441)","(1313, 439)","(1304, 431)","(1303, 417)","(1315, 417)","(1323, 419)","(1331, 419)","(1350, 421)","(1332, 428)","(1323, 428)","(1314, 426)",0.24,1.07,104.0,0.34,0.03,0.34,0.05,-7.5,0.07,0.32,53.4,67.9,111.6,53.65,56.9,128.1,49.11,61.52,102.64
1666,-786432,90,-56,-1,-1,0,"(1270, 327)","(1270, 349)","(1272, 370)","(1274, 392)","(1278, 414)","(1285, 435)","(1295, 455)","(1309, 473)","(1328, 479)","(1350, 476)","(1370, 463)","(1388, 446)","(1403, 427)","(1413, 405)","(1420, 382)","(1425, 358)","(1430, 333)","(1276, 319)","(1283, 310)","(1296, 308)","(1309, 310)","(1322, 316)","(1351, 317)","(1366, 312)","(1383, 311)","(1398, 315)","(1409, 326)","(1334, 332)","(1331, 348)","(1329, 364)","(1326, 380)","(1313, 387)","(1320, 391)","(1327, 394)","(1337, 392)","(1346, 389)","(1292, 333)","(1300, 330)","(1309, 330)","(1317, 335)","(1308, 337)","(1299, 337)","(1360, 336)","(1369, 333)","(1379, 334)","(1388, 338)","(1378, 341)","(1369, 340)","(1303, 416)","(1311, 412)","(1320, 411)","(1328, 414)","(1337, 412)","(1349, 415)","(1360, 420)","(1349, 434)","(1336, 440)","(1327, 441)","(1318, 439)","(1309, 431)","(1308, 417)","(1320, 417)","(1328, 419)","(1337, 418)","(1356, 420)","(1336, 429)","(1328, 430)","(1319, 427)",0.25,1.03,104.0,0.33,0.04,0.35,0.05,-7.5,0.07,0.32,53.6,67.6,111.1,48.9,54.05,123.65,51.23,64.52,104.82
1700,-786432,90,-56,-1,-1,0,"(1274, 327)","(1273, 348)","(1274, 370)","(1276, 391)","(1280, 413)","(1288, 434)","(1299, 454)","(1314, 470)","(1334, 475)","(1356, 473)","(1375, 461)","(1391, 445)","(1404, 427)","(1412, 406)","(1417, 384)","(1421, 362)","(1423, 338)","(1281, 321)","(1289, 313)","(1301, 312)","(1315, 315)","(1327, 321)","(1355, 322)","(1369, 317)","(1384, 316)","(1399, 319)","(1409, 329)","(1339, 337)","(1337, 352)","(1334, 367)","(1332, 383)","(1319, 388)","(1326, 393)","(1334, 396)","(1343, 394)","(1352, 391)","(1296, 336)","(1304, 333)","(1314, 333)","(1322, 338)","(1313, 340)","(1303, 339)","(1363, 340)","(1372, 336)","(1382, 337)","(1391, 341)","(1382, 344)","(1372, 343)","(1309, 415)","(1316, 411)","(1326, 409)","(1334, 412)","(1343, 411)","(1355, 413)","(1367, 419)","(1356, 433)","(1343, 439)","(1334, 440)","(1325, 438)","(1315, 431)","(1313, 416)","(1326, 416)","(1334, 418)","(1343, 417)","(1362, 420)","(1343, 428)","(1334, 429)","(1326, 427)",0.24,1.06,104.0,0.36,0.06,0.38,0.05,-7.5,0.08,0.33,49.0,62.6,107.9,58.7,63.05,130.2,54.29,66.82,106.94
1733,-720896,90,-56,-1,-1,0,"(1276, 328)","(1274, 350)","(1275, 371)","(1277, 391)","(1281, 413)","(1290, 434)","(1301, 453)","(1316, 469)","(1336, 475)","(1357, 472)","(1376, 461)","(1392, 446)","(1405, 428)","(1413, 408)","(1418, 387)","(1422, 365)","(1424, 343)","(1285, 324)","(1294, 316)","(1306, 316)","(1320, 318)","(1332, 325)","(1359, 326)","(1373, 321)","(1387, 320)","(1402, 323)","(1412, 332)","(1344, 340)","(1341, 355)","(1339, 370)","(1336, 385)","(1323, 391)","(1330, 395)","(1338, 398)","(1347, 396)","(1355, 393)","(1301, 339)","(1309, 336)","(1318, 336)","(1326, 341)","(1317, 343)","(1308, 342)","(1366, 343)","(1376, 339)","(1386, 340)","(1394, 344)","(1385, 347)","(1376, 346)","(1312, 415)","(1320, 412)","(1330, 411)","(1338, 413)","(1346, 412)","(1359, 414)","(1370, 420)","(1359, 433)","(1347, 439)","(1338, 440)","(1329, 438)","(1319, 430)","(1316, 416)","(1330, 417)","(1338, 419)","(1347, 418)","(1365, 420)","(1347, 428)","(1338, 429)","(1330, 427)",0.25,1.03,105.0,0.35,0.06,0.39,0.05,-7.5,0.07,0.33,50.4,64.3,107.5,57.9,60.95,128.65,58.05,70.11,110.47
1766,-786432,90,-56,-1,-1,0,"(1284, 336)","(1282, 357)","(1282, 377)","(1283, 398)","(1288, 419)","(1296, 439)","(1307, 458)","(1321, 474)","(1340, 480)","(1361, 477)","(1379, 465)","(1395, 449)","(1408, 431)","(1417, 411)","(1422, 389)","(1426, 367)","(1428, 345)","(1290, 329)","(1297, 320)","(1310, 319)","(1322, 322)","(1335, 328)","(1362, 329)","(1376, 324)","(1391, 323)","(1406, 326)","(1415, 336)","(1346, 343)","(1344, 357)","(1341, 372)","(1339, 387)","(1325, 392)","(1332, 397)","(1340, 400)","(1350, 398)","(1358, 394)","(1305, 342)","(1312, 339)","(1322, 339)","(1330, 344)","(1321, 346)","(1312, 345)","(1370, 346)","(1379, 342)","(1389, 343)","(1397, 347)","(1388, 350)","(1379, 349)","(1315, 417)","(1323, 414)","(1333, 413)","(1341, 416)","(1349, 414)","(1361, 417)","(1373, 422)","(1362, 436)","(1349, 442)","(1340, 442)","(1331, 440)","(1322, 432)","(1319, 418)","(1332, 419)","(1341, 421)","(1349, 420)","(1368, 422)","(1349, 431)","(1340, 432)","(1332, 430)",0.26,1.03,105.0,0.36,0.05,0.4,0.05,-7.5,0.08,0.32,49.6,64.0,108.3,54.8,59.4,127.7,46.94,61.11,101.58
1800,-655360,90,-56,-1,-1,0,"(1286, 337)","(1284, 357)","(1283, 377)","(1284, 397)","(1289, 418)","(1298, 438)","(1309, 457)","(1323, 473)","(1343, 479)","(1363, 476)","(1381, 464)","(1397, 449)","(1410, 431)","(1419, 410)","(1423, 389)","(1426, 368)","(1428, 347)","(1293, 330)","(1301, 323)","(1313, 322)","(1325, 325)","(1337, 331)","(1364, 332)","(1378, 327)","(1392, 326)","(1406, 329)","(1415, 337)","(1349, 346)","(1347, 360)","(1344, 374)","(1342, 389)","(1328, 394)","(1335, 398)","(1343, 402)","(1352, 399)","(1361, 396)","(1308, 344)","(1315, 341)","(1324, 342)","(1332, 346)","(1323, 348)","(1315, 347)","(1372, 348)","(1381, 345)","(1390, 345)","(1398, 349)","(1390, 352)","(1381, 351)","(1317, 417)","(1325, 414)","(1335, 413)","(1343, 416)","(1352, 415)","(1364, 417)","(1375, 422)","(1365, 436)","(1352, 442)","(1343, 443)","(1334, 441)","(1324, 433)","(1321, 418)","(1335, 419)","(1343, 421)","(1352, 420)","(1371, 422)","(1352, 432)","(1343, 433)","(1335, 430)",0.24,1.02,105.0,0.35,0.06,0.4,0.05,-7.0,0.08,0.32,45.5,60.9,102.9,56.3,59.45,127.45,50.23,63.82,104.0
1833,-655360,90,-56,-1,-1,0,"(1288, 338)","(1286, 358)","(1286, 377)","(1287, 397)","(1292, 418)","(1300, 438)","(1311, 456)","(1325, 472)","(1344, 478)","(1364, 476)","(1382, 464)","(1397, 449)","(1410, 431)","(1419, 412)","(1423, 391)","(1426, 370)","(1428, 348)","(1296, 331)","(1304, 324)","(1316, 324)","(1328, 326)","(1339, 333)","(1365, 334)","(1379, 329)","(1393, 328)","(1407, 330)","(1416, 339)","(1351, 347)","(1349, 361)","(1346, 375)","(1344, 390)","(1331, 395)","(1337, 399)","(1345, 403)","(1354, 400)","(1362, 397)","(1310, 346)","(1318, 343)","(1327, 343)","(1335, 348)","(1326, 350)","(1317, 349)","(1373, 350)","(1382, 346)","(1391, 346)","(1399, 350)","(1391, 353)","(1382, 352)","(1320, 417)","(1327, 414)","(1337, 414)","(1345, 417)","(1354, 415)","(1366, 417)","(1377, 422)","(1366, 436)","(1354, 442)","(1345, 442)","(1336, 440)","(1326, 432)","(1324, 418)","(1337, 419)","(1345, 421)","(1354, 421)","(1373, 423)","(1354, 432)","(1345, 432)","(1337, 430)",0.25,1.04,105.0,0.36,0.07,0.4,0.06,-7.0,0.07,0.32,46.8,62.6,106.9,53.85,58.75,126.4,51.58,65.0,105.82
1866,-917504,90,-56,-1,-1,0,"(1289, 338)","(1286, 358)","(1286, 378)","(1287, 398)","(1292, 418)","(1301, 438)","(1313, 456)","(1327, 472)","(1346, 478)","(1365, 476)","(1383, 464)","(1398, 449)","(1411, 432)","(1420, 412)","(1424, 391)","(1428, 370)","(1429, 349)","(1299, 332)","(1307, 325)","(1318, 325)","(1331, 328)","(1342, 334)","(1368, 335)","(1381, 330)","(1395, 329)","(1409, 331)","(1418, 340)","(1353, 349)","(1351, 362)","(1348, 376)","(1346, 390)","(1333, 395)","(1339, 399)","(1347, 403)","(1356, 401)","(1364, 398)","(1313, 347)","(1320, 344)","(1329, 344)","(1337, 349)","(1328, 351)","(1319, 350)","(1375, 351)","(1384, 347)","(1393, 347)","(1401, 351)","(1393, 354)","(1384, 354)","(1322, 418)","(1329, 415)","(1339, 414)","(1347, 417)","(1355, 415)","(1367, 418)","(1378, 423)","(1368, 436)","(1356, 442)","(1347, 443)","(1338, 441)","(1329, 433)","(1326, 419)","(1339, 419)","(1347, 421)","(1355, 421)","(1374, 423)","(1356, 432)","(1347, 433)","(1339, 431)",0.26,1.04,105.0,0.35,0.07,0.4,0.06,-7.0,0.07,0.31,47.6,62.1,108.0,53.75,59.05,126.45,51.0,64.17,103.41
1900,-655360,90,-56,-1,-1,0,"(1289, 338)","(1287, 359)","(1286, 379)","(1288, 399)","(1293, 419)","(1302, 439)","(1314, 457)","(1329, 472)","(1348, 478)","(1367, 476)","(1385, 465)","(1399, 449)","(1412, 432)","(1420, 412)","(1424, 392)","(1427, 371)","(1429, 350)","(1300, 333)","(1308, 326)","(1320, 325)","(1332, 328)","(1344, 334)","(1369, 336)","(1382, 331)","(1396, 329)","(1410, 332)","(1418, 340)","(1355, 349)","(1353, 363)","(1351, 376)","(1348, 390)","(1336, 395)","(1342, 399)","(1350, 402)","(1358, 400)","(1366, 397)","(1315, 347)","(1322, 344)","(1331, 344)","(1339, 349)","(1330, 351)","(1322, 350)","(1376, 351)","(1385, 347)","(1394, 348)","(1402, 351)","(1394, 354)","(1385, 354)","(1324, 418)","(1332, 414)","(1342, 413)","(1350, 416)","(1358, 415)","(1369, 417)","(1380, 423)","(1370, 436)","(1358, 442)","(1349, 443)","(1341, 441)","(1331, 433)","(1328, 418)","(1342, 419)","(1350, 421)","(1358, 420)","(1375, 423)","(1358, 432)","(1350, 432)","(1342, 430)",0.25,0.99,105.0,0.35,0.05,0.4,0.06,-7.0,0.07,0.31,46.8,60.7,107.4,55.1,60.55,126.9,49.0,62.94,99.64
1933,-589824,90,-56,-1,-1,0,"(1289, 339)","(1287, 359)","(1286, 379)","(1287, 399)","(1292, 419)","(1301, 439)","(1313, 457)","(1328, 472)","(1347, 478)","(1366, 476)","(1384, 466)","(1399, 451)","(1412, 433)","(1421, 414)","(1425, 393)","(1428, 373)","(1429, 352)","(1302, 332)","(1311, 326)","(1323, 325)","(1335, 328)","(1347, 335)","(1371, 336)","(1384, 331)","(1398, 330)","(1411, 332)","(1420, 341)","(1357, 349)","(1355, 362)","(1352, 376)","(1350, 390)","(1336, 394)","(1343, 399)","(1351, 402)","(1360, 400)","(1368, 397)","(1317, 346)","(1325, 344)","(1333, 344)","(1341, 349)","(1332, 350)","(1324, 349)","(1378, 351)","(1387, 347)","(1396, 348)","(1403, 352)","(1395, 354)","(1386, 354)","(1325, 417)","(1333, 413)","(1343, 413)","(1351, 416)","(1359, 414)","(1370, 417)","(1381, 423)","(1370, 436)","(1359, 442)","(1350, 442)","(1341, 440)","(1332, 432)","(1329, 418)","(1343, 418)","(1351, 420)","(1359, 420)","(1376, 423)","(1359, 432)","(1350, 432)","(1342, 430)",0.26,0.99,105.0,0.34,0.08,0.4,0.06,-6.5,0.07,0.31,47.1,61.6,105.8,57.9,63.4,127.45,48.82,63.29,96.94
1966,2031616,90,-56,-1,-1,0,"(1289, 339)","(1289, 360)","(1290, 380)","(1292, 400)","(1297, 420)","(1306, 438)","(1318, 455)","(1331, 470)","(1350, 477)","(1370, 474)","(1388, 463)","(1404, 449)","(1418, 432)","(1428, 413)","(1434, 392)","(1439, 371)","(1443, 349)","(1303, 334)","(1311, 327)","(1324, 325)","(1336, 328)","(1348, 334)","(1373, 335)","(1387, 330)","(1401, 329)","(1415, 332)","(1425, 341)","(1359, 347)","(1356, 361)","(1354, 375)","(1352, 389)","(1339, 393)","(1345, 397)","(1352, 401)","(1361, 398)","(1369, 395)","(1319, 346)","(1326, 344)","(1335, 344)","(1343, 348)","(1334, 350)","(1326, 350)","(1381, 350)","(1389, 347)","(1398, 348)","(1405, 352)","(1397, 354)","(1388, 353)","(1329, 416)","(1337, 412)","(1346, 411)","(1353, 414)","(1360, 413)","(1371, 415)","(1381, 421)","(1370, 434)","(1360, 439)","(1351, 439)","(1343, 437)","(1335, 429)","(1333, 417)","(1345, 416)","(1353, 418)","(1360, 418)","(1377, 421)","(1360, 428)","(1352, 429)","(1344, 426)",0.25,1.0,106.0,0.31,0.05,0.33,0.05,-6.5,0.06,0.32,45.4,60.0,106.0,46.85,51.45,119.3,56.41,69.76,101.23
2000,-655360,90,-56,-1,-1,0,"(1290, 338)","(1291, 358)","(1292, 378)","(1294, 398)","(1299, 418)","(1308, 436)","(1319, 453)","(1333, 469)","(1351, 475)","(1370, 473)","(1388, 461)","(1404, 447)","(1418, 430)","(1428, 411)","(1434, 391)","(1439, 369)","(1443, 347)","(1304, 333)","(1312, 326)","(1325, 325)","(1337, 328)","(1349, 334)","(1373, 334)","(1387, 330)","(1402, 329)","(1415, 332)","(1426, 340)","(1359, 347)","(1357, 361)","(1354, 375)","(1352, 389)","(1340, 393)","(1346, 397)","(1353, 400)","(1361, 398)","(1370, 395)","(1319, 346)","(1327, 343)","(1336, 344)","(1343, 348)","(1335, 350)","(1326, 350)","(1381, 350)","(1390, 347)","(1399, 347)","(1406, 351)","(1398, 354)","(1389, 353)","(1329, 416)","(1337, 412)","(1346, 411)","(1353, 414)","(1361, 412)","(1372, 415)","(1382, 421)","(1371, 433)","(1360, 439)","(1352, 439)","(1344, 437)","(1335, 429)","(1333, 416)","(1346, 416)","(1353, 418)","(1361, 417)","(1377, 421)","(1360, 429)","(1353, 429)","(1345, 427)",0.26,0.99,106.0,0.32,0.06,0.34,0.05,-7.0,0.07,0.32,46.2,59.6,103.9,48.35,54.1,122.15,57.58,71.23,105.7
2033,-327680,90,-56,-1,-1,0,"(1291, 338)","(1290, 358)","(1291, 379)","(1293, 399)","(1298, 418)","(1307, 437)","(1319, 454)","(1333, 470)","(1351, 476)","(1371, 474)","(1389, 462)","(1406, 448)","(1421, 431)","(1431, 413)","(1437, 392)","(1442, 370)","(1446, 348)","(1304, 333)","(1313, 326)","(1325, 325)","(1338, 328)","(1349, 334)","(1373, 335)","(1387, 330)","(1402, 328)","(1416, 331)","(1426, 340)","(1360, 347)","(1357, 361)","(1355, 374)","(1352, 389)","(1340, 393)","(1346, 397)","(1353, 400)","(1362, 398)","(1370, 395)","(1320, 346)","(1328, 344)","(1336, 344)","(1344, 348)","(1335, 350)","(1327, 350)","(1382, 350)","(1390, 346)","(1399, 347)","(1406, 351)","(1398, 354)","(1389, 353)","(1330, 415)","(1338, 412)","(1347, 411)","(1354, 414)","(1361, 412)","(1372, 415)","(1382, 420)","(1371, 433)","(1360, 438)","(1352, 438)","(1344, 436)","(1336, 429)","(1334, 416)","(1346, 416)","(1354, 418)","(1361, 418)","(1378, 421)","(1360, 428)","(1353, 428)","(1345, 426)",0.29,0.99,106.0,0.3,0.05,0.33,0.05,-7.0,0.06,0.32,45.7,60.3,105.3,46.85,52.8,120.75,56.58,71.0,103.88
2066,-65536,90,-56,-1,-1,0,"(1291, 338)","(1291, 359)","(1292, 379)","(1294, 399)","(1299, 418)","(1308, 437)","(1320, 454)","(1333, 469)","(1351, 475)","(1371, 473)","(1388, 462)","(1405, 447)","(1419, 431)","(1430, 412)","(1436, 391)","(1441, 370)","(1445, 348)","(1304, 333)","(1313, 326)","(1325, 325)","(1337, 327)","(1349, 333)","(1374, 334)","(1388, 330)","(1402, 329)","(1416, 332)","(1426, 340)","(1359, 347)","(1357, 360)","(1355, 374)","(1352, 389)","(1340, 393)","(1346, 397)","(1353, 400)","(1362, 398)","(1370, 395)","(1320, 346)","(1327, 343)","(1336, 344)","(1343, 348)","(1335, 350)","(1327, 349)","(1381, 350)","(1390, 347)","(1399, 347)","(1406, 351)","(1398, 354)","(1389, 353)","(1329, 415)","(1337, 412)","(1346, 411)","(1353, 414)","(1361, 412)","(1371, 415)","(1382, 420)","(1371, 433)","(1360, 438)","(1352, 438)","(1344, 436)","(1336, 429)","(1333, 416)","(1346, 416)","(1353, 418)","(1361, 417)","(1377, 420)","(1360, 428)","(1353, 428)","(1345, 426)",0.26,0.98,106.0,0.31,0.05,0.34,0.05,-7.0,0.07,0.32,44.9,59.0,104.2,49.8,55.45,122.65,55.64,68.17,103.58
2100,524288,90,-56,-1,-1,0,"(1298, 337)","(1296, 357)","(1295, 376)","(1296, 396)","(1300, 415)","(1308, 434)","(1319, 453)","(1332, 468)","(1350, 475)","(1370, 473)","(1388, 461)","(1403, 446)","(1416, 429)","(1425, 409)","(1430, 389)","(1434, 368)","(1436, 348)","(1306, 331)","(1314, 325)","(1325, 324)","(1337, 326)","(1348, 332)","(1373, 333)","(1387, 329)","(1401, 328)","(1414, 331)","(1423, 339)","(1359, 346)","(1357, 360)","(1354, 374)","(1352, 388)","(1339, 392)","(1346, 396)","(1353, 400)","(1362, 397)","(1370, 394)","(1320, 345)","(1327, 342)","(1336, 343)","(1343, 347)","(1335, 348)","(1326, 348)","(1381, 349)","(1389, 346)","(1398, 346)","(1406, 350)","(1398, 353)","(1389, 352)","(1329, 414)","(1336, 411)","(1345, 410)","(1353, 413)","(1361, 412)","(1372, 414)","(1382, 419)","(1372, 432)","(1360, 438)","(1352, 439)","(1343, 437)","(1335, 429)","(1333, 415)","(1345, 416)","(1353, 418)","(1361, 417)","(1378, 420)","(1361, 428)","(1352, 429)","(1344, 426)",0.25,1.02,106.0,0.34,0.07,0.38,0.05,-6.5,0.07,0.32,43.6,57.2,101.9,52.1,59.3,122.65,47.64,61.52,101.41
2133,1114112,90,-56,-1,-1,0,"(1295, 338)","(1294, 357)","(1295, 377)","(1296, 396)","(1301, 415)","(1309, 434)","(1319, 451)","(1332, 467)","(1349, 473)","(1368, 471)","(1385, 459)","(1400, 445)","(1413, 429)","(1422, 410)","(1428, 390)","(1433, 369)","(1437, 348)","(1304, 330)","(1312, 323)","(1324, 322)","(1336, 325)","(1348, 330)","(1372, 332)","(1386, 327)","(1399, 326)","(1413, 329)","(1422, 338)","(1358, 344)","(1356, 358)","(1353, 372)","(1351, 387)","(1338, 391)","(1344, 394)","(1351, 398)","(1360, 396)","(1369, 393)","(1318, 343)","(1326, 340)","(1334, 341)","(1341, 345)","(1333, 347)","(1325, 346)","(1379, 347)","(1388, 344)","(1397, 344)","(1405, 348)","(1397, 351)","(1388, 350)","(1327, 413)","(1334, 409)","(1343, 408)","(1351, 411)","(1359, 410)","(1370, 413)","(1381, 418)","(1370, 432)","(1358, 437)","(1350, 438)","(1341, 435)","(1333, 428)","(1331, 414)","(1343, 414)","(1351, 416)","(1359, 415)","(1376, 419)","(1359, 427)","(1350, 427)","(1342, 425)",0.24,1.04,106.0,0.34,0.05,0.38,0.05,-7.0,0.07,0.33,45.8,60.3,105.8,54.75,60.2,125.0,48.7,62.88,103.0
2166,1703936,90,-56,-1,-1,0,"(1294, 335)","(1293, 355)","(1293, 374)","(1294, 394)","(1299, 414)","(1307, 432)","(1317, 450)","(1330, 465)","(1348, 471)","(1368, 469)","(1385, 458)","(1400, 443)","(1413, 426)","(1422, 407)","(1427, 386)","(1432, 365)","(1435, 344)","(1302, 327)","(1310, 320)","(1322, 319)","(1334, 321)","(1345, 327)","(1371, 328)","(1385, 323)","(1398, 323)","(1412, 325)","(1421, 334)","(1356, 342)","(1354, 356)","(1352, 370)","(1349, 384)","(1336, 388)","(1343, 392)","(1350, 396)","(1359, 393)","(1367, 390)","(1316, 341)","(1323, 338)","(1332, 338)","(1340, 343)","(1331, 345)","(1322, 344)","(1378, 345)","(1386, 341)","(1396, 342)","(1403, 345)","(1395, 348)","(1386, 347)","(1325, 411)","(1333, 407)","(1342, 406)","(1350, 409)","(1358, 408)","(1369, 410)","(1379, 415)","(1369, 429)","(1358, 435)","(1349, 435)","(1340, 433)","(1331, 426)","(1329, 412)","(1342, 412)","(1350, 414)","(1358, 413)","(1375, 416)","(1358, 424)","(1349, 425)","(1341, 423)",0.24,0.99,106.0,0.34,0.05,0.38,0.05,-7.0,0.07,0.32,47.3,62.9,109.1,53.95,59.05,124.35,51.88,65.58,104.47
2200,-393216,90,-56,-1,-1,0,"(1283, 326)","(1281, 346)","(1279, 367)","(1280, 388)","(1285, 408)","(1294, 429)","(1307, 447)","(1322, 462)","(1342, 469)","(1363, 467)","(1382, 456)","(1398, 441)","(1412, 422)","(1421, 402)","(1427, 381)","(1431, 358)","(1433, 336)","(1296, 320)","(1305, 313)","(1317, 312)","(1329, 315)","(1341, 322)","(1369, 324)","(1383, 319)","(1397, 318)","(1410, 320)","(1420, 328)","(1353, 339)","(1351, 353)","(1348, 366)","(1346, 381)","(1332, 385)","(1339, 389)","(1347, 393)","(1355, 391)","(1364, 387)","(1311, 337)","(1319, 335)","(1328, 335)","(1336, 339)","(1327, 341)","(1318, 340)","(1375, 341)","(1385, 338)","(1394, 339)","(1401, 342)","(1393, 345)","(1384, 344)","(1321, 407)","(1329, 404)","(1339, 404)","(1346, 406)","(1354, 405)","(1365, 407)","(1376, 413)","(1365, 426)","(1354, 432)","(1345, 432)","(1336, 430)","(1328, 422)","(1326, 408)","(1338, 409)","(1346, 411)","(1354, 411)","(1371, 413)","(1354, 422)","(1346, 422)","(1338, 420)",0.23,1.0,106.0,0.33,0.06,0.36,0.05,-6.5,0.07,0.32,54.9,71.4,117.4,52.7,57.7,124.9,54.88,68.47,101.23
2233,-851968,90,-56,-1,-1,0,"(1286, 327)","(1283, 347)","(1282, 367)","(1283, 387)","(1288, 408)","(1297, 427)","(1308, 446)","(1322, 462)","(1341, 467)","(1362, 465)","(1380, 453)","(1395, 437)","(1408, 419)","(1417, 400)","(1422, 379)","(1425, 357)","(1427, 336)","(1294, 320)","(1302, 313)","(1314, 311)","(1326, 314)","(1338, 320)","(1364, 321)","(1377, 316)","(1392, 315)","(1405, 318)","(1414, 326)","(1349, 335)","(1347, 349)","(1345, 362)","(1343, 377)","(1329, 382)","(1336, 386)","(1344, 390)","(1352, 387)","(1361, 384)","(1309, 334)","(1316, 331)","(1325, 331)","(1333, 335)","(1324, 337)","(1315, 337)","(1371, 337)","(1380, 334)","(1389, 334)","(1397, 338)","(1389, 340)","(1380, 340)","(1318, 405)","(1325, 401)","(1335, 401)","(1343, 404)","(1352, 402)","(1364, 404)","(1374, 409)","(1364, 423)","(1352, 430)","(1343, 430)","(1334, 428)","(1324, 420)","(1321, 406)","(1335, 406)","(1343, 408)","(1352, 408)","(1370, 410)","(1352, 419)","(1343, 420)","(1335, 418)",0.23,1.03,105.0,0.35,0.04,0.39,0.06,-6.0,0.08,0.31,45.9,60.2,105.2,53.25,59.25,124.9,48.47,62.58,102.7
2266,-1048576,90,-56,-1,-1,0,"(1275, 322)","(1276, 343)","(1277, 364)","(1279, 385)","(1284, 406)","(1293, 426)","(1304, 444)","(1318, 460)","(1337, 466)","(1358, 464)","(1376, 451)","(1392, 435)","(1406, 417)","(1415, 397)","(1422, 376)","(1427, 353)","(1432, 330)","(1287, 318)","(1296, 310)","(1308, 308)","(1321, 310)","(1334, 316)","(1360, 317)","(1375, 312)","(1389, 311)","(1404, 314)","(1414, 323)","(1345, 330)","(1343, 345)","(1340, 359)","(1338, 375)","(1325, 379)","(1331, 383)","(1339, 386)","(1348, 384)","(1356, 381)","(1304, 330)","(1312, 328)","(1321, 328)","(1329, 332)","(1320, 334)","(1311, 334)","(1368, 333)","(1377, 330)","(1386, 331)","(1394, 334)","(1386, 337)","(1376, 336)","(1314, 402)","(1322, 399)","(1332, 398)","(1339, 400)","(1347, 399)","(1358, 401)","(1369, 407)","(1358, 421)","(1347, 427)","(1338, 427)","(1329, 425)","(1320, 417)","(1318, 403)","(1331, 403)","(1339, 405)","(1347, 404)","(1365, 407)","(1347, 416)","(1339, 417)","(1331, 414)",0.23,0.99,105.0,0.32,0.03,0.35,0.05,-6.5,0.07,0.33,45.3,60.7,104.6,49.5,54.6,123.6,53.76,66.64,104.0
2300,-917504,90,-56,-1,-1,0,"(1278, 321)","(1276, 341)","(1276, 362)","(1277, 382)","(1281, 403)","(1290, 422)","(1300, 441)","(1314, 457)","(1333, 463)","(1355, 460)","(1373, 449)","(1389, 432)","(1402, 414)","(1412, 394)","(1417, 372)","(1421, 350)","(1424, 327)","(1284, 312)","(1292, 304)","(1304, 302)","(1317, 305)","(1329, 311)","(1356, 312)","(1370, 307)","(1385, 306)","(1399, 309)","(1409, 318)","(1340, 326)","(1338, 340)","(1335, 355)","(1333, 371)","(1320, 375)","(1326, 379)","(1334, 383)","(1343, 380)","(1352, 377)","(1299, 326)","(1306, 323)","(1315, 323)","(1323, 327)","(1314, 329)","(1306, 329)","(1364, 329)","(1373, 325)","(1382, 326)","(1390, 330)","(1382, 332)","(1372, 332)","(1309, 400)","(1317, 396)","(1326, 394)","(1334, 397)","(1343, 396)","(1355, 398)","(1366, 404)","(1355, 418)","(1343, 424)","(1333, 425)","(1324, 423)","(1315, 415)","(1313, 401)","(1326, 400)","(1334, 402)","(1343, 402)","(1361, 404)","(1343, 413)","(1334, 414)","(1325, 411)",0.25,1.03,105.0,0.34,0.04,0.39,0.06,-6.5,0.08,0.32,47.9,62.1,108.8,52.1,57.4,125.25,52.05,65.41,103.35
2333,-720896,90,-56,-1,-1,0,"(1272, 313)","(1271, 335)","(1272, 356)","(1274, 377)","(1278, 398)","(1285, 419)","(1297, 437)","(1311, 452)","(1331, 458)","(1353, 454)","(1371, 442)","(1386, 426)","(1398, 407)","(1407, 387)","(1411, 366)","(1415, 344)","(1416, 322)","(1277, 306)","(1285, 298)","(1298, 296)","(1311, 299)","(1323, 306)","(1351, 307)","(1365, 301)","(1381, 300)","(1395, 303)","(1405, 313)","(1336, 321)","(1334, 336)","(1331, 351)","(1329, 367)","(1315, 371)","(1322, 376)","(1330, 379)","(1340, 377)","(1348, 373)","(1292, 321)","(1300, 318)","(1309, 318)","(1318, 323)","(1309, 324)","(1300, 324)","(1359, 324)","(1369, 320)","(1378, 321)","(1387, 325)","(1378, 328)","(1368, 327)","(1303, 396)","(1311, 392)","(1322, 391)","(1330, 394)","(1339, 392)","(1352, 394)","(1363, 400)","(1352, 414)","(1340, 421)","(1330, 422)","(1320, 420)","(1310, 412)","(1308, 397)","(1322, 397)","(1330, 399)","(1339, 398)","(1358, 400)","(1340, 410)","(1330, 411)","(1321, 409)",0.25,1.01,105.0,0.37,0.05,0.41,0.06,-7.0,0.08,0.33,51.6,66.2,110.6,52.7,58.8,126.5,47.29,61.17,101.52
2366,-851968,90,-56,-1,-1,0,"(1263, 308)","(1262, 330)","(1264, 351)","(1268, 372)","(1273, 393)","(1281, 413)","(1293, 431)","(1308, 446)","(1328, 450)","(1348, 447)","(1366, 436)","(1381, 421)","(1393, 403)","(1401, 383)","(1405, 361)","(1408, 340)","(1410, 318)","(1270, 301)","(1278, 292)","(1291, 291)","(1305, 294)","(1318, 300)","(1344, 301)","(1358, 296)","(1374, 294)","(1388, 297)","(1398, 307)","(1330, 316)","(1328, 331)","(1326, 345)","(1324, 361)","(1310, 367)","(1317, 371)","(1326, 374)","(1335, 371)","(1343, 368)","(1285, 316)","(1293, 313)","(1303, 313)","(1312, 317)","(1302, 319)","(1293, 319)","(1353, 319)","(1363, 315)","(1372, 315)","(1381, 319)","(1372, 322)","(1362, 321)","(1299, 393)","(1307, 388)","(1317, 387)","(1326, 389)","(1335, 388)","(1347, 390)","(1358, 396)","(1348, 409)","(1336, 416)","(1326, 417)","(1317, 415)","(1306, 408)","(1303, 394)","(1317, 393)","(1326, 395)","(1335, 394)","(1353, 396)","(1336, 405)","(1326, 406)","(1318, 404)",0.23,1.0,105.0,0.37,0.04,0.4,0.05,-6.5,0.08,0.33,51.8,65.9,111.2,50.25,54.95,124.1,56.29,68.41,113.7
2400,-851968,90,-56,-1,-1,0,"(1259, 304)","(1259, 326)","(1260, 348)","(1262, 370)","(1266, 391)","(1274, 413)","(1285, 433)","(1298, 451)","(1318, 457)","(1340, 454)","(1360, 440)","(1377, 423)","(1391, 403)","(1402, 382)","(1408, 359)","(1413, 335)","(1417, 310)","(1264, 297)","(1271, 288)","(1284, 285)","(1298, 287)","(1311, 294)","(1340, 295)","(1356, 290)","(1373, 289)","(1388, 292)","(1399, 303)","(1323, 311)","(1321, 326)","(1318, 342)","(1315, 358)","(1302, 364)","(1309, 368)","(1317, 371)","(1327, 368)","(1337, 365)","(1280, 311)","(1288, 308)","(1298, 308)","(1306, 313)","(1297, 315)","(1287, 315)","(1349, 314)","(1359, 310)","(1369, 311)","(1378, 315)","(1369, 318)","(1358, 317)","(1291, 389)","(1299, 385)","(1309, 384)","(1318, 387)","(1327, 385)","(1340, 387)","(1352, 393)","(1340, 409)","(1326, 416)","(1316, 417)","(1307, 415)","(1297, 406)","(1295, 390)","(1309, 390)","(1318, 392)","(1327, 391)","(1347, 393)","(1326, 404)","(1317, 405)","(1308, 403)",0.24,1.04,105.0,0.34,0.03,0.38,0.06,-7.5,0.08,0.32,51.5,65.9,110.3,51.1,58.1,126.95,51.23,64.94,107.47
2433,-786432,90,-56,-1,-1,0,"(1251, 297)","(1248, 320)","(1247, 342)","(1248, 364)","(1254, 387)","(1263, 409)","(1274, 431)","(1290, 449)","(1311, 456)","(1334, 453)","(1354, 439)","(1372, 421)","(1387, 401)","(1398, 378)","(1403, 355)","(1407, 331)","(1409, 307)","(1257, 291)","(1264, 282)","(1277, 280)","(1291, 282)","(1305, 290)","(1335, 291)","(1350, 284)","(1367, 283)","(1383, 287)","(1394, 297)","(1318, 307)","(1315, 323)","(1312, 338)","(1309, 355)","(1295, 360)","(1302, 365)","(1311, 369)","(1321, 366)","(1330, 363)","(1272, 307)","(1280, 304)","(1290, 304)","(1300, 308)","(1289, 310)","(1280, 310)","(1343, 310)","(1354, 307)","(1365, 308)","(1374, 311)","(1364, 314)","(1354, 313)","(1283, 387)","(1291, 383)","(1302, 381)","(1311, 385)","(1320, 383)","(1333, 386)","(1346, 392)","(1334, 407)","(1320, 414)","(1310, 415)","(1301, 413)","(1290, 404)","(1288, 388)","(1302, 388)","(1311, 390)","(1320, 390)","(1340, 392)","(1320, 402)","(1311, 403)","(1302, 401)",0.19,1.04,104.0,0.37,0.04,0.39,0.06,-6.5,0.07,0.32,53.4,67.0,112.4,52.0,57.05,127.9,51.29,63.17,102.35
2466,-851968,90,-56,-1,-1,0,"(1239, 296)","(1237, 319)","(1237, 343)","(1238, 366)","(1244, 390)","(1253, 412)","(1265, 433)","(1280, 452)","(1302, 459)","(1326, 456)","(1346, 442)","(1365, 424)","(1381, 403)","(1392, 381)","(1398, 356)","(1403, 331)","(1407, 306)","(1248, 288)","(1256, 279)","(1270, 276)","(1284, 278)","(1298, 285)","(1329, 286)","(1345, 281)","(1362, 280)","(1379, 284)","(1390, 295)","(1311, 303)","(1308, 319)","(1305, 336)","(1302, 353)","(1287, 359)","(1295, 364)","(1303, 367)","(1314, 364)","(1324, 361)","(1264, 304)","(1273, 301)","(1283, 301)","(1292, 305)","(1282, 307)","(1272, 307)","(1338, 307)","(1348, 303)","(1359, 304)","(1368, 308)","(1358, 311)","(1348, 310)","(1275, 387)","(1284, 382)","(1295, 381)","(1304, 384)","(1314, 382)","(1327, 385)","(1340, 391)","(1327, 406)","(1313, 414)","(1303, 414)","(1293, 412)","(1282, 404)","(1280, 388)","(1294, 388)","(1304, 390)","(1313, 389)","(1335, 391)","(1313, 401)","(1303, 402)","(1294, 400)",0.23,1.0,104.0,0.34,0.04,0.38,0.05,-7.0,0.07,0.32,52.2,67.6,111.2,55.4,61.05,131.05,49.88,63.23,103.29
2500,-917504,90,-56,-1,-1,0,"(1234, 293)","(1232, 317)","(1232, 341)","(1234, 365)","(1238, 390)","(1246, 414)","(1259, 436)","(1275, 454)","(1297, 460)","(1322, 457)","(1343, 443)","(1362, 424)","(1377, 403)","(1387, 379)","(1392, 354)","(1397, 329)","(1399, 303)","(1239, 284)","(1246, 275)","(1260, 273)","(1275, 275)","(1289, 282)","(1322, 284)","(1338, 278)","(1356, 277)","(1373, 281)","(1384, 292)","(1303, 302)","(1300, 318)","(1297, 335)","(1294, 352)","(1279, 359)","(1287, 363)","(1295, 367)","(1306, 365)","(1316, 361)","(1255, 301)","(1264, 298)","(1275, 298)","(1284, 303)","(1274, 305)","(1263, 305)","(1330, 305)","(1342, 301)","(1353, 302)","(1362, 307)","(1352, 310)","(1341, 309)","(1267, 388)","(1275, 383)","(1286, 382)","(1295, 385)","(1305, 383)","(1320, 386)","(1333, 393)","(1320, 408)","(1306, 416)","(1295, 417)","(1285, 415)","(1274, 406)","(1272, 389)","(1286, 390)","(1296, 392)","(1306, 391)","(1327, 393)","(1306, 403)","(1296, 404)","(1286, 402)",0.25,1.08,103.0,0.36,0.04,0.4,0.05,-8.0,0.07,0.31,56.8,70.1,116.0,60.3,66.0,134.8,54.7,68.41,109.41
2533,-786432,90,-56,-1,-1,0,"(1223, 297)","(1222, 322)","(1223, 346)","(1225, 371)","(1230, 395)","(1239, 418)","(1250, 440)","(1266, 459)","(1288, 466)","(1312, 463)","(1334, 449)","(1353, 431)","(1369, 410)","(1380, 386)","(1387, 360)","(1393, 334)","(1397, 307)","(1229, 285)","(1237, 275)","(1252, 272)","(1266, 275)","(1281, 282)","(1313, 284)","(1331, 278)","(1349, 277)","(1367, 281)","(1379, 293)","(1294, 301)","(1291, 319)","(1288, 336)","(1284, 354)","(1270, 361)","(1278, 366)","(1287, 370)","(1297, 367)","(1308, 363)","(1246, 302)","(1255, 298)","(1266, 299)","(1275, 304)","(1264, 306)","(1254, 306)","(1323, 306)","(1334, 302)","(1346, 303)","(1355, 307)","(1345, 310)","(1334, 309)","(1259, 392)","(1267, 387)","(1278, 385)","(1287, 388)","(1297, 386)","(1311, 390)","(1324, 396)","(1311, 412)","(1297, 420)","(1286, 420)","(1276, 418)","(1266, 410)","(1263, 393)","(1278, 392)","(1287, 394)","(1297, 394)","(1319, 397)","(1297, 406)","(1287, 407)","(1277, 405)",0.21,1.05,103.0,0.35,0.03,0.37,0.05,-8.0,0.08,0.32,55.9,69.2,113.8,56.7,60.9,133.85,54.52,67.23,110.29
2566,-851968,90,-56,-1,-1,0,"(1206, 290)","(1203, 315)","(1202, 340)","(1205, 365)","(1211, 391)","(1221, 417)","(1233, 443)","(1250, 465)","(1274, 473)","(1301, 471)","(1324, 456)","(1345, 436)","(1363, 413)","(1376, 387)","(1383, 360)","(1389, 332)","(1393, 303)","(1217, 282)","(1226, 273)","(1241, 272)","(1257, 275)","(1271, 283)","(1305, 284)","(1323, 278)","(1342, 277)","(1360, 281)","(1372, 292)","(1285, 303)","(1281, 321)","(1278, 339)","(1274, 357)","(1259, 364)","(1267, 369)","(1276, 373)","(1287, 370)","(1298, 367)","(1235, 302)","(1244, 299)","(1255, 300)","(1265, 304)","(1254, 307)","(1243, 306)","(1315, 306)","(1326, 303)","(1338, 304)","(1348, 308)","(1337, 312)","(1326, 310)","(1247, 395)","(1255, 390)","(1266, 388)","(1276, 392)","(1286, 390)","(1301, 393)","(1314, 401)","(1301, 418)","(1286, 425)","(1275, 426)","(1264, 423)","(1254, 413)","(1253, 396)","(1266, 396)","(1276, 398)","(1286, 398)","(1308, 401)","(1286, 411)","(1276, 412)","(1266, 409)",0.22,1.09,103.0,0.33,0.06,0.35,0.05,-8.5,0.06,0.31,59.4,72.2,116.2,58.6,64.75,135.9,57.29,69.11,106.29
2600,4587520,90,-56,-1,-1,0,"(1192, 292)","(1187, 318)","(1186, 344)","(1188, 370)","(1195, 397)","(1206, 423)","(1219, 449)","(1236, 473)","(1261, 482)","(1288, 479)","(1312, 464)","(1334, 444)","(1353, 420)","(1367, 394)","(1374, 366)","(1380, 337)","(1382, 308)","(1204, 284)","(1213, 274)","(1228, 272)","(1243, 276)","(1259, 284)","(1293, 285)","(1312, 278)","(1332, 277)","(1351, 282)","(1363, 295)","(1273, 306)","(1269, 324)","(1265, 342)","(1261, 361)","(1245, 369)","(1254, 374)","(1264, 378)","(1275, 375)","(1286, 372)","(1221, 304)","(1231, 301)","(1243, 302)","(1253, 307)","(1241, 309)","(1230, 308)","(1303, 309)","(1316, 305)","(1328, 307)","(1338, 311)","(1327, 315)","(1315, 313)","(1234, 401)","(1242, 396)","(1254, 394)","(1263, 398)","(1274, 396)","(1289, 399)","(1304, 407)","(1290, 425)","(1275, 432)","(1263, 433)","(1252, 430)","(1242, 421)","(1240, 402)","(1254, 403)","(1263, 405)","(1274, 404)","(1297, 407)","(1275, 418)","(1264, 419)","(1254, 416)",0.22,1.1,103.0,0.35,0.07,0.36,0.05,-9.0,0.06,0.31,65.3,78.2,122.8,63.75,69.05,139.75,57.0,68.52,104.11
2633,-589824,90,-56,-1,-1,0,"(1180, 301)","(1177, 327)","(1177, 354)","(1179, 381)","(1184, 408)","(1194, 435)","(1206, 462)","(1223, 485)","(1248, 494)","(1276, 492)","(1301, 477)","(1323, 456)","(1343, 433)","(1357, 406)","(1365, 377)","(1372, 347)","(1377, 317)","(1190, 291)","(1199, 279)","(1214, 277)","(1230, 280)","(1246, 288)","(1282, 289)","(1302, 282)","(1322, 282)","(1342, 287)","(1355, 301)","(1260, 309)","(1257, 329)","(1252, 348)","(1248, 368)","(1233, 376)","(1241, 381)","(1250, 386)","(1262, 382)","(1274, 379)","(1208, 310)","(1218, 306)","(1230, 307)","(1240, 312)","(1228, 315)","(1217, 314)","(1292, 314)","(1305, 311)","(1317, 312)","(1328, 316)","(1316, 320)","(1304, 319)","(1220, 410)","(1229, 404)","(1241, 402)","(1251, 406)","(1262, 404)","(1278, 408)","(1292, 416)","(1278, 434)","(1261, 442)","(1249, 442)","(1238, 440)","(1227, 430)","(1226, 411)","(1240, 411)","(1250, 413)","(1262, 412)","(1286, 416)","(1262, 427)","(1250, 427)","(1239, 424)",0.22,1.07,103.0,0.34,0.05,0.36,0.05,-9.0,0.07,0.31,63.8,76.7,120.4,65.2,70.95,141.2,56.35,68.82,107.35
2666,-393216,90,-56,-1,-1,0,"(1154, 299)","(1151, 328)","(1150, 357)","(1153, 386)","(1160, 415)","(1171, 444)","(1185, 473)","(1203, 498)","(1230, 509)","(1259, 507)","(1287, 491)","(1312, 469)","(1334, 444)","(1350, 416)","(1359, 385)","(1367, 352)","(1373, 318)","(1170, 289)","(1182, 280)","(1199, 281)","(1216, 285)","(1232, 294)","(1269, 295)","(1290, 288)","(1311, 287)","(1332, 292)","(1346, 305)","(1247, 317)","(1242, 336)","(1238, 356)","(1233, 377)","(1217, 384)","(1225, 390)","(1235, 394)","(1248, 391)","(1259, 388)","(1191, 314)","(1202, 312)","(1215, 313)","(1225, 318)","(1213, 321)","(1200, 320)","(1280, 321)","(1292, 318)","(1305, 319)","(1317, 324)","(1305, 328)","(1291, 326)","(1205, 419)","(1214, 414)","(1226, 412)","(1235, 416)","(1246, 415)","(1262, 419)","(1278, 427)","(1262, 445)","(1245, 452)","(1233, 452)","(1222, 449)","(1212, 439)","(1211, 421)","(1225, 421)","(1235, 423)","(1246, 423)","(1270, 427)","(1246, 437)","(1235, 437)","(1224, 434)",0.22,1.12,103.0,0.32,0.1,0.33,0.05,-9.5,0.05,0.31,69.9,83.4,126.3,64.95,71.2,141.05,72.47,83.94,115.17
2700,-262144,90,-56,-1,-1,0,"(1141, 315)","(1139, 344)","(1140, 373)","(1142, 403)","(1149, 432)","(1160, 461)","(1174, 489)","(1192, 514)","(1218, 524)","(1248, 521)","(1276, 505)","(1301, 482)","(1323, 457)","(1341, 428)","(1351, 397)","(1360, 364)","(1366, 330)","(1156, 303)","(1166, 291)","(1183, 289)","(1200, 292)","(1216, 300)","(1256, 301)","(1278, 295)","(1300, 295)","(1321, 300)","(1336, 314)","(1232, 324)","(1228, 345)","(1223, 366)","(1219, 387)","(1202, 396)","(1211, 402)","(1221, 406)","(1233, 403)","(1246, 399)","(1176, 325)","(1186, 322)","(1199, 322)","(1210, 327)","(1197, 330)","(1185, 330)","(1267, 329)","(1280, 326)","(1293, 327)","(1305, 332)","(1292, 335)","(1279, 334)","(1189, 433)","(1199, 427)","(1211, 425)","(1222, 429)","(1233, 427)","(1250, 431)","(1265, 440)","(1249, 458)","(1231, 466)","(1219, 466)","(1207, 463)","(1197, 453)","(1195, 434)","(1210, 433)","(1221, 436)","(1233, 435)","(1258, 440)","(1232, 450)","(1220, 450)","(1209, 447)",0.21,1.07,103.0,0.32,0.05,0.33,0.05,-8.5,0.06,0.31,68.8,80.1,123.9,70.15,74.65,143.3,73.7,84.94,119.11
2733,262144,90,-56,-1,-1,0,"(1125, 321)","(1121, 352)","(1120, 383)","(1122, 414)","(1129, 446)","(1141, 477)","(1156, 506)","(1176, 530)","(1204, 541)","(1235, 538)","(1264, 522)","(1290, 498)","(1313, 471)","(1329, 440)","(1338, 408)","(1346, 373)","(1351, 338)","(1138, 310)","(1149, 298)","(1166, 297)","(1184, 301)","(1201, 311)","(1239, 312)","(1262, 305)","(1286, 305)","(1308, 311)","(1324, 326)","(1216, 336)","(1212, 357)","(1207, 378)","(1202, 401)","(1184, 410)","(1193, 416)","(1204, 421)","(1217, 418)","(1230, 414)","(1158, 334)","(1169, 332)","(1183, 332)","(1194, 338)","(1181, 341)","(1168, 340)","(1251, 341)","(1265, 338)","(1279, 340)","(1292, 345)","(1278, 349)","(1264, 347)","(1171, 448)","(1181, 441)","(1194, 439)","(1205, 443)","(1217, 441)","(1234, 446)","(1250, 456)","(1233, 474)","(1216, 482)","(1203, 483)","(1190, 479)","(1179, 468)","(1178, 449)","(1193, 449)","(1204, 451)","(1216, 451)","(1243, 455)","(1216, 466)","(1204, 466)","(1192, 463)",0.21,1.06,103.0,0.34,0.08,0.34,0.05,-10.0,0.06,0.31,71.6,84.2,129.3,72.5,77.65,146.65,77.35,88.05,120.58
2766,1703936,90,-56,-1,-1,0,"(1092, 327)","(1088, 360)","(1087, 395)","(1088, 429)","(1096, 464)","(1110, 497)","(1130, 528)","(1153, 554)","(1184, 565)","(1218, 563)","(1249, 544)","(1276, 519)","(1301, 490)","(1318, 457)","(1328, 423)","(1336, 387)","(1342, 350)","(1114, 315)","(1128, 306)","(1148, 308)","(1167, 314)","(1185, 325)","(1225, 326)","(1248, 318)","(1273, 316)","(1295, 322)","(1312, 336)","(1201, 351)","(1197, 372)","(1192, 394)","(1187, 416)","(1168, 426)","(1178, 432)","(1189, 437)","(1202, 434)","(1215, 430)","(1137, 347)","(1150, 346)","(1164, 346)","(1176, 351)","(1162, 355)","(1148, 354)","(1237, 355)","(1252, 352)","(1266, 354)","(1279, 359)","(1265, 363)","(1251, 361)","(1154, 465)","(1165, 459)","(1179, 457)","(1190, 461)","(1202, 459)","(1219, 464)","(1236, 473)","(1219, 493)","(1201, 501)","(1188, 501)","(1175, 498)","(1163, 487)","(1161, 467)","(1178, 467)","(1189, 469)","(1201, 469)","(1228, 473)","(1202, 484)","(1189, 485)","(1177, 481)",0.21,1.04,103.0,0.32,0.12,0.32,0.04,-10.0,0.05,0.3,78.8,91.4,135.2,74.85,79.65,147.15,78.7,88.88,120.05
2800,2097152,90,-56,-1,-1,0,"(1084, 351)","(1079, 384)","(1077, 417)","(1079, 451)","(1086, 485)","(1100, 518)","(1117, 549)","(1139, 576)","(1170, 587)","(1203, 585)","(1234, 567)","(1261, 543)","(1284, 513)","(1301, 480)","(1310, 446)","(1316, 409)","(1320, 373)","(1100, 337)","(1112, 326)","(1131, 325)","(1150, 329)","(1167, 340)","(1209, 342)","(1232, 334)","(1257, 333)","(1280, 340)","(1295, 355)","(1185, 367)","(1180, 390)","(1175, 413)","(1170, 436)","(1151, 446)","(1161, 453)","(1173, 458)","(1186, 455)","(1200, 451)","(1122, 365)","(1134, 363)","(1148, 363)","(1160, 368)","(1146, 372)","(1132, 371)","(1222, 373)","(1237, 370)","(1252, 372)","(1265, 377)","(1251, 381)","(1236, 379)","(1137, 487)","(1147, 480)","(1162, 479)","(1173, 483)","(1186, 481)","(1204, 486)","(1222, 496)","(1205, 516)","(1186, 525)","(1172, 525)","(1159, 522)","(1146, 510)","(1144, 488)","(1161, 489)","(1173, 491)","(1185, 491)","(1214, 496)","(1186, 508)","(1173, 508)","(1161, 505)",0.2,1.09,103.0,0.34,0.09,0.36,0.05,-10.0,0.06,0.31,76.4,87.9,131.8,81.55,84.25,152.85,77.76,87.52,119.47
2833,65536,90,-56,-1,-1,0,"(1075, 376)","(1070, 409)","(1069, 442)","(1071, 476)","(1077, 510)","(1089, 544)","(1104, 575)","(1125, 603)","(1156, 614)","(1191, 612)","(1223, 594)","(1250, 569)","(1274, 539)","(1292, 506)","(1301, 470)","(1309, 432)","(1313, 395)","(1085, 359)","(1096, 345)","(1114, 344)","(1133, 348)","(1151, 359)","(1194, 361)","(1218, 353)","(1243, 352)","(1268, 359)","(1284, 375)","(1168, 387)","(1164, 411)","(1158, 434)","(1153, 459)","(1134, 469)","(1144, 476)","(1156, 481)","(1171, 477)","(1185, 473)","(1106, 386)","(1118, 383)","(1132, 383)","(1144, 389)","(1130, 393)","(1116, 392)","(1208, 394)","(1223, 390)","(1239, 392)","(1252, 397)","(1237, 401)","(1222, 399)","(1120, 511)","(1131, 504)","(1145, 502)","(1157, 507)","(1171, 504)","(1190, 509)","(1209, 520)","(1191, 541)","(1170, 550)","(1156, 551)","(1142, 547)","(1129, 534)","(1127, 513)","(1144, 512)","(1157, 515)","(1170, 515)","(1201, 520)","(1171, 532)","(1157, 533)","(1144, 529)",0.2,1.1,103.0,0.34,0.07,0.37,0.05,-10.5,0.07,0.31,74.7,85.5,131.3,83.9,87.25,154.7,80.17,89.94,121.11
2866,-458752,90,-56,-1,-1,0,"(1056, 394)","(1051, 427)","(1049, 462)","(1051, 497)","(1057, 532)","(1070, 567)","(1087, 599)","(1110, 627)","(1143, 639)","(1178, 637)","(1211, 619)","(1239, 593)","(1263, 562)","(1281, 527)","(1290, 490)","(1297, 452)","(1301, 414)","(1067, 377)","(1079, 365)","(1098, 364)","(1118, 369)","(1136, 380)","(1181, 381)","(1205, 373)","(1231, 372)","(1255, 378)","(1272, 395)","(1155, 408)","(1150, 432)","(1145, 457)","(1140, 482)","(1120, 492)","(1131, 499)","(1143, 505)","(1158, 501)","(1172, 497)","(1090, 406)","(1102, 403)","(1117, 404)","(1129, 410)","(1115, 413)","(1101, 412)","(1195, 414)","(1211, 410)","(1227, 412)","(1240, 418)","(1226, 422)","(1210, 420)","(1106, 534)","(1117, 528)","(1132, 526)","(1144, 531)","(1158, 529)","(1178, 533)","(1197, 544)","(1178, 565)","(1158, 574)","(1143, 574)","(1130, 571)","(1116, 558)","(1113, 536)","(1132, 537)","(1144, 540)","(1158, 539)","(1189, 544)","(1158, 556)","(1144, 556)","(1131, 552)",0.22,1.1,103.0,0.34,0.09,0.37,0.05,-11.0,0.06,0.32,77.1,88.7,132.0,85.2,88.4,155.55,81.05,90.17,121.52
2900,-458752,90,-56,-1,-1,0,"(1032, 409)","(1029, 445)","(1028, 482)","(1031, 519)","(1040, 555)","(1057, 589)","(1076, 623)","(1098, 654)","(1131, 667)","(1167, 665)","(1200, 645)","(1230, 618)","(1256, 586)","(1275, 550)","(1285, 511)","(1293, 470)","(1299, 429)","(1051, 395)","(1064, 383)","(1084, 383)","(1104, 389)","(1123, 401)","(1167, 402)","(1192, 394)","(1219, 392)","(1245, 398)","(1264, 414)","(1141, 428)","(1136, 454)","(1131, 479)","(1125, 505)","(1107, 513)","(1117, 521)","(1129, 527)","(1144, 523)","(1159, 518)","(1076, 426)","(1089, 423)","(1104, 424)","(1116, 429)","(1101, 433)","(1087, 432)","(1182, 434)","(1198, 431)","(1214, 433)","(1229, 438)","(1213, 443)","(1197, 441)","(1095, 556)","(1105, 550)","(1119, 549)","(1132, 554)","(1146, 551)","(1166, 556)","(1185, 566)","(1167, 588)","(1146, 597)","(1131, 597)","(1117, 593)","(1104, 580)","(1103, 558)","(1119, 559)","(1132, 562)","(1145, 561)","(1176, 566)","(1146, 578)","(1132, 579)","(1119, 574)",0.21,1.13,103.0,0.32,0.1,0.33,0.05,-11.0,0.06,0.32,81.6,91.1,135.8,83.3,85.95,153.95,79.47,89.05,119.64
2933,-589824,90,-56,-1,-1,0,"(1026, 427)","(1024, 462)","(1025, 498)","(1028, 534)","(1037, 571)","(1052, 605)","(1070, 639)","(1091, 673)","(1123, 685)","(1161, 684)","(1194, 663)","(1225, 635)","(1252, 603)","(1271, 567)","(1281, 527)","(1289, 485)","(1296, 443)","(1040, 414)","(1052, 401)","(1072, 400)","(1092, 405)","(1111, 415)","(1158, 417)","(1185, 409)","(1213, 408)","(1239, 415)","(1259, 432)","(1131, 444)","(1126, 470)","(1121, 497)","(1115, 524)","(1097, 531)","(1107, 538)","(1120, 545)","(1135, 540)","(1151, 535)","(1067, 442)","(1079, 440)","(1094, 440)","(1107, 446)","(1092, 450)","(1078, 449)","(1175, 450)","(1190, 447)","(1206, 449)","(1220, 454)","(1205, 458)","(1189, 456)","(1086, 572)","(1096, 567)","(1110, 566)","(1123, 572)","(1138, 569)","(1159, 573)","(1179, 582)","(1160, 605)","(1138, 614)","(1122, 614)","(1108, 610)","(1095, 596)","(1094, 574)","(1110, 576)","(1123, 579)","(1138, 579)","(1170, 583)","(1138, 596)","(1123, 597)","(1109, 592)",0.2,1.16,103.0,0.31,0.08,0.34,0.05,-10.5,0.07,0.33,80.0,90.9,133.8,82.7,86.4,155.95,76.11,86.11,117.41
2966,-589824,90,-56,-1,-1,0,"(1025, 437)","(1022, 472)","(1022, 507)","(1025, 544)","(1033, 579)","(1049, 614)","(1066, 649)","(1086, 682)","(1118, 696)","(1155, 694)","(1190, 673)","(1220, 645)","(1248, 613)","(1268, 576)","(1278, 537)","(1286, 496)","(1292, 454)","(1036, 424)","(1047, 411)","(1067, 410)","(1088, 414)","(1107, 425)","(1154, 427)","(1181, 419)","(1209, 419)","(1236, 426)","(1255, 443)","(1126, 456)","(1121, 482)","(1116, 508)","(1111, 535)","(1093, 542)","(1103, 550)","(1115, 555)","(1131, 551)","(1147, 546)","(1062, 453)","(1074, 450)","(1089, 451)","(1101, 456)","(1086, 460)","(1072, 459)","(1171, 461)","(1186, 458)","(1202, 460)","(1217, 465)","(1201, 469)","(1185, 467)","(1082, 583)","(1092, 578)","(1106, 578)","(1119, 583)","(1134, 581)","(1155, 585)","(1174, 594)","(1154, 617)","(1132, 626)","(1117, 626)","(1102, 622)","(1090, 608)","(1089, 585)","(1105, 587)","(1119, 591)","(1133, 590)","(1166, 594)","(1133, 608)","(1118, 608)","(1104, 603)",0.19,1.14,103.0,0.31,0.08,0.34,0.05,-10.5,0.07,0.32,81.3,92.0,134.2,81.2,84.85,157.0,77.82,86.58,117.35
3000,-458752,90,-56,-1,-1,0,"(1004, 428)","(1002, 465)","(1003, 503)","(1008, 542)","(1021, 579)","(1042, 613)","(1063, 648)","(1085, 684)","(1116, 700)","(1152, 698)","(1186, 676)","(1219, 648)","(1249, 616)","(1270, 579)","(1281, 538)","(1289, 496)","(1296, 452)","(1030, 415)","(1046, 407)","(1067, 411)","(1087, 420)","(1106, 432)","(1152, 434)","(1179, 427)","(1206, 425)","(1232, 430)","(1253, 444)","(1125, 461)","(1120, 486)","(1115, 512)","(1110, 538)","(1092, 545)","(1101, 553)","(1114, 559)","(1129, 555)","(1144, 550)","(1058, 451)","(1072, 450)","(1088, 451)","(1100, 459)","(1085, 462)","(1070, 460)","(1168, 465)","(1184, 463)","(1201, 465)","(1216, 470)","(1200, 475)","(1183, 473)","(1083, 585)","(1093, 582)","(1107, 581)","(1118, 586)","(1131, 583)","(1151, 588)","(1170, 597)","(1152, 619)","(1132, 627)","(1118, 627)","(1104, 624)","(1092, 610)","(1091, 588)","(1106, 591)","(1118, 594)","(1131, 593)","(1162, 596)","(1132, 609)","(1119, 609)","(1106, 605)",0.2,1.16,103.0,0.31,0.15,0.29,0.04,-12.0,0.06,0.32,79.6,92.7,135.7,73.25,74.2,147.5,83.17,92.05,119.76
3033,-524288,90,-56,-1,-1,0,"(1027, 437)","(1025, 471)","(1025, 506)","(1027, 542)","(1036, 578)","(1051, 612)","(1068, 647)","(1088, 680)","(1120, 694)","(1157, 693)","(1191, 672)","(1222, 645)","(1250, 613)","(1270, 577)","(1280, 537)","(1288, 496)","(1295, 454)","(1039, 425)","(1050, 411)","(1070, 410)","(1091, 415)","(1110, 425)","(1156, 427)","(1184, 419)","(1212, 419)","(1238, 426)","(1257, 444)","(1129, 455)","(1124, 480)","(1119, 506)","(1114, 532)","(1096, 540)","(1106, 547)","(1118, 553)","(1134, 549)","(1149, 545)","(1065, 452)","(1078, 451)","(1092, 451)","(1105, 456)","(1090, 459)","(1076, 458)","(1174, 461)","(1189, 458)","(1205, 461)","(1220, 465)","(1204, 469)","(1188, 467)","(1086, 580)","(1096, 576)","(1109, 575)","(1122, 581)","(1136, 578)","(1157, 583)","(1177, 592)","(1157, 615)","(1135, 623)","(1119, 623)","(1105, 619)","(1093, 605)","(1093, 583)","(1108, 585)","(1121, 588)","(1136, 588)","(1168, 592)","(1135, 606)","(1121, 606)","(1107, 601)",0.18,1.18,103.0,0.32,0.08,0.33,0.05,-9.5,0.07,0.32,83.4,92.9,136.4,81.15,84.15,154.05,78.58,87.52,117.82
3066,-589824,90,-56,-1,-1,0,"(1029, 427)","(1026, 463)","(1026, 499)","(1029, 535)","(1038, 571)","(1054, 604)","(1073, 637)","(1095, 668)","(1128, 681)","(1165, 679)","(1198, 659)","(1228, 632)","(1255, 601)","(1273, 565)","(1283, 527)","(1292, 487)","(1299, 446)","(1044, 415)","(1057, 401)","(1078, 400)","(1099, 405)","(1119, 416)","(1164, 419)","(1191, 411)","(1219, 410)","(1245, 418)","(1264, 435)","(1138, 444)","(1133, 469)","(1128, 494)","(1122, 520)","(1104, 528)","(1114, 535)","(1126, 541)","(1141, 537)","(1156, 533)","(1071, 442)","(1084, 439)","(1100, 440)","(1112, 446)","(1097, 450)","(1083, 449)","(1180, 451)","(1196, 448)","(1212, 450)","(1227, 456)","(1211, 460)","(1195, 457)","(1093, 571)","(1103, 564)","(1116, 563)","(1129, 568)","(1144, 566)","(1164, 571)","(1183, 581)","(1165, 602)","(1144, 610)","(1128, 610)","(1114, 607)","(1101, 594)","(1100, 573)","(1116, 573)","(1129, 576)","(1144, 576)","(1175, 581)","(1144, 593)","(1129, 593)","(1116, 588)",0.2,1.15,103.0,0.32,0.08,0.33,0.04,-11.5,0.06,0.32,81.0,92.8,134.0,83.25,86.3,155.35,76.94,85.94,116.94
3100,-720896,90,-56,-1,-1,0,"(1054, 422)","(1049, 454)","(1048, 488)","(1049, 522)","(1055, 556)","(1069, 589)","(1086, 620)","(1107, 649)","(1139, 660)","(1175, 659)","(1207, 640)","(1236, 615)","(1261, 585)","(1278, 551)","(1287, 514)","(1294, 476)","(1299, 438)","(1062, 402)","(1073, 388)","(1092, 386)","(1112, 391)","(1130, 401)","(1175, 403)","(1200, 395)","(1227, 395)","(1252, 402)","(1270, 419)","(1149, 429)","(1145, 453)","(1140, 477)","(1135, 501)","(1116, 511)","(1126, 518)","(1138, 524)","(1153, 520)","(1168, 516)","(1085, 428)","(1097, 425)","(1111, 426)","(1124, 432)","(1109, 434)","(1095, 434)","(1191, 436)","(1207, 433)","(1222, 434)","(1236, 440)","(1221, 443)","(1206, 442)","(1102, 553)","(1113, 547)","(1128, 545)","(1141, 550)","(1155, 548)","(1175, 553)","(1195, 563)","(1175, 584)","(1154, 593)","(1139, 593)","(1125, 589)","(1111, 577)","(1109, 555)","(1127, 555)","(1140, 559)","(1154, 558)","(1186, 563)","(1154, 575)","(1140, 575)","(1127, 572)",0.2,1.1,103.0,0.34,0.07,0.37,0.05,-9.5,0.07,0.31,74.2,85.0,130.5,85.1,88.9,156.75,73.17,83.05,114.17
3133,-655360,90,-56,-1,-1,0,"(1058, 400)","(1053, 434)","(1052, 468)","(1054, 502)","(1062, 537)","(1076, 569)","(1096, 599)","(1120, 624)","(1153, 635)","(1188, 633)","(1220, 615)","(1247, 590)","(1270, 561)","(1285, 527)","(1293, 492)","(1298, 456)","(1302, 419)","(1074, 383)","(1086, 370)","(1106, 368)","(1127, 373)","(1146, 384)","(1189, 385)","(1213, 377)","(1238, 376)","(1262, 383)","(1278, 400)","(1165, 411)","(1160, 433)","(1156, 455)","(1152, 478)","(1132, 490)","(1142, 496)","(1154, 501)","(1168, 498)","(1182, 494)","(1098, 410)","(1111, 407)","(1125, 408)","(1138, 413)","(1124, 416)","(1110, 415)","(1203, 417)","(1218, 414)","(1233, 416)","(1247, 421)","(1232, 425)","(1217, 423)","(1117, 533)","(1129, 525)","(1144, 523)","(1156, 527)","(1169, 525)","(1188, 530)","(1206, 542)","(1189, 561)","(1170, 569)","(1155, 569)","(1142, 566)","(1128, 555)","(1124, 534)","(1143, 534)","(1156, 536)","(1169, 536)","(1198, 541)","(1169, 552)","(1156, 553)","(1143, 549)",0.2,1.05,104.0,0.34,0.09,0.36,0.04,-10.0,0.06,0.29,78.9,89.9,135.4,82.9,85.2,153.55,79.29,90.29,120.29
3166,-720896,90,-56,-1,-1,0,"(1080, 381)","(1075, 414)","(1074, 447)","(1075, 481)","(1081, 514)","(1095, 547)","(1112, 576)","(1135, 600)","(1167, 610)","(1201, 608)","(1232, 592)","(1259, 568)","(1282, 539)","(1298, 507)","(1307, 473)","(1313, 437)","(1317, 401)","(1093, 365)","(1104, 351)","(1123, 348)","(1144, 352)","(1162, 363)","(1204, 365)","(1228, 357)","(1253, 356)","(1278, 364)","(1293, 381)","(1180, 390)","(1175, 411)","(1171, 433)","(1166, 456)","(1147, 468)","(1157, 474)","(1168, 479)","(1183, 476)","(1197, 472)","(1116, 390)","(1128, 387)","(1142, 388)","(1154, 393)","(1140, 396)","(1126, 395)","(1218, 397)","(1233, 394)","(1248, 396)","(1261, 401)","(1247, 404)","(1232, 402)","(1131, 510)","(1143, 502)","(1158, 500)","(1170, 504)","(1183, 502)","(1202, 507)","(1220, 518)","(1202, 537)","(1183, 545)","(1168, 545)","(1155, 542)","(1141, 531)","(1138, 511)","(1157, 510)","(1170, 512)","(1183, 512)","(1212, 517)","(1183, 528)","(1169, 529)","(1157, 525)",0.18,1.04,104.0,0.34,0.07,0.37,0.05,-9.5,0.07,0.3,77.6,87.7,133.8,82.75,86.75,152.45,79.64,89.82,120.82
3200,-851968,90,-56,-1,-1,0,"(1104, 364)","(1100, 394)","(1098, 426)","(1099, 457)","(1104, 490)","(1115, 521)","(1131, 551)","(1153, 576)","(1183, 586)","(1217, 584)","(1248, 567)","(1274, 543)","(1297, 515)","(1313, 483)","(1321, 450)","(1328, 415)","(1332, 380)","(1113, 348)","(1123, 334)","(1141, 331)","(1161, 335)","(1179, 345)","(1220, 346)","(1244, 338)","(1269, 338)","(1292, 346)","(1307, 362)","(1196, 370)","(1192, 392)","(1187, 413)","(1182, 435)","(1164, 446)","(1173, 452)","(1185, 457)","(1199, 453)","(1213, 450)","(1134, 372)","(1146, 369)","(1159, 369)","(1172, 374)","(1158, 377)","(1145, 376)","(1234, 377)","(1249, 375)","(1263, 377)","(1276, 381)","(1262, 384)","(1247, 383)","(1148, 486)","(1159, 478)","(1174, 477)","(1186, 481)","(1199, 479)","(1218, 484)","(1235, 495)","(1217, 513)","(1198, 521)","(1184, 521)","(1171, 518)","(1157, 507)","(1156, 487)","(1173, 486)","(1185, 489)","(1199, 489)","(1228, 494)","(1198, 505)","(1185, 505)","(1172, 502)",0.18,1.05,104.0,0.35,0.06,0.38,0.05,-8.5,0.07,0.3,73.1,84.3,130.0,81.05,85.65,152.3,76.35,87.05,124.52
3233,-851968,90,-56,-1,-1,0,"(1118, 349)","(1115, 380)","(1115, 410)","(1118, 441)","(1124, 472)","(1136, 501)","(1152, 528)","(1172, 552)","(1200, 561)","(1232, 559)","(1261, 542)","(1287, 520)","(1310, 493)","(1326, 463)","(1335, 430)","(1342, 395)","(1347, 361)","(1129, 333)","(1139, 319)","(1157, 316)","(1177, 319)","(1194, 328)","(1236, 330)","(1259, 322)","(1283, 322)","(1305, 329)","(1319, 345)","(1211, 353)","(1208, 374)","(1203, 395)","(1199, 417)","(1181, 427)","(1190, 433)","(1201, 438)","(1215, 434)","(1228, 430)","(1151, 355)","(1162, 352)","(1175, 352)","(1188, 357)","(1174, 360)","(1161, 360)","(1248, 360)","(1262, 357)","(1276, 358)","(1289, 363)","(1275, 367)","(1261, 365)","(1167, 466)","(1178, 458)","(1191, 456)","(1203, 460)","(1215, 458)","(1234, 463)","(1250, 473)","(1233, 492)","(1214, 500)","(1201, 500)","(1188, 497)","(1176, 486)","(1174, 467)","(1191, 464)","(1203, 467)","(1215, 467)","(1243, 473)","(1214, 484)","(1201, 485)","(1189, 481)",0.2,1.07,104.0,0.34,0.05,0.36,0.05,-9.0,0.07,0.3,72.1,84.0,128.7,76.55,81.2,150.1,78.76,88.64,123.88
3266,-851968,90,-56,-1,-1,0,"(1127, 324)","(1124, 355)","(1123, 387)","(1124, 419)","(1131, 451)","(1144, 481)","(1161, 509)","(1184, 532)","(1213, 541)","(1245, 539)","(1274, 522)","(1300, 499)","(1321, 472)","(1336, 441)","(1344, 409)","(1351, 376)","(1356, 342)","(1143, 314)","(1155, 303)","(1174, 302)","(1193, 307)","(1211, 317)","(1249, 318)","(1271, 311)","(1295, 310)","(1317, 315)","(1332, 330)","(1227, 340)","(1223, 360)","(1219, 381)","(1215, 402)","(1196, 411)","(1206, 417)","(1217, 421)","(1230, 418)","(1243, 415)","(1165, 339)","(1177, 337)","(1191, 337)","(1203, 342)","(1189, 346)","(1176, 345)","(1261, 345)","(1276, 343)","(1289, 344)","(1302, 348)","(1288, 352)","(1274, 351)","(1183, 449)","(1193, 442)","(1206, 440)","(1218, 444)","(1230, 442)","(1246, 446)","(1262, 455)","(1246, 473)","(1229, 481)","(1216, 481)","(1204, 478)","(1192, 468)","(1190, 450)","(1206, 449)","(1217, 451)","(1229, 450)","(1255, 455)","(1229, 466)","(1217, 466)","(1205, 463)",0.19,1.03,104.0,0.34,0.09,0.34,0.05,-9.0,0.06,0.3,73.5,85.7,129.6,71.45,76.8,145.25,76.0,85.41,117.35
3300,9043968,90,-56,-1,-1,0,"(1160, 325)","(1157, 352)","(1157, 380)","(1159, 407)","(1166, 435)","(1176, 463)","(1190, 489)","(1208, 512)","(1235, 521)","(1264, 518)","(1290, 503)","(1313, 481)","(1333, 456)","(1347, 428)","(1354, 398)","(1360, 367)","(1363, 336)","(1167, 310)","(1176, 299)","(1192, 296)","(1208, 299)","(1225, 307)","(1263, 308)","(1283, 301)","(1305, 300)","(1325, 305)","(1339, 319)","(1241, 330)","(1237, 350)","(1234, 370)","(1230, 390)","(1213, 399)","(1222, 404)","(1233, 409)","(1245, 405)","(1257, 402)","(1186, 331)","(1196, 328)","(1208, 328)","(1219, 333)","(1207, 335)","(1195, 335)","(1275, 335)","(1288, 331)","(1301, 333)","(1313, 337)","(1300, 340)","(1287, 339)","(1201, 434)","(1210, 427)","(1223, 425)","(1234, 429)","(1246, 427)","(1263, 431)","(1279, 440)","(1264, 459)","(1246, 468)","(1233, 469)","(1221, 466)","(1209, 455)","(1207, 435)","(1223, 433)","(1234, 436)","(1246, 435)","(1273, 440)","(1246, 453)","(1234, 454)","(1222, 451)",0.19,1.09,104.0,0.34,0.04,0.38,0.06,-8.0,0.07,0.31,66.6,78.4,123.2,71.8,77.45,144.6,65.47,77.29,118.58
3333,-524288,90,-56,-1,-1,0,"(1173, 315)","(1172, 342)","(1173, 370)","(1176, 397)","(1183, 424)","(1193, 451)","(1207, 476)","(1224, 499)","(1249, 508)","(1278, 505)","(1302, 489)","(1325, 467)","(1344, 443)","(1357, 416)","(1365, 387)","(1371, 356)","(1376, 325)","(1182, 305)","(1191, 293)","(1207, 290)","(1223, 292)","(1239, 299)","(1276, 300)","(1296, 294)","(1317, 293)","(1337, 298)","(1351, 312)","(1255, 321)","(1252, 341)","(1248, 360)","(1244, 381)","(1229, 389)","(1237, 393)","(1247, 398)","(1260, 394)","(1271, 390)","(1202, 324)","(1211, 320)","(1223, 320)","(1234, 325)","(1222, 327)","(1211, 327)","(1288, 327)","(1300, 323)","(1313, 324)","(1324, 328)","(1312, 331)","(1300, 330)","(1217, 423)","(1226, 416)","(1239, 414)","(1249, 417)","(1260, 415)","(1277, 419)","(1292, 428)","(1277, 447)","(1261, 456)","(1248, 457)","(1236, 454)","(1225, 443)","(1223, 424)","(1238, 422)","(1249, 424)","(1260, 423)","(1286, 428)","(1260, 441)","(1249, 442)","(1238, 439)",0.19,1.08,104.0,0.33,0.02,0.36,0.06,-7.5,0.07,0.32,65.8,77.0,121.6,69.6,74.8,142.75,61.11,73.47,112.52
3366,-524288,90,-56,-1,-1,0,"(1185, 305)","(1182, 331)","(1182, 358)","(1185, 384)","(1192, 411)","(1204, 437)","(1218, 464)","(1236, 486)","(1261, 495)","(1289, 492)","(1313, 476)","(1334, 455)","(1352, 431)","(1366, 404)","(1373, 375)","(1378, 346)","(1381, 317)","(1197, 296)","(1207, 286)","(1222, 284)","(1238, 287)","(1254, 295)","(1289, 296)","(1308, 289)","(1328, 288)","(1347, 292)","(1360, 305)","(1269, 316)","(1266, 335)","(1262, 353)","(1259, 373)","(1243, 380)","(1251, 385)","(1261, 389)","(1273, 386)","(1284, 383)","(1216, 316)","(1226, 313)","(1238, 314)","(1248, 318)","(1237, 320)","(1226, 320)","(1300, 320)","(1312, 317)","(1324, 317)","(1335, 321)","(1323, 325)","(1311, 324)","(1231, 412)","(1240, 405)","(1252, 404)","(1262, 407)","(1273, 405)","(1289, 409)","(1304, 417)","(1290, 437)","(1274, 446)","(1262, 446)","(1250, 444)","(1239, 433)","(1236, 413)","(1252, 411)","(1262, 414)","(1273, 413)","(1297, 418)","(1273, 431)","(1262, 432)","(1252, 429)",0.21,1.09,104.0,0.34,0.05,0.37,0.06,-7.5,0.07,0.31,62.8,75.2,118.5,65.3,71.85,139.65,57.7,69.35,107.17
3400,-131072,90,-56,-1,-1,0,"(1190, 298)","(1188, 324)","(1188, 351)","(1191, 377)","(1200, 403)","(1213, 429)","(1228, 454)","(1247, 477)","(1272, 485)","(1299, 482)","(1321, 467)","(1342, 446)","(1359, 423)","(1372, 396)","(1379, 369)","(1384, 340)","(1387, 312)","(1207, 289)","(1218, 280)","(1235, 280)","(1251, 283)","(1267, 291)","(1300, 293)","(1318, 287)","(1337, 285)","(1356, 289)","(1368, 301)","(1281, 312)","(1278, 330)","(1275, 348)","(1272, 367)","(1255, 373)","(1264, 378)","(1274, 383)","(1285, 380)","(1296, 376)","(1228, 310)","(1238, 308)","(1250, 308)","(1259, 313)","(1248, 315)","(1237, 314)","(1310, 315)","(1322, 312)","(1334, 313)","(1344, 317)","(1333, 320)","(1322, 319)","(1243, 404)","(1252, 399)","(1264, 397)","(1274, 401)","(1285, 399)","(1300, 402)","(1314, 410)","(1301, 429)","(1286, 437)","(1274, 438)","(1263, 435)","(1252, 424)","(1249, 405)","(1264, 405)","(1274, 407)","(1285, 407)","(1308, 410)","(1286, 423)","(1275, 423)","(1264, 420)",0.2,1.06,104.0,0.33,0.07,0.36,0.06,-7.5,0.07,0.31,64.6,76.5,121.3,60.6,66.5,136.25,59.47,71.17,104.35
3433,655360,90,-56,-1,-1,0,"(1212, 301)","(1213, 327)","(1216, 352)","(1219, 377)","(1225, 402)","(1235, 426)","(1248, 449)","(1264, 469)","(1287, 476)","(1312, 472)","(1334, 456)","(1354, 436)","(1371, 413)","(1383, 389)","(1389, 363)","(1395, 336)","(1399, 308)","(1221, 293)","(1230, 282)","(1246, 279)","(1262, 282)","(1277, 289)","(1310, 291)","(1328, 285)","(1347, 284)","(1365, 288)","(1377, 301)","(1291, 308)","(1288, 326)","(1286, 345)","(1283, 364)","(1267, 369)","(1275, 374)","(1284, 378)","(1295, 375)","(1306, 371)","(1241, 310)","(1250, 306)","(1261, 307)","(1271, 311)","(1260, 313)","(1249, 313)","(1320, 313)","(1331, 309)","(1343, 310)","(1353, 315)","(1342, 318)","(1331, 317)","(1255, 399)","(1264, 394)","(1276, 393)","(1285, 396)","(1296, 394)","(1310, 397)","(1323, 403)","(1310, 421)","(1295, 429)","(1284, 430)","(1273, 427)","(1262, 417)","(1260, 400)","(1275, 399)","(1285, 401)","(1296, 401)","(1317, 404)","(1295, 416)","(1284, 417)","(1274, 414)",0.24,1.02,104.0,0.33,0.03,0.36,0.06,-8.0,0.08,0.33,60.1,73.6,118.4,55.8,59.05,131.6,57.76,70.58,111.52
3466,2097152,90,-56,-1,-1,0,"(1227, 299)","(1226, 324)","(1227, 348)","(1229, 372)","(1234, 396)","(1243, 420)","(1256, 443)","(1272, 462)","(1294, 469)","(1318, 466)","(1339, 452)","(1357, 433)","(1372, 411)","(1383, 387)","(1389, 362)","(1394, 336)","(1397, 309)","(1233, 291)","(1242, 281)","(1257, 280)","(1272, 282)","(1286, 290)","(1319, 291)","(1336, 285)","(1354, 284)","(1371, 288)","(1382, 300)","(1300, 309)","(1298, 326)","(1295, 343)","(1292, 361)","(1276, 367)","(1284, 372)","(1294, 376)","(1304, 373)","(1315, 370)","(1250, 309)","(1259, 306)","(1270, 306)","(1280, 311)","(1269, 313)","(1258, 312)","(1328, 313)","(1339, 309)","(1350, 310)","(1360, 314)","(1350, 317)","(1338, 316)","(1263, 396)","(1272, 391)","(1284, 389)","(1294, 393)","(1304, 391)","(1318, 394)","(1331, 401)","(1319, 419)","(1304, 427)","(1293, 428)","(1282, 425)","(1271, 415)","(1268, 397)","(1284, 396)","(1293, 398)","(1304, 398)","(1325, 401)","(1304, 414)","(1293, 415)","(1283, 412)",0.21,1.02,104.0,0.36,0.06,0.4,0.07,-7.5,0.08,0.32,57.9,70.9,116.7,56.45,61.8,130.95,53.41,67.29,107.17
3500,1703936,90,-56,-1,-1,0,"(1231, 294)","(1230, 319)","(1231, 343)","(1233, 367)","(1239, 391)","(1249, 415)","(1261, 439)","(1277, 459)","(1299, 467)","(1323, 464)","(1344, 448)","(1362, 428)","(1378, 406)","(1390, 382)","(1396, 357)","(1401, 331)","(1405, 304)","(1239, 292)","(1248, 283)","(1263, 281)","(1278, 285)","(1293, 292)","(1325, 294)","(1341, 288)","(1359, 286)","(1376, 290)","(1387, 300)","(1306, 311)","(1304, 327)","(1301, 344)","(1298, 362)","(1283, 366)","(1291, 371)","(1300, 376)","(1310, 373)","(1320, 369)","(1258, 308)","(1267, 306)","(1278, 307)","(1287, 311)","(1276, 314)","(1266, 313)","(1333, 313)","(1344, 310)","(1355, 311)","(1365, 314)","(1355, 318)","(1344, 317)","(1272, 393)","(1280, 389)","(1291, 389)","(1300, 392)","(1310, 390)","(1323, 393)","(1335, 399)","(1323, 417)","(1310, 424)","(1299, 425)","(1289, 422)","(1279, 413)","(1277, 395)","(1291, 395)","(1300, 397)","(1310, 397)","(1329, 399)","(1310, 412)","(1300, 412)","(1290, 410)",0.21,1.04,104.0,0.35,0.04,0.36,0.06,-8.0,0.08,0.32,56.7,70.7,116.8,48.8,52.8,124.6,54.52,67.23,106.64
3533,-131072,90,-56,-1,-1,0,"(1240, 302)","(1238, 325)","(1238, 348)","(1240, 372)","(1246, 395)","(1256, 417)","(1268, 439)","(1284, 458)","(1305, 465)","(1328, 462)","(1349, 448)","(1366, 429)","(1381, 408)","(1391, 384)","(1397, 360)","(1402, 336)","(1404, 310)","(1248, 296)","(1257, 287)","(1271, 286)","(1285, 289)","(1298, 296)","(1329, 297)","(1345, 291)","(1362, 290)","(1378, 293)","(1389, 304)","(1312, 314)","(1309, 330)","(1307, 347)","(1304, 365)","(1290, 369)","(1297, 374)","(1306, 378)","(1316, 375)","(1325, 371)","(1265, 312)","(1273, 310)","(1284, 310)","(1293, 314)","(1282, 316)","(1272, 316)","(1338, 316)","(1348, 313)","(1358, 314)","(1368, 317)","(1358, 320)","(1348, 319)","(1278, 395)","(1286, 391)","(1297, 390)","(1306, 393)","(1315, 391)","(1328, 393)","(1341, 399)","(1329, 416)","(1315, 424)","(1305, 424)","(1295, 422)","(1285, 413)","(1282, 396)","(1297, 396)","(1306, 398)","(1315, 397)","(1335, 400)","(1315, 411)","(1306, 412)","(1296, 410)",0.19,1.04,104.0,0.35,0.05,0.38,0.06,-6.5,0.07,0.33,54.0,67.4,113.9,51.45,57.95,128.4,49.41,64.23,104.05
3566,-589824,90,-56,-1,-1,0,"(1247, 306)","(1245, 328)","(1245, 351)","(1248, 373)","(1255, 395)","(1265, 417)","(1276, 439)","(1291, 458)","(1312, 465)","(1334, 462)","(1354, 447)","(1370, 429)","(1385, 409)","(1395, 386)","(1400, 363)","(1404, 339)","(1406, 315)","(1255, 300)","(1263, 291)","(1276, 290)","(1290, 293)","(1303, 300)","(1334, 301)","(1349, 295)","(1365, 294)","(1381, 297)","(1392, 307)","(1317, 317)","(1314, 334)","(1312, 350)","(1309, 367)","(1295, 371)","(1302, 376)","(1311, 380)","(1321, 377)","(1330, 373)","(1271, 316)","(1280, 313)","(1289, 314)","(1298, 318)","(1288, 320)","(1278, 320)","(1342, 320)","(1352, 316)","(1362, 317)","(1371, 321)","(1362, 324)","(1352, 323)","(1284, 396)","(1292, 392)","(1302, 392)","(1311, 395)","(1320, 393)","(1334, 395)","(1346, 400)","(1334, 418)","(1321, 425)","(1311, 426)","(1301, 423)","(1291, 414)","(1288, 397)","(1302, 398)","(1311, 400)","(1320, 399)","(1341, 401)","(1321, 413)","(1311, 414)","(1302, 411)",0.24,1.08,104.0,0.35,0.05,0.38,0.06,-7.5,0.08,0.33,52.1,66.5,113.3,54.1,60.25,128.9,49.0,61.35,101.47
3600,-589824,90,-56,-1,-1,0,"(1254, 309)","(1253, 331)","(1254, 353)","(1257, 375)","(1263, 397)","(1273, 419)","(1284, 440)","(1299, 458)","(1319, 464)","(1340, 460)","(1359, 446)","(1375, 428)","(1389, 407)","(1399, 385)","(1404, 363)","(1408, 340)","(1410, 317)","(1260, 303)","(1268, 296)","(1281, 295)","(1295, 297)","(1308, 305)","(1338, 306)","(1353, 300)","(1369, 298)","(1384, 301)","(1395, 310)","(1321, 322)","(1319, 338)","(1316, 354)","(1314, 370)","(1300, 374)","(1307, 379)","(1316, 383)","(1326, 380)","(1335, 376)","(1275, 320)","(1284, 317)","(1294, 317)","(1303, 322)","(1293, 324)","(1283, 323)","(1346, 323)","(1356, 319)","(1367, 320)","(1376, 324)","(1367, 327)","(1356, 326)","(1290, 398)","(1297, 395)","(1308, 394)","(1316, 397)","(1325, 395)","(1339, 397)","(1351, 402)","(1340, 418)","(1327, 426)","(1317, 427)","(1307, 425)","(1297, 416)","(1294, 399)","(1308, 400)","(1316, 402)","(1326, 401)","(1346, 402)","(1327, 415)","(1317, 416)","(1308, 413)",0.23,1.09,105.0,0.37,0.05,0.39,0.06,-7.5,0.08,0.33,53.3,67.0,114.8,52.25,58.15,124.9,48.11,60.64,100.76
