milliseconds, ECG, ECG HR, PPG, PPG HR, SpO2, PI
1523614792838,-1048576,92,-56,-1,-1,0
1523614792838,-655360,92,-56,-1,-1,0
1523614792838,-720896,92,-56,-1,-1,0
1523614792838,-1245184,92,-56,-1,-1,0
1523614792838,-1572864,92,-56,-1,-1,0
1523614792898,-1179648,92,-56,-1,-1,0
1523614792898,-786432,92,-56,-1,-1,0
1523614792898,-1245184,92,-56,-1,-1,0
1523614792898,-1638400,92,-56,-1,-1,0
1523614792898,-917504,92,-56,-1,-1,0
1523614792918,-262144,92,-56,-1,-1,0
1523614792918,-458752,92,-56,-1,-1,0
1523614792918,-786432,92,-56,-1,-1,0
1523614792918,-983040,92,-56,-1,-1,0
1523614792918,-983040,92,-56,-1,-1,0
1523614792958,-851968,92,-56,-1,-1,0
1523614792958,-1179648,92,-56,-1,-1,0
1523614792958,-1376256,92,-56,-1,-1,0
1523614792958,-1114112,92,-56,-1,-1,0
1523614792958,-1245184,92,-56,-1,-1,0
1523614792998,-1572864,92,-56,-1,-1,0
1523614792998,-1245184,92,-56,-1,-1,0
1523614792998,-1048576,92,-56,-1,-1,0
1523614792998,-1179648,92,-56,-1,-1,0
1523614792998,-1310720,92,-56,-1,-1,0
1523614793038,-1310720,92,-56,-1,-1,0
1523614793038,-1441792,92,-56,-1,-1,0
1523614793038,-1376256,92,-56,-1,-1,0
1523614793038,-1114112,92,-56,-1,-1,0
1523614793038,-1114112,92,-56,-1,-1,0
1523614793078,-851968,92,-56,-1,-1,0
1523614793078,-1179648,92,-56,-1,-1,0
1523614793078,-1572864,92,-56,-1,-1,0
1523614793078,0,92,-56,-1,-1,0
1523614793078,4980736,92,-56,-1,-1,0
1523614793118,8060928,92,-56,-1,-1,0
1523614793118,4521984,92,-56,-1,-1,0
1523614793118,-458752,92,-56,-1,-1,0
1523614793118,-1900544,92,-56,-1,-1,0
1523614793118,-1179648,92,-56,-1,-1,0
1523614793158,-720896,92,-56,-1,-1,0
1523614793158,-589824,92,-56,-1,-1,0
1523614793158,-655360,92,-56,-1,-1,0
1523614793158,-786432,92,-56,-1,-1,0
1523614793158,-655360,92,-56,-1,-1,0
1523614793198,-393216,92,-56,-1,-1,0
1523614793198,-131072,92,-56,-1,-1,0
1523614793198,-327680,92,-56,-1,-1,0
1523614793198,-327680,92,-56,-1,-1,0
1523614793198,-65536,92,-56,-1,-1,0
1523614793238,458752,92,-56,-1,-1,0
1523614793238,589824,92,-56,-1,-1,0
1523614793238,524288,92,-56,-1,-1,0
1523614793238,327680,92,-56,-1,-1,0
1523614793238,458752,92,-56,-1,-1,0
1523614793278,720896,92,-56,-1,-1,0
1523614793278,1179648,92,-56,-1,-1,0
1523614793278,1572864,92,-56,-1,-1,0
1523614793278,1835008,92,-56,-1,-1,0
1523614793278,2031616,92,-56,-1,-1,0
1523614793318,2228224,92,-56,-1,-1,0
1523614793318,2359296,92,-56,-1,-1,0
1523614793318,2359296,92,-56,-1,-1,0
1523614793318,2031616,92,-56,-1,-1,0
1523614793318,1507328,92,-56,-1,-1,0
1523614793358,917504,92,-56,-1,-1,0
1523614793358,393216,92,-56,-1,-1,0
1523614793358,-65536,92,-56,-1,-1,0
1523614793358,-458752,92,-56,-1,-1,0
1523614793358,-786432,92,-56,-1,-1,0
1523614793398,-983040,92,-56,-1,-1,0
1523614793398,-786432,92,-56,-1,-1,0
1523614793398,-917504,92,-56,-1,-1,0
1523614793398,-1114112,92,-56,-1,-1,0
1523614793398,-1310720,92,-56,-1,-1,0
1523614793438,-1245184,92,-56,-1,-1,0
1523614793438,-1245184,92,-56,-1,-1,0
1523614793438,-1245184,92,-56,-1,-1,0
1523614793438,-1179648,92,-56,-1,-1,0
1523614793438,-1048576,92,-56,-1,-1,0
1523614793478,-983040,92,-56,-1,-1,0
1523614793478,-786432,92,-56,-1,-1,0
1523614793478,-655360,92,-56,-1,-1,0
1523614793478,-524288,92,-56,-1,-1,0
1523614793478,-458752,92,-56,-1,-1,0
1523614793527,-393216,92,-56,-1,-1,0
1523614793527,-327680,92,-56,-1,-1,0
1523614793527,-458752,92,-56,-1,-1,0
1523614793527,-524288,92,-56,-1,-1,0
1523614793527,-458752,92,-56,-1,-1,0
1523614793558,-393216,92,-56,-1,-1,0
1523614793558,-327680,92,-56,-1,-1,0
1523614793558,-327680,92,-56,-1,-1,0
1523614793558,-458752,92,-56,-1,-1,0
1523614793558,-589824,92,-56,-1,-1,0
1523614793598,-524288,92,-56,-1,-1,0
1523614793598,-524288,92,-56,-1,-1,0
1523614793598,-524288,92,-56,-1,-1,0
1523614793598,-458752,92,-56,-1,-1,0
1523614793598,-393216,92,-56,-1,-1,0
1523614793638,-393216,92,-56,-1,-1,0
1523614793638,-458752,92,-56,-1,-1,0
1523614793638,-524288,92,-56,-1,-1,0
1523614793638,-589824,92,-56,-1,-1,0
1523614793638,-458752,92,-56,-1,-1,0
1523614793678,-262144,92,-56,-1,-1,0
1523614793678,-131072,92,-56,-1,-1,0
1523614793678,-131072,92,-56,-1,-1,0
1523614793678,-196608,92,-56,-1,-1,0
1523614793678,-262144,92,-56,-1,-1,0
1523614793718,-327680,92,-56,-1,-1,0
1523614793718,-262144,92,-56,-1,-1,0
1523614793718,-196608,92,-56,-1,-1,0
1523614793718,-65536,92,-56,-1,-1,0
1523614793718,-65536,92,-56,-1,-1,0
1523614793758,-262144,91,-56,-1,-1,0
1523614793758,-524288,91,-56,-1,-1,0
1523614793758,524288,91,-56,-1,-1,0
1523614793758,5046272,91,-56,-1,-1,0
1523614793758,9961472,91,-56,-1,-1,0
1523614793798,8454144,91,-56,-1,-1,0
1523614793798,2752512,91,-56,-1,-1,0
1523614793798,-589824,91,-56,-1,-1,0
1523614793798,-262144,91,-56,-1,-1,0
1523614793798,131072,91,-56,-1,-1,0
1523614793838,196608,91,-56,-1,-1,0
1523614793838,196608,91,-56,-1,-1,0
1523614793838,0,91,-56,-1,-1,0
1523614793838,-65536,91,-56,-1,-1,0
1523614793838,0,91,-56,-1,-1,0
1523614793878,196608,91,-56,-1,-1,0
1523614793878,262144,91,-56,-1,-1,0
1523614793878,327680,91,-56,-1,-1,0
1523614793878,327680,91,-56,-1,-1,0
1523614793878,262144,91,-56,-1,-1,0
1523614793918,327680,91,-56,-1,-1,0
1523614793918,589824,91,-56,-1,-1,0
1523614793918,851968,91,-56,-1,-1,0
1523614793918,917504,91,-56,-1,-1,0
1523614793918,983040,91,-56,-1,-1,0
1523614793958,1179648,91,-56,-1,-1,0
1523614793958,1507328,91,-56,-1,-1,0
1523614793958,1900544,91,-56,-1,-1,0
1523614793958,2293760,91,-56,-1,-1,0
1523614793958,2686976,91,-56,-1,-1,0
1523614793998,2883584,91,-56,-1,-1,0
1523614793998,3014656,91,-56,-1,-1,0
1523614793998,2686976,91,-56,-1,-1,0
1523614793998,2228224,91,-56,-1,-1,0
1523614793998,1966080,91,-56,-1,-1,0
1523614794038,1703936,91,-56,-1,-1,0
1523614794038,1048576,91,-56,-1,-1,0
1523614794038,327680,91,-56,-1,-1,0
1523614794038,262144,91,-56,-1,-1,0
1523614794038,524288,91,-56,-1,-1,0
1523614794078,524288,91,-56,-1,-1,0
1523614794078,65536,91,-56,-1,-1,0
1523614794078,-327680,91,-56,-1,-1,0
1523614794078,-393216,91,-56,-1,-1,0
1523614794078,-131072,91,-56,-1,-1,0
1523614794118,-65536,91,-56,-1,-1,0
1523614794118,-196608,91,-56,-1,-1,0
1523614794118,-262144,91,-56,-1,-1,0
1523614794118,-196608,91,-56,-1,-1,0
1523614794118,-458752,91,-56,-1,-1,0
1523614794167,-655360,91,-56,-1,-1,0
1523614794167,-393216,91,-56,-1,-1,0
1523614794167,-196608,91,-56,-1,-1,0
1523614794167,-262144,91,-56,-1,-1,0
1523614794167,-393216,91,-56,-1,-1,0
1523614794198,-393216,91,-56,-1,-1,0
1523614794198,-393216,91,-56,-1,-1,0
1523614794198,-65536,91,-56,-1,-1,0
1523614794198,131072,91,-56,-1,-1,0
1523614794198,-65536,91,-56,-1,-1,0
1523614794238,-589824,91,-56,-1,-1,0
1523614794238,-458752,91,-56,-1,-1,0
1523614794238,-131072,91,-56,-1,-1,0
1523614794238,-262144,91,-56,-1,-1,0
1523614794238,-524288,91,-56,-1,-1,0
1523614794278,-393216,91,-56,-1,-1,0
1523614794278,-393216,91,-56,-1,-1,0
1523614794278,-655360,91,-56,-1,-1,0
1523614794278,-786432,91,-56,-1,-1,0
1523614794278,-786432,91,-56,-1,-1,0
1523614794318,-786432,91,-56,-1,-1,0
1523614794318,-720896,91,-56,-1,-1,0
1523614794318,-720896,91,-56,-1,-1,0
1523614794318,-720896,91,-56,-1,-1,0
1523614794318,-720896,91,-56,-1,-1,0
1523614794358,-720896,91,-56,-1,-1,0
1523614794358,-786432,91,-56,-1,-1,0
1523614794358,-851968,91,-56,-1,-1,0
1523614794358,-851968,91,-56,-1,-1,0
1523614794358,-917504,91,-56,-1,-1,0
1523614794398,-983040,91,-56,-1,-1,0
1523614794398,-983040,91,-56,-1,-1,0
1523614794398,-851968,91,-56,-1,-1,0
1523614794398,-851968,91,-56,-1,-1,0
1523614794398,-786432,91,-56,-1,-1,0
1523614794438,-851968,91,-56,-1,-1,0
1523614794438,-786432,91,-56,-1,-1,0
1523614794438,-720896,91,-56,-1,-1,0
1523614794438,-786432,91,-56,-1,-1,0
1523614794438,-1114112,91,-56,-1,-1,0
1523614794478,-1114112,90,-56,-1,-1,0
1523614794478,1441792,90,-56,-1,-1,0
1523614794478,6881280,90,-56,-1,-1,0
1523614794478,10027008,90,-56,-1,-1,0
1523614794478,6291456,90,-56,-1,-1,0
1523614794518,917504,90,-56,-1,-1,0
1523614794518,-786432,90,-56,-1,-1,0
1523614794518,-589824,90,-56,-1,-1,0
1523614794518,-589824,90,-56,-1,-1,0
1523614794518,-786432,90,-56,-1,-1,0
1523614794558,-786432,90,-56,-1,-1,0
1523614794558,-720896,90,-56,-1,-1,0
1523614794558,-655360,90,-56,-1,-1,0
1523614794558,-655360,90,-56,-1,-1,0
1523614794558,-524288,90,-56,-1,-1,0
1523614794598,-524288,90,-56,-1,-1,0
1523614794598,-524288,90,-56,-1,-1,0
1523614794598,-524288,90,-56,-1,-1,0
1523614794598,-458752,90,-56,-1,-1,0
1523614794598,-327680,90,-56,-1,-1,0
1523614794638,-196608,90,-56,-1,-1,0
1523614794638,0,90,-56,-1,-1,0
1523614794638,196608,90,-56,-1,-1,0
1523614794638,393216,90,-56,-1,-1,0
1523614794638,589824,90,-56,-1,-1,0
1523614794678,917504,90,-56,-1,-1,0
1523614794678,1245184,90,-56,-1,-1,0
1523614794678,1507328,90,-56,-1,-1,0
1523614794678,1769472,90,-56,-1,-1,0
1523614794678,1966080,90,-56,-1,-1,0
1523614794718,1966080,90,-56,-1,-1,0
1523614794718,1900544,90,-56,-1,-1,0
1523614794718,1572864,90,-56,-1,-1,0
1523614794718,1048576,90,-56,-1,-1,0
1523614794718,458752,90,-56,-1,-1,0
1523614794758,65536,90,-56,-1,-1,0
1523614794758,-196608,90,-56,-1,-1,0
1523614794758,-393216,90,-56,-1,-1,0
1523614794758,-589824,90,-56,-1,-1,0
1523614794758,-720896,90,-56,-1,-1,0
1523614794807,-786432,90,-56,-1,-1,0
1523614794807,-851968,90,-56,-1,-1,0
1523614794807,-851968,90,-56,-1,-1,0
1523614794807,-851968,90,-56,-1,-1,0
1523614794807,-851968,90,-56,-1,-1,0
1523614794838,-786432,90,-56,-1,-1,0
1523614794838,-720896,90,-56,-1,-1,0
1523614794838,-720896,90,-56,-1,-1,0
1523614794838,-786432,90,-56,-1,-1,0
1523614794838,-786432,90,-56,-1,-1,0
1523614794878,-786432,90,-56,-1,-1,0
1523614794878,-786432,90,-56,-1,-1,0
1523614794878,-851968,90,-56,-1,-1,0
1523614794878,-786432,90,-56,-1,-1,0
1523614794878,-720896,90,-56,-1,-1,0
1523614794918,-720896,90,-56,-1,-1,0
1523614794918,-655360,90,-56,-1,-1,0
1523614794918,-655360,90,-56,-1,-1,0
1523614794918,-655360,90,-56,-1,-1,0
1523614794918,-720896,90,-56,-1,-1,0
1523614794958,-786432,90,-56,-1,-1,0
1523614794958,-851968,90,-56,-1,-1,0
1523614794958,-786432,90,-56,-1,-1,0
1523614794958,-786432,90,-56,-1,-1,0
1523614794958,-720896,90,-56,-1,-1,0
1523614794998,-655360,90,-56,-1,-1,0
1523614794998,-720896,90,-56,-1,-1,0
1523614794998,-720896,90,-56,-1,-1,0
1523614794998,-720896,90,-56,-1,-1,0
1523614794998,-655360,90,-56,-1,-1,0
1523614795038,-655360,90,-56,-1,-1,0
1523614795038,-720896,90,-56,-1,-1,0
1523614795038,-786432,90,-56,-1,-1,0
1523614795038,-851968,90,-56,-1,-1,0
1523614795038,-917504,90,-56,-1,-1,0
1523614795078,-917504,90,-56,-1,-1,0
1523614795078,-851968,90,-56,-1,-1,0
1523614795078,-720896,90,-56,-1,-1,0
1523614795078,-655360,90,-56,-1,-1,0
1523614795078,-655360,90,-56,-1,-1,0
1523614795118,-655360,90,-56,-1,-1,0
1523614795118,-720896,90,-56,-1,-1,0
1523614795118,-720896,90,-56,-1,-1,0
1523614795118,-720896,90,-56,-1,-1,0
1523614795118,-655360,90,-56,-1,-1,0
1523614795158,-589824,90,-56,-1,-1,0
1523614795158,-524288,90,-56,-1,-1,0
1523614795158,-720896,90,-56,-1,-1,0
1523614795158,-1114112,90,-56,-1,-1,0
1523614795158,-917504,90,-56,-1,-1,0
1523614795198,2031616,90,-56,-1,-1,0
1523614795198,7405568,90,-56,-1,-1,0
1523614795198,9437184,90,-56,-1,-1,0
1523614795198,5242880,90,-56,-1,-1,0
1523614795198,327680,90,-56,-1,-1,0
1523614795238,-655360,90,-56,-1,-1,0
1523614795238,-458752,90,-56,-1,-1,0
1523614795238,-393216,90,-56,-1,-1,0
1523614795238,-458752,90,-56,-1,-1,0
1523614795238,-393216,90,-56,-1,-1,0
1523614795278,-327680,90,-56,-1,-1,0
1523614795278,-262144,90,-56,-1,-1,0
1523614795278,-262144,90,-56,-1,-1,0
1523614795278,-262144,90,-56,-1,-1,0
1523614795278,-196608,90,-56,-1,-1,0
1523614795318,-65536,90,-56,-1,-1,0
1523614795318,0,90,-56,-1,-1,0
1523614795318,0,90,-56,-1,-1,0
1523614795318,131072,90,-56,-1,-1,0
1523614795318,327680,90,-56,-1,-1,0
1523614795358,524288,90,-56,-1,-1,0
1523614795358,720896,90,-56,-1,-1,0
1523614795358,851968,90,-56,-1,-1,0
1523614795358,983040,90,-56,-1,-1,0
1523614795358,983040,90,-56,-1,-1,0
1523614795398,1114112,90,-56,-1,-1,0
1523614795398,1376256,90,-56,-1,-1,0
1523614795398,1703936,90,-56,-1,-1,0
1523614795398,1966080,90,-56,-1,-1,0
1523614795398,1900544,90,-56,-1,-1,0
1523614795447,1703936,90,-56,-1,-1,0
1523614795447,1245184,90,-56,-1,-1,0
1523614795447,786432,90,-56,-1,-1,0
1523614795447,327680,90,-56,-1,-1,0
1523614795447,0,90,-56,-1,-1,0
1523614795478,-393216,90,-56,-1,-1,0
1523614795478,-655360,90,-56,-1,-1,0
1523614795478,-786432,90,-56,-1,-1,0
1523614795478,-786432,90,-56,-1,-1,0
1523614795478,-851968,90,-56,-1,-1,0
1523614795518,-851968,90,-56,-1,-1,0
1523614795518,-917504,90,-56,-1,-1,0
1523614795518,-983040,90,-56,-1,-1,0
1523614795518,-1048576,90,-56,-1,-1,0
1523614795518,-1048576,90,-56,-1,-1,0
1523614795558,-1048576,90,-56,-1,-1,0
1523614795558,-983040,90,-56,-1,-1,0
1523614795558,-983040,90,-56,-1,-1,0
1523614795558,-917504,90,-56,-1,-1,0
1523614795558,-917504,90,-56,-1,-1,0
1523614795598,-917504,90,-56,-1,-1,0
1523614795598,-851968,90,-56,-1,-1,0
1523614795598,-851968,90,-56,-1,-1,0
1523614795598,-786432,90,-56,-1,-1,0
1523614795598,-720896,90,-56,-1,-1,0
1523614795638,-720896,90,-56,-1,-1,0
1523614795638,-720896,90,-56,-1,-1,0
1523614795638,-720896,90,-56,-1,-1,0
1523614795638,-720896,90,-56,-1,-1,0
1523614795638,-851968,90,-56,-1,-1,0
1523614795678,-851968,90,-56,-1,-1,0
1523614795678,-851968,90,-56,-1,-1,0
1523614795678,-851968,90,-56,-1,-1,0
1523614795678,-851968,90,-56,-1,-1,0
1523614795678,-851968,90,-56,-1,-1,0
1523614795718,-851968,90,-56,-1,-1,0
1523614795718,-851968,90,-56,-1,-1,0
1523614795718,-851968,90,-56,-1,-1,0
1523614795718,-786432,90,-56,-1,-1,0
1523614795718,-786432,90,-56,-1,-1,0
1523614795758,-786432,90,-56,-1,-1,0
1523614795758,-786432,90,-56,-1,-1,0
1523614795758,-786432,90,-56,-1,-1,0
1523614795758,-786432,90,-56,-1,-1,0
1523614795758,-851968,90,-56,-1,-1,0
1523614795798,-851968,90,-56,-1,-1,0
1523614795798,-786432,90,-56,-1,-1,0
1523614795798,-851968,90,-56,-1,-1,0
1523614795798,-851968,90,-56,-1,-1,0
1523614795798,-917504,90,-56,-1,-1,0
1523614795838,-917504,90,-56,-1,-1,0
1523614795838,-917504,90,-56,-1,-1,0
1523614795838,-917504,90,-56,-1,-1,0
1523614795838,-851968,90,-56,-1,-1,0
1523614795838,-786432,90,-56,-1,-1,0
1523614795878,-786432,90,-56,-1,-1,0
1523614795878,-851968,90,-56,-1,-1,0
1523614795878,-917504,90,-56,-1,-1,0
1523614795878,-917504,90,-56,-1,-1,0
1523614795878,-851968,90,-56,-1,-1,0
1523614795918,-851968,90,-56,-1,-1,0
1523614795918,-851968,90,-56,-1,-1,0
1523614795918,-1114112,90,-56,-1,-1,0
1523614795918,-1310720,90,-56,-1,-1,0
1523614795918,0,90,-56,-1,-1,0
1523614795958,4587520,90,-56,-1,-1,0
1523614795958,9371648,90,-56,-1,-1,0
1523614795958,8060928,90,-56,-1,-1,0
1523614795958,2686976,90,-56,-1,-1,0
1523614795958,-655360,90,-56,-1,-1,0
1523614796001,-589824,90,-56,-1,-1,0
1523614796001,-393216,90,-56,-1,-1,0
1523614796001,-458752,90,-56,-1,-1,0
1523614796001,-458752,90,-56,-1,-1,0
1523614796001,-458752,90,-56,-1,-1,0
1523614796038,-393216,90,-56,-1,-1,0
1523614796038,-393216,90,-56,-1,-1,0
1523614796038,-327680,90,-56,-1,-1,0
1523614796038,-262144,90,-56,-1,-1,0
1523614796038,-262144,90,-56,-1,-1,0
1523614796087,-262144,90,-56,-1,-1,0
1523614796087,-196608,90,-56,-1,-1,0
1523614796087,-65536,90,-56,-1,-1,0
1523614796087,0,90,-56,-1,-1,0
1523614796087,131072,90,-56,-1,-1,0
1523614796118,262144,90,-56,-1,-1,0
1523614796118,524288,90,-56,-1,-1,0
1523614796118,720896,90,-56,-1,-1,0
1523614796118,983040,90,-56,-1,-1,0
1523614796118,1310720,90,-56,-1,-1,0
1523614796158,1703936,90,-56,-1,-1,0
1523614796158,2031616,90,-56,-1,-1,0
1523614796158,2228224,90,-56,-1,-1,0
1523614796158,2293760,90,-56,-1,-1,0
1523614796158,2293760,90,-56,-1,-1,0
1523614796198,2097152,90,-56,-1,-1,0
1523614796198,1703936,90,-56,-1,-1,0
1523614796198,1179648,90,-56,-1,-1,0
1523614796198,720896,90,-56,-1,-1,0
1523614796198,327680,90,-56,-1,-1,0
1523614796238,65536,90,-56,-1,-1,0
1523614796238,-65536,90,-56,-1,-1,0
1523614796238,-196608,90,-56,-1,-1,0
1523614796238,-327680,90,-56,-1,-1,0
1523614796238,-393216,90,-56,-1,-1,0
1523614796278,-458752,90,-56,-1,-1,0
1523614796278,-458752,90,-56,-1,-1,0
1523614796278,-458752,90,-56,-1,-1,0
1523614796278,-393216,90,-56,-1,-1,0
1523614796278,-393216,90,-56,-1,-1,0
1523614796318,-458752,90,-56,-1,-1,0
1523614796318,-524288,90,-56,-1,-1,0
1523614796318,-524288,90,-56,-1,-1,0
1523614796318,-524288,90,-56,-1,-1,0
1523614796318,-524288,90,-56,-1,-1,0
1523614796358,-589824,90,-56,-1,-1,0
1523614796358,-589824,90,-56,-1,-1,0
1523614796358,-524288,90,-56,-1,-1,0
1523614796358,-458752,90,-56,-1,-1,0
1523614796358,-524288,90,-56,-1,-1,0
1523614796398,-589824,90,-56,-1,-1,0
1523614796398,-655360,90,-56,-1,-1,0
1523614796398,-655360,90,-56,-1,-1,0
1523614796398,-589824,90,-56,-1,-1,0
1523614796398,-458752,90,-56,-1,-1,0
1523614796438,-458752,90,-56,-1,-1,0
1523614796438,-524288,90,-56,-1,-1,0
1523614796438,-524288,90,-56,-1,-1,0
1523614796438,-458752,90,-56,-1,-1,0
1523614796438,-458752,90,-56,-1,-1,0
1523614796478,-524288,90,-56,-1,-1,0
1523614796478,-589824,90,-56,-1,-1,0
1523614796478,-589824,90,-56,-1,-1,0
1523614796478,-589824,90,-56,-1,-1,0
1523614796478,-589824,90,-56,-1,-1,0
1523614796518,-589824,90,-56,-1,-1,0
1523614796518,-589824,90,-56,-1,-1,0
1523614796518,-589824,90,-56,-1,-1,0
1523614796518,-589824,90,-56,-1,-1,0
1523614796518,-655360,90,-56,-1,-1,0
1523614796558,-720896,90,-56,-1,-1,0
1523614796558,-720896,90,-56,-1,-1,0
1523614796558,-655360,90,-56,-1,-1,0
1523614796558,-655360,90,-56,-1,-1,0
1523614796558,-655360,90,-56,-1,-1,0
1523614796600,-655360,90,-56,-1,-1,0
1523614796600,-655360,90,-56,-1,-1,0
1523614796600,-655360,90,-56,-1,-1,0
1523614796600,-720896,90,-56,-1,-1,0
1523614796600,-720896,90,-56,-1,-1,0
1523614796638,-720896,90,-56,-1,-1,0
1523614796638,-720896,90,-56,-1,-1,0
1523614796638,-786432,90,-56,-1,-1,0
1523614796638,-851968,90,-56,-1,-1,0
1523614796638,-851968,90,-56,-1,-1,0
1523614796678,-851968,90,-56,-1,-1,0
1523614796678,-851968,90,-56,-1,-1,0
1523614796678,-851968,90,-56,-1,-1,0
1523614796678,-786432,90,-56,-1,-1,0
1523614796678,-851968,90,-56,-1,-1,0
1523614796727,-851968,90,-56,-1,-1,0
1523614796727,-851968,90,-56,-1,-1,0
1523614796727,-786432,90,-56,-1,-1,0
1523614796727,-786432,90,-56,-1,-1,0
1523614796727,-851968,90,-56,-1,-1,0
1523614796758,-851968,90,-56,-1,-1,0
1523614796758,-1048576,90,-56,-1,-1,0
1523614796758,-1114112,90,-56,-1,-1,0
1523614796758,655360,90,-56,-1,-1,0
1523614796758,5505024,90,-56,-1,-1,0
1523614796798,9043968,90,-56,-1,-1,0
1523614796798,6094848,90,-56,-1,-1,0
1523614796798,851968,90,-56,-1,-1,0
1523614796798,-1114112,90,-56,-1,-1,0
1523614796798,-720896,90,-56,-1,-1,0
1523614796838,-524288,90,-56,-1,-1,0
1523614796838,-589824,90,-56,-1,-1,0
1523614796838,-524288,90,-56,-1,-1,0
1523614796838,-589824,90,-56,-1,-1,0
1523614796838,-524288,90,-56,-1,-1,0
1523614796878,-524288,90,-56,-1,-1,0
1523614796878,-393216,90,-56,-1,-1,0
1523614796878,-393216,90,-56,-1,-1,0
1523614796878,-262144,90,-56,-1,-1,0
1523614796878,-262144,90,-56,-1,-1,0
1523614796918,-131072,90,-56,-1,-1,0
1523614796918,-131072,90,-56,-1,-1,0
1523614796918,0,90,-56,-1,-1,0
1523614796918,65536,90,-56,-1,-1,0
1523614796918,393216,90,-56,-1,-1,0
1523614796958,655360,90,-56,-1,-1,0
1523614796958,917504,90,-56,-1,-1,0
1523614796958,1179648,90,-56,-1,-1,0
1523614796958,1507328,90,-56,-1,-1,0
1523614796958,1835008,90,-56,-1,-1,0
1523614796998,2097152,90,-56,-1,-1,0
1523614796998,2293760,90,-56,-1,-1,0
1523614796998,2359296,90,-56,-1,-1,0
1523614796998,2293760,90,-56,-1,-1,0
1523614796998,2097152,90,-56,-1,-1,0
1523614797038,1703936,90,-56,-1,-1,0
1523614797038,1179648,90,-56,-1,-1,0
1523614797038,720896,90,-56,-1,-1,0
1523614797038,262144,90,-56,-1,-1,0
1523614797038,65536,90,-56,-1,-1,0
1523614797078,-131072,90,-56,-1,-1,0
1523614797078,-327680,90,-56,-1,-1,0
1523614797078,-524288,90,-56,-1,-1,0
1523614797078,-524288,90,-56,-1,-1,0
1523614797078,-524288,90,-56,-1,-1,0
1523614797118,-589824,90,-56,-1,-1,0
1523614797118,-589824,90,-56,-1,-1,0
1523614797118,-589824,90,-56,-1,-1,0
1523614797118,-524288,90,-56,-1,-1,0
1523614797118,-524288,90,-56,-1,-1,0
1523614797158,-589824,90,-56,-1,-1,0
1523614797158,-655360,90,-56,-1,-1,0
1523614797158,-589824,90,-56,-1,-1,0
1523614797158,-524288,90,-56,-1,-1,0
1523614797158,-393216,90,-56,-1,-1,0
1523614797198,-327680,90,-56,-1,-1,0
1523614797198,-262144,90,-56,-1,-1,0
1523614797198,-262144,90,-56,-1,-1,0
1523614797198,-262144,90,-56,-1,-1,0
1523614797198,-262144,90,-56,-1,-1,0
1523614797238,-262144,90,-56,-1,-1,0
1523614797238,-262144,90,-56,-1,-1,0
1523614797238,-327680,90,-56,-1,-1,0
1523614797238,-393216,90,-56,-1,-1,0
1523614797238,-393216,90,-56,-1,-1,0
1523614797278,-458752,90,-56,-1,-1,0
1523614797278,-458752,90,-56,-1,-1,0
1523614797278,-458752,90,-56,-1,-1,0
1523614797278,-458752,90,-56,-1,-1,0
1523614797278,-458752,90,-56,-1,-1,0
1523614797318,-458752,90,-56,-1,-1,0
1523614797318,-524288,90,-56,-1,-1,0
1523614797318,-524288,90,-56,-1,-1,0
1523614797318,-524288,90,-56,-1,-1,0
1523614797318,-589824,90,-56,-1,-1,0
1523614797367,-524288,90,-56,-1,-1,0
1523614797367,-524288,90,-56,-1,-1,0
1523614797367,-524288,90,-56,-1,-1,0
1523614797367,-589824,90,-56,-1,-1,0
1523614797367,-589824,90,-56,-1,-1,0
1523614797398,-524288,90,-56,-1,-1,0
1523614797398,-524288,90,-56,-1,-1,0
1523614797398,-524288,90,-56,-1,-1,0
1523614797398,-589824,90,-56,-1,-1,0
1523614797398,-524288,90,-56,-1,-1,0
1523614797438,-524288,90,-56,-1,-1,0
1523614797438,-524288,90,-56,-1,-1,0
1523614797438,-524288,90,-56,-1,-1,0
1523614797438,-589824,90,-56,-1,-1,0
1523614797438,-655360,90,-56,-1,-1,0
1523614797478,-655360,90,-56,-1,-1,0
1523614797478,-655360,90,-56,-1,-1,0
1523614797478,-655360,90,-56,-1,-1,0
1523614797478,-589824,90,-56,-1,-1,0
1523614797478,-524288,90,-56,-1,-1,0
1523614797518,-524288,90,-56,-1,-1,0
1523614797518,-589824,90,-56,-1,-1,0
1523614797518,-589824,90,-56,-1,-1,0
1523614797518,-589824,90,-56,-1,-1,0
1523614797518,-589824,90,-56,-1,-1,0
1523614797558,-655360,90,-56,-1,-1,0
1523614797558,-786432,90,-56,-1,-1,0
1523614797558,-1114112,90,-56,-1,-1,0
1523614797558,-917504,90,-56,-1,-1,0
1523614797558,1769472,90,-56,-1,-1,0
1523614797598,7143424,90,-56,-1,-1,0
1523614797598,9764864,90,-56,-1,-1,0
1523614797598,5832704,90,-56,-1,-1,0
1523614797598,655360,90,-56,-1,-1,0
1523614797598,-655360,90,-56,-1,-1,0
1523614797638,-393216,89,-56,-1,-1,0
1523614797638,-458752,89,-56,-1,-1,0
1523614797638,-524288,89,-56,-1,-1,0
1523614797638,-524288,89,-56,-1,-1,0
1523614797638,-458752,89,-56,-1,-1,0
1523614797678,-393216,89,-56,-1,-1,0
1523614797678,-393216,89,-56,-1,-1,0
1523614797678,-327680,89,-56,-1,-1,0
1523614797678,-327680,89,-56,-1,-1,0
1523614797678,-262144,89,-56,-1,-1,0
1523614797718,-196608,89,-56,-1,-1,0
1523614797718,-131072,89,-56,-1,-1,0
1523614797718,-131072,89,-56,-1,-1,0
1523614797718,0,89,-56,-1,-1,0
1523614797718,65536,89,-56,-1,-1,0
1523614797758,327680,89,-56,-1,-1,0
1523614797758,524288,89,-56,-1,-1,0
1523614797758,851968,89,-56,-1,-1,0
1523614797758,1179648,89,-56,-1,-1,0
1523614797758,1507328,89,-56,-1,-1,0
1523614797798,1835008,89,-56,-1,-1,0
1523614797798,2162688,89,-56,-1,-1,0
1523614797798,2293760,89,-56,-1,-1,0
1523614797798,2359296,89,-56,-1,-1,0
1523614797798,2293760,89,-56,-1,-1,0
1523614797838,2031616,89,-56,-1,-1,0
1523614797838,1638400,89,-56,-1,-1,0
1523614797838,1048576,89,-56,-1,-1,0
1523614797838,589824,89,-56,-1,-1,0
1523614797838,131072,89,-56,-1,-1,0
1523614797878,-131072,89,-56,-1,-1,0
1523614797878,-393216,89,-56,-1,-1,0
1523614797878,-458752,89,-56,-1,-1,0
1523614797878,-458752,89,-56,-1,-1,0
1523614797878,-524288,89,-56,-1,-1,0
1523614797918,-589824,89,-56,-1,-1,0
1523614797918,-589824,89,-56,-1,-1,0
1523614797918,-655360,89,-56,-1,-1,0
1523614797918,-720896,89,-56,-1,-1,0
1523614797918,-786432,89,-56,-1,-1,0
1523614797958,-720896,89,-56,-1,-1,0
1523614797958,-655360,89,-56,-1,-1,0
1523614797958,-655360,89,-56,-1,-1,0
1523614797958,-655360,89,-56,-1,-1,0
1523614797958,-655360,89,-56,-1,-1,0
1523614798007,-720896,89,-56,-1,-1,0
1523614798007,-720896,89,-56,-1,-1,0
1523614798007,-589824,89,-56,-1,-1,0
1523614798007,-458752,89,-56,-1,-1,0
1523614798007,-393216,89,-56,-1,-1,0
1523614798038,-262144,89,-56,-1,-1,0
1523614798038,-196608,89,-56,-1,-1,0
1523614798038,-458752,89,-56,-1,-1,0
1523614798038,-589824,89,-56,-1,-1,0
1523614798038,-589824,89,-56,-1,-1,0
1523614798078,-786432,89,-56,-1,-1,0
1523614798078,-917504,89,-56,-1,-1,0
1523614798078,-851968,89,-56,-1,-1,0
1523614798078,-851968,89,-56,-1,-1,0
1523614798078,-851968,89,-56,-1,-1,0
1523614798118,-589824,89,-56,-1,-1,0
1523614798118,-589824,89,-56,-1,-1,0
1523614798118,-589824,89,-56,-1,-1,0
1523614798118,-262144,89,-56,-1,-1,0
1523614798118,-65536,89,-56,-1,-1,0
1523614798158,-196608,89,-56,-1,-1,0
1523614798158,-262144,89,-56,-1,-1,0
1523614798158,-393216,89,-56,-1,-1,0
1523614798158,-1048576,89,-56,-1,-1,0
1523614798158,-1638400,89,-56,-1,-1,0
1523614798198,-1376256,89,-56,-1,-1,0
1523614798198,-917504,89,-56,-1,-1,0
1523614798198,-458752,89,-56,-1,-1,0
1523614798198,0,89,-56,-1,-1,0
1523614798198,-65536,89,-56,-1,-1,0
1523614798238,-655360,89,-56,-1,-1,0
1523614798238,-983040,89,-56,-1,-1,0
1523614798238,-917504,89,-56,-1,-1,0
1523614798238,-917504,89,-56,-1,-1,0
1523614798238,-983040,89,-56,-1,-1,0
1523614798278,-786432,89,-56,-1,-1,0
1523614798278,-720896,89,-56,-1,-1,0
1523614798278,-720896,89,-56,-1,-1,0
1523614798278,-655360,89,-56,-1,-1,0
1523614798278,-786432,89,-56,-1,-1,0
1523614798318,-851968,89,-56,-1,-1,0
1523614798318,-524288,89,-56,-1,-1,0
1523614798318,-589824,89,-56,-1,-1,0
1523614798318,-1179648,89,-56,-1,-1,0
1523614798318,-1310720,89,-56,-1,-1,0
1523614798358,-1114112,89,-56,-1,-1,0
1523614798358,-1179648,89,-56,-1,-1,0
1523614798358,-720896,89,-56,-1,-1,0
1523614798358,2621440,89,-56,-1,-1,0
1523614798358,8126464,89,-56,-1,-1,0
1523614798398,9502720,89,-56,-1,-1,0
1523614798398,4784128,89,-56,-1,-1,0
1523614798398,-131072,89,-56,-1,-1,0
1523614798398,-1048576,89,-56,-1,-1,0
1523614798398,-786432,89,-56,-1,-1,0
1523614798438,-655360,89,-56,-1,-1,0
1523614798438,-655360,89,-56,-1,-1,0
1523614798438,-786432,89,-56,-1,-1,0
1523614798438,-786432,89,-56,-1,-1,0
1523614798438,-720896,89,-56,-1,-1,0
1523614798478,-720896,89,-56,-1,-1,0
1523614798478,-655360,89,-56,-1,-1,0
1523614798478,-524288,89,-56,-1,-1,0
1523614798478,-393216,89,-56,-1,-1,0
1523614798478,-458752,89,-56,-1,-1,0
1523614798518,-393216,89,-56,-1,-1,0
1523614798518,-327680,89,-56,-1,-1,0
1523614798518,-196608,89,-56,-1,-1,0
1523614798518,-65536,89,-56,-1,-1,0
1523614798518,131072,89,-56,-1,-1,0
1523614798558,327680,89,-56,-1,-1,0
1523614798558,720896,89,-56,-1,-1,0
1523614798558,1114112,89,-56,-1,-1,0
1523614798558,1572864,89,-56,-1,-1,0
1523614798558,1966080,89,-56,-1,-1,0
1523614798598,2228224,89,-56,-1,-1,0
1523614798598,2424832,89,-56,-1,-1,0
1523614798598,2490368,89,-56,-1,-1,0
1523614798598,2359296,89,-56,-1,-1,0
1523614798598,2097152,89,-56,-1,-1,0
1523614798647,1638400,89,-56,-1,-1,0
1523614798647,1048576,89,-56,-1,-1,0
1523614798647,458752,89,-56,-1,-1,0
1523614798647,0,89,-56,-1,-1,0
1523614798647,-196608,89,-56,-1,-1,0
1523614798678,-458752,89,-56,-1,-1,0
1523614798678,-655360,89,-56,-1,-1,0
1523614798678,-786432,89,-56,-1,-1,0
1523614798678,-786432,89,-56,-1,-1,0
1523614798678,-851968,89,-56,-1,-1,0
1523614798718,-851968,89,-56,-1,-1,0
1523614798718,-917504,89,-56,-1,-1,0
1523614798718,-983040,89,-56,-1,-1,0
1523614798718,-983040,89,-56,-1,-1,0
1523614798718,-983040,89,-56,-1,-1,0
1523614798758,-917504,89,-56,-1,-1,0
1523614798758,-851968,89,-56,-1,-1,0
1523614798758,-851968,89,-56,-1,-1,0
1523614798758,-851968,89,-56,-1,-1,0
1523614798758,-786432,89,-56,-1,-1,0
1523614798798,-720896,89,-56,-1,-1,0
1523614798798,-720896,89,-56,-1,-1,0
1523614798798,-720896,89,-56,-1,-1,0
1523614798798,-786432,89,-56,-1,-1,0
1523614798798,-720896,89,-56,-1,-1,0
1523614798838,-720896,89,-56,-1,-1,0
1523614798838,-720896,89,-56,-1,-1,0
1523614798838,-786432,89,-56,-1,-1,0
1523614798838,-851968,89,-56,-1,-1,0
1523614798838,-851968,89,-56,-1,-1,0
1523614798878,-851968,89,-56,-1,-1,0
1523614798878,-851968,89,-56,-1,-1,0
1523614798878,-851968,89,-56,-1,-1,0
1523614798878,-851968,89,-56,-1,-1,0
1523614798878,-917504,89,-56,-1,-1,0
1523614798918,-1048576,89,-56,-1,-1,0
1523614798918,-1048576,89,-56,-1,-1,0
1523614798918,-1048576,89,-56,-1,-1,0
1523614798918,-983040,89,-56,-1,-1,0
1523614798918,-917504,89,-56,-1,-1,0
1523614798958,-983040,89,-56,-1,-1,0
1523614798958,-1048576,89,-56,-1,-1,0
1523614798958,-1048576,89,-56,-1,-1,0
1523614798958,-1048576,89,-56,-1,-1,0
1523614798958,-1048576,89,-56,-1,-1,0
1523614798998,-1114112,89,-56,-1,-1,0
1523614798998,-1179648,89,-56,-1,-1,0
1523614798998,-1179648,89,-56,-1,-1,0
1523614798998,-1114112,89,-56,-1,-1,0
1523614798998,-983040,89,-56,-1,-1,0
1523614799038,-851968,89,-56,-1,-1,0
1523614799038,-917504,89,-56,-1,-1,0
1523614799038,-983040,89,-56,-1,-1,0
1523614799038,-983040,89,-56,-1,-1,0
1523614799038,-917504,89,-56,-1,-1,0
1523614799078,-917504,89,-56,-1,-1,0
1523614799078,-917504,89,-56,-1,-1,0
1523614799078,-917504,89,-56,-1,-1,0
1523614799078,-1114112,89,-56,-1,-1,0
1523614799078,-1245184,89,-56,-1,-1,0
1523614799118,131072,87,-56,-1,-1,0
1523614799118,4521984,87,-56,-1,-1,0
1523614799118,8585216,87,-56,-1,-1,0
1523614799118,6422528,87,-56,-1,-1,0
1523614799118,1114112,87,-56,-1,-1,0
1523614799158,-1507328,87,-56,-1,-1,0
1523614799158,-1048576,87,-56,-1,-1,0
1523614799158,-655360,87,-56,-1,-1,0
1523614799158,-655360,87,-56,-1,-1,0
1523614799158,-524288,87,-56,-1,-1,0
1523614799198,-524288,87,-56,-1,-1,0
1523614799198,-393216,87,-56,-1,-1,0
1523614799198,-393216,87,-56,-1,-1,0
1523614799198,-393216,87,-56,-1,-1,0
1523614799198,-327680,87,-56,-1,-1,0
1523614799238,-196608,87,-56,-1,-1,0
1523614799238,-131072,87,-56,-1,-1,0
1523614799238,-65536,87,-56,-1,-1,0
1523614799238,0,87,-56,-1,-1,0
1523614799238,131072,87,-56,-1,-1,0
1523614799287,262144,87,-56,-1,-1,0
1523614799287,458752,87,-56,-1,-1,0
1523614799287,720896,87,-56,-1,-1,0
1523614799287,1048576,87,-56,-1,-1,0
1523614799287,1507328,87,-56,-1,-1,0
1523614799318,1900544,87,-56,-1,-1,0
1523614799318,2228224,87,-56,-1,-1,0
1523614799318,2555904,87,-56,-1,-1,0
1523614799318,2818048,87,-56,-1,-1,0
1523614799318,2883584,87,-56,-1,-1,0
1523614799358,2949120,87,-56,-1,-1,0
1523614799358,2686976,87,-56,-1,-1,0
1523614799358,2228224,87,-56,-1,-1,0
1523614799358,1703936,87,-56,-1,-1,0
1523614799358,1114112,87,-56,-1,-1,0
1523614799398,589824,87,-56,-1,-1,0
1523614799398,196608,87,-56,-1,-1,0
1523614799398,-65536,87,-56,-1,-1,0
1523614799398,-327680,87,-56,-1,-1,0
1523614799398,-458752,87,-56,-1,-1,0
1523614799438,-393216,87,-56,-1,-1,0
1523614799438,-262144,87,-56,-1,-1,0
1523614799438,-262144,87,-56,-1,-1,0
1523614799438,-458752,87,-56,-1,-1,0
1523614799438,-458752,87,-56,-1,-1,0
1523614799478,-458752,87,-56,-1,-1,0
1523614799478,-393216,87,-56,-1,-1,0
1523614799478,-524288,87,-56,-1,-1,0
1523614799478,-655360,87,-56,-1,-1,0
1523614799478,-589824,87,-56,-1,-1,0
1523614799518,-524288,87,-56,-1,-1,0
1523614799518,-458752,87,-56,-1,-1,0
1523614799518,-327680,87,-56,-1,-1,0
1523614799518,-196608,87,-56,-1,-1,0
1523614799518,-262144,87,-56,-1,-1,0
1523614799558,-393216,87,-56,-1,-1,0
1523614799558,-458752,87,-56,-1,-1,0
1523614799558,-458752,87,-56,-1,-1,0
1523614799558,-458752,87,-56,-1,-1,0
1523614799558,-589824,87,-56,-1,-1,0
1523614799598,-720896,87,-56,-1,-1,0
1523614799598,-720896,87,-56,-1,-1,0
1523614799598,-589824,87,-56,-1,-1,0
1523614799598,-655360,87,-56,-1,-1,0
1523614799598,-655360,87,-56,-1,-1,0
1523614799638,-655360,87,-56,-1,-1,0
1523614799638,-786432,87,-56,-1,-1,0
1523614799638,-917504,87,-56,-1,-1,0
1523614799638,-786432,87,-56,-1,-1,0
1523614799638,-524288,87,-56,-1,-1,0
1523614799678,-458752,87,-56,-1,-1,0
1523614799678,-655360,87,-56,-1,-1,0
1523614799678,-983040,87,-56,-1,-1,0
1523614799678,-1114112,87,-56,-1,-1,0
1523614799678,-983040,87,-56,-1,-1,0
1523614799718,-851968,87,-56,-1,-1,0
1523614799718,-917504,87,-56,-1,-1,0
1523614799718,-851968,87,-56,-1,-1,0
1523614799718,-589824,87,-56,-1,-1,0
1523614799718,-720896,87,-56,-1,-1,0
1523614799758,-1114112,87,-56,-1,-1,0
1523614799758,-1310720,87,-56,-1,-1,0
1523614799758,-1310720,87,-56,-1,-1,0
1523614799758,-1048576,87,-56,-1,-1,0
1523614799758,-851968,87,-56,-1,-1,0
1523614799798,-655360,87,-56,-1,-1,0
1523614799798,-786432,87,-56,-1,-1,0
1523614799798,-917504,87,-56,-1,-1,0
1523614799798,-917504,87,-56,-1,-1,0
1523614799798,-983040,87,-56,-1,-1,0
1523614799838,-1376256,85,-56,-1,-1,0
1523614799838,-1572864,85,-56,-1,-1,0
1523614799838,0,85,-56,-1,-1,0
1523614799838,4456448,85,-56,-1,-1,0
1523614799838,9109504,85,-56,-1,-1,0
1523614799878,7602176,85,-56,-1,-1,0
1523614799878,2097152,85,-56,-1,-1,0
1523614799878,-1310720,85,-56,-1,-1,0
1523614799878,-1048576,85,-56,-1,-1,0
1523614799878,-851968,85,-56,-1,-1,0
1523614799927,-983040,85,-56,-1,-1,0
1523614799927,-983040,85,-56,-1,-1,0
1523614799927,-917504,85,-56,-1,-1,0
1523614799927,-720896,85,-56,-1,-1,0
1523614799927,-655360,85,-56,-1,-1,0
1523614799958,-720896,85,-56,-1,-1,0
1523614799958,-655360,85,-56,-1,-1,0
1523614799958,-327680,85,-56,-1,-1,0
1523614799958,-327680,85,-56,-1,-1,0
1523614799958,-655360,85,-56,-1,-1,0
1523614799998,-786432,85,-56,-1,-1,0
1523614799998,-262144,85,-56,-1,-1,0
1523614799998,-262144,85,-56,-1,-1,0
1523614799998,-458752,85,-56,-1,-1,0
1523614799998,-131072,85,-56,-1,-1,0
1523614800038,393216,85,-56,-1,-1,0
1523614800038,851968,85,-56,-1,-1,0
1523614800038,1245184,85,-56,-1,-1,0
1523614800038,1572864,85,-56,-1,-1,0
1523614800038,1966080,85,-56,-1,-1,0
1523614800078,2424832,85,-56,-1,-1,0
1523614800078,2621440,85,-56,-1,-1,0
1523614800078,2359296,85,-56,-1,-1,0
1523614800078,1966080,85,-56,-1,-1,0
1523614800078,1703936,85,-56,-1,-1,0
1523614800118,1179648,85,-56,-1,-1,0
1523614800118,524288,85,-56,-1,-1,0
1523614800118,65536,85,-56,-1,-1,0
1523614800118,-327680,85,-56,-1,-1,0
1523614800118,-655360,85,-56,-1,-1,0
1523614800158,-851968,85,-56,-1,-1,0
1523614800158,-917504,85,-56,-1,-1,0
1523614800158,-589824,85,-56,-1,-1,0
1523614800158,-458752,85,-56,-1,-1,0
1523614800158,-851968,85,-56,-1,-1,0
1523614800198,-1441792,85,-56,-1,-1,0
1523614800198,-1048576,85,-56,-1,-1,0
1523614800198,-851968,85,-56,-1,-1,0
1523614800198,-1179648,85,-56,-1,-1,0
1523614800198,-1114112,85,-56,-1,-1,0
1523614800238,-393216,85,-56,-1,-1,0
1523614800238,-458752,85,-56,-1,-1,0
1523614800238,-1179648,85,-56,-1,-1,0
1523614800238,-983040,85,-56,-1,-1,0
1523614800238,-589824,85,-56,-1,-1,0
1523614800278,-786432,85,-56,-1,-1,0
1523614800278,-917504,85,-56,-1,-1,0
1523614800278,-524288,85,-56,-1,-1,0
1523614800278,-589824,85,-56,-1,-1,0
1523614800278,-917504,85,-56,-1,-1,0
1523614800318,-524288,85,-56,-1,-1,0
1523614800318,-196608,85,-56,-1,-1,0
1523614800318,-589824,85,-56,-1,-1,0
1523614800318,-1179648,85,-56,-1,-1,0
1523614800318,-327680,85,-56,-1,-1,0
1523614800358,65536,85,-56,-1,-1,0
1523614800358,-458752,85,-56,-1,-1,0
1523614800358,-1245184,85,-56,-1,-1,0
1523614800358,-917504,85,-56,-1,-1,0
1523614800358,-851968,85,-56,-1,-1,0
1523614800398,-917504,85,-56,-1,-1,0
1523614800398,-655360,85,-56,-1,-1,0
1523614800398,-393216,85,-56,-1,-1,0
1523614800398,-589824,85,-56,-1,-1,0
1523614800398,-786432,85,-56,-1,-1,0
1523614800438,-720896,85,-56,-1,-1,0
1523614800438,-851968,85,-56,-1,-1,0
1523614800438,-917504,85,-56,-1,-1,0
1523614800438,-655360,85,-56,-1,-1,0
1523614800438,-458752,85,-56,-1,-1,0
1523614800478,-589824,85,-56,-1,-1,0
1523614800478,-983040,85,-56,-1,-1,0
1523614800478,-983040,85,-56,-1,-1,0
1523614800478,-589824,85,-56,-1,-1,0
1523614800478,-458752,85,-56,-1,-1,0
1523614800518,-655360,83,-56,-1,-1,0
1523614800518,-720896,83,-56,-1,-1,0
1523614800518,-1179648,83,-56,-1,-1,0
1523614800518,-917504,83,-56,-1,-1,0
1523614800518,2555904,83,-56,-1,-1,0
1523614800567,7798784,83,-56,-1,-1,0
1523614800567,7733248,83,-56,-1,-1,0
1523614800567,2555904,83,-56,-1,-1,0
1523614800567,-1310720,83,-56,-1,-1,0
1523614800567,-1048576,83,-56,-1,-1,0
1523614800598,-655360,83,-56,-1,-1,0
1523614800598,-524288,83,-56,-1,-1,0
1523614800598,-589824,83,-56,-1,-1,0
1523614800598,-983040,83,-56,-1,-1,0
1523614800598,-720896,83,-56,-1,-1,0
1523614800638,0,83,-56,-1,-1,0
1523614800638,0,83,-56,-1,-1,0
1523614800638,-327680,83,-56,-1,-1,0
1523614800638,-65536,83,-56,-1,-1,0
1523614800638,196608,83,-56,-1,-1,0
1523614800678,0,83,-56,-1,-1,0
1523614800678,-196608,83,-56,-1,-1,0
1523614800678,-131072,83,-56,-1,-1,0
1523614800678,393216,83,-56,-1,-1,0
1523614800678,720896,83,-56,-1,-1,0
1523614800718,851968,83,-56,-1,-1,0
1523614800718,1114112,83,-56,-1,-1,0
1523614800718,1507328,83,-56,-1,-1,0
1523614800718,1900544,83,-56,-1,-1,0
1523614800718,2621440,83,-56,-1,-1,0
1523614800758,2883584,83,-56,-1,-1,0
1523614800758,2752512,83,-56,-1,-1,0
1523614800758,3080192,83,-56,-1,-1,0
1523614800758,3604480,83,-56,-1,-1,0
1523614800758,3538944,83,-56,-1,-1,0
1523614800798,2752512,83,-56,-1,-1,0
1523614800798,1638400,83,-56,-1,-1,0
1523614800798,786432,83,-56,-1,-1,0
1523614800798,393216,83,-56,-1,-1,0
1523614800798,262144,83,-56,-1,-1,0
1523614800838,0,83,-56,-1,-1,0
1523614800838,-65536,83,-56,-1,-1,0
1523614800838,0,83,-56,-1,-1,0
1523614800838,-65536,83,-56,-1,-1,0
1523614800838,-720896,83,-56,-1,-1,0
1523614800878,-1245184,83,-56,-1,-1,0
1523614800878,-1048576,83,-56,-1,-1,0
1523614800878,-589824,83,-56,-1,-1,0
1523614800878,-720896,83,-56,-1,-1,0
1523614800878,-1114112,83,-56,-1,-1,0
1523614800918,-917504,83,-56,-1,-1,0
1523614800918,-786432,83,-56,-1,-1,0
1523614800918,-917504,83,-56,-1,-1,0
1523614800918,-851968,83,-56,-1,-1,0
1523614800918,-262144,83,-56,-1,-1,0
1523614800958,-131072,83,-56,-1,-1,0
1523614800958,-655360,83,-56,-1,-1,0
1523614800958,-786432,83,-56,-1,-1,0
1523614800958,-458752,83,-56,-1,-1,0
1523614800958,-458752,83,-56,-1,-1,0
1523614800998,-458752,83,-56,-1,-1,0
1523614800998,-196608,83,-56,-1,-1,0
1523614800998,-524288,83,-56,-1,-1,0
1523614800998,-983040,83,-56,-1,-1,0
1523614800998,-917504,83,-56,-1,-1,0
1523614801038,-655360,83,-56,-1,-1,0
1523614801038,-655360,83,-56,-1,-1,0
1523614801038,-589824,83,-56,-1,-1,0
1523614801038,-458752,83,-56,-1,-1,0
1523614801038,-458752,83,-56,-1,-1,0
1523614801078,-720896,83,-56,-1,-1,0
1523614801078,-917504,83,-56,-1,-1,0
1523614801078,-720896,83,-56,-1,-1,0
1523614801078,-589824,83,-56,-1,-1,0
1523614801078,-720896,83,-56,-1,-1,0
1523614801118,-655360,83,-56,-1,-1,0
1523614801118,-524288,83,-56,-1,-1,0
1523614801118,-983040,83,-56,-1,-1,0
1523614801118,-1507328,83,-56,-1,-1,0
1523614801118,-1638400,83,-56,-1,-1,0
1523614801158,-1114112,83,-56,-1,-1,0
1523614801158,-720896,83,-56,-1,-1,0
1523614801158,-917504,83,-56,-1,-1,0
1523614801158,-720896,83,-56,-1,-1,0
1523614801158,-262144,83,-56,-1,-1,0
1523614801207,-655360,83,-56,-1,-1,0
1523614801207,-1114112,83,-56,-1,-1,0
1523614801207,-917504,83,-56,-1,-1,0
1523614801207,-786432,83,-56,-1,-1,0
1523614801207,-1114112,83,-56,-1,-1,0
1523614801238,-1572864,83,-56,-1,-1,0
1523614801238,-1835008,83,-56,-1,-1,0
1523614801238,-458752,83,-56,-1,-1,0
1523614801238,4063232,83,-56,-1,-1,0
1523614801238,8912896,83,-56,-1,-1,0
1523614801278,7798784,83,-56,-1,-1,0
1523614801278,2490368,83,-56,-1,-1,0
1523614801278,-851968,83,-56,-1,-1,0
1523614801278,-589824,83,-56,-1,-1,0
1523614801278,-524288,83,-56,-1,-1,0
1523614801318,-1179648,83,-56,-1,-1,0
1523614801318,-1310720,83,-56,-1,-1,0
1523614801318,-786432,83,-56,-1,-1,0
1523614801318,-720896,83,-56,-1,-1,0
1523614801318,-917504,83,-56,-1,-1,0
1523614801358,-851968,83,-56,-1,-1,0
1523614801358,-1114112,83,-56,-1,-1,0
1523614801358,-1245184,83,-56,-1,-1,0
1523614801358,-1048576,83,-56,-1,-1,0
1523614801358,-983040,83,-56,-1,-1,0
1523614801398,-1048576,83,-56,-1,-1,0
1523614801398,-786432,83,-56,-1,-1,0
1523614801398,-65536,83,-56,-1,-1,0
1523614801398,262144,83,-56,-1,-1,0
1523614801398,393216,83,-56,-1,-1,0
1523614801438,720896,83,-56,-1,-1,0
1523614801438,786432,83,-56,-1,-1,0
1523614801438,458752,83,-56,-1,-1,0
1523614801438,589824,83,-56,-1,-1,0
1523614801438,1441792,83,-56,-1,-1,0
1523614801478,2228224,83,-56,-1,-1,0
1523614801478,2162688,83,-56,-1,-1,0
1523614801478,1900544,83,-56,-1,-1,0
1523614801478,1703936,83,-56,-1,-1,0
1523614801478,1245184,83,-56,-1,-1,0
1523614801518,131072,83,-56,-1,-1,0
1523614801518,-589824,83,-56,-1,-1,0
1523614801518,-720896,83,-56,-1,-1,0
1523614801518,-655360,83,-56,-1,-1,0
1523614801518,-983040,83,-56,-1,-1,0
1523614801558,-1114112,83,-56,-1,-1,0
1523614801558,-917504,83,-56,-1,-1,0
1523614801558,-786432,83,-56,-1,-1,0
1523614801558,-851968,83,-56,-1,-1,0
1523614801558,-851968,83,-56,-1,-1,0
1523614801598,-786432,83,-56,-1,-1,0
1523614801598,-393216,83,-56,-1,-1,0
1523614801598,-196608,83,-56,-1,-1,0
1523614801598,-196608,83,-56,-1,-1,0
1523614801598,-327680,83,-56,-1,-1,0
1523614801638,-524288,83,-56,-1,-1,0
1523614801638,-655360,83,-56,-1,-1,0
1523614801638,-655360,83,-56,-1,-1,0
1523614801638,-458752,83,-56,-1,-1,0
1523614801638,-589824,83,-56,-1,-1,0
1523614801678,-655360,83,-56,-1,-1,0
1523614801678,-720896,83,-56,-1,-1,0
1523614801678,-720896,83,-56,-1,-1,0
1523614801678,-786432,83,-56,-1,-1,0
1523614801678,-524288,83,-56,-1,-1,0
1523614801718,-196608,83,-56,-1,-1,0
1523614801718,-196608,83,-56,-1,-1,0
1523614801718,-65536,83,-56,-1,-1,0
1523614801718,0,83,-56,-1,-1,0
1523614801718,-65536,83,-56,-1,-1,0
1523614801758,-327680,83,-56,-1,-1,0
1523614801758,-458752,83,-56,-1,-1,0
1523614801758,-458752,83,-56,-1,-1,0
1523614801758,-589824,83,-56,-1,-1,0
1523614801758,-655360,83,-56,-1,-1,0
1523614801799,-589824,83,-56,-1,-1,0
1523614801799,-327680,83,-56,-1,-1,0
1523614801799,196608,83,-56,-1,-1,0
1523614801799,655360,83,-56,-1,-1,0
1523614801799,-65536,83,-56,-1,-1,0
1523614801848,-720896,83,-56,-1,-1,0
1523614801848,-1114112,83,-56,-1,-1,0
1523614801848,-1114112,83,-56,-1,-1,0
1523614801848,-1114112,83,-56,-1,-1,0
1523614801848,-786432,83,-56,-1,-1,0
1523614801878,-589824,83,-56,-1,-1,0
1523614801878,-720896,83,-56,-1,-1,0
1523614801878,-720896,83,-56,-1,-1,0
1523614801878,-458752,83,-56,-1,-1,0
1523614801878,-458752,83,-56,-1,-1,0
1523614801918,-983040,83,-56,-1,-1,0
1523614801918,-1310720,83,-56,-1,-1,0
1523614801918,-131072,83,-56,-1,-1,0
1523614801918,3866624,83,-56,-1,-1,0
1523614801918,7929856,83,-56,-1,-1,0
1523614801958,6356992,83,-56,-1,-1,0
1523614801958,1507328,83,-56,-1,-1,0
1523614801958,-983040,83,-56,-1,-1,0
1523614801958,-786432,83,-56,-1,-1,0
1523614801958,-983040,83,-56,-1,-1,0
1523614801998,-1245184,83,-56,-1,-1,0
1523614801998,-1048576,83,-56,-1,-1,0
1523614801998,-1048576,83,-56,-1,-1,0
1523614801998,-1245184,83,-56,-1,-1,0
1523614801998,-1376256,83,-56,-1,-1,0
1523614802038,-917504,83,-56,-1,-1,0
1523614802038,-524288,83,-56,-1,-1,0
1523614802038,-720896,83,-56,-1,-1,0
1523614802038,-1245184,83,-56,-1,-1,0
1523614802038,-1114112,83,-56,-1,-1,0
1523614802078,-786432,83,-56,-1,-1,0
1523614802078,-589824,83,-56,-1,-1,0
1523614802078,-524288,83,-56,-1,-1,0
1523614802078,-262144,83,-56,-1,-1,0
1523614802078,0,83,-56,-1,-1,0
1523614802118,0,83,-56,-1,-1,0
1523614802118,-65536,83,-56,-1,-1,0
1523614802118,458752,83,-56,-1,-1,0
1523614802118,1310720,83,-56,-1,-1,0
1523614802118,1245184,83,-56,-1,-1,0
1523614802158,1048576,83,-56,-1,-1,0
1523614802158,1572864,83,-56,-1,-1,0
1523614802158,1835008,83,-56,-1,-1,0
1523614802158,1376256,83,-56,-1,-1,0
1523614802158,983040,83,-56,-1,-1,0
1523614802198,983040,83,-56,-1,-1,0
1523614802198,524288,83,-56,-1,-1,0
1523614802198,0,83,-56,-1,-1,0
1523614802198,-655360,83,-56,-1,-1,0
1523614802198,-983040,83,-56,-1,-1,0
1523614802238,-983040,83,-56,-1,-1,0
1523614802238,-983040,83,-56,-1,-1,0
1523614802238,-786432,83,-56,-1,-1,0
1523614802238,-524288,83,-56,-1,-1,0
1523614802238,-786432,83,-56,-1,-1,0
1523614802278,-720896,83,-56,-1,-1,0
1523614802278,0,83,-56,-1,-1,0
1523614802278,-524288,83,-56,-1,-1,0
1523614802278,-1441792,83,-56,-1,-1,0
1523614802278,-786432,83,-56,-1,-1,0
1523614802318,0,83,-56,-1,-1,0
1523614802318,-196608,83,-56,-1,-1,0
1523614802318,-720896,83,-56,-1,-1,0
1523614802318,-589824,83,-56,-1,-1,0
1523614802318,-458752,83,-56,-1,-1,0
1523614802358,65536,83,-56,-1,-1,0
1523614802358,0,83,-56,-1,-1,0
1523614802358,-393216,83,-56,-1,-1,0
1523614802358,-65536,83,-56,-1,-1,0
1523614802358,65536,83,-56,-1,-1,0
1523614802398,-589824,83,-56,-1,-1,0
1523614802398,-1114112,83,-56,-1,-1,0
1523614802398,-524288,83,-56,-1,-1,0
1523614802398,-65536,83,-56,-1,-1,0
1523614802398,0,83,-56,-1,-1,0
1523614802438,-524288,83,-56,-1,-1,0
1523614802438,-917504,83,-56,-1,-1,0
1523614802438,-917504,83,-56,-1,-1,0
1523614802438,-131072,83,-56,-1,-1,0
1523614802438,327680,83,-56,-1,-1,0
1523614802487,131072,83,-56,-1,-1,0
1523614802487,-786432,83,-56,-1,-1,0
1523614802487,-1048576,83,-56,-1,-1,0
1523614802487,-851968,83,-56,-1,-1,0
1523614802487,-393216,83,-56,-1,-1,0
1523614802518,-655360,83,-56,-1,-1,0
1523614802518,-851968,83,-56,-1,-1,0
1523614802518,-1114112,83,-56,-1,-1,0
1523614802518,-327680,83,-56,-1,-1,0
1523614802518,458752,83,-56,-1,-1,0
1523614802558,-196608,83,-56,-1,-1,0
1523614802558,-983040,83,-56,-1,-1,0
1523614802558,-524288,83,-56,-1,-1,0
1523614802558,-524288,83,-56,-1,-1,0
1523614802558,-1179648,83,-56,-1,-1,0
1523614802598,-1572864,83,-56,-1,-1,0
1523614802598,-1245184,83,-56,-1,-1,0
1523614802598,-131072,83,-56,-1,-1,0
1523614802598,2031616,83,-56,-1,-1,0
1523614802598,6029312,83,-56,-1,-1,0
1523614802638,8519680,83,-56,-1,-1,0
1523614802638,5767168,83,-56,-1,-1,0
1523614802638,655360,83,-56,-1,-1,0
1523614802638,-917504,83,-56,-1,-1,0
1523614802638,131072,83,-56,-1,-1,0
1523614802678,262144,83,-56,-1,-1,0
1523614802678,-655360,83,-56,-1,-1,0
1523614802678,-983040,83,-56,-1,-1,0
1523614802678,0,83,-56,-1,-1,0
1523614802678,196608,83,-56,-1,-1,0
1523614802718,524288,83,-56,-1,-1,0
1523614802718,655360,83,-56,-1,-1,0
1523614802718,131072,83,-56,-1,-1,0
1523614802718,-327680,83,-56,-1,-1,0
1523614802718,327680,83,-56,-1,-1,0
1523614802758,786432,83,-56,-1,-1,0
1523614802758,458752,83,-56,-1,-1,0
1523614802758,327680,83,-56,-1,-1,0
1523614802758,786432,83,-56,-1,-1,0
1523614802758,1179648,83,-56,-1,-1,0
1523614802798,1703936,83,-56,-1,-1,0
1523614802798,2424832,83,-56,-1,-1,0
1523614802798,2621440,83,-56,-1,-1,0
1523614802798,2228224,83,-56,-1,-1,0
1523614802798,2424832,83,-56,-1,-1,0
1523614802838,3014656,83,-56,-1,-1,0
1523614802838,3604480,83,-56,-1,-1,0
1523614802838,3670016,83,-56,-1,-1,0
1523614802838,3538944,83,-56,-1,-1,0
1523614802838,3473408,83,-56,-1,-1,0
1523614802878,2949120,83,-56,-1,-1,0
1523614802878,1966080,83,-56,-1,-1,0
1523614802878,1245184,83,-56,-1,-1,0
1523614802878,983040,83,-56,-1,-1,0
1523614802878,786432,83,-56,-1,-1,0
1523614802918,589824,83,-56,-1,-1,0
1523614802918,393216,83,-56,-1,-1,0
1523614802918,65536,83,-56,-1,-1,0
1523614802918,0,83,-56,-1,-1,0
1523614802918,65536,83,-56,-1,-1,0
1523614802958,196608,83,-56,-1,-1,0
1523614802958,196608,83,-56,-1,-1,0
1523614802958,0,83,-56,-1,-1,0
1523614802958,-65536,83,-56,-1,-1,0
1523614802958,-131072,83,-56,-1,-1,0
1523614802999,0,83,-56,-1,-1,0
1523614802999,131072,83,-56,-1,-1,0
1523614802999,196608,83,-56,-1,-1,0
1523614802999,65536,83,-56,-1,-1,0
1523614802999,65536,83,-56,-1,-1,0
1523614803038,196608,83,-56,-1,-1,0
1523614803038,262144,83,-56,-1,-1,0
1523614803038,327680,83,-56,-1,-1,0
1523614803038,393216,83,-56,-1,-1,0
1523614803038,393216,83,-56,-1,-1,0
1523614803078,65536,83,-56,-1,-1,0
1523614803078,0,83,-56,-1,-1,0
1523614803078,131072,83,-56,-1,-1,0
1523614803078,262144,83,-56,-1,-1,0
1523614803078,131072,83,-56,-1,-1,0
1523614803127,0,83,-56,-1,-1,0
1523614803127,0,83,-56,-1,-1,0
1523614803127,-65536,83,-56,-1,-1,0
1523614803127,-196608,83,-56,-1,-1,0
1523614803127,-196608,83,-56,-1,-1,0
1523614803158,-262144,83,-56,-1,-1,0
1523614803158,-393216,83,-56,-1,-1,0
1523614803158,-262144,83,-56,-1,-1,0
1523614803158,-196608,83,-56,-1,-1,0
1523614803158,-458752,83,-56,-1,-1,0
1523614803198,-393216,83,-56,-1,-1,0
1523614803198,-131072,83,-56,-1,-1,0
1523614803198,-262144,83,-56,-1,-1,0
1523614803198,-524288,83,-56,-1,-1,0
1523614803198,-589824,83,-56,-1,-1,0
1523614803238,-589824,83,-56,-1,-1,0
1523614803238,-458752,83,-56,-1,-1,0
1523614803238,-720896,83,-56,-1,-1,0
1523614803238,-1179648,83,-56,-1,-1,0
1523614803238,-524288,83,-56,-1,-1,0
1523614803278,3211264,83,-56,-1,-1,0
1523614803278,8257536,83,-56,-1,-1,0
1523614803278,8323072,83,-56,-1,-1,0
1523614803278,3276800,83,-56,-1,-1,0
1523614803278,-786432,83,-56,-1,-1,0
1523614803318,-851968,83,-56,-1,-1,0
1523614803318,-393216,83,-56,-1,-1,0
1523614803318,-589824,83,-56,-1,-1,0
1523614803318,-589824,83,-56,-1,-1,0
1523614803318,-589824,83,-56,-1,-1,0
1523614803358,-655360,83,-56,-1,-1,0
1523614803358,-917504,83,-56,-1,-1,0
1523614803358,-655360,83,-56,-1,-1,0
1523614803358,-524288,83,-56,-1,-1,0
1523614803358,-589824,83,-56,-1,-1,0
1523614803398,-524288,83,-56,-1,-1,0
1523614803398,-524288,83,-56,-1,-1,0
1523614803398,-851968,83,-56,-1,-1,0
1523614803398,-917504,83,-56,-1,-1,0
1523614803398,-393216,83,-56,-1,-1,0
1523614803438,-131072,83,-56,-1,-1,0
1523614803438,-65536,83,-56,-1,-1,0
1523614803438,65536,83,-56,-1,-1,0
1523614803438,524288,83,-56,-1,-1,0
1523614803438,786432,83,-56,-1,-1,0
1523614803478,1048576,83,-56,-1,-1,0
1523614803478,1572864,83,-56,-1,-1,0
1523614803478,1966080,83,-56,-1,-1,0
1523614803478,1835008,83,-56,-1,-1,0
1523614803478,1572864,83,-56,-1,-1,0
1523614803518,1376256,83,-56,-1,-1,0
1523614803518,1048576,83,-56,-1,-1,0
1523614803518,393216,83,-56,-1,-1,0
1523614803518,0,83,-56,-1,-1,0
1523614803518,-196608,83,-56,-1,-1,0
1523614803558,0,83,-56,-1,-1,0
1523614803558,-196608,83,-56,-1,-1,0
1523614803558,-786432,83,-56,-1,-1,0
1523614803558,-720896,83,-56,-1,-1,0
1523614803558,-524288,83,-56,-1,-1,0
1523614803598,-983040,83,-56,-1,-1,0
1523614803598,-1572864,83,-56,-1,-1,0
1523614803598,-1507328,83,-56,-1,-1,0
1523614803598,-1572864,83,-56,-1,-1,0
1523614803598,-1507328,83,-56,-1,-1,0
1523614803638,-917504,83,-56,-1,-1,0
1523614803638,-786432,83,-56,-1,-1,0
1523614803638,-917504,83,-56,-1,-1,0
1523614803638,-851968,83,-56,-1,-1,0
1523614803638,-655360,83,-56,-1,-1,0
1523614803678,-851968,83,-56,-1,-1,0
1523614803678,-851968,83,-56,-1,-1,0
1523614803678,-720896,83,-56,-1,-1,0
1523614803678,-655360,83,-56,-1,-1,0
1523614803678,-720896,83,-56,-1,-1,0
1523614803718,-720896,83,-56,-1,-1,0
1523614803718,-589824,83,-56,-1,-1,0
1523614803718,-327680,83,-56,-1,-1,0
1523614803718,-458752,83,-56,-1,-1,0
1523614803718,-720896,83,-56,-1,-1,0
1523614803767,-524288,83,-56,-1,-1,0
1523614803767,-524288,83,-56,-1,-1,0
1523614803767,-1179648,83,-56,-1,-1,0
1523614803767,-1572864,83,-56,-1,-1,0
1523614803767,-1703936,83,-56,-1,-1,0
1523614803798,-1507328,83,-56,-1,-1,0
1523614803798,-786432,83,-56,-1,-1,0
1523614803798,131072,83,-56,-1,-1,0
1523614803798,-131072,83,-56,-1,-1,0
1523614803798,-1179648,83,-56,-1,-1,0
1523614803838,-1310720,83,-56,-1,-1,0
1523614803838,-458752,83,-56,-1,-1,0
1523614803838,-327680,83,-56,-1,-1,0
1523614803838,-983040,83,-56,-1,-1,0
1523614803838,-1376256,83,-56,-1,-1,0
1523614803879,-1310720,83,-56,-1,-1,0
1523614803879,-1179648,83,-56,-1,-1,0
1523614803879,-983040,83,-56,-1,-1,0
1523614803879,-851968,83,-56,-1,-1,0
1523614803879,-917504,83,-56,-1,-1,0
1523614803918,-720896,83,-56,-1,-1,0
1523614803918,1769472,83,-56,-1,-1,0
1523614803918,6946816,83,-56,-1,-1,0
1523614803918,8912896,83,-56,-1,-1,0
1523614803918,4653056,83,-56,-1,-1,0
1523614803958,0,83,-56,-1,-1,0
1523614803958,-655360,83,-56,-1,-1,0
1523614803958,-589824,83,-56,-1,-1,0
1523614803958,-983040,83,-56,-1,-1,0
1523614803958,-983040,83,-56,-1,-1,0
1523614803998,-655360,83,-56,-1,-1,0
1523614803998,-262144,83,-56,-1,-1,0
1523614803998,0,83,-56,-1,-1,0
1523614803998,-65536,83,-56,-1,-1,0
1523614803998,-65536,83,-56,-1,-1,0
1523614804038,-196608,83,-56,-1,-1,0
1523614804038,-131072,83,-56,-1,-1,0
1523614804038,0,83,-56,-1,-1,0
1523614804038,65536,83,-56,-1,-1,0
1523614804038,-65536,83,-56,-1,-1,0
1523614804078,0,83,-56,-1,-1,0
1523614804078,655360,83,-56,-1,-1,0
1523614804078,1245184,83,-56,-1,-1,0
1523614804078,1179648,83,-56,-1,-1,0
1523614804078,983040,83,-56,-1,-1,0
1523614804118,1179648,83,-56,-1,-1,0
1523614804118,1769472,83,-56,-1,-1,0
1523614804118,2031616,83,-56,-1,-1,0
1523614804118,2031616,83,-56,-1,-1,0
1523614804118,2097152,83,-56,-1,-1,0
1523614804158,2424832,83,-56,-1,-1,0
1523614804158,2752512,83,-56,-1,-1,0
1523614804158,2555904,83,-56,-1,-1,0
1523614804158,1769472,83,-56,-1,-1,0
1523614804158,917504,83,-56,-1,-1,0
1523614804198,458752,83,-56,-1,-1,0
1523614804198,0,83,-56,-1,-1,0
1523614804198,-458752,83,-56,-1,-1,0
1523614804198,-655360,83,-56,-1,-1,0
1523614804198,-589824,83,-56,-1,-1,0
1523614804238,-655360,83,-56,-1,-1,0
1523614804238,-786432,83,-56,-1,-1,0
1523614804238,-851968,83,-56,-1,-1,0
1523614804238,-589824,83,-56,-1,-1,0
1523614804238,-524288,83,-56,-1,-1,0
1523614804278,-720896,83,-56,-1,-1,0
1523614804278,-983040,83,-56,-1,-1,0
1523614804278,-983040,83,-56,-1,-1,0
1523614804278,-786432,83,-56,-1,-1,0
1523614804278,-655360,83,-56,-1,-1,0
1523614804318,-1114112,83,-56,-1,-1,0
1523614804318,-1179648,83,-56,-1,-1,0
1523614804318,-720896,83,-56,-1,-1,0
1523614804318,-131072,83,-56,-1,-1,0
1523614804318,-393216,83,-56,-1,-1,0
1523614804358,-589824,83,-56,-1,-1,0
1523614804358,-458752,83,-56,-1,-1,0
1523614804358,-393216,83,-56,-1,-1,0
1523614804358,-851968,83,-56,-1,-1,0
1523614804358,-720896,83,-56,-1,-1,0
1523614804407,-786432,83,-56,-1,-1,0
1523614804407,-1114112,83,-56,-1,-1,0
1523614804407,-786432,83,-56,-1,-1,0
1523614804407,-327680,83,-56,-1,-1,0
1523614804407,-1048576,83,-56,-1,-1,0
1523614804438,-1572864,84,-56,-1,-1,0
1523614804438,-917504,84,-56,-1,-1,0
1523614804438,-524288,84,-56,-1,-1,0
1523614804438,-262144,84,-56,-1,-1,0
1523614804438,-393216,84,-56,-1,-1,0
1523614804478,-983040,84,-56,-1,-1,0
1523614804478,-1769472,84,-56,-1,-1,0
1523614804478,-1114112,84,-56,-1,-1,0
1523614804478,-262144,84,-56,-1,-1,0
1523614804478,-458752,84,-56,-1,-1,0
1523614804518,-1048576,84,-56,-1,-1,0
1523614804518,-1245184,84,-56,-1,-1,0
1523614804518,-1376256,84,-56,-1,-1,0
1523614804518,-1179648,84,-56,-1,-1,0
1523614804518,720896,84,-56,-1,-1,0
1523614804558,4784128,84,-56,-1,-1,0
1523614804558,8388608,84,-56,-1,-1,0
1523614804558,6029312,84,-56,-1,-1,0
1523614804558,589824,84,-56,-1,-1,0
1523614804558,-2031616,84,-56,-1,-1,0
1523614804598,-1441792,84,-56,-1,-1,0
1523614804598,-524288,84,-56,-1,-1,0
1523614804598,-196608,84,-56,-1,-1,0
1523614804598,-327680,84,-56,-1,-1,0
1523614804598,-1245184,84,-56,-1,-1,0
1523614804639,-786432,84,-56,-1,-1,0
1523614804639,-196608,84,-56,-1,-1,0
1523614804639,-720896,84,-56,-1,-1,0
1523614804639,-1507328,84,-56,-1,-1,0
1523614804639,-917504,84,-56,-1,-1,0
1523614804678,393216,84,-56,-1,-1,0
1523614804678,589824,84,-56,-1,-1,0
1523614804678,0,84,-56,-1,-1,0
1523614804678,65536,84,-56,-1,-1,0
1523614804678,131072,84,-56,-1,-1,0
1523614804718,327680,84,-56,-1,-1,0
1523614804718,524288,84,-56,-1,-1,0
1523614804718,1048576,84,-56,-1,-1,0
1523614804718,1441792,84,-56,-1,-1,0
1523614804718,1966080,84,-56,-1,-1,0
1523614804759,2424832,84,-56,-1,-1,0
1523614804759,2490368,84,-56,-1,-1,0
1523614804759,2621440,84,-56,-1,-1,0
1523614804759,3473408,84,-56,-1,-1,0
1523614804759,3276800,84,-56,-1,-1,0
1523614804798,2293760,84,-56,-1,-1,0
1523614804798,1441792,84,-56,-1,-1,0
1523614804798,1245184,84,-56,-1,-1,0
1523614804798,786432,84,-56,-1,-1,0
1523614804798,327680,84,-56,-1,-1,0
1523614804838,65536,84,-56,-1,-1,0
1523614804838,0,84,-56,-1,-1,0
1523614804838,-131072,84,-56,-1,-1,0
1523614804838,-262144,84,-56,-1,-1,0
1523614804838,-262144,84,-56,-1,-1,0
1523614804878,-131072,84,-56,-1,-1,0
1523614804878,-196608,84,-56,-1,-1,0
1523614804878,-262144,84,-56,-1,-1,0
1523614804878,-327680,84,-56,-1,-1,0
1523614804878,-327680,84,-56,-1,-1,0
1523614804918,-196608,84,-56,-1,-1,0
1523614804918,-131072,84,-56,-1,-1,0
1523614804918,-196608,84,-56,-1,-1,0
1523614804918,-327680,84,-56,-1,-1,0
1523614804918,-65536,84,-56,-1,-1,0
1523614804959,0,84,-56,-1,-1,0
1523614804959,0,84,-56,-1,-1,0
1523614804959,0,84,-56,-1,-1,0
1523614804959,65536,84,-56,-1,-1,0
1523614804959,196608,84,-56,-1,-1,0
1523614804998,131072,84,-56,-1,-1,0
1523614804998,0,84,-56,-1,-1,0
1523614804998,0,84,-56,-1,-1,0
1523614804998,-131072,84,-56,-1,-1,0
1523614804998,-131072,84,-56,-1,-1,0
1523614805047,0,85,-56,-1,-1,0
1523614805047,-131072,85,-56,-1,-1,0
1523614805047,-393216,85,-56,-1,-1,0
1523614805047,-393216,85,-56,-1,-1,0
1523614805047,-131072,85,-56,-1,-1,0
1523614805078,0,85,-56,-1,-1,0
1523614805078,-327680,85,-56,-1,-1,0
1523614805078,-589824,85,-56,-1,-1,0
1523614805078,-589824,85,-56,-1,-1,0
1523614805078,-655360,85,-56,-1,-1,0
1523614805118,-786432,85,-56,-1,-1,0
1523614805118,-983040,85,-56,-1,-1,0
1523614805118,-983040,85,-56,-1,-1,0
1523614805118,-1114112,85,-56,-1,-1,0
1523614805118,-1441792,85,-56,-1,-1,0
1523614805158,-786432,85,-56,-1,-1,0
1523614805158,2686976,85,-56,-1,-1,0
1523614805158,7798784,85,-56,-1,-1,0
1523614805158,8257536,85,-56,-1,-1,0
1523614805158,3342336,85,-56,-1,-1,0
1523614805198,-1048576,85,-56,-1,-1,0
1523614805198,-1310720,85,-56,-1,-1,0
1523614805198,-786432,85,-56,-1,-1,0
1523614805198,-851968,85,-56,-1,-1,0
1523614805198,-1048576,85,-56,-1,-1,0
1523614805238,-1048576,85,-56,-1,-1,0
1523614805238,-851968,85,-56,-1,-1,0
1523614805238,-917504,85,-56,-1,-1,0
1523614805238,-1179648,85,-56,-1,-1,0
1523614805238,-1310720,85,-56,-1,-1,0
1523614805278,-1179648,85,-56,-1,-1,0
1523614805278,-1179648,85,-56,-1,-1,0
1523614805278,-1310720,85,-56,-1,-1,0
1523614805278,-1179648,85,-56,-1,-1,0
1523614805278,-917504,85,-56,-1,-1,0
1523614805318,-720896,85,-56,-1,-1,0
1523614805318,-720896,85,-56,-1,-1,0
1523614805318,-655360,85,-56,-1,-1,0
1523614805318,-393216,85,-56,-1,-1,0
1523614805318,-65536,85,-56,-1,-1,0
1523614805358,65536,85,-56,-1,-1,0
1523614805358,262144,85,-56,-1,-1,0
1523614805358,393216,85,-56,-1,-1,0
1523614805358,524288,85,-56,-1,-1,0
1523614805358,655360,85,-56,-1,-1,0
1523614805398,655360,85,-56,-1,-1,0
1523614805398,327680,85,-56,-1,-1,0
1523614805398,0,85,-56,-1,-1,0
1523614805398,-196608,85,-56,-1,-1,0
1523614805398,-851968,85,-56,-1,-1,0
1523614805438,-1703936,85,-56,-1,-1,0
1523614805438,-2162688,85,-56,-1,-1,0
1523614805438,-2293760,85,-56,-1,-1,0
1523614805438,-2293760,85,-56,-1,-1,0
1523614805438,-2359296,85,-56,-1,-1,0
1523614805478,-2424832,85,-56,-1,-1,0
1523614805478,-2490368,85,-56,-1,-1,0
1523614805478,-2686976,85,-56,-1,-1,0
1523614805478,-2686976,85,-56,-1,-1,0
1523614805478,-2162688,85,-56,-1,-1,0
1523614805518,-2031616,85,-56,-1,-1,0
1523614805518,-2555904,85,-56,-1,-1,0
1523614805518,-2490368,85,-56,-1,-1,0
1523614805518,-2424832,85,-56,-1,-1,0
1523614805518,-2752512,85,-56,-1,-1,0
1523614805558,-2752512,85,-56,-1,-1,0
1523614805558,-2031616,85,-56,-1,-1,0
1523614805558,-1572864,85,-56,-1,-1,0
1523614805558,-1900544,85,-56,-1,-1,0
1523614805558,-2228224,85,-56,-1,-1,0
1523614805598,-2359296,85,-56,-1,-1,0
1523614805598,-2293760,85,-56,-1,-1,0
1523614805598,-2293760,85,-56,-1,-1,0
1523614805598,-1835008,85,-56,-1,-1,0
1523614805598,-1376256,85,-56,-1,-1,0
1523614805638,-1376256,86,-56,-1,-1,0
1523614805638,-1900544,86,-56,-1,-1,0
1523614805638,-1966080,86,-56,-1,-1,0
1523614805638,-1900544,86,-56,-1,-1,0
1523614805638,-1900544,86,-56,-1,-1,0
1523614805687,-1638400,86,-56,-1,-1,0
1523614805687,-1376256,86,-56,-1,-1,0
1523614805687,-1310720,86,-56,-1,-1,0
1523614805687,-1376256,86,-56,-1,-1,0
1523614805687,-1114112,86,-56,-1,-1,0
1523614805718,-1048576,86,-56,-1,-1,0
1523614805718,-1507328,86,-56,-1,-1,0
1523614805718,-1900544,86,-56,-1,-1,0
1523614805718,-1638400,86,-56,-1,-1,0
1523614805718,-1966080,86,-56,-1,-1,0
1523614805758,-2424832,86,-56,-1,-1,0
1523614805758,-1310720,86,-56,-1,-1,0
1523614805758,3080192,86,-56,-1,-1,0
1523614805758,8978432,86,-56,-1,-1,0
1523614805758,9437184,86,-56,-1,-1,0
1523614805798,3932160,86,-56,-1,-1,0
1523614805798,-786432,86,-56,-1,-1,0
1523614805798,-1441792,86,-56,-1,-1,0
1523614805798,-1376256,86,-56,-1,-1,0
1523614805798,-1179648,86,-56,-1,-1,0
1523614805838,-917504,86,-56,-1,-1,0
1523614805838,-851968,86,-56,-1,-1,0
1523614805838,-655360,86,-56,-1,-1,0
1523614805838,-393216,86,-56,-1,-1,0
1523614805838,-524288,86,-56,-1,-1,0
1523614805878,-1114112,86,-56,-1,-1,0
1523614805878,-1114112,86,-56,-1,-1,0
1523614805878,-786432,86,-56,-1,-1,0
1523614805878,-589824,86,-56,-1,-1,0
1523614805878,-589824,86,-56,-1,-1,0
1523614805918,-327680,86,-56,-1,-1,0
1523614805918,65536,86,-56,-1,-1,0
1523614805918,196608,86,-56,-1,-1,0
1523614805918,131072,86,-56,-1,-1,0
1523614805918,196608,86,-56,-1,-1,0
1523614805958,720896,86,-56,-1,-1,0
1523614805958,1179648,86,-56,-1,-1,0
1523614805958,1769472,86,-56,-1,-1,0
1523614805958,2162688,86,-56,-1,-1,0
1523614805958,2424832,86,-56,-1,-1,0
1523614805998,2359296,86,-56,-1,-1,0
1523614805998,2555904,86,-56,-1,-1,0
1523614805998,2424832,86,-56,-1,-1,0
1523614805998,1769472,86,-56,-1,-1,0
1523614805998,1114112,86,-56,-1,-1,0
1523614806038,720896,86,-56,-1,-1,0
1523614806038,327680,86,-56,-1,-1,0
1523614806038,65536,86,-56,-1,-1,0
1523614806038,0,86,-56,-1,-1,0
1523614806038,-262144,86,-56,-1,-1,0
1523614806078,-655360,86,-56,-1,-1,0
1523614806078,-720896,86,-56,-1,-1,0
1523614806078,-720896,86,-56,-1,-1,0
1523614806078,-589824,86,-56,-1,-1,0
1523614806078,-524288,86,-56,-1,-1,0
1523614806118,-458752,86,-56,-1,-1,0
1523614806118,-720896,86,-56,-1,-1,0
1523614806118,-851968,86,-56,-1,-1,0
1523614806118,-589824,86,-56,-1,-1,0
1523614806118,-393216,86,-56,-1,-1,0
1523614806158,-393216,86,-56,-1,-1,0
1523614806158,-262144,86,-56,-1,-1,0
1523614806158,0,86,-56,-1,-1,0
1523614806158,0,86,-56,-1,-1,0
1523614806158,-393216,86,-56,-1,-1,0
1523614806198,-720896,88,-56,-1,-1,0
1523614806198,-458752,88,-56,-1,-1,0
1523614806198,-196608,88,-56,-1,-1,0
1523614806198,-393216,88,-56,-1,-1,0
1523614806198,-589824,88,-56,-1,-1,0
1523614806238,-327680,88,-56,-1,-1,0
1523614806238,-131072,88,-56,-1,-1,0
1523614806238,-589824,88,-56,-1,-1,0
1523614806238,-655360,88,-56,-1,-1,0
1523614806238,-655360,88,-56,-1,-1,0
1523614806278,-655360,88,-56,-1,-1,0
1523614806278,-393216,88,-56,-1,-1,0
1523614806278,-327680,88,-56,-1,-1,0
1523614806278,-786432,88,-56,-1,-1,0
1523614806278,-655360,88,-56,-1,-1,0
1523614806327,0,88,-56,-1,-1,0
1523614806327,-131072,88,-56,-1,-1,0
1523614806327,-786432,88,-56,-1,-1,0
1523614806327,-917504,88,-56,-1,-1,0
1523614806327,-589824,88,-56,-1,-1,0
1523614806358,-983040,88,-56,-1,-1,0
1523614806358,655360,88,-56,-1,-1,0
1523614806358,6225920,88,-56,-1,-1,0
1523614806358,10551296,88,-56,-1,-1,0
1523614806358,7274496,88,-56,-1,-1,0
1523614806398,1638400,88,-56,-1,-1,0
1523614806398,-524288,88,-56,-1,-1,0
1523614806398,-65536,88,-56,-1,-1,0
1523614806398,0,88,-56,-1,-1,0
1523614806398,-589824,88,-56,-1,-1,0
1523614806438,-1179648,88,-56,-1,-1,0
1523614806438,-1048576,88,-56,-1,-1,0
1523614806438,-327680,88,-56,-1,-1,0
1523614806438,-131072,88,-56,-1,-1,0
1523614806438,-393216,88,-56,-1,-1,0
1523614806478,-655360,88,-56,-1,-1,0
1523614806478,-65536,88,-56,-1,-1,0
1523614806478,65536,88,-56,-1,-1,0
1523614806478,-589824,88,-56,-1,-1,0
1523614806478,-1048576,88,-56,-1,-1,0
1523614806519,196608,88,-56,-1,-1,0
1523614806519,917504,88,-56,-1,-1,0
1523614806519,458752,88,-56,-1,-1,0
1523614806519,655360,88,-56,-1,-1,0
1523614806519,983040,88,-56,-1,-1,0
1523614806558,1310720,88,-56,-1,-1,0
1523614806558,1441792,88,-56,-1,-1,0
1523614806558,2228224,88,-56,-1,-1,0
1523614806558,2621440,88,-56,-1,-1,0
1523614806558,3080192,88,-56,-1,-1,0
1523614806599,3276800,88,-56,-1,-1,0
1523614806599,2883584,88,-56,-1,-1,0
1523614806599,1835008,88,-56,-1,-1,0
1523614806599,1114112,88,-56,-1,-1,0
1523614806599,1179648,88,-56,-1,-1,0
1523614806638,1048576,88,-56,-1,-1,0
1523614806638,458752,88,-56,-1,-1,0
1523614806638,262144,88,-56,-1,-1,0
1523614806638,0,88,-56,-1,-1,0
1523614806638,-458752,88,-56,-1,-1,0
1523614806678,-786432,88,-56,-1,-1,0
1523614806678,-458752,88,-56,-1,-1,0
1523614806678,-131072,88,-56,-1,-1,0
1523614806678,-196608,88,-56,-1,-1,0
1523614806678,-196608,88,-56,-1,-1,0
1523614806718,0,88,-56,-1,-1,0
1523614806718,65536,88,-56,-1,-1,0
1523614806718,-393216,88,-56,-1,-1,0
1523614806718,-720896,88,-56,-1,-1,0
1523614806718,-458752,88,-56,-1,-1,0
1523614806758,-65536,88,-56,-1,-1,0
1523614806758,0,88,-56,-1,-1,0
1523614806758,0,88,-56,-1,-1,0
1523614806758,131072,88,-56,-1,-1,0
1523614806758,-65536,88,-56,-1,-1,0
1523614806798,-393216,88,-56,-1,-1,0
1523614806798,0,88,-56,-1,-1,0
1523614806798,65536,88,-56,-1,-1,0
1523614806798,-262144,88,-56,-1,-1,0
1523614806798,-655360,88,-56,-1,-1,0
1523614806838,-589824,88,-56,-1,-1,0
1523614806838,-458752,88,-56,-1,-1,0
1523614806838,-327680,88,-56,-1,-1,0
1523614806838,-131072,88,-56,-1,-1,0
1523614806838,65536,88,-56,-1,-1,0
1523614806878,0,88,-56,-1,-1,0
1523614806878,-131072,88,-56,-1,-1,0
1523614806878,-196608,88,-56,-1,-1,0
1523614806878,-65536,88,-56,-1,-1,0
1523614806878,-131072,88,-56,-1,-1,0
1523614806918,-262144,88,-56,-1,-1,0
1523614806918,-524288,88,-56,-1,-1,0
1523614806918,-786432,88,-56,-1,-1,0
1523614806918,131072,88,-56,-1,-1,0
1523614806918,4718592,88,-56,-1,-1,0
1523614806968,10158080,88,-56,-1,-1,0
1523614806968,9175040,88,-56,-1,-1,0
1523614806968,3342336,88,-56,-1,-1,0
1523614806968,-393216,88,-56,-1,-1,0
1523614806968,-262144,88,-56,-1,-1,0
1523614806999,0,88,-56,-1,-1,0
1523614806999,-131072,88,-56,-1,-1,0
1523614806999,-131072,88,-56,-1,-1,0
1523614806999,-327680,88,-56,-1,-1,0
1523614806999,-393216,88,-56,-1,-1,0
1523614807038,-393216,88,-56,-1,-1,0
1523614807038,-196608,88,-56,-1,-1,0
1523614807038,-65536,88,-56,-1,-1,0
1523614807038,65536,88,-56,-1,-1,0
1523614807038,65536,88,-56,-1,-1,0
1523614807078,65536,88,-56,-1,-1,0
1523614807078,196608,88,-56,-1,-1,0
1523614807078,262144,88,-56,-1,-1,0
1523614807078,65536,88,-56,-1,-1,0
1523614807078,-65536,88,-56,-1,-1,0
1523614807118,196608,88,-56,-1,-1,0
1523614807118,851968,88,-56,-1,-1,0
1523614807118,1310720,88,-56,-1,-1,0
1523614807118,1507328,88,-56,-1,-1,0
1523614807118,1769472,88,-56,-1,-1,0
1523614807158,2031616,88,-56,-1,-1,0
1523614807158,2162688,88,-56,-1,-1,0
1523614807158,2228224,88,-56,-1,-1,0
1523614807158,2293760,88,-56,-1,-1,0
1523614807158,2031616,88,-56,-1,-1,0
1523614807198,1376256,88,-56,-1,-1,0
1523614807198,655360,88,-56,-1,-1,0
1523614807198,131072,88,-56,-1,-1,0
1523614807198,-65536,88,-56,-1,-1,0
1523614807198,-131072,88,-56,-1,-1,0
1523614807238,-393216,88,-56,-1,-1,0
1523614807238,-786432,88,-56,-1,-1,0
1523614807238,-1048576,88,-56,-1,-1,0
1523614807238,-1048576,88,-56,-1,-1,0
1523614807238,-983040,88,-56,-1,-1,0
1523614807278,-1048576,88,-56,-1,-1,0
1523614807278,-983040,88,-56,-1,-1,0
1523614807278,-983040,88,-56,-1,-1,0
1523614807278,-1114112,88,-56,-1,-1,0
1523614807278,-1245184,88,-56,-1,-1,0
1523614807318,-1310720,88,-56,-1,-1,0
1523614807318,-1376256,88,-56,-1,-1,0
1523614807318,-1441792,88,-56,-1,-1,0
1523614807318,-1310720,88,-56,-1,-1,0
1523614807318,-1179648,88,-56,-1,-1,0
1523614807358,-1114112,88,-56,-1,-1,0
1523614807358,-1179648,88,-56,-1,-1,0
1523614807358,-1179648,88,-56,-1,-1,0
1523614807358,-1179648,88,-56,-1,-1,0
1523614807358,-1245184,88,-56,-1,-1,0
1523614807398,-1179648,90,-56,-1,-1,0
1523614807398,-1179648,90,-56,-1,-1,0
1523614807398,-1310720,90,-56,-1,-1,0
1523614807398,-1507328,90,-56,-1,-1,0
1523614807398,-1441792,90,-56,-1,-1,0
1523614807438,-1245184,90,-56,-1,-1,0
1523614807438,-1310720,90,-56,-1,-1,0
1523614807438,-1441792,90,-56,-1,-1,0
1523614807438,-1310720,90,-56,-1,-1,0
1523614807438,-1376256,90,-56,-1,-1,0
1523614807478,-1638400,90,-56,-1,-1,0
1523614807478,-1703936,90,-56,-1,-1,0
1523614807478,-1441792,90,-56,-1,-1,0
1523614807478,-1376256,90,-56,-1,-1,0
1523614807478,-1572864,90,-56,-1,-1,0
1523614807518,-1507328,90,-56,-1,-1,0
1523614807518,-1769472,90,-56,-1,-1,0
1523614807518,-1638400,90,-56,-1,-1,0
1523614807518,2031616,90,-56,-1,-1,0
1523614807518,8388608,90,-56,-1,-1,0
1523614807558,10158080,90,-56,-1,-1,0
1523614807558,5177344,90,-56,-1,-1,0
1523614807558,-65536,90,-56,-1,-1,0
1523614807558,-1310720,90,-56,-1,-1,0
1523614807558,-1441792,90,-56,-1,-1,0
1523614807607,-1376256,90,-56,-1,-1,0
1523614807607,-1245184,90,-56,-1,-1,0
1523614807607,-1048576,90,-56,-1,-1,0
1523614807607,-1114112,90,-56,-1,-1,0
1523614807607,-983040,90,-56,-1,-1,0
1523614807638,-1179648,90,-56,-1,-1,0
1523614807638,-1441792,90,-56,-1,-1,0
1523614807638,-1441792,90,-56,-1,-1,0
1523614807638,-983040,90,-56,-1,-1,0
1523614807638,-983040,90,-56,-1,-1,0
1523614807678,-983040,90,-56,-1,-1,0
1523614807678,-851968,90,-56,-1,-1,0
1523614807678,-393216,90,-56,-1,-1,0
1523614807678,-524288,90,-56,-1,-1,0
1523614807678,-786432,90,-56,-1,-1,0
1523614807718,-327680,90,-56,-1,-1,0
1523614807718,65536,90,-56,-1,-1,0
1523614807718,458752,90,-56,-1,-1,0
1523614807718,917504,90,-56,-1,-1,0
1523614807718,1245184,90,-56,-1,-1,0
1523614807758,1114112,90,-56,-1,-1,0
1523614807758,1048576,90,-56,-1,-1,0
1523614807758,1376256,90,-56,-1,-1,0
1523614807758,1572864,90,-56,-1,-1,0
1523614807758,1310720,90,-56,-1,-1,0
1523614807798,720896,90,-56,-1,-1,0
1523614807798,196608,90,-56,-1,-1,0
1523614807798,0,90,-56,-1,-1,0
1523614807798,-327680,90,-56,-1,-1,0
1523614807798,-720896,90,-56,-1,-1,0
1523614807839,-917504,90,-56,-1,-1,0
1523614807839,-1179648,90,-56,-1,-1,0
1523614807839,-1114112,90,-56,-1,-1,0
1523614807839,-983040,90,-56,-1,-1,0
1523614807839,-851968,90,-56,-1,-1,0
1523614807878,-1114112,90,-56,-1,-1,0
1523614807878,-1376256,90,-56,-1,-1,0
1523614807878,-1245184,90,-56,-1,-1,0
1523614807878,-917504,90,-56,-1,-1,0
1523614807878,-720896,90,-56,-1,-1,0
1523614807918,-655360,90,-56,-1,-1,0
1523614807918,-786432,90,-56,-1,-1,0
1523614807918,-655360,90,-56,-1,-1,0
1523614807918,-720896,90,-56,-1,-1,0
1523614807918,-1114112,90,-56,-1,-1,0
1523614807958,-1245184,92,-56,-1,-1,0
1523614807958,-786432,92,-56,-1,-1,0
1523614807958,-786432,92,-56,-1,-1,0
1523614807958,-1048576,92,-56,-1,-1,0
1523614807958,-851968,92,-56,-1,-1,0
1523614807998,-589824,92,-56,-1,-1,0
1523614807998,-720896,92,-56,-1,-1,0
1523614807998,-655360,92,-56,-1,-1,0
1523614807998,-720896,92,-56,-1,-1,0
1523614807998,-851968,92,-56,-1,-1,0
1523614808038,-983040,92,-56,-1,-1,0
1523614808038,-983040,92,-56,-1,-1,0
1523614808038,-1048576,92,-56,-1,-1,0
1523614808038,-1114112,92,-56,-1,-1,0
1523614808038,-917504,92,-56,-1,-1,0
1523614808078,-720896,92,-56,-1,-1,0
1523614808078,-786432,92,-56,-1,-1,0
1523614808078,-1048576,92,-56,-1,-1,0
1523614808078,-1114112,92,-56,-1,-1,0
1523614808078,-65536,92,-56,-1,-1,0
1523614808118,3604480,92,-56,-1,-1,0
1523614808118,8388608,92,-56,-1,-1,0
1523614808118,8323072,92,-56,-1,-1,0
1523614808118,3538944,92,-56,-1,-1,0
1523614808118,-786432,92,-56,-1,-1,0
1523614808158,-1179648,92,-56,-1,-1,0
1523614808158,-589824,92,-56,-1,-1,0
1523614808158,0,92,-56,-1,-1,0
1523614808158,0,92,-56,-1,-1,0
1523614808158,-131072,92,-56,-1,-1,0
1523614808198,-196608,92,-56,-1,-1,0
1523614808198,-262144,92,-56,-1,-1,0
1523614808198,-393216,92,-56,-1,-1,0
1523614808198,-458752,92,-56,-1,-1,0
1523614808198,0,92,-56,-1,-1,0
1523614808247,131072,92,-56,-1,-1,0
1523614808247,262144,92,-56,-1,-1,0
1523614808247,327680,92,-56,-1,-1,0
1523614808247,262144,92,-56,-1,-1,0
1523614808247,327680,92,-56,-1,-1,0
1523614808278,655360,92,-56,-1,-1,0
1523614808278,720896,92,-56,-1,-1,0
1523614808278,917504,92,-56,-1,-1,0
1523614808278,1769472,92,-56,-1,-1,0
1523614808278,2031616,92,-56,-1,-1,0
1523614808318,1703936,92,-56,-1,-1,0
1523614808318,2359296,92,-56,-1,-1,0
1523614808318,3145728,92,-56,-1,-1,0
1523614808318,2555904,92,-56,-1,-1,0
1523614808318,1900544,92,-56,-1,-1,0
1523614808359,2293760,92,-56,-1,-1,0
1523614808359,2490368,92,-56,-1,-1,0
1523614808359,1638400,92,-56,-1,-1,0
1523614808359,1048576,92,-56,-1,-1,0
1523614808359,327680,92,-56,-1,-1,0
1523614808398,-393216,92,-56,-1,-1,0
1523614808398,-851968,92,-56,-1,-1,0
1523614808398,-655360,92,-56,-1,-1,0
1523614808398,0,92,-56,-1,-1,0
1523614808398,65536,92,-56,-1,-1,0
1523614808438,-655360,92,-56,-1,-1,0
1523614808438,-786432,92,-56,-1,-1,0
1523614808438,-524288,92,-56,-1,-1,0
1523614808438,-851968,92,-56,-1,-1,0
1523614808438,-720896,92,-56,-1,-1,0
1523614808478,-589824,92,-56,-1,-1,0
1523614808478,-655360,92,-56,-1,-1,0
1523614808478,-917504,92,-56,-1,-1,0
1523614808478,-589824,92,-56,-1,-1,0
1523614808478,-524288,92,-56,-1,-1,0
1523614808518,-1048576,92,-56,-1,-1,0
1523614808518,-1179648,92,-56,-1,-1,0
1523614808518,-327680,92,-56,-1,-1,0
1523614808518,-131072,92,-56,-1,-1,0
1523614808518,-786432,92,-56,-1,-1,0
1523614808559,-1245184,94,-56,-1,-1,0
1523614808559,-851968,94,-56,-1,-1,0
1523614808559,-720896,94,-56,-1,-1,0
1523614808559,-720896,94,-56,-1,-1,0
1523614808559,-720896,94,-56,-1,-1,0
1523614808598,-655360,94,-56,-1,-1,0
1523614808598,-458752,94,-56,-1,-1,0
1523614808598,-262144,94,-56,-1,-1,0
1523614808598,-589824,94,-56,-1,-1,0
1523614808598,-720896,94,-56,-1,-1,0
1523614808639,-786432,94,-56,-1,-1,0
1523614808639,-786432,94,-56,-1,-1,0
1523614808639,-720896,94,-56,-1,-1,0
1523614808639,-327680,94,-56,-1,-1,0
1523614808639,-655360,94,-56,-1,-1,0
1523614808678,-1441792,94,-56,-1,-1,0
1523614808678,-983040,94,-56,-1,-1,0
1523614808678,2752512,94,-56,-1,-1,0
1523614808678,7995392,94,-56,-1,-1,0
1523614808678,8257536,94,-56,-1,-1,0
1523614808718,3211264,94,-56,-1,-1,0
1523614808718,-655360,94,-56,-1,-1,0
1523614808718,-655360,94,-56,-1,-1,0
1523614808718,-524288,94,-56,-1,-1,0
1523614808718,-458752,94,-56,-1,-1,0
1523614808758,-393216,94,-56,-1,-1,0
1523614808758,-458752,94,-56,-1,-1,0
1523614808758,-458752,94,-56,-1,-1,0
1523614808758,-262144,94,-56,-1,-1,0
1523614808758,-131072,94,-56,-1,-1,0
1523614808798,-65536,94,-56,-1,-1,0
1523614808798,-196608,94,-56,-1,-1,0
1523614808798,-65536,94,-56,-1,-1,0
1523614808798,0,94,-56,-1,-1,0
1523614808798,196608,94,-56,-1,-1,0
1523614808838,196608,94,-56,-1,-1,0
1523614808838,393216,94,-56,-1,-1,0
1523614808838,458752,94,-56,-1,-1,0
1523614808838,720896,94,-56,-1,-1,0
1523614808838,1114112,94,-56,-1,-1,0
1523614808887,1572864,94,-56,-1,-1,0
1523614808887,1835008,94,-56,-1,-1,0
1523614808887,2228224,94,-56,-1,-1,0
1523614808887,2621440,94,-56,-1,-1,0
1523614808887,2818048,94,-56,-1,-1,0
1523614808918,2818048,94,-56,-1,-1,0
1523614808918,2686976,94,-56,-1,-1,0
1523614808918,2228224,94,-56,-1,-1,0
1523614808918,1769472,94,-56,-1,-1,0
1523614808918,1441792,94,-56,-1,-1,0
1523614808958,1114112,94,-56,-1,-1,0
1523614808958,524288,94,-56,-1,-1,0
1523614808958,0,94,-56,-1,-1,0
1523614808958,-131072,94,-56,-1,-1,0
1523614808958,-196608,94,-56,-1,-1,0
1523614808998,-327680,94,-56,-1,-1,0
1523614808998,-524288,94,-56,-1,-1,0
1523614808998,-655360,94,-56,-1,-1,0
1523614808998,-589824,94,-56,-1,-1,0
1523614808998,-393216,94,-56,-1,-1,0
1523614809038,-393216,94,-56,-1,-1,0
1523614809038,-458752,94,-56,-1,-1,0
1523614809038,-524288,94,-56,-1,-1,0
1523614809038,-393216,94,-56,-1,-1,0
1523614809038,-393216,94,-56,-1,-1,0
1523614809078,-524288,94,-56,-1,-1,0
1523614809078,-655360,94,-56,-1,-1,0
1523614809078,-327680,94,-56,-1,-1,0
1523614809078,0,94,-56,-1,-1,0
1523614809078,-196608,94,-56,-1,-1,0
1523614809118,-327680,94,-56,-1,-1,0
1523614809118,-393216,94,-56,-1,-1,0
1523614809118,-524288,94,-56,-1,-1,0
1523614809118,-655360,94,-56,-1,-1,0
1523614809118,-655360,94,-56,-1,-1,0
1523614809158,-655360,96,-56,-1,-1,0
1523614809158,-851968,96,-56,-1,-1,0
1523614809158,-1048576,96,-56,-1,-1,0
1523614809158,-1048576,96,-56,-1,-1,0
1523614809158,-917504,96,-56,-1,-1,0
1523614809199,-917504,96,-56,-1,-1,0
1523614809199,-786432,96,-56,-1,-1,0
1523614809199,-786432,96,-56,-1,-1,0
1523614809199,-917504,96,-56,-1,-1,0
1523614809199,-1114112,96,-56,-1,-1,0
1523614809238,-1179648,96,-56,-1,-1,0
1523614809238,-1310720,96,-56,-1,-1,0
1523614809238,-1507328,96,-56,-1,-1,0
1523614809238,-1441792,96,-56,-1,-1,0
1523614809238,-1507328,96,-56,-1,-1,0
1523614809278,-2031616,96,-56,-1,-1,0
1523614809278,-1835008,96,-56,-1,-1,0
1523614809278,1441792,96,-56,-1,-1,0
1523614809278,7208960,96,-56,-1,-1,0
1523614809278,9306112,96,-56,-1,-1,0
1523614809318,4718592,96,-56,-1,-1,0
1523614809318,-327680,96,-56,-1,-1,0
1523614809318,-1310720,96,-56,-1,-1,0
1523614809318,-1048576,96,-56,-1,-1,0
1523614809318,-917504,96,-56,-1,-1,0
1523614809358,-786432,96,-56,-1,-1,0
1523614809358,-851968,96,-56,-1,-1,0
1523614809358,-1310720,96,-56,-1,-1,0
1523614809358,-1310720,96,-56,-1,-1,0
1523614809358,-1114112,96,-56,-1,-1,0
1523614809398,-1245184,96,-56,-1,-1,0
1523614809398,-1376256,96,-56,-1,-1,0
1523614809398,-851968,96,-56,-1,-1,0
1523614809398,-524288,96,-56,-1,-1,0
1523614809398,-589824,96,-56,-1,-1,0
1523614809438,-458752,96,-56,-1,-1,0
1523614809438,-327680,96,-56,-1,-1,0
1523614809438,-589824,96,-56,-1,-1,0
1523614809438,-589824,96,-56,-1,-1,0
1523614809438,-65536,96,-56,-1,-1,0
1523614809478,786432,96,-56,-1,-1,0
1523614809478,1179648,96,-56,-1,-1,0
1523614809478,1245184,96,-56,-1,-1,0
1523614809478,1441792,96,-56,-1,-1,0
1523614809478,1638400,96,-56,-1,-1,0
1523614809527,1769472,96,-56,-1,-1,0
1523614809527,2031616,96,-56,-1,-1,0
1523614809527,2097152,96,-56,-1,-1,0
1523614809527,1376256,96,-56,-1,-1,0
1523614809527,917504,96,-56,-1,-1,0
1523614809558,393216,96,-56,-1,-1,0
1523614809558,196608,96,-56,-1,-1,0
1523614809558,-327680,96,-56,-1,-1,0
1523614809558,-1114112,96,-56,-1,-1,0
1523614809558,-1572864,96,-56,-1,-1,0
1523614809598,-1310720,96,-56,-1,-1,0
1523614809598,-1048576,96,-56,-1,-1,0
1523614809598,-524288,96,-56,-1,-1,0
1523614809598,-786432,96,-56,-1,-1,0
1523614809598,-1376256,96,-56,-1,-1,0
1523614809638,-1441792,96,-56,-1,-1,0
1523614809638,-1048576,96,-56,-1,-1,0
1523614809638,-917504,96,-56,-1,-1,0
1523614809638,-851968,96,-56,-1,-1,0
1523614809638,-917504,96,-56,-1,-1,0
1523614809678,-1179648,96,-56,-1,-1,0
1523614809678,-1441792,96,-56,-1,-1,0
1523614809678,-1245184,96,-56,-1,-1,0
1523614809678,-1376256,96,-56,-1,-1,0
1523614809678,-1441792,96,-56,-1,-1,0
1523614809718,-1048576,96,-56,-1,-1,0
1523614809718,-851968,96,-56,-1,-1,0
1523614809718,-917504,96,-56,-1,-1,0
1523614809718,-1245184,96,-56,-1,-1,0
1523614809718,-1441792,96,-56,-1,-1,0
1523614809758,-1376256,97,-56,-1,-1,0
1523614809758,-1245184,97,-56,-1,-1,0
1523614809758,-1441792,97,-56,-1,-1,0
1523614809758,-1638400,97,-56,-1,-1,0
1523614809758,-1507328,97,-56,-1,-1,0
1523614809799,-1179648,97,-56,-1,-1,0
1523614809799,-851968,97,-56,-1,-1,0
1523614809799,-1048576,97,-56,-1,-1,0
1523614809799,-1245184,97,-56,-1,-1,0
1523614809799,-917504,97,-56,-1,-1,0
1523614809838,-917504,97,-56,-1,-1,0
1523614809838,-1376256,97,-56,-1,-1,0
1523614809838,-1703936,97,-56,-1,-1,0
1523614809838,-1638400,97,-56,-1,-1,0
1523614809838,-1507328,97,-56,-1,-1,0
1523614809878,-458752,97,-56,-1,-1,0
1523614809878,3604480,97,-56,-1,-1,0
1523614809878,8454144,97,-56,-1,-1,0
1523614809878,8060928,97,-56,-1,-1,0
1523614809878,3211264,97,-56,-1,-1,0
1523614809918,-524288,97,-56,-1,-1,0
1523614809918,-983040,97,-56,-1,-1,0
1523614809918,-1114112,97,-56,-1,-1,0
1523614809918,-1179648,97,-56,-1,-1,0
1523614809918,-786432,97,-56,-1,-1,0
1523614809959,-458752,97,-56,-1,-1,0
1523614809959,-786432,97,-56,-1,-1,0
1523614809959,-1441792,97,-56,-1,-1,0
1523614809959,-1114112,97,-56,-1,-1,0
1523614809959,-131072,97,-56,-1,-1,0
1523614809998,196608,97,-56,-1,-1,0
1523614809998,-327680,97,-56,-1,-1,0
1523614809998,-983040,97,-56,-1,-1,0
1523614809998,-786432,97,-56,-1,-1,0
1523614809998,-131072,97,-56,-1,-1,0
1523614810038,65536,97,-56,-1,-1,0
1523614810038,-65536,97,-56,-1,-1,0
1523614810038,262144,97,-56,-1,-1,0
1523614810038,983040,97,-56,-1,-1,0
1523614810038,1310720,97,-56,-1,-1,0
1523614810078,1376256,97,-56,-1,-1,0
1523614810078,1835008,97,-56,-1,-1,0
1523614810078,2031616,97,-56,-1,-1,0
1523614810078,1835008,97,-56,-1,-1,0
1523614810078,1769472,97,-56,-1,-1,0
1523614810118,2228224,97,-56,-1,-1,0
1523614810118,2228224,97,-56,-1,-1,0
1523614810118,1638400,97,-56,-1,-1,0
1523614810118,1179648,97,-56,-1,-1,0
1523614810118,983040,97,-56,-1,-1,0
1523614810167,393216,97,-56,-1,-1,0
1523614810167,-196608,97,-56,-1,-1,0
1523614810167,-458752,97,-56,-1,-1,0
1523614810167,-917504,97,-56,-1,-1,0
1523614810167,-1114112,97,-56,-1,-1,0
1523614810198,-655360,97,-56,-1,-1,0
1523614810198,-393216,97,-56,-1,-1,0
1523614810198,-196608,97,-56,-1,-1,0
1523614810198,-524288,97,-56,-1,-1,0
1523614810198,-1245184,97,-56,-1,-1,0
1523614810238,-1638400,97,-56,-1,-1,0
1523614810238,-393216,97,-56,-1,-1,0
1523614810238,196608,97,-56,-1,-1,0
1523614810238,-524288,97,-56,-1,-1,0
1523614810238,-1245184,97,-56,-1,-1,0
1523614810278,-524288,97,-56,-1,-1,0
1523614810278,-262144,97,-56,-1,-1,0
1523614810278,-917504,97,-56,-1,-1,0
1523614810278,-1114112,97,-56,-1,-1,0
1523614810278,-786432,97,-56,-1,-1,0
1523614810318,-524288,97,-56,-1,-1,0
1523614810318,-720896,97,-56,-1,-1,0
1523614810318,-917504,97,-56,-1,-1,0
1523614810318,-524288,97,-56,-1,-1,0
1523614810318,-196608,97,-56,-1,-1,0
1523614810358,-720896,99,-56,-1,-1,0
1523614810358,-1310720,99,-56,-1,-1,0
1523614810358,-1441792,99,-56,-1,-1,0
1523614810358,-786432,99,-56,-1,-1,0
1523614810358,-196608,99,-56,-1,-1,0
1523614810398,-458752,99,-56,-1,-1,0
1523614810398,-1048576,99,-56,-1,-1,0
1523614810398,-1114112,99,-56,-1,-1,0
1523614810398,-458752,99,-56,-1,-1,0
1523614810398,-131072,99,-56,-1,-1,0
1523614810438,-720896,99,-56,-1,-1,0
1523614810438,-1507328,99,-56,-1,-1,0
1523614810438,-1441792,99,-56,-1,-1,0
1523614810438,-917504,99,-56,-1,-1,0
1523614810438,-458752,99,-56,-1,-1,0
1523614810478,2555904,99,-56,-1,-1,0
1523614810478,7798784,99,-56,-1,-1,0
1523614810478,8716288,99,-56,-1,-1,0
1523614810478,3932160,99,-56,-1,-1,0
1523614810478,-786432,99,-56,-1,-1,0
1523614810518,-1441792,99,-56,-1,-1,0
1523614810518,-917504,99,-56,-1,-1,0
1523614810518,-458752,99,-56,-1,-1,0
1523614810518,-393216,99,-56,-1,-1,0
1523614810518,-196608,99,-56,-1,-1,0
1523614810558,-262144,99,-56,-1,-1,0
1523614810558,-589824,99,-56,-1,-1,0
1523614810558,-720896,99,-56,-1,-1,0
1523614810558,-393216,99,-56,-1,-1,0
1523614810558,-196608,99,-56,-1,-1,0
1523614810598,-131072,99,-56,-1,-1,0
1523614810598,0,99,-56,-1,-1,0
1523614810598,196608,99,-56,-1,-1,0
1523614810598,327680,99,-56,-1,-1,0
1523614810598,458752,99,-56,-1,-1,0
1523614810638,655360,99,-56,-1,-1,0
1523614810638,851968,99,-56,-1,-1,0
1523614810638,1179648,99,-56,-1,-1,0
1523614810638,1703936,99,-56,-1,-1,0
1523614810638,2097152,99,-56,-1,-1,0
1523614810679,2490368,99,-56,-1,-1,0
1523614810679,2752512,99,-56,-1,-1,0
1523614810679,3014656,99,-56,-1,-1,0
1523614810679,3080192,99,-56,-1,-1,0
1523614810679,3014656,99,-56,-1,-1,0
1523614810718,2686976,99,-56,-1,-1,0
1523614810718,2162688,99,-56,-1,-1,0
1523614810718,1572864,99,-56,-1,-1,0
1523614810718,1114112,99,-56,-1,-1,0
1523614810718,524288,99,-56,-1,-1,0
1523614810758,196608,99,-56,-1,-1,0
1523614810758,0,99,-56,-1,-1,0
1523614810758,-65536,99,-56,-1,-1,0
1523614810758,-262144,99,-56,-1,-1,0
1523614810758,-327680,99,-56,-1,-1,0
1523614810807,-327680,99,-56,-1,-1,0
1523614810807,-458752,99,-56,-1,-1,0
1523614810807,-655360,99,-56,-1,-1,0
1523614810807,-786432,99,-56,-1,-1,0
1523614810807,-786432,99,-56,-1,-1,0
1523614810838,-655360,99,-56,-1,-1,0
1523614810838,-458752,99,-56,-1,-1,0
1523614810838,-196608,99,-56,-1,-1,0
1523614810838,-65536,99,-56,-1,-1,0
1523614810838,-393216,99,-56,-1,-1,0
1523614810878,-589824,99,-56,-1,-1,0
1523614810878,-262144,99,-56,-1,-1,0
1523614810878,-131072,99,-56,-1,-1,0
1523614810878,-458752,99,-56,-1,-1,0
1523614810878,-524288,99,-56,-1,-1,0
1523614810918,-327680,99,-56,-1,-1,0
1523614810918,-327680,99,-56,-1,-1,0
1523614810918,-589824,99,-56,-1,-1,0
1523614810918,-655360,99,-56,-1,-1,0
1523614810918,-589824,99,-56,-1,-1,0
1523614810958,-655360,100,-56,-1,-1,0
1523614810958,-917504,100,-56,-1,-1,0
1523614810958,-917504,100,-56,-1,-1,0
1523614810958,-851968,100,-56,-1,-1,0
1523614810958,-851968,100,-56,-1,-1,0
1523614810998,-786432,100,-56,-1,-1,0
1523614810998,-655360,100,-56,-1,-1,0
1523614810998,-655360,100,-56,-1,-1,0
1523614810998,-786432,100,-56,-1,-1,0
1523614810998,-917504,100,-56,-1,-1,0
1523614811038,-983040,100,-56,-1,-1,0
1523614811038,-1048576,100,-56,-1,-1,0
1523614811038,-1310720,100,-56,-1,-1,0
1523614811038,-1638400,100,-56,-1,-1,0
1523614811038,-1114112,100,-56,-1,-1,0
1523614811078,2424832,100,-56,-1,-1,0
1523614811078,7995392,100,-56,-1,-1,0
1523614811078,9240576,100,-56,-1,-1,0
1523614811078,4390912,100,-56,-1,-1,0
1523614811078,-196608,100,-56,-1,-1,0
1523614811118,-851968,100,-56,-1,-1,0
1523614811118,-786432,100,-56,-1,-1,0
1523614811118,-917504,100,-56,-1,-1,0
1523614811118,-786432,100,-56,-1,-1,0
1523614811118,-786432,100,-56,-1,-1,0
1523614811158,-1114112,100,-56,-1,-1,0
1523614811158,-1179648,100,-56,-1,-1,0
1523614811158,-1114112,100,-56,-1,-1,0
1523614811158,-1048576,100,-56,-1,-1,0
1523614811158,-917504,100,-56,-1,-1,0
1523614811198,-720896,100,-56,-1,-1,0
1523614811198,-786432,100,-56,-1,-1,0
1523614811198,-983040,100,-56,-1,-1,0
1523614811198,-1048576,100,-56,-1,-1,0
1523614811198,-851968,100,-56,-1,-1,0
1523614811238,-589824,100,-56,-1,-1,0
1523614811238,-458752,100,-56,-1,-1,0
1523614811238,-196608,100,-56,-1,-1,0
1523614811238,131072,100,-56,-1,-1,0
1523614811238,720896,100,-56,-1,-1,0
1523614811278,1179648,100,-56,-1,-1,0
1523614811278,1310720,100,-56,-1,-1,0
1523614811278,1179648,100,-56,-1,-1,0
1523614811278,983040,100,-56,-1,-1,0
1523614811278,983040,100,-56,-1,-1,0
1523614811318,983040,100,-56,-1,-1,0
1523614811318,917504,100,-56,-1,-1,0
1523614811318,655360,100,-56,-1,-1,0
1523614811318,458752,100,-56,-1,-1,0
1523614811318,196608,100,-56,-1,-1,0
1523614811358,-262144,100,-56,-1,-1,0
1523614811358,-1048576,100,-56,-1,-1,0
1523614811358,-1441792,100,-56,-1,-1,0
1523614811358,-1114112,100,-56,-1,-1,0
1523614811358,-655360,100,-56,-1,-1,0
1523614811398,-851968,100,-56,-1,-1,0
1523614811398,-1114112,100,-56,-1,-1,0
1523614811398,-983040,100,-56,-1,-1,0
1523614811398,-983040,100,-56,-1,-1,0
1523614811398,-1114112,100,-56,-1,-1,0
1523614811447,-1048576,100,-56,-1,-1,0
1523614811447,-983040,100,-56,-1,-1,0
1523614811447,-1310720,100,-56,-1,-1,0
1523614811447,-1310720,100,-56,-1,-1,0
1523614811447,-1048576,100,-56,-1,-1,0
1523614811478,-655360,100,-56,-1,-1,0
1523614811478,-589824,100,-56,-1,-1,0
1523614811478,-458752,100,-56,-1,-1,0
1523614811478,-655360,100,-56,-1,-1,0
1523614811478,-786432,100,-56,-1,-1,0
1523614811518,-851968,100,-56,-1,-1,0
1523614811518,-589824,100,-56,-1,-1,0
1523614811518,-589824,100,-56,-1,-1,0
1523614811518,-983040,100,-56,-1,-1,0
1523614811518,-1179648,100,-56,-1,-1,0
1523614811558,-1376256,100,-56,-1,-1,0
1523614811558,-1441792,100,-56,-1,-1,0
1523614811558,-1310720,100,-56,-1,-1,0
1523614811558,-1572864,100,-56,-1,-1,0
1523614811558,-1572864,100,-56,-1,-1,0
1523614811598,-589824,100,-56,-1,-1,0
1523614811598,-65536,100,-56,-1,-1,0
1523614811598,-851968,100,-56,-1,-1,0
1523614811598,-1179648,100,-56,-1,-1,0
1523614811598,-1441792,100,-56,-1,-1,0
1523614811638,-1376256,100,-56,-1,-1,0
1523614811638,-1376256,100,-56,-1,-1,0
1523614811638,-1114112,100,-56,-1,-1,0
1523614811638,-1572864,100,-56,-1,-1,0
1523614811638,-2555904,100,-56,-1,-1,0
1523614811678,-2359296,100,-56,-1,-1,0
1523614811678,524288,100,-56,-1,-1,0
1523614811678,6225920,100,-56,-1,-1,0
1523614811678,10682368,100,-56,-1,-1,0
1523614811678,7340032,100,-56,-1,-1,0
1523614811718,917504,100,-56,-1,-1,0
1523614811718,-1900544,100,-56,-1,-1,0
1523614811718,-1900544,100,-56,-1,-1,0
1523614811718,-1769472,100,-56,-1,-1,0
1523614811718,-1245184,100,-56,-1,-1,0
1523614811758,-393216,100,-56,-1,-1,0
1523614811758,-524288,100,-56,-1,-1,0
1523614811758,-1245184,100,-56,-1,-1,0
1523614811758,-1835008,100,-56,-1,-1,0
1523614811758,-1507328,100,-56,-1,-1,0
1523614811798,-1114112,100,-56,-1,-1,0
1523614811798,-983040,100,-56,-1,-1,0
1523614811798,-983040,100,-56,-1,-1,0
1523614811798,-589824,100,-56,-1,-1,0
1523614811798,-327680,100,-56,-1,-1,0
1523614811838,-393216,100,-56,-1,-1,0
1523614811838,-458752,100,-56,-1,-1,0
1523614811838,-131072,100,-56,-1,-1,0
1523614811838,196608,100,-56,-1,-1,0
1523614811838,458752,100,-56,-1,-1,0
1523614811878,786432,100,-56,-1,-1,0
1523614811878,983040,100,-56,-1,-1,0
1523614811878,1310720,100,-56,-1,-1,0
1523614811878,1769472,100,-56,-1,-1,0
1523614811878,2162688,100,-56,-1,-1,0
1523614811918,2293760,100,-56,-1,-1,0
1523614811918,2162688,100,-56,-1,-1,0
1523614811918,1769472,100,-56,-1,-1,0
1523614811918,1245184,100,-56,-1,-1,0
1523614811918,589824,100,-56,-1,-1,0
1523614811958,131072,100,-56,-1,-1,0
1523614811958,-196608,100,-56,-1,-1,0
1523614811958,-524288,100,-56,-1,-1,0
1523614811958,-720896,100,-56,-1,-1,0
1523614811958,-589824,100,-56,-1,-1,0
1523614811998,-327680,100,-56,-1,-1,0
1523614811998,-393216,100,-56,-1,-1,0
1523614811998,-589824,100,-56,-1,-1,0
1523614811998,-589824,100,-56,-1,-1,0
1523614811998,-524288,100,-56,-1,-1,0
1523614812038,-786432,100,-56,-1,-1,0
1523614812038,-1310720,100,-56,-1,-1,0
1523614812038,-1245184,100,-56,-1,-1,0
1523614812038,-589824,100,-56,-1,-1,0
1523614812038,-131072,100,-56,-1,-1,0
1523614812087,-524288,100,-56,-1,-1,0
1523614812087,-1048576,100,-56,-1,-1,0
1523614812087,-983040,100,-56,-1,-1,0
1523614812087,-524288,100,-56,-1,-1,0
1523614812087,-720896,100,-56,-1,-1,0
1523614812118,-851968,100,-56,-1,-1,0
1523614812118,-196608,100,-56,-1,-1,0
1523614812118,131072,100,-56,-1,-1,0
1523614812118,-393216,100,-56,-1,-1,0
1523614812118,-1245184,100,-56,-1,-1,0
1523614812158,-1179648,100,-56,-1,-1,0
1523614812158,-786432,100,-56,-1,-1,0
1523614812158,-851968,100,-56,-1,-1,0
1523614812158,-1179648,100,-56,-1,-1,0
1523614812158,-983040,100,-56,-1,-1,0
1523614812199,-720896,100,-56,-1,-1,0
1523614812199,-720896,100,-56,-1,-1,0
1523614812199,-655360,100,-56,-1,-1,0
1523614812199,-589824,100,-56,-1,-1,0
1523614812199,-655360,100,-56,-1,-1,0
1523614812238,-1048576,100,-56,-1,-1,0
1523614812238,-1048576,100,-56,-1,-1,0
1523614812238,-1048576,100,-56,-1,-1,0
1523614812238,-1310720,100,-56,-1,-1,0
1523614812238,-1572864,100,-56,-1,-1,0
1523614812278,-720896,100,-56,-1,-1,0
1523614812278,3145728,100,-56,-1,-1,0
1523614812278,8126464,100,-56,-1,-1,0
1523614812278,8716288,100,-56,-1,-1,0
1523614812278,3670016,100,-56,-1,-1,0
1523614812319,-917504,100,-56,-1,-1,0
1523614812319,-1572864,100,-56,-1,-1,0
1523614812319,-851968,100,-56,-1,-1,0
1523614812319,-393216,100,-56,-1,-1,0
1523614812319,-589824,100,-56,-1,-1,0
1523614812358,-983040,100,-56,-1,-1,0
1523614812358,-1179648,100,-56,-1,-1,0
1523614812358,-786432,100,-56,-1,-1,0
1523614812358,-983040,100,-56,-1,-1,0
1523614812358,-1507328,100,-56,-1,-1,0
1523614812398,-1245184,100,-56,-1,-1,0
1523614812398,-327680,100,-56,-1,-1,0
1523614812398,-262144,100,-56,-1,-1,0
1523614812398,-196608,100,-56,-1,-1,0
1523614812398,262144,100,-56,-1,-1,0
1523614812438,65536,100,-56,-1,-1,0
1523614812438,-393216,100,-56,-1,-1,0
1523614812438,-327680,100,-56,-1,-1,0
1523614812438,196608,100,-56,-1,-1,0
1523614812438,1048576,100,-56,-1,-1,0
1523614812478,1310720,100,-56,-1,-1,0
1523614812478,1703936,100,-56,-1,-1,0
1523614812478,2031616,100,-56,-1,-1,0
1523614812478,2490368,100,-56,-1,-1,0
1523614812478,2293760,100,-56,-1,-1,0
1523614812518,1900544,100,-56,-1,-1,0
1523614812518,1835008,100,-56,-1,-1,0
1523614812518,1572864,100,-56,-1,-1,0
1523614812518,983040,100,-56,-1,-1,0
1523614812518,196608,100,-56,-1,-1,0
1523614812558,-196608,100,-56,-1,-1,0
1523614812558,-458752,100,-56,-1,-1,0
1523614812558,-524288,100,-56,-1,-1,0
1523614812558,-720896,100,-56,-1,-1,0
1523614812558,-983040,100,-56,-1,-1,0
1523614812598,-1179648,100,-56,-1,-1,0
1523614812598,-1048576,100,-56,-1,-1,0
1523614812598,-983040,100,-56,-1,-1,0
1523614812598,-917504,100,-56,-1,-1,0
1523614812598,-983040,100,-56,-1,-1,0
1523614812638,-1114112,100,-56,-1,-1,0
1523614812638,-1114112,100,-56,-1,-1,0
1523614812638,-1048576,100,-56,-1,-1,0
1523614812638,-983040,100,-56,-1,-1,0
1523614812638,-917504,100,-56,-1,-1,0
1523614812679,-589824,100,-56,-1,-1,0
1523614812679,-458752,100,-56,-1,-1,0
1523614812679,-458752,100,-56,-1,-1,0
1523614812679,-458752,100,-56,-1,-1,0
1523614812679,-327680,100,-56,-1,-1,0
1523614812729,-262144,100,-56,-1,-1,0
1523614812729,-262144,100,-56,-1,-1,0
1523614812729,-327680,100,-56,-1,-1,0
1523614812729,-524288,100,-56,-1,-1,0
1523614812729,-720896,100,-56,-1,-1,0
1523614812758,-720896,100,-56,-1,-1,0
1523614812758,-458752,100,-56,-1,-1,0
1523614812758,-262144,100,-56,-1,-1,0
1523614812758,-327680,100,-56,-1,-1,0
1523614812758,-393216,100,-56,-1,-1,0
1523614812798,-458752,100,-56,-1,-1,0
1523614812798,-458752,100,-56,-1,-1,0
1523614812798,-393216,100,-56,-1,-1,0
1523614812798,-458752,100,-56,-1,-1,0
1523614812798,-589824,100,-56,-1,-1,0
1523614812838,-589824,100,-56,-1,-1,0
1523614812838,-393216,100,-56,-1,-1,0
1523614812838,-589824,100,-56,-1,-1,0
1523614812838,-1048576,100,-56,-1,-1,0
1523614812838,-327680,100,-56,-1,-1,0
1523614812878,3735552,100,-56,-1,-1,0
1523614812878,9043968,100,-56,-1,-1,0
1523614812878,8650752,100,-56,-1,-1,0
1523614812878,3342336,100,-56,-1,-1,0
1523614812878,-458752,100,-56,-1,-1,0
1523614812918,-524288,100,-56,-1,-1,0
1523614812918,-458752,100,-56,-1,-1,0
1523614812918,-720896,100,-56,-1,-1,0
1523614812918,-786432,100,-56,-1,-1,0
1523614812918,-655360,100,-56,-1,-1,0
1523614812958,-589824,100,-56,-1,-1,0
1523614812958,-786432,100,-56,-1,-1,0
1523614812958,-917504,100,-56,-1,-1,0
1523614812958,-655360,100,-56,-1,-1,0
1523614812958,-589824,100,-56,-1,-1,0
1523614812998,-589824,100,-56,-1,-1,0
1523614812998,-458752,100,-56,-1,-1,0
1523614812998,-131072,100,-56,-1,-1,0
1523614812998,-196608,100,-56,-1,-1,0
1523614812998,-458752,100,-56,-1,-1,0
1523614813038,-262144,100,-56,-1,-1,0
1523614813038,262144,100,-56,-1,-1,0
1523614813038,458752,100,-56,-1,-1,0
1523614813038,655360,100,-56,-1,-1,0
1523614813038,1179648,100,-56,-1,-1,0
1523614813078,1703936,100,-56,-1,-1,0
1523614813078,1835008,100,-56,-1,-1,0
1523614813078,1835008,100,-56,-1,-1,0
1523614813078,1835008,100,-56,-1,-1,0
1523614813078,1900544,100,-56,-1,-1,0
1523614813118,1835008,100,-56,-1,-1,0
1523614813118,1507328,100,-56,-1,-1,0
1523614813118,786432,100,-56,-1,-1,0
1523614813118,65536,100,-56,-1,-1,0
1523614813118,-262144,100,-56,-1,-1,0
1523614813159,-458752,100,-56,-1,-1,0
1523614813159,-917504,100,-56,-1,-1,0
1523614813159,-1114112,100,-56,-1,-1,0
1523614813159,-1048576,100,-56,-1,-1,0
1523614813159,-983040,100,-56,-1,-1,0
1523614813198,-1310720,100,-56,-1,-1,0
1523614813198,-1638400,100,-56,-1,-1,0
1523614813198,-1638400,100,-56,-1,-1,0
1523614813198,-1441792,100,-56,-1,-1,0
1523614813198,-1310720,100,-56,-1,-1,0
1523614813238,-1310720,100,-56,-1,-1,0
1523614813238,-1245184,100,-56,-1,-1,0
1523614813238,-983040,100,-56,-1,-1,0
1523614813238,-917504,100,-56,-1,-1,0
1523614813238,-1048576,100,-56,-1,-1,0
1523614813278,-1179648,100,-56,-1,-1,0
1523614813278,-1441792,100,-56,-1,-1,0
1523614813278,-1507328,100,-56,-1,-1,0
1523614813278,-1245184,100,-56,-1,-1,0
1523614813278,-786432,100,-56,-1,-1,0
1523614813318,-524288,100,-56,-1,-1,0
1523614813318,-524288,100,-56,-1,-1,0
1523614813318,-786432,100,-56,-1,-1,0
1523614813318,-1048576,100,-56,-1,-1,0
1523614813318,-1507328,100,-56,-1,-1,0
1523614813366,-1638400,100,-56,-1,-1,0
1523614813366,-1507328,100,-56,-1,-1,0
1523614813366,-1376256,100,-56,-1,-1,0
1523614813366,-1310720,100,-56,-1,-1,0
1523614813366,-786432,100,-56,-1,-1,0
1523614813398,-720896,100,-56,-1,-1,0
1523614813398,-1310720,100,-56,-1,-1,0
1523614813398,-1376256,100,-56,-1,-1,0
1523614813398,-1179648,100,-56,-1,-1,0
1523614813398,-1572864,100,-56,-1,-1,0
1523614813438,-1572864,100,-56,-1,-1,0
1523614813438,-983040,100,-56,-1,-1,0
1523614813438,-851968,100,-56,-1,-1,0
1523614813438,-1572864,100,-56,-1,-1,0
1523614813438,-1703936,100,-56,-1,-1,0
1523614813478,-131072,100,-56,-1,-1,0
1523614813478,4915200,100,-56,-1,-1,0
1523614813478,10092544,100,-56,-1,-1,0
1523614813478,8978432,100,-56,-1,-1,0
1523614813478,3407872,100,-56,-1,-1,0
1523614813519,-458752,100,-56,-1,-1,0
1523614813519,-786432,100,-56,-1,-1,0
1523614813519,-786432,100,-56,-1,-1,0
1523614813519,-851968,100,-56,-1,-1,0
1523614813519,-524288,100,-56,-1,-1,0
1523614813558,-327680,100,-56,-1,-1,0
1523614813558,-458752,100,-56,-1,-1,0
1523614813558,-983040,100,-56,-1,-1,0
1523614813558,-1114112,100,-56,-1,-1,0
1523614813558,-917504,100,-56,-1,-1,0
1523614813598,-327680,100,-56,-1,-1,0
1523614813598,65536,100,-56,-1,-1,0
1523614813598,131072,100,-56,-1,-1,0
1523614813598,-65536,100,-56,-1,-1,0
1523614813598,-65536,100,-56,-1,-1,0
1523614813638,-65536,100,-56,-1,-1,0
1523614813638,-262144,100,-56,-1,-1,0
1523614813638,-458752,100,-56,-1,-1,0
1523614813638,-196608,100,-56,-1,-1,0
1523614813638,655360,100,-56,-1,-1,0
1523614813678,1441792,100,-56,-1,-1,0
1523614813678,1638400,100,-56,-1,-1,0
1523614813678,1572864,100,-56,-1,-1,0
1523614813678,1572864,100,-56,-1,-1,0
1523614813678,1900544,100,-56,-1,-1,0
1523614813718,2228224,100,-56,-1,-1,0
1523614813718,1966080,100,-56,-1,-1,0
1523614813718,1376256,100,-56,-1,-1,0
1523614813718,589824,100,-56,-1,-1,0
1523614813718,0,100,-56,-1,-1,0
1523614813758,-131072,100,-56,-1,-1,0
1523614813758,-262144,100,-56,-1,-1,0
1523614813758,-458752,100,-56,-1,-1,0
1523614813758,-589824,100,-56,-1,-1,0
1523614813758,-393216,100,-56,-1,-1,0
1523614813798,-524288,100,-56,-1,-1,0
1523614813798,-786432,100,-56,-1,-1,0
1523614813798,-917504,100,-56,-1,-1,0
1523614813798,-655360,100,-56,-1,-1,0
1523614813798,-524288,100,-56,-1,-1,0
1523614813838,-851968,100,-56,-1,-1,0
1523614813838,-1048576,100,-56,-1,-1,0
1523614813838,-1048576,100,-56,-1,-1,0
1523614813838,-917504,100,-56,-1,-1,0
1523614813838,-786432,100,-56,-1,-1,0
1523614813878,-589824,100,-56,-1,-1,0
1523614813878,-851968,100,-56,-1,-1,0
1523614813878,-917504,100,-56,-1,-1,0
1523614813878,-720896,100,-56,-1,-1,0
1523614813878,-655360,100,-56,-1,-1,0
1523614813918,-851968,100,-56,-1,-1,0
1523614813918,-786432,100,-56,-1,-1,0
1523614813918,-524288,100,-56,-1,-1,0
1523614813918,-720896,100,-56,-1,-1,0
1523614813918,-983040,100,-56,-1,-1,0
1523614813958,-983040,100,-56,-1,-1,0
1523614813958,-655360,100,-56,-1,-1,0
1523614813958,-655360,100,-56,-1,-1,0
1523614813958,-917504,100,-56,-1,-1,0
1523614813958,-720896,100,-56,-1,-1,0
1523614814006,-524288,100,-56,-1,-1,0
1523614814006,-786432,100,-56,-1,-1,0
1523614814006,-983040,100,-56,-1,-1,0
1523614814006,-851968,100,-56,-1,-1,0
1523614814006,-720896,100,-56,-1,-1,0
1523614814038,-589824,100,-56,-1,-1,0
1523614814038,-393216,100,-56,-1,-1,0
1523614814038,-655360,100,-56,-1,-1,0
1523614814038,-1179648,100,-56,-1,-1,0
1523614814038,-589824,100,-56,-1,-1,0
1523614814078,3145728,100,-56,-1,-1,0
1523614814078,8847360,100,-56,-1,-1,0
1523614814078,9764864,100,-56,-1,-1,0
1523614814078,4784128,100,-56,-1,-1,0
1523614814078,0,100,-56,-1,-1,0
1523614814118,-786432,100,-56,-1,-1,0
1523614814118,-589824,100,-56,-1,-1,0
1523614814118,-327680,100,-56,-1,-1,0
1523614814118,-131072,100,-56,-1,-1,0
1523614814118,-262144,100,-56,-1,-1,0
1523614814158,-458752,100,-56,-1,-1,0
1523614814158,-589824,100,-56,-1,-1,0
1523614814158,-131072,100,-56,-1,-1,0
1523614814158,131072,100,-56,-1,-1,0
1523614814158,-262144,100,-56,-1,-1,0
1523614814199,-524288,100,-56,-1,-1,0
1523614814199,-196608,100,-56,-1,-1,0
1523614814199,0,100,-56,-1,-1,0
1523614814199,0,100,-56,-1,-1,0
1523614814199,327680,100,-56,-1,-1,0
1523614814238,458752,100,-56,-1,-1,0
1523614814238,327680,100,-56,-1,-1,0
1523614814238,524288,100,-56,-1,-1,0
1523614814238,1441792,100,-56,-1,-1,0
1523614814238,2031616,100,-56,-1,-1,0
1523614814278,2031616,100,-56,-1,-1,0
1523614814278,2031616,100,-56,-1,-1,0
1523614814278,2228224,100,-56,-1,-1,0
1523614814278,2359296,100,-56,-1,-1,0
1523614814278,2228224,100,-56,-1,-1,0
1523614814318,2293760,100,-56,-1,-1,0
1523614814318,1835008,100,-56,-1,-1,0
1523614814318,1179648,100,-56,-1,-1,0
1523614814318,524288,100,-56,-1,-1,0
1523614814318,-131072,100,-56,-1,-1,0
1523614814358,-327680,100,-56,-1,-1,0
1523614814358,-393216,100,-56,-1,-1,0
1523614814358,-851968,100,-56,-1,-1,0
1523614814358,-983040,100,-56,-1,-1,0
1523614814358,-655360,100,-56,-1,-1,0
1523614814398,-720896,100,-56,-1,-1,0
1523614814398,-1114112,100,-56,-1,-1,0
1523614814398,-1114112,100,-56,-1,-1,0
1523614814398,-851968,100,-56,-1,-1,0
1523614814398,-786432,100,-56,-1,-1,0
1523614814438,-917504,100,-56,-1,-1,0
1523614814438,-1048576,100,-56,-1,-1,0
1523614814438,-720896,100,-56,-1,-1,0
1523614814438,-786432,100,-56,-1,-1,0
1523614814438,-983040,100,-56,-1,-1,0
1523614814478,-655360,100,-56,-1,-1,0
1523614814478,-196608,100,-56,-1,-1,0
1523614814478,-327680,100,-56,-1,-1,0
1523614814478,-393216,100,-56,-1,-1,0
1523614814478,-327680,100,-56,-1,-1,0
1523614814519,-851968,101,-56,-1,-1,0
1523614814519,-1245184,101,-56,-1,-1,0
1523614814519,-917504,101,-56,-1,-1,0
1523614814519,-327680,101,-56,-1,-1,0
1523614814519,-524288,101,-56,-1,-1,0
1523614814558,-983040,101,-56,-1,-1,0
1523614814558,-917504,101,-56,-1,-1,0
1523614814558,-458752,101,-56,-1,-1,0
1523614814558,-393216,101,-56,-1,-1,0
1523614814558,-458752,101,-56,-1,-1,0
1523614814598,-524288,101,-56,-1,-1,0
1523614814598,-524288,101,-56,-1,-1,0
1523614814598,-458752,101,-56,-1,-1,0
1523614814598,-393216,101,-56,-1,-1,0
1523614814598,-458752,101,-56,-1,-1,0
1523614814646,-720896,101,-56,-1,-1,0
1523614814646,-786432,101,-56,-1,-1,0
1523614814646,917504,101,-56,-1,-1,0
1523614814646,5701632,101,-56,-1,-1,0
1523614814646,9699328,101,-56,-1,-1,0
1523614814678,7077888,101,-56,-1,-1,0
1523614814678,1572864,101,-56,-1,-1,0
1523614814678,-786432,101,-56,-1,-1,0
1523614814678,-458752,101,-56,-1,-1,0
1523614814678,-196608,101,-56,-1,-1,0
1523614814718,0,101,-56,-1,-1,0
1523614814718,0,101,-56,-1,-1,0
1523614814718,0,101,-56,-1,-1,0
1523614814718,65536,101,-56,-1,-1,0
1523614814718,196608,101,-56,-1,-1,0
1523614814758,262144,101,-56,-1,-1,0
1523614814758,65536,101,-56,-1,-1,0
1523614814758,0,101,-56,-1,-1,0
1523614814758,196608,101,-56,-1,-1,0
1523614814758,393216,101,-56,-1,-1,0
1523614814798,393216,101,-56,-1,-1,0
1523614814798,524288,101,-56,-1,-1,0
1523614814798,655360,101,-56,-1,-1,0
1523614814798,851968,101,-56,-1,-1,0
1523614814798,1179648,101,-56,-1,-1,0
1523614814838,1441792,101,-56,-1,-1,0
1523614814838,1638400,101,-56,-1,-1,0
1523614814838,1835008,101,-56,-1,-1,0
1523614814838,2162688,101,-56,-1,-1,0
1523614814838,2490368,101,-56,-1,-1,0
1523614814878,2621440,101,-56,-1,-1,0
1523614814878,2621440,101,-56,-1,-1,0
1523614814878,2424832,101,-56,-1,-1,0
1523614814878,2031616,101,-56,-1,-1,0
1523614814878,1572864,101,-56,-1,-1,0
1523614814918,1048576,101,-56,-1,-1,0
1523614814918,720896,101,-56,-1,-1,0
1523614814918,393216,101,-56,-1,-1,0
1523614814918,0,101,-56,-1,-1,0
1523614814918,-262144,101,-56,-1,-1,0
1523614814958,-327680,101,-56,-1,-1,0
1523614814958,-327680,101,-56,-1,-1,0
1523614814958,-393216,101,-56,-1,-1,0
1523614814958,-589824,101,-56,-1,-1,0
1523614814958,-655360,101,-56,-1,-1,0
1523614814998,-720896,101,-56,-1,-1,0
1523614814998,-786432,101,-56,-1,-1,0
1523614814998,-786432,101,-56,-1,-1,0
1523614814998,-720896,101,-56,-1,-1,0
1523614814998,-720896,101,-56,-1,-1,0
1523614815038,-786432,101,-56,-1,-1,0
1523614815038,-720896,101,-56,-1,-1,0
1523614815038,-589824,101,-56,-1,-1,0
1523614815038,-524288,101,-56,-1,-1,0
1523614815038,-458752,101,-56,-1,-1,0
1523614815078,-589824,101,-56,-1,-1,0
1523614815078,-786432,101,-56,-1,-1,0
1523614815078,-983040,101,-56,-1,-1,0
1523614815078,-1048576,101,-56,-1,-1,0
1523614815078,-1245184,101,-56,-1,-1,0
1523614815118,-1441792,101,-56,-1,-1,0
1523614815118,-1507328,101,-56,-1,-1,0
1523614815118,-1441792,101,-56,-1,-1,0
1523614815118,-1441792,101,-56,-1,-1,0
1523614815118,-1507328,101,-56,-1,-1,0
1523614815158,-1572864,101,-56,-1,-1,0
1523614815158,-1638400,101,-56,-1,-1,0
1523614815158,-1703936,101,-56,-1,-1,0
1523614815158,-1769472,101,-56,-1,-1,0
1523614815158,-1703936,101,-56,-1,-1,0
1523614815198,-1638400,101,-56,-1,-1,0
1523614815198,-1441792,101,-56,-1,-1,0
1523614815198,-1114112,101,-56,-1,-1,0
1523614815198,-1179648,101,-56,-1,-1,0
1523614815198,-1572864,101,-56,-1,-1,0
1523614815238,-1966080,101,-56,-1,-1,0
1523614815238,-2162688,101,-56,-1,-1,0
1523614815238,-1245184,101,-56,-1,-1,0
1523614815238,3211264,101,-56,-1,-1,0
1523614815238,9175040,101,-56,-1,-1,0
1523614815286,8978432,101,-56,-1,-1,0
1523614815286,3080192,101,-56,-1,-1,0
1523614815286,-1310720,101,-56,-1,-1,0
1523614815286,-1310720,101,-56,-1,-1,0
1523614815286,-1179648,101,-56,-1,-1,0
1523614815318,-1114112,101,-56,-1,-1,0
1523614815318,-1048576,101,-56,-1,-1,0
1523614815318,-983040,101,-56,-1,-1,0
1523614815318,-1179648,101,-56,-1,-1,0
1523614815318,-1245184,101,-56,-1,-1,0
1523614815358,-1310720,101,-56,-1,-1,0
1523614815358,-1179648,101,-56,-1,-1,0
1523614815358,-983040,101,-56,-1,-1,0
1523614815358,-720896,101,-56,-1,-1,0
1523614815358,-589824,101,-56,-1,-1,0
1523614815398,-393216,101,-56,-1,-1,0
1523614815398,-458752,101,-56,-1,-1,0
1523614815398,-524288,101,-56,-1,-1,0
1523614815398,-327680,101,-56,-1,-1,0
1523614815398,-65536,101,-56,-1,-1,0
1523614815438,0,101,-56,-1,-1,0
1523614815438,262144,101,-56,-1,-1,0
1523614815438,524288,101,-56,-1,-1,0
1523614815438,917504,101,-56,-1,-1,0
1523614815438,1572864,101,-56,-1,-1,0
1523614815478,2097152,101,-56,-1,-1,0
1523614815478,1703936,101,-56,-1,-1,0
1523614815478,983040,101,-56,-1,-1,0
1523614815478,589824,101,-56,-1,-1,0
1523614815478,65536,101,-56,-1,-1,0
1523614815518,65536,101,-56,-1,-1,0
1523614815518,327680,101,-56,-1,-1,0
1523614815518,262144,101,-56,-1,-1,0
1523614815518,-262144,101,-56,-1,-1,0
1523614815518,-524288,101,-56,-1,-1,0
1523614815558,-786432,101,-56,-1,-1,0
1523614815558,-851968,101,-56,-1,-1,0
1523614815558,-1376256,101,-56,-1,-1,0
1523614815558,-1507328,101,-56,-1,-1,0
1523614815558,-1048576,101,-56,-1,-1,0
1523614815598,-589824,101,-56,-1,-1,0
1523614815598,-786432,101,-56,-1,-1,0
1523614815598,-851968,101,-56,-1,-1,0
1523614815598,-917504,101,-56,-1,-1,0
1523614815598,-1048576,101,-56,-1,-1,0
1523614815638,-1376256,101,-56,-1,-1,0
1523614815638,-1572864,101,-56,-1,-1,0
1523614815638,-1179648,101,-56,-1,-1,0
1523614815638,-720896,101,-56,-1,-1,0
1523614815638,-720896,101,-56,-1,-1,0
1523614815678,-1114112,101,-56,-1,-1,0
1523614815678,-1638400,101,-56,-1,-1,0
1523614815678,-1572864,101,-56,-1,-1,0
1523614815678,-917504,101,-56,-1,-1,0
1523614815678,-262144,101,-56,-1,-1,0
1523614815718,-393216,101,-56,-1,-1,0
1523614815718,-1114112,101,-56,-1,-1,0
1523614815718,-1507328,101,-56,-1,-1,0
1523614815718,-1310720,101,-56,-1,-1,0
1523614815718,-786432,101,-56,-1,-1,0
1523614815758,-458752,101,-56,-1,-1,0
1523614815758,-786432,101,-56,-1,-1,0
1523614815758,-1245184,101,-56,-1,-1,0
1523614815758,-1179648,101,-56,-1,-1,0
1523614815758,-917504,101,-56,-1,-1,0
1523614815798,-393216,101,-56,-1,-1,0
1523614815798,0,101,-56,-1,-1,0
1523614815798,-458752,101,-56,-1,-1,0
1523614815798,-1507328,101,-56,-1,-1,0
1523614815798,-983040,101,-56,-1,-1,0
1523614815838,3080192,101,-56,-1,-1,0
1523614815838,8585216,101,-56,-1,-1,0
1523614815838,8847360,101,-56,-1,-1,0
1523614815838,4128768,101,-56,-1,-1,0
1523614815838,0,101,-56,-1,-1,0
1523614815878,-524288,101,-56,-1,-1,0
1523614815878,-524288,101,-56,-1,-1,0
1523614815878,-524288,101,-56,-1,-1,0
1523614815878,0,101,-56,-1,-1,0
1523614815878,131072,101,-56,-1,-1,0
1523614815926,0,101,-56,-1,-1,0
1523614815926,-196608,101,-56,-1,-1,0
1523614815926,-262144,101,-56,-1,-1,0
1523614815926,-131072,101,-56,-1,-1,0
1523614815926,0,101,-56,-1,-1,0
1523614815958,0,101,-56,-1,-1,0
1523614815958,-65536,101,-56,-1,-1,0
1523614815958,131072,101,-56,-1,-1,0
1523614815958,655360,101,-56,-1,-1,0
1523614815958,983040,101,-56,-1,-1,0
1523614815998,786432,101,-56,-1,-1,0
1523614815998,458752,101,-56,-1,-1,0
1523614815998,720896,101,-56,-1,-1,0
1523614815998,1638400,101,-56,-1,-1,0
1523614815998,2293760,101,-56,-1,-1,0
1523614816038,2293760,101,-56,-1,-1,0
1523614816038,2031616,101,-56,-1,-1,0
1523614816038,2162688,101,-56,-1,-1,0
1523614816038,2162688,101,-56,-1,-1,0
1523614816038,2228224,101,-56,-1,-1,0
1523614816078,2424832,101,-56,-1,-1,0
1523614816078,2031616,101,-56,-1,-1,0
1523614816078,1310720,101,-56,-1,-1,0
1523614816078,655360,101,-56,-1,-1,0
1523614816078,65536,101,-56,-1,-1,0
1523614816119,-131072,101,-56,-1,-1,0
1523614816119,65536,101,-56,-1,-1,0
1523614816119,-65536,101,-56,-1,-1,0
1523614816119,-655360,101,-56,-1,-1,0
1523614816119,-851968,101,-56,-1,-1,0
1523614816158,-851968,101,-56,-1,-1,0
1523614816158,-720896,101,-56,-1,-1,0
1523614816158,-458752,101,-56,-1,-1,0
1523614816158,-262144,101,-56,-1,-1,0
1523614816158,-327680,101,-56,-1,-1,0
1523614816198,-393216,101,-56,-1,-1,0
1523614816198,-393216,101,-56,-1,-1,0
1523614816198,-327680,101,-56,-1,-1,0
1523614816198,-327680,101,-56,-1,-1,0
1523614816198,-196608,101,-56,-1,-1,0
1523614816238,-65536,101,-56,-1,-1,0
1523614816238,-131072,101,-56,-1,-1,0
1523614816238,-262144,101,-56,-1,-1,0
1523614816238,-327680,101,-56,-1,-1,0
1523614816238,-655360,101,-56,-1,-1,0
1523614816278,-786432,101,-56,-1,-1,0
1523614816278,-720896,101,-56,-1,-1,0
1523614816278,-720896,101,-56,-1,-1,0
1523614816278,-720896,101,-56,-1,-1,0
1523614816278,-655360,101,-56,-1,-1,0
1523614816320,-589824,101,-56,-1,-1,0
1523614816320,-655360,101,-56,-1,-1,0
1523614816320,-589824,101,-56,-1,-1,0
1523614816320,-524288,101,-56,-1,-1,0
1523614816320,-458752,101,-56,-1,-1,0
1523614816358,-524288,101,-56,-1,-1,0
1523614816358,-589824,101,-56,-1,-1,0
1523614816358,-524288,101,-56,-1,-1,0
1523614816358,-393216,101,-56,-1,-1,0
1523614816358,-393216,101,-56,-1,-1,0
1523614816398,-786432,101,-56,-1,-1,0
1523614816398,-786432,101,-56,-1,-1,0
1523614816398,1572864,101,-56,-1,-1,0
1523614816398,7077888,101,-56,-1,-1,0
1523614816398,10158080,101,-56,-1,-1,0
1523614816438,6029312,101,-56,-1,-1,0
1523614816438,524288,101,-56,-1,-1,0
1523614816438,-720896,101,-56,-1,-1,0
1523614816438,-196608,101,-56,-1,-1,0
1523614816438,-65536,101,-56,-1,-1,0
1523614816478,-131072,101,-56,-1,-1,0
1523614816478,-65536,101,-56,-1,-1,0
1523614816478,-65536,101,-56,-1,-1,0
1523614816478,0,101,-56,-1,-1,0
1523614816478,131072,101,-56,-1,-1,0
1523614816518,262144,101,-56,-1,-1,0
1523614816518,196608,101,-56,-1,-1,0
1523614816518,327680,101,-56,-1,-1,0
1523614816518,458752,101,-56,-1,-1,0
1523614816518,458752,101,-56,-1,-1,0
1523614816566,393216,101,-56,-1,-1,0
1523614816566,589824,101,-56,-1,-1,0
1523614816566,851968,101,-56,-1,-1,0
1523614816566,983040,101,-56,-1,-1,0
1523614816566,1114112,101,-56,-1,-1,0
1523614816598,1507328,101,-56,-1,-1,0
1523614816598,1900544,101,-56,-1,-1,0
1523614816598,2162688,101,-56,-1,-1,0
1523614816598,2424832,101,-56,-1,-1,0
1523614816598,2752512,101,-56,-1,-1,0
1523614816638,2883584,101,-56,-1,-1,0
1523614816638,2752512,101,-56,-1,-1,0
1523614816638,2424832,101,-56,-1,-1,0
1523614816638,2162688,101,-56,-1,-1,0
1523614816638,1966080,101,-56,-1,-1,0
1523614816678,1572864,101,-56,-1,-1,0
1523614816678,983040,101,-56,-1,-1,0
1523614816678,524288,101,-56,-1,-1,0
1523614816678,393216,101,-56,-1,-1,0
1523614816678,262144,101,-56,-1,-1,0
1523614816718,0,101,-56,-1,-1,0
1523614816718,-327680,101,-56,-1,-1,0
1523614816718,-262144,101,-56,-1,-1,0
1523614816718,-65536,101,-56,-1,-1,0
1523614816718,0,101,-56,-1,-1,0
1523614816758,-131072,101,-56,-1,-1,0
1523614816758,-196608,101,-56,-1,-1,0
1523614816758,-327680,101,-56,-1,-1,0
1523614816758,-524288,101,-56,-1,-1,0
1523614816758,-589824,101,-56,-1,-1,0
1523614816798,-589824,101,-56,-1,-1,0
1523614816798,-524288,101,-56,-1,-1,0
1523614816798,-458752,101,-56,-1,-1,0
1523614816798,-393216,101,-56,-1,-1,0
1523614816798,-327680,101,-56,-1,-1,0
1523614816838,-327680,101,-56,-1,-1,0
1523614816838,-589824,101,-56,-1,-1,0
1523614816838,-786432,101,-56,-1,-1,0
1523614816838,-851968,101,-56,-1,-1,0
1523614816838,-851968,101,-56,-1,-1,0
1523614816878,-851968,101,-56,-1,-1,0
1523614816878,-983040,101,-56,-1,-1,0
1523614816878,-1114112,101,-56,-1,-1,0
1523614816878,-1245184,101,-56,-1,-1,0
1523614816878,-1310720,101,-56,-1,-1,0
1523614816918,-1179648,101,-56,-1,-1,0
1523614816918,-1048576,101,-56,-1,-1,0
1523614816918,-983040,101,-56,-1,-1,0
1523614816918,-1048576,101,-56,-1,-1,0
1523614816918,-1245184,101,-56,-1,-1,0
1523614816958,-1638400,101,-56,-1,-1,0
1523614816958,-1900544,101,-56,-1,-1,0
1523614816958,-1900544,101,-56,-1,-1,0
1523614816958,-1900544,101,-56,-1,-1,0
1523614816958,-2228224,101,-56,-1,-1,0
1523614816998,-1769472,101,-56,-1,-1,0
1523614816998,1572864,101,-56,-1,-1,0
1523614816998,6946816,101,-56,-1,-1,0
1523614816998,8192000,101,-56,-1,-1,0
1523614816998,3538944,101,-56,-1,-1,0
1523614817038,-983040,101,-56,-1,-1,0
1523614817038,-1441792,101,-56,-1,-1,0
1523614817038,-983040,101,-56,-1,-1,0
1523614817038,-983040,101,-56,-1,-1,0
1523614817038,-1441792,101,-56,-1,-1,0
1523614817078,-1769472,101,-56,-1,-1,0
1523614817078,-1835008,101,-56,-1,-1,0
1523614817078,-1572864,101,-56,-1,-1,0
1523614817078,-1572864,101,-56,-1,-1,0
1523614817078,-1441792,101,-56,-1,-1,0
1523614817118,-1441792,101,-56,-1,-1,0
1523614817118,-1114112,101,-56,-1,-1,0
1523614817118,-851968,101,-56,-1,-1,0
1523614817118,-720896,101,-56,-1,-1,0
1523614817118,-1048576,101,-56,-1,-1,0
1523614817158,-1310720,101,-56,-1,-1,0
1523614817158,-1310720,101,-56,-1,-1,0
1523614817158,-983040,101,-56,-1,-1,0
1523614817158,-458752,101,-56,-1,-1,0
1523614817158,262144,101,-56,-1,-1,0
1523614817206,458752,101,-56,-1,-1,0
1523614817206,196608,101,-56,-1,-1,0
1523614817206,0,101,-56,-1,-1,0
1523614817206,393216,101,-56,-1,-1,0
1523614817206,851968,101,-56,-1,-1,0
1523614817238,655360,101,-56,-1,-1,0
1523614817238,196608,101,-56,-1,-1,0
1523614817238,0,101,-56,-1,-1,0
1523614817238,-393216,101,-56,-1,-1,0
1523614817238,-786432,101,-56,-1,-1,0
1523614817278,-1114112,101,-56,-1,-1,0
1523614817278,-1114112,101,-56,-1,-1,0
1523614817278,-720896,101,-56,-1,-1,0
1523614817278,-720896,101,-56,-1,-1,0
1523614817278,-1441792,101,-56,-1,-1,0
1523614817318,-1638400,101,-56,-1,-1,0
1523614817318,-1835008,101,-56,-1,-1,0
1523614817318,-1703936,101,-56,-1,-1,0
1523614817318,-1572864,101,-56,-1,-1,0
1523614817318,-1507328,101,-56,-1,-1,0
1523614817358,-1376256,101,-56,-1,-1,0
1523614817358,-983040,101,-56,-1,-1,0
1523614817358,-851968,101,-56,-1,-1,0
1523614817358,-1179648,101,-56,-1,-1,0
1523614817358,-1441792,101,-56,-1,-1,0
1523614817399,-1114112,101,-56,-1,-1,0
1523614817399,-1048576,101,-56,-1,-1,0
1523614817399,-1179648,101,-56,-1,-1,0
1523614817399,-1245184,101,-56,-1,-1,0
1523614817399,-1310720,101,-56,-1,-1,0
1523614817438,-1769472,101,-56,-1,-1,0
1523614817438,-1638400,101,-56,-1,-1,0
1523614817438,-1507328,101,-56,-1,-1,0
1523614817438,-1507328,101,-56,-1,-1,0
1523614817438,-1835008,101,-56,-1,-1,0
1523614817478,-1441792,101,-56,-1,-1,0
1523614817478,-1310720,101,-56,-1,-1,0
1523614817478,-1376256,101,-56,-1,-1,0
1523614817478,-1507328,101,-56,-1,-1,0
1523614817478,-1245184,101,-56,-1,-1,0
1523614817518,-1441792,101,-56,-1,-1,0
1523614817518,-1966080,101,-56,-1,-1,0
1523614817518,-1835008,101,-56,-1,-1,0
1523614817518,-1114112,101,-56,-1,-1,0
1523614817518,-983040,101,-56,-1,-1,0
1523614817558,-1507328,101,-56,-1,-1,0
1523614817558,-1966080,101,-56,-1,-1,0
1523614817558,-720896,101,-56,-1,-1,0
1523614817558,3997696,101,-56,-1,-1,0
1523614817558,9175040,101,-56,-1,-1,0
1523614817598,7733248,101,-56,-1,-1,0
1523614817598,2228224,101,-56,-1,-1,0
1523614817598,-1179648,101,-56,-1,-1,0
1523614817598,-1179648,101,-56,-1,-1,0
1523614817598,-851968,101,-56,-1,-1,0
1523614817638,-524288,101,-56,-1,-1,0
1523614817638,-327680,101,-56,-1,-1,0
1523614817638,-720896,101,-56,-1,-1,0
1523614817638,-655360,101,-56,-1,-1,0
1523614817638,-262144,101,-56,-1,-1,0
1523614817678,0,101,-56,-1,-1,0
1523614817678,-262144,101,-56,-1,-1,0
1523614817678,-196608,101,-56,-1,-1,0
1523614817678,-65536,101,-56,-1,-1,0
1523614817678,0,101,-56,-1,-1,0
1523614817718,-65536,101,-56,-1,-1,0
1523614817718,-131072,101,-56,-1,-1,0
1523614817718,-65536,101,-56,-1,-1,0
1523614817718,327680,101,-56,-1,-1,0
1523614817718,851968,101,-56,-1,-1,0
1523614817758,1310720,101,-56,-1,-1,0
1523614817758,1769472,101,-56,-1,-1,0
1523614817758,2031616,101,-56,-1,-1,0
1523614817758,1900544,101,-56,-1,-1,0
1523614817758,1900544,101,-56,-1,-1,0
1523614817798,2228224,101,-56,-1,-1,0
1523614817798,2621440,101,-56,-1,-1,0
1523614817798,2490368,101,-56,-1,-1,0
1523614817798,1769472,101,-56,-1,-1,0
1523614817798,1376256,101,-56,-1,-1,0
1523614817846,1179648,101,-56,-1,-1,0
1523614817846,1114112,101,-56,-1,-1,0
1523614817846,917504,101,-56,-1,-1,0
1523614817846,589824,101,-56,-1,-1,0
1523614817846,393216,101,-56,-1,-1,0
1523614817878,262144,101,-56,-1,-1,0
1523614817878,65536,101,-56,-1,-1,0
1523614817878,-131072,101,-56,-1,-1,0
1523614817878,0,101,-56,-1,-1,0
1523614817878,393216,101,-56,-1,-1,0
1523614817918,196608,101,-56,-1,-1,0
1523614817918,-262144,101,-56,-1,-1,0
1523614817918,-327680,101,-56,-1,-1,0
1523614817918,196608,101,-56,-1,-1,0
1523614817918,393216,101,-56,-1,-1,0
1523614817958,0,101,-56,-1,-1,0
1523614817958,-196608,101,-56,-1,-1,0
1523614817958,65536,101,-56,-1,-1,0
1523614817958,131072,101,-56,-1,-1,0
1523614817958,0,101,-56,-1,-1,0
1523614817998,196608,101,-56,-1,-1,0
1523614817998,393216,101,-56,-1,-1,0
1523614817998,0,101,-56,-1,-1,0
1523614817998,-393216,101,-56,-1,-1,0
1523614817998,-458752,101,-56,-1,-1,0
1523614818038,-131072,101,-56,-1,-1,0
1523614818038,0,101,-56,-1,-1,0
1523614818038,-196608,101,-56,-1,-1,0
1523614818038,0,101,-56,-1,-1,0
1523614818038,262144,101,-56,-1,-1,0
1523614818078,0,101,-56,-1,-1,0
1523614818078,-524288,101,-56,-1,-1,0
1523614818078,-524288,101,-56,-1,-1,0
1523614818078,-262144,101,-56,-1,-1,0
1523614818078,0,101,-56,-1,-1,0
1523614818118,-196608,101,-56,-1,-1,0
1523614818118,-786432,101,-56,-1,-1,0
1523614818118,-1048576,101,-56,-1,-1,0
1523614818118,917504,101,-56,-1,-1,0
1523614818118,6160384,101,-56,-1,-1,0
1523614818158,10289152,101,-56,-1,-1,0
1523614818158,7798784,101,-56,-1,-1,0
1523614818158,2293760,101,-56,-1,-1,0
1523614818158,-917504,101,-56,-1,-1,0
1523614818158,-983040,101,-56,-1,-1,0
1523614818198,-131072,101,-56,-1,-1,0
1523614818198,-131072,101,-56,-1,-1,0
1523614818198,-524288,101,-56,-1,-1,0
1523614818198,-327680,101,-56,-1,-1,0
1523614818198,-65536,101,-56,-1,-1,0
1523614818238,-458752,101,-56,-1,-1,0
1523614818238,-393216,101,-56,-1,-1,0
1523614818238,65536,101,-56,-1,-1,0
1523614818238,-131072,101,-56,-1,-1,0
1523614818238,-327680,101,-56,-1,-1,0
1523614818278,0,101,-56,-1,-1,0
1523614818278,327680,101,-56,-1,-1,0
1523614818278,458752,101,-56,-1,-1,0
1523614818278,327680,101,-56,-1,-1,0
1523614818278,327680,101,-56,-1,-1,0
1523614818318,655360,101,-56,-1,-1,0
1523614818318,1179648,101,-56,-1,-1,0
1523614818318,1638400,101,-56,-1,-1,0
1523614818318,1835008,101,-56,-1,-1,0
1523614818318,2228224,101,-56,-1,-1,0
1523614818359,2490368,101,-56,-1,-1,0
1523614818359,2490368,101,-56,-1,-1,0
1523614818359,2424832,101,-56,-1,-1,0
1523614818359,2424832,101,-56,-1,-1,0
1523614818359,1966080,101,-56,-1,-1,0
1523614818398,1441792,101,-56,-1,-1,0
1523614818398,917504,101,-56,-1,-1,0
1523614818398,589824,101,-56,-1,-1,0
1523614818398,196608,101,-56,-1,-1,0
1523614818398,0,101,-56,-1,-1,0
1523614818438,0,101,-56,-1,-1,0
1523614818438,0,101,-56,-1,-1,0
1523614818438,-196608,101,-56,-1,-1,0
1523614818438,-327680,101,-56,-1,-1,0
1523614818438,-393216,101,-56,-1,-1,0
1523614818487,-393216,101,-56,-1,-1,0
1523614818487,-458752,101,-56,-1,-1,0
1523614818487,-524288,101,-56,-1,-1,0
1523614818487,-524288,101,-56,-1,-1,0
1523614818487,-589824,101,-56,-1,-1,0
1523614818518,-655360,101,-56,-1,-1,0
1523614818518,-458752,101,-56,-1,-1,0
1523614818518,-393216,101,-56,-1,-1,0
1523614818518,-393216,101,-56,-1,-1,0
1523614818518,-262144,101,-56,-1,-1,0
1523614818559,-196608,102,-56,-1,-1,0
1523614818559,-458752,102,-56,-1,-1,0
1523614818559,-786432,102,-56,-1,-1,0
1523614818559,-786432,102,-56,-1,-1,0
1523614818559,-786432,102,-56,-1,-1,0
1523614818598,-786432,102,-56,-1,-1,0
1523614818598,-851968,102,-56,-1,-1,0
1523614818598,-851968,102,-56,-1,-1,0
1523614818598,-851968,102,-56,-1,-1,0
1523614818598,-983040,102,-56,-1,-1,0
1523614818638,-1179648,102,-56,-1,-1,0
1523614818638,-1179648,102,-56,-1,-1,0
1523614818638,-1114112,102,-56,-1,-1,0
1523614818638,-1114112,102,-56,-1,-1,0
1523614818638,-1114112,102,-56,-1,-1,0
1523614818678,-983040,102,-56,-1,-1,0
