milliseconds, ECG, ECG HR, PPG, PPG HR, SpO2, PI
0,-851968,80,-56,-1,-1,0
33,-851968,80,-56,-1,-1,0
66,-917504,80,-56,-1,-1,0
100,-589824,80,-56,-1,-1,0
133,-786432,80,-56,-1,-1,0
166,-851968,80,-56,-1,-1,0
200,655360,80,-56,-1,-1,0
233,7208960,80,-56,-1,-1,0
266,-393216,80,-56,-1,-1,0
300,-524288,79,-56,-1,-1,0
333,131072,79,-56,-1,-1,0
366,1376256,79,-56,-1,-1,0
400,1835008,79,-56,-1,-1,0
433,131072,79,-56,-1,-1,0
466,-655360,79,-56,-1,-1,0
500,-655360,79,-56,-1,-1,0
533,-589824,79,-56,-1,-1,0
566,-524288,79,-56,-1,-1,0
600,-786432,79,-56,-1,-1,0
633,-851968,79,-56,-1,-1,0
666,-917504,79,-56,-1,-1,0
700,-851968,79,-56,-1,-1,0
733,-917504,79,-56,-1,-1,0
766,-983040,79,-56,-1,-1,0
800,-786432,79,-56,-1,-1,0
833,-786432,79,-56,-1,-1,0
866,-524288,79,-56,-1,-1,0
900,11337728,79,-56,-1,-1,0
933,-524288,79,-56,-1,-1,0
966,-327680,78,-56,-1,-1,0
1000,-65536,78,-56,-1,-1,0
1033,1048576,78,-56,-1,-1,0
1066,1835008,78,-56,-1,-1,0
1100,589824,78,-56,-1,-1,0
1133,-589824,78,-56,-1,-1,0
1166,-655360,78,-56,-1,-1,0
1200,-589824,78,-56,-1,-1,0
1233,-786432,78,-56,-1,-1,0
1266,-786432,78,-56,-1,-1,0
1300,-983040,78,-56,-1,-1,0
1333,-1114112,78,-56,-1,-1,0
1366,-983040,78,-56,-1,-1,0
1400,-1048576,78,-56,-1,-1,0
1433,-983040,78,-56,-1,-1,0
1466,-720896,78,-56,-1,-1,0
1500,-917504,78,-56,-1,-1,0
1533,-851968,78,-56,-1,-1,0
1566,327680,78,-56,-1,-1,0
1600,6225920,78,-56,-1,-1,0
1633,-393216,78,-56,-1,-1,0
1666,-393216,78,-56,-1,-1,0
1700,65536,78,-56,-1,-1,0
1733,1441792,78,-56,-1,-1,0
1766,1703936,78,-56,-1,-1,0
1800,196608,78,-56,-1,-1,0
1833,-655360,78,-56,-1,-1,0
1866,-720896,78,-56,-1,-1,0
1900,-720896,78,-56,-1,-1,0
1933,-524288,78,-56,-1,-1,0
1966,-851968,78,-56,-1,-1,0
2000,-1048576,78,-56,-1,-1,0
2033,-1114112,78,-56,-1,-1,0
2066,-1114112,78,-56,-1,-1,0
2100,-1179648,78,-56,-1,-1,0
2133,-1310720,78,-56,-1,-1,0
2166,-720896,78,-56,-1,-1,0
2200,-1048576,78,-56,-1,-1,0
2233,-1048576,78,-56,-1,-1,0
2266,3342336,78,-56,-1,-1,0
2300,458752,78,-56,-1,-1,0
2333,-851968,78,-56,-1,-1,0
2366,-589824,78,-56,-1,-1,0
2400,131072,78,-56,-1,-1,0
2433,1376256,78,-56,-1,-1,0
2466,1245184,78,-56,-1,-1,0
2500,-65536,78,-56,-1,-1,0
2533,-720896,78,-56,-1,-1,0
2566,-524288,78,-56,-1,-1,0
2600,-393216,78,-56,-1,-1,0
2633,-655360,78,-56,-1,-1,0
2666,-786432,78,-56,-1,-1,0
2700,-917504,78,-56,-1,-1,0
2733,-917504,78,-56,-1,-1,0
2766,-1048576,78,-56,-1,-1,0
2800,-1048576,78,-56,-1,-1,0
2833,-589824,78,-56,-1,-1,0
2866,-851968,78,-56,-1,-1,0
2900,-917504,78,-56,-1,-1,0
2933,9830400,78,-56,-1,-1,0
2966,0,78,-56,-1,-1,0
3000,-393216,78,-56,-1,-1,0
3033,65536,78,-56,-1,-1,0
3066,1048576,78,-56,-1,-1,0
3100,2424832,78,-56,-1,-1,0
3133,1769472,78,-56,-1,-1,0
3166,131072,78,-56,-1,-1,0
3200,-196608,78,-56,-1,-1,0
3233,0,78,-56,-1,-1,0
3266,131072,78,-56,-1,-1,0
3300,-65536,78,-56,-1,-1,0
3333,-393216,78,-56,-1,-1,0
3366,-589824,78,-56,-1,-1,0
3400,-786432,78,-56,-1,-1,0
3433,-524288,78,-56,-1,-1,0
3466,-720896,78,-56,-1,-1,0
3500,-720896,78,-56,-1,-1,0
3533,10551296,78,-56,-1,-1,0
3566,-196608,78,-56,-1,-1,0
3600,-589824,78,-56,-1,-1,0
3633,-131072,78,-56,-1,-1,0
3666,589824,78,-56,-1,-1,0
3699,1310720,78,-56,-1,-1,0
3733,327680,78,-56,-1,-1,0
3766,-720896,78,-56,-1,-1,0
3800,-720896,78,-56,-1,-1,0
3833,-655360,78,-56,-1,-1,0
3866,-655360,78,-56,-1,-1,0
3900,-983040,78,-56,-1,-1,0
3933,-1114112,78,-56,-1,-1,0
3966,-1114112,78,-56,-1,-1,0
4000,-851968,78,-56,-1,-1,0
4033,-1048576,78,-56,-1,-1,0
4066,-1048576,78,-56,-1,-1,0
4100,4259840,78,-56,-1,-1,0
4133,-131072,78,-56,-1,-1,0
4166,-655360,78,-56,-1,-1,0
4200,-393216,78,-56,-1,-1,0
4233,262144,78,-56,-1,-1,0
4266,983040,78,-56,-1,-1,0
4300,655360,78,-56,-1,-1,0
4333,-327680,78,-56,-1,-1,0
4366,-524288,78,-56,-1,-1,0
4400,-524288,78,-56,-1,-1,0
4433,-589824,78,-56,-1,-1,0
4466,-589824,78,-56,-1,-1,0
4500,-786432,78,-56,-1,-1,0
4533,-1048576,78,-56,-1,-1,0
4566,-589824,78,-56,-1,-1,0
4600,-851968,78,-56,-1,-1,0
4633,-917504,79,-56,-1,-1,0
4666,2490368,79,-56,-1,-1,0
4700,196608,79,-56,-1,-1,0
4733,-851968,79,-56,-1,-1,0
4766,-786432,79,-56,-1,-1,0
4800,-196608,79,-56,-1,-1,0
4833,589824,79,-56,-1,-1,0
4866,262144,79,-56,-1,-1,0
4900,-655360,79,-56,-1,-1,0
4933,-983040,79,-56,-1,-1,0
4966,-917504,79,-56,-1,-1,0
5000,-786432,79,-56,-1,-1,0
5033,-917504,79,-56,-1,-1,0
5066,-983040,79,-56,-1,-1,0
5100,-1179648,79,-56,-1,-1,0
5133,-720896,79,-56,-1,-1,0
5166,-1048576,79,-56,-1,-1,0
5200,-1048576,80,-56,-1,-1,0
5233,2293760,80,-56,-1,-1,0
5266,1572864,80,-56,-1,-1,0
5300,-655360,80,-56,-1,-1,0
5333,-524288,80,-56,-1,-1,0
5366,131072,80,-56,-1,-1,0
5400,1245184,80,-56,-1,-1,0
5433,1179648,80,-56,-1,-1,0
5466,0,80,-56,-1,-1,0
5500,-458752,80,-56,-1,-1,0
5533,-458752,80,-56,-1,-1,0
5566,-393216,80,-56,-1,-1,0
5600,-720896,80,-56,-1,-1,0
5633,-917504,80,-56,-1,-1,0
5666,-1114112,80,-56,-1,-1,0
5700,-720896,80,-56,-1,-1,0
5733,-1048576,80,-56,-1,-1,0
5766,-1114112,80,-56,-1,-1,0
5800,8060928,80,-56,-1,-1,0
5833,0,80,-56,-1,-1,0
5866,-720896,80,-56,-1,-1,0
5900,-393216,80,-56,-1,-1,0
5933,458752,80,-56,-1,-1,0
5966,1703936,80,-56,-1,-1,0
6000,786432,80,-56,-1,-1,0
6033,-589824,80,-56,-1,-1,0
6066,-917504,80,-56,-1,-1,0
6100,-720896,80,-56,-1,-1,0
6133,-720896,80,-56,-1,-1,0
6166,-983040,80,-56,-1,-1,0
6200,-1179648,80,-56,-1,-1,0
6233,-1179648,80,-56,-1,-1,0
6266,-1048576,80,-56,-1,-1,0
6300,-1179648,80,-56,-1,-1,0
6333,-1048576,80,-56,-1,-1,0
6366,10747904,80,-56,-1,-1,0
6400,-524288,80,-56,-1,-1,0
6433,-720896,80,-56,-1,-1,0
6466,-131072,80,-56,-1,-1,0
6500,917504,80,-56,-1,-1,0
6533,1703936,80,-56,-1,-1,0
6566,327680,80,-56,-1,-1,0
6600,-458752,80,-56,-1,-1,0
6633,-524288,80,-56,-1,-1,0
6666,-393216,80,-56,-1,-1,0
6700,-524288,80,-56,-1,-1,0
6733,-655360,80,-56,-1,-1,0
6766,-851968,80,-56,-1,-1,0
6800,-1048576,80,-56,-1,-1,0
6833,-589824,80,-56,-1,-1,0
6866,-851968,80,-56,-1,-1,0
6899,-1048576,80,-56,-1,-1,0
6933,1572864,80,-56,-1,-1,0
6966,2228224,80,-56,-1,-1,0
7000,-720896,81,-56,-1,-1,0
7033,-720896,81,-56,-1,-1,0
7066,0,81,-56,-1,-1,0
7100,917504,81,-56,-1,-1,0
7133,720896,81,-56,-1,-1,0
7166,-458752,81,-56,-1,-1,0
7200,-851968,81,-56,-1,-1,0
7233,-720896,81,-56,-1,-1,0
7266,-786432,81,-56,-1,-1,0
7300,-786432,81,-56,-1,-1,0
7333,-917504,81,-56,-1,-1,0
7366,-1048576,81,-56,-1,-1,0
7399,-1048576,81,-56,-1,-1,0
7433,-1179648,81,-56,-1,-1,0
7466,-1048576,81,-56,-1,-1,0
7500,-851968,81,-56,-1,-1,0
7533,-917504,81,-56,-1,-1,0
7566,-851968,81,-56,-1,-1,0
7600,10551296,81,-56,-1,-1,0
7633,-327680,81,-56,-1,-1,0
7666,-524288,81,-56,-1,-1,0
7700,-65536,81,-56,-1,-1,0
7733,851968,81,-56,-1,-1,0
7766,1507328,81,-56,-1,-1,0
7800,262144,81,-56,-1,-1,0
7833,-393216,81,-56,-1,-1,0
7866,-458752,81,-56,-1,-1,0
7899,-262144,81,-56,-1,-1,0
7933,-327680,81,-56,-1,-1,0
7966,-524288,81,-56,-1,-1,0
8000,-524288,81,-56,-1,-1,0
8033,-655360,81,-56,-1,-1,0
8066,-655360,81,-56,-1,-1,0
8100,-655360,81,-56,-1,-1,0
8133,-589824,81,-56,-1,-1,0
8166,-524288,81,-56,-1,-1,0
8200,-655360,81,-56,-1,-1,0
8233,-589824,81,-56,-1,-1,0
8266,11534336,81,-56,-1,-1,0
8300,0,81,-56,-1,-1,0
8333,-327680,81,-56,-1,-1,0
8366,131072,81,-56,-1,-1,0
8400,1179648,81,-56,-1,-1,0
8433,1900544,81,-56,-1,-1,0
8466,589824,81,-56,-1,-1,0
8500,-262144,81,-56,-1,-1,0
8533,-393216,81,-56,-1,-1,0
8566,-262144,81,-56,-1,-1,0
8600,-262144,81,-56,-1,-1,0
8633,-524288,81,-56,-1,-1,0
8666,-786432,81,-56,-1,-1,0
8700,-851968,81,-56,-1,-1,0
8733,-851968,81,-56,-1,-1,0
8766,-1048576,81,-56,-1,-1,0
8800,-655360,81,-56,-1,-1,0
8833,-917504,81,-56,-1,-1,0
8866,-983040,81,-56,-1,-1,0
8900,8650752,81,-56,-1,-1,0
8933,0,81,-56,-1,-1,0
8966,-655360,82,-56,-1,-1,0
9000,-393216,82,-56,-1,-1,0
9033,524288,82,-56,-1,-1,0
9066,1572864,82,-56,-1,-1,0
9100,655360,82,-56,-1,-1,0
9133,-524288,82,-56,-1,-1,0
9166,-851968,82,-56,-1,-1,0
9200,-655360,82,-56,-1,-1,0
9233,-589824,82,-56,-1,-1,0
9266,-720896,82,-56,-1,-1,0
9300,-851968,82,-56,-1,-1,0
9333,-917504,82,-56,-1,-1,0
9366,-917504,82,-56,-1,-1,0
9400,-983040,82,-56,-1,-1,0
9433,-917504,82,-56,-1,-1,0
9466,-655360,82,-56,-1,-1,0
9500,-851968,82,-56,-1,-1,0
9533,-851968,82,-56,-1,-1,0
9566,10158080,82,-56,-1,-1,0
9600,-262144,82,-56,-1,-1,0
9633,-589824,82,-56,-1,-1,0
9666,-196608,82,-56,-1,-1,0
9700,786432,82,-56,-1,-1,0
9733,1441792,82,-56,-1,-1,0
9766,327680,82,-56,-1,-1,0
9800,-524288,82,-56,-1,-1,0
9833,-655360,82,-56,-1,-1,0
9866,-589824,82,-56,-1,-1,0
9900,-655360,82,-56,-1,-1,0
9933,-786432,82,-56,-1,-1,0
9966,-917504,82,-56,-1,-1,0
10000,-983040,82,-56,-1,-1,0
10033,-983040,82,-56,-1,-1,0
10066,-983040,82,-56,-1,-1,0
10100,-1114112,82,-56,-1,-1,0
10133,-655360,82,-56,-1,-1,0
10166,-851968,82,-56,-1,-1,0
10200,-851968,82,-56,-1,-1,0
10233,3538944,82,-56,-1,-1,0
10266,917504,82,-56,-1,-1,0
10300,-589824,82,-56,-1,-1,0
10333,-327680,82,-56,-1,-1,0
10366,327680,82,-56,-1,-1,0
10400,1441792,82,-56,-1,-1,0
10433,1245184,82,-56,-1,-1,0
10466,0,82,-56,-1,-1,0
10500,-393216,82,-56,-1,-1,0
10533,-262144,82,-56,-1,-1,0
10566,-262144,82,-56,-1,-1,0
10600,-458752,82,-56,-1,-1,0
10633,-589824,82,-56,-1,-1,0
10666,-720896,82,-56,-1,-1,0
10700,-786432,82,-56,-1,-1,0
10733,-983040,82,-56,-1,-1,0
10766,-589824,82,-56,-1,-1,0
10800,-851968,82,-56,-1,-1,0
10833,-851968,82,-56,-1,-1,0
10866,1507328,82,-56,-1,-1,0
10900,3080192,82,-56,-1,-1,0
10933,-589824,82,-56,-1,-1,0
10966,-393216,82,-56,-1,-1,0
11000,196608,82,-56,-1,-1,0
11033,1441792,82,-56,-1,-1,0
11066,1638400,82,-56,-1,-1,0
11100,131072,82,-56,-1,-1,0
11133,-458752,82,-56,-1,-1,0
11166,-393216,82,-56,-1,-1,0
11200,-327680,82,-56,-1,-1,0
11233,-458752,82,-56,-1,-1,0
11266,-720896,82,-56,-1,-1,0
11300,-851968,82,-56,-1,-1,0
11333,-1048576,82,-56,-1,-1,0
11366,-917504,82,-56,-1,-1,0
11400,-917504,82,-56,-1,-1,0
11433,-983040,82,-56,-1,-1,0
11466,-393216,82,-56,-1,-1,0
11500,8060928,81,-56,-1,-1,0
11533,-524288,81,-56,-1,-1,0
11566,-524288,81,-56,-1,-1,0
11600,0,81,-56,-1,-1,0
11633,1048576,81,-56,-1,-1,0
11666,1572864,81,-56,-1,-1,0
11700,196608,81,-56,-1,-1,0
11733,-589824,81,-56,-1,-1,0
11766,-589824,81,-56,-1,-1,0
11800,-458752,81,-56,-1,-1,0
11833,-524288,81,-56,-1,-1,0
11866,-655360,81,-56,-1,-1,0
11900,-720896,81,-56,-1,-1,0
11933,-720896,81,-56,-1,-1,0
11966,-917504,81,-56,-1,-1,0
12000,-786432,81,-56,-1,-1,0
12033,-1048576,81,-56,-1,-1,0
12066,-983040,81,-56,-1,-1,0
12100,8257536,81,-56,-1,-1,0
12133,-851968,81,-56,-1,-1,0
12166,-1048576,81,-56,-1,-1,0
12200,-655360,81,-56,-1,-1,0
12233,131072,81,-56,-1,-1,0
12266,589824,81,-56,-1,-1,0
12300,-262144,81,-56,-1,-1,0
12333,-917504,81,-56,-1,-1,0
12366,-983040,81,-56,-1,-1,0
12400,-851968,81,-56,-1,-1,0
12433,-983040,81,-56,-1,-1,0
12466,-1114112,81,-56,-1,-1,0
12500,-1179648,81,-56,-1,-1,0
12533,-1245184,81,-56,-1,-1,0
12566,-983040,81,-56,-1,-1,0
12600,-983040,81,-56,-1,-1,0
12633,-917504,81,-56,-1,-1,0
12666,-786432,81,-56,-1,-1,0
12700,8388608,81,-56,-1,-1,0
12733,-458752,81,-56,-1,-1,0
12766,-655360,81,-56,-1,-1,0
12800,-65536,81,-56,-1,-1,0
12833,851968,81,-56,-1,-1,0
12866,1310720,81,-56,-1,-1,0
12900,131072,81,-56,-1,-1,0
12933,-458752,81,-56,-1,-1,0
12966,-524288,81,-56,-1,-1,0
13000,-327680,81,-56,-1,-1,0
13033,-327680,81,-56,-1,-1,0
13066,-524288,81,-56,-1,-1,0
13100,-655360,81,-56,-1,-1,0
13133,-851968,81,-56,-1,-1,0
13166,-458752,81,-56,-1,-1,0
13200,-589824,81,-56,-1,-1,0
13233,-589824,81,-56,-1,-1,0
13266,1769472,81,-56,-1,-1,0
13299,3538944,81,-56,-1,-1,0
13333,-327680,81,-56,-1,-1,0
13366,-196608,81,-56,-1,-1,0
13400,393216,81,-56,-1,-1,0
13433,1572864,81,-56,-1,-1,0
13466,1638400,81,-56,-1,-1,0
13500,131072,81,-56,-1,-1,0
13533,-589824,81,-56,-1,-1,0
13566,-524288,81,-56,-1,-1,0
13600,-393216,81,-56,-1,-1,0
13633,-589824,81,-56,-1,-1,0
13666,-786432,81,-56,-1,-1,0
13700,-983040,81,-56,-1,-1,0
13733,-1114112,81,-56,-1,-1,0
13766,-720896,81,-56,-1,-1,0
13799,-917504,81,-56,-1,-1,0
13833,-983040,81,-56,-1,-1,0
13866,9961472,81,-56,-1,-1,0
13900,-131072,81,-56,-1,-1,0
13933,-720896,81,-56,-1,-1,0
13966,-327680,81,-56,-1,-1,0
14000,524288,81,-56,-1,-1,0
14033,1507328,81,-56,-1,-1,0
14066,393216,81,-56,-1,-1,0
14100,-655360,81,-56,-1,-1,0
14133,-851968,81,-56,-1,-1,0
14166,-655360,81,-56,-1,-1,0
14200,-655360,81,-56,-1,-1,0
14233,-786432,81,-56,-1,-1,0
14266,-851968,81,-56,-1,-1,0
14299,-983040,81,-56,-1,-1,0
14333,-983040,81,-56,-1,-1,0
14366,-786432,81,-56,-1,-1,0
14400,-720896,81,-56,-1,-1,0
14433,-786432,81,-56,-1,-1,0
14466,-524288,81,-56,-1,-1,0
14500,8912896,81,-56,-1,-1,0
14533,-393216,81,-56,-1,-1,0
14566,-524288,81,-56,-1,-1,0
14600,-65536,80,-56,-1,-1,0
14633,851968,80,-56,-1,-1,0
14666,1245184,80,-56,-1,-1,0
14700,65536,80,-56,-1,-1,0
14733,-524288,80,-56,-1,-1,0
14766,-655360,80,-56,-1,-1,0
14799,-524288,80,-56,-1,-1,0
14833,-589824,80,-56,-1,-1,0
14866,-786432,80,-56,-1,-1,0
14900,-917504,80,-56,-1,-1,0
14933,-983040,80,-56,-1,-1,0
14966,-983040,80,-56,-1,-1,0
15000,-1048576,80,-56,-1,-1,0
15033,-983040,80,-56,-1,-1,0
15066,-1179648,80,-56,-1,-1,0
15100,-655360,80,-56,-1,-1,0
15133,-917504,80,-56,-1,-1,0
15166,-917504,80,-56,-1,-1,0
15200,4849664,80,-56,-1,-1,0
15233,262144,80,-56,-1,-1,0
15266,-524288,80,-56,-1,-1,0
15299,-196608,79,-56,-1,-1,0
15333,458752,79,-56,-1,-1,0
15366,1507328,79,-56,-1,-1,0
15400,1114112,79,-56,-1,-1,0
15433,0,79,-56,-1,-1,0
15466,-327680,79,-56,-1,-1,0
15500,-262144,79,-56,-1,-1,0
15533,-196608,79,-56,-1,-1,0
15566,-327680,79,-56,-1,-1,0
15600,-655360,79,-56,-1,-1,0
15633,-655360,79,-56,-1,-1,0
15666,-655360,79,-56,-1,-1,0
15700,-655360,79,-56,-1,-1,0
15733,-655360,79,-56,-1,-1,0
15766,-655360,79,-56,-1,-1,0
15799,-524288,79,-56,-1,-1,0
15833,-458752,79,-56,-1,-1,0
15866,-458752,79,-56,-1,-1,0
15900,-131072,79,-56,-1,-1,0
15933,9699328,79,-56,-1,-1,0
15966,0,79,-56,-1,-1,0
16000,-131072,78,-56,-1,-1,0
16033,327680,78,-56,-1,-1,0
16066,1441792,78,-56,-1,-1,0
16100,2031616,78,-56,-1,-1,0
16133,720896,78,-56,-1,-1,0
16166,-196608,78,-56,-1,-1,0
16200,-393216,78,-56,-1,-1,0
16233,-262144,78,-56,-1,-1,0
16266,-262144,78,-56,-1,-1,0
16300,-458752,78,-56,-1,-1,0
16333,-655360,78,-56,-1,-1,0
16366,-786432,78,-56,-1,-1,0
16400,-851968,78,-56,-1,-1,0
16433,-851968,78,-56,-1,-1,0
16466,-983040,78,-56,-1,-1,0
16500,-655360,78,-56,-1,-1,0
16533,-917504,78,-56,-1,-1,0
16566,-1048576,78,-56,-1,-1,0
16600,8847360,78,-56,-1,-1,0
16633,-65536,78,-56,-1,-1,0
16666,-655360,78,-56,-1,-1,0
16700,-327680,78,-56,-1,-1,0
16733,589824,78,-56,-1,-1,0
16766,1638400,78,-56,-1,-1,0
16800,720896,78,-56,-1,-1,0
16833,-524288,78,-56,-1,-1,0
16866,-786432,78,-56,-1,-1,0
16900,-655360,78,-56,-1,-1,0
16933,-655360,78,-56,-1,-1,0
16966,-720896,78,-56,-1,-1,0
17000,-851968,78,-56,-1,-1,0
17033,-917504,78,-56,-1,-1,0
17066,-917504,78,-56,-1,-1,0
17100,-983040,78,-56,-1,-1,0
17133,-1048576,78,-56,-1,-1,0
17166,-851968,78,-56,-1,-1,0
17200,-786432,78,-56,-1,-1,0
17233,-851968,78,-56,-1,-1,0
17266,-458752,78,-56,-1,-1,0
17300,8192000,78,-56,-1,-1,0
17333,-393216,78,-56,-1,-1,0
17366,-524288,78,-56,-1,-1,0
17400,-65536,77,-56,-1,-1,0
17433,851968,77,-56,-1,-1,0
17466,1310720,77,-56,-1,-1,0
17500,131072,77,-56,-1,-1,0
17533,-589824,77,-56,-1,-1,0
17566,-720896,77,-56,-1,-1,0
17600,-589824,77,-56,-1,-1,0
17633,-655360,77,-56,-1,-1,0
17666,-786432,77,-56,-1,-1,0
17700,-917504,77,-56,-1,-1,0
17733,-983040,77,-56,-1,-1,0
17766,-1048576,77,-56,-1,-1,0
17800,-1048576,77,-56,-1,-1,0
17833,-1048576,77,-56,-1,-1,0
17866,-1048576,77,-56,-1,-1,0
17900,-851968,77,-56,-1,-1,0
17933,-917504,77,-56,-1,-1,0
17966,-851968,77,-56,-1,-1,0
18000,9633792,77,-56,-1,-1,0
18033,-327680,77,-56,-1,-1,0
18066,-589824,77,-56,-1,-1,0
18100,-131072,77,-56,-1,-1,0
18133,851968,77,-56,-1,-1,0
18166,1703936,77,-56,-1,-1,0
18200,524288,77,-56,-1,-1,0
18233,-262144,77,-56,-1,-1,0
18266,-589824,77,-56,-1,-1,0
18300,-327680,77,-56,-1,-1,0
18333,-393216,77,-56,-1,-1,0
18366,-524288,77,-56,-1,-1,0
18400,-655360,77,-56,-1,-1,0
18433,-720896,77,-56,-1,-1,0
18466,-720896,77,-56,-1,-1,0
18500,-720896,77,-56,-1,-1,0
18533,-720896,77,-56,-1,-1,0
18566,-458752,77,-56,-1,-1,0
18600,-655360,77,-56,-1,-1,0
18633,-589824,77,-56,-1,-1,0
18666,10747904,77,-56,-1,-1,0
18700,-65536,76,-56,-1,-1,0
18733,-262144,76,-56,-1,-1,0
18766,196608,76,-56,-1,-1,0
18800,1179648,76,-56,-1,-1,0
18833,2097152,76,-56,-1,-1,0
18866,917504,76,-56,-1,-1,0
18900,-262144,76,-56,-1,-1,0
18933,-524288,76,-56,-1,-1,0
18966,-458752,76,-56,-1,-1,0
19000,-393216,76,-56,-1,-1,0
19033,-524288,76,-56,-1,-1,0
19066,-720896,76,-56,-1,-1,0
19100,-786432,76,-56,-1,-1,0
19133,-851968,76,-56,-1,-1,0
19166,-1048576,76,-56,-1,-1,0
19200,-589824,76,-56,-1,-1,0
19233,-851968,76,-56,-1,-1,0
19266,-917504,76,-56,-1,-1,0
19300,7864320,76,-56,-1,-1,0
19333,131072,75,-56,-1,-1,0
19366,-589824,75,-56,-1,-1,0
19400,-262144,75,-56,-1,-1,0
19433,589824,75,-56,-1,-1,0
19466,1703936,75,-56,-1,-1,0
19500,983040,75,-56,-1,-1,0
19533,-327680,75,-56,-1,-1,0
19566,-655360,75,-56,-1,-1,0
19600,-524288,75,-56,-1,-1,0
19633,-458752,75,-56,-1,-1,0
19666,-524288,75,-56,-1,-1,0
19700,-720896,75,-56,-1,-1,0
19733,-786432,75,-56,-1,-1,0
19766,-851968,75,-56,-1,-1,0
19800,-1048576,75,-56,-1,-1,0
19833,-524288,75,-56,-1,-1,0
19866,-851968,75,-56,-1,-1,0
19900,-851968,75,-56,-1,-1,0
19933,4521984,75,-56,-1,-1,0
19966,327680,75,-56,-1,-1,0
20000,-589824,75,-56,-1,-1,0
20033,-327680,75,-56,-1,-1,0
20066,327680,75,-56,-1,-1,0
20100,1441792,75,-56,-1,-1,0
20133,983040,75,-56,-1,-1,0
20166,-262144,75,-56,-1,-1,0
20200,-720896,75,-56,-1,-1,0
20233,-589824,75,-56,-1,-1,0
20266,-524288,75,-56,-1,-1,0
20300,-655360,75,-56,-1,-1,0
20333,-720896,75,-56,-1,-1,0
20366,-851968,75,-56,-1,-1,0
20400,-917504,75,-56,-1,-1,0
20433,-917504,75,-56,-1,-1,0
20466,-1114112,75,-56,-1,-1,0
20500,-589824,75,-56,-1,-1,0
20533,-917504,75,-56,-1,-1,0
20566,-983040,75,-56,-1,-1,0
20600,6225920,75,-56,-1,-1,0
20633,0,75,-56,-1,-1,0
20666,-720896,75,-56,-1,-1,0
20700,-393216,75,-56,-1,-1,0
20733,196608,75,-56,-1,-1,0
20766,1179648,75,-56,-1,-1,0
20800,524288,75,-56,-1,-1,0
20833,-524288,75,-56,-1,-1,0
20866,-786432,75,-56,-1,-1,0
20900,-655360,75,-56,-1,-1,0
20933,-589824,75,-56,-1,-1,0
20966,-786432,75,-56,-1,-1,0
21000,-851968,75,-56,-1,-1,0
21033,-983040,75,-56,-1,-1,0
21066,-1048576,75,-56,-1,-1,0
21100,-1048576,75,-56,-1,-1,0
21133,-1114112,75,-56,-1,-1,0
21166,-786432,75,-56,-1,-1,0
21200,-917504,75,-56,-1,-1,0
21233,-917504,75,-56,-1,-1,0
21266,786432,75,-56,-1,-1,0
21300,4718592,75,-56,-1,-1,0
21333,-393216,74,-56,-1,-1,0
21366,-327680,74,-56,-1,-1,0
21400,131072,74,-56,-1,-1,0
21433,1245184,74,-56,-1,-1,0
21466,1441792,74,-56,-1,-1,0
21500,131072,74,-56,-1,-1,0
21533,-458752,74,-56,-1,-1,0
21566,-458752,74,-56,-1,-1,0
21600,-393216,74,-56,-1,-1,0
21633,-458752,74,-56,-1,-1,0
21666,-589824,74,-56,-1,-1,0
21700,-786432,74,-56,-1,-1,0
21733,-851968,74,-56,-1,-1,0
21766,-851968,74,-56,-1,-1,0
21800,-983040,74,-56,-1,-1,0
21833,-458752,74,-56,-1,-1,0
21866,-720896,74,-56,-1,-1,0
21900,-720896,74,-56,-1,-1,0
21933,6553600,74,-56,-1,-1,0
21966,262144,74,-56,-1,-1,0
22000,-458752,74,-56,-1,-1,0
22033,-131072,74,-56,-1,-1,0
22066,655360,74,-56,-1,-1,0
22100,1900544,74,-56,-1,-1,0
22133,1441792,74,-56,-1,-1,0
22166,0,74,-56,-1,-1,0
22200,-589824,74,-56,-1,-1,0
22233,-524288,74,-56,-1,-1,0
22266,-393216,74,-56,-1,-1,0
22300,-524288,74,-56,-1,-1,0
22333,-720896,74,-56,-1,-1,0
22366,-851968,74,-56,-1,-1,0
22400,-917504,74,-56,-1,-1,0
22433,-1048576,74,-56,-1,-1,0
22466,-589824,74,-56,-1,-1,0
22500,-917504,74,-56,-1,-1,0
22533,-917504,74,-56,-1,-1,0
22566,3538944,74,-56,-1,-1,0
22600,720896,74,-56,-1,-1,0
22633,-589824,74,-56,-1,-1,0
22666,-393216,74,-56,-1,-1,0
22700,327680,74,-56,-1,-1,0
22733,1572864,74,-56,-1,-1,0
22766,1376256,74,-56,-1,-1,0
22800,-131072,74,-56,-1,-1,0
22833,-786432,74,-56,-1,-1,0
22866,-655360,74,-56,-1,-1,0
22900,-589824,74,-56,-1,-1,0
22933,-655360,74,-56,-1,-1,0
22966,-786432,74,-56,-1,-1,0
23000,-851968,74,-56,-1,-1,0
23033,-917504,74,-56,-1,-1,0
23066,-983040,74,-56,-1,-1,0
23100,-917504,74,-56,-1,-1,0
23133,-720896,74,-56,-1,-1,0
23166,-851968,74,-56,-1,-1,0
23200,-917504,74,-56,-1,-1,0
23233,9830400,74,-56,-1,-1,0
23266,-131072,74,-56,-1,-1,0
23300,-524288,74,-56,-1,-1,0
23333,-131072,74,-56,-1,-1,0
23366,786432,75,-56,-1,-1,0
23400,1638400,75,-56,-1,-1,0
23433,720896,75,-56,-1,-1,0
23466,-327680,75,-56,-1,-1,0
23500,-524288,75,-56,-1,-1,0
23533,-458752,75,-56,-1,-1,0
23566,-393216,75,-56,-1,-1,0
23600,-524288,75,-56,-1,-1,0
23633,-655360,75,-56,-1,-1,0
23666,-786432,75,-56,-1,-1,0
23700,-786432,75,-56,-1,-1,0
23733,-786432,75,-56,-1,-1,0
23766,-851968,75,-56,-1,-1,0
23800,-786432,75,-56,-1,-1,0
23833,-983040,75,-56,-1,-1,0
23866,-524288,75,-56,-1,-1,0
23900,-786432,75,-56,-1,-1,0
23933,-786432,75,-56,-1,-1,0
23966,7077888,75,-56,-1,-1,0
24000,65536,75,-56,-1,-1,0
24033,-524288,75,-56,-1,-1,0
24066,-262144,75,-56,-1,-1,0
24100,393216,75,-56,-1,-1,0
24133,1310720,75,-56,-1,-1,0
24166,786432,75,-56,-1,-1,0
24200,-196608,75,-56,-1,-1,0
24233,-589824,75,-56,-1,-1,0
24266,-524288,75,-56,-1,-1,0
24300,-458752,75,-56,-1,-1,0
24333,-589824,75,-56,-1,-1,0
24366,-720896,75,-56,-1,-1,0
24400,-851968,75,-56,-1,-1,0
24433,-917504,75,-56,-1,-1,0
24466,-917504,75,-56,-1,-1,0
24500,-917504,75,-56,-1,-1,0
24533,-917504,75,-56,-1,-1,0
24566,-1048576,75,-56,-1,-1,0
24600,-655360,75,-56,-1,-1,0
24633,-851968,75,-56,-1,-1,0
24666,-786432,75,-56,-1,-1,0
24700,1048576,75,-56,-1,-1,0
24733,4587520,75,-56,-1,-1,0
24766,-327680,75,-56,-1,-1,0
24800,-196608,74,-56,-1,-1,0
24833,262144,74,-56,-1,-1,0
24866,1376256,74,-56,-1,-1,0
24900,1835008,74,-56,-1,-1,0
24933,458752,74,-56,-1,-1,0
24966,-262144,74,-56,-1,-1,0
25000,-393216,74,-56,-1,-1,0
25033,-262144,74,-56,-1,-1,0
25066,-262144,74,-56,-1,-1,0
25100,-458752,74,-56,-1,-1,0
25133,-655360,74,-56,-1,-1,0
25166,-720896,74,-56,-1,-1,0
25200,-786432,74,-56,-1,-1,0
25233,-720896,74,-56,-1,-1,0
25266,-917504,74,-56,-1,-1,0
25300,-393216,74,-56,-1,-1,0
25333,-655360,74,-56,-1,-1,0
25366,-720896,74,-56,-1,-1,0
25400,6946816,74,-56,-1,-1,0
25433,262144,74,-56,-1,-1,0
25466,-327680,74,-56,-1,-1,0
25500,-65536,74,-56,-1,-1,0
25533,655360,74,-56,-1,-1,0
25566,1900544,74,-56,-1,-1,0
25600,1572864,74,-56,-1,-1,0
25633,0,74,-56,-1,-1,0
25666,-589824,74,-56,-1,-1,0
25700,-524288,74,-56,-1,-1,0
25733,-458752,74,-56,-1,-1,0
25766,-524288,74,-56,-1,-1,0
25800,-720896,74,-56,-1,-1,0
25833,-851968,74,-56,-1,-1,0
25866,-917504,74,-56,-1,-1,0
25900,-1048576,74,-56,-1,-1,0
25933,-917504,74,-56,-1,-1,0
25966,-786432,74,-56,-1,-1,0
26000,-983040,74,-56,-1,-1,0
26033,-720896,74,-56,-1,-1,0
26066,9502720,74,-56,-1,-1,0
26099,-393216,75,-56,-1,-1,0
26133,-589824,75,-56,-1,-1,0
26166,-196608,75,-56,-1,-1,0
26200,851968,75,-56,-1,-1,0
26233,1769472,75,-56,-1,-1,0
26266,524288,75,-56,-1,-1,0
26300,-589824,75,-56,-1,-1,0
26333,-786432,75,-56,-1,-1,0
26366,-655360,75,-56,-1,-1,0
26400,-589824,75,-56,-1,-1,0
26433,-720896,75,-56,-1,-1,0
26466,-851968,75,-56,-1,-1,0
26500,-917504,75,-56,-1,-1,0
26533,-983040,75,-56,-1,-1,0
26566,-1179648,75,-56,-1,-1,0
26599,-655360,75,-56,-1,-1,0
26633,-983040,75,-56,-1,-1,0
26666,-983040,75,-56,-1,-1,0
26700,4128768,75,-56,-1,-1,0
26733,196608,75,-56,-1,-1,0
26766,-720896,75,-56,-1,-1,0
26800,-524288,75,-56,-1,-1,0
26833,65536,75,-56,-1,-1,0
26866,1245184,75,-56,-1,-1,0
26900,983040,75,-56,-1,-1,0
26933,-262144,75,-56,-1,-1,0
26966,-786432,75,-56,-1,-1,0
27000,-720896,75,-56,-1,-1,0
27033,-589824,75,-56,-1,-1,0
27066,-720896,75,-56,-1,-1,0
27099,-786432,75,-56,-1,-1,0
27133,-1048576,75,-56,-1,-1,0
27166,-983040,75,-56,-1,-1,0
27200,-1245184,75,-56,-1,-1,0
27233,-720896,75,-56,-1,-1,0
27266,-983040,75,-56,-1,-1,0
27300,-1048576,75,-56,-1,-1,0
27333,1769472,75,-56,-1,-1,0
27366,2031616,75,-56,-1,-1,0
27400,-720896,75,-56,-1,-1,0
27433,-524288,75,-56,-1,-1,0
27466,65536,75,-56,-1,-1,0
27500,1179648,75,-56,-1,-1,0
27533,1310720,75,-56,-1,-1,0
27566,0,75,-56,-1,-1,0
27599,-589824,75,-56,-1,-1,0
27633,-524288,75,-56,-1,-1,0
27666,-393216,75,-56,-1,-1,0
27700,-524288,75,-56,-1,-1,0
27733,-589824,75,-56,-1,-1,0
27766,-786432,75,-56,-1,-1,0
27800,-786432,75,-56,-1,-1,0
27833,-917504,75,-56,-1,-1,0
27866,-524288,75,-56,-1,-1,0
27900,-720896,75,-56,-1,-1,0
27933,-786432,75,-56,-1,-1,0
27966,8912896,75,-56,-1,-1,0
28000,196608,75,-56,-1,-1,0
28033,-327680,75,-56,-1,-1,0
28066,0,75,-56,-1,-1,0
28099,851968,75,-56,-1,-1,0
28133,1966080,75,-56,-1,-1,0
28166,1310720,75,-56,-1,-1,0
28200,0,75,-56,-1,-1,0
28233,-524288,75,-56,-1,-1,0
28266,-458752,75,-56,-1,-1,0
28300,-393216,75,-56,-1,-1,0
28333,-458752,75,-56,-1,-1,0
28366,-655360,75,-56,-1,-1,0
28400,-786432,75,-56,-1,-1,0
28433,-1048576,75,-56,-1,-1,0
28466,-655360,75,-56,-1,-1,0
28500,-917504,75,-56,-1,-1,0
28533,-851968,75,-56,-1,-1,0
28566,2097152,75,-56,-1,-1,0
28599,2228224,76,-56,-1,-1,0
28633,-524288,76,-56,-1,-1,0
28666,-458752,76,-56,-1,-1,0
28700,65536,76,-56,-1,-1,0
28733,1310720,76,-56,-1,-1,0
28766,1376256,76,-56,-1,-1,0
28800,-65536,76,-56,-1,-1,0
28833,-786432,76,-56,-1,-1,0
28866,-720896,76,-56,-1,-1,0
28900,-589824,76,-56,-1,-1,0
28933,-720896,76,-56,-1,-1,0
28966,-851968,76,-56,-1,-1,0
29000,-917504,76,-56,-1,-1,0
29033,-983040,76,-56,-1,-1,0
29066,-1114112,76,-56,-1,-1,0
29099,-589824,76,-56,-1,-1,0
29133,-917504,76,-56,-1,-1,0
29166,-917504,76,-56,-1,-1,0
29200,3604480,76,-56,-1,-1,0
29233,589824,76,-56,-1,-1,0
29266,-655360,76,-56,-1,-1,0
29300,-393216,76,-56,-1,-1,0
29333,262144,76,-56,-1,-1,0
29366,1376256,76,-56,-1,-1,0
29400,1179648,76,-56,-1,-1,0
29433,-131072,76,-56,-1,-1,0
29466,-655360,76,-56,-1,-1,0
29500,-589824,76,-56,-1,-1,0
29533,-458752,76,-56,-1,-1,0
29566,-524288,76,-56,-1,-1,0
29599,-720896,76,-56,-1,-1,0
29633,-786432,76,-56,-1,-1,0
29666,-851968,76,-56,-1,-1,0
29700,-851968,76,-56,-1,-1,0
29733,-851968,76,-56,-1,-1,0
29766,-1048576,76,-56,-1,-1,0
29800,-458752,76,-56,-1,-1,0
29833,-786432,76,-56,-1,-1,0
29866,-786432,76,-56,-1,-1,0
29900,2818048,76,-56,-1,-1,0
29933,1179648,76,-56,-1,-1,0
29966,-524288,76,-56,-1,-1,0
30000,-327680,76,-56,-1,-1,0
30033,262144,76,-56,-1,-1,0
30066,1245184,76,-56,-1,-1,0
30099,1245184,76,-56,-1,-1,0
30133,0,76,-56,-1,-1,0
30166,-458752,76,-56,-1,-1,0
30200,-458752,76,-56,-1,-1,0
30233,-327680,76,-56,-1,-1,0
30266,-458752,76,-56,-1,-1,0
30300,-655360,76,-56,-1,-1,0
30333,-851968,76,-56,-1,-1,0
30366,-917504,76,-56,-1,-1,0
30400,-917504,76,-56,-1,-1,0
30433,-983040,76,-56,-1,-1,0
30466,-983040,76,-56,-1,-1,0
30500,-1114112,76,-56,-1,-1,0
30533,-720896,76,-56,-1,-1,0
30566,-983040,76,-56,-1,-1,0
30599,-917504,76,-56,-1,-1,0
30633,720896,76,-56,-1,-1,0
30666,4653056,76,-56,-1,-1,0
30700,-524288,76,-56,-1,-1,0
30733,-458752,75,-56,-1,-1,0
30766,0,75,-56,-1,-1,0
30800,917504,75,-56,-1,-1,0
30833,1245184,75,-56,-1,-1,0
30866,131072,75,-56,-1,-1,0
30900,-524288,75,-56,-1,-1,0
30933,-589824,75,-56,-1,-1,0
30966,-458752,75,-56,-1,-1,0
31000,-524288,75,-56,-1,-1,0
31033,-524288,75,-56,-1,-1,0
31066,-786432,75,-56,-1,-1,0
31099,-720896,75,-56,-1,-1,0
31133,-720896,75,-56,-1,-1,0
31166,-720896,75,-56,-1,-1,0
31200,-851968,75,-56,-1,-1,0
31233,-458752,75,-56,-1,-1,0
31266,-655360,75,-56,-1,-1,0
31300,-786432,75,-56,-1,-1,0
31333,9764864,75,-56,-1,-1,0
31366,196608,74,-56,-1,-1,0
31400,-327680,74,-56,-1,-1,0
31433,0,74,-56,-1,-1,0
31466,917504,74,-56,-1,-1,0
31500,2031616,74,-56,-1,-1,0
31533,1376256,74,-56,-1,-1,0
31566,0,74,-56,-1,-1,0
31599,-458752,74,-56,-1,-1,0
31633,-393216,74,-56,-1,-1,0
31666,-393216,74,-56,-1,-1,0
31700,-458752,74,-56,-1,-1,0
31733,-720896,74,-56,-1,-1,0
31766,-917504,74,-56,-1,-1,0
31800,-983040,74,-56,-1,-1,0
31833,-983040,74,-56,-1,-1,0
31866,-917504,74,-56,-1,-1,0
31900,-1048576,74,-56,-1,-1,0
31933,-851968,75,-56,-1,-1,0
31966,9961472,75,-56,-1,-1,0
32000,-327680,75,-56,-1,-1,0
32033,-589824,75,-56,-1,-1,0
32066,0,75,-56,-1,-1,0
32100,983040,75,-56,-1,-1,0
32133,2097152,75,-56,-1,-1,0
32166,655360,75,-56,-1,-1,0
32200,-393216,75,-56,-1,-1,0
32233,-786432,75,-56,-1,-1,0
32266,-524288,75,-56,-1,-1,0
32299,-655360,75,-56,-1,-1,0
32333,-786432,75,-56,-1,-1,0
32366,-1048576,75,-56,-1,-1,0
32400,-1048576,75,-56,-1,-1,0
32433,-851968,75,-56,-1,-1,0
32466,-786432,75,-56,-1,-1,0
32500,-1048576,75,-56,-1,-1,0
32533,-393216,76,-56,-1,-1,0
32566,7667712,76,-56,-1,-1,0
32600,-720896,76,-56,-1,-1,0
32633,-851968,76,-56,-1,-1,0
32666,-524288,76,-56,-1,-1,0
32700,589824,76,-56,-1,-1,0
32733,1245184,76,-56,-1,-1,0
32766,-65536,76,-56,-1,-1,0
32800,-1048576,76,-56,-1,-1,0
32833,-1114112,76,-56,-1,-1,0
32866,-983040,76,-56,-1,-1,0
32900,-983040,76,-56,-1,-1,0
32933,-1179648,76,-56,-1,-1,0
32966,-1245184,76,-56,-1,-1,0
33000,-1114112,76,-56,-1,-1,0
33033,-1245184,76,-56,-1,-1,0
33066,-1441792,78,-56,-1,-1,0
33100,-1179648,78,-56,-1,-1,0
33133,9502720,78,-56,-1,-1,0
33166,-851968,78,-56,-1,-1,0
33200,-1048576,78,-56,-1,-1,0
33233,-655360,78,-56,-1,-1,0
33266,327680,78,-56,-1,-1,0
33300,1179648,78,-56,-1,-1,0
33333,131072,78,-56,-1,-1,0
33366,-720896,78,-56,-1,-1,0
33400,-851968,78,-56,-1,-1,0
33433,-655360,78,-56,-1,-1,0
33466,-655360,78,-56,-1,-1,0
33500,-851968,78,-56,-1,-1,0
33533,-1114112,78,-56,-1,-1,0
33566,-786432,78,-56,-1,-1,0
33600,-1114112,79,-56,-1,-1,0
33633,-1179648,79,-56,-1,-1,0
33666,7274496,79,-56,-1,-1,0
33700,-131072,79,-56,-1,-1,0
33733,-720896,79,-56,-1,-1,0
33766,-196608,79,-56,-1,-1,0
33800,589824,79,-56,-1,-1,0
33833,2031616,79,-56,-1,-1,0
33866,1441792,79,-56,-1,-1,0
33900,0,79,-56,-1,-1,0
33933,-589824,79,-56,-1,-1,0
33966,-458752,79,-56,-1,-1,0
34000,-524288,79,-56,-1,-1,0
34033,-589824,79,-56,-1,-1,0
34066,-1048576,79,-56,-1,-1,0
34100,-851968,79,-56,-1,-1,0
34133,-1310720,80,-56,-1,-1,0
34166,-1310720,80,-56,-1,-1,0
34200,6029312,80,-56,-1,-1,0
34233,-131072,80,-56,-1,-1,0
34266,-1048576,80,-56,-1,-1,0
34300,-720896,80,-56,-1,-1,0
34333,0,80,-56,-1,-1,0
34366,1572864,80,-56,-1,-1,0
34400,1114112,80,-56,-1,-1,0
34433,-524288,80,-56,-1,-1,0
34466,-1048576,80,-56,-1,-1,0
34500,-1048576,80,-56,-1,-1,0
34533,-917504,80,-56,-1,-1,0
34566,-720896,80,-56,-1,-1,0
34600,-1179648,80,-56,-1,-1,0
34633,-786432,80,-56,-1,-1,0
34666,-1179648,81,-56,-1,-1,0
34700,-1048576,81,-56,-1,-1,0
34733,4456448,81,-56,-1,-1,0
34766,458752,81,-56,-1,-1,0
34800,-655360,81,-56,-1,-1,0
34833,-393216,81,-56,-1,-1,0
34866,327680,81,-56,-1,-1,0
34900,1703936,81,-56,-1,-1,0
34933,1572864,81,-56,-1,-1,0
34966,-65536,81,-56,-1,-1,0
35000,-655360,81,-56,-1,-1,0
35033,-720896,81,-56,-1,-1,0
35066,-589824,81,-56,-1,-1,0
35100,-655360,81,-56,-1,-1,0
35133,-1048576,81,-56,-1,-1,0
35166,-1179648,81,-56,-1,-1,0
35200,-1441792,81,-56,-1,-1,0
35233,-1507328,81,-56,-1,-1,0
35266,-1376256,82,-56,-1,-1,0
35300,8847360,82,-56,-1,-1,0
35333,-1048576,82,-56,-1,-1,0
35366,-1179648,82,-56,-1,-1,0
35400,-720896,82,-56,-1,-1,0
35433,458752,82,-56,-1,-1,0
35466,1507328,82,-56,-1,-1,0
35500,524288,82,-56,-1,-1,0
35533,-720896,82,-56,-1,-1,0
35566,-917504,82,-56,-1,-1,0
35600,-655360,82,-56,-1,-1,0
35633,-589824,82,-56,-1,-1,0
35666,-720896,82,-56,-1,-1,0
35700,-917504,82,-56,-1,-1,0
35733,-786432,82,-56,-1,-1,0
35766,-851968,82,-56,-1,-1,0
35800,-1114112,82,-56,-1,-1,0
35833,-983040,82,-56,-1,-1,0
35866,11993088,84,-56,-1,-1,0
35900,-589824,84,-56,-1,-1,0
35933,-1048576,84,-56,-1,-1,0
35966,-524288,84,-56,-1,-1,0
36000,458752,84,-56,-1,-1,0
36033,1966080,84,-56,-1,-1,0
36066,1114112,84,-56,-1,-1,0
36100,-458752,84,-56,-1,-1,0
36133,-786432,84,-56,-1,-1,0
36166,-720896,84,-56,-1,-1,0
36200,-589824,84,-56,-1,-1,0
36233,-786432,84,-56,-1,-1,0
36266,-917504,84,-56,-1,-1,0
36300,-1048576,84,-56,-1,-1,0
36333,-917504,84,-56,-1,-1,0
36366,-917504,84,-56,-1,-1,0
36400,-1245184,84,-56,-1,-1,0
36433,-917504,84,-56,-1,-1,0
36466,11337728,84,-56,-1,-1,0
36500,-655360,84,-56,-1,-1,0
36533,-1048576,84,-56,-1,-1,0
36566,-524288,84,-56,-1,-1,0
36600,655360,84,-56,-1,-1,0
36633,1966080,84,-56,-1,-1,0
36666,1114112,84,-56,-1,-1,0
36700,-393216,84,-56,-1,-1,0
36733,-851968,84,-56,-1,-1,0
36766,-589824,84,-56,-1,-1,0
36800,-458752,84,-56,-1,-1,0
36833,-589824,84,-56,-1,-1,0
36866,-786432,84,-56,-1,-1,0
36900,-786432,84,-56,-1,-1,0
36933,-917504,84,-56,-1,-1,0
36966,-655360,84,-56,-1,-1,0
37000,-1048576,84,-56,-1,-1,0
37033,-851968,84,-56,-1,-1,0
37066,1703936,84,-56,-1,-1,0
37100,3866624,84,-56,-1,-1,0
37133,-655360,84,-56,-1,-1,0
37166,-655360,84,-56,-1,-1,0
37200,-65536,84,-56,-1,-1,0
37233,1048576,84,-56,-1,-1,0
37266,1835008,84,-56,-1,-1,0
37300,262144,84,-56,-1,-1,0
37333,-786432,84,-56,-1,-1,0
37366,-1048576,84,-56,-1,-1,0
37400,-786432,84,-56,-1,-1,0
37433,-983040,84,-56,-1,-1,0
37466,-1114112,84,-56,-1,-1,0
37500,-1114112,84,-56,-1,-1,0
37533,-1114112,84,-56,-1,-1,0
37566,-1245184,84,-56,-1,-1,0
37600,-1376256,84,-56,-1,-1,0
37633,-1048576,84,-56,-1,-1,0
37666,-1245184,84,-56,-1,-1,0
37700,-1179648,84,-56,-1,-1,0
37733,4128768,84,-56,-1,-1,0
37766,0,84,-56,-1,-1,0
37800,-1114112,84,-56,-1,-1,0
37833,-786432,84,-56,-1,-1,0
37866,-65536,84,-56,-1,-1,0
37900,1376256,84,-56,-1,-1,0
37933,1900544,84,-56,-1,-1,0
37966,262144,84,-56,-1,-1,0
38000,-524288,84,-56,-1,-1,0
38033,-524288,84,-56,-1,-1,0
38066,-524288,84,-56,-1,-1,0
38100,-655360,84,-56,-1,-1,0
38133,-786432,84,-56,-1,-1,0
38166,-1179648,84,-56,-1,-1,0
38200,-1048576,84,-56,-1,-1,0
38233,-1179648,84,-56,-1,-1,0
38266,-983040,84,-56,-1,-1,0
38300,-1376256,84,-56,-1,-1,0
38333,-1638400,84,-56,-1,-1,0
38366,131072,83,-56,-1,-1,0
38400,6946816,83,-56,-1,-1,0
38433,-851968,83,-56,-1,-1,0
38466,-720896,83,-56,-1,-1,0
38500,-262144,83,-56,-1,-1,0
38533,1245184,83,-56,-1,-1,0
38566,2621440,83,-56,-1,-1,0
38600,1310720,83,-56,-1,-1,0
38633,0,83,-56,-1,-1,0
38666,-262144,83,-56,-1,-1,0
38700,0,83,-56,-1,-1,0
38733,0,83,-56,-1,-1,0
38766,-262144,83,-56,-1,-1,0
38800,-458752,83,-56,-1,-1,0
38833,-524288,83,-56,-1,-1,0
38866,0,83,-56,-1,-1,0
38900,-458752,83,-56,-1,-1,0
38933,-983040,84,-56,-1,-1,0
38966,3014656,84,-56,-1,-1,0
39000,1638400,84,-56,-1,-1,0
39033,-655360,84,-56,-1,-1,0
39066,-655360,84,-56,-1,-1,0
39100,-131072,84,-56,-1,-1,0
39133,983040,84,-56,-1,-1,0
39166,1769472,84,-56,-1,-1,0
39200,196608,84,-56,-1,-1,0
39233,-983040,84,-56,-1,-1,0
39266,-917504,84,-56,-1,-1,0
39300,-786432,84,-56,-1,-1,0
39333,-917504,84,-56,-1,-1,0
39366,-1179648,84,-56,-1,-1,0
39400,-1310720,84,-56,-1,-1,0
39433,-786432,84,-56,-1,-1,0
39466,-917504,84,-56,-1,-1,0
39500,-983040,86,-56,-1,-1,0
39533,2621440,86,-56,-1,-1,0
39566,524288,86,-56,-1,-1,0
39600,-1048576,86,-56,-1,-1,0
39633,-720896,86,-56,-1,-1,0
39666,-196608,86,-56,-1,-1,0
39700,1179648,86,-56,-1,-1,0
39733,1703936,86,-56,-1,-1,0
39766,327680,86,-56,-1,-1,0
39800,-589824,86,-56,-1,-1,0
39833,-720896,86,-56,-1,-1,0
39866,-1048576,86,-56,-1,-1,0
39900,-1114112,86,-56,-1,-1,0
39933,-1310720,86,-56,-1,-1,0
39966,-1245184,86,-56,-1,-1,0
40000,-1245184,86,-56,-1,-1,0
40033,-1703936,87,-56,-1,-1,0
40066,-1966080,87,-56,-1,-1,0
40100,8847360,87,-56,-1,-1,0
40133,-1179648,87,-56,-1,-1,0
40166,-1507328,87,-56,-1,-1,0
40200,-917504,87,-56,-1,-1,0
40233,0,87,-56,-1,-1,0
40266,1114112,87,-56,-1,-1,0
40300,589824,87,-56,-1,-1,0
40333,-786432,87,-56,-1,-1,0
40366,-1179648,87,-56,-1,-1,0
40400,-786432,87,-56,-1,-1,0
40433,-1048576,87,-56,-1,-1,0
40466,-1507328,87,-56,-1,-1,0
40500,-1507328,87,-56,-1,-1,0
40533,-1114112,88,-56,-1,-1,0
40566,-851968,88,-56,-1,-1,0
40600,-393216,88,-56,-1,-1,0
40633,10944512,88,-56,-1,-1,0
40666,196608,88,-56,-1,-1,0
40700,196608,88,-56,-1,-1,0
40733,720896,88,-56,-1,-1,0
40766,786432,88,-56,-1,-1,0
40800,2162688,88,-56,-1,-1,0
40833,2228224,88,-56,-1,-1,0
40866,458752,88,-56,-1,-1,0
40900,-65536,88,-56,-1,-1,0
40933,0,88,-56,-1,-1,0
40966,-196608,88,-56,-1,-1,0
41000,-851968,88,-56,-1,-1,0
41033,-851968,88,-56,-1,-1,0
41066,-1048576,89,-56,-1,-1,0
41100,-1310720,89,-56,-1,-1,0
41133,-983040,89,-56,-1,-1,0
41166,10747904,89,-56,-1,-1,0
41200,-786432,89,-56,-1,-1,0
41233,-1245184,89,-56,-1,-1,0
41266,-851968,89,-56,-1,-1,0
41300,327680,89,-56,-1,-1,0
41333,1638400,89,-56,-1,-1,0
41366,589824,89,-56,-1,-1,0
41400,-786432,89,-56,-1,-1,0
41433,-917504,89,-56,-1,-1,0
41466,-589824,89,-56,-1,-1,0
41500,-851968,89,-56,-1,-1,0
41533,-1572864,89,-56,-1,-1,0
41566,-1048576,89,-56,-1,-1,0
41600,-1245184,89,-56,-1,-1,0
41633,-1376256,89,-56,-1,-1,0
41666,2621440,89,-56,-1,-1,0
41700,262144,89,-56,-1,-1,0
41733,-1114112,89,-56,-1,-1,0
41766,-720896,89,-56,-1,-1,0
41800,0,89,-56,-1,-1,0
41833,983040,89,-56,-1,-1,0
41866,1310720,89,-56,-1,-1,0
41900,-65536,89,-56,-1,-1,0
41933,-917504,89,-56,-1,-1,0
41966,-720896,89,-56,-1,-1,0
42000,-655360,89,-56,-1,-1,0
42033,-917504,89,-56,-1,-1,0
42066,-917504,89,-56,-1,-1,0
42100,-1245184,89,-56,-1,-1,0
42133,-1441792,89,-56,-1,-1,0
42166,-1376256,89,-56,-1,-1,0
42200,9633792,89,-56,-1,-1,0
42233,-917504,89,-56,-1,-1,0
42266,-1376256,89,-56,-1,-1,0
42300,-851968,89,-56,-1,-1,0
42333,131072,89,-56,-1,-1,0
42366,1245184,89,-56,-1,-1,0
42400,327680,89,-56,-1,-1,0
42433,-917504,89,-56,-1,-1,0
42466,-917504,89,-56,-1,-1,0
42500,-589824,89,-56,-1,-1,0
42533,-851968,89,-56,-1,-1,0
42566,-1179648,89,-56,-1,-1,0
42600,-1114112,89,-56,-1,-1,0
42633,-1310720,89,-56,-1,-1,0
42666,-1507328,89,-56,-1,-1,0
42700,524288,89,-56,-1,-1,0
42733,4653056,89,-56,-1,-1,0
42766,-983040,89,-56,-1,-1,0
42800,-851968,89,-56,-1,-1,0
42833,-65536,89,-56,-1,-1,0
42866,786432,89,-56,-1,-1,0
42900,1376256,89,-56,-1,-1,0
42933,131072,89,-56,-1,-1,0
42966,-655360,89,-56,-1,-1,0
43000,-983040,89,-56,-1,-1,0
43033,-851968,89,-56,-1,-1,0
43066,-589824,89,-56,-1,-1,0
43100,-589824,89,-56,-1,-1,0
43133,-720896,89,-56,-1,-1,0
43166,-1179648,89,-56,-1,-1,0
43200,-983040,89,-56,-1,-1,0
43233,10158080,89,-56,-1,-1,0
43266,-327680,89,-56,-1,-1,0
43300,-655360,89,-56,-1,-1,0
43333,-262144,89,-56,-1,-1,0
43366,458752,89,-56,-1,-1,0
43400,1769472,89,-56,-1,-1,0
43433,851968,89,-56,-1,-1,0
43466,-393216,89,-56,-1,-1,0
43500,-655360,89,-56,-1,-1,0
43533,-458752,89,-56,-1,-1,0
43566,-720896,89,-56,-1,-1,0
43600,-1048576,89,-56,-1,-1,0
43633,-983040,91,-56,-1,-1,0
43666,-1310720,91,-56,-1,-1,0
43700,-1572864,91,-56,-1,-1,0
43733,7012352,91,-56,-1,-1,0
43766,-524288,91,-56,-1,-1,0
43800,-1048576,91,-56,-1,-1,0
43833,-720896,91,-56,-1,-1,0
43866,196608,91,-56,-1,-1,0
43900,1507328,91,-56,-1,-1,0
43933,1245184,91,-56,-1,-1,0
43966,-131072,91,-56,-1,-1,0
44000,-655360,91,-56,-1,-1,0
44033,-720896,91,-56,-1,-1,0
44066,-983040,91,-56,-1,-1,0
44100,-1310720,91,-56,-1,-1,0
44133,-917504,91,-56,-1,-1,0
44166,-1376256,91,-56,-1,-1,0
44200,-1245184,91,-56,-1,-1,0
44233,4784128,91,-56,-1,-1,0
44266,-196608,91,-56,-1,-1,0
44300,-917504,91,-56,-1,-1,0
44333,-851968,91,-56,-1,-1,0
44366,-458752,91,-56,-1,-1,0
44400,851968,91,-56,-1,-1,0
44433,917504,91,-56,-1,-1,0
44466,-589824,91,-56,-1,-1,0
44500,-1179648,91,-56,-1,-1,0
44533,-983040,91,-56,-1,-1,0
44566,-589824,91,-56,-1,-1,0
44600,-1114112,91,-56,-1,-1,0
44633,-1179648,91,-56,-1,-1,0
44666,-1310720,93,-56,-1,-1,0
44700,-1507328,93,-56,-1,-1,0
44733,-524288,93,-56,-1,-1,0
44766,6225920,93,-56,-1,-1,0
44800,-917504,93,-56,-1,-1,0
44833,-1114112,93,-56,-1,-1,0
44866,-524288,93,-56,-1,-1,0
44900,655360,93,-56,-1,-1,0
44933,1179648,93,-56,-1,-1,0
44966,196608,93,-56,-1,-1,0
45000,-458752,93,-56,-1,-1,0
45033,-655360,93,-56,-1,-1,0
45066,-1048576,93,-56,-1,-1,0
45100,-917504,93,-56,-1,-1,0
45133,-983040,93,-56,-1,-1,0
45166,-851968,94,-56,-1,-1,0
45200,-1179648,94,-56,-1,-1,0
45233,-1114112,94,-56,-1,-1,0
45266,11337728,94,-56,-1,-1,0
45300,-131072,94,-56,-1,-1,0
45333,-786432,94,-56,-1,-1,0
45366,-131072,94,-56,-1,-1,0
45400,655360,94,-56,-1,-1,0
45433,1703936,94,-56,-1,-1,0
45466,786432,94,-56,-1,-1,0
45500,-393216,94,-56,-1,-1,0
45533,-393216,94,-56,-1,-1,0
45566,-327680,94,-56,-1,-1,0
45600,-458752,94,-56,-1,-1,0
45633,-851968,94,-56,-1,-1,0
45666,-524288,96,-56,-1,-1,0
45700,-917504,96,-56,-1,-1,0
45733,-1572864,96,-56,-1,-1,0
45766,8585216,96,-56,-1,-1,0
45800,-196608,96,-56,-1,-1,0
45833,-589824,96,-56,-1,-1,0
45866,-393216,96,-56,-1,-1,0
45900,131072,96,-56,-1,-1,0
45933,1638400,96,-56,-1,-1,0
45966,1310720,96,-56,-1,-1,0
46000,-196608,96,-56,-1,-1,0
46033,-524288,96,-56,-1,-1,0
46066,-524288,96,-56,-1,-1,0
46100,-524288,96,-56,-1,-1,0
46133,-983040,96,-56,-1,-1,0
46166,-1048576,96,-56,-1,-1,0
46200,-1376256,96,-56,-1,-1,0
46233,-1245184,96,-56,-1,-1,0
46266,7536640,96,-56,-1,-1,0
46300,-327680,96,-56,-1,-1,0
46333,-589824,96,-56,-1,-1,0
46366,-458752,96,-56,-1,-1,0
46400,-65536,96,-56,-1,-1,0
46433,1179648,96,-56,-1,-1,0
46466,851968,96,-56,-1,-1,0
46500,-327680,96,-56,-1,-1,0
46533,-655360,96,-56,-1,-1,0
46566,-655360,96,-56,-1,-1,0
46600,-720896,96,-56,-1,-1,0
46633,-1179648,96,-56,-1,-1,0
46666,-983040,96,-56,-1,-1,0
46700,-1441792,96,-56,-1,-1,0
46733,-1507328,96,-56,-1,-1,0
46766,2097152,96,-56,-1,-1,0
46800,393216,96,-56,-1,-1,0
46833,-1245184,96,-56,-1,-1,0
46866,-1114112,96,-56,-1,-1,0
46900,-524288,96,-56,-1,-1,0
46933,327680,96,-56,-1,-1,0
46966,262144,96,-56,-1,-1,0
47000,-524288,96,-56,-1,-1,0
47033,-983040,96,-56,-1,-1,0
47066,-1245184,96,-56,-1,-1,0
47100,-1310720,96,-56,-1,-1,0
47133,-1310720,96,-56,-1,-1,0
47166,-917504,97,-56,-1,-1,0
47200,-1245184,97,-56,-1,-1,0
47233,-1376256,97,-56,-1,-1,0
47266,-458752,97,-56,-1,-1,0
47300,7798784,97,-56,-1,-1,0
47333,-1048576,97,-56,-1,-1,0
47366,-851968,97,-56,-1,-1,0
47400,-589824,97,-56,-1,-1,0
47433,524288,97,-56,-1,-1,0
47466,983040,97,-56,-1,-1,0
47500,-327680,97,-56,-1,-1,0
47533,-786432,97,-56,-1,-1,0
47566,-720896,97,-56,-1,-1,0
47600,-589824,97,-56,-1,-1,0
47633,-983040,97,-56,-1,-1,0
47666,-786432,98,-56,-1,-1,0
47700,-1114112,98,-56,-1,-1,0
47733,-1638400,98,-56,-1,-1,0
47766,131072,98,-56,-1,-1,0
47800,6488064,98,-56,-1,-1,0
47833,-589824,98,-56,-1,-1,0
47866,-589824,98,-56,-1,-1,0
47900,-131072,98,-56,-1,-1,0
47933,1179648,98,-56,-1,-1,0
47966,1376256,98,-56,-1,-1,0
48000,196608,98,-56,-1,-1,0
48033,-196608,98,-56,-1,-1,0
48066,-262144,98,-56,-1,-1,0
48100,-262144,98,-56,-1,-1,0
48133,-851968,98,-56,-1,-1,0
48166,-655360,98,-56,-1,-1,0
48200,-786432,98,-56,-1,-1,0
48233,-851968,98,-56,-1,-1,0
48266,4849664,98,-56,-1,-1,0
48300,65536,98,-56,-1,-1,0
48333,-1310720,98,-56,-1,-1,0
48366,-1179648,98,-56,-1,-1,0
48400,-196608,98,-56,-1,-1,0
48433,1114112,98,-56,-1,-1,0
48466,1048576,98,-56,-1,-1,0
48500,-196608,98,-56,-1,-1,0
48533,-720896,98,-56,-1,-1,0
48566,-327680,98,-56,-1,-1,0
48600,-589824,98,-56,-1,-1,0
48633,-851968,98,-56,-1,-1,0
48666,-1048576,98,-56,-1,-1,0
48700,-1179648,98,-56,-1,-1,0
48733,-786432,98,-56,-1,-1,0
48766,10813440,98,-56,-1,-1,0
48800,-917504,98,-56,-1,-1,0
48833,-1114112,98,-56,-1,-1,0
48866,-262144,98,-56,-1,-1,0
48900,720896,98,-56,-1,-1,0
48933,1114112,98,-56,-1,-1,0
48966,0,98,-56,-1,-1,0
49000,-983040,98,-56,-1,-1,0
49033,-786432,98,-56,-1,-1,0
49066,-983040,98,-56,-1,-1,0
49100,-1376256,98,-56,-1,-1,0
49133,-983040,98,-56,-1,-1,0
49166,-1310720,98,-56,-1,-1,0
49200,-1245184,98,-56,-1,-1,0
49233,2818048,98,-56,-1,-1,0
49266,-65536,98,-56,-1,-1,0
49300,-1572864,98,-56,-1,-1,0
49333,-1376256,98,-56,-1,-1,0
49366,-524288,98,-56,-1,-1,0
49400,524288,98,-56,-1,-1,0
49433,327680,98,-56,-1,-1,0
49466,-786432,98,-56,-1,-1,0
49500,-1245184,98,-56,-1,-1,0
49533,-983040,98,-56,-1,-1,0
49566,-983040,98,-56,-1,-1,0
49600,-1376256,99,-56,-1,-1,0
49633,-1638400,99,-56,-1,-1,0
49666,-1507328,99,-56,-1,-1,0
49700,-1376256,99,-56,-1,-1,0
49733,9568256,99,-56,-1,-1,0
49766,-1048576,99,-56,-1,-1,0
49800,-983040,99,-56,-1,-1,0
49833,-393216,99,-56,-1,-1,0
49866,196608,99,-56,-1,-1,0
49900,720896,99,-56,-1,-1,0
49933,-65536,99,-56,-1,-1,0
49966,-720896,99,-56,-1,-1,0
50000,-917504,99,-56,-1,-1,0
