milliseconds, ECG, ECG HR, PPG, PPG HR, SpO2, PI,Landmark_0,Landmark_1,Landmark_2,Landmark_3,Landmark_4,Landmark_5,Landmark_6,Landmark_7,Landmark_8,Landmark_9,Landmark_10,Landmark_11,Landmark_12,Landmark_13,Landmark_14,Landmark_15,Landmark_16,Landmark_17,Landmark_18,Landmark_19,Landmark_20,Landmark_21,Landmark_22,Landmark_23,Landmark_24,Landmark_25,Landmark_26,Landmark_27,Landmark_28,Landmark_29,Landmark_30,Landmark_31,Landmark_32,Landmark_33,Landmark_34,Landmark_35,Landmark_36,Landmark_37,Landmark_38,Landmark_39,Landmark_40,Landmark_41,Landmark_42,Landmark_43,Landmark_44,Landmark_45,Landmark_46,Landmark_47,Landmark_48,Landmark_49,Landmark_50,Landmark_51,Landmark_52,Landmark_53,Landmark_54,Landmark_55,Landmark_56,Landmark_57,Landmark_58,Landmark_59,Landmark_60,Landmark_61,Landmark_62,Landmark_63,Landmark_64,Landmark_65,Landmark_66,Landmark_67,EyeAspectRatio,MouthAspectRatio,LightIntensity,FaceWidthRatio,EyebrowHeight,LipsWidthRatio,LipsHeightRatio,EyeOpening,NoseWidthRatio,NoseHeightRatio,AvgRedForehead,AvgGreenForehead,AvgBlueForehead,AvgRedLips,AvgGreenLips,AvgBlueLips,AvgRedCheeks,AvgGreenCheeks,AvgBlueCheeks
0,524288,64,-56,-1,-1,0,"(1023, 437)","(1019, 465)","(1020, 493)","(1023, 521)","(1030, 550)","(1040, 578)","(1055, 605)","(1074, 627)","(1102, 635)","(1132, 633)","(1160, 619)","(1184, 598)","(1203, 573)","(1216, 544)","(1222, 513)","(1226, 481)","(1228, 450)","(1027, 424)","(1039, 414)","(1056, 415)","(1072, 421)","(1088, 430)","(1121, 431)","(1142, 423)","(1164, 421)","(1185, 426)","(1200, 440)","(1103, 450)","(1100, 471)","(1097, 493)","(1094, 515)","(1078, 522)","(1087, 529)","(1097, 534)","(1110, 530)","(1121, 526)","(1047, 443)","(1056, 436)","(1071, 439)","(1082, 450)","(1069, 452)","(1055, 451)","(1135, 454)","(1148, 444)","(1163, 445)","(1175, 454)","(1163, 459)","(1148, 459)","(1067, 556)","(1078, 554)","(1089, 553)","(1099, 557)","(1110, 555)","(1126, 557)","(1145, 562)","(1128, 575)","(1111, 581)","(1100, 581)","(1089, 579)","(1078, 571)","(1074, 558)","(1089, 562)","(1099, 564)","(1110, 564)","(1137, 563)","(1111, 567)","(1100, 567)","(1090, 564)",0.36,1.06,37.0,0.36,0.1,0.38,0.02,-15.5,0.08,0.35,23.4,43.1,75.7,12.2,21.85,49.7,18.47,34.64,49.7
33,1441792,64,-56,-1,-1,0,"(1036, 444)","(1033, 470)","(1034, 496)","(1037, 522)","(1042, 549)","(1052, 576)","(1064, 601)","(1082, 622)","(1107, 630)","(1136, 628)","(1165, 615)","(1191, 596)","(1212, 572)","(1226, 544)","(1234, 512)","(1238, 480)","(1239, 448)","(1037, 426)","(1046, 415)","(1061, 414)","(1077, 419)","(1092, 428)","(1125, 429)","(1145, 421)","(1168, 419)","(1189, 425)","(1206, 438)","(1107, 448)","(1104, 469)","(1101, 489)","(1097, 511)","(1082, 518)","(1090, 525)","(1101, 530)","(1113, 527)","(1126, 522)","(1054, 443)","(1063, 436)","(1077, 437)","(1088, 448)","(1075, 450)","(1062, 449)","(1140, 452)","(1153, 442)","(1167, 443)","(1179, 451)","(1168, 456)","(1153, 456)","(1073, 553)","(1083, 550)","(1094, 549)","(1103, 553)","(1114, 551)","(1131, 554)","(1149, 559)","(1131, 571)","(1114, 576)","(1103, 576)","(1093, 574)","(1082, 566)","(1079, 554)","(1093, 557)","(1103, 560)","(1114, 559)","(1142, 559)","(1114, 562)","(1103, 563)","(1094, 560)",0.34,1.1,37.0,0.36,0.07,0.37,0.02,-14.0,0.09,0.34,20.6,40.7,72.3,12.15,22.1,49.6,10.58,23.64,35.82
66,3801088,64,-56,-1,-1,0,"(1039, 438)","(1037, 465)","(1039, 491)","(1042, 518)","(1048, 545)","(1057, 571)","(1070, 595)","(1087, 615)","(1111, 623)","(1140, 621)","(1168, 608)","(1193, 590)","(1213, 566)","(1227, 538)","(1234, 508)","(1239, 476)","(1241, 445)","(1041, 423)","(1051, 412)","(1067, 412)","(1082, 417)","(1097, 425)","(1129, 426)","(1150, 419)","(1171, 417)","(1193, 422)","(1209, 435)","(1112, 445)","(1109, 465)","(1106, 486)","(1103, 507)","(1088, 514)","(1096, 521)","(1106, 525)","(1118, 522)","(1130, 518)","(1059, 439)","(1068, 432)","(1082, 434)","(1093, 445)","(1080, 447)","(1067, 446)","(1144, 449)","(1156, 439)","(1171, 440)","(1183, 448)","(1171, 453)","(1157, 453)","(1078, 548)","(1088, 545)","(1099, 545)","(1108, 548)","(1118, 546)","(1134, 549)","(1152, 553)","(1135, 565)","(1118, 571)","(1107, 571)","(1097, 568)","(1087, 561)","(1084, 550)","(1098, 553)","(1108, 555)","(1118, 554)","(1145, 554)","(1118, 557)","(1108, 557)","(1098, 555)",0.34,1.08,37.0,0.36,0.07,0.36,0.02,-14.5,0.08,0.34,21.1,38.5,70.9,12.25,22.45,50.25,10.0,22.41,34.52
100,5308416,64,-56,-1,-1,0,"(1042, 433)","(1040, 460)","(1043, 486)","(1046, 513)","(1052, 539)","(1062, 566)","(1075, 590)","(1093, 609)","(1118, 616)","(1147, 615)","(1174, 602)","(1198, 583)","(1217, 560)","(1230, 533)","(1236, 503)","(1241, 472)","(1243, 441)","(1045, 419)","(1056, 409)","(1072, 409)","(1088, 414)","(1103, 423)","(1135, 423)","(1155, 416)","(1176, 414)","(1197, 419)","(1212, 432)","(1117, 441)","(1115, 461)","(1111, 482)","(1108, 503)","(1093, 510)","(1101, 516)","(1112, 521)","(1124, 518)","(1135, 514)","(1064, 435)","(1073, 428)","(1087, 430)","(1098, 442)","(1085, 444)","(1072, 442)","(1149, 445)","(1161, 435)","(1176, 436)","(1187, 444)","(1176, 450)","(1161, 449)","(1084, 543)","(1093, 540)","(1104, 539)","(1113, 543)","(1124, 541)","(1140, 543)","(1157, 548)","(1140, 559)","(1125, 565)","(1114, 565)","(1104, 563)","(1094, 556)","(1090, 545)","(1104, 547)","(1113, 549)","(1124, 549)","(1150, 549)","(1125, 551)","(1114, 552)","(1105, 549)",0.36,1.09,37.0,0.36,0.09,0.36,0.02,-15.5,0.08,0.35,20.1,38.9,69.0,12.55,21.65,48.6,11.41,23.35,36.17
133,1900544,64,-56,-1,-1,0,"(1048, 428)","(1046, 454)","(1047, 480)","(1049, 506)","(1054, 534)","(1064, 560)","(1078, 584)","(1097, 603)","(1122, 610)","(1151, 609)","(1178, 596)","(1201, 577)","(1219, 553)","(1231, 526)","(1237, 497)","(1241, 467)","(1242, 437)","(1051, 413)","(1062, 404)","(1078, 405)","(1093, 411)","(1108, 420)","(1140, 421)","(1159, 414)","(1180, 412)","(1200, 416)","(1215, 428)","(1123, 438)","(1121, 458)","(1118, 478)","(1115, 499)","(1099, 505)","(1107, 512)","(1118, 517)","(1129, 513)","(1140, 509)","(1069, 432)","(1079, 426)","(1092, 428)","(1104, 438)","(1090, 440)","(1077, 439)","(1153, 442)","(1165, 433)","(1180, 434)","(1191, 442)","(1180, 447)","(1166, 447)","(1089, 537)","(1099, 535)","(1110, 534)","(1119, 538)","(1129, 536)","(1145, 538)","(1162, 543)","(1145, 554)","(1130, 559)","(1119, 560)","(1109, 557)","(1099, 550)","(1095, 539)","(1110, 542)","(1119, 544)","(1129, 544)","(1155, 543)","(1130, 546)","(1120, 547)","(1110, 544)",0.35,1.07,37.0,0.37,0.1,0.37,0.02,-14.0,0.08,0.35,20.5,38.0,68.1,11.25,21.0,50.1,10.58,23.94,37.94
166,-458752,64,-56,-1,-1,0,"(1052, 422)","(1049, 449)","(1050, 475)","(1053, 501)","(1057, 529)","(1067, 555)","(1082, 578)","(1101, 598)","(1127, 605)","(1155, 603)","(1182, 591)","(1205, 572)","(1222, 549)","(1233, 522)","(1239, 493)","(1243, 464)","(1245, 435)","(1058, 410)","(1069, 402)","(1085, 403)","(1101, 408)","(1115, 418)","(1147, 419)","(1165, 412)","(1185, 410)","(1205, 415)","(1219, 426)","(1130, 436)","(1128, 455)","(1125, 474)","(1122, 494)","(1106, 501)","(1114, 507)","(1124, 512)","(1136, 509)","(1146, 505)","(1076, 428)","(1086, 422)","(1099, 424)","(1110, 435)","(1097, 437)","(1084, 436)","(1159, 439)","(1171, 430)","(1185, 431)","(1196, 439)","(1185, 444)","(1171, 444)","(1095, 532)","(1105, 530)","(1117, 530)","(1125, 533)","(1135, 531)","(1150, 534)","(1167, 538)","(1151, 549)","(1136, 553)","(1126, 554)","(1116, 551)","(1105, 545)","(1101, 534)","(1116, 537)","(1125, 539)","(1135, 539)","(1160, 539)","(1136, 541)","(1126, 541)","(1117, 539)",0.36,1.04,37.0,0.37,0.11,0.37,0.02,-14.5,0.08,0.34,18.8,36.9,64.3,12.1,22.05,49.95,12.35,24.11,37.76
200,-458752,64,-56,-1,-1,0,"(1056, 420)","(1054, 446)","(1055, 472)","(1057, 498)","(1062, 525)","(1072, 550)","(1087, 572)","(1107, 591)","(1132, 597)","(1159, 596)","(1185, 584)","(1207, 567)","(1223, 544)","(1234, 518)","(1240, 490)","(1244, 462)","(1247, 434)","(1065, 409)","(1076, 400)","(1092, 401)","(1107, 406)","(1122, 415)","(1153, 416)","(1171, 409)","(1190, 408)","(1210, 412)","(1223, 424)","(1137, 432)","(1134, 451)","(1131, 470)","(1128, 489)","(1112, 496)","(1121, 502)","(1130, 507)","(1141, 504)","(1152, 500)","(1083, 427)","(1093, 421)","(1106, 422)","(1116, 432)","(1104, 434)","(1091, 433)","(1164, 436)","(1176, 428)","(1190, 429)","(1200, 436)","(1190, 441)","(1176, 441)","(1101, 527)","(1111, 525)","(1122, 524)","(1131, 527)","(1141, 525)","(1155, 528)","(1172, 533)","(1156, 543)","(1142, 548)","(1132, 548)","(1122, 546)","(1112, 540)","(1107, 529)","(1122, 532)","(1131, 533)","(1141, 533)","(1165, 533)","(1142, 536)","(1132, 536)","(1123, 534)",0.34,1.02,37.0,0.36,0.1,0.37,0.02,-13.0,0.07,0.34,19.0,36.6,65.4,12.3,22.15,48.8,9.41,22.11,34.88
233,-983040,64,-56,-1,-1,0,"(1067, 418)","(1065, 443)","(1065, 468)","(1067, 493)","(1073, 518)","(1083, 542)","(1097, 564)","(1114, 583)","(1138, 590)","(1165, 589)","(1191, 577)","(1214, 560)","(1232, 538)","(1245, 512)","(1251, 484)","(1255, 456)","(1257, 427)","(1074, 406)","(1085, 398)","(1100, 399)","(1114, 404)","(1129, 412)","(1158, 413)","(1176, 406)","(1195, 405)","(1214, 409)","(1229, 420)","(1142, 429)","(1140, 448)","(1137, 466)","(1134, 485)","(1119, 491)","(1127, 497)","(1136, 502)","(1147, 499)","(1158, 495)","(1091, 423)","(1101, 417)","(1113, 419)","(1124, 429)","(1111, 431)","(1099, 430)","(1170, 433)","(1181, 424)","(1195, 425)","(1206, 433)","(1195, 437)","(1182, 437)","(1108, 521)","(1118, 519)","(1129, 519)","(1137, 522)","(1147, 520)","(1161, 523)","(1177, 527)","(1161, 537)","(1147, 542)","(1137, 542)","(1128, 540)","(1118, 533)","(1114, 523)","(1129, 526)","(1137, 528)","(1146, 528)","(1170, 527)","(1147, 530)","(1137, 530)","(1129, 528)",0.34,1.01,37.0,0.36,0.1,0.36,0.02,-13.5,0.08,0.34,18.2,36.8,64.5,10.8,21.4,49.0,9.47,21.23,32.41
266,-262144,64,-56,-1,-1,0,"(1076, 416)","(1074, 440)","(1074, 463)","(1077, 487)","(1082, 512)","(1091, 535)","(1105, 557)","(1122, 574)","(1145, 581)","(1170, 580)","(1193, 568)","(1213, 550)","(1228, 529)","(1239, 505)","(1244, 480)","(1248, 454)","(1249, 427)","(1082, 404)","(1092, 395)","(1106, 394)","(1121, 399)","(1135, 407)","(1164, 409)","(1182, 402)","(1200, 400)","(1218, 405)","(1231, 416)","(1149, 425)","(1147, 442)","(1144, 460)","(1142, 478)","(1127, 486)","(1134, 491)","(1143, 495)","(1154, 492)","(1164, 489)","(1098, 419)","(1107, 413)","(1119, 415)","(1130, 425)","(1118, 427)","(1105, 426)","(1175, 429)","(1186, 420)","(1199, 420)","(1209, 428)","(1200, 433)","(1186, 432)","(1115, 515)","(1125, 512)","(1136, 511)","(1144, 514)","(1153, 512)","(1167, 515)","(1182, 521)","(1168, 532)","(1154, 537)","(1144, 537)","(1135, 535)","(1125, 528)","(1121, 517)","(1136, 519)","(1144, 521)","(1153, 520)","(1176, 521)","(1154, 524)","(1145, 525)","(1136, 522)",0.36,1.02,37.0,0.38,0.08,0.38,0.02,-13.5,0.08,0.33,21.0,39.3,68.0,11.4,20.9,48.6,11.76,25.58,41.7
300,-720896,64,-56,-1,-1,0,"(1086, 414)","(1083, 437)","(1084, 460)","(1086, 484)","(1091, 507)","(1100, 530)","(1112, 550)","(1128, 568)","(1151, 574)","(1176, 573)","(1200, 561)","(1220, 544)","(1237, 523)","(1248, 500)","(1254, 474)","(1258, 447)","(1259, 421)","(1091, 402)","(1099, 393)","(1113, 392)","(1128, 396)","(1141, 404)","(1169, 405)","(1186, 398)","(1205, 397)","(1223, 401)","(1235, 413)","(1154, 420)","(1152, 438)","(1149, 455)","(1147, 473)","(1132, 480)","(1139, 485)","(1149, 489)","(1159, 486)","(1169, 483)","(1106, 416)","(1114, 410)","(1126, 411)","(1136, 421)","(1124, 423)","(1112, 422)","(1181, 424)","(1191, 415)","(1203, 416)","(1214, 423)","(1204, 427)","(1191, 427)","(1121, 509)","(1131, 506)","(1141, 505)","(1150, 508)","(1159, 506)","(1173, 509)","(1187, 513)","(1173, 525)","(1159, 529)","(1149, 530)","(1140, 528)","(1130, 521)","(1126, 510)","(1141, 512)","(1149, 514)","(1159, 514)","(1181, 514)","(1159, 517)","(1150, 518)","(1141, 516)",0.34,1.01,37.0,0.36,0.08,0.38,0.02,-12.5,0.08,0.34,20.0,37.2,64.9,11.2,21.35,48.4,10.35,22.47,36.47
333,-851968,64,-56,-1,-1,0,"(1089, 408)","(1087, 431)","(1088, 454)","(1090, 477)","(1096, 500)","(1105, 522)","(1117, 543)","(1133, 560)","(1155, 566)","(1180, 565)","(1203, 553)","(1223, 537)","(1239, 517)","(1251, 494)","(1257, 469)","(1261, 443)","(1262, 417)","(1096, 397)","(1105, 388)","(1119, 387)","(1133, 391)","(1147, 398)","(1174, 399)","(1191, 393)","(1209, 391)","(1226, 396)","(1239, 407)","(1159, 414)","(1157, 431)","(1154, 448)","(1152, 466)","(1137, 473)","(1145, 478)","(1154, 482)","(1164, 479)","(1174, 476)","(1111, 410)","(1120, 404)","(1131, 406)","(1141, 415)","(1130, 417)","(1118, 416)","(1186, 418)","(1196, 410)","(1208, 410)","(1218, 417)","(1208, 421)","(1196, 421)","(1127, 502)","(1136, 499)","(1146, 498)","(1154, 501)","(1164, 499)","(1177, 502)","(1192, 507)","(1177, 517)","(1164, 522)","(1154, 522)","(1145, 520)","(1136, 514)","(1132, 504)","(1146, 505)","(1154, 507)","(1163, 506)","(1186, 507)","(1164, 510)","(1155, 511)","(1146, 508)",0.34,1.02,37.0,0.36,0.07,0.37,0.02,-12.0,0.08,0.34,17.2,35.5,65.5,11.55,20.9,47.85,9.58,21.94,37.82
366,-1114112,64,-56,-1,-1,0,"(1095, 402)","(1092, 424)","(1092, 447)","(1094, 470)","(1100, 493)","(1109, 515)","(1122, 535)","(1138, 552)","(1160, 558)","(1185, 556)","(1207, 545)","(1227, 529)","(1243, 508)","(1253, 485)","(1259, 461)","(1262, 436)","(1263, 411)","(1101, 390)","(1110, 382)","(1124, 381)","(1138, 384)","(1152, 392)","(1179, 394)","(1196, 387)","(1213, 386)","(1230, 390)","(1243, 401)","(1164, 409)","(1162, 425)","(1160, 442)","(1158, 459)","(1144, 467)","(1151, 472)","(1159, 475)","(1169, 473)","(1179, 470)","(1116, 405)","(1125, 399)","(1137, 400)","(1147, 410)","(1135, 412)","(1123, 411)","(1190, 413)","(1200, 404)","(1212, 405)","(1222, 412)","(1213, 416)","(1200, 416)","(1132, 495)","(1142, 492)","(1152, 491)","(1160, 493)","(1169, 492)","(1182, 494)","(1196, 500)","(1182, 510)","(1169, 514)","(1160, 515)","(1151, 513)","(1142, 507)","(1138, 497)","(1152, 498)","(1160, 500)","(1169, 499)","(1190, 500)","(1169, 502)","(1161, 503)","(1152, 501)",0.35,0.99,36.0,0.37,0.07,0.38,0.02,-12.5,0.08,0.33,19.3,36.7,65.9,11.35,20.95,47.5,9.29,21.35,35.94
400,-1376256,64,-56,-1,-1,0,"(1103, 401)","(1100, 423)","(1101, 445)","(1103, 467)","(1108, 489)","(1117, 511)","(1129, 530)","(1145, 545)","(1166, 551)","(1189, 549)","(1212, 539)","(1232, 523)","(1247, 503)","(1258, 481)","(1264, 457)","(1268, 432)","(1269, 407)","(1109, 388)","(1117, 378)","(1131, 377)","(1144, 381)","(1158, 388)","(1184, 389)","(1200, 383)","(1217, 381)","(1234, 385)","(1246, 396)","(1169, 404)","(1167, 420)","(1166, 436)","(1163, 453)","(1149, 461)","(1156, 466)","(1165, 469)","(1175, 467)","(1184, 464)","(1123, 401)","(1131, 395)","(1142, 396)","(1152, 405)","(1141, 407)","(1130, 406)","(1195, 408)","(1204, 400)","(1216, 401)","(1226, 408)","(1216, 411)","(1205, 411)","(1138, 489)","(1147, 486)","(1157, 485)","(1165, 488)","(1174, 486)","(1187, 489)","(1200, 493)","(1186, 503)","(1173, 507)","(1164, 507)","(1156, 506)","(1146, 500)","(1143, 490)","(1157, 492)","(1165, 493)","(1174, 493)","(1194, 493)","(1173, 496)","(1165, 496)","(1157, 495)",0.33,0.99,36.0,0.36,0.05,0.37,0.02,-11.5,0.09,0.33,20.3,38.5,67.9,8.65,18.7,46.45,9.29,20.76,35.17
433,-917504,64,-56,-1,-1,0,"(1108, 400)","(1107, 422)","(1108, 443)","(1110, 465)","(1115, 486)","(1123, 507)","(1135, 525)","(1151, 540)","(1172, 545)","(1195, 543)","(1217, 533)","(1236, 518)","(1251, 499)","(1261, 478)","(1266, 454)","(1269, 430)","(1271, 405)","(1114, 389)","(1122, 379)","(1136, 377)","(1150, 380)","(1164, 387)","(1188, 387)","(1204, 381)","(1222, 379)","(1238, 384)","(1250, 396)","(1175, 402)","(1173, 417)","(1171, 433)","(1169, 449)","(1155, 457)","(1162, 462)","(1170, 465)","(1180, 463)","(1189, 459)","(1129, 401)","(1137, 396)","(1148, 396)","(1158, 404)","(1147, 406)","(1136, 406)","(1199, 406)","(1209, 399)","(1221, 400)","(1230, 406)","(1221, 410)","(1209, 409)","(1143, 485)","(1153, 482)","(1163, 480)","(1170, 483)","(1179, 481)","(1191, 483)","(1205, 488)","(1191, 497)","(1179, 501)","(1170, 502)","(1162, 500)","(1152, 495)","(1148, 486)","(1162, 487)","(1170, 488)","(1179, 488)","(1199, 488)","(1179, 491)","(1171, 491)","(1163, 490)",0.32,0.96,36.0,0.36,0.05,0.38,0.02,-10.5,0.08,0.32,16.0,32.6,59.0,8.75,18.95,46.3,7.47,17.52,31.47
466,-1376256,64,-56,-1,-1,0,"(1102, 393)","(1100, 416)","(1101, 438)","(1104, 460)","(1111, 481)","(1121, 502)","(1135, 521)","(1152, 537)","(1174, 542)","(1196, 540)","(1216, 529)","(1234, 514)","(1247, 495)","(1256, 474)","(1261, 451)","(1264, 428)","(1265, 405)","(1117, 385)","(1127, 377)","(1141, 375)","(1155, 378)","(1168, 385)","(1193, 385)","(1208, 379)","(1223, 377)","(1239, 381)","(1249, 392)","(1180, 400)","(1178, 415)","(1177, 430)","(1175, 446)","(1160, 455)","(1168, 459)","(1176, 462)","(1185, 460)","(1193, 457)","(1133, 399)","(1142, 395)","(1152, 395)","(1161, 402)","(1151, 404)","(1141, 404)","(1202, 404)","(1212, 398)","(1223, 398)","(1231, 404)","(1223, 408)","(1212, 407)","(1148, 482)","(1158, 479)","(1168, 477)","(1176, 480)","(1184, 478)","(1195, 480)","(1208, 485)","(1196, 494)","(1185, 499)","(1176, 499)","(1168, 498)","(1158, 493)","(1153, 483)","(1168, 484)","(1176, 486)","(1184, 485)","(1203, 486)","(1184, 488)","(1176, 488)","(1169, 487)",0.32,0.92,36.0,0.34,0.06,0.36,0.02,-9.5,0.07,0.32,14.4,31.8,58.1,9.5,19.15,46.75,8.52,21.17,35.88
500,-1376256,64,-56,-1,-1,0,"(1113, 396)","(1113, 417)","(1115, 439)","(1117, 460)","(1122, 481)","(1131, 501)","(1144, 518)","(1160, 532)","(1181, 537)","(1203, 535)","(1223, 524)","(1241, 510)","(1254, 492)","(1263, 471)","(1268, 448)","(1272, 426)","(1274, 402)","(1123, 387)","(1132, 377)","(1146, 375)","(1160, 378)","(1173, 385)","(1197, 385)","(1212, 378)","(1228, 377)","(1244, 381)","(1255, 392)","(1184, 399)","(1183, 414)","(1181, 430)","(1180, 445)","(1165, 453)","(1172, 457)","(1180, 460)","(1189, 458)","(1198, 455)","(1139, 399)","(1147, 394)","(1158, 395)","(1167, 402)","(1157, 404)","(1146, 403)","(1207, 404)","(1217, 397)","(1227, 398)","(1236, 404)","(1227, 407)","(1217, 407)","(1153, 480)","(1163, 476)","(1173, 474)","(1180, 477)","(1188, 475)","(1200, 478)","(1212, 482)","(1200, 491)","(1189, 495)","(1180, 495)","(1172, 494)","(1163, 490)","(1158, 481)","(1173, 481)","(1180, 482)","(1188, 482)","(1207, 482)","(1189, 484)","(1181, 485)","(1173, 484)",0.32,0.94,36.0,0.35,0.03,0.36,0.02,-10.0,0.08,0.33,13.9,29.8,54.1,8.4,17.6,45.0,7.05,17.7,30.7
533,720896,64,-56,-1,-1,0,"(1119, 393)","(1117, 414)","(1118, 434)","(1119, 455)","(1125, 476)","(1134, 496)","(1146, 514)","(1163, 529)","(1183, 534)","(1205, 532)","(1225, 522)","(1243, 506)","(1256, 488)","(1264, 467)","(1269, 445)","(1272, 423)","(1273, 400)","(1128, 384)","(1136, 375)","(1150, 373)","(1163, 376)","(1176, 383)","(1201, 383)","(1215, 377)","(1231, 376)","(1246, 380)","(1256, 390)","(1188, 399)","(1186, 413)","(1185, 428)","(1184, 443)","(1170, 451)","(1176, 455)","(1184, 458)","(1193, 456)","(1201, 453)","(1143, 398)","(1151, 393)","(1162, 394)","(1170, 400)","(1161, 403)","(1150, 402)","(1209, 402)","(1219, 397)","(1230, 397)","(1238, 403)","(1230, 406)","(1219, 405)","(1158, 477)","(1167, 473)","(1177, 472)","(1184, 474)","(1192, 473)","(1203, 475)","(1215, 480)","(1203, 489)","(1192, 493)","(1184, 493)","(1176, 492)","(1167, 487)","(1163, 478)","(1177, 479)","(1184, 480)","(1192, 480)","(1210, 480)","(1192, 483)","(1184, 483)","(1177, 482)",0.29,0.94,36.0,0.36,0.05,0.37,0.02,-9.5,0.08,0.32,17.6,33.8,59.7,7.85,17.35,42.9,7.05,16.76,29.64
566,-3997696,64,-56,-1,-1,0,"(1124, 397)","(1123, 418)","(1124, 438)","(1126, 458)","(1131, 478)","(1140, 497)","(1152, 514)","(1168, 526)","(1188, 531)","(1209, 529)","(1229, 518)","(1245, 503)","(1257, 486)","(1264, 466)","(1268, 445)","(1271, 423)","(1271, 402)","(1132, 385)","(1140, 376)","(1154, 374)","(1167, 377)","(1180, 383)","(1204, 383)","(1218, 378)","(1233, 376)","(1248, 380)","(1257, 390)","(1191, 398)","(1190, 412)","(1189, 426)","(1188, 441)","(1173, 449)","(1180, 453)","(1188, 456)","(1197, 453)","(1205, 451)","(1147, 398)","(1155, 394)","(1165, 394)","(1174, 400)","(1164, 402)","(1154, 402)","(1212, 402)","(1222, 396)","(1232, 397)","(1240, 402)","(1232, 405)","(1222, 405)","(1161, 476)","(1171, 472)","(1181, 470)","(1188, 472)","(1196, 470)","(1207, 473)","(1218, 478)","(1207, 487)","(1196, 491)","(1188, 491)","(1180, 490)","(1170, 485)","(1166, 477)","(1181, 477)","(1188, 478)","(1196, 477)","(1213, 478)","(1196, 481)","(1188, 481)","(1181, 480)",0.3,0.9,37.0,0.37,0.04,0.38,0.02,-8.5,0.09,0.32,14.9,29.8,54.2,8.05,17.15,43.85,7.64,19.64,33.76
600,-1376256,65,-56,-1,-1,0,"(1127, 396)","(1126, 416)","(1127, 436)","(1129, 456)","(1134, 476)","(1143, 495)","(1155, 511)","(1171, 524)","(1191, 528)","(1212, 526)","(1230, 515)","(1246, 500)","(1257, 483)","(1264, 463)","(1268, 443)","(1271, 422)","(1271, 401)","(1136, 385)","(1144, 376)","(1157, 374)","(1170, 377)","(1183, 383)","(1206, 383)","(1220, 377)","(1235, 376)","(1249, 379)","(1258, 389)","(1194, 397)","(1193, 411)","(1192, 425)","(1191, 440)","(1177, 448)","(1184, 452)","(1191, 455)","(1200, 452)","(1208, 449)","(1150, 398)","(1158, 393)","(1168, 394)","(1176, 400)","(1167, 402)","(1157, 402)","(1214, 401)","(1224, 395)","(1234, 396)","(1241, 401)","(1234, 404)","(1224, 404)","(1164, 474)","(1174, 471)","(1184, 469)","(1191, 471)","(1199, 469)","(1209, 471)","(1221, 476)","(1210, 485)","(1199, 489)","(1191, 490)","(1183, 488)","(1174, 484)","(1169, 475)","(1184, 475)","(1191, 477)","(1199, 476)","(1215, 476)","(1199, 478)","(1191, 479)","(1184, 478)",0.31,0.88,37.0,0.36,0.03,0.39,0.02,-9.0,0.09,0.32,13.2,28.9,51.3,8.0,17.7,43.2,8.17,19.23,33.76
633,-524288,65,-56,-1,-1,0,"(1129, 394)","(1128, 414)","(1129, 434)","(1131, 454)","(1136, 474)","(1145, 492)","(1158, 508)","(1174, 521)","(1194, 525)","(1214, 523)","(1232, 512)","(1247, 498)","(1258, 481)","(1265, 462)","(1269, 441)","(1271, 421)","(1272, 400)","(1138, 385)","(1147, 376)","(1160, 373)","(1173, 376)","(1186, 382)","(1209, 382)","(1222, 377)","(1237, 375)","(1250, 379)","(1259, 389)","(1197, 397)","(1196, 410)","(1195, 424)","(1194, 438)","(1180, 447)","(1187, 450)","(1194, 453)","(1203, 450)","(1210, 448)","(1153, 397)","(1161, 393)","(1171, 393)","(1179, 399)","(1170, 401)","(1161, 401)","(1217, 400)","(1226, 395)","(1236, 395)","(1243, 400)","(1236, 404)","(1226, 403)","(1167, 472)","(1177, 468)","(1187, 466)","(1194, 468)","(1201, 467)","(1212, 469)","(1223, 474)","(1212, 482)","(1202, 486)","(1194, 487)","(1186, 486)","(1177, 481)","(1172, 473)","(1187, 473)","(1194, 474)","(1201, 473)","(1218, 474)","(1202, 476)","(1194, 477)","(1187, 476)",0.32,0.89,37.0,0.36,0.03,0.39,0.02,-8.5,0.09,0.32,12.4,27.9,51.9,8.15,17.5,42.6,8.0,19.88,34.47
666,196608,65,-56,-1,-1,0,"(1130, 394)","(1129, 414)","(1131, 433)","(1133, 453)","(1138, 473)","(1147, 491)","(1160, 506)","(1177, 519)","(1196, 523)","(1216, 520)","(1233, 510)","(1248, 496)","(1258, 479)","(1265, 460)","(1269, 440)","(1271, 419)","(1272, 399)","(1141, 384)","(1150, 375)","(1163, 373)","(1176, 375)","(1189, 381)","(1211, 381)","(1224, 376)","(1238, 374)","(1251, 378)","(1260, 388)","(1199, 395)","(1199, 409)","(1198, 422)","(1197, 437)","(1182, 445)","(1189, 448)","(1197, 451)","(1205, 449)","(1212, 446)","(1156, 396)","(1164, 392)","(1173, 392)","(1182, 398)","(1173, 400)","(1163, 399)","(1218, 399)","(1227, 394)","(1237, 394)","(1244, 399)","(1237, 402)","(1227, 402)","(1170, 470)","(1180, 466)","(1189, 464)","(1197, 466)","(1204, 465)","(1214, 467)","(1224, 472)","(1214, 480)","(1204, 484)","(1197, 484)","(1189, 483)","(1180, 479)","(1175, 470)","(1189, 471)","(1196, 472)","(1204, 471)","(1220, 472)","(1204, 474)","(1197, 475)","(1190, 473)",0.3,0.87,37.0,0.36,0.03,0.38,0.02,-8.0,0.09,0.32,13.0,28.6,51.0,7.4,16.8,41.35,9.7,21.58,36.94
700,1703936,65,-56,-1,-1,0,"(1132, 392)","(1131, 412)","(1132, 432)","(1134, 452)","(1140, 471)","(1149, 489)","(1163, 505)","(1179, 517)","(1198, 521)","(1217, 518)","(1234, 508)","(1248, 495)","(1258, 478)","(1265, 459)","(1268, 439)","(1271, 420)","(1272, 400)","(1144, 382)","(1153, 374)","(1166, 372)","(1179, 375)","(1191, 381)","(1213, 381)","(1226, 376)","(1240, 374)","(1253, 378)","(1262, 387)","(1202, 395)","(1201, 408)","(1200, 421)","(1200, 435)","(1185, 444)","(1192, 447)","(1199, 450)","(1207, 448)","(1214, 445)","(1158, 395)","(1166, 391)","(1176, 391)","(1184, 397)","(1175, 399)","(1165, 399)","(1220, 399)","(1229, 393)","(1239, 393)","(1246, 399)","(1239, 402)","(1229, 401)","(1173, 469)","(1182, 465)","(1192, 463)","(1199, 465)","(1206, 464)","(1216, 466)","(1226, 471)","(1216, 479)","(1206, 483)","(1199, 483)","(1191, 482)","(1182, 478)","(1178, 470)","(1192, 470)","(1199, 471)","(1206, 470)","(1221, 471)","(1206, 473)","(1199, 474)","(1192, 472)",0.32,0.88,37.0,0.37,0.05,0.37,0.02,-8.5,0.08,0.31,13.6,28.7,52.7,6.95,16.0,40.15,8.23,21.41,37.23
733,4390912,65,-56,-1,-1,0,"(1140, 393)","(1139, 413)","(1140, 431)","(1142, 451)","(1147, 469)","(1156, 487)","(1167, 503)","(1182, 516)","(1200, 520)","(1220, 518)","(1238, 508)","(1253, 493)","(1264, 477)","(1272, 458)","(1276, 438)","(1279, 418)","(1279, 397)","(1147, 384)","(1155, 375)","(1168, 373)","(1181, 376)","(1193, 382)","(1214, 382)","(1228, 376)","(1242, 375)","(1256, 378)","(1265, 388)","(1203, 396)","(1202, 409)","(1201, 422)","(1200, 436)","(1186, 444)","(1193, 447)","(1201, 450)","(1209, 448)","(1216, 445)","(1161, 396)","(1169, 392)","(1178, 392)","(1186, 398)","(1177, 400)","(1168, 400)","(1223, 399)","(1231, 394)","(1241, 394)","(1249, 399)","(1241, 402)","(1232, 402)","(1176, 469)","(1185, 465)","(1194, 463)","(1201, 466)","(1208, 464)","(1218, 466)","(1228, 471)","(1218, 480)","(1208, 484)","(1200, 484)","(1193, 483)","(1184, 478)","(1181, 469)","(1193, 470)","(1200, 471)","(1208, 470)","(1223, 471)","(1207, 474)","(1200, 474)","(1193, 473)",0.3,0.9,37.0,0.36,0.03,0.37,0.02,-8.0,0.09,0.32,12.4,29.3,51.0,6.7,15.25,35.45,6.82,19.17,33.58
766,3473408,65,-56,-1,-1,0,"(1133, 393)","(1132, 413)","(1133, 433)","(1136, 452)","(1142, 471)","(1152, 489)","(1166, 504)","(1183, 516)","(1202, 519)","(1221, 517)","(1237, 507)","(1249, 493)","(1259, 476)","(1265, 457)","(1268, 438)","(1270, 419)","(1271, 400)","(1148, 384)","(1157, 377)","(1170, 375)","(1183, 377)","(1195, 383)","(1216, 383)","(1228, 378)","(1241, 376)","(1254, 379)","(1262, 388)","(1205, 396)","(1205, 409)","(1204, 422)","(1204, 436)","(1189, 444)","(1196, 447)","(1204, 450)","(1211, 448)","(1218, 445)","(1163, 396)","(1170, 392)","(1179, 393)","(1187, 398)","(1179, 400)","(1170, 400)","(1223, 400)","(1231, 394)","(1240, 394)","(1247, 399)","(1240, 402)","(1231, 402)","(1177, 469)","(1187, 465)","(1196, 464)","(1203, 466)","(1210, 464)","(1219, 466)","(1228, 470)","(1219, 479)","(1210, 483)","(1203, 483)","(1196, 482)","(1187, 478)","(1182, 470)","(1196, 470)","(1203, 471)","(1210, 470)","(1224, 471)","(1210, 473)","(1204, 474)","(1197, 473)",0.33,0.83,37.0,0.34,0.04,0.36,0.02,-8.0,0.09,0.32,11.1,25.9,49.4,5.9,14.3,34.4,10.35,22.88,38.47
800,-393216,65,-56,-1,-1,0,"(1144, 394)","(1143, 413)","(1144, 432)","(1146, 451)","(1151, 469)","(1160, 487)","(1172, 502)","(1187, 514)","(1205, 518)","(1224, 516)","(1241, 505)","(1255, 491)","(1266, 474)","(1273, 456)","(1277, 437)","(1279, 417)","(1280, 398)","(1151, 387)","(1159, 379)","(1172, 377)","(1184, 379)","(1197, 385)","(1217, 385)","(1230, 380)","(1244, 378)","(1258, 381)","(1267, 390)","(1206, 398)","(1206, 411)","(1205, 424)","(1204, 437)","(1191, 445)","(1197, 448)","(1205, 451)","(1213, 449)","(1220, 446)","(1165, 398)","(1173, 394)","(1182, 394)","(1190, 400)","(1181, 402)","(1172, 402)","(1226, 401)","(1234, 396)","(1243, 396)","(1251, 401)","(1243, 404)","(1234, 404)","(1180, 469)","(1189, 466)","(1198, 464)","(1205, 466)","(1211, 464)","(1221, 466)","(1231, 470)","(1221, 479)","(1212, 483)","(1204, 484)","(1197, 483)","(1189, 478)","(1185, 470)","(1198, 470)","(1204, 471)","(1211, 470)","(1227, 471)","(1212, 473)","(1205, 474)","(1198, 473)",0.32,0.89,37.0,0.36,0.02,0.37,0.02,-8.0,0.1,0.32,12.1,27.2,51.2,7.55,15.35,37.6,8.0,20.05,33.88
833,-1114112,65,-56,-1,-1,0,"(1144, 396)","(1143, 415)","(1144, 434)","(1147, 452)","(1152, 471)","(1160, 488)","(1172, 503)","(1187, 515)","(1205, 519)","(1224, 516)","(1241, 507)","(1255, 493)","(1265, 477)","(1272, 459)","(1276, 440)","(1278, 421)","(1279, 402)","(1154, 388)","(1162, 380)","(1174, 378)","(1187, 381)","(1198, 387)","(1220, 387)","(1232, 382)","(1246, 380)","(1258, 383)","(1267, 392)","(1208, 401)","(1208, 413)","(1207, 426)","(1206, 439)","(1192, 446)","(1199, 450)","(1206, 452)","(1214, 450)","(1221, 448)","(1167, 400)","(1175, 396)","(1184, 397)","(1192, 402)","(1183, 404)","(1174, 404)","(1227, 404)","(1235, 399)","(1245, 399)","(1252, 404)","(1245, 407)","(1236, 406)","(1181, 470)","(1190, 466)","(1199, 465)","(1206, 467)","(1213, 465)","(1222, 468)","(1232, 472)","(1222, 481)","(1213, 485)","(1205, 485)","(1198, 484)","(1190, 479)","(1186, 471)","(1199, 471)","(1206, 472)","(1213, 472)","(1227, 473)","(1213, 475)","(1206, 475)","(1199, 474)",0.3,0.87,37.0,0.37,0.04,0.37,0.02,-8.0,0.09,0.32,15.9,29.2,54.4,7.3,16.35,40.05,8.05,20.82,34.88
866,-1310720,65,-56,-1,-1,0,"(1146, 399)","(1145, 417)","(1146, 436)","(1148, 454)","(1153, 473)","(1161, 490)","(1173, 505)","(1188, 517)","(1206, 521)","(1225, 519)","(1241, 510)","(1255, 496)","(1266, 480)","(1273, 462)","(1276, 443)","(1279, 424)","(1279, 405)","(1156, 390)","(1164, 383)","(1176, 381)","(1188, 384)","(1200, 390)","(1221, 390)","(1233, 385)","(1247, 383)","(1260, 387)","(1268, 395)","(1210, 404)","(1209, 416)","(1208, 429)","(1207, 442)","(1193, 449)","(1200, 453)","(1207, 455)","(1215, 453)","(1222, 451)","(1169, 403)","(1176, 399)","(1185, 400)","(1193, 405)","(1185, 407)","(1176, 407)","(1228, 407)","(1236, 402)","(1246, 402)","(1253, 407)","(1246, 410)","(1236, 409)","(1183, 473)","(1191, 469)","(1201, 468)","(1207, 470)","(1214, 468)","(1223, 471)","(1233, 476)","(1223, 484)","(1214, 488)","(1207, 488)","(1200, 487)","(1191, 483)","(1187, 474)","(1200, 474)","(1207, 475)","(1214, 475)","(1228, 476)","(1214, 478)","(1207, 479)","(1200, 477)",0.3,0.89,37.0,0.36,0.05,0.37,0.03,-8.0,0.09,0.32,14.4,30.7,57.2,7.45,17.1,39.55,8.23,20.82,35.0
900,-1310720,65,-56,-1,-1,0,"(1146, 404)","(1146, 422)","(1147, 441)","(1149, 459)","(1154, 477)","(1163, 494)","(1175, 509)","(1190, 521)","(1207, 524)","(1226, 522)","(1242, 513)","(1255, 499)","(1266, 483)","(1273, 466)","(1276, 447)","(1279, 429)","(1280, 410)","(1158, 395)","(1166, 388)","(1178, 386)","(1190, 389)","(1201, 395)","(1221, 395)","(1233, 390)","(1246, 388)","(1259, 391)","(1268, 400)","(1211, 408)","(1210, 420)","(1209, 433)","(1209, 446)","(1195, 453)","(1202, 456)","(1209, 459)","(1216, 457)","(1223, 454)","(1171, 407)","(1178, 403)","(1187, 404)","(1195, 409)","(1186, 412)","(1177, 411)","(1228, 411)","(1237, 406)","(1246, 406)","(1253, 411)","(1246, 414)","(1237, 414)","(1185, 477)","(1193, 473)","(1202, 472)","(1208, 474)","(1215, 472)","(1224, 475)","(1234, 479)","(1224, 487)","(1215, 491)","(1208, 492)","(1201, 491)","(1193, 486)","(1189, 478)","(1202, 478)","(1208, 479)","(1215, 478)","(1229, 479)","(1215, 482)","(1208, 482)","(1202, 481)",0.32,0.9,37.0,0.36,0.05,0.36,0.02,-8.5,0.08,0.32,13.2,28.0,51.9,5.15,15.05,35.25,8.47,20.47,35.17
933,-1245184,65,-56,-1,-1,0,"(1147, 408)","(1146, 426)","(1147, 444)","(1149, 463)","(1154, 481)","(1163, 498)","(1175, 513)","(1190, 524)","(1207, 528)","(1225, 526)","(1242, 517)","(1255, 504)","(1266, 488)","(1273, 471)","(1276, 453)","(1279, 434)","(1280, 415)","(1159, 399)","(1167, 392)","(1179, 390)","(1191, 393)","(1202, 399)","(1222, 399)","(1234, 394)","(1247, 392)","(1260, 396)","(1268, 404)","(1212, 412)","(1211, 424)","(1210, 436)","(1209, 449)","(1196, 457)","(1202, 460)","(1209, 463)","(1217, 461)","(1223, 458)","(1172, 411)","(1179, 407)","(1188, 408)","(1195, 413)","(1187, 415)","(1178, 415)","(1229, 415)","(1237, 410)","(1246, 410)","(1253, 415)","(1246, 418)","(1237, 417)","(1185, 481)","(1193, 477)","(1202, 475)","(1208, 477)","(1215, 476)","(1224, 478)","(1233, 483)","(1224, 491)","(1215, 495)","(1208, 495)","(1201, 494)","(1193, 490)","(1189, 481)","(1202, 481)","(1208, 482)","(1215, 482)","(1229, 483)","(1215, 485)","(1208, 486)","(1202, 485)",0.31,0.89,37.0,0.35,0.05,0.36,0.03,-8.0,0.08,0.31,14.5,28.2,51.4,5.7,15.4,35.2,8.41,21.05,35.17
966,-1245184,65,-56,-1,-1,0,"(1149, 412)","(1147, 430)","(1148, 448)","(1150, 466)","(1155, 484)","(1164, 501)","(1176, 516)","(1191, 527)","(1208, 531)","(1226, 529)","(1242, 520)","(1256, 507)","(1266, 491)","(1273, 474)","(1276, 456)","(1279, 437)","(1280, 419)","(1160, 403)","(1168, 396)","(1180, 394)","(1192, 397)","(1203, 403)","(1223, 403)","(1235, 398)","(1248, 396)","(1260, 400)","(1268, 408)","(1213, 416)","(1212, 428)","(1211, 439)","(1211, 452)","(1197, 460)","(1203, 463)","(1210, 466)","(1218, 464)","(1224, 461)","(1173, 415)","(1180, 411)","(1189, 412)","(1196, 417)","(1188, 419)","(1180, 419)","(1230, 419)","(1238, 414)","(1247, 414)","(1254, 419)","(1247, 422)","(1238, 421)","(1186, 484)","(1195, 480)","(1204, 479)","(1210, 481)","(1216, 479)","(1225, 482)","(1234, 486)","(1225, 494)","(1216, 498)","(1209, 499)","(1203, 498)","(1195, 493)","(1191, 485)","(1203, 485)","(1210, 486)","(1216, 485)","(1230, 487)","(1216, 489)","(1210, 489)","(1203, 488)",0.31,0.86,37.0,0.35,0.05,0.36,0.03,-8.0,0.08,0.31,11.7,27.3,49.9,6.05,15.25,34.45,8.23,20.17,36.11
1000,-1245184,65,-56,-1,-1,0,"(1151, 414)","(1149, 432)","(1149, 450)","(1151, 468)","(1155, 486)","(1164, 503)","(1176, 518)","(1191, 529)","(1208, 533)","(1226, 532)","(1242, 523)","(1256, 510)","(1266, 494)","(1273, 477)","(1277, 459)","(1279, 441)","(1280, 423)","(1161, 405)","(1169, 398)","(1181, 397)","(1193, 400)","(1204, 406)","(1224, 406)","(1236, 401)","(1249, 400)","(1261, 403)","(1269, 412)","(1213, 419)","(1213, 431)","(1212, 443)","(1211, 456)","(1198, 463)","(1204, 467)","(1211, 469)","(1218, 467)","(1224, 465)","(1174, 418)","(1181, 414)","(1190, 415)","(1197, 420)","(1189, 422)","(1180, 422)","(1230, 423)","(1239, 418)","(1248, 418)","(1254, 423)","(1247, 426)","(1239, 425)","(1187, 487)","(1195, 483)","(1204, 482)","(1210, 484)","(1216, 483)","(1225, 485)","(1234, 490)","(1225, 497)","(1216, 501)","(1209, 501)","(1203, 500)","(1195, 495)","(1191, 487)","(1204, 488)","(1210, 489)","(1216, 489)","(1230, 490)","(1216, 491)","(1210, 492)","(1204, 491)",0.31,0.9,37.0,0.36,0.07,0.36,0.02,-8.0,0.08,0.32,12.9,28.8,53.5,6.5,16.15,35.35,7.76,20.11,35.29
1033,-1441792,65,-56,-1,-1,0,"(1152, 417)","(1150, 435)","(1150, 453)","(1152, 470)","(1156, 488)","(1165, 505)","(1177, 520)","(1192, 532)","(1209, 536)","(1227, 534)","(1243, 525)","(1257, 512)","(1267, 497)","(1274, 479)","(1277, 462)","(1279, 444)","(1280, 426)","(1163, 408)","(1171, 401)","(1182, 400)","(1194, 403)","(1205, 409)","(1225, 409)","(1237, 404)","(1250, 403)","(1262, 406)","(1269, 415)","(1215, 422)","(1214, 434)","(1213, 446)","(1212, 458)","(1199, 466)","(1205, 469)","(1212, 472)","(1219, 470)","(1225, 468)","(1176, 421)","(1183, 418)","(1191, 418)","(1199, 423)","(1191, 425)","(1182, 425)","(1231, 425)","(1240, 421)","(1248, 421)","(1255, 426)","(1248, 429)","(1240, 428)","(1188, 489)","(1196, 486)","(1205, 484)","(1211, 486)","(1217, 485)","(1226, 487)","(1235, 492)","(1226, 500)","(1217, 503)","(1211, 504)","(1204, 503)","(1196, 498)","(1192, 490)","(1205, 491)","(1211, 492)","(1217, 491)","(1231, 492)","(1217, 494)","(1211, 494)","(1205, 493)",0.31,0.9,37.0,0.36,0.07,0.36,0.02,-7.5,0.07,0.31,15.1,29.6,53.9,6.45,15.3,34.85,7.82,19.88,34.88
1066,-1376256,65,-56,-1,-1,0,"(1149, 420)","(1148, 438)","(1149, 456)","(1150, 474)","(1155, 492)","(1164, 509)","(1177, 523)","(1191, 533)","(1209, 537)","(1226, 536)","(1242, 527)","(1255, 515)","(1265, 500)","(1272, 483)","(1276, 466)","(1279, 448)","(1280, 430)","(1162, 412)","(1171, 404)","(1183, 403)","(1195, 405)","(1206, 411)","(1226, 412)","(1238, 407)","(1250, 406)","(1262, 409)","(1270, 418)","(1215, 424)","(1214, 436)","(1214, 448)","(1213, 460)","(1199, 468)","(1205, 471)","(1212, 473)","(1219, 472)","(1226, 469)","(1175, 423)","(1183, 420)","(1191, 420)","(1198, 426)","(1190, 427)","(1182, 427)","(1232, 428)","(1240, 423)","(1249, 423)","(1255, 428)","(1248, 431)","(1240, 430)","(1188, 491)","(1197, 488)","(1205, 486)","(1211, 488)","(1217, 487)","(1226, 490)","(1235, 494)","(1226, 501)","(1217, 504)","(1211, 505)","(1204, 504)","(1196, 500)","(1192, 492)","(1205, 492)","(1211, 493)","(1217, 493)","(1231, 494)","(1217, 495)","(1211, 496)","(1205, 494)",0.32,0.88,37.0,0.35,0.05,0.35,0.02,-7.5,0.08,0.31,11.2,28.1,50.7,6.65,14.85,34.5,8.82,22.11,37.47
1100,-1310720,65,-56,-1,-1,0,"(1149, 420)","(1148, 438)","(1148, 456)","(1150, 475)","(1155, 492)","(1164, 509)","(1176, 523)","(1191, 533)","(1208, 537)","(1226, 536)","(1242, 528)","(1255, 516)","(1266, 501)","(1272, 484)","(1276, 466)","(1279, 448)","(1281, 430)","(1163, 411)","(1171, 404)","(1183, 403)","(1195, 405)","(1207, 411)","(1226, 412)","(1238, 407)","(1251, 406)","(1263, 409)","(1270, 418)","(1216, 424)","(1215, 436)","(1214, 447)","(1213, 460)","(1199, 468)","(1206, 471)","(1212, 473)","(1219, 472)","(1226, 469)","(1176, 423)","(1183, 420)","(1192, 420)","(1199, 426)","(1191, 428)","(1182, 427)","(1232, 428)","(1240, 423)","(1249, 424)","(1256, 429)","(1249, 431)","(1240, 431)","(1188, 491)","(1197, 488)","(1205, 486)","(1211, 489)","(1218, 487)","(1226, 490)","(1235, 495)","(1226, 501)","(1217, 504)","(1211, 505)","(1204, 504)","(1196, 500)","(1192, 492)","(1205, 492)","(1211, 493)","(1218, 493)","(1231, 495)","(1218, 495)","(1211, 496)","(1205, 494)",0.31,0.86,37.0,0.35,0.06,0.35,0.03,-8.0,0.07,0.31,14.1,29.3,53.1,5.75,14.85,34.9,8.29,21.05,36.11
1133,-1572864,65,-56,-1,-1,0,"(1153, 419)","(1151, 436)","(1150, 454)","(1152, 472)","(1156, 490)","(1164, 507)","(1176, 522)","(1191, 533)","(1208, 537)","(1226, 535)","(1243, 527)","(1256, 514)","(1267, 499)","(1274, 482)","(1277, 464)","(1280, 446)","(1280, 428)","(1164, 410)","(1172, 403)","(1183, 401)","(1195, 403)","(1206, 410)","(1226, 410)","(1238, 405)","(1251, 404)","(1263, 408)","(1270, 417)","(1215, 424)","(1214, 435)","(1213, 447)","(1212, 459)","(1199, 467)","(1205, 470)","(1212, 472)","(1219, 471)","(1226, 468)","(1176, 423)","(1183, 419)","(1192, 420)","(1199, 425)","(1191, 427)","(1183, 426)","(1232, 427)","(1241, 423)","(1249, 423)","(1256, 428)","(1249, 430)","(1240, 430)","(1188, 490)","(1196, 486)","(1205, 485)","(1211, 487)","(1218, 485)","(1227, 488)","(1236, 493)","(1226, 501)","(1217, 504)","(1211, 505)","(1204, 504)","(1196, 499)","(1192, 491)","(1205, 491)","(1211, 492)","(1217, 492)","(1231, 493)","(1218, 495)","(1211, 496)","(1205, 494)",0.29,0.89,37.0,0.36,0.07,0.37,0.03,-7.5,0.08,0.3,14.7,30.1,55.4,6.6,16.0,36.3,8.82,21.11,34.7
1166,-1703936,65,-56,-1,-1,0,"(1151, 417)","(1149, 435)","(1149, 453)","(1150, 471)","(1155, 489)","(1163, 506)","(1175, 521)","(1190, 532)","(1208, 536)","(1226, 534)","(1243, 525)","(1257, 513)","(1267, 497)","(1274, 480)","(1278, 462)","(1280, 445)","(1281, 427)","(1162, 408)","(1170, 401)","(1182, 399)","(1194, 402)","(1206, 408)","(1225, 408)","(1238, 403)","(1251, 402)","(1263, 406)","(1270, 415)","(1215, 421)","(1214, 433)","(1213, 444)","(1212, 456)","(1198, 465)","(1204, 468)","(1211, 470)","(1218, 469)","(1225, 466)","(1175, 421)","(1182, 417)","(1191, 418)","(1198, 423)","(1190, 425)","(1182, 424)","(1232, 425)","(1240, 421)","(1249, 421)","(1256, 426)","(1249, 429)","(1240, 428)","(1187, 489)","(1196, 485)","(1204, 483)","(1210, 485)","(1217, 484)","(1226, 487)","(1235, 492)","(1225, 499)","(1216, 502)","(1210, 502)","(1203, 501)","(1195, 497)","(1191, 489)","(1204, 489)","(1210, 490)","(1216, 490)","(1230, 492)","(1217, 493)","(1210, 493)","(1204, 492)",0.31,0.88,37.0,0.36,0.07,0.36,0.02,-8.0,0.07,0.3,14.9,29.9,53.5,6.55,16.05,36.65,8.41,20.0,33.94
1200,-1441792,65,-56,-1,-1,0,"(1150, 416)","(1148, 434)","(1148, 451)","(1149, 469)","(1153, 488)","(1162, 505)","(1174, 519)","(1189, 531)","(1207, 535)","(1225, 533)","(1241, 525)","(1255, 512)","(1266, 497)","(1273, 479)","(1276, 461)","(1279, 444)","(1280, 426)","(1161, 406)","(1169, 398)","(1181, 397)","(1193, 399)","(1205, 406)","(1225, 406)","(1237, 401)","(1250, 400)","(1262, 404)","(1270, 414)","(1214, 419)","(1213, 431)","(1212, 443)","(1211, 455)","(1197, 463)","(1204, 466)","(1210, 469)","(1218, 467)","(1224, 465)","(1174, 419)","(1181, 415)","(1190, 415)","(1197, 421)","(1189, 423)","(1180, 422)","(1231, 423)","(1239, 419)","(1248, 419)","(1255, 424)","(1248, 427)","(1239, 426)","(1186, 487)","(1194, 483)","(1204, 482)","(1210, 484)","(1216, 483)","(1225, 485)","(1234, 491)","(1224, 498)","(1216, 501)","(1209, 501)","(1202, 500)","(1194, 496)","(1190, 488)","(1203, 488)","(1209, 489)","(1216, 489)","(1229, 490)","(1216, 492)","(1209, 492)","(1203, 491)",0.31,0.87,37.0,0.36,0.08,0.36,0.02,-8.0,0.07,0.31,14.1,32.0,54.9,7.2,16.9,38.0,8.58,20.58,34.47
1233,1245184,65,-56,-1,-1,0,"(1149, 414)","(1147, 432)","(1147, 450)","(1148, 468)","(1153, 486)","(1161, 504)","(1172, 519)","(1187, 530)","(1205, 534)","(1223, 533)","(1240, 524)","(1254, 512)","(1265, 496)","(1272, 479)","(1276, 461)","(1279, 443)","(1280, 424)","(1160, 405)","(1168, 397)","(1180, 396)","(1192, 398)","(1203, 405)","(1224, 405)","(1236, 400)","(1250, 399)","(1262, 403)","(1270, 412)","(1213, 418)","(1212, 430)","(1210, 442)","(1209, 454)","(1196, 462)","(1202, 465)","(1209, 468)","(1216, 466)","(1223, 464)","(1173, 418)","(1180, 414)","(1189, 414)","(1196, 420)","(1188, 422)","(1179, 421)","(1230, 422)","(1239, 418)","(1248, 418)","(1254, 423)","(1247, 426)","(1238, 425)","(1184, 486)","(1193, 482)","(1202, 481)","(1208, 483)","(1214, 482)","(1224, 484)","(1233, 490)","(1223, 497)","(1214, 501)","(1207, 501)","(1200, 500)","(1192, 495)","(1188, 487)","(1201, 487)","(1208, 488)","(1214, 488)","(1229, 490)","(1214, 491)","(1208, 492)","(1201, 490)",0.31,0.9,37.0,0.35,0.07,0.37,0.03,-8.0,0.07,0.31,14.9,30.2,56.2,7.7,16.85,38.6,8.64,20.17,34.47
1266,-1376256,65,-56,-1,-1,0,"(1146, 413)","(1145, 432)","(1145, 450)","(1147, 468)","(1152, 487)","(1160, 504)","(1172, 519)","(1187, 531)","(1204, 535)","(1223, 534)","(1240, 524)","(1254, 512)","(1265, 496)","(1272, 478)","(1276, 460)","(1279, 441)","(1279, 423)","(1158, 405)","(1166, 397)","(1178, 395)","(1191, 398)","(1202, 404)","(1222, 404)","(1234, 399)","(1248, 398)","(1261, 402)","(1269, 412)","(1211, 418)","(1210, 430)","(1209, 442)","(1208, 454)","(1194, 462)","(1201, 466)","(1208, 468)","(1215, 467)","(1222, 464)","(1171, 417)","(1178, 414)","(1187, 414)","(1195, 419)","(1186, 421)","(1177, 421)","(1229, 422)","(1237, 417)","(1246, 418)","(1253, 422)","(1246, 425)","(1237, 424)","(1183, 487)","(1192, 483)","(1201, 481)","(1207, 483)","(1213, 482)","(1223, 485)","(1232, 490)","(1222, 498)","(1213, 502)","(1206, 502)","(1199, 501)","(1191, 496)","(1187, 487)","(1200, 488)","(1206, 489)","(1213, 488)","(1227, 490)","(1213, 492)","(1206, 493)","(1200, 491)",0.29,0.89,37.0,0.36,0.07,0.36,0.02,-7.5,0.08,0.3,14.5,31.0,54.5,7.15,17.3,38.3,7.11,19.35,33.82
1300,-327680,65,-56,-1,-1,0,"(1144, 414)","(1143, 433)","(1143, 451)","(1145, 470)","(1150, 488)","(1158, 506)","(1170, 521)","(1185, 532)","(1203, 536)","(1222, 535)","(1239, 525)","(1254, 512)","(1264, 496)","(1271, 479)","(1275, 460)","(1278, 442)","(1279, 423)","(1155, 405)","(1163, 397)","(1176, 394)","(1189, 397)","(1201, 403)","(1220, 404)","(1233, 399)","(1247, 398)","(1260, 402)","(1268, 412)","(1209, 417)","(1209, 429)","(1208, 441)","(1207, 454)","(1193, 463)","(1199, 466)","(1206, 468)","(1214, 467)","(1221, 464)","(1169, 417)","(1176, 414)","(1185, 414)","(1193, 419)","(1184, 421)","(1175, 421)","(1227, 421)","(1236, 417)","(1245, 418)","(1252, 422)","(1245, 425)","(1236, 424)","(1181, 488)","(1190, 484)","(1199, 482)","(1206, 484)","(1212, 482)","(1222, 485)","(1231, 491)","(1221, 499)","(1212, 502)","(1205, 503)","(1197, 502)","(1189, 497)","(1185, 488)","(1199, 488)","(1205, 489)","(1212, 489)","(1226, 491)","(1212, 492)","(1205, 493)","(1198, 492)",0.27,0.88,37.0,0.36,0.06,0.37,0.03,-7.5,0.08,0.31,14.9,31.3,54.7,6.7,17.3,38.85,8.35,20.29,33.64
1333,327680,65,-56,-1,-1,0,"(1142, 414)","(1141, 433)","(1141, 452)","(1143, 471)","(1148, 490)","(1157, 507)","(1169, 523)","(1184, 534)","(1202, 539)","(1221, 537)","(1238, 527)","(1253, 513)","(1264, 497)","(1271, 479)","(1274, 460)","(1277, 441)","(1277, 422)","(1152, 405)","(1160, 396)","(1173, 394)","(1186, 397)","(1198, 403)","(1218, 404)","(1231, 398)","(1245, 397)","(1258, 401)","(1266, 411)","(1207, 418)","(1206, 430)","(1205, 442)","(1205, 455)","(1190, 463)","(1197, 467)","(1204, 469)","(1212, 468)","(1219, 465)","(1166, 417)","(1173, 414)","(1182, 414)","(1190, 420)","(1182, 422)","(1173, 421)","(1226, 421)","(1234, 417)","(1244, 418)","(1251, 422)","(1243, 425)","(1234, 425)","(1179, 489)","(1188, 484)","(1197, 482)","(1204, 485)","(1210, 483)","(1220, 486)","(1230, 491)","(1220, 500)","(1210, 504)","(1203, 504)","(1196, 503)","(1187, 498)","(1183, 489)","(1197, 489)","(1203, 490)","(1210, 490)","(1225, 491)","(1210, 494)","(1203, 495)","(1197, 493)",0.3,0.9,37.0,0.36,0.05,0.37,0.03,-8.0,0.08,0.3,15.1,30.7,56.6,7.85,17.35,39.4,7.29,19.88,33.88
1366,1703936,66,-56,-1,-1,0,"(1140, 414)","(1139, 433)","(1139, 452)","(1141, 471)","(1146, 490)","(1154, 508)","(1166, 524)","(1181, 536)","(1199, 540)","(1219, 538)","(1237, 528)","(1251, 515)","(1262, 498)","(1270, 480)","(1274, 460)","(1276, 441)","(1277, 421)","(1149, 404)","(1157, 396)","(1170, 394)","(1183, 396)","(1196, 403)","(1217, 403)","(1230, 398)","(1244, 397)","(1257, 401)","(1265, 411)","(1205, 417)","(1204, 430)","(1203, 442)","(1202, 455)","(1187, 464)","(1194, 467)","(1202, 470)","(1209, 468)","(1217, 465)","(1163, 417)","(1170, 413)","(1180, 413)","(1188, 419)","(1179, 421)","(1170, 421)","(1224, 421)","(1233, 416)","(1242, 417)","(1249, 422)","(1242, 425)","(1232, 424)","(1176, 489)","(1185, 485)","(1194, 483)","(1201, 486)","(1208, 484)","(1218, 487)","(1228, 492)","(1218, 501)","(1208, 505)","(1200, 505)","(1193, 504)","(1184, 499)","(1180, 490)","(1194, 490)","(1201, 491)","(1208, 490)","(1223, 492)","(1208, 495)","(1201, 496)","(1194, 494)",0.32,0.91,37.0,0.36,0.07,0.37,0.03,-8.5,0.08,0.3,15.1,30.6,55.5,7.5,17.3,38.7,8.23,20.52,34.0
1400,4063232,66,-56,-1,-1,0,"(1132, 415)","(1130, 435)","(1131, 454)","(1133, 474)","(1138, 494)","(1147, 512)","(1160, 527)","(1177, 539)","(1196, 543)","(1215, 541)","(1232, 531)","(1246, 517)","(1256, 500)","(1262, 481)","(1266, 462)","(1268, 443)","(1269, 424)","(1144, 404)","(1153, 396)","(1166, 393)","(1179, 395)","(1192, 402)","(1214, 402)","(1226, 397)","(1240, 396)","(1253, 400)","(1260, 410)","(1202, 417)","(1201, 429)","(1200, 442)","(1200, 455)","(1185, 464)","(1192, 467)","(1199, 470)","(1207, 468)","(1214, 466)","(1159, 417)","(1166, 413)","(1176, 413)","(1184, 419)","(1175, 421)","(1166, 421)","(1220, 421)","(1229, 416)","(1238, 416)","(1245, 421)","(1238, 424)","(1229, 424)","(1172, 491)","(1182, 486)","(1192, 484)","(1199, 486)","(1206, 484)","(1215, 487)","(1225, 493)","(1215, 502)","(1206, 506)","(1198, 506)","(1191, 505)","(1181, 500)","(1177, 491)","(1191, 491)","(1198, 492)","(1206, 491)","(1220, 493)","(1206, 496)","(1199, 496)","(1191, 495)",0.32,0.83,37.0,0.36,0.06,0.38,0.02,-8.0,0.08,0.3,14.7,30.2,56.3,7.7,17.95,39.6,9.52,22.11,37.17
1433,4653056,66,-56,-1,-1,0,"(1127, 415)","(1126, 435)","(1127, 455)","(1129, 476)","(1135, 495)","(1144, 514)","(1157, 529)","(1174, 541)","(1193, 545)","(1213, 543)","(1230, 533)","(1245, 519)","(1256, 502)","(1263, 484)","(1267, 464)","(1270, 444)","(1272, 424)","(1140, 404)","(1149, 395)","(1163, 393)","(1176, 395)","(1189, 401)","(1211, 402)","(1223, 397)","(1237, 395)","(1251, 399)","(1260, 409)","(1199, 416)","(1198, 429)","(1197, 441)","(1196, 455)","(1181, 464)","(1188, 468)","(1196, 470)","(1204, 468)","(1211, 466)","(1155, 416)","(1163, 412)","(1172, 413)","(1181, 419)","(1171, 421)","(1162, 420)","(1218, 421)","(1227, 415)","(1236, 416)","(1243, 421)","(1236, 424)","(1226, 423)","(1168, 492)","(1178, 487)","(1188, 484)","(1195, 487)","(1202, 485)","(1212, 488)","(1222, 494)","(1212, 503)","(1202, 507)","(1194, 507)","(1186, 506)","(1177, 502)","(1173, 492)","(1187, 491)","(1195, 492)","(1202, 492)","(1217, 494)","(1202, 497)","(1195, 497)","(1187, 496)",0.32,0.86,37.0,0.35,0.04,0.37,0.03,-9.0,0.08,0.3,12.8,28.8,53.4,7.75,17.9,40.45,7.41,18.7,32.58
1466,786432,66,-56,-1,-1,0,"(1124, 416)","(1123, 436)","(1125, 457)","(1127, 477)","(1132, 497)","(1141, 515)","(1154, 531)","(1171, 543)","(1190, 547)","(1211, 545)","(1229, 534)","(1244, 520)","(1255, 503)","(1262, 484)","(1267, 464)","(1270, 443)","(1271, 423)","(1137, 403)","(1146, 394)","(1159, 391)","(1173, 393)","(1186, 400)","(1207, 400)","(1221, 395)","(1235, 394)","(1249, 398)","(1257, 408)","(1196, 415)","(1195, 428)","(1194, 441)","(1193, 455)","(1178, 464)","(1185, 468)","(1192, 470)","(1200, 468)","(1208, 466)","(1152, 416)","(1160, 412)","(1169, 412)","(1177, 418)","(1168, 420)","(1159, 419)","(1215, 419)","(1224, 414)","(1234, 415)","(1241, 420)","(1233, 423)","(1224, 422)","(1165, 492)","(1174, 487)","(1184, 485)","(1192, 487)","(1199, 485)","(1209, 488)","(1220, 494)","(1209, 504)","(1199, 508)","(1191, 509)","(1183, 508)","(1173, 503)","(1169, 493)","(1184, 491)","(1191, 493)","(1199, 492)","(1215, 495)","(1199, 498)","(1192, 498)","(1184, 497)",0.3,0.89,37.0,0.34,0.04,0.37,0.03,-8.5,0.08,0.3,13.3,27.7,53.4,8.55,18.7,41.3,6.88,17.88,31.76
1500,-786432,66,-56,-1,-1,0,"(1122, 414)","(1121, 435)","(1122, 455)","(1123, 476)","(1129, 496)","(1138, 514)","(1151, 530)","(1167, 543)","(1188, 547)","(1209, 545)","(1227, 535)","(1243, 520)","(1255, 503)","(1262, 483)","(1265, 462)","(1268, 442)","(1268, 421)","(1132, 401)","(1141, 392)","(1155, 389)","(1169, 391)","(1182, 398)","(1205, 399)","(1219, 393)","(1234, 392)","(1248, 396)","(1256, 407)","(1192, 414)","(1191, 427)","(1190, 440)","(1189, 454)","(1174, 464)","(1181, 467)","(1189, 470)","(1197, 468)","(1205, 465)","(1147, 415)","(1155, 410)","(1165, 411)","(1174, 417)","(1164, 419)","(1155, 419)","(1212, 419)","(1222, 413)","(1232, 414)","(1240, 419)","(1232, 422)","(1222, 422)","(1161, 492)","(1171, 487)","(1181, 484)","(1189, 487)","(1196, 485)","(1207, 488)","(1218, 495)","(1207, 504)","(1196, 508)","(1188, 509)","(1180, 508)","(1170, 503)","(1166, 493)","(1181, 492)","(1188, 493)","(1196, 492)","(1213, 495)","(1196, 498)","(1189, 498)","(1181, 497)",0.3,0.9,37.0,0.37,0.04,0.39,0.03,-9.0,0.08,0.3,12.3,28.7,54.0,9.75,20.7,43.2,7.52,18.64,32.23
1533,-720896,66,-56,-1,-1,0,"(1113, 412)","(1112, 433)","(1113, 454)","(1116, 475)","(1122, 495)","(1132, 514)","(1146, 530)","(1163, 541)","(1184, 545)","(1204, 543)","(1222, 532)","(1236, 517)","(1246, 499)","(1253, 480)","(1257, 460)","(1259, 440)","(1260, 420)","(1126, 399)","(1135, 390)","(1149, 386)","(1164, 389)","(1178, 396)","(1201, 396)","(1215, 390)","(1230, 389)","(1244, 393)","(1252, 404)","(1189, 412)","(1188, 425)","(1188, 438)","(1187, 452)","(1171, 463)","(1178, 466)","(1186, 469)","(1194, 467)","(1202, 464)","(1142, 413)","(1150, 408)","(1160, 408)","(1169, 415)","(1160, 417)","(1149, 417)","(1209, 417)","(1218, 411)","(1228, 411)","(1236, 417)","(1228, 420)","(1218, 420)","(1157, 491)","(1167, 485)","(1178, 483)","(1186, 485)","(1194, 483)","(1204, 487)","(1214, 494)","(1205, 503)","(1194, 508)","(1186, 508)","(1178, 507)","(1167, 502)","(1162, 492)","(1178, 490)","(1186, 491)","(1193, 491)","(1209, 494)","(1194, 497)","(1186, 498)","(1178, 496)",0.33,0.86,37.0,0.36,0.04,0.38,0.03,-9.0,0.08,0.3,15.8,31.7,58.4,10.1,20.45,44.25,10.0,23.41,40.17
1566,-655360,66,-56,-1,-1,0,"(1108, 410)","(1108, 433)","(1110, 454)","(1113, 476)","(1118, 497)","(1128, 517)","(1141, 534)","(1158, 547)","(1179, 551)","(1201, 549)","(1221, 538)","(1238, 523)","(1251, 505)","(1259, 484)","(1264, 462)","(1268, 440)","(1271, 418)","(1121, 399)","(1131, 389)","(1145, 386)","(1160, 388)","(1174, 394)","(1197, 394)","(1212, 389)","(1228, 388)","(1243, 393)","(1253, 404)","(1184, 410)","(1183, 424)","(1182, 438)","(1181, 453)","(1165, 463)","(1173, 466)","(1181, 469)","(1189, 467)","(1197, 465)","(1137, 411)","(1146, 407)","(1156, 407)","(1165, 414)","(1155, 416)","(1145, 415)","(1206, 415)","(1215, 409)","(1226, 410)","(1234, 416)","(1226, 419)","(1215, 418)","(1151, 493)","(1161, 487)","(1172, 485)","(1180, 487)","(1188, 486)","(1199, 489)","(1210, 496)","(1199, 506)","(1187, 510)","(1179, 511)","(1170, 510)","(1160, 504)","(1156, 493)","(1172, 492)","(1180, 493)","(1188, 493)","(1205, 496)","(1187, 499)","(1179, 500)","(1171, 499)",0.32,0.89,37.0,0.34,0.04,0.36,0.03,-9.5,0.07,0.3,12.9,28.6,52.1,8.95,20.7,43.5,6.23,17.47,30.41
1600,-655360,66,-56,-1,-1,0,"(1105, 407)","(1104, 430)","(1105, 452)","(1106, 474)","(1112, 496)","(1121, 517)","(1135, 535)","(1153, 549)","(1175, 554)","(1197, 552)","(1218, 540)","(1236, 524)","(1249, 505)","(1258, 483)","(1262, 460)","(1266, 437)","(1267, 414)","(1116, 396)","(1125, 386)","(1140, 383)","(1155, 386)","(1169, 393)","(1194, 393)","(1209, 387)","(1226, 385)","(1241, 390)","(1251, 402)","(1180, 408)","(1179, 423)","(1178, 438)","(1177, 453)","(1161, 463)","(1168, 467)","(1177, 470)","(1186, 468)","(1194, 465)","(1133, 410)","(1141, 405)","(1152, 406)","(1161, 412)","(1151, 414)","(1140, 414)","(1202, 414)","(1212, 408)","(1223, 409)","(1232, 415)","(1223, 418)","(1212, 417)","(1147, 493)","(1158, 488)","(1169, 486)","(1176, 488)","(1184, 487)","(1196, 490)","(1208, 496)","(1195, 507)","(1184, 511)","(1175, 511)","(1166, 510)","(1156, 504)","(1152, 494)","(1168, 493)","(1176, 494)","(1184, 494)","(1202, 496)","(1184, 500)","(1175, 500)","(1167, 499)",0.29,0.9,36.0,0.35,0.04,0.37,0.03,-9.5,0.08,0.3,14.8,31.5,56.3,9.75,19.2,44.15,6.7,17.23,31.7
1633,-655360,66,-56,-1,-1,0,"(1102, 407)","(1100, 430)","(1101, 452)","(1103, 475)","(1108, 497)","(1117, 519)","(1131, 537)","(1149, 552)","(1171, 556)","(1194, 554)","(1216, 542)","(1234, 526)","(1248, 506)","(1257, 484)","(1262, 461)","(1265, 437)","(1266, 413)","(1111, 395)","(1121, 385)","(1135, 382)","(1151, 385)","(1165, 392)","(1190, 392)","(1206, 386)","(1223, 384)","(1239, 389)","(1250, 401)","(1176, 408)","(1175, 424)","(1174, 439)","(1173, 455)","(1157, 465)","(1164, 469)","(1173, 472)","(1182, 470)","(1191, 466)","(1128, 410)","(1136, 405)","(1147, 406)","(1157, 412)","(1146, 414)","(1136, 414)","(1199, 413)","(1210, 408)","(1221, 409)","(1230, 414)","(1221, 417)","(1210, 417)","(1143, 495)","(1153, 490)","(1164, 488)","(1172, 491)","(1180, 489)","(1192, 492)","(1204, 498)","(1191, 509)","(1179, 513)","(1170, 513)","(1162, 512)","(1152, 506)","(1148, 496)","(1164, 496)","(1172, 497)","(1180, 497)","(1198, 498)","(1180, 501)","(1171, 502)","(1163, 500)",0.27,0.92,36.0,0.36,0.04,0.37,0.03,-9.0,0.09,0.31,16.1,31.9,58.4,8.5,19.2,42.15,9.29,20.29,34.88
1666,-589824,66,-56,-1,-1,0,"(1090, 408)","(1089, 431)","(1090, 455)","(1093, 478)","(1099, 501)","(1110, 522)","(1125, 540)","(1144, 555)","(1167, 560)","(1190, 558)","(1211, 546)","(1228, 530)","(1242, 511)","(1251, 489)","(1256, 465)","(1260, 441)","(1262, 417)","(1105, 395)","(1115, 385)","(1131, 382)","(1146, 385)","(1161, 392)","(1186, 393)","(1202, 386)","(1219, 385)","(1235, 390)","(1246, 402)","(1172, 409)","(1171, 425)","(1170, 440)","(1169, 457)","(1152, 467)","(1160, 471)","(1169, 474)","(1178, 472)","(1187, 469)","(1122, 410)","(1131, 405)","(1142, 406)","(1152, 413)","(1141, 415)","(1130, 414)","(1195, 415)","(1206, 409)","(1217, 409)","(1226, 415)","(1217, 418)","(1206, 418)","(1138, 498)","(1148, 493)","(1159, 491)","(1168, 493)","(1176, 491)","(1188, 495)","(1200, 502)","(1188, 512)","(1176, 517)","(1167, 517)","(1158, 516)","(1147, 510)","(1143, 499)","(1159, 498)","(1167, 500)","(1176, 499)","(1195, 502)","(1176, 504)","(1168, 505)","(1159, 503)",0.29,0.92,36.0,0.35,0.04,0.36,0.02,-9.5,0.08,0.31,13.5,29.8,53.4,9.35,19.55,43.05,10.11,21.47,37.82
1700,-589824,66,-56,-1,-1,0,"(1086, 409)","(1085, 433)","(1086, 457)","(1089, 481)","(1096, 505)","(1107, 526)","(1122, 545)","(1141, 560)","(1164, 565)","(1188, 563)","(1210, 550)","(1228, 534)","(1242, 513)","(1251, 491)","(1256, 467)","(1259, 442)","(1261, 418)","(1100, 396)","(1110, 386)","(1126, 383)","(1142, 386)","(1157, 393)","(1183, 394)","(1199, 387)","(1216, 386)","(1233, 390)","(1243, 403)","(1169, 411)","(1168, 427)","(1166, 444)","(1165, 461)","(1148, 471)","(1156, 475)","(1165, 478)","(1175, 475)","(1184, 472)","(1117, 412)","(1127, 407)","(1138, 407)","(1148, 414)","(1137, 417)","(1126, 416)","(1192, 416)","(1203, 410)","(1214, 410)","(1224, 416)","(1214, 420)","(1203, 419)","(1134, 502)","(1145, 497)","(1156, 495)","(1164, 497)","(1173, 495)","(1185, 499)","(1197, 505)","(1185, 516)","(1173, 521)","(1164, 522)","(1154, 520)","(1144, 514)","(1139, 503)","(1156, 503)","(1164, 504)","(1173, 503)","(1192, 505)","(1173, 508)","(1164, 509)","(1156, 507)",0.29,0.9,36.0,0.35,0.04,0.36,0.03,-10.0,0.08,0.32,13.0,29.4,53.3,9.1,19.3,43.95,9.58,22.7,39.41
1733,-524288,66,-56,-1,-1,0,"(1083, 413)","(1082, 437)","(1084, 461)","(1086, 486)","(1093, 509)","(1104, 531)","(1119, 550)","(1138, 565)","(1162, 571)","(1187, 568)","(1209, 555)","(1228, 538)","(1242, 517)","(1251, 494)","(1256, 469)","(1259, 444)","(1260, 418)","(1094, 400)","(1104, 388)","(1120, 385)","(1136, 388)","(1151, 395)","(1178, 396)","(1195, 389)","(1213, 387)","(1231, 392)","(1242, 404)","(1164, 413)","(1163, 430)","(1162, 447)","(1161, 464)","(1143, 474)","(1152, 479)","(1161, 482)","(1171, 479)","(1180, 476)","(1112, 415)","(1121, 409)","(1133, 410)","(1143, 417)","(1132, 419)","(1120, 419)","(1189, 418)","(1200, 412)","(1212, 412)","(1221, 418)","(1212, 422)","(1200, 422)","(1130, 507)","(1141, 501)","(1152, 499)","(1161, 501)","(1170, 499)","(1182, 502)","(1195, 509)","(1182, 519)","(1170, 524)","(1160, 525)","(1151, 524)","(1140, 518)","(1136, 507)","(1152, 507)","(1161, 508)","(1170, 508)","(1189, 509)","(1170, 511)","(1161, 512)","(1152, 511)",0.31,0.89,37.0,0.35,0.01,0.36,0.02,-10.0,0.09,0.32,14.3,28.7,52.3,10.4,19.75,46.35,9.17,22.47,38.7
1766,-589824,66,-56,-1,-1,0,"(1075, 413)","(1075, 439)","(1077, 464)","(1079, 489)","(1086, 514)","(1097, 537)","(1114, 557)","(1134, 573)","(1158, 578)","(1184, 575)","(1208, 562)","(1228, 544)","(1243, 522)","(1253, 497)","(1258, 471)","(1260, 445)","(1262, 418)","(1087, 402)","(1098, 390)","(1114, 387)","(1131, 389)","(1147, 397)","(1175, 398)","(1193, 390)","(1212, 388)","(1230, 394)","(1241, 406)","(1160, 416)","(1159, 433)","(1158, 451)","(1157, 469)","(1139, 479)","(1148, 484)","(1157, 487)","(1167, 484)","(1176, 480)","(1106, 417)","(1116, 412)","(1128, 413)","(1139, 420)","(1127, 423)","(1115, 422)","(1185, 421)","(1197, 415)","(1209, 415)","(1219, 421)","(1209, 425)","(1197, 425)","(1125, 513)","(1137, 507)","(1148, 505)","(1157, 508)","(1166, 505)","(1178, 508)","(1192, 514)","(1178, 525)","(1166, 529)","(1156, 530)","(1147, 529)","(1136, 523)","(1131, 513)","(1148, 513)","(1157, 514)","(1165, 513)","(1185, 514)","(1166, 517)","(1157, 517)","(1148, 516)",0.29,0.88,37.0,0.35,0.01,0.35,0.02,-10.5,0.08,0.32,15.3,32.8,57.8,10.45,20.9,50.4,10.94,24.64,39.23
1800,-393216,66,-56,-1,-1,0,"(1072, 418)","(1071, 444)","(1073, 469)","(1076, 495)","(1083, 520)","(1094, 544)","(1110, 565)","(1130, 581)","(1155, 586)","(1181, 583)","(1205, 569)","(1226, 550)","(1242, 527)","(1251, 502)","(1256, 475)","(1259, 448)","(1260, 420)","(1082, 405)","(1092, 393)","(1109, 389)","(1126, 393)","(1143, 401)","(1171, 400)","(1189, 392)","(1209, 390)","(1227, 396)","(1239, 408)","(1156, 420)","(1155, 438)","(1154, 455)","(1153, 474)","(1135, 485)","(1143, 489)","(1153, 493)","(1164, 490)","(1173, 486)","(1101, 422)","(1111, 416)","(1123, 416)","(1134, 423)","(1122, 426)","(1110, 426)","(1182, 424)","(1194, 418)","(1206, 418)","(1217, 424)","(1206, 428)","(1194, 428)","(1121, 519)","(1132, 514)","(1144, 511)","(1153, 514)","(1162, 512)","(1176, 514)","(1190, 520)","(1176, 532)","(1163, 537)","(1153, 538)","(1143, 536)","(1132, 530)","(1127, 519)","(1144, 520)","(1153, 521)","(1162, 520)","(1183, 520)","(1163, 523)","(1153, 524)","(1144, 523)",0.28,0.94,37.0,0.36,0.02,0.36,0.02,-10.0,0.09,0.32,16.9,33.9,59.3,11.1,19.2,46.15,12.17,24.7,39.82
1833,-589824,66,-56,-1,-1,0,"(1046, 416)","(1046, 445)","(1048, 473)","(1054, 500)","(1064, 527)","(1079, 551)","(1099, 573)","(1122, 589)","(1148, 595)","(1173, 591)","(1195, 577)","(1212, 558)","(1225, 534)","(1234, 509)","(1240, 483)","(1244, 457)","(1245, 430)","(1073, 405)","(1086, 395)","(1104, 392)","(1122, 396)","(1139, 404)","(1167, 404)","(1184, 397)","(1202, 395)","(1220, 399)","(1231, 412)","(1153, 423)","(1153, 442)","(1152, 460)","(1151, 480)","(1130, 491)","(1140, 495)","(1151, 499)","(1161, 496)","(1171, 492)","(1094, 423)","(1105, 418)","(1118, 418)","(1128, 426)","(1116, 428)","(1104, 428)","(1177, 428)","(1189, 421)","(1202, 422)","(1211, 428)","(1202, 432)","(1189, 432)","(1115, 525)","(1128, 520)","(1141, 518)","(1150, 521)","(1159, 518)","(1172, 521)","(1185, 527)","(1173, 539)","(1161, 545)","(1151, 546)","(1141, 545)","(1128, 538)","(1121, 526)","(1141, 526)","(1150, 528)","(1159, 527)","(1178, 527)","(1160, 531)","(1151, 532)","(1142, 530)",0.3,0.86,37.0,0.34,0.05,0.35,0.02,-10.5,0.09,0.33,16.2,33.8,58.9,9.15,18.9,45.1,11.76,26.0,42.17
1866,-393216,66,-56,-1,-1,0,"(1045, 421)","(1045, 450)","(1047, 478)","(1052, 506)","(1061, 533)","(1076, 558)","(1096, 580)","(1120, 597)","(1147, 603)","(1173, 599)","(1196, 585)","(1214, 565)","(1228, 541)","(1237, 515)","(1241, 487)","(1245, 460)","(1245, 433)","(1068, 409)","(1081, 398)","(1099, 396)","(1117, 399)","(1134, 408)","(1165, 408)","(1182, 401)","(1201, 398)","(1219, 403)","(1231, 416)","(1150, 427)","(1149, 447)","(1148, 466)","(1147, 486)","(1127, 497)","(1137, 502)","(1147, 506)","(1158, 502)","(1168, 498)","(1089, 427)","(1100, 422)","(1113, 422)","(1124, 431)","(1112, 433)","(1099, 432)","(1174, 432)","(1187, 425)","(1200, 425)","(1210, 432)","(1200, 437)","(1187, 436)","(1111, 531)","(1124, 526)","(1137, 524)","(1147, 527)","(1156, 525)","(1170, 527)","(1184, 533)","(1171, 546)","(1158, 552)","(1148, 553)","(1138, 551)","(1125, 545)","(1118, 532)","(1137, 533)","(1147, 534)","(1157, 533)","(1177, 534)","(1158, 538)","(1148, 539)","(1138, 537)",0.31,0.89,37.0,0.35,0.05,0.36,0.03,-11.5,0.09,0.33,18.7,33.9,60.0,11.2,20.4,45.85,12.64,25.88,43.0
1900,-917504,66,-56,-1,-1,0,"(1045, 427)","(1044, 455)","(1045, 484)","(1049, 512)","(1058, 540)","(1073, 566)","(1093, 588)","(1117, 606)","(1145, 611)","(1172, 607)","(1195, 592)","(1214, 571)","(1228, 546)","(1236, 519)","(1240, 492)","(1243, 464)","(1243, 437)","(1065, 415)","(1077, 404)","(1095, 401)","(1113, 405)","(1131, 414)","(1162, 413)","(1179, 405)","(1199, 402)","(1217, 407)","(1229, 420)","(1146, 434)","(1145, 453)","(1144, 472)","(1143, 492)","(1123, 503)","(1133, 508)","(1144, 512)","(1155, 509)","(1164, 504)","(1085, 434)","(1096, 428)","(1109, 428)","(1121, 436)","(1108, 439)","(1095, 438)","(1172, 438)","(1184, 430)","(1197, 430)","(1207, 437)","(1197, 442)","(1184, 441)","(1107, 538)","(1120, 533)","(1134, 531)","(1144, 534)","(1154, 531)","(1168, 533)","(1182, 539)","(1169, 553)","(1156, 560)","(1145, 561)","(1134, 559)","(1121, 552)","(1114, 539)","(1134, 540)","(1144, 541)","(1154, 540)","(1175, 540)","(1155, 545)","(1145, 546)","(1135, 545)",0.32,0.88,37.0,0.35,0.04,0.37,0.03,-11.5,0.09,0.32,13.7,30.8,56.4,11.9,21.65,45.35,14.05,26.41,44.17
1933,-1048576,66,-56,-1,-1,0,"(1041, 431)","(1041, 460)","(1044, 489)","(1048, 518)","(1057, 545)","(1071, 571)","(1090, 594)","(1114, 612)","(1141, 618)","(1168, 614)","(1192, 598)","(1212, 578)","(1227, 553)","(1236, 527)","(1241, 499)","(1245, 470)","(1246, 442)","(1060, 419)","(1073, 408)","(1091, 405)","(1110, 409)","(1127, 417)","(1159, 418)","(1177, 410)","(1197, 407)","(1216, 412)","(1229, 425)","(1143, 437)","(1142, 458)","(1141, 478)","(1140, 499)","(1119, 509)","(1129, 514)","(1140, 518)","(1151, 515)","(1162, 510)","(1082, 437)","(1093, 431)","(1106, 432)","(1117, 440)","(1105, 443)","(1092, 442)","(1170, 442)","(1182, 434)","(1196, 435)","(1206, 441)","(1196, 446)","(1183, 445)","(1103, 543)","(1116, 539)","(1130, 536)","(1140, 540)","(1150, 537)","(1165, 540)","(1179, 545)","(1166, 560)","(1152, 567)","(1140, 568)","(1129, 567)","(1116, 559)","(1109, 545)","(1129, 545)","(1140, 547)","(1150, 546)","(1173, 546)","(1151, 552)","(1141, 553)","(1130, 551)",0.3,0.9,37.0,0.34,0.03,0.37,0.03,-12.0,0.09,0.34,15.5,31.3,57.0,11.75,21.1,44.2,11.52,25.94,42.47
1966,5046272,66,-56,-1,-1,0,"(1041, 434)","(1040, 463)","(1043, 492)","(1047, 521)","(1055, 549)","(1069, 576)","(1088, 600)","(1111, 618)","(1138, 624)","(1166, 620)","(1190, 604)","(1210, 582)","(1225, 556)","(1234, 529)","(1239, 501)","(1243, 472)","(1244, 443)","(1056, 423)","(1068, 411)","(1087, 409)","(1106, 413)","(1124, 422)","(1156, 422)","(1174, 414)","(1194, 411)","(1215, 416)","(1227, 430)","(1139, 441)","(1138, 462)","(1137, 483)","(1136, 505)","(1115, 514)","(1125, 519)","(1136, 524)","(1148, 520)","(1158, 515)","(1077, 441)","(1088, 435)","(1102, 435)","(1114, 444)","(1101, 447)","(1087, 446)","(1167, 446)","(1180, 438)","(1194, 438)","(1204, 445)","(1194, 450)","(1180, 450)","(1099, 548)","(1112, 544)","(1126, 542)","(1136, 545)","(1147, 542)","(1162, 545)","(1177, 550)","(1163, 565)","(1149, 572)","(1137, 573)","(1125, 572)","(1112, 564)","(1105, 550)","(1125, 550)","(1136, 552)","(1147, 551)","(1170, 551)","(1148, 557)","(1137, 559)","(1126, 557)",0.32,0.91,37.0,0.36,0.04,0.38,0.03,-12.0,0.09,0.34,14.9,31.5,53.9,11.2,20.8,44.95,12.35,25.7,42.17
2000,-4194304,66,-56,-1,-1,0,"(1039, 437)","(1038, 467)","(1041, 496)","(1045, 525)","(1054, 553)","(1068, 580)","(1086, 604)","(1109, 624)","(1136, 629)","(1165, 625)","(1190, 609)","(1210, 587)","(1226, 561)","(1236, 533)","(1240, 504)","(1244, 474)","(1245, 445)","(1052, 425)","(1065, 413)","(1083, 411)","(1102, 415)","(1120, 425)","(1153, 425)","(1172, 416)","(1193, 413)","(1213, 417)","(1226, 431)","(1136, 445)","(1135, 466)","(1134, 487)","(1132, 509)","(1112, 518)","(1122, 524)","(1133, 528)","(1145, 524)","(1156, 520)","(1074, 444)","(1085, 438)","(1099, 439)","(1111, 448)","(1098, 450)","(1084, 450)","(1165, 449)","(1178, 441)","(1192, 442)","(1203, 449)","(1192, 454)","(1178, 453)","(1096, 553)","(1109, 549)","(1123, 547)","(1133, 550)","(1144, 548)","(1160, 550)","(1175, 555)","(1161, 570)","(1146, 578)","(1134, 579)","(1123, 577)","(1109, 569)","(1103, 554)","(1123, 556)","(1133, 557)","(1144, 556)","(1168, 556)","(1145, 562)","(1134, 564)","(1123, 561)",0.31,0.93,37.0,0.36,0.04,0.38,0.03,-12.5,0.09,0.34,16.6,33.1,58.4,10.8,20.05,45.1,11.58,25.11,40.76
2033,-786432,66,-56,-1,-1,0,"(1036, 439)","(1036, 469)","(1040, 498)","(1043, 528)","(1051, 557)","(1064, 584)","(1082, 608)","(1105, 627)","(1133, 634)","(1162, 630)","(1188, 613)","(1209, 591)","(1224, 565)","(1234, 536)","(1238, 506)","(1242, 477)","(1243, 446)","(1048, 427)","(1061, 415)","(1080, 413)","(1099, 417)","(1117, 427)","(1152, 427)","(1171, 418)","(1192, 415)","(1213, 420)","(1226, 434)","(1134, 447)","(1133, 469)","(1132, 490)","(1130, 513)","(1110, 521)","(1120, 527)","(1131, 531)","(1143, 528)","(1153, 523)","(1071, 446)","(1082, 440)","(1096, 441)","(1108, 450)","(1095, 453)","(1081, 452)","(1163, 452)","(1176, 444)","(1191, 444)","(1202, 451)","(1191, 456)","(1177, 456)","(1093, 556)","(1106, 552)","(1120, 550)","(1131, 554)","(1142, 551)","(1157, 554)","(1173, 559)","(1158, 574)","(1143, 581)","(1131, 582)","(1119, 580)","(1106, 572)","(1099, 557)","(1120, 559)","(1131, 561)","(1142, 560)","(1166, 560)","(1143, 566)","(1131, 567)","(1120, 565)",0.3,0.92,37.0,0.36,0.04,0.38,0.03,-12.5,0.09,0.35,16.6,33.9,59.3,11.0,20.9,44.4,11.7,24.7,40.29
2066,0,66,-56,-1,-1,0,"(1035, 443)","(1035, 473)","(1038, 502)","(1043, 531)","(1050, 560)","(1064, 587)","(1082, 612)","(1104, 631)","(1133, 638)","(1162, 633)","(1188, 616)","(1209, 593)","(1225, 567)","(1234, 538)","(1239, 508)","(1243, 478)","(1243, 448)","(1046, 429)","(1058, 417)","(1077, 414)","(1097, 419)","(1115, 428)","(1150, 428)","(1169, 419)","(1190, 417)","(1211, 421)","(1224, 434)","(1132, 449)","(1131, 471)","(1130, 492)","(1128, 515)","(1108, 524)","(1118, 530)","(1129, 534)","(1141, 530)","(1152, 526)","(1069, 449)","(1080, 443)","(1094, 444)","(1106, 452)","(1093, 455)","(1079, 455)","(1162, 454)","(1175, 446)","(1190, 446)","(1201, 453)","(1190, 458)","(1175, 458)","(1092, 559)","(1105, 555)","(1119, 553)","(1129, 557)","(1140, 554)","(1156, 557)","(1172, 562)","(1157, 577)","(1142, 584)","(1130, 585)","(1118, 583)","(1104, 575)","(1098, 561)","(1119, 562)","(1129, 564)","(1141, 563)","(1165, 563)","(1141, 569)","(1130, 570)","(1119, 568)",0.3,0.94,37.0,0.36,0.03,0.38,0.03,-12.0,0.09,0.34,16.7,35.1,61.3,11.55,21.2,45.6,11.82,24.94,41.05
2100,720896,66,-56,-1,-1,0,"(1034, 446)","(1034, 475)","(1037, 504)","(1041, 534)","(1049, 563)","(1062, 591)","(1080, 615)","(1103, 635)","(1131, 641)","(1161, 637)","(1187, 620)","(1209, 597)","(1225, 570)","(1235, 541)","(1239, 511)","(1243, 481)","(1243, 450)","(1044, 432)","(1056, 419)","(1075, 417)","(1094, 421)","(1113, 430)","(1149, 430)","(1169, 422)","(1190, 419)","(1211, 424)","(1224, 438)","(1131, 451)","(1129, 473)","(1128, 495)","(1127, 517)","(1106, 526)","(1116, 532)","(1127, 537)","(1140, 533)","(1151, 528)","(1066, 451)","(1077, 445)","(1092, 446)","(1104, 454)","(1091, 457)","(1077, 457)","(1161, 456)","(1174, 448)","(1189, 449)","(1200, 456)","(1189, 461)","(1174, 460)","(1090, 562)","(1103, 558)","(1117, 556)","(1128, 559)","(1139, 556)","(1155, 559)","(1170, 564)","(1155, 580)","(1140, 586)","(1128, 587)","(1116, 585)","(1102, 578)","(1096, 563)","(1117, 565)","(1128, 567)","(1139, 566)","(1163, 565)","(1140, 571)","(1128, 573)","(1117, 570)",0.3,0.92,37.0,0.36,0.03,0.38,0.02,-12.5,0.09,0.34,15.4,31.8,55.9,11.2,20.95,44.9,11.23,24.17,39.41
2133,2490368,66,-56,-1,-1,0,"(1033, 447)","(1033, 477)","(1036, 506)","(1040, 535)","(1048, 564)","(1061, 593)","(1079, 618)","(1101, 637)","(1130, 643)","(1159, 639)","(1185, 622)","(1206, 598)","(1222, 571)","(1231, 542)","(1236, 512)","(1240, 482)","(1240, 451)","(1043, 434)","(1055, 421)","(1074, 419)","(1094, 423)","(1113, 432)","(1147, 432)","(1167, 423)","(1189, 420)","(1210, 425)","(1223, 439)","(1129, 453)","(1128, 475)","(1127, 497)","(1126, 520)","(1105, 529)","(1115, 535)","(1126, 539)","(1138, 535)","(1150, 531)","(1065, 453)","(1076, 447)","(1090, 448)","(1103, 456)","(1089, 459)","(1075, 459)","(1159, 458)","(1173, 450)","(1187, 450)","(1199, 457)","(1187, 462)","(1173, 462)","(1088, 565)","(1101, 560)","(1116, 559)","(1126, 562)","(1138, 559)","(1154, 562)","(1169, 567)","(1154, 582)","(1139, 589)","(1127, 590)","(1115, 589)","(1101, 580)","(1095, 566)","(1115, 568)","(1126, 570)","(1138, 568)","(1162, 568)","(1139, 574)","(1127, 576)","(1116, 573)",0.29,0.91,37.0,0.37,0.03,0.39,0.02,-12.0,0.1,0.35,16.2,33.1,58.7,12.7,20.75,45.95,11.64,24.82,41.29
2166,4915200,66,-56,-1,-1,0,"(1034, 448)","(1033, 478)","(1036, 507)","(1040, 536)","(1048, 566)","(1061, 594)","(1079, 618)","(1101, 638)","(1130, 644)","(1159, 640)","(1185, 622)","(1207, 599)","(1223, 572)","(1233, 543)","(1237, 513)","(1241, 483)","(1241, 452)","(1042, 435)","(1054, 422)","(1073, 420)","(1093, 424)","(1111, 433)","(1147, 433)","(1167, 424)","(1188, 421)","(1209, 426)","(1223, 439)","(1129, 454)","(1128, 476)","(1126, 498)","(1125, 521)","(1104, 530)","(1114, 536)","(1126, 540)","(1138, 536)","(1149, 531)","(1065, 454)","(1076, 448)","(1090, 449)","(1103, 457)","(1089, 460)","(1075, 460)","(1159, 459)","(1172, 451)","(1187, 451)","(1198, 458)","(1187, 463)","(1173, 463)","(1088, 566)","(1101, 561)","(1115, 559)","(1126, 563)","(1138, 560)","(1154, 562)","(1169, 567)","(1154, 583)","(1139, 590)","(1126, 591)","(1114, 590)","(1101, 582)","(1095, 567)","(1115, 569)","(1126, 570)","(1138, 569)","(1162, 568)","(1139, 575)","(1127, 576)","(1115, 574)",0.3,0.92,37.0,0.37,0.02,0.39,0.03,-12.0,0.09,0.35,16.5,33.1,56.3,11.4,20.7,45.2,11.58,24.7,40.41
2200,3342336,66,-56,-1,-1,0,"(1035, 448)","(1034, 477)","(1037, 506)","(1041, 535)","(1048, 565)","(1061, 593)","(1078, 617)","(1101, 637)","(1129, 644)","(1159, 640)","(1185, 622)","(1206, 599)","(1223, 572)","(1232, 543)","(1237, 512)","(1240, 482)","(1241, 452)","(1042, 435)","(1054, 422)","(1073, 420)","(1093, 424)","(1111, 434)","(1146, 434)","(1166, 425)","(1188, 422)","(1209, 426)","(1223, 440)","(1128, 455)","(1127, 477)","(1126, 499)","(1124, 521)","(1104, 530)","(1114, 536)","(1125, 540)","(1137, 537)","(1149, 532)","(1065, 454)","(1076, 448)","(1090, 449)","(1103, 457)","(1089, 460)","(1075, 460)","(1158, 459)","(1172, 451)","(1187, 451)","(1198, 458)","(1187, 464)","(1172, 463)","(1088, 565)","(1101, 561)","(1115, 559)","(1126, 563)","(1137, 560)","(1153, 563)","(1169, 568)","(1154, 584)","(1138, 591)","(1126, 592)","(1114, 590)","(1100, 582)","(1095, 567)","(1114, 569)","(1125, 571)","(1137, 569)","(1162, 569)","(1138, 576)","(1126, 577)","(1115, 575)",0.31,0.94,37.0,0.37,0.03,0.39,0.03,-12.5,0.1,0.34,15.9,31.4,55.2,12.1,21.2,45.3,11.29,24.41,40.76
2233,0,66,-56,-1,-1,0,"(1035, 447)","(1034, 477)","(1037, 505)","(1041, 534)","(1049, 563)","(1062, 591)","(1080, 616)","(1102, 635)","(1131, 641)","(1160, 637)","(1186, 620)","(1208, 597)","(1224, 570)","(1233, 541)","(1238, 511)","(1241, 481)","(1241, 451)","(1043, 434)","(1055, 422)","(1074, 419)","(1093, 424)","(1112, 433)","(1147, 433)","(1166, 424)","(1188, 421)","(1209, 426)","(1222, 439)","(1129, 454)","(1128, 475)","(1126, 497)","(1125, 519)","(1105, 528)","(1115, 534)","(1126, 538)","(1138, 534)","(1150, 530)","(1066, 453)","(1077, 447)","(1091, 448)","(1104, 456)","(1090, 460)","(1076, 459)","(1159, 458)","(1172, 450)","(1186, 450)","(1198, 457)","(1187, 462)","(1172, 462)","(1089, 563)","(1102, 559)","(1116, 557)","(1127, 560)","(1138, 557)","(1154, 560)","(1170, 565)","(1155, 581)","(1140, 588)","(1127, 589)","(1115, 587)","(1102, 579)","(1096, 565)","(1116, 566)","(1127, 568)","(1138, 567)","(1162, 566)","(1139, 573)","(1127, 574)","(1116, 572)",0.3,0.93,37.0,0.37,0.03,0.39,0.03,-12.5,0.1,0.34,15.7,31.7,56.5,11.65,21.8,45.35,11.47,24.64,39.82
2266,-655360,66,-56,-1,-1,0,"(1036, 443)","(1036, 473)","(1039, 502)","(1043, 531)","(1051, 559)","(1064, 587)","(1082, 611)","(1104, 631)","(1132, 637)","(1161, 633)","(1187, 616)","(1208, 593)","(1224, 567)","(1234, 538)","(1239, 508)","(1242, 478)","(1243, 447)","(1045, 432)","(1057, 419)","(1076, 417)","(1095, 422)","(1114, 431)","(1148, 431)","(1167, 422)","(1188, 419)","(1209, 423)","(1223, 437)","(1130, 451)","(1129, 473)","(1128, 495)","(1126, 517)","(1106, 526)","(1116, 531)","(1128, 536)","(1139, 532)","(1150, 527)","(1068, 450)","(1079, 445)","(1093, 445)","(1105, 454)","(1091, 457)","(1078, 456)","(1160, 456)","(1173, 448)","(1187, 448)","(1199, 455)","(1188, 460)","(1174, 460)","(1091, 560)","(1104, 556)","(1117, 555)","(1128, 558)","(1139, 555)","(1154, 558)","(1170, 562)","(1155, 578)","(1140, 585)","(1128, 586)","(1117, 584)","(1103, 576)","(1097, 561)","(1117, 563)","(1128, 565)","(1139, 564)","(1163, 563)","(1140, 570)","(1128, 571)","(1117, 569)",0.3,0.93,37.0,0.36,0.03,0.38,0.03,-12.0,0.09,0.35,15.6,33.9,59.6,11.8,20.25,43.65,11.58,24.41,40.52
2300,-720896,66,-56,-1,-1,0,"(1037, 440)","(1038, 470)","(1041, 498)","(1045, 527)","(1053, 555)","(1065, 583)","(1083, 607)","(1105, 626)","(1133, 633)","(1162, 629)","(1187, 613)","(1208, 590)","(1223, 564)","(1233, 536)","(1238, 506)","(1241, 476)","(1242, 446)","(1049, 429)","(1061, 417)","(1079, 415)","(1098, 420)","(1116, 429)","(1150, 429)","(1169, 420)","(1190, 417)","(1210, 421)","(1224, 435)","(1133, 448)","(1131, 470)","(1130, 492)","(1129, 514)","(1109, 522)","(1119, 528)","(1130, 532)","(1142, 528)","(1152, 524)","(1071, 447)","(1082, 442)","(1096, 442)","(1108, 451)","(1094, 454)","(1081, 453)","(1161, 453)","(1174, 445)","(1189, 445)","(1200, 452)","(1189, 457)","(1175, 456)","(1094, 556)","(1106, 552)","(1120, 550)","(1130, 554)","(1141, 551)","(1156, 554)","(1172, 558)","(1158, 574)","(1143, 582)","(1131, 583)","(1119, 581)","(1106, 572)","(1100, 557)","(1119, 559)","(1130, 561)","(1141, 560)","(1165, 560)","(1142, 566)","(1131, 568)","(1120, 565)",0.29,0.95,37.0,0.37,0.04,0.38,0.03,-12.0,0.09,0.35,15.3,31.6,57.6,11.75,20.3,44.85,11.17,25.17,41.29
2333,-786432,66,-56,-1,-1,0,"(1040, 436)","(1040, 465)","(1044, 494)","(1048, 522)","(1055, 551)","(1069, 577)","(1087, 601)","(1109, 620)","(1137, 626)","(1165, 622)","(1190, 606)","(1211, 584)","(1226, 559)","(1236, 531)","(1240, 502)","(1244, 472)","(1245, 442)","(1052, 426)","(1065, 415)","(1083, 413)","(1102, 417)","(1120, 426)","(1152, 426)","(1171, 417)","(1191, 414)","(1212, 418)","(1225, 431)","(1136, 445)","(1135, 466)","(1133, 487)","(1132, 509)","(1112, 517)","(1122, 522)","(1133, 527)","(1145, 523)","(1156, 518)","(1075, 444)","(1086, 438)","(1099, 439)","(1111, 447)","(1098, 450)","(1085, 450)","(1164, 449)","(1177, 441)","(1191, 441)","(1202, 448)","(1191, 453)","(1178, 453)","(1097, 550)","(1110, 547)","(1123, 545)","(1133, 548)","(1144, 545)","(1160, 548)","(1175, 552)","(1161, 568)","(1146, 576)","(1135, 577)","(1123, 575)","(1110, 567)","(1104, 552)","(1123, 553)","(1133, 555)","(1145, 554)","(1168, 554)","(1146, 560)","(1135, 562)","(1124, 560)",0.31,0.94,37.0,0.36,0.03,0.38,0.03,-12.0,0.09,0.35,15.5,31.9,56.8,11.3,21.25,45.8,11.29,25.17,41.64
2366,-393216,67,-56,-1,-1,0,"(1041, 434)","(1041, 463)","(1043, 491)","(1048, 519)","(1056, 547)","(1069, 574)","(1088, 596)","(1112, 614)","(1139, 619)","(1167, 615)","(1192, 600)","(1211, 579)","(1226, 554)","(1235, 527)","(1239, 499)","(1243, 470)","(1244, 442)","(1057, 423)","(1070, 412)","(1088, 409)","(1106, 414)","(1124, 422)","(1156, 422)","(1174, 414)","(1193, 411)","(1213, 415)","(1225, 428)","(1140, 441)","(1139, 461)","(1138, 482)","(1137, 504)","(1116, 512)","(1126, 517)","(1137, 522)","(1149, 518)","(1160, 513)","(1079, 440)","(1090, 435)","(1103, 435)","(1115, 444)","(1102, 446)","(1089, 446)","(1167, 445)","(1179, 437)","(1193, 438)","(1203, 444)","(1193, 449)","(1180, 449)","(1101, 545)","(1114, 541)","(1128, 539)","(1138, 542)","(1149, 539)","(1163, 542)","(1178, 547)","(1165, 562)","(1150, 569)","(1138, 570)","(1127, 569)","(1114, 561)","(1107, 547)","(1127, 547)","(1138, 549)","(1149, 548)","(1171, 548)","(1150, 555)","(1139, 556)","(1128, 554)",0.31,0.9,37.0,0.35,0.03,0.37,0.03,-11.5,0.09,0.35,14.7,30.4,55.0,12.3,22.2,46.8,12.41,26.58,43.23
2400,-786432,67,-56,-1,-1,0,"(1056, 429)","(1056, 456)","(1058, 483)","(1061, 510)","(1068, 537)","(1081, 563)","(1098, 585)","(1120, 603)","(1146, 609)","(1173, 605)","(1198, 590)","(1219, 569)","(1235, 545)","(1245, 518)","(1250, 490)","(1253, 461)","(1253, 432)","(1065, 419)","(1076, 407)","(1094, 405)","(1112, 409)","(1129, 418)","(1160, 418)","(1179, 409)","(1199, 406)","(1219, 411)","(1232, 423)","(1144, 437)","(1143, 457)","(1142, 477)","(1141, 498)","(1122, 506)","(1131, 511)","(1142, 515)","(1153, 512)","(1163, 507)","(1086, 436)","(1096, 431)","(1109, 432)","(1121, 439)","(1108, 442)","(1095, 442)","(1172, 441)","(1185, 434)","(1198, 434)","(1209, 440)","(1198, 445)","(1185, 444)","(1108, 539)","(1120, 535)","(1132, 533)","(1142, 536)","(1152, 534)","(1166, 536)","(1181, 540)","(1167, 553)","(1153, 560)","(1142, 561)","(1132, 559)","(1120, 552)","(1114, 540)","(1132, 541)","(1142, 543)","(1152, 542)","(1174, 541)","(1153, 546)","(1143, 547)","(1133, 545)",0.28,0.93,37.0,0.36,0.02,0.37,0.02,-11.0,0.09,0.35,16.6,35.0,61.4,12.0,21.55,47.7,11.05,24.94,41.17
2433,-720896,67,-56,-1,-1,0,"(1048, 423)","(1047, 451)","(1049, 479)","(1054, 506)","(1062, 534)","(1077, 559)","(1097, 580)","(1121, 596)","(1148, 601)","(1174, 597)","(1196, 584)","(1214, 564)","(1227, 540)","(1236, 515)","(1240, 488)","(1243, 462)","(1243, 435)","(1070, 413)","(1083, 403)","(1100, 401)","(1118, 405)","(1135, 413)","(1165, 413)","(1182, 406)","(1200, 403)","(1218, 407)","(1230, 420)","(1150, 432)","(1149, 451)","(1148, 471)","(1148, 491)","(1128, 500)","(1137, 505)","(1148, 509)","(1159, 506)","(1168, 501)","(1090, 431)","(1101, 425)","(1114, 426)","(1125, 434)","(1113, 437)","(1100, 436)","(1175, 436)","(1187, 428)","(1200, 429)","(1209, 435)","(1200, 440)","(1187, 439)","(1113, 533)","(1126, 529)","(1139, 527)","(1148, 529)","(1157, 527)","(1170, 529)","(1184, 533)","(1172, 545)","(1159, 551)","(1149, 552)","(1139, 551)","(1126, 545)","(1119, 534)","(1139, 535)","(1148, 536)","(1158, 535)","(1178, 534)","(1159, 538)","(1149, 539)","(1140, 537)",0.32,0.87,37.0,0.35,0.05,0.36,0.02,-12.0,0.09,0.34,16.6,32.2,59.0,10.4,19.5,47.5,13.29,26.52,42.47
2466,-851968,67,-56,-1,-1,0,"(1070, 424)","(1071, 450)","(1073, 475)","(1077, 501)","(1084, 526)","(1095, 549)","(1111, 570)","(1130, 587)","(1154, 592)","(1180, 589)","(1205, 576)","(1226, 557)","(1241, 534)","(1252, 508)","(1257, 481)","(1261, 453)","(1262, 424)","(1080, 412)","(1091, 401)","(1107, 399)","(1124, 403)","(1140, 411)","(1169, 410)","(1187, 402)","(1207, 399)","(1226, 404)","(1239, 415)","(1154, 428)","(1153, 447)","(1152, 466)","(1151, 486)","(1133, 494)","(1142, 499)","(1152, 503)","(1163, 499)","(1173, 495)","(1099, 428)","(1109, 422)","(1122, 423)","(1133, 430)","(1120, 433)","(1108, 433)","(1182, 431)","(1193, 424)","(1206, 424)","(1216, 430)","(1206, 435)","(1193, 435)","(1119, 525)","(1131, 521)","(1143, 519)","(1152, 522)","(1162, 520)","(1175, 522)","(1190, 527)","(1175, 539)","(1162, 545)","(1151, 546)","(1142, 544)","(1130, 538)","(1125, 527)","(1142, 528)","(1152, 529)","(1162, 528)","(1183, 527)","(1162, 531)","(1152, 532)","(1142, 531)",0.32,0.91,37.0,0.35,0.02,0.36,0.02,-11.0,0.09,0.35,13.6,29.6,54.6,10.15,19.0,44.75,12.0,25.35,40.35
2500,-720896,67,-56,-1,-1,0,"(1069, 411)","(1067, 437)","(1068, 463)","(1071, 489)","(1078, 515)","(1091, 540)","(1109, 562)","(1132, 578)","(1158, 584)","(1184, 581)","(1207, 567)","(1226, 548)","(1240, 524)","(1248, 499)","(1252, 473)","(1255, 447)","(1255, 421)","(1086, 402)","(1098, 394)","(1114, 392)","(1130, 396)","(1146, 405)","(1176, 405)","(1193, 398)","(1211, 395)","(1228, 399)","(1239, 410)","(1161, 424)","(1160, 442)","(1159, 460)","(1158, 479)","(1139, 488)","(1148, 492)","(1158, 496)","(1168, 493)","(1177, 489)","(1105, 421)","(1115, 416)","(1128, 417)","(1138, 425)","(1126, 427)","(1114, 427)","(1185, 427)","(1197, 420)","(1209, 421)","(1219, 427)","(1210, 431)","(1197, 431)","(1125, 518)","(1136, 514)","(1149, 513)","(1158, 515)","(1167, 513)","(1180, 515)","(1193, 520)","(1181, 532)","(1168, 538)","(1158, 539)","(1149, 537)","(1137, 531)","(1131, 519)","(1149, 521)","(1158, 522)","(1167, 522)","(1187, 521)","(1168, 525)","(1159, 526)","(1149, 525)",0.3,0.9,37.0,0.36,0.06,0.36,0.02,-11.0,0.08,0.34,17.8,34.7,62.3,9.4,17.75,41.05,11.82,25.29,41.82
2533,-786432,67,-56,-1,-1,0,"(1083, 415)","(1083, 440)","(1085, 464)","(1088, 488)","(1095, 512)","(1107, 534)","(1122, 554)","(1142, 569)","(1166, 574)","(1191, 571)","(1212, 557)","(1230, 538)","(1244, 517)","(1252, 493)","(1256, 467)","(1259, 442)","(1259, 417)","(1094, 403)","(1104, 392)","(1120, 390)","(1137, 393)","(1152, 400)","(1179, 400)","(1195, 393)","(1213, 390)","(1230, 394)","(1242, 405)","(1165, 418)","(1164, 435)","(1164, 452)","(1163, 470)","(1145, 479)","(1154, 484)","(1163, 487)","(1173, 484)","(1183, 480)","(1112, 418)","(1121, 413)","(1133, 413)","(1144, 420)","(1132, 423)","(1121, 423)","(1190, 421)","(1200, 414)","(1212, 415)","(1222, 420)","(1213, 425)","(1201, 424)","(1131, 510)","(1142, 505)","(1155, 503)","(1163, 505)","(1173, 503)","(1186, 506)","(1199, 511)","(1187, 525)","(1174, 531)","(1164, 532)","(1154, 531)","(1142, 524)","(1137, 511)","(1154, 511)","(1163, 512)","(1173, 511)","(1193, 512)","(1173, 518)","(1164, 519)","(1154, 517)",0.31,0.91,37.0,0.36,0.01,0.38,0.03,-10.5,0.1,0.33,15.5,30.5,56.6,9.05,19.1,42.05,8.88,22.58,37.0
2566,-786432,67,-56,-1,-1,0,"(1088, 405)","(1087, 430)","(1089, 454)","(1092, 478)","(1100, 502)","(1111, 524)","(1127, 544)","(1147, 559)","(1170, 564)","(1194, 561)","(1216, 547)","(1233, 528)","(1246, 507)","(1254, 483)","(1257, 458)","(1260, 434)","(1259, 410)","(1100, 394)","(1111, 384)","(1126, 382)","(1142, 386)","(1157, 393)","(1184, 393)","(1200, 386)","(1217, 383)","(1234, 386)","(1245, 397)","(1170, 410)","(1170, 427)","(1169, 444)","(1168, 462)","(1151, 471)","(1159, 475)","(1169, 478)","(1178, 475)","(1187, 471)","(1118, 410)","(1127, 405)","(1139, 405)","(1149, 413)","(1138, 415)","(1126, 415)","(1194, 414)","(1205, 407)","(1217, 407)","(1226, 413)","(1217, 417)","(1205, 417)","(1137, 501)","(1148, 496)","(1160, 494)","(1169, 496)","(1178, 494)","(1191, 497)","(1203, 502)","(1191, 516)","(1179, 522)","(1169, 523)","(1160, 521)","(1148, 515)","(1143, 502)","(1160, 502)","(1169, 503)","(1178, 502)","(1197, 503)","(1179, 509)","(1170, 510)","(1161, 508)",0.31,0.9,36.0,0.36,0.02,0.38,0.03,-10.0,0.09,0.33,17.0,33.5,59.2,9.75,19.85,42.15,9.82,22.17,38.7
2600,-786432,67,-56,-1,-1,0,"(1093, 399)","(1092, 422)","(1093, 446)","(1097, 470)","(1104, 494)","(1115, 516)","(1131, 535)","(1150, 550)","(1173, 555)","(1197, 552)","(1217, 539)","(1234, 521)","(1246, 500)","(1255, 477)","(1259, 453)","(1262, 429)","(1262, 406)","(1107, 387)","(1117, 378)","(1132, 375)","(1148, 378)","(1163, 386)","(1189, 386)","(1204, 379)","(1220, 377)","(1236, 380)","(1247, 392)","(1175, 402)","(1174, 419)","(1173, 435)","(1172, 452)","(1155, 461)","(1163, 465)","(1173, 469)","(1182, 466)","(1191, 462)","(1124, 403)","(1133, 398)","(1145, 398)","(1154, 405)","(1144, 407)","(1132, 407)","(1198, 406)","(1208, 400)","(1219, 400)","(1228, 406)","(1220, 410)","(1208, 409)","(1141, 491)","(1152, 486)","(1164, 484)","(1172, 487)","(1181, 484)","(1194, 487)","(1206, 493)","(1194, 506)","(1182, 511)","(1173, 512)","(1163, 511)","(1152, 505)","(1146, 492)","(1163, 492)","(1172, 493)","(1181, 492)","(1200, 493)","(1182, 499)","(1173, 500)","(1164, 498)",0.31,0.91,36.0,0.35,0.04,0.38,0.03,-9.5,0.09,0.32,14.4,30.3,55.8,10.0,20.25,43.8,10.0,22.47,38.58
2633,-589824,67,-56,-1,-1,0,"(1103, 393)","(1102, 416)","(1103, 439)","(1105, 462)","(1111, 485)","(1122, 506)","(1136, 525)","(1155, 540)","(1177, 544)","(1201, 541)","(1222, 528)","(1240, 511)","(1253, 490)","(1261, 467)","(1266, 443)","(1268, 420)","(1268, 396)","(1113, 381)","(1122, 371)","(1137, 369)","(1153, 372)","(1167, 379)","(1193, 379)","(1209, 372)","(1226, 369)","(1242, 373)","(1253, 384)","(1180, 395)","(1179, 411)","(1178, 427)","(1177, 443)","(1160, 452)","(1168, 456)","(1177, 460)","(1187, 457)","(1195, 453)","(1130, 396)","(1139, 391)","(1150, 392)","(1160, 398)","(1149, 401)","(1138, 400)","(1203, 399)","(1213, 393)","(1225, 393)","(1234, 399)","(1225, 403)","(1213, 402)","(1146, 482)","(1157, 477)","(1168, 475)","(1177, 478)","(1185, 475)","(1198, 478)","(1210, 484)","(1198, 496)","(1186, 501)","(1176, 502)","(1167, 501)","(1156, 494)","(1151, 483)","(1168, 482)","(1176, 484)","(1185, 483)","(1204, 484)","(1185, 489)","(1176, 490)","(1168, 489)",0.3,0.91,36.0,0.37,0.02,0.38,0.03,-10.0,0.09,0.32,15.5,31.4,56.9,9.65,20.0,42.9,8.23,19.52,33.88
2666,-917504,67,-56,-1,-1,0,"(1096, 385)","(1095, 408)","(1095, 431)","(1099, 454)","(1107, 477)","(1119, 498)","(1135, 517)","(1155, 532)","(1178, 537)","(1201, 534)","(1220, 522)","(1235, 505)","(1247, 485)","(1255, 463)","(1259, 440)","(1261, 418)","(1261, 396)","(1117, 374)","(1127, 365)","(1142, 363)","(1157, 366)","(1172, 373)","(1197, 373)","(1211, 366)","(1226, 365)","(1241, 368)","(1250, 379)","(1184, 390)","(1183, 405)","(1182, 420)","(1181, 435)","(1164, 446)","(1172, 449)","(1181, 452)","(1190, 450)","(1198, 447)","(1134, 390)","(1143, 385)","(1153, 386)","(1162, 392)","(1152, 394)","(1142, 394)","(1204, 394)","(1214, 388)","(1225, 388)","(1233, 394)","(1225, 397)","(1214, 396)","(1149, 474)","(1160, 470)","(1172, 468)","(1180, 470)","(1189, 468)","(1201, 471)","(1212, 477)","(1201, 488)","(1190, 494)","(1181, 494)","(1172, 493)","(1160, 487)","(1154, 475)","(1172, 475)","(1180, 476)","(1189, 476)","(1207, 477)","(1190, 482)","(1181, 483)","(1172, 481)",0.29,0.88,36.0,0.34,0.04,0.38,0.03,-9.0,0.08,0.3,13.2,28.4,53.6,8.8,19.3,41.95,10.11,22.7,39.88
2700,-851968,67,-56,-1,-1,0,"(1111, 384)","(1111, 406)","(1112, 429)","(1115, 451)","(1120, 473)","(1130, 494)","(1144, 512)","(1162, 526)","(1184, 530)","(1207, 528)","(1227, 516)","(1244, 499)","(1256, 480)","(1264, 458)","(1268, 435)","(1272, 412)","(1273, 389)","(1122, 374)","(1132, 363)","(1146, 360)","(1161, 363)","(1176, 369)","(1200, 369)","(1215, 363)","(1231, 361)","(1247, 365)","(1257, 377)","(1187, 384)","(1186, 399)","(1185, 414)","(1184, 430)","(1169, 439)","(1176, 443)","(1184, 446)","(1194, 444)","(1202, 441)","(1139, 387)","(1148, 382)","(1159, 382)","(1168, 388)","(1158, 391)","(1147, 390)","(1209, 389)","(1219, 384)","(1230, 384)","(1239, 390)","(1230, 393)","(1219, 392)","(1154, 469)","(1164, 464)","(1176, 462)","(1184, 464)","(1193, 462)","(1205, 465)","(1217, 471)","(1205, 483)","(1193, 488)","(1184, 489)","(1175, 487)","(1164, 481)","(1159, 469)","(1175, 469)","(1184, 470)","(1192, 469)","(1211, 471)","(1193, 477)","(1184, 478)","(1175, 476)",0.28,0.91,36.0,0.36,0.02,0.38,0.04,-9.0,0.09,0.31,13.2,29.0,52.6,8.75,20.1,43.0,6.94,17.58,31.11
2733,-589824,67,-56,-1,-1,0,"(1117, 384)","(1117, 406)","(1119, 428)","(1121, 450)","(1127, 471)","(1136, 491)","(1150, 508)","(1167, 522)","(1188, 526)","(1210, 523)","(1231, 511)","(1248, 495)","(1261, 476)","(1270, 455)","(1274, 433)","(1278, 410)","(1279, 387)","(1129, 373)","(1138, 363)","(1152, 359)","(1167, 362)","(1181, 368)","(1205, 368)","(1220, 362)","(1236, 360)","(1251, 365)","(1261, 376)","(1192, 383)","(1191, 398)","(1190, 412)","(1189, 428)","(1173, 437)","(1180, 441)","(1188, 444)","(1198, 441)","(1206, 438)","(1145, 385)","(1153, 381)","(1164, 381)","(1173, 387)","(1163, 389)","(1153, 389)","(1214, 388)","(1223, 383)","(1234, 383)","(1242, 388)","(1233, 391)","(1223, 391)","(1158, 466)","(1169, 461)","(1180, 459)","(1188, 461)","(1197, 459)","(1209, 462)","(1220, 467)","(1208, 479)","(1196, 484)","(1187, 484)","(1178, 483)","(1168, 478)","(1163, 466)","(1180, 465)","(1188, 466)","(1196, 466)","(1215, 468)","(1196, 473)","(1188, 474)","(1179, 472)",0.28,0.88,36.0,0.34,0.02,0.38,0.04,-8.0,0.08,0.31,12.7,27.5,50.0,9.75,20.35,44.35,6.7,17.94,30.82
2766,-589824,67,-56,-1,-1,0,"(1122, 383)","(1121, 404)","(1123, 425)","(1125, 447)","(1130, 468)","(1139, 487)","(1153, 504)","(1170, 517)","(1190, 522)","(1212, 519)","(1232, 508)","(1250, 493)","(1262, 475)","(1271, 454)","(1275, 432)","(1279, 410)","(1281, 388)","(1133, 373)","(1142, 363)","(1156, 360)","(1170, 362)","(1184, 369)","(1207, 369)","(1222, 363)","(1238, 361)","(1253, 366)","(1263, 377)","(1194, 383)","(1193, 398)","(1192, 412)","(1191, 427)","(1176, 435)","(1183, 439)","(1191, 443)","(1200, 440)","(1209, 437)","(1149, 385)","(1157, 381)","(1167, 381)","(1176, 387)","(1166, 389)","(1156, 389)","(1216, 388)","(1226, 383)","(1236, 383)","(1244, 389)","(1236, 391)","(1225, 391)","(1161, 462)","(1172, 458)","(1183, 456)","(1191, 459)","(1199, 457)","(1211, 460)","(1223, 465)","(1211, 476)","(1199, 481)","(1190, 481)","(1181, 480)","(1171, 474)","(1166, 463)","(1182, 463)","(1191, 464)","(1199, 463)","(1218, 465)","(1199, 470)","(1190, 471)","(1182, 469)",0.28,0.9,36.0,0.34,0.03,0.38,0.03,-8.0,0.09,0.31,12.2,26.7,49.0,9.45,19.5,42.45,7.41,17.88,30.58
2800,-589824,67,-56,-1,-1,0,"(1126, 382)","(1125, 403)","(1126, 423)","(1128, 444)","(1133, 464)","(1142, 484)","(1155, 500)","(1172, 513)","(1192, 517)","(1213, 515)","(1232, 505)","(1247, 490)","(1258, 472)","(1266, 453)","(1270, 432)","(1272, 411)","(1273, 390)","(1137, 371)","(1146, 361)","(1160, 359)","(1174, 361)","(1187, 368)","(1211, 369)","(1225, 363)","(1239, 361)","(1253, 366)","(1262, 376)","(1198, 384)","(1197, 398)","(1196, 412)","(1195, 426)","(1179, 435)","(1186, 438)","(1195, 441)","(1203, 439)","(1211, 436)","(1152, 384)","(1161, 380)","(1170, 381)","(1179, 387)","(1169, 388)","(1160, 388)","(1218, 388)","(1228, 383)","(1237, 384)","(1245, 389)","(1237, 392)","(1227, 391)","(1164, 461)","(1175, 456)","(1186, 455)","(1194, 457)","(1202, 456)","(1213, 458)","(1224, 463)","(1213, 474)","(1202, 478)","(1193, 479)","(1185, 477)","(1174, 472)","(1169, 461)","(1185, 461)","(1193, 463)","(1202, 462)","(1219, 464)","(1202, 468)","(1194, 469)","(1185, 467)",0.29,0.86,36.0,0.36,0.03,0.4,0.03,-8.5,0.08,0.31,15.4,30.7,55.1,9.05,19.2,41.3,8.05,19.76,34.05
2833,-393216,67,-56,-1,-1,0,"(1129, 382)","(1128, 402)","(1129, 423)","(1131, 443)","(1136, 463)","(1145, 482)","(1158, 498)","(1175, 511)","(1195, 515)","(1215, 513)","(1233, 502)","(1248, 488)","(1258, 470)","(1265, 451)","(1269, 431)","(1271, 410)","(1272, 390)","(1140, 372)","(1149, 363)","(1163, 360)","(1177, 363)","(1189, 370)","(1213, 370)","(1226, 365)","(1240, 363)","(1254, 367)","(1263, 377)","(1200, 385)","(1199, 399)","(1199, 412)","(1198, 426)","(1182, 435)","(1189, 438)","(1197, 441)","(1206, 439)","(1213, 436)","(1155, 385)","(1163, 381)","(1173, 381)","(1182, 387)","(1172, 389)","(1162, 389)","(1220, 389)","(1229, 384)","(1239, 384)","(1247, 389)","(1239, 392)","(1229, 392)","(1168, 460)","(1178, 456)","(1189, 454)","(1196, 456)","(1204, 455)","(1215, 457)","(1226, 463)","(1215, 473)","(1205, 477)","(1196, 478)","(1188, 477)","(1177, 471)","(1173, 461)","(1188, 461)","(1196, 462)","(1204, 461)","(1221, 463)","(1205, 467)","(1196, 468)","(1189, 467)",0.29,0.89,36.0,0.37,0.04,0.4,0.03,-8.0,0.09,0.31,14.7,29.4,52.8,8.75,19.3,41.15,9.35,20.7,36.17
2866,-393216,67,-56,-1,-1,0,"(1130, 383)","(1129, 404)","(1129, 424)","(1131, 444)","(1137, 464)","(1146, 483)","(1160, 499)","(1177, 512)","(1196, 516)","(1216, 513)","(1234, 503)","(1248, 488)","(1258, 471)","(1265, 452)","(1269, 432)","(1271, 412)","(1272, 392)","(1143, 373)","(1152, 364)","(1165, 362)","(1179, 365)","(1191, 371)","(1215, 372)","(1228, 366)","(1241, 365)","(1255, 368)","(1263, 378)","(1203, 386)","(1202, 399)","(1201, 413)","(1200, 427)","(1184, 435)","(1191, 438)","(1199, 441)","(1208, 439)","(1215, 436)","(1158, 386)","(1166, 382)","(1175, 383)","(1184, 388)","(1174, 390)","(1165, 390)","(1221, 390)","(1230, 385)","(1240, 385)","(1247, 390)","(1240, 393)","(1230, 392)","(1169, 460)","(1180, 456)","(1191, 454)","(1198, 456)","(1206, 455)","(1217, 457)","(1227, 463)","(1217, 474)","(1207, 478)","(1198, 479)","(1190, 478)","(1179, 472)","(1174, 461)","(1190, 460)","(1198, 462)","(1206, 461)","(1222, 463)","(1207, 468)","(1199, 469)","(1190, 467)",0.28,0.86,37.0,0.36,0.04,0.4,0.03,-8.0,0.08,0.31,12.9,28.7,52.1,9.45,19.8,42.0,10.41,22.11,37.88
2900,-851968,67,-56,-1,-1,0,"(1132, 384)","(1131, 404)","(1131, 424)","(1133, 444)","(1138, 464)","(1148, 482)","(1162, 498)","(1178, 510)","(1198, 515)","(1217, 512)","(1234, 502)","(1248, 487)","(1258, 470)","(1265, 452)","(1268, 432)","(1271, 413)","(1271, 394)","(1145, 374)","(1154, 366)","(1168, 364)","(1181, 367)","(1194, 374)","(1216, 374)","(1229, 369)","(1243, 367)","(1256, 370)","(1263, 380)","(1204, 389)","(1204, 402)","(1203, 415)","(1202, 428)","(1186, 436)","(1193, 440)","(1201, 443)","(1209, 441)","(1217, 438)","(1160, 388)","(1168, 384)","(1177, 384)","(1186, 390)","(1177, 392)","(1167, 391)","(1223, 392)","(1232, 387)","(1241, 388)","(1248, 392)","(1241, 395)","(1232, 395)","(1172, 460)","(1182, 456)","(1193, 455)","(1200, 457)","(1208, 456)","(1219, 458)","(1229, 464)","(1219, 475)","(1208, 479)","(1200, 480)","(1192, 479)","(1181, 473)","(1177, 461)","(1193, 461)","(1200, 463)","(1208, 462)","(1224, 464)","(1208, 469)","(1200, 470)","(1193, 468)",0.3,0.89,37.0,0.36,0.06,0.41,0.03,-8.0,0.09,0.3,13.8,30.0,55.4,9.3,20.55,41.85,10.17,23.17,39.35
2933,-720896,67,-56,-1,-1,0,"(1138, 389)","(1137, 409)","(1138, 428)","(1140, 448)","(1145, 467)","(1154, 485)","(1166, 501)","(1182, 514)","(1200, 518)","(1220, 516)","(1238, 506)","(1253, 492)","(1265, 475)","(1272, 456)","(1277, 436)","(1279, 416)","(1280, 396)","(1149, 379)","(1157, 371)","(1170, 369)","(1183, 371)","(1195, 377)","(1217, 378)","(1230, 372)","(1244, 371)","(1258, 375)","(1266, 385)","(1206, 391)","(1205, 405)","(1204, 418)","(1203, 432)","(1187, 439)","(1194, 443)","(1202, 446)","(1211, 444)","(1219, 441)","(1163, 391)","(1171, 387)","(1180, 387)","(1188, 393)","(1179, 395)","(1170, 394)","(1225, 395)","(1234, 390)","(1243, 390)","(1251, 395)","(1243, 398)","(1234, 398)","(1174, 463)","(1184, 460)","(1194, 458)","(1202, 461)","(1209, 459)","(1220, 462)","(1231, 467)","(1220, 478)","(1209, 483)","(1201, 483)","(1192, 482)","(1183, 476)","(1179, 465)","(1194, 464)","(1201, 466)","(1209, 465)","(1226, 468)","(1209, 472)","(1201, 473)","(1193, 471)",0.3,0.91,37.0,0.35,0.04,0.4,0.04,-8.0,0.09,0.32,14.3,30.8,55.4,8.95,19.75,41.75,8.76,21.11,35.29
2966,7340032,67,-56,-1,-1,0,"(1142, 392)","(1141, 411)","(1142, 430)","(1143, 449)","(1148, 468)","(1157, 486)","(1168, 503)","(1183, 516)","(1202, 520)","(1221, 518)","(1239, 508)","(1254, 494)","(1265, 477)","(1273, 458)","(1277, 439)","(1280, 419)","(1281, 399)","(1151, 383)","(1160, 375)","(1172, 373)","(1185, 376)","(1197, 383)","(1218, 383)","(1231, 378)","(1245, 377)","(1259, 380)","(1268, 389)","(1207, 396)","(1206, 410)","(1205, 423)","(1204, 437)","(1189, 443)","(1196, 447)","(1203, 450)","(1212, 448)","(1219, 445)","(1165, 395)","(1172, 391)","(1182, 392)","(1190, 398)","(1181, 399)","(1172, 399)","(1226, 400)","(1235, 395)","(1244, 395)","(1252, 400)","(1244, 403)","(1235, 403)","(1176, 466)","(1185, 463)","(1195, 462)","(1203, 464)","(1210, 463)","(1221, 465)","(1232, 470)","(1221, 481)","(1210, 486)","(1202, 486)","(1194, 485)","(1184, 479)","(1180, 468)","(1195, 468)","(1202, 469)","(1210, 469)","(1227, 471)","(1210, 476)","(1202, 477)","(1195, 475)",0.3,0.93,37.0,0.36,0.05,0.4,0.04,-8.0,0.08,0.33,14.3,30.5,56.5,9.15,20.0,40.95,7.76,20.64,35.0
3000,-2162688,67,-56,-1,-1,0,"(1145, 396)","(1143, 415)","(1144, 433)","(1146, 452)","(1151, 471)","(1159, 489)","(1170, 506)","(1185, 519)","(1204, 523)","(1223, 521)","(1240, 511)","(1254, 497)","(1265, 480)","(1273, 462)","(1277, 442)","(1279, 423)","(1279, 404)","(1154, 387)","(1162, 380)","(1175, 379)","(1187, 382)","(1198, 389)","(1220, 389)","(1233, 384)","(1246, 382)","(1259, 385)","(1267, 394)","(1208, 402)","(1208, 415)","(1207, 429)","(1206, 442)","(1191, 448)","(1198, 452)","(1205, 455)","(1213, 453)","(1221, 450)","(1167, 400)","(1175, 397)","(1184, 397)","(1192, 403)","(1183, 405)","(1174, 404)","(1227, 405)","(1235, 400)","(1245, 401)","(1252, 405)","(1245, 408)","(1235, 408)","(1178, 471)","(1187, 468)","(1197, 467)","(1204, 469)","(1212, 468)","(1223, 470)","(1233, 474)","(1222, 486)","(1212, 490)","(1204, 491)","(1196, 489)","(1187, 483)","(1183, 472)","(1197, 473)","(1204, 474)","(1212, 474)","(1228, 475)","(1212, 480)","(1204, 481)","(1197, 479)",0.3,0.92,37.0,0.37,0.07,0.41,0.04,-8.0,0.09,0.33,15.9,31.0,57.7,7.85,18.75,39.55,7.76,21.23,35.94
3033,196608,67,-56,-1,-1,0,"(1144, 402)","(1143, 421)","(1144, 440)","(1146, 459)","(1151, 478)","(1160, 496)","(1172, 512)","(1187, 524)","(1205, 529)","(1224, 527)","(1241, 517)","(1255, 503)","(1266, 486)","(1273, 468)","(1277, 448)","(1280, 429)","(1281, 410)","(1156, 394)","(1164, 387)","(1177, 386)","(1189, 389)","(1200, 395)","(1221, 396)","(1234, 391)","(1247, 389)","(1260, 393)","(1269, 401)","(1210, 408)","(1209, 421)","(1209, 434)","(1208, 447)","(1193, 453)","(1199, 457)","(1207, 460)","(1215, 458)","(1222, 455)","(1169, 406)","(1177, 402)","(1186, 403)","(1193, 409)","(1185, 410)","(1176, 409)","(1228, 411)","(1237, 406)","(1246, 406)","(1253, 411)","(1246, 414)","(1237, 413)","(1180, 475)","(1189, 472)","(1199, 471)","(1206, 473)","(1214, 472)","(1225, 474)","(1235, 479)","(1225, 491)","(1214, 496)","(1206, 496)","(1198, 494)","(1188, 488)","(1184, 476)","(1199, 477)","(1206, 478)","(1214, 478)","(1230, 480)","(1214, 486)","(1206, 486)","(1198, 485)",0.3,0.94,37.0,0.35,0.06,0.4,0.04,-8.0,0.08,0.32,13.1,28.9,53.4,8.3,18.55,39.5,9.11,21.05,35.58
3066,851968,67,-56,-1,-1,0,"(1147, 408)","(1146, 426)","(1146, 445)","(1148, 463)","(1153, 482)","(1162, 500)","(1174, 515)","(1189, 528)","(1206, 532)","(1225, 531)","(1242, 521)","(1255, 507)","(1266, 490)","(1273, 472)","(1277, 453)","(1279, 435)","(1280, 416)","(1158, 400)","(1167, 393)","(1179, 392)","(1191, 395)","(1202, 401)","(1223, 401)","(1235, 396)","(1248, 395)","(1260, 398)","(1268, 406)","(1212, 414)","(1211, 426)","(1210, 439)","(1210, 453)","(1195, 458)","(1202, 462)","(1209, 465)","(1217, 463)","(1224, 460)","(1172, 412)","(1179, 408)","(1188, 409)","(1195, 414)","(1187, 416)","(1178, 415)","(1229, 417)","(1238, 412)","(1247, 413)","(1254, 417)","(1247, 420)","(1238, 419)","(1182, 480)","(1191, 477)","(1201, 476)","(1208, 478)","(1215, 477)","(1226, 479)","(1235, 484)","(1225, 495)","(1215, 500)","(1207, 500)","(1200, 498)","(1190, 492)","(1187, 481)","(1201, 482)","(1208, 483)","(1215, 483)","(1231, 485)","(1215, 490)","(1208, 491)","(1200, 489)",0.28,0.91,37.0,0.36,0.06,0.39,0.04,-8.0,0.09,0.33,14.3,29.4,54.7,7.5,17.9,39.25,8.7,21.17,36.23
3100,2031616,67,-56,-1,-1,0,"(1150, 413)","(1148, 432)","(1148, 450)","(1150, 468)","(1155, 486)","(1164, 504)","(1176, 519)","(1191, 531)","(1208, 536)","(1227, 534)","(1243, 525)","(1257, 511)","(1268, 495)","(1275, 477)","(1278, 458)","(1280, 440)","(1281, 421)","(1161, 404)","(1169, 398)","(1181, 397)","(1193, 400)","(1204, 406)","(1225, 407)","(1237, 402)","(1249, 400)","(1262, 403)","(1270, 411)","(1214, 420)","(1213, 432)","(1212, 444)","(1212, 457)","(1197, 464)","(1204, 467)","(1211, 470)","(1219, 468)","(1226, 466)","(1174, 418)","(1181, 414)","(1190, 415)","(1197, 420)","(1189, 422)","(1180, 421)","(1231, 422)","(1239, 418)","(1248, 418)","(1255, 423)","(1248, 425)","(1240, 425)","(1185, 486)","(1194, 482)","(1204, 481)","(1210, 484)","(1217, 482)","(1227, 485)","(1237, 489)","(1227, 500)","(1217, 504)","(1210, 505)","(1202, 503)","(1193, 497)","(1190, 487)","(1203, 487)","(1210, 488)","(1217, 488)","(1233, 490)","(1217, 495)","(1210, 495)","(1203, 494)",0.29,0.91,37.0,0.35,0.06,0.39,0.04,-7.5,0.09,0.31,14.5,30.3,56.6,8.0,17.35,37.35,9.0,21.29,36.11
3133,3538944,67,-56,-1,-1,0,"(1148, 418)","(1147, 437)","(1148, 455)","(1150, 474)","(1155, 492)","(1164, 509)","(1177, 524)","(1192, 535)","(1210, 539)","(1228, 538)","(1244, 529)","(1257, 516)","(1266, 500)","(1273, 482)","(1277, 464)","(1280, 446)","(1281, 428)","(1162, 410)","(1171, 403)","(1183, 403)","(1195, 406)","(1206, 412)","(1226, 412)","(1238, 407)","(1250, 406)","(1262, 409)","(1270, 417)","(1216, 424)","(1215, 436)","(1215, 449)","(1214, 462)","(1199, 468)","(1206, 472)","(1213, 475)","(1221, 473)","(1227, 470)","(1175, 422)","(1182, 418)","(1191, 419)","(1198, 425)","(1190, 427)","(1181, 426)","(1232, 427)","(1240, 422)","(1249, 423)","(1256, 427)","(1249, 430)","(1240, 430)","(1187, 490)","(1196, 487)","(1206, 486)","(1212, 488)","(1219, 487)","(1228, 489)","(1237, 494)","(1228, 503)","(1219, 507)","(1211, 507)","(1204, 506)","(1195, 501)","(1191, 491)","(1205, 492)","(1212, 493)","(1219, 493)","(1233, 494)","(1219, 497)","(1212, 498)","(1205, 496)",0.31,0.86,37.0,0.35,0.07,0.37,0.03,-8.5,0.08,0.33,12.8,28.5,53.0,6.35,15.6,35.9,8.94,21.76,37.23
3166,4718592,67,-56,-1,-1,0,"(1151, 423)","(1149, 442)","(1149, 460)","(1151, 478)","(1157, 496)","(1166, 513)","(1179, 527)","(1195, 538)","(1212, 542)","(1230, 540)","(1246, 531)","(1259, 518)","(1268, 503)","(1275, 485)","(1278, 467)","(1280, 449)","(1281, 431)","(1164, 415)","(1173, 408)","(1184, 407)","(1196, 411)","(1207, 417)","(1227, 417)","(1238, 412)","(1251, 410)","(1263, 413)","(1271, 421)","(1217, 429)","(1217, 441)","(1216, 454)","(1216, 466)","(1201, 473)","(1208, 476)","(1215, 479)","(1222, 477)","(1229, 474)","(1177, 427)","(1184, 424)","(1193, 424)","(1200, 430)","(1192, 432)","(1183, 431)","(1233, 432)","(1242, 427)","(1250, 427)","(1257, 432)","(1250, 435)","(1242, 435)","(1190, 495)","(1199, 492)","(1208, 491)","(1214, 493)","(1221, 491)","(1229, 494)","(1238, 498)","(1229, 507)","(1221, 511)","(1214, 511)","(1207, 510)","(1198, 505)","(1194, 496)","(1207, 497)","(1214, 498)","(1220, 497)","(1234, 499)","(1221, 501)","(1214, 502)","(1208, 500)",0.33,0.84,37.0,0.36,0.06,0.36,0.03,-8.0,0.09,0.32,12.3,28.6,52.7,5.65,14.4,33.9,9.17,22.0,37.0
3200,2949120,67,-56,-1,-1,0,"(1151, 426)","(1150, 444)","(1149, 462)","(1151, 480)","(1157, 499)","(1167, 516)","(1180, 530)","(1195, 542)","(1213, 546)","(1230, 544)","(1246, 535)","(1259, 521)","(1268, 505)","(1275, 488)","(1278, 470)","(1280, 452)","(1280, 435)","(1164, 417)","(1173, 411)","(1185, 411)","(1197, 414)","(1208, 420)","(1228, 421)","(1239, 416)","(1252, 414)","(1263, 416)","(1271, 424)","(1218, 433)","(1217, 445)","(1217, 458)","(1216, 470)","(1202, 477)","(1209, 481)","(1216, 483)","(1223, 482)","(1229, 479)","(1177, 430)","(1185, 427)","(1193, 428)","(1201, 434)","(1192, 435)","(1184, 435)","(1234, 436)","(1242, 431)","(1251, 431)","(1258, 436)","(1251, 439)","(1242, 438)","(1190, 499)","(1199, 496)","(1209, 495)","(1215, 497)","(1221, 496)","(1230, 498)","(1239, 502)","(1230, 511)","(1221, 515)","(1214, 515)","(1207, 514)","(1199, 509)","(1195, 500)","(1208, 501)","(1215, 502)","(1221, 502)","(1235, 503)","(1221, 505)","(1215, 506)","(1208, 504)",0.31,0.85,37.0,0.37,0.06,0.37,0.03,-8.0,0.08,0.32,14.8,29.4,53.6,6.25,14.35,35.1,9.52,21.94,36.35
3233,65536,67,-56,-1,-1,0,"(1154, 431)","(1152, 449)","(1153, 467)","(1154, 485)","(1160, 503)","(1169, 520)","(1181, 534)","(1197, 545)","(1214, 549)","(1231, 547)","(1247, 538)","(1260, 525)","(1269, 509)","(1275, 491)","(1278, 474)","(1280, 456)","(1280, 438)","(1166, 422)","(1174, 415)","(1185, 414)","(1197, 417)","(1208, 423)","(1228, 423)","(1239, 418)","(1252, 417)","(1264, 420)","(1271, 428)","(1218, 436)","(1218, 448)","(1217, 460)","(1217, 473)","(1203, 480)","(1209, 483)","(1216, 486)","(1223, 484)","(1230, 481)","(1179, 435)","(1186, 432)","(1194, 432)","(1202, 437)","(1194, 439)","(1185, 439)","(1234, 439)","(1242, 435)","(1251, 435)","(1257, 439)","(1251, 442)","(1242, 442)","(1192, 503)","(1200, 499)","(1209, 498)","(1215, 500)","(1222, 498)","(1230, 500)","(1239, 505)","(1231, 513)","(1222, 517)","(1215, 518)","(1208, 517)","(1200, 512)","(1196, 503)","(1209, 504)","(1215, 505)","(1221, 504)","(1235, 505)","(1222, 508)","(1215, 509)","(1209, 508)",0.3,0.87,37.0,0.36,0.06,0.37,0.03,-7.0,0.09,0.32,14.8,30.2,55.7,5.3,14.5,34.55,9.11,22.23,37.05
3266,-589824,67,-56,-1,-1,0,"(1150, 433)","(1149, 452)","(1149, 470)","(1151, 488)","(1156, 506)","(1166, 523)","(1179, 537)","(1195, 547)","(1212, 551)","(1230, 549)","(1246, 540)","(1258, 528)","(1268, 512)","(1274, 495)","(1277, 477)","(1280, 459)","(1280, 442)","(1164, 426)","(1173, 419)","(1185, 418)","(1197, 421)","(1208, 426)","(1227, 426)","(1239, 421)","(1251, 420)","(1263, 423)","(1271, 431)","(1218, 438)","(1217, 450)","(1217, 462)","(1217, 475)","(1202, 482)","(1209, 485)","(1216, 488)","(1223, 486)","(1229, 483)","(1177, 437)","(1185, 434)","(1193, 434)","(1201, 439)","(1192, 441)","(1184, 441)","(1234, 441)","(1242, 436)","(1250, 437)","(1257, 441)","(1250, 444)","(1242, 443)","(1190, 505)","(1199, 502)","(1208, 500)","(1215, 502)","(1221, 500)","(1229, 503)","(1238, 507)","(1230, 515)","(1221, 518)","(1214, 519)","(1208, 518)","(1199, 514)","(1194, 506)","(1208, 506)","(1214, 507)","(1221, 506)","(1234, 507)","(1221, 509)","(1215, 510)","(1208, 509)",0.3,0.83,37.0,0.36,0.05,0.36,0.02,-7.5,0.08,0.32,13.1,27.9,53.4,6.05,15.25,36.45,9.47,22.35,37.7
3300,-458752,67,-56,-1,-1,0,"(1150, 435)","(1149, 454)","(1150, 472)","(1152, 490)","(1158, 508)","(1168, 524)","(1181, 538)","(1196, 549)","(1214, 553)","(1231, 551)","(1246, 542)","(1258, 529)","(1267, 513)","(1273, 496)","(1277, 478)","(1279, 461)","(1280, 443)","(1164, 427)","(1173, 420)","(1185, 420)","(1197, 422)","(1208, 428)","(1227, 428)","(1238, 423)","(1250, 421)","(1262, 424)","(1270, 432)","(1217, 440)","(1217, 452)","(1217, 465)","(1216, 477)","(1202, 484)","(1209, 487)","(1216, 490)","(1223, 488)","(1229, 485)","(1177, 439)","(1184, 435)","(1193, 435)","(1200, 441)","(1192, 443)","(1184, 442)","(1233, 442)","(1241, 438)","(1250, 438)","(1256, 442)","(1250, 445)","(1241, 445)","(1191, 507)","(1200, 503)","(1209, 502)","(1215, 504)","(1221, 502)","(1230, 504)","(1238, 509)","(1230, 517)","(1222, 520)","(1215, 520)","(1208, 520)","(1200, 515)","(1195, 507)","(1208, 508)","(1215, 509)","(1221, 508)","(1234, 509)","(1221, 511)","(1215, 512)","(1209, 510)",0.3,0.85,37.0,0.35,0.05,0.36,0.02,-7.5,0.09,0.32,13.8,28.7,51.8,6.65,15.15,37.6,9.88,23.41,37.47
3333,-524288,67,-56,-1,-1,0,"(1150, 434)","(1149, 453)","(1149, 471)","(1151, 489)","(1157, 507)","(1166, 524)","(1179, 539)","(1195, 550)","(1213, 554)","(1230, 552)","(1246, 543)","(1259, 529)","(1268, 514)","(1274, 496)","(1277, 478)","(1280, 460)","(1280, 443)","(1164, 427)","(1172, 421)","(1184, 420)","(1196, 422)","(1207, 428)","(1226, 429)","(1238, 423)","(1250, 422)","(1262, 425)","(1270, 433)","(1217, 440)","(1216, 453)","(1216, 465)","(1215, 478)","(1201, 484)","(1208, 488)","(1215, 490)","(1222, 488)","(1228, 485)","(1177, 439)","(1184, 435)","(1193, 436)","(1200, 441)","(1192, 443)","(1183, 442)","(1233, 443)","(1241, 438)","(1249, 439)","(1256, 443)","(1249, 446)","(1241, 446)","(1190, 507)","(1199, 504)","(1208, 503)","(1214, 505)","(1220, 503)","(1229, 505)","(1238, 509)","(1229, 517)","(1221, 521)","(1214, 522)","(1207, 521)","(1199, 516)","(1194, 508)","(1208, 508)","(1214, 509)","(1220, 509)","(1234, 509)","(1221, 512)","(1214, 513)","(1208, 512)",0.32,0.86,37.0,0.35,0.05,0.36,0.03,-8.0,0.08,0.33,12.5,28.8,52.5,5.7,14.3,34.5,8.64,21.82,35.88
3366,-1114112,67,-56,-1,-1,0,"(1156, 436)","(1155, 454)","(1157, 472)","(1159, 489)","(1165, 507)","(1173, 524)","(1183, 538)","(1197, 550)","(1214, 553)","(1232, 551)","(1248, 541)","(1262, 527)","(1272, 511)","(1279, 493)","(1282, 475)","(1285, 456)","(1285, 437)","(1164, 428)","(1172, 421)","(1183, 420)","(1195, 422)","(1206, 428)","(1225, 428)","(1237, 423)","(1250, 421)","(1262, 423)","(1271, 431)","(1215, 439)","(1215, 452)","(1214, 464)","(1214, 477)","(1200, 483)","(1207, 487)","(1214, 489)","(1221, 487)","(1228, 484)","(1177, 439)","(1184, 435)","(1192, 435)","(1200, 440)","(1192, 442)","(1183, 442)","(1233, 441)","(1241, 436)","(1249, 437)","(1256, 441)","(1249, 444)","(1241, 443)","(1191, 506)","(1199, 503)","(1208, 502)","(1214, 503)","(1220, 502)","(1229, 504)","(1239, 507)","(1229, 517)","(1220, 521)","(1213, 521)","(1207, 520)","(1199, 516)","(1195, 507)","(1207, 507)","(1214, 508)","(1220, 507)","(1234, 508)","(1220, 511)","(1214, 512)","(1207, 511)",0.3,0.9,37.0,0.35,0.03,0.37,0.03,-7.5,0.1,0.33,12.8,28.6,52.5,5.45,13.8,33.7,6.52,18.58,32.82
3400,-720896,67,-56,-1,-1,0,"(1153, 431)","(1151, 449)","(1151, 467)","(1153, 485)","(1158, 503)","(1167, 520)","(1179, 535)","(1194, 547)","(1211, 551)","(1229, 549)","(1245, 540)","(1258, 526)","(1268, 510)","(1274, 492)","(1278, 474)","(1279, 456)","(1279, 438)","(1163, 423)","(1171, 416)","(1183, 415)","(1194, 418)","(1205, 425)","(1226, 425)","(1238, 420)","(1250, 418)","(1262, 421)","(1270, 429)","(1215, 439)","(1214, 451)","(1214, 463)","(1213, 476)","(1199, 482)","(1206, 486)","(1213, 488)","(1220, 486)","(1227, 483)","(1175, 437)","(1183, 433)","(1191, 434)","(1199, 439)","(1190, 440)","(1182, 440)","(1232, 440)","(1240, 436)","(1249, 436)","(1256, 440)","(1249, 443)","(1240, 443)","(1188, 503)","(1197, 500)","(1206, 499)","(1212, 501)","(1219, 499)","(1228, 501)","(1237, 505)","(1229, 515)","(1219, 520)","(1212, 521)","(1205, 520)","(1196, 514)","(1193, 504)","(1206, 505)","(1212, 506)","(1219, 505)","(1233, 506)","(1219, 511)","(1213, 512)","(1206, 510)",0.29,0.88,37.0,0.38,0.06,0.38,0.03,-7.0,0.09,0.33,16.0,32.1,57.9,6.9,15.25,36.65,8.52,21.05,36.05
3433,-1048576,67,-56,-1,-1,0,"(1151, 430)","(1149, 449)","(1150, 467)","(1151, 485)","(1157, 503)","(1165, 520)","(1178, 535)","(1193, 546)","(1210, 550)","(1228, 548)","(1244, 539)","(1257, 525)","(1267, 509)","(1273, 491)","(1277, 473)","(1278, 455)","(1279, 437)","(1161, 422)","(1169, 415)","(1180, 414)","(1193, 417)","(1204, 423)","(1224, 423)","(1236, 418)","(1249, 417)","(1261, 420)","(1269, 428)","(1214, 436)","(1213, 449)","(1213, 461)","(1212, 474)","(1198, 480)","(1205, 484)","(1212, 487)","(1219, 485)","(1226, 482)","(1174, 435)","(1181, 431)","(1190, 432)","(1197, 437)","(1189, 438)","(1180, 438)","(1231, 438)","(1239, 434)","(1247, 434)","(1254, 438)","(1247, 441)","(1239, 441)","(1187, 502)","(1196, 499)","(1205, 498)","(1211, 500)","(1218, 498)","(1227, 500)","(1236, 505)","(1228, 514)","(1218, 518)","(1211, 519)","(1204, 518)","(1195, 513)","(1191, 503)","(1204, 503)","(1211, 505)","(1218, 504)","(1232, 505)","(1218, 509)","(1211, 510)","(1205, 509)",0.3,0.88,37.0,0.35,0.06,0.38,0.03,-7.0,0.09,0.33,15.7,31.4,56.9,7.2,16.1,37.9,7.29,20.94,34.94
3466,-983040,67,-56,-1,-1,0,"(1148, 428)","(1146, 446)","(1147, 465)","(1149, 483)","(1155, 502)","(1164, 519)","(1176, 535)","(1191, 546)","(1209, 550)","(1227, 548)","(1243, 538)","(1256, 524)","(1266, 507)","(1272, 489)","(1275, 471)","(1277, 452)","(1277, 434)","(1158, 421)","(1166, 414)","(1178, 413)","(1191, 416)","(1202, 422)","(1222, 422)","(1234, 417)","(1247, 416)","(1259, 418)","(1267, 426)","(1212, 435)","(1212, 447)","(1211, 460)","(1211, 474)","(1196, 479)","(1203, 483)","(1210, 486)","(1218, 484)","(1225, 481)","(1171, 432)","(1179, 429)","(1187, 429)","(1195, 435)","(1187, 437)","(1178, 436)","(1229, 437)","(1237, 432)","(1246, 432)","(1253, 437)","(1246, 440)","(1237, 439)","(1184, 501)","(1194, 498)","(1203, 497)","(1210, 499)","(1216, 498)","(1226, 500)","(1235, 504)","(1226, 514)","(1217, 518)","(1209, 519)","(1202, 517)","(1193, 512)","(1189, 502)","(1203, 503)","(1209, 504)","(1216, 503)","(1230, 504)","(1217, 509)","(1210, 509)","(1203, 508)",0.31,0.87,37.0,0.37,0.05,0.39,0.03,-8.0,0.1,0.33,14.4,29.6,54.6,7.25,17.3,38.6,7.7,20.29,34.58
3500,-1179648,67,-56,-1,-1,0,"(1146, 426)","(1144, 445)","(1145, 464)","(1147, 483)","(1153, 502)","(1162, 519)","(1174, 535)","(1189, 547)","(1207, 551)","(1225, 549)","(1241, 539)","(1254, 524)","(1264, 507)","(1271, 488)","(1274, 470)","(1276, 451)","(1277, 432)","(1155, 419)","(1163, 412)","(1176, 411)","(1188, 414)","(1200, 421)","(1221, 421)","(1233, 416)","(1246, 414)","(1258, 417)","(1267, 424)","(1210, 434)","(1209, 447)","(1209, 460)","(1208, 474)","(1193, 479)","(1200, 483)","(1208, 486)","(1216, 484)","(1223, 481)","(1168, 431)","(1176, 428)","(1185, 428)","(1193, 434)","(1184, 436)","(1175, 435)","(1227, 436)","(1236, 431)","(1245, 431)","(1252, 435)","(1245, 439)","(1236, 438)","(1182, 501)","(1191, 498)","(1200, 497)","(1207, 500)","(1214, 498)","(1224, 500)","(1234, 504)","(1224, 515)","(1214, 519)","(1207, 520)","(1199, 519)","(1190, 513)","(1186, 503)","(1200, 503)","(1207, 504)","(1214, 504)","(1229, 505)","(1214, 510)","(1207, 511)","(1200, 509)",0.29,0.92,37.0,0.38,0.05,0.39,0.04,-8.0,0.09,0.34,15.0,31.6,57.6,6.8,16.35,37.4,7.47,19.82,34.7
3533,-1507328,67,-56,-1,-1,0,"(1143, 427)","(1142, 446)","(1143, 465)","(1145, 484)","(1151, 503)","(1160, 521)","(1172, 536)","(1187, 548)","(1205, 552)","(1224, 550)","(1240, 539)","(1254, 524)","(1264, 507)","(1271, 488)","(1274, 469)","(1276, 450)","(1276, 431)","(1152, 420)","(1160, 413)","(1173, 411)","(1185, 414)","(1197, 421)","(1218, 421)","(1230, 416)","(1244, 414)","(1256, 417)","(1265, 425)","(1207, 434)","(1207, 447)","(1206, 460)","(1206, 474)","(1190, 479)","(1197, 483)","(1205, 486)","(1213, 484)","(1221, 481)","(1166, 432)","(1173, 428)","(1182, 429)","(1190, 434)","(1181, 436)","(1172, 436)","(1225, 436)","(1233, 431)","(1243, 431)","(1250, 435)","(1243, 438)","(1234, 438)","(1179, 502)","(1188, 499)","(1198, 498)","(1205, 500)","(1212, 498)","(1222, 500)","(1232, 504)","(1222, 515)","(1212, 520)","(1205, 521)","(1197, 519)","(1188, 514)","(1184, 503)","(1198, 503)","(1205, 505)","(1212, 504)","(1227, 504)","(1212, 510)","(1205, 511)","(1198, 510)",0.28,0.89,37.0,0.36,0.05,0.39,0.04,-7.5,0.1,0.33,14.3,30.6,56.9,6.65,16.3,37.85,7.64,19.41,34.17
3566,-983040,67,-56,-1,-1,0,"(1134, 428)","(1133, 448)","(1133, 467)","(1136, 487)","(1142, 506)","(1152, 524)","(1166, 539)","(1183, 551)","(1202, 555)","(1220, 552)","(1235, 541)","(1248, 527)","(1257, 510)","(1263, 491)","(1266, 473)","(1268, 454)","(1267, 435)","(1147, 420)","(1156, 412)","(1169, 411)","(1182, 414)","(1194, 420)","(1216, 421)","(1228, 416)","(1240, 414)","(1253, 416)","(1260, 425)","(1205, 434)","(1204, 448)","(1204, 461)","(1204, 475)","(1188, 481)","(1195, 485)","(1203, 488)","(1211, 485)","(1218, 482)","(1162, 433)","(1169, 429)","(1179, 429)","(1186, 435)","(1178, 437)","(1169, 436)","(1221, 437)","(1230, 432)","(1239, 432)","(1246, 436)","(1239, 439)","(1230, 439)","(1176, 504)","(1185, 500)","(1196, 499)","(1203, 501)","(1210, 500)","(1219, 501)","(1229, 506)","(1220, 516)","(1211, 521)","(1203, 522)","(1195, 520)","(1185, 515)","(1180, 504)","(1195, 505)","(1203, 506)","(1210, 506)","(1224, 506)","(1210, 511)","(1203, 512)","(1196, 510)",0.27,0.85,37.0,0.36,0.04,0.39,0.04,-7.5,0.09,0.33,16.1,30.9,56.1,8.95,18.05,39.65,9.82,21.05,36.35
3600,-1572864,67,-56,-1,-1,0,"(1131, 426)","(1130, 446)","(1131, 467)","(1134, 487)","(1140, 507)","(1150, 525)","(1164, 541)","(1181, 553)","(1200, 556)","(1219, 553)","(1234, 542)","(1246, 527)","(1255, 509)","(1261, 490)","(1264, 471)","(1266, 453)","(1265, 434)","(1143, 419)","(1152, 412)","(1165, 410)","(1179, 414)","(1191, 420)","(1213, 421)","(1225, 416)","(1238, 414)","(1250, 416)","(1258, 424)","(1202, 434)","(1202, 447)","(1202, 461)","(1202, 475)","(1186, 481)","(1193, 485)","(1201, 488)","(1209, 486)","(1216, 482)","(1158, 432)","(1166, 428)","(1175, 428)","(1184, 434)","(1174, 436)","(1165, 436)","(1219, 436)","(1228, 431)","(1237, 431)","(1244, 436)","(1237, 439)","(1228, 439)","(1173, 504)","(1183, 501)","(1193, 500)","(1201, 502)","(1208, 500)","(1218, 502)","(1227, 505)","(1218, 517)","(1209, 522)","(1201, 523)","(1193, 522)","(1183, 516)","(1177, 505)","(1193, 506)","(1201, 507)","(1208, 506)","(1222, 506)","(1209, 512)","(1201, 513)","(1193, 512)",0.32,0.85,37.0,0.38,0.04,0.4,0.04,-8.0,0.1,0.33,15.7,31.8,58.2,7.75,17.1,39.75,7.82,20.64,35.82
3633,-1179648,67,-56,-1,-1,0,"(1129, 428)","(1128, 448)","(1129, 468)","(1132, 488)","(1138, 508)","(1147, 526)","(1161, 542)","(1177, 554)","(1196, 558)","(1215, 555)","(1231, 544)","(1245, 529)","(1254, 510)","(1260, 491)","(1263, 472)","(1265, 453)","(1264, 434)","(1139, 421)","(1148, 413)","(1161, 411)","(1175, 414)","(1187, 421)","(1209, 421)","(1222, 416)","(1235, 414)","(1248, 417)","(1256, 426)","(1198, 435)","(1198, 448)","(1198, 462)","(1197, 477)","(1182, 483)","(1189, 487)","(1197, 490)","(1205, 487)","(1212, 483)","(1154, 433)","(1162, 429)","(1171, 430)","(1180, 435)","(1171, 437)","(1161, 437)","(1216, 437)","(1225, 432)","(1234, 432)","(1241, 437)","(1234, 440)","(1225, 439)","(1170, 506)","(1179, 502)","(1190, 501)","(1197, 503)","(1204, 502)","(1214, 503)","(1223, 507)","(1214, 518)","(1205, 523)","(1197, 524)","(1189, 523)","(1179, 517)","(1174, 507)","(1189, 507)","(1197, 508)","(1204, 508)","(1219, 508)","(1204, 513)","(1197, 514)","(1189, 513)",0.3,0.86,37.0,0.37,0.05,0.39,0.04,-8.0,0.1,0.34,16.7,31.0,56.5,7.05,16.6,37.35,9.47,20.94,34.76
