milliseconds, ECG, ECG HR, PPG, PPG HR, SpO2, PI
1523633360582,524288,64,-56,-1,-1,0
1523633360582,589824,64,-56,-1,-1,0
1523633360582,786432,64,-56,-1,-1,0
1523633360582,1048576,64,-56,-1,-1,0
1523633360582,1245184,64,-56,-1,-1,0
1523633360624,1441792,64,-56,-1,-1,0
1523633360624,1769472,64,-56,-1,-1,0
1523633360624,2228224,64,-56,-1,-1,0
1523633360624,2752512,64,-56,-1,-1,0
1523633360624,3276800,64,-56,-1,-1,0
1523633360662,3801088,64,-56,-1,-1,0
1523633360662,4325376,64,-56,-1,-1,0
1523633360662,4718592,64,-56,-1,-1,0
1523633360662,4915200,64,-56,-1,-1,0
1523633360662,5177344,64,-56,-1,-1,0
1523633360702,5308416,64,-56,-1,-1,0
1523633360702,5177344,64,-56,-1,-1,0
1523633360702,4718592,64,-56,-1,-1,0
1523633360702,3932160,64,-56,-1,-1,0
1523633360702,2949120,64,-56,-1,-1,0
1523633360742,1900544,64,-56,-1,-1,0
1523633360742,983040,64,-56,-1,-1,0
1523633360742,458752,64,-56,-1,-1,0
1523633360742,131072,64,-56,-1,-1,0
1523633360742,-131072,64,-56,-1,-1,0
1523633360782,-458752,64,-56,-1,-1,0
1523633360782,-786432,64,-56,-1,-1,0
1523633360782,-851968,64,-56,-1,-1,0
1523633360782,-655360,64,-56,-1,-1,0
1523633360782,-458752,64,-56,-1,-1,0
1523633360822,-458752,64,-56,-1,-1,0
1523633360822,-655360,64,-56,-1,-1,0
1523633360822,-851968,64,-56,-1,-1,0
1523633360822,-917504,64,-56,-1,-1,0
1523633360822,-917504,64,-56,-1,-1,0
1523633360862,-983040,64,-56,-1,-1,0
1523633360862,-917504,64,-56,-1,-1,0
1523633360862,-720896,64,-56,-1,-1,0
1523633360862,-589824,64,-56,-1,-1,0
1523633360862,-393216,64,-56,-1,-1,0
1523633360902,-262144,64,-56,-1,-1,0
1523633360902,-655360,64,-56,-1,-1,0
1523633360902,-1179648,64,-56,-1,-1,0
1523633360902,-1114112,64,-56,-1,-1,0
1523633360902,-851968,64,-56,-1,-1,0
1523633360943,-720896,64,-56,-1,-1,0
1523633360943,-655360,64,-56,-1,-1,0
1523633360943,-720896,64,-56,-1,-1,0
1523633360943,-786432,64,-56,-1,-1,0
1523633360943,-851968,64,-56,-1,-1,0
1523633360982,-851968,64,-56,-1,-1,0
1523633360982,-917504,64,-56,-1,-1,0
1523633360982,-917504,64,-56,-1,-1,0
1523633360982,-1048576,64,-56,-1,-1,0
1523633360982,-1114112,64,-56,-1,-1,0
1523633361023,-1114112,64,-56,-1,-1,0
1523633361023,-1114112,64,-56,-1,-1,0
1523633361023,-983040,64,-56,-1,-1,0
1523633361023,-1114112,64,-56,-1,-1,0
1523633361023,-1245184,64,-56,-1,-1,0
1523633361062,-1376256,64,-56,-1,-1,0
1523633361062,-1245184,64,-56,-1,-1,0
1523633361062,-1048576,64,-56,-1,-1,0
1523633361062,-851968,64,-56,-1,-1,0
1523633361062,-851968,64,-56,-1,-1,0
1523633361103,-917504,64,-56,-1,-1,0
1523633361103,-1179648,64,-56,-1,-1,0
1523633361103,-1376256,64,-56,-1,-1,0
1523633361103,-1572864,64,-56,-1,-1,0
1523633361103,-1441792,64,-56,-1,-1,0
1523633361142,-1376256,64,-56,-1,-1,0
1523633361142,-1376256,64,-56,-1,-1,0
1523633361142,-1572864,64,-56,-1,-1,0
1523633361142,-1572864,64,-56,-1,-1,0
1523633361142,-1507328,64,-56,-1,-1,0
1523633361182,-1376256,64,-56,-1,-1,0
1523633361182,-1376256,64,-56,-1,-1,0
1523633361182,-1376256,64,-56,-1,-1,0
1523633361182,-1441792,64,-56,-1,-1,0
1523633361182,-1114112,64,-56,-1,-1,0
1523633361222,720896,64,-56,-1,-1,0
1523633361222,4587520,64,-56,-1,-1,0
1523633361222,7340032,64,-56,-1,-1,0
1523633361222,5308416,64,-56,-1,-1,0
1523633361222,-65536,64,-56,-1,-1,0
1523633361264,-3997696,64,-56,-1,-1,0
1523633361264,-5111808,64,-56,-1,-1,0
1523633361264,-4521984,64,-56,-1,-1,0
1523633361264,-3211264,64,-56,-1,-1,0
1523633361264,-1966080,64,-56,-1,-1,0
1523633361302,-1376256,65,-56,-1,-1,0
1523633361302,-983040,65,-56,-1,-1,0
1523633361302,-720896,65,-56,-1,-1,0
1523633361302,-720896,65,-56,-1,-1,0
1523633361302,-720896,65,-56,-1,-1,0
1523633361342,-524288,65,-56,-1,-1,0
1523633361342,-327680,65,-56,-1,-1,0
1523633361342,-262144,65,-56,-1,-1,0
1523633361342,-196608,65,-56,-1,-1,0
1523633361342,0,65,-56,-1,-1,0
1523633361382,196608,65,-56,-1,-1,0
1523633361382,458752,65,-56,-1,-1,0
1523633361382,589824,65,-56,-1,-1,0
1523633361382,851968,65,-56,-1,-1,0
1523633361382,1179648,65,-56,-1,-1,0
1523633361422,1703936,65,-56,-1,-1,0
1523633361422,2293760,65,-56,-1,-1,0
1523633361422,2752512,65,-56,-1,-1,0
1523633361422,3276800,65,-56,-1,-1,0
1523633361422,3866624,65,-56,-1,-1,0
1523633361462,4390912,65,-56,-1,-1,0
1523633361462,4718592,65,-56,-1,-1,0
1523633361462,4784128,65,-56,-1,-1,0
1523633361462,4587520,65,-56,-1,-1,0
1523633361462,4128768,65,-56,-1,-1,0
1523633361502,3473408,65,-56,-1,-1,0
1523633361502,2818048,65,-56,-1,-1,0
1523633361502,1900544,65,-56,-1,-1,0
1523633361502,983040,65,-56,-1,-1,0
1523633361502,131072,65,-56,-1,-1,0
1523633361542,-393216,65,-56,-1,-1,0
1523633361542,-786432,65,-56,-1,-1,0
1523633361542,-917504,65,-56,-1,-1,0
1523633361542,-917504,65,-56,-1,-1,0
1523633361542,-1048576,65,-56,-1,-1,0
1523633361582,-1114112,65,-56,-1,-1,0
1523633361582,-1114112,65,-56,-1,-1,0
1523633361582,-1310720,65,-56,-1,-1,0
1523633361582,-1507328,65,-56,-1,-1,0
1523633361582,-1441792,65,-56,-1,-1,0
1523633361622,-1310720,65,-56,-1,-1,0
1523633361622,-1310720,65,-56,-1,-1,0
1523633361622,-1376256,65,-56,-1,-1,0
1523633361622,-1376256,65,-56,-1,-1,0
1523633361622,-1376256,65,-56,-1,-1,0
1523633361662,-1310720,65,-56,-1,-1,0
1523633361662,-1310720,65,-56,-1,-1,0
1523633361662,-1310720,65,-56,-1,-1,0
1523633361662,-1376256,65,-56,-1,-1,0
1523633361662,-1376256,65,-56,-1,-1,0
1523633361702,-1245184,65,-56,-1,-1,0
1523633361702,-1179648,65,-56,-1,-1,0
1523633361702,-1114112,65,-56,-1,-1,0
1523633361702,-1179648,65,-56,-1,-1,0
1523633361702,-1179648,65,-56,-1,-1,0
1523633361742,-1245184,65,-56,-1,-1,0
1523633361742,-1310720,65,-56,-1,-1,0
1523633361742,-1441792,65,-56,-1,-1,0
1523633361742,-1441792,65,-56,-1,-1,0
1523633361742,-1376256,65,-56,-1,-1,0
1523633361782,-1245184,65,-56,-1,-1,0
1523633361782,-1245184,65,-56,-1,-1,0
1523633361782,-1245184,65,-56,-1,-1,0
1523633361782,-1310720,65,-56,-1,-1,0
1523633361782,-1441792,65,-56,-1,-1,0
1523633361822,-1441792,65,-56,-1,-1,0
1523633361822,-1376256,65,-56,-1,-1,0
1523633361822,-1441792,65,-56,-1,-1,0
1523633361822,-1441792,65,-56,-1,-1,0
1523633361822,-1376256,65,-56,-1,-1,0
1523633361862,-1376256,65,-56,-1,-1,0
1523633361862,-1441792,65,-56,-1,-1,0
1523633361862,-1507328,65,-56,-1,-1,0
1523633361862,-1310720,65,-56,-1,-1,0
1523633361862,-1245184,65,-56,-1,-1,0
1523633361904,-1310720,65,-56,-1,-1,0
1523633361904,-1245184,65,-56,-1,-1,0
1523633361904,-1179648,65,-56,-1,-1,0
1523633361904,-1376256,65,-56,-1,-1,0
1523633361904,-1507328,65,-56,-1,-1,0
1523633361942,-1572864,65,-56,-1,-1,0
1523633361942,-1507328,65,-56,-1,-1,0
1523633361942,-1572864,65,-56,-1,-1,0
1523633361942,-1572864,65,-56,-1,-1,0
1523633361942,-1638400,65,-56,-1,-1,0
1523633361982,-1703936,65,-56,-1,-1,0
1523633361982,-1572864,65,-56,-1,-1,0
1523633361982,-1441792,65,-56,-1,-1,0
1523633361982,-1441792,65,-56,-1,-1,0
1523633361982,-1703936,65,-56,-1,-1,0
1523633362022,-1441792,65,-56,-1,-1,0
1523633362022,851968,65,-56,-1,-1,0
1523633362022,5505024,65,-56,-1,-1,0
1523633362022,8847360,65,-56,-1,-1,0
1523633362022,7012352,65,-56,-1,-1,0
1523633362062,1245184,65,-56,-1,-1,0
1523633362062,-3407872,65,-56,-1,-1,0
1523633362062,-4390912,65,-56,-1,-1,0
1523633362062,-3407872,65,-56,-1,-1,0
1523633362062,-2162688,65,-56,-1,-1,0
1523633362102,-1376256,65,-56,-1,-1,0
1523633362102,-1048576,65,-56,-1,-1,0
1523633362102,-851968,65,-56,-1,-1,0
1523633362102,-589824,65,-56,-1,-1,0
1523633362102,-458752,65,-56,-1,-1,0
1523633362142,-327680,65,-56,-1,-1,0
1523633362142,-262144,65,-56,-1,-1,0
1523633362142,-65536,65,-56,-1,-1,0
1523633362142,0,65,-56,-1,-1,0
1523633362142,131072,65,-56,-1,-1,0
1523633362182,327680,65,-56,-1,-1,0
1523633362182,524288,65,-56,-1,-1,0
1523633362182,655360,65,-56,-1,-1,0
1523633362182,917504,65,-56,-1,-1,0
1523633362182,1245184,65,-56,-1,-1,0
1523633362224,1703936,66,-56,-1,-1,0
1523633362224,2097152,66,-56,-1,-1,0
1523633362224,2621440,66,-56,-1,-1,0
1523633362224,3014656,66,-56,-1,-1,0
1523633362224,3538944,66,-56,-1,-1,0
1523633362262,4063232,66,-56,-1,-1,0
1523633362262,4653056,66,-56,-1,-1,0
1523633362262,4980736,66,-56,-1,-1,0
1523633362262,5046272,66,-56,-1,-1,0
1523633362262,4915200,66,-56,-1,-1,0
1523633362302,4653056,66,-56,-1,-1,0
1523633362302,4128768,66,-56,-1,-1,0
1523633362302,3342336,66,-56,-1,-1,0
1523633362302,2293760,66,-56,-1,-1,0
1523633362302,1441792,66,-56,-1,-1,0
1523633362342,786432,66,-56,-1,-1,0
1523633362342,196608,66,-56,-1,-1,0
1523633362342,-131072,66,-56,-1,-1,0
1523633362342,-524288,66,-56,-1,-1,0
1523633362342,-720896,66,-56,-1,-1,0
1523633362382,-786432,66,-56,-1,-1,0
1523633362382,-655360,66,-56,-1,-1,0
1523633362382,-655360,66,-56,-1,-1,0
1523633362382,-786432,66,-56,-1,-1,0
1523633362382,-786432,66,-56,-1,-1,0
1523633362422,-720896,66,-56,-1,-1,0
1523633362422,-720896,66,-56,-1,-1,0
1523633362422,-786432,66,-56,-1,-1,0
1523633362422,-786432,66,-56,-1,-1,0
1523633362422,-720896,66,-56,-1,-1,0
1523633362462,-655360,66,-56,-1,-1,0
1523633362462,-655360,66,-56,-1,-1,0
1523633362462,-655360,66,-56,-1,-1,0
1523633362462,-655360,66,-56,-1,-1,0
1523633362462,-655360,66,-56,-1,-1,0
1523633362502,-655360,66,-56,-1,-1,0
1523633362502,-655360,66,-56,-1,-1,0
1523633362502,-589824,66,-56,-1,-1,0
1523633362502,-589824,66,-56,-1,-1,0
1523633362502,-589824,66,-56,-1,-1,0
1523633362544,-655360,66,-56,-1,-1,0
1523633362544,-524288,66,-56,-1,-1,0
1523633362544,-458752,66,-56,-1,-1,0
1523633362544,-524288,66,-56,-1,-1,0
1523633362544,-589824,66,-56,-1,-1,0
1523633362582,-589824,66,-56,-1,-1,0
1523633362582,-589824,66,-56,-1,-1,0
1523633362582,-589824,66,-56,-1,-1,0
1523633362582,-589824,66,-56,-1,-1,0
1523633362582,-589824,66,-56,-1,-1,0
1523633362622,-589824,66,-56,-1,-1,0
1523633362622,-524288,66,-56,-1,-1,0
1523633362622,-524288,66,-56,-1,-1,0
1523633362622,-524288,66,-56,-1,-1,0
1523633362622,-524288,66,-56,-1,-1,0
1523633362662,-524288,66,-56,-1,-1,0
1523633362662,-589824,66,-56,-1,-1,0
1523633362662,-655360,66,-56,-1,-1,0
1523633362662,-655360,66,-56,-1,-1,0
1523633362662,-655360,66,-56,-1,-1,0
1523633362702,-589824,66,-56,-1,-1,0
1523633362702,-524288,66,-56,-1,-1,0
1523633362702,-589824,66,-56,-1,-1,0
1523633362702,-524288,66,-56,-1,-1,0
1523633362702,-393216,66,-56,-1,-1,0
1523633362742,-393216,66,-56,-1,-1,0
1523633362742,-524288,66,-56,-1,-1,0
1523633362742,-589824,66,-56,-1,-1,0
1523633362742,-589824,66,-56,-1,-1,0
1523633362742,-589824,66,-56,-1,-1,0
1523633362782,-589824,66,-56,-1,-1,0
1523633362782,-524288,66,-56,-1,-1,0
1523633362782,-393216,66,-56,-1,-1,0
1523633362782,-327680,66,-56,-1,-1,0
1523633362782,-393216,66,-56,-1,-1,0
1523633362822,-393216,66,-56,-1,-1,0
1523633362822,-589824,66,-56,-1,-1,0
1523633362822,-720896,66,-56,-1,-1,0
1523633362822,-720896,66,-56,-1,-1,0
1523633362822,-851968,66,-56,-1,-1,0
1523633362862,-917504,66,-56,-1,-1,0
1523633362862,-983040,66,-56,-1,-1,0
1523633362862,-983040,66,-56,-1,-1,0
1523633362862,-1179648,66,-56,-1,-1,0
1523633362862,-1114112,66,-56,-1,-1,0
1523633362902,-1048576,66,-56,-1,-1,0
1523633362902,-1114112,66,-56,-1,-1,0
1523633362902,-1179648,66,-56,-1,-1,0
1523633362902,-720896,66,-56,-1,-1,0
1523633362902,1245184,66,-56,-1,-1,0
1523633362942,5046272,66,-56,-1,-1,0
1523633362942,7864320,66,-56,-1,-1,0
1523633362942,6225920,66,-56,-1,-1,0
1523633362942,1114112,66,-56,-1,-1,0
1523633362942,-3080192,66,-56,-1,-1,0
1523633362982,-4194304,66,-56,-1,-1,0
1523633362982,-3473408,66,-56,-1,-1,0
1523633362982,-2293760,66,-56,-1,-1,0
1523633362982,-1441792,66,-56,-1,-1,0
1523633362982,-983040,66,-56,-1,-1,0
1523633363022,-786432,66,-56,-1,-1,0
1523633363022,-458752,66,-56,-1,-1,0
1523633363022,-262144,66,-56,-1,-1,0
1523633363022,-196608,66,-56,-1,-1,0
1523633363022,-196608,66,-56,-1,-1,0
1523633363062,0,66,-56,-1,-1,0
1523633363062,131072,66,-56,-1,-1,0
1523633363062,196608,66,-56,-1,-1,0
1523633363062,327680,66,-56,-1,-1,0
1523633363062,458752,66,-56,-1,-1,0
1523633363102,720896,66,-56,-1,-1,0
1523633363102,1048576,66,-56,-1,-1,0
1523633363102,1441792,66,-56,-1,-1,0
1523633363102,1769472,66,-56,-1,-1,0
1523633363102,2031616,66,-56,-1,-1,0
1523633363142,2490368,66,-56,-1,-1,0
1523633363142,3080192,66,-56,-1,-1,0
1523633363142,3670016,66,-56,-1,-1,0
1523633363142,4194304,66,-56,-1,-1,0
1523633363142,4653056,66,-56,-1,-1,0
1523633363184,4915200,66,-56,-1,-1,0
1523633363184,4980736,66,-56,-1,-1,0
1523633363184,4980736,66,-56,-1,-1,0
1523633363184,4784128,66,-56,-1,-1,0
1523633363184,4259840,66,-56,-1,-1,0
1523633363222,3342336,66,-56,-1,-1,0
1523633363222,2293760,66,-56,-1,-1,0
1523633363222,1572864,66,-56,-1,-1,0
1523633363222,983040,66,-56,-1,-1,0
1523633363222,393216,66,-56,-1,-1,0
1523633363262,0,66,-56,-1,-1,0
1523633363262,-262144,66,-56,-1,-1,0
1523633363262,-458752,66,-56,-1,-1,0
1523633363262,-589824,66,-56,-1,-1,0
1523633363262,-720896,66,-56,-1,-1,0
1523633363302,-655360,66,-56,-1,-1,0
1523633363302,-589824,66,-56,-1,-1,0
1523633363302,-524288,66,-56,-1,-1,0
1523633363302,-589824,66,-56,-1,-1,0
1523633363302,-720896,66,-56,-1,-1,0
1523633363342,-720896,66,-56,-1,-1,0
1523633363342,-589824,66,-56,-1,-1,0
1523633363342,-524288,66,-56,-1,-1,0
1523633363342,-589824,66,-56,-1,-1,0
1523633363342,-655360,66,-56,-1,-1,0
1523633363382,-786432,66,-56,-1,-1,0
1523633363382,-851968,66,-56,-1,-1,0
1523633363382,-720896,66,-56,-1,-1,0
1523633363382,-524288,66,-56,-1,-1,0
1523633363382,-393216,66,-56,-1,-1,0
1523633363422,-393216,67,-56,-1,-1,0
1523633363422,-524288,67,-56,-1,-1,0
1523633363422,-655360,67,-56,-1,-1,0
1523633363422,-655360,67,-56,-1,-1,0
1523633363422,-589824,67,-56,-1,-1,0
1523633363462,-786432,67,-56,-1,-1,0
1523633363462,-851968,67,-56,-1,-1,0
1523633363462,-720896,67,-56,-1,-1,0
1523633363462,-524288,67,-56,-1,-1,0
1523633363462,-524288,67,-56,-1,-1,0
1523633363502,-720896,67,-56,-1,-1,0
1523633363502,-851968,67,-56,-1,-1,0
1523633363502,-720896,67,-56,-1,-1,0
1523633363502,-589824,67,-56,-1,-1,0
1523633363502,-655360,67,-56,-1,-1,0
1523633363542,-851968,67,-56,-1,-1,0
1523633363542,-851968,67,-56,-1,-1,0
1523633363542,-720896,67,-56,-1,-1,0
1523633363542,-655360,67,-56,-1,-1,0
1523633363542,-851968,67,-56,-1,-1,0
1523633363582,-720896,67,-56,-1,-1,0
1523633363582,-720896,67,-56,-1,-1,0
1523633363582,-720896,67,-56,-1,-1,0
1523633363582,-917504,67,-56,-1,-1,0
1523633363582,-917504,67,-56,-1,-1,0
1523633363622,-786432,67,-56,-1,-1,0
1523633363622,-655360,67,-56,-1,-1,0
1523633363622,-720896,67,-56,-1,-1,0
1523633363622,-655360,67,-56,-1,-1,0
1523633363622,-720896,67,-56,-1,-1,0
1523633363662,-786432,67,-56,-1,-1,0
1523633363662,-851968,67,-56,-1,-1,0
1523633363662,-786432,67,-56,-1,-1,0
1523633363662,-851968,67,-56,-1,-1,0
1523633363662,-917504,67,-56,-1,-1,0
1523633363702,-786432,67,-56,-1,-1,0
1523633363702,-786432,67,-56,-1,-1,0
1523633363702,-1048576,67,-56,-1,-1,0
1523633363702,-917504,67,-56,-1,-1,0
1523633363702,-655360,67,-56,-1,-1,0
1523633363742,-589824,67,-56,-1,-1,0
1523633363742,-720896,67,-56,-1,-1,0
1523633363742,-851968,67,-56,-1,-1,0
1523633363742,-720896,67,-56,-1,-1,0
1523633363742,-720896,67,-56,-1,-1,0
1523633363782,-917504,67,-56,-1,-1,0
1523633363782,-851968,67,-56,-1,-1,0
1523633363782,-524288,67,-56,-1,-1,0
1523633363782,-524288,67,-56,-1,-1,0
1523633363782,-655360,67,-56,-1,-1,0
1523633363824,-851968,67,-56,-1,-1,0
1523633363824,-983040,67,-56,-1,-1,0
1523633363824,-720896,67,-56,-1,-1,0
1523633363824,-589824,67,-56,-1,-1,0
1523633363824,-720896,67,-56,-1,-1,0
1523633363862,-589824,67,-56,-1,-1,0
1523633363862,-393216,67,-56,-1,-1,0
1523633363862,-589824,67,-56,-1,-1,0
1523633363862,-720896,67,-56,-1,-1,0
1523633363862,-524288,67,-56,-1,-1,0
1523633363902,-589824,67,-56,-1,-1,0
1523633363902,-786432,67,-56,-1,-1,0
1523633363902,-786432,67,-56,-1,-1,0
1523633363902,-589824,67,-56,-1,-1,0
1523633363902,-524288,67,-56,-1,-1,0
1523633363942,-589824,67,-56,-1,-1,0
1523633363942,-655360,67,-56,-1,-1,0
1523633363942,-786432,67,-56,-1,-1,0
1523633363942,-524288,67,-56,-1,-1,0
1523633363942,-262144,67,-56,-1,-1,0
1523633363982,-393216,67,-56,-1,-1,0
1523633363982,-524288,67,-56,-1,-1,0
1523633363982,-589824,67,-56,-1,-1,0
1523633363982,-393216,67,-56,-1,-1,0
1523633363982,-262144,67,-56,-1,-1,0
1523633364022,-393216,67,-56,-1,-1,0
1523633364022,-655360,67,-56,-1,-1,0
1523633364022,-589824,67,-56,-1,-1,0
1523633364022,-786432,67,-56,-1,-1,0
1523633364022,-983040,67,-56,-1,-1,0
1523633364062,-851968,67,-56,-1,-1,0
1523633364062,-393216,67,-56,-1,-1,0
1523633364062,-131072,67,-56,-1,-1,0
1523633364062,-524288,67,-56,-1,-1,0
1523633364062,-786432,67,-56,-1,-1,0
1523633364102,-720896,67,-56,-1,-1,0
1523633364102,-393216,67,-56,-1,-1,0
1523633364102,655360,67,-56,-1,-1,0
1523633364102,3604480,67,-56,-1,-1,0
1523633364102,6946816,67,-56,-1,-1,0
1523633364142,7340032,67,-56,-1,-1,0
1523633364142,3407872,67,-56,-1,-1,0
1523633364142,-1507328,67,-56,-1,-1,0
1523633364142,-3407872,67,-56,-1,-1,0
1523633364142,-2752512,67,-56,-1,-1,0
1523633364182,-2162688,67,-56,-1,-1,0
1523633364182,-917504,67,-56,-1,-1,0
1523633364182,-65536,67,-56,-1,-1,0
1523633364182,0,67,-56,-1,-1,0
1523633364182,-196608,67,-56,-1,-1,0
1523633364222,196608,67,-56,-1,-1,0
1523633364222,458752,67,-56,-1,-1,0
1523633364222,655360,67,-56,-1,-1,0
1523633364222,786432,67,-56,-1,-1,0
1523633364222,917504,67,-56,-1,-1,0
1523633364263,851968,67,-56,-1,-1,0
1523633364263,851968,67,-56,-1,-1,0
1523633364263,786432,67,-56,-1,-1,0
1523633364263,1245184,67,-56,-1,-1,0
1523633364263,1966080,67,-56,-1,-1,0
1523633364302,2031616,67,-56,-1,-1,0
1523633364302,2097152,67,-56,-1,-1,0
1523633364302,2359296,67,-56,-1,-1,0
1523633364302,3080192,67,-56,-1,-1,0
1523633364302,3342336,67,-56,-1,-1,0
1523633364342,3538944,67,-56,-1,-1,0
1523633364342,4128768,67,-56,-1,-1,0
1523633364342,4653056,67,-56,-1,-1,0
1523633364342,4849664,67,-56,-1,-1,0
1523633364342,4653056,67,-56,-1,-1,0
1523633364382,4718592,67,-56,-1,-1,0
1523633364382,5636096,67,-56,-1,-1,0
1523633364382,5898240,67,-56,-1,-1,0
1523633364382,5046272,67,-56,-1,-1,0
1523633364382,3866624,67,-56,-1,-1,0
1523633364423,2949120,67,-56,-1,-1,0
1523633364423,1441792,67,-56,-1,-1,0
1523633364423,1048576,67,-56,-1,-1,0
1523633364423,458752,67,-56,-1,-1,0
1523633364423,327680,67,-56,-1,-1,0
1523633364464,65536,67,-56,-1,-1,0
1523633364464,65536,67,-56,-1,-1,0
1523633364464,-131072,67,-56,-1,-1,0
1523633364464,-65536,67,-56,-1,-1,0
1523633364464,-131072,67,-56,-1,-1,0
1523633364502,-589824,67,-56,-1,-1,0
1523633364502,-1179648,67,-56,-1,-1,0
1523633364502,-1048576,67,-56,-1,-1,0
1523633364502,-524288,67,-56,-1,-1,0
1523633364502,-327680,67,-56,-1,-1,0
1523633364542,-458752,67,-56,-1,-1,0
1523633364542,-524288,67,-56,-1,-1,0
1523633364542,-1310720,67,-56,-1,-1,0
1523633364542,-1114112,67,-56,-1,-1,0
1523633364542,-1114112,67,-56,-1,-1,0
1523633364582,-524288,67,-56,-1,-1,0
1523633364582,-655360,67,-56,-1,-1,0
1523633364582,-262144,67,-56,-1,-1,0
1523633364582,-262144,67,-56,-1,-1,0
1523633364582,-786432,67,-56,-1,-1,0
1523633364622,-1114112,67,-56,-1,-1,0
1523633364622,-917504,67,-56,-1,-1,0
1523633364622,-917504,67,-56,-1,-1,0
1523633364622,-917504,67,-56,-1,-1,0
1523633364622,-720896,67,-56,-1,-1,0
1523633364662,-720896,67,-56,-1,-1,0
1523633364662,-1114112,67,-56,-1,-1,0
1523633364662,-983040,67,-56,-1,-1,0
1523633364662,-851968,67,-56,-1,-1,0
1523633364662,-655360,67,-56,-1,-1,0
1523633364702,-1048576,67,-56,-1,-1,0
1523633364702,-1310720,67,-56,-1,-1,0
1523633364702,-1638400,67,-56,-1,-1,0
1523633364702,-1245184,67,-56,-1,-1,0
1523633364702,-655360,67,-56,-1,-1,0
1523633364742,-983040,67,-56,-1,-1,0
1523633364742,-1572864,67,-56,-1,-1,0
1523633364742,-1441792,67,-56,-1,-1,0
1523633364742,-983040,67,-56,-1,-1,0
1523633364742,-1048576,67,-56,-1,-1,0
1523633364782,-1179648,67,-56,-1,-1,0
1523633364782,-1376256,67,-56,-1,-1,0
1523633364782,-1114112,67,-56,-1,-1,0
1523633364782,-1245184,67,-56,-1,-1,0
1523633364782,-1769472,67,-56,-1,-1,0
1523633364822,-1507328,67,-56,-1,-1,0
1523633364822,-1245184,67,-56,-1,-1,0
1523633364822,-1048576,67,-56,-1,-1,0
1523633364822,-983040,67,-56,-1,-1,0
1523633364822,-589824,67,-56,-1,-1,0
1523633364862,-983040,67,-56,-1,-1,0
1523633364862,-1179648,67,-56,-1,-1,0
1523633364862,-1048576,67,-56,-1,-1,0
1523633364862,-786432,67,-56,-1,-1,0
1523633364862,-1179648,67,-56,-1,-1,0
1523633364902,-1572864,67,-56,-1,-1,0
1523633364902,-1638400,67,-56,-1,-1,0
1523633364902,-1179648,67,-56,-1,-1,0
1523633364902,-1310720,67,-56,-1,-1,0
1523633364902,-1376256,67,-56,-1,-1,0
1523633364942,-1179648,67,-56,-1,-1,0
1523633364942,-1114112,67,-56,-1,-1,0
1523633364942,-1441792,67,-56,-1,-1,0
1523633364942,-1441792,67,-56,-1,-1,0
1523633364942,-1245184,67,-56,-1,-1,0
1523633364982,-1179648,67,-56,-1,-1,0
1523633364982,-1245184,67,-56,-1,-1,0
1523633364982,-720896,67,-56,-1,-1,0
1523633364982,1114112,67,-56,-1,-1,0
1523633364982,4390912,67,-56,-1,-1,0
1523633365022,6488064,67,-56,-1,-1,0
1523633365022,4390912,67,-56,-1,-1,0
1523633365022,-327680,67,-56,-1,-1,0
1523633365022,-3735552,67,-56,-1,-1,0
1523633365022,-4718592,67,-56,-1,-1,0
1523633365062,-4456448,67,-56,-1,-1,0
1523633365062,-3538944,67,-56,-1,-1,0
1523633365062,-2359296,67,-56,-1,-1,0
1523633365062,-1441792,67,-56,-1,-1,0
1523633365062,-917504,67,-56,-1,-1,0
1523633365104,-589824,68,-56,-1,-1,0
1523633365104,-262144,68,-56,-1,-1,0
1523633365104,-131072,68,-56,-1,-1,0
1523633365104,-196608,68,-56,-1,-1,0
1523633365104,-65536,68,-56,-1,-1,0
1523633365142,0,68,-56,-1,-1,0
1523633365142,196608,68,-56,-1,-1,0
1523633365142,524288,68,-56,-1,-1,0
1523633365142,720896,68,-56,-1,-1,0
1523633365142,524288,68,-56,-1,-1,0
1523633365182,786432,68,-56,-1,-1,0
1523633365182,1376256,68,-56,-1,-1,0
1523633365182,1703936,68,-56,-1,-1,0
1523633365182,1966080,68,-56,-1,-1,0
1523633365182,2621440,68,-56,-1,-1,0
1523633365222,3145728,68,-56,-1,-1,0
1523633365222,3342336,68,-56,-1,-1,0
1523633365222,3866624,68,-56,-1,-1,0
1523633365222,4521984,68,-56,-1,-1,0
1523633365222,4849664,68,-56,-1,-1,0
1523633365262,4980736,68,-56,-1,-1,0
1523633365262,4980736,68,-56,-1,-1,0
1523633365262,5046272,68,-56,-1,-1,0
1523633365262,4194304,68,-56,-1,-1,0
1523633365262,3211264,68,-56,-1,-1,0
1523633365302,2228224,68,-56,-1,-1,0
1523633365302,1507328,68,-56,-1,-1,0
1523633365302,720896,68,-56,-1,-1,0
1523633365302,196608,68,-56,-1,-1,0
1523633365302,-131072,68,-56,-1,-1,0
1523633365342,-327680,68,-56,-1,-1,0
1523633365342,-458752,68,-56,-1,-1,0
1523633365342,-589824,68,-56,-1,-1,0
1523633365342,-786432,68,-56,-1,-1,0
1523633365342,-851968,68,-56,-1,-1,0
1523633365382,-917504,68,-56,-1,-1,0
1523633365382,-983040,68,-56,-1,-1,0
1523633365382,-917504,68,-56,-1,-1,0
1523633365382,-917504,68,-56,-1,-1,0
1523633365382,-1048576,68,-56,-1,-1,0
1523633365422,-983040,68,-56,-1,-1,0
1523633365422,-917504,68,-56,-1,-1,0
1523633365422,-851968,68,-56,-1,-1,0
1523633365422,-983040,68,-56,-1,-1,0
1523633365422,-983040,68,-56,-1,-1,0
1523633365462,-917504,68,-56,-1,-1,0
1523633365462,-851968,68,-56,-1,-1,0
1523633365462,-851968,68,-56,-1,-1,0
1523633365462,-917504,68,-56,-1,-1,0
1523633365462,-917504,68,-56,-1,-1,0
1523633365502,-917504,68,-56,-1,-1,0
1523633365502,-917504,68,-56,-1,-1,0
1523633365502,-983040,68,-56,-1,-1,0
1523633365502,-917504,68,-56,-1,-1,0
1523633365502,-917504,68,-56,-1,-1,0
1523633365542,-983040,68,-56,-1,-1,0
1523633365542,-1048576,68,-56,-1,-1,0
1523633365542,-1048576,68,-56,-1,-1,0
1523633365542,-1048576,68,-56,-1,-1,0
1523633365542,-1048576,68,-56,-1,-1,0
1523633365582,-1048576,68,-56,-1,-1,0
1523633365582,-1114112,68,-56,-1,-1,0
1523633365582,-1179648,68,-56,-1,-1,0
1523633365582,-1179648,68,-56,-1,-1,0
1523633365582,-1179648,68,-56,-1,-1,0
1523633365623,-1179648,68,-56,-1,-1,0
1523633365623,-1179648,68,-56,-1,-1,0
1523633365623,-1179648,68,-56,-1,-1,0
1523633365623,-1179648,68,-56,-1,-1,0
1523633365623,-1245184,68,-56,-1,-1,0
1523633365662,-1310720,68,-56,-1,-1,0
1523633365662,-1310720,68,-56,-1,-1,0
1523633365662,-1245184,68,-56,-1,-1,0
1523633365662,-1114112,68,-56,-1,-1,0
1523633365662,-983040,68,-56,-1,-1,0
1523633365702,-851968,68,-56,-1,-1,0
1523633365702,-917504,68,-56,-1,-1,0
1523633365702,-983040,68,-56,-1,-1,0
1523633365702,-1114112,68,-56,-1,-1,0
1523633365702,-1179648,68,-56,-1,-1,0
1523633365743,-1179648,68,-56,-1,-1,0
1523633365743,-1245184,68,-56,-1,-1,0
1523633365743,-1245184,68,-56,-1,-1,0
1523633365743,-1179648,68,-56,-1,-1,0
1523633365743,-1114112,68,-56,-1,-1,0
1523633365783,-1179648,68,-56,-1,-1,0
1523633365783,-1245184,68,-56,-1,-1,0
1523633365783,-1245184,68,-56,-1,-1,0
1523633365783,-1245184,68,-56,-1,-1,0
1523633365783,-1245184,68,-56,-1,-1,0
1523633365822,-917504,68,-56,-1,-1,0
1523633365822,851968,68,-56,-1,-1,0
1523633365822,4980736,68,-56,-1,-1,0
1523633365822,8454144,68,-56,-1,-1,0
1523633365822,7405568,68,-56,-1,-1,0
1523633365862,2097152,69,-56,-1,-1,0
1523633365862,-2621440,69,-56,-1,-1,0
1523633365862,-4259840,69,-56,-1,-1,0
1523633365862,-3735552,69,-56,-1,-1,0
1523633365862,-2555904,69,-56,-1,-1,0
1523633365902,-1441792,69,-56,-1,-1,0
1523633365902,-851968,69,-56,-1,-1,0
1523633365902,-524288,69,-56,-1,-1,0
1523633365902,-327680,69,-56,-1,-1,0
1523633365902,-196608,69,-56,-1,-1,0
1523633365942,-196608,69,-56,-1,-1,0
1523633365942,-131072,69,-56,-1,-1,0
1523633365942,0,69,-56,-1,-1,0
1523633365942,196608,69,-56,-1,-1,0
1523633365942,262144,69,-56,-1,-1,0
1523633365982,393216,69,-56,-1,-1,0
1523633365982,655360,69,-56,-1,-1,0
1523633365982,917504,69,-56,-1,-1,0
1523633365982,1114112,69,-56,-1,-1,0
1523633365982,1376256,69,-56,-1,-1,0
1523633366022,1638400,69,-56,-1,-1,0
1523633366022,2031616,69,-56,-1,-1,0
1523633366022,2555904,69,-56,-1,-1,0
1523633366022,3080192,69,-56,-1,-1,0
1523633366022,3604480,69,-56,-1,-1,0
1523633366062,4063232,69,-56,-1,-1,0
1523633366062,4521984,69,-56,-1,-1,0
1523633366062,4980736,69,-56,-1,-1,0
1523633366062,5177344,69,-56,-1,-1,0
1523633366062,5177344,69,-56,-1,-1,0
1523633366102,4980736,69,-56,-1,-1,0
1523633366102,4587520,69,-56,-1,-1,0
1523633366102,3997696,69,-56,-1,-1,0
1523633366102,3145728,69,-56,-1,-1,0
1523633366102,2162688,69,-56,-1,-1,0
1523633366143,1179648,69,-56,-1,-1,0
1523633366143,524288,69,-56,-1,-1,0
1523633366143,0,69,-56,-1,-1,0
1523633366143,-327680,69,-56,-1,-1,0
1523633366143,-655360,69,-56,-1,-1,0
1523633366182,-786432,69,-56,-1,-1,0
1523633366182,-851968,69,-56,-1,-1,0
1523633366182,-917504,69,-56,-1,-1,0
1523633366182,-983040,69,-56,-1,-1,0
1523633366182,-983040,69,-56,-1,-1,0
1523633366222,-983040,69,-56,-1,-1,0
1523633366222,-983040,69,-56,-1,-1,0
1523633366222,-983040,69,-56,-1,-1,0
1523633366222,-1114112,69,-56,-1,-1,0
1523633366222,-1114112,69,-56,-1,-1,0
1523633366262,-1114112,69,-56,-1,-1,0
1523633366262,-1114112,69,-56,-1,-1,0
1523633366262,-1179648,69,-56,-1,-1,0
1523633366262,-1179648,69,-56,-1,-1,0
1523633366262,-1179648,69,-56,-1,-1,0
1523633366303,-1114112,69,-56,-1,-1,0
1523633366303,-1179648,69,-56,-1,-1,0
1523633366303,-1179648,69,-56,-1,-1,0
1523633366303,-1114112,69,-56,-1,-1,0
1523633366303,-1048576,69,-56,-1,-1,0
1523633366343,-983040,69,-56,-1,-1,0
1523633366343,-1114112,69,-56,-1,-1,0
1523633366343,-1245184,69,-56,-1,-1,0
1523633366343,-1245184,69,-56,-1,-1,0
1523633366343,-1245184,69,-56,-1,-1,0
1523633366384,-1245184,69,-56,-1,-1,0
1523633366384,-1245184,69,-56,-1,-1,0
1523633366384,-1245184,69,-56,-1,-1,0
1523633366384,-1310720,69,-56,-1,-1,0
1523633366384,-1376256,69,-56,-1,-1,0
1523633366422,-1245184,69,-56,-1,-1,0
1523633366422,-1179648,69,-56,-1,-1,0
1523633366422,-1048576,69,-56,-1,-1,0
1523633366422,-1048576,69,-56,-1,-1,0
1523633366422,-1179648,69,-56,-1,-1,0
1523633366462,-1310720,69,-56,-1,-1,0
1523633366462,-1441792,69,-56,-1,-1,0
1523633366462,-1572864,69,-56,-1,-1,0
1523633366462,-1572864,69,-56,-1,-1,0
1523633366462,-1572864,69,-56,-1,-1,0
1523633366503,-1507328,69,-56,-1,-1,0
1523633366503,-1441792,69,-56,-1,-1,0
1523633366503,-1441792,69,-56,-1,-1,0
1523633366503,-1376256,69,-56,-1,-1,0
1523633366503,-1376256,69,-56,-1,-1,0
1523633366542,-1441792,69,-56,-1,-1,0
1523633366542,-1507328,69,-56,-1,-1,0
1523633366542,-1572864,69,-56,-1,-1,0
1523633366542,-1114112,69,-56,-1,-1,0
1523633366542,1114112,69,-56,-1,-1,0
1523633366583,5439488,70,-56,-1,-1,0
1523633366583,8192000,70,-56,-1,-1,0
1523633366583,5767168,70,-56,-1,-1,0
1523633366583,131072,70,-56,-1,-1,0
1523633366583,-3932160,70,-56,-1,-1,0
1523633366623,-4915200,70,-56,-1,-1,0
1523633366623,-4259840,70,-56,-1,-1,0
1523633366623,-3014656,70,-56,-1,-1,0
1523633366623,-1835008,70,-56,-1,-1,0
1523633366623,-1179648,70,-56,-1,-1,0
1523633366662,-851968,70,-56,-1,-1,0
1523633366662,-720896,70,-56,-1,-1,0
1523633366662,-524288,70,-56,-1,-1,0
1523633366662,-458752,70,-56,-1,-1,0
1523633366662,-393216,70,-56,-1,-1,0
1523633366703,-262144,70,-56,-1,-1,0
1523633366703,-65536,70,-56,-1,-1,0
1523633366703,65536,70,-56,-1,-1,0
1523633366703,196608,70,-56,-1,-1,0
1523633366703,393216,70,-56,-1,-1,0
1523633366742,589824,70,-56,-1,-1,0
1523633366742,851968,70,-56,-1,-1,0
1523633366742,1114112,70,-56,-1,-1,0
1523633366742,1507328,70,-56,-1,-1,0
1523633366742,1900544,70,-56,-1,-1,0
1523633366783,2424832,70,-56,-1,-1,0
1523633366783,2883584,70,-56,-1,-1,0
1523633366783,3473408,70,-56,-1,-1,0
1523633366783,3997696,70,-56,-1,-1,0
1523633366783,4456448,70,-56,-1,-1,0
1523633366823,4784128,70,-56,-1,-1,0
1523633366823,4915200,70,-56,-1,-1,0
1523633366823,4849664,70,-56,-1,-1,0
1523633366823,4521984,70,-56,-1,-1,0
1523633366823,3932160,70,-56,-1,-1,0
1523633366863,3080192,70,-56,-1,-1,0
1523633366863,2162688,70,-56,-1,-1,0
1523633366863,1245184,70,-56,-1,-1,0
1523633366863,458752,70,-56,-1,-1,0
1523633366863,-65536,70,-56,-1,-1,0
1523633366903,-393216,70,-56,-1,-1,0
1523633366903,-655360,70,-56,-1,-1,0
1523633366903,-786432,70,-56,-1,-1,0
1523633366903,-786432,70,-56,-1,-1,0
1523633366903,-851968,70,-56,-1,-1,0
1523633366943,-1048576,70,-56,-1,-1,0
1523633366943,-1048576,70,-56,-1,-1,0
1523633366943,-983040,70,-56,-1,-1,0
1523633366943,-983040,70,-56,-1,-1,0
1523633366943,-983040,70,-56,-1,-1,0
1523633366982,-983040,70,-56,-1,-1,0
1523633366982,-917504,70,-56,-1,-1,0
1523633366982,-917504,70,-56,-1,-1,0
1523633366982,-917504,70,-56,-1,-1,0
1523633366982,-983040,70,-56,-1,-1,0
1523633367024,-983040,70,-56,-1,-1,0
1523633367024,-917504,70,-56,-1,-1,0
1523633367024,-720896,70,-56,-1,-1,0
1523633367024,-655360,70,-56,-1,-1,0
1523633367024,-786432,70,-56,-1,-1,0
1523633367063,-917504,70,-56,-1,-1,0
1523633367063,-851968,70,-56,-1,-1,0
1523633367063,-917504,70,-56,-1,-1,0
1523633367063,-917504,70,-56,-1,-1,0
1523633367063,-851968,70,-56,-1,-1,0
1523633367103,-786432,70,-56,-1,-1,0
1523633367103,-786432,70,-56,-1,-1,0
1523633367103,-786432,70,-56,-1,-1,0
1523633367103,-851968,70,-56,-1,-1,0
1523633367103,-786432,70,-56,-1,-1,0
1523633367143,-720896,70,-56,-1,-1,0
1523633367143,-720896,70,-56,-1,-1,0
1523633367143,-917504,70,-56,-1,-1,0
1523633367143,-1048576,70,-56,-1,-1,0
1523633367143,-1114112,70,-56,-1,-1,0
1523633367183,-983040,70,-56,-1,-1,0
1523633367183,-917504,70,-56,-1,-1,0
1523633367183,-983040,70,-56,-1,-1,0
1523633367183,-1179648,70,-56,-1,-1,0
1523633367183,-1245184,70,-56,-1,-1,0
1523633367223,-1376256,70,-56,-1,-1,0
1523633367223,-1310720,70,-56,-1,-1,0
1523633367223,-1310720,70,-56,-1,-1,0
1523633367223,-1114112,70,-56,-1,-1,0
1523633367223,-1114112,70,-56,-1,-1,0
1523633367262,-1245184,71,-56,-1,-1,0
1523633367262,-786432,71,-56,-1,-1,0
1523633367262,1310720,71,-56,-1,-1,0
1523633367262,5177344,71,-56,-1,-1,0
1523633367262,7471104,71,-56,-1,-1,0
1523633367303,5177344,71,-56,-1,-1,0
1523633367303,65536,71,-56,-1,-1,0
1523633367303,-3473408,71,-56,-1,-1,0
1523633367303,-4390912,71,-56,-1,-1,0
1523633367303,-3801088,71,-56,-1,-1,0
1523633367343,-2621440,71,-56,-1,-1,0
1523633367343,-1703936,71,-56,-1,-1,0
1523633367343,-1310720,71,-56,-1,-1,0
1523633367343,-917504,71,-56,-1,-1,0
1523633367343,-589824,71,-56,-1,-1,0
1523633367383,-524288,71,-56,-1,-1,0
1523633367383,-524288,71,-56,-1,-1,0
1523633367383,-393216,71,-56,-1,-1,0
1523633367383,-262144,71,-56,-1,-1,0
1523633367383,-196608,71,-56,-1,-1,0
1523633367423,-131072,71,-56,-1,-1,0
1523633367423,0,71,-56,-1,-1,0
1523633367423,131072,71,-56,-1,-1,0
1523633367423,393216,71,-56,-1,-1,0
1523633367423,786432,71,-56,-1,-1,0
1523633367463,983040,71,-56,-1,-1,0
1523633367463,1048576,71,-56,-1,-1,0
1523633367463,1310720,71,-56,-1,-1,0
1523633367463,1835008,71,-56,-1,-1,0
1523633367463,2359296,71,-56,-1,-1,0
1523633367503,2752512,71,-56,-1,-1,0
1523633367503,3145728,71,-56,-1,-1,0
1523633367503,3538944,71,-56,-1,-1,0
1523633367503,3866624,71,-56,-1,-1,0
1523633367503,3997696,71,-56,-1,-1,0
1523633367543,3801088,71,-56,-1,-1,0
1523633367543,3473408,71,-56,-1,-1,0
1523633367543,2949120,71,-56,-1,-1,0
1523633367543,2228224,71,-56,-1,-1,0
1523633367543,1376256,71,-56,-1,-1,0
1523633367583,655360,71,-56,-1,-1,0
1523633367583,196608,71,-56,-1,-1,0
1523633367583,-196608,71,-56,-1,-1,0
1523633367583,-589824,71,-56,-1,-1,0
1523633367583,-851968,71,-56,-1,-1,0
1523633367623,-851968,71,-56,-1,-1,0
1523633367623,-1048576,71,-56,-1,-1,0
1523633367623,-1048576,71,-56,-1,-1,0
1523633367623,-1048576,71,-56,-1,-1,0
1523633367623,-1179648,71,-56,-1,-1,0
1523633367664,-1245184,71,-56,-1,-1,0
1523633367664,-1179648,71,-56,-1,-1,0
1523633367664,-1179648,71,-56,-1,-1,0
1523633367664,-1179648,71,-56,-1,-1,0
1523633367664,-1179648,71,-56,-1,-1,0
1523633367703,-1114112,71,-56,-1,-1,0
1523633367703,-1179648,71,-56,-1,-1,0
1523633367703,-1179648,71,-56,-1,-1,0
1523633367703,-1179648,71,-56,-1,-1,0
1523633367703,-1179648,71,-56,-1,-1,0
1523633367743,-1179648,71,-56,-1,-1,0
1523633367743,-1114112,71,-56,-1,-1,0
1523633367743,-1114112,71,-56,-1,-1,0
1523633367743,-1179648,71,-56,-1,-1,0
1523633367743,-1179648,71,-56,-1,-1,0
1523633367783,-1179648,71,-56,-1,-1,0
1523633367783,-1179648,71,-56,-1,-1,0
1523633367783,-1179648,71,-56,-1,-1,0
1523633367783,-1179648,71,-56,-1,-1,0
1523633367783,-1114112,71,-56,-1,-1,0
1523633367823,-1114112,71,-56,-1,-1,0
1523633367823,-1048576,71,-56,-1,-1,0
1523633367823,-1048576,71,-56,-1,-1,0
1523633367823,-1048576,71,-56,-1,-1,0
1523633367823,-1048576,71,-56,-1,-1,0
1523633367863,-983040,71,-56,-1,-1,0
1523633367863,-1048576,71,-56,-1,-1,0
1523633367863,-1310720,71,-56,-1,-1,0
1523633367863,-1441792,71,-56,-1,-1,0
1523633367863,-1376256,71,-56,-1,-1,0
1523633367903,-1245184,71,-56,-1,-1,0
1523633367903,-1245184,71,-56,-1,-1,0
1523633367903,-1245184,71,-56,-1,-1,0
1523633367903,-1245184,71,-56,-1,-1,0
1523633367903,-1245184,71,-56,-1,-1,0
1523633367943,-1376256,71,-56,-1,-1,0
1523633367943,-1441792,71,-56,-1,-1,0
1523633367943,-1376256,71,-56,-1,-1,0
1523633367943,-1376256,71,-56,-1,-1,0
1523633367943,-917504,71,-56,-1,-1,0
1523633367983,1179648,71,-56,-1,-1,0
1523633367983,4980736,71,-56,-1,-1,0
1523633367983,7143424,71,-56,-1,-1,0
1523633367983,4915200,71,-56,-1,-1,0
1523633367983,131072,71,-56,-1,-1,0
1523633368023,-3342336,71,-56,-1,-1,0
1523633368023,-4325376,71,-56,-1,-1,0
1523633368023,-3801088,71,-56,-1,-1,0
1523633368023,-2752512,71,-56,-1,-1,0
1523633368023,-1703936,71,-56,-1,-1,0
1523633368063,-983040,71,-56,-1,-1,0
1523633368063,-720896,71,-56,-1,-1,0
1523633368063,-720896,71,-56,-1,-1,0
1523633368063,-655360,71,-56,-1,-1,0
1523633368063,-458752,71,-56,-1,-1,0
1523633368103,-262144,71,-56,-1,-1,0
1523633368103,-327680,71,-56,-1,-1,0
1523633368103,-131072,71,-56,-1,-1,0
1523633368103,65536,71,-56,-1,-1,0
1523633368103,262144,71,-56,-1,-1,0
1523633368143,262144,71,-56,-1,-1,0
1523633368143,327680,71,-56,-1,-1,0
1523633368143,589824,71,-56,-1,-1,0
1523633368143,851968,71,-56,-1,-1,0
1523633368143,1245184,71,-56,-1,-1,0
1523633368182,1638400,71,-56,-1,-1,0
1523633368182,2162688,71,-56,-1,-1,0
1523633368182,2555904,71,-56,-1,-1,0
1523633368182,3014656,71,-56,-1,-1,0
1523633368182,3342336,71,-56,-1,-1,0
1523633368222,3735552,71,-56,-1,-1,0
1523633368222,3932160,71,-56,-1,-1,0
1523633368222,3866624,71,-56,-1,-1,0
1523633368222,3801088,71,-56,-1,-1,0
1523633368222,3604480,71,-56,-1,-1,0
1523633368262,3211264,71,-56,-1,-1,0
1523633368262,2490368,71,-56,-1,-1,0
1523633368262,1572864,71,-56,-1,-1,0
1523633368262,720896,71,-56,-1,-1,0
1523633368262,196608,71,-56,-1,-1,0
1523633368304,-131072,71,-56,-1,-1,0
1523633368304,-393216,71,-56,-1,-1,0
1523633368304,-524288,71,-56,-1,-1,0
1523633368304,-655360,71,-56,-1,-1,0
1523633368304,-851968,71,-56,-1,-1,0
1523633368342,-983040,71,-56,-1,-1,0
1523633368342,-1048576,71,-56,-1,-1,0
1523633368342,-1048576,71,-56,-1,-1,0
1523633368342,-917504,71,-56,-1,-1,0
1523633368342,-851968,71,-56,-1,-1,0
1523633368382,-851968,71,-56,-1,-1,0
1523633368382,-851968,71,-56,-1,-1,0
1523633368382,-983040,71,-56,-1,-1,0
1523633368382,-1048576,71,-56,-1,-1,0
1523633368382,-1048576,71,-56,-1,-1,0
1523633368422,-917504,71,-56,-1,-1,0
1523633368422,-917504,71,-56,-1,-1,0
1523633368422,-917504,71,-56,-1,-1,0
1523633368422,-851968,71,-56,-1,-1,0
1523633368422,-851968,71,-56,-1,-1,0
1523633368462,-983040,71,-56,-1,-1,0
1523633368462,-917504,71,-56,-1,-1,0
1523633368462,-851968,71,-56,-1,-1,0
1523633368462,-851968,71,-56,-1,-1,0
1523633368462,-917504,71,-56,-1,-1,0
1523633368502,-983040,71,-56,-1,-1,0
1523633368502,-983040,71,-56,-1,-1,0
1523633368502,-917504,71,-56,-1,-1,0
1523633368502,-851968,71,-56,-1,-1,0
1523633368502,-786432,71,-56,-1,-1,0
1523633368542,-786432,71,-56,-1,-1,0
1523633368542,-786432,71,-56,-1,-1,0
1523633368542,-983040,71,-56,-1,-1,0
1523633368542,-1114112,71,-56,-1,-1,0
1523633368542,-1245184,71,-56,-1,-1,0
1523633368582,-1245184,71,-56,-1,-1,0
1523633368582,-1114112,71,-56,-1,-1,0
1523633368582,-1048576,71,-56,-1,-1,0
1523633368582,-1179648,71,-56,-1,-1,0
1523633368582,-1245184,71,-56,-1,-1,0
1523633368622,-1310720,71,-56,-1,-1,0
1523633368622,-1245184,71,-56,-1,-1,0
1523633368622,-1245184,71,-56,-1,-1,0
1523633368622,-1179648,71,-56,-1,-1,0
1523633368622,-1179648,71,-56,-1,-1,0
1523633368662,-1048576,73,-56,-1,-1,0
1523633368662,131072,73,-56,-1,-1,0
1523633368662,3538944,73,-56,-1,-1,0
1523633368662,7077888,73,-56,-1,-1,0
1523633368662,6881280,73,-56,-1,-1,0
1523633368702,2555904,73,-56,-1,-1,0
1523633368702,-1966080,73,-56,-1,-1,0
1523633368702,-4128768,73,-56,-1,-1,0
1523633368702,-4063232,73,-56,-1,-1,0
1523633368702,-3080192,73,-56,-1,-1,0
1523633368742,-1900544,73,-56,-1,-1,0
1523633368742,-1179648,73,-56,-1,-1,0
1523633368742,-786432,73,-56,-1,-1,0
1523633368742,-589824,73,-56,-1,-1,0
1523633368742,-393216,73,-56,-1,-1,0
1523633368782,-262144,73,-56,-1,-1,0
1523633368782,-131072,73,-56,-1,-1,0
1523633368782,-65536,73,-56,-1,-1,0
1523633368782,0,73,-56,-1,-1,0
1523633368782,0,73,-56,-1,-1,0
1523633368822,131072,73,-56,-1,-1,0
1523633368822,262144,73,-56,-1,-1,0
1523633368822,458752,73,-56,-1,-1,0
1523633368822,655360,73,-56,-1,-1,0
1523633368822,1048576,73,-56,-1,-1,0
1523633368862,1441792,73,-56,-1,-1,0
1523633368862,1769472,73,-56,-1,-1,0
1523633368862,2097152,73,-56,-1,-1,0
1523633368862,2490368,73,-56,-1,-1,0
1523633368862,3014656,73,-56,-1,-1,0
1523633368902,3473408,73,-56,-1,-1,0
1523633368902,3801088,73,-56,-1,-1,0
1523633368902,4063232,73,-56,-1,-1,0
1523633368902,4194304,73,-56,-1,-1,0
1523633368902,4194304,73,-56,-1,-1,0
1523633368944,3932160,73,-56,-1,-1,0
1523633368944,3407872,73,-56,-1,-1,0
1523633368944,2686976,73,-56,-1,-1,0
1523633368944,1900544,73,-56,-1,-1,0
1523633368944,1114112,73,-56,-1,-1,0
1523633368982,458752,73,-56,-1,-1,0
1523633368982,0,73,-56,-1,-1,0
1523633368982,-262144,73,-56,-1,-1,0
1523633368982,-524288,73,-56,-1,-1,0
1523633368982,-655360,73,-56,-1,-1,0
1523633369022,-786432,73,-56,-1,-1,0
1523633369022,-786432,73,-56,-1,-1,0
1523633369022,-851968,73,-56,-1,-1,0
1523633369022,-917504,73,-56,-1,-1,0
1523633369022,-851968,73,-56,-1,-1,0
1523633369062,-786432,73,-56,-1,-1,0
1523633369062,-786432,73,-56,-1,-1,0
1523633369062,-917504,73,-56,-1,-1,0
1523633369062,-983040,73,-56,-1,-1,0
1523633369062,-983040,73,-56,-1,-1,0
1523633369102,-917504,73,-56,-1,-1,0
1523633369102,-851968,73,-56,-1,-1,0
1523633369102,-851968,73,-56,-1,-1,0
1523633369102,-851968,73,-56,-1,-1,0
1523633369102,-917504,73,-56,-1,-1,0
1523633369142,-917504,73,-56,-1,-1,0
1523633369142,-851968,73,-56,-1,-1,0
1523633369142,-786432,73,-56,-1,-1,0
1523633369142,-851968,73,-56,-1,-1,0
1523633369142,-983040,73,-56,-1,-1,0
1523633369182,-983040,73,-56,-1,-1,0
1523633369182,-917504,73,-56,-1,-1,0
1523633369182,-917504,73,-56,-1,-1,0
1523633369182,-917504,73,-56,-1,-1,0
1523633369182,-983040,73,-56,-1,-1,0
1523633369222,-1048576,73,-56,-1,-1,0
1523633369222,-1114112,73,-56,-1,-1,0
1523633369222,-983040,73,-56,-1,-1,0
1523633369222,-851968,73,-56,-1,-1,0
1523633369222,-786432,73,-56,-1,-1,0
1523633369262,-851968,73,-56,-1,-1,0
1523633369262,-1048576,73,-56,-1,-1,0
1523633369262,-1114112,73,-56,-1,-1,0
1523633369262,-1114112,73,-56,-1,-1,0
1523633369262,-1048576,73,-56,-1,-1,0
1523633369302,-1114112,73,-56,-1,-1,0
1523633369302,-1179648,73,-56,-1,-1,0
1523633369302,-1245184,73,-56,-1,-1,0
1523633369302,-1179648,73,-56,-1,-1,0
1523633369302,-1179648,73,-56,-1,-1,0
1523633369342,-1179648,73,-56,-1,-1,0
1523633369342,-1179648,73,-56,-1,-1,0
1523633369342,-1179648,73,-56,-1,-1,0
1523633369342,-1179648,73,-56,-1,-1,0
1523633369342,-1179648,73,-56,-1,-1,0
1523633369382,-131072,75,-56,-1,-1,0
1523633369382,2949120,75,-56,-1,-1,0
1523633369382,6815744,75,-56,-1,-1,0
1523633369382,7405568,75,-56,-1,-1,0
1523633369382,3538944,75,-56,-1,-1,0
1523633369422,-1310720,75,-56,-1,-1,0
1523633369422,-3801088,75,-56,-1,-1,0
1523633369422,-3932160,75,-56,-1,-1,0
1523633369422,-2949120,75,-56,-1,-1,0
1523633369422,-1769472,75,-56,-1,-1,0
1523633369462,-983040,75,-56,-1,-1,0
1523633369462,-720896,75,-56,-1,-1,0
1523633369462,-524288,75,-56,-1,-1,0
1523633369462,-393216,75,-56,-1,-1,0
1523633369462,-327680,75,-56,-1,-1,0
1523633369504,-196608,75,-56,-1,-1,0
1523633369504,-65536,75,-56,-1,-1,0
1523633369504,0,75,-56,-1,-1,0
1523633369504,65536,75,-56,-1,-1,0
1523633369504,196608,75,-56,-1,-1,0
1523633369542,327680,75,-56,-1,-1,0
1523633369542,393216,75,-56,-1,-1,0
1523633369542,589824,75,-56,-1,-1,0
1523633369542,917504,75,-56,-1,-1,0
1523633369542,1245184,75,-56,-1,-1,0
1523633369584,1638400,75,-56,-1,-1,0
1523633369584,2097152,75,-56,-1,-1,0
1523633369584,2555904,75,-56,-1,-1,0
1523633369584,2949120,75,-56,-1,-1,0
1523633369584,3342336,75,-56,-1,-1,0
1523633369622,3670016,75,-56,-1,-1,0
1523633369622,3997696,75,-56,-1,-1,0
1523633369622,4128768,75,-56,-1,-1,0
1523633369622,4128768,75,-56,-1,-1,0
1523633369622,3866624,75,-56,-1,-1,0
1523633369662,3473408,75,-56,-1,-1,0
1523633369662,2818048,75,-56,-1,-1,0
1523633369662,2031616,75,-56,-1,-1,0
1523633369662,1245184,75,-56,-1,-1,0
1523633369662,655360,75,-56,-1,-1,0
1523633369702,196608,75,-56,-1,-1,0
1523633369702,-196608,75,-56,-1,-1,0
1523633369702,-458752,75,-56,-1,-1,0
1523633369702,-589824,75,-56,-1,-1,0
1523633369702,-720896,75,-56,-1,-1,0
1523633369742,-720896,75,-56,-1,-1,0
1523633369742,-786432,75,-56,-1,-1,0
1523633369742,-851968,75,-56,-1,-1,0
1523633369742,-917504,75,-56,-1,-1,0
1523633369742,-917504,75,-56,-1,-1,0
1523633369782,-917504,75,-56,-1,-1,0
1523633369782,-917504,75,-56,-1,-1,0
1523633369782,-851968,75,-56,-1,-1,0
1523633369782,-851968,75,-56,-1,-1,0
1523633369782,-917504,75,-56,-1,-1,0
1523633369822,-917504,75,-56,-1,-1,0
1523633369822,-917504,75,-56,-1,-1,0
1523633369822,-917504,75,-56,-1,-1,0
1523633369822,-851968,75,-56,-1,-1,0
1523633369822,-851968,75,-56,-1,-1,0
1523633369862,-917504,75,-56,-1,-1,0
1523633369862,-983040,75,-56,-1,-1,0
1523633369862,-917504,75,-56,-1,-1,0
1523633369862,-851968,75,-56,-1,-1,0
1523633369862,-786432,75,-56,-1,-1,0
1523633369902,-851968,75,-56,-1,-1,0
1523633369902,-917504,75,-56,-1,-1,0
1523633369902,-983040,75,-56,-1,-1,0
1523633369902,-917504,75,-56,-1,-1,0
1523633369902,-917504,75,-56,-1,-1,0
1523633369942,-851968,75,-56,-1,-1,0
1523633369942,-786432,75,-56,-1,-1,0
1523633369942,-786432,75,-56,-1,-1,0
1523633369942,-917504,75,-56,-1,-1,0
1523633369942,-983040,75,-56,-1,-1,0
1523633369982,-1114112,75,-56,-1,-1,0
1523633369982,-1114112,75,-56,-1,-1,0
1523633369982,-1179648,75,-56,-1,-1,0
1523633369982,-1179648,75,-56,-1,-1,0
1523633369982,-1245184,75,-56,-1,-1,0
1523633370022,-1245184,75,-56,-1,-1,0
1523633370022,-1245184,75,-56,-1,-1,0
1523633370022,-1245184,75,-56,-1,-1,0
1523633370022,-1310720,75,-56,-1,-1,0
1523633370022,-1310720,75,-56,-1,-1,0
1523633370062,-1245184,77,-56,-1,-1,0
1523633370062,-1310720,77,-56,-1,-1,0
1523633370062,-655360,77,-56,-1,-1,0
1523633370062,1572864,77,-56,-1,-1,0
1523633370062,5242880,77,-56,-1,-1,0
1523633370102,6946816,77,-56,-1,-1,0
1523633370102,4325376,77,-56,-1,-1,0
1523633370102,-393216,77,-56,-1,-1,0
1523633370102,-3538944,77,-56,-1,-1,0
1523633370102,-4259840,77,-56,-1,-1,0
1523633370142,-3473408,77,-56,-1,-1,0
1523633370142,-2359296,77,-56,-1,-1,0
1523633370142,-1441792,77,-56,-1,-1,0
1523633370142,-983040,77,-56,-1,-1,0
1523633370142,-720896,77,-56,-1,-1,0
1523633370182,-524288,77,-56,-1,-1,0
1523633370182,-458752,77,-56,-1,-1,0
1523633370182,-393216,77,-56,-1,-1,0
1523633370182,-262144,77,-56,-1,-1,0
1523633370182,-131072,77,-56,-1,-1,0
1523633370224,-65536,77,-56,-1,-1,0
1523633370224,0,77,-56,-1,-1,0
1523633370224,196608,77,-56,-1,-1,0
1523633370224,393216,77,-56,-1,-1,0
1523633370224,589824,77,-56,-1,-1,0
1523633370262,851968,77,-56,-1,-1,0
1523633370262,1114112,77,-56,-1,-1,0
1523633370262,1441792,77,-56,-1,-1,0
1523633370262,1769472,77,-56,-1,-1,0
1523633370262,2228224,77,-56,-1,-1,0
1523633370302,2621440,77,-56,-1,-1,0
1523633370302,3014656,77,-56,-1,-1,0
1523633370302,3407872,77,-56,-1,-1,0
1523633370302,3735552,77,-56,-1,-1,0
1523633370302,3997696,77,-56,-1,-1,0
1523633370342,4063232,77,-56,-1,-1,0
1523633370342,3866624,77,-56,-1,-1,0
1523633370342,3538944,77,-56,-1,-1,0
1523633370342,3014656,77,-56,-1,-1,0
1523633370342,2228224,77,-56,-1,-1,0
1523633370382,1441792,77,-56,-1,-1,0
1523633370382,720896,77,-56,-1,-1,0
1523633370382,196608,77,-56,-1,-1,0
1523633370382,-65536,77,-56,-1,-1,0
1523633370382,-327680,77,-56,-1,-1,0
1523633370422,-524288,77,-56,-1,-1,0
1523633370422,-655360,77,-56,-1,-1,0
1523633370422,-720896,77,-56,-1,-1,0
1523633370422,-720896,77,-56,-1,-1,0
1523633370422,-786432,77,-56,-1,-1,0
1523633370462,-786432,77,-56,-1,-1,0
1523633370462,-786432,77,-56,-1,-1,0
1523633370462,-786432,77,-56,-1,-1,0
1523633370462,-786432,77,-56,-1,-1,0
1523633370462,-786432,77,-56,-1,-1,0
1523633370502,-720896,77,-56,-1,-1,0
1523633370502,-720896,77,-56,-1,-1,0
1523633370502,-720896,77,-56,-1,-1,0
1523633370502,-720896,77,-56,-1,-1,0
1523633370502,-720896,77,-56,-1,-1,0
1523633370542,-720896,77,-56,-1,-1,0
1523633370542,-786432,77,-56,-1,-1,0
1523633370542,-786432,77,-56,-1,-1,0
1523633370542,-786432,77,-56,-1,-1,0
1523633370542,-786432,77,-56,-1,-1,0
1523633370584,-786432,77,-56,-1,-1,0
1523633370584,-786432,77,-56,-1,-1,0
1523633370584,-851968,77,-56,-1,-1,0
1523633370584,-917504,77,-56,-1,-1,0
1523633370584,-917504,77,-56,-1,-1,0
1523633370622,-851968,77,-56,-1,-1,0
1523633370622,-786432,77,-56,-1,-1,0
1523633370622,-786432,77,-56,-1,-1,0
1523633370622,-786432,77,-56,-1,-1,0
1523633370622,-786432,77,-56,-1,-1,0
1523633370662,-851968,77,-56,-1,-1,0
1523633370662,-983040,77,-56,-1,-1,0
1523633370662,-1048576,77,-56,-1,-1,0
1523633370662,-1048576,77,-56,-1,-1,0
1523633370662,-1114112,77,-56,-1,-1,0
1523633370702,-1179648,77,-56,-1,-1,0
1523633370702,-1179648,77,-56,-1,-1,0
1523633370702,-1179648,77,-56,-1,-1,0
1523633370702,-1179648,77,-56,-1,-1,0
1523633370702,-1179648,77,-56,-1,-1,0
1523633370742,-1179648,77,-56,-1,-1,0
1523633370742,-1114112,77,-56,-1,-1,0
1523633370742,-1179648,77,-56,-1,-1,0
1523633370742,-1179648,77,-56,-1,-1,0
1523633370742,-393216,77,-56,-1,-1,0
1523633370782,2162688,79,-56,-1,-1,0
1523633370782,5898240,79,-56,-1,-1,0
1523633370782,7143424,79,-56,-1,-1,0
1523633370782,3866624,79,-56,-1,-1,0
1523633370782,-983040,79,-56,-1,-1,0
1523633370822,-3866624,79,-56,-1,-1,0
1523633370822,-4259840,79,-56,-1,-1,0
1523633370822,-3407872,79,-56,-1,-1,0
1523633370822,-2293760,79,-56,-1,-1,0
1523633370822,-1310720,79,-56,-1,-1,0
1523633370864,-851968,79,-56,-1,-1,0
1523633370864,-589824,79,-56,-1,-1,0
1523633370864,-458752,79,-56,-1,-1,0
1523633370864,-327680,79,-56,-1,-1,0
1523633370864,-196608,79,-56,-1,-1,0
1523633370902,-131072,79,-56,-1,-1,0
1523633370902,-65536,79,-56,-1,-1,0
1523633370902,0,79,-56,-1,-1,0
1523633370902,131072,79,-56,-1,-1,0
1523633370902,262144,79,-56,-1,-1,0
1523633370942,458752,79,-56,-1,-1,0
1523633370942,655360,79,-56,-1,-1,0
1523633370942,917504,79,-56,-1,-1,0
1523633370942,1245184,79,-56,-1,-1,0
1523633370942,1572864,79,-56,-1,-1,0
1523633370982,1900544,79,-56,-1,-1,0
1523633370982,2293760,79,-56,-1,-1,0
1523633370982,2752512,79,-56,-1,-1,0
1523633370982,3211264,79,-56,-1,-1,0
1523633370982,3604480,79,-56,-1,-1,0
1523633371022,3866624,79,-56,-1,-1,0
1523633371022,3997696,79,-56,-1,-1,0
1523633371022,3932160,79,-56,-1,-1,0
1523633371022,3670016,79,-56,-1,-1,0
1523633371022,3276800,79,-56,-1,-1,0
1523633371062,2752512,79,-56,-1,-1,0
1523633371062,1966080,79,-56,-1,-1,0
1523633371062,1179648,79,-56,-1,-1,0
1523633371062,524288,79,-56,-1,-1,0
1523633371062,0,79,-56,-1,-1,0
1523633371102,-262144,79,-56,-1,-1,0
1523633371102,-458752,79,-56,-1,-1,0
1523633371102,-655360,79,-56,-1,-1,0
1523633371102,-786432,79,-56,-1,-1,0
1523633371102,-851968,79,-56,-1,-1,0
1523633371142,-917504,79,-56,-1,-1,0
1523633371142,-917504,79,-56,-1,-1,0
1523633371142,-917504,79,-56,-1,-1,0
1523633371142,-983040,79,-56,-1,-1,0
1523633371142,-983040,79,-56,-1,-1,0
1523633371182,-983040,79,-56,-1,-1,0
1523633371182,-917504,79,-56,-1,-1,0
1523633371182,-851968,79,-56,-1,-1,0
1523633371182,-851968,79,-56,-1,-1,0
1523633371182,-786432,79,-56,-1,-1,0
1523633371222,-851968,79,-56,-1,-1,0
1523633371222,-851968,79,-56,-1,-1,0
1523633371222,-917504,79,-56,-1,-1,0
1523633371222,-917504,79,-56,-1,-1,0
1523633371222,-917504,79,-56,-1,-1,0
1523633371262,-917504,79,-56,-1,-1,0
1523633371262,-917504,79,-56,-1,-1,0
1523633371262,-917504,79,-56,-1,-1,0
1523633371262,-983040,79,-56,-1,-1,0
1523633371262,-1048576,79,-56,-1,-1,0
1523633371302,-1114112,79,-56,-1,-1,0
1523633371302,-1114112,79,-56,-1,-1,0
1523633371302,-1114112,79,-56,-1,-1,0
1523633371302,-1048576,79,-56,-1,-1,0
1523633371302,-983040,79,-56,-1,-1,0
1523633371342,-983040,79,-56,-1,-1,0
1523633371342,-917504,79,-56,-1,-1,0
1523633371342,-917504,79,-56,-1,-1,0
1523633371342,-1048576,79,-56,-1,-1,0
1523633371342,-1179648,79,-56,-1,-1,0
1523633371382,-1245184,79,-56,-1,-1,0
1523633371382,-1245184,79,-56,-1,-1,0
1523633371382,-1179648,79,-56,-1,-1,0
1523633371382,-1179648,79,-56,-1,-1,0
1523633371382,-1245184,79,-56,-1,-1,0
1523633371422,-1310720,79,-56,-1,-1,0
1523633371422,-1310720,79,-56,-1,-1,0
1523633371422,-1245184,79,-56,-1,-1,0
1523633371422,-1179648,79,-56,-1,-1,0
1523633371422,-1179648,79,-56,-1,-1,0
1523633371462,-1310720,81,-56,-1,-1,0
1523633371462,-983040,81,-56,-1,-1,0
1523633371462,786432,81,-56,-1,-1,0
1523633371462,4521984,81,-56,-1,-1,0
1523633371462,7405568,81,-56,-1,-1,0
1523633371504,6094848,81,-56,-1,-1,0
1523633371504,1179648,81,-56,-1,-1,0
1523633371504,-2949120,81,-56,-1,-1,0
1523633371504,-4259840,81,-56,-1,-1,0
1523633371504,-3801088,81,-56,-1,-1,0
1523633371542,-2686976,81,-56,-1,-1,0
1523633371542,-1638400,81,-56,-1,-1,0
1523633371542,-1048576,81,-56,-1,-1,0
1523633371542,-786432,81,-56,-1,-1,0
1523633371542,-655360,81,-56,-1,-1,0
1523633371582,-524288,81,-56,-1,-1,0
1523633371582,-393216,81,-56,-1,-1,0
1523633371582,-262144,81,-56,-1,-1,0
1523633371582,-196608,81,-56,-1,-1,0
1523633371582,-65536,81,-56,-1,-1,0
1523633371622,0,81,-56,-1,-1,0
1523633371622,131072,81,-56,-1,-1,0
1523633371622,327680,81,-56,-1,-1,0
1523633371622,524288,81,-56,-1,-1,0
1523633371622,786432,81,-56,-1,-1,0
1523633371662,1114112,81,-56,-1,-1,0
1523633371662,1376256,81,-56,-1,-1,0
1523633371662,1703936,81,-56,-1,-1,0
1523633371662,2097152,81,-56,-1,-1,0
1523633371662,2555904,81,-56,-1,-1,0
1523633371702,3014656,81,-56,-1,-1,0
1523633371702,3407872,81,-56,-1,-1,0
1523633371702,3735552,81,-56,-1,-1,0
1523633371702,3932160,81,-56,-1,-1,0
1523633371702,3932160,81,-56,-1,-1,0
1523633371742,3801088,81,-56,-1,-1,0
1523633371742,3473408,81,-56,-1,-1,0
1523633371742,2949120,81,-56,-1,-1,0
1523633371742,2293760,81,-56,-1,-1,0
1523633371742,1507328,81,-56,-1,-1,0
1523633371782,786432,81,-56,-1,-1,0
1523633371782,262144,81,-56,-1,-1,0
1523633371782,-131072,81,-56,-1,-1,0
1523633371782,-393216,81,-56,-1,-1,0
1523633371782,-524288,81,-56,-1,-1,0
1523633371822,-655360,81,-56,-1,-1,0
1523633371822,-720896,81,-56,-1,-1,0
1523633371822,-851968,81,-56,-1,-1,0
1523633371822,-851968,81,-56,-1,-1,0
1523633371822,-851968,81,-56,-1,-1,0
1523633371862,-851968,81,-56,-1,-1,0
1523633371862,-786432,81,-56,-1,-1,0
1523633371862,-786432,81,-56,-1,-1,0
1523633371862,-851968,81,-56,-1,-1,0
1523633371862,-851968,81,-56,-1,-1,0
1523633371902,-851968,81,-56,-1,-1,0
1523633371902,-786432,81,-56,-1,-1,0
1523633371902,-786432,81,-56,-1,-1,0
1523633371902,-786432,81,-56,-1,-1,0
1523633371902,-851968,81,-56,-1,-1,0
1523633371942,-851968,81,-56,-1,-1,0
1523633371942,-851968,81,-56,-1,-1,0
1523633371942,-786432,81,-56,-1,-1,0
1523633371942,-851968,81,-56,-1,-1,0
1523633371942,-851968,81,-56,-1,-1,0
1523633371982,-917504,81,-56,-1,-1,0
1523633371982,-917504,81,-56,-1,-1,0
1523633371982,-983040,81,-56,-1,-1,0
1523633371982,-1048576,81,-56,-1,-1,0
1523633371982,-1048576,81,-56,-1,-1,0
1523633372022,-983040,81,-56,-1,-1,0
1523633372022,-983040,81,-56,-1,-1,0
1523633372022,-983040,81,-56,-1,-1,0
1523633372022,-917504,81,-56,-1,-1,0
1523633372022,-851968,81,-56,-1,-1,0
1523633372062,-851968,81,-56,-1,-1,0
1523633372062,-851968,81,-56,-1,-1,0
1523633372062,-983040,81,-56,-1,-1,0
1523633372062,-1114112,81,-56,-1,-1,0
1523633372062,-1179648,81,-56,-1,-1,0
1523633372102,-1179648,81,-56,-1,-1,0
1523633372102,-1179648,81,-56,-1,-1,0
1523633372102,-1114112,81,-56,-1,-1,0
1523633372102,-1179648,81,-56,-1,-1,0
1523633372102,-1114112,81,-56,-1,-1,0
1523633372144,-1114112,84,-56,-1,-1,0
1523633372144,-1114112,84,-56,-1,-1,0
1523633372144,-1114112,84,-56,-1,-1,0
1523633372144,-1179648,84,-56,-1,-1,0
1523633372144,-589824,84,-56,-1,-1,0
1523633372182,1769472,84,-56,-1,-1,0
1523633372182,5636096,84,-56,-1,-1,0
1523633372182,7602176,84,-56,-1,-1,0
1523633372182,4980736,84,-56,-1,-1,0
1523633372182,0,84,-56,-1,-1,0
1523633372222,-3407872,84,-56,-1,-1,0
1523633372222,-4063232,84,-56,-1,-1,0
1523633372222,-3276800,84,-56,-1,-1,0
1523633372222,-2097152,84,-56,-1,-1,0
1523633372222,-1245184,84,-56,-1,-1,0
1523633372262,-851968,84,-56,-1,-1,0
1523633372262,-589824,84,-56,-1,-1,0
1523633372262,-393216,84,-56,-1,-1,0
1523633372262,-327680,84,-56,-1,-1,0
1523633372262,-196608,84,-56,-1,-1,0
1523633372302,-131072,84,-56,-1,-1,0
1523633372302,-65536,84,-56,-1,-1,0
1523633372302,0,84,-56,-1,-1,0
1523633372302,131072,84,-56,-1,-1,0
1523633372302,327680,84,-56,-1,-1,0
1523633372342,524288,84,-56,-1,-1,0
1523633372342,720896,84,-56,-1,-1,0
1523633372342,851968,84,-56,-1,-1,0
1523633372342,1179648,84,-56,-1,-1,0
1523633372342,1572864,84,-56,-1,-1,0
1523633372382,1966080,84,-56,-1,-1,0
1523633372382,2359296,84,-56,-1,-1,0
1523633372382,2752512,84,-56,-1,-1,0
1523633372382,3080192,84,-56,-1,-1,0
1523633372382,3473408,84,-56,-1,-1,0
1523633372422,3801088,84,-56,-1,-1,0
1523633372422,3866624,84,-56,-1,-1,0
1523633372422,3932160,84,-56,-1,-1,0
1523633372422,3866624,84,-56,-1,-1,0
1523633372422,3473408,84,-56,-1,-1,0
1523633372462,2818048,84,-56,-1,-1,0
1523633372462,2097152,84,-56,-1,-1,0
1523633372462,1441792,84,-56,-1,-1,0
1523633372462,720896,84,-56,-1,-1,0
1523633372462,131072,84,-56,-1,-1,0
1523633372502,-65536,84,-56,-1,-1,0
1523633372502,-327680,84,-56,-1,-1,0
1523633372502,-589824,84,-56,-1,-1,0
1523633372502,-720896,84,-56,-1,-1,0
1523633372502,-720896,84,-56,-1,-1,0
1523633372542,-786432,84,-56,-1,-1,0
1523633372542,-851968,84,-56,-1,-1,0
1523633372542,-786432,84,-56,-1,-1,0
1523633372542,-720896,84,-56,-1,-1,0
1523633372542,-720896,84,-56,-1,-1,0
1523633372582,-720896,84,-56,-1,-1,0
1523633372582,-720896,84,-56,-1,-1,0
1523633372582,-786432,84,-56,-1,-1,0
1523633372582,-851968,84,-56,-1,-1,0
1523633372582,-786432,84,-56,-1,-1,0
1523633372622,-720896,84,-56,-1,-1,0
1523633372622,-720896,84,-56,-1,-1,0
1523633372622,-720896,84,-56,-1,-1,0
1523633372622,-720896,84,-56,-1,-1,0
1523633372622,-655360,84,-56,-1,-1,0
1523633372662,-720896,84,-56,-1,-1,0
1523633372662,-720896,84,-56,-1,-1,0
1523633372662,-720896,84,-56,-1,-1,0
1523633372662,-720896,84,-56,-1,-1,0
1523633372662,-786432,84,-56,-1,-1,0
1523633372702,-786432,84,-56,-1,-1,0
1523633372702,-720896,84,-56,-1,-1,0
1523633372702,-589824,84,-56,-1,-1,0
1523633372702,-589824,84,-56,-1,-1,0
1523633372702,-589824,84,-56,-1,-1,0
1523633372742,-589824,84,-56,-1,-1,0
1523633372742,-720896,84,-56,-1,-1,0
1523633372742,-917504,84,-56,-1,-1,0
1523633372742,-1048576,84,-56,-1,-1,0
1523633372742,-917504,84,-56,-1,-1,0
1523633372783,-983040,84,-56,-1,-1,0
1523633372783,-1114112,84,-56,-1,-1,0
1523633372783,-1114112,84,-56,-1,-1,0
1523633372783,-917504,84,-56,-1,-1,0
1523633372783,-786432,84,-56,-1,-1,0
1523633372822,-720896,85,-56,-1,-1,0
1523633372822,-851968,85,-56,-1,-1,0
1523633372822,-1048576,85,-56,-1,-1,0
1523633372822,-1048576,85,-56,-1,-1,0
1523633372822,-524288,85,-56,-1,-1,0
1523633372862,1507328,85,-56,-1,-1,0
1523633372862,5046272,85,-56,-1,-1,0
1523633372862,6684672,85,-56,-1,-1,0
1523633372862,4128768,85,-56,-1,-1,0
1523633372862,-458752,85,-56,-1,-1,0
1523633372902,-3473408,85,-56,-1,-1,0
1523633372902,-4128768,85,-56,-1,-1,0
1523633372902,-3473408,85,-56,-1,-1,0
1523633372902,-2293760,85,-56,-1,-1,0
1523633372902,-1310720,85,-56,-1,-1,0
1523633372942,-786432,85,-56,-1,-1,0
1523633372942,-655360,85,-56,-1,-1,0
1523633372942,-655360,85,-56,-1,-1,0
1523633372942,-589824,85,-56,-1,-1,0
1523633372942,-327680,85,-56,-1,-1,0
1523633372982,-262144,85,-56,-1,-1,0
1523633372982,-327680,85,-56,-1,-1,0
1523633372982,-196608,85,-56,-1,-1,0
1523633372982,0,85,-56,-1,-1,0
1523633372982,65536,85,-56,-1,-1,0
1523633373022,65536,85,-56,-1,-1,0
1523633373022,327680,85,-56,-1,-1,0
1523633373022,589824,85,-56,-1,-1,0
1523633373022,655360,85,-56,-1,-1,0
1523633373022,851968,85,-56,-1,-1,0
1523633373062,1245184,85,-56,-1,-1,0
1523633373062,1638400,85,-56,-1,-1,0
1523633373062,2097152,85,-56,-1,-1,0
1523633373062,2621440,85,-56,-1,-1,0
1523633373062,2949120,85,-56,-1,-1,0
1523633373102,3080192,85,-56,-1,-1,0
1523633373102,3211264,85,-56,-1,-1,0
1523633373102,3342336,85,-56,-1,-1,0
1523633373102,3145728,85,-56,-1,-1,0
1523633373102,2752512,85,-56,-1,-1,0
1523633373142,2097152,85,-56,-1,-1,0
1523633373142,1310720,85,-56,-1,-1,0
1523633373142,655360,85,-56,-1,-1,0
1523633373142,262144,85,-56,-1,-1,0
1523633373142,0,85,-56,-1,-1,0
1523633373182,-393216,85,-56,-1,-1,0
1523633373182,-655360,85,-56,-1,-1,0
1523633373182,-917504,85,-56,-1,-1,0
1523633373182,-1114112,85,-56,-1,-1,0
1523633373182,-1179648,85,-56,-1,-1,0
1523633373222,-1114112,85,-56,-1,-1,0
1523633373222,-1179648,85,-56,-1,-1,0
1523633373222,-1310720,85,-56,-1,-1,0
1523633373222,-1310720,85,-56,-1,-1,0
1523633373222,-1179648,85,-56,-1,-1,0
1523633373262,-1179648,85,-56,-1,-1,0
1523633373262,-1179648,85,-56,-1,-1,0
1523633373262,-1114112,85,-56,-1,-1,0
1523633373262,-1048576,85,-56,-1,-1,0
1523633373262,-1114112,85,-56,-1,-1,0
1523633373302,-1179648,85,-56,-1,-1,0
1523633373302,-1179648,85,-56,-1,-1,0
1523633373302,-983040,85,-56,-1,-1,0
1523633373302,-1114112,85,-56,-1,-1,0
1523633373302,-1179648,85,-56,-1,-1,0
1523633373342,-1114112,85,-56,-1,-1,0
1523633373342,-1048576,85,-56,-1,-1,0
1523633373342,-983040,85,-56,-1,-1,0
1523633373342,-983040,85,-56,-1,-1,0
1523633373342,-1114112,85,-56,-1,-1,0
1523633373382,-1114112,85,-56,-1,-1,0
1523633373382,-917504,85,-56,-1,-1,0
1523633373382,-851968,85,-56,-1,-1,0
1523633373382,-1114112,85,-56,-1,-1,0
1523633373382,-1245184,85,-56,-1,-1,0
1523633373423,-1245184,85,-56,-1,-1,0
1523633373423,-1245184,85,-56,-1,-1,0
1523633373423,-1245184,85,-56,-1,-1,0
1523633373423,-1310720,85,-56,-1,-1,0
1523633373423,-1441792,85,-56,-1,-1,0
1523633373462,-1507328,85,-56,-1,-1,0
1523633373462,-1507328,85,-56,-1,-1,0
1523633373462,-1376256,85,-56,-1,-1,0
1523633373462,-1179648,85,-56,-1,-1,0
1523633373462,-1179648,85,-56,-1,-1,0
1523633373502,-1376256,85,-56,-1,-1,0
1523633373502,-1310720,85,-56,-1,-1,0
1523633373502,-524288,85,-56,-1,-1,0
1523633373502,1703936,85,-56,-1,-1,0
1523633373502,4784128,85,-56,-1,-1,0
1523633373542,5439488,85,-56,-1,-1,0
1523633373542,2228224,85,-56,-1,-1,0
1523633373542,-1703936,85,-56,-1,-1,0
1523633373542,-3997696,85,-56,-1,-1,0
1523633373542,-4456448,85,-56,-1,-1,0
1523633373582,-3866624,85,-56,-1,-1,0
1523633373582,-2686976,85,-56,-1,-1,0
1523633373582,-1638400,85,-56,-1,-1,0
1523633373582,-983040,85,-56,-1,-1,0
1523633373582,-720896,85,-56,-1,-1,0
1523633373622,-524288,85,-56,-1,-1,0
1523633373622,-458752,85,-56,-1,-1,0
1523633373622,-327680,85,-56,-1,-1,0
1523633373622,-131072,85,-56,-1,-1,0
1523633373622,0,85,-56,-1,-1,0
1523633373662,0,85,-56,-1,-1,0
1523633373662,131072,85,-56,-1,-1,0
1523633373662,458752,85,-56,-1,-1,0
1523633373662,720896,85,-56,-1,-1,0
1523633373662,786432,85,-56,-1,-1,0
1523633373702,917504,85,-56,-1,-1,0
1523633373702,1376256,85,-56,-1,-1,0
1523633373702,1769472,85,-56,-1,-1,0
1523633373702,2031616,85,-56,-1,-1,0
1523633373702,2359296,85,-56,-1,-1,0
1523633373742,2686976,85,-56,-1,-1,0
1523633373742,3014656,85,-56,-1,-1,0
1523633373742,3342336,85,-56,-1,-1,0
1523633373742,3735552,85,-56,-1,-1,0
1523633373742,3866624,85,-56,-1,-1,0
1523633373782,3735552,85,-56,-1,-1,0
1523633373782,3342336,85,-56,-1,-1,0
1523633373782,2949120,85,-56,-1,-1,0
1523633373782,2424832,85,-56,-1,-1,0
1523633373782,1769472,85,-56,-1,-1,0
1523633373822,1048576,85,-56,-1,-1,0
1523633373822,458752,85,-56,-1,-1,0
1523633373822,65536,85,-56,-1,-1,0
1523633373822,-196608,85,-56,-1,-1,0
1523633373822,-393216,85,-56,-1,-1,0
1523633373862,-393216,85,-56,-1,-1,0
1523633373862,-589824,85,-56,-1,-1,0
1523633373862,-786432,85,-56,-1,-1,0
1523633373862,-851968,85,-56,-1,-1,0
1523633373862,-655360,85,-56,-1,-1,0
1523633373902,-458752,85,-56,-1,-1,0
1523633373902,-458752,85,-56,-1,-1,0
1523633373902,-589824,85,-56,-1,-1,0
1523633373902,-655360,85,-56,-1,-1,0
1523633373902,-524288,85,-56,-1,-1,0
1523633373942,-589824,85,-56,-1,-1,0
1523633373942,-524288,85,-56,-1,-1,0
1523633373942,-524288,85,-56,-1,-1,0
1523633373942,-524288,85,-56,-1,-1,0
1523633373942,-524288,85,-56,-1,-1,0
1523633373982,-458752,85,-56,-1,-1,0
1523633373982,-458752,85,-56,-1,-1,0
1523633373982,-589824,85,-56,-1,-1,0
1523633373982,-720896,85,-56,-1,-1,0
1523633373982,-524288,85,-56,-1,-1,0
1523633374022,-327680,85,-56,-1,-1,0
1523633374022,-262144,85,-56,-1,-1,0
1523633374022,-327680,85,-56,-1,-1,0
1523633374022,-393216,85,-56,-1,-1,0
1523633374022,-524288,85,-56,-1,-1,0
1523633374063,-720896,85,-56,-1,-1,0
1523633374063,-720896,85,-56,-1,-1,0
1523633374063,-786432,85,-56,-1,-1,0
1523633374063,-720896,85,-56,-1,-1,0
1523633374063,-589824,85,-56,-1,-1,0
1523633374102,-589824,85,-56,-1,-1,0
1523633374102,-655360,85,-56,-1,-1,0
1523633374102,-720896,85,-56,-1,-1,0
1523633374102,-720896,85,-56,-1,-1,0
1523633374102,-720896,85,-56,-1,-1,0
1523633374142,-720896,85,-56,-1,-1,0
1523633374142,-720896,85,-56,-1,-1,0
1523633374142,-589824,85,-56,-1,-1,0
1523633374142,589824,85,-56,-1,-1,0
1523633374142,3801088,85,-56,-1,-1,0
1523633374182,7208960,85,-56,-1,-1,0
1523633374182,7077888,85,-56,-1,-1,0
1523633374182,2752512,85,-56,-1,-1,0
1523633374182,-1835008,85,-56,-1,-1,0
1523633374182,-3801088,85,-56,-1,-1,0
1523633374223,-3473408,85,-56,-1,-1,0
1523633374223,-2424832,85,-56,-1,-1,0
1523633374223,-1376256,85,-56,-1,-1,0
1523633374223,-589824,85,-56,-1,-1,0
1523633374223,-196608,85,-56,-1,-1,0
1523633374262,0,85,-56,-1,-1,0
1523633374262,0,85,-56,-1,-1,0
1523633374262,0,85,-56,-1,-1,0
1523633374262,65536,85,-56,-1,-1,0
1523633374262,327680,85,-56,-1,-1,0
1523633374303,458752,85,-56,-1,-1,0
1523633374303,524288,85,-56,-1,-1,0
1523633374303,589824,85,-56,-1,-1,0
1523633374303,720896,85,-56,-1,-1,0
1523633374303,983040,85,-56,-1,-1,0
1523633374342,1310720,85,-56,-1,-1,0
1523633374342,1441792,85,-56,-1,-1,0
1523633374342,1769472,85,-56,-1,-1,0
1523633374342,2228224,85,-56,-1,-1,0
1523633374342,2555904,85,-56,-1,-1,0
1523633374382,2818048,85,-56,-1,-1,0
1523633374382,3342336,85,-56,-1,-1,0
1523633374382,3735552,85,-56,-1,-1,0
1523633374382,4063232,85,-56,-1,-1,0
1523633374382,4259840,85,-56,-1,-1,0
1523633374422,4390912,85,-56,-1,-1,0
1523633374422,4259840,85,-56,-1,-1,0
1523633374422,3866624,85,-56,-1,-1,0
1523633374422,3145728,85,-56,-1,-1,0
1523633374422,2359296,85,-56,-1,-1,0
1523633374462,1572864,85,-56,-1,-1,0
1523633374462,1048576,85,-56,-1,-1,0
1523633374462,589824,85,-56,-1,-1,0
1523633374462,196608,85,-56,-1,-1,0
1523633374462,0,85,-56,-1,-1,0
1523633374502,-196608,85,-56,-1,-1,0
1523633374502,-458752,85,-56,-1,-1,0
1523633374502,-655360,85,-56,-1,-1,0
1523633374502,-655360,85,-56,-1,-1,0
1523633374502,-655360,85,-56,-1,-1,0
1523633374542,-655360,85,-56,-1,-1,0
1523633374542,-655360,85,-56,-1,-1,0
1523633374542,-589824,85,-56,-1,-1,0
1523633374542,-655360,85,-56,-1,-1,0
1523633374542,-720896,85,-56,-1,-1,0
1523633374582,-720896,85,-56,-1,-1,0
1523633374582,-786432,85,-56,-1,-1,0
1523633374582,-786432,85,-56,-1,-1,0
1523633374582,-720896,85,-56,-1,-1,0
1523633374582,-655360,85,-56,-1,-1,0
1523633374622,-786432,85,-56,-1,-1,0
1523633374622,-720896,85,-56,-1,-1,0
1523633374622,-589824,85,-56,-1,-1,0
1523633374622,-524288,85,-56,-1,-1,0
1523633374622,-524288,85,-56,-1,-1,0
1523633374662,-524288,85,-56,-1,-1,0
1523633374662,-589824,85,-56,-1,-1,0
1523633374662,-655360,85,-56,-1,-1,0
1523633374662,-851968,85,-56,-1,-1,0
1523633374662,-1048576,85,-56,-1,-1,0
1523633374703,-1114112,85,-56,-1,-1,0
1523633374703,-1114112,85,-56,-1,-1,0
1523633374703,-1114112,85,-56,-1,-1,0
1523633374703,-1048576,85,-56,-1,-1,0
1523633374703,-1245184,85,-56,-1,-1,0
1523633374742,-1507328,86,-56,-1,-1,0
1523633374742,-1507328,86,-56,-1,-1,0
1523633374742,-1441792,86,-56,-1,-1,0
1523633374742,-1376256,86,-56,-1,-1,0
1523633374742,-1441792,86,-56,-1,-1,0
1523633374782,-1441792,86,-56,-1,-1,0
1523633374782,-1376256,86,-56,-1,-1,0
1523633374782,-131072,86,-56,-1,-1,0
1523633374782,2883584,86,-56,-1,-1,0
1523633374782,5570560,86,-56,-1,-1,0
1523633374822,4456448,86,-56,-1,-1,0
1523633374822,196608,86,-56,-1,-1,0
1523633374822,-3211264,86,-56,-1,-1,0
1523633374822,-4718592,86,-56,-1,-1,0
1523633374822,-4521984,86,-56,-1,-1,0
1523633374862,-3407872,86,-56,-1,-1,0
1523633374862,-2293760,86,-56,-1,-1,0
1523633374862,-1703936,86,-56,-1,-1,0
1523633374862,-1441792,86,-56,-1,-1,0
1523633374862,-1245184,86,-56,-1,-1,0
1523633374902,-1048576,86,-56,-1,-1,0
1523633374902,-786432,86,-56,-1,-1,0
1523633374902,-720896,86,-56,-1,-1,0
1523633374902,-655360,86,-56,-1,-1,0
1523633374902,-524288,86,-56,-1,-1,0
1523633374942,-458752,86,-56,-1,-1,0
1523633374942,-327680,86,-56,-1,-1,0
1523633374942,-131072,86,-56,-1,-1,0
1523633374942,0,86,-56,-1,-1,0
1523633374942,262144,86,-56,-1,-1,0
1523633374982,524288,86,-56,-1,-1,0
1523633374982,786432,86,-56,-1,-1,0
1523633374982,1114112,86,-56,-1,-1,0
1523633374982,1572864,86,-56,-1,-1,0
1523633374982,2097152,86,-56,-1,-1,0
1523633375022,2490368,86,-56,-1,-1,0
1523633375022,2818048,86,-56,-1,-1,0
1523633375022,3080192,86,-56,-1,-1,0
1523633375022,3276800,86,-56,-1,-1,0
1523633375022,3407872,86,-56,-1,-1,0
1523633375062,3276800,86,-56,-1,-1,0
1523633375062,2686976,86,-56,-1,-1,0
1523633375062,1966080,86,-56,-1,-1,0
1523633375062,1245184,86,-56,-1,-1,0
1523633375062,589824,86,-56,-1,-1,0
1523633375102,0,86,-56,-1,-1,0
1523633375102,-393216,86,-56,-1,-1,0
1523633375102,-720896,86,-56,-1,-1,0
1523633375102,-917504,86,-56,-1,-1,0
1523633375102,-1114112,86,-56,-1,-1,0
1523633375142,-1179648,86,-56,-1,-1,0
1523633375142,-1245184,86,-56,-1,-1,0
1523633375142,-1310720,86,-56,-1,-1,0
1523633375142,-1310720,86,-56,-1,-1,0
1523633375142,-1310720,86,-56,-1,-1,0
1523633375182,-1179648,86,-56,-1,-1,0
1523633375182,-1114112,86,-56,-1,-1,0
1523633375182,-1179648,86,-56,-1,-1,0
1523633375182,-1310720,86,-56,-1,-1,0
1523633375182,-1245184,86,-56,-1,-1,0
1523633375222,-1114112,86,-56,-1,-1,0
1523633375222,-983040,86,-56,-1,-1,0
1523633375222,-983040,86,-56,-1,-1,0
1523633375222,-983040,86,-56,-1,-1,0
1523633375222,-1048576,86,-56,-1,-1,0
1523633375262,-1048576,86,-56,-1,-1,0
1523633375262,-983040,86,-56,-1,-1,0
1523633375262,-983040,86,-56,-1,-1,0
1523633375262,-983040,86,-56,-1,-1,0
1523633375262,-917504,86,-56,-1,-1,0
1523633375302,-851968,86,-56,-1,-1,0
1523633375302,-851968,86,-56,-1,-1,0
1523633375302,-917504,86,-56,-1,-1,0
1523633375302,-851968,86,-56,-1,-1,0
1523633375302,-917504,86,-56,-1,-1,0
1523633375343,-1114112,86,-56,-1,-1,0
1523633375343,-1179648,86,-56,-1,-1,0
1523633375343,-1245184,86,-56,-1,-1,0
1523633375343,-1310720,86,-56,-1,-1,0
1523633375343,-1310720,86,-56,-1,-1,0
1523633375382,-1310720,86,-56,-1,-1,0
1523633375382,-1376256,86,-56,-1,-1,0
1523633375382,-1376256,86,-56,-1,-1,0
1523633375382,-1376256,86,-56,-1,-1,0
1523633375382,-1441792,86,-56,-1,-1,0
1523633375422,-1441792,86,-56,-1,-1,0
1523633375422,-1441792,86,-56,-1,-1,0
1523633375422,-1048576,86,-56,-1,-1,0
1523633375422,655360,86,-56,-1,-1,0
1523633375422,4128768,86,-56,-1,-1,0
1523633375462,6619136,86,-56,-1,-1,0
1523633375462,4849664,86,-56,-1,-1,0
1523633375462,65536,86,-56,-1,-1,0
1523633375462,-3538944,86,-56,-1,-1,0
1523633375462,-4718592,86,-56,-1,-1,0
1523633375502,-4259840,86,-56,-1,-1,0
1523633375502,-3211264,86,-56,-1,-1,0
1523633375502,-2162688,86,-56,-1,-1,0
1523633375502,-1507328,86,-56,-1,-1,0
1523633375502,-1114112,86,-56,-1,-1,0
1523633375542,-917504,86,-56,-1,-1,0
1523633375542,-851968,86,-56,-1,-1,0
1523633375542,-720896,86,-56,-1,-1,0
1523633375542,-655360,86,-56,-1,-1,0
1523633375542,-589824,86,-56,-1,-1,0
1523633375582,-458752,86,-56,-1,-1,0
1523633375582,-327680,86,-56,-1,-1,0
1523633375582,-131072,86,-56,-1,-1,0
1523633375582,0,86,-56,-1,-1,0
1523633375582,196608,86,-56,-1,-1,0
1523633375622,458752,86,-56,-1,-1,0
1523633375622,720896,86,-56,-1,-1,0
1523633375622,983040,86,-56,-1,-1,0
1523633375622,1441792,86,-56,-1,-1,0
1523633375622,1835008,86,-56,-1,-1,0
1523633375662,2293760,86,-56,-1,-1,0
1523633375662,2686976,86,-56,-1,-1,0
1523633375662,3080192,86,-56,-1,-1,0
1523633375662,3342336,86,-56,-1,-1,0
1523633375662,3538944,86,-56,-1,-1,0
1523633375702,3473408,86,-56,-1,-1,0
1523633375702,3342336,86,-56,-1,-1,0
1523633375702,2949120,86,-56,-1,-1,0
1523633375702,2293760,86,-56,-1,-1,0
1523633375702,1507328,86,-56,-1,-1,0
1523633375742,786432,86,-56,-1,-1,0
1523633375742,131072,86,-56,-1,-1,0
1523633375742,-196608,86,-56,-1,-1,0
1523633375742,-458752,86,-56,-1,-1,0
1523633375742,-655360,86,-56,-1,-1,0
1523633375782,-786432,86,-56,-1,-1,0
1523633375782,-917504,86,-56,-1,-1,0
1523633375782,-983040,86,-56,-1,-1,0
1523633375782,-983040,86,-56,-1,-1,0
1523633375782,-983040,86,-56,-1,-1,0
1523633375822,-983040,86,-56,-1,-1,0
1523633375822,-983040,86,-56,-1,-1,0
1523633375822,-1048576,86,-56,-1,-1,0
1523633375822,-1048576,86,-56,-1,-1,0
1523633375822,-1048576,86,-56,-1,-1,0
1523633375862,-983040,86,-56,-1,-1,0
1523633375862,-917504,86,-56,-1,-1,0
1523633375862,-851968,86,-56,-1,-1,0
1523633375862,-851968,86,-56,-1,-1,0
1523633375862,-851968,86,-56,-1,-1,0
1523633375902,-851968,86,-56,-1,-1,0
1523633375902,-851968,86,-56,-1,-1,0
1523633375902,-851968,86,-56,-1,-1,0
1523633375902,-851968,86,-56,-1,-1,0
1523633375902,-851968,86,-56,-1,-1,0
1523633375942,-786432,86,-56,-1,-1,0
1523633375942,-786432,86,-56,-1,-1,0
1523633375942,-917504,86,-56,-1,-1,0
1523633375942,-983040,86,-56,-1,-1,0
1523633375942,-983040,86,-56,-1,-1,0
1523633375983,-983040,86,-56,-1,-1,0
1523633375983,-917504,86,-56,-1,-1,0
1523633375983,-917504,86,-56,-1,-1,0
1523633375983,-786432,86,-56,-1,-1,0
1523633375983,-786432,86,-56,-1,-1,0
1523633376022,-851968,86,-56,-1,-1,0
1523633376022,-983040,86,-56,-1,-1,0
1523633376022,-1114112,86,-56,-1,-1,0
1523633376022,-1114112,86,-56,-1,-1,0
1523633376022,-1114112,86,-56,-1,-1,0
1523633376062,-1179648,86,-56,-1,-1,0
1523633376062,-1179648,86,-56,-1,-1,0
1523633376062,-1179648,86,-56,-1,-1,0
1523633376062,-1179648,86,-56,-1,-1,0
1523633376062,-1179648,86,-56,-1,-1,0
1523633376102,-1114112,86,-56,-1,-1,0
1523633376102,-1114112,86,-56,-1,-1,0
1523633376102,-1114112,86,-56,-1,-1,0
1523633376102,-589824,86,-56,-1,-1,0
1523633376102,1572864,86,-56,-1,-1,0
1523633376142,5308416,86,-56,-1,-1,0
1523633376142,7405568,86,-56,-1,-1,0
1523633376142,5242880,86,-56,-1,-1,0
1523633376142,458752,86,-56,-1,-1,0
1523633376142,-2949120,86,-56,-1,-1,0
1523633376182,-3801088,86,-56,-1,-1,0
1523633376182,-3080192,86,-56,-1,-1,0
1523633376182,-1900544,86,-56,-1,-1,0
1523633376182,-983040,86,-56,-1,-1,0
1523633376182,-393216,86,-56,-1,-1,0
1523633376222,-65536,86,-56,-1,-1,0
1523633376222,0,86,-56,-1,-1,0
1523633376222,0,86,-56,-1,-1,0
1523633376222,65536,86,-56,-1,-1,0
1523633376222,262144,86,-56,-1,-1,0
1523633376262,458752,86,-56,-1,-1,0
1523633376262,524288,86,-56,-1,-1,0
1523633376262,589824,86,-56,-1,-1,0
1523633376262,720896,86,-56,-1,-1,0
1523633376262,851968,86,-56,-1,-1,0
1523633376302,1048576,86,-56,-1,-1,0
1523633376302,1245184,86,-56,-1,-1,0
1523633376302,1376256,86,-56,-1,-1,0
1523633376302,1703936,86,-56,-1,-1,0
1523633376302,2097152,86,-56,-1,-1,0
1523633376342,2555904,86,-56,-1,-1,0
1523633376342,3014656,86,-56,-1,-1,0
1523633376342,3407872,86,-56,-1,-1,0
1523633376342,3735552,86,-56,-1,-1,0
1523633376342,3932160,86,-56,-1,-1,0
1523633376382,4063232,86,-56,-1,-1,0
1523633376382,3997696,86,-56,-1,-1,0
1523633376382,3735552,86,-56,-1,-1,0
1523633376382,3407872,86,-56,-1,-1,0
1523633376382,2949120,86,-56,-1,-1,0
1523633376422,2228224,86,-56,-1,-1,0
1523633376422,1507328,86,-56,-1,-1,0
1523633376422,851968,86,-56,-1,-1,0
1523633376422,458752,86,-56,-1,-1,0
1523633376422,131072,86,-56,-1,-1,0
1523633376462,-196608,86,-56,-1,-1,0
1523633376462,-196608,86,-56,-1,-1,0
1523633376462,-196608,86,-56,-1,-1,0
1523633376462,-131072,86,-56,-1,-1,0
1523633376462,-262144,86,-56,-1,-1,0
1523633376502,-327680,86,-56,-1,-1,0
1523633376502,-458752,86,-56,-1,-1,0
1523633376502,-589824,86,-56,-1,-1,0
1523633376502,-655360,86,-56,-1,-1,0
1523633376502,-524288,86,-56,-1,-1,0
1523633376542,-393216,86,-56,-1,-1,0
1523633376542,-524288,86,-56,-1,-1,0
1523633376542,-720896,86,-56,-1,-1,0
1523633376542,-524288,86,-56,-1,-1,0
1523633376542,-458752,86,-56,-1,-1,0
1523633376582,-786432,86,-56,-1,-1,0
1523633376582,-1310720,86,-56,-1,-1,0
1523633376582,-1376256,86,-56,-1,-1,0
1523633376582,-786432,86,-56,-1,-1,0
1523633376582,-262144,86,-56,-1,-1,0
1523633376625,-262144,86,-56,-1,-1,0
1523633376625,-720896,86,-56,-1,-1,0
1523633376625,-1048576,86,-56,-1,-1,0
1523633376625,-851968,86,-56,-1,-1,0
1523633376625,-720896,86,-56,-1,-1,0
1523633376664,-917504,86,-56,-1,-1,0
1523633376664,-1048576,86,-56,-1,-1,0
1523633376664,-983040,86,-56,-1,-1,0
1523633376664,-1179648,86,-56,-1,-1,0
1523633376664,-1310720,86,-56,-1,-1,0
1523633376702,-1179648,86,-56,-1,-1,0
1523633376702,-983040,86,-56,-1,-1,0
1523633376702,-1114112,86,-56,-1,-1,0
1523633376702,-1310720,86,-56,-1,-1,0
1523633376702,-1441792,86,-56,-1,-1,0
1523633376744,-1441792,86,-56,-1,-1,0
1523633376744,-1507328,86,-56,-1,-1,0
1523633376744,-1638400,86,-56,-1,-1,0
1523633376744,-1703936,86,-56,-1,-1,0
1523633376744,-1441792,86,-56,-1,-1,0
1523633376782,-1507328,87,-56,-1,-1,0
1523633376782,-1638400,87,-56,-1,-1,0
1523633376782,-1441792,87,-56,-1,-1,0
1523633376782,-196608,87,-56,-1,-1,0
1523633376782,2686976,87,-56,-1,-1,0
1523633376822,5046272,87,-56,-1,-1,0
1523633376822,3932160,87,-56,-1,-1,0
1523633376822,0,87,-56,-1,-1,0
1523633376822,-3080192,87,-56,-1,-1,0
1523633376822,-4456448,87,-56,-1,-1,0
1523633376862,-4325376,87,-56,-1,-1,0
1523633376862,-3407872,87,-56,-1,-1,0
1523633376862,-2359296,87,-56,-1,-1,0
1523633376862,-1769472,87,-56,-1,-1,0
1523633376862,-1638400,87,-56,-1,-1,0
1523633376902,-1310720,87,-56,-1,-1,0
1523633376902,-851968,87,-56,-1,-1,0
1523633376902,-655360,87,-56,-1,-1,0
1523633376902,-786432,87,-56,-1,-1,0
1523633376902,-851968,87,-56,-1,-1,0
1523633376944,-720896,87,-56,-1,-1,0
1523633376944,-655360,87,-56,-1,-1,0
1523633376944,-524288,87,-56,-1,-1,0
1523633376944,-262144,87,-56,-1,-1,0
1523633376944,0,87,-56,-1,-1,0
1523633376982,131072,87,-56,-1,-1,0
1523633376982,393216,87,-56,-1,-1,0
1523633376982,524288,87,-56,-1,-1,0
1523633376982,655360,87,-56,-1,-1,0
1523633376982,1048576,87,-56,-1,-1,0
1523633377022,1638400,87,-56,-1,-1,0
1523633377022,2228224,87,-56,-1,-1,0
1523633377022,2490368,87,-56,-1,-1,0
1523633377022,2686976,87,-56,-1,-1,0
1523633377022,2949120,87,-56,-1,-1,0
1523633377062,3080192,87,-56,-1,-1,0
1523633377062,3014656,87,-56,-1,-1,0
1523633377062,2621440,87,-56,-1,-1,0
1523633377062,2031616,87,-56,-1,-1,0
1523633377062,1441792,87,-56,-1,-1,0
1523633377102,786432,87,-56,-1,-1,0
1523633377102,262144,87,-56,-1,-1,0
1523633377102,-131072,87,-56,-1,-1,0
1523633377102,-524288,87,-56,-1,-1,0
1523633377102,-851968,87,-56,-1,-1,0
1523633377142,-983040,87,-56,-1,-1,0
1523633377142,-983040,87,-56,-1,-1,0
1523633377142,-983040,87,-56,-1,-1,0
1523633377142,-1048576,87,-56,-1,-1,0
1523633377142,-1114112,87,-56,-1,-1,0
1523633377184,-1245184,87,-56,-1,-1,0
1523633377184,-1114112,87,-56,-1,-1,0
1523633377184,-1048576,87,-56,-1,-1,0
1523633377184,-983040,87,-56,-1,-1,0
1523633377184,-917504,87,-56,-1,-1,0
1523633377222,-851968,87,-56,-1,-1,0
1523633377222,-851968,87,-56,-1,-1,0
1523633377222,-983040,87,-56,-1,-1,0
1523633377222,-983040,87,-56,-1,-1,0
1523633377222,-851968,87,-56,-1,-1,0
1523633377264,-655360,87,-56,-1,-1,0
1523633377264,-655360,87,-56,-1,-1,0
1523633377264,-786432,87,-56,-1,-1,0
1523633377264,-720896,87,-56,-1,-1,0
1523633377264,-720896,87,-56,-1,-1,0
1523633377302,-655360,87,-56,-1,-1,0
1523633377302,-655360,87,-56,-1,-1,0
1523633377302,-720896,87,-56,-1,-1,0
1523633377302,-720896,87,-56,-1,-1,0
1523633377302,-589824,87,-56,-1,-1,0
1523633377342,-458752,87,-56,-1,-1,0
1523633377342,-458752,87,-56,-1,-1,0
1523633377342,-589824,87,-56,-1,-1,0
1523633377342,-589824,87,-56,-1,-1,0
1523633377342,-524288,87,-56,-1,-1,0
1523633377382,-524288,87,-56,-1,-1,0
1523633377382,-589824,87,-56,-1,-1,0
1523633377382,-786432,87,-56,-1,-1,0
1523633377382,-851968,87,-56,-1,-1,0
1523633377382,-720896,87,-56,-1,-1,0
1523633377422,-589824,87,-56,-1,-1,0
1523633377422,-720896,87,-56,-1,-1,0
1523633377422,-786432,87,-56,-1,-1,0
1523633377422,-720896,87,-56,-1,-1,0
1523633377422,-720896,87,-56,-1,-1,0
1523633377462,-983040,87,-56,-1,-1,0
1523633377462,-786432,87,-56,-1,-1,0
1523633377462,851968,87,-56,-1,-1,0
1523633377462,4325376,87,-56,-1,-1,0
1523633377462,7340032,87,-56,-1,-1,0
1523633377502,6488064,87,-56,-1,-1,0
1523633377502,1966080,87,-56,-1,-1,0
1523633377502,-2293760,87,-56,-1,-1,0
1523633377502,-4194304,87,-56,-1,-1,0
1523633377502,-3866624,87,-56,-1,-1,0
1523633377542,-2555904,87,-56,-1,-1,0
1523633377542,-1376256,87,-56,-1,-1,0
1523633377542,-786432,87,-56,-1,-1,0
1523633377542,-524288,87,-56,-1,-1,0
1523633377542,-458752,87,-56,-1,-1,0
1523633377582,-393216,87,-56,-1,-1,0
1523633377582,-131072,87,-56,-1,-1,0
1523633377582,131072,87,-56,-1,-1,0
1523633377582,196608,87,-56,-1,-1,0
1523633377582,262144,87,-56,-1,-1,0
1523633377622,327680,87,-56,-1,-1,0
1523633377622,327680,87,-56,-1,-1,0
1523633377622,393216,87,-56,-1,-1,0
1523633377622,655360,87,-56,-1,-1,0
1523633377622,983040,87,-56,-1,-1,0
1523633377662,1114112,87,-56,-1,-1,0
1523633377662,1441792,87,-56,-1,-1,0
1523633377662,1835008,87,-56,-1,-1,0
1523633377662,2228224,87,-56,-1,-1,0
1523633377662,2555904,87,-56,-1,-1,0
1523633377702,3014656,87,-56,-1,-1,0
1523633377702,3473408,87,-56,-1,-1,0
1523633377702,3866624,87,-56,-1,-1,0
1523633377702,4194304,87,-56,-1,-1,0
1523633377702,4194304,87,-56,-1,-1,0
1523633377742,3801088,87,-56,-1,-1,0
1523633377742,3407872,87,-56,-1,-1,0
1523633377742,2949120,87,-56,-1,-1,0
1523633377742,2228224,87,-56,-1,-1,0
1523633377742,1376256,87,-56,-1,-1,0
1523633377782,720896,87,-56,-1,-1,0
1523633377782,0,87,-56,-1,-1,0
1523633377782,-262144,87,-56,-1,-1,0
1523633377782,-262144,87,-56,-1,-1,0
1523633377782,-327680,87,-56,-1,-1,0
1523633377822,-458752,87,-56,-1,-1,0
1523633377822,-589824,87,-56,-1,-1,0
1523633377822,-720896,87,-56,-1,-1,0
1523633377822,-786432,87,-56,-1,-1,0
1523633377822,-851968,87,-56,-1,-1,0
1523633377862,-983040,87,-56,-1,-1,0
1523633377862,-983040,87,-56,-1,-1,0
1523633377862,-851968,87,-56,-1,-1,0
1523633377862,-851968,87,-56,-1,-1,0
1523633377862,-851968,87,-56,-1,-1,0
1523633377904,-786432,87,-56,-1,-1,0
1523633377904,-720896,87,-56,-1,-1,0
1523633377904,-786432,87,-56,-1,-1,0
1523633377904,-720896,87,-56,-1,-1,0
1523633377904,-655360,87,-56,-1,-1,0
1523633377942,-720896,87,-56,-1,-1,0
1523633377942,-786432,87,-56,-1,-1,0
1523633377942,-655360,87,-56,-1,-1,0
1523633377942,-655360,87,-56,-1,-1,0
1523633377942,-720896,87,-56,-1,-1,0
1523633377982,-786432,87,-56,-1,-1,0
1523633377982,-851968,87,-56,-1,-1,0
1523633377982,-917504,87,-56,-1,-1,0
1523633377982,-851968,87,-56,-1,-1,0
1523633377982,-851968,87,-56,-1,-1,0
1523633378022,-720896,87,-56,-1,-1,0
1523633378022,-720896,87,-56,-1,-1,0
1523633378022,-720896,87,-56,-1,-1,0
1523633378022,-655360,87,-56,-1,-1,0
1523633378022,-720896,87,-56,-1,-1,0
1523633378062,-786432,87,-56,-1,-1,0
1523633378062,-851968,87,-56,-1,-1,0
1523633378062,-917504,87,-56,-1,-1,0
1523633378062,-983040,87,-56,-1,-1,0
1523633378062,-983040,87,-56,-1,-1,0
1523633378102,-983040,87,-56,-1,-1,0
1523633378102,-1048576,87,-56,-1,-1,0
1523633378102,-1114112,87,-56,-1,-1,0
1523633378102,-1114112,87,-56,-1,-1,0
1523633378102,-917504,87,-56,-1,-1,0
1523633378142,-983040,87,-56,-1,-1,0
1523633378142,-1114112,87,-56,-1,-1,0
1523633378142,-983040,87,-56,-1,-1,0
1523633378142,196608,87,-56,-1,-1,0
1523633378142,3276800,87,-56,-1,-1,0
1523633378182,6946816,87,-56,-1,-1,0
1523633378182,7340032,87,-56,-1,-1,0
1523633378182,3211264,87,-56,-1,-1,0
1523633378182,-1638400,87,-56,-1,-1,0
1523633378182,-3997696,87,-56,-1,-1,0
1523633378224,-3997696,88,-56,-1,-1,0
1523633378224,-3080192,88,-56,-1,-1,0
1523633378224,-1900544,88,-56,-1,-1,0
1523633378224,-983040,88,-56,-1,-1,0
1523633378224,-524288,88,-56,-1,-1,0
1523633378262,-393216,88,-56,-1,-1,0
1523633378262,-327680,88,-56,-1,-1,0
1523633378262,-262144,88,-56,-1,-1,0
1523633378262,-131072,88,-56,-1,-1,0
1523633378262,0,88,-56,-1,-1,0
1523633378302,65536,88,-56,-1,-1,0
1523633378302,131072,88,-56,-1,-1,0
1523633378302,262144,88,-56,-1,-1,0
1523633378302,458752,88,-56,-1,-1,0
1523633378302,589824,88,-56,-1,-1,0
1523633378342,786432,88,-56,-1,-1,0
1523633378342,983040,88,-56,-1,-1,0
1523633378342,1310720,88,-56,-1,-1,0
1523633378342,1638400,88,-56,-1,-1,0
1523633378342,2031616,88,-56,-1,-1,0
1523633378382,2424832,88,-56,-1,-1,0
1523633378382,2883584,88,-56,-1,-1,0
1523633378382,3211264,88,-56,-1,-1,0
1523633378382,3538944,88,-56,-1,-1,0
1523633378382,3801088,88,-56,-1,-1,0
1523633378422,3997696,88,-56,-1,-1,0
1523633378422,3932160,88,-56,-1,-1,0
1523633378422,3538944,88,-56,-1,-1,0
1523633378422,2949120,88,-56,-1,-1,0
1523633378422,2228224,88,-56,-1,-1,0
1523633378462,1507328,88,-56,-1,-1,0
1523633378462,786432,88,-56,-1,-1,0
1523633378462,196608,88,-56,-1,-1,0
1523633378462,-131072,88,-56,-1,-1,0
1523633378462,-327680,88,-56,-1,-1,0
1523633378502,-524288,88,-56,-1,-1,0
1523633378502,-655360,88,-56,-1,-1,0
1523633378502,-720896,88,-56,-1,-1,0
1523633378502,-720896,88,-56,-1,-1,0
1523633378502,-720896,88,-56,-1,-1,0
1523633378544,-786432,88,-56,-1,-1,0
1523633378544,-786432,88,-56,-1,-1,0
1523633378544,-786432,88,-56,-1,-1,0
1523633378544,-786432,88,-56,-1,-1,0
1523633378544,-786432,88,-56,-1,-1,0
1523633378582,-786432,88,-56,-1,-1,0
1523633378582,-786432,88,-56,-1,-1,0
1523633378582,-655360,88,-56,-1,-1,0
1523633378582,-589824,88,-56,-1,-1,0
1523633378582,-589824,88,-56,-1,-1,0
1523633378622,-655360,88,-56,-1,-1,0
1523633378622,-655360,88,-56,-1,-1,0
1523633378622,-524288,88,-56,-1,-1,0
1523633378622,-524288,88,-56,-1,-1,0
1523633378622,-589824,88,-56,-1,-1,0
1523633378663,-655360,88,-56,-1,-1,0
1523633378663,-720896,88,-56,-1,-1,0
1523633378663,-720896,88,-56,-1,-1,0
1523633378663,-655360,88,-56,-1,-1,0
1523633378663,-589824,88,-56,-1,-1,0
1523633378702,-655360,88,-56,-1,-1,0
1523633378702,-720896,88,-56,-1,-1,0
1523633378702,-720896,88,-56,-1,-1,0
1523633378702,-786432,88,-56,-1,-1,0
1523633378702,-786432,88,-56,-1,-1,0
1523633378742,-720896,88,-56,-1,-1,0
1523633378742,-720896,88,-56,-1,-1,0
1523633378742,-720896,88,-56,-1,-1,0
1523633378742,-851968,88,-56,-1,-1,0
1523633378742,-851968,88,-56,-1,-1,0
1523633378782,-851968,88,-56,-1,-1,0
1523633378782,-720896,88,-56,-1,-1,0
1523633378782,-655360,88,-56,-1,-1,0
1523633378782,-655360,88,-56,-1,-1,0
1523633378782,-589824,88,-56,-1,-1,0
1523633378822,-458752,88,-56,-1,-1,0
1523633378822,-524288,88,-56,-1,-1,0
1523633378822,-655360,88,-56,-1,-1,0
1523633378822,-720896,88,-56,-1,-1,0
1523633378822,-786432,88,-56,-1,-1,0
1523633378862,-786432,88,-56,-1,-1,0
1523633378862,-720896,88,-56,-1,-1,0
1523633378862,-720896,88,-56,-1,-1,0
1523633378862,-720896,88,-56,-1,-1,0
1523633378862,-720896,88,-56,-1,-1,0
1523633378902,-720896,88,-56,-1,-1,0
1523633378902,-786432,88,-56,-1,-1,0
1523633378902,-655360,88,-56,-1,-1,0
1523633378902,524288,88,-56,-1,-1,0
1523633378902,3866624,88,-56,-1,-1,0
1523633378942,7340032,88,-56,-1,-1,0
1523633378942,7208960,88,-56,-1,-1,0
1523633378942,3014656,88,-56,-1,-1,0
1523633378942,-1310720,88,-56,-1,-1,0
1523633378942,-3342336,88,-56,-1,-1,0
1523633378982,-3276800,88,-56,-1,-1,0
1523633378982,-2293760,88,-56,-1,-1,0
1523633378982,-1245184,88,-56,-1,-1,0
1523633378982,-655360,88,-56,-1,-1,0
1523633378982,-327680,88,-56,-1,-1,0
1523633379022,-65536,88,-56,-1,-1,0
1523633379022,0,88,-56,-1,-1,0
1523633379022,-65536,88,-56,-1,-1,0
1523633379022,0,88,-56,-1,-1,0
1523633379022,196608,88,-56,-1,-1,0
1523633379062,262144,88,-56,-1,-1,0
1523633379062,262144,88,-56,-1,-1,0
1523633379062,327680,88,-56,-1,-1,0
1523633379062,393216,88,-56,-1,-1,0
1523633379062,524288,88,-56,-1,-1,0
1523633379102,983040,88,-56,-1,-1,0
1523633379102,1310720,88,-56,-1,-1,0
1523633379102,1310720,88,-56,-1,-1,0
1523633379102,1310720,88,-56,-1,-1,0
1523633379102,1703936,88,-56,-1,-1,0
1523633379142,2359296,88,-56,-1,-1,0
1523633379142,2818048,88,-56,-1,-1,0
1523633379142,2883584,88,-56,-1,-1,0
1523633379142,3342336,88,-56,-1,-1,0
1523633379142,3604480,88,-56,-1,-1,0
1523633379185,3276800,88,-56,-1,-1,0
1523633379185,3014656,88,-56,-1,-1,0
1523633379185,2752512,88,-56,-1,-1,0
1523633379185,2686976,88,-56,-1,-1,0
1523633379185,2490368,88,-56,-1,-1,0
1523633379222,1900544,88,-56,-1,-1,0
1523633379222,851968,88,-56,-1,-1,0
1523633379222,65536,88,-56,-1,-1,0
1523633379222,-262144,88,-56,-1,-1,0
1523633379222,-655360,88,-56,-1,-1,0
1523633379262,-851968,88,-56,-1,-1,0
1523633379262,-917504,88,-56,-1,-1,0
1523633379262,-851968,88,-56,-1,-1,0
1523633379262,-1048576,88,-56,-1,-1,0
1523633379262,-917504,88,-56,-1,-1,0
1523633379302,-786432,88,-56,-1,-1,0
1523633379302,-851968,88,-56,-1,-1,0
1523633379302,-917504,88,-56,-1,-1,0
1523633379302,-983040,88,-56,-1,-1,0
1523633379302,-1114112,88,-56,-1,-1,0
1523633379342,-1245184,88,-56,-1,-1,0
1523633379342,-983040,88,-56,-1,-1,0
1523633379342,-917504,88,-56,-1,-1,0
1523633379342,-1310720,88,-56,-1,-1,0
1523633379342,-1441792,88,-56,-1,-1,0
1523633379382,-1179648,88,-56,-1,-1,0
1523633379382,-917504,88,-56,-1,-1,0
1523633379382,-1048576,88,-56,-1,-1,0
1523633379382,-1114112,88,-56,-1,-1,0
1523633379382,-983040,88,-56,-1,-1,0
1523633379422,-983040,88,-56,-1,-1,0
1523633379422,-1245184,88,-56,-1,-1,0
1523633379422,-1245184,88,-56,-1,-1,0
1523633379422,-1114112,88,-56,-1,-1,0
1523633379422,-983040,88,-56,-1,-1,0
1523633379462,-983040,88,-56,-1,-1,0
1523633379462,-851968,88,-56,-1,-1,0
1523633379462,-983040,88,-56,-1,-1,0
1523633379462,-1114112,88,-56,-1,-1,0
1523633379462,-1048576,88,-56,-1,-1,0
1523633379502,-1114112,88,-56,-1,-1,0
1523633379502,-1114112,88,-56,-1,-1,0
1523633379502,-1114112,88,-56,-1,-1,0
1523633379502,-1114112,88,-56,-1,-1,0
1523633379502,-1048576,88,-56,-1,-1,0
1523633379542,-851968,88,-56,-1,-1,0
1523633379542,-655360,88,-56,-1,-1,0
1523633379542,-720896,88,-56,-1,-1,0
1523633379542,-851968,88,-56,-1,-1,0
1523633379542,-1114112,88,-56,-1,-1,0
1523633379582,-983040,88,-56,-1,-1,0
1523633379582,-983040,88,-56,-1,-1,0
1523633379582,-1048576,88,-56,-1,-1,0
1523633379582,-1114112,88,-56,-1,-1,0
1523633379582,-917504,88,-56,-1,-1,0
1523633379622,-917504,88,-56,-1,-1,0
1523633379622,-983040,88,-56,-1,-1,0
1523633379622,-917504,88,-56,-1,-1,0
1523633379622,-917504,88,-56,-1,-1,0
1523633379622,-983040,88,-56,-1,-1,0
1523633379662,-655360,88,-56,-1,-1,0
1523633379662,655360,88,-56,-1,-1,0
1523633379662,3604480,88,-56,-1,-1,0
1523633379662,5898240,88,-56,-1,-1,0
1523633379662,4718592,88,-56,-1,-1,0
1523633379702,851968,88,-56,-1,-1,0
1523633379702,-2162688,88,-56,-1,-1,0
1523633379702,-3342336,88,-56,-1,-1,0
1523633379702,-3407872,88,-56,-1,-1,0
1523633379702,-2686976,88,-56,-1,-1,0
1523633379742,-1572864,88,-56,-1,-1,0
1523633379742,-786432,88,-56,-1,-1,0
1523633379742,-262144,88,-56,-1,-1,0
1523633379742,-196608,88,-56,-1,-1,0
1523633379742,-196608,88,-56,-1,-1,0
1523633379782,-65536,88,-56,-1,-1,0
1523633379782,196608,88,-56,-1,-1,0
1523633379782,262144,88,-56,-1,-1,0
1523633379782,262144,88,-56,-1,-1,0
1523633379782,196608,88,-56,-1,-1,0
1523633379828,393216,88,-56,-1,-1,0
1523633379828,524288,88,-56,-1,-1,0
1523633379828,655360,88,-56,-1,-1,0
1523633379828,786432,88,-56,-1,-1,0
1523633379828,917504,88,-56,-1,-1,0
1523633379862,1179648,88,-56,-1,-1,0
1523633379862,1638400,88,-56,-1,-1,0
1523633379862,1900544,88,-56,-1,-1,0
1523633379862,2031616,88,-56,-1,-1,0
1523633379862,2424832,88,-56,-1,-1,0
1523633379905,2883584,88,-56,-1,-1,0
1523633379905,3145728,88,-56,-1,-1,0
1523633379905,3276800,88,-56,-1,-1,0
1523633379905,3342336,88,-56,-1,-1,0
1523633379905,3276800,88,-56,-1,-1,0
1523633379943,3145728,88,-56,-1,-1,0
1523633379943,2686976,88,-56,-1,-1,0
1523633379943,1900544,88,-56,-1,-1,0
1523633379943,1310720,88,-56,-1,-1,0
1523633379943,983040,88,-56,-1,-1,0
1523633379982,458752,88,-56,-1,-1,0
1523633379982,65536,88,-56,-1,-1,0
1523633379982,-131072,88,-56,-1,-1,0
1523633379982,-262144,88,-56,-1,-1,0
1523633379982,-262144,88,-56,-1,-1,0
1523633380022,-393216,88,-56,-1,-1,0
1523633380022,-458752,88,-56,-1,-1,0
1523633380022,-393216,88,-56,-1,-1,0
1523633380022,-524288,88,-56,-1,-1,0
1523633380022,-589824,88,-56,-1,-1,0
1523633380062,-524288,88,-56,-1,-1,0
1523633380062,-458752,88,-56,-1,-1,0
1523633380062,-589824,88,-56,-1,-1,0
1523633380062,-589824,88,-56,-1,-1,0
1523633380062,-458752,88,-56,-1,-1,0
1523633380102,-393216,88,-56,-1,-1,0
1523633380102,-458752,88,-56,-1,-1,0
1523633380102,-393216,88,-56,-1,-1,0
1523633380102,-196608,88,-56,-1,-1,0
1523633380102,-196608,88,-56,-1,-1,0
1523633380142,-393216,88,-56,-1,-1,0
1523633380142,-589824,88,-56,-1,-1,0
1523633380142,-589824,88,-56,-1,-1,0
1523633380142,-589824,88,-56,-1,-1,0
1523633380142,-589824,88,-56,-1,-1,0
1523633380182,-458752,88,-56,-1,-1,0
1523633380182,-393216,88,-56,-1,-1,0
1523633380182,-327680,88,-56,-1,-1,0
1523633380182,-524288,88,-56,-1,-1,0
1523633380182,-720896,88,-56,-1,-1,0
1523633380222,-720896,88,-56,-1,-1,0
1523633380222,-589824,88,-56,-1,-1,0
1523633380222,-589824,88,-56,-1,-1,0
1523633380222,-655360,88,-56,-1,-1,0
1523633380222,-720896,88,-56,-1,-1,0
1523633380262,-655360,88,-56,-1,-1,0
1523633380262,-720896,88,-56,-1,-1,0
1523633380262,-720896,88,-56,-1,-1,0
1523633380262,-720896,88,-56,-1,-1,0
1523633380262,-589824,88,-56,-1,-1,0
1523633380302,-589824,88,-56,-1,-1,0
1523633380302,-720896,88,-56,-1,-1,0
1523633380302,-720896,88,-56,-1,-1,0
1523633380302,-720896,88,-56,-1,-1,0
1523633380302,-720896,88,-56,-1,-1,0
1523633380342,-851968,88,-56,-1,-1,0
1523633380342,-851968,88,-56,-1,-1,0
1523633380342,-720896,88,-56,-1,-1,0
1523633380342,-589824,88,-56,-1,-1,0
1523633380342,-589824,88,-56,-1,-1,0
1523633380382,-524288,88,-56,-1,-1,0
1523633380382,-589824,88,-56,-1,-1,0
1523633380382,-786432,88,-56,-1,-1,0
1523633380382,-917504,88,-56,-1,-1,0
1523633380382,-917504,88,-56,-1,-1,0
1523633380422,-851968,88,-56,-1,-1,0
1523633380422,-851968,88,-56,-1,-1,0
1523633380422,-851968,88,-56,-1,-1,0
1523633380422,-983040,88,-56,-1,-1,0
1523633380422,-983040,88,-56,-1,-1,0
1523633380463,-851968,88,-56,-1,-1,0
1523633380463,-917504,88,-56,-1,-1,0
1523633380463,-1048576,88,-56,-1,-1,0
1523633380463,-983040,88,-56,-1,-1,0
1523633380463,196608,88,-56,-1,-1,0
1523633380502,3211264,88,-56,-1,-1,0
1523633380502,6553600,88,-56,-1,-1,0
1523633380502,6750208,88,-56,-1,-1,0
1523633380502,3080192,88,-56,-1,-1,0
1523633380502,-1376256,88,-56,-1,-1,0
1523633380542,-3670016,87,-56,-1,-1,0
1523633380542,-3604480,87,-56,-1,-1,0
1523633380542,-2424832,87,-56,-1,-1,0
1523633380542,-1310720,87,-56,-1,-1,0
1523633380542,-786432,87,-56,-1,-1,0
1523633380582,-458752,87,-56,-1,-1,0
1523633380582,-327680,87,-56,-1,-1,0
1523633380582,-262144,87,-56,-1,-1,0
1523633380582,-131072,87,-56,-1,-1,0
1523633380582,0,87,-56,-1,-1,0
1523633380622,65536,87,-56,-1,-1,0
1523633380622,196608,87,-56,-1,-1,0
1523633380622,393216,87,-56,-1,-1,0
1523633380622,393216,87,-56,-1,-1,0
1523633380622,393216,87,-56,-1,-1,0
1523633380662,458752,87,-56,-1,-1,0
1523633380662,786432,87,-56,-1,-1,0
1523633380662,1179648,87,-56,-1,-1,0
1523633380662,1376256,87,-56,-1,-1,0
1523633380662,1572864,87,-56,-1,-1,0
1523633380702,1900544,87,-56,-1,-1,0
1523633380702,2293760,87,-56,-1,-1,0
1523633380702,2752512,87,-56,-1,-1,0
1523633380702,3145728,87,-56,-1,-1,0
1523633380702,3473408,87,-56,-1,-1,0
1523633380742,3866624,87,-56,-1,-1,0
1523633380742,4128768,87,-56,-1,-1,0
1523633380742,3997696,87,-56,-1,-1,0
1523633380742,3670016,87,-56,-1,-1,0
1523633380742,3342336,87,-56,-1,-1,0
1523633380782,2949120,87,-56,-1,-1,0
1523633380782,2228224,87,-56,-1,-1,0
1523633380782,1441792,87,-56,-1,-1,0
1523633380782,851968,87,-56,-1,-1,0
1523633380782,393216,87,-56,-1,-1,0
1523633380822,0,87,-56,-1,-1,0
1523633380822,-196608,87,-56,-1,-1,0
1523633380822,-393216,87,-56,-1,-1,0
1523633380822,-589824,87,-56,-1,-1,0
1523633380822,-720896,87,-56,-1,-1,0
1523633380862,-720896,87,-56,-1,-1,0
1523633380862,-720896,87,-56,-1,-1,0
1523633380862,-720896,87,-56,-1,-1,0
1523633380862,-786432,87,-56,-1,-1,0
1523633380862,-786432,87,-56,-1,-1,0
1523633380902,-786432,87,-56,-1,-1,0
1523633380902,-983040,87,-56,-1,-1,0
1523633380902,-1114112,87,-56,-1,-1,0
1523633380902,-917504,87,-56,-1,-1,0
1523633380902,-786432,87,-56,-1,-1,0
1523633380942,-851968,87,-56,-1,-1,0
1523633380942,-786432,87,-56,-1,-1,0
1523633380942,-720896,87,-56,-1,-1,0
1523633380942,-786432,87,-56,-1,-1,0
1523633380942,-851968,87,-56,-1,-1,0
1523633380982,-851968,87,-56,-1,-1,0
1523633380982,-786432,87,-56,-1,-1,0
1523633380982,-786432,87,-56,-1,-1,0
1523633380982,-851968,87,-56,-1,-1,0
1523633380982,-917504,87,-56,-1,-1,0
1523633381022,-983040,87,-56,-1,-1,0
1523633381022,-983040,87,-56,-1,-1,0
1523633381022,-983040,87,-56,-1,-1,0
1523633381022,-1048576,87,-56,-1,-1,0
1523633381022,-1048576,87,-56,-1,-1,0
1523633381062,-1114112,87,-56,-1,-1,0
1523633381062,-1179648,87,-56,-1,-1,0
1523633381062,-1179648,87,-56,-1,-1,0
1523633381062,-1114112,87,-56,-1,-1,0
1523633381062,-1048576,87,-56,-1,-1,0
1523633381103,-983040,87,-56,-1,-1,0
1523633381103,-983040,87,-56,-1,-1,0
1523633381103,-983040,87,-56,-1,-1,0
1523633381103,-983040,87,-56,-1,-1,0
1523633381103,-1048576,87,-56,-1,-1,0
1523633381142,-1048576,87,-56,-1,-1,0
1523633381142,-1114112,87,-56,-1,-1,0
1523633381142,-1114112,87,-56,-1,-1,0
1523633381142,-1179648,87,-56,-1,-1,0
1523633381142,-1179648,87,-56,-1,-1,0
1523633381182,-1179648,87,-56,-1,-1,0
1523633381182,-1179648,87,-56,-1,-1,0
1523633381182,-1179648,87,-56,-1,-1,0
1523633381182,-1179648,87,-56,-1,-1,0
1523633381182,-1179648,87,-56,-1,-1,0
1523633381222,-1310720,87,-56,-1,-1,0
1523633381222,-983040,87,-56,-1,-1,0
1523633381222,786432,87,-56,-1,-1,0
1523633381222,4521984,87,-56,-1,-1,0
1523633381222,7208960,87,-56,-1,-1,0
1523633381262,5636096,87,-56,-1,-1,0
1523633381262,983040,87,-56,-1,-1,0
1523633381262,-2818048,87,-56,-1,-1,0
1523633381262,-4194304,87,-56,-1,-1,0
1523633381262,-3801088,87,-56,-1,-1,0
1523633381302,-2621440,87,-56,-1,-1,0
1523633381302,-1507328,87,-56,-1,-1,0
1523633381302,-851968,87,-56,-1,-1,0
1523633381302,-524288,87,-56,-1,-1,0
1523633381302,-327680,87,-56,-1,-1,0
1523633381342,-196608,87,-56,-1,-1,0
1523633381342,-131072,87,-56,-1,-1,0
1523633381342,0,87,-56,-1,-1,0
1523633381342,65536,87,-56,-1,-1,0
1523633381342,65536,87,-56,-1,-1,0
1523633381382,131072,87,-56,-1,-1,0
1523633381382,327680,87,-56,-1,-1,0
1523633381382,524288,87,-56,-1,-1,0
1523633381382,655360,87,-56,-1,-1,0
1523633381382,851968,87,-56,-1,-1,0
1523633381422,1179648,87,-56,-1,-1,0
1523633381422,1507328,87,-56,-1,-1,0
1523633381422,1966080,87,-56,-1,-1,0
1523633381422,2424832,87,-56,-1,-1,0
1523633381422,2949120,87,-56,-1,-1,0
1523633381462,3407872,87,-56,-1,-1,0
1523633381462,3932160,87,-56,-1,-1,0
1523633381462,4325376,87,-56,-1,-1,0
1523633381462,4587520,87,-56,-1,-1,0
1523633381462,4653056,87,-56,-1,-1,0
1523633381502,4521984,87,-56,-1,-1,0
1523633381502,4194304,87,-56,-1,-1,0
1523633381502,3670016,87,-56,-1,-1,0
1523633381502,3080192,87,-56,-1,-1,0
1523633381502,2424832,87,-56,-1,-1,0
1523633381542,1835008,87,-56,-1,-1,0
1523633381542,1245184,87,-56,-1,-1,0
1523633381542,851968,87,-56,-1,-1,0
1523633381542,655360,87,-56,-1,-1,0
1523633381542,524288,87,-56,-1,-1,0
1523633381582,196608,87,-56,-1,-1,0
1523633381582,-327680,87,-56,-1,-1,0
1523633381582,-524288,87,-56,-1,-1,0
1523633381582,-196608,87,-56,-1,-1,0
1523633381582,131072,87,-56,-1,-1,0
1523633381622,65536,87,-56,-1,-1,0
1523633381622,0,87,-56,-1,-1,0
1523633381622,-65536,87,-56,-1,-1,0
1523633381622,-196608,87,-56,-1,-1,0
1523633381622,-458752,87,-56,-1,-1,0
1523633381663,-720896,87,-56,-1,-1,0
1523633381663,-524288,87,-56,-1,-1,0
1523633381663,-131072,87,-56,-1,-1,0
1523633381663,0,87,-56,-1,-1,0
1523633381663,-393216,87,-56,-1,-1,0
1523633381705,-524288,87,-56,-1,-1,0
1523633381705,-458752,87,-56,-1,-1,0
1523633381705,-327680,87,-56,-1,-1,0
1523633381705,-458752,87,-56,-1,-1,0
1523633381705,-524288,87,-56,-1,-1,0
1523633381747,-524288,87,-56,-1,-1,0
1523633381747,-720896,87,-56,-1,-1,0
1523633381747,-1245184,87,-56,-1,-1,0
1523633381747,-1114112,87,-56,-1,-1,0
1523633381747,-720896,87,-56,-1,-1,0
1523633381782,-524288,87,-56,-1,-1,0
1523633381782,-851968,87,-56,-1,-1,0
1523633381782,-917504,87,-56,-1,-1,0
1523633381782,-1114112,87,-56,-1,-1,0
1523633381782,-1703936,87,-56,-1,-1,0
1523633381822,-1769472,87,-56,-1,-1,0
1523633381822,-1310720,87,-56,-1,-1,0
1523633381822,-851968,87,-56,-1,-1,0
1523633381822,-851968,87,-56,-1,-1,0
1523633381822,-1114112,87,-56,-1,-1,0
1523633381862,-1310720,87,-56,-1,-1,0
1523633381862,-1310720,87,-56,-1,-1,0
1523633381862,-1376256,87,-56,-1,-1,0
1523633381862,-1703936,87,-56,-1,-1,0
1523633381862,-1572864,87,-56,-1,-1,0
1523633381902,-1114112,87,-56,-1,-1,0
1523633381902,-917504,87,-56,-1,-1,0
1523633381902,-1048576,87,-56,-1,-1,0
1523633381902,-983040,87,-56,-1,-1,0
1523633381902,-1114112,87,-56,-1,-1,0
1523633381943,-1310720,87,-56,-1,-1,0
1523633381943,-1441792,87,-56,-1,-1,0
1523633381943,-1703936,87,-56,-1,-1,0
1523633381943,-1900544,87,-56,-1,-1,0
1523633381943,-1703936,87,-56,-1,-1,0
1523633381982,-1441792,87,-56,-1,-1,0
1523633381982,-1376256,87,-56,-1,-1,0
1523633381982,-1441792,87,-56,-1,-1,0
1523633381982,-1441792,87,-56,-1,-1,0
1523633381982,-1441792,87,-56,-1,-1,0
1523633382023,-1507328,87,-56,-1,-1,0
1523633382023,-1048576,87,-56,-1,-1,0
1523633382023,524288,87,-56,-1,-1,0
1523633382023,3538944,87,-56,-1,-1,0
1523633382023,5177344,87,-56,-1,-1,0
1523633382065,3080192,87,-56,-1,-1,0
1523633382065,-983040,87,-56,-1,-1,0
1523633382065,-3670016,87,-56,-1,-1,0
1523633382065,-4456448,87,-56,-1,-1,0
1523633382065,-4194304,87,-56,-1,-1,0
1523633382102,-3276800,87,-56,-1,-1,0
1523633382102,-2228224,87,-56,-1,-1,0
1523633382102,-1638400,87,-56,-1,-1,0
1523633382102,-1507328,87,-56,-1,-1,0
1523633382102,-1376256,87,-56,-1,-1,0
1523633382143,-1048576,87,-56,-1,-1,0
1523633382143,-983040,87,-56,-1,-1,0
1523633382143,-983040,87,-56,-1,-1,0
1523633382143,-851968,87,-56,-1,-1,0
1523633382143,-655360,87,-56,-1,-1,0
1523633382182,-524288,87,-56,-1,-1,0
1523633382182,-524288,87,-56,-1,-1,0
1523633382182,-524288,87,-56,-1,-1,0
1523633382182,-327680,87,-56,-1,-1,0
1523633382182,-65536,87,-56,-1,-1,0
1523633382223,-262144,87,-56,-1,-1,0
1523633382223,0,87,-56,-1,-1,0
1523633382223,655360,87,-56,-1,-1,0
1523633382223,1048576,87,-56,-1,-1,0
1523633382223,1048576,87,-56,-1,-1,0
1523633382262,1441792,87,-56,-1,-1,0
1523633382262,1900544,87,-56,-1,-1,0
1523633382262,2228224,87,-56,-1,-1,0
1523633382262,2490368,87,-56,-1,-1,0
1523633382262,2293760,87,-56,-1,-1,0
1523633382302,2031616,87,-56,-1,-1,0
1523633382302,1900544,87,-56,-1,-1,0
1523633382302,1835008,87,-56,-1,-1,0
1523633382302,1376256,87,-56,-1,-1,0
1523633382302,655360,87,-56,-1,-1,0
1523633382342,0,87,-56,-1,-1,0
1523633382342,-327680,87,-56,-1,-1,0
1523633382342,-458752,87,-56,-1,-1,0
1523633382342,-655360,87,-56,-1,-1,0
1523633382342,-917504,87,-56,-1,-1,0
1523633382383,-1114112,87,-56,-1,-1,0
1523633382383,-1179648,87,-56,-1,-1,0
1523633382383,-1245184,87,-56,-1,-1,0
1523633382383,-1310720,87,-56,-1,-1,0
1523633382383,-1441792,87,-56,-1,-1,0
1523633382422,-1441792,87,-56,-1,-1,0
1523633382422,-1245184,87,-56,-1,-1,0
1523633382422,-1179648,87,-56,-1,-1,0
1523633382422,-1114112,87,-56,-1,-1,0
1523633382422,-1114112,87,-56,-1,-1,0
1523633382462,-983040,87,-56,-1,-1,0
1523633382462,-917504,87,-56,-1,-1,0
1523633382462,-1048576,87,-56,-1,-1,0
1523633382462,-1179648,87,-56,-1,-1,0
1523633382462,-983040,87,-56,-1,-1,0
1523633382502,-983040,87,-56,-1,-1,0
1523633382502,-983040,87,-56,-1,-1,0
1523633382502,-851968,87,-56,-1,-1,0
1523633382502,-851968,87,-56,-1,-1,0
1523633382502,-851968,87,-56,-1,-1,0
1523633382542,-786432,87,-56,-1,-1,0
1523633382542,-786432,87,-56,-1,-1,0
1523633382542,-917504,87,-56,-1,-1,0
1523633382542,-917504,87,-56,-1,-1,0
1523633382542,-851968,87,-56,-1,-1,0
1523633382582,-917504,87,-56,-1,-1,0
1523633382582,-917504,87,-56,-1,-1,0
1523633382582,-851968,87,-56,-1,-1,0
1523633382582,-851968,87,-56,-1,-1,0
1523633382582,-720896,87,-56,-1,-1,0
1523633382622,-393216,87,-56,-1,-1,0
1523633382622,-458752,87,-56,-1,-1,0
1523633382622,-655360,87,-56,-1,-1,0
1523633382622,-851968,87,-56,-1,-1,0
1523633382622,-917504,87,-56,-1,-1,0
1523633382662,-851968,87,-56,-1,-1,0
1523633382662,-983040,87,-56,-1,-1,0
1523633382662,-1048576,87,-56,-1,-1,0
1523633382662,-1048576,87,-56,-1,-1,0
1523633382662,-917504,87,-56,-1,-1,0
1523633382702,-851968,86,-56,-1,-1,0
1523633382702,-851968,86,-56,-1,-1,0
1523633382702,-851968,86,-56,-1,-1,0
1523633382702,-786432,86,-56,-1,-1,0
1523633382702,-983040,86,-56,-1,-1,0
1523633382742,-262144,86,-56,-1,-1,0
1523633382742,2490368,86,-56,-1,-1,0
1523633382742,6553600,86,-56,-1,-1,0
1523633382742,7995392,86,-56,-1,-1,0
1523633382742,4849664,86,-56,-1,-1,0
1523633382782,-65536,86,-56,-1,-1,0
1523633382782,-3342336,86,-56,-1,-1,0
1523633382782,-3997696,86,-56,-1,-1,0
1523633382782,-3080192,86,-56,-1,-1,0
1523633382782,-1769472,86,-56,-1,-1,0
1523633382822,-851968,86,-56,-1,-1,0
1523633382822,-458752,86,-56,-1,-1,0
1523633382822,-262144,86,-56,-1,-1,0
1523633382822,-196608,86,-56,-1,-1,0
1523633382822,0,86,-56,-1,-1,0
1523633382862,65536,86,-56,-1,-1,0
1523633382862,131072,86,-56,-1,-1,0
1523633382862,131072,86,-56,-1,-1,0
1523633382862,262144,86,-56,-1,-1,0
1523633382862,393216,86,-56,-1,-1,0
1523633382902,589824,86,-56,-1,-1,0
1523633382902,720896,86,-56,-1,-1,0
1523633382902,851968,86,-56,-1,-1,0
1523633382902,1179648,86,-56,-1,-1,0
1523633382902,1507328,86,-56,-1,-1,0
1523633382942,1769472,86,-56,-1,-1,0
1523633382942,2162688,86,-56,-1,-1,0
1523633382942,2555904,86,-56,-1,-1,0
1523633382942,2949120,86,-56,-1,-1,0
1523633382942,3407872,86,-56,-1,-1,0
1523633382982,3866624,86,-56,-1,-1,0
1523633382982,4194304,86,-56,-1,-1,0
1523633382982,4194304,86,-56,-1,-1,0
1523633382982,4194304,86,-56,-1,-1,0
1523633382982,4063232,86,-56,-1,-1,0
1523633383023,3604480,86,-56,-1,-1,0
1523633383023,3080192,86,-56,-1,-1,0
1523633383023,2490368,86,-56,-1,-1,0
1523633383023,1769472,86,-56,-1,-1,0
1523633383023,917504,86,-56,-1,-1,0
1523633383062,262144,86,-56,-1,-1,0
1523633383062,0,86,-56,-1,-1,0
1523633383062,-262144,86,-56,-1,-1,0
1523633383062,-458752,86,-56,-1,-1,0
1523633383062,-524288,86,-56,-1,-1,0
1523633383102,-524288,86,-56,-1,-1,0
1523633383102,-655360,86,-56,-1,-1,0
1523633383102,-786432,86,-56,-1,-1,0
1523633383102,-917504,86,-56,-1,-1,0
1523633383102,-983040,86,-56,-1,-1,0
1523633383142,-983040,86,-56,-1,-1,0
1523633383142,-851968,86,-56,-1,-1,0
1523633383142,-786432,86,-56,-1,-1,0
1523633383142,-720896,86,-56,-1,-1,0
1523633383142,-851968,86,-56,-1,-1,0
1523633383182,-983040,86,-56,-1,-1,0
1523633383182,-983040,86,-56,-1,-1,0
1523633383182,-917504,86,-56,-1,-1,0
1523633383182,-917504,86,-56,-1,-1,0
1523633383182,-851968,86,-56,-1,-1,0
1523633383222,-786432,86,-56,-1,-1,0
1523633383222,-786432,86,-56,-1,-1,0
1523633383222,-983040,86,-56,-1,-1,0
1523633383222,-983040,86,-56,-1,-1,0
1523633383222,-786432,86,-56,-1,-1,0
1523633383262,-720896,86,-56,-1,-1,0
1523633383262,-786432,86,-56,-1,-1,0
1523633383262,-786432,86,-56,-1,-1,0
1523633383262,-720896,86,-56,-1,-1,0
1523633383262,-655360,86,-56,-1,-1,0
1523633383302,-720896,86,-56,-1,-1,0
1523633383302,-720896,86,-56,-1,-1,0
1523633383302,-655360,86,-56,-1,-1,0
1523633383302,-655360,86,-56,-1,-1,0
1523633383302,-786432,86,-56,-1,-1,0
1523633383343,-851968,86,-56,-1,-1,0
1523633383343,-917504,86,-56,-1,-1,0
1523633383343,-917504,86,-56,-1,-1,0
1523633383343,-851968,86,-56,-1,-1,0
1523633383343,-851968,86,-56,-1,-1,0
1523633383382,-851968,86,-56,-1,-1,0
1523633383382,-851968,86,-56,-1,-1,0
1523633383382,-851968,86,-56,-1,-1,0
1523633383382,-917504,86,-56,-1,-1,0
1523633383382,-1114112,86,-56,-1,-1,0
1523633383422,-655360,86,-56,-1,-1,0
1523633383422,1703936,86,-56,-1,-1,0
1523633383422,6094848,86,-56,-1,-1,0
1523633383422,8978432,86,-56,-1,-1,0
1523633383422,7012352,86,-56,-1,-1,0
1523633383462,1572864,86,-56,-1,-1,0
1523633383462,-2621440,86,-56,-1,-1,0
1523633383462,-3932160,86,-56,-1,-1,0
1523633383462,-3342336,86,-56,-1,-1,0
1523633383462,-2162688,86,-56,-1,-1,0
1523633383502,-1179648,86,-56,-1,-1,0
1523633383502,-720896,86,-56,-1,-1,0
1523633383502,-393216,86,-56,-1,-1,0
1523633383502,-196608,86,-56,-1,-1,0
1523633383502,-196608,86,-56,-1,-1,0
1523633383542,-65536,86,-56,-1,-1,0
1523633383542,0,86,-56,-1,-1,0
1523633383542,131072,86,-56,-1,-1,0
1523633383542,196608,86,-56,-1,-1,0
1523633383542,196608,86,-56,-1,-1,0
1523633383582,327680,86,-56,-1,-1,0
1523633383582,524288,86,-56,-1,-1,0
1523633383582,655360,86,-56,-1,-1,0
1523633383582,851968,86,-56,-1,-1,0
1523633383582,1114112,86,-56,-1,-1,0
1523633383622,1376256,86,-56,-1,-1,0
1523633383622,1769472,86,-56,-1,-1,0
1523633383622,2228224,86,-56,-1,-1,0
1523633383622,2621440,86,-56,-1,-1,0
1523633383622,3014656,86,-56,-1,-1,0
1523633383663,3473408,86,-56,-1,-1,0
1523633383663,3866624,86,-56,-1,-1,0
1523633383663,4128768,86,-56,-1,-1,0
1523633383663,4194304,86,-56,-1,-1,0
1523633383663,3932160,86,-56,-1,-1,0
1523633383702,3604480,86,-56,-1,-1,0
1523633383702,3014656,86,-56,-1,-1,0
1523633383702,2293760,86,-56,-1,-1,0
1523633383702,1572864,86,-56,-1,-1,0
1523633383702,786432,86,-56,-1,-1,0
1523633383742,262144,86,-56,-1,-1,0
1523633383742,0,86,-56,-1,-1,0
1523633383742,-196608,86,-56,-1,-1,0
1523633383742,-458752,86,-56,-1,-1,0
1523633383742,-589824,86,-56,-1,-1,0
1523633383782,-655360,86,-56,-1,-1,0
1523633383782,-720896,86,-56,-1,-1,0
1523633383782,-786432,86,-56,-1,-1,0
1523633383782,-786432,86,-56,-1,-1,0
1523633383782,-720896,86,-56,-1,-1,0
1523633383822,-655360,86,-56,-1,-1,0
1523633383822,-655360,86,-56,-1,-1,0
1523633383822,-720896,86,-56,-1,-1,0
1523633383822,-851968,86,-56,-1,-1,0
1523633383822,-1114112,86,-56,-1,-1,0
1523633383862,-1376256,86,-56,-1,-1,0
1523633383862,-1114112,86,-56,-1,-1,0
1523633383862,-524288,86,-56,-1,-1,0
1523633383862,-262144,86,-56,-1,-1,0
1523633383862,-851968,86,-56,-1,-1,0
1523633383902,-1048576,86,-56,-1,-1,0
1523633383902,-851968,86,-56,-1,-1,0
1523633383902,-851968,86,-56,-1,-1,0
1523633383902,-1245184,86,-56,-1,-1,0
1523633383902,-1376256,86,-56,-1,-1,0
1523633383943,-1114112,86,-56,-1,-1,0
1523633383943,-983040,86,-56,-1,-1,0
1523633383943,-1048576,86,-56,-1,-1,0
1523633383943,-1114112,86,-56,-1,-1,0
1523633383943,-1441792,86,-56,-1,-1,0
1523633383982,-1835008,86,-56,-1,-1,0
1523633383982,-1507328,86,-56,-1,-1,0
1523633383982,-1310720,86,-56,-1,-1,0
1523633383982,-1638400,86,-56,-1,-1,0
1523633383982,-1835008,86,-56,-1,-1,0
1523633384023,-1507328,86,-56,-1,-1,0
1523633384023,-1376256,86,-56,-1,-1,0
1523633384023,-1900544,86,-56,-1,-1,0
1523633384023,-2031616,86,-56,-1,-1,0
1523633384023,-1966080,86,-56,-1,-1,0
1523633384062,-2162688,86,-56,-1,-1,0
1523633384062,-1769472,86,-56,-1,-1,0
1523633384062,-1376256,86,-56,-1,-1,0
1523633384062,-1441792,86,-56,-1,-1,0
1523633384062,-1638400,86,-56,-1,-1,0
1523633384102,-1900544,85,-56,-1,-1,0
1523633384102,-2097152,85,-56,-1,-1,0
1523633384102,-1900544,85,-56,-1,-1,0
1523633384102,-1310720,85,-56,-1,-1,0
1523633384102,-589824,85,-56,-1,-1,0
1523633384143,2097152,85,-56,-1,-1,0
1523633384143,6029312,85,-56,-1,-1,0
1523633384143,6422528,85,-56,-1,-1,0
1523633384143,2228224,85,-56,-1,-1,0
1523633384143,-2228224,85,-56,-1,-1,0
1523633384182,-4390912,85,-56,-1,-1,0
1523633384182,-4587520,85,-56,-1,-1,0
1523633384182,-3866624,85,-56,-1,-1,0
1523633384182,-2686976,85,-56,-1,-1,0
1523633384182,-1966080,85,-56,-1,-1,0
1523633384222,-1572864,85,-56,-1,-1,0
1523633384222,-1441792,85,-56,-1,-1,0
1523633384222,-1310720,85,-56,-1,-1,0
1523633384222,-1179648,85,-56,-1,-1,0
1523633384222,-917504,85,-56,-1,-1,0
1523633384262,-720896,85,-56,-1,-1,0
1523633384262,-720896,85,-56,-1,-1,0
1523633384262,-851968,85,-56,-1,-1,0
1523633384262,-851968,85,-56,-1,-1,0
1523633384262,-655360,85,-56,-1,-1,0
1523633384303,-327680,85,-56,-1,-1,0
1523633384303,-393216,85,-56,-1,-1,0
1523633384303,-524288,85,-56,-1,-1,0
1523633384303,-131072,85,-56,-1,-1,0
1523633384303,589824,85,-56,-1,-1,0
1523633384343,720896,85,-56,-1,-1,0
1523633384343,786432,85,-56,-1,-1,0
1523633384343,1245184,85,-56,-1,-1,0
1523633384343,1966080,85,-56,-1,-1,0
1523633384343,2162688,85,-56,-1,-1,0
1523633384385,2359296,85,-56,-1,-1,0
1523633384385,2490368,85,-56,-1,-1,0
1523633384385,2293760,85,-56,-1,-1,0
1523633384385,1966080,85,-56,-1,-1,0
1523633384385,1769472,85,-56,-1,-1,0
1523633384422,1507328,85,-56,-1,-1,0
1523633384422,917504,85,-56,-1,-1,0
1523633384422,65536,85,-56,-1,-1,0
1523633384422,-524288,85,-56,-1,-1,0
1523633384422,-1114112,85,-56,-1,-1,0
1523633384462,-1441792,85,-56,-1,-1,0
1523633384462,-1441792,85,-56,-1,-1,0
1523633384462,-1572864,85,-56,-1,-1,0
1523633384462,-1703936,85,-56,-1,-1,0
1523633384462,-1900544,85,-56,-1,-1,0
1523633384502,-1966080,85,-56,-1,-1,0
1523633384502,-1769472,85,-56,-1,-1,0
1523633384502,-1441792,85,-56,-1,-1,0
1523633384502,-1507328,85,-56,-1,-1,0
1523633384502,-1572864,85,-56,-1,-1,0
1523633384542,-1507328,85,-56,-1,-1,0
1523633384542,-1441792,85,-56,-1,-1,0
1523633384542,-1310720,85,-56,-1,-1,0
1523633384542,-917504,85,-56,-1,-1,0
1523633384542,-786432,85,-56,-1,-1,0
1523633384582,-1048576,85,-56,-1,-1,0
1523633384582,-1048576,85,-56,-1,-1,0
1523633384582,-983040,85,-56,-1,-1,0
1523633384582,-720896,85,-56,-1,-1,0
1523633384582,-589824,85,-56,-1,-1,0
1523633384622,-524288,85,-56,-1,-1,0
1523633384622,-720896,85,-56,-1,-1,0
1523633384622,-851968,85,-56,-1,-1,0
1523633384622,-655360,85,-56,-1,-1,0
1523633384622,-393216,85,-56,-1,-1,0
1523633384662,-393216,85,-56,-1,-1,0
1523633384662,-524288,85,-56,-1,-1,0
1523633384662,-458752,85,-56,-1,-1,0
1523633384662,-524288,85,-56,-1,-1,0
1523633384662,-589824,85,-56,-1,-1,0
1523633384702,-524288,85,-56,-1,-1,0
1523633384702,-524288,85,-56,-1,-1,0
1523633384702,-524288,85,-56,-1,-1,0
1523633384702,-720896,85,-56,-1,-1,0
1523633384702,-786432,85,-56,-1,-1,0
1523633384742,-786432,85,-56,-1,-1,0
1523633384742,-589824,85,-56,-1,-1,0
1523633384742,-327680,85,-56,-1,-1,0
1523633384742,-327680,85,-56,-1,-1,0
1523633384742,-589824,85,-56,-1,-1,0
1523633384782,-786432,85,-56,-1,-1,0
1523633384782,-524288,85,-56,-1,-1,0
1523633384782,917504,85,-56,-1,-1,0
1523633384782,4521984,85,-56,-1,-1,0
1523633384782,7995392,85,-56,-1,-1,0
1523633384822,7471104,85,-56,-1,-1,0
1523633384822,3014656,85,-56,-1,-1,0
1523633384822,-1376256,85,-56,-1,-1,0
1523633384822,-3473408,85,-56,-1,-1,0
1523633384822,-3407872,85,-56,-1,-1,0
1523633384862,-2293760,85,-56,-1,-1,0
1523633384862,-1310720,85,-56,-1,-1,0
1523633384862,-589824,85,-56,-1,-1,0
1523633384862,-131072,85,-56,-1,-1,0
1523633384862,0,85,-56,-1,-1,0
1523633384902,0,85,-56,-1,-1,0
1523633384902,0,85,-56,-1,-1,0
1523633384902,65536,85,-56,-1,-1,0
1523633384902,131072,85,-56,-1,-1,0
1523633384902,327680,85,-56,-1,-1,0
1523633384943,393216,85,-56,-1,-1,0
1523633384943,524288,85,-56,-1,-1,0
1523633384943,589824,85,-56,-1,-1,0
1523633384943,720896,85,-56,-1,-1,0
1523633384943,851968,85,-56,-1,-1,0
1523633384983,983040,85,-56,-1,-1,0
1523633384983,1179648,85,-56,-1,-1,0
1523633384983,1703936,85,-56,-1,-1,0
1523633384983,2031616,85,-56,-1,-1,0
1523633384983,2359296,85,-56,-1,-1,0
1523633385022,2752512,85,-56,-1,-1,0
1523633385022,3276800,85,-56,-1,-1,0
1523633385022,3538944,85,-56,-1,-1,0
1523633385022,3801088,85,-56,-1,-1,0
1523633385022,3997696,85,-56,-1,-1,0
1523633385062,3866624,85,-56,-1,-1,0
1523633385062,3407872,85,-56,-1,-1,0
1523633385062,2883584,85,-56,-1,-1,0
1523633385062,2228224,85,-56,-1,-1,0
1523633385062,1441792,85,-56,-1,-1,0
1523633385102,917504,85,-56,-1,-1,0
1523633385102,393216,85,-56,-1,-1,0
1523633385102,0,85,-56,-1,-1,0
1523633385102,-196608,85,-56,-1,-1,0
1523633385102,-393216,85,-56,-1,-1,0
1523633385143,-524288,85,-56,-1,-1,0
1523633385143,-524288,85,-56,-1,-1,0
1523633385143,-589824,85,-56,-1,-1,0
1523633385143,-720896,85,-56,-1,-1,0
1523633385143,-720896,85,-56,-1,-1,0
1523633385182,-589824,85,-56,-1,-1,0
1523633385182,-655360,85,-56,-1,-1,0
1523633385182,-786432,85,-56,-1,-1,0
1523633385182,-851968,85,-56,-1,-1,0
1523633385182,-655360,85,-56,-1,-1,0
1523633385222,-589824,85,-56,-1,-1,0
1523633385222,-720896,85,-56,-1,-1,0
1523633385222,-851968,85,-56,-1,-1,0
1523633385222,-720896,85,-56,-1,-1,0
1523633385222,-524288,85,-56,-1,-1,0
1523633385262,-458752,85,-56,-1,-1,0
1523633385262,-458752,85,-56,-1,-1,0
1523633385262,-589824,85,-56,-1,-1,0
1523633385262,-589824,85,-56,-1,-1,0
1523633385262,-524288,85,-56,-1,-1,0
1523633385302,-458752,85,-56,-1,-1,0
1523633385302,-327680,85,-56,-1,-1,0
1523633385302,-327680,85,-56,-1,-1,0
1523633385302,-262144,85,-56,-1,-1,0
1523633385302,-196608,85,-56,-1,-1,0
1523633385342,-65536,85,-56,-1,-1,0
1523633385342,-262144,85,-56,-1,-1,0
1523633385342,-524288,85,-56,-1,-1,0
1523633385342,-524288,85,-56,-1,-1,0
1523633385342,-131072,85,-56,-1,-1,0
1523633385382,-65536,85,-56,-1,-1,0
1523633385382,-262144,85,-56,-1,-1,0
1523633385382,-393216,85,-56,-1,-1,0
1523633385382,-393216,85,-56,-1,-1,0
1523633385382,-524288,85,-56,-1,-1,0
1523633385422,-589824,85,-56,-1,-1,0
1523633385422,-589824,85,-56,-1,-1,0
1523633385422,-393216,85,-56,-1,-1,0
1523633385422,-393216,85,-56,-1,-1,0
1523633385422,-393216,85,-56,-1,-1,0
1523633385462,-524288,85,-56,-1,-1,0
1523633385462,-458752,85,-56,-1,-1,0
1523633385462,786432,85,-56,-1,-1,0
1523633385462,4063232,85,-56,-1,-1,0
1523633385462,7208960,85,-56,-1,-1,0
1523633385502,6815744,85,-56,-1,-1,0
1523633385502,2752512,85,-56,-1,-1,0
1523633385502,-1245184,85,-56,-1,-1,0
1523633385502,-3145728,85,-56,-1,-1,0
1523633385502,-3276800,85,-56,-1,-1,0
1523633385542,-2359296,85,-56,-1,-1,0
1523633385542,-1114112,85,-56,-1,-1,0
1523633385542,-262144,85,-56,-1,-1,0
1523633385542,65536,85,-56,-1,-1,0
1523633385542,262144,85,-56,-1,-1,0
1523633385583,458752,85,-56,-1,-1,0
1523633385583,458752,85,-56,-1,-1,0
1523633385583,458752,85,-56,-1,-1,0
1523633385583,524288,85,-56,-1,-1,0
1523633385583,786432,85,-56,-1,-1,0
1523633385622,851968,85,-56,-1,-1,0
1523633385622,917504,85,-56,-1,-1,0
1523633385622,983040,85,-56,-1,-1,0
1523633385622,1114112,85,-56,-1,-1,0
1523633385622,1376256,85,-56,-1,-1,0
1523633385662,1638400,85,-56,-1,-1,0
1523633385662,1835008,85,-56,-1,-1,0
1523633385662,2162688,85,-56,-1,-1,0
1523633385662,2621440,85,-56,-1,-1,0
1523633385662,3080192,85,-56,-1,-1,0
1523633385702,3342336,85,-56,-1,-1,0
1523633385702,3538944,85,-56,-1,-1,0
1523633385702,3866624,85,-56,-1,-1,0
1523633385702,4128768,85,-56,-1,-1,0
1523633385702,4194304,85,-56,-1,-1,0
1523633385742,4063232,85,-56,-1,-1,0
1523633385742,3604480,85,-56,-1,-1,0
1523633385742,2883584,85,-56,-1,-1,0
1523633385742,2162688,85,-56,-1,-1,0
1523633385742,1507328,85,-56,-1,-1,0
1523633385782,917504,85,-56,-1,-1,0
1523633385782,458752,85,-56,-1,-1,0
1523633385782,65536,85,-56,-1,-1,0
1523633385782,-196608,85,-56,-1,-1,0
1523633385782,-458752,85,-56,-1,-1,0
1523633385822,-524288,85,-56,-1,-1,0
1523633385822,-524288,85,-56,-1,-1,0
1523633385822,-589824,85,-56,-1,-1,0
1523633385822,-655360,85,-56,-1,-1,0
1523633385822,-720896,85,-56,-1,-1,0
1523633385862,-851968,85,-56,-1,-1,0
1523633385862,-720896,85,-56,-1,-1,0
1523633385862,-589824,85,-56,-1,-1,0
1523633385862,-655360,85,-56,-1,-1,0
1523633385862,-786432,85,-56,-1,-1,0
1523633385902,-786432,85,-56,-1,-1,0
1523633385902,-655360,85,-56,-1,-1,0
1523633385902,-655360,85,-56,-1,-1,0
1523633385902,-655360,85,-56,-1,-1,0
1523633385902,-720896,85,-56,-1,-1,0
1523633385946,-589824,85,-56,-1,-1,0
1523633385946,-262144,85,-56,-1,-1,0
1523633385946,-393216,85,-56,-1,-1,0
1523633385946,-458752,85,-56,-1,-1,0
1523633385946,-458752,85,-56,-1,-1,0
1523633385982,-393216,85,-56,-1,-1,0
1523633385982,-655360,85,-56,-1,-1,0
1523633385982,-720896,85,-56,-1,-1,0
1523633385982,-655360,85,-56,-1,-1,0
1523633385982,-589824,85,-56,-1,-1,0
1523633386024,-655360,85,-56,-1,-1,0
1523633386024,-786432,85,-56,-1,-1,0
1523633386024,-851968,85,-56,-1,-1,0
1523633386024,-983040,85,-56,-1,-1,0
1523633386024,-1179648,85,-56,-1,-1,0
1523633386062,-1114112,85,-56,-1,-1,0
1523633386062,-786432,85,-56,-1,-1,0
1523633386062,-786432,85,-56,-1,-1,0
1523633386062,-1310720,85,-56,-1,-1,0
1523633386062,-1900544,85,-56,-1,-1,0
1523633386103,-1638400,84,-56,-1,-1,0
1523633386103,-1048576,84,-56,-1,-1,0
1523633386103,-1114112,84,-56,-1,-1,0
1523633386103,-1572864,84,-56,-1,-1,0
1523633386103,-1769472,84,-56,-1,-1,0
1523633386142,-1966080,84,-56,-1,-1,0
1523633386142,-2162688,84,-56,-1,-1,0
1523633386142,-2097152,84,-56,-1,-1,0
1523633386142,-1114112,84,-56,-1,-1,0
1523633386142,1507328,84,-56,-1,-1,0
1523633386182,5373952,84,-56,-1,-1,0
1523633386182,6356992,84,-56,-1,-1,0
1523633386182,2818048,84,-56,-1,-1,0
1523633386182,-1835008,84,-56,-1,-1,0
1523633386182,-4849664,84,-56,-1,-1,0
1523633386225,-5439488,84,-56,-1,-1,0
1523633386225,-4456448,84,-56,-1,-1,0
1523633386225,-2949120,84,-56,-1,-1,0
1523633386225,-1769472,84,-56,-1,-1,0
1523633386225,-1441792,84,-56,-1,-1,0
1523633386262,-1310720,84,-56,-1,-1,0
1523633386262,-1114112,84,-56,-1,-1,0
1523633386262,-1114112,84,-56,-1,-1,0
1523633386262,-1245184,84,-56,-1,-1,0
1523633386262,-1048576,84,-56,-1,-1,0
1523633386302,-786432,84,-56,-1,-1,0
1523633386302,-786432,84,-56,-1,-1,0
1523633386302,-589824,84,-56,-1,-1,0
1523633386302,-524288,84,-56,-1,-1,0
1523633386302,-589824,84,-56,-1,-1,0
1523633386342,-393216,84,-56,-1,-1,0
1523633386342,-327680,84,-56,-1,-1,0
1523633386342,-196608,84,-56,-1,-1,0
1523633386342,393216,84,-56,-1,-1,0
1523633386342,1179648,84,-56,-1,-1,0
1523633386382,1310720,84,-56,-1,-1,0
1523633386382,1703936,84,-56,-1,-1,0
1523633386382,2228224,84,-56,-1,-1,0
1523633386382,2555904,84,-56,-1,-1,0
1523633386382,2752512,84,-56,-1,-1,0
1523633386422,2883584,84,-56,-1,-1,0
1523633386422,2949120,84,-56,-1,-1,0
1523633386422,2752512,84,-56,-1,-1,0
1523633386422,2359296,84,-56,-1,-1,0
1523633386422,1835008,84,-56,-1,-1,0
1523633386462,1376256,84,-56,-1,-1,0
1523633386462,786432,84,-56,-1,-1,0
1523633386462,262144,84,-56,-1,-1,0
