milliseconds, ECG, ECG HR, PPG, PPG HR, SpO2, PI,Landmark_0,Landmark_1,Landmark_2,Landmark_3,Landmark_4,Landmark_5,Landmark_6,Landmark_7,Landmark_8,Landmark_9,Landmark_10,Landmark_11,Landmark_12,Landmark_13,Landmark_14,Landmark_15,Landmark_16,Landmark_17,Landmark_18,Landmark_19,Landmark_20,Landmark_21,Landmark_22,Landmark_23,Landmark_24,Landmark_25,Landmark_26,Landmark_27,Landmark_28,Landmark_29,Landmark_30,Landmark_31,Landmark_32,Landmark_33,Landmark_34,Landmark_35,Landmark_36,Landmark_37,Landmark_38,Landmark_39,Landmark_40,Landmark_41,Landmark_42,Landmark_43,Landmark_44,Landmark_45,Landmark_46,Landmark_47,Landmark_48,Landmark_49,Landmark_50,Landmark_51,Landmark_52,Landmark_53,Landmark_54,Landmark_55,Landmark_56,Landmark_57,Landmark_58,Landmark_59,Landmark_60,Landmark_61,Landmark_62,Landmark_63,Landmark_64,Landmark_65,Landmark_66,Landmark_67,EyeAspectRatio,MouthAspectRatio,LightIntensity,FaceWidthRatio,EyebrowHeight,LipsWidthRatio,LipsHeightRatio,EyeOpening,NoseWidthRatio,NoseHeightRatio,AvgRedForehead,AvgGreenForehead,AvgBlueForehead,AvgRedLips,AvgGreenLips,AvgBlueLips,AvgRedCheeks,AvgGreenCheeks,AvgBlueCheeks
0,-1310720,69,-56,-1,-1,0,"(1019, 419)","(1017, 451)","(1018, 482)","(1019, 514)","(1025, 547)","(1039, 576)","(1061, 601)","(1088, 620)","(1123, 627)","(1160, 625)","(1193, 610)","(1221, 588)","(1241, 560)","(1252, 527)","(1257, 493)","(1261, 459)","(1264, 426)","(1030, 388)","(1041, 368)","(1064, 361)","(1089, 363)","(1111, 374)","(1152, 376)","(1177, 367)","(1205, 366)","(1230, 376)","(1243, 399)","(1131, 400)","(1129, 420)","(1126, 440)","(1124, 461)","(1100, 481)","(1112, 485)","(1125, 489)","(1139, 486)","(1152, 484)","(1055, 406)","(1067, 398)","(1082, 398)","(1098, 408)","(1082, 411)","(1066, 411)","(1169, 411)","(1185, 403)","(1201, 404)","(1214, 414)","(1201, 418)","(1184, 416)","(1078, 531)","(1094, 520)","(1112, 516)","(1126, 519)","(1140, 517)","(1161, 524)","(1181, 536)","(1161, 553)","(1140, 558)","(1125, 557)","(1111, 555)","(1093, 548)","(1086, 531)","(1112, 525)","(1126, 527)","(1140, 527)","(1172, 536)","(1140, 542)","(1125, 543)","(1112, 540)",0.29,0.95,106.0,0.35,0.03,0.42,0.04,-14.0,0.08,0.26,59.1,64.0,95.5,36.7,35.45,78.9,58.17,54.11,71.64
33,7929856,69,-56,-1,-1,0,"(981, 459)","(977, 491)","(977, 523)","(979, 555)","(984, 588)","(996, 620)","(1014, 649)","(1037, 674)","(1069, 684)","(1105, 682)","(1138, 666)","(1166, 644)","(1189, 617)","(1204, 585)","(1212, 550)","(1218, 516)","(1222, 481)","(988, 448)","(1002, 433)","(1025, 431)","(1047, 438)","(1068, 451)","(1105, 453)","(1130, 446)","(1157, 444)","(1182, 452)","(1196, 470)","(1085, 469)","(1081, 494)","(1078, 518)","(1074, 543)","(1050, 550)","(1062, 557)","(1075, 564)","(1090, 560)","(1104, 556)","(1012, 463)","(1025, 456)","(1040, 458)","(1055, 469)","(1039, 471)","(1023, 470)","(1121, 475)","(1136, 467)","(1153, 469)","(1166, 478)","(1152, 482)","(1136, 480)","(1030, 587)","(1046, 585)","(1062, 587)","(1074, 592)","(1088, 590)","(1108, 594)","(1129, 599)","(1107, 615)","(1087, 620)","(1072, 620)","(1059, 616)","(1044, 607)","(1037, 589)","(1061, 593)","(1074, 596)","(1088, 596)","(1121, 600)","(1087, 606)","(1073, 606)","(1060, 602)",0.28,0.97,104.0,0.36,0.11,0.41,0.04,-15.0,0.07,0.34,55.9,61.7,92.9,39.0,37.2,78.95,60.17,49.35,58.94
66,-524288,69,-56,-1,-1,0,"(981, 457)","(977, 489)","(977, 521)","(978, 554)","(983, 587)","(995, 619)","(1013, 648)","(1035, 672)","(1068, 682)","(1104, 681)","(1137, 665)","(1166, 643)","(1190, 616)","(1204, 584)","(1213, 550)","(1219, 515)","(1223, 480)","(987, 446)","(1001, 432)","(1023, 430)","(1046, 437)","(1066, 450)","(1104, 453)","(1130, 445)","(1156, 443)","(1181, 451)","(1196, 470)","(1084, 468)","(1080, 493)","(1076, 517)","(1073, 542)","(1049, 549)","(1060, 557)","(1073, 563)","(1088, 560)","(1102, 556)","(1012, 463)","(1024, 457)","(1039, 459)","(1053, 469)","(1037, 470)","(1022, 469)","(1120, 475)","(1135, 468)","(1152, 470)","(1165, 478)","(1151, 482)","(1135, 481)","(1028, 586)","(1044, 585)","(1060, 587)","(1072, 592)","(1086, 590)","(1106, 594)","(1127, 599)","(1104, 615)","(1084, 619)","(1070, 619)","(1056, 615)","(1042, 605)","(1035, 588)","(1059, 593)","(1072, 597)","(1086, 597)","(1119, 600)","(1085, 605)","(1071, 605)","(1058, 601)",0.27,0.97,104.0,0.35,0.11,0.4,0.03,-13.5,0.07,0.34,57.0,62.9,96.3,38.15,38.3,77.1,62.05,49.47,57.35
100,-786432,69,-56,-1,-1,0,"(982, 460)","(978, 492)","(978, 524)","(979, 556)","(985, 589)","(997, 621)","(1014, 650)","(1037, 675)","(1068, 685)","(1104, 684)","(1137, 668)","(1166, 645)","(1188, 618)","(1203, 585)","(1212, 550)","(1218, 515)","(1222, 480)","(988, 448)","(1002, 433)","(1024, 431)","(1046, 437)","(1066, 449)","(1103, 452)","(1129, 444)","(1155, 443)","(1181, 451)","(1196, 470)","(1083, 468)","(1080, 493)","(1076, 518)","(1073, 543)","(1050, 550)","(1061, 558)","(1074, 564)","(1088, 561)","(1102, 556)","(1014, 463)","(1025, 457)","(1040, 459)","(1054, 468)","(1039, 470)","(1024, 469)","(1119, 474)","(1134, 467)","(1150, 469)","(1163, 477)","(1150, 481)","(1134, 479)","(1030, 586)","(1045, 586)","(1060, 587)","(1073, 592)","(1087, 591)","(1106, 594)","(1128, 599)","(1106, 616)","(1085, 621)","(1070, 620)","(1057, 616)","(1043, 606)","(1037, 589)","(1060, 594)","(1072, 597)","(1086, 597)","(1120, 600)","(1086, 606)","(1071, 606)","(1058, 602)",0.27,0.99,104.0,0.35,0.1,0.4,0.03,-13.5,0.07,0.34,58.8,63.5,96.3,38.15,36.9,77.7,63.88,53.23,63.17
133,-589824,69,-56,-1,-1,0,"(982, 457)","(978, 489)","(978, 521)","(979, 553)","(985, 586)","(996, 618)","(1014, 647)","(1036, 671)","(1067, 681)","(1103, 680)","(1137, 664)","(1165, 642)","(1189, 615)","(1203, 583)","(1212, 549)","(1219, 513)","(1224, 478)","(987, 445)","(1001, 430)","(1024, 429)","(1046, 437)","(1067, 450)","(1104, 452)","(1130, 444)","(1156, 441)","(1182, 448)","(1198, 467)","(1083, 468)","(1080, 493)","(1076, 517)","(1072, 542)","(1049, 549)","(1060, 557)","(1073, 563)","(1088, 559)","(1102, 555)","(1011, 461)","(1023, 455)","(1039, 457)","(1054, 468)","(1037, 470)","(1021, 469)","(1120, 474)","(1135, 466)","(1152, 467)","(1166, 476)","(1152, 481)","(1135, 480)","(1029, 586)","(1044, 586)","(1060, 587)","(1072, 592)","(1086, 590)","(1106, 594)","(1128, 598)","(1105, 614)","(1085, 619)","(1070, 618)","(1057, 615)","(1042, 606)","(1036, 589)","(1059, 593)","(1071, 597)","(1086, 597)","(1119, 599)","(1085, 604)","(1071, 604)","(1058, 600)",0.3,0.99,104.0,0.36,0.1,0.4,0.03,-15.0,0.07,0.34,59.3,66.4,99.9,37.35,36.8,75.45,59.41,48.17,56.76
166,-262144,69,-56,-1,-1,0,"(982, 460)","(979, 492)","(979, 524)","(979, 555)","(983, 588)","(994, 620)","(1011, 649)","(1033, 673)","(1065, 682)","(1101, 681)","(1135, 666)","(1165, 644)","(1187, 617)","(1202, 585)","(1210, 551)","(1216, 517)","(1221, 482)","(989, 446)","(1002, 431)","(1024, 429)","(1046, 436)","(1066, 449)","(1103, 452)","(1128, 444)","(1154, 443)","(1179, 450)","(1194, 469)","(1082, 468)","(1079, 493)","(1075, 517)","(1072, 542)","(1049, 548)","(1060, 556)","(1072, 563)","(1087, 559)","(1100, 555)","(1012, 462)","(1024, 455)","(1039, 457)","(1053, 468)","(1037, 470)","(1022, 469)","(1118, 475)","(1133, 467)","(1149, 469)","(1162, 477)","(1149, 482)","(1133, 480)","(1028, 585)","(1043, 584)","(1058, 586)","(1071, 591)","(1085, 590)","(1104, 594)","(1125, 599)","(1102, 614)","(1082, 618)","(1068, 617)","(1054, 613)","(1040, 604)","(1034, 588)","(1058, 592)","(1070, 596)","(1084, 597)","(1117, 600)","(1083, 605)","(1069, 604)","(1056, 600)",0.29,0.97,104.0,0.35,0.11,0.4,0.03,-15.0,0.07,0.34,56.8,64.2,95.4,37.6,37.15,78.7,64.05,52.0,60.17
200,393216,69,-56,-1,-1,0,"(983, 456)","(979, 487)","(978, 519)","(979, 551)","(983, 584)","(994, 617)","(1010, 646)","(1033, 671)","(1064, 681)","(1101, 680)","(1136, 665)","(1165, 644)","(1189, 616)","(1204, 584)","(1213, 550)","(1219, 514)","(1224, 479)","(989, 444)","(1003, 429)","(1026, 429)","(1048, 437)","(1068, 450)","(1104, 453)","(1130, 445)","(1156, 443)","(1182, 450)","(1197, 469)","(1083, 467)","(1079, 492)","(1075, 517)","(1071, 542)","(1048, 548)","(1059, 556)","(1071, 563)","(1087, 559)","(1101, 555)","(1012, 461)","(1024, 455)","(1039, 457)","(1054, 467)","(1038, 468)","(1023, 467)","(1120, 474)","(1136, 467)","(1152, 469)","(1164, 477)","(1151, 481)","(1135, 479)","(1028, 588)","(1043, 586)","(1058, 586)","(1070, 592)","(1084, 590)","(1104, 594)","(1125, 601)","(1102, 614)","(1083, 618)","(1068, 617)","(1054, 614)","(1040, 605)","(1035, 590)","(1057, 595)","(1070, 598)","(1084, 599)","(1116, 601)","(1083, 602)","(1069, 602)","(1056, 598)",0.27,0.99,104.0,0.35,0.12,0.4,0.02,-13.5,0.07,0.35,54.7,59.6,93.5,38.25,37.7,77.3,59.11,48.05,56.52
233,1703936,69,-56,-1,-1,0,"(981, 457)","(978, 489)","(977, 522)","(978, 554)","(983, 587)","(996, 619)","(1013, 647)","(1037, 672)","(1068, 681)","(1104, 680)","(1138, 664)","(1167, 642)","(1189, 615)","(1203, 582)","(1211, 548)","(1217, 513)","(1221, 478)","(988, 445)","(1001, 431)","(1023, 429)","(1045, 435)","(1065, 447)","(1104, 451)","(1129, 443)","(1155, 441)","(1180, 449)","(1195, 467)","(1083, 467)","(1079, 492)","(1076, 516)","(1072, 540)","(1050, 548)","(1061, 555)","(1073, 562)","(1088, 558)","(1101, 554)","(1012, 462)","(1023, 455)","(1038, 457)","(1052, 468)","(1037, 469)","(1022, 468)","(1119, 474)","(1133, 465)","(1150, 467)","(1162, 476)","(1149, 480)","(1133, 479)","(1030, 585)","(1045, 584)","(1060, 586)","(1073, 591)","(1086, 589)","(1106, 593)","(1128, 598)","(1105, 614)","(1085, 618)","(1070, 617)","(1057, 614)","(1043, 605)","(1037, 588)","(1060, 592)","(1072, 596)","(1086, 596)","(1119, 599)","(1085, 604)","(1071, 604)","(1058, 600)",0.31,1.0,104.0,0.34,0.09,0.4,0.03,-14.5,0.07,0.34,57.8,63.4,97.0,38.0,37.7,75.45,58.82,48.47,56.11
266,3145728,69,-56,-1,-1,0,"(982, 457)","(979, 489)","(978, 521)","(979, 553)","(983, 585)","(995, 617)","(1011, 647)","(1033, 672)","(1065, 682)","(1101, 681)","(1134, 665)","(1162, 644)","(1185, 617)","(1200, 585)","(1210, 551)","(1217, 516)","(1221, 481)","(988, 444)","(1002, 430)","(1024, 429)","(1046, 436)","(1065, 449)","(1102, 452)","(1127, 444)","(1153, 443)","(1178, 450)","(1194, 468)","(1082, 467)","(1078, 491)","(1074, 516)","(1070, 541)","(1047, 547)","(1058, 555)","(1071, 562)","(1085, 558)","(1099, 554)","(1012, 460)","(1023, 454)","(1038, 456)","(1052, 466)","(1037, 468)","(1022, 466)","(1118, 473)","(1133, 466)","(1149, 468)","(1162, 477)","(1149, 480)","(1133, 478)","(1027, 584)","(1042, 584)","(1058, 585)","(1070, 590)","(1084, 589)","(1103, 593)","(1125, 599)","(1102, 614)","(1082, 618)","(1067, 617)","(1054, 613)","(1040, 604)","(1034, 587)","(1057, 591)","(1069, 595)","(1083, 596)","(1116, 599)","(1082, 604)","(1068, 604)","(1055, 600)",0.27,0.98,104.0,0.35,0.11,0.41,0.03,-14.0,0.07,0.34,55.2,61.2,93.6,38.6,37.55,78.75,61.0,50.64,60.58
300,1900544,69,-56,-1,-1,0,"(983, 459)","(980, 490)","(980, 523)","(981, 555)","(986, 587)","(997, 619)","(1013, 648)","(1035, 672)","(1066, 681)","(1102, 681)","(1136, 665)","(1165, 643)","(1188, 616)","(1203, 584)","(1212, 549)","(1218, 513)","(1222, 478)","(988, 445)","(1001, 430)","(1023, 429)","(1045, 436)","(1065, 448)","(1102, 452)","(1127, 444)","(1153, 442)","(1179, 450)","(1194, 468)","(1082, 466)","(1078, 491)","(1074, 516)","(1070, 541)","(1047, 547)","(1058, 555)","(1071, 562)","(1086, 558)","(1100, 554)","(1012, 460)","(1023, 454)","(1039, 456)","(1052, 466)","(1037, 468)","(1022, 467)","(1119, 473)","(1134, 465)","(1150, 467)","(1162, 476)","(1149, 480)","(1133, 478)","(1029, 585)","(1044, 584)","(1059, 585)","(1071, 591)","(1085, 589)","(1105, 593)","(1126, 598)","(1104, 614)","(1083, 618)","(1069, 617)","(1055, 613)","(1042, 604)","(1035, 587)","(1058, 592)","(1071, 596)","(1085, 596)","(1118, 599)","(1084, 604)","(1070, 603)","(1057, 599)",0.3,1.0,104.0,0.34,0.1,0.4,0.03,-14.5,0.07,0.34,53.2,59.2,92.6,36.35,35.45,75.05,57.58,48.82,59.52
333,-327680,69,-56,-1,-1,0,"(980, 456)","(978, 488)","(977, 520)","(979, 553)","(983, 585)","(996, 617)","(1013, 646)","(1036, 670)","(1068, 680)","(1104, 678)","(1138, 661)","(1167, 639)","(1190, 612)","(1204, 580)","(1212, 545)","(1219, 509)","(1222, 474)","(989, 443)","(1003, 429)","(1024, 429)","(1046, 436)","(1065, 447)","(1103, 450)","(1128, 442)","(1153, 440)","(1178, 445)","(1194, 462)","(1082, 467)","(1079, 492)","(1075, 516)","(1072, 541)","(1050, 549)","(1061, 556)","(1073, 561)","(1087, 558)","(1101, 554)","(1012, 461)","(1024, 455)","(1040, 457)","(1053, 468)","(1037, 470)","(1022, 469)","(1118, 472)","(1133, 463)","(1149, 465)","(1162, 473)","(1149, 479)","(1133, 477)","(1031, 586)","(1045, 584)","(1060, 585)","(1072, 590)","(1085, 588)","(1104, 592)","(1125, 597)","(1103, 612)","(1084, 617)","(1069, 617)","(1056, 613)","(1043, 604)","(1038, 588)","(1059, 592)","(1071, 595)","(1085, 596)","(1117, 598)","(1084, 602)","(1070, 602)","(1058, 599)",0.31,1.0,104.0,0.35,0.09,0.38,0.03,-15.5,0.07,0.34,60.9,67.1,102.7,36.75,35.8,76.1,60.82,49.41,56.29
366,-655360,69,-56,-1,-1,0,"(979, 457)","(976, 489)","(976, 521)","(977, 554)","(982, 587)","(995, 619)","(1012, 647)","(1035, 672)","(1067, 681)","(1103, 679)","(1136, 662)","(1165, 640)","(1188, 613)","(1202, 581)","(1211, 547)","(1217, 511)","(1221, 476)","(988, 443)","(1002, 429)","(1024, 429)","(1045, 436)","(1065, 448)","(1102, 450)","(1127, 441)","(1153, 439)","(1178, 445)","(1194, 462)","(1081, 466)","(1078, 491)","(1074, 516)","(1071, 541)","(1048, 548)","(1059, 555)","(1072, 561)","(1087, 557)","(1100, 553)","(1011, 461)","(1023, 454)","(1039, 456)","(1052, 466)","(1037, 468)","(1021, 467)","(1118, 471)","(1133, 463)","(1149, 464)","(1162, 473)","(1149, 477)","(1133, 476)","(1029, 587)","(1044, 584)","(1058, 584)","(1071, 590)","(1085, 587)","(1104, 591)","(1125, 597)","(1103, 613)","(1083, 618)","(1069, 618)","(1055, 615)","(1041, 605)","(1036, 589)","(1058, 592)","(1070, 595)","(1084, 595)","(1116, 598)","(1084, 603)","(1070, 603)","(1057, 600)",0.29,0.99,104.0,0.35,0.09,0.39,0.03,-14.0,0.07,0.34,65.0,69.0,103.9,37.4,37.7,75.7,60.64,48.23,56.47
400,-589824,69,-56,-1,-1,0,"(982, 456)","(978, 488)","(977, 520)","(978, 552)","(983, 585)","(995, 617)","(1013, 646)","(1035, 670)","(1066, 680)","(1102, 679)","(1136, 662)","(1166, 640)","(1190, 613)","(1205, 581)","(1213, 547)","(1219, 511)","(1223, 476)","(988, 443)","(1001, 429)","(1023, 428)","(1045, 435)","(1064, 447)","(1102, 450)","(1128, 442)","(1153, 440)","(1179, 446)","(1195, 464)","(1081, 467)","(1078, 490)","(1074, 514)","(1071, 539)","(1049, 547)","(1059, 554)","(1072, 560)","(1086, 557)","(1100, 553)","(1011, 460)","(1023, 454)","(1038, 456)","(1052, 466)","(1037, 469)","(1021, 467)","(1118, 472)","(1133, 464)","(1149, 466)","(1162, 474)","(1149, 479)","(1133, 478)","(1029, 585)","(1044, 583)","(1059, 584)","(1071, 589)","(1085, 588)","(1104, 592)","(1125, 597)","(1102, 613)","(1082, 617)","(1068, 616)","(1055, 613)","(1041, 604)","(1036, 587)","(1058, 592)","(1070, 595)","(1084, 595)","(1117, 598)","(1083, 602)","(1069, 602)","(1057, 598)",0.3,0.98,104.0,0.35,0.1,0.39,0.03,-15.0,0.07,0.33,55.8,62.1,96.7,37.05,36.1,75.95,66.88,52.7,62.52
433,-655360,69,-56,-1,-1,0,"(980, 456)","(978, 488)","(977, 520)","(978, 552)","(982, 585)","(994, 617)","(1012, 645)","(1034, 669)","(1066, 679)","(1102, 678)","(1136, 662)","(1165, 641)","(1189, 614)","(1203, 582)","(1212, 547)","(1219, 512)","(1224, 476)","(986, 442)","(1000, 428)","(1022, 426)","(1044, 433)","(1065, 445)","(1103, 448)","(1129, 441)","(1156, 439)","(1182, 445)","(1198, 464)","(1082, 465)","(1078, 490)","(1074, 514)","(1070, 539)","(1049, 547)","(1059, 554)","(1072, 560)","(1086, 557)","(1100, 553)","(1010, 459)","(1022, 452)","(1038, 454)","(1053, 466)","(1036, 468)","(1020, 467)","(1120, 472)","(1136, 463)","(1153, 464)","(1166, 474)","(1152, 479)","(1135, 477)","(1028, 584)","(1043, 583)","(1058, 584)","(1071, 589)","(1085, 587)","(1104, 591)","(1126, 597)","(1103, 613)","(1083, 617)","(1068, 616)","(1055, 613)","(1041, 603)","(1035, 587)","(1058, 591)","(1070, 594)","(1084, 595)","(1117, 598)","(1083, 602)","(1069, 602)","(1057, 598)",0.31,0.98,104.0,0.36,0.1,0.4,0.03,-16.0,0.07,0.34,61.4,67.1,101.8,36.6,35.55,76.2,61.17,48.76,57.64
466,-524288,69,-56,-1,-1,0,"(981, 459)","(978, 491)","(979, 523)","(980, 555)","(984, 587)","(996, 618)","(1013, 646)","(1036, 670)","(1068, 679)","(1104, 677)","(1138, 661)","(1167, 640)","(1190, 613)","(1204, 581)","(1212, 547)","(1219, 512)","(1223, 476)","(986, 444)","(999, 428)","(1022, 427)","(1044, 434)","(1065, 446)","(1102, 449)","(1128, 440)","(1154, 438)","(1180, 444)","(1197, 462)","(1082, 466)","(1078, 490)","(1075, 514)","(1071, 539)","(1049, 547)","(1060, 554)","(1072, 560)","(1087, 556)","(1100, 552)","(1009, 460)","(1022, 453)","(1038, 455)","(1052, 467)","(1036, 469)","(1020, 468)","(1120, 472)","(1135, 462)","(1152, 463)","(1165, 473)","(1152, 479)","(1135, 477)","(1030, 586)","(1045, 583)","(1060, 583)","(1072, 588)","(1086, 586)","(1105, 590)","(1126, 597)","(1105, 613)","(1085, 618)","(1070, 617)","(1057, 614)","(1043, 605)","(1037, 588)","(1059, 590)","(1072, 593)","(1086, 594)","(1118, 597)","(1085, 602)","(1071, 603)","(1058, 599)",0.34,0.99,104.0,0.36,0.08,0.39,0.03,-16.5,0.07,0.34,63.8,69.4,103.3,41.25,39.95,80.15,62.0,51.76,59.64
500,-720896,69,-56,-1,-1,0,"(982, 458)","(979, 489)","(978, 521)","(979, 553)","(983, 586)","(995, 619)","(1013, 647)","(1036, 671)","(1067, 680)","(1103, 678)","(1137, 662)","(1167, 641)","(1189, 614)","(1204, 582)","(1212, 548)","(1219, 513)","(1223, 477)","(987, 443)","(1000, 428)","(1023, 426)","(1045, 433)","(1066, 446)","(1103, 449)","(1128, 440)","(1155, 438)","(1181, 445)","(1198, 463)","(1081, 466)","(1078, 490)","(1074, 514)","(1070, 539)","(1048, 548)","(1059, 555)","(1072, 561)","(1086, 557)","(1100, 554)","(1010, 460)","(1022, 453)","(1038, 455)","(1053, 467)","(1036, 470)","(1020, 468)","(1119, 473)","(1135, 463)","(1153, 464)","(1165, 474)","(1152, 480)","(1135, 478)","(1029, 586)","(1044, 584)","(1059, 584)","(1071, 589)","(1085, 587)","(1105, 591)","(1127, 597)","(1104, 613)","(1083, 618)","(1069, 617)","(1056, 614)","(1042, 605)","(1036, 588)","(1059, 592)","(1071, 595)","(1085, 595)","(1118, 598)","(1084, 603)","(1070, 603)","(1057, 599)",0.33,1.01,104.0,0.37,0.09,0.4,0.03,-17.0,0.07,0.34,63.8,70.3,104.6,38.45,36.7,75.8,62.23,50.88,59.41
533,-786432,69,-56,-1,-1,0,"(980, 457)","(977, 489)","(977, 521)","(978, 553)","(983, 586)","(995, 618)","(1012, 646)","(1035, 671)","(1067, 680)","(1103, 678)","(1137, 662)","(1166, 641)","(1189, 613)","(1203, 581)","(1212, 546)","(1218, 511)","(1222, 476)","(988, 444)","(1001, 429)","(1022, 427)","(1044, 433)","(1064, 445)","(1104, 448)","(1129, 440)","(1155, 438)","(1180, 446)","(1195, 464)","(1082, 465)","(1078, 489)","(1075, 513)","(1071, 538)","(1050, 547)","(1060, 554)","(1073, 560)","(1087, 556)","(1101, 552)","(1012, 460)","(1023, 454)","(1039, 456)","(1053, 466)","(1037, 468)","(1022, 467)","(1119, 471)","(1134, 463)","(1150, 465)","(1163, 473)","(1150, 478)","(1134, 476)","(1031, 585)","(1046, 583)","(1061, 583)","(1073, 588)","(1086, 587)","(1105, 590)","(1127, 596)","(1104, 612)","(1085, 616)","(1070, 616)","(1057, 612)","(1043, 604)","(1038, 587)","(1060, 590)","(1072, 594)","(1086, 594)","(1119, 596)","(1085, 602)","(1071, 602)","(1059, 598)",0.29,0.99,104.0,0.35,0.09,0.39,0.03,-14.5,0.07,0.33,57.9,65.7,97.7,40.85,39.95,79.2,63.82,51.88,61.0
566,-851968,69,-56,-1,-1,0,"(981, 458)","(978, 489)","(978, 521)","(980, 553)","(985, 586)","(997, 618)","(1014, 647)","(1037, 672)","(1068, 681)","(1104, 680)","(1138, 663)","(1167, 641)","(1190, 614)","(1204, 582)","(1213, 547)","(1219, 511)","(1223, 476)","(988, 445)","(1002, 430)","(1024, 428)","(1046, 435)","(1066, 448)","(1102, 450)","(1128, 442)","(1153, 439)","(1179, 446)","(1194, 464)","(1082, 466)","(1078, 491)","(1075, 515)","(1072, 540)","(1050, 548)","(1060, 555)","(1073, 561)","(1087, 557)","(1101, 553)","(1012, 460)","(1023, 454)","(1039, 455)","(1053, 466)","(1037, 469)","(1022, 468)","(1118, 472)","(1133, 463)","(1149, 464)","(1162, 473)","(1149, 478)","(1133, 477)","(1031, 586)","(1045, 584)","(1060, 585)","(1072, 590)","(1086, 588)","(1105, 592)","(1127, 597)","(1105, 613)","(1085, 618)","(1070, 617)","(1057, 614)","(1043, 605)","(1038, 588)","(1059, 591)","(1072, 595)","(1086, 595)","(1119, 598)","(1085, 603)","(1071, 603)","(1058, 599)",0.31,1.01,104.0,0.35,0.09,0.39,0.03,-15.0,0.07,0.34,56.9,62.2,94.5,37.65,37.2,75.15,63.47,52.82,63.11
600,-917504,69,-56,-1,-1,0,"(982, 461)","(979, 492)","(979, 524)","(981, 556)","(986, 588)","(998, 620)","(1015, 648)","(1037, 672)","(1068, 681)","(1103, 680)","(1136, 665)","(1165, 643)","(1189, 616)","(1204, 584)","(1212, 549)","(1218, 513)","(1222, 478)","(990, 444)","(1003, 429)","(1025, 428)","(1046, 435)","(1066, 447)","(1104, 449)","(1128, 441)","(1153, 438)","(1178, 445)","(1194, 462)","(1082, 467)","(1079, 491)","(1076, 515)","(1072, 539)","(1051, 548)","(1061, 555)","(1073, 561)","(1088, 557)","(1101, 554)","(1013, 461)","(1024, 454)","(1040, 456)","(1054, 467)","(1038, 469)","(1023, 468)","(1119, 472)","(1134, 463)","(1150, 464)","(1162, 473)","(1150, 478)","(1134, 477)","(1030, 585)","(1046, 583)","(1061, 584)","(1073, 589)","(1087, 587)","(1106, 591)","(1128, 597)","(1105, 614)","(1085, 619)","(1070, 618)","(1057, 615)","(1043, 605)","(1038, 588)","(1060, 590)","(1072, 594)","(1086, 594)","(1119, 598)","(1085, 605)","(1071, 604)","(1059, 600)",0.32,0.98,104.0,0.35,0.09,0.4,0.03,-15.0,0.07,0.33,63.8,70.6,102.1,38.85,37.75,78.85,60.17,50.47,61.88
633,-851968,69,-56,-1,-1,0,"(982, 453)","(978, 485)","(978, 517)","(979, 550)","(983, 583)","(994, 615)","(1011, 644)","(1033, 669)","(1065, 679)","(1101, 678)","(1135, 662)","(1165, 640)","(1189, 613)","(1203, 581)","(1212, 547)","(1219, 512)","(1223, 476)","(988, 442)","(1002, 428)","(1025, 427)","(1047, 434)","(1067, 446)","(1103, 450)","(1129, 442)","(1155, 440)","(1181, 447)","(1196, 465)","(1083, 466)","(1079, 490)","(1075, 515)","(1071, 540)","(1049, 546)","(1060, 554)","(1072, 560)","(1086, 557)","(1100, 553)","(1012, 458)","(1024, 452)","(1039, 455)","(1053, 466)","(1037, 467)","(1022, 466)","(1119, 472)","(1134, 463)","(1151, 465)","(1164, 474)","(1150, 479)","(1134, 477)","(1028, 584)","(1043, 583)","(1059, 584)","(1071, 589)","(1085, 587)","(1104, 592)","(1124, 598)","(1102, 612)","(1082, 616)","(1068, 616)","(1054, 612)","(1041, 603)","(1035, 587)","(1058, 591)","(1070, 594)","(1084, 595)","(1116, 598)","(1083, 602)","(1069, 602)","(1056, 598)",0.31,0.96,104.0,0.35,0.1,0.39,0.03,-15.5,0.07,0.34,60.0,64.9,96.9,38.7,36.4,78.25,57.94,45.76,52.88
666,-720896,69,-56,-1,-1,0,"(981, 456)","(978, 488)","(978, 521)","(978, 553)","(982, 586)","(994, 618)","(1011, 647)","(1033, 672)","(1066, 681)","(1102, 680)","(1137, 664)","(1166, 642)","(1189, 615)","(1203, 582)","(1212, 548)","(1219, 513)","(1224, 478)","(986, 443)","(1000, 429)","(1022, 427)","(1044, 434)","(1065, 445)","(1102, 449)","(1128, 442)","(1155, 441)","(1181, 448)","(1197, 468)","(1082, 465)","(1078, 490)","(1074, 514)","(1070, 539)","(1048, 546)","(1059, 554)","(1071, 560)","(1086, 557)","(1100, 553)","(1011, 460)","(1022, 453)","(1038, 455)","(1052, 466)","(1036, 468)","(1021, 467)","(1119, 472)","(1134, 465)","(1150, 467)","(1164, 476)","(1150, 480)","(1134, 478)","(1028, 585)","(1043, 584)","(1058, 584)","(1070, 590)","(1084, 588)","(1104, 592)","(1125, 598)","(1103, 614)","(1082, 618)","(1068, 617)","(1054, 614)","(1040, 604)","(1035, 588)","(1058, 591)","(1070, 595)","(1084, 595)","(1116, 599)","(1083, 603)","(1069, 603)","(1056, 599)",0.28,1.0,104.0,0.35,0.11,0.39,0.03,-15.0,0.07,0.34,57.6,63.2,95.5,36.0,35.25,74.7,60.76,48.82,57.76
700,-327680,69,-56,-1,-1,0,"(980, 458)","(977, 490)","(977, 522)","(978, 554)","(983, 587)","(995, 619)","(1013, 647)","(1036, 672)","(1068, 682)","(1103, 680)","(1136, 664)","(1165, 642)","(1188, 615)","(1202, 583)","(1210, 548)","(1217, 513)","(1221, 478)","(987, 446)","(1000, 431)","(1023, 429)","(1045, 435)","(1066, 448)","(1103, 451)","(1128, 443)","(1155, 440)","(1180, 448)","(1195, 467)","(1083, 468)","(1080, 492)","(1077, 516)","(1073, 541)","(1050, 549)","(1061, 556)","(1074, 562)","(1088, 558)","(1102, 555)","(1011, 462)","(1023, 455)","(1038, 457)","(1053, 468)","(1037, 470)","(1021, 469)","(1118, 474)","(1134, 465)","(1150, 467)","(1163, 476)","(1150, 481)","(1134, 479)","(1029, 584)","(1045, 584)","(1061, 585)","(1073, 590)","(1087, 589)","(1107, 593)","(1128, 598)","(1105, 614)","(1085, 618)","(1070, 618)","(1057, 614)","(1042, 604)","(1036, 587)","(1060, 592)","(1073, 596)","(1087, 596)","(1120, 598)","(1085, 604)","(1071, 604)","(1058, 600)",0.31,0.97,104.0,0.36,0.09,0.41,0.03,-15.5,0.07,0.34,55.5,61.5,93.2,38.4,38.25,77.25,61.41,50.17,58.58
733,-917504,69,-56,-1,-1,0,"(980, 457)","(977, 489)","(976, 520)","(977, 553)","(982, 585)","(994, 617)","(1011, 646)","(1034, 671)","(1066, 681)","(1103, 680)","(1136, 664)","(1166, 643)","(1188, 616)","(1203, 584)","(1211, 550)","(1218, 514)","(1222, 478)","(986, 445)","(999, 430)","(1022, 428)","(1044, 435)","(1065, 447)","(1104, 451)","(1129, 443)","(1156, 442)","(1182, 449)","(1197, 468)","(1082, 467)","(1079, 492)","(1075, 517)","(1071, 542)","(1049, 548)","(1060, 556)","(1072, 563)","(1087, 559)","(1101, 555)","(1011, 461)","(1022, 455)","(1038, 457)","(1053, 468)","(1037, 470)","(1021, 469)","(1119, 474)","(1135, 466)","(1151, 468)","(1164, 477)","(1151, 482)","(1134, 480)","(1030, 585)","(1045, 584)","(1060, 585)","(1072, 590)","(1086, 589)","(1106, 592)","(1127, 598)","(1105, 614)","(1085, 619)","(1070, 618)","(1056, 615)","(1042, 605)","(1036, 587)","(1059, 591)","(1072, 595)","(1086, 595)","(1119, 598)","(1085, 605)","(1071, 605)","(1058, 600)",0.31,1.0,104.0,0.36,0.1,0.4,0.03,-15.5,0.07,0.35,57.6,64.3,96.1,39.8,38.9,78.65,59.94,48.23,54.88
766,-1114112,69,-56,-1,-1,0,"(980, 456)","(976, 488)","(976, 520)","(977, 552)","(982, 585)","(994, 618)","(1011, 647)","(1034, 672)","(1065, 682)","(1101, 681)","(1135, 665)","(1163, 643)","(1186, 616)","(1201, 584)","(1210, 550)","(1216, 514)","(1220, 480)","(987, 445)","(1001, 431)","(1023, 430)","(1045, 437)","(1065, 449)","(1102, 452)","(1127, 445)","(1152, 443)","(1177, 450)","(1192, 468)","(1081, 468)","(1078, 493)","(1074, 517)","(1070, 542)","(1047, 548)","(1058, 556)","(1071, 563)","(1085, 559)","(1099, 556)","(1011, 461)","(1023, 455)","(1038, 457)","(1052, 468)","(1036, 469)","(1021, 468)","(1116, 474)","(1131, 466)","(1148, 468)","(1160, 477)","(1147, 481)","(1131, 479)","(1028, 585)","(1043, 585)","(1058, 586)","(1070, 591)","(1084, 590)","(1102, 594)","(1124, 600)","(1101, 616)","(1081, 620)","(1067, 619)","(1054, 615)","(1040, 605)","(1035, 588)","(1057, 592)","(1069, 596)","(1083, 597)","(1115, 600)","(1082, 606)","(1068, 605)","(1055, 601)",0.29,0.98,104.0,0.35,0.11,0.4,0.03,-14.5,0.07,0.34,53.8,60.3,91.8,36.95,35.9,77.35,60.11,49.11,57.11
800,-1114112,69,-56,-1,-1,0,"(981, 460)","(978, 491)","(978, 523)","(979, 555)","(984, 587)","(996, 619)","(1013, 648)","(1036, 673)","(1068, 682)","(1105, 681)","(1139, 664)","(1168, 642)","(1190, 614)","(1204, 582)","(1212, 547)","(1217, 513)","(1221, 479)","(989, 447)","(1002, 432)","(1025, 431)","(1047, 438)","(1067, 451)","(1101, 453)","(1126, 444)","(1152, 442)","(1177, 448)","(1192, 466)","(1083, 468)","(1079, 493)","(1076, 517)","(1072, 542)","(1051, 550)","(1061, 557)","(1073, 563)","(1088, 559)","(1101, 555)","(1013, 463)","(1024, 456)","(1040, 458)","(1054, 469)","(1038, 471)","(1022, 470)","(1118, 474)","(1132, 465)","(1149, 467)","(1161, 476)","(1148, 480)","(1132, 479)","(1030, 587)","(1046, 586)","(1061, 586)","(1073, 592)","(1087, 589)","(1106, 593)","(1127, 598)","(1105, 613)","(1086, 618)","(1071, 617)","(1058, 614)","(1043, 605)","(1038, 589)","(1060, 594)","(1072, 597)","(1086, 597)","(1119, 599)","(1086, 603)","(1072, 603)","(1059, 599)",0.31,0.96,104.0,0.35,0.09,0.4,0.03,-15.0,0.07,0.34,56.4,62.1,93.6,41.4,42.1,75.95,63.47,51.41,60.64
833,-917504,69,-56,-1,-1,0,"(979, 461)","(977, 492)","(977, 524)","(979, 556)","(985, 589)","(997, 620)","(1015, 649)","(1037, 673)","(1069, 683)","(1105, 681)","(1138, 665)","(1166, 643)","(1188, 615)","(1202, 583)","(1210, 548)","(1216, 513)","(1219, 479)","(986, 447)","(1000, 432)","(1022, 430)","(1044, 436)","(1064, 448)","(1102, 452)","(1127, 444)","(1153, 443)","(1178, 450)","(1193, 468)","(1082, 469)","(1079, 493)","(1077, 518)","(1074, 543)","(1050, 550)","(1061, 557)","(1074, 564)","(1089, 560)","(1102, 556)","(1011, 463)","(1023, 457)","(1038, 459)","(1053, 469)","(1037, 471)","(1021, 470)","(1118, 476)","(1133, 467)","(1149, 469)","(1162, 478)","(1149, 482)","(1133, 481)","(1030, 586)","(1046, 586)","(1061, 587)","(1073, 593)","(1087, 591)","(1106, 595)","(1128, 599)","(1105, 615)","(1085, 619)","(1071, 619)","(1057, 615)","(1043, 605)","(1036, 589)","(1060, 594)","(1073, 598)","(1087, 598)","(1119, 600)","(1086, 605)","(1072, 605)","(1059, 601)",0.3,0.97,104.0,0.35,0.09,0.4,0.03,-14.5,0.08,0.34,58.2,65.0,97.7,39.4,37.4,76.25,60.41,50.05,58.64
866,3735552,69,-56,-1,-1,0,"(983, 462)","(980, 493)","(980, 524)","(981, 556)","(985, 589)","(997, 621)","(1014, 650)","(1037, 675)","(1069, 684)","(1105, 683)","(1138, 668)","(1167, 646)","(1190, 618)","(1204, 586)","(1212, 551)","(1218, 516)","(1222, 481)","(988, 449)","(1002, 434)","(1024, 433)","(1047, 440)","(1068, 453)","(1102, 455)","(1127, 446)","(1154, 443)","(1180, 450)","(1197, 468)","(1083, 471)","(1080, 495)","(1077, 519)","(1073, 543)","(1051, 551)","(1062, 558)","(1074, 565)","(1089, 561)","(1103, 557)","(1012, 467)","(1025, 462)","(1040, 463)","(1054, 472)","(1038, 475)","(1023, 474)","(1121, 478)","(1136, 471)","(1152, 473)","(1165, 481)","(1152, 486)","(1136, 484)","(1032, 588)","(1047, 587)","(1062, 588)","(1074, 593)","(1087, 591)","(1106, 596)","(1128, 601)","(1105, 616)","(1085, 621)","(1071, 620)","(1058, 616)","(1044, 607)","(1039, 591)","(1062, 594)","(1073, 598)","(1087, 599)","(1120, 602)","(1085, 606)","(1072, 606)","(1060, 602)",0.29,0.99,104.0,0.36,0.09,0.4,0.03,-14.0,0.08,0.33,54.4,58.9,89.9,35.95,34.8,74.55,60.94,49.7,59.35
900,-458752,69,-56,-1,-1,0,"(983, 463)","(980, 494)","(980, 525)","(982, 556)","(986, 589)","(998, 620)","(1014, 650)","(1036, 674)","(1068, 684)","(1104, 683)","(1137, 668)","(1166, 646)","(1189, 618)","(1203, 586)","(1211, 551)","(1217, 516)","(1221, 482)","(990, 450)","(1002, 435)","(1024, 433)","(1046, 440)","(1067, 452)","(1101, 455)","(1126, 446)","(1152, 444)","(1178, 452)","(1193, 471)","(1083, 471)","(1079, 495)","(1076, 518)","(1072, 543)","(1049, 550)","(1060, 558)","(1073, 564)","(1088, 561)","(1102, 557)","(1014, 467)","(1025, 462)","(1040, 464)","(1054, 472)","(1039, 474)","(1024, 473)","(1119, 478)","(1134, 472)","(1149, 475)","(1162, 482)","(1149, 486)","(1134, 484)","(1031, 588)","(1046, 586)","(1061, 587)","(1073, 592)","(1087, 590)","(1106, 594)","(1128, 600)","(1105, 617)","(1085, 621)","(1071, 620)","(1058, 617)","(1044, 607)","(1038, 590)","(1061, 593)","(1073, 597)","(1086, 597)","(1120, 601)","(1086, 607)","(1072, 606)","(1059, 602)",0.26,0.99,104.0,0.34,0.09,0.4,0.03,-13.0,0.07,0.33,53.9,59.5,87.1,32.7,31.7,72.05,57.29,48.47,59.52
933,-524288,69,-56,-1,-1,0,"(981, 459)","(978, 490)","(979, 522)","(980, 554)","(985, 587)","(996, 618)","(1013, 648)","(1036, 673)","(1068, 682)","(1104, 681)","(1138, 665)","(1167, 643)","(1190, 615)","(1204, 583)","(1212, 548)","(1218, 513)","(1222, 478)","(987, 447)","(1001, 432)","(1024, 431)","(1047, 439)","(1067, 451)","(1100, 454)","(1125, 445)","(1152, 442)","(1178, 449)","(1194, 468)","(1082, 469)","(1079, 493)","(1075, 517)","(1072, 542)","(1048, 549)","(1059, 557)","(1073, 563)","(1088, 560)","(1102, 555)","(1011, 465)","(1023, 460)","(1038, 461)","(1053, 470)","(1037, 472)","(1022, 471)","(1119, 475)","(1134, 469)","(1150, 471)","(1163, 479)","(1149, 482)","(1134, 480)","(1028, 585)","(1044, 586)","(1060, 587)","(1072, 592)","(1086, 590)","(1105, 594)","(1128, 598)","(1104, 613)","(1084, 618)","(1070, 618)","(1056, 615)","(1042, 605)","(1035, 588)","(1059, 594)","(1072, 597)","(1085, 597)","(1119, 598)","(1085, 604)","(1071, 604)","(1058, 600)",0.24,0.96,104.0,0.35,0.09,0.41,0.03,-12.5,0.08,0.34,57.0,64.5,96.7,43.1,42.65,80.3,58.11,46.58,54.58
966,-262144,69,-56,-1,-1,0,"(982, 463)","(979, 494)","(980, 526)","(982, 557)","(986, 590)","(998, 622)","(1015, 651)","(1038, 675)","(1070, 684)","(1106, 683)","(1139, 667)","(1167, 645)","(1190, 618)","(1204, 585)","(1212, 551)","(1218, 516)","(1221, 481)","(989, 450)","(1003, 434)","(1025, 432)","(1048, 439)","(1069, 452)","(1101, 455)","(1126, 445)","(1153, 443)","(1179, 450)","(1194, 470)","(1083, 469)","(1080, 493)","(1076, 517)","(1073, 542)","(1050, 550)","(1061, 558)","(1074, 564)","(1089, 560)","(1103, 556)","(1014, 466)","(1026, 460)","(1040, 462)","(1055, 471)","(1039, 473)","(1024, 472)","(1119, 477)","(1134, 470)","(1150, 472)","(1163, 480)","(1149, 484)","(1134, 482)","(1030, 588)","(1045, 587)","(1061, 588)","(1073, 593)","(1087, 591)","(1106, 594)","(1128, 599)","(1105, 615)","(1085, 619)","(1071, 619)","(1057, 615)","(1043, 606)","(1037, 590)","(1060, 594)","(1073, 597)","(1087, 598)","(1120, 600)","(1086, 605)","(1072, 605)","(1059, 601)",0.27,0.97,104.0,0.35,0.09,0.41,0.03,-13.5,0.08,0.33,57.8,64.9,96.1,38.4,37.2,76.45,59.94,49.05,58.76
1000,131072,69,-56,-1,-1,0,"(983, 462)","(980, 493)","(981, 525)","(982, 557)","(987, 590)","(999, 622)","(1017, 651)","(1040, 674)","(1072, 683)","(1108, 682)","(1141, 666)","(1169, 643)","(1190, 616)","(1204, 583)","(1212, 549)","(1217, 515)","(1221, 481)","(989, 451)","(1003, 435)","(1025, 433)","(1048, 440)","(1069, 452)","(1101, 455)","(1127, 446)","(1153, 444)","(1179, 451)","(1194, 470)","(1084, 470)","(1081, 494)","(1077, 517)","(1074, 542)","(1052, 549)","(1063, 557)","(1075, 563)","(1091, 559)","(1105, 555)","(1014, 467)","(1026, 462)","(1041, 463)","(1055, 472)","(1040, 474)","(1025, 474)","(1120, 477)","(1136, 471)","(1151, 473)","(1164, 480)","(1151, 484)","(1135, 482)","(1032, 587)","(1047, 585)","(1063, 585)","(1075, 591)","(1089, 589)","(1109, 593)","(1130, 599)","(1108, 615)","(1088, 620)","(1073, 620)","(1060, 616)","(1045, 607)","(1039, 589)","(1062, 592)","(1075, 595)","(1089, 595)","(1122, 599)","(1088, 606)","(1074, 606)","(1061, 602)",0.24,0.99,104.0,0.35,0.08,0.41,0.04,-12.5,0.08,0.33,54.4,59.1,90.3,35.1,33.75,72.45,59.7,49.76,59.76
1033,983040,66,-56,-1,-1,0,"(984, 463)","(981, 495)","(982, 526)","(983, 558)","(989, 591)","(1000, 622)","(1017, 650)","(1040, 674)","(1072, 684)","(1108, 682)","(1141, 667)","(1169, 644)","(1191, 617)","(1205, 584)","(1213, 550)","(1219, 515)","(1223, 480)","(988, 450)","(1001, 434)","(1023, 432)","(1046, 439)","(1067, 451)","(1100, 454)","(1126, 445)","(1153, 443)","(1180, 450)","(1196, 469)","(1083, 469)","(1080, 494)","(1076, 518)","(1073, 543)","(1050, 550)","(1062, 558)","(1075, 564)","(1090, 560)","(1104, 556)","(1012, 466)","(1024, 460)","(1039, 462)","(1054, 471)","(1038, 474)","(1023, 473)","(1120, 477)","(1136, 470)","(1152, 471)","(1165, 479)","(1152, 484)","(1136, 482)","(1032, 587)","(1047, 586)","(1063, 587)","(1075, 592)","(1089, 590)","(1109, 594)","(1131, 599)","(1108, 616)","(1088, 621)","(1073, 621)","(1060, 617)","(1045, 608)","(1039, 589)","(1062, 593)","(1075, 596)","(1089, 597)","(1123, 600)","(1089, 607)","(1074, 607)","(1061, 603)",0.27,0.99,104.0,0.36,0.08,0.41,0.04,-14.0,0.08,0.34,57.0,62.8,94.9,37.4,36.6,75.9,59.94,48.76,61.35
1066,2293760,66,-56,-1,-1,0,"(981, 465)","(979, 496)","(981, 527)","(983, 558)","(989, 591)","(1002, 622)","(1019, 651)","(1042, 675)","(1073, 685)","(1109, 684)","(1141, 667)","(1169, 645)","(1191, 617)","(1205, 584)","(1212, 549)","(1217, 514)","(1219, 479)","(989, 452)","(1001, 436)","(1023, 433)","(1045, 439)","(1066, 450)","(1102, 453)","(1126, 445)","(1152, 443)","(1177, 450)","(1192, 468)","(1083, 470)","(1080, 494)","(1078, 518)","(1075, 543)","(1052, 550)","(1063, 558)","(1076, 563)","(1091, 560)","(1104, 555)","(1015, 468)","(1026, 463)","(1040, 464)","(1054, 472)","(1039, 474)","(1025, 474)","(1120, 477)","(1134, 471)","(1149, 473)","(1162, 480)","(1149, 484)","(1134, 482)","(1034, 587)","(1049, 585)","(1064, 585)","(1076, 590)","(1090, 588)","(1110, 592)","(1130, 598)","(1110, 617)","(1090, 624)","(1075, 623)","(1061, 620)","(1047, 609)","(1041, 590)","(1063, 592)","(1076, 595)","(1090, 595)","(1122, 599)","(1090, 609)","(1076, 609)","(1063, 605)",0.26,1.01,104.0,0.34,0.06,0.4,0.04,-12.0,0.08,0.33,52.6,56.2,86.3,33.1,33.25,72.0,58.35,49.17,60.35
1100,3866624,66,-56,-1,-1,0,"(982, 466)","(980, 497)","(981, 528)","(982, 559)","(988, 592)","(1000, 623)","(1018, 652)","(1041, 676)","(1073, 686)","(1109, 685)","(1142, 669)","(1169, 646)","(1191, 618)","(1204, 585)","(1211, 551)","(1217, 516)","(1220, 482)","(991, 452)","(1003, 435)","(1025, 433)","(1048, 439)","(1068, 452)","(1100, 454)","(1125, 445)","(1151, 443)","(1177, 451)","(1192, 471)","(1084, 470)","(1081, 494)","(1078, 517)","(1075, 542)","(1052, 549)","(1063, 557)","(1076, 563)","(1091, 559)","(1105, 555)","(1016, 468)","(1027, 463)","(1042, 464)","(1055, 472)","(1040, 474)","(1026, 473)","(1119, 478)","(1135, 474)","(1149, 476)","(1161, 483)","(1149, 486)","(1134, 484)","(1033, 588)","(1048, 586)","(1064, 586)","(1076, 592)","(1090, 590)","(1110, 594)","(1130, 600)","(1109, 617)","(1089, 623)","(1074, 622)","(1061, 618)","(1046, 609)","(1040, 591)","(1063, 593)","(1076, 597)","(1090, 597)","(1122, 601)","(1090, 608)","(1075, 608)","(1062, 604)",0.23,0.99,104.0,0.34,0.09,0.4,0.04,-11.5,0.08,0.33,50.0,54.9,84.6,40.7,38.75,77.95,61.17,51.52,61.64
1133,1441792,66,-56,-1,-1,0,"(985, 473)","(983, 503)","(983, 533)","(985, 564)","(992, 595)","(1004, 626)","(1022, 654)","(1044, 677)","(1077, 685)","(1112, 683)","(1144, 667)","(1170, 644)","(1190, 616)","(1203, 585)","(1209, 551)","(1213, 517)","(1216, 484)","(994, 457)","(1005, 440)","(1027, 436)","(1048, 441)","(1068, 453)","(1101, 454)","(1125, 446)","(1150, 443)","(1174, 451)","(1189, 469)","(1083, 472)","(1081, 494)","(1079, 517)","(1077, 541)","(1055, 550)","(1066, 557)","(1078, 563)","(1093, 559)","(1106, 554)","(1017, 474)","(1028, 468)","(1042, 469)","(1057, 476)","(1042, 479)","(1028, 479)","(1117, 479)","(1132, 473)","(1147, 474)","(1160, 481)","(1147, 485)","(1132, 484)","(1036, 590)","(1051, 586)","(1066, 585)","(1079, 590)","(1092, 588)","(1111, 592)","(1132, 599)","(1111, 617)","(1092, 623)","(1078, 622)","(1064, 619)","(1050, 610)","(1044, 592)","(1066, 592)","(1079, 595)","(1093, 595)","(1124, 599)","(1092, 608)","(1078, 608)","(1065, 605)",0.25,0.99,104.0,0.35,0.05,0.41,0.04,-11.5,0.09,0.32,47.4,52.5,81.2,32.3,31.0,71.5,54.82,48.58,61.47
1166,-589824,66,-56,-1,-1,0,"(984, 468)","(982, 498)","(982, 529)","(983, 560)","(989, 592)","(1001, 624)","(1019, 653)","(1042, 677)","(1075, 686)","(1111, 684)","(1143, 667)","(1170, 644)","(1191, 617)","(1204, 585)","(1211, 551)","(1216, 517)","(1218, 483)","(995, 453)","(1007, 437)","(1029, 434)","(1050, 440)","(1071, 451)","(1104, 453)","(1128, 445)","(1153, 442)","(1177, 449)","(1191, 467)","(1086, 472)","(1083, 495)","(1080, 518)","(1078, 542)","(1055, 551)","(1066, 558)","(1079, 563)","(1093, 560)","(1107, 555)","(1019, 471)","(1031, 465)","(1045, 466)","(1059, 474)","(1044, 476)","(1030, 476)","(1120, 478)","(1135, 471)","(1150, 473)","(1162, 480)","(1150, 484)","(1134, 482)","(1036, 590)","(1051, 587)","(1066, 587)","(1078, 592)","(1092, 589)","(1110, 594)","(1130, 600)","(1110, 617)","(1091, 623)","(1077, 622)","(1063, 619)","(1049, 610)","(1044, 591)","(1066, 593)","(1078, 596)","(1091, 597)","(1122, 600)","(1091, 608)","(1077, 608)","(1064, 605)",0.26,0.97,104.0,0.35,0.06,0.4,0.04,-12.0,0.08,0.32,48.6,53.3,83.7,34.3,33.25,71.8,59.94,49.58,60.94
1200,-851968,66,-56,-1,-1,0,"(983, 472)","(982, 502)","(983, 533)","(985, 564)","(992, 595)","(1006, 626)","(1026, 654)","(1050, 677)","(1082, 685)","(1116, 682)","(1147, 665)","(1173, 642)","(1193, 615)","(1205, 584)","(1211, 551)","(1215, 517)","(1217, 484)","(993, 456)","(1004, 440)","(1026, 436)","(1048, 440)","(1069, 451)","(1106, 452)","(1129, 443)","(1153, 441)","(1177, 448)","(1191, 467)","(1087, 471)","(1085, 495)","(1083, 518)","(1081, 542)","(1058, 551)","(1070, 558)","(1082, 563)","(1096, 559)","(1109, 555)","(1018, 473)","(1029, 468)","(1043, 468)","(1057, 475)","(1043, 477)","(1029, 477)","(1121, 478)","(1136, 473)","(1150, 474)","(1162, 481)","(1150, 483)","(1135, 482)","(1039, 591)","(1054, 587)","(1070, 586)","(1082, 591)","(1095, 589)","(1114, 592)","(1134, 598)","(1114, 617)","(1095, 624)","(1081, 623)","(1068, 621)","(1053, 612)","(1047, 593)","(1070, 593)","(1082, 596)","(1095, 595)","(1126, 599)","(1095, 609)","(1081, 610)","(1069, 606)",0.21,0.97,104.0,0.34,0.05,0.4,0.04,-9.5,0.09,0.33,48.4,51.6,80.8,35.45,35.15,74.45,59.94,51.29,62.47
1233,-851968,66,-56,-1,-1,0,"(982, 471)","(980, 501)","(981, 532)","(984, 564)","(991, 596)","(1005, 627)","(1025, 654)","(1050, 676)","(1082, 684)","(1116, 681)","(1147, 664)","(1173, 641)","(1193, 613)","(1205, 581)","(1211, 548)","(1214, 514)","(1215, 480)","(993, 455)","(1005, 439)","(1027, 435)","(1050, 440)","(1070, 451)","(1105, 452)","(1127, 443)","(1151, 440)","(1175, 446)","(1189, 463)","(1088, 470)","(1086, 494)","(1085, 517)","(1083, 541)","(1060, 552)","(1071, 558)","(1084, 563)","(1097, 559)","(1110, 555)","(1018, 471)","(1030, 463)","(1044, 464)","(1058, 473)","(1044, 475)","(1029, 475)","(1121, 475)","(1135, 467)","(1150, 468)","(1162, 476)","(1150, 480)","(1135, 479)","(1040, 589)","(1055, 586)","(1071, 586)","(1083, 591)","(1096, 589)","(1115, 592)","(1135, 597)","(1115, 616)","(1096, 622)","(1082, 621)","(1069, 619)","(1054, 609)","(1047, 591)","(1071, 593)","(1083, 596)","(1096, 596)","(1128, 598)","(1096, 608)","(1082, 608)","(1070, 605)",0.29,0.97,103.0,0.34,0.03,0.4,0.04,-12.5,0.09,0.33,48.5,53.4,83.0,36.65,35.0,75.95,58.52,49.11,61.23
1266,-917504,66,-56,-1,-1,0,"(982, 470)","(980, 501)","(981, 532)","(984, 563)","(990, 595)","(1004, 626)","(1023, 654)","(1048, 677)","(1080, 686)","(1115, 683)","(1147, 666)","(1174, 643)","(1194, 615)","(1206, 583)","(1213, 549)","(1218, 514)","(1220, 479)","(991, 455)","(1003, 439)","(1026, 435)","(1049, 440)","(1070, 451)","(1105, 452)","(1129, 442)","(1154, 440)","(1179, 446)","(1195, 464)","(1087, 470)","(1085, 494)","(1083, 518)","(1081, 542)","(1058, 552)","(1070, 558)","(1082, 564)","(1096, 559)","(1109, 555)","(1017, 470)","(1028, 464)","(1043, 464)","(1057, 473)","(1042, 475)","(1028, 475)","(1123, 475)","(1138, 468)","(1153, 470)","(1165, 477)","(1153, 481)","(1138, 480)","(1039, 590)","(1054, 587)","(1070, 587)","(1082, 592)","(1096, 590)","(1115, 593)","(1136, 598)","(1115, 615)","(1096, 621)","(1082, 621)","(1068, 618)","(1053, 609)","(1046, 592)","(1070, 594)","(1082, 597)","(1096, 596)","(1128, 598)","(1096, 607)","(1082, 607)","(1069, 604)",0.27,0.97,103.0,0.34,0.04,0.4,0.03,-12.0,0.09,0.33,49.5,54.7,83.7,38.8,36.9,76.0,60.52,49.7,60.41
1300,-851968,66,-56,-1,-1,0,"(982, 467)","(981, 498)","(983, 529)","(986, 560)","(992, 592)","(1005, 624)","(1024, 652)","(1048, 676)","(1081, 684)","(1117, 681)","(1148, 663)","(1175, 639)","(1195, 611)","(1206, 579)","(1212, 545)","(1217, 510)","(1219, 476)","(987, 451)","(999, 435)","(1022, 432)","(1045, 437)","(1065, 448)","(1102, 449)","(1126, 441)","(1151, 438)","(1177, 445)","(1192, 462)","(1084, 467)","(1082, 492)","(1080, 516)","(1079, 542)","(1056, 550)","(1067, 557)","(1080, 563)","(1094, 558)","(1107, 553)","(1013, 466)","(1024, 459)","(1040, 460)","(1054, 470)","(1038, 472)","(1023, 472)","(1120, 473)","(1135, 465)","(1151, 466)","(1163, 474)","(1151, 479)","(1135, 478)","(1038, 590)","(1053, 586)","(1068, 585)","(1080, 590)","(1094, 587)","(1114, 591)","(1134, 597)","(1114, 614)","(1095, 621)","(1080, 621)","(1067, 618)","(1052, 609)","(1045, 592)","(1068, 592)","(1080, 595)","(1094, 595)","(1126, 597)","(1095, 606)","(1081, 606)","(1068, 603)",0.3,0.99,103.0,0.35,0.05,0.4,0.04,-13.5,0.09,0.34,56.4,61.3,94.0,37.7,36.9,77.3,59.7,51.47,64.41
1333,-983040,66,-56,-1,-1,0,"(979, 465)","(978, 496)","(979, 528)","(981, 559)","(988, 591)","(1002, 622)","(1021, 650)","(1045, 674)","(1077, 683)","(1113, 681)","(1146, 663)","(1172, 640)","(1193, 612)","(1205, 579)","(1212, 545)","(1216, 510)","(1218, 476)","(987, 448)","(1000, 433)","(1021, 431)","(1044, 436)","(1064, 448)","(1103, 449)","(1126, 440)","(1151, 438)","(1176, 444)","(1191, 461)","(1083, 467)","(1081, 492)","(1079, 516)","(1077, 541)","(1055, 549)","(1066, 556)","(1078, 562)","(1092, 558)","(1105, 553)","(1012, 465)","(1023, 458)","(1039, 459)","(1053, 469)","(1038, 471)","(1022, 471)","(1119, 472)","(1133, 465)","(1149, 466)","(1162, 474)","(1149, 479)","(1134, 477)","(1036, 589)","(1051, 586)","(1066, 585)","(1078, 590)","(1092, 588)","(1112, 591)","(1132, 597)","(1112, 614)","(1092, 620)","(1078, 620)","(1064, 617)","(1049, 608)","(1043, 591)","(1066, 592)","(1078, 595)","(1092, 595)","(1124, 598)","(1092, 606)","(1078, 606)","(1065, 602)",0.29,1.0,103.0,0.35,0.06,0.4,0.04,-13.5,0.09,0.34,57.7,63.1,95.8,41.0,38.85,81.0,57.41,47.64,58.0
1366,-1114112,66,-56,-1,-1,0,"(980, 463)","(978, 495)","(979, 526)","(981, 559)","(987, 591)","(1000, 622)","(1019, 650)","(1044, 673)","(1077, 682)","(1113, 679)","(1145, 661)","(1172, 638)","(1192, 610)","(1204, 578)","(1210, 543)","(1215, 509)","(1218, 475)","(988, 450)","(1001, 434)","(1024, 431)","(1047, 436)","(1068, 448)","(1102, 450)","(1126, 441)","(1152, 438)","(1177, 445)","(1193, 463)","(1084, 466)","(1081, 490)","(1079, 514)","(1076, 539)","(1054, 547)","(1065, 554)","(1078, 560)","(1092, 556)","(1106, 551)","(1014, 464)","(1025, 457)","(1041, 459)","(1055, 468)","(1039, 470)","(1024, 470)","(1120, 471)","(1134, 464)","(1150, 465)","(1162, 473)","(1150, 477)","(1134, 476)","(1035, 587)","(1051, 583)","(1066, 583)","(1079, 588)","(1092, 585)","(1112, 589)","(1132, 595)","(1112, 612)","(1092, 618)","(1078, 618)","(1064, 615)","(1050, 607)","(1043, 589)","(1066, 589)","(1079, 592)","(1092, 592)","(1124, 596)","(1092, 604)","(1078, 604)","(1065, 601)",0.28,0.97,103.0,0.34,0.05,0.4,0.04,-13.0,0.09,0.33,59.3,64.6,95.1,32.75,31.85,74.1,61.0,50.64,60.29
1400,-1179648,66,-56,-1,-1,0,"(978, 466)","(977, 497)","(978, 528)","(981, 559)","(986, 591)","(999, 623)","(1017, 650)","(1041, 673)","(1073, 681)","(1109, 678)","(1142, 662)","(1169, 640)","(1191, 613)","(1203, 581)","(1210, 547)","(1215, 511)","(1218, 477)","(985, 451)","(997, 434)","(1020, 431)","(1042, 436)","(1063, 448)","(1098, 451)","(1122, 441)","(1148, 439)","(1174, 445)","(1190, 463)","(1080, 468)","(1077, 492)","(1075, 516)","(1072, 541)","(1050, 549)","(1061, 556)","(1074, 562)","(1088, 558)","(1102, 553)","(1010, 467)","(1021, 460)","(1037, 461)","(1051, 471)","(1036, 474)","(1020, 474)","(1116, 475)","(1131, 466)","(1147, 467)","(1160, 476)","(1148, 481)","(1131, 479)","(1032, 589)","(1047, 585)","(1062, 584)","(1074, 589)","(1088, 587)","(1107, 591)","(1128, 598)","(1107, 614)","(1087, 619)","(1073, 619)","(1059, 616)","(1045, 607)","(1040, 590)","(1062, 592)","(1074, 595)","(1088, 595)","(1120, 598)","(1087, 604)","(1073, 605)","(1061, 601)",0.3,0.99,103.0,0.35,0.04,0.4,0.03,-14.5,0.09,0.34,53.4,58.3,88.5,39.8,37.85,80.2,61.17,50.29,61.41
1433,-1048576,66,-56,-1,-1,0,"(977, 462)","(975, 493)","(976, 525)","(978, 557)","(984, 589)","(997, 620)","(1016, 648)","(1040, 672)","(1073, 682)","(1108, 679)","(1141, 662)","(1169, 640)","(1191, 612)","(1204, 580)","(1211, 545)","(1216, 509)","(1220, 474)","(983, 448)","(997, 433)","(1020, 431)","(1043, 437)","(1064, 448)","(1100, 450)","(1125, 441)","(1151, 439)","(1178, 446)","(1194, 464)","(1081, 467)","(1078, 491)","(1076, 515)","(1073, 539)","(1050, 548)","(1061, 555)","(1074, 561)","(1089, 557)","(1102, 552)","(1009, 465)","(1021, 459)","(1037, 460)","(1051, 469)","(1035, 472)","(1020, 471)","(1118, 474)","(1133, 466)","(1149, 468)","(1162, 476)","(1149, 480)","(1133, 478)","(1032, 587)","(1048, 585)","(1063, 585)","(1075, 589)","(1088, 587)","(1107, 591)","(1128, 596)","(1107, 613)","(1088, 618)","(1074, 618)","(1060, 615)","(1046, 606)","(1039, 589)","(1062, 591)","(1074, 594)","(1088, 594)","(1120, 597)","(1088, 604)","(1074, 604)","(1062, 601)",0.27,0.97,103.0,0.35,0.07,0.39,0.03,-13.5,0.08,0.33,55.6,61.1,92.8,41.55,39.95,79.95,61.47,51.11,58.23
1466,-1048576,66,-56,-1,-1,0,"(978, 466)","(976, 497)","(977, 530)","(978, 562)","(984, 595)","(997, 626)","(1016, 654)","(1040, 677)","(1072, 686)","(1108, 683)","(1140, 667)","(1168, 645)","(1190, 617)","(1203, 585)","(1211, 551)","(1216, 516)","(1219, 481)","(985, 450)","(998, 434)","(1020, 431)","(1043, 436)","(1064, 448)","(1100, 450)","(1125, 442)","(1150, 439)","(1176, 446)","(1191, 465)","(1081, 468)","(1079, 492)","(1076, 515)","(1074, 540)","(1051, 550)","(1062, 556)","(1074, 562)","(1089, 558)","(1102, 554)","(1010, 466)","(1022, 459)","(1037, 460)","(1052, 470)","(1036, 473)","(1021, 473)","(1117, 474)","(1132, 466)","(1148, 467)","(1161, 476)","(1148, 481)","(1132, 479)","(1031, 589)","(1046, 585)","(1062, 585)","(1074, 589)","(1088, 587)","(1107, 592)","(1128, 598)","(1107, 615)","(1087, 621)","(1073, 621)","(1060, 618)","(1045, 609)","(1038, 591)","(1061, 592)","(1074, 595)","(1088, 595)","(1120, 599)","(1087, 606)","(1074, 606)","(1061, 603)",0.3,0.98,103.0,0.35,0.06,0.4,0.04,-14.5,0.08,0.33,57.3,62.1,93.2,40.15,38.95,82.1,65.52,52.47,61.11
1500,-458752,66,-56,-1,-1,0,"(981, 464)","(979, 496)","(980, 527)","(982, 559)","(988, 592)","(1001, 623)","(1019, 652)","(1042, 677)","(1075, 686)","(1111, 683)","(1144, 665)","(1171, 642)","(1193, 613)","(1206, 580)","(1213, 545)","(1218, 510)","(1220, 475)","(988, 449)","(1000, 433)","(1022, 431)","(1044, 437)","(1064, 449)","(1100, 450)","(1125, 441)","(1150, 438)","(1176, 445)","(1192, 462)","(1082, 468)","(1079, 492)","(1077, 517)","(1074, 542)","(1052, 550)","(1063, 557)","(1075, 563)","(1090, 559)","(1103, 554)","(1013, 464)","(1025, 458)","(1040, 459)","(1054, 469)","(1039, 471)","(1024, 471)","(1118, 473)","(1132, 465)","(1148, 466)","(1161, 474)","(1148, 479)","(1132, 478)","(1032, 587)","(1047, 586)","(1063, 586)","(1075, 591)","(1089, 589)","(1109, 592)","(1130, 596)","(1109, 614)","(1089, 620)","(1074, 620)","(1061, 616)","(1046, 607)","(1038, 590)","(1062, 593)","(1075, 596)","(1089, 596)","(1122, 597)","(1089, 605)","(1075, 606)","(1062, 602)",0.3,0.99,103.0,0.35,0.06,0.41,0.03,-13.5,0.08,0.33,59.2,64.9,97.5,40.45,39.55,79.4,60.88,50.82,63.47
1533,-655360,66,-56,-1,-1,0,"(979, 464)","(977, 496)","(978, 528)","(981, 560)","(987, 592)","(1000, 623)","(1019, 652)","(1043, 675)","(1075, 684)","(1111, 681)","(1144, 663)","(1171, 640)","(1192, 612)","(1205, 580)","(1212, 546)","(1217, 511)","(1219, 476)","(986, 449)","(999, 433)","(1021, 431)","(1044, 437)","(1064, 448)","(1104, 449)","(1129, 440)","(1154, 438)","(1179, 444)","(1195, 461)","(1084, 469)","(1082, 493)","(1080, 517)","(1077, 542)","(1055, 552)","(1066, 558)","(1078, 564)","(1092, 559)","(1105, 555)","(1010, 466)","(1022, 457)","(1039, 459)","(1054, 471)","(1037, 473)","(1021, 473)","(1120, 474)","(1135, 463)","(1152, 464)","(1165, 474)","(1152, 479)","(1136, 478)","(1034, 590)","(1050, 588)","(1066, 587)","(1078, 591)","(1092, 589)","(1111, 592)","(1132, 597)","(1111, 615)","(1092, 621)","(1078, 622)","(1064, 619)","(1049, 610)","(1041, 592)","(1066, 595)","(1078, 597)","(1092, 597)","(1124, 598)","(1092, 606)","(1078, 607)","(1065, 604)",0.33,0.95,103.0,0.37,0.05,0.4,0.03,-16.0,0.08,0.33,59.3,65.2,99.6,40.65,38.85,82.0,60.23,48.47,58.35
1566,-983040,66,-56,-1,-1,0,"(980, 464)","(978, 495)","(979, 527)","(982, 559)","(988, 592)","(1001, 623)","(1020, 651)","(1044, 675)","(1076, 683)","(1112, 680)","(1144, 662)","(1171, 640)","(1192, 612)","(1204, 579)","(1211, 545)","(1216, 511)","(1219, 477)","(988, 449)","(1001, 434)","(1024, 432)","(1046, 437)","(1067, 449)","(1103, 450)","(1127, 441)","(1152, 439)","(1177, 444)","(1193, 461)","(1084, 467)","(1082, 492)","(1080, 517)","(1078, 542)","(1055, 552)","(1066, 559)","(1079, 564)","(1093, 560)","(1106, 555)","(1012, 464)","(1024, 457)","(1039, 459)","(1054, 469)","(1038, 471)","(1023, 471)","(1119, 472)","(1134, 464)","(1150, 465)","(1163, 473)","(1150, 478)","(1134, 477)","(1035, 590)","(1051, 590)","(1066, 590)","(1078, 594)","(1091, 592)","(1109, 595)","(1130, 598)","(1109, 612)","(1091, 616)","(1077, 616)","(1064, 614)","(1050, 606)","(1043, 592)","(1066, 598)","(1078, 601)","(1091, 600)","(1122, 599)","(1091, 602)","(1078, 602)","(1065, 599)",0.29,0.93,103.0,0.36,0.06,0.39,0.01,-14.0,0.09,0.34,58.4,64.2,97.5,34.05,32.5,74.4,59.41,49.17,60.35
1600,-1048576,66,-56,-1,-1,0,"(980, 468)","(978, 499)","(979, 531)","(981, 563)","(987, 596)","(1000, 626)","(1020, 653)","(1045, 674)","(1078, 681)","(1113, 678)","(1146, 661)","(1173, 640)","(1193, 612)","(1204, 581)","(1210, 548)","(1214, 514)","(1216, 481)","(986, 452)","(1000, 437)","(1022, 434)","(1045, 440)","(1066, 450)","(1102, 451)","(1126, 443)","(1151, 440)","(1175, 446)","(1190, 464)","(1083, 469)","(1082, 493)","(1080, 517)","(1078, 541)","(1054, 552)","(1066, 558)","(1078, 564)","(1092, 560)","(1105, 555)","(1011, 468)","(1023, 460)","(1038, 461)","(1053, 471)","(1037, 474)","(1022, 474)","(1119, 474)","(1133, 465)","(1149, 467)","(1162, 476)","(1150, 480)","(1134, 479)","(1035, 593)","(1051, 591)","(1066, 590)","(1077, 595)","(1090, 592)","(1107, 596)","(1128, 600)","(1107, 610)","(1090, 613)","(1076, 613)","(1064, 611)","(1050, 605)","(1043, 595)","(1065, 599)","(1077, 601)","(1090, 601)","(1120, 600)","(1089, 599)","(1077, 599)","(1065, 597)",0.31,0.92,103.0,0.36,0.06,0.39,0.01,-14.5,0.09,0.33,55.2,60.8,89.7,35.65,34.4,80.6,60.47,48.82,58.7
1633,-1048576,66,-56,-1,-1,0,"(977, 465)","(976, 497)","(978, 528)","(980, 560)","(986, 592)","(998, 622)","(1017, 649)","(1041, 671)","(1074, 678)","(1111, 675)","(1144, 659)","(1171, 638)","(1191, 611)","(1202, 579)","(1209, 546)","(1214, 512)","(1216, 478)","(983, 450)","(997, 435)","(1020, 432)","(1043, 439)","(1063, 450)","(1099, 451)","(1124, 442)","(1150, 440)","(1176, 447)","(1191, 465)","(1081, 468)","(1079, 493)","(1077, 517)","(1075, 542)","(1051, 551)","(1062, 558)","(1075, 564)","(1090, 559)","(1103, 555)","(1008, 466)","(1020, 459)","(1036, 460)","(1050, 471)","(1034, 473)","(1019, 473)","(1118, 474)","(1133, 465)","(1149, 467)","(1162, 475)","(1149, 480)","(1133, 479)","(1033, 593)","(1048, 590)","(1063, 589)","(1075, 593)","(1088, 591)","(1105, 595)","(1125, 600)","(1104, 611)","(1087, 613)","(1074, 613)","(1061, 611)","(1047, 605)","(1040, 594)","(1063, 598)","(1075, 600)","(1088, 600)","(1117, 600)","(1087, 599)","(1074, 599)","(1062, 596)",0.3,0.92,103.0,0.36,0.07,0.38,0.01,-14.5,0.09,0.35,57.1,64.1,95.0,35.15,35.35,79.65,57.94,47.58,57.17
1666,9961472,66,-56,-1,-1,0,"(978, 463)","(976, 495)","(978, 526)","(980, 558)","(985, 590)","(997, 621)","(1016, 649)","(1040, 671)","(1073, 678)","(1109, 676)","(1142, 660)","(1170, 639)","(1191, 611)","(1204, 579)","(1211, 545)","(1216, 511)","(1219, 477)","(987, 452)","(1000, 436)","(1022, 433)","(1045, 439)","(1066, 450)","(1099, 451)","(1124, 442)","(1150, 439)","(1175, 446)","(1191, 463)","(1082, 468)","(1079, 493)","(1077, 517)","(1075, 542)","(1052, 552)","(1063, 559)","(1076, 564)","(1090, 560)","(1103, 555)","(1012, 467)","(1023, 460)","(1038, 461)","(1053, 470)","(1038, 473)","(1023, 473)","(1118, 473)","(1133, 465)","(1148, 467)","(1161, 475)","(1148, 479)","(1133, 478)","(1035, 592)","(1050, 590)","(1064, 589)","(1075, 593)","(1087, 591)","(1104, 594)","(1124, 598)","(1103, 609)","(1087, 612)","(1074, 612)","(1062, 610)","(1049, 605)","(1042, 594)","(1063, 597)","(1075, 599)","(1087, 599)","(1116, 599)","(1087, 598)","(1074, 598)","(1063, 596)",0.29,0.93,103.0,0.34,0.05,0.36,0.01,-13.5,0.08,0.35,60.1,65.5,96.6,33.3,32.1,77.55,56.94,48.23,58.05
1700,-65536,66,-56,-1,-1,0,"(978, 462)","(976, 493)","(977, 525)","(979, 557)","(984, 590)","(997, 621)","(1015, 650)","(1039, 673)","(1071, 680)","(1107, 678)","(1140, 661)","(1168, 639)","(1189, 611)","(1203, 580)","(1210, 546)","(1216, 511)","(1219, 477)","(986, 448)","(1001, 434)","(1023, 432)","(1045, 439)","(1065, 451)","(1099, 452)","(1124, 443)","(1149, 440)","(1175, 446)","(1190, 463)","(1081, 470)","(1079, 494)","(1076, 518)","(1074, 543)","(1050, 552)","(1062, 559)","(1074, 564)","(1088, 561)","(1101, 556)","(1010, 465)","(1022, 459)","(1037, 460)","(1051, 470)","(1036, 473)","(1020, 473)","(1117, 474)","(1132, 466)","(1148, 468)","(1160, 476)","(1148, 481)","(1132, 479)","(1033, 593)","(1048, 590)","(1061, 590)","(1073, 594)","(1085, 592)","(1102, 596)","(1121, 601)","(1101, 611)","(1084, 615)","(1071, 615)","(1059, 612)","(1046, 606)","(1040, 594)","(1061, 599)","(1072, 601)","(1085, 601)","(1113, 601)","(1084, 599)","(1072, 600)","(1061, 597)",0.3,0.94,103.0,0.34,0.07,0.36,0.01,-14.5,0.08,0.34,60.0,64.4,97.4,37.6,33.55,83.3,57.17,47.82,57.58
1733,-524288,66,-56,-1,-1,0,"(977, 465)","(976, 496)","(977, 528)","(980, 560)","(985, 592)","(997, 624)","(1015, 652)","(1039, 675)","(1071, 682)","(1107, 680)","(1140, 664)","(1168, 642)","(1189, 614)","(1203, 583)","(1211, 549)","(1216, 514)","(1220, 479)","(984, 451)","(998, 436)","(1020, 433)","(1042, 439)","(1064, 450)","(1101, 452)","(1126, 443)","(1152, 441)","(1177, 447)","(1193, 465)","(1081, 469)","(1078, 493)","(1076, 517)","(1073, 542)","(1051, 552)","(1061, 559)","(1074, 564)","(1088, 560)","(1101, 556)","(1010, 468)","(1021, 461)","(1037, 462)","(1051, 472)","(1036, 474)","(1020, 474)","(1118, 476)","(1133, 467)","(1150, 469)","(1162, 477)","(1149, 482)","(1133, 481)","(1032, 594)","(1046, 591)","(1061, 590)","(1072, 595)","(1086, 593)","(1103, 597)","(1123, 603)","(1102, 615)","(1085, 618)","(1071, 618)","(1058, 615)","(1044, 608)","(1039, 595)","(1060, 599)","(1072, 601)","(1085, 601)","(1114, 603)","(1085, 602)","(1072, 602)","(1059, 599)",0.3,0.95,103.0,0.35,0.06,0.37,0.02,-14.0,0.08,0.34,55.5,60.9,92.1,36.45,34.2,77.05,60.47,50.88,60.23
1766,-327680,66,-56,-1,-1,0,"(977, 467)","(975, 498)","(977, 530)","(979, 562)","(984, 594)","(997, 625)","(1015, 653)","(1040, 676)","(1073, 684)","(1110, 682)","(1143, 664)","(1171, 642)","(1192, 613)","(1204, 581)","(1211, 547)","(1215, 512)","(1217, 477)","(983, 451)","(996, 435)","(1018, 433)","(1040, 439)","(1061, 451)","(1097, 453)","(1122, 444)","(1148, 441)","(1174, 447)","(1190, 464)","(1079, 469)","(1077, 494)","(1074, 518)","(1072, 543)","(1050, 553)","(1061, 559)","(1073, 565)","(1088, 561)","(1101, 556)","(1008, 468)","(1019, 460)","(1034, 462)","(1049, 472)","(1033, 474)","(1018, 474)","(1115, 475)","(1130, 467)","(1146, 468)","(1159, 477)","(1146, 481)","(1130, 480)","(1031, 592)","(1046, 590)","(1061, 589)","(1073, 594)","(1086, 592)","(1104, 595)","(1125, 600)","(1104, 614)","(1086, 618)","(1072, 618)","(1059, 615)","(1045, 607)","(1038, 594)","(1060, 598)","(1073, 601)","(1086, 601)","(1117, 601)","(1085, 602)","(1072, 602)","(1060, 599)",0.29,0.96,103.0,0.35,0.05,0.39,0.02,-14.0,0.09,0.34,52.7,59.7,91.7,32.8,29.85,73.3,65.76,53.64,62.76
1800,-65536,66,-56,-1,-1,0,"(977, 464)","(975, 495)","(977, 526)","(979, 558)","(985, 590)","(997, 622)","(1016, 651)","(1040, 674)","(1073, 683)","(1110, 681)","(1144, 663)","(1171, 640)","(1192, 610)","(1205, 578)","(1212, 543)","(1217, 508)","(1219, 474)","(983, 450)","(996, 435)","(1018, 432)","(1040, 438)","(1061, 449)","(1100, 452)","(1124, 443)","(1150, 440)","(1175, 447)","(1190, 464)","(1080, 469)","(1078, 494)","(1076, 518)","(1074, 543)","(1051, 552)","(1062, 559)","(1075, 565)","(1089, 561)","(1103, 556)","(1009, 466)","(1020, 459)","(1036, 460)","(1050, 471)","(1035, 473)","(1019, 473)","(1117, 475)","(1132, 467)","(1148, 468)","(1161, 476)","(1148, 481)","(1132, 480)","(1033, 590)","(1048, 589)","(1063, 589)","(1075, 593)","(1088, 591)","(1107, 595)","(1128, 600)","(1107, 615)","(1088, 619)","(1074, 618)","(1061, 615)","(1047, 607)","(1041, 592)","(1063, 597)","(1075, 600)","(1088, 600)","(1120, 600)","(1087, 604)","(1074, 604)","(1062, 600)",0.29,0.98,103.0,0.35,0.05,0.39,0.02,-14.0,0.09,0.34,58.9,64.0,96.6,33.05,29.85,75.25,59.58,49.76,59.11
1833,458752,66,-56,-1,-1,0,"(976, 469)","(974, 500)","(976, 531)","(979, 563)","(985, 595)","(998, 625)","(1017, 652)","(1041, 675)","(1073, 683)","(1110, 681)","(1142, 664)","(1170, 642)","(1190, 614)","(1203, 582)","(1210, 548)","(1214, 513)","(1217, 478)","(981, 452)","(995, 436)","(1017, 433)","(1040, 438)","(1061, 449)","(1099, 452)","(1123, 443)","(1149, 440)","(1175, 446)","(1190, 464)","(1080, 470)","(1078, 494)","(1076, 518)","(1075, 543)","(1051, 553)","(1063, 559)","(1075, 565)","(1090, 561)","(1103, 556)","(1007, 469)","(1018, 462)","(1034, 463)","(1049, 473)","(1033, 476)","(1018, 476)","(1116, 477)","(1131, 468)","(1148, 469)","(1161, 478)","(1148, 483)","(1132, 481)","(1032, 592)","(1047, 589)","(1063, 589)","(1075, 593)","(1089, 591)","(1107, 594)","(1128, 600)","(1107, 614)","(1089, 618)","(1074, 618)","(1061, 616)","(1046, 608)","(1039, 594)","(1062, 597)","(1075, 600)","(1089, 599)","(1120, 600)","(1088, 603)","(1075, 604)","(1062, 601)",0.3,0.95,103.0,0.36,0.04,0.39,0.02,-14.5,0.09,0.34,57.7,63.5,96.3,36.2,34.45,78.0,60.0,49.35,58.58
1866,1703936,66,-56,-1,-1,0,"(978, 463)","(976, 495)","(977, 526)","(980, 558)","(986, 591)","(999, 622)","(1018, 650)","(1042, 673)","(1075, 682)","(1111, 679)","(1143, 662)","(1171, 639)","(1192, 610)","(1205, 578)","(1212, 543)","(1217, 508)","(1219, 473)","(985, 451)","(998, 436)","(1020, 433)","(1042, 439)","(1063, 451)","(1098, 452)","(1123, 443)","(1148, 440)","(1173, 446)","(1189, 464)","(1080, 469)","(1078, 493)","(1076, 518)","(1073, 543)","(1050, 550)","(1061, 557)","(1075, 563)","(1090, 559)","(1104, 553)","(1010, 468)","(1022, 462)","(1036, 462)","(1051, 471)","(1036, 473)","(1021, 473)","(1116, 474)","(1131, 467)","(1146, 469)","(1159, 476)","(1146, 480)","(1131, 478)","(1033, 587)","(1048, 586)","(1063, 587)","(1075, 591)","(1089, 589)","(1108, 592)","(1130, 596)","(1108, 612)","(1089, 617)","(1075, 617)","(1061, 614)","(1047, 606)","(1040, 589)","(1063, 593)","(1075, 596)","(1089, 595)","(1122, 597)","(1089, 604)","(1075, 604)","(1062, 600)",0.25,0.98,103.0,0.34,0.06,0.4,0.03,-12.0,0.09,0.34,55.3,60.8,93.9,34.05,32.9,74.15,57.35,48.05,57.76
1900,3211264,65,-56,-1,-1,0,"(978, 470)","(977, 502)","(978, 533)","(982, 564)","(988, 596)","(1002, 627)","(1021, 654)","(1045, 676)","(1077, 683)","(1113, 679)","(1144, 662)","(1170, 639)","(1190, 611)","(1202, 579)","(1207, 544)","(1211, 510)","(1212, 476)","(985, 459)","(997, 442)","(1020, 437)","(1043, 442)","(1064, 452)","(1097, 452)","(1120, 443)","(1145, 439)","(1170, 445)","(1185, 463)","(1080, 469)","(1078, 493)","(1076, 517)","(1075, 541)","(1051, 552)","(1063, 558)","(1077, 563)","(1091, 558)","(1105, 553)","(1011, 473)","(1023, 467)","(1037, 466)","(1051, 473)","(1037, 477)","(1023, 477)","(1114, 474)","(1129, 467)","(1143, 468)","(1156, 474)","(1144, 478)","(1129, 478)","(1034, 591)","(1049, 587)","(1064, 587)","(1077, 591)","(1090, 588)","(1109, 591)","(1131, 596)","(1110, 612)","(1091, 617)","(1077, 617)","(1063, 615)","(1049, 609)","(1041, 592)","(1064, 593)","(1077, 595)","(1091, 594)","(1123, 597)","(1091, 603)","(1077, 604)","(1063, 601)",0.25,0.98,103.0,0.35,0.01,0.41,0.03,-10.5,0.1,0.33,43.9,48.1,77.7,36.45,35.0,77.8,57.58,48.47,61.64
1933,2555904,65,-56,-1,-1,0,"(979, 464)","(978, 495)","(979, 527)","(981, 558)","(987, 591)","(1000, 622)","(1018, 651)","(1042, 674)","(1075, 681)","(1111, 679)","(1143, 662)","(1170, 639)","(1190, 611)","(1203, 578)","(1209, 544)","(1213, 509)","(1215, 474)","(987, 455)","(1000, 439)","(1022, 435)","(1044, 440)","(1066, 451)","(1100, 452)","(1125, 443)","(1150, 440)","(1175, 446)","(1190, 464)","(1082, 469)","(1079, 493)","(1077, 517)","(1074, 543)","(1050, 550)","(1062, 557)","(1076, 563)","(1091, 558)","(1105, 553)","(1012, 469)","(1023, 462)","(1039, 463)","(1054, 472)","(1038, 475)","(1023, 475)","(1117, 474)","(1132, 466)","(1148, 467)","(1161, 474)","(1148, 479)","(1132, 478)","(1033, 588)","(1048, 585)","(1063, 585)","(1076, 590)","(1090, 588)","(1110, 591)","(1131, 596)","(1110, 611)","(1090, 616)","(1075, 616)","(1061, 613)","(1046, 605)","(1040, 589)","(1063, 593)","(1076, 595)","(1091, 595)","(1123, 597)","(1090, 602)","(1075, 602)","(1062, 599)",0.27,0.99,103.0,0.36,0.04,0.41,0.03,-13.0,0.09,0.34,48.7,54.3,83.8,37.05,34.65,76.75,56.7,48.7,60.76
1966,-65536,65,-56,-1,-1,0,"(981, 465)","(979, 495)","(980, 526)","(982, 557)","(987, 589)","(999, 620)","(1016, 648)","(1039, 672)","(1072, 681)","(1108, 679)","(1141, 663)","(1169, 640)","(1190, 612)","(1204, 580)","(1211, 546)","(1215, 510)","(1217, 476)","(987, 453)","(999, 437)","(1021, 434)","(1044, 440)","(1065, 452)","(1098, 453)","(1123, 444)","(1149, 441)","(1174, 447)","(1190, 465)","(1080, 471)","(1078, 494)","(1075, 517)","(1072, 541)","(1050, 549)","(1061, 557)","(1074, 563)","(1089, 558)","(1103, 553)","(1011, 470)","(1022, 463)","(1038, 464)","(1053, 473)","(1037, 477)","(1022, 477)","(1116, 477)","(1131, 469)","(1148, 471)","(1161, 478)","(1148, 484)","(1131, 483)","(1032, 587)","(1047, 585)","(1062, 585)","(1074, 590)","(1088, 588)","(1107, 592)","(1128, 598)","(1107, 613)","(1087, 618)","(1072, 617)","(1059, 614)","(1045, 606)","(1039, 589)","(1061, 593)","(1074, 596)","(1088, 596)","(1120, 598)","(1087, 603)","(1073, 603)","(1060, 600)",0.29,0.99,103.0,0.36,0.05,0.4,0.03,-14.5,0.09,0.33,49.9,55.3,85.5,36.95,36.0,79.2,55.76,47.41,59.29
2000,-720896,65,-56,-1,-1,0,"(980, 467)","(977, 498)","(978, 529)","(980, 560)","(985, 592)","(998, 623)","(1015, 651)","(1039, 674)","(1072, 682)","(1108, 680)","(1141, 664)","(1168, 642)","(1188, 614)","(1202, 583)","(1208, 550)","(1213, 515)","(1215, 481)","(990, 451)","(1002, 436)","(1024, 433)","(1045, 440)","(1065, 451)","(1099, 453)","(1123, 444)","(1148, 441)","(1172, 447)","(1187, 465)","(1081, 471)","(1078, 494)","(1076, 517)","(1073, 541)","(1050, 550)","(1061, 557)","(1074, 563)","(1089, 559)","(1102, 554)","(1013, 470)","(1024, 463)","(1039, 464)","(1053, 474)","(1038, 477)","(1023, 477)","(1115, 478)","(1130, 470)","(1146, 472)","(1159, 480)","(1146, 485)","(1130, 484)","(1031, 589)","(1046, 586)","(1061, 586)","(1073, 590)","(1087, 588)","(1106, 592)","(1127, 600)","(1105, 615)","(1086, 618)","(1072, 618)","(1058, 615)","(1044, 607)","(1039, 591)","(1060, 594)","(1073, 596)","(1087, 596)","(1119, 600)","(1086, 604)","(1073, 603)","(1060, 600)",0.3,0.98,103.0,0.35,0.06,0.4,0.03,-14.5,0.08,0.33,54.6,58.6,90.1,37.4,37.45,81.05,61.7,50.0,59.94
2033,-655360,65,-56,-1,-1,0,"(978, 472)","(977, 502)","(978, 533)","(981, 564)","(987, 596)","(1000, 625)","(1018, 652)","(1041, 675)","(1073, 682)","(1109, 680)","(1141, 663)","(1167, 640)","(1188, 613)","(1200, 581)","(1207, 548)","(1210, 513)","(1212, 479)","(988, 458)","(1000, 442)","(1021, 437)","(1043, 442)","(1064, 452)","(1098, 453)","(1121, 445)","(1145, 442)","(1169, 448)","(1184, 466)","(1079, 473)","(1077, 496)","(1075, 518)","(1073, 542)","(1051, 552)","(1062, 558)","(1075, 563)","(1090, 559)","(1103, 554)","(1012, 476)","(1024, 470)","(1038, 470)","(1052, 477)","(1038, 481)","(1023, 481)","(1114, 479)","(1128, 473)","(1143, 474)","(1156, 480)","(1143, 485)","(1128, 484)","(1033, 591)","(1048, 586)","(1063, 585)","(1075, 589)","(1089, 587)","(1108, 591)","(1129, 598)","(1108, 614)","(1089, 619)","(1075, 618)","(1061, 616)","(1047, 608)","(1041, 592)","(1063, 593)","(1076, 595)","(1089, 595)","(1121, 598)","(1088, 604)","(1075, 604)","(1061, 602)",0.26,0.98,103.0,0.35,0.03,0.41,0.03,-11.5,0.1,0.33,45.9,49.3,79.4,37.15,37.65,80.2,57.17,47.94,59.94
2066,-655360,65,-56,-1,-1,0,"(978, 466)","(976, 497)","(976, 528)","(978, 560)","(983, 592)","(996, 624)","(1014, 651)","(1039, 674)","(1073, 681)","(1110, 679)","(1143, 662)","(1170, 639)","(1190, 611)","(1203, 579)","(1209, 545)","(1213, 511)","(1215, 477)","(986, 454)","(999, 438)","(1021, 434)","(1044, 440)","(1065, 452)","(1100, 453)","(1124, 444)","(1150, 441)","(1174, 446)","(1190, 464)","(1081, 470)","(1078, 494)","(1076, 518)","(1073, 543)","(1050, 551)","(1062, 558)","(1075, 564)","(1090, 560)","(1103, 554)","(1010, 470)","(1022, 463)","(1038, 464)","(1053, 474)","(1037, 477)","(1021, 477)","(1116, 476)","(1131, 467)","(1148, 468)","(1161, 476)","(1148, 482)","(1131, 481)","(1032, 590)","(1047, 588)","(1062, 588)","(1074, 593)","(1087, 591)","(1105, 594)","(1127, 599)","(1105, 612)","(1086, 614)","(1072, 614)","(1059, 611)","(1046, 605)","(1039, 592)","(1061, 597)","(1074, 599)","(1087, 599)","(1118, 600)","(1086, 600)","(1073, 600)","(1060, 597)",0.31,0.96,103.0,0.37,0.04,0.4,0.01,-14.5,0.09,0.34,51.4,56.7,88.5,34.05,31.4,75.0,63.29,51.17,60.47
2100,-655360,65,-56,-1,-1,0,"(979, 465)","(977, 495)","(978, 526)","(980, 557)","(985, 589)","(997, 620)","(1014, 647)","(1038, 670)","(1071, 677)","(1108, 676)","(1141, 660)","(1169, 638)","(1189, 610)","(1202, 579)","(1209, 545)","(1213, 511)","(1214, 478)","(987, 452)","(999, 436)","(1021, 433)","(1044, 439)","(1064, 451)","(1101, 454)","(1125, 445)","(1150, 441)","(1175, 447)","(1190, 464)","(1080, 471)","(1078, 495)","(1076, 519)","(1073, 543)","(1050, 552)","(1061, 559)","(1075, 565)","(1090, 561)","(1103, 556)","(1010, 470)","(1022, 462)","(1038, 463)","(1054, 474)","(1037, 477)","(1021, 477)","(1116, 477)","(1131, 468)","(1148, 468)","(1161, 477)","(1149, 483)","(1132, 482)","(1032, 589)","(1047, 587)","(1062, 588)","(1074, 593)","(1087, 591)","(1105, 594)","(1126, 599)","(1104, 610)","(1085, 613)","(1071, 612)","(1058, 609)","(1045, 603)","(1039, 591)","(1061, 596)","(1074, 599)","(1087, 599)","(1118, 600)","(1085, 599)","(1072, 599)","(1059, 595)",0.32,0.95,103.0,0.37,0.04,0.4,0.01,-15.0,0.09,0.34,57.0,63.2,93.4,33.75,30.35,77.0,60.41,49.47,60.05
2133,-720896,65,-56,-1,-1,0,"(980, 465)","(978, 496)","(978, 527)","(980, 558)","(985, 590)","(997, 621)","(1014, 648)","(1038, 671)","(1071, 678)","(1109, 677)","(1142, 661)","(1169, 639)","(1190, 612)","(1203, 580)","(1210, 547)","(1214, 513)","(1216, 479)","(986, 453)","(999, 437)","(1021, 434)","(1044, 441)","(1064, 452)","(1099, 454)","(1124, 445)","(1150, 442)","(1175, 448)","(1190, 466)","(1080, 471)","(1077, 495)","(1075, 520)","(1072, 544)","(1048, 552)","(1060, 559)","(1073, 565)","(1089, 561)","(1103, 556)","(1009, 470)","(1021, 463)","(1037, 464)","(1053, 474)","(1036, 478)","(1020, 477)","(1116, 477)","(1132, 469)","(1148, 471)","(1161, 478)","(1148, 484)","(1132, 482)","(1030, 591)","(1045, 589)","(1060, 588)","(1072, 593)","(1086, 590)","(1103, 594)","(1124, 600)","(1103, 612)","(1085, 615)","(1071, 614)","(1057, 612)","(1043, 605)","(1037, 593)","(1059, 596)","(1072, 599)","(1085, 599)","(1116, 600)","(1085, 600)","(1071, 600)","(1058, 597)",0.28,0.94,103.0,0.37,0.05,0.39,0.01,-15.0,0.09,0.35,55.2,61.4,92.5,34.9,32.4,80.15,60.05,48.94,58.47
2166,-786432,65,-56,-1,-1,0,"(981, 469)","(979, 499)","(979, 529)","(981, 560)","(985, 591)","(996, 622)","(1013, 649)","(1037, 671)","(1069, 678)","(1106, 676)","(1139, 661)","(1167, 640)","(1189, 614)","(1202, 583)","(1209, 549)","(1214, 514)","(1217, 481)","(988, 455)","(1000, 438)","(1022, 436)","(1044, 442)","(1065, 454)","(1098, 455)","(1123, 446)","(1148, 442)","(1174, 447)","(1189, 465)","(1079, 471)","(1077, 495)","(1074, 519)","(1071, 543)","(1048, 552)","(1059, 559)","(1072, 565)","(1087, 561)","(1100, 556)","(1012, 473)","(1023, 466)","(1039, 466)","(1053, 476)","(1038, 480)","(1022, 479)","(1115, 478)","(1130, 470)","(1147, 471)","(1160, 479)","(1147, 485)","(1131, 484)","(1029, 592)","(1045, 590)","(1059, 590)","(1071, 594)","(1083, 592)","(1101, 596)","(1122, 600)","(1100, 610)","(1082, 612)","(1069, 612)","(1056, 609)","(1043, 604)","(1037, 594)","(1059, 598)","(1071, 600)","(1083, 601)","(1114, 601)","(1082, 598)","(1069, 598)","(1057, 595)",0.31,0.94,103.0,0.36,0.04,0.39,0.01,-14.5,0.08,0.34,48.8,53.6,85.0,35.1,30.05,78.55,58.29,47.05,58.17
2200,-851968,65,-56,-1,-1,0,"(977, 464)","(975, 495)","(977, 527)","(979, 558)","(984, 591)","(995, 622)","(1013, 649)","(1037, 672)","(1070, 678)","(1106, 676)","(1140, 660)","(1167, 638)","(1188, 611)","(1201, 580)","(1208, 546)","(1212, 511)","(1214, 477)","(984, 452)","(998, 437)","(1021, 435)","(1043, 442)","(1064, 453)","(1098, 455)","(1122, 445)","(1148, 442)","(1173, 446)","(1189, 463)","(1078, 472)","(1076, 496)","(1073, 520)","(1071, 545)","(1048, 553)","(1059, 561)","(1072, 566)","(1087, 562)","(1101, 557)","(1008, 468)","(1020, 460)","(1036, 462)","(1051, 474)","(1035, 477)","(1018, 477)","(1114, 477)","(1129, 466)","(1147, 466)","(1160, 475)","(1148, 482)","(1130, 481)","(1029, 594)","(1045, 592)","(1059, 591)","(1071, 596)","(1084, 593)","(1102, 597)","(1123, 602)","(1101, 613)","(1083, 615)","(1069, 615)","(1056, 612)","(1043, 607)","(1037, 596)","(1059, 600)","(1071, 602)","(1084, 602)","(1114, 603)","(1083, 600)","(1070, 600)","(1058, 598)",0.33,0.94,103.0,0.37,0.05,0.39,0.01,-16.5,0.09,0.35,57.8,64.6,96.0,31.4,28.0,77.05,60.52,49.52,59.88
2233,-983040,65,-56,-1,-1,0,"(978, 469)","(977, 500)","(978, 531)","(980, 562)","(986, 594)","(999, 624)","(1017, 650)","(1040, 672)","(1072, 679)","(1108, 677)","(1141, 661)","(1168, 639)","(1189, 612)","(1202, 581)","(1209, 547)","(1213, 512)","(1214, 478)","(987, 458)","(999, 441)","(1021, 438)","(1043, 443)","(1065, 454)","(1098, 455)","(1122, 445)","(1147, 441)","(1172, 447)","(1187, 465)","(1079, 472)","(1077, 495)","(1074, 519)","(1072, 543)","(1049, 552)","(1060, 559)","(1074, 564)","(1089, 560)","(1102, 555)","(1012, 475)","(1023, 469)","(1038, 469)","(1053, 477)","(1037, 480)","(1022, 480)","(1115, 478)","(1130, 471)","(1145, 471)","(1158, 478)","(1146, 483)","(1130, 483)","(1030, 591)","(1046, 589)","(1060, 589)","(1072, 593)","(1085, 591)","(1103, 594)","(1125, 598)","(1103, 610)","(1085, 614)","(1071, 613)","(1058, 611)","(1044, 605)","(1038, 593)","(1060, 596)","(1072, 599)","(1085, 598)","(1116, 599)","(1085, 599)","(1071, 600)","(1059, 597)",0.27,0.95,103.0,0.35,0.03,0.4,0.01,-11.5,0.09,0.34,46.6,52.0,83.0,33.2,29.6,76.8,55.94,46.88,57.7
2266,-983040,65,-56,-1,-1,0,"(978, 471)","(976, 501)","(977, 532)","(979, 564)","(984, 596)","(996, 627)","(1014, 653)","(1037, 675)","(1070, 682)","(1106, 679)","(1139, 664)","(1166, 642)","(1187, 615)","(1200, 583)","(1207, 550)","(1212, 515)","(1214, 481)","(988, 458)","(1000, 441)","(1021, 438)","(1043, 443)","(1064, 454)","(1096, 455)","(1120, 445)","(1145, 441)","(1170, 447)","(1185, 466)","(1077, 471)","(1075, 495)","(1072, 519)","(1068, 543)","(1046, 552)","(1058, 559)","(1071, 565)","(1086, 560)","(1099, 555)","(1012, 475)","(1023, 469)","(1037, 469)","(1052, 476)","(1037, 480)","(1022, 480)","(1113, 477)","(1128, 470)","(1143, 471)","(1156, 478)","(1143, 483)","(1128, 482)","(1029, 593)","(1044, 590)","(1058, 589)","(1069, 593)","(1082, 591)","(1100, 595)","(1121, 600)","(1099, 611)","(1082, 613)","(1068, 613)","(1056, 611)","(1043, 606)","(1037, 594)","(1057, 597)","(1069, 599)","(1082, 599)","(1113, 600)","(1082, 599)","(1069, 599)","(1057, 597)",0.27,0.96,103.0,0.35,0.03,0.38,0.01,-12.0,0.09,0.34,47.3,51.2,83.9,34.05,30.1,80.1,61.76,50.94,60.35
2300,-983040,65,-56,-1,-1,0,"(981, 469)","(979, 499)","(979, 530)","(981, 560)","(986, 592)","(996, 622)","(1013, 649)","(1036, 671)","(1068, 678)","(1104, 677)","(1138, 662)","(1166, 640)","(1187, 613)","(1200, 581)","(1207, 548)","(1212, 513)","(1215, 479)","(990, 454)","(1001, 438)","(1023, 436)","(1045, 442)","(1065, 453)","(1097, 454)","(1121, 445)","(1146, 441)","(1171, 447)","(1186, 466)","(1078, 471)","(1075, 495)","(1072, 519)","(1068, 544)","(1047, 552)","(1058, 559)","(1071, 564)","(1086, 560)","(1099, 555)","(1014, 471)","(1025, 465)","(1039, 466)","(1054, 474)","(1039, 477)","(1024, 477)","(1114, 476)","(1129, 469)","(1144, 470)","(1156, 477)","(1144, 481)","(1129, 480)","(1029, 590)","(1044, 588)","(1057, 588)","(1070, 593)","(1084, 590)","(1102, 594)","(1124, 598)","(1102, 610)","(1084, 612)","(1069, 612)","(1055, 609)","(1042, 604)","(1037, 592)","(1057, 595)","(1070, 598)","(1084, 597)","(1116, 599)","(1084, 599)","(1070, 599)","(1057, 596)",0.26,0.98,103.0,0.35,0.06,0.4,0.01,-12.0,0.08,0.35,48.1,53.4,86.4,31.65,27.95,76.4,57.88,49.0,60.64
2333,-524288,65,-56,-1,-1,0,"(978, 475)","(977, 504)","(977, 534)","(979, 565)","(984, 595)","(996, 625)","(1013, 650)","(1037, 670)","(1069, 678)","(1105, 677)","(1139, 662)","(1167, 642)","(1187, 616)","(1200, 585)","(1206, 552)","(1211, 517)","(1213, 484)","(987, 458)","(998, 440)","(1019, 437)","(1041, 443)","(1062, 454)","(1092, 455)","(1117, 446)","(1143, 442)","(1169, 450)","(1184, 470)","(1076, 472)","(1074, 495)","(1071, 518)","(1068, 542)","(1045, 552)","(1057, 558)","(1070, 564)","(1085, 560)","(1099, 556)","(1011, 475)","(1022, 470)","(1036, 470)","(1050, 477)","(1036, 480)","(1021, 480)","(1112, 480)","(1127, 474)","(1141, 476)","(1155, 482)","(1141, 486)","(1126, 485)","(1029, 591)","(1044, 589)","(1057, 588)","(1069, 592)","(1082, 590)","(1100, 594)","(1122, 599)","(1100, 609)","(1082, 611)","(1068, 610)","(1056, 608)","(1043, 603)","(1036, 593)","(1057, 595)","(1069, 598)","(1082, 598)","(1113, 600)","(1082, 597)","(1069, 597)","(1057, 594)",0.24,0.98,103.0,0.34,0.05,0.39,0.01,-11.0,0.09,0.33,47.5,51.6,81.8,35.1,30.65,79.0,59.52,48.47,58.11
2366,-524288,65,-56,-1,-1,0,"(978, 472)","(976, 503)","(977, 533)","(979, 563)","(984, 594)","(996, 624)","(1015, 649)","(1039, 669)","(1071, 677)","(1107, 675)","(1140, 661)","(1168, 640)","(1189, 614)","(1201, 583)","(1207, 550)","(1211, 517)","(1214, 483)","(984, 456)","(995, 438)","(1018, 435)","(1040, 441)","(1061, 453)","(1092, 455)","(1117, 446)","(1143, 443)","(1169, 450)","(1185, 469)","(1076, 471)","(1074, 495)","(1072, 518)","(1069, 542)","(1046, 551)","(1057, 558)","(1071, 564)","(1086, 560)","(1100, 555)","(1009, 474)","(1021, 470)","(1034, 470)","(1048, 475)","(1034, 478)","(1020, 478)","(1113, 480)","(1128, 477)","(1142, 478)","(1155, 484)","(1141, 487)","(1126, 484)","(1029, 590)","(1045, 588)","(1059, 588)","(1071, 592)","(1084, 590)","(1102, 593)","(1123, 597)","(1102, 608)","(1084, 610)","(1070, 610)","(1057, 607)","(1044, 602)","(1036, 591)","(1058, 595)","(1071, 598)","(1084, 597)","(1115, 598)","(1084, 596)","(1071, 596)","(1058, 594)",0.19,0.94,103.0,0.34,0.05,0.39,0.01,-9.0,0.1,0.34,47.6,51.7,81.7,34.15,28.9,76.8,59.64,48.35,57.05
2400,-983040,65,-56,-1,-1,0,"(978, 467)","(976, 498)","(977, 529)","(979, 559)","(984, 591)","(996, 621)","(1013, 648)","(1036, 669)","(1068, 677)","(1104, 676)","(1137, 662)","(1166, 641)","(1188, 615)","(1202, 584)","(1209, 550)","(1214, 516)","(1217, 482)","(982, 454)","(995, 437)","(1017, 434)","(1040, 440)","(1060, 452)","(1094, 455)","(1120, 445)","(1146, 443)","(1173, 450)","(1188, 469)","(1077, 471)","(1074, 495)","(1071, 519)","(1068, 544)","(1044, 550)","(1056, 558)","(1069, 564)","(1085, 560)","(1099, 555)","(1008, 470)","(1019, 466)","(1033, 467)","(1048, 473)","(1033, 475)","(1019, 475)","(1115, 478)","(1130, 474)","(1145, 476)","(1158, 481)","(1144, 485)","(1129, 483)","(1027, 586)","(1043, 586)","(1057, 587)","(1069, 592)","(1083, 590)","(1102, 594)","(1125, 597)","(1101, 609)","(1082, 611)","(1068, 610)","(1054, 607)","(1041, 600)","(1033, 588)","(1057, 594)","(1069, 597)","(1083, 597)","(1116, 598)","(1082, 598)","(1068, 597)","(1056, 594)",0.21,0.97,103.0,0.34,0.06,0.41,0.01,-10.0,0.09,0.35,50.6,55.7,85.7,32.75,29.25,75.85,58.35,48.29,58.29
2433,-1048576,65,-56,-1,-1,0,"(979, 470)","(977, 500)","(978, 530)","(980, 561)","(985, 592)","(996, 622)","(1014, 648)","(1037, 668)","(1068, 676)","(1103, 675)","(1137, 660)","(1166, 640)","(1188, 615)","(1202, 584)","(1209, 550)","(1214, 515)","(1217, 480)","(983, 454)","(995, 438)","(1018, 435)","(1040, 441)","(1061, 453)","(1094, 455)","(1120, 446)","(1146, 443)","(1173, 450)","(1189, 469)","(1076, 471)","(1073, 495)","(1070, 519)","(1067, 543)","(1045, 551)","(1056, 558)","(1069, 564)","(1084, 560)","(1098, 556)","(1007, 469)","(1019, 463)","(1033, 464)","(1048, 473)","(1033, 475)","(1018, 475)","(1114, 477)","(1129, 470)","(1145, 472)","(1158, 479)","(1145, 483)","(1129, 482)","(1027, 586)","(1042, 587)","(1056, 588)","(1068, 593)","(1082, 591)","(1100, 594)","(1123, 596)","(1099, 607)","(1080, 609)","(1067, 608)","(1054, 605)","(1041, 599)","(1033, 588)","(1056, 594)","(1068, 597)","(1081, 597)","(1114, 597)","(1081, 596)","(1067, 596)","(1055, 592)",0.26,0.96,103.0,0.35,0.06,0.4,0.01,-12.5,0.09,0.35,49.8,53.8,84.7,29.25,24.15,70.25,57.11,46.58,56.94
2466,-983040,65,-56,-1,-1,0,"(978, 467)","(975, 498)","(976, 529)","(977, 560)","(983, 591)","(995, 621)","(1013, 647)","(1037, 669)","(1068, 676)","(1103, 675)","(1137, 661)","(1166, 641)","(1188, 615)","(1202, 583)","(1209, 550)","(1214, 515)","(1216, 481)","(983, 453)","(996, 437)","(1018, 434)","(1041, 440)","(1061, 452)","(1095, 455)","(1120, 445)","(1148, 442)","(1174, 449)","(1191, 469)","(1077, 471)","(1074, 495)","(1071, 519)","(1068, 544)","(1045, 552)","(1056, 559)","(1070, 564)","(1085, 560)","(1099, 556)","(1007, 468)","(1019, 462)","(1034, 463)","(1049, 473)","(1033, 475)","(1018, 474)","(1114, 477)","(1130, 469)","(1146, 471)","(1159, 478)","(1146, 483)","(1129, 482)","(1026, 588)","(1042, 587)","(1057, 588)","(1070, 592)","(1083, 590)","(1102, 593)","(1124, 597)","(1102, 608)","(1082, 611)","(1068, 610)","(1055, 607)","(1041, 601)","(1033, 590)","(1057, 594)","(1069, 597)","(1083, 597)","(1116, 597)","(1083, 597)","(1069, 597)","(1057, 594)",0.27,0.95,103.0,0.36,0.06,0.41,0.01,-13.5,0.09,0.35,56.2,62.3,93.3,31.7,28.15,73.8,61.29,48.88,58.7
2500,8716288,65,-56,-1,-1,0,"(977, 466)","(975, 497)","(976, 528)","(978, 559)","(983, 590)","(996, 620)","(1014, 647)","(1037, 669)","(1068, 677)","(1103, 676)","(1136, 661)","(1165, 640)","(1187, 614)","(1201, 583)","(1209, 549)","(1214, 515)","(1216, 481)","(983, 450)","(996, 434)","(1017, 433)","(1040, 440)","(1059, 452)","(1095, 454)","(1119, 445)","(1145, 443)","(1171, 449)","(1187, 467)","(1076, 471)","(1073, 495)","(1071, 520)","(1068, 544)","(1044, 551)","(1056, 559)","(1069, 565)","(1084, 561)","(1098, 556)","(1006, 467)","(1018, 462)","(1033, 463)","(1048, 472)","(1032, 474)","(1017, 473)","(1112, 477)","(1127, 471)","(1142, 472)","(1156, 479)","(1142, 483)","(1127, 482)","(1026, 587)","(1042, 587)","(1057, 588)","(1069, 593)","(1082, 591)","(1101, 594)","(1123, 597)","(1100, 609)","(1081, 611)","(1067, 611)","(1054, 608)","(1041, 601)","(1033, 589)","(1056, 594)","(1069, 597)","(1082, 597)","(1114, 597)","(1081, 597)","(1068, 597)","(1056, 594)",0.24,0.95,103.0,0.36,0.08,0.4,0.02,-12.0,0.09,0.35,58.3,62.9,95.0,30.65,27.0,72.25,56.0,47.11,59.58
2533,65536,65,-56,-1,-1,0,"(978, 464)","(974, 495)","(974, 526)","(976, 557)","(981, 588)","(993, 619)","(1010, 646)","(1033, 667)","(1065, 676)","(1100, 675)","(1134, 660)","(1164, 640)","(1186, 614)","(1200, 583)","(1208, 550)","(1213, 516)","(1216, 482)","(983, 449)","(997, 434)","(1019, 433)","(1041, 440)","(1061, 452)","(1096, 455)","(1121, 446)","(1147, 444)","(1173, 451)","(1189, 469)","(1076, 471)","(1073, 496)","(1071, 520)","(1067, 545)","(1043, 551)","(1055, 559)","(1068, 565)","(1083, 561)","(1097, 557)","(1007, 466)","(1018, 460)","(1033, 462)","(1047, 472)","(1032, 473)","(1017, 472)","(1113, 477)","(1128, 470)","(1144, 472)","(1157, 480)","(1143, 484)","(1128, 482)","(1025, 587)","(1042, 587)","(1056, 588)","(1067, 594)","(1081, 591)","(1098, 595)","(1120, 597)","(1097, 608)","(1078, 611)","(1065, 610)","(1052, 607)","(1039, 600)","(1032, 589)","(1055, 595)","(1067, 598)","(1080, 598)","(1112, 598)","(1079, 598)","(1066, 597)","(1054, 594)",0.27,0.91,103.0,0.35,0.09,0.39,0.01,-13.5,0.08,0.36,55.6,60.2,92.2,30.9,27.4,71.85,59.7,48.17,57.05
2566,-524288,65,-56,-1,-1,0,"(977, 464)","(974, 494)","(974, 525)","(975, 557)","(981, 588)","(993, 618)","(1011, 644)","(1034, 666)","(1066, 675)","(1102, 674)","(1136, 659)","(1165, 638)","(1187, 612)","(1201, 581)","(1209, 548)","(1214, 513)","(1217, 478)","(979, 449)","(993, 434)","(1015, 432)","(1038, 439)","(1058, 451)","(1094, 454)","(1120, 445)","(1148, 443)","(1174, 450)","(1190, 469)","(1075, 471)","(1072, 495)","(1069, 519)","(1066, 544)","(1042, 551)","(1054, 559)","(1067, 565)","(1082, 561)","(1097, 557)","(1004, 466)","(1015, 460)","(1030, 462)","(1046, 471)","(1029, 473)","(1014, 472)","(1113, 477)","(1129, 470)","(1145, 472)","(1158, 479)","(1144, 484)","(1128, 482)","(1024, 587)","(1041, 588)","(1055, 589)","(1067, 594)","(1080, 592)","(1099, 595)","(1121, 597)","(1098, 608)","(1079, 611)","(1065, 610)","(1053, 607)","(1039, 600)","(1031, 589)","(1054, 596)","(1066, 599)","(1080, 599)","(1112, 598)","(1080, 597)","(1066, 597)","(1054, 593)",0.26,0.94,103.0,0.36,0.08,0.4,0.01,-13.5,0.09,0.35,55.8,62.4,94.7,31.0,27.05,70.9,57.64,46.58,54.17
2600,-393216,65,-56,-1,-1,0,"(975, 464)","(972, 494)","(973, 525)","(974, 556)","(979, 587)","(990, 618)","(1007, 645)","(1030, 668)","(1062, 677)","(1098, 676)","(1133, 661)","(1162, 640)","(1185, 613)","(1199, 581)","(1207, 548)","(1213, 513)","(1216, 479)","(981, 450)","(994, 435)","(1016, 433)","(1039, 440)","(1059, 452)","(1094, 455)","(1119, 446)","(1146, 444)","(1172, 450)","(1188, 469)","(1074, 470)","(1071, 495)","(1068, 520)","(1064, 546)","(1041, 551)","(1052, 559)","(1065, 566)","(1081, 562)","(1095, 557)","(1004, 466)","(1016, 460)","(1031, 462)","(1045, 471)","(1029, 473)","(1015, 472)","(1112, 477)","(1127, 469)","(1142, 471)","(1156, 479)","(1142, 483)","(1126, 481)","(1022, 588)","(1038, 588)","(1053, 589)","(1065, 594)","(1078, 592)","(1097, 595)","(1118, 599)","(1096, 610)","(1077, 612)","(1063, 611)","(1050, 608)","(1036, 602)","(1029, 590)","(1052, 595)","(1064, 598)","(1078, 599)","(1110, 599)","(1077, 599)","(1064, 598)","(1051, 595)",0.27,0.94,103.0,0.35,0.08,0.39,0.01,-13.5,0.08,0.36,52.8,58.3,89.9,33.4,28.65,75.55,62.58,50.7,60.29
2633,-131072,65,-56,-1,-1,0,"(974, 466)","(972, 497)","(973, 528)","(974, 560)","(979, 591)","(992, 621)","(1010, 647)","(1034, 669)","(1066, 677)","(1101, 676)","(1136, 661)","(1165, 640)","(1187, 614)","(1200, 582)","(1207, 548)","(1212, 513)","(1215, 478)","(979, 451)","(992, 435)","(1015, 432)","(1037, 439)","(1058, 451)","(1092, 453)","(1117, 445)","(1144, 442)","(1171, 450)","(1187, 469)","(1074, 470)","(1071, 494)","(1068, 518)","(1065, 543)","(1042, 551)","(1053, 558)","(1066, 564)","(1081, 560)","(1095, 555)","(1004, 467)","(1015, 460)","(1030, 462)","(1045, 471)","(1029, 473)","(1014, 473)","(1111, 476)","(1126, 469)","(1141, 471)","(1155, 479)","(1141, 482)","(1125, 481)","(1023, 589)","(1040, 587)","(1054, 588)","(1066, 593)","(1080, 590)","(1098, 594)","(1120, 597)","(1098, 609)","(1079, 611)","(1065, 611)","(1052, 608)","(1038, 602)","(1031, 590)","(1053, 595)","(1066, 598)","(1080, 598)","(1111, 598)","(1079, 597)","(1066, 597)","(1053, 594)",0.26,0.93,103.0,0.35,0.08,0.4,0.01,-13.0,0.08,0.35,58.6,63.8,95.3,33.35,28.75,76.25,63.35,51.58,58.76
2666,393216,65,-56,-1,-1,0,"(976, 465)","(973, 495)","(974, 526)","(976, 557)","(981, 588)","(992, 619)","(1009, 645)","(1032, 668)","(1064, 676)","(1100, 675)","(1134, 660)","(1164, 639)","(1186, 612)","(1200, 581)","(1208, 547)","(1213, 513)","(1216, 479)","(980, 449)","(993, 434)","(1016, 432)","(1039, 439)","(1059, 452)","(1093, 455)","(1119, 446)","(1146, 443)","(1173, 451)","(1190, 469)","(1075, 471)","(1072, 495)","(1069, 520)","(1065, 544)","(1043, 552)","(1054, 559)","(1066, 565)","(1081, 561)","(1096, 557)","(1004, 466)","(1016, 460)","(1031, 462)","(1046, 472)","(1029, 474)","(1014, 472)","(1112, 477)","(1128, 470)","(1144, 472)","(1157, 480)","(1143, 484)","(1127, 482)","(1023, 588)","(1040, 588)","(1055, 589)","(1067, 594)","(1080, 592)","(1098, 595)","(1120, 598)","(1097, 610)","(1078, 612)","(1064, 612)","(1052, 609)","(1038, 602)","(1030, 590)","(1054, 596)","(1066, 599)","(1079, 599)","(1112, 598)","(1079, 598)","(1066, 598)","(1054, 595)",0.26,0.92,103.0,0.36,0.09,0.4,0.01,-14.0,0.08,0.35,53.7,59.3,91.6,33.8,29.25,78.0,58.7,48.11,58.52
2700,1441792,65,-56,-1,-1,0,"(976, 465)","(973, 495)","(974, 526)","(976, 557)","(980, 588)","(991, 618)","(1008, 645)","(1030, 668)","(1061, 677)","(1097, 676)","(1132, 660)","(1161, 640)","(1184, 613)","(1199, 581)","(1207, 548)","(1213, 513)","(1216, 479)","(978, 450)","(991, 434)","(1014, 432)","(1036, 438)","(1057, 451)","(1093, 454)","(1119, 445)","(1146, 443)","(1172, 450)","(1189, 469)","(1073, 470)","(1070, 495)","(1067, 519)","(1063, 544)","(1041, 552)","(1052, 559)","(1065, 565)","(1079, 561)","(1094, 557)","(1003, 465)","(1015, 459)","(1030, 461)","(1045, 471)","(1028, 473)","(1013, 472)","(1111, 476)","(1125, 468)","(1142, 470)","(1155, 478)","(1141, 483)","(1125, 481)","(1021, 587)","(1038, 588)","(1053, 589)","(1064, 593)","(1078, 591)","(1096, 594)","(1118, 597)","(1095, 609)","(1076, 612)","(1062, 611)","(1049, 608)","(1035, 601)","(1028, 589)","(1052, 595)","(1064, 599)","(1077, 598)","(1110, 597)","(1076, 598)","(1063, 598)","(1051, 595)",0.29,0.92,103.0,0.35,0.08,0.4,0.01,-14.5,0.08,0.35,55.2,60.1,92.1,36.95,33.2,81.05,58.29,47.82,59.58
2733,3014656,63,-56,-1,-1,0,"(974, 464)","(972, 495)","(972, 525)","(974, 556)","(979, 587)","(991, 617)","(1008, 644)","(1030, 667)","(1062, 675)","(1098, 674)","(1132, 659)","(1162, 638)","(1185, 611)","(1199, 580)","(1207, 546)","(1213, 511)","(1216, 476)","(977, 447)","(990, 433)","(1012, 431)","(1034, 438)","(1054, 450)","(1092, 453)","(1117, 445)","(1144, 442)","(1170, 448)","(1187, 466)","(1072, 470)","(1069, 495)","(1066, 519)","(1062, 544)","(1040, 551)","(1051, 559)","(1064, 565)","(1079, 561)","(1093, 556)","(1001, 466)","(1013, 459)","(1029, 460)","(1043, 471)","(1027, 474)","(1011, 473)","(1110, 476)","(1125, 468)","(1141, 469)","(1155, 478)","(1141, 483)","(1125, 482)","(1021, 589)","(1037, 588)","(1052, 589)","(1064, 593)","(1077, 591)","(1096, 595)","(1118, 599)","(1095, 610)","(1075, 612)","(1062, 611)","(1049, 609)","(1035, 602)","(1028, 591)","(1051, 596)","(1063, 599)","(1077, 599)","(1109, 599)","(1076, 598)","(1062, 597)","(1050, 594)",0.31,0.95,103.0,0.36,0.08,0.4,0.01,-15.0,0.08,0.36,57.1,63.3,95.9,36.2,33.15,81.9,61.29,49.82,58.58
2766,2883584,63,-56,-1,-1,0,"(975, 465)","(972, 496)","(973, 527)","(975, 558)","(980, 589)","(991, 619)","(1008, 647)","(1031, 669)","(1062, 678)","(1098, 677)","(1133, 661)","(1162, 641)","(1185, 614)","(1200, 583)","(1208, 549)","(1213, 514)","(1216, 479)","(979, 451)","(992, 435)","(1014, 433)","(1037, 439)","(1058, 451)","(1094, 453)","(1120, 444)","(1147, 442)","(1173, 449)","(1191, 467)","(1074, 468)","(1071, 493)","(1067, 518)","(1064, 543)","(1041, 552)","(1052, 559)","(1065, 565)","(1080, 561)","(1095, 556)","(1002, 465)","(1014, 458)","(1030, 459)","(1046, 470)","(1029, 473)","(1013, 472)","(1112, 474)","(1128, 465)","(1144, 467)","(1158, 475)","(1144, 481)","(1127, 479)","(1021, 590)","(1038, 588)","(1053, 588)","(1065, 593)","(1078, 590)","(1097, 594)","(1119, 598)","(1096, 609)","(1077, 612)","(1063, 611)","(1050, 609)","(1036, 603)","(1028, 591)","(1052, 596)","(1064, 599)","(1078, 598)","(1110, 598)","(1077, 597)","(1064, 597)","(1051, 595)",0.3,0.93,103.0,0.37,0.07,0.4,0.01,-15.5,0.08,0.35,53.0,59.6,90.9,38.2,33.6,82.65,62.7,50.64,61.41
2800,65536,63,-56,-1,-1,0,"(967, 464)","(964, 495)","(963, 527)","(966, 559)","(974, 591)","(988, 622)","(1009, 649)","(1035, 671)","(1067, 679)","(1102, 676)","(1133, 658)","(1158, 635)","(1178, 607)","(1189, 576)","(1195, 543)","(1200, 509)","(1201, 476)","(976, 451)","(990, 436)","(1012, 435)","(1034, 440)","(1054, 451)","(1089, 453)","(1113, 444)","(1138, 441)","(1163, 446)","(1178, 463)","(1072, 469)","(1070, 494)","(1067, 518)","(1065, 543)","(1043, 552)","(1054, 559)","(1067, 565)","(1081, 561)","(1094, 556)","(1002, 465)","(1013, 458)","(1028, 459)","(1042, 469)","(1027, 471)","(1012, 471)","(1107, 472)","(1122, 464)","(1138, 465)","(1150, 473)","(1138, 478)","(1122, 477)","(1025, 589)","(1041, 589)","(1055, 590)","(1067, 594)","(1079, 592)","(1097, 594)","(1119, 596)","(1098, 609)","(1080, 612)","(1067, 612)","(1055, 609)","(1041, 603)","(1032, 590)","(1055, 597)","(1067, 600)","(1080, 599)","(1111, 597)","(1080, 598)","(1068, 598)","(1056, 595)",0.3,0.95,103.0,0.35,0.05,0.4,0.01,-13.5,0.09,0.35,55.1,59.7,93.0,33.9,29.85,75.6,65.41,55.29,62.11
2833,-655360,63,-56,-1,-1,0,"(976, 464)","(973, 495)","(973, 525)","(975, 556)","(980, 587)","(992, 617)","(1008, 644)","(1030, 668)","(1061, 677)","(1097, 675)","(1130, 660)","(1160, 640)","(1183, 613)","(1198, 582)","(1207, 549)","(1213, 514)","(1216, 479)","(980, 447)","(993, 432)","(1015, 430)","(1037, 437)","(1057, 448)","(1094, 452)","(1120, 444)","(1146, 442)","(1172, 449)","(1189, 467)","(1074, 470)","(1071, 494)","(1068, 518)","(1064, 542)","(1041, 550)","(1052, 558)","(1065, 564)","(1080, 560)","(1094, 556)","(1003, 464)","(1015, 457)","(1030, 459)","(1045, 471)","(1028, 473)","(1013, 472)","(1112, 476)","(1127, 467)","(1143, 468)","(1157, 477)","(1143, 482)","(1127, 481)","(1021, 588)","(1038, 588)","(1053, 588)","(1064, 593)","(1077, 591)","(1096, 595)","(1117, 598)","(1095, 610)","(1075, 614)","(1062, 613)","(1049, 610)","(1036, 603)","(1029, 590)","(1052, 596)","(1064, 599)","(1077, 599)","(1109, 599)","(1076, 599)","(1063, 599)","(1051, 596)",0.31,0.93,103.0,0.36,0.08,0.4,0.01,-15.5,0.08,0.34,57.3,62.0,93.9,33.85,30.35,78.05,58.94,49.29,59.41
2866,-655360,63,-56,-1,-1,0,"(976, 463)","(974, 494)","(975, 525)","(977, 556)","(982, 587)","(993, 618)","(1010, 645)","(1033, 669)","(1065, 677)","(1101, 676)","(1135, 660)","(1164, 639)","(1187, 611)","(1201, 580)","(1209, 545)","(1214, 510)","(1217, 475)","(977, 449)","(990, 433)","(1013, 432)","(1035, 438)","(1056, 450)","(1092, 451)","(1118, 443)","(1146, 440)","(1173, 446)","(1190, 464)","(1073, 467)","(1070, 492)","(1067, 517)","(1063, 542)","(1041, 551)","(1052, 558)","(1065, 564)","(1081, 559)","(1095, 555)","(1001, 464)","(1013, 457)","(1029, 459)","(1044, 470)","(1028, 472)","(1011, 472)","(1112, 474)","(1127, 464)","(1144, 465)","(1158, 474)","(1145, 480)","(1127, 479)","(1023, 588)","(1039, 588)","(1053, 588)","(1065, 593)","(1079, 591)","(1098, 594)","(1121, 597)","(1098, 609)","(1078, 613)","(1064, 612)","(1051, 610)","(1037, 603)","(1031, 590)","(1053, 596)","(1065, 599)","(1079, 599)","(1112, 598)","(1079, 597)","(1065, 598)","(1053, 595)",0.32,0.97,103.0,0.37,0.07,0.4,0.01,-15.5,0.09,0.35,61.4,66.6,101.1,32.5,28.65,73.7,56.88,48.11,60.82
2900,-720896,63,-56,-1,-1,0,"(973, 463)","(971, 494)","(972, 525)","(974, 557)","(979, 588)","(992, 619)","(1010, 646)","(1033, 669)","(1065, 677)","(1101, 675)","(1135, 659)","(1164, 638)","(1186, 610)","(1200, 579)","(1207, 545)","(1213, 511)","(1215, 476)","(977, 448)","(990, 432)","(1013, 430)","(1035, 436)","(1056, 448)","(1094, 451)","(1120, 443)","(1147, 440)","(1173, 447)","(1190, 465)","(1074, 468)","(1071, 492)","(1068, 517)","(1065, 542)","(1042, 551)","(1053, 558)","(1066, 564)","(1081, 560)","(1095, 556)","(1001, 464)","(1013, 457)","(1029, 459)","(1044, 469)","(1027, 472)","(1012, 471)","(1111, 474)","(1127, 465)","(1144, 467)","(1158, 475)","(1144, 481)","(1127, 479)","(1022, 587)","(1039, 587)","(1054, 588)","(1066, 593)","(1079, 591)","(1098, 594)","(1120, 596)","(1097, 608)","(1078, 611)","(1064, 610)","(1051, 608)","(1037, 601)","(1029, 589)","(1053, 595)","(1066, 599)","(1079, 598)","(1112, 596)","(1078, 597)","(1065, 597)","(1053, 594)",0.29,0.93,103.0,0.37,0.07,0.4,0.01,-15.5,0.08,0.35,60.1,65.7,99.0,32.05,29.1,70.9,65.29,54.17,61.88
2933,-786432,63,-56,-1,-1,0,"(975, 463)","(972, 493)","(973, 524)","(975, 556)","(981, 586)","(994, 617)","(1012, 644)","(1034, 667)","(1065, 676)","(1100, 674)","(1133, 658)","(1161, 637)","(1184, 610)","(1199, 580)","(1208, 546)","(1213, 512)","(1216, 477)","(980, 448)","(994, 433)","(1016, 431)","(1038, 438)","(1058, 449)","(1096, 451)","(1121, 443)","(1147, 441)","(1173, 447)","(1190, 464)","(1075, 468)","(1072, 493)","(1069, 518)","(1066, 543)","(1043, 551)","(1054, 558)","(1067, 564)","(1082, 560)","(1096, 555)","(1004, 464)","(1016, 456)","(1032, 458)","(1047, 470)","(1030, 472)","(1014, 471)","(1113, 474)","(1128, 464)","(1145, 466)","(1159, 474)","(1146, 480)","(1129, 479)","(1023, 586)","(1040, 586)","(1055, 587)","(1067, 592)","(1080, 589)","(1099, 592)","(1121, 595)","(1099, 608)","(1079, 613)","(1065, 612)","(1052, 609)","(1038, 602)","(1030, 589)","(1054, 594)","(1066, 597)","(1080, 597)","(1113, 596)","(1080, 597)","(1066, 598)","(1054, 594)",0.31,0.94,103.0,0.37,0.07,0.4,0.02,-16.0,0.08,0.36,61.5,66.5,100.8,31.3,30.0,69.6,61.94,50.52,61.11
2966,-786432,63,-56,-1,-1,0,"(977, 460)","(975, 491)","(975, 522)","(976, 553)","(981, 584)","(993, 615)","(1010, 642)","(1033, 665)","(1065, 673)","(1101, 672)","(1135, 656)","(1163, 634)","(1186, 608)","(1200, 576)","(1208, 543)","(1213, 508)","(1216, 474)","(979, 446)","(992, 432)","(1014, 431)","(1036, 438)","(1056, 449)","(1093, 451)","(1119, 443)","(1145, 440)","(1171, 447)","(1188, 464)","(1074, 468)","(1070, 492)","(1067, 517)","(1064, 542)","(1041, 549)","(1052, 557)","(1065, 563)","(1080, 559)","(1094, 554)","(1003, 463)","(1015, 457)","(1030, 459)","(1045, 469)","(1029, 471)","(1013, 470)","(1111, 473)","(1126, 465)","(1142, 466)","(1156, 474)","(1142, 479)","(1126, 478)","(1023, 585)","(1039, 585)","(1053, 586)","(1065, 591)","(1079, 589)","(1098, 592)","(1121, 594)","(1097, 605)","(1078, 609)","(1063, 609)","(1050, 606)","(1037, 599)","(1030, 587)","(1052, 593)","(1065, 596)","(1078, 596)","(1112, 594)","(1078, 595)","(1064, 595)","(1052, 592)",0.28,0.96,103.0,0.36,0.08,0.41,0.01,-14.0,0.08,0.36,59.4,65.3,98.1,34.6,31.7,71.05,59.23,49.82,60.0
3000,-917504,63,-56,-1,-1,0,"(976, 460)","(974, 490)","(975, 522)","(977, 553)","(982, 585)","(994, 616)","(1011, 644)","(1033, 667)","(1065, 676)","(1101, 674)","(1135, 658)","(1164, 636)","(1187, 609)","(1202, 577)","(1210, 542)","(1215, 507)","(1218, 472)","(980, 447)","(993, 432)","(1015, 431)","(1037, 438)","(1057, 450)","(1093, 452)","(1119, 442)","(1145, 440)","(1172, 446)","(1189, 463)","(1074, 467)","(1071, 492)","(1067, 516)","(1064, 542)","(1041, 549)","(1052, 556)","(1066, 562)","(1081, 558)","(1095, 554)","(1003, 463)","(1015, 456)","(1030, 458)","(1046, 468)","(1029, 471)","(1013, 470)","(1111, 473)","(1126, 464)","(1143, 465)","(1157, 473)","(1143, 479)","(1127, 478)","(1023, 584)","(1039, 584)","(1054, 585)","(1066, 590)","(1080, 588)","(1099, 590)","(1122, 593)","(1098, 605)","(1079, 610)","(1064, 610)","(1051, 607)","(1037, 599)","(1030, 587)","(1053, 593)","(1065, 596)","(1079, 595)","(1113, 594)","(1079, 595)","(1065, 595)","(1052, 592)",0.3,0.95,103.0,0.36,0.07,0.4,0.01,-15.0,0.08,0.35,62.3,67.6,102.1,32.55,30.5,71.45,57.11,47.88,59.82
3033,-983040,63,-56,-1,-1,0,"(976, 460)","(973, 491)","(974, 522)","(976, 553)","(981, 585)","(993, 616)","(1010, 643)","(1032, 667)","(1064, 676)","(1101, 674)","(1135, 659)","(1164, 637)","(1187, 610)","(1201, 578)","(1209, 543)","(1215, 507)","(1218, 472)","(978, 447)","(991, 432)","(1013, 430)","(1036, 437)","(1056, 448)","(1095, 450)","(1121, 443)","(1148, 441)","(1174, 448)","(1191, 465)","(1074, 468)","(1071, 492)","(1067, 516)","(1064, 541)","(1040, 547)","(1052, 555)","(1065, 562)","(1081, 557)","(1096, 553)","(1003, 462)","(1015, 456)","(1030, 457)","(1045, 468)","(1029, 470)","(1013, 469)","(1113, 473)","(1128, 464)","(1145, 466)","(1159, 474)","(1145, 479)","(1128, 478)","(1024, 584)","(1039, 583)","(1054, 584)","(1065, 590)","(1079, 588)","(1098, 591)","(1120, 594)","(1097, 606)","(1077, 609)","(1063, 608)","(1051, 605)","(1037, 598)","(1031, 586)","(1053, 591)","(1065, 595)","(1079, 595)","(1111, 594)","(1078, 595)","(1064, 595)","(1052, 591)",0.29,0.98,103.0,0.36,0.08,0.39,0.01,-14.5,0.09,0.35,57.4,64.5,98.1,32.05,29.0,70.5,56.0,46.58,58.29
3066,-983040,63,-56,-1,-1,0,"(975, 461)","(973, 492)","(974, 524)","(976, 555)","(981, 587)","(994, 618)","(1011, 645)","(1033, 668)","(1064, 677)","(1100, 676)","(1134, 661)","(1164, 640)","(1187, 613)","(1202, 581)","(1211, 547)","(1216, 512)","(1219, 476)","(980, 448)","(993, 432)","(1015, 430)","(1037, 437)","(1057, 449)","(1097, 452)","(1123, 444)","(1149, 442)","(1175, 449)","(1192, 467)","(1075, 469)","(1072, 494)","(1068, 518)","(1065, 543)","(1041, 550)","(1053, 558)","(1066, 564)","(1082, 559)","(1097, 555)","(1004, 464)","(1016, 457)","(1032, 459)","(1047, 470)","(1030, 472)","(1014, 471)","(1114, 475)","(1129, 466)","(1146, 468)","(1160, 476)","(1146, 481)","(1129, 480)","(1023, 585)","(1039, 585)","(1054, 586)","(1066, 591)","(1080, 589)","(1099, 591)","(1122, 595)","(1099, 607)","(1079, 611)","(1065, 610)","(1052, 608)","(1038, 601)","(1030, 588)","(1053, 593)","(1066, 597)","(1079, 596)","(1113, 595)","(1079, 596)","(1066, 597)","(1053, 593)",0.29,0.96,103.0,0.36,0.08,0.4,0.01,-15.0,0.09,0.35,53.3,58.1,90.5,32.4,29.1,75.15,55.58,46.76,57.17
3100,-983040,63,-56,-1,-1,0,"(976, 463)","(973, 493)","(974, 524)","(975, 555)","(980, 586)","(992, 616)","(1009, 643)","(1033, 666)","(1065, 675)","(1101, 674)","(1135, 658)","(1165, 637)","(1187, 611)","(1200, 579)","(1208, 545)","(1214, 511)","(1217, 477)","(982, 448)","(994, 433)","(1016, 432)","(1038, 439)","(1059, 451)","(1093, 453)","(1118, 444)","(1145, 441)","(1171, 448)","(1188, 466)","(1075, 468)","(1072, 493)","(1069, 517)","(1066, 542)","(1042, 549)","(1054, 557)","(1067, 563)","(1082, 559)","(1096, 554)","(1005, 464)","(1016, 457)","(1031, 458)","(1046, 469)","(1030, 471)","(1015, 470)","(1112, 474)","(1127, 465)","(1143, 467)","(1156, 476)","(1143, 481)","(1127, 479)","(1023, 583)","(1040, 583)","(1054, 585)","(1066, 590)","(1080, 588)","(1099, 591)","(1121, 593)","(1097, 604)","(1078, 607)","(1064, 607)","(1051, 603)","(1037, 596)","(1030, 585)","(1054, 591)","(1066, 595)","(1079, 595)","(1113, 594)","(1078, 594)","(1065, 594)","(1053, 590)",0.31,0.93,103.0,0.35,0.08,0.4,0.01,-15.0,0.08,0.35,52.7,57.5,90.9,31.95,27.8,73.15,58.52,48.17,58.41
3133,-983040,63,-56,-1,-1,0,"(976, 462)","(973, 493)","(973, 524)","(976, 555)","(981, 587)","(993, 617)","(1011, 644)","(1033, 668)","(1065, 677)","(1101, 676)","(1135, 661)","(1164, 639)","(1187, 612)","(1201, 580)","(1209, 546)","(1215, 511)","(1218, 476)","(981, 447)","(994, 432)","(1016, 431)","(1038, 437)","(1058, 450)","(1095, 452)","(1120, 443)","(1147, 441)","(1173, 448)","(1190, 465)","(1075, 468)","(1071, 492)","(1068, 517)","(1064, 542)","(1042, 549)","(1053, 556)","(1066, 562)","(1082, 558)","(1096, 553)","(1005, 463)","(1016, 456)","(1032, 458)","(1047, 469)","(1030, 471)","(1015, 470)","(1112, 473)","(1128, 465)","(1144, 466)","(1158, 475)","(1144, 480)","(1128, 479)","(1025, 584)","(1040, 583)","(1055, 584)","(1067, 589)","(1080, 587)","(1100, 590)","(1122, 594)","(1099, 606)","(1079, 609)","(1065, 609)","(1052, 606)","(1039, 598)","(1032, 586)","(1054, 591)","(1066, 594)","(1080, 594)","(1114, 594)","(1080, 595)","(1066, 595)","(1054, 591)",0.3,0.99,103.0,0.36,0.08,0.4,0.02,-15.0,0.08,0.35,57.8,62.3,97.7,32.95,29.0,75.1,58.52,48.64,59.64
3166,-851968,63,-56,-1,-1,0,"(975, 464)","(973, 495)","(973, 526)","(975, 557)","(980, 587)","(992, 617)","(1010, 644)","(1032, 667)","(1064, 675)","(1100, 674)","(1134, 659)","(1163, 639)","(1186, 612)","(1200, 581)","(1208, 547)","(1213, 511)","(1216, 477)","(979, 450)","(992, 433)","(1014, 431)","(1037, 438)","(1057, 450)","(1094, 452)","(1119, 443)","(1146, 441)","(1172, 448)","(1189, 466)","(1074, 468)","(1071, 492)","(1068, 517)","(1065, 542)","(1042, 549)","(1053, 557)","(1066, 563)","(1081, 558)","(1096, 554)","(1003, 464)","(1015, 457)","(1031, 459)","(1046, 469)","(1029, 471)","(1014, 471)","(1112, 473)","(1127, 465)","(1143, 466)","(1157, 474)","(1143, 479)","(1127, 478)","(1022, 584)","(1039, 584)","(1054, 585)","(1066, 589)","(1080, 587)","(1099, 590)","(1123, 593)","(1099, 605)","(1079, 608)","(1065, 608)","(1052, 605)","(1037, 598)","(1030, 586)","(1053, 592)","(1066, 595)","(1080, 595)","(1114, 594)","(1079, 594)","(1066, 595)","(1053, 591)",0.28,0.95,103.0,0.36,0.07,0.41,0.01,-14.0,0.09,0.35,54.2,59.8,91.9,34.75,30.15,77.7,61.94,51.05,60.64
3200,-262144,63,-56,-1,-1,0,"(976, 464)","(974, 494)","(974, 524)","(976, 555)","(981, 586)","(992, 616)","(1008, 642)","(1031, 665)","(1063, 673)","(1099, 672)","(1133, 657)","(1162, 637)","(1184, 611)","(1198, 580)","(1206, 546)","(1212, 512)","(1215, 477)","(981, 449)","(994, 434)","(1016, 432)","(1038, 438)","(1058, 450)","(1094, 452)","(1119, 443)","(1145, 441)","(1171, 448)","(1187, 466)","(1075, 468)","(1072, 492)","(1069, 516)","(1065, 541)","(1042, 548)","(1053, 556)","(1066, 562)","(1082, 558)","(1096, 554)","(1005, 464)","(1017, 457)","(1032, 458)","(1047, 469)","(1030, 471)","(1015, 470)","(1112, 474)","(1127, 465)","(1143, 467)","(1156, 475)","(1143, 480)","(1127, 479)","(1023, 583)","(1040, 583)","(1054, 584)","(1066, 589)","(1080, 587)","(1099, 590)","(1121, 593)","(1097, 604)","(1078, 607)","(1064, 606)","(1051, 603)","(1037, 597)","(1030, 585)","(1054, 591)","(1066, 594)","(1079, 594)","(1112, 593)","(1078, 593)","(1064, 593)","(1052, 590)",0.3,0.94,103.0,0.36,0.08,0.41,0.01,-14.5,0.08,0.35,53.4,58.9,91.5,32.95,29.9,74.55,58.17,48.05,58.47
3233,-983040,63,-56,-1,-1,0,"(976, 463)","(973, 494)","(973, 524)","(975, 555)","(980, 586)","(991, 616)","(1008, 643)","(1031, 666)","(1063, 674)","(1099, 673)","(1133, 658)","(1163, 638)","(1186, 612)","(1200, 580)","(1207, 546)","(1213, 511)","(1216, 476)","(979, 448)","(992, 433)","(1014, 431)","(1036, 437)","(1056, 449)","(1093, 451)","(1119, 442)","(1146, 440)","(1172, 447)","(1188, 465)","(1073, 466)","(1070, 491)","(1067, 515)","(1063, 541)","(1040, 547)","(1052, 555)","(1065, 561)","(1080, 557)","(1094, 553)","(1003, 462)","(1014, 455)","(1029, 457)","(1045, 468)","(1028, 469)","(1013, 469)","(1111, 472)","(1126, 463)","(1143, 464)","(1156, 473)","(1143, 478)","(1126, 477)","(1023, 583)","(1039, 582)","(1053, 584)","(1064, 589)","(1078, 587)","(1097, 590)","(1119, 593)","(1096, 603)","(1077, 606)","(1063, 605)","(1050, 602)","(1036, 596)","(1029, 585)","(1052, 590)","(1064, 594)","(1078, 594)","(1111, 594)","(1077, 593)","(1063, 593)","(1051, 589)",0.31,0.96,103.0,0.36,0.07,0.4,0.01,-14.5,0.08,0.36,54.3,60.5,92.9,36.85,32.05,75.85,61.82,51.05,59.76
3266,-1179648,63,-56,-1,-1,0,"(976, 464)","(974, 495)","(974, 526)","(976, 557)","(982, 589)","(994, 619)","(1012, 646)","(1034, 668)","(1066, 677)","(1102, 675)","(1136, 660)","(1165, 638)","(1188, 611)","(1202, 579)","(1210, 545)","(1215, 510)","(1217, 475)","(979, 450)","(991, 434)","(1013, 431)","(1036, 437)","(1056, 449)","(1094, 451)","(1120, 442)","(1147, 440)","(1173, 447)","(1190, 465)","(1074, 467)","(1071, 491)","(1068, 515)","(1065, 540)","(1042, 548)","(1053, 555)","(1067, 561)","(1082, 557)","(1097, 552)","(1004, 463)","(1015, 456)","(1031, 457)","(1046, 468)","(1029, 470)","(1014, 470)","(1113, 473)","(1128, 463)","(1145, 465)","(1159, 473)","(1145, 479)","(1128, 477)","(1024, 584)","(1040, 583)","(1055, 584)","(1067, 589)","(1081, 587)","(1100, 590)","(1123, 593)","(1100, 605)","(1080, 608)","(1066, 608)","(1053, 605)","(1039, 598)","(1031, 586)","(1054, 591)","(1067, 595)","(1081, 594)","(1114, 594)","(1080, 594)","(1066, 594)","(1054, 591)",0.3,0.96,103.0,0.36,0.06,0.41,0.01,-15.0,0.09,0.34,51.2,57.0,88.6,34.4,30.85,76.2,59.7,50.52,62.05
3300,-1114112,63,-56,-1,-1,0,"(977, 460)","(974, 490)","(973, 522)","(974, 553)","(978, 585)","(990, 615)","(1007, 642)","(1029, 664)","(1061, 674)","(1097, 673)","(1132, 659)","(1161, 638)","(1184, 612)","(1199, 580)","(1208, 546)","(1214, 511)","(1218, 476)","(980, 445)","(993, 430)","(1015, 429)","(1037, 436)","(1057, 448)","(1097, 450)","(1123, 442)","(1150, 440)","(1176, 447)","(1192, 465)","(1076, 467)","(1072, 492)","(1068, 516)","(1064, 541)","(1041, 548)","(1052, 555)","(1065, 561)","(1080, 558)","(1095, 554)","(1004, 461)","(1016, 454)","(1031, 456)","(1046, 467)","(1030, 469)","(1014, 468)","(1114, 473)","(1129, 464)","(1145, 466)","(1159, 474)","(1146, 480)","(1129, 478)","(1022, 582)","(1038, 582)","(1052, 583)","(1064, 588)","(1078, 587)","(1097, 590)","(1120, 594)","(1096, 605)","(1077, 607)","(1062, 606)","(1049, 603)","(1036, 596)","(1029, 584)","(1052, 590)","(1064, 594)","(1078, 594)","(1111, 594)","(1077, 594)","(1063, 594)","(1051, 590)",0.31,0.97,103.0,0.36,0.09,0.4,0.01,-15.5,0.07,0.35,54.8,59.7,93.2,36.7,32.8,79.0,62.0,51.35,62.05
3333,-196608,63,-56,-1,-1,0,"(973, 464)","(970, 494)","(971, 525)","(973, 556)","(978, 587)","(990, 617)","(1008, 643)","(1031, 666)","(1063, 674)","(1100, 673)","(1134, 658)","(1162, 637)","(1185, 610)","(1199, 579)","(1207, 545)","(1212, 510)","(1214, 475)","(978, 447)","(990, 432)","(1012, 430)","(1034, 436)","(1055, 447)","(1095, 449)","(1120, 441)","(1146, 438)","(1171, 445)","(1188, 463)","(1074, 466)","(1071, 491)","(1068, 516)","(1065, 541)","(1041, 548)","(1053, 555)","(1066, 562)","(1082, 557)","(1096, 553)","(1002, 463)","(1014, 456)","(1029, 457)","(1044, 468)","(1028, 470)","(1012, 469)","(1112, 472)","(1127, 463)","(1143, 465)","(1157, 473)","(1143, 478)","(1127, 477)","(1021, 583)","(1038, 582)","(1053, 583)","(1066, 588)","(1080, 586)","(1099, 589)","(1122, 593)","(1098, 604)","(1079, 607)","(1064, 607)","(1050, 604)","(1036, 597)","(1029, 585)","(1053, 591)","(1066, 594)","(1080, 594)","(1113, 593)","(1079, 593)","(1065, 593)","(1052, 590)",0.29,0.94,103.0,0.36,0.07,0.41,0.01,-14.5,0.09,0.36,58.4,62.6,96.3,34.3,31.75,73.65,65.05,53.7,63.58
3366,1835008,63,-56,-1,-1,0,"(976, 465)","(974, 495)","(975, 525)","(977, 555)","(982, 586)","(994, 616)","(1011, 643)","(1034, 665)","(1065, 673)","(1100, 672)","(1134, 656)","(1162, 635)","(1184, 609)","(1199, 578)","(1207, 545)","(1212, 510)","(1215, 476)","(980, 447)","(993, 431)","(1015, 430)","(1037, 436)","(1057, 448)","(1094, 450)","(1119, 441)","(1145, 438)","(1171, 445)","(1188, 462)","(1074, 466)","(1071, 490)","(1068, 515)","(1065, 540)","(1041, 547)","(1053, 555)","(1066, 561)","(1081, 557)","(1096, 552)","(1004, 463)","(1015, 456)","(1031, 457)","(1046, 468)","(1029, 470)","(1014, 469)","(1111, 472)","(1126, 463)","(1143, 464)","(1157, 473)","(1143, 478)","(1127, 477)","(1022, 583)","(1039, 583)","(1054, 583)","(1066, 588)","(1079, 586)","(1099, 589)","(1122, 592)","(1098, 605)","(1078, 608)","(1064, 608)","(1051, 605)","(1037, 598)","(1030, 585)","(1053, 591)","(1066, 594)","(1079, 594)","(1113, 593)","(1078, 594)","(1065, 594)","(1052, 591)",0.3,0.96,103.0,0.36,0.06,0.41,0.01,-14.5,0.09,0.35,62.3,67.5,101.2,34.0,30.75,74.65,54.23,46.05,60.94
3400,-393216,63,-56,-1,-1,0,"(975, 462)","(972, 493)","(972, 524)","(973, 555)","(978, 587)","(990, 617)","(1007, 644)","(1030, 667)","(1062, 677)","(1098, 676)","(1133, 661)","(1163, 639)","(1186, 612)","(1200, 581)","(1209, 546)","(1214, 512)","(1217, 477)","(981, 447)","(994, 432)","(1016, 430)","(1038, 437)","(1058, 450)","(1094, 452)","(1119, 442)","(1146, 439)","(1172, 446)","(1189, 464)","(1075, 467)","(1071, 492)","(1068, 516)","(1064, 541)","(1041, 548)","(1052, 556)","(1065, 562)","(1081, 558)","(1095, 554)","(1005, 462)","(1016, 456)","(1032, 457)","(1047, 468)","(1030, 470)","(1015, 469)","(1112, 473)","(1128, 464)","(1144, 466)","(1158, 474)","(1144, 479)","(1128, 478)","(1021, 584)","(1037, 583)","(1052, 584)","(1064, 589)","(1078, 588)","(1098, 591)","(1120, 595)","(1096, 607)","(1076, 610)","(1062, 609)","(1048, 606)","(1035, 599)","(1028, 586)","(1051, 592)","(1064, 595)","(1078, 596)","(1112, 596)","(1077, 596)","(1063, 596)","(1050, 592)",0.29,0.97,103.0,0.36,0.08,0.4,0.01,-14.5,0.08,0.35,54.7,60.2,92.2,36.85,33.4,79.85,65.64,55.23,63.76
3433,-393216,63,-56,-1,-1,0,"(974, 462)","(971, 492)","(971, 524)","(973, 555)","(979, 587)","(991, 617)","(1009, 644)","(1031, 667)","(1063, 676)","(1099, 674)","(1133, 659)","(1162, 638)","(1185, 611)","(1199, 580)","(1208, 545)","(1214, 509)","(1217, 474)","(978, 446)","(991, 431)","(1013, 429)","(1036, 436)","(1055, 448)","(1093, 450)","(1119, 442)","(1146, 439)","(1172, 446)","(1189, 464)","(1074, 466)","(1071, 491)","(1067, 515)","(1064, 541)","(1040, 548)","(1051, 555)","(1065, 562)","(1081, 557)","(1095, 553)","(1002, 461)","(1014, 455)","(1030, 457)","(1045, 467)","(1028, 469)","(1013, 468)","(1111, 472)","(1126, 463)","(1143, 465)","(1157, 473)","(1143, 478)","(1126, 477)","(1021, 582)","(1037, 582)","(1052, 584)","(1065, 589)","(1079, 587)","(1098, 590)","(1121, 593)","(1097, 605)","(1077, 608)","(1063, 608)","(1049, 605)","(1035, 597)","(1028, 585)","(1052, 592)","(1064, 595)","(1078, 595)","(1113, 593)","(1078, 594)","(1063, 594)","(1051, 591)",0.29,0.95,103.0,0.36,0.08,0.41,0.01,-14.5,0.08,0.35,56.9,62.6,94.7,38.4,34.8,76.4,62.64,51.88,62.41
3466,-65536,63,-56,-1,-1,0,"(961, 463)","(957, 495)","(955, 528)","(957, 560)","(964, 593)","(980, 624)","(1001, 651)","(1028, 672)","(1062, 680)","(1099, 677)","(1131, 660)","(1158, 638)","(1178, 610)","(1190, 578)","(1197, 545)","(1201, 511)","(1202, 477)","(975, 450)","(989, 434)","(1012, 431)","(1035, 437)","(1057, 449)","(1090, 451)","(1115, 442)","(1141, 438)","(1166, 443)","(1182, 461)","(1072, 466)","(1070, 490)","(1067, 514)","(1065, 539)","(1039, 549)","(1052, 556)","(1066, 562)","(1081, 558)","(1096, 553)","(1000, 464)","(1012, 456)","(1027, 457)","(1042, 468)","(1026, 470)","(1011, 470)","(1107, 471)","(1123, 462)","(1139, 462)","(1151, 471)","(1139, 476)","(1123, 475)","(1021, 585)","(1038, 585)","(1054, 586)","(1066, 591)","(1079, 588)","(1099, 590)","(1122, 593)","(1099, 606)","(1079, 610)","(1065, 610)","(1052, 607)","(1037, 599)","(1028, 587)","(1053, 593)","(1066, 596)","(1080, 596)","(1114, 594)","(1079, 596)","(1066, 597)","(1053, 593)",0.3,0.95,103.0,0.35,0.04,0.41,0.01,-14.0,0.09,0.34,56.6,62.8,94.4,34.2,30.95,73.05,65.47,55.11,62.88
3500,262144,63,-56,-1,-1,0,"(974, 461)","(971, 492)","(971, 523)","(973, 554)","(978, 585)","(990, 617)","(1007, 645)","(1030, 669)","(1062, 678)","(1098, 677)","(1132, 661)","(1161, 639)","(1185, 611)","(1200, 579)","(1208, 544)","(1213, 509)","(1216, 474)","(980, 447)","(993, 432)","(1015, 431)","(1037, 437)","(1058, 450)","(1093, 451)","(1118, 442)","(1145, 440)","(1170, 446)","(1187, 462)","(1074, 467)","(1070, 492)","(1067, 517)","(1063, 542)","(1040, 549)","(1051, 557)","(1065, 563)","(1080, 559)","(1095, 554)","(1004, 462)","(1015, 456)","(1031, 458)","(1046, 468)","(1029, 469)","(1014, 469)","(1111, 472)","(1126, 464)","(1142, 465)","(1156, 473)","(1143, 478)","(1126, 477)","(1020, 583)","(1036, 583)","(1051, 584)","(1064, 589)","(1078, 587)","(1098, 590)","(1121, 593)","(1097, 607)","(1076, 611)","(1061, 610)","(1048, 607)","(1034, 599)","(1027, 585)","(1050, 592)","(1063, 595)","(1078, 595)","(1112, 594)","(1077, 596)","(1062, 597)","(1049, 593)",0.28,0.97,103.0,0.36,0.07,0.41,0.01,-13.5,0.08,0.35,57.6,63.5,95.3,39.15,37.4,78.85,65.0,54.76,65.23
3533,1048576,63,-56,-1,-1,0,"(963, 460)","(958, 492)","(956, 525)","(959, 558)","(966, 591)","(981, 622)","(1002, 649)","(1027, 671)","(1060, 680)","(1096, 678)","(1128, 662)","(1156, 640)","(1176, 613)","(1190, 582)","(1197, 548)","(1202, 513)","(1204, 480)","(976, 446)","(991, 432)","(1013, 430)","(1036, 436)","(1057, 448)","(1091, 451)","(1115, 442)","(1141, 439)","(1166, 444)","(1182, 461)","(1073, 465)","(1071, 490)","(1068, 514)","(1065, 540)","(1040, 547)","(1052, 555)","(1066, 561)","(1081, 558)","(1096, 553)","(1001, 461)","(1013, 455)","(1028, 456)","(1043, 466)","(1027, 468)","(1012, 468)","(1109, 471)","(1125, 463)","(1140, 464)","(1153, 472)","(1140, 477)","(1124, 476)","(1021, 583)","(1038, 583)","(1054, 584)","(1066, 589)","(1079, 587)","(1099, 590)","(1121, 594)","(1098, 607)","(1079, 611)","(1065, 610)","(1052, 607)","(1037, 599)","(1028, 585)","(1054, 591)","(1066, 595)","(1079, 595)","(1113, 594)","(1079, 597)","(1065, 597)","(1053, 593)",0.29,0.94,103.0,0.35,0.06,0.41,0.01,-13.5,0.09,0.34,62.1,67.8,99.9,35.9,33.0,75.45,67.11,57.58,65.35
3566,2555904,62,-56,-1,-1,0,"(963, 460)","(958, 492)","(956, 524)","(958, 557)","(966, 590)","(981, 622)","(1001, 649)","(1027, 671)","(1061, 679)","(1096, 676)","(1128, 660)","(1154, 637)","(1175, 610)","(1187, 578)","(1195, 545)","(1199, 511)","(1200, 478)","(977, 449)","(991, 434)","(1013, 432)","(1036, 438)","(1057, 450)","(1089, 453)","(1113, 444)","(1138, 440)","(1163, 444)","(1178, 461)","(1072, 466)","(1070, 491)","(1067, 515)","(1064, 541)","(1039, 548)","(1051, 556)","(1065, 562)","(1080, 558)","(1094, 553)","(1000, 463)","(1012, 456)","(1027, 457)","(1042, 467)","(1026, 469)","(1011, 469)","(1106, 471)","(1122, 463)","(1138, 464)","(1151, 472)","(1138, 477)","(1122, 476)","(1019, 584)","(1036, 583)","(1052, 584)","(1064, 589)","(1078, 587)","(1098, 590)","(1120, 593)","(1097, 608)","(1078, 611)","(1063, 611)","(1049, 608)","(1034, 601)","(1026, 586)","(1051, 593)","(1064, 596)","(1078, 595)","(1112, 595)","(1078, 597)","(1064, 597)","(1051, 594)",0.28,0.95,103.0,0.36,0.05,0.42,0.01,-13.5,0.09,0.35,52.4,57.6,89.8,37.4,35.45,76.95,65.05,54.35,62.64
3600,3997696,62,-56,-1,-1,0,"(963, 461)","(958, 493)","(956, 525)","(958, 558)","(964, 591)","(979, 622)","(1000, 649)","(1026, 671)","(1059, 679)","(1095, 677)","(1127, 661)","(1154, 639)","(1175, 613)","(1188, 582)","(1195, 548)","(1201, 515)","(1202, 482)","(978, 447)","(992, 433)","(1015, 431)","(1037, 438)","(1058, 450)","(1092, 453)","(1116, 444)","(1141, 441)","(1166, 447)","(1181, 463)","(1074, 468)","(1071, 492)","(1068, 517)","(1065, 541)","(1040, 550)","(1052, 557)","(1065, 563)","(1080, 560)","(1094, 555)","(1001, 464)","(1013, 456)","(1029, 458)","(1043, 469)","(1027, 471)","(1012, 470)","(1109, 474)","(1124, 465)","(1140, 466)","(1153, 475)","(1140, 480)","(1124, 479)","(1019, 584)","(1036, 584)","(1052, 585)","(1065, 591)","(1078, 589)","(1097, 591)","(1119, 595)","(1097, 609)","(1077, 612)","(1063, 612)","(1050, 609)","(1035, 601)","(1026, 586)","(1052, 594)","(1064, 597)","(1078, 597)","(1111, 596)","(1077, 598)","(1064, 598)","(1051, 595)",0.31,0.93,103.0,0.35,0.07,0.41,0.01,-15.0,0.08,0.34,49.9,55.5,87.5,34.25,32.0,75.25,64.94,55.64,62.41
3633,1572864,62,-56,-1,-1,0,"(962, 458)","(957, 489)","(955, 521)","(957, 554)","(965, 587)","(979, 619)","(999, 647)","(1024, 670)","(1058, 678)","(1094, 676)","(1126, 660)","(1154, 638)","(1175, 610)","(1189, 579)","(1196, 545)","(1201, 510)","(1203, 476)","(975, 447)","(990, 433)","(1013, 431)","(1035, 438)","(1057, 449)","(1090, 452)","(1114, 443)","(1139, 439)","(1164, 444)","(1179, 460)","(1073, 467)","(1070, 490)","(1066, 515)","(1063, 539)","(1039, 547)","(1051, 555)","(1064, 561)","(1079, 557)","(1094, 553)","(1000, 462)","(1012, 455)","(1028, 456)","(1042, 466)","(1027, 469)","(1011, 468)","(1107, 471)","(1122, 462)","(1138, 463)","(1151, 471)","(1139, 476)","(1123, 475)","(1020, 582)","(1036, 582)","(1052, 584)","(1064, 589)","(1077, 587)","(1097, 590)","(1120, 593)","(1097, 607)","(1077, 611)","(1063, 610)","(1050, 607)","(1035, 599)","(1027, 584)","(1052, 592)","(1064, 595)","(1078, 595)","(1112, 594)","(1077, 597)","(1064, 597)","(1051, 593)",0.29,0.97,103.0,0.35,0.05,0.41,0.01,-14.0,0.08,0.34,59.3,65.8,98.9,40.8,38.0,77.45,62.05,52.64,59.94
