milliseconds, ECG, ECG HR, PPG, PPG HR, SpO2, PI
0,-655360,87,-56,-1,-1,0
33,-327680,87,-56,-1,-1,0
66,-458752,87,-56,-1,-1,0
100,-589824,87,-56,-1,-1,0
133,5308416,87,-56,-1,-1,0
166,-1638400,87,-56,-1,-1,0
200,0,87,-56,-1,-1,0
233,458752,87,-56,-1,-1,0
266,1572864,87,-56,-1,-1,0
300,2424832,87,-56,-1,-1,0
333,851968,87,-56,-1,-1,0
366,-131072,87,-56,-1,-1,0
400,-524288,87,-56,-1,-1,0
433,-196608,87,-56,-1,-1,0
466,0,87,-56,-1,-1,0
500,-131072,87,-56,-1,-1,0
533,-131072,87,-56,-1,-1,0
566,-131072,87,-56,-1,-1,0
600,-524288,87,-56,-1,-1,0
633,-851968,87,-56,-1,-1,0
666,-2031616,87,-56,-1,-1,0
700,2424832,87,-56,-1,-1,0
733,-1179648,87,-56,-1,-1,0
766,-786432,87,-56,-1,-1,0
800,-262144,87,-56,-1,-1,0
833,786432,87,-56,-1,-1,0
866,655360,87,-56,-1,-1,0
900,-524288,87,-56,-1,-1,0
933,-720896,87,-56,-1,-1,0
966,-720896,87,-56,-1,-1,0
1000,-458752,87,-56,-1,-1,0
1033,-393216,87,-56,-1,-1,0
1066,-393216,87,-56,-1,-1,0
1100,-327680,87,-56,-1,-1,0
1133,-262144,87,-56,-1,-1,0
1166,-65536,87,-56,-1,-1,0
1200,-196608,87,-56,-1,-1,0
1233,-786432,87,-56,-1,-1,0
1266,1245184,87,-56,-1,-1,0
1300,-262144,87,-56,-1,-1,0
1333,65536,87,-56,-1,-1,0
1366,655360,87,-56,-1,-1,0
1400,1638400,87,-56,-1,-1,0
1433,1310720,87,-56,-1,-1,0
1466,0,87,-56,-1,-1,0
1500,-393216,87,-56,-1,-1,0
1533,-524288,87,-56,-1,-1,0
1566,-655360,87,-56,-1,-1,0
1600,-786432,87,-56,-1,-1,0
1633,-983040,87,-56,-1,-1,0
1666,-1376256,87,-56,-1,-1,0
1700,-1310720,88,-56,-1,-1,0
1733,-1900544,88,-56,-1,-1,0
1766,-2686976,88,-56,-1,-1,0
1800,3211264,88,-56,-1,-1,0
1833,-3211264,88,-56,-1,-1,0
1866,-2686976,88,-56,-1,-1,0
1900,-2490368,88,-56,-1,-1,0
1933,-1638400,88,-56,-1,-1,0
1966,-1441792,88,-56,-1,-1,0
2000,-2424832,88,-56,-1,-1,0
2033,-2555904,88,-56,-1,-1,0
2066,-2031616,88,-56,-1,-1,0
2100,-1507328,88,-56,-1,-1,0
2133,-1114112,88,-56,-1,-1,0
2166,-786432,88,-56,-1,-1,0
2200,-524288,88,-56,-1,-1,0
2233,0,88,-56,-1,-1,0
2266,65536,88,-56,-1,-1,0
2300,-196608,88,-56,-1,-1,0
2333,4390912,88,-56,-1,-1,0
2366,917504,88,-56,-1,-1,0
2400,1638400,88,-56,-1,-1,0
2433,2097152,88,-56,-1,-1,0
2466,3014656,88,-56,-1,-1,0
2500,2621440,88,-56,-1,-1,0
2533,1441792,88,-56,-1,-1,0
2566,1376256,88,-56,-1,-1,0
2600,1703936,88,-56,-1,-1,0
2633,1769472,88,-56,-1,-1,0
2666,1507328,89,-56,-1,-1,0
2700,1245184,89,-56,-1,-1,0
2733,786432,89,-56,-1,-1,0
2766,458752,89,-56,-1,-1,0
2800,851968,89,-56,-1,-1,0
2833,-983040,89,-56,-1,-1,0
2866,-262144,89,-56,-1,-1,0
2900,-65536,89,-56,-1,-1,0
2933,786432,89,-56,-1,-1,0
2966,1572864,89,-56,-1,-1,0
3000,720896,89,-56,-1,-1,0
3033,-262144,89,-56,-1,-1,0
3066,-458752,89,-56,-1,-1,0
3100,-458752,89,-56,-1,-1,0
3133,-458752,89,-56,-1,-1,0
3166,-720896,89,-56,-1,-1,0
3200,-589824,89,-56,-1,-1,0
3233,-589824,89,-56,-1,-1,0
3266,-1507328,89,-56,-1,-1,0
3300,2031616,89,-56,-1,-1,0
3333,-983040,89,-56,-1,-1,0
3366,-131072,89,-56,-1,-1,0
3400,458752,89,-56,-1,-1,0
3433,1638400,89,-56,-1,-1,0
3466,1441792,89,-56,-1,-1,0
3500,196608,89,-56,-1,-1,0
3533,0,89,-56,-1,-1,0
3566,131072,89,-56,-1,-1,0
3600,131072,89,-56,-1,-1,0
3633,-131072,90,-56,-1,-1,0
3666,-65536,90,-56,-1,-1,0
3699,-262144,90,-56,-1,-1,0
3733,-589824,90,-56,-1,-1,0
3766,6094848,90,-56,-1,-1,0
3800,-1048576,90,-56,-1,-1,0
3833,131072,90,-56,-1,-1,0
3866,524288,90,-56,-1,-1,0
3900,1441792,90,-56,-1,-1,0
3933,1441792,90,-56,-1,-1,0
3966,262144,90,-56,-1,-1,0
4000,-327680,90,-56,-1,-1,0
4033,-196608,90,-56,-1,-1,0
4066,-262144,90,-56,-1,-1,0
4100,-393216,90,-56,-1,-1,0
4133,-327680,90,-56,-1,-1,0
4166,-589824,90,-56,-1,-1,0
4200,-655360,90,-56,-1,-1,0
4233,2818048,90,-56,-1,-1,0
4266,-2162688,90,-56,-1,-1,0
4300,-720896,90,-56,-1,-1,0
4333,-393216,90,-56,-1,-1,0
4366,393216,90,-56,-1,-1,0
4400,983040,90,-56,-1,-1,0
4433,131072,90,-56,-1,-1,0
4466,-458752,90,-56,-1,-1,0
4500,-393216,90,-56,-1,-1,0
4533,-327680,90,-56,-1,-1,0
4566,-327680,90,-56,-1,-1,0
4600,-327680,90,-56,-1,-1,0
4633,-393216,90,-56,-1,-1,0
4666,-196608,90,-56,-1,-1,0
4700,-458752,92,-56,-1,-1,0
4733,-1179648,92,-56,-1,-1,0
4766,3801088,92,-56,-1,-1,0
4800,-851968,92,-56,-1,-1,0
4833,-262144,92,-56,-1,-1,0
4866,131072,92,-56,-1,-1,0
4900,1048576,92,-56,-1,-1,0
4933,851968,92,-56,-1,-1,0
4966,0,92,-56,-1,-1,0
5000,-327680,92,-56,-1,-1,0
5033,-196608,92,-56,-1,-1,0
5066,-196608,92,-56,-1,-1,0
5100,-327680,92,-56,-1,-1,0
5133,-458752,92,-56,-1,-1,0
5166,-524288,92,-56,-1,-1,0
5200,-589824,92,-56,-1,-1,0
5233,-458752,92,-56,-1,-1,0
5266,-589824,92,-56,-1,-1,0
5300,-1441792,92,-56,-1,-1,0
5333,1572864,92,-56,-1,-1,0
5366,-917504,92,-56,-1,-1,0
5400,-327680,92,-56,-1,-1,0
5433,131072,92,-56,-1,-1,0
5466,1114112,92,-56,-1,-1,0
5500,720896,92,-56,-1,-1,0
5533,-131072,92,-56,-1,-1,0
5566,-524288,92,-56,-1,-1,0
5600,-327680,92,-56,-1,-1,0
5633,-262144,92,-56,-1,-1,0
5666,-196608,92,-56,-1,-1,0
5700,-327680,92,-56,-1,-1,0
5733,-393216,92,-56,-1,-1,0
5766,-327680,92,-56,-1,-1,0
5800,-262144,92,-56,-1,-1,0
5833,-393216,91,-56,-1,-1,0
5866,-917504,91,-56,-1,-1,0
5900,-196608,91,-56,-1,-1,0
5933,-458752,91,-56,-1,-1,0
5966,0,91,-56,-1,-1,0
6000,524288,91,-56,-1,-1,0
6033,1441792,91,-56,-1,-1,0
6066,917504,91,-56,-1,-1,0
6100,0,91,-56,-1,-1,0
6133,-196608,91,-56,-1,-1,0
6166,-131072,91,-56,-1,-1,0
6200,-65536,91,-56,-1,-1,0
6233,-131072,91,-56,-1,-1,0
6266,-196608,91,-56,-1,-1,0
6300,-262144,91,-56,-1,-1,0
6333,-393216,91,-56,-1,-1,0
6366,-196608,91,-56,-1,-1,0
6400,-393216,91,-56,-1,-1,0
6433,-1245184,91,-56,-1,-1,0
6466,3604480,91,-56,-1,-1,0
6500,-983040,91,-56,-1,-1,0
6533,-327680,91,-56,-1,-1,0
6566,65536,91,-56,-1,-1,0
6600,983040,91,-56,-1,-1,0
6633,917504,91,-56,-1,-1,0
6666,-65536,91,-56,-1,-1,0
6700,-458752,91,-56,-1,-1,0
6733,-393216,91,-56,-1,-1,0
6766,-327680,91,-56,-1,-1,0
6800,-393216,91,-56,-1,-1,0
6833,-524288,91,-56,-1,-1,0
6866,-589824,91,-56,-1,-1,0
6899,-655360,91,-56,-1,-1,0
6933,-589824,91,-56,-1,-1,0
6966,-589824,91,-56,-1,-1,0
7000,-589824,91,-56,-1,-1,0
7033,196608,91,-56,-1,-1,0
7066,-1835008,91,-56,-1,-1,0
7100,-589824,91,-56,-1,-1,0
7133,-196608,91,-56,-1,-1,0
7166,393216,91,-56,-1,-1,0
7200,1310720,91,-56,-1,-1,0
7233,655360,91,-56,-1,-1,0
7266,-262144,91,-56,-1,-1,0
7300,-458752,91,-56,-1,-1,0
7333,-262144,91,-56,-1,-1,0
7366,-65536,91,-56,-1,-1,0
7399,-196608,91,-56,-1,-1,0
7433,-327680,91,-56,-1,-1,0
7466,-393216,91,-56,-1,-1,0
7500,-196608,91,-56,-1,-1,0
7533,-327680,92,-56,-1,-1,0
7566,-1048576,92,-56,-1,-1,0
7600,4653056,92,-56,-1,-1,0
7633,-1114112,92,-56,-1,-1,0
7666,-131072,92,-56,-1,-1,0
7700,196608,92,-56,-1,-1,0
7733,1310720,92,-56,-1,-1,0
7766,1507328,92,-56,-1,-1,0
7800,196608,92,-56,-1,-1,0
7833,-262144,92,-56,-1,-1,0
7866,-327680,92,-56,-1,-1,0
7899,-196608,92,-56,-1,-1,0
7933,-65536,92,-56,-1,-1,0
7966,0,92,-56,-1,-1,0
8000,-65536,92,-56,-1,-1,0
8033,131072,92,-56,-1,-1,0
8066,-65536,92,-56,-1,-1,0
8100,-327680,92,-56,-1,-1,0
8133,6160384,92,-56,-1,-1,0
8166,-1114112,92,-56,-1,-1,0
8200,0,92,-56,-1,-1,0
8233,-65536,92,-56,-1,-1,0
8266,0,92,-56,-1,-1,0
8300,589824,92,-56,-1,-1,0
8333,0,92,-56,-1,-1,0
8366,-458752,92,-56,-1,-1,0
8400,-458752,92,-56,-1,-1,0
8433,-131072,92,-56,-1,-1,0
8466,-327680,92,-56,-1,-1,0
8500,-131072,92,-56,-1,-1,0
8533,-65536,92,-56,-1,-1,0
8566,0,92,-56,-1,-1,0
8600,-196608,92,-56,-1,-1,0
8633,-1114112,92,-56,-1,-1,0
8666,4194304,92,-56,-1,-1,0
8700,-655360,92,-56,-1,-1,0
8733,131072,92,-56,-1,-1,0
8766,458752,92,-56,-1,-1,0
8800,1441792,92,-56,-1,-1,0
8833,1310720,92,-56,-1,-1,0
8866,0,92,-56,-1,-1,0
8900,-720896,92,-56,-1,-1,0
8933,-720896,92,-56,-1,-1,0
8966,-458752,92,-56,-1,-1,0
9000,-196608,92,-56,-1,-1,0
9033,-458752,92,-56,-1,-1,0
9066,-458752,93,-56,-1,-1,0
9100,-327680,93,-56,-1,-1,0
9133,-1376256,93,-56,-1,-1,0
9166,4390912,93,-56,-1,-1,0
9200,-1310720,93,-56,-1,-1,0
9233,-589824,93,-56,-1,-1,0
9266,0,93,-56,-1,-1,0
9300,1048576,93,-56,-1,-1,0
9333,1179648,93,-56,-1,-1,0
9366,-196608,93,-56,-1,-1,0
9400,-720896,93,-56,-1,-1,0
9433,-589824,93,-56,-1,-1,0
9466,-458752,93,-56,-1,-1,0
9500,-196608,93,-56,-1,-1,0
9533,-458752,93,-56,-1,-1,0
9566,-131072,94,-56,-1,-1,0
9600,-458752,94,-56,-1,-1,0
9633,-1114112,94,-56,-1,-1,0
9666,6291456,94,-56,-1,-1,0
9700,-1376256,94,-56,-1,-1,0
9733,-458752,94,-56,-1,-1,0
9766,-65536,94,-56,-1,-1,0
9800,917504,94,-56,-1,-1,0
9833,1245184,94,-56,-1,-1,0
9866,-65536,94,-56,-1,-1,0
9900,-458752,94,-56,-1,-1,0
9933,-524288,94,-56,-1,-1,0
9966,-262144,94,-56,-1,-1,0
10000,-196608,94,-56,-1,-1,0
10033,-393216,94,-56,-1,-1,0
10066,-262144,94,-56,-1,-1,0
10100,-327680,94,-56,-1,-1,0
10133,-393216,95,-56,-1,-1,0
10166,1769472,95,-56,-1,-1,0
10200,-1179648,95,-56,-1,-1,0
10233,-327680,95,-56,-1,-1,0
10266,-131072,95,-56,-1,-1,0
10300,720896,95,-56,-1,-1,0
10333,2293760,95,-56,-1,-1,0
10366,983040,95,-56,-1,-1,0
10400,-131072,95,-56,-1,-1,0
10433,0,95,-56,-1,-1,0
10466,0,95,-56,-1,-1,0
10500,-131072,95,-56,-1,-1,0
10533,327680,95,-56,-1,-1,0
10566,-65536,95,-56,-1,-1,0
10600,65536,95,-56,-1,-1,0
10633,-131072,95,-56,-1,-1,0
10666,-458752,95,-56,-1,-1,0
10700,-917504,93,-56,-1,-1,0
10733,5963776,93,-56,-1,-1,0
10766,-1441792,93,-56,-1,-1,0
10800,-458752,93,-56,-1,-1,0
10833,-851968,93,-56,-1,-1,0
10866,327680,93,-56,-1,-1,0
10900,196608,93,-56,-1,-1,0
10933,-131072,93,-56,-1,-1,0
10966,-1310720,93,-56,-1,-1,0
11000,-1048576,93,-56,-1,-1,0
11033,-786432,93,-56,-1,-1,0
11066,-1048576,93,-56,-1,-1,0
11100,-655360,93,-56,-1,-1,0
11133,-786432,93,-56,-1,-1,0
11166,-786432,93,-56,-1,-1,0
11200,-851968,93,-56,-1,-1,0
11233,-524288,93,-56,-1,-1,0
11266,-655360,92,-56,-1,-1,0
11300,-1179648,92,-56,-1,-1,0
11333,458752,92,-56,-1,-1,0
11366,-393216,92,-56,-1,-1,0
11400,0,92,-56,-1,-1,0
11433,589824,92,-56,-1,-1,0
11466,1966080,92,-56,-1,-1,0
11500,1310720,92,-56,-1,-1,0
11533,0,92,-56,-1,-1,0
11566,-327680,92,-56,-1,-1,0
11600,-196608,92,-56,-1,-1,0
11633,0,92,-56,-1,-1,0
11666,65536,92,-56,-1,-1,0
11700,-65536,92,-56,-1,-1,0
11733,-327680,92,-56,-1,-1,0
11766,-65536,92,-56,-1,-1,0
11800,-327680,91,-56,-1,-1,0
11833,-262144,91,-56,-1,-1,0
11866,3014656,91,-56,-1,-1,0
11900,-1441792,91,-56,-1,-1,0
11933,-65536,91,-56,-1,-1,0
11966,262144,91,-56,-1,-1,0
12000,1114112,91,-56,-1,-1,0
12033,1966080,91,-56,-1,-1,0
12066,983040,91,-56,-1,-1,0
12100,0,91,-56,-1,-1,0
12133,-458752,91,-56,-1,-1,0
12166,-393216,91,-56,-1,-1,0
12200,-327680,91,-56,-1,-1,0
12233,-262144,91,-56,-1,-1,0
12266,-196608,91,-56,-1,-1,0
12300,-589824,91,-56,-1,-1,0
12333,-655360,91,-56,-1,-1,0
12366,-851968,90,-56,-1,-1,0
12400,-327680,90,-56,-1,-1,0
12433,-1638400,90,-56,-1,-1,0
12466,-1376256,90,-56,-1,-1,0
12500,-1114112,90,-56,-1,-1,0
12533,-589824,90,-56,-1,-1,0
12566,655360,90,-56,-1,-1,0
12600,262144,90,-56,-1,-1,0
12633,-1048576,90,-56,-1,-1,0
12666,-1179648,90,-56,-1,-1,0
12700,-983040,90,-56,-1,-1,0
12733,-524288,90,-56,-1,-1,0
12766,-524288,90,-56,-1,-1,0
12800,-524288,90,-56,-1,-1,0
12833,-524288,90,-56,-1,-1,0
12866,-131072,90,-56,-1,-1,0
12900,-65536,90,-56,-1,-1,0
12933,-1048576,90,-56,-1,-1,0
12966,5898240,90,-56,-1,-1,0
13000,-1507328,90,-56,-1,-1,0
13033,65536,90,-56,-1,-1,0
13066,655360,90,-56,-1,-1,0
13100,1310720,90,-56,-1,-1,0
13133,1638400,90,-56,-1,-1,0
13166,786432,90,-56,-1,-1,0
13200,-131072,90,-56,-1,-1,0
13233,-458752,90,-56,-1,-1,0
13266,-262144,90,-56,-1,-1,0
13299,-196608,90,-56,-1,-1,0
13333,262144,91,-56,-1,-1,0
13366,524288,91,-56,-1,-1,0
13400,131072,91,-56,-1,-1,0
13433,589824,91,-56,-1,-1,0
13466,8192000,91,-56,-1,-1,0
13500,-720896,91,-56,-1,-1,0
13533,524288,91,-56,-1,-1,0
13566,720896,91,-56,-1,-1,0
13600,1441792,91,-56,-1,-1,0
13633,1769472,91,-56,-1,-1,0
13666,393216,91,-56,-1,-1,0
13700,-720896,91,-56,-1,-1,0
13733,-786432,91,-56,-1,-1,0
13766,-589824,91,-56,-1,-1,0
13799,-458752,91,-56,-1,-1,0
13833,-720896,92,-56,-1,-1,0
13866,-786432,92,-56,-1,-1,0
13900,-1310720,92,-56,-1,-1,0
13933,-2293760,92,-56,-1,-1,0
13966,4128768,92,-56,-1,-1,0
14000,-2162688,92,-56,-1,-1,0
14033,-1507328,92,-56,-1,-1,0
14066,-786432,92,-56,-1,-1,0
14100,327680,92,-56,-1,-1,0
14133,524288,92,-56,-1,-1,0
14166,-786432,92,-56,-1,-1,0
14200,-1507328,92,-56,-1,-1,0
14233,-1114112,92,-56,-1,-1,0
14266,-524288,92,-56,-1,-1,0
14299,-262144,92,-56,-1,-1,0
14333,-458752,93,-56,-1,-1,0
14366,-131072,93,-56,-1,-1,0
14400,-65536,93,-56,-1,-1,0
14433,-262144,93,-56,-1,-1,0
14466,327680,93,-56,-1,-1,0
14500,-196608,93,-56,-1,-1,0
14533,196608,93,-56,-1,-1,0
14566,655360,93,-56,-1,-1,0
14600,2031616,93,-56,-1,-1,0
14633,1441792,93,-56,-1,-1,0
14666,0,93,-56,-1,-1,0
14700,-65536,93,-56,-1,-1,0
14733,-65536,93,-56,-1,-1,0
14766,65536,93,-56,-1,-1,0
14799,196608,93,-56,-1,-1,0
14833,-655360,94,-56,-1,-1,0
14866,-393216,94,-56,-1,-1,0
14900,0,94,-56,-1,-1,0
14933,-458752,94,-56,-1,-1,0
14966,393216,94,-56,-1,-1,0
15000,-131072,94,-56,-1,-1,0
15033,0,94,-56,-1,-1,0
15066,458752,94,-56,-1,-1,0
15100,1835008,94,-56,-1,-1,0
15133,851968,94,-56,-1,-1,0
15166,-524288,94,-56,-1,-1,0
15200,-983040,94,-56,-1,-1,0
15233,-983040,94,-56,-1,-1,0
15266,-917504,94,-56,-1,-1,0
15299,-1048576,94,-56,-1,-1,0
15333,-1114112,94,-56,-1,-1,0
15366,-1179648,96,-56,-1,-1,0
15400,-1245184,96,-56,-1,-1,0
15433,-2031616,96,-56,-1,-1,0
15466,-327680,96,-56,-1,-1,0
15500,-1507328,96,-56,-1,-1,0
15533,-655360,96,-56,-1,-1,0
15566,-131072,96,-56,-1,-1,0
15600,1245184,96,-56,-1,-1,0
15633,851968,96,-56,-1,-1,0
15666,-262144,96,-56,-1,-1,0
15700,-589824,96,-56,-1,-1,0
15733,-589824,96,-56,-1,-1,0
15766,-458752,96,-56,-1,-1,0
15799,-393216,96,-56,-1,-1,0
15833,-262144,96,-56,-1,-1,0
15866,0,96,-56,-1,-1,0
15900,-196608,96,-56,-1,-1,0
15933,-851968,96,-56,-1,-1,0
15966,5832704,96,-56,-1,-1,0
16000,-1114112,96,-56,-1,-1,0
16033,-65536,96,-56,-1,-1,0
16066,196608,96,-56,-1,-1,0
16100,1310720,96,-56,-1,-1,0
16133,1507328,96,-56,-1,-1,0
16166,262144,96,-56,-1,-1,0
16200,-262144,96,-56,-1,-1,0
16233,-196608,96,-56,-1,-1,0
16266,-65536,96,-56,-1,-1,0
16300,-65536,96,-56,-1,-1,0
16333,-131072,98,-56,-1,-1,0
16366,-65536,98,-56,-1,-1,0
16400,0,98,-56,-1,-1,0
16433,-1245184,98,-56,-1,-1,0
16466,3276800,98,-56,-1,-1,0
16500,-720896,98,-56,-1,-1,0
16533,-65536,98,-56,-1,-1,0
16566,131072,98,-56,-1,-1,0
16600,1376256,98,-56,-1,-1,0
16633,1441792,98,-56,-1,-1,0
16666,-327680,98,-56,-1,-1,0
16700,-655360,98,-56,-1,-1,0
16733,-524288,98,-56,-1,-1,0
16766,-262144,98,-56,-1,-1,0
16800,-393216,98,-56,-1,-1,0
16833,-458752,99,-56,-1,-1,0
16866,-393216,99,-56,-1,-1,0
16900,-655360,99,-56,-1,-1,0
16933,-1114112,99,-56,-1,-1,0
16966,0,99,-56,-1,-1,0
17000,-786432,99,-56,-1,-1,0
17033,-458752,99,-56,-1,-1,0
17066,-131072,99,-56,-1,-1,0
17100,851968,99,-56,-1,-1,0
17133,393216,99,-56,-1,-1,0
17166,-983040,99,-56,-1,-1,0
17200,-1245184,99,-56,-1,-1,0
17233,-1114112,99,-56,-1,-1,0
17266,-851968,99,-56,-1,-1,0
17300,-983040,99,-56,-1,-1,0
17333,-786432,99,-56,-1,-1,0
17366,-1048576,99,-56,-1,-1,0
17400,-983040,99,-56,-1,-1,0
17433,1572864,99,-56,-1,-1,0
17466,-2293760,99,-56,-1,-1,0
17500,-589824,99,-56,-1,-1,0
17533,-327680,99,-56,-1,-1,0
17566,262144,99,-56,-1,-1,0
17600,1441792,99,-56,-1,-1,0
17633,589824,99,-56,-1,-1,0
17666,-196608,99,-56,-1,-1,0
17700,-786432,99,-56,-1,-1,0
17733,-262144,99,-56,-1,-1,0
17766,65536,99,-56,-1,-1,0
17800,-131072,99,-56,-1,-1,0
17833,131072,99,-56,-1,-1,0
17866,196608,99,-56,-1,-1,0
17900,-983040,99,-56,-1,-1,0
17933,5701632,99,-56,-1,-1,0
17966,-589824,99,-56,-1,-1,0
18000,327680,99,-56,-1,-1,0
18033,983040,99,-56,-1,-1,0
18066,2162688,99,-56,-1,-1,0
18100,1769472,99,-56,-1,-1,0
18133,0,99,-56,-1,-1,0
18166,-589824,99,-56,-1,-1,0
18200,-327680,99,-56,-1,-1,0
18233,196608,100,-56,-1,-1,0
18266,327680,100,-56,-1,-1,0
18300,196608,100,-56,-1,-1,0
18333,0,100,-56,-1,-1,0
18366,-589824,100,-56,-1,-1,0
18400,6094848,100,-56,-1,-1,0
18433,-2031616,100,-56,-1,-1,0
18466,-851968,100,-56,-1,-1,0
18500,-196608,100,-56,-1,-1,0
18533,458752,100,-56,-1,-1,0
18566,1114112,100,-56,-1,-1,0
18600,-65536,100,-56,-1,-1,0
18633,-720896,100,-56,-1,-1,0
18666,-589824,100,-56,-1,-1,0
18700,0,100,-56,-1,-1,0
18733,196608,100,-56,-1,-1,0
18766,-524288,100,-56,-1,-1,0
18800,-458752,100,-56,-1,-1,0
18833,-1703936,100,-56,-1,-1,0
18866,5373952,100,-56,-1,-1,0
18900,-1966080,100,-56,-1,-1,0
18933,-851968,100,-56,-1,-1,0
18966,-131072,100,-56,-1,-1,0
19000,786432,100,-56,-1,-1,0
19033,851968,100,-56,-1,-1,0
19066,-458752,100,-56,-1,-1,0
19100,-1245184,100,-56,-1,-1,0
19133,-1245184,100,-56,-1,-1,0
19166,-917504,101,-56,-1,-1,0
19200,-720896,101,-56,-1,-1,0
19233,-917504,101,-56,-1,-1,0
19266,-1048576,101,-56,-1,-1,0
19300,-131072,101,-56,-1,-1,0
19333,-1835008,101,-56,-1,-1,0
19366,-720896,101,-56,-1,-1,0
19400,-327680,101,-56,-1,-1,0
19433,524288,101,-56,-1,-1,0
19466,1441792,101,-56,-1,-1,0
19500,851968,101,-56,-1,-1,0
19533,-196608,101,-56,-1,-1,0
19566,-393216,101,-56,-1,-1,0
19600,-262144,101,-56,-1,-1,0
19633,-131072,101,-56,-1,-1,0
19666,0,101,-56,-1,-1,0
19700,-262144,101,-56,-1,-1,0
19733,-655360,101,-56,-1,-1,0
19766,6946816,101,-56,-1,-1,0
19800,-1638400,101,-56,-1,-1,0
19833,-393216,101,-56,-1,-1,0
19866,0,101,-56,-1,-1,0
19900,917504,101,-56,-1,-1,0
19933,1441792,101,-56,-1,-1,0
19966,458752,101,-56,-1,-1,0
20000,-65536,101,-56,-1,-1,0
20033,-196608,101,-56,-1,-1,0
20066,-524288,101,-56,-1,-1,0
20100,-458752,102,-56,-1,-1,0
20133,-262144,102,-56,-1,-1,0
20166,-262144,102,-56,-1,-1,0
20200,-131072,102,-56,-1,-1,0
20233,6160384,102,-56,-1,-1,0
20266,-1507328,102,-56,-1,-1,0
20300,-262144,102,-56,-1,-1,0
20333,-393216,102,-56,-1,-1,0
20366,65536,102,-56,-1,-1,0
20400,393216,102,-56,-1,-1,0
20433,-196608,102,-56,-1,-1,0
20466,-1179648,102,-56,-1,-1,0
20500,-1114112,102,-56,-1,-1,0
20533,-655360,102,-56,-1,-1,0
20566,-655360,102,-56,-1,-1,0
20600,-327680,102,-56,-1,-1,0
20633,-524288,102,-56,-1,-1,0
20666,-786432,102,-56,-1,-1,0
20700,4390912,102,-56,-1,-1,0
20733,-2490368,102,-56,-1,-1,0
20766,-851968,102,-56,-1,-1,0
20800,-655360,102,-56,-1,-1,0
20833,0,102,-56,-1,-1,0
20866,851968,102,-56,-1,-1,0
20900,-65536,102,-56,-1,-1,0
20933,-1310720,102,-56,-1,-1,0
20966,-1572864,102,-56,-1,-1,0
21000,-1376256,102,-56,-1,-1,0
21033,-1179648,102,-56,-1,-1,0
21066,-917504,102,-56,-1,-1,0
21100,-786432,102,-56,-1,-1,0
21133,-983040,102,-56,-1,-1,0
21166,-1376256,102,-56,-1,-1,0
21200,-65536,102,-56,-1,-1,0
21233,-524288,102,-56,-1,-1,0
21266,0,102,-56,-1,-1,0
21300,589824,102,-56,-1,-1,0
21333,1703936,102,-56,-1,-1,0
21366,1507328,102,-56,-1,-1,0
21400,196608,102,-56,-1,-1,0
21433,131072,102,-56,-1,-1,0
21466,65536,102,-56,-1,-1,0
21500,65536,102,-56,-1,-1,0
21533,65536,102,-56,-1,-1,0
21566,262144,102,-56,-1,-1,0
21600,393216,102,-56,-1,-1,0
21633,327680,102,-56,-1,-1,0
21666,327680,102,-56,-1,-1,0
21700,65536,102,-56,-1,-1,0
21733,0,102,-56,-1,-1,0
21766,327680,102,-56,-1,-1,0
21800,786432,102,-56,-1,-1,0
21833,1835008,102,-56,-1,-1,0
21866,1572864,102,-56,-1,-1,0
21900,524288,102,-56,-1,-1,0
21933,393216,102,-56,-1,-1,0
21966,393216,102,-56,-1,-1,0
22000,131072,102,-56,-1,-1,0
22033,-131072,102,-56,-1,-1,0
22066,-327680,102,-56,-1,-1,0
22100,-131072,102,-56,-1,-1,0
22133,-131072,102,-56,-1,-1,0
22166,-589824,102,-56,-1,-1,0
22200,-1179648,102,-56,-1,-1,0
22233,-1048576,102,-56,-1,-1,0
22266,-327680,102,-56,-1,-1,0
22300,524288,102,-56,-1,-1,0
22333,1638400,102,-56,-1,-1,0
22366,983040,102,-56,-1,-1,0
22400,-262144,102,-56,-1,-1,0
22433,-589824,102,-56,-1,-1,0
22466,-524288,102,-56,-1,-1,0
22500,-524288,102,-56,-1,-1,0
22533,-589824,102,-56,-1,-1,0
22566,-589824,102,-56,-1,-1,0
22600,-851968,102,-56,-1,-1,0
22633,-851968,102,-56,-1,-1,0
22666,786432,102,-56,-1,-1,0
22700,-1441792,102,-56,-1,-1,0
22733,-589824,102,-56,-1,-1,0
22766,-131072,102,-56,-1,-1,0
22800,655360,102,-56,-1,-1,0
22833,1835008,102,-56,-1,-1,0
22866,1048576,102,-56,-1,-1,0
22900,0,102,-56,-1,-1,0
22933,-524288,102,-56,-1,-1,0
22966,0,102,-56,-1,-1,0
23000,-65536,102,-56,-1,-1,0
23033,-65536,102,-56,-1,-1,0
23066,-131072,102,-56,-1,-1,0
23100,-262144,102,-56,-1,-1,0
23133,0,102,-56,-1,-1,0
23166,983040,102,-56,-1,-1,0
23200,-1048576,102,-56,-1,-1,0
23233,-655360,102,-56,-1,-1,0
23266,-327680,102,-56,-1,-1,0
23300,-196608,102,-56,-1,-1,0
23333,393216,102,-56,-1,-1,0
23366,131072,102,-56,-1,-1,0
23400,-458752,102,-56,-1,-1,0
23433,-720896,102,-56,-1,-1,0
23466,-917504,102,-56,-1,-1,0
23500,-720896,103,-56,-1,-1,0
23533,-524288,103,-56,-1,-1,0
23566,-262144,103,-56,-1,-1,0
23600,-589824,103,-56,-1,-1,0
23633,-1048576,103,-56,-1,-1,0
23666,-196608,103,-56,-1,-1,0
23700,-786432,103,-56,-1,-1,0
23733,-327680,103,-56,-1,-1,0
23766,0,103,-56,-1,-1,0
23800,851968,103,-56,-1,-1,0
23833,720896,103,-56,-1,-1,0
23866,131072,103,-56,-1,-1,0
23900,-65536,103,-56,-1,-1,0
23933,0,104,-56,-1,-1,0
23966,524288,104,-56,-1,-1,0
24000,917504,104,-56,-1,-1,0
24033,0,104,-56,-1,-1,0
24066,393216,104,-56,-1,-1,0
24100,3604480,104,-56,-1,-1,0
24133,-458752,104,-56,-1,-1,0
24166,524288,104,-56,-1,-1,0
24200,-655360,104,-56,-1,-1,0
24233,-196608,104,-56,-1,-1,0
24266,-131072,104,-56,-1,-1,0
24300,-655360,104,-56,-1,-1,0
24333,-2031616,104,-56,-1,-1,0
24366,-1310720,104,-56,-1,-1,0
24400,-1048576,104,-56,-1,-1,0
24433,-1441792,104,-56,-1,-1,0
24466,-1769472,104,-56,-1,-1,0
24500,-1835008,104,-56,-1,-1,0
24533,-131072,104,-56,-1,-1,0
24566,-2490368,104,-56,-1,-1,0
24600,-1310720,104,-56,-1,-1,0
24633,-851968,104,-56,-1,-1,0
24666,-524288,104,-56,-1,-1,0
24700,196608,104,-56,-1,-1,0
24733,131072,104,-56,-1,-1,0
24766,-65536,106,-56,-1,-1,0
24800,65536,106,-56,-1,-1,0
24833,65536,106,-56,-1,-1,0
24866,0,106,-56,-1,-1,0
24900,0,106,-56,-1,-1,0
24933,0,106,-56,-1,-1,0
24966,6684672,106,-56,-1,-1,0
25000,-983040,106,-56,-1,-1,0
25033,524288,106,-56,-1,-1,0
25066,524288,106,-56,-1,-1,0
25100,1638400,106,-56,-1,-1,0
25133,1769472,106,-56,-1,-1,0
25166,720896,106,-56,-1,-1,0
25200,-262144,107,-56,-1,-1,0
25233,-131072,107,-56,-1,-1,0
25266,458752,107,-56,-1,-1,0
25300,458752,107,-56,-1,-1,0
25333,-65536,107,-56,-1,-1,0
25366,-1245184,107,-56,-1,-1,0
25400,3014656,107,-56,-1,-1,0
25433,-720896,107,-56,-1,-1,0
25466,-589824,107,-56,-1,-1,0
25500,-393216,107,-56,-1,-1,0
25533,393216,107,-56,-1,-1,0
25566,327680,107,-56,-1,-1,0
25600,-131072,107,-56,-1,-1,0
25633,-589824,107,-56,-1,-1,0
25666,-720896,107,-56,-1,-1,0
25700,-524288,107,-56,-1,-1,0
25733,-327680,107,-56,-1,-1,0
25766,-851968,107,-56,-1,-1,0
25800,6291456,107,-56,-1,-1,0
25833,-1441792,107,-56,-1,-1,0
25866,-458752,107,-56,-1,-1,0
25900,-131072,107,-56,-1,-1,0
25933,655360,107,-56,-1,-1,0
25966,786432,107,-56,-1,-1,0
26000,131072,107,-56,-1,-1,0
26033,-262144,107,-56,-1,-1,0
26066,-327680,107,-56,-1,-1,0
26099,-65536,107,-56,-1,-1,0
26133,-131072,107,-56,-1,-1,0
26166,-458752,107,-56,-1,-1,0
26200,1048576,107,-56,-1,-1,0
26233,-2031616,107,-56,-1,-1,0
26266,-655360,107,-56,-1,-1,0
26300,-393216,107,-56,-1,-1,0
26333,0,107,-56,-1,-1,0
26366,393216,107,-56,-1,-1,0
26400,0,107,-56,-1,-1,0
26433,-524288,108,-56,-1,-1,0
26466,-458752,108,-56,-1,-1,0
26500,-262144,108,-56,-1,-1,0
26533,-196608,108,-56,-1,-1,0
26566,-589824,108,-56,-1,-1,0
26599,-1376256,108,-56,-1,-1,0
26633,4325376,108,-56,-1,-1,0
26666,-1179648,108,-56,-1,-1,0
26700,-327680,108,-56,-1,-1,0
26733,0,108,-56,-1,-1,0
26766,851968,108,-56,-1,-1,0
26800,589824,108,-56,-1,-1,0
26833,131072,109,-56,-1,-1,0
26866,0,109,-56,-1,-1,0
26900,458752,109,-56,-1,-1,0
26933,-196608,109,-56,-1,-1,0
26966,-262144,109,-56,-1,-1,0
27000,-262144,109,-56,-1,-1,0
27033,1572864,109,-56,-1,-1,0
27066,-1572864,109,-56,-1,-1,0
27099,-720896,109,-56,-1,-1,0
27133,0,109,-56,-1,-1,0
27166,-131072,109,-56,-1,-1,0
27200,1310720,109,-56,-1,-1,0
27233,327680,109,-56,-1,-1,0
27266,-393216,110,-56,-1,-1,0
27300,-1310720,110,-56,-1,-1,0
27333,-655360,110,-56,-1,-1,0
27366,-851968,110,-56,-1,-1,0
27400,-1310720,110,-56,-1,-1,0
27433,-2490368,110,-56,-1,-1,0
27466,1703936,110,-56,-1,-1,0
27500,-1310720,110,-56,-1,-1,0
27533,-851968,110,-56,-1,-1,0
27566,-458752,110,-56,-1,-1,0
27599,131072,110,-56,-1,-1,0
27633,262144,110,-56,-1,-1,0
27666,-393216,111,-56,-1,-1,0
27700,-917504,111,-56,-1,-1,0
27733,-720896,111,-56,-1,-1,0
27766,0,111,-56,-1,-1,0
27800,131072,111,-56,-1,-1,0
27833,196608,111,-56,-1,-1,0
27866,5439488,111,-56,-1,-1,0
27900,-720896,111,-56,-1,-1,0
27933,393216,111,-56,-1,-1,0
27966,1441792,111,-56,-1,-1,0
28000,1703936,111,-56,-1,-1,0
28033,2162688,111,-56,-1,-1,0
28066,1114112,111,-56,-1,-1,0
28099,524288,113,-56,-1,-1,0
28133,196608,113,-56,-1,-1,0
28166,131072,113,-56,-1,-1,0
28200,786432,113,-56,-1,-1,0
28233,196608,113,-56,-1,-1,0
28266,-720896,113,-56,-1,-1,0
28300,786432,113,-56,-1,-1,0
28333,-720896,113,-56,-1,-1,0
28366,-524288,113,-56,-1,-1,0
28400,-393216,113,-56,-1,-1,0
28433,65536,113,-56,-1,-1,0
28466,-524288,113,-56,-1,-1,0
28500,-1703936,113,-56,-1,-1,0
28533,-1769472,113,-56,-1,-1,0
28566,-1507328,115,-56,-1,-1,0
28599,-1507328,115,-56,-1,-1,0
28633,-1441792,115,-56,-1,-1,0
28666,-1310720,115,-56,-1,-1,0
28700,458752,115,-56,-1,-1,0
28733,-2162688,115,-56,-1,-1,0
28766,-262144,115,-56,-1,-1,0
28800,0,115,-56,-1,-1,0
28833,786432,115,-56,-1,-1,0
28866,1703936,115,-56,-1,-1,0
28900,1441792,115,-56,-1,-1,0
28933,524288,115,-56,-1,-1,0
28966,458752,115,-56,-1,-1,0
29000,983040,115,-56,-1,-1,0
29033,1179648,115,-56,-1,-1,0
29066,524288,115,-56,-1,-1,0
29099,0,115,-56,-1,-1,0
29133,131072,115,-56,-1,-1,0
29166,1179648,115,-56,-1,-1,0
29200,-1376256,115,-56,-1,-1,0
29233,-262144,115,-56,-1,-1,0
29266,-393216,115,-56,-1,-1,0
29300,-65536,115,-56,-1,-1,0
29333,327680,115,-56,-1,-1,0
29366,-393216,115,-56,-1,-1,0
29400,-1310720,115,-56,-1,-1,0
29433,-1966080,115,-56,-1,-1,0
29466,-1638400,115,-56,-1,-1,0
29500,-1245184,115,-56,-1,-1,0
29533,-1507328,115,-56,-1,-1,0
29566,-1507328,115,-56,-1,-1,0
29599,-1507328,115,-56,-1,-1,0
29633,-393216,115,-56,-1,-1,0
29666,-720896,115,-56,-1,-1,0
29700,0,115,-56,-1,-1,0
29733,-524288,115,-56,-1,-1,0
29766,196608,115,-56,-1,-1,0
29800,786432,115,-56,-1,-1,0
29833,1966080,115,-56,-1,-1,0
29866,1769472,115,-56,-1,-1,0
29900,851968,115,-56,-1,-1,0
29933,131072,115,-56,-1,-1,0
29966,458752,115,-56,-1,-1,0
30000,1507328,115,-56,-1,-1,0
30033,983040,115,-56,-1,-1,0
30066,-393216,115,-56,-1,-1,0
30099,65536,115,-56,-1,-1,0
30133,196608,115,-56,-1,-1,0
30166,-720896,115,-56,-1,-1,0
30200,-458752,115,-56,-1,-1,0
30233,-917504,115,-56,-1,-1,0
30266,-983040,115,-56,-1,-1,0
30300,393216,115,-56,-1,-1,0
30333,720896,115,-56,-1,-1,0
30366,131072,115,-56,-1,-1,0
30400,-851968,115,-56,-1,-1,0
30433,-917504,115,-56,-1,-1,0
30466,-983040,115,-56,-1,-1,0
30500,-327680,115,-56,-1,-1,0
30533,-458752,115,-56,-1,-1,0
30566,-720896,115,-56,-1,-1,0
30599,-589824,115,-56,-1,-1,0
30633,-655360,115,-56,-1,-1,0
30666,-1179648,115,-56,-1,-1,0
30700,5898240,115,-56,-1,-1,0
30733,-1376256,115,-56,-1,-1,0
30766,-393216,115,-56,-1,-1,0
30800,0,115,-56,-1,-1,0
30833,655360,115,-56,-1,-1,0
30866,1048576,115,-56,-1,-1,0
30900,0,115,-56,-1,-1,0
30933,-589824,115,-56,-1,-1,0
30966,-589824,115,-56,-1,-1,0
31000,-327680,115,-56,-1,-1,0
31033,-196608,115,-56,-1,-1,0
31066,-458752,115,-56,-1,-1,0
31099,-458752,115,-56,-1,-1,0
31133,-851968,115,-56,-1,-1,0
31166,-655360,115,-56,-1,-1,0
31200,4194304,115,-56,-1,-1,0
31233,-1703936,115,-56,-1,-1,0
31266,-589824,115,-56,-1,-1,0
31300,-458752,115,-56,-1,-1,0
31333,327680,115,-56,-1,-1,0
31366,393216,115,-56,-1,-1,0
31400,0,115,-56,-1,-1,0
31433,-720896,115,-56,-1,-1,0
31466,-851968,115,-56,-1,-1,0
31500,-327680,115,-56,-1,-1,0
31533,-65536,115,-56,-1,-1,0
31566,-327680,115,-56,-1,-1,0
31599,-589824,115,-56,-1,-1,0
31633,-327680,115,-56,-1,-1,0
31666,-786432,115,-56,-1,-1,0
31700,5832704,115,-56,-1,-1,0
31733,-917504,115,-56,-1,-1,0
31766,65536,115,-56,-1,-1,0
31800,393216,115,-56,-1,-1,0
31833,1245184,115,-56,-1,-1,0
31866,1310720,115,-56,-1,-1,0
31900,196608,115,-56,-1,-1,0
31933,-262144,115,-56,-1,-1,0
31966,-196608,115,-56,-1,-1,0
32000,0,115,-56,-1,-1,0
32033,-196608,115,-56,-1,-1,0
32066,-196608,115,-56,-1,-1,0
32100,-327680,115,-56,-1,-1,0
32133,-1179648,115,-56,-1,-1,0
32166,4521984,115,-56,-1,-1,0
32200,-1114112,115,-56,-1,-1,0
32233,-458752,115,-56,-1,-1,0
32266,0,115,-56,-1,-1,0
32299,720896,115,-56,-1,-1,0
32333,720896,115,-56,-1,-1,0
32366,-196608,115,-56,-1,-1,0
32400,-720896,115,-56,-1,-1,0
32433,-393216,115,-56,-1,-1,0
32466,-458752,114,-56,-1,-1,0
32500,-327680,114,-56,-1,-1,0
32533,-262144,114,-56,-1,-1,0
32566,-524288,114,-56,-1,-1,0
32600,-1048576,114,-56,-1,-1,0
32633,65536,114,-56,-1,-1,0
32666,-393216,114,-56,-1,-1,0
32700,-196608,114,-56,-1,-1,0
32733,131072,114,-56,-1,-1,0
32766,786432,114,-56,-1,-1,0
32800,589824,114,-56,-1,-1,0
32833,0,114,-56,-1,-1,0
32866,-655360,114,-56,-1,-1,0
32900,-196608,112,-56,-1,-1,0
32933,-327680,112,-56,-1,-1,0
32966,-131072,112,-56,-1,-1,0
33000,-458752,112,-56,-1,-1,0
33033,-327680,112,-56,-1,-1,0
33066,5439488,112,-56,-1,-1,0
33100,-1703936,112,-56,-1,-1,0
33133,-458752,112,-56,-1,-1,0
33166,-65536,112,-56,-1,-1,0
33200,589824,112,-56,-1,-1,0
33233,917504,112,-56,-1,-1,0
33266,196608,112,-56,-1,-1,0
33300,-589824,112,-56,-1,-1,0
33333,-196608,111,-56,-1,-1,0
33366,-589824,111,-56,-1,-1,0
33400,-196608,111,-56,-1,-1,0
33433,-131072,111,-56,-1,-1,0
33466,-131072,111,-56,-1,-1,0
33500,-1048576,111,-56,-1,-1,0
33533,655360,111,-56,-1,-1,0
33566,-262144,111,-56,-1,-1,0
33600,-131072,111,-56,-1,-1,0
33633,589824,111,-56,-1,-1,0
33666,1048576,111,-56,-1,-1,0
33700,720896,111,-56,-1,-1,0
33733,-262144,111,-56,-1,-1,0
33766,0,111,-56,-1,-1,0
33800,-262144,111,-56,-1,-1,0
33833,-131072,111,-56,-1,-1,0
33866,-458752,111,-56,-1,-1,0
33900,-393216,111,-56,-1,-1,0
33933,-1179648,111,-56,-1,-1,0
33966,4521984,111,-56,-1,-1,0
34000,-1638400,111,-56,-1,-1,0
34033,-327680,111,-56,-1,-1,0
34066,-131072,111,-56,-1,-1,0
34100,524288,111,-56,-1,-1,0
34133,393216,111,-56,-1,-1,0
34166,-655360,111,-56,-1,-1,0
34200,-655360,111,-56,-1,-1,0
34233,-851968,111,-56,-1,-1,0
34266,-589824,111,-56,-1,-1,0
34300,-458752,111,-56,-1,-1,0
34333,-851968,111,-56,-1,-1,0
34366,-1703936,111,-56,-1,-1,0
34400,3670016,111,-56,-1,-1,0
34433,-1245184,111,-56,-1,-1,0
34466,-393216,111,-56,-1,-1,0
34500,0,111,-56,-1,-1,0
34533,720896,111,-56,-1,-1,0
34566,655360,111,-56,-1,-1,0
34600,0,111,-56,-1,-1,0
34633,-655360,111,-56,-1,-1,0
34666,-327680,111,-56,-1,-1,0
34700,-131072,111,-56,-1,-1,0
34733,-65536,111,-56,-1,-1,0
34766,-196608,111,-56,-1,-1,0
34800,-1245184,111,-56,-1,-1,0
34833,983040,111,-56,-1,-1,0
34866,-458752,111,-56,-1,-1,0
34900,-131072,111,-56,-1,-1,0
34933,262144,111,-56,-1,-1,0
34966,1114112,111,-56,-1,-1,0
35000,524288,111,-56,-1,-1,0
35033,-131072,111,-56,-1,-1,0
35066,-589824,111,-56,-1,-1,0
35100,-131072,111,-56,-1,-1,0
35133,-131072,111,-56,-1,-1,0
35166,-65536,111,-56,-1,-1,0
35200,-327680,111,-56,-1,-1,0
35233,-1245184,111,-56,-1,-1,0
35266,720896,111,-56,-1,-1,0
35300,-720896,111,-56,-1,-1,0
35333,-458752,111,-56,-1,-1,0
35366,131072,111,-56,-1,-1,0
35400,851968,111,-56,-1,-1,0
35433,589824,111,-56,-1,-1,0
35466,-327680,111,-56,-1,-1,0
35500,-524288,111,-56,-1,-1,0
35533,-327680,111,-56,-1,-1,0
35566,-327680,110,-56,-1,-1,0
35600,-327680,110,-56,-1,-1,0
35633,-524288,110,-56,-1,-1,0
35666,-589824,110,-56,-1,-1,0
35700,3342336,110,-56,-1,-1,0
35733,-2097152,110,-56,-1,-1,0
35766,-393216,110,-56,-1,-1,0
35800,-196608,110,-56,-1,-1,0
35833,458752,110,-56,-1,-1,0
35866,983040,110,-56,-1,-1,0
35900,327680,110,-56,-1,-1,0
35933,-589824,110,-56,-1,-1,0
35966,-786432,110,-56,-1,-1,0
36000,-393216,110,-56,-1,-1,0
36033,-327680,109,-56,-1,-1,0
36066,-131072,109,-56,-1,-1,0
36100,-327680,109,-56,-1,-1,0
36133,-524288,109,-56,-1,-1,0
36166,6225920,109,-56,-1,-1,0
36200,-2162688,109,-56,-1,-1,0
36233,-458752,109,-56,-1,-1,0
36266,-131072,109,-56,-1,-1,0
36300,720896,109,-56,-1,-1,0
36333,983040,109,-56,-1,-1,0
36366,0,109,-56,-1,-1,0
36400,-524288,109,-56,-1,-1,0
36433,-655360,109,-56,-1,-1,0
36466,-196608,109,-56,-1,-1,0
36500,-327680,109,-56,-1,-1,0
36533,-196608,107,-56,-1,-1,0
36566,-196608,107,-56,-1,-1,0
36600,-327680,107,-56,-1,-1,0
36633,-1179648,107,-56,-1,-1,0
36666,1572864,107,-56,-1,-1,0
36700,-458752,107,-56,-1,-1,0
36733,-196608,107,-56,-1,-1,0
36766,131072,107,-56,-1,-1,0
36800,1245184,107,-56,-1,-1,0
36833,1179648,107,-56,-1,-1,0
36866,327680,107,-56,-1,-1,0
36900,-131072,107,-56,-1,-1,0
36933,131072,107,-56,-1,-1,0
36966,65536,107,-56,-1,-1,0
37000,393216,107,-56,-1,-1,0
37033,0,107,-56,-1,-1,0
37066,131072,107,-56,-1,-1,0
37100,0,107,-56,-1,-1,0
37133,65536,107,-56,-1,-1,0
37166,-524288,107,-56,-1,-1,0
37200,-589824,107,-56,-1,-1,0
37233,-589824,107,-56,-1,-1,0
37266,262144,107,-56,-1,-1,0
37300,851968,107,-56,-1,-1,0
37333,458752,107,-56,-1,-1,0
37366,-393216,107,-56,-1,-1,0
37400,-655360,107,-56,-1,-1,0
37433,-524288,107,-56,-1,-1,0
37466,-720896,107,-56,-1,-1,0
37500,-1048576,107,-56,-1,-1,0
37533,-786432,107,-56,-1,-1,0
37566,-196608,107,-56,-1,-1,0
37600,-786432,107,-56,-1,-1,0
37633,6881280,107,-56,-1,-1,0
37666,-1245184,107,-56,-1,-1,0
37700,393216,107,-56,-1,-1,0
37733,1048576,107,-56,-1,-1,0
37766,1703936,107,-56,-1,-1,0
37800,1703936,107,-56,-1,-1,0
37833,720896,107,-56,-1,-1,0
37866,0,107,-56,-1,-1,0
37900,-65536,107,-56,-1,-1,0
37933,-65536,108,-56,-1,-1,0
37966,327680,108,-56,-1,-1,0
38000,720896,108,-56,-1,-1,0
38033,262144,108,-56,-1,-1,0
38066,-524288,108,-56,-1,-1,0
38100,6684672,108,-56,-1,-1,0
38133,-851968,108,-56,-1,-1,0
38166,-196608,108,-56,-1,-1,0
38200,-262144,108,-56,-1,-1,0
38233,458752,108,-56,-1,-1,0
38266,393216,108,-56,-1,-1,0
38300,-851968,108,-56,-1,-1,0
38333,-1900544,108,-56,-1,-1,0
38366,-1835008,108,-56,-1,-1,0
38400,-1769472,108,-56,-1,-1,0
38433,-2228224,108,-56,-1,-1,0
38466,-2818048,108,-56,-1,-1,0
38500,-2949120,108,-56,-1,-1,0
38533,1703936,108,-56,-1,-1,0
38566,-4325376,108,-56,-1,-1,0
38600,-2555904,108,-56,-1,-1,0
38633,-1835008,108,-56,-1,-1,0
38666,-655360,108,-56,-1,-1,0
38700,-131072,108,-56,-1,-1,0
38733,-851968,108,-56,-1,-1,0
38766,-983040,108,-56,-1,-1,0
38800,-720896,108,-56,-1,-1,0
38833,196608,109,-56,-1,-1,0
38866,720896,109,-56,-1,-1,0
38900,655360,109,-56,-1,-1,0
38933,458752,109,-56,-1,-1,0
38966,786432,109,-56,-1,-1,0
39000,-65536,109,-56,-1,-1,0
39033,851968,109,-56,-1,-1,0
39066,983040,109,-56,-1,-1,0
39100,1376256,109,-56,-1,-1,0
39133,1245184,109,-56,-1,-1,0
39166,1114112,109,-56,-1,-1,0
39200,524288,109,-56,-1,-1,0
39233,196608,109,-56,-1,-1,0
39266,1048576,109,-56,-1,-1,0
39300,131072,109,-56,-1,-1,0
39333,-131072,109,-56,-1,-1,0
39366,-327680,109,-56,-1,-1,0
39400,-458752,109,-56,-1,-1,0
39433,-917504,109,-56,-1,-1,0
39466,-720896,109,-56,-1,-1,0
39500,-655360,109,-56,-1,-1,0
39533,-524288,109,-56,-1,-1,0
39566,-720896,109,-56,-1,-1,0
39600,262144,109,-56,-1,-1,0
39633,393216,109,-56,-1,-1,0
39666,-458752,109,-56,-1,-1,0
39700,-786432,109,-56,-1,-1,0
39733,-983040,109,-56,-1,-1,0
39766,-327680,109,-56,-1,-1,0
39800,-851968,109,-56,-1,-1,0
39833,-524288,109,-56,-1,-1,0
39866,-262144,109,-56,-1,-1,0
39900,-524288,109,-56,-1,-1,0
39933,1179648,109,-56,-1,-1,0
39966,131072,109,-56,-1,-1,0
40000,524288,109,-56,-1,-1,0
40033,983040,109,-56,-1,-1,0
40066,1703936,109,-56,-1,-1,0
40100,1441792,109,-56,-1,-1,0
40133,589824,109,-56,-1,-1,0
40166,655360,109,-56,-1,-1,0
40200,196608,109,-56,-1,-1,0
40233,327680,109,-56,-1,-1,0
40266,-65536,109,-56,-1,-1,0
40300,-131072,109,-56,-1,-1,0
40333,-786432,109,-56,-1,-1,0
40366,655360,109,-56,-1,-1,0
40400,-1310720,109,-56,-1,-1,0
40433,-851968,109,-56,-1,-1,0
40466,-327680,109,-56,-1,-1,0
40500,196608,109,-56,-1,-1,0
40533,655360,109,-56,-1,-1,0
40566,0,109,-56,-1,-1,0
40600,-1376256,109,-56,-1,-1,0
40633,-1638400,109,-56,-1,-1,0
40666,-1703936,109,-56,-1,-1,0
40700,-1572864,109,-56,-1,-1,0
40733,-1179648,109,-56,-1,-1,0
40766,-1245184,109,-56,-1,-1,0
40800,-1114112,109,-56,-1,-1,0
40833,3997696,109,-56,-1,-1,0
40866,-2424832,109,-56,-1,-1,0
40900,-589824,109,-56,-1,-1,0
40933,-524288,109,-56,-1,-1,0
40966,917504,109,-56,-1,-1,0
41000,1376256,109,-56,-1,-1,0
41033,655360,109,-56,-1,-1,0
41066,196608,109,-56,-1,-1,0
41100,458752,109,-56,-1,-1,0
41133,655360,109,-56,-1,-1,0
41166,458752,109,-56,-1,-1,0
41200,524288,109,-56,-1,-1,0
41233,196608,109,-56,-1,-1,0
41266,-393216,109,-56,-1,-1,0
41300,2686976,109,-56,-1,-1,0
41333,-131072,109,-56,-1,-1,0
41366,-196608,109,-56,-1,-1,0
41400,-262144,109,-56,-1,-1,0
41433,458752,109,-56,-1,-1,0
41466,851968,109,-56,-1,-1,0
41500,-131072,109,-56,-1,-1,0
41533,-786432,109,-56,-1,-1,0
41566,-1114112,109,-56,-1,-1,0
41600,-1048576,109,-56,-1,-1,0
41633,-983040,109,-56,-1,-1,0
41666,-1179648,109,-56,-1,-1,0
41700,-1769472,109,-56,-1,-1,0
41733,5111808,109,-56,-1,-1,0
41766,-2031616,109,-56,-1,-1,0
41800,-786432,109,-56,-1,-1,0
41833,-589824,109,-56,-1,-1,0
41866,0,109,-56,-1,-1,0
41900,1114112,109,-56,-1,-1,0
41933,0,109,-56,-1,-1,0
41966,-393216,109,-56,-1,-1,0
42000,65536,109,-56,-1,-1,0
42033,851968,109,-56,-1,-1,0
42066,589824,109,-56,-1,-1,0
42100,1179648,109,-56,-1,-1,0
42133,1245184,109,-56,-1,-1,0
42166,3342336,109,-56,-1,-1,0
42200,-262144,109,-56,-1,-1,0
42233,1245184,109,-56,-1,-1,0
42266,1507328,109,-56,-1,-1,0
42300,1179648,109,-56,-1,-1,0
42333,2031616,109,-56,-1,-1,0
42366,1245184,109,-56,-1,-1,0
42400,-458752,109,-56,-1,-1,0
42433,-1245184,109,-56,-1,-1,0
42466,-2097152,109,-56,-1,-1,0
42500,-2097152,109,-56,-1,-1,0
42533,-2031616,109,-56,-1,-1,0
42566,-1769472,109,-56,-1,-1,0
42600,-589824,109,-56,-1,-1,0
42633,-3997696,109,-56,-1,-1,0
42666,-2162688,109,-56,-1,-1,0
42700,-1703936,109,-56,-1,-1,0
42733,-1048576,109,-56,-1,-1,0
42766,-655360,109,-56,-1,-1,0
42800,-1114112,109,-56,-1,-1,0
42833,-1376256,109,-56,-1,-1,0
42866,-1376256,109,-56,-1,-1,0
42900,-65536,109,-56,-1,-1,0
42933,-458752,109,-56,-1,-1,0
42966,-720896,109,-56,-1,-1,0
43000,-262144,109,-56,-1,-1,0
43033,-524288,109,-56,-1,-1,0
43066,393216,109,-56,-1,-1,0
43100,-262144,109,-56,-1,-1,0
43133,655360,109,-56,-1,-1,0
43166,1376256,109,-56,-1,-1,0
43200,2031616,109,-56,-1,-1,0
43233,1835008,109,-56,-1,-1,0
43266,1572864,109,-56,-1,-1,0
43300,393216,109,-56,-1,-1,0
43333,327680,109,-56,-1,-1,0
43366,917504,109,-56,-1,-1,0
43400,589824,109,-56,-1,-1,0
43433,-917504,109,-56,-1,-1,0
43466,-1638400,109,-56,-1,-1,0
43500,4521984,109,-56,-1,-1,0
43533,-1048576,109,-56,-1,-1,0
43566,-524288,109,-56,-1,-1,0
43600,-458752,109,-56,-1,-1,0
43633,262144,109,-56,-1,-1,0
43666,196608,109,-56,-1,-1,0
43700,-524288,109,-56,-1,-1,0
43733,-1310720,109,-56,-1,-1,0
43766,-1572864,110,-56,-1,-1,0
43800,-1507328,110,-56,-1,-1,0
43833,-720896,110,-56,-1,-1,0
43866,-851968,110,-56,-1,-1,0
43900,-1245184,110,-56,-1,-1,0
43933,5308416,110,-56,-1,-1,0
43966,-1507328,110,-56,-1,-1,0
44000,327680,110,-56,-1,-1,0
44033,-524288,110,-56,-1,-1,0
44066,1703936,110,-56,-1,-1,0
44100,2555904,110,-56,-1,-1,0
44133,1769472,110,-56,-1,-1,0
44166,851968,110,-56,-1,-1,0
44200,2293760,111,-56,-1,-1,0
44233,2293760,111,-56,-1,-1,0
44266,-983040,111,-56,-1,-1,0
44300,-655360,111,-56,-1,-1,0
44333,-524288,111,-56,-1,-1,0
44366,7012352,111,-56,-1,-1,0
44400,-1376256,111,-56,-1,-1,0
44433,65536,111,-56,-1,-1,0
44466,-65536,111,-56,-1,-1,0
44500,786432,111,-56,-1,-1,0
44533,65536,111,-56,-1,-1,0
44566,-1179648,111,-56,-1,-1,0
44600,-2097152,111,-56,-1,-1,0
44633,-2162688,111,-56,-1,-1,0
44666,-1441792,111,-56,-1,-1,0
44700,-1114112,111,-56,-1,-1,0
44733,-1048576,111,-56,-1,-1,0
44766,-1376256,111,-56,-1,-1,0
44800,5046272,111,-56,-1,-1,0
44833,-1179648,111,-56,-1,-1,0
44866,-393216,111,-56,-1,-1,0
44900,0,111,-56,-1,-1,0
44933,1703936,111,-56,-1,-1,0
44966,917504,111,-56,-1,-1,0
45000,0,111,-56,-1,-1,0
45033,524288,111,-56,-1,-1,0
45066,458752,111,-56,-1,-1,0
45100,589824,111,-56,-1,-1,0
45133,393216,111,-56,-1,-1,0
45166,-262144,111,-56,-1,-1,0
45200,-1441792,111,-56,-1,-1,0
45233,3407872,111,-56,-1,-1,0
45266,-262144,111,-56,-1,-1,0
45300,0,111,-56,-1,-1,0
45333,458752,111,-56,-1,-1,0
45366,1638400,111,-56,-1,-1,0
45400,720896,111,-56,-1,-1,0
45433,-655360,111,-56,-1,-1,0
45466,-655360,112,-56,-1,-1,0
45500,-851968,112,-56,-1,-1,0
45533,-1048576,112,-56,-1,-1,0
45566,-1310720,112,-56,-1,-1,0
45600,-1638400,112,-56,-1,-1,0
45633,-1703936,112,-56,-1,-1,0
45666,-2359296,112,-56,-1,-1,0
45700,-1114112,112,-56,-1,-1,0
45733,-393216,112,-56,-1,-1,0
45766,524288,112,-56,-1,-1,0
45800,1376256,112,-56,-1,-1,0
45833,393216,112,-56,-1,-1,0
45866,-524288,112,-56,-1,-1,0
45900,-131072,113,-56,-1,-1,0
45933,262144,113,-56,-1,-1,0
45966,1507328,113,-56,-1,-1,0
46000,1245184,113,-56,-1,-1,0
46033,983040,113,-56,-1,-1,0
46066,6356992,113,-56,-1,-1,0
46100,-1245184,113,-56,-1,-1,0
46133,-655360,113,-56,-1,-1,0
46166,-327680,113,-56,-1,-1,0
46200,1507328,113,-56,-1,-1,0
46233,1245184,113,-56,-1,-1,0
46266,0,113,-56,-1,-1,0
46300,-917504,113,-56,-1,-1,0
46333,-917504,113,-56,-1,-1,0
46366,-524288,113,-56,-1,-1,0
46400,-851968,113,-56,-1,-1,0
46433,-1310720,113,-56,-1,-1,0
46466,-2228224,113,-56,-1,-1,0
46500,4521984,113,-56,-1,-1,0
46533,-2359296,113,-56,-1,-1,0
46566,-1376256,113,-56,-1,-1,0
46600,-720896,113,-56,-1,-1,0
46633,458752,113,-56,-1,-1,0
46666,720896,113,-56,-1,-1,0
46700,-131072,113,-56,-1,-1,0
46733,-720896,114,-56,-1,-1,0
46766,-131072,114,-56,-1,-1,0
46800,0,114,-56,-1,-1,0
46833,196608,114,-56,-1,-1,0
46866,0,114,-56,-1,-1,0
46900,-655360,114,-56,-1,-1,0
46933,4784128,114,-56,-1,-1,0
46966,458752,114,-56,-1,-1,0
47000,-1703936,114,-56,-1,-1,0
47033,-393216,114,-56,-1,-1,0
47066,917504,114,-56,-1,-1,0
47100,983040,114,-56,-1,-1,0
47133,131072,114,-56,-1,-1,0
47166,-196608,114,-56,-1,-1,0
47200,-458752,114,-56,-1,-1,0
47233,-655360,114,-56,-1,-1,0
47266,-524288,114,-56,-1,-1,0
47300,-1179648,114,-56,-1,-1,0
47333,-2490368,114,-56,-1,-1,0
47366,3014656,114,-56,-1,-1,0
47400,-2686976,114,-56,-1,-1,0
47433,-1572864,114,-56,-1,-1,0
47466,-458752,114,-56,-1,-1,0
47500,786432,114,-56,-1,-1,0
47533,917504,114,-56,-1,-1,0
47566,-65536,114,-56,-1,-1,0
47600,131072,114,-56,-1,-1,0
47633,65536,114,-56,-1,-1,0
47666,458752,114,-56,-1,-1,0
47700,589824,114,-56,-1,-1,0
47733,458752,114,-56,-1,-1,0
47766,65536,114,-56,-1,-1,0
47800,7405568,114,-56,-1,-1,0
47833,-2097152,114,-56,-1,-1,0
47866,-1114112,114,-56,-1,-1,0
47900,393216,114,-56,-1,-1,0
47933,1376256,114,-56,-1,-1,0
47966,1245184,114,-56,-1,-1,0
48000,327680,114,-56,-1,-1,0
48033,-589824,114,-56,-1,-1,0
48066,-393216,115,-56,-1,-1,0
48100,-262144,115,-56,-1,-1,0
48133,-327680,115,-56,-1,-1,0
48166,-1048576,115,-56,-1,-1,0
48200,-1179648,115,-56,-1,-1,0
48233,5636096,115,-56,-1,-1,0
48266,-2031616,115,-56,-1,-1,0
48300,-524288,115,-56,-1,-1,0
48333,131072,115,-56,-1,-1,0
48366,1441792,115,-56,-1,-1,0
48400,917504,115,-56,-1,-1,0
48433,524288,115,-56,-1,-1,0
48466,131072,115,-56,-1,-1,0
48500,327680,115,-56,-1,-1,0
48533,458752,115,-56,-1,-1,0
48566,196608,115,-56,-1,-1,0
48600,524288,115,-56,-1,-1,0
48633,720896,115,-56,-1,-1,0
48666,1310720,115,-56,-1,-1,0
48700,-3080192,115,-56,-1,-1,0
48733,-524288,115,-56,-1,-1,0
48766,0,115,-56,-1,-1,0
48800,720896,115,-56,-1,-1,0
48833,851968,115,-56,-1,-1,0
48866,-65536,115,-56,-1,-1,0
48900,-1048576,115,-56,-1,-1,0
48933,-1179648,115,-56,-1,-1,0
48966,-1507328,115,-56,-1,-1,0
49000,-1572864,115,-56,-1,-1,0
49033,-1835008,115,-56,-1,-1,0
49066,-2031616,115,-56,-1,-1,0
49100,-2031616,115,-56,-1,-1,0
49133,-851968,115,-56,-1,-1,0
49166,-983040,115,-56,-1,-1,0
49200,-917504,115,-56,-1,-1,0
49233,0,115,-56,-1,-1,0
49266,1245184,115,-56,-1,-1,0
49300,1441792,115,-56,-1,-1,0
49333,786432,115,-56,-1,-1,0
49366,851968,115,-56,-1,-1,0
49400,983040,115,-56,-1,-1,0
49433,1179648,115,-56,-1,-1,0
49466,0,115,-56,-1,-1,0
49500,-1638400,115,-56,-1,-1,0
49533,-1310720,115,-56,-1,-1,0
49566,2818048,115,-56,-1,-1,0
49600,-458752,115,-56,-1,-1,0
49633,65536,115,-56,-1,-1,0
49666,327680,115,-56,-1,-1,0
49700,1048576,115,-56,-1,-1,0
49733,786432,115,-56,-1,-1,0
49766,-196608,115,-56,-1,-1,0
49800,-851968,115,-56,-1,-1,0
49833,-786432,115,-56,-1,-1,0
49866,-589824,115,-56,-1,-1,0
49900,-196608,115,-56,-1,-1,0
49933,-327680,115,-56,-1,-1,0
49966,-1179648,115,-56,-1,-1,0
50000,2359296,115,-56,-1,-1,0
