milliseconds, ECG, ECG HR, PPG, PPG HR, SpO2, PI
0,0,60,-56,-1,-1,0
33,720896,60,-56,-1,-1,0
66,1179648,60,-56,-1,-1,0
100,2424832,60,-56,-1,-1,0
133,2162688,60,-56,-1,-1,0
166,196608,60,-56,-1,-1,0
200,-720896,60,-56,-1,-1,0
233,-720896,60,-56,-1,-1,0
266,-720896,60,-56,-1,-1,0
300,-655360,60,-56,-1,-1,0
333,-589824,60,-56,-1,-1,0
366,-589824,60,-56,-1,-1,0
400,-983040,60,-56,-1,-1,0
433,-720896,60,-56,-1,-1,0
466,-393216,60,-56,-1,-1,0
500,-524288,60,-56,-1,-1,0
533,-655360,60,-56,-1,-1,0
566,-524288,60,-56,-1,-1,0
600,-196608,60,-56,-1,-1,0
633,-458752,60,-56,-1,-1,0
666,524288,60,-56,-1,-1,0
700,983040,60,-56,-1,-1,0
733,-393216,60,-56,-1,-1,0
766,-327680,60,-56,-1,-1,0
800,-131072,60,-56,-1,-1,0
833,458752,60,-56,-1,-1,0
866,1572864,60,-56,-1,-1,0
900,2424832,60,-56,-1,-1,0
933,851968,60,-56,-1,-1,0
966,-393216,60,-56,-1,-1,0
1000,-393216,60,-56,-1,-1,0
1033,-393216,60,-56,-1,-1,0
1066,-196608,60,-56,-1,-1,0
1100,-131072,60,-56,-1,-1,0
1133,-720896,60,-56,-1,-1,0
1166,-524288,60,-56,-1,-1,0
1200,-589824,60,-56,-1,-1,0
1233,-655360,60,-56,-1,-1,0
1266,-917504,60,-56,-1,-1,0
1300,-917504,60,-56,-1,-1,0
1333,-1114112,60,-56,-1,-1,0
1366,-524288,60,-56,-1,-1,0
1400,-458752,60,-56,-1,-1,0
1433,-655360,60,-56,-1,-1,0
1466,7471104,60,-56,-1,-1,0
1500,-1245184,60,-56,-1,-1,0
1533,-262144,60,-56,-1,-1,0
1566,-589824,60,-56,-1,-1,0
1600,0,61,-56,-1,-1,0
1633,786432,61,-56,-1,-1,0
1666,1966080,61,-56,-1,-1,0
1700,2162688,61,-56,-1,-1,0
1733,131072,61,-56,-1,-1,0
1766,-786432,61,-56,-1,-1,0
1800,-458752,61,-56,-1,-1,0
1833,-65536,61,-56,-1,-1,0
1866,-196608,61,-56,-1,-1,0
1900,65536,61,-56,-1,-1,0
1933,-458752,61,-56,-1,-1,0
1966,-851968,61,-56,-1,-1,0
2000,-1245184,61,-56,-1,-1,0
2033,65536,61,-56,-1,-1,0
2066,65536,61,-56,-1,-1,0
2100,65536,61,-56,-1,-1,0
2133,-131072,61,-56,-1,-1,0
2166,-589824,61,-56,-1,-1,0
2200,6094848,61,-56,-1,-1,0
2233,-1245184,61,-56,-1,-1,0
2266,65536,61,-56,-1,-1,0
2300,327680,61,-56,-1,-1,0
2333,262144,61,-56,-1,-1,0
2366,458752,62,-56,-1,-1,0
2400,1376256,62,-56,-1,-1,0
2433,1703936,62,-56,-1,-1,0
2466,65536,62,-56,-1,-1,0
2500,-786432,62,-56,-1,-1,0
2533,-655360,62,-56,-1,-1,0
2566,-720896,62,-56,-1,-1,0
2600,-1048576,62,-56,-1,-1,0
2633,-1179648,62,-56,-1,-1,0
2666,-1048576,62,-56,-1,-1,0
2700,-1048576,62,-56,-1,-1,0
2733,-851968,62,-56,-1,-1,0
2766,-786432,62,-56,-1,-1,0
2800,-917504,62,-56,-1,-1,0
2833,-851968,62,-56,-1,-1,0
2866,-851968,62,-56,-1,-1,0
2900,-1376256,62,-56,-1,-1,0
2933,-1114112,62,-56,-1,-1,0
2966,9306112,62,-56,-1,-1,0
3000,-589824,62,-56,-1,-1,0
3033,-524288,62,-56,-1,-1,0
3066,-589824,62,-56,-1,-1,0
3100,0,62,-56,-1,-1,0
3133,1245184,63,-56,-1,-1,0
3166,2359296,63,-56,-1,-1,0
3200,1835008,63,-56,-1,-1,0
3233,0,63,-56,-1,-1,0
3266,-851968,63,-56,-1,-1,0
3300,0,63,-56,-1,-1,0
3333,65536,63,-56,-1,-1,0
3366,-786432,63,-56,-1,-1,0
3400,-851968,63,-56,-1,-1,0
3433,-589824,63,-56,-1,-1,0
3466,-589824,63,-56,-1,-1,0
3500,-720896,63,-56,-1,-1,0
3533,-786432,63,-56,-1,-1,0
3566,-786432,63,-56,-1,-1,0
3600,-786432,63,-56,-1,-1,0
3633,-458752,63,-56,-1,-1,0
3666,-589824,63,-56,-1,-1,0
3699,-589824,63,-56,-1,-1,0
3733,8716288,63,-56,-1,-1,0
3766,-1179648,63,-56,-1,-1,0
3800,-196608,63,-56,-1,-1,0
3833,-131072,63,-56,-1,-1,0
3866,131072,63,-56,-1,-1,0
3900,786432,64,-56,-1,-1,0
3933,1835008,64,-56,-1,-1,0
3966,1835008,64,-56,-1,-1,0
4000,-65536,64,-56,-1,-1,0
4033,-655360,64,-56,-1,-1,0
4066,-589824,64,-56,-1,-1,0
4100,-655360,64,-56,-1,-1,0
4133,-720896,64,-56,-1,-1,0
4166,-786432,64,-56,-1,-1,0
4200,-851968,64,-56,-1,-1,0
4233,-851968,64,-56,-1,-1,0
4266,-851968,64,-56,-1,-1,0
4300,-917504,64,-56,-1,-1,0
4333,-720896,64,-56,-1,-1,0
4366,-786432,64,-56,-1,-1,0
4400,-458752,64,-56,-1,-1,0
4433,-786432,64,-56,-1,-1,0
4466,-720896,64,-56,-1,-1,0
4500,2490368,64,-56,-1,-1,0
4533,-524288,64,-56,-1,-1,0
4566,-327680,64,-56,-1,-1,0
4600,-131072,64,-56,-1,-1,0
4633,0,64,-56,-1,-1,0
4666,458752,64,-56,-1,-1,0
4700,1376256,64,-56,-1,-1,0
4733,1900544,64,-56,-1,-1,0
4766,196608,64,-56,-1,-1,0
4800,-524288,64,-56,-1,-1,0
4833,-458752,64,-56,-1,-1,0
4866,-131072,64,-56,-1,-1,0
4900,-458752,64,-56,-1,-1,0
4933,-655360,64,-56,-1,-1,0
4966,-851968,64,-56,-1,-1,0
5000,-262144,64,-56,-1,-1,0
5033,-524288,64,-56,-1,-1,0
5066,-786432,64,-56,-1,-1,0
5100,-524288,64,-56,-1,-1,0
5133,-524288,64,-56,-1,-1,0
5166,-589824,64,-56,-1,-1,0
5200,-327680,64,-56,-1,-1,0
5233,-524288,64,-56,-1,-1,0
5266,-589824,64,-56,-1,-1,0
5300,2686976,64,-56,-1,-1,0
5333,-655360,64,-56,-1,-1,0
5366,-393216,64,-56,-1,-1,0
5400,-196608,64,-56,-1,-1,0
5433,0,64,-56,-1,-1,0
5466,589824,64,-56,-1,-1,0
5500,1769472,64,-56,-1,-1,0
5533,2424832,64,-56,-1,-1,0
5566,851968,64,-56,-1,-1,0
5600,-262144,64,-56,-1,-1,0
5633,-655360,64,-56,-1,-1,0
5666,-1114112,64,-56,-1,-1,0
5700,-786432,64,-56,-1,-1,0
5733,-458752,64,-56,-1,-1,0
5766,-524288,64,-56,-1,-1,0
5800,-786432,64,-56,-1,-1,0
5833,-786432,64,-56,-1,-1,0
5866,-720896,64,-56,-1,-1,0
5900,-720896,64,-56,-1,-1,0
5933,-786432,64,-56,-1,-1,0
5966,-655360,64,-56,-1,-1,0
6000,-655360,64,-56,-1,-1,0
6033,-458752,64,-56,-1,-1,0
6066,-589824,64,-56,-1,-1,0
6100,-655360,64,-56,-1,-1,0
6133,7667712,64,-56,-1,-1,0
6166,-458752,64,-56,-1,-1,0
6200,-327680,64,-56,-1,-1,0
6233,-65536,64,-56,-1,-1,0
6266,131072,64,-56,-1,-1,0
6300,1114112,64,-56,-1,-1,0
6333,1900544,64,-56,-1,-1,0
6366,1376256,64,-56,-1,-1,0
6400,-131072,64,-56,-1,-1,0
6433,-327680,64,-56,-1,-1,0
6466,-262144,64,-56,-1,-1,0
6500,-393216,64,-56,-1,-1,0
6533,-589824,64,-56,-1,-1,0
6566,-589824,64,-56,-1,-1,0
6600,-458752,64,-56,-1,-1,0
6633,-393216,64,-56,-1,-1,0
6666,-327680,64,-56,-1,-1,0
6700,-393216,64,-56,-1,-1,0
6733,-655360,64,-56,-1,-1,0
6766,-589824,64,-56,-1,-1,0
6800,-655360,64,-56,-1,-1,0
6833,-589824,64,-56,-1,-1,0
6866,-655360,64,-56,-1,-1,0
6899,-458752,64,-56,-1,-1,0
6933,4194304,64,-56,-1,-1,0
6966,-1441792,64,-56,-1,-1,0
7000,-524288,64,-56,-1,-1,0
7033,-196608,64,-56,-1,-1,0
7066,0,64,-56,-1,-1,0
7100,393216,64,-56,-1,-1,0
7133,1441792,64,-56,-1,-1,0
7166,1900544,64,-56,-1,-1,0
7200,327680,64,-56,-1,-1,0
7233,-458752,64,-56,-1,-1,0
7266,-393216,64,-56,-1,-1,0
7300,-393216,64,-56,-1,-1,0
7333,-393216,64,-56,-1,-1,0
7366,-524288,64,-56,-1,-1,0
7399,-655360,64,-56,-1,-1,0
7433,-655360,64,-56,-1,-1,0
7466,-655360,64,-56,-1,-1,0
7500,-720896,64,-56,-1,-1,0
7533,-655360,64,-56,-1,-1,0
7566,-655360,64,-56,-1,-1,0
7600,-327680,64,-56,-1,-1,0
7633,-589824,64,-56,-1,-1,0
7666,-655360,64,-56,-1,-1,0
7700,1441792,64,-56,-1,-1,0
7733,-196608,64,-56,-1,-1,0
7766,-524288,64,-56,-1,-1,0
7800,-327680,64,-56,-1,-1,0
7833,-131072,64,-56,-1,-1,0
7866,327680,64,-56,-1,-1,0
7899,1310720,64,-56,-1,-1,0
7933,1966080,64,-56,-1,-1,0
7966,524288,64,-56,-1,-1,0
8000,-458752,64,-56,-1,-1,0
8033,-393216,64,-56,-1,-1,0
8066,-262144,64,-56,-1,-1,0
8100,-393216,64,-56,-1,-1,0
8133,-524288,64,-56,-1,-1,0
8166,-524288,64,-56,-1,-1,0
8200,-589824,64,-56,-1,-1,0
8233,-655360,64,-56,-1,-1,0
8266,-655360,64,-56,-1,-1,0
8300,-786432,64,-56,-1,-1,0
8333,-786432,64,-56,-1,-1,0
8366,-786432,64,-56,-1,-1,0
8400,-720896,64,-56,-1,-1,0
8433,-262144,64,-56,-1,-1,0
8466,-458752,64,-56,-1,-1,0
8500,-458752,64,-56,-1,-1,0
8533,9895936,64,-56,-1,-1,0
8566,-655360,64,-56,-1,-1,0
8600,-327680,64,-56,-1,-1,0
8633,-131072,64,-56,-1,-1,0
8666,0,64,-56,-1,-1,0
8700,720896,64,-56,-1,-1,0
8733,1900544,64,-56,-1,-1,0
8766,1572864,63,-56,-1,-1,0
8800,-131072,63,-56,-1,-1,0
8833,-327680,63,-56,-1,-1,0
8866,-393216,63,-56,-1,-1,0
8900,-327680,63,-56,-1,-1,0
8933,-524288,63,-56,-1,-1,0
8966,-589824,63,-56,-1,-1,0
9000,-655360,63,-56,-1,-1,0
9033,-720896,63,-56,-1,-1,0
9066,-655360,63,-56,-1,-1,0
9100,-720896,63,-56,-1,-1,0
9133,-720896,63,-56,-1,-1,0
9166,-720896,63,-56,-1,-1,0
9200,-786432,63,-56,-1,-1,0
9233,-851968,63,-56,-1,-1,0
9266,-458752,63,-56,-1,-1,0
9300,-524288,63,-56,-1,-1,0
9333,-524288,63,-56,-1,-1,0
9366,5373952,63,-56,-1,-1,0
9400,-983040,63,-56,-1,-1,0
9433,0,63,-56,-1,-1,0
9466,196608,63,-56,-1,-1,0
9500,-131072,63,-56,-1,-1,0
9533,327680,63,-56,-1,-1,0
9566,1703936,63,-56,-1,-1,0
9600,1769472,63,-56,-1,-1,0
9633,196608,63,-56,-1,-1,0
9666,-327680,63,-56,-1,-1,0
9700,-327680,63,-56,-1,-1,0
9733,-393216,63,-56,-1,-1,0
9766,-393216,63,-56,-1,-1,0
9800,-458752,63,-56,-1,-1,0
9833,-524288,63,-56,-1,-1,0
9866,-589824,63,-56,-1,-1,0
9900,-589824,63,-56,-1,-1,0
9933,-655360,63,-56,-1,-1,0
9966,-655360,63,-56,-1,-1,0
10000,-589824,63,-56,-1,-1,0
10033,-524288,63,-56,-1,-1,0
10066,-589824,63,-56,-1,-1,0
10100,-524288,63,-56,-1,-1,0
10133,-393216,63,-56,-1,-1,0
10166,-524288,63,-56,-1,-1,0
10200,-262144,63,-56,-1,-1,0
10233,9437184,63,-56,-1,-1,0
10266,196608,63,-56,-1,-1,0
10300,0,63,-56,-1,-1,0
10333,65536,63,-56,-1,-1,0
10366,65536,63,-56,-1,-1,0
10400,589824,63,-56,-1,-1,0
10433,1835008,63,-56,-1,-1,0
10466,1572864,62,-56,-1,-1,0
10500,-131072,62,-56,-1,-1,0
10533,-327680,62,-56,-1,-1,0
10566,-327680,62,-56,-1,-1,0
10600,-393216,62,-56,-1,-1,0
10633,-458752,62,-56,-1,-1,0
10666,-458752,62,-56,-1,-1,0
10700,-589824,62,-56,-1,-1,0
10733,-524288,62,-56,-1,-1,0
10766,-589824,62,-56,-1,-1,0
10800,-589824,62,-56,-1,-1,0
10833,-720896,62,-56,-1,-1,0
10866,-720896,62,-56,-1,-1,0
10900,-786432,62,-56,-1,-1,0
10933,-786432,62,-56,-1,-1,0
10966,-589824,62,-56,-1,-1,0
11000,-655360,62,-56,-1,-1,0
11033,-786432,62,-56,-1,-1,0
11066,8060928,62,-56,-1,-1,0
11100,-851968,62,-56,-1,-1,0
11133,-524288,62,-56,-1,-1,0
11166,-196608,62,-56,-1,-1,0
11200,65536,62,-56,-1,-1,0
11233,983040,62,-56,-1,-1,0
11266,1900544,62,-56,-1,-1,0
11300,1310720,61,-56,-1,-1,0
11333,-196608,61,-56,-1,-1,0
11366,-393216,61,-56,-1,-1,0
11400,-393216,61,-56,-1,-1,0
11433,-393216,61,-56,-1,-1,0
11466,-524288,61,-56,-1,-1,0
11500,-589824,61,-56,-1,-1,0
11533,-655360,61,-56,-1,-1,0
11566,-720896,61,-56,-1,-1,0
11600,-655360,61,-56,-1,-1,0
11633,-589824,61,-56,-1,-1,0
11666,-589824,61,-56,-1,-1,0
11700,-655360,61,-56,-1,-1,0
11733,-655360,61,-56,-1,-1,0
11766,-786432,61,-56,-1,-1,0
11800,-393216,61,-56,-1,-1,0
11833,-589824,61,-56,-1,-1,0
11866,-589824,61,-56,-1,-1,0
11900,7733248,61,-56,-1,-1,0
11933,-983040,61,-56,-1,-1,0
11966,-262144,61,-56,-1,-1,0
12000,-196608,61,-56,-1,-1,0
12033,65536,61,-56,-1,-1,0
12066,786432,61,-56,-1,-1,0
12100,1835008,61,-56,-1,-1,0
12133,1966080,61,-56,-1,-1,0
12166,131072,61,-56,-1,-1,0
12200,-327680,61,-56,-1,-1,0
12233,-393216,61,-56,-1,-1,0
12266,-327680,61,-56,-1,-1,0
12300,-327680,61,-56,-1,-1,0
12333,-524288,61,-56,-1,-1,0
12366,-524288,61,-56,-1,-1,0
12400,-589824,61,-56,-1,-1,0
12433,-589824,61,-56,-1,-1,0
12466,-655360,61,-56,-1,-1,0
12500,-655360,61,-56,-1,-1,0
12533,-786432,61,-56,-1,-1,0
12566,-786432,61,-56,-1,-1,0
12600,-786432,61,-56,-1,-1,0
12633,-851968,61,-56,-1,-1,0
12666,-327680,61,-56,-1,-1,0
12700,-524288,61,-56,-1,-1,0
12733,-589824,61,-56,-1,-1,0
12766,5242880,61,-56,-1,-1,0
12800,-1048576,61,-56,-1,-1,0
12833,-196608,61,-56,-1,-1,0
12866,-196608,61,-56,-1,-1,0
12900,65536,61,-56,-1,-1,0
12933,655360,61,-56,-1,-1,0
12966,1638400,61,-56,-1,-1,0
13000,2162688,61,-56,-1,-1,0
13033,393216,61,-56,-1,-1,0
13066,-327680,60,-56,-1,-1,0
13100,-393216,60,-56,-1,-1,0
13133,-327680,60,-56,-1,-1,0
13166,-327680,60,-56,-1,-1,0
13200,-458752,60,-56,-1,-1,0
13233,-524288,60,-56,-1,-1,0
13266,-589824,60,-56,-1,-1,0
13299,-524288,60,-56,-1,-1,0
13333,-589824,60,-56,-1,-1,0
13366,-524288,60,-56,-1,-1,0
13400,-524288,60,-56,-1,-1,0
13433,-524288,60,-56,-1,-1,0
13466,-458752,60,-56,-1,-1,0
13500,-524288,60,-56,-1,-1,0
13533,-589824,60,-56,-1,-1,0
13566,-262144,60,-56,-1,-1,0
13600,-458752,60,-56,-1,-1,0
13633,-524288,60,-56,-1,-1,0
13666,5898240,60,-56,-1,-1,0
13700,-983040,60,-56,-1,-1,0
13733,-589824,60,-56,-1,-1,0
13766,-65536,60,-56,-1,-1,0
13799,0,60,-56,-1,-1,0
13833,589824,60,-56,-1,-1,0
13866,1769472,60,-56,-1,-1,0
13900,2097152,60,-56,-1,-1,0
13933,458752,60,-56,-1,-1,0
13966,-196608,59,-56,-1,-1,0
14000,-262144,59,-56,-1,-1,0
14033,-262144,59,-56,-1,-1,0
14066,-327680,59,-56,-1,-1,0
14100,-393216,59,-56,-1,-1,0
14133,-524288,59,-56,-1,-1,0
14166,-524288,59,-56,-1,-1,0
14200,-524288,59,-56,-1,-1,0
14233,-524288,59,-56,-1,-1,0
14266,-524288,59,-56,-1,-1,0
14299,-589824,59,-56,-1,-1,0
14333,-524288,59,-56,-1,-1,0
14366,-589824,59,-56,-1,-1,0
14400,-589824,59,-56,-1,-1,0
14433,-524288,59,-56,-1,-1,0
14466,-393216,59,-56,-1,-1,0
14500,-589824,59,-56,-1,-1,0
14533,-720896,59,-56,-1,-1,0
14566,8454144,59,-56,-1,-1,0
14600,-983040,59,-56,-1,-1,0
14633,-458752,59,-56,-1,-1,0
14666,-131072,59,-56,-1,-1,0
14700,65536,59,-56,-1,-1,0
14733,917504,59,-56,-1,-1,0
14766,1966080,59,-56,-1,-1,0
14799,1638400,59,-56,-1,-1,0
14833,0,58,-56,-1,-1,0
14866,-393216,58,-56,-1,-1,0
14900,-262144,58,-56,-1,-1,0
14933,-327680,58,-56,-1,-1,0
14966,-458752,58,-56,-1,-1,0
15000,-458752,58,-56,-1,-1,0
15033,-589824,58,-56,-1,-1,0
15066,-524288,58,-56,-1,-1,0
15100,-589824,58,-56,-1,-1,0
15133,-655360,58,-56,-1,-1,0
15166,-524288,58,-56,-1,-1,0
15200,-589824,58,-56,-1,-1,0
15233,-655360,58,-56,-1,-1,0
15266,-720896,58,-56,-1,-1,0
15299,-786432,58,-56,-1,-1,0
15333,-393216,58,-56,-1,-1,0
15366,-655360,58,-56,-1,-1,0
15400,-786432,58,-56,-1,-1,0
15433,9043968,58,-56,-1,-1,0
15466,-917504,58,-56,-1,-1,0
15500,-393216,58,-56,-1,-1,0
15533,-65536,58,-56,-1,-1,0
15566,196608,58,-56,-1,-1,0
15600,983040,58,-56,-1,-1,0
15633,2097152,58,-56,-1,-1,0
15666,1966080,58,-56,-1,-1,0
15700,131072,58,-56,-1,-1,0
15733,-327680,58,-56,-1,-1,0
15766,-393216,58,-56,-1,-1,0
15799,-327680,58,-56,-1,-1,0
15833,-393216,58,-56,-1,-1,0
15866,-589824,58,-56,-1,-1,0
15900,-524288,58,-56,-1,-1,0
15933,-589824,58,-56,-1,-1,0
15966,-589824,58,-56,-1,-1,0
16000,-589824,58,-56,-1,-1,0
16033,-524288,58,-56,-1,-1,0
16066,-524288,58,-56,-1,-1,0
16100,-589824,58,-56,-1,-1,0
16133,-589824,58,-56,-1,-1,0
16166,-524288,58,-56,-1,-1,0
16200,-655360,58,-56,-1,-1,0
16233,-262144,58,-56,-1,-1,0
16266,-458752,58,-56,-1,-1,0
16300,-524288,58,-56,-1,-1,0
16333,8257536,58,-56,-1,-1,0
16366,-655360,58,-56,-1,-1,0
16400,-131072,58,-56,-1,-1,0
16433,-131072,58,-56,-1,-1,0
16466,65536,58,-56,-1,-1,0
16500,851968,58,-56,-1,-1,0
16533,1966080,58,-56,-1,-1,0
16566,2031616,58,-56,-1,-1,0
16600,196608,57,-56,-1,-1,0
16633,-196608,57,-56,-1,-1,0
16666,-131072,57,-56,-1,-1,0
16700,-65536,57,-56,-1,-1,0
16733,-262144,57,-56,-1,-1,0
16766,-262144,57,-56,-1,-1,0
16800,-393216,57,-56,-1,-1,0
16833,-458752,57,-56,-1,-1,0
16866,-524288,57,-56,-1,-1,0
16900,-524288,57,-56,-1,-1,0
16933,-720896,57,-56,-1,-1,0
16966,-786432,57,-56,-1,-1,0
17000,-655360,57,-56,-1,-1,0
17033,-786432,57,-56,-1,-1,0
17066,-786432,57,-56,-1,-1,0
17100,-524288,57,-56,-1,-1,0
17133,-589824,57,-56,-1,-1,0
17166,-655360,57,-56,-1,-1,0
17200,393216,57,-56,-1,-1,0
17233,983040,57,-56,-1,-1,0
17266,-524288,57,-56,-1,-1,0
17300,-327680,57,-56,-1,-1,0
17333,-65536,57,-56,-1,-1,0
17366,458752,57,-56,-1,-1,0
17400,1638400,57,-56,-1,-1,0
17433,2424832,57,-56,-1,-1,0
17466,1048576,57,-56,-1,-1,0
17500,-262144,57,-56,-1,-1,0
17533,-393216,57,-56,-1,-1,0
17566,-327680,57,-56,-1,-1,0
17600,-458752,57,-56,-1,-1,0
17633,-524288,57,-56,-1,-1,0
17666,-589824,57,-56,-1,-1,0
17700,-655360,57,-56,-1,-1,0
17733,-655360,57,-56,-1,-1,0
17766,-655360,57,-56,-1,-1,0
17800,-655360,57,-56,-1,-1,0
17833,-655360,57,-56,-1,-1,0
17866,-655360,57,-56,-1,-1,0
17900,-720896,57,-56,-1,-1,0
17933,-524288,57,-56,-1,-1,0
17966,-458752,57,-56,-1,-1,0
18000,-589824,57,-56,-1,-1,0
18033,-393216,57,-56,-1,-1,0
18066,5505024,57,-56,-1,-1,0
18100,-458752,57,-56,-1,-1,0
18133,-262144,57,-56,-1,-1,0
18166,-65536,57,-56,-1,-1,0
18200,327680,57,-56,-1,-1,0
18233,1245184,57,-56,-1,-1,0
18266,2228224,57,-56,-1,-1,0
18300,1310720,57,-56,-1,-1,0
18333,-196608,57,-56,-1,-1,0
18366,-458752,57,-56,-1,-1,0
18400,-393216,57,-56,-1,-1,0
18433,-458752,57,-56,-1,-1,0
18466,-458752,57,-56,-1,-1,0
18500,-524288,57,-56,-1,-1,0
18533,-589824,57,-56,-1,-1,0
18566,-655360,57,-56,-1,-1,0
18600,-655360,57,-56,-1,-1,0
18633,-589824,57,-56,-1,-1,0
18666,-458752,57,-56,-1,-1,0
18700,-524288,57,-56,-1,-1,0
18733,-786432,57,-56,-1,-1,0
18766,-851968,57,-56,-1,-1,0
18800,-524288,57,-56,-1,-1,0
18833,-655360,57,-56,-1,-1,0
18866,-786432,57,-56,-1,-1,0
18900,-589824,57,-56,-1,-1,0
18933,6553600,57,-56,-1,-1,0
18966,-393216,57,-56,-1,-1,0
19000,-327680,57,-56,-1,-1,0
19033,0,57,-56,-1,-1,0
19066,196608,57,-56,-1,-1,0
19100,1114112,57,-56,-1,-1,0
19133,2097152,57,-56,-1,-1,0
19166,1179648,57,-56,-1,-1,0
19200,-131072,57,-56,-1,-1,0
19233,-393216,57,-56,-1,-1,0
19266,-327680,57,-56,-1,-1,0
19300,-262144,57,-56,-1,-1,0
19333,-393216,57,-56,-1,-1,0
19366,-524288,57,-56,-1,-1,0
19400,-524288,57,-56,-1,-1,0
19433,-458752,57,-56,-1,-1,0
19466,-524288,57,-56,-1,-1,0
19500,-458752,57,-56,-1,-1,0
19533,-524288,57,-56,-1,-1,0
19566,-524288,57,-56,-1,-1,0
19600,-524288,57,-56,-1,-1,0
19633,-524288,57,-56,-1,-1,0
19666,-589824,57,-56,-1,-1,0
19700,-589824,57,-56,-1,-1,0
19733,-458752,57,-56,-1,-1,0
19766,-524288,57,-56,-1,-1,0
19800,-655360,57,-56,-1,-1,0
19833,7667712,57,-56,-1,-1,0
19866,-393216,57,-56,-1,-1,0
19900,-262144,57,-56,-1,-1,0
19933,-65536,57,-56,-1,-1,0
19966,262144,57,-56,-1,-1,0
20000,1179648,57,-56,-1,-1,0
20033,2228224,57,-56,-1,-1,0
20066,1572864,57,-56,-1,-1,0
20100,-65536,57,-56,-1,-1,0
20133,-262144,56,-56,-1,-1,0
20166,-196608,56,-56,-1,-1,0
20200,-196608,56,-56,-1,-1,0
20233,-393216,56,-56,-1,-1,0
20266,-524288,56,-56,-1,-1,0
20300,-458752,56,-56,-1,-1,0
20333,-524288,56,-56,-1,-1,0
20366,-458752,56,-56,-1,-1,0
20400,-524288,56,-56,-1,-1,0
20433,-458752,56,-56,-1,-1,0
20466,-589824,56,-56,-1,-1,0
20500,-524288,56,-56,-1,-1,0
20533,-589824,56,-56,-1,-1,0
20566,-524288,56,-56,-1,-1,0
20600,-655360,56,-56,-1,-1,0
20633,-327680,56,-56,-1,-1,0
20666,-524288,56,-56,-1,-1,0
20700,-524288,56,-56,-1,-1,0
20733,3145728,56,-56,-1,-1,0
20766,-1179648,56,-56,-1,-1,0
20800,-262144,56,-56,-1,-1,0
20833,-65536,56,-56,-1,-1,0
20866,196608,56,-56,-1,-1,0
20900,589824,56,-56,-1,-1,0
20933,1441792,56,-56,-1,-1,0
20966,2097152,56,-56,-1,-1,0
21000,589824,56,-56,-1,-1,0
21033,-327680,55,-56,-1,-1,0
21066,-327680,55,-56,-1,-1,0
21100,-327680,55,-56,-1,-1,0
21133,-262144,55,-56,-1,-1,0
21166,-458752,55,-56,-1,-1,0
21200,-524288,55,-56,-1,-1,0
21233,-589824,55,-56,-1,-1,0
21266,-589824,55,-56,-1,-1,0
21300,-655360,55,-56,-1,-1,0
21333,-655360,55,-56,-1,-1,0
21366,-655360,55,-56,-1,-1,0
21400,-589824,55,-56,-1,-1,0
21433,-524288,55,-56,-1,-1,0
21466,-524288,55,-56,-1,-1,0
21500,-655360,55,-56,-1,-1,0
21533,-393216,55,-56,-1,-1,0
21566,-589824,55,-56,-1,-1,0
21600,-524288,55,-56,-1,-1,0
21633,524288,55,-56,-1,-1,0
21666,1638400,55,-56,-1,-1,0
21700,-262144,55,-56,-1,-1,0
21733,-196608,55,-56,-1,-1,0
21766,0,55,-56,-1,-1,0
21800,327680,55,-56,-1,-1,0
21833,1376256,55,-56,-1,-1,0
21866,2162688,55,-56,-1,-1,0
21900,917504,55,-56,-1,-1,0
21933,-327680,55,-56,-1,-1,0
21966,-393216,55,-56,-1,-1,0
22000,-327680,55,-56,-1,-1,0
22033,-327680,55,-56,-1,-1,0
22066,-327680,55,-56,-1,-1,0
22100,-393216,55,-56,-1,-1,0
22133,-458752,55,-56,-1,-1,0
22166,-458752,55,-56,-1,-1,0
22200,-458752,55,-56,-1,-1,0
22233,-458752,55,-56,-1,-1,0
22266,-524288,55,-56,-1,-1,0
22300,-524288,55,-56,-1,-1,0
22333,-524288,55,-56,-1,-1,0
22366,-524288,55,-56,-1,-1,0
22400,-589824,55,-56,-1,-1,0
22433,-196608,55,-56,-1,-1,0
22466,-327680,55,-56,-1,-1,0
22500,-393216,55,-56,-1,-1,0
22533,3932160,55,-56,-1,-1,0
22566,-851968,55,-56,-1,-1,0
22600,-131072,55,-56,-1,-1,0
22633,0,55,-56,-1,-1,0
22666,196608,55,-56,-1,-1,0
22700,851968,55,-56,-1,-1,0
22733,1835008,55,-56,-1,-1,0
22766,2359296,55,-56,-1,-1,0
22800,851968,55,-56,-1,-1,0
22833,-131072,55,-56,-1,-1,0
22866,-196608,55,-56,-1,-1,0
22900,-262144,55,-56,-1,-1,0
22933,-393216,55,-56,-1,-1,0
22966,-458752,55,-56,-1,-1,0
23000,-589824,55,-56,-1,-1,0
23033,-655360,55,-56,-1,-1,0
23066,-720896,55,-56,-1,-1,0
23100,-720896,55,-56,-1,-1,0
23133,-720896,55,-56,-1,-1,0
23166,-720896,55,-56,-1,-1,0
23200,-851968,55,-56,-1,-1,0
23233,-851968,55,-56,-1,-1,0
23266,-524288,55,-56,-1,-1,0
23300,-720896,55,-56,-1,-1,0
23333,-851968,55,-56,-1,-1,0
23366,8454144,55,-56,-1,-1,0
23400,-1310720,55,-56,-1,-1,0
23433,-393216,55,-56,-1,-1,0
23466,-196608,55,-56,-1,-1,0
23500,262144,55,-56,-1,-1,0
23533,1114112,55,-56,-1,-1,0
23566,1966080,55,-56,-1,-1,0
23600,1703936,55,-56,-1,-1,0
23633,0,55,-56,-1,-1,0
23666,-524288,55,-56,-1,-1,0
23700,-655360,55,-56,-1,-1,0
23733,-589824,55,-56,-1,-1,0
23766,-589824,55,-56,-1,-1,0
23800,-786432,55,-56,-1,-1,0
23833,-917504,55,-56,-1,-1,0
23866,-917504,55,-56,-1,-1,0
23900,-720896,55,-56,-1,-1,0
23933,-786432,55,-56,-1,-1,0
23966,-786432,55,-56,-1,-1,0
24000,-786432,55,-56,-1,-1,0
24033,-655360,55,-56,-1,-1,0
24066,-589824,55,-56,-1,-1,0
24100,-458752,55,-56,-1,-1,0
24133,4653056,55,-56,-1,-1,0
24166,-589824,55,-56,-1,-1,0
24200,-327680,55,-56,-1,-1,0
24233,-327680,55,-56,-1,-1,0
24266,196608,56,-56,-1,-1,0
24300,1310720,56,-56,-1,-1,0
24333,2293760,56,-56,-1,-1,0
24366,1179648,56,-56,-1,-1,0
24400,-196608,56,-56,-1,-1,0
24433,-196608,56,-56,-1,-1,0
24466,-589824,56,-56,-1,-1,0
24500,-786432,56,-56,-1,-1,0
24533,-851968,56,-56,-1,-1,0
24566,-1048576,56,-56,-1,-1,0
24600,-1114112,56,-56,-1,-1,0
24633,-786432,56,-56,-1,-1,0
24666,-655360,56,-56,-1,-1,0
24700,-917504,56,-56,-1,-1,0
24733,-983040,56,-56,-1,-1,0
24766,-524288,56,-56,-1,-1,0
24800,-851968,56,-56,-1,-1,0
24833,-1048576,56,-56,-1,-1,0
24866,4325376,56,-56,-1,-1,0
24900,-1048576,56,-56,-1,-1,0
24933,0,56,-56,-1,-1,0
24966,524288,56,-56,-1,-1,0
25000,720896,56,-56,-1,-1,0
25033,917504,57,-56,-1,-1,0
25066,1245184,57,-56,-1,-1,0
25100,1703936,57,-56,-1,-1,0
25133,196608,57,-56,-1,-1,0
25166,-589824,57,-56,-1,-1,0
25200,-196608,57,-56,-1,-1,0
25233,-131072,57,-56,-1,-1,0
25266,-327680,57,-56,-1,-1,0
25300,-786432,57,-56,-1,-1,0
25333,-589824,57,-56,-1,-1,0
25366,-786432,57,-56,-1,-1,0
25400,-851968,57,-56,-1,-1,0
25433,-851968,57,-56,-1,-1,0
25466,-851968,57,-56,-1,-1,0
25500,-983040,57,-56,-1,-1,0
25533,-393216,57,-56,-1,-1,0
25566,-655360,57,-56,-1,-1,0
25600,-655360,57,-56,-1,-1,0
25633,4063232,57,-56,-1,-1,0
25666,-1114112,57,-56,-1,-1,0
25700,-393216,57,-56,-1,-1,0
25733,-262144,57,-56,-1,-1,0
25766,-65536,57,-56,-1,-1,0
25800,458752,57,-56,-1,-1,0
25833,1703936,57,-56,-1,-1,0
25866,2097152,57,-56,-1,-1,0
25900,393216,57,-56,-1,-1,0
25933,-393216,57,-56,-1,-1,0
25966,-393216,57,-56,-1,-1,0
26000,-262144,57,-56,-1,-1,0
26033,-458752,57,-56,-1,-1,0
26066,-589824,57,-56,-1,-1,0
26099,-589824,57,-56,-1,-1,0
26133,-655360,57,-56,-1,-1,0
26166,-655360,57,-56,-1,-1,0
26200,-655360,57,-56,-1,-1,0
26233,-720896,57,-56,-1,-1,0
26266,-720896,57,-56,-1,-1,0
26300,-786432,57,-56,-1,-1,0
26333,-393216,57,-56,-1,-1,0
26366,-655360,57,-56,-1,-1,0
26400,-655360,57,-56,-1,-1,0
26433,983040,57,-56,-1,-1,0
26466,1114112,57,-56,-1,-1,0
26500,-393216,57,-56,-1,-1,0
26533,-393216,57,-56,-1,-1,0
26566,-131072,57,-56,-1,-1,0
26599,327680,57,-56,-1,-1,0
26633,1376256,57,-56,-1,-1,0
26666,2097152,58,-56,-1,-1,0
26700,720896,58,-56,-1,-1,0
26733,-262144,58,-56,-1,-1,0
26766,-327680,58,-56,-1,-1,0
26800,-393216,58,-56,-1,-1,0
26833,-393216,58,-56,-1,-1,0
26866,-458752,58,-56,-1,-1,0
26900,-524288,58,-56,-1,-1,0
26933,-589824,58,-56,-1,-1,0
26966,-655360,58,-56,-1,-1,0
27000,-589824,58,-56,-1,-1,0
27033,-720896,58,-56,-1,-1,0
27066,-655360,58,-56,-1,-1,0
27099,-720896,58,-56,-1,-1,0
27133,-786432,58,-56,-1,-1,0
27166,-720896,58,-56,-1,-1,0
27200,-458752,58,-56,-1,-1,0
27233,-589824,58,-56,-1,-1,0
27266,-655360,58,-56,-1,-1,0
27300,7077888,58,-56,-1,-1,0
27333,-262144,58,-56,-1,-1,0
27366,-262144,58,-56,-1,-1,0
27400,0,58,-56,-1,-1,0
27433,262144,58,-56,-1,-1,0
27466,1179648,58,-56,-1,-1,0
27500,2031616,58,-56,-1,-1,0
27533,1310720,59,-56,-1,-1,0
27566,-458752,59,-56,-1,-1,0
27599,-458752,59,-56,-1,-1,0
27633,-262144,59,-56,-1,-1,0
27666,-393216,59,-56,-1,-1,0
27700,-524288,59,-56,-1,-1,0
27733,-524288,59,-56,-1,-1,0
27766,-655360,59,-56,-1,-1,0
27800,-458752,59,-56,-1,-1,0
27833,-589824,59,-56,-1,-1,0
27866,-786432,59,-56,-1,-1,0
27900,-851968,59,-56,-1,-1,0
27933,-655360,59,-56,-1,-1,0
27966,-655360,59,-56,-1,-1,0
28000,-983040,59,-56,-1,-1,0
28033,-589824,59,-56,-1,-1,0
28066,-1179648,59,-56,-1,-1,0
28099,-1114112,59,-56,-1,-1,0
28133,3080192,59,-56,-1,-1,0
28166,-327680,59,-56,-1,-1,0
28200,917504,59,-56,-1,-1,0
28233,720896,59,-56,-1,-1,0
28266,524288,59,-56,-1,-1,0
28300,458752,59,-56,-1,-1,0
28333,1179648,59,-56,-1,-1,0
28366,1703936,60,-56,-1,-1,0
28400,458752,60,-56,-1,-1,0
28433,-327680,60,-56,-1,-1,0
28466,-262144,60,-56,-1,-1,0
28500,-393216,60,-56,-1,-1,0
28533,-524288,60,-56,-1,-1,0
28566,-655360,60,-56,-1,-1,0
28599,-786432,60,-56,-1,-1,0
28633,-720896,60,-56,-1,-1,0
28666,-720896,60,-56,-1,-1,0
28700,-589824,60,-56,-1,-1,0
28733,-589824,60,-56,-1,-1,0
28766,-458752,60,-56,-1,-1,0
28800,-524288,60,-56,-1,-1,0
28833,-589824,60,-56,-1,-1,0
28866,-589824,60,-56,-1,-1,0
28900,-524288,60,-56,-1,-1,0
28933,-524288,60,-56,-1,-1,0
28966,-196608,60,-56,-1,-1,0
29000,4259840,60,-56,-1,-1,0
29033,-196608,60,-56,-1,-1,0
29066,-131072,60,-56,-1,-1,0
29099,-196608,60,-56,-1,-1,0
29133,0,60,-56,-1,-1,0
29166,917504,60,-56,-1,-1,0
29200,1900544,60,-56,-1,-1,0
29233,1114112,60,-56,-1,-1,0
29266,-196608,60,-56,-1,-1,0
29300,-262144,60,-56,-1,-1,0
29333,-196608,60,-56,-1,-1,0
29366,-262144,60,-56,-1,-1,0
29400,-393216,60,-56,-1,-1,0
29433,-589824,60,-56,-1,-1,0
29466,-655360,60,-56,-1,-1,0
29500,-786432,60,-56,-1,-1,0
29533,-851968,60,-56,-1,-1,0
29566,-655360,60,-56,-1,-1,0
29599,-655360,60,-56,-1,-1,0
29633,-524288,60,-56,-1,-1,0
29666,-589824,60,-56,-1,-1,0
29700,-589824,60,-56,-1,-1,0
29733,-262144,60,-56,-1,-1,0
29766,-458752,60,-56,-1,-1,0
29800,-458752,60,-56,-1,-1,0
29833,6422528,60,-56,-1,-1,0
29866,-1048576,60,-56,-1,-1,0
29900,-327680,60,-56,-1,-1,0
29933,-131072,60,-56,-1,-1,0
29966,0,60,-56,-1,-1,0
30000,720896,60,-56,-1,-1,0
30033,1703936,60,-56,-1,-1,0
30066,2097152,60,-56,-1,-1,0
30099,262144,60,-56,-1,-1,0
30133,-65536,60,-56,-1,-1,0
30166,-131072,60,-56,-1,-1,0
30200,-327680,60,-56,-1,-1,0
30233,-589824,60,-56,-1,-1,0
30266,-458752,60,-56,-1,-1,0
30300,-720896,60,-56,-1,-1,0
30333,-655360,60,-56,-1,-1,0
30366,-524288,60,-56,-1,-1,0
30400,-589824,60,-56,-1,-1,0
30433,-589824,60,-56,-1,-1,0
30466,-524288,60,-56,-1,-1,0
30500,-458752,60,-56,-1,-1,0
30533,-589824,60,-56,-1,-1,0
30566,-262144,60,-56,-1,-1,0
30599,-393216,60,-56,-1,-1,0
30633,-524288,60,-56,-1,-1,0
30666,3276800,60,-56,-1,-1,0
30700,-1114112,60,-56,-1,-1,0
30733,-327680,60,-56,-1,-1,0
30766,-262144,60,-56,-1,-1,0
30800,0,60,-56,-1,-1,0
30833,655360,60,-56,-1,-1,0
30866,1769472,60,-56,-1,-1,0
30900,2162688,60,-56,-1,-1,0
30933,720896,60,-56,-1,-1,0
30966,-196608,60,-56,-1,-1,0
31000,-262144,60,-56,-1,-1,0
31033,-327680,60,-56,-1,-1,0
31066,-327680,60,-56,-1,-1,0
31099,-327680,60,-56,-1,-1,0
31133,-327680,60,-56,-1,-1,0
31166,-458752,60,-56,-1,-1,0
31200,-327680,60,-56,-1,-1,0
31233,-393216,60,-56,-1,-1,0
31266,-393216,60,-56,-1,-1,0
31300,-393216,60,-56,-1,-1,0
31333,-458752,60,-56,-1,-1,0
31366,-524288,60,-56,-1,-1,0
31400,-327680,60,-56,-1,-1,0
31433,-524288,60,-56,-1,-1,0
31466,-524288,60,-56,-1,-1,0
31500,7733248,60,-56,-1,-1,0
31533,-1245184,60,-56,-1,-1,0
31566,-327680,60,-56,-1,-1,0
31599,-327680,60,-56,-1,-1,0
31633,-131072,60,-56,-1,-1,0
31666,524288,60,-56,-1,-1,0
31700,1376256,60,-56,-1,-1,0
31733,1245184,60,-56,-1,-1,0
31766,-196608,60,-56,-1,-1,0
31800,-327680,60,-56,-1,-1,0
31833,-131072,60,-56,-1,-1,0
31866,-262144,60,-56,-1,-1,0
31900,-393216,60,-56,-1,-1,0
31933,-655360,60,-56,-1,-1,0
31966,-458752,60,-56,-1,-1,0
32000,-589824,60,-56,-1,-1,0
32033,-786432,60,-56,-1,-1,0
32066,-720896,60,-56,-1,-1,0
32100,-720896,60,-56,-1,-1,0
32133,-851968,60,-56,-1,-1,0
32166,-917504,60,-56,-1,-1,0
32200,-524288,60,-56,-1,-1,0
32233,-720896,60,-56,-1,-1,0
32266,-786432,60,-56,-1,-1,0
32299,8323072,60,-56,-1,-1,0
32333,-851968,60,-56,-1,-1,0
32366,-327680,60,-56,-1,-1,0
32400,-196608,60,-56,-1,-1,0
32433,65536,60,-56,-1,-1,0
32466,917504,60,-56,-1,-1,0
32500,2097152,60,-56,-1,-1,0
32533,1900544,60,-56,-1,-1,0
32566,131072,60,-56,-1,-1,0
32600,-327680,60,-56,-1,-1,0
32633,-327680,60,-56,-1,-1,0
32666,-393216,60,-56,-1,-1,0
32700,-393216,60,-56,-1,-1,0
32733,-458752,60,-56,-1,-1,0
32766,-524288,60,-56,-1,-1,0
32800,-524288,60,-56,-1,-1,0
32833,-589824,60,-56,-1,-1,0
32866,-524288,60,-56,-1,-1,0
32900,-589824,60,-56,-1,-1,0
32933,-524288,60,-56,-1,-1,0
32966,-524288,60,-56,-1,-1,0
33000,-524288,60,-56,-1,-1,0
33033,-262144,60,-56,-1,-1,0
33066,-393216,60,-56,-1,-1,0
33100,-524288,60,-56,-1,-1,0
33133,8323072,60,-56,-1,-1,0
33166,-524288,60,-56,-1,-1,0
33200,-196608,60,-56,-1,-1,0
33233,0,60,-56,-1,-1,0
33266,262144,60,-56,-1,-1,0
33300,917504,60,-56,-1,-1,0
33333,2097152,60,-56,-1,-1,0
33366,1966080,60,-56,-1,-1,0
33400,65536,60,-56,-1,-1,0
33433,-327680,60,-56,-1,-1,0
33466,-327680,60,-56,-1,-1,0
33500,-393216,60,-56,-1,-1,0
33533,-458752,60,-56,-1,-1,0
33566,-458752,60,-56,-1,-1,0
33600,-524288,60,-56,-1,-1,0
33633,-655360,60,-56,-1,-1,0
33666,-655360,60,-56,-1,-1,0
33700,-655360,60,-56,-1,-1,0
33733,-589824,60,-56,-1,-1,0
33766,-720896,60,-56,-1,-1,0
33800,-917504,60,-56,-1,-1,0
33833,-524288,60,-56,-1,-1,0
33866,-655360,60,-56,-1,-1,0
33900,-720896,60,-56,-1,-1,0
33933,589824,60,-56,-1,-1,0
33966,524288,60,-56,-1,-1,0
34000,-458752,60,-56,-1,-1,0
34033,-327680,60,-56,-1,-1,0
34066,0,60,-56,-1,-1,0
34100,327680,60,-56,-1,-1,0
34133,1507328,60,-56,-1,-1,0
34166,2293760,60,-56,-1,-1,0
34200,786432,60,-56,-1,-1,0
34233,-393216,60,-56,-1,-1,0
34266,-524288,60,-56,-1,-1,0
34300,-458752,60,-56,-1,-1,0
34333,-458752,60,-56,-1,-1,0
34366,-524288,60,-56,-1,-1,0
34400,-655360,60,-56,-1,-1,0
34433,-720896,60,-56,-1,-1,0
34466,-655360,60,-56,-1,-1,0
34500,-720896,60,-56,-1,-1,0
34533,-655360,60,-56,-1,-1,0
34566,-720896,60,-56,-1,-1,0
34600,-786432,60,-56,-1,-1,0
34633,-393216,60,-56,-1,-1,0
34666,-655360,60,-56,-1,-1,0
34700,-720896,60,-56,-1,-1,0
34733,8519680,60,-56,-1,-1,0
34766,-983040,60,-56,-1,-1,0
34800,-393216,60,-56,-1,-1,0
34833,-196608,60,-56,-1,-1,0
34866,65536,60,-56,-1,-1,0
34900,851968,60,-56,-1,-1,0
34933,2031616,60,-56,-1,-1,0
34966,1966080,60,-56,-1,-1,0
35000,0,60,-56,-1,-1,0
35033,-458752,60,-56,-1,-1,0
35066,-393216,60,-56,-1,-1,0
35100,-393216,60,-56,-1,-1,0
35133,-393216,60,-56,-1,-1,0
35166,-458752,60,-56,-1,-1,0
35200,-720896,60,-56,-1,-1,0
35233,-720896,60,-56,-1,-1,0
35266,-720896,60,-56,-1,-1,0
35300,-655360,60,-56,-1,-1,0
35333,-655360,60,-56,-1,-1,0
35366,-720896,60,-56,-1,-1,0
35400,-720896,60,-56,-1,-1,0
35433,-786432,60,-56,-1,-1,0
35466,-589824,60,-56,-1,-1,0
35500,-524288,60,-56,-1,-1,0
35533,-393216,60,-56,-1,-1,0
35566,-589824,60,-56,-1,-1,0
35600,9043968,60,-56,-1,-1,0
35633,-786432,60,-56,-1,-1,0
35666,-524288,60,-56,-1,-1,0
35700,-327680,60,-56,-1,-1,0
35733,0,60,-56,-1,-1,0
35766,851968,60,-56,-1,-1,0
35800,2031616,60,-56,-1,-1,0
35833,1638400,60,-56,-1,-1,0
35866,0,60,-56,-1,-1,0
35900,-458752,60,-56,-1,-1,0
35933,-589824,60,-56,-1,-1,0
35966,-589824,60,-56,-1,-1,0
36000,-589824,60,-56,-1,-1,0
36033,-655360,60,-56,-1,-1,0
36066,-851968,60,-56,-1,-1,0
36100,-786432,60,-56,-1,-1,0
36133,-786432,60,-56,-1,-1,0
36166,-720896,60,-56,-1,-1,0
36200,-524288,60,-56,-1,-1,0
36233,-786432,60,-56,-1,-1,0
36266,-851968,60,-56,-1,-1,0
36300,-655360,60,-56,-1,-1,0
36333,-589824,60,-56,-1,-1,0
36366,-786432,60,-56,-1,-1,0
36400,-720896,60,-56,-1,-1,0
36433,-655360,60,-56,-1,-1,0
36466,-458752,60,-56,-1,-1,0
36500,-655360,60,-56,-1,-1,0
36533,9502720,60,-56,-1,-1,0
36566,-458752,60,-56,-1,-1,0
36600,-327680,60,-56,-1,-1,0
36633,-131072,60,-56,-1,-1,0
36666,131072,60,-56,-1,-1,0
36700,1179648,60,-56,-1,-1,0
36733,2686976,60,-56,-1,-1,0
36766,2293760,60,-56,-1,-1,0
36800,262144,60,-56,-1,-1,0
36833,-65536,60,-56,-1,-1,0
36866,-65536,60,-56,-1,-1,0
36900,0,60,-56,-1,-1,0
36933,0,60,-56,-1,-1,0
36966,-65536,60,-56,-1,-1,0
37000,-327680,60,-56,-1,-1,0
37033,-589824,60,-56,-1,-1,0
37066,-1376256,60,-56,-1,-1,0
37100,-1441792,60,-56,-1,-1,0
37133,-1048576,60,-56,-1,-1,0
37166,-917504,60,-56,-1,-1,0
37200,65536,60,-56,-1,-1,0
37233,196608,60,-56,-1,-1,0
37266,-65536,60,-56,-1,-1,0
37300,327680,60,-56,-1,-1,0
37333,327680,60,-56,-1,-1,0
37366,720896,60,-56,-1,-1,0
37400,327680,60,-56,-1,-1,0
37433,0,60,-56,-1,-1,0
37466,327680,60,-56,-1,-1,0
37500,2228224,60,-56,-1,-1,0
37533,65536,60,-56,-1,-1,0
37566,65536,60,-56,-1,-1,0
37600,-131072,60,-56,-1,-1,0
37633,327680,60,-56,-1,-1,0
37666,1441792,60,-56,-1,-1,0
37700,2424832,60,-56,-1,-1,0
37733,983040,60,-56,-1,-1,0
37766,-327680,59,-56,-1,-1,0
37800,-458752,59,-56,-1,-1,0
37833,-524288,59,-56,-1,-1,0
37866,-393216,59,-56,-1,-1,0
37900,-589824,59,-56,-1,-1,0
37933,-589824,59,-56,-1,-1,0
37966,-589824,59,-56,-1,-1,0
38000,-786432,59,-56,-1,-1,0
38033,-851968,59,-56,-1,-1,0
38066,-983040,59,-56,-1,-1,0
38100,-917504,59,-56,-1,-1,0
38133,-851968,59,-56,-1,-1,0
38166,-720896,59,-56,-1,-1,0
38200,-655360,59,-56,-1,-1,0
38233,-786432,59,-56,-1,-1,0
38266,-393216,59,-56,-1,-1,0
38300,-851968,59,-56,-1,-1,0
38333,-983040,59,-56,-1,-1,0
38366,3670016,59,-56,-1,-1,0
38400,-1310720,59,-56,-1,-1,0
38433,-589824,59,-56,-1,-1,0
38466,-327680,59,-56,-1,-1,0
38500,131072,59,-56,-1,-1,0
38533,655360,59,-56,-1,-1,0
38566,1769472,59,-56,-1,-1,0
38600,2490368,59,-56,-1,-1,0
38633,589824,59,-56,-1,-1,0
38666,-327680,58,-56,-1,-1,0
38700,-458752,58,-56,-1,-1,0
38733,-393216,58,-56,-1,-1,0
38766,-262144,58,-56,-1,-1,0
38800,-393216,58,-56,-1,-1,0
38833,-458752,58,-56,-1,-1,0
38866,-655360,58,-56,-1,-1,0
38900,-655360,58,-56,-1,-1,0
38933,-589824,58,-56,-1,-1,0
38966,-655360,58,-56,-1,-1,0
39000,-524288,58,-56,-1,-1,0
39033,-458752,58,-56,-1,-1,0
39066,-327680,58,-56,-1,-1,0
39100,-458752,58,-56,-1,-1,0
39133,-720896,58,-56,-1,-1,0
39166,0,58,-56,-1,-1,0
39200,-393216,58,-56,-1,-1,0
39233,-458752,58,-56,-1,-1,0
39266,3080192,58,-56,-1,-1,0
39300,-1179648,58,-56,-1,-1,0
39333,-262144,58,-56,-1,-1,0
39366,-65536,58,-56,-1,-1,0
39400,131072,58,-56,-1,-1,0
39433,786432,58,-56,-1,-1,0
39466,2031616,58,-56,-1,-1,0
39500,2752512,58,-56,-1,-1,0
39533,917504,57,-56,-1,-1,0
39566,-393216,57,-56,-1,-1,0
39600,-589824,57,-56,-1,-1,0
39633,-589824,57,-56,-1,-1,0
39666,-524288,57,-56,-1,-1,0
39700,-655360,57,-56,-1,-1,0
39733,-720896,57,-56,-1,-1,0
39766,-720896,57,-56,-1,-1,0
39800,-786432,57,-56,-1,-1,0
39833,-720896,57,-56,-1,-1,0
39866,-851968,57,-56,-1,-1,0
39900,-786432,57,-56,-1,-1,0
39933,-851968,57,-56,-1,-1,0
39966,-851968,57,-56,-1,-1,0
40000,-917504,57,-56,-1,-1,0
40033,-589824,57,-56,-1,-1,0
40066,-786432,57,-56,-1,-1,0
40100,-917504,57,-56,-1,-1,0
40133,9043968,57,-56,-1,-1,0
40166,-851968,57,-56,-1,-1,0
40200,-393216,57,-56,-1,-1,0
40233,-131072,57,-56,-1,-1,0
40266,131072,57,-56,-1,-1,0
40300,983040,57,-56,-1,-1,0
40333,2359296,57,-56,-1,-1,0
40366,2424832,57,-56,-1,-1,0
40400,196608,57,-56,-1,-1,0
40433,-589824,57,-56,-1,-1,0
40466,-655360,57,-56,-1,-1,0
40500,-393216,57,-56,-1,-1,0
40533,-458752,57,-56,-1,-1,0
40566,-655360,57,-56,-1,-1,0
40600,-589824,57,-56,-1,-1,0
40633,-851968,57,-56,-1,-1,0
40666,-1048576,57,-56,-1,-1,0
40700,-983040,57,-56,-1,-1,0
40733,-917504,57,-56,-1,-1,0
40766,-917504,57,-56,-1,-1,0
40800,-983040,57,-56,-1,-1,0
40833,-917504,57,-56,-1,-1,0
40866,-851968,57,-56,-1,-1,0
40900,-524288,57,-56,-1,-1,0
40933,-983040,57,-56,-1,-1,0
40966,-589824,57,-56,-1,-1,0
41000,7274496,57,-56,-1,-1,0
41033,-1179648,57,-56,-1,-1,0
41066,-327680,57,-56,-1,-1,0
41100,-65536,57,-56,-1,-1,0
41133,0,57,-56,-1,-1,0
41166,720896,57,-56,-1,-1,0
41200,1966080,57,-56,-1,-1,0
41233,2293760,57,-56,-1,-1,0
41266,393216,56,-56,-1,-1,0
41300,-327680,56,-56,-1,-1,0
41333,-327680,56,-56,-1,-1,0
41366,-327680,56,-56,-1,-1,0
41400,-196608,56,-56,-1,-1,0
41433,-393216,56,-56,-1,-1,0
41466,-524288,56,-56,-1,-1,0
41500,-589824,56,-56,-1,-1,0
41533,-589824,56,-56,-1,-1,0
41566,-589824,56,-56,-1,-1,0
41600,-655360,56,-56,-1,-1,0
41633,-524288,56,-56,-1,-1,0
41666,-655360,56,-56,-1,-1,0
41700,-589824,56,-56,-1,-1,0
41733,-655360,56,-56,-1,-1,0
41766,-327680,56,-56,-1,-1,0
41800,-393216,56,-56,-1,-1,0
41833,-589824,56,-56,-1,-1,0
41866,6619136,56,-56,-1,-1,0
41900,-1048576,56,-56,-1,-1,0
41933,-327680,56,-56,-1,-1,0
41966,-65536,56,-56,-1,-1,0
42000,131072,56,-56,-1,-1,0
42033,917504,56,-56,-1,-1,0
42066,2162688,56,-56,-1,-1,0
42100,2555904,56,-56,-1,-1,0
42133,720896,56,-56,-1,-1,0
42166,0,56,-56,-1,-1,0
42200,-65536,56,-56,-1,-1,0
42233,-65536,56,-56,-1,-1,0
42266,-131072,56,-56,-1,-1,0
42300,-65536,56,-56,-1,-1,0
42333,-131072,56,-56,-1,-1,0
42366,-262144,56,-56,-1,-1,0
42400,-131072,56,-56,-1,-1,0
42433,-196608,56,-56,-1,-1,0
42466,-262144,56,-56,-1,-1,0
42500,-393216,56,-56,-1,-1,0
42533,-393216,56,-56,-1,-1,0
42566,-524288,56,-56,-1,-1,0
42600,-524288,56,-56,-1,-1,0
42633,-458752,56,-56,-1,-1,0
42666,-655360,56,-56,-1,-1,0
42700,-655360,56,-56,-1,-1,0
42733,6488064,56,-56,-1,-1,0
42766,-589824,56,-56,-1,-1,0
42800,-327680,56,-56,-1,-1,0
42833,-262144,56,-56,-1,-1,0
42866,196608,56,-56,-1,-1,0
42900,1114112,56,-56,-1,-1,0
42933,2228224,56,-56,-1,-1,0
42966,1638400,56,-56,-1,-1,0
43000,-196608,56,-56,-1,-1,0
43033,-524288,56,-56,-1,-1,0
43066,-589824,56,-56,-1,-1,0
43100,-786432,56,-56,-1,-1,0
43133,-720896,56,-56,-1,-1,0
43166,-655360,56,-56,-1,-1,0
43200,-720896,56,-56,-1,-1,0
43233,-786432,56,-56,-1,-1,0
43266,-589824,56,-56,-1,-1,0
43300,-851968,56,-56,-1,-1,0
43333,-720896,56,-56,-1,-1,0
43366,-786432,56,-56,-1,-1,0
43400,-655360,56,-56,-1,-1,0
43433,-786432,56,-56,-1,-1,0
43466,-327680,56,-56,-1,-1,0
43500,3735552,56,-56,-1,-1,0
43533,-589824,56,-56,-1,-1,0
43566,-393216,56,-56,-1,-1,0
43600,-262144,56,-56,-1,-1,0
43633,65536,56,-56,-1,-1,0
43666,1114112,56,-56,-1,-1,0
43700,2097152,56,-56,-1,-1,0
43733,917504,56,-56,-1,-1,0
43766,-393216,56,-56,-1,-1,0
43800,-720896,56,-56,-1,-1,0
43833,-655360,56,-56,-1,-1,0
43866,-589824,56,-56,-1,-1,0
43900,-524288,56,-56,-1,-1,0
43933,-589824,56,-56,-1,-1,0
43966,-720896,56,-56,-1,-1,0
44000,-655360,56,-56,-1,-1,0
44033,-655360,56,-56,-1,-1,0
44066,-786432,56,-56,-1,-1,0
44100,-983040,56,-56,-1,-1,0
44133,-720896,56,-56,-1,-1,0
44166,-655360,56,-56,-1,-1,0
44200,-786432,56,-56,-1,-1,0
44233,-327680,56,-56,-1,-1,0
44266,4063232,56,-56,-1,-1,0
44300,-524288,56,-56,-1,-1,0
44333,-524288,56,-56,-1,-1,0
44366,-327680,56,-56,-1,-1,0
44400,196608,56,-56,-1,-1,0
44433,1114112,57,-56,-1,-1,0
44466,2162688,57,-56,-1,-1,0
44500,983040,57,-56,-1,-1,0
44533,-458752,57,-56,-1,-1,0
44566,-524288,57,-56,-1,-1,0
44600,-524288,57,-56,-1,-1,0
44633,-458752,57,-56,-1,-1,0
44666,-655360,57,-56,-1,-1,0
44700,-720896,57,-56,-1,-1,0
44733,-786432,57,-56,-1,-1,0
44766,-786432,57,-56,-1,-1,0
44800,-720896,57,-56,-1,-1,0
44833,-655360,57,-56,-1,-1,0
44866,-786432,57,-56,-1,-1,0
44900,-917504,57,-56,-1,-1,0
44933,-327680,57,-56,-1,-1,0
44966,-655360,57,-56,-1,-1,0
45000,-655360,57,-56,-1,-1,0
45033,196608,57,-56,-1,-1,0
45066,2031616,57,-56,-1,-1,0
45100,-458752,57,-56,-1,-1,0
45133,-196608,57,-56,-1,-1,0
45166,0,57,-56,-1,-1,0
45200,524288,57,-56,-1,-1,0
45233,1638400,57,-56,-1,-1,0
45266,2555904,58,-56,-1,-1,0
45300,1179648,58,-56,-1,-1,0
45333,-196608,58,-56,-1,-1,0
45366,-393216,58,-56,-1,-1,0
45400,-327680,58,-56,-1,-1,0
45433,-393216,58,-56,-1,-1,0
45466,-458752,58,-56,-1,-1,0
45500,-524288,58,-56,-1,-1,0
45533,-458752,58,-56,-1,-1,0
45566,-524288,58,-56,-1,-1,0
45600,-655360,58,-56,-1,-1,0
45633,-524288,58,-56,-1,-1,0
45666,-655360,58,-56,-1,-1,0
45700,-655360,58,-56,-1,-1,0
45733,-655360,58,-56,-1,-1,0
45766,-327680,58,-56,-1,-1,0
45800,-524288,58,-56,-1,-1,0
45833,-655360,58,-56,-1,-1,0
45866,7340032,58,-56,-1,-1,0
45900,-1114112,58,-56,-1,-1,0
45933,-327680,58,-56,-1,-1,0
45966,-131072,58,-56,-1,-1,0
46000,0,58,-56,-1,-1,0
46033,655360,58,-56,-1,-1,0
46066,1769472,58,-56,-1,-1,0
46100,1966080,58,-56,-1,-1,0
46133,196608,58,-56,-1,-1,0
46166,-393216,58,-56,-1,-1,0
46200,-327680,58,-56,-1,-1,0
46233,-393216,58,-56,-1,-1,0
46266,-458752,58,-56,-1,-1,0
46300,-458752,58,-56,-1,-1,0
46333,-524288,58,-56,-1,-1,0
46366,-589824,58,-56,-1,-1,0
46400,-524288,58,-56,-1,-1,0
46433,-393216,58,-56,-1,-1,0
46466,-393216,58,-56,-1,-1,0
46500,-458752,58,-56,-1,-1,0
46533,-393216,58,-56,-1,-1,0
46566,-458752,58,-56,-1,-1,0
46600,-196608,58,-56,-1,-1,0
46633,-524288,58,-56,-1,-1,0
46666,-786432,58,-56,-1,-1,0
46700,7143424,58,-56,-1,-1,0
46733,-917504,58,-56,-1,-1,0
46766,-327680,58,-56,-1,-1,0
46800,-131072,58,-56,-1,-1,0
46833,262144,58,-56,-1,-1,0
46866,983040,58,-56,-1,-1,0
46900,1835008,58,-56,-1,-1,0
46933,1966080,59,-56,-1,-1,0
46966,196608,59,-56,-1,-1,0
47000,-393216,59,-56,-1,-1,0
47033,-458752,59,-56,-1,-1,0
47066,-524288,59,-56,-1,-1,0
47100,-524288,59,-56,-1,-1,0
47133,-524288,59,-56,-1,-1,0
47166,-524288,59,-56,-1,-1,0
47200,-589824,59,-56,-1,-1,0
47233,-655360,59,-56,-1,-1,0
47266,-720896,59,-56,-1,-1,0
47300,-655360,59,-56,-1,-1,0
47333,-524288,59,-56,-1,-1,0
47366,-458752,59,-56,-1,-1,0
47400,-524288,59,-56,-1,-1,0
47433,-196608,59,-56,-1,-1,0
47466,-393216,59,-56,-1,-1,0
47500,-327680,59,-56,-1,-1,0
47533,4128768,59,-56,-1,-1,0
47566,-1900544,59,-56,-1,-1,0
47600,-393216,59,-56,-1,-1,0
47633,-262144,59,-56,-1,-1,0
47666,131072,59,-56,-1,-1,0
47700,655360,59,-56,-1,-1,0
47733,1769472,59,-56,-1,-1,0
47766,2162688,59,-56,-1,-1,0
47800,393216,59,-56,-1,-1,0
47833,-458752,59,-56,-1,-1,0
47866,-524288,59,-56,-1,-1,0
47900,-655360,59,-56,-1,-1,0
47933,-720896,59,-56,-1,-1,0
47966,-524288,59,-56,-1,-1,0
48000,-655360,59,-56,-1,-1,0
48033,-720896,59,-56,-1,-1,0
48066,-655360,59,-56,-1,-1,0
48100,-720896,59,-56,-1,-1,0
48133,-720896,59,-56,-1,-1,0
48166,-720896,59,-56,-1,-1,0
48200,-393216,59,-56,-1,-1,0
48233,-458752,59,-56,-1,-1,0
48266,-458752,59,-56,-1,-1,0
48300,720896,59,-56,-1,-1,0
48333,1179648,59,-56,-1,-1,0
48366,-589824,59,-56,-1,-1,0
48400,-524288,59,-56,-1,-1,0
48433,-327680,59,-56,-1,-1,0
48466,196608,59,-56,-1,-1,0
48500,1310720,60,-56,-1,-1,0
48533,2228224,60,-56,-1,-1,0
48566,1048576,60,-56,-1,-1,0
48600,0,60,-56,-1,-1,0
48633,-327680,60,-56,-1,-1,0
48666,-262144,60,-56,-1,-1,0
48700,-393216,60,-56,-1,-1,0
48733,-327680,60,-56,-1,-1,0
48766,-524288,60,-56,-1,-1,0
48800,-589824,60,-56,-1,-1,0
48833,-589824,60,-56,-1,-1,0
48866,-786432,60,-56,-1,-1,0
48900,-851968,60,-56,-1,-1,0
48933,-851968,60,-56,-1,-1,0
48966,-917504,60,-56,-1,-1,0
49000,-524288,60,-56,-1,-1,0
49033,-655360,60,-56,-1,-1,0
49066,-786432,60,-56,-1,-1,0
49100,2293760,60,-56,-1,-1,0
49133,-917504,60,-56,-1,-1,0
49166,-589824,60,-56,-1,-1,0
49200,-327680,60,-56,-1,-1,0
49233,65536,60,-56,-1,-1,0
49266,524288,60,-56,-1,-1,0
49300,1572864,60,-56,-1,-1,0
49333,2097152,61,-56,-1,-1,0
49366,589824,61,-56,-1,-1,0
49400,-458752,61,-56,-1,-1,0
49433,-786432,61,-56,-1,-1,0
49466,-458752,61,-56,-1,-1,0
49500,-458752,61,-56,-1,-1,0
49533,-589824,61,-56,-1,-1,0
49566,-589824,61,-56,-1,-1,0
49600,-655360,61,-56,-1,-1,0
49633,-655360,61,-56,-1,-1,0
49666,-720896,61,-56,-1,-1,0
49700,-655360,61,-56,-1,-1,0
49733,-589824,61,-56,-1,-1,0
49766,-655360,61,-56,-1,-1,0
49800,-786432,61,-56,-1,-1,0
49833,-524288,61,-56,-1,-1,0
49866,-786432,61,-56,-1,-1,0
49900,-786432,61,-56,-1,-1,0
49933,8454144,61,-56,-1,-1,0
49966,-720896,61,-56,-1,-1,0
50000,-327680,61,-56,-1,-1,0
