milliseconds, ECG, ECG HR, PPG, PPG HR, SpO2, PI
1523611647875,0,60,-56,-1,-1,0
1523611647875,65536,60,-56,-1,-1,0
1523611647875,65536,60,-56,-1,-1,0
1523611647875,262144,60,-56,-1,-1,0
1523611647875,589824,60,-56,-1,-1,0
1523611647924,720896,60,-56,-1,-1,0
1523611647924,524288,60,-56,-1,-1,0
1523611647924,393216,60,-56,-1,-1,0
1523611647924,458752,60,-56,-1,-1,0
1523611647924,720896,60,-56,-1,-1,0
1523611647955,1179648,60,-56,-1,-1,0
1523611647955,1441792,60,-56,-1,-1,0
1523611647955,1638400,60,-56,-1,-1,0
1523611647955,1900544,60,-56,-1,-1,0
1523611647955,2162688,60,-56,-1,-1,0
1523611647995,2424832,60,-56,-1,-1,0
1523611647995,2621440,60,-56,-1,-1,0
1523611647995,2752512,60,-56,-1,-1,0
1523611647995,2883584,60,-56,-1,-1,0
1523611647995,2621440,60,-56,-1,-1,0
1523611648035,2162688,60,-56,-1,-1,0
1523611648035,1703936,60,-56,-1,-1,0
1523611648035,1310720,60,-56,-1,-1,0
1523611648035,917504,60,-56,-1,-1,0
1523611648035,589824,60,-56,-1,-1,0
1523611648075,196608,60,-56,-1,-1,0
1523611648075,-65536,60,-56,-1,-1,0
1523611648075,-327680,60,-56,-1,-1,0
1523611648075,-393216,60,-56,-1,-1,0
1523611648075,-524288,60,-56,-1,-1,0
1523611648115,-720896,60,-56,-1,-1,0
1523611648115,-851968,60,-56,-1,-1,0
1523611648115,-851968,60,-56,-1,-1,0
1523611648115,-851968,60,-56,-1,-1,0
1523611648115,-786432,60,-56,-1,-1,0
1523611648155,-720896,60,-56,-1,-1,0
1523611648155,-655360,60,-56,-1,-1,0
1523611648155,-720896,60,-56,-1,-1,0
1523611648155,-655360,60,-56,-1,-1,0
1523611648155,-655360,60,-56,-1,-1,0
1523611648195,-720896,60,-56,-1,-1,0
1523611648195,-851968,60,-56,-1,-1,0
1523611648195,-851968,60,-56,-1,-1,0
1523611648195,-655360,60,-56,-1,-1,0
1523611648195,-655360,60,-56,-1,-1,0
1523611648235,-655360,60,-56,-1,-1,0
1523611648235,-655360,60,-56,-1,-1,0
1523611648235,-524288,60,-56,-1,-1,0
1523611648235,-262144,60,-56,-1,-1,0
1523611648235,-327680,60,-56,-1,-1,0
1523611648275,-589824,60,-56,-1,-1,0
1523611648275,-851968,60,-56,-1,-1,0
1523611648275,-851968,60,-56,-1,-1,0
1523611648275,-786432,60,-56,-1,-1,0
1523611648275,-589824,60,-56,-1,-1,0
1523611648315,-589824,60,-56,-1,-1,0
1523611648315,-524288,60,-56,-1,-1,0
1523611648315,-393216,60,-56,-1,-1,0
1523611648315,-524288,60,-56,-1,-1,0
1523611648315,-917504,60,-56,-1,-1,0
1523611648355,-983040,60,-56,-1,-1,0
1523611648355,-786432,60,-56,-1,-1,0
1523611648355,-655360,60,-56,-1,-1,0
1523611648355,-720896,60,-56,-1,-1,0
1523611648355,-655360,60,-56,-1,-1,0
1523611648395,-720896,60,-56,-1,-1,0
1523611648395,-720896,60,-56,-1,-1,0
1523611648395,-655360,60,-56,-1,-1,0
1523611648395,-524288,60,-56,-1,-1,0
1523611648395,-327680,60,-56,-1,-1,0
1523611648435,-393216,60,-56,-1,-1,0
1523611648435,-786432,60,-56,-1,-1,0
1523611648435,-1114112,60,-56,-1,-1,0
1523611648435,-1048576,60,-56,-1,-1,0
1523611648435,-786432,60,-56,-1,-1,0
1523611648475,-524288,60,-56,-1,-1,0
1523611648475,-393216,60,-56,-1,-1,0
1523611648475,-393216,60,-56,-1,-1,0
1523611648475,-262144,60,-56,-1,-1,0
1523611648475,-327680,60,-56,-1,-1,0
1523611648515,-655360,60,-56,-1,-1,0
1523611648515,-589824,60,-56,-1,-1,0
1523611648515,-524288,60,-56,-1,-1,0
1523611648515,-524288,60,-56,-1,-1,0
1523611648515,-720896,60,-56,-1,-1,0
1523611648564,-524288,60,-56,-1,-1,0
1523611648564,-327680,60,-56,-1,-1,0
1523611648564,-262144,60,-56,-1,-1,0
1523611648564,-327680,60,-56,-1,-1,0
1523611648564,-262144,60,-56,-1,-1,0
1523611648595,-196608,60,-56,-1,-1,0
1523611648595,-196608,60,-56,-1,-1,0
1523611648595,-196608,60,-56,-1,-1,0
1523611648595,-65536,60,-56,-1,-1,0
1523611648595,-131072,60,-56,-1,-1,0
1523611648635,-458752,60,-56,-1,-1,0
1523611648635,-720896,60,-56,-1,-1,0
1523611648635,-786432,60,-56,-1,-1,0
1523611648635,-851968,60,-56,-1,-1,0
1523611648635,-720896,60,-56,-1,-1,0
1523611648675,524288,60,-56,-1,-1,0
1523611648675,3604480,60,-56,-1,-1,0
1523611648675,7143424,60,-56,-1,-1,0
1523611648675,8519680,60,-56,-1,-1,0
1523611648675,5505024,60,-56,-1,-1,0
1523611648715,983040,60,-56,-1,-1,0
1523611648715,-1179648,60,-56,-1,-1,0
1523611648715,-1048576,60,-56,-1,-1,0
1523611648715,-720896,60,-56,-1,-1,0
1523611648715,-589824,60,-56,-1,-1,0
1523611648755,-393216,60,-56,-1,-1,0
1523611648755,-262144,60,-56,-1,-1,0
1523611648755,-131072,60,-56,-1,-1,0
1523611648755,-131072,60,-56,-1,-1,0
1523611648755,-196608,60,-56,-1,-1,0
1523611648795,-327680,60,-56,-1,-1,0
1523611648795,-262144,60,-56,-1,-1,0
1523611648795,-196608,60,-56,-1,-1,0
1523611648795,-65536,60,-56,-1,-1,0
1523611648795,-65536,60,-56,-1,-1,0
1523611648835,-131072,60,-56,-1,-1,0
1523611648835,-131072,60,-56,-1,-1,0
1523611648835,0,60,-56,-1,-1,0
1523611648835,196608,60,-56,-1,-1,0
1523611648835,393216,60,-56,-1,-1,0
1523611648875,458752,60,-56,-1,-1,0
1523611648875,655360,60,-56,-1,-1,0
1523611648875,917504,60,-56,-1,-1,0
1523611648875,1245184,60,-56,-1,-1,0
1523611648875,1376256,60,-56,-1,-1,0
1523611648915,1572864,60,-56,-1,-1,0
1523611648915,1769472,60,-56,-1,-1,0
1523611648915,1966080,60,-56,-1,-1,0
1523611648915,2293760,60,-56,-1,-1,0
1523611648915,2490368,60,-56,-1,-1,0
1523611648955,2424832,60,-56,-1,-1,0
1523611648955,2162688,60,-56,-1,-1,0
1523611648955,1966080,60,-56,-1,-1,0
1523611648955,1769472,60,-56,-1,-1,0
1523611648955,1376256,60,-56,-1,-1,0
1523611648995,851968,60,-56,-1,-1,0
1523611648995,524288,60,-56,-1,-1,0
1523611648995,196608,60,-56,-1,-1,0
1523611648995,-65536,60,-56,-1,-1,0
1523611648995,-262144,60,-56,-1,-1,0
1523611649035,-393216,60,-56,-1,-1,0
1523611649035,-327680,60,-56,-1,-1,0
1523611649035,-393216,60,-56,-1,-1,0
1523611649035,-524288,60,-56,-1,-1,0
1523611649035,-524288,60,-56,-1,-1,0
1523611649075,-393216,60,-56,-1,-1,0
1523611649075,-655360,60,-56,-1,-1,0
1523611649075,-786432,60,-56,-1,-1,0
1523611649075,-655360,60,-56,-1,-1,0
1523611649075,-458752,60,-56,-1,-1,0
1523611649116,-393216,60,-56,-1,-1,0
1523611649116,-458752,60,-56,-1,-1,0
1523611649116,-458752,60,-56,-1,-1,0
1523611649116,-393216,60,-56,-1,-1,0
1523611649116,-327680,60,-56,-1,-1,0
1523611649155,-196608,60,-56,-1,-1,0
1523611649155,-131072,60,-56,-1,-1,0
1523611649155,-196608,60,-56,-1,-1,0
1523611649155,-327680,60,-56,-1,-1,0
1523611649155,-196608,60,-56,-1,-1,0
1523611649204,-131072,60,-56,-1,-1,0
1523611649204,-196608,60,-56,-1,-1,0
1523611649204,-458752,60,-56,-1,-1,0
1523611649204,-655360,60,-56,-1,-1,0
1523611649204,-655360,60,-56,-1,-1,0
1523611649235,-720896,60,-56,-1,-1,0
1523611649235,-851968,60,-56,-1,-1,0
1523611649235,-786432,60,-56,-1,-1,0
1523611649235,-589824,60,-56,-1,-1,0
1523611649235,-458752,60,-56,-1,-1,0
1523611649275,-524288,60,-56,-1,-1,0
1523611649275,-524288,60,-56,-1,-1,0
1523611649275,-589824,60,-56,-1,-1,0
1523611649275,-524288,60,-56,-1,-1,0
1523611649275,-524288,60,-56,-1,-1,0
1523611649315,-589824,60,-56,-1,-1,0
1523611649315,-655360,60,-56,-1,-1,0
1523611649315,-589824,60,-56,-1,-1,0
1523611649315,-458752,60,-56,-1,-1,0
1523611649315,-589824,60,-56,-1,-1,0
1523611649355,-655360,60,-56,-1,-1,0
1523611649355,-655360,60,-56,-1,-1,0
1523611649355,-655360,60,-56,-1,-1,0
1523611649355,-786432,60,-56,-1,-1,0
1523611649355,-917504,60,-56,-1,-1,0
1523611649395,-917504,60,-56,-1,-1,0
1523611649395,-983040,60,-56,-1,-1,0
1523611649395,-983040,60,-56,-1,-1,0
1523611649395,-851968,60,-56,-1,-1,0
1523611649395,-786432,60,-56,-1,-1,0
1523611649435,-917504,60,-56,-1,-1,0
1523611649435,-983040,60,-56,-1,-1,0
1523611649435,-917504,60,-56,-1,-1,0
1523611649435,-917504,60,-56,-1,-1,0
1523611649435,-1048576,60,-56,-1,-1,0
1523611649475,-1114112,60,-56,-1,-1,0
1523611649475,-1048576,60,-56,-1,-1,0
1523611649475,-917504,60,-56,-1,-1,0
1523611649475,-720896,60,-56,-1,-1,0
1523611649475,-589824,60,-56,-1,-1,0
1523611649515,-524288,60,-56,-1,-1,0
1523611649515,-589824,60,-56,-1,-1,0
1523611649515,-655360,60,-56,-1,-1,0
1523611649515,-655360,60,-56,-1,-1,0
1523611649515,-655360,60,-56,-1,-1,0
1523611649555,-458752,60,-56,-1,-1,0
1523611649555,-458752,60,-56,-1,-1,0
1523611649555,-589824,60,-56,-1,-1,0
1523611649555,-655360,60,-56,-1,-1,0
1523611649555,-655360,60,-56,-1,-1,0
1523611649595,-655360,60,-56,-1,-1,0
1523611649595,-720896,60,-56,-1,-1,0
1523611649595,-524288,60,-56,-1,-1,0
1523611649595,786432,60,-56,-1,-1,0
1523611649595,3801088,60,-56,-1,-1,0
1523611649635,7471104,60,-56,-1,-1,0
1523611649635,8650752,60,-56,-1,-1,0
1523611649635,5373952,60,-56,-1,-1,0
1523611649635,655360,60,-56,-1,-1,0
1523611649635,-1507328,60,-56,-1,-1,0
1523611649675,-1245184,60,-56,-1,-1,0
1523611649675,-589824,60,-56,-1,-1,0
1523611649675,-327680,60,-56,-1,-1,0
1523611649675,-327680,60,-56,-1,-1,0
1523611649675,-262144,60,-56,-1,-1,0
1523611649715,-262144,60,-56,-1,-1,0
1523611649715,-393216,60,-56,-1,-1,0
1523611649715,-524288,60,-56,-1,-1,0
1523611649715,-524288,60,-56,-1,-1,0
1523611649715,-524288,60,-56,-1,-1,0
1523611649755,-589824,60,-56,-1,-1,0
1523611649755,-589824,60,-56,-1,-1,0
1523611649755,-524288,60,-56,-1,-1,0
1523611649755,-393216,60,-56,-1,-1,0
1523611649755,-131072,60,-56,-1,-1,0
1523611649795,0,61,-56,-1,-1,0
1523611649795,0,61,-56,-1,-1,0
1523611649795,0,61,-56,-1,-1,0
1523611649795,65536,61,-56,-1,-1,0
1523611649795,458752,61,-56,-1,-1,0
1523611649844,786432,61,-56,-1,-1,0
1523611649844,917504,61,-56,-1,-1,0
1523611649844,1048576,61,-56,-1,-1,0
1523611649844,1376256,61,-56,-1,-1,0
1523611649844,1703936,61,-56,-1,-1,0
1523611649875,1966080,61,-56,-1,-1,0
1523611649875,2031616,61,-56,-1,-1,0
1523611649875,2162688,61,-56,-1,-1,0
1523611649875,2359296,61,-56,-1,-1,0
1523611649875,2359296,61,-56,-1,-1,0
1523611649915,2162688,61,-56,-1,-1,0
1523611649915,1835008,61,-56,-1,-1,0
1523611649915,1310720,61,-56,-1,-1,0
1523611649915,786432,61,-56,-1,-1,0
1523611649915,458752,61,-56,-1,-1,0
1523611649955,131072,61,-56,-1,-1,0
1523611649955,-131072,61,-56,-1,-1,0
1523611649955,-524288,61,-56,-1,-1,0
1523611649955,-720896,61,-56,-1,-1,0
1523611649955,-720896,61,-56,-1,-1,0
1523611649995,-786432,61,-56,-1,-1,0
1523611649995,-786432,61,-56,-1,-1,0
1523611649995,-786432,61,-56,-1,-1,0
1523611649995,-655360,61,-56,-1,-1,0
1523611649995,-589824,61,-56,-1,-1,0
1523611650035,-458752,61,-56,-1,-1,0
1523611650035,-458752,61,-56,-1,-1,0
1523611650035,-458752,61,-56,-1,-1,0
1523611650035,-458752,61,-56,-1,-1,0
1523611650035,-196608,61,-56,-1,-1,0
1523611650075,-65536,61,-56,-1,-1,0
1523611650075,-65536,61,-56,-1,-1,0
1523611650075,-196608,61,-56,-1,-1,0
1523611650075,-196608,61,-56,-1,-1,0
1523611650075,-196608,61,-56,-1,-1,0
1523611650115,-196608,61,-56,-1,-1,0
1523611650115,-262144,61,-56,-1,-1,0
1523611650115,-196608,61,-56,-1,-1,0
1523611650115,-65536,61,-56,-1,-1,0
1523611650115,0,61,-56,-1,-1,0
1523611650155,65536,61,-56,-1,-1,0
1523611650155,0,61,-56,-1,-1,0
1523611650155,0,61,-56,-1,-1,0
1523611650155,-196608,61,-56,-1,-1,0
1523611650155,-327680,61,-56,-1,-1,0
1523611650195,-458752,61,-56,-1,-1,0
1523611650195,-458752,61,-56,-1,-1,0
1523611650195,-524288,61,-56,-1,-1,0
1523611650195,-720896,61,-56,-1,-1,0
1523611650195,-851968,61,-56,-1,-1,0
1523611650235,-851968,61,-56,-1,-1,0
1523611650235,-786432,61,-56,-1,-1,0
1523611650235,-983040,61,-56,-1,-1,0
1523611650235,-1179648,61,-56,-1,-1,0
1523611650235,-1245184,61,-56,-1,-1,0
1523611650275,-1245184,61,-56,-1,-1,0
1523611650275,-1114112,61,-56,-1,-1,0
1523611650275,-851968,61,-56,-1,-1,0
1523611650275,-458752,61,-56,-1,-1,0
1523611650275,-131072,61,-56,-1,-1,0
1523611650315,65536,61,-56,-1,-1,0
1523611650315,196608,61,-56,-1,-1,0
1523611650315,196608,61,-56,-1,-1,0
1523611650315,131072,61,-56,-1,-1,0
1523611650315,65536,61,-56,-1,-1,0
1523611650355,65536,61,-56,-1,-1,0
1523611650355,65536,61,-56,-1,-1,0
1523611650355,65536,61,-56,-1,-1,0
1523611650355,131072,61,-56,-1,-1,0
1523611650355,131072,61,-56,-1,-1,0
1523611650395,65536,61,-56,-1,-1,0
1523611650395,65536,61,-56,-1,-1,0
1523611650395,65536,61,-56,-1,-1,0
1523611650395,0,61,-56,-1,-1,0
1523611650395,-131072,61,-56,-1,-1,0
1523611650435,-131072,61,-56,-1,-1,0
1523611650435,-131072,61,-56,-1,-1,0
1523611650435,-131072,61,-56,-1,-1,0
1523611650435,-196608,61,-56,-1,-1,0
1523611650435,-393216,61,-56,-1,-1,0
1523611650484,-589824,61,-56,-1,-1,0
1523611650484,-720896,61,-56,-1,-1,0
1523611650484,-786432,61,-56,-1,-1,0
1523611650484,0,61,-56,-1,-1,0
1523611650484,2293760,61,-56,-1,-1,0
1523611650515,6094848,61,-56,-1,-1,0
1523611650515,9043968,61,-56,-1,-1,0
1523611650515,7733248,61,-56,-1,-1,0
1523611650515,2949120,61,-56,-1,-1,0
1523611650515,-786432,61,-56,-1,-1,0
1523611650555,-1245184,61,-56,-1,-1,0
1523611650555,-589824,61,-56,-1,-1,0
1523611650555,-327680,61,-56,-1,-1,0
1523611650555,-196608,61,-56,-1,-1,0
1523611650555,-65536,61,-56,-1,-1,0
1523611650595,65536,61,-56,-1,-1,0
1523611650595,196608,61,-56,-1,-1,0
1523611650595,196608,61,-56,-1,-1,0
1523611650595,262144,61,-56,-1,-1,0
1523611650595,327680,61,-56,-1,-1,0
1523611650635,327680,61,-56,-1,-1,0
1523611650635,262144,61,-56,-1,-1,0
1523611650635,262144,61,-56,-1,-1,0
1523611650635,196608,61,-56,-1,-1,0
1523611650635,196608,61,-56,-1,-1,0
1523611650675,262144,61,-56,-1,-1,0
1523611650675,327680,61,-56,-1,-1,0
1523611650675,327680,61,-56,-1,-1,0
1523611650675,327680,61,-56,-1,-1,0
1523611650675,393216,61,-56,-1,-1,0
1523611650715,458752,62,-56,-1,-1,0
1523611650715,524288,62,-56,-1,-1,0
1523611650715,720896,62,-56,-1,-1,0
1523611650715,917504,62,-56,-1,-1,0
1523611650715,1114112,62,-56,-1,-1,0
1523611650755,1376256,62,-56,-1,-1,0
1523611650755,1703936,62,-56,-1,-1,0
1523611650755,1835008,62,-56,-1,-1,0
1523611650755,1835008,62,-56,-1,-1,0
1523611650755,1769472,62,-56,-1,-1,0
1523611650795,1703936,62,-56,-1,-1,0
1523611650795,1507328,62,-56,-1,-1,0
1523611650795,1114112,62,-56,-1,-1,0
1523611650795,786432,62,-56,-1,-1,0
1523611650795,393216,62,-56,-1,-1,0
1523611650835,65536,62,-56,-1,-1,0
1523611650835,-131072,62,-56,-1,-1,0
1523611650835,-327680,62,-56,-1,-1,0
1523611650835,-524288,62,-56,-1,-1,0
1523611650835,-720896,62,-56,-1,-1,0
1523611650875,-786432,62,-56,-1,-1,0
1523611650875,-655360,62,-56,-1,-1,0
1523611650875,-655360,62,-56,-1,-1,0
1523611650875,-655360,62,-56,-1,-1,0
1523611650875,-655360,62,-56,-1,-1,0
1523611650915,-655360,62,-56,-1,-1,0
1523611650915,-655360,62,-56,-1,-1,0
1523611650915,-589824,62,-56,-1,-1,0
1523611650915,-589824,62,-56,-1,-1,0
1523611650915,-655360,62,-56,-1,-1,0
1523611650955,-720896,62,-56,-1,-1,0
1523611650955,-720896,62,-56,-1,-1,0
1523611650955,-851968,62,-56,-1,-1,0
1523611650955,-917504,62,-56,-1,-1,0
1523611650955,-983040,62,-56,-1,-1,0
1523611650995,-1048576,62,-56,-1,-1,0
1523611650995,-1114112,62,-56,-1,-1,0
1523611650995,-1179648,62,-56,-1,-1,0
1523611650995,-1179648,62,-56,-1,-1,0
1523611650995,-1179648,62,-56,-1,-1,0
1523611651035,-1179648,62,-56,-1,-1,0
1523611651035,-1179648,62,-56,-1,-1,0
1523611651035,-1179648,62,-56,-1,-1,0
1523611651035,-1114112,62,-56,-1,-1,0
1523611651035,-1048576,62,-56,-1,-1,0
1523611651075,-1048576,62,-56,-1,-1,0
1523611651075,-1048576,62,-56,-1,-1,0
1523611651075,-1048576,62,-56,-1,-1,0
1523611651075,-1048576,62,-56,-1,-1,0
1523611651075,-1114112,62,-56,-1,-1,0
1523611651124,-1048576,62,-56,-1,-1,0
1523611651124,-983040,62,-56,-1,-1,0
1523611651124,-917504,62,-56,-1,-1,0
1523611651124,-917504,62,-56,-1,-1,0
1523611651124,-917504,62,-56,-1,-1,0
1523611651155,-851968,62,-56,-1,-1,0
1523611651155,-851968,62,-56,-1,-1,0
1523611651155,-851968,62,-56,-1,-1,0
1523611651155,-786432,62,-56,-1,-1,0
1523611651155,-786432,62,-56,-1,-1,0
1523611651195,-786432,62,-56,-1,-1,0
1523611651195,-720896,62,-56,-1,-1,0
1523611651195,-720896,62,-56,-1,-1,0
1523611651195,-720896,62,-56,-1,-1,0
1523611651195,-786432,62,-56,-1,-1,0
1523611651235,-917504,62,-56,-1,-1,0
1523611651235,-983040,62,-56,-1,-1,0
1523611651235,-983040,62,-56,-1,-1,0
1523611651235,-917504,62,-56,-1,-1,0
1523611651235,-917504,62,-56,-1,-1,0
1523611651275,-851968,62,-56,-1,-1,0
1523611651275,-786432,62,-56,-1,-1,0
1523611651275,-655360,62,-56,-1,-1,0
1523611651275,-655360,62,-56,-1,-1,0
1523611651275,-720896,62,-56,-1,-1,0
1523611651315,-851968,62,-56,-1,-1,0
1523611651315,-983040,62,-56,-1,-1,0
1523611651315,-1179648,62,-56,-1,-1,0
1523611651315,-1310720,62,-56,-1,-1,0
1523611651315,-1376256,62,-56,-1,-1,0
1523611651355,-1376256,62,-56,-1,-1,0
1523611651355,-1245184,62,-56,-1,-1,0
1523611651355,-1179648,62,-56,-1,-1,0
1523611651355,-1114112,62,-56,-1,-1,0
1523611651355,-1114112,62,-56,-1,-1,0
1523611651395,-1114112,62,-56,-1,-1,0
1523611651395,-655360,62,-56,-1,-1,0
1523611651395,1048576,62,-56,-1,-1,0
1523611651395,4653056,62,-56,-1,-1,0
1523611651395,8388608,62,-56,-1,-1,0
1523611651435,9306112,62,-56,-1,-1,0
1523611651435,5439488,62,-56,-1,-1,0
1523611651435,589824,62,-56,-1,-1,0
1523611651435,-1310720,62,-56,-1,-1,0
1523611651435,-1048576,62,-56,-1,-1,0
1523611651475,-589824,62,-56,-1,-1,0
1523611651475,-524288,62,-56,-1,-1,0
1523611651475,-524288,62,-56,-1,-1,0
1523611651475,-458752,62,-56,-1,-1,0
1523611651475,-458752,62,-56,-1,-1,0
1523611651515,-524288,62,-56,-1,-1,0
1523611651515,-524288,62,-56,-1,-1,0
1523611651515,-524288,62,-56,-1,-1,0
1523611651515,-524288,62,-56,-1,-1,0
1523611651515,-589824,62,-56,-1,-1,0
1523611651555,-589824,62,-56,-1,-1,0
1523611651555,-524288,62,-56,-1,-1,0
1523611651555,-458752,62,-56,-1,-1,0
1523611651555,-327680,62,-56,-1,-1,0
1523611651555,-131072,62,-56,-1,-1,0
1523611651596,0,62,-56,-1,-1,0
1523611651596,131072,62,-56,-1,-1,0
1523611651596,327680,62,-56,-1,-1,0
1523611651596,589824,62,-56,-1,-1,0
1523611651596,917504,62,-56,-1,-1,0
1523611651635,1245184,63,-56,-1,-1,0
1523611651635,1507328,63,-56,-1,-1,0
1523611651635,1769472,63,-56,-1,-1,0
1523611651635,2097152,63,-56,-1,-1,0
1523611651635,2228224,63,-56,-1,-1,0
1523611651675,2359296,63,-56,-1,-1,0
1523611651675,2424832,63,-56,-1,-1,0
1523611651675,2424832,63,-56,-1,-1,0
1523611651675,2424832,63,-56,-1,-1,0
1523611651675,2228224,63,-56,-1,-1,0
1523611651715,1835008,63,-56,-1,-1,0
1523611651715,1376256,63,-56,-1,-1,0
1523611651715,917504,63,-56,-1,-1,0
1523611651715,589824,63,-56,-1,-1,0
1523611651715,262144,63,-56,-1,-1,0
1523611651764,0,63,-56,-1,-1,0
1523611651764,-393216,63,-56,-1,-1,0
1523611651764,-720896,63,-56,-1,-1,0
1523611651764,-917504,63,-56,-1,-1,0
1523611651764,-917504,63,-56,-1,-1,0
1523611651795,-851968,63,-56,-1,-1,0
1523611651795,-720896,63,-56,-1,-1,0
1523611651795,-524288,63,-56,-1,-1,0
1523611651795,-327680,63,-56,-1,-1,0
1523611651795,-131072,63,-56,-1,-1,0
1523611651835,0,63,-56,-1,-1,0
1523611651835,131072,63,-56,-1,-1,0
1523611651835,196608,63,-56,-1,-1,0
1523611651835,196608,63,-56,-1,-1,0
1523611651835,196608,63,-56,-1,-1,0
1523611651875,65536,63,-56,-1,-1,0
1523611651875,-65536,63,-56,-1,-1,0
1523611651875,-262144,63,-56,-1,-1,0
1523611651875,-458752,63,-56,-1,-1,0
1523611651875,-589824,63,-56,-1,-1,0
1523611651915,-786432,63,-56,-1,-1,0
1523611651915,-917504,63,-56,-1,-1,0
1523611651915,-917504,63,-56,-1,-1,0
1523611651915,-851968,63,-56,-1,-1,0
1523611651915,-851968,63,-56,-1,-1,0
1523611651955,-851968,63,-56,-1,-1,0
1523611651955,-786432,63,-56,-1,-1,0
1523611651955,-720896,63,-56,-1,-1,0
1523611651955,-589824,63,-56,-1,-1,0
1523611651955,-589824,63,-56,-1,-1,0
1523611651995,-589824,63,-56,-1,-1,0
1523611651995,-589824,63,-56,-1,-1,0
1523611651995,-589824,63,-56,-1,-1,0
1523611651995,-589824,63,-56,-1,-1,0
1523611651995,-589824,63,-56,-1,-1,0
1523611652035,-589824,63,-56,-1,-1,0
1523611652035,-720896,63,-56,-1,-1,0
1523611652035,-786432,63,-56,-1,-1,0
1523611652035,-786432,63,-56,-1,-1,0
1523611652035,-786432,63,-56,-1,-1,0
1523611652075,-720896,63,-56,-1,-1,0
1523611652075,-786432,63,-56,-1,-1,0
1523611652075,-851968,63,-56,-1,-1,0
1523611652075,-851968,63,-56,-1,-1,0
1523611652075,-786432,63,-56,-1,-1,0
1523611652115,-786432,63,-56,-1,-1,0
1523611652115,-851968,63,-56,-1,-1,0
1523611652115,-851968,63,-56,-1,-1,0
1523611652115,-786432,63,-56,-1,-1,0
1523611652115,-786432,63,-56,-1,-1,0
1523611652155,-786432,63,-56,-1,-1,0
1523611652155,-786432,63,-56,-1,-1,0
1523611652155,-786432,63,-56,-1,-1,0
1523611652155,-786432,63,-56,-1,-1,0
1523611652155,-786432,63,-56,-1,-1,0
1523611652195,-786432,63,-56,-1,-1,0
1523611652195,-720896,63,-56,-1,-1,0
1523611652195,-589824,63,-56,-1,-1,0
1523611652195,-458752,63,-56,-1,-1,0
1523611652195,-458752,63,-56,-1,-1,0
1523611652235,-458752,63,-56,-1,-1,0
1523611652235,-524288,63,-56,-1,-1,0
1523611652235,-524288,63,-56,-1,-1,0
1523611652235,-524288,63,-56,-1,-1,0
1523611652235,-524288,63,-56,-1,-1,0
1523611652275,-589824,63,-56,-1,-1,0
1523611652275,-589824,63,-56,-1,-1,0
1523611652275,-655360,63,-56,-1,-1,0
1523611652275,-524288,63,-56,-1,-1,0
1523611652275,-524288,63,-56,-1,-1,0
1523611652315,-589824,63,-56,-1,-1,0
1523611652315,-720896,63,-56,-1,-1,0
1523611652315,-327680,63,-56,-1,-1,0
1523611652315,1376256,63,-56,-1,-1,0
1523611652315,4980736,63,-56,-1,-1,0
1523611652355,8716288,63,-56,-1,-1,0
1523611652355,9568256,63,-56,-1,-1,0
1523611652355,5505024,63,-56,-1,-1,0
1523611652355,458752,63,-56,-1,-1,0
1523611652355,-1572864,63,-56,-1,-1,0
1523611652404,-1179648,63,-56,-1,-1,0
1523611652404,-524288,63,-56,-1,-1,0
1523611652404,-262144,63,-56,-1,-1,0
1523611652404,-196608,63,-56,-1,-1,0
1523611652404,-196608,63,-56,-1,-1,0
1523611652435,-196608,63,-56,-1,-1,0
1523611652435,-196608,63,-56,-1,-1,0
1523611652435,-196608,63,-56,-1,-1,0
1523611652435,-196608,63,-56,-1,-1,0
1523611652435,-196608,63,-56,-1,-1,0
1523611652475,-131072,63,-56,-1,-1,0
1523611652475,-131072,63,-56,-1,-1,0
1523611652475,-65536,63,-56,-1,-1,0
1523611652475,0,63,-56,-1,-1,0
1523611652475,0,63,-56,-1,-1,0
1523611652515,131072,63,-56,-1,-1,0
1523611652515,196608,63,-56,-1,-1,0
1523611652515,327680,63,-56,-1,-1,0
1523611652515,458752,63,-56,-1,-1,0
1523611652515,589824,63,-56,-1,-1,0
1523611652555,786432,64,-56,-1,-1,0
1523611652555,1048576,64,-56,-1,-1,0
1523611652555,1245184,64,-56,-1,-1,0
1523611652555,1441792,64,-56,-1,-1,0
1523611652555,1703936,64,-56,-1,-1,0
1523611652595,1835008,64,-56,-1,-1,0
1523611652595,1966080,64,-56,-1,-1,0
1523611652595,2031616,64,-56,-1,-1,0
1523611652595,2097152,64,-56,-1,-1,0
1523611652595,2031616,64,-56,-1,-1,0
1523611652635,1835008,64,-56,-1,-1,0
1523611652635,1441792,64,-56,-1,-1,0
1523611652635,1048576,64,-56,-1,-1,0
1523611652635,589824,64,-56,-1,-1,0
1523611652635,196608,64,-56,-1,-1,0
1523611652676,-65536,64,-56,-1,-1,0
1523611652676,-327680,64,-56,-1,-1,0
1523611652676,-524288,64,-56,-1,-1,0
1523611652676,-589824,64,-56,-1,-1,0
1523611652676,-655360,64,-56,-1,-1,0
1523611652715,-655360,64,-56,-1,-1,0
1523611652715,-655360,64,-56,-1,-1,0
1523611652715,-655360,64,-56,-1,-1,0
1523611652715,-655360,64,-56,-1,-1,0
1523611652715,-589824,64,-56,-1,-1,0
1523611652755,-589824,64,-56,-1,-1,0
1523611652755,-524288,64,-56,-1,-1,0
1523611652755,-524288,64,-56,-1,-1,0
1523611652755,-524288,64,-56,-1,-1,0
1523611652755,-524288,64,-56,-1,-1,0
1523611652795,-655360,64,-56,-1,-1,0
1523611652795,-655360,64,-56,-1,-1,0
1523611652795,-655360,64,-56,-1,-1,0
1523611652795,-655360,64,-56,-1,-1,0
1523611652795,-655360,64,-56,-1,-1,0
1523611652835,-720896,64,-56,-1,-1,0
1523611652835,-720896,64,-56,-1,-1,0
1523611652835,-720896,64,-56,-1,-1,0
1523611652835,-786432,64,-56,-1,-1,0
1523611652835,-786432,64,-56,-1,-1,0
1523611652875,-786432,64,-56,-1,-1,0
1523611652875,-786432,64,-56,-1,-1,0
1523611652875,-786432,64,-56,-1,-1,0
1523611652875,-851968,64,-56,-1,-1,0
1523611652875,-917504,64,-56,-1,-1,0
1523611652915,-851968,64,-56,-1,-1,0
1523611652915,-851968,64,-56,-1,-1,0
1523611652915,-851968,64,-56,-1,-1,0
1523611652915,-851968,64,-56,-1,-1,0
1523611652915,-851968,64,-56,-1,-1,0
1523611652955,-851968,64,-56,-1,-1,0
1523611652955,-851968,64,-56,-1,-1,0
1523611652955,-851968,64,-56,-1,-1,0
1523611652955,-851968,64,-56,-1,-1,0
1523611652955,-851968,64,-56,-1,-1,0
1523611652995,-851968,64,-56,-1,-1,0
1523611652995,-917504,64,-56,-1,-1,0
1523611652995,-983040,64,-56,-1,-1,0
1523611652995,-983040,64,-56,-1,-1,0
1523611652995,-917504,64,-56,-1,-1,0
1523611653044,-917504,64,-56,-1,-1,0
1523611653044,-917504,64,-56,-1,-1,0
1523611653044,-851968,64,-56,-1,-1,0
1523611653044,-786432,64,-56,-1,-1,0
1523611653044,-786432,64,-56,-1,-1,0
1523611653075,-720896,64,-56,-1,-1,0
1523611653075,-720896,64,-56,-1,-1,0
1523611653075,-655360,64,-56,-1,-1,0
1523611653075,-720896,64,-56,-1,-1,0
1523611653075,-720896,64,-56,-1,-1,0
1523611653115,-786432,64,-56,-1,-1,0
1523611653115,-720896,64,-56,-1,-1,0
1523611653115,-720896,64,-56,-1,-1,0
1523611653115,-655360,64,-56,-1,-1,0
1523611653115,-524288,64,-56,-1,-1,0
1523611653155,-458752,64,-56,-1,-1,0
1523611653155,-458752,64,-56,-1,-1,0
1523611653155,-458752,64,-56,-1,-1,0
1523611653155,-589824,64,-56,-1,-1,0
1523611653155,-720896,64,-56,-1,-1,0
1523611653195,-786432,64,-56,-1,-1,0
1523611653195,-851968,64,-56,-1,-1,0
1523611653195,-851968,64,-56,-1,-1,0
1523611653195,-786432,64,-56,-1,-1,0
1523611653195,-720896,64,-56,-1,-1,0
1523611653235,-720896,64,-56,-1,-1,0
1523611653235,-720896,64,-56,-1,-1,0
1523611653235,-851968,64,-56,-1,-1,0
1523611653235,-851968,64,-56,-1,-1,0
1523611653235,0,64,-56,-1,-1,0
1523611653275,2490368,64,-56,-1,-1,0
1523611653275,6750208,64,-56,-1,-1,0
1523611653275,10092544,64,-56,-1,-1,0
1523611653275,8847360,64,-56,-1,-1,0
1523611653275,3735552,64,-56,-1,-1,0
1523611653315,-524288,64,-56,-1,-1,0
1523611653315,-1310720,64,-56,-1,-1,0
1523611653315,-851968,64,-56,-1,-1,0
1523611653315,-524288,64,-56,-1,-1,0
1523611653315,-393216,64,-56,-1,-1,0
1523611653355,-327680,64,-56,-1,-1,0
1523611653355,-327680,64,-56,-1,-1,0
1523611653355,-327680,64,-56,-1,-1,0
1523611653355,-262144,64,-56,-1,-1,0
1523611653355,-131072,64,-56,-1,-1,0
1523611653395,-131072,64,-56,-1,-1,0
1523611653395,-131072,64,-56,-1,-1,0
1523611653395,-131072,64,-56,-1,-1,0
1523611653395,-65536,64,-56,-1,-1,0
1523611653395,0,64,-56,-1,-1,0
1523611653435,0,64,-56,-1,-1,0
1523611653435,65536,64,-56,-1,-1,0
1523611653435,196608,64,-56,-1,-1,0
1523611653435,262144,64,-56,-1,-1,0
1523611653435,393216,64,-56,-1,-1,0
1523611653475,458752,64,-56,-1,-1,0
1523611653475,589824,64,-56,-1,-1,0
1523611653475,720896,64,-56,-1,-1,0
1523611653475,917504,64,-56,-1,-1,0
1523611653475,1179648,64,-56,-1,-1,0
1523611653515,1376256,64,-56,-1,-1,0
1523611653515,1507328,64,-56,-1,-1,0
1523611653515,1638400,64,-56,-1,-1,0
1523611653515,1835008,64,-56,-1,-1,0
1523611653515,1900544,64,-56,-1,-1,0
1523611653555,1900544,64,-56,-1,-1,0
1523611653555,1769472,64,-56,-1,-1,0
1523611653555,1507328,64,-56,-1,-1,0
1523611653555,1114112,64,-56,-1,-1,0
1523611653555,655360,64,-56,-1,-1,0
1523611653595,196608,64,-56,-1,-1,0
1523611653595,-65536,64,-56,-1,-1,0
1523611653595,-327680,64,-56,-1,-1,0
1523611653595,-524288,64,-56,-1,-1,0
1523611653595,-589824,64,-56,-1,-1,0
1523611653635,-524288,64,-56,-1,-1,0
1523611653635,-524288,64,-56,-1,-1,0
1523611653635,-589824,64,-56,-1,-1,0
1523611653635,-589824,64,-56,-1,-1,0
1523611653635,-524288,64,-56,-1,-1,0
1523611653684,-458752,64,-56,-1,-1,0
1523611653684,-327680,64,-56,-1,-1,0
1523611653684,-327680,64,-56,-1,-1,0
1523611653684,-262144,64,-56,-1,-1,0
1523611653684,-196608,64,-56,-1,-1,0
1523611653715,-131072,64,-56,-1,-1,0
1523611653715,-131072,64,-56,-1,-1,0
1523611653715,-131072,64,-56,-1,-1,0
1523611653715,-262144,64,-56,-1,-1,0
1523611653715,-393216,64,-56,-1,-1,0
1523611653755,-458752,64,-56,-1,-1,0
1523611653755,-524288,64,-56,-1,-1,0
1523611653755,-524288,64,-56,-1,-1,0
1523611653755,-524288,64,-56,-1,-1,0
1523611653755,-524288,64,-56,-1,-1,0
1523611653795,-655360,64,-56,-1,-1,0
1523611653795,-786432,64,-56,-1,-1,0
1523611653795,-786432,64,-56,-1,-1,0
1523611653795,-851968,64,-56,-1,-1,0
1523611653795,-917504,64,-56,-1,-1,0
1523611653835,-851968,64,-56,-1,-1,0
1523611653835,-720896,64,-56,-1,-1,0
1523611653835,-589824,64,-56,-1,-1,0
1523611653835,-458752,64,-56,-1,-1,0
1523611653835,-327680,64,-56,-1,-1,0
1523611653875,-262144,64,-56,-1,-1,0
1523611653875,-196608,64,-56,-1,-1,0
1523611653875,-262144,64,-56,-1,-1,0
1523611653875,-262144,64,-56,-1,-1,0
1523611653875,-393216,64,-56,-1,-1,0
1523611653915,-524288,64,-56,-1,-1,0
1523611653915,-589824,64,-56,-1,-1,0
1523611653915,-786432,64,-56,-1,-1,0
1523611653915,-851968,64,-56,-1,-1,0
1523611653915,-851968,64,-56,-1,-1,0
1523611653955,-786432,64,-56,-1,-1,0
1523611653955,-786432,64,-56,-1,-1,0
1523611653955,-720896,64,-56,-1,-1,0
1523611653955,-655360,64,-56,-1,-1,0
1523611653955,-589824,64,-56,-1,-1,0
1523611653995,-524288,64,-56,-1,-1,0
1523611653995,-524288,64,-56,-1,-1,0
1523611653995,-524288,64,-56,-1,-1,0
1523611653995,-458752,64,-56,-1,-1,0
1523611653995,-458752,64,-56,-1,-1,0
1523611654035,-524288,64,-56,-1,-1,0
1523611654035,-589824,64,-56,-1,-1,0
1523611654035,-524288,64,-56,-1,-1,0
1523611654035,-524288,64,-56,-1,-1,0
1523611654035,-524288,64,-56,-1,-1,0
1523611654075,-589824,64,-56,-1,-1,0
1523611654075,-655360,64,-56,-1,-1,0
1523611654075,-655360,64,-56,-1,-1,0
1523611654075,-589824,64,-56,-1,-1,0
1523611654075,-458752,64,-56,-1,-1,0
1523611654115,-327680,64,-56,-1,-1,0
1523611654115,-327680,64,-56,-1,-1,0
1523611654115,-458752,64,-56,-1,-1,0
1523611654115,-524288,64,-56,-1,-1,0
1523611654115,-524288,64,-56,-1,-1,0
1523611654155,-524288,64,-56,-1,-1,0
1523611654155,-524288,64,-56,-1,-1,0
1523611654155,-524288,64,-56,-1,-1,0
1523611654155,-524288,64,-56,-1,-1,0
1523611654155,-589824,64,-56,-1,-1,0
1523611654195,-589824,64,-56,-1,-1,0
1523611654195,-524288,64,-56,-1,-1,0
1523611654195,-655360,64,-56,-1,-1,0
1523611654195,-720896,64,-56,-1,-1,0
1523611654195,65536,64,-56,-1,-1,0
1523611654235,2686976,64,-56,-1,-1,0
1523611654235,6750208,64,-56,-1,-1,0
1523611654235,9830400,64,-56,-1,-1,0
1523611654235,8388608,64,-56,-1,-1,0
1523611654235,3342336,64,-56,-1,-1,0
1523611654275,-655360,64,-56,-1,-1,0
1523611654275,-1310720,64,-56,-1,-1,0
1523611654275,-786432,64,-56,-1,-1,0
1523611654275,-524288,64,-56,-1,-1,0
1523611654275,-458752,64,-56,-1,-1,0
1523611654324,-393216,64,-56,-1,-1,0
1523611654324,-327680,64,-56,-1,-1,0
1523611654324,-262144,64,-56,-1,-1,0
1523611654324,-262144,64,-56,-1,-1,0
1523611654324,-262144,64,-56,-1,-1,0
1523611654355,-196608,64,-56,-1,-1,0
1523611654355,-196608,64,-56,-1,-1,0
1523611654355,-131072,64,-56,-1,-1,0
1523611654355,-65536,64,-56,-1,-1,0
1523611654355,0,64,-56,-1,-1,0
1523611654395,0,64,-56,-1,-1,0
1523611654395,65536,64,-56,-1,-1,0
1523611654395,262144,64,-56,-1,-1,0
1523611654395,393216,64,-56,-1,-1,0
1523611654395,524288,64,-56,-1,-1,0
1523611654435,589824,64,-56,-1,-1,0
1523611654435,720896,64,-56,-1,-1,0
1523611654435,917504,64,-56,-1,-1,0
1523611654435,1179648,64,-56,-1,-1,0
1523611654435,1507328,64,-56,-1,-1,0
1523611654475,1769472,64,-56,-1,-1,0
1523611654475,1900544,64,-56,-1,-1,0
1523611654475,2097152,64,-56,-1,-1,0
1523611654475,2228224,64,-56,-1,-1,0
1523611654475,2359296,64,-56,-1,-1,0
1523611654515,2424832,64,-56,-1,-1,0
1523611654515,2293760,64,-56,-1,-1,0
1523611654515,2097152,64,-56,-1,-1,0
1523611654515,1769472,64,-56,-1,-1,0
1523611654515,1245184,64,-56,-1,-1,0
1523611654555,851968,64,-56,-1,-1,0
1523611654555,524288,64,-56,-1,-1,0
1523611654555,196608,64,-56,-1,-1,0
1523611654555,0,64,-56,-1,-1,0
1523611654555,-131072,64,-56,-1,-1,0
1523611654595,-262144,64,-56,-1,-1,0
1523611654595,-327680,64,-56,-1,-1,0
1523611654595,-393216,64,-56,-1,-1,0
1523611654595,-458752,64,-56,-1,-1,0
1523611654595,-524288,64,-56,-1,-1,0
1523611654635,-655360,64,-56,-1,-1,0
1523611654635,-851968,64,-56,-1,-1,0
1523611654635,-983040,64,-56,-1,-1,0
1523611654635,-983040,64,-56,-1,-1,0
1523611654635,-1048576,64,-56,-1,-1,0
1523611654675,-1114112,64,-56,-1,-1,0
1523611654675,-1114112,64,-56,-1,-1,0
1523611654675,-1048576,64,-56,-1,-1,0
1523611654675,-983040,64,-56,-1,-1,0
1523611654675,-851968,64,-56,-1,-1,0
1523611654715,-786432,64,-56,-1,-1,0
1523611654715,-720896,64,-56,-1,-1,0
1523611654715,-655360,64,-56,-1,-1,0
1523611654715,-655360,64,-56,-1,-1,0
1523611654715,-524288,64,-56,-1,-1,0
1523611654755,-458752,64,-56,-1,-1,0
1523611654755,-458752,64,-56,-1,-1,0
1523611654755,-458752,64,-56,-1,-1,0
1523611654755,-524288,64,-56,-1,-1,0
1523611654755,-524288,64,-56,-1,-1,0
1523611654795,-524288,64,-56,-1,-1,0
1523611654795,-524288,64,-56,-1,-1,0
1523611654795,-589824,64,-56,-1,-1,0
1523611654795,-720896,64,-56,-1,-1,0
1523611654795,-786432,64,-56,-1,-1,0
1523611654835,-786432,64,-56,-1,-1,0
1523611654835,-851968,64,-56,-1,-1,0
1523611654835,-917504,64,-56,-1,-1,0
1523611654835,-917504,64,-56,-1,-1,0
1523611654835,-851968,64,-56,-1,-1,0
1523611654875,-786432,64,-56,-1,-1,0
1523611654875,-851968,64,-56,-1,-1,0
1523611654875,-851968,64,-56,-1,-1,0
1523611654875,-786432,64,-56,-1,-1,0
1523611654875,-720896,64,-56,-1,-1,0
1523611654915,-720896,64,-56,-1,-1,0
1523611654915,-655360,64,-56,-1,-1,0
1523611654915,-655360,64,-56,-1,-1,0
1523611654915,-655360,64,-56,-1,-1,0
1523611654915,-655360,64,-56,-1,-1,0
1523611654964,-720896,64,-56,-1,-1,0
1523611654964,-720896,64,-56,-1,-1,0
1523611654964,-720896,64,-56,-1,-1,0
1523611654964,-786432,64,-56,-1,-1,0
1523611654964,-786432,64,-56,-1,-1,0
1523611654995,-786432,64,-56,-1,-1,0
1523611654995,-786432,64,-56,-1,-1,0
1523611654995,-720896,64,-56,-1,-1,0
1523611654995,-655360,64,-56,-1,-1,0
1523611654995,-655360,64,-56,-1,-1,0
1523611655035,-655360,64,-56,-1,-1,0
1523611655035,-655360,64,-56,-1,-1,0
1523611655035,-655360,64,-56,-1,-1,0
1523611655035,-720896,64,-56,-1,-1,0
1523611655035,-720896,64,-56,-1,-1,0
1523611655075,-655360,64,-56,-1,-1,0
1523611655075,-458752,64,-56,-1,-1,0
1523611655075,-393216,64,-56,-1,-1,0
1523611655075,-393216,64,-56,-1,-1,0
1523611655075,-458752,64,-56,-1,-1,0
1523611655115,-458752,64,-56,-1,-1,0
1523611655115,-524288,64,-56,-1,-1,0
1523611655115,-524288,64,-56,-1,-1,0
1523611655115,-589824,64,-56,-1,-1,0
1523611655115,-589824,64,-56,-1,-1,0
1523611655155,-589824,64,-56,-1,-1,0
1523611655155,-589824,64,-56,-1,-1,0
1523611655155,-589824,64,-56,-1,-1,0
1523611655155,-589824,64,-56,-1,-1,0
1523611655155,-655360,64,-56,-1,-1,0
1523611655195,-655360,64,-56,-1,-1,0
1523611655195,262144,64,-56,-1,-1,0
1523611655195,3014656,64,-56,-1,-1,0
1523611655195,7012352,64,-56,-1,-1,0
1523611655195,9633792,64,-56,-1,-1,0
1523611655235,7667712,64,-56,-1,-1,0
1523611655235,2752512,64,-56,-1,-1,0
1523611655235,-720896,64,-56,-1,-1,0
1523611655235,-1114112,64,-56,-1,-1,0
1523611655235,-655360,64,-56,-1,-1,0
1523611655275,-458752,64,-56,-1,-1,0
1523611655275,-393216,64,-56,-1,-1,0
1523611655275,-393216,64,-56,-1,-1,0
1523611655275,-327680,64,-56,-1,-1,0
1523611655275,-327680,64,-56,-1,-1,0
1523611655315,-327680,64,-56,-1,-1,0
1523611655315,-262144,64,-56,-1,-1,0
1523611655315,-262144,64,-56,-1,-1,0
1523611655315,-196608,64,-56,-1,-1,0
1523611655315,-131072,64,-56,-1,-1,0
1523611655355,-65536,64,-56,-1,-1,0
1523611655355,0,64,-56,-1,-1,0
1523611655355,0,64,-56,-1,-1,0
1523611655355,0,64,-56,-1,-1,0
1523611655355,65536,64,-56,-1,-1,0
1523611655395,131072,64,-56,-1,-1,0
1523611655395,262144,64,-56,-1,-1,0
1523611655395,393216,64,-56,-1,-1,0
1523611655395,589824,64,-56,-1,-1,0
1523611655395,851968,64,-56,-1,-1,0
1523611655435,1114112,64,-56,-1,-1,0
1523611655435,1376256,64,-56,-1,-1,0
1523611655435,1572864,64,-56,-1,-1,0
1523611655435,1703936,64,-56,-1,-1,0
1523611655435,1835008,64,-56,-1,-1,0
1523611655475,1900544,64,-56,-1,-1,0
1523611655475,2031616,64,-56,-1,-1,0
1523611655475,2031616,64,-56,-1,-1,0
1523611655475,1966080,64,-56,-1,-1,0
1523611655475,1703936,64,-56,-1,-1,0
1523611655515,1376256,64,-56,-1,-1,0
1523611655515,917504,64,-56,-1,-1,0
1523611655515,524288,64,-56,-1,-1,0
1523611655515,196608,64,-56,-1,-1,0
1523611655515,0,64,-56,-1,-1,0
1523611655555,-131072,64,-56,-1,-1,0
1523611655555,-262144,64,-56,-1,-1,0
1523611655555,-327680,64,-56,-1,-1,0
1523611655555,-327680,64,-56,-1,-1,0
1523611655555,-327680,64,-56,-1,-1,0
1523611655604,-327680,64,-56,-1,-1,0
1523611655604,-327680,64,-56,-1,-1,0
1523611655604,-327680,64,-56,-1,-1,0
1523611655604,-393216,64,-56,-1,-1,0
1523611655604,-327680,64,-56,-1,-1,0
1523611655635,-262144,64,-56,-1,-1,0
1523611655635,-262144,64,-56,-1,-1,0
1523611655635,-262144,64,-56,-1,-1,0
1523611655635,-262144,64,-56,-1,-1,0
1523611655635,-327680,64,-56,-1,-1,0
1523611655675,-393216,64,-56,-1,-1,0
1523611655675,-524288,64,-56,-1,-1,0
1523611655675,-458752,64,-56,-1,-1,0
1523611655675,-524288,64,-56,-1,-1,0
1523611655675,-589824,64,-56,-1,-1,0
1523611655715,-589824,64,-56,-1,-1,0
1523611655715,-589824,64,-56,-1,-1,0
1523611655715,-589824,64,-56,-1,-1,0
1523611655715,-589824,64,-56,-1,-1,0
1523611655715,-589824,64,-56,-1,-1,0
1523611655755,-589824,64,-56,-1,-1,0
1523611655755,-589824,64,-56,-1,-1,0
1523611655755,-524288,64,-56,-1,-1,0
1523611655755,-458752,64,-56,-1,-1,0
1523611655755,-393216,64,-56,-1,-1,0
1523611655795,-458752,64,-56,-1,-1,0
1523611655795,-393216,64,-56,-1,-1,0
1523611655795,-393216,64,-56,-1,-1,0
1523611655795,-393216,64,-56,-1,-1,0
1523611655795,-458752,64,-56,-1,-1,0
1523611655835,-393216,64,-56,-1,-1,0
1523611655835,-393216,64,-56,-1,-1,0
1523611655835,-393216,64,-56,-1,-1,0
1523611655835,-393216,64,-56,-1,-1,0
1523611655835,-327680,64,-56,-1,-1,0
1523611655875,-327680,64,-56,-1,-1,0
1523611655875,-262144,64,-56,-1,-1,0
1523611655875,-327680,64,-56,-1,-1,0
1523611655875,-327680,64,-56,-1,-1,0
1523611655875,-327680,64,-56,-1,-1,0
1523611655915,-393216,64,-56,-1,-1,0
1523611655915,-458752,64,-56,-1,-1,0
1523611655915,-458752,64,-56,-1,-1,0
1523611655915,-524288,64,-56,-1,-1,0
1523611655915,-589824,64,-56,-1,-1,0
1523611655955,-655360,64,-56,-1,-1,0
1523611655955,-720896,64,-56,-1,-1,0
1523611655955,-720896,64,-56,-1,-1,0
1523611655955,-655360,64,-56,-1,-1,0
1523611655955,-655360,64,-56,-1,-1,0
1523611655995,-589824,64,-56,-1,-1,0
1523611655995,-524288,64,-56,-1,-1,0
1523611655995,-524288,64,-56,-1,-1,0
1523611655995,-524288,64,-56,-1,-1,0
1523611655995,-589824,64,-56,-1,-1,0
1523611656035,-655360,64,-56,-1,-1,0
1523611656035,-720896,64,-56,-1,-1,0
1523611656035,-720896,64,-56,-1,-1,0
1523611656035,-720896,64,-56,-1,-1,0
1523611656035,-655360,64,-56,-1,-1,0
1523611656075,-589824,64,-56,-1,-1,0
1523611656075,-524288,64,-56,-1,-1,0
1523611656075,-589824,64,-56,-1,-1,0
1523611656075,-589824,64,-56,-1,-1,0
1523611656075,-655360,64,-56,-1,-1,0
1523611656115,-655360,64,-56,-1,-1,0
1523611656115,-655360,64,-56,-1,-1,0
1523611656115,-655360,64,-56,-1,-1,0
1523611656115,-589824,64,-56,-1,-1,0
1523611656115,-524288,64,-56,-1,-1,0
1523611656155,-458752,64,-56,-1,-1,0
1523611656155,-524288,64,-56,-1,-1,0
1523611656155,-589824,64,-56,-1,-1,0
1523611656155,-393216,64,-56,-1,-1,0
1523611656155,983040,64,-56,-1,-1,0
1523611656195,4194304,64,-56,-1,-1,0
1523611656195,7798784,64,-56,-1,-1,0
1523611656195,9109504,64,-56,-1,-1,0
1523611656195,5701632,64,-56,-1,-1,0
1523611656195,917504,64,-56,-1,-1,0
1523611656244,-1441792,64,-56,-1,-1,0
1523611656244,-1245184,64,-56,-1,-1,0
1523611656244,-655360,64,-56,-1,-1,0
1523611656244,-524288,64,-56,-1,-1,0
1523611656244,-524288,64,-56,-1,-1,0
1523611656275,-524288,64,-56,-1,-1,0
1523611656275,-524288,64,-56,-1,-1,0
1523611656275,-458752,64,-56,-1,-1,0
1523611656275,-393216,64,-56,-1,-1,0
1523611656275,-327680,64,-56,-1,-1,0
1523611656315,-196608,64,-56,-1,-1,0
1523611656315,-196608,64,-56,-1,-1,0
1523611656315,-196608,64,-56,-1,-1,0
1523611656315,-131072,64,-56,-1,-1,0
1523611656315,0,64,-56,-1,-1,0
1523611656355,0,64,-56,-1,-1,0
1523611656355,0,64,-56,-1,-1,0
1523611656355,65536,64,-56,-1,-1,0
1523611656355,196608,64,-56,-1,-1,0
1523611656355,196608,64,-56,-1,-1,0
1523611656395,393216,64,-56,-1,-1,0
1523611656395,589824,64,-56,-1,-1,0
1523611656395,720896,64,-56,-1,-1,0
1523611656395,917504,64,-56,-1,-1,0
1523611656395,1179648,64,-56,-1,-1,0
1523611656435,1441792,64,-56,-1,-1,0
1523611656435,1703936,64,-56,-1,-1,0
1523611656435,1835008,64,-56,-1,-1,0
1523611656435,1900544,64,-56,-1,-1,0
1523611656435,1900544,64,-56,-1,-1,0
1523611656475,1900544,64,-56,-1,-1,0
1523611656475,1769472,64,-56,-1,-1,0
1523611656475,1507328,64,-56,-1,-1,0
1523611656475,1114112,64,-56,-1,-1,0
1523611656475,720896,64,-56,-1,-1,0
1523611656515,327680,64,-56,-1,-1,0
1523611656515,0,64,-56,-1,-1,0
1523611656515,-131072,64,-56,-1,-1,0
1523611656515,-262144,64,-56,-1,-1,0
1523611656515,-393216,64,-56,-1,-1,0
1523611656555,-458752,64,-56,-1,-1,0
1523611656555,-458752,64,-56,-1,-1,0
1523611656555,-458752,64,-56,-1,-1,0
1523611656555,-458752,64,-56,-1,-1,0
1523611656555,-393216,64,-56,-1,-1,0
1523611656595,-393216,64,-56,-1,-1,0
1523611656595,-393216,64,-56,-1,-1,0
1523611656595,-393216,64,-56,-1,-1,0
1523611656595,-458752,64,-56,-1,-1,0
1523611656595,-458752,64,-56,-1,-1,0
1523611656635,-393216,64,-56,-1,-1,0
1523611656635,-458752,64,-56,-1,-1,0
1523611656635,-458752,64,-56,-1,-1,0
1523611656635,-458752,64,-56,-1,-1,0
1523611656635,-393216,64,-56,-1,-1,0
1523611656675,-393216,64,-56,-1,-1,0
1523611656675,-393216,64,-56,-1,-1,0
1523611656675,-458752,64,-56,-1,-1,0
1523611656675,-524288,64,-56,-1,-1,0
1523611656675,-524288,64,-56,-1,-1,0
1523611656715,-524288,64,-56,-1,-1,0
1523611656715,-458752,64,-56,-1,-1,0
1523611656715,-589824,64,-56,-1,-1,0
1523611656715,-589824,64,-56,-1,-1,0
1523611656715,-589824,64,-56,-1,-1,0
1523611656755,-655360,64,-56,-1,-1,0
1523611656755,-655360,64,-56,-1,-1,0
1523611656755,-655360,64,-56,-1,-1,0
1523611656755,-655360,64,-56,-1,-1,0
1523611656755,-655360,64,-56,-1,-1,0
1523611656795,-655360,64,-56,-1,-1,0
1523611656795,-720896,64,-56,-1,-1,0
1523611656795,-720896,64,-56,-1,-1,0
1523611656795,-655360,64,-56,-1,-1,0
1523611656795,-655360,64,-56,-1,-1,0
1523611656835,-655360,64,-56,-1,-1,0
1523611656835,-589824,64,-56,-1,-1,0
1523611656835,-655360,64,-56,-1,-1,0
1523611656835,-655360,64,-56,-1,-1,0
1523611656835,-655360,64,-56,-1,-1,0
1523611656884,-720896,64,-56,-1,-1,0
1523611656884,-720896,64,-56,-1,-1,0
1523611656884,-720896,64,-56,-1,-1,0
1523611656884,-655360,64,-56,-1,-1,0
1523611656884,-655360,64,-56,-1,-1,0
1523611656915,-655360,64,-56,-1,-1,0
1523611656915,-589824,64,-56,-1,-1,0
1523611656915,-655360,64,-56,-1,-1,0
1523611656915,-655360,64,-56,-1,-1,0
1523611656915,-655360,64,-56,-1,-1,0
1523611656955,-655360,64,-56,-1,-1,0
1523611656955,-655360,64,-56,-1,-1,0
1523611656955,-655360,64,-56,-1,-1,0
1523611656955,-589824,64,-56,-1,-1,0
1523611656955,-458752,64,-56,-1,-1,0
1523611656995,-327680,64,-56,-1,-1,0
1523611656995,-327680,64,-56,-1,-1,0
1523611656995,-393216,64,-56,-1,-1,0
1523611656995,-458752,64,-56,-1,-1,0
1523611656995,-524288,64,-56,-1,-1,0
1523611657035,-589824,64,-56,-1,-1,0
1523611657035,-589824,64,-56,-1,-1,0
1523611657035,-655360,64,-56,-1,-1,0
1523611657035,-655360,64,-56,-1,-1,0
1523611657035,-655360,64,-56,-1,-1,0
1523611657075,-655360,64,-56,-1,-1,0
1523611657075,-720896,64,-56,-1,-1,0
1523611657075,-786432,64,-56,-1,-1,0
1523611657075,-983040,64,-56,-1,-1,0
1523611657075,-458752,64,-56,-1,-1,0
1523611657115,1441792,64,-56,-1,-1,0
1523611657115,5177344,64,-56,-1,-1,0
1523611657115,8716288,64,-56,-1,-1,0
1523611657115,8847360,64,-56,-1,-1,0
1523611657115,4521984,64,-56,-1,-1,0
1523611657155,-196608,64,-56,-1,-1,0
1523611657155,-1703936,64,-56,-1,-1,0
1523611657155,-1310720,64,-56,-1,-1,0
1523611657155,-786432,64,-56,-1,-1,0
1523611657155,-589824,64,-56,-1,-1,0
1523611657195,-524288,64,-56,-1,-1,0
1523611657195,-524288,64,-56,-1,-1,0
1523611657195,-524288,64,-56,-1,-1,0
1523611657195,-458752,64,-56,-1,-1,0
1523611657195,-393216,64,-56,-1,-1,0
1523611657235,-327680,64,-56,-1,-1,0
1523611657235,-327680,64,-56,-1,-1,0
1523611657235,-262144,64,-56,-1,-1,0
1523611657235,-131072,64,-56,-1,-1,0
1523611657235,-131072,64,-56,-1,-1,0
1523611657275,-131072,64,-56,-1,-1,0
1523611657275,-65536,64,-56,-1,-1,0
1523611657275,0,64,-56,-1,-1,0
1523611657275,65536,64,-56,-1,-1,0
1523611657275,196608,64,-56,-1,-1,0
1523611657315,327680,64,-56,-1,-1,0
1523611657315,458752,64,-56,-1,-1,0
1523611657315,655360,64,-56,-1,-1,0
1523611657315,917504,64,-56,-1,-1,0
1523611657315,1114112,64,-56,-1,-1,0
1523611657355,1310720,64,-56,-1,-1,0
1523611657355,1507328,64,-56,-1,-1,0
1523611657355,1703936,64,-56,-1,-1,0
1523611657355,1835008,64,-56,-1,-1,0
1523611657355,1900544,64,-56,-1,-1,0
1523611657395,1966080,64,-56,-1,-1,0
1523611657395,1835008,64,-56,-1,-1,0
1523611657395,1638400,64,-56,-1,-1,0
1523611657395,1310720,64,-56,-1,-1,0
1523611657395,917504,64,-56,-1,-1,0
1523611657435,524288,64,-56,-1,-1,0
1523611657435,196608,64,-56,-1,-1,0
1523611657435,0,64,-56,-1,-1,0
1523611657435,-196608,64,-56,-1,-1,0
1523611657435,-327680,64,-56,-1,-1,0
1523611657475,-458752,64,-56,-1,-1,0
1523611657475,-458752,64,-56,-1,-1,0
1523611657475,-458752,64,-56,-1,-1,0
1523611657475,-393216,64,-56,-1,-1,0
1523611657475,-458752,64,-56,-1,-1,0
1523611657524,-393216,64,-56,-1,-1,0
1523611657524,-393216,64,-56,-1,-1,0
1523611657524,-327680,64,-56,-1,-1,0
1523611657524,-327680,64,-56,-1,-1,0
1523611657524,-262144,64,-56,-1,-1,0
1523611657555,-262144,64,-56,-1,-1,0
1523611657555,-262144,64,-56,-1,-1,0
1523611657555,-327680,64,-56,-1,-1,0
1523611657555,-327680,64,-56,-1,-1,0
1523611657555,-393216,64,-56,-1,-1,0
1523611657595,-393216,64,-56,-1,-1,0
1523611657595,-393216,64,-56,-1,-1,0
1523611657595,-458752,64,-56,-1,-1,0
1523611657595,-458752,64,-56,-1,-1,0
1523611657595,-458752,64,-56,-1,-1,0
1523611657635,-524288,64,-56,-1,-1,0
1523611657635,-524288,64,-56,-1,-1,0
1523611657635,-524288,64,-56,-1,-1,0
1523611657635,-524288,64,-56,-1,-1,0
1523611657635,-524288,64,-56,-1,-1,0
1523611657675,-524288,64,-56,-1,-1,0
1523611657675,-589824,64,-56,-1,-1,0
1523611657675,-655360,64,-56,-1,-1,0
1523611657675,-589824,64,-56,-1,-1,0
1523611657675,-589824,64,-56,-1,-1,0
1523611657715,-589824,64,-56,-1,-1,0
1523611657715,-589824,64,-56,-1,-1,0
1523611657715,-655360,64,-56,-1,-1,0
1523611657715,-655360,64,-56,-1,-1,0
1523611657715,-655360,64,-56,-1,-1,0
1523611657755,-655360,64,-56,-1,-1,0
1523611657755,-655360,64,-56,-1,-1,0
1523611657755,-655360,64,-56,-1,-1,0
1523611657755,-655360,64,-56,-1,-1,0
1523611657755,-589824,64,-56,-1,-1,0
1523611657795,-655360,64,-56,-1,-1,0
1523611657795,-589824,64,-56,-1,-1,0
1523611657795,-589824,64,-56,-1,-1,0
1523611657795,-655360,64,-56,-1,-1,0
1523611657795,-720896,64,-56,-1,-1,0
1523611657835,-786432,64,-56,-1,-1,0
1523611657835,-786432,64,-56,-1,-1,0
1523611657835,-720896,64,-56,-1,-1,0
1523611657835,-720896,64,-56,-1,-1,0
1523611657835,-720896,64,-56,-1,-1,0
1523611657875,-786432,64,-56,-1,-1,0
1523611657875,-786432,64,-56,-1,-1,0
1523611657875,-786432,64,-56,-1,-1,0
1523611657875,-720896,64,-56,-1,-1,0
1523611657875,-720896,64,-56,-1,-1,0
1523611657915,-786432,64,-56,-1,-1,0
1523611657915,-786432,64,-56,-1,-1,0
1523611657915,-851968,64,-56,-1,-1,0
1523611657915,-851968,64,-56,-1,-1,0
1523611657915,-786432,64,-56,-1,-1,0
1523611657955,-720896,64,-56,-1,-1,0
1523611657955,-655360,64,-56,-1,-1,0
1523611657955,-524288,64,-56,-1,-1,0
1523611657955,-393216,64,-56,-1,-1,0
1523611657955,-262144,64,-56,-1,-1,0
1523611657995,-262144,64,-56,-1,-1,0
1523611657995,-327680,64,-56,-1,-1,0
1523611657995,-393216,64,-56,-1,-1,0
1523611657995,-393216,64,-56,-1,-1,0
1523611657995,-458752,64,-56,-1,-1,0
1523611658035,-458752,64,-56,-1,-1,0
1523611658035,-458752,64,-56,-1,-1,0
1523611658035,-393216,64,-56,-1,-1,0
1523611658035,-327680,64,-56,-1,-1,0
1523611658035,-327680,64,-56,-1,-1,0
1523611658075,-458752,64,-56,-1,-1,0
1523611658075,-262144,64,-56,-1,-1,0
1523611658075,1048576,64,-56,-1,-1,0
1523611658075,4325376,64,-56,-1,-1,0
1523611658075,8323072,64,-56,-1,-1,0
1523611658115,9895936,64,-56,-1,-1,0
1523611658115,6553600,64,-56,-1,-1,0
1523611658115,1638400,64,-56,-1,-1,0
1523611658115,-917504,64,-56,-1,-1,0
1523611658115,-983040,64,-56,-1,-1,0
1523611658164,-655360,64,-56,-1,-1,0
1523611658164,-524288,64,-56,-1,-1,0
1523611658164,-524288,64,-56,-1,-1,0
1523611658164,-458752,64,-56,-1,-1,0
1523611658164,-393216,64,-56,-1,-1,0
1523611658195,-327680,64,-56,-1,-1,0
1523611658195,-262144,64,-56,-1,-1,0
1523611658195,-196608,64,-56,-1,-1,0
1523611658195,-131072,64,-56,-1,-1,0
1523611658195,-65536,64,-56,-1,-1,0
1523611658235,-131072,64,-56,-1,-1,0
1523611658235,-65536,64,-56,-1,-1,0
1523611658235,-65536,64,-56,-1,-1,0
1523611658235,0,64,-56,-1,-1,0
1523611658235,0,64,-56,-1,-1,0
1523611658275,0,64,-56,-1,-1,0
1523611658275,65536,64,-56,-1,-1,0
1523611658275,131072,64,-56,-1,-1,0
1523611658275,262144,64,-56,-1,-1,0
1523611658275,524288,64,-56,-1,-1,0
1523611658315,720896,64,-56,-1,-1,0
1523611658315,983040,64,-56,-1,-1,0
1523611658315,1245184,64,-56,-1,-1,0
1523611658315,1572864,64,-56,-1,-1,0
1523611658315,1769472,64,-56,-1,-1,0
1523611658355,1900544,64,-56,-1,-1,0
1523611658355,1966080,64,-56,-1,-1,0
1523611658355,2031616,64,-56,-1,-1,0
1523611658355,1966080,64,-56,-1,-1,0
1523611658355,1835008,64,-56,-1,-1,0
1523611658395,1572864,63,-56,-1,-1,0
1523611658395,1179648,63,-56,-1,-1,0
1523611658395,720896,63,-56,-1,-1,0
1523611658395,393216,63,-56,-1,-1,0
1523611658395,65536,63,-56,-1,-1,0
1523611658435,-131072,63,-56,-1,-1,0
1523611658435,-262144,63,-56,-1,-1,0
1523611658435,-393216,63,-56,-1,-1,0
1523611658435,-458752,63,-56,-1,-1,0
1523611658435,-393216,63,-56,-1,-1,0
1523611658475,-327680,63,-56,-1,-1,0
1523611658475,-327680,63,-56,-1,-1,0
1523611658475,-327680,63,-56,-1,-1,0
1523611658475,-393216,63,-56,-1,-1,0
1523611658475,-393216,63,-56,-1,-1,0
1523611658515,-393216,63,-56,-1,-1,0
1523611658515,-327680,63,-56,-1,-1,0
1523611658515,-327680,63,-56,-1,-1,0
1523611658515,-262144,63,-56,-1,-1,0
1523611658515,-262144,63,-56,-1,-1,0
1523611658555,-327680,63,-56,-1,-1,0
1523611658555,-327680,63,-56,-1,-1,0
1523611658555,-327680,63,-56,-1,-1,0
1523611658555,-393216,63,-56,-1,-1,0
1523611658555,-524288,63,-56,-1,-1,0
1523611658595,-524288,63,-56,-1,-1,0
1523611658595,-524288,63,-56,-1,-1,0
1523611658595,-524288,63,-56,-1,-1,0
1523611658595,-524288,63,-56,-1,-1,0
1523611658595,-589824,63,-56,-1,-1,0
1523611658635,-589824,63,-56,-1,-1,0
1523611658635,-589824,63,-56,-1,-1,0
1523611658635,-655360,63,-56,-1,-1,0
1523611658635,-655360,63,-56,-1,-1,0
1523611658635,-655360,63,-56,-1,-1,0
1523611658675,-655360,63,-56,-1,-1,0
1523611658675,-720896,63,-56,-1,-1,0
1523611658675,-720896,63,-56,-1,-1,0
1523611658675,-720896,63,-56,-1,-1,0
1523611658675,-720896,63,-56,-1,-1,0
1523611658715,-720896,63,-56,-1,-1,0
1523611658715,-720896,63,-56,-1,-1,0
1523611658715,-720896,63,-56,-1,-1,0
1523611658715,-720896,63,-56,-1,-1,0
1523611658715,-655360,63,-56,-1,-1,0
1523611658755,-655360,63,-56,-1,-1,0
1523611658755,-720896,63,-56,-1,-1,0
1523611658755,-720896,63,-56,-1,-1,0
1523611658755,-720896,63,-56,-1,-1,0
1523611658755,-720896,63,-56,-1,-1,0
1523611658804,-720896,63,-56,-1,-1,0
1523611658804,-720896,63,-56,-1,-1,0
1523611658804,-720896,63,-56,-1,-1,0
1523611658804,-720896,63,-56,-1,-1,0
1523611658804,-786432,63,-56,-1,-1,0
1523611658835,-720896,63,-56,-1,-1,0
1523611658835,-720896,63,-56,-1,-1,0
1523611658835,-720896,63,-56,-1,-1,0
1523611658835,-720896,63,-56,-1,-1,0
1523611658835,-786432,63,-56,-1,-1,0
1523611658875,-720896,63,-56,-1,-1,0
1523611658875,-720896,63,-56,-1,-1,0
1523611658875,-589824,63,-56,-1,-1,0
1523611658875,-655360,63,-56,-1,-1,0
1523611658875,-720896,63,-56,-1,-1,0
1523611658915,-786432,63,-56,-1,-1,0
1523611658915,-720896,63,-56,-1,-1,0
1523611658915,-720896,63,-56,-1,-1,0
1523611658915,-786432,63,-56,-1,-1,0
1523611658915,-786432,63,-56,-1,-1,0
1523611658955,-851968,63,-56,-1,-1,0
1523611658955,-851968,63,-56,-1,-1,0
1523611658955,-786432,63,-56,-1,-1,0
1523611658955,-720896,63,-56,-1,-1,0
1523611658955,-524288,63,-56,-1,-1,0
1523611658995,-458752,63,-56,-1,-1,0
1523611658995,-458752,63,-56,-1,-1,0
1523611658995,-524288,63,-56,-1,-1,0
1523611658995,-589824,63,-56,-1,-1,0
1523611658995,-524288,63,-56,-1,-1,0
1523611659035,-524288,63,-56,-1,-1,0
1523611659035,-589824,63,-56,-1,-1,0
1523611659035,-589824,63,-56,-1,-1,0
1523611659035,-524288,63,-56,-1,-1,0
1523611659035,-458752,63,-56,-1,-1,0
1523611659075,-524288,63,-56,-1,-1,0
1523611659075,-524288,63,-56,-1,-1,0
1523611659075,-589824,63,-56,-1,-1,0
1523611659075,-65536,63,-56,-1,-1,0
1523611659075,1835008,63,-56,-1,-1,0
1523611659115,5373952,63,-56,-1,-1,0
1523611659115,8716288,63,-56,-1,-1,0
1523611659115,8585216,63,-56,-1,-1,0
1523611659115,4456448,63,-56,-1,-1,0
1523611659115,262144,63,-56,-1,-1,0
1523611659155,-983040,63,-56,-1,-1,0
1523611659155,-589824,63,-56,-1,-1,0
1523611659155,-262144,63,-56,-1,-1,0
1523611659155,-65536,63,-56,-1,-1,0
1523611659155,0,63,-56,-1,-1,0
1523611659195,0,63,-56,-1,-1,0
1523611659195,0,63,-56,-1,-1,0
1523611659195,0,63,-56,-1,-1,0
1523611659195,131072,63,-56,-1,-1,0
1523611659195,196608,63,-56,-1,-1,0
1523611659235,196608,63,-56,-1,-1,0
1523611659235,131072,63,-56,-1,-1,0
1523611659235,0,63,-56,-1,-1,0
1523611659235,-65536,63,-56,-1,-1,0
1523611659235,-65536,63,-56,-1,-1,0
1523611659275,-131072,63,-56,-1,-1,0
1523611659275,-65536,63,-56,-1,-1,0
1523611659275,-65536,63,-56,-1,-1,0
1523611659275,0,63,-56,-1,-1,0
1523611659275,196608,63,-56,-1,-1,0
1523611659315,327680,63,-56,-1,-1,0
1523611659315,589824,63,-56,-1,-1,0
1523611659315,917504,63,-56,-1,-1,0
1523611659315,1179648,63,-56,-1,-1,0
1523611659315,1376256,63,-56,-1,-1,0
1523611659355,1703936,63,-56,-1,-1,0
1523611659355,1900544,63,-56,-1,-1,0
1523611659355,1966080,63,-56,-1,-1,0
1523611659355,1966080,63,-56,-1,-1,0
1523611659355,1900544,63,-56,-1,-1,0
1523611659395,1769472,63,-56,-1,-1,0
1523611659395,1572864,63,-56,-1,-1,0
1523611659395,1245184,63,-56,-1,-1,0
1523611659395,851968,63,-56,-1,-1,0
1523611659395,458752,63,-56,-1,-1,0
1523611659444,196608,63,-56,-1,-1,0
1523611659444,0,63,-56,-1,-1,0
1523611659444,-131072,63,-56,-1,-1,0
1523611659444,-262144,63,-56,-1,-1,0
1523611659444,-327680,63,-56,-1,-1,0
1523611659475,-327680,63,-56,-1,-1,0
1523611659475,-327680,63,-56,-1,-1,0
1523611659475,-262144,63,-56,-1,-1,0
1523611659475,-262144,63,-56,-1,-1,0
1523611659475,-262144,63,-56,-1,-1,0
1523611659515,-327680,63,-56,-1,-1,0
1523611659515,-327680,63,-56,-1,-1,0
1523611659515,-327680,63,-56,-1,-1,0
1523611659515,-327680,63,-56,-1,-1,0
1523611659515,-327680,63,-56,-1,-1,0
1523611659555,-393216,63,-56,-1,-1,0
1523611659555,-393216,63,-56,-1,-1,0
1523611659555,-458752,63,-56,-1,-1,0
1523611659555,-458752,63,-56,-1,-1,0
1523611659555,-393216,63,-56,-1,-1,0
1523611659595,-393216,63,-56,-1,-1,0
1523611659595,-458752,63,-56,-1,-1,0
1523611659595,-458752,63,-56,-1,-1,0
1523611659595,-458752,63,-56,-1,-1,0
1523611659595,-458752,63,-56,-1,-1,0
1523611659635,-458752,63,-56,-1,-1,0
1523611659635,-524288,63,-56,-1,-1,0
1523611659635,-524288,63,-56,-1,-1,0
1523611659635,-524288,63,-56,-1,-1,0
1523611659635,-458752,63,-56,-1,-1,0
1523611659675,-524288,63,-56,-1,-1,0
1523611659675,-524288,63,-56,-1,-1,0
1523611659675,-524288,63,-56,-1,-1,0
1523611659675,-589824,63,-56,-1,-1,0
1523611659675,-589824,63,-56,-1,-1,0
1523611659715,-589824,63,-56,-1,-1,0
1523611659715,-655360,63,-56,-1,-1,0
1523611659715,-655360,63,-56,-1,-1,0
1523611659715,-655360,63,-56,-1,-1,0
1523611659715,-589824,63,-56,-1,-1,0
1523611659755,-589824,63,-56,-1,-1,0
1523611659755,-524288,63,-56,-1,-1,0
1523611659755,-524288,63,-56,-1,-1,0
1523611659755,-458752,63,-56,-1,-1,0
1523611659755,-524288,63,-56,-1,-1,0
1523611659795,-655360,63,-56,-1,-1,0
1523611659795,-786432,63,-56,-1,-1,0
1523611659795,-720896,63,-56,-1,-1,0
1523611659795,-655360,63,-56,-1,-1,0
1523611659795,-655360,63,-56,-1,-1,0
1523611659835,-655360,63,-56,-1,-1,0
1523611659835,-589824,63,-56,-1,-1,0
1523611659835,-589824,63,-56,-1,-1,0
1523611659835,-589824,63,-56,-1,-1,0
1523611659835,-524288,63,-56,-1,-1,0
1523611659875,-589824,63,-56,-1,-1,0
1523611659875,-655360,63,-56,-1,-1,0
1523611659875,-589824,63,-56,-1,-1,0
1523611659875,-524288,63,-56,-1,-1,0
1523611659875,-589824,63,-56,-1,-1,0
1523611659915,-524288,63,-56,-1,-1,0
1523611659915,-524288,63,-56,-1,-1,0
1523611659915,-589824,63,-56,-1,-1,0
1523611659915,-589824,63,-56,-1,-1,0
1523611659915,-655360,63,-56,-1,-1,0
1523611659955,-589824,63,-56,-1,-1,0
1523611659955,-589824,63,-56,-1,-1,0
1523611659955,-589824,63,-56,-1,-1,0
1523611659955,-655360,63,-56,-1,-1,0
1523611659955,-655360,63,-56,-1,-1,0
1523611659995,-524288,63,-56,-1,-1,0
1523611659995,-458752,63,-56,-1,-1,0
1523611659995,-327680,63,-56,-1,-1,0
1523611659995,-262144,63,-56,-1,-1,0
1523611659995,-262144,63,-56,-1,-1,0
1523611660035,-393216,63,-56,-1,-1,0
1523611660035,-458752,63,-56,-1,-1,0
1523611660035,-458752,63,-56,-1,-1,0
1523611660035,-524288,63,-56,-1,-1,0
1523611660035,-589824,63,-56,-1,-1,0
1523611660081,-524288,63,-56,-1,-1,0
1523611660081,-393216,63,-56,-1,-1,0
1523611660081,-327680,63,-56,-1,-1,0
1523611660081,-327680,63,-56,-1,-1,0
1523611660081,-262144,63,-56,-1,-1,0
1523611660115,-262144,63,-56,-1,-1,0
1523611660115,-65536,63,-56,-1,-1,0
1523611660115,1179648,63,-56,-1,-1,0
1523611660115,4194304,63,-56,-1,-1,0
1523611660115,7929856,63,-56,-1,-1,0
1523611660155,9437184,63,-56,-1,-1,0
1523611660155,6553600,63,-56,-1,-1,0
1523611660155,2097152,63,-56,-1,-1,0
1523611660155,-131072,63,-56,-1,-1,0
1523611660155,-65536,63,-56,-1,-1,0
1523611660195,196608,63,-56,-1,-1,0
1523611660195,262144,63,-56,-1,-1,0
1523611660195,196608,63,-56,-1,-1,0
1523611660195,65536,63,-56,-1,-1,0
1523611660195,0,63,-56,-1,-1,0
1523611660235,0,63,-56,-1,-1,0
1523611660235,0,63,-56,-1,-1,0
1523611660235,-65536,63,-56,-1,-1,0
1523611660235,0,63,-56,-1,-1,0
1523611660235,0,63,-56,-1,-1,0
1523611660275,65536,63,-56,-1,-1,0
1523611660275,65536,63,-56,-1,-1,0
1523611660275,0,63,-56,-1,-1,0
1523611660275,65536,63,-56,-1,-1,0
1523611660275,65536,63,-56,-1,-1,0
1523611660315,65536,63,-56,-1,-1,0
1523611660315,65536,63,-56,-1,-1,0
1523611660315,131072,63,-56,-1,-1,0
1523611660315,262144,63,-56,-1,-1,0
1523611660315,458752,63,-56,-1,-1,0
1523611660355,589824,63,-56,-1,-1,0
1523611660355,851968,63,-56,-1,-1,0
1523611660355,1179648,63,-56,-1,-1,0
1523611660355,1507328,63,-56,-1,-1,0
1523611660355,1638400,63,-56,-1,-1,0
1523611660395,1835008,63,-56,-1,-1,0
1523611660395,2031616,63,-56,-1,-1,0
1523611660395,2031616,63,-56,-1,-1,0
1523611660395,2031616,63,-56,-1,-1,0
1523611660395,1835008,63,-56,-1,-1,0
1523611660435,1572864,62,-56,-1,-1,0
1523611660435,1179648,62,-56,-1,-1,0
1523611660435,786432,62,-56,-1,-1,0
1523611660435,327680,62,-56,-1,-1,0
1523611660435,0,62,-56,-1,-1,0
1523611660475,-131072,62,-56,-1,-1,0
1523611660475,-262144,62,-56,-1,-1,0
1523611660475,-327680,62,-56,-1,-1,0
1523611660475,-327680,62,-56,-1,-1,0
1523611660475,-327680,62,-56,-1,-1,0
1523611660515,-327680,62,-56,-1,-1,0
1523611660515,-327680,62,-56,-1,-1,0
1523611660515,-327680,62,-56,-1,-1,0
1523611660515,-262144,62,-56,-1,-1,0
1523611660515,-327680,62,-56,-1,-1,0
1523611660555,-327680,62,-56,-1,-1,0
1523611660555,-327680,62,-56,-1,-1,0
1523611660555,-327680,62,-56,-1,-1,0
1523611660555,-262144,62,-56,-1,-1,0
1523611660555,-327680,62,-56,-1,-1,0
1523611660595,-393216,62,-56,-1,-1,0
1523611660595,-458752,62,-56,-1,-1,0
1523611660595,-524288,62,-56,-1,-1,0
1523611660595,-524288,62,-56,-1,-1,0
1523611660595,-524288,62,-56,-1,-1,0
1523611660635,-458752,62,-56,-1,-1,0
1523611660635,-458752,62,-56,-1,-1,0
1523611660635,-458752,62,-56,-1,-1,0
1523611660635,-458752,62,-56,-1,-1,0
1523611660635,-458752,62,-56,-1,-1,0
1523611660675,-458752,62,-56,-1,-1,0
1523611660675,-524288,62,-56,-1,-1,0
1523611660675,-589824,62,-56,-1,-1,0
1523611660675,-589824,62,-56,-1,-1,0
1523611660675,-589824,62,-56,-1,-1,0
1523611660724,-589824,62,-56,-1,-1,0
1523611660724,-589824,62,-56,-1,-1,0
1523611660724,-589824,62,-56,-1,-1,0
1523611660724,-589824,62,-56,-1,-1,0
1523611660724,-589824,62,-56,-1,-1,0
1523611660755,-524288,62,-56,-1,-1,0
1523611660755,-524288,62,-56,-1,-1,0
1523611660755,-589824,62,-56,-1,-1,0
1523611660755,-655360,62,-56,-1,-1,0
1523611660755,-655360,62,-56,-1,-1,0
1523611660795,-589824,62,-56,-1,-1,0
1523611660795,-589824,62,-56,-1,-1,0
1523611660795,-655360,62,-56,-1,-1,0
1523611660795,-655360,62,-56,-1,-1,0
1523611660795,-589824,62,-56,-1,-1,0
1523611660835,-589824,62,-56,-1,-1,0
1523611660835,-589824,62,-56,-1,-1,0
1523611660835,-655360,62,-56,-1,-1,0
1523611660835,-655360,62,-56,-1,-1,0
1523611660835,-655360,62,-56,-1,-1,0
1523611660875,-720896,62,-56,-1,-1,0
1523611660875,-720896,62,-56,-1,-1,0
1523611660875,-720896,62,-56,-1,-1,0
1523611660875,-786432,62,-56,-1,-1,0
1523611660875,-786432,62,-56,-1,-1,0
1523611660915,-720896,62,-56,-1,-1,0
1523611660915,-720896,62,-56,-1,-1,0
1523611660915,-786432,62,-56,-1,-1,0
1523611660915,-851968,62,-56,-1,-1,0
1523611660915,-851968,62,-56,-1,-1,0
1523611660955,-786432,62,-56,-1,-1,0
1523611660955,-786432,62,-56,-1,-1,0
1523611660955,-851968,62,-56,-1,-1,0
1523611660955,-917504,62,-56,-1,-1,0
1523611660955,-917504,62,-56,-1,-1,0
1523611660995,-786432,62,-56,-1,-1,0
1523611660995,-655360,62,-56,-1,-1,0
1523611660995,-524288,62,-56,-1,-1,0
1523611660995,-393216,62,-56,-1,-1,0
1523611660995,-458752,62,-56,-1,-1,0
1523611661035,-589824,62,-56,-1,-1,0
1523611661035,-589824,62,-56,-1,-1,0
1523611661035,-655360,62,-56,-1,-1,0
1523611661035,-655360,62,-56,-1,-1,0
1523611661035,-655360,62,-56,-1,-1,0
1523611661075,-655360,62,-56,-1,-1,0
1523611661075,-589824,62,-56,-1,-1,0
1523611661075,-589824,62,-56,-1,-1,0
1523611661075,-720896,62,-56,-1,-1,0
1523611661075,-720896,62,-56,-1,-1,0
1523611661115,-786432,62,-56,-1,-1,0
1523611661115,-393216,62,-56,-1,-1,0
1523611661115,1245184,62,-56,-1,-1,0
1523611661115,4587520,62,-56,-1,-1,0
1523611661115,7864320,62,-56,-1,-1,0
1523611661155,8060928,62,-56,-1,-1,0
1523611661155,4063232,62,-56,-1,-1,0
1523611661155,-327680,62,-56,-1,-1,0
1523611661155,-1835008,62,-56,-1,-1,0
1523611661155,-1441792,62,-56,-1,-1,0
1523611661195,-851968,62,-56,-1,-1,0
1523611661195,-589824,62,-56,-1,-1,0
1523611661195,-524288,62,-56,-1,-1,0
1523611661195,-524288,62,-56,-1,-1,0
1523611661195,-589824,62,-56,-1,-1,0
1523611661235,-524288,62,-56,-1,-1,0
1523611661235,-458752,62,-56,-1,-1,0
1523611661235,-458752,62,-56,-1,-1,0
1523611661235,-393216,62,-56,-1,-1,0
1523611661235,-327680,62,-56,-1,-1,0
1523611661275,-196608,62,-56,-1,-1,0
1523611661275,-131072,62,-56,-1,-1,0
1523611661275,-65536,62,-56,-1,-1,0
1523611661275,-65536,62,-56,-1,-1,0
1523611661275,0,62,-56,-1,-1,0
1523611661315,65536,62,-56,-1,-1,0
1523611661315,262144,62,-56,-1,-1,0
1523611661315,393216,62,-56,-1,-1,0
1523611661315,589824,62,-56,-1,-1,0
1523611661315,786432,62,-56,-1,-1,0
1523611661364,983040,62,-56,-1,-1,0
1523611661364,1245184,62,-56,-1,-1,0
1523611661364,1441792,62,-56,-1,-1,0
1523611661364,1638400,62,-56,-1,-1,0
1523611661364,1769472,62,-56,-1,-1,0
1523611661395,1900544,62,-56,-1,-1,0
1523611661395,1966080,62,-56,-1,-1,0
1523611661395,1966080,62,-56,-1,-1,0
1523611661395,1900544,62,-56,-1,-1,0
1523611661395,1703936,62,-56,-1,-1,0
1523611661435,1310720,61,-56,-1,-1,0
1523611661435,983040,61,-56,-1,-1,0
1523611661435,589824,61,-56,-1,-1,0
1523611661435,262144,61,-56,-1,-1,0
1523611661435,0,61,-56,-1,-1,0
1523611661475,-196608,61,-56,-1,-1,0
1523611661475,-262144,61,-56,-1,-1,0
1523611661475,-393216,61,-56,-1,-1,0
1523611661475,-458752,61,-56,-1,-1,0
1523611661475,-458752,61,-56,-1,-1,0
1523611661515,-393216,61,-56,-1,-1,0
1523611661515,-327680,61,-56,-1,-1,0
1523611661515,-327680,61,-56,-1,-1,0
1523611661515,-393216,61,-56,-1,-1,0
1523611661515,-393216,61,-56,-1,-1,0
1523611661555,-393216,61,-56,-1,-1,0
1523611661555,-393216,61,-56,-1,-1,0
1523611661555,-393216,61,-56,-1,-1,0
1523611661555,-393216,61,-56,-1,-1,0
1523611661555,-393216,61,-56,-1,-1,0
1523611661595,-393216,61,-56,-1,-1,0
1523611661595,-327680,61,-56,-1,-1,0
1523611661595,-393216,61,-56,-1,-1,0
1523611661595,-393216,61,-56,-1,-1,0
1523611661595,-458752,61,-56,-1,-1,0
1523611661635,-524288,61,-56,-1,-1,0
1523611661635,-458752,61,-56,-1,-1,0
1523611661635,-524288,61,-56,-1,-1,0
1523611661635,-524288,61,-56,-1,-1,0
1523611661635,-524288,61,-56,-1,-1,0
1523611661675,-589824,61,-56,-1,-1,0
1523611661675,-589824,61,-56,-1,-1,0
1523611661675,-589824,61,-56,-1,-1,0
1523611661675,-589824,61,-56,-1,-1,0
1523611661675,-589824,61,-56,-1,-1,0
1523611661715,-655360,61,-56,-1,-1,0
1523611661715,-655360,61,-56,-1,-1,0
1523611661715,-655360,61,-56,-1,-1,0
1523611661715,-655360,61,-56,-1,-1,0
1523611661715,-655360,61,-56,-1,-1,0
1523611661755,-720896,61,-56,-1,-1,0
1523611661755,-655360,61,-56,-1,-1,0
1523611661755,-589824,61,-56,-1,-1,0
1523611661755,-589824,61,-56,-1,-1,0
1523611661755,-655360,61,-56,-1,-1,0
1523611661795,-655360,61,-56,-1,-1,0
1523611661795,-655360,61,-56,-1,-1,0
1523611661795,-655360,61,-56,-1,-1,0
1523611661795,-589824,61,-56,-1,-1,0
1523611661795,-589824,61,-56,-1,-1,0
1523611661835,-589824,61,-56,-1,-1,0
1523611661835,-655360,61,-56,-1,-1,0
1523611661835,-655360,61,-56,-1,-1,0
1523611661835,-655360,61,-56,-1,-1,0
1523611661835,-589824,61,-56,-1,-1,0
1523611661875,-589824,61,-56,-1,-1,0
1523611661875,-589824,61,-56,-1,-1,0
1523611661875,-589824,61,-56,-1,-1,0
1523611661875,-589824,61,-56,-1,-1,0
1523611661875,-655360,61,-56,-1,-1,0
1523611661915,-655360,61,-56,-1,-1,0
1523611661915,-655360,61,-56,-1,-1,0
1523611661915,-589824,61,-56,-1,-1,0
1523611661915,-589824,61,-56,-1,-1,0
1523611661915,-655360,61,-56,-1,-1,0
1523611661955,-655360,61,-56,-1,-1,0
1523611661955,-655360,61,-56,-1,-1,0
1523611661955,-655360,61,-56,-1,-1,0
1523611661955,-720896,61,-56,-1,-1,0
1523611661955,-786432,61,-56,-1,-1,0
1523611662003,-786432,61,-56,-1,-1,0
1523611662003,-720896,61,-56,-1,-1,0
1523611662003,-589824,61,-56,-1,-1,0
1523611662003,-458752,61,-56,-1,-1,0
1523611662003,-393216,61,-56,-1,-1,0
1523611662035,-393216,61,-56,-1,-1,0
1523611662035,-393216,61,-56,-1,-1,0
1523611662035,-524288,61,-56,-1,-1,0
1523611662035,-524288,61,-56,-1,-1,0
1523611662035,-524288,61,-56,-1,-1,0
1523611662075,-589824,61,-56,-1,-1,0
1523611662075,-524288,61,-56,-1,-1,0
1523611662075,-458752,61,-56,-1,-1,0
1523611662075,-524288,61,-56,-1,-1,0
1523611662075,-524288,61,-56,-1,-1,0
1523611662115,-589824,61,-56,-1,-1,0
1523611662115,-655360,61,-56,-1,-1,0
1523611662115,-524288,61,-56,-1,-1,0
1523611662115,720896,61,-56,-1,-1,0
1523611662115,3801088,61,-56,-1,-1,0
1523611662155,7733248,61,-56,-1,-1,0
1523611662155,9437184,61,-56,-1,-1,0
1523611662155,6422528,61,-56,-1,-1,0
1523611662155,1638400,61,-56,-1,-1,0
1523611662155,-983040,61,-56,-1,-1,0
1523611662195,-983040,61,-56,-1,-1,0
1523611662195,-589824,61,-56,-1,-1,0
1523611662195,-393216,61,-56,-1,-1,0
1523611662195,-327680,61,-56,-1,-1,0
1523611662195,-327680,61,-56,-1,-1,0
1523611662235,-262144,61,-56,-1,-1,0
1523611662235,-327680,61,-56,-1,-1,0
1523611662235,-262144,61,-56,-1,-1,0
1523611662235,-262144,61,-56,-1,-1,0
1523611662235,-262144,61,-56,-1,-1,0
1523611662275,-196608,61,-56,-1,-1,0
1523611662275,-131072,61,-56,-1,-1,0
1523611662275,-65536,61,-56,-1,-1,0
1523611662275,0,61,-56,-1,-1,0
1523611662275,0,61,-56,-1,-1,0
1523611662315,65536,61,-56,-1,-1,0
1523611662315,196608,61,-56,-1,-1,0
1523611662315,262144,61,-56,-1,-1,0
1523611662315,458752,61,-56,-1,-1,0
1523611662315,589824,61,-56,-1,-1,0
1523611662355,786432,61,-56,-1,-1,0
1523611662355,983040,61,-56,-1,-1,0
1523611662355,1245184,61,-56,-1,-1,0
1523611662355,1441792,61,-56,-1,-1,0
1523611662355,1638400,61,-56,-1,-1,0
1523611662395,1835008,61,-56,-1,-1,0
1523611662395,2031616,61,-56,-1,-1,0
1523611662395,2162688,61,-56,-1,-1,0
1523611662395,2228224,61,-56,-1,-1,0
1523611662395,2162688,61,-56,-1,-1,0
1523611662435,1966080,61,-56,-1,-1,0
1523611662435,1638400,61,-56,-1,-1,0
1523611662435,1310720,61,-56,-1,-1,0
1523611662435,851968,61,-56,-1,-1,0
1523611662435,458752,61,-56,-1,-1,0
1523611662475,131072,61,-56,-1,-1,0
1523611662475,0,61,-56,-1,-1,0
1523611662475,-196608,61,-56,-1,-1,0
1523611662475,-327680,61,-56,-1,-1,0
1523611662475,-327680,61,-56,-1,-1,0
1523611662515,-327680,61,-56,-1,-1,0
1523611662515,-327680,61,-56,-1,-1,0
1523611662515,-327680,61,-56,-1,-1,0
1523611662515,-393216,61,-56,-1,-1,0
1523611662515,-393216,61,-56,-1,-1,0
1523611662555,-393216,61,-56,-1,-1,0
1523611662555,-393216,61,-56,-1,-1,0
1523611662555,-327680,61,-56,-1,-1,0
1523611662555,-327680,61,-56,-1,-1,0
1523611662555,-327680,61,-56,-1,-1,0
1523611662595,-327680,61,-56,-1,-1,0
1523611662595,-327680,61,-56,-1,-1,0
1523611662595,-262144,61,-56,-1,-1,0
1523611662595,-262144,61,-56,-1,-1,0
1523611662595,-327680,61,-56,-1,-1,0
1523611662643,-327680,61,-56,-1,-1,0
1523611662643,-327680,61,-56,-1,-1,0
1523611662643,-393216,61,-56,-1,-1,0
1523611662643,-458752,61,-56,-1,-1,0
1523611662643,-458752,61,-56,-1,-1,0
1523611662675,-524288,61,-56,-1,-1,0
1523611662675,-458752,61,-56,-1,-1,0
1523611662675,-524288,61,-56,-1,-1,0
1523611662675,-524288,61,-56,-1,-1,0
1523611662675,-589824,61,-56,-1,-1,0
1523611662715,-524288,61,-56,-1,-1,0
1523611662715,-589824,61,-56,-1,-1,0
1523611662715,-589824,61,-56,-1,-1,0
1523611662715,-655360,61,-56,-1,-1,0
1523611662715,-655360,61,-56,-1,-1,0
1523611662755,-589824,61,-56,-1,-1,0
1523611662755,-589824,61,-56,-1,-1,0
1523611662755,-655360,61,-56,-1,-1,0
1523611662755,-589824,61,-56,-1,-1,0
1523611662755,-589824,61,-56,-1,-1,0
1523611662795,-589824,61,-56,-1,-1,0
1523611662795,-655360,61,-56,-1,-1,0
1523611662795,-655360,61,-56,-1,-1,0
1523611662795,-655360,61,-56,-1,-1,0
1523611662795,-655360,61,-56,-1,-1,0
1523611662835,-655360,61,-56,-1,-1,0
1523611662835,-589824,61,-56,-1,-1,0
1523611662835,-655360,61,-56,-1,-1,0
1523611662835,-655360,61,-56,-1,-1,0
1523611662835,-655360,61,-56,-1,-1,0
1523611662875,-655360,61,-56,-1,-1,0
1523611662875,-655360,61,-56,-1,-1,0
1523611662875,-720896,61,-56,-1,-1,0
1523611662875,-720896,61,-56,-1,-1,0
1523611662875,-720896,61,-56,-1,-1,0
1523611662915,-786432,61,-56,-1,-1,0
1523611662915,-720896,61,-56,-1,-1,0
1523611662915,-720896,61,-56,-1,-1,0
1523611662915,-720896,61,-56,-1,-1,0
1523611662915,-786432,61,-56,-1,-1,0
1523611662955,-786432,61,-56,-1,-1,0
1523611662955,-720896,61,-56,-1,-1,0
1523611662955,-720896,61,-56,-1,-1,0
1523611662955,-786432,61,-56,-1,-1,0
1523611662955,-786432,61,-56,-1,-1,0
1523611662995,-786432,61,-56,-1,-1,0
1523611662995,-720896,61,-56,-1,-1,0
1523611662995,-655360,61,-56,-1,-1,0
1523611662995,-720896,61,-56,-1,-1,0
1523611662995,-786432,61,-56,-1,-1,0
1523611663035,-851968,61,-56,-1,-1,0
1523611663035,-786432,61,-56,-1,-1,0
1523611663035,-720896,61,-56,-1,-1,0
1523611663035,-589824,61,-56,-1,-1,0
1523611663035,-458752,61,-56,-1,-1,0
1523611663075,-327680,61,-56,-1,-1,0
1523611663075,-393216,61,-56,-1,-1,0
1523611663075,-458752,61,-56,-1,-1,0
1523611663075,-524288,61,-56,-1,-1,0
1523611663075,-458752,61,-56,-1,-1,0
1523611663115,-524288,61,-56,-1,-1,0
1523611663115,-589824,61,-56,-1,-1,0
1523611663115,-589824,61,-56,-1,-1,0
1523611663115,-589824,61,-56,-1,-1,0
1523611663115,-589824,61,-56,-1,-1,0
1523611663155,-589824,61,-56,-1,-1,0
1523611663155,-655360,61,-56,-1,-1,0
1523611663155,-786432,61,-56,-1,-1,0
1523611663155,-262144,61,-56,-1,-1,0
1523611663155,1572864,61,-56,-1,-1,0
1523611663195,5242880,61,-56,-1,-1,0
1523611663195,8650752,61,-56,-1,-1,0
1523611663195,8716288,61,-56,-1,-1,0
1523611663195,4587520,61,-56,-1,-1,0
1523611663195,262144,61,-56,-1,-1,0
1523611663235,-1048576,61,-56,-1,-1,0
1523611663235,-720896,61,-56,-1,-1,0
1523611663235,-393216,61,-56,-1,-1,0
1523611663235,-327680,61,-56,-1,-1,0
1523611663235,-262144,61,-56,-1,-1,0
1523611663284,-196608,61,-56,-1,-1,0
1523611663284,-196608,61,-56,-1,-1,0
1523611663284,-196608,61,-56,-1,-1,0
1523611663284,-131072,61,-56,-1,-1,0
1523611663284,-131072,61,-56,-1,-1,0
1523611663315,-196608,61,-56,-1,-1,0
1523611663315,-131072,61,-56,-1,-1,0
1523611663315,-65536,61,-56,-1,-1,0
1523611663315,0,61,-56,-1,-1,0
1523611663315,0,61,-56,-1,-1,0
1523611663355,65536,61,-56,-1,-1,0
1523611663355,131072,61,-56,-1,-1,0
1523611663355,196608,61,-56,-1,-1,0
1523611663355,327680,61,-56,-1,-1,0
1523611663355,524288,61,-56,-1,-1,0
1523611663395,655360,61,-56,-1,-1,0
1523611663395,851968,61,-56,-1,-1,0
1523611663395,1048576,61,-56,-1,-1,0
1523611663395,1245184,61,-56,-1,-1,0
1523611663395,1441792,61,-56,-1,-1,0
1523611663435,1638400,61,-56,-1,-1,0
1523611663435,1835008,61,-56,-1,-1,0
1523611663435,2031616,61,-56,-1,-1,0
1523611663435,2162688,61,-56,-1,-1,0
1523611663435,2162688,61,-56,-1,-1,0
1523611663475,2162688,61,-56,-1,-1,0
1523611663475,1900544,61,-56,-1,-1,0
1523611663475,1572864,61,-56,-1,-1,0
1523611663475,1179648,61,-56,-1,-1,0
1523611663475,720896,61,-56,-1,-1,0
1523611663515,393216,61,-56,-1,-1,0
1523611663515,65536,61,-56,-1,-1,0
1523611663515,0,61,-56,-1,-1,0
1523611663515,-131072,61,-56,-1,-1,0
1523611663515,-196608,61,-56,-1,-1,0
1523611663555,-327680,60,-56,-1,-1,0
1523611663555,-327680,60,-56,-1,-1,0
1523611663555,-327680,60,-56,-1,-1,0
1523611663555,-327680,60,-56,-1,-1,0
1523611663555,-327680,60,-56,-1,-1,0
1523611663595,-393216,60,-56,-1,-1,0
1523611663595,-393216,60,-56,-1,-1,0
1523611663595,-327680,60,-56,-1,-1,0
1523611663595,-262144,60,-56,-1,-1,0
1523611663595,-327680,60,-56,-1,-1,0
1523611663635,-327680,60,-56,-1,-1,0
1523611663635,-327680,60,-56,-1,-1,0
1523611663635,-327680,60,-56,-1,-1,0
1523611663635,-393216,60,-56,-1,-1,0
1523611663635,-327680,60,-56,-1,-1,0
1523611663675,-327680,60,-56,-1,-1,0
1523611663675,-327680,60,-56,-1,-1,0
1523611663675,-327680,60,-56,-1,-1,0
1523611663675,-327680,60,-56,-1,-1,0
1523611663675,-393216,60,-56,-1,-1,0
1523611663715,-458752,60,-56,-1,-1,0
1523611663715,-524288,60,-56,-1,-1,0
1523611663715,-458752,60,-56,-1,-1,0
1523611663715,-458752,60,-56,-1,-1,0
1523611663715,-524288,60,-56,-1,-1,0
1523611663755,-524288,60,-56,-1,-1,0
1523611663755,-524288,60,-56,-1,-1,0
1523611663755,-524288,60,-56,-1,-1,0
1523611663755,-524288,60,-56,-1,-1,0
1523611663755,-524288,60,-56,-1,-1,0
1523611663795,-589824,60,-56,-1,-1,0
1523611663795,-589824,60,-56,-1,-1,0
1523611663795,-655360,60,-56,-1,-1,0
1523611663795,-589824,60,-56,-1,-1,0
1523611663795,-589824,60,-56,-1,-1,0
1523611663835,-524288,60,-56,-1,-1,0
1523611663835,-589824,60,-56,-1,-1,0
1523611663835,-589824,60,-56,-1,-1,0
1523611663835,-589824,60,-56,-1,-1,0
1523611663835,-524288,60,-56,-1,-1,0
1523611663875,-589824,60,-56,-1,-1,0
1523611663875,-589824,60,-56,-1,-1,0
1523611663875,-589824,60,-56,-1,-1,0
1523611663875,-589824,60,-56,-1,-1,0
1523611663875,-589824,60,-56,-1,-1,0
1523611663924,-524288,60,-56,-1,-1,0
1523611663924,-524288,60,-56,-1,-1,0
1523611663924,-524288,60,-56,-1,-1,0
1523611663924,-524288,60,-56,-1,-1,0
1523611663924,-524288,60,-56,-1,-1,0
1523611663955,-524288,60,-56,-1,-1,0
1523611663955,-524288,60,-56,-1,-1,0
1523611663955,-524288,60,-56,-1,-1,0
1523611663955,-524288,60,-56,-1,-1,0
1523611663955,-458752,60,-56,-1,-1,0
1523611663995,-524288,60,-56,-1,-1,0
1523611663995,-524288,60,-56,-1,-1,0
1523611663995,-524288,60,-56,-1,-1,0
1523611663995,-524288,60,-56,-1,-1,0
1523611663995,-524288,60,-56,-1,-1,0
1523611664035,-458752,60,-56,-1,-1,0
1523611664035,-458752,60,-56,-1,-1,0
1523611664035,-524288,60,-56,-1,-1,0
1523611664035,-589824,60,-56,-1,-1,0
1523611664035,-524288,60,-56,-1,-1,0
1523611664075,-524288,60,-56,-1,-1,0
1523611664075,-524288,60,-56,-1,-1,0
1523611664075,-524288,60,-56,-1,-1,0
1523611664075,-524288,60,-56,-1,-1,0
1523611664075,-589824,60,-56,-1,-1,0
1523611664116,-589824,60,-56,-1,-1,0
1523611664116,-589824,60,-56,-1,-1,0
1523611664116,-458752,60,-56,-1,-1,0
1523611664116,-327680,60,-56,-1,-1,0
1523611664116,-327680,60,-56,-1,-1,0
1523611664155,-262144,60,-56,-1,-1,0
1523611664155,-262144,60,-56,-1,-1,0
1523611664155,-327680,60,-56,-1,-1,0
1523611664155,-393216,60,-56,-1,-1,0
1523611664155,-458752,60,-56,-1,-1,0
1523611664195,-458752,60,-56,-1,-1,0
1523611664195,-393216,60,-56,-1,-1,0
1523611664195,-393216,60,-56,-1,-1,0
1523611664195,-458752,60,-56,-1,-1,0
1523611664195,-524288,60,-56,-1,-1,0
1523611664235,-524288,60,-56,-1,-1,0
1523611664235,-524288,60,-56,-1,-1,0
1523611664235,-524288,60,-56,-1,-1,0
1523611664235,65536,60,-56,-1,-1,0
1523611664235,2228224,60,-56,-1,-1,0
1523611664275,5898240,60,-56,-1,-1,0
1523611664275,8912896,60,-56,-1,-1,0
1523611664275,7929856,60,-56,-1,-1,0
1523611664275,3538944,60,-56,-1,-1,0
1523611664275,-196608,60,-56,-1,-1,0
1523611664315,-983040,60,-56,-1,-1,0
1523611664315,-589824,60,-56,-1,-1,0
1523611664315,-327680,60,-56,-1,-1,0
1523611664315,-327680,60,-56,-1,-1,0
1523611664315,-458752,60,-56,-1,-1,0
1523611664355,-589824,60,-56,-1,-1,0
1523611664355,-524288,60,-56,-1,-1,0
1523611664355,-327680,60,-56,-1,-1,0
1523611664355,-131072,60,-56,-1,-1,0
1523611664355,-65536,60,-56,-1,-1,0
1523611664395,-65536,60,-56,-1,-1,0
1523611664395,-131072,60,-56,-1,-1,0
1523611664395,-131072,60,-56,-1,-1,0
1523611664395,-65536,60,-56,-1,-1,0
1523611664395,0,60,-56,-1,-1,0
1523611664435,0,60,-56,-1,-1,0
1523611664435,65536,60,-56,-1,-1,0
1523611664435,65536,60,-56,-1,-1,0
1523611664435,196608,60,-56,-1,-1,0
1523611664435,327680,60,-56,-1,-1,0
1523611664475,589824,60,-56,-1,-1,0
1523611664475,851968,60,-56,-1,-1,0
1523611664475,1179648,60,-56,-1,-1,0
1523611664475,1441792,60,-56,-1,-1,0
1523611664475,1638400,60,-56,-1,-1,0
1523611664515,1769472,60,-56,-1,-1,0
1523611664515,1966080,60,-56,-1,-1,0
1523611664515,2097152,60,-56,-1,-1,0
1523611664515,2162688,60,-56,-1,-1,0
1523611664515,2162688,60,-56,-1,-1,0
1523611664564,2097152,60,-56,-1,-1,0
1523611664564,1900544,60,-56,-1,-1,0
1523611664564,1638400,60,-56,-1,-1,0
1523611664564,1245184,60,-56,-1,-1,0
1523611664564,786432,60,-56,-1,-1,0
1523611664595,458752,60,-56,-1,-1,0
1523611664595,262144,60,-56,-1,-1,0
1523611664595,65536,60,-56,-1,-1,0
1523611664595,0,60,-56,-1,-1,0
1523611664595,-131072,60,-56,-1,-1,0
1523611664635,-196608,59,-56,-1,-1,0
1523611664635,-262144,59,-56,-1,-1,0
1523611664635,-262144,59,-56,-1,-1,0
1523611664635,-262144,59,-56,-1,-1,0
1523611664635,-262144,59,-56,-1,-1,0
1523611664675,-262144,59,-56,-1,-1,0
1523611664675,-262144,59,-56,-1,-1,0
1523611664675,-262144,59,-56,-1,-1,0
1523611664675,-262144,59,-56,-1,-1,0
1523611664675,-262144,59,-56,-1,-1,0
1523611664715,-262144,59,-56,-1,-1,0
1523611664715,-196608,59,-56,-1,-1,0
1523611664715,-196608,59,-56,-1,-1,0
1523611664715,-262144,59,-56,-1,-1,0
1523611664715,-262144,59,-56,-1,-1,0
1523611664755,-327680,59,-56,-1,-1,0
1523611664755,-393216,59,-56,-1,-1,0
1523611664755,-393216,59,-56,-1,-1,0
1523611664755,-393216,59,-56,-1,-1,0
1523611664755,-393216,59,-56,-1,-1,0
1523611664795,-393216,59,-56,-1,-1,0
1523611664795,-458752,59,-56,-1,-1,0
1523611664795,-458752,59,-56,-1,-1,0
1523611664795,-458752,59,-56,-1,-1,0
1523611664795,-458752,59,-56,-1,-1,0
1523611664835,-524288,59,-56,-1,-1,0
1523611664835,-524288,59,-56,-1,-1,0
1523611664835,-524288,59,-56,-1,-1,0
1523611664835,-524288,59,-56,-1,-1,0
1523611664835,-524288,59,-56,-1,-1,0
1523611664875,-524288,59,-56,-1,-1,0
1523611664875,-524288,59,-56,-1,-1,0
1523611664875,-524288,59,-56,-1,-1,0
1523611664875,-524288,59,-56,-1,-1,0
1523611664875,-524288,59,-56,-1,-1,0
1523611664915,-524288,59,-56,-1,-1,0
1523611664915,-524288,59,-56,-1,-1,0
1523611664915,-458752,59,-56,-1,-1,0
1523611664915,-458752,59,-56,-1,-1,0
1523611664915,-524288,59,-56,-1,-1,0
1523611664955,-524288,59,-56,-1,-1,0
1523611664955,-524288,59,-56,-1,-1,0
1523611664955,-458752,59,-56,-1,-1,0
1523611664955,-458752,59,-56,-1,-1,0
1523611664955,-524288,59,-56,-1,-1,0
1523611664995,-524288,59,-56,-1,-1,0
1523611664995,-524288,59,-56,-1,-1,0
1523611664995,-524288,59,-56,-1,-1,0
1523611664995,-589824,59,-56,-1,-1,0
1523611664995,-655360,59,-56,-1,-1,0
1523611665035,-589824,59,-56,-1,-1,0
1523611665035,-524288,59,-56,-1,-1,0
1523611665035,-524288,59,-56,-1,-1,0
1523611665035,-524288,59,-56,-1,-1,0
1523611665035,-589824,59,-56,-1,-1,0
1523611665075,-524288,59,-56,-1,-1,0
1523611665075,-524288,59,-56,-1,-1,0
1523611665075,-589824,59,-56,-1,-1,0
1523611665075,-589824,59,-56,-1,-1,0
1523611665075,-589824,59,-56,-1,-1,0
1523611665115,-589824,59,-56,-1,-1,0
1523611665115,-589824,59,-56,-1,-1,0
1523611665115,-655360,59,-56,-1,-1,0
1523611665115,-589824,59,-56,-1,-1,0
1523611665115,-589824,59,-56,-1,-1,0
1523611665155,-589824,59,-56,-1,-1,0
1523611665155,-655360,59,-56,-1,-1,0
1523611665155,-655360,59,-56,-1,-1,0
1523611665155,-655360,59,-56,-1,-1,0
1523611665155,-655360,59,-56,-1,-1,0
1523611665202,-524288,59,-56,-1,-1,0
1523611665202,-458752,59,-56,-1,-1,0
1523611665202,-393216,59,-56,-1,-1,0
1523611665202,-327680,59,-56,-1,-1,0
1523611665202,-262144,59,-56,-1,-1,0
1523611665235,-393216,59,-56,-1,-1,0
1523611665235,-458752,59,-56,-1,-1,0
1523611665235,-524288,59,-56,-1,-1,0
1523611665235,-524288,59,-56,-1,-1,0
1523611665235,-589824,59,-56,-1,-1,0
1523611665275,-589824,59,-56,-1,-1,0
1523611665275,-655360,59,-56,-1,-1,0
1523611665275,-589824,59,-56,-1,-1,0
1523611665275,-524288,59,-56,-1,-1,0
1523611665275,-655360,59,-56,-1,-1,0
1523611665315,-720896,59,-56,-1,-1,0
1523611665315,-589824,59,-56,-1,-1,0
1523611665315,458752,59,-56,-1,-1,0
1523611665315,3145728,59,-56,-1,-1,0
1523611665315,6684672,59,-56,-1,-1,0
1523611665355,8454144,59,-56,-1,-1,0
1523611665355,5898240,59,-56,-1,-1,0
1523611665355,1179648,59,-56,-1,-1,0
1523611665355,-1703936,59,-56,-1,-1,0
1523611665355,-1703936,59,-56,-1,-1,0
1523611665395,-983040,59,-56,-1,-1,0
1523611665395,-589824,59,-56,-1,-1,0
1523611665395,-524288,59,-56,-1,-1,0
1523611665395,-524288,59,-56,-1,-1,0
1523611665395,-524288,59,-56,-1,-1,0
1523611665435,-458752,59,-56,-1,-1,0
1523611665435,-393216,59,-56,-1,-1,0
1523611665435,-327680,59,-56,-1,-1,0
1523611665435,-262144,59,-56,-1,-1,0
1523611665435,-196608,59,-56,-1,-1,0
1523611665475,-131072,59,-56,-1,-1,0
1523611665475,-131072,59,-56,-1,-1,0
1523611665475,-65536,59,-56,-1,-1,0
1523611665475,-65536,59,-56,-1,-1,0
1523611665475,0,59,-56,-1,-1,0
1523611665515,65536,59,-56,-1,-1,0
1523611665515,131072,59,-56,-1,-1,0
1523611665515,327680,59,-56,-1,-1,0
1523611665515,458752,59,-56,-1,-1,0
1523611665515,655360,59,-56,-1,-1,0
1523611665555,917504,59,-56,-1,-1,0
1523611665555,1114112,59,-56,-1,-1,0
1523611665555,1310720,59,-56,-1,-1,0
1523611665555,1572864,59,-56,-1,-1,0
1523611665555,1835008,59,-56,-1,-1,0
1523611665595,1966080,59,-56,-1,-1,0
1523611665595,2031616,59,-56,-1,-1,0
1523611665595,2097152,59,-56,-1,-1,0
1523611665595,2031616,59,-56,-1,-1,0
1523611665595,1900544,59,-56,-1,-1,0
1523611665635,1638400,59,-56,-1,-1,0
1523611665635,1245184,59,-56,-1,-1,0
1523611665635,851968,59,-56,-1,-1,0
1523611665635,458752,59,-56,-1,-1,0
1523611665635,131072,59,-56,-1,-1,0
1523611665675,0,58,-56,-1,-1,0
1523611665675,-196608,58,-56,-1,-1,0
1523611665675,-327680,58,-56,-1,-1,0
1523611665675,-393216,58,-56,-1,-1,0
1523611665675,-393216,58,-56,-1,-1,0
1523611665715,-393216,58,-56,-1,-1,0
1523611665715,-327680,58,-56,-1,-1,0
1523611665715,-327680,58,-56,-1,-1,0
1523611665715,-262144,58,-56,-1,-1,0
1523611665715,-196608,58,-56,-1,-1,0
1523611665755,-262144,58,-56,-1,-1,0
1523611665755,-327680,58,-56,-1,-1,0
1523611665755,-327680,58,-56,-1,-1,0
1523611665755,-327680,58,-56,-1,-1,0
1523611665755,-327680,58,-56,-1,-1,0
1523611665795,-327680,58,-56,-1,-1,0
1523611665795,-327680,58,-56,-1,-1,0
1523611665795,-327680,58,-56,-1,-1,0
1523611665795,-393216,58,-56,-1,-1,0
1523611665795,-393216,58,-56,-1,-1,0
1523611665844,-458752,58,-56,-1,-1,0
1523611665844,-458752,58,-56,-1,-1,0
1523611665844,-458752,58,-56,-1,-1,0
1523611665844,-458752,58,-56,-1,-1,0
1523611665844,-458752,58,-56,-1,-1,0
1523611665875,-458752,58,-56,-1,-1,0
1523611665875,-458752,58,-56,-1,-1,0
1523611665875,-524288,58,-56,-1,-1,0
1523611665875,-589824,58,-56,-1,-1,0
1523611665875,-589824,58,-56,-1,-1,0
1523611665915,-589824,58,-56,-1,-1,0
1523611665915,-524288,58,-56,-1,-1,0
1523611665915,-589824,58,-56,-1,-1,0
1523611665915,-589824,58,-56,-1,-1,0
1523611665915,-589824,58,-56,-1,-1,0
1523611665955,-524288,58,-56,-1,-1,0
1523611665955,-524288,58,-56,-1,-1,0
1523611665955,-524288,58,-56,-1,-1,0
1523611665955,-589824,58,-56,-1,-1,0
1523611665955,-589824,58,-56,-1,-1,0
1523611665995,-589824,58,-56,-1,-1,0
1523611665995,-589824,58,-56,-1,-1,0
1523611665995,-589824,58,-56,-1,-1,0
1523611665995,-589824,58,-56,-1,-1,0
1523611665995,-655360,58,-56,-1,-1,0
1523611666035,-655360,58,-56,-1,-1,0
1523611666035,-589824,58,-56,-1,-1,0
1523611666035,-589824,58,-56,-1,-1,0
1523611666035,-589824,58,-56,-1,-1,0
1523611666035,-524288,58,-56,-1,-1,0
1523611666075,-524288,58,-56,-1,-1,0
1523611666075,-524288,58,-56,-1,-1,0
1523611666075,-524288,58,-56,-1,-1,0
1523611666075,-524288,58,-56,-1,-1,0
1523611666075,-589824,58,-56,-1,-1,0
1523611666115,-589824,58,-56,-1,-1,0
1523611666115,-589824,58,-56,-1,-1,0
1523611666115,-589824,58,-56,-1,-1,0
1523611666115,-655360,58,-56,-1,-1,0
1523611666115,-655360,58,-56,-1,-1,0
1523611666155,-655360,58,-56,-1,-1,0
1523611666155,-655360,58,-56,-1,-1,0
1523611666155,-655360,58,-56,-1,-1,0
1523611666155,-655360,58,-56,-1,-1,0
1523611666155,-655360,58,-56,-1,-1,0
1523611666195,-720896,58,-56,-1,-1,0
1523611666195,-786432,58,-56,-1,-1,0
1523611666195,-786432,58,-56,-1,-1,0
1523611666195,-851968,58,-56,-1,-1,0
1523611666195,-851968,58,-56,-1,-1,0
1523611666235,-786432,58,-56,-1,-1,0
1523611666235,-655360,58,-56,-1,-1,0
1523611666235,-589824,58,-56,-1,-1,0
1523611666235,-458752,58,-56,-1,-1,0
1523611666235,-393216,58,-56,-1,-1,0
1523611666275,-393216,58,-56,-1,-1,0
1523611666275,-524288,58,-56,-1,-1,0
1523611666275,-589824,58,-56,-1,-1,0
1523611666275,-589824,58,-56,-1,-1,0
1523611666275,-655360,58,-56,-1,-1,0
1523611666315,-655360,58,-56,-1,-1,0
1523611666315,-655360,58,-56,-1,-1,0
1523611666315,-720896,58,-56,-1,-1,0
1523611666315,-720896,58,-56,-1,-1,0
1523611666315,-720896,58,-56,-1,-1,0
1523611666355,-786432,58,-56,-1,-1,0
1523611666355,-851968,58,-56,-1,-1,0
1523611666355,-131072,58,-56,-1,-1,0
1523611666355,2097152,58,-56,-1,-1,0
1523611666355,5963776,58,-56,-1,-1,0
1523611666395,9043968,58,-56,-1,-1,0
1523611666395,7995392,58,-56,-1,-1,0
1523611666395,3407872,58,-56,-1,-1,0
1523611666395,-524288,58,-56,-1,-1,0
1523611666395,-1310720,58,-56,-1,-1,0
1523611666435,-917504,58,-56,-1,-1,0
1523611666435,-655360,58,-56,-1,-1,0
1523611666435,-524288,58,-56,-1,-1,0
1523611666435,-458752,58,-56,-1,-1,0
1523611666435,-458752,58,-56,-1,-1,0
1523611666484,-393216,58,-56,-1,-1,0
1523611666484,-327680,58,-56,-1,-1,0
1523611666484,-262144,58,-56,-1,-1,0
1523611666484,-262144,58,-56,-1,-1,0
1523611666484,-131072,58,-56,-1,-1,0
1523611666515,-65536,58,-56,-1,-1,0
1523611666515,0,58,-56,-1,-1,0
1523611666515,0,58,-56,-1,-1,0
1523611666515,0,58,-56,-1,-1,0
1523611666515,65536,58,-56,-1,-1,0
1523611666555,196608,58,-56,-1,-1,0
1523611666555,262144,58,-56,-1,-1,0
1523611666555,393216,58,-56,-1,-1,0
1523611666555,524288,58,-56,-1,-1,0
1523611666555,786432,58,-56,-1,-1,0
1523611666595,983040,58,-56,-1,-1,0
1523611666595,1179648,58,-56,-1,-1,0
1523611666595,1376256,58,-56,-1,-1,0
1523611666595,1638400,58,-56,-1,-1,0
1523611666595,1900544,58,-56,-1,-1,0
1523611666635,2097152,58,-56,-1,-1,0
1523611666635,2228224,58,-56,-1,-1,0
1523611666635,2293760,58,-56,-1,-1,0
1523611666635,2293760,58,-56,-1,-1,0
1523611666635,2228224,58,-56,-1,-1,0
1523611666675,1966080,58,-56,-1,-1,0
1523611666675,1572864,58,-56,-1,-1,0
1523611666675,1114112,58,-56,-1,-1,0
1523611666675,720896,58,-56,-1,-1,0
1523611666675,393216,58,-56,-1,-1,0
1523611666715,131072,58,-56,-1,-1,0
1523611666715,-131072,58,-56,-1,-1,0
1523611666715,-262144,58,-56,-1,-1,0
1523611666715,-262144,58,-56,-1,-1,0
1523611666715,-327680,58,-56,-1,-1,0
1523611666755,-327680,58,-56,-1,-1,0
1523611666755,-327680,58,-56,-1,-1,0
1523611666755,-327680,58,-56,-1,-1,0
1523611666755,-458752,58,-56,-1,-1,0
1523611666755,-393216,58,-56,-1,-1,0
1523611666795,-393216,58,-56,-1,-1,0
1523611666795,-327680,58,-56,-1,-1,0
1523611666795,-393216,58,-56,-1,-1,0
1523611666795,-458752,58,-56,-1,-1,0
1523611666795,-393216,58,-56,-1,-1,0
1523611666835,-327680,58,-56,-1,-1,0
1523611666835,-327680,58,-56,-1,-1,0
1523611666835,-393216,58,-56,-1,-1,0
1523611666835,-393216,58,-56,-1,-1,0
1523611666835,-393216,58,-56,-1,-1,0
1523611666875,-393216,58,-56,-1,-1,0
1523611666875,-327680,58,-56,-1,-1,0
1523611666875,-393216,58,-56,-1,-1,0
1523611666875,-458752,58,-56,-1,-1,0
1523611666875,-524288,58,-56,-1,-1,0
1523611666915,-589824,58,-56,-1,-1,0
1523611666915,-589824,58,-56,-1,-1,0
1523611666915,-524288,58,-56,-1,-1,0
1523611666915,-458752,58,-56,-1,-1,0
1523611666915,-524288,58,-56,-1,-1,0
1523611666955,-524288,58,-56,-1,-1,0
1523611666955,-589824,58,-56,-1,-1,0
1523611666955,-524288,58,-56,-1,-1,0
1523611666955,-524288,58,-56,-1,-1,0
1523611666955,-589824,58,-56,-1,-1,0
1523611666995,-589824,58,-56,-1,-1,0
1523611666995,-655360,58,-56,-1,-1,0
1523611666995,-589824,58,-56,-1,-1,0
1523611666995,-589824,58,-56,-1,-1,0
1523611666995,-589824,58,-56,-1,-1,0
1523611667035,-589824,58,-56,-1,-1,0
1523611667035,-524288,58,-56,-1,-1,0
1523611667035,-589824,58,-56,-1,-1,0
1523611667035,-589824,58,-56,-1,-1,0
1523611667035,-589824,58,-56,-1,-1,0
1523611667075,-589824,58,-56,-1,-1,0
1523611667075,-589824,58,-56,-1,-1,0
1523611667075,-589824,58,-56,-1,-1,0
1523611667075,-655360,58,-56,-1,-1,0
1523611667075,-589824,58,-56,-1,-1,0
1523611667121,-524288,58,-56,-1,-1,0
1523611667121,-524288,58,-56,-1,-1,0
1523611667121,-458752,58,-56,-1,-1,0
1523611667121,-524288,58,-56,-1,-1,0
1523611667121,-524288,58,-56,-1,-1,0
1523611667155,-524288,58,-56,-1,-1,0
1523611667155,-524288,58,-56,-1,-1,0
1523611667155,-524288,58,-56,-1,-1,0
1523611667155,-589824,58,-56,-1,-1,0
1523611667155,-589824,58,-56,-1,-1,0
1523611667195,-589824,58,-56,-1,-1,0
1523611667195,-524288,58,-56,-1,-1,0
1523611667195,-524288,58,-56,-1,-1,0
1523611667195,-524288,58,-56,-1,-1,0
1523611667195,-524288,58,-56,-1,-1,0
1523611667235,-589824,58,-56,-1,-1,0
1523611667235,-589824,58,-56,-1,-1,0
1523611667235,-589824,58,-56,-1,-1,0
1523611667235,-589824,58,-56,-1,-1,0
1523611667235,-589824,58,-56,-1,-1,0
1523611667275,-524288,58,-56,-1,-1,0
1523611667275,-524288,58,-56,-1,-1,0
1523611667275,-524288,58,-56,-1,-1,0
1523611667275,-589824,58,-56,-1,-1,0
1523611667275,-589824,58,-56,-1,-1,0
1523611667315,-655360,58,-56,-1,-1,0
1523611667315,-589824,58,-56,-1,-1,0
1523611667315,-458752,58,-56,-1,-1,0
1523611667315,-262144,58,-56,-1,-1,0
1523611667315,-262144,58,-56,-1,-1,0
1523611667355,-262144,58,-56,-1,-1,0
1523611667355,-458752,58,-56,-1,-1,0
1523611667355,-524288,58,-56,-1,-1,0
1523611667355,-458752,58,-56,-1,-1,0
1523611667355,-458752,58,-56,-1,-1,0
1523611667395,-458752,58,-56,-1,-1,0
1523611667395,-458752,58,-56,-1,-1,0
1523611667395,-393216,58,-56,-1,-1,0
1523611667395,-393216,58,-56,-1,-1,0
1523611667395,-458752,58,-56,-1,-1,0
1523611667435,-524288,58,-56,-1,-1,0
1523611667435,-589824,58,-56,-1,-1,0
1523611667435,-262144,58,-56,-1,-1,0
1523611667435,1441792,58,-56,-1,-1,0
1523611667435,4915200,58,-56,-1,-1,0
1523611667475,8257536,58,-56,-1,-1,0
1523611667475,8519680,58,-56,-1,-1,0
1523611667475,4653056,58,-56,-1,-1,0
1523611667475,393216,58,-56,-1,-1,0
1523611667475,-917504,58,-56,-1,-1,0
1523611667515,-655360,58,-56,-1,-1,0
1523611667515,-327680,58,-56,-1,-1,0
1523611667515,-327680,58,-56,-1,-1,0
1523611667515,-327680,58,-56,-1,-1,0
1523611667515,-262144,58,-56,-1,-1,0
1523611667555,-131072,58,-56,-1,-1,0
1523611667555,-196608,58,-56,-1,-1,0
1523611667555,-196608,58,-56,-1,-1,0
1523611667555,-262144,58,-56,-1,-1,0
1523611667555,-196608,58,-56,-1,-1,0
1523611667595,-131072,58,-56,-1,-1,0
1523611667595,-65536,58,-56,-1,-1,0
1523611667595,0,58,-56,-1,-1,0
1523611667595,0,58,-56,-1,-1,0
1523611667595,0,58,-56,-1,-1,0
1523611667635,65536,58,-56,-1,-1,0
1523611667635,196608,58,-56,-1,-1,0
1523611667635,262144,58,-56,-1,-1,0
1523611667635,393216,58,-56,-1,-1,0
1523611667635,655360,58,-56,-1,-1,0
1523611667675,851968,58,-56,-1,-1,0
1523611667675,1114112,58,-56,-1,-1,0
1523611667675,1376256,58,-56,-1,-1,0
1523611667675,1638400,58,-56,-1,-1,0
1523611667675,1835008,58,-56,-1,-1,0
1523611667715,1966080,58,-56,-1,-1,0
1523611667715,2097152,58,-56,-1,-1,0
1523611667715,2293760,58,-56,-1,-1,0
1523611667715,2359296,58,-56,-1,-1,0
1523611667715,2228224,58,-56,-1,-1,0
1523611667761,2031616,58,-56,-1,-1,0
1523611667761,1703936,58,-56,-1,-1,0
1523611667761,1376256,58,-56,-1,-1,0
1523611667761,917504,58,-56,-1,-1,0
1523611667761,589824,58,-56,-1,-1,0
1523611667795,196608,57,-56,-1,-1,0
1523611667795,0,57,-56,-1,-1,0
1523611667795,0,57,-56,-1,-1,0
1523611667795,-65536,57,-56,-1,-1,0
1523611667795,-131072,57,-56,-1,-1,0
1523611667835,-196608,57,-56,-1,-1,0
1523611667835,-196608,57,-56,-1,-1,0
1523611667835,-196608,57,-56,-1,-1,0
1523611667835,-196608,57,-56,-1,-1,0
1523611667835,-196608,57,-56,-1,-1,0
1523611667875,-131072,57,-56,-1,-1,0
1523611667875,-131072,57,-56,-1,-1,0
1523611667875,-131072,57,-56,-1,-1,0
1523611667875,-131072,57,-56,-1,-1,0
1523611667875,-65536,57,-56,-1,-1,0
1523611667915,-65536,57,-56,-1,-1,0
1523611667915,-131072,57,-56,-1,-1,0
1523611667915,-131072,57,-56,-1,-1,0
1523611667915,-131072,57,-56,-1,-1,0
1523611667915,-196608,57,-56,-1,-1,0
1523611667955,-262144,57,-56,-1,-1,0
1523611667955,-196608,57,-56,-1,-1,0
1523611667955,-196608,57,-56,-1,-1,0
1523611667955,-196608,57,-56,-1,-1,0
1523611667955,-196608,57,-56,-1,-1,0
1523611667995,-262144,57,-56,-1,-1,0
1523611667995,-393216,57,-56,-1,-1,0
1523611667995,-393216,57,-56,-1,-1,0
1523611667995,-393216,57,-56,-1,-1,0
1523611667995,-393216,57,-56,-1,-1,0
1523611668035,-393216,57,-56,-1,-1,0
1523611668035,-393216,57,-56,-1,-1,0
1523611668035,-393216,57,-56,-1,-1,0
1523611668035,-458752,57,-56,-1,-1,0
1523611668035,-458752,57,-56,-1,-1,0
1523611668075,-458752,57,-56,-1,-1,0
1523611668075,-393216,57,-56,-1,-1,0
1523611668075,-393216,57,-56,-1,-1,0
1523611668075,-458752,57,-56,-1,-1,0
1523611668075,-524288,57,-56,-1,-1,0
1523611668115,-524288,57,-56,-1,-1,0
1523611668115,-589824,57,-56,-1,-1,0
1523611668115,-524288,57,-56,-1,-1,0
1523611668115,-458752,57,-56,-1,-1,0
1523611668115,-524288,57,-56,-1,-1,0
1523611668155,-524288,57,-56,-1,-1,0
1523611668155,-524288,57,-56,-1,-1,0
1523611668155,-524288,57,-56,-1,-1,0
1523611668155,-589824,57,-56,-1,-1,0
1523611668155,-655360,57,-56,-1,-1,0
1523611668195,-720896,57,-56,-1,-1,0
1523611668195,-720896,57,-56,-1,-1,0
1523611668195,-720896,57,-56,-1,-1,0
1523611668195,-655360,57,-56,-1,-1,0
1523611668195,-720896,57,-56,-1,-1,0
1523611668235,-786432,57,-56,-1,-1,0
1523611668235,-720896,57,-56,-1,-1,0
1523611668235,-720896,57,-56,-1,-1,0
1523611668235,-720896,57,-56,-1,-1,0
1523611668235,-720896,57,-56,-1,-1,0
1523611668275,-655360,57,-56,-1,-1,0
1523611668275,-655360,57,-56,-1,-1,0
1523611668275,-720896,57,-56,-1,-1,0
1523611668275,-720896,57,-56,-1,-1,0
1523611668275,-786432,57,-56,-1,-1,0
1523611668315,-786432,57,-56,-1,-1,0
1523611668315,-786432,57,-56,-1,-1,0
1523611668315,-720896,57,-56,-1,-1,0
1523611668315,-720896,57,-56,-1,-1,0
1523611668315,-786432,57,-56,-1,-1,0
1523611668355,-786432,57,-56,-1,-1,0
1523611668355,-786432,57,-56,-1,-1,0
1523611668355,-720896,57,-56,-1,-1,0
1523611668355,-720896,57,-56,-1,-1,0
1523611668355,-655360,57,-56,-1,-1,0
1523611668404,-524288,57,-56,-1,-1,0
1523611668404,-458752,57,-56,-1,-1,0
1523611668404,-393216,57,-56,-1,-1,0
1523611668404,-458752,57,-56,-1,-1,0
1523611668404,-524288,57,-56,-1,-1,0
1523611668435,-589824,57,-56,-1,-1,0
1523611668435,-589824,57,-56,-1,-1,0
1523611668435,-589824,57,-56,-1,-1,0
1523611668435,-589824,57,-56,-1,-1,0
1523611668435,-589824,57,-56,-1,-1,0
1523611668475,-655360,57,-56,-1,-1,0
1523611668475,-655360,57,-56,-1,-1,0
1523611668475,-720896,57,-56,-1,-1,0
1523611668475,-720896,57,-56,-1,-1,0
1523611668475,-589824,57,-56,-1,-1,0
1523611668515,393216,57,-56,-1,-1,0
1523611668515,3145728,57,-56,-1,-1,0
1523611668515,6815744,57,-56,-1,-1,0
1523611668515,8585216,57,-56,-1,-1,0
1523611668515,5832704,57,-56,-1,-1,0
1523611668555,983040,57,-56,-1,-1,0
1523611668555,-1900544,57,-56,-1,-1,0
1523611668555,-1835008,57,-56,-1,-1,0
1523611668555,-1114112,57,-56,-1,-1,0
1523611668555,-655360,57,-56,-1,-1,0
1523611668595,-524288,57,-56,-1,-1,0
1523611668595,-524288,57,-56,-1,-1,0
1523611668595,-393216,57,-56,-1,-1,0
1523611668595,-393216,57,-56,-1,-1,0
1523611668595,-327680,57,-56,-1,-1,0
1523611668635,-327680,57,-56,-1,-1,0
1523611668635,-327680,57,-56,-1,-1,0
1523611668635,-262144,57,-56,-1,-1,0
1523611668635,-196608,57,-56,-1,-1,0
1523611668635,-131072,57,-56,-1,-1,0
1523611668675,-65536,57,-56,-1,-1,0
1523611668675,0,57,-56,-1,-1,0
1523611668675,65536,57,-56,-1,-1,0
1523611668675,196608,57,-56,-1,-1,0
1523611668675,327680,57,-56,-1,-1,0
1523611668715,458752,57,-56,-1,-1,0
1523611668715,655360,57,-56,-1,-1,0
1523611668715,917504,57,-56,-1,-1,0
1523611668715,1179648,57,-56,-1,-1,0
1523611668715,1376256,57,-56,-1,-1,0
1523611668755,1638400,57,-56,-1,-1,0
1523611668755,1835008,57,-56,-1,-1,0
1523611668755,2031616,57,-56,-1,-1,0
1523611668755,2228224,57,-56,-1,-1,0
1523611668755,2359296,57,-56,-1,-1,0
1523611668795,2424832,57,-56,-1,-1,0
1523611668795,2359296,57,-56,-1,-1,0
1523611668795,2228224,57,-56,-1,-1,0
1523611668795,1966080,57,-56,-1,-1,0
1523611668795,1507328,57,-56,-1,-1,0
1523611668835,1048576,57,-56,-1,-1,0
1523611668835,655360,57,-56,-1,-1,0
1523611668835,327680,57,-56,-1,-1,0
1523611668835,0,57,-56,-1,-1,0
1523611668835,-131072,57,-56,-1,-1,0
1523611668875,-262144,57,-56,-1,-1,0
1523611668875,-393216,57,-56,-1,-1,0
1523611668875,-458752,57,-56,-1,-1,0
1523611668875,-458752,57,-56,-1,-1,0
1523611668875,-458752,57,-56,-1,-1,0
1523611668915,-393216,57,-56,-1,-1,0
1523611668915,-393216,57,-56,-1,-1,0
1523611668915,-327680,57,-56,-1,-1,0
1523611668915,-327680,57,-56,-1,-1,0
1523611668915,-327680,57,-56,-1,-1,0
1523611668955,-327680,57,-56,-1,-1,0
1523611668955,-327680,57,-56,-1,-1,0
1523611668955,-393216,57,-56,-1,-1,0
1523611668955,-393216,57,-56,-1,-1,0
1523611668955,-458752,57,-56,-1,-1,0
1523611668995,-458752,57,-56,-1,-1,0
1523611668995,-458752,57,-56,-1,-1,0
1523611668995,-458752,57,-56,-1,-1,0
1523611668995,-458752,57,-56,-1,-1,0
1523611668995,-458752,57,-56,-1,-1,0
1523611669043,-524288,57,-56,-1,-1,0
1523611669043,-524288,57,-56,-1,-1,0
1523611669043,-589824,57,-56,-1,-1,0
1523611669043,-589824,57,-56,-1,-1,0
1523611669043,-589824,57,-56,-1,-1,0
1523611669075,-589824,57,-56,-1,-1,0
1523611669075,-589824,57,-56,-1,-1,0
1523611669075,-589824,57,-56,-1,-1,0
1523611669075,-589824,57,-56,-1,-1,0
1523611669075,-589824,57,-56,-1,-1,0
1523611669115,-655360,57,-56,-1,-1,0
1523611669115,-720896,57,-56,-1,-1,0
1523611669115,-655360,57,-56,-1,-1,0
1523611669115,-655360,57,-56,-1,-1,0
1523611669115,-655360,57,-56,-1,-1,0
1523611669155,-655360,57,-56,-1,-1,0
1523611669155,-655360,57,-56,-1,-1,0
1523611669155,-720896,57,-56,-1,-1,0
1523611669155,-655360,57,-56,-1,-1,0
1523611669155,-655360,57,-56,-1,-1,0
1523611669195,-655360,57,-56,-1,-1,0
1523611669195,-589824,57,-56,-1,-1,0
1523611669195,-655360,57,-56,-1,-1,0
1523611669195,-720896,57,-56,-1,-1,0
1523611669195,-720896,57,-56,-1,-1,0
1523611669235,-655360,57,-56,-1,-1,0
1523611669235,-655360,57,-56,-1,-1,0
1523611669235,-655360,57,-56,-1,-1,0
1523611669235,-655360,57,-56,-1,-1,0
1523611669235,-655360,57,-56,-1,-1,0
1523611669275,-655360,57,-56,-1,-1,0
1523611669275,-655360,57,-56,-1,-1,0
1523611669275,-655360,57,-56,-1,-1,0
1523611669275,-655360,57,-56,-1,-1,0
1523611669275,-655360,57,-56,-1,-1,0
1523611669315,-655360,57,-56,-1,-1,0
1523611669315,-655360,57,-56,-1,-1,0
1523611669315,-655360,57,-56,-1,-1,0
1523611669315,-655360,57,-56,-1,-1,0
1523611669315,-655360,57,-56,-1,-1,0
1523611669353,-720896,57,-56,-1,-1,0
1523611669353,-720896,57,-56,-1,-1,0
1523611669353,-786432,57,-56,-1,-1,0
1523611669353,-786432,57,-56,-1,-1,0
1523611669353,-655360,57,-56,-1,-1,0
1523611669395,-524288,57,-56,-1,-1,0
1523611669395,-458752,57,-56,-1,-1,0
1523611669395,-327680,57,-56,-1,-1,0
1523611669395,-327680,57,-56,-1,-1,0
1523611669395,-393216,57,-56,-1,-1,0
1523611669435,-458752,57,-56,-1,-1,0
1523611669435,-524288,57,-56,-1,-1,0
1523611669435,-458752,57,-56,-1,-1,0
1523611669435,-524288,57,-56,-1,-1,0
1523611669435,-589824,57,-56,-1,-1,0
1523611669475,-589824,57,-56,-1,-1,0
1523611669475,-524288,57,-56,-1,-1,0
1523611669475,-589824,57,-56,-1,-1,0
1523611669475,-589824,57,-56,-1,-1,0
1523611669475,-720896,57,-56,-1,-1,0
1523611669515,-393216,57,-56,-1,-1,0
1523611669515,1114112,57,-56,-1,-1,0
1523611669515,4521984,57,-56,-1,-1,0
1523611669515,8323072,57,-56,-1,-1,0
1523611669515,9306112,57,-56,-1,-1,0
1523611669555,5505024,57,-56,-1,-1,0
1523611669555,589824,57,-56,-1,-1,0
1523611669555,-1441792,57,-56,-1,-1,0
1523611669555,-1114112,57,-56,-1,-1,0
1523611669555,-589824,57,-56,-1,-1,0
1523611669595,-458752,57,-56,-1,-1,0
1523611669595,-393216,57,-56,-1,-1,0
1523611669595,-327680,57,-56,-1,-1,0
1523611669595,-262144,57,-56,-1,-1,0
1523611669595,-262144,57,-56,-1,-1,0
1523611669635,-262144,57,-56,-1,-1,0
1523611669635,-262144,57,-56,-1,-1,0
1523611669635,-196608,57,-56,-1,-1,0
1523611669635,-131072,57,-56,-1,-1,0
1523611669635,-131072,57,-56,-1,-1,0
1523611669683,-65536,57,-56,-1,-1,0
1523611669683,0,57,-56,-1,-1,0
1523611669683,65536,57,-56,-1,-1,0
1523611669683,131072,57,-56,-1,-1,0
1523611669683,196608,57,-56,-1,-1,0
1523611669715,327680,57,-56,-1,-1,0
1523611669715,458752,57,-56,-1,-1,0
1523611669715,655360,57,-56,-1,-1,0
1523611669715,786432,57,-56,-1,-1,0
1523611669715,983040,57,-56,-1,-1,0
1523611669755,1245184,57,-56,-1,-1,0
1523611669755,1441792,57,-56,-1,-1,0
1523611669755,1703936,57,-56,-1,-1,0
1523611669755,1966080,57,-56,-1,-1,0
1523611669755,2162688,57,-56,-1,-1,0
1523611669795,2228224,57,-56,-1,-1,0
1523611669795,2293760,57,-56,-1,-1,0
1523611669795,2293760,57,-56,-1,-1,0
1523611669795,2097152,57,-56,-1,-1,0
1523611669795,1769472,57,-56,-1,-1,0
1523611669835,1310720,57,-56,-1,-1,0
1523611669835,851968,57,-56,-1,-1,0
1523611669835,458752,57,-56,-1,-1,0
1523611669835,131072,57,-56,-1,-1,0
1523611669835,0,57,-56,-1,-1,0
1523611669875,-196608,57,-56,-1,-1,0
1523611669875,-327680,57,-56,-1,-1,0
1523611669875,-393216,57,-56,-1,-1,0
1523611669875,-393216,57,-56,-1,-1,0
1523611669875,-393216,57,-56,-1,-1,0
1523611669915,-458752,57,-56,-1,-1,0
1523611669915,-458752,57,-56,-1,-1,0
1523611669915,-458752,57,-56,-1,-1,0
1523611669915,-393216,57,-56,-1,-1,0
1523611669915,-393216,57,-56,-1,-1,0
1523611669955,-393216,57,-56,-1,-1,0
1523611669955,-393216,57,-56,-1,-1,0
1523611669955,-393216,57,-56,-1,-1,0
1523611669955,-458752,57,-56,-1,-1,0
1523611669955,-458752,57,-56,-1,-1,0
1523611669995,-458752,57,-56,-1,-1,0
1523611669995,-393216,57,-56,-1,-1,0
1523611669995,-458752,57,-56,-1,-1,0
1523611669995,-458752,57,-56,-1,-1,0
1523611669995,-458752,57,-56,-1,-1,0
1523611670035,-458752,57,-56,-1,-1,0
1523611670035,-524288,57,-56,-1,-1,0
1523611670035,-524288,57,-56,-1,-1,0
1523611670035,-524288,57,-56,-1,-1,0
1523611670035,-524288,57,-56,-1,-1,0
1523611670075,-524288,57,-56,-1,-1,0
1523611670075,-589824,57,-56,-1,-1,0
1523611670075,-655360,57,-56,-1,-1,0
1523611670075,-655360,57,-56,-1,-1,0
1523611670075,-655360,57,-56,-1,-1,0
1523611670115,-589824,57,-56,-1,-1,0
1523611670115,-589824,57,-56,-1,-1,0
1523611670115,-655360,57,-56,-1,-1,0
1523611670115,-655360,57,-56,-1,-1,0
1523611670115,-655360,57,-56,-1,-1,0
1523611670155,-655360,57,-56,-1,-1,0
1523611670155,-655360,57,-56,-1,-1,0
1523611670155,-720896,57,-56,-1,-1,0
1523611670155,-720896,57,-56,-1,-1,0
1523611670155,-720896,57,-56,-1,-1,0
1523611670195,-655360,57,-56,-1,-1,0
1523611670195,-655360,57,-56,-1,-1,0
1523611670195,-720896,57,-56,-1,-1,0
1523611670195,-655360,57,-56,-1,-1,0
1523611670195,-655360,57,-56,-1,-1,0
1523611670235,-589824,57,-56,-1,-1,0
1523611670235,-589824,57,-56,-1,-1,0
1523611670235,-524288,57,-56,-1,-1,0
1523611670235,-524288,57,-56,-1,-1,0
1523611670235,-458752,57,-56,-1,-1,0
1523611670275,-458752,57,-56,-1,-1,0
1523611670275,-458752,57,-56,-1,-1,0
1523611670275,-458752,57,-56,-1,-1,0
1523611670275,-524288,57,-56,-1,-1,0
1523611670275,-524288,57,-56,-1,-1,0
1523611670323,-524288,57,-56,-1,-1,0
1523611670323,-589824,57,-56,-1,-1,0
1523611670323,-655360,57,-56,-1,-1,0
1523611670323,-720896,57,-56,-1,-1,0
1523611670323,-786432,57,-56,-1,-1,0
1523611670355,-786432,57,-56,-1,-1,0
1523611670355,-851968,57,-56,-1,-1,0
1523611670355,-917504,57,-56,-1,-1,0
1523611670355,-917504,57,-56,-1,-1,0
1523611670355,-851968,57,-56,-1,-1,0
1523611670395,-851968,57,-56,-1,-1,0
1523611670395,-786432,57,-56,-1,-1,0
1523611670395,-786432,57,-56,-1,-1,0
1523611670395,-720896,57,-56,-1,-1,0
1523611670395,-655360,57,-56,-1,-1,0
1523611670435,-524288,57,-56,-1,-1,0
1523611670435,-393216,57,-56,-1,-1,0
1523611670435,-262144,57,-56,-1,-1,0
1523611670435,-262144,57,-56,-1,-1,0
1523611670435,-458752,57,-56,-1,-1,0
1523611670475,-655360,57,-56,-1,-1,0
1523611670475,-720896,57,-56,-1,-1,0
1523611670475,-720896,57,-56,-1,-1,0
1523611670475,-786432,57,-56,-1,-1,0
1523611670475,-851968,57,-56,-1,-1,0
1523611670515,-786432,57,-56,-1,-1,0
1523611670515,-786432,57,-56,-1,-1,0
1523611670515,-786432,57,-56,-1,-1,0
1523611670515,-720896,57,-56,-1,-1,0
1523611670515,-786432,57,-56,-1,-1,0
1523611670555,-589824,57,-56,-1,-1,0
1523611670555,720896,57,-56,-1,-1,0
1523611670555,3932160,57,-56,-1,-1,0
1523611670555,7798784,57,-56,-1,-1,0
1523611670555,9502720,57,-56,-1,-1,0
1523611670595,6553600,57,-56,-1,-1,0
1523611670595,1638400,57,-56,-1,-1,0
1523611670595,-917504,57,-56,-1,-1,0
1523611670595,-983040,57,-56,-1,-1,0
1523611670595,-589824,57,-56,-1,-1,0
1523611670635,-393216,57,-56,-1,-1,0
1523611670635,-458752,57,-56,-1,-1,0
1523611670635,-524288,57,-56,-1,-1,0
1523611670635,-458752,57,-56,-1,-1,0
1523611670635,-393216,57,-56,-1,-1,0
1523611670675,-327680,57,-56,-1,-1,0
1523611670675,-196608,57,-56,-1,-1,0
1523611670675,-196608,57,-56,-1,-1,0
1523611670675,-196608,57,-56,-1,-1,0
1523611670675,-196608,57,-56,-1,-1,0
1523611670715,0,57,-56,-1,-1,0
1523611670715,0,57,-56,-1,-1,0
1523611670715,0,57,-56,-1,-1,0
1523611670715,0,57,-56,-1,-1,0
1523611670715,65536,57,-56,-1,-1,0
1523611670755,196608,57,-56,-1,-1,0
1523611670755,327680,57,-56,-1,-1,0
1523611670755,524288,57,-56,-1,-1,0
1523611670755,720896,57,-56,-1,-1,0
1523611670755,917504,57,-56,-1,-1,0
1523611670795,1114112,57,-56,-1,-1,0
1523611670795,1376256,57,-56,-1,-1,0
1523611670795,1703936,57,-56,-1,-1,0
1523611670795,1900544,57,-56,-1,-1,0
1523611670795,2031616,57,-56,-1,-1,0
1523611670835,2097152,57,-56,-1,-1,0
1523611670835,2228224,57,-56,-1,-1,0
1523611670835,2162688,57,-56,-1,-1,0
1523611670835,1966080,57,-56,-1,-1,0
1523611670835,1572864,57,-56,-1,-1,0
1523611670875,1179648,57,-56,-1,-1,0
1523611670875,786432,57,-56,-1,-1,0
1523611670875,393216,57,-56,-1,-1,0
1523611670875,196608,57,-56,-1,-1,0
1523611670875,0,57,-56,-1,-1,0
1523611670915,-131072,57,-56,-1,-1,0
1523611670915,-262144,57,-56,-1,-1,0
1523611670915,-393216,57,-56,-1,-1,0
1523611670915,-393216,57,-56,-1,-1,0
1523611670915,-393216,57,-56,-1,-1,0
1523611670963,-393216,57,-56,-1,-1,0
1523611670963,-393216,57,-56,-1,-1,0
1523611670963,-393216,57,-56,-1,-1,0
1523611670963,-393216,57,-56,-1,-1,0
1523611670963,-327680,57,-56,-1,-1,0
1523611670995,-327680,57,-56,-1,-1,0
1523611670995,-327680,57,-56,-1,-1,0
1523611670995,-393216,57,-56,-1,-1,0
1523611670995,-327680,57,-56,-1,-1,0
1523611670995,-262144,57,-56,-1,-1,0
1523611671035,-262144,57,-56,-1,-1,0
1523611671035,-327680,57,-56,-1,-1,0
1523611671035,-327680,57,-56,-1,-1,0
1523611671035,-327680,57,-56,-1,-1,0
1523611671035,-393216,57,-56,-1,-1,0
1523611671075,-393216,57,-56,-1,-1,0
1523611671075,-393216,57,-56,-1,-1,0
1523611671075,-458752,57,-56,-1,-1,0
1523611671075,-458752,57,-56,-1,-1,0
1523611671075,-458752,57,-56,-1,-1,0
1523611671115,-524288,57,-56,-1,-1,0
1523611671115,-524288,57,-56,-1,-1,0
1523611671115,-524288,57,-56,-1,-1,0
1523611671115,-524288,57,-56,-1,-1,0
1523611671115,-524288,57,-56,-1,-1,0
1523611671155,-524288,57,-56,-1,-1,0
1523611671155,-524288,57,-56,-1,-1,0
1523611671155,-524288,57,-56,-1,-1,0
1523611671155,-524288,57,-56,-1,-1,0
1523611671155,-458752,57,-56,-1,-1,0
1523611671195,-458752,57,-56,-1,-1,0
1523611671195,-458752,57,-56,-1,-1,0
1523611671195,-458752,57,-56,-1,-1,0
1523611671195,-524288,57,-56,-1,-1,0
1523611671195,-524288,57,-56,-1,-1,0
1523611671235,-524288,57,-56,-1,-1,0
1523611671235,-524288,57,-56,-1,-1,0
1523611671235,-458752,57,-56,-1,-1,0
1523611671235,-458752,57,-56,-1,-1,0
1523611671235,-458752,57,-56,-1,-1,0
1523611671275,-458752,57,-56,-1,-1,0
1523611671275,-458752,57,-56,-1,-1,0
1523611671275,-458752,57,-56,-1,-1,0
1523611671275,-458752,57,-56,-1,-1,0
1523611671275,-524288,57,-56,-1,-1,0
1523611671315,-524288,57,-56,-1,-1,0
1523611671315,-524288,57,-56,-1,-1,0
1523611671315,-524288,57,-56,-1,-1,0
1523611671315,-458752,57,-56,-1,-1,0
1523611671315,-458752,57,-56,-1,-1,0
1523611671355,-524288,57,-56,-1,-1,0
1523611671355,-524288,57,-56,-1,-1,0
1523611671355,-524288,57,-56,-1,-1,0
1523611671355,-524288,57,-56,-1,-1,0
1523611671355,-524288,57,-56,-1,-1,0
1523611671395,-524288,57,-56,-1,-1,0
1523611671395,-524288,57,-56,-1,-1,0
1523611671395,-589824,57,-56,-1,-1,0
1523611671395,-524288,57,-56,-1,-1,0
1523611671395,-524288,57,-56,-1,-1,0
1523611671433,-524288,57,-56,-1,-1,0
1523611671433,-589824,57,-56,-1,-1,0
1523611671433,-524288,57,-56,-1,-1,0
1523611671433,-524288,57,-56,-1,-1,0
1523611671433,-524288,57,-56,-1,-1,0
1523611671475,-589824,57,-56,-1,-1,0
1523611671475,-655360,57,-56,-1,-1,0
1523611671475,-720896,57,-56,-1,-1,0
1523611671475,-655360,57,-56,-1,-1,0
1523611671475,-655360,57,-56,-1,-1,0
1523611671515,-589824,57,-56,-1,-1,0
1523611671515,-458752,57,-56,-1,-1,0
1523611671515,-393216,57,-56,-1,-1,0
1523611671515,-393216,57,-56,-1,-1,0
1523611671515,-393216,57,-56,-1,-1,0
1523611671555,-458752,57,-56,-1,-1,0
1523611671555,-458752,57,-56,-1,-1,0
1523611671555,-524288,57,-56,-1,-1,0
1523611671555,-524288,57,-56,-1,-1,0
1523611671555,-524288,57,-56,-1,-1,0
1523611671603,-524288,57,-56,-1,-1,0
1523611671603,-524288,57,-56,-1,-1,0
1523611671603,-589824,57,-56,-1,-1,0
1523611671603,-524288,57,-56,-1,-1,0
1523611671603,-589824,57,-56,-1,-1,0
1523611671635,-655360,57,-56,-1,-1,0
1523611671635,65536,57,-56,-1,-1,0
1523611671635,2424832,57,-56,-1,-1,0
1523611671635,6160384,57,-56,-1,-1,0
1523611671635,8912896,57,-56,-1,-1,0
1523611671675,7667712,57,-56,-1,-1,0
1523611671675,3145728,57,-56,-1,-1,0
1523611671675,-393216,57,-56,-1,-1,0
1523611671675,-983040,57,-56,-1,-1,0
1523611671675,-589824,57,-56,-1,-1,0
1523611671715,-393216,57,-56,-1,-1,0
1523611671715,-393216,57,-56,-1,-1,0
1523611671715,-393216,57,-56,-1,-1,0
1523611671715,-393216,57,-56,-1,-1,0
1523611671715,-262144,57,-56,-1,-1,0
1523611671755,-262144,57,-56,-1,-1,0
1523611671755,-262144,57,-56,-1,-1,0
1523611671755,-262144,57,-56,-1,-1,0
1523611671755,-196608,57,-56,-1,-1,0
1523611671755,-196608,57,-56,-1,-1,0
1523611671795,-65536,57,-56,-1,-1,0
1523611671795,0,57,-56,-1,-1,0
1523611671795,0,57,-56,-1,-1,0
1523611671795,65536,57,-56,-1,-1,0
1523611671795,196608,57,-56,-1,-1,0
1523611671835,262144,57,-56,-1,-1,0
1523611671835,327680,57,-56,-1,-1,0
1523611671835,458752,57,-56,-1,-1,0
1523611671835,720896,57,-56,-1,-1,0
1523611671835,917504,57,-56,-1,-1,0
1523611671875,1179648,57,-56,-1,-1,0
1523611671875,1441792,57,-56,-1,-1,0
1523611671875,1703936,57,-56,-1,-1,0
1523611671875,1900544,57,-56,-1,-1,0
1523611671875,2097152,57,-56,-1,-1,0
1523611671913,2228224,57,-56,-1,-1,0
1523611671913,2228224,57,-56,-1,-1,0
1523611671913,2293760,57,-56,-1,-1,0
1523611671913,2097152,57,-56,-1,-1,0
1523611671913,1900544,57,-56,-1,-1,0
1523611671955,1572864,57,-56,-1,-1,0
1523611671955,1179648,57,-56,-1,-1,0
1523611671955,786432,57,-56,-1,-1,0
1523611671955,393216,57,-56,-1,-1,0
1523611671955,65536,57,-56,-1,-1,0
1523611671994,-65536,57,-56,-1,-1,0
1523611671994,-131072,57,-56,-1,-1,0
1523611671994,-196608,57,-56,-1,-1,0
1523611671994,-262144,57,-56,-1,-1,0
1523611671994,-262144,57,-56,-1,-1,0
1523611672035,-262144,56,-56,-1,-1,0
1523611672035,-262144,56,-56,-1,-1,0
1523611672035,-327680,56,-56,-1,-1,0
1523611672035,-262144,56,-56,-1,-1,0
1523611672035,-262144,56,-56,-1,-1,0
1523611672073,-196608,56,-56,-1,-1,0
1523611672073,-262144,56,-56,-1,-1,0
1523611672073,-327680,56,-56,-1,-1,0
1523611672073,-327680,56,-56,-1,-1,0
1523611672073,-262144,56,-56,-1,-1,0
1523611672115,-196608,56,-56,-1,-1,0
1523611672115,-196608,56,-56,-1,-1,0
1523611672115,-196608,56,-56,-1,-1,0
1523611672115,-262144,56,-56,-1,-1,0
1523611672115,-327680,56,-56,-1,-1,0
1523611672153,-393216,56,-56,-1,-1,0
1523611672153,-393216,56,-56,-1,-1,0
1523611672153,-327680,56,-56,-1,-1,0
1523611672153,-393216,56,-56,-1,-1,0
1523611672153,-458752,56,-56,-1,-1,0
1523611672195,-524288,56,-56,-1,-1,0
1523611672195,-524288,56,-56,-1,-1,0
1523611672195,-458752,56,-56,-1,-1,0
1523611672195,-458752,56,-56,-1,-1,0
1523611672195,-458752,56,-56,-1,-1,0
1523611672243,-458752,56,-56,-1,-1,0
1523611672243,-524288,56,-56,-1,-1,0
1523611672243,-524288,56,-56,-1,-1,0
1523611672243,-458752,56,-56,-1,-1,0
1523611672243,-458752,56,-56,-1,-1,0
1523611672275,-524288,56,-56,-1,-1,0
1523611672275,-524288,56,-56,-1,-1,0
1523611672275,-524288,56,-56,-1,-1,0
1523611672275,-524288,56,-56,-1,-1,0
1523611672275,-458752,56,-56,-1,-1,0
1523611672314,-458752,56,-56,-1,-1,0
1523611672314,-458752,56,-56,-1,-1,0
1523611672314,-524288,56,-56,-1,-1,0
1523611672314,-524288,56,-56,-1,-1,0
1523611672314,-524288,56,-56,-1,-1,0
1523611672355,-524288,56,-56,-1,-1,0
1523611672355,-524288,56,-56,-1,-1,0
1523611672355,-458752,56,-56,-1,-1,0
1523611672355,-458752,56,-56,-1,-1,0
1523611672355,-458752,56,-56,-1,-1,0
1523611672393,-458752,56,-56,-1,-1,0
1523611672393,-524288,56,-56,-1,-1,0
1523611672393,-524288,56,-56,-1,-1,0
1523611672393,-589824,56,-56,-1,-1,0
1523611672393,-524288,56,-56,-1,-1,0
1523611672436,-589824,56,-56,-1,-1,0
1523611672436,-589824,56,-56,-1,-1,0
1523611672436,-524288,56,-56,-1,-1,0
1523611672436,-524288,56,-56,-1,-1,0
1523611672436,-524288,56,-56,-1,-1,0
1523611672474,-524288,56,-56,-1,-1,0
1523611672474,-524288,56,-56,-1,-1,0
1523611672474,-524288,56,-56,-1,-1,0
1523611672474,-524288,56,-56,-1,-1,0
1523611672474,-524288,56,-56,-1,-1,0
1523611672515,-589824,56,-56,-1,-1,0
1523611672515,-589824,56,-56,-1,-1,0
1523611672515,-589824,56,-56,-1,-1,0
1523611672515,-589824,56,-56,-1,-1,0
1523611672515,-524288,56,-56,-1,-1,0
1523611672553,-524288,56,-56,-1,-1,0
1523611672553,-589824,56,-56,-1,-1,0
1523611672553,-589824,56,-56,-1,-1,0
1523611672553,-589824,56,-56,-1,-1,0
1523611672553,-589824,56,-56,-1,-1,0
1523611672595,-655360,56,-56,-1,-1,0
1523611672595,-655360,56,-56,-1,-1,0
1523611672595,-589824,56,-56,-1,-1,0
1523611672595,-458752,56,-56,-1,-1,0
1523611672595,-393216,56,-56,-1,-1,0
1523611672633,-327680,56,-56,-1,-1,0
1523611672633,-393216,56,-56,-1,-1,0
1523611672633,-458752,56,-56,-1,-1,0
1523611672633,-524288,56,-56,-1,-1,0
1523611672633,-458752,56,-56,-1,-1,0
1523611672675,-524288,56,-56,-1,-1,0
1523611672675,-589824,56,-56,-1,-1,0
1523611672675,-655360,56,-56,-1,-1,0
1523611672675,-589824,56,-56,-1,-1,0
1523611672675,-524288,56,-56,-1,-1,0
1523611672714,-524288,56,-56,-1,-1,0
1523611672714,-524288,56,-56,-1,-1,0
1523611672714,-589824,56,-56,-1,-1,0
1523611672714,-458752,56,-56,-1,-1,0
1523611672714,524288,56,-56,-1,-1,0
1523611672755,3145728,56,-56,-1,-1,0
1523611672755,6619136,56,-56,-1,-1,0
1523611672755,8454144,56,-56,-1,-1,0
1523611672755,6029312,56,-56,-1,-1,0
1523611672755,1507328,56,-56,-1,-1,0
1523611672794,-1179648,56,-56,-1,-1,0
1523611672794,-1179648,56,-56,-1,-1,0
1523611672794,-589824,56,-56,-1,-1,0
1523611672794,-262144,56,-56,-1,-1,0
1523611672794,-262144,56,-56,-1,-1,0
1523611672835,-262144,56,-56,-1,-1,0
1523611672835,-262144,56,-56,-1,-1,0
1523611672835,-262144,56,-56,-1,-1,0
1523611672835,-262144,56,-56,-1,-1,0
1523611672835,-131072,56,-56,-1,-1,0
1523611672883,-65536,56,-56,-1,-1,0
1523611672883,-65536,56,-56,-1,-1,0
1523611672883,0,56,-56,-1,-1,0
1523611672883,131072,56,-56,-1,-1,0
1523611672883,131072,56,-56,-1,-1,0
1523611672915,196608,56,-56,-1,-1,0
1523611672915,262144,56,-56,-1,-1,0
1523611672915,327680,56,-56,-1,-1,0
1523611672915,327680,56,-56,-1,-1,0
1523611672915,458752,56,-56,-1,-1,0
1523611672953,589824,56,-56,-1,-1,0
1523611672953,917504,56,-56,-1,-1,0
1523611672953,1048576,56,-56,-1,-1,0
1523611672953,1179648,56,-56,-1,-1,0
1523611672953,1245184,56,-56,-1,-1,0
1523611672995,1441792,56,-56,-1,-1,0
1523611672995,1703936,56,-56,-1,-1,0
1523611672995,1900544,56,-56,-1,-1,0
1523611672995,2031616,56,-56,-1,-1,0
1523611672995,2097152,56,-56,-1,-1,0
1523611673034,2097152,56,-56,-1,-1,0
1523611673034,2097152,56,-56,-1,-1,0
1523611673034,1835008,56,-56,-1,-1,0
1523611673034,1376256,56,-56,-1,-1,0
1523611673034,983040,56,-56,-1,-1,0
1523611673073,589824,56,-56,-1,-1,0
1523611673073,262144,56,-56,-1,-1,0
1523611673073,0,56,-56,-1,-1,0
1523611673073,-131072,56,-56,-1,-1,0
1523611673073,-196608,56,-56,-1,-1,0
1523611673114,-327680,55,-56,-1,-1,0
1523611673114,-393216,55,-56,-1,-1,0
1523611673114,-393216,55,-56,-1,-1,0
1523611673114,-393216,55,-56,-1,-1,0
1523611673114,-393216,55,-56,-1,-1,0
1523611673153,-327680,55,-56,-1,-1,0
1523611673153,-262144,55,-56,-1,-1,0
1523611673153,-262144,55,-56,-1,-1,0
1523611673153,-262144,55,-56,-1,-1,0
1523611673153,-262144,55,-56,-1,-1,0
1523611673194,-327680,55,-56,-1,-1,0
1523611673194,-262144,55,-56,-1,-1,0
1523611673194,-262144,55,-56,-1,-1,0
1523611673194,-327680,55,-56,-1,-1,0
1523611673194,-327680,55,-56,-1,-1,0
1523611673233,-262144,55,-56,-1,-1,0
1523611673233,-262144,55,-56,-1,-1,0
1523611673233,-327680,55,-56,-1,-1,0
1523611673233,-458752,55,-56,-1,-1,0
1523611673233,-458752,55,-56,-1,-1,0
1523611673273,-458752,55,-56,-1,-1,0
1523611673273,-458752,55,-56,-1,-1,0
1523611673273,-524288,55,-56,-1,-1,0
1523611673273,-589824,55,-56,-1,-1,0
1523611673273,-589824,55,-56,-1,-1,0
1523611673315,-524288,55,-56,-1,-1,0
1523611673315,-524288,55,-56,-1,-1,0
1523611673315,-524288,55,-56,-1,-1,0
1523611673315,-524288,55,-56,-1,-1,0
1523611673315,-589824,55,-56,-1,-1,0
1523611673353,-589824,55,-56,-1,-1,0
1523611673353,-589824,55,-56,-1,-1,0
1523611673353,-589824,55,-56,-1,-1,0
1523611673353,-589824,55,-56,-1,-1,0
1523611673353,-589824,55,-56,-1,-1,0
1523611673393,-589824,55,-56,-1,-1,0
1523611673393,-589824,55,-56,-1,-1,0
1523611673393,-589824,55,-56,-1,-1,0
1523611673393,-589824,55,-56,-1,-1,0
1523611673393,-655360,55,-56,-1,-1,0
1523611673434,-655360,55,-56,-1,-1,0
1523611673434,-655360,55,-56,-1,-1,0
1523611673434,-655360,55,-56,-1,-1,0
1523611673434,-589824,55,-56,-1,-1,0
1523611673434,-589824,55,-56,-1,-1,0
1523611673473,-655360,55,-56,-1,-1,0
1523611673473,-589824,55,-56,-1,-1,0
1523611673473,-524288,55,-56,-1,-1,0
1523611673473,-589824,55,-56,-1,-1,0
1523611673473,-589824,55,-56,-1,-1,0
1523611673522,-655360,55,-56,-1,-1,0
1523611673522,-589824,55,-56,-1,-1,0
1523611673522,-589824,55,-56,-1,-1,0
1523611673522,-589824,55,-56,-1,-1,0
1523611673522,-589824,55,-56,-1,-1,0
1523611673553,-589824,55,-56,-1,-1,0
1523611673553,-589824,55,-56,-1,-1,0
1523611673553,-589824,55,-56,-1,-1,0
1523611673553,-589824,55,-56,-1,-1,0
1523611673553,-589824,55,-56,-1,-1,0
1523611673593,-524288,55,-56,-1,-1,0
1523611673593,-524288,55,-56,-1,-1,0
1523611673593,-524288,55,-56,-1,-1,0
1523611673593,-524288,55,-56,-1,-1,0
1523611673593,-524288,55,-56,-1,-1,0
1523611673633,-524288,55,-56,-1,-1,0
1523611673633,-524288,55,-56,-1,-1,0
1523611673633,-524288,55,-56,-1,-1,0
1523611673633,-589824,55,-56,-1,-1,0
1523611673633,-655360,55,-56,-1,-1,0
1523611673673,-655360,55,-56,-1,-1,0
1523611673673,-655360,55,-56,-1,-1,0
1523611673673,-655360,55,-56,-1,-1,0
1523611673673,-589824,55,-56,-1,-1,0
1523611673673,-524288,55,-56,-1,-1,0
1523611673713,-393216,55,-56,-1,-1,0
1523611673713,-327680,55,-56,-1,-1,0
1523611673713,-393216,55,-56,-1,-1,0
1523611673713,-458752,55,-56,-1,-1,0
1523611673713,-524288,55,-56,-1,-1,0
1523611673754,-589824,55,-56,-1,-1,0
1523611673754,-589824,55,-56,-1,-1,0
1523611673754,-524288,55,-56,-1,-1,0
1523611673754,-524288,55,-56,-1,-1,0
1523611673754,-589824,55,-56,-1,-1,0
1523611673793,-524288,55,-56,-1,-1,0
1523611673793,-524288,55,-56,-1,-1,0
1523611673793,-524288,55,-56,-1,-1,0
1523611673793,-589824,55,-56,-1,-1,0
1523611673793,-524288,55,-56,-1,-1,0
1523611673833,524288,55,-56,-1,-1,0
1523611673833,3342336,55,-56,-1,-1,0
1523611673833,6946816,55,-56,-1,-1,0
1523611673833,8716288,55,-56,-1,-1,0
1523611673833,6094848,55,-56,-1,-1,0
1523611673873,1638400,55,-56,-1,-1,0
1523611673873,-917504,55,-56,-1,-1,0
1523611673873,-917504,55,-56,-1,-1,0
1523611673873,-458752,55,-56,-1,-1,0
1523611673873,-327680,55,-56,-1,-1,0
1523611673913,-262144,55,-56,-1,-1,0
1523611673913,-262144,55,-56,-1,-1,0
1523611673913,-262144,55,-56,-1,-1,0
1523611673913,-262144,55,-56,-1,-1,0
1523611673913,-196608,55,-56,-1,-1,0
1523611673953,-196608,55,-56,-1,-1,0
1523611673953,-131072,55,-56,-1,-1,0
1523611673953,-65536,55,-56,-1,-1,0
1523611673953,-65536,55,-56,-1,-1,0
