milliseconds, ECG, ECG HR, PPG, PPG HR, SpO2, PI
0,-1703936,69,-56,-1,-1,0
33,-1179648,69,-56,-1,-1,0
66,-196608,69,-56,-1,-1,0
100,-2162688,69,-56,-1,-1,0
133,-458752,69,-56,-1,-1,0
166,262144,69,-56,-1,-1,0
200,0,69,-56,-1,-1,0
233,983040,69,-56,-1,-1,0
266,2359296,69,-56,-1,-1,0
300,2359296,69,-56,-1,-1,0
333,-1245184,69,-56,-1,-1,0
366,-2883584,69,-56,-1,-1,0
400,-1900544,69,-56,-1,-1,0
433,-720896,69,-56,-1,-1,0
466,-2424832,69,-56,-1,-1,0
500,131072,69,-56,-1,-1,0
533,-2686976,69,-56,-1,-1,0
566,-2359296,69,-56,-1,-1,0
600,-2949120,69,-56,-1,-1,0
633,-720896,69,-56,-1,-1,0
666,-2359296,69,-56,-1,-1,0
700,7471104,69,-56,-1,-1,0
733,-1769472,69,-56,-1,-1,0
766,-2162688,69,-56,-1,-1,0
800,-1900544,69,-56,-1,-1,0
833,-786432,69,-56,-1,-1,0
866,720896,69,-56,-1,-1,0
900,1572864,69,-56,-1,-1,0
933,-196608,69,-56,-1,-1,0
966,-1048576,69,-56,-1,-1,0
1000,-1048576,69,-56,-1,-1,0
1033,-1048576,69,-56,-1,-1,0
1066,-786432,69,-56,-1,-1,0
1100,0,69,-56,-1,-1,0
1133,0,69,-56,-1,-1,0
1166,-524288,69,-56,-1,-1,0
1200,-851968,69,-56,-1,-1,0
1233,-851968,69,-56,-1,-1,0
1266,-917504,69,-56,-1,-1,0
1300,9109504,69,-56,-1,-1,0
1333,655360,69,-56,-1,-1,0
1366,131072,69,-56,-1,-1,0
1400,458752,69,-56,-1,-1,0
1433,1245184,69,-56,-1,-1,0
1466,2686976,69,-56,-1,-1,0
1500,3604480,69,-56,-1,-1,0
1533,1048576,69,-56,-1,-1,0
1566,196608,69,-56,-1,-1,0
1600,-65536,69,-56,-1,-1,0
1633,0,69,-56,-1,-1,0
1666,-131072,69,-56,-1,-1,0
1700,-589824,69,-56,-1,-1,0
1733,-720896,69,-56,-1,-1,0
1766,-65536,69,-56,-1,-1,0
1800,-917504,69,-56,-1,-1,0
1833,-589824,69,-56,-1,-1,0
1866,-1114112,69,-56,-1,-1,0
1900,8323072,69,-56,-1,-1,0
1933,-458752,69,-56,-1,-1,0
1966,-327680,69,-56,-1,-1,0
2000,-262144,69,-56,-1,-1,0
2033,851968,69,-56,-1,-1,0
2066,2162688,69,-56,-1,-1,0
2100,2752512,69,-56,-1,-1,0
2133,0,69,-56,-1,-1,0
2166,-917504,69,-56,-1,-1,0
2200,-1179648,69,-56,-1,-1,0
2233,-1048576,69,-56,-1,-1,0
2266,-1048576,69,-56,-1,-1,0
2300,-786432,69,-56,-1,-1,0
2333,-983040,69,-56,-1,-1,0
2366,-589824,69,-56,-1,-1,0
2400,-1245184,69,-56,-1,-1,0
2433,-983040,69,-56,-1,-1,0
2466,-1114112,70,-56,-1,-1,0
2500,9437184,70,-56,-1,-1,0
2533,-524288,70,-56,-1,-1,0
2566,-393216,70,-56,-1,-1,0
2600,131072,70,-56,-1,-1,0
2633,851968,70,-56,-1,-1,0
2666,2293760,70,-56,-1,-1,0
2700,3538944,70,-56,-1,-1,0
2733,655360,70,-56,-1,-1,0
2766,0,70,-56,-1,-1,0
2800,-262144,70,-56,-1,-1,0
2833,0,70,-56,-1,-1,0
2866,-262144,70,-56,-1,-1,0
2900,-131072,70,-56,-1,-1,0
2933,-327680,70,-56,-1,-1,0
2966,-589824,70,-56,-1,-1,0
3000,-655360,70,-56,-1,-1,0
3033,-851968,70,-56,-1,-1,0
3066,-1245184,73,-56,-1,-1,0
3100,6356992,73,-56,-1,-1,0
3133,-655360,73,-56,-1,-1,0
3166,-327680,73,-56,-1,-1,0
3200,-196608,73,-56,-1,-1,0
3233,851968,73,-56,-1,-1,0
3266,1769472,73,-56,-1,-1,0
3300,2228224,73,-56,-1,-1,0
3333,-196608,73,-56,-1,-1,0
3366,-1048576,73,-56,-1,-1,0
3400,-851968,73,-56,-1,-1,0
3433,-917504,73,-56,-1,-1,0
3466,-851968,73,-56,-1,-1,0
3500,-655360,73,-56,-1,-1,0
3533,-1376256,73,-56,-1,-1,0
3566,-1048576,73,-56,-1,-1,0
3600,-1507328,73,-56,-1,-1,0
3633,-1114112,73,-56,-1,-1,0
3666,-1572864,76,-56,-1,-1,0
3699,3407872,76,-56,-1,-1,0
3733,-720896,76,-56,-1,-1,0
3766,-262144,76,-56,-1,-1,0
3800,-65536,76,-56,-1,-1,0
3833,1114112,76,-56,-1,-1,0
3866,2555904,76,-56,-1,-1,0
3900,2293760,76,-56,-1,-1,0
3933,262144,76,-56,-1,-1,0
3966,-458752,76,-56,-1,-1,0
4000,-458752,76,-56,-1,-1,0
4033,-524288,76,-56,-1,-1,0
4066,-524288,76,-56,-1,-1,0
4100,-786432,76,-56,-1,-1,0
4133,-786432,76,-56,-1,-1,0
4166,-1376256,76,-56,-1,-1,0
4200,-786432,79,-56,-1,-1,0
4233,-1179648,79,-56,-1,-1,0
4266,8519680,79,-56,-1,-1,0
4300,-655360,79,-56,-1,-1,0
4333,-589824,79,-56,-1,-1,0
4366,-393216,79,-56,-1,-1,0
4400,458752,79,-56,-1,-1,0
4433,1703936,79,-56,-1,-1,0
4466,2686976,79,-56,-1,-1,0
4500,458752,79,-56,-1,-1,0
4533,-524288,79,-56,-1,-1,0
4566,-589824,79,-56,-1,-1,0
4600,-458752,79,-56,-1,-1,0
4633,-655360,79,-56,-1,-1,0
4666,-524288,79,-56,-1,-1,0
4700,-720896,79,-56,-1,-1,0
4733,-983040,79,-56,-1,-1,0
4766,-851968,81,-56,-1,-1,0
4800,-1179648,81,-56,-1,-1,0
4833,8847360,81,-56,-1,-1,0
4866,-655360,81,-56,-1,-1,0
4900,-589824,81,-56,-1,-1,0
4933,-131072,81,-56,-1,-1,0
4966,131072,81,-56,-1,-1,0
5000,1769472,81,-56,-1,-1,0
5033,2424832,81,-56,-1,-1,0
5066,0,81,-56,-1,-1,0
5100,-917504,81,-56,-1,-1,0
5133,-851968,81,-56,-1,-1,0
5166,-917504,81,-56,-1,-1,0
5200,-786432,81,-56,-1,-1,0
5233,-786432,81,-56,-1,-1,0
5266,-983040,81,-56,-1,-1,0
5300,-983040,82,-56,-1,-1,0
5333,-983040,82,-56,-1,-1,0
5366,1507328,82,-56,-1,-1,0
5400,-1179648,82,-56,-1,-1,0
5433,-786432,82,-56,-1,-1,0
5466,-393216,82,-56,-1,-1,0
5500,0,82,-56,-1,-1,0
5533,1310720,82,-56,-1,-1,0
5566,2097152,82,-56,-1,-1,0
5600,327680,82,-56,-1,-1,0
5633,-1048576,82,-56,-1,-1,0
5666,-1179648,82,-56,-1,-1,0
5700,-1048576,82,-56,-1,-1,0
5733,-983040,82,-56,-1,-1,0
5766,-1245184,82,-56,-1,-1,0
5800,-1245184,82,-56,-1,-1,0
5833,-1310720,83,-56,-1,-1,0
5866,-1245184,83,-56,-1,-1,0
5900,-1572864,83,-56,-1,-1,0
5933,3932160,83,-56,-1,-1,0
5966,-589824,83,-56,-1,-1,0
6000,-589824,83,-56,-1,-1,0
6033,-131072,83,-56,-1,-1,0
6066,655360,83,-56,-1,-1,0
6100,1835008,83,-56,-1,-1,0
6133,1638400,83,-56,-1,-1,0
6166,-65536,83,-56,-1,-1,0
6200,-262144,83,-56,-1,-1,0
6233,-655360,83,-56,-1,-1,0
6266,-393216,83,-56,-1,-1,0
6300,-393216,83,-56,-1,-1,0
6333,-262144,83,-56,-1,-1,0
6366,-393216,84,-56,-1,-1,0
6400,-458752,84,-56,-1,-1,0
6433,-851968,84,-56,-1,-1,0
6466,6684672,84,-56,-1,-1,0
6500,-524288,84,-56,-1,-1,0
6533,-393216,84,-56,-1,-1,0
6566,-458752,84,-56,-1,-1,0
6600,262144,84,-56,-1,-1,0
6633,1441792,84,-56,-1,-1,0
6666,1638400,84,-56,-1,-1,0
6700,-851968,84,-56,-1,-1,0
6733,-1114112,84,-56,-1,-1,0
6766,-1638400,84,-56,-1,-1,0
6800,-1310720,84,-56,-1,-1,0
6833,-1376256,84,-56,-1,-1,0
6866,-1376256,84,-56,-1,-1,0
6899,-1638400,85,-56,-1,-1,0
6933,-1638400,85,-56,-1,-1,0
6966,-2162688,85,-56,-1,-1,0
7000,6684672,85,-56,-1,-1,0
7033,-589824,85,-56,-1,-1,0
7066,-196608,85,-56,-1,-1,0
7100,0,85,-56,-1,-1,0
7133,1114112,85,-56,-1,-1,0
7166,2621440,85,-56,-1,-1,0
7200,2424832,85,-56,-1,-1,0
7233,458752,85,-56,-1,-1,0
7266,-655360,85,-56,-1,-1,0
7300,65536,85,-56,-1,-1,0
7333,-589824,85,-56,-1,-1,0
7366,-393216,85,-56,-1,-1,0
7399,-720896,85,-56,-1,-1,0
7433,-720896,86,-56,-1,-1,0
7466,-524288,86,-56,-1,-1,0
7500,-65536,86,-56,-1,-1,0
7533,-1900544,86,-56,-1,-1,0
7566,-196608,86,-56,-1,-1,0
7600,196608,86,-56,-1,-1,0
7633,589824,86,-56,-1,-1,0
7666,1703936,86,-56,-1,-1,0
7700,2621440,86,-56,-1,-1,0
7733,786432,86,-56,-1,-1,0
7766,-589824,86,-56,-1,-1,0
7800,-1638400,86,-56,-1,-1,0
7833,-1114112,86,-56,-1,-1,0
7866,-983040,86,-56,-1,-1,0
7899,-1703936,86,-56,-1,-1,0
7933,-917504,86,-56,-1,-1,0
7966,-655360,87,-56,-1,-1,0
8000,-1310720,87,-56,-1,-1,0
8033,0,87,-56,-1,-1,0
8066,-1507328,87,-56,-1,-1,0
8100,-1048576,87,-56,-1,-1,0
8133,-393216,87,-56,-1,-1,0
8166,262144,87,-56,-1,-1,0
8200,1310720,87,-56,-1,-1,0
8233,2490368,87,-56,-1,-1,0
8266,1114112,87,-56,-1,-1,0
8300,-655360,87,-56,-1,-1,0
8333,-1048576,87,-56,-1,-1,0
8366,-720896,87,-56,-1,-1,0
8400,-655360,87,-56,-1,-1,0
8433,-393216,87,-56,-1,-1,0
8466,-458752,87,-56,-1,-1,0
8500,-720896,89,-56,-1,-1,0
8533,-589824,89,-56,-1,-1,0
8566,-131072,89,-56,-1,-1,0
8600,-1048576,89,-56,-1,-1,0
8633,-458752,89,-56,-1,-1,0
8666,-393216,89,-56,-1,-1,0
8700,196608,89,-56,-1,-1,0
8733,1114112,89,-56,-1,-1,0
8766,2818048,89,-56,-1,-1,0
8800,851968,89,-56,-1,-1,0
8833,-589824,89,-56,-1,-1,0
8866,-1114112,89,-56,-1,-1,0
8900,-983040,89,-56,-1,-1,0
8933,-851968,89,-56,-1,-1,0
8966,-917504,89,-56,-1,-1,0
9000,-1114112,89,-56,-1,-1,0
9033,-1310720,89,-56,-1,-1,0
9066,-1048576,90,-56,-1,-1,0
9100,-1769472,90,-56,-1,-1,0
9133,4915200,90,-56,-1,-1,0
9166,-458752,90,-56,-1,-1,0
9200,-393216,90,-56,-1,-1,0
9233,65536,90,-56,-1,-1,0
9266,917504,90,-56,-1,-1,0
9300,2228224,90,-56,-1,-1,0
9333,2031616,90,-56,-1,-1,0
9366,-655360,90,-56,-1,-1,0
9400,-1048576,90,-56,-1,-1,0
9433,-917504,90,-56,-1,-1,0
9466,-1114112,90,-56,-1,-1,0
9500,-983040,90,-56,-1,-1,0
9533,-1179648,90,-56,-1,-1,0
9566,-1048576,90,-56,-1,-1,0
9600,-1114112,90,-56,-1,-1,0
9633,-1507328,91,-56,-1,-1,0
9666,1245184,91,-56,-1,-1,0
9700,-1114112,91,-56,-1,-1,0
9733,-393216,91,-56,-1,-1,0
9766,-720896,91,-56,-1,-1,0
9800,65536,91,-56,-1,-1,0
9833,983040,91,-56,-1,-1,0
9866,2490368,91,-56,-1,-1,0
9900,983040,91,-56,-1,-1,0
9933,-786432,91,-56,-1,-1,0
9966,-720896,91,-56,-1,-1,0
10000,-983040,91,-56,-1,-1,0
10033,-655360,91,-56,-1,-1,0
10066,-786432,91,-56,-1,-1,0
10100,-786432,91,-56,-1,-1,0
10133,-1114112,91,-56,-1,-1,0
10166,-917504,91,-56,-1,-1,0
10200,-1245184,90,-56,-1,-1,0
10233,851968,90,-56,-1,-1,0
10266,-917504,90,-56,-1,-1,0
10300,-589824,90,-56,-1,-1,0
10333,-196608,90,-56,-1,-1,0
10366,196608,90,-56,-1,-1,0
10400,1376256,90,-56,-1,-1,0
10433,2883584,90,-56,-1,-1,0
10466,1048576,90,-56,-1,-1,0
10500,-458752,90,-56,-1,-1,0
10533,-917504,90,-56,-1,-1,0
10566,-851968,90,-56,-1,-1,0
10600,-1048576,90,-56,-1,-1,0
10633,-917504,90,-56,-1,-1,0
10666,-917504,90,-56,-1,-1,0
10700,-851968,90,-56,-1,-1,0
10733,-1114112,90,-56,-1,-1,0
10766,-786432,90,-56,-1,-1,0
10800,-1310720,90,-56,-1,-1,0
10833,4063232,90,-56,-1,-1,0
10866,-196608,90,-56,-1,-1,0
10900,-393216,90,-56,-1,-1,0
10933,327680,90,-56,-1,-1,0
10966,917504,90,-56,-1,-1,0
11000,2490368,90,-56,-1,-1,0
11033,2490368,90,-56,-1,-1,0
11066,0,90,-56,-1,-1,0
11100,-589824,90,-56,-1,-1,0
11133,-720896,90,-56,-1,-1,0
11166,-786432,90,-56,-1,-1,0
11200,-524288,90,-56,-1,-1,0
11233,-1179648,90,-56,-1,-1,0
11266,-786432,90,-56,-1,-1,0
11300,-1245184,90,-56,-1,-1,0
11333,-1048576,90,-56,-1,-1,0
11366,-1572864,90,-56,-1,-1,0
11400,7667712,90,-56,-1,-1,0
11433,-524288,90,-56,-1,-1,0
11466,-589824,90,-56,-1,-1,0
11500,0,90,-56,-1,-1,0
11533,786432,90,-56,-1,-1,0
11566,2359296,90,-56,-1,-1,0
11600,2818048,90,-56,-1,-1,0
11633,131072,90,-56,-1,-1,0
11666,-589824,90,-56,-1,-1,0
11700,-720896,90,-56,-1,-1,0
11733,-589824,90,-56,-1,-1,0
11766,-589824,90,-56,-1,-1,0
11800,-720896,90,-56,-1,-1,0
11833,-589824,90,-56,-1,-1,0
11866,-1048576,90,-56,-1,-1,0
11900,-786432,90,-56,-1,-1,0
11933,-1114112,90,-56,-1,-1,0
11966,10092544,90,-56,-1,-1,0
12000,-655360,90,-56,-1,-1,0
12033,-851968,90,-56,-1,-1,0
12066,-524288,90,-56,-1,-1,0
12100,262144,90,-56,-1,-1,0
12133,1769472,90,-56,-1,-1,0
12166,2621440,90,-56,-1,-1,0
12200,-131072,90,-56,-1,-1,0
12233,-1114112,90,-56,-1,-1,0
12266,-1048576,90,-56,-1,-1,0
12300,-1114112,90,-56,-1,-1,0
12333,-1048576,90,-56,-1,-1,0
12366,-917504,90,-56,-1,-1,0
12400,-983040,90,-56,-1,-1,0
12433,-1114112,90,-56,-1,-1,0
12466,-983040,90,-56,-1,-1,0
12500,-1572864,90,-56,-1,-1,0
12533,458752,90,-56,-1,-1,0
12566,-524288,90,-56,-1,-1,0
12600,-458752,90,-56,-1,-1,0
12633,-65536,90,-56,-1,-1,0
12666,1114112,90,-56,-1,-1,0
12700,2424832,90,-56,-1,-1,0
12733,2031616,90,-56,-1,-1,0
12766,-262144,90,-56,-1,-1,0
12800,-720896,90,-56,-1,-1,0
12833,-851968,90,-56,-1,-1,0
12866,-851968,90,-56,-1,-1,0
12900,-655360,90,-56,-1,-1,0
12933,-917504,90,-56,-1,-1,0
12966,-983040,90,-56,-1,-1,0
13000,-1048576,91,-56,-1,-1,0
13033,-1245184,91,-56,-1,-1,0
13066,9240576,91,-56,-1,-1,0
13100,-589824,91,-56,-1,-1,0
13133,-524288,91,-56,-1,-1,0
13166,-262144,91,-56,-1,-1,0
13200,393216,91,-56,-1,-1,0
13233,1900544,91,-56,-1,-1,0
13266,2490368,91,-56,-1,-1,0
13299,131072,91,-56,-1,-1,0
13333,-983040,91,-56,-1,-1,0
13366,-851968,91,-56,-1,-1,0
13400,-851968,91,-56,-1,-1,0
13433,-851968,91,-56,-1,-1,0
13466,-1179648,91,-56,-1,-1,0
13500,-1310720,91,-56,-1,-1,0
13533,-1048576,91,-56,-1,-1,0
13566,-1310720,91,-56,-1,-1,0
13600,983040,91,-56,-1,-1,0
13633,-1703936,91,-56,-1,-1,0
13666,-1310720,91,-56,-1,-1,0
13700,-458752,91,-56,-1,-1,0
13733,0,91,-56,-1,-1,0
13766,1179648,91,-56,-1,-1,0
13799,2359296,91,-56,-1,-1,0
13833,851968,91,-56,-1,-1,0
13866,-655360,91,-56,-1,-1,0
13900,-851968,91,-56,-1,-1,0
13933,-917504,91,-56,-1,-1,0
13966,-589824,91,-56,-1,-1,0
14000,-524288,91,-56,-1,-1,0
14033,-851968,91,-56,-1,-1,0
14066,-720896,91,-56,-1,-1,0
14100,-786432,91,-56,-1,-1,0
14133,-1310720,91,-56,-1,-1,0
14166,2752512,91,-56,-1,-1,0
14200,-262144,91,-56,-1,-1,0
14233,-393216,91,-56,-1,-1,0
14266,131072,91,-56,-1,-1,0
14299,1048576,91,-56,-1,-1,0
14333,2752512,91,-56,-1,-1,0
14366,2097152,91,-56,-1,-1,0
14400,0,91,-56,-1,-1,0
14433,-589824,91,-56,-1,-1,0
14466,-720896,91,-56,-1,-1,0
14500,-720896,91,-56,-1,-1,0
14533,-720896,91,-56,-1,-1,0
14566,-1048576,91,-56,-1,-1,0
14600,-1114112,91,-56,-1,-1,0
14633,-983040,91,-56,-1,-1,0
14666,-1179648,91,-56,-1,-1,0
14700,9830400,91,-56,-1,-1,0
14733,-589824,91,-56,-1,-1,0
14766,-655360,91,-56,-1,-1,0
14799,-131072,91,-56,-1,-1,0
14833,458752,91,-56,-1,-1,0
14866,2031616,91,-56,-1,-1,0
14900,2949120,91,-56,-1,-1,0
14933,131072,91,-56,-1,-1,0
14966,-589824,91,-56,-1,-1,0
15000,-1048576,91,-56,-1,-1,0
15033,-851968,91,-56,-1,-1,0
15066,-1114112,91,-56,-1,-1,0
15100,-851968,91,-56,-1,-1,0
15133,-1179648,91,-56,-1,-1,0
15166,-917504,91,-56,-1,-1,0
15200,-1310720,91,-56,-1,-1,0
15233,3997696,91,-56,-1,-1,0
15266,-983040,91,-56,-1,-1,0
15299,-655360,91,-56,-1,-1,0
15333,-720896,91,-56,-1,-1,0
15366,0,91,-56,-1,-1,0
15400,1048576,91,-56,-1,-1,0
15433,2424832,91,-56,-1,-1,0
15466,262144,91,-56,-1,-1,0
15500,-983040,91,-56,-1,-1,0
15533,-720896,91,-56,-1,-1,0
15566,-786432,91,-56,-1,-1,0
15600,-458752,91,-56,-1,-1,0
15633,-1114112,91,-56,-1,-1,0
15666,-917504,91,-56,-1,-1,0
15700,-655360,91,-56,-1,-1,0
15733,-983040,91,-56,-1,-1,0
15766,-524288,91,-56,-1,-1,0
15799,-589824,91,-56,-1,-1,0
15833,-655360,91,-56,-1,-1,0
15866,-65536,91,-56,-1,-1,0
15900,131072,91,-56,-1,-1,0
15933,1245184,91,-56,-1,-1,0
15966,2686976,91,-56,-1,-1,0
16000,1179648,91,-56,-1,-1,0
16033,-393216,91,-56,-1,-1,0
16066,-851968,91,-56,-1,-1,0
16100,-786432,91,-56,-1,-1,0
16133,-851968,91,-56,-1,-1,0
16166,-983040,91,-56,-1,-1,0
16200,-1245184,91,-56,-1,-1,0
16233,-983040,91,-56,-1,-1,0
16266,-1179648,91,-56,-1,-1,0
16300,-1638400,91,-56,-1,-1,0
16333,917504,91,-56,-1,-1,0
16366,-851968,91,-56,-1,-1,0
16400,-393216,91,-56,-1,-1,0
16433,-131072,91,-56,-1,-1,0
16466,786432,91,-56,-1,-1,0
16500,2293760,91,-56,-1,-1,0
16533,1441792,91,-56,-1,-1,0
16566,-524288,91,-56,-1,-1,0
16600,-851968,91,-56,-1,-1,0
16633,-917504,91,-56,-1,-1,0
16666,-786432,91,-56,-1,-1,0
16700,-851968,91,-56,-1,-1,0
16733,-851968,91,-56,-1,-1,0
16766,-1245184,91,-56,-1,-1,0
16800,-1048576,91,-56,-1,-1,0
16833,-1114112,91,-56,-1,-1,0
16866,10354688,91,-56,-1,-1,0
16900,-589824,91,-56,-1,-1,0
16933,-1048576,91,-56,-1,-1,0
16966,-458752,91,-56,-1,-1,0
17000,0,91,-56,-1,-1,0
17033,1245184,91,-56,-1,-1,0
17066,1900544,91,-56,-1,-1,0
17100,-1048576,91,-56,-1,-1,0
17133,-1572864,91,-56,-1,-1,0
17166,-1572864,91,-56,-1,-1,0
17200,-1572864,91,-56,-1,-1,0
17233,-1048576,91,-56,-1,-1,0
17266,-1638400,91,-56,-1,-1,0
17300,-1114112,91,-56,-1,-1,0
17333,-1048576,91,-56,-1,-1,0
17366,-1310720,91,-56,-1,-1,0
17400,8716288,91,-56,-1,-1,0
17433,-262144,91,-56,-1,-1,0
17466,65536,91,-56,-1,-1,0
17500,196608,91,-56,-1,-1,0
17533,1441792,91,-56,-1,-1,0
17566,2359296,91,-56,-1,-1,0
17600,2359296,91,-56,-1,-1,0
17633,720896,91,-56,-1,-1,0
17666,-131072,91,-56,-1,-1,0
17700,-196608,91,-56,-1,-1,0
17733,0,91,-56,-1,-1,0
17766,-393216,91,-56,-1,-1,0
17800,-589824,91,-56,-1,-1,0
17833,-1048576,92,-56,-1,-1,0
17866,-1114112,92,-56,-1,-1,0
17900,-1441792,92,-56,-1,-1,0
17933,8650752,92,-56,-1,-1,0
17966,-655360,92,-56,-1,-1,0
18000,-655360,92,-56,-1,-1,0
18033,-524288,92,-56,-1,-1,0
18066,393216,92,-56,-1,-1,0
18100,1900544,92,-56,-1,-1,0
18133,2490368,92,-56,-1,-1,0
18166,327680,92,-56,-1,-1,0
18200,-655360,92,-56,-1,-1,0
18233,-917504,92,-56,-1,-1,0
18266,-851968,92,-56,-1,-1,0
18300,-1048576,92,-56,-1,-1,0
18333,-1114112,92,-56,-1,-1,0
18366,-983040,92,-56,-1,-1,0
18400,-983040,92,-56,-1,-1,0
18433,-851968,92,-56,-1,-1,0
18466,-262144,92,-56,-1,-1,0
18500,-655360,92,-56,-1,-1,0
18533,-458752,92,-56,-1,-1,0
18566,0,92,-56,-1,-1,0
18600,1048576,92,-56,-1,-1,0
18633,2097152,92,-56,-1,-1,0
18666,720896,92,-56,-1,-1,0
18700,-655360,92,-56,-1,-1,0
18733,-1114112,92,-56,-1,-1,0
18766,-917504,92,-56,-1,-1,0
18800,-851968,92,-56,-1,-1,0
18833,-1114112,92,-56,-1,-1,0
18866,-1245184,92,-56,-1,-1,0
18900,-1114112,92,-56,-1,-1,0
18933,-1179648,92,-56,-1,-1,0
18966,-1441792,92,-56,-1,-1,0
19000,1638400,92,-56,-1,-1,0
19033,-589824,92,-56,-1,-1,0
19066,-524288,92,-56,-1,-1,0
19100,65536,92,-56,-1,-1,0
19133,786432,92,-56,-1,-1,0
19166,2228224,92,-56,-1,-1,0
19200,1507328,92,-56,-1,-1,0
19233,-393216,92,-56,-1,-1,0
19266,-655360,92,-56,-1,-1,0
19300,-655360,92,-56,-1,-1,0
19333,-589824,92,-56,-1,-1,0
19366,-589824,92,-56,-1,-1,0
19400,-851968,92,-56,-1,-1,0
19433,-1048576,92,-56,-1,-1,0
19466,-1245184,92,-56,-1,-1,0
19500,-1441792,92,-56,-1,-1,0
19533,3276800,92,-56,-1,-1,0
19566,-524288,92,-56,-1,-1,0
19600,-262144,92,-56,-1,-1,0
19633,0,92,-56,-1,-1,0
19666,917504,92,-56,-1,-1,0
19700,2162688,92,-56,-1,-1,0
19733,1703936,92,-56,-1,-1,0
19766,-262144,92,-56,-1,-1,0
19800,-458752,92,-56,-1,-1,0
19833,-327680,92,-56,-1,-1,0
19866,-196608,92,-56,-1,-1,0
19900,-131072,92,-56,-1,-1,0
19933,-655360,92,-56,-1,-1,0
19966,-524288,92,-56,-1,-1,0
20000,-1245184,92,-56,-1,-1,0
20033,-851968,92,-56,-1,-1,0
20066,8650752,92,-56,-1,-1,0
20100,-524288,92,-56,-1,-1,0
20133,-524288,92,-56,-1,-1,0
20166,-65536,92,-56,-1,-1,0
20200,393216,92,-56,-1,-1,0
20233,1507328,92,-56,-1,-1,0
20266,2097152,92,-56,-1,-1,0
20300,131072,92,-56,-1,-1,0
20333,-786432,92,-56,-1,-1,0
20366,-851968,92,-56,-1,-1,0
20400,-589824,92,-56,-1,-1,0
20433,-589824,92,-56,-1,-1,0
20466,-589824,92,-56,-1,-1,0
20500,-851968,92,-56,-1,-1,0
20533,-1179648,92,-56,-1,-1,0
20566,-917504,92,-56,-1,-1,0
20600,-1703936,92,-56,-1,-1,0
20633,1703936,92,-56,-1,-1,0
20666,-655360,92,-56,-1,-1,0
20700,-524288,92,-56,-1,-1,0
20733,-262144,92,-56,-1,-1,0
20766,1179648,92,-56,-1,-1,0
20800,1835008,92,-56,-1,-1,0
20833,1245184,92,-56,-1,-1,0
20866,-393216,92,-56,-1,-1,0
20900,-1310720,92,-56,-1,-1,0
20933,-917504,92,-56,-1,-1,0
20966,-851968,92,-56,-1,-1,0
21000,-1048576,92,-56,-1,-1,0
21033,-1114112,92,-56,-1,-1,0
21066,-1376256,92,-56,-1,-1,0
21100,-1245184,92,-56,-1,-1,0
21133,-1114112,92,-56,-1,-1,0
21166,6750208,92,-56,-1,-1,0
21200,-196608,92,-56,-1,-1,0
21233,-589824,92,-56,-1,-1,0
21266,-131072,92,-56,-1,-1,0
21300,786432,92,-56,-1,-1,0
21333,2031616,92,-56,-1,-1,0
21366,1638400,92,-56,-1,-1,0
21400,-524288,92,-56,-1,-1,0
21433,-917504,92,-56,-1,-1,0
21466,-1048576,92,-56,-1,-1,0
21500,-524288,92,-56,-1,-1,0
21533,-786432,92,-56,-1,-1,0
21566,-851968,92,-56,-1,-1,0
21600,-917504,92,-56,-1,-1,0
21633,-983040,92,-56,-1,-1,0
21666,-983040,92,-56,-1,-1,0
21700,5570560,92,-56,-1,-1,0
21733,-393216,92,-56,-1,-1,0
21766,-327680,92,-56,-1,-1,0
21800,-131072,92,-56,-1,-1,0
21833,524288,92,-56,-1,-1,0
21866,1638400,92,-56,-1,-1,0
21900,2293760,92,-56,-1,-1,0
21933,131072,92,-56,-1,-1,0
21966,-589824,92,-56,-1,-1,0
22000,-720896,92,-56,-1,-1,0
22033,-655360,92,-56,-1,-1,0
22066,-589824,92,-56,-1,-1,0
22100,-720896,92,-56,-1,-1,0
22133,-786432,92,-56,-1,-1,0
22166,-1048576,92,-56,-1,-1,0
22200,-917504,92,-56,-1,-1,0
22233,-1179648,92,-56,-1,-1,0
22266,8060928,92,-56,-1,-1,0
22300,-524288,92,-56,-1,-1,0
22333,-262144,92,-56,-1,-1,0
22366,-131072,92,-56,-1,-1,0
22400,524288,92,-56,-1,-1,0
22433,1769472,92,-56,-1,-1,0
22466,1703936,92,-56,-1,-1,0
22500,-327680,92,-56,-1,-1,0
22533,-786432,92,-56,-1,-1,0
22566,-851968,92,-56,-1,-1,0
22600,-983040,92,-56,-1,-1,0
22633,-983040,92,-56,-1,-1,0
22666,-917504,92,-56,-1,-1,0
22700,-983040,92,-56,-1,-1,0
22733,-983040,92,-56,-1,-1,0
22766,-983040,92,-56,-1,-1,0
22800,-1245184,92,-56,-1,-1,0
22833,6422528,92,-56,-1,-1,0
22866,-458752,92,-56,-1,-1,0
22900,-393216,92,-56,-1,-1,0
22933,-131072,92,-56,-1,-1,0
22966,327680,92,-56,-1,-1,0
23000,2031616,92,-56,-1,-1,0
23033,1441792,92,-56,-1,-1,0
23066,-327680,92,-56,-1,-1,0
23100,-655360,92,-56,-1,-1,0
23133,-786432,92,-56,-1,-1,0
23166,-786432,92,-56,-1,-1,0
23200,-851968,92,-56,-1,-1,0
23233,-851968,92,-56,-1,-1,0
23266,-1048576,92,-56,-1,-1,0
23300,-786432,92,-56,-1,-1,0
23333,-720896,92,-56,-1,-1,0
23366,-720896,92,-56,-1,-1,0
23400,6422528,92,-56,-1,-1,0
23433,-65536,92,-56,-1,-1,0
23466,65536,92,-56,-1,-1,0
23500,327680,92,-56,-1,-1,0
23533,655360,92,-56,-1,-1,0
23566,2031616,92,-56,-1,-1,0
23600,2293760,92,-56,-1,-1,0
23633,-262144,92,-56,-1,-1,0
23666,-917504,92,-56,-1,-1,0
23700,-524288,92,-56,-1,-1,0
23733,-917504,92,-56,-1,-1,0
23766,0,92,-56,-1,-1,0
23800,-524288,92,-56,-1,-1,0
23833,-655360,92,-56,-1,-1,0
23866,-720896,92,-56,-1,-1,0
23900,-655360,92,-56,-1,-1,0
23933,3014656,92,-56,-1,-1,0
23966,-720896,92,-56,-1,-1,0
24000,-327680,92,-56,-1,-1,0
24033,-589824,92,-56,-1,-1,0
24066,327680,92,-56,-1,-1,0
24100,1376256,92,-56,-1,-1,0
24133,1966080,92,-56,-1,-1,0
24166,393216,92,-56,-1,-1,0
24200,-786432,92,-56,-1,-1,0
24233,-720896,92,-56,-1,-1,0
24266,-851968,92,-56,-1,-1,0
24300,-917504,92,-56,-1,-1,0
24333,-1048576,92,-56,-1,-1,0
24366,-851968,92,-56,-1,-1,0
24400,-786432,92,-56,-1,-1,0
24433,-1179648,92,-56,-1,-1,0
24466,3407872,92,-56,-1,-1,0
24500,-786432,92,-56,-1,-1,0
24533,-589824,92,-56,-1,-1,0
24566,-458752,92,-56,-1,-1,0
24600,196608,92,-56,-1,-1,0
24633,983040,92,-56,-1,-1,0
24666,1769472,92,-56,-1,-1,0
24700,-196608,92,-56,-1,-1,0
24733,-1048576,92,-56,-1,-1,0
24766,-1114112,92,-56,-1,-1,0
24800,-1310720,92,-56,-1,-1,0
24833,-851968,92,-56,-1,-1,0
24866,-983040,92,-56,-1,-1,0
24900,-1376256,92,-56,-1,-1,0
24933,-1245184,92,-56,-1,-1,0
24966,-1376256,92,-56,-1,-1,0
25000,6225920,92,-56,-1,-1,0
25033,-458752,92,-56,-1,-1,0
25066,-262144,92,-56,-1,-1,0
25100,131072,92,-56,-1,-1,0
25133,1179648,92,-56,-1,-1,0
25166,2293760,92,-56,-1,-1,0
25200,1507328,92,-56,-1,-1,0
25233,-262144,92,-56,-1,-1,0
25266,-655360,92,-56,-1,-1,0
25300,-851968,92,-56,-1,-1,0
25333,-327680,92,-56,-1,-1,0
25366,-655360,92,-56,-1,-1,0
25400,-851968,92,-56,-1,-1,0
25433,-1048576,92,-56,-1,-1,0
25466,-1114112,92,-56,-1,-1,0
25500,2228224,92,-56,-1,-1,0
25533,-786432,92,-56,-1,-1,0
25566,-589824,92,-56,-1,-1,0
25600,-196608,92,-56,-1,-1,0
25633,0,92,-56,-1,-1,0
25666,1310720,92,-56,-1,-1,0
25700,1966080,92,-56,-1,-1,0
25733,0,92,-56,-1,-1,0
25766,-786432,92,-56,-1,-1,0
25800,-786432,92,-56,-1,-1,0
25833,-786432,92,-56,-1,-1,0
25866,-851968,92,-56,-1,-1,0
25900,-851968,92,-56,-1,-1,0
25933,-983040,92,-56,-1,-1,0
25966,-1114112,92,-56,-1,-1,0
26000,-1376256,92,-56,-1,-1,0
26033,5963776,92,-56,-1,-1,0
26066,-524288,92,-56,-1,-1,0
26099,-393216,92,-56,-1,-1,0
26133,0,92,-56,-1,-1,0
26166,786432,92,-56,-1,-1,0
26200,1966080,92,-56,-1,-1,0
26233,1179648,92,-56,-1,-1,0
26266,-458752,92,-56,-1,-1,0
26300,-655360,92,-56,-1,-1,0
26333,-655360,92,-56,-1,-1,0
26366,-524288,92,-56,-1,-1,0
26400,-851968,92,-56,-1,-1,0
26433,-917504,92,-56,-1,-1,0
26466,-720896,92,-56,-1,-1,0
26500,-720896,92,-56,-1,-1,0
26533,131072,92,-56,-1,-1,0
26566,-524288,92,-56,-1,-1,0
26599,-262144,92,-56,-1,-1,0
26633,0,92,-56,-1,-1,0
26666,327680,92,-56,-1,-1,0
26700,1507328,92,-56,-1,-1,0
26733,2490368,92,-56,-1,-1,0
26766,655360,92,-56,-1,-1,0
26800,-589824,92,-56,-1,-1,0
26833,-851968,92,-56,-1,-1,0
26866,-851968,92,-56,-1,-1,0
26900,-917504,92,-56,-1,-1,0
26933,-917504,92,-56,-1,-1,0
26966,-1048576,92,-56,-1,-1,0
27000,-1179648,92,-56,-1,-1,0
27033,-1114112,92,-56,-1,-1,0
27066,-1310720,92,-56,-1,-1,0
27099,6619136,92,-56,-1,-1,0
27133,-458752,92,-56,-1,-1,0
27166,-327680,92,-56,-1,-1,0
27200,0,92,-56,-1,-1,0
27233,786432,92,-56,-1,-1,0
27266,2097152,92,-56,-1,-1,0
27300,1703936,92,-56,-1,-1,0
27333,-327680,92,-56,-1,-1,0
27366,-655360,92,-56,-1,-1,0
27400,-786432,92,-56,-1,-1,0
27433,-786432,92,-56,-1,-1,0
27466,-851968,92,-56,-1,-1,0
27500,-983040,92,-56,-1,-1,0
27533,-983040,92,-56,-1,-1,0
27566,-983040,92,-56,-1,-1,0
27599,-1114112,92,-56,-1,-1,0
27633,-1179648,92,-56,-1,-1,0
27666,8781824,92,-56,-1,-1,0
27700,-720896,92,-56,-1,-1,0
27733,-262144,92,-56,-1,-1,0
27766,-196608,92,-56,-1,-1,0
27800,655360,92,-56,-1,-1,0
27833,2097152,92,-56,-1,-1,0
27866,1966080,92,-56,-1,-1,0
27900,-131072,92,-56,-1,-1,0
27933,-851968,92,-56,-1,-1,0
27966,-917504,92,-56,-1,-1,0
28000,-851968,92,-56,-1,-1,0
28033,-1048576,92,-56,-1,-1,0
28066,-851968,92,-56,-1,-1,0
28099,-917504,92,-56,-1,-1,0
28133,-917504,92,-56,-1,-1,0
28166,-1048576,92,-56,-1,-1,0
28200,-851968,92,-56,-1,-1,0
28233,-983040,92,-56,-1,-1,0
28266,9699328,91,-56,-1,-1,0
28300,-393216,91,-56,-1,-1,0
28333,-262144,91,-56,-1,-1,0
28366,-65536,91,-56,-1,-1,0
28400,786432,91,-56,-1,-1,0
28433,1900544,91,-56,-1,-1,0
28466,2293760,91,-56,-1,-1,0
28500,196608,91,-56,-1,-1,0
28533,-786432,91,-56,-1,-1,0
28566,-393216,91,-56,-1,-1,0
28599,-327680,91,-56,-1,-1,0
28633,-458752,91,-56,-1,-1,0
28666,-524288,91,-56,-1,-1,0
28700,-720896,91,-56,-1,-1,0
28733,-917504,91,-56,-1,-1,0
28766,-851968,91,-56,-1,-1,0
28800,-1048576,91,-56,-1,-1,0
28833,-851968,91,-56,-1,-1,0
28866,-1048576,91,-56,-1,-1,0
28900,10420224,91,-56,-1,-1,0
28933,-458752,91,-56,-1,-1,0
28966,-524288,91,-56,-1,-1,0
29000,0,91,-56,-1,-1,0
29033,720896,91,-56,-1,-1,0
29066,1769472,91,-56,-1,-1,0
29099,2424832,91,-56,-1,-1,0
29133,196608,91,-56,-1,-1,0
29166,-589824,91,-56,-1,-1,0
29200,-851968,91,-56,-1,-1,0
29233,-786432,91,-56,-1,-1,0
29266,-589824,91,-56,-1,-1,0
29300,-655360,91,-56,-1,-1,0
29333,-786432,91,-56,-1,-1,0
29366,-917504,91,-56,-1,-1,0
29400,-983040,91,-56,-1,-1,0
29433,-1048576,91,-56,-1,-1,0
29466,-720896,91,-56,-1,-1,0
29500,-1048576,91,-56,-1,-1,0
29533,9109504,90,-56,-1,-1,0
29566,-524288,90,-56,-1,-1,0
29599,-393216,90,-56,-1,-1,0
29633,65536,90,-56,-1,-1,0
29666,720896,90,-56,-1,-1,0
29700,2162688,90,-56,-1,-1,0
29733,2686976,90,-56,-1,-1,0
29766,393216,90,-56,-1,-1,0
29800,-1048576,90,-56,-1,-1,0
29833,-524288,90,-56,-1,-1,0
29866,-786432,90,-56,-1,-1,0
29900,-458752,90,-56,-1,-1,0
29933,-1114112,90,-56,-1,-1,0
29966,-786432,90,-56,-1,-1,0
30000,-983040,90,-56,-1,-1,0
30033,-1114112,90,-56,-1,-1,0
30066,-917504,90,-56,-1,-1,0
30099,-1245184,90,-56,-1,-1,0
30133,1703936,90,-56,-1,-1,0
30166,-1441792,90,-56,-1,-1,0
30200,-720896,90,-56,-1,-1,0
30233,-327680,90,-56,-1,-1,0
30266,65536,90,-56,-1,-1,0
30300,1376256,90,-56,-1,-1,0
30333,2621440,90,-56,-1,-1,0
30366,720896,90,-56,-1,-1,0
30400,-1310720,90,-56,-1,-1,0
30433,-1310720,90,-56,-1,-1,0
30466,-917504,90,-56,-1,-1,0
30500,-1048576,90,-56,-1,-1,0
30533,-1048576,90,-56,-1,-1,0
30566,-1114112,90,-56,-1,-1,0
30599,-655360,90,-56,-1,-1,0
30633,-983040,90,-56,-1,-1,0
30666,-720896,90,-56,-1,-1,0
30700,2883584,90,-56,-1,-1,0
30733,-1114112,90,-56,-1,-1,0
30766,-327680,90,-56,-1,-1,0
30800,-131072,90,-56,-1,-1,0
30833,393216,90,-56,-1,-1,0
30866,1835008,90,-56,-1,-1,0
30900,2686976,90,-56,-1,-1,0
30933,720896,90,-56,-1,-1,0
30966,-524288,90,-56,-1,-1,0
31000,-655360,90,-56,-1,-1,0
31033,-327680,90,-56,-1,-1,0
31066,-524288,90,-56,-1,-1,0
31099,-458752,90,-56,-1,-1,0
31133,-851968,90,-56,-1,-1,0
31166,-851968,90,-56,-1,-1,0
31200,-720896,90,-56,-1,-1,0
31233,-851968,90,-56,-1,-1,0
31266,-1310720,90,-56,-1,-1,0
31300,589824,90,-56,-1,-1,0
31333,-720896,90,-56,-1,-1,0
31366,-131072,90,-56,-1,-1,0
31400,-131072,90,-56,-1,-1,0
31433,983040,90,-56,-1,-1,0
31466,1835008,90,-56,-1,-1,0
31500,1376256,90,-56,-1,-1,0
31533,-393216,90,-56,-1,-1,0
31566,-786432,90,-56,-1,-1,0
31599,-458752,90,-56,-1,-1,0
31633,-327680,90,-56,-1,-1,0
31666,-458752,90,-56,-1,-1,0
31700,-458752,90,-56,-1,-1,0
31733,-851968,90,-56,-1,-1,0
31766,-917504,90,-56,-1,-1,0
31800,-655360,89,-56,-1,-1,0
31833,-458752,89,-56,-1,-1,0
31866,196608,89,-56,-1,-1,0
31900,-393216,89,-56,-1,-1,0
31933,-262144,89,-56,-1,-1,0
31966,196608,89,-56,-1,-1,0
32000,983040,89,-56,-1,-1,0
32033,2097152,89,-56,-1,-1,0
32066,1376256,89,-56,-1,-1,0
32100,-262144,89,-56,-1,-1,0
32133,-917504,89,-56,-1,-1,0
32166,-655360,89,-56,-1,-1,0
32200,-917504,89,-56,-1,-1,0
32233,-917504,89,-56,-1,-1,0
32266,-1048576,89,-56,-1,-1,0
32299,-851968,89,-56,-1,-1,0
32333,-917504,88,-56,-1,-1,0
32366,-983040,88,-56,-1,-1,0
32400,720896,88,-56,-1,-1,0
32433,-983040,88,-56,-1,-1,0
32466,-589824,88,-56,-1,-1,0
32500,-458752,88,-56,-1,-1,0
32533,65536,88,-56,-1,-1,0
32566,1310720,88,-56,-1,-1,0
32600,1966080,88,-56,-1,-1,0
32633,720896,88,-56,-1,-1,0
32666,-1114112,88,-56,-1,-1,0
32700,-1310720,88,-56,-1,-1,0
32733,-1114112,88,-56,-1,-1,0
32766,-786432,88,-56,-1,-1,0
32800,-786432,88,-56,-1,-1,0
32833,-1048576,88,-56,-1,-1,0
32866,-1310720,88,-56,-1,-1,0
32900,-917504,88,-56,-1,-1,0
32933,-1310720,88,-56,-1,-1,0
32966,720896,88,-56,-1,-1,0
33000,-786432,88,-56,-1,-1,0
33033,-393216,88,-56,-1,-1,0
33066,131072,88,-56,-1,-1,0
33100,983040,88,-56,-1,-1,0
33133,2228224,88,-56,-1,-1,0
33166,1507328,88,-56,-1,-1,0
33200,-458752,88,-56,-1,-1,0
33233,-589824,88,-56,-1,-1,0
33266,-655360,88,-56,-1,-1,0
33300,-720896,88,-56,-1,-1,0
33333,-786432,88,-56,-1,-1,0
33366,-589824,88,-56,-1,-1,0
33400,-917504,88,-56,-1,-1,0
33433,-720896,88,-56,-1,-1,0
33466,-786432,88,-56,-1,-1,0
33500,9043968,88,-56,-1,-1,0
33533,-131072,88,-56,-1,-1,0
33566,-262144,88,-56,-1,-1,0
33600,0,88,-56,-1,-1,0
33633,458752,88,-56,-1,-1,0
33666,1966080,88,-56,-1,-1,0
33700,2162688,88,-56,-1,-1,0
33733,0,88,-56,-1,-1,0
33766,-131072,88,-56,-1,-1,0
33800,-983040,88,-56,-1,-1,0
33833,-327680,88,-56,-1,-1,0
33866,-851968,88,-56,-1,-1,0
33900,-786432,88,-56,-1,-1,0
33933,-851968,88,-56,-1,-1,0
33966,-655360,88,-56,-1,-1,0
34000,-393216,88,-56,-1,-1,0
34033,6029312,88,-56,-1,-1,0
34066,-589824,88,-56,-1,-1,0
34100,-589824,88,-56,-1,-1,0
34133,-458752,88,-56,-1,-1,0
34166,393216,88,-56,-1,-1,0
34200,786432,88,-56,-1,-1,0
34233,2424832,88,-56,-1,-1,0
34266,0,88,-56,-1,-1,0
34300,-1245184,88,-56,-1,-1,0
34333,-1114112,88,-56,-1,-1,0
34366,-1114112,88,-56,-1,-1,0
34400,-786432,88,-56,-1,-1,0
34433,-1114112,88,-56,-1,-1,0
34466,-1245184,88,-56,-1,-1,0
34500,-1048576,88,-56,-1,-1,0
34533,-1245184,88,-56,-1,-1,0
34566,8585216,88,-56,-1,-1,0
34600,-983040,88,-56,-1,-1,0
34633,-393216,88,-56,-1,-1,0
34666,-393216,88,-56,-1,-1,0
34700,786432,88,-56,-1,-1,0
34733,1835008,88,-56,-1,-1,0
34766,1507328,88,-56,-1,-1,0
34800,-983040,88,-56,-1,-1,0
34833,-2031616,88,-56,-1,-1,0
34866,-1441792,88,-56,-1,-1,0
34900,-1310720,88,-56,-1,-1,0
34933,-1114112,88,-56,-1,-1,0
34966,-1572864,88,-56,-1,-1,0
35000,-1572864,88,-56,-1,-1,0
35033,-1114112,88,-56,-1,-1,0
35066,-1638400,88,-56,-1,-1,0
35100,1638400,88,-56,-1,-1,0
35133,0,88,-56,-1,-1,0
35166,-196608,88,-56,-1,-1,0
35200,393216,88,-56,-1,-1,0
35233,983040,88,-56,-1,-1,0
35266,2293760,88,-56,-1,-1,0
35300,786432,88,-56,-1,-1,0
35333,-327680,88,-56,-1,-1,0
35366,-327680,88,-56,-1,-1,0
35400,-327680,88,-56,-1,-1,0
35433,-196608,88,-56,-1,-1,0
35466,-655360,88,-56,-1,-1,0
35500,-786432,88,-56,-1,-1,0
35533,-917504,89,-56,-1,-1,0
35566,-851968,89,-56,-1,-1,0
35600,196608,89,-56,-1,-1,0
35633,-589824,89,-56,-1,-1,0
35666,-65536,89,-56,-1,-1,0
35700,-131072,89,-56,-1,-1,0
35733,458752,89,-56,-1,-1,0
35766,1376256,89,-56,-1,-1,0
35800,2228224,89,-56,-1,-1,0
35833,720896,89,-56,-1,-1,0
35866,-786432,89,-56,-1,-1,0
35900,-983040,89,-56,-1,-1,0
35933,-720896,89,-56,-1,-1,0
35966,-1114112,89,-56,-1,-1,0
36000,-917504,89,-56,-1,-1,0
36033,-1048576,90,-56,-1,-1,0
36066,-327680,90,-56,-1,-1,0
36100,-786432,90,-56,-1,-1,0
36133,8519680,90,-56,-1,-1,0
36166,-262144,90,-56,-1,-1,0
36200,-393216,90,-56,-1,-1,0
36233,-393216,90,-56,-1,-1,0
36266,196608,90,-56,-1,-1,0
36300,1376256,90,-56,-1,-1,0
36333,1703936,90,-56,-1,-1,0
36366,-458752,90,-56,-1,-1,0
36400,-851968,90,-56,-1,-1,0
36433,-1048576,90,-56,-1,-1,0
36466,-917504,90,-56,-1,-1,0
36500,-589824,90,-56,-1,-1,0
36533,-655360,90,-56,-1,-1,0
36566,-1114112,90,-56,-1,-1,0
36600,-1114112,90,-56,-1,-1,0
36633,-1245184,90,-56,-1,-1,0
36666,5636096,90,-56,-1,-1,0
36700,-327680,90,-56,-1,-1,0
36733,0,90,-56,-1,-1,0
36766,131072,90,-56,-1,-1,0
36800,917504,90,-56,-1,-1,0
36833,2031616,90,-56,-1,-1,0
36866,1507328,90,-56,-1,-1,0
36900,-655360,90,-56,-1,-1,0
36933,-1245184,90,-56,-1,-1,0
36966,-851968,90,-56,-1,-1,0
37000,-983040,90,-56,-1,-1,0
37033,-655360,90,-56,-1,-1,0
37066,-983040,92,-56,-1,-1,0
37100,-1048576,92,-56,-1,-1,0
37133,-1114112,92,-56,-1,-1,0
37166,2162688,92,-56,-1,-1,0
37200,-786432,92,-56,-1,-1,0
37233,-524288,92,-56,-1,-1,0
37266,-262144,92,-56,-1,-1,0
37300,196608,92,-56,-1,-1,0
37333,1572864,92,-56,-1,-1,0
37366,2293760,92,-56,-1,-1,0
37400,262144,92,-56,-1,-1,0
37433,-262144,92,-56,-1,-1,0
37466,-983040,92,-56,-1,-1,0
37500,-589824,92,-56,-1,-1,0
37533,-655360,92,-56,-1,-1,0
37566,-1179648,92,-56,-1,-1,0
37600,-1114112,92,-56,-1,-1,0
37633,-1245184,92,-56,-1,-1,0
37666,-1310720,92,-56,-1,-1,0
37700,-393216,92,-56,-1,-1,0
37733,-524288,92,-56,-1,-1,0
37766,-65536,92,-56,-1,-1,0
37800,327680,92,-56,-1,-1,0
37833,1376256,92,-56,-1,-1,0
37866,2228224,92,-56,-1,-1,0
37900,720896,92,-56,-1,-1,0
37933,-786432,92,-56,-1,-1,0
37966,-851968,92,-56,-1,-1,0
38000,-1048576,92,-56,-1,-1,0
38033,-786432,92,-56,-1,-1,0
38066,-1048576,92,-56,-1,-1,0
38100,-1376256,93,-56,-1,-1,0
38133,-851968,93,-56,-1,-1,0
38166,-1179648,93,-56,-1,-1,0
38200,7471104,93,-56,-1,-1,0
38233,-524288,93,-56,-1,-1,0
38266,-655360,93,-56,-1,-1,0
38300,-393216,93,-56,-1,-1,0
38333,524288,93,-56,-1,-1,0
38366,1703936,93,-56,-1,-1,0
38400,1179648,93,-56,-1,-1,0
38433,-917504,93,-56,-1,-1,0
38466,-1441792,93,-56,-1,-1,0
38500,-1048576,93,-56,-1,-1,0
38533,-983040,93,-56,-1,-1,0
38566,-786432,93,-56,-1,-1,0
38600,-917504,94,-56,-1,-1,0
38633,-720896,94,-56,-1,-1,0
38666,-524288,94,-56,-1,-1,0
38700,2818048,94,-56,-1,-1,0
38733,-196608,94,-56,-1,-1,0
38766,-196608,94,-56,-1,-1,0
38800,196608,94,-56,-1,-1,0
38833,786432,94,-56,-1,-1,0
38866,2031616,94,-56,-1,-1,0
38900,2555904,94,-56,-1,-1,0
38933,393216,94,-56,-1,-1,0
38966,-720896,94,-56,-1,-1,0
39000,-1179648,94,-56,-1,-1,0
39033,-983040,94,-56,-1,-1,0
39066,-1310720,94,-56,-1,-1,0
39100,-1245184,95,-56,-1,-1,0
39133,-1179648,95,-56,-1,-1,0
39166,-1507328,95,-56,-1,-1,0
39200,-1769472,95,-56,-1,-1,0
39233,3866624,95,-56,-1,-1,0
39266,-851968,95,-56,-1,-1,0
39300,-196608,95,-56,-1,-1,0
39333,65536,95,-56,-1,-1,0
39366,1179648,95,-56,-1,-1,0
39400,2424832,95,-56,-1,-1,0
39433,1310720,95,-56,-1,-1,0
39466,-262144,95,-56,-1,-1,0
39500,-917504,95,-56,-1,-1,0
39533,-458752,95,-56,-1,-1,0
39566,-393216,95,-56,-1,-1,0
39600,-655360,95,-56,-1,-1,0
39633,-1114112,95,-56,-1,-1,0
39666,-1048576,95,-56,-1,-1,0
39700,-1310720,95,-56,-1,-1,0
39733,9043968,95,-56,-1,-1,0
39766,-655360,95,-56,-1,-1,0
39800,-720896,95,-56,-1,-1,0
39833,-393216,95,-56,-1,-1,0
39866,655360,95,-56,-1,-1,0
39900,2031616,95,-56,-1,-1,0
39933,1441792,95,-56,-1,-1,0
39966,-589824,95,-56,-1,-1,0
40000,-786432,95,-56,-1,-1,0
40033,-983040,95,-56,-1,-1,0
40066,-458752,95,-56,-1,-1,0
40100,-655360,95,-56,-1,-1,0
40133,-1048576,96,-56,-1,-1,0
40166,-786432,96,-56,-1,-1,0
40200,-1048576,96,-56,-1,-1,0
40233,8716288,96,-56,-1,-1,0
40266,-458752,96,-56,-1,-1,0
40300,-196608,96,-56,-1,-1,0
40333,0,96,-56,-1,-1,0
40366,851968,96,-56,-1,-1,0
40400,2162688,96,-56,-1,-1,0
40433,1703936,96,-56,-1,-1,0
40466,-393216,96,-56,-1,-1,0
40500,-1179648,96,-56,-1,-1,0
40533,-1048576,96,-56,-1,-1,0
40566,-917504,96,-56,-1,-1,0
40600,-1310720,96,-56,-1,-1,0
40633,-1310720,96,-56,-1,-1,0
40666,-1507328,96,-56,-1,-1,0
40700,-1507328,96,-56,-1,-1,0
40733,2621440,96,-56,-1,-1,0
40766,-917504,96,-56,-1,-1,0
40800,-327680,96,-56,-1,-1,0
40833,-393216,96,-56,-1,-1,0
40866,0,96,-56,-1,-1,0
40900,1572864,96,-56,-1,-1,0
40933,1900544,96,-56,-1,-1,0
40966,65536,96,-56,-1,-1,0
41000,-524288,96,-56,-1,-1,0
41033,-655360,96,-56,-1,-1,0
41066,-458752,96,-56,-1,-1,0
41100,-458752,96,-56,-1,-1,0
41133,-720896,96,-56,-1,-1,0
41166,-851968,96,-56,-1,-1,0
41200,-983040,96,-56,-1,-1,0
41233,-1572864,96,-56,-1,-1,0
41266,2490368,96,-56,-1,-1,0
41300,-655360,96,-56,-1,-1,0
41333,-393216,96,-56,-1,-1,0
41366,-327680,96,-56,-1,-1,0
41400,983040,96,-56,-1,-1,0
41433,1769472,96,-56,-1,-1,0
41466,917504,96,-56,-1,-1,0
41500,-524288,96,-56,-1,-1,0
41533,-1114112,96,-56,-1,-1,0
41566,-786432,96,-56,-1,-1,0
41600,-851968,96,-56,-1,-1,0
41633,-786432,96,-56,-1,-1,0
41666,-1048576,97,-56,-1,-1,0
41700,-786432,97,-56,-1,-1,0
41733,-1114112,97,-56,-1,-1,0
41766,9109504,97,-56,-1,-1,0
41800,-720896,97,-56,-1,-1,0
41833,-589824,97,-56,-1,-1,0
41866,-131072,97,-56,-1,-1,0
41900,786432,97,-56,-1,-1,0
41933,2031616,97,-56,-1,-1,0
41966,1572864,97,-56,-1,-1,0
42000,-589824,97,-56,-1,-1,0
42033,-786432,97,-56,-1,-1,0
42066,-1310720,97,-56,-1,-1,0
42100,-983040,97,-56,-1,-1,0
42133,-917504,97,-56,-1,-1,0
42166,-1310720,97,-56,-1,-1,0
42200,-1048576,97,-56,-1,-1,0
42233,-1179648,97,-56,-1,-1,0
42266,8978432,97,-56,-1,-1,0
42300,-458752,97,-56,-1,-1,0
42333,-589824,97,-56,-1,-1,0
42366,0,97,-56,-1,-1,0
42400,720896,97,-56,-1,-1,0
42433,1966080,97,-56,-1,-1,0
42466,1835008,97,-56,-1,-1,0
42500,-458752,97,-56,-1,-1,0
42533,-917504,97,-56,-1,-1,0
42566,-851968,97,-56,-1,-1,0
42600,-786432,97,-56,-1,-1,0
42633,-1179648,98,-56,-1,-1,0
42666,-1048576,98,-56,-1,-1,0
42700,-1245184,98,-56,-1,-1,0
42733,-1310720,98,-56,-1,-1,0
42766,8847360,98,-56,-1,-1,0
42800,-589824,98,-56,-1,-1,0
42833,-524288,98,-56,-1,-1,0
42866,0,98,-56,-1,-1,0
42900,786432,98,-56,-1,-1,0
42933,1769472,98,-56,-1,-1,0
42966,2031616,98,-56,-1,-1,0
43000,-655360,98,-56,-1,-1,0
43033,-983040,98,-56,-1,-1,0
43066,-917504,98,-56,-1,-1,0
43100,-851968,98,-56,-1,-1,0
43133,-655360,98,-56,-1,-1,0
43166,-1179648,98,-56,-1,-1,0
43200,-1376256,98,-56,-1,-1,0
43233,-1507328,98,-56,-1,-1,0
43266,6225920,98,-56,-1,-1,0
43300,-720896,98,-56,-1,-1,0
43333,-786432,98,-56,-1,-1,0
43366,327680,98,-56,-1,-1,0
43400,786432,98,-56,-1,-1,0
43433,2424832,98,-56,-1,-1,0
43466,983040,98,-56,-1,-1,0
43500,-524288,98,-56,-1,-1,0
43533,-720896,98,-56,-1,-1,0
43566,-524288,98,-56,-1,-1,0
43600,-655360,98,-56,-1,-1,0
43633,-720896,98,-56,-1,-1,0
43666,-983040,98,-56,-1,-1,0
43700,-851968,98,-56,-1,-1,0
43733,-851968,98,-56,-1,-1,0
43766,-655360,98,-56,-1,-1,0
43800,-524288,98,-56,-1,-1,0
43833,-524288,98,-56,-1,-1,0
43866,0,98,-56,-1,-1,0
43900,1114112,98,-56,-1,-1,0
43933,1835008,98,-56,-1,-1,0
43966,-196608,98,-56,-1,-1,0
44000,-786432,98,-56,-1,-1,0
44033,-1572864,98,-56,-1,-1,0
44066,-1048576,98,-56,-1,-1,0
44100,-1114112,98,-56,-1,-1,0
44133,-1114112,98,-56,-1,-1,0
44166,-1179648,98,-56,-1,-1,0
44200,-983040,98,-56,-1,-1,0
44233,6094848,98,-56,-1,-1,0
44266,-393216,98,-56,-1,-1,0
44300,-720896,98,-56,-1,-1,0
44333,-196608,98,-56,-1,-1,0
44366,524288,98,-56,-1,-1,0
44400,1769472,98,-56,-1,-1,0
44433,1572864,98,-56,-1,-1,0
44466,-458752,98,-56,-1,-1,0
44500,-917504,98,-56,-1,-1,0
44533,-917504,98,-56,-1,-1,0
44566,-851968,98,-56,-1,-1,0
44600,-1179648,99,-56,-1,-1,0
44633,-1179648,99,-56,-1,-1,0
44666,-1376256,99,-56,-1,-1,0
44700,-1245184,99,-56,-1,-1,0
44733,9175040,99,-56,-1,-1,0
44766,-655360,99,-56,-1,-1,0
44800,-393216,99,-56,-1,-1,0
44833,0,99,-56,-1,-1,0
44866,720896,99,-56,-1,-1,0
44900,2162688,99,-56,-1,-1,0
44933,1048576,99,-56,-1,-1,0
44966,-393216,99,-56,-1,-1,0
45000,-786432,99,-56,-1,-1,0
45033,-917504,99,-56,-1,-1,0
45066,-1114112,99,-56,-1,-1,0
45100,-589824,99,-56,-1,-1,0
45133,-458752,99,-56,-1,-1,0
45166,-917504,99,-56,-1,-1,0
45200,-327680,99,-56,-1,-1,0
45233,-196608,99,-56,-1,-1,0
45266,-524288,99,-56,-1,-1,0
45300,-393216,99,-56,-1,-1,0
45333,131072,99,-56,-1,-1,0
45366,1179648,99,-56,-1,-1,0
45400,1900544,99,-56,-1,-1,0
45433,0,99,-56,-1,-1,0
45466,-917504,99,-56,-1,-1,0
45500,-917504,99,-56,-1,-1,0
45533,-720896,99,-56,-1,-1,0
45566,-589824,100,-56,-1,-1,0
45600,-1048576,100,-56,-1,-1,0
45633,-917504,100,-56,-1,-1,0
45666,-1048576,100,-56,-1,-1,0
45700,9699328,100,-56,-1,-1,0
45733,-589824,100,-56,-1,-1,0
45766,-720896,100,-56,-1,-1,0
45800,-131072,100,-56,-1,-1,0
45833,589824,100,-56,-1,-1,0
45866,2228224,100,-56,-1,-1,0
45900,1835008,100,-56,-1,-1,0
45933,-196608,100,-56,-1,-1,0
45966,-524288,100,-56,-1,-1,0
46000,-720896,100,-56,-1,-1,0
46033,-786432,100,-56,-1,-1,0
46066,-917504,100,-56,-1,-1,0
46100,-917504,100,-56,-1,-1,0
46133,-983040,100,-56,-1,-1,0
46166,917504,100,-56,-1,-1,0
46200,-1114112,100,-56,-1,-1,0
46233,-524288,100,-56,-1,-1,0
46266,-524288,100,-56,-1,-1,0
46300,196608,100,-56,-1,-1,0
46333,1441792,100,-56,-1,-1,0
46366,1769472,100,-56,-1,-1,0
46400,-589824,100,-56,-1,-1,0
46433,-1376256,100,-56,-1,-1,0
46466,-1572864,100,-56,-1,-1,0
46500,-851968,100,-56,-1,-1,0
46533,-1179648,100,-56,-1,-1,0
46566,-1310720,100,-56,-1,-1,0
46600,-1048576,100,-56,-1,-1,0
46633,-1769472,100,-56,-1,-1,0
46666,1114112,100,-56,-1,-1,0
46700,-589824,100,-56,-1,-1,0
46733,-458752,100,-56,-1,-1,0
46766,327680,100,-56,-1,-1,0
46800,1310720,100,-56,-1,-1,0
46833,2359296,100,-56,-1,-1,0
46866,65536,100,-56,-1,-1,0
46900,-983040,100,-56,-1,-1,0
46933,-1310720,100,-56,-1,-1,0
46966,-851968,100,-56,-1,-1,0
47000,-655360,101,-56,-1,-1,0
47033,-720896,101,-56,-1,-1,0
47066,-655360,101,-56,-1,-1,0
47100,-1114112,101,-56,-1,-1,0
47133,7929856,101,-56,-1,-1,0
47166,-458752,101,-56,-1,-1,0
47200,-393216,101,-56,-1,-1,0
47233,0,101,-56,-1,-1,0
47266,917504,101,-56,-1,-1,0
47300,1703936,101,-56,-1,-1,0
47333,1507328,101,-56,-1,-1,0
47366,-458752,101,-56,-1,-1,0
47400,-1114112,101,-56,-1,-1,0
47433,-851968,101,-56,-1,-1,0
47466,-655360,101,-56,-1,-1,0
47500,-851968,102,-56,-1,-1,0
47533,-786432,102,-56,-1,-1,0
47566,-1245184,102,-56,-1,-1,0
47600,-1507328,102,-56,-1,-1,0
47633,5046272,102,-56,-1,-1,0
47666,-393216,102,-56,-1,-1,0
47700,-393216,102,-56,-1,-1,0
47733,-65536,102,-56,-1,-1,0
47766,851968,102,-56,-1,-1,0
47800,1572864,102,-56,-1,-1,0
47833,393216,102,-56,-1,-1,0
47866,-917504,102,-56,-1,-1,0
47900,-851968,102,-56,-1,-1,0
47933,-720896,102,-56,-1,-1,0
47966,-589824,102,-56,-1,-1,0
48000,-1048576,102,-56,-1,-1,0
48033,-786432,102,-56,-1,-1,0
48066,-917504,102,-56,-1,-1,0
48100,4063232,102,-56,-1,-1,0
48133,-589824,102,-56,-1,-1,0
48166,-589824,102,-56,-1,-1,0
48200,-196608,102,-56,-1,-1,0
48233,393216,102,-56,-1,-1,0
48266,1376256,102,-56,-1,-1,0
48300,1441792,102,-56,-1,-1,0
48333,-655360,102,-56,-1,-1,0
48366,-1179648,102,-56,-1,-1,0
48400,-1245184,102,-56,-1,-1,0
48433,-1114112,102,-56,-1,-1,0
48466,-1245184,102,-56,-1,-1,0
48500,-983040,102,-56,-1,-1,0
48533,-1114112,102,-56,-1,-1,0
48566,-1179648,102,-56,-1,-1,0
48600,6225920,102,-56,-1,-1,0
48633,-393216,102,-56,-1,-1,0
48666,-131072,102,-56,-1,-1,0
48700,65536,102,-56,-1,-1,0
48733,1114112,102,-56,-1,-1,0
48766,1966080,102,-56,-1,-1,0
48800,851968,102,-56,-1,-1,0
48833,-458752,102,-56,-1,-1,0
48866,-524288,102,-56,-1,-1,0
48900,-458752,102,-56,-1,-1,0
48933,-655360,102,-56,-1,-1,0
48966,-851968,102,-56,-1,-1,0
49000,-393216,102,-56,-1,-1,0
49033,-720896,102,-56,-1,-1,0
49066,3866624,102,-56,-1,-1,0
49100,-393216,102,-56,-1,-1,0
49133,-262144,102,-56,-1,-1,0
49166,-327680,102,-56,-1,-1,0
49200,589824,102,-56,-1,-1,0
49233,1507328,102,-56,-1,-1,0
49266,1572864,102,-56,-1,-1,0
49300,-65536,102,-56,-1,-1,0
49333,-851968,102,-56,-1,-1,0
49366,-720896,102,-56,-1,-1,0
49400,-983040,103,-56,-1,-1,0
49433,-983040,103,-56,-1,-1,0
49466,-1114112,103,-56,-1,-1,0
49500,-1245184,103,-56,-1,-1,0
49533,-1572864,103,-56,-1,-1,0
49566,-458752,103,-56,-1,-1,0
49600,-589824,103,-56,-1,-1,0
49633,-655360,103,-56,-1,-1,0
49666,131072,103,-56,-1,-1,0
49700,917504,103,-56,-1,-1,0
49733,1703936,103,-56,-1,-1,0
49766,-262144,103,-56,-1,-1,0
49800,-1310720,103,-56,-1,-1,0
49833,-1310720,103,-56,-1,-1,0
49866,-1048576,103,-56,-1,-1,0
49900,-1114112,103,-56,-1,-1,0
49933,-1441792,103,-56,-1,-1,0
49966,-1245184,103,-56,-1,-1,0
50000,-1638400,103,-56,-1,-1,0
