milliseconds, ECG, ECG HR, PPG, PPG HR, SpO2, PI
1523614171095,-1703936,69,-56,-1,-1,0
1523614171095,-1900544,69,-56,-1,-1,0
1523614171095,-1638400,69,-56,-1,-1,0
1523614171095,-1638400,69,-56,-1,-1,0
1523614171095,-1638400,69,-56,-1,-1,0
1523614171135,-1179648,69,-56,-1,-1,0
1523614171135,-1179648,69,-56,-1,-1,0
1523614171135,-1703936,69,-56,-1,-1,0
1523614171135,-2359296,69,-56,-1,-1,0
1523614171135,-2555904,69,-56,-1,-1,0
1523614171175,-196608,69,-56,-1,-1,0
1523614171175,4653056,69,-56,-1,-1,0
1523614171175,7602176,69,-56,-1,-1,0
1523614171175,4259840,69,-56,-1,-1,0
1523614171175,-393216,69,-56,-1,-1,0
1523614171215,-2162688,69,-56,-1,-1,0
1523614171215,-2228224,69,-56,-1,-1,0
1523614171215,-1703936,69,-56,-1,-1,0
1523614171215,-720896,69,-56,-1,-1,0
1523614171215,0,69,-56,-1,-1,0
1523614171255,-458752,69,-56,-1,-1,0
1523614171255,-458752,69,-56,-1,-1,0
1523614171255,-458752,69,-56,-1,-1,0
1523614171255,-786432,69,-56,-1,-1,0
1523614171255,-524288,69,-56,-1,-1,0
1523614171295,262144,69,-56,-1,-1,0
1523614171295,589824,69,-56,-1,-1,0
1523614171295,458752,69,-56,-1,-1,0
1523614171295,131072,69,-56,-1,-1,0
1523614171295,0,69,-56,-1,-1,0
1523614171335,0,69,-56,-1,-1,0
1523614171335,196608,69,-56,-1,-1,0
1523614171335,983040,69,-56,-1,-1,0
1523614171335,2686976,69,-56,-1,-1,0
1523614171335,2555904,69,-56,-1,-1,0
1523614171375,983040,69,-56,-1,-1,0
1523614171375,983040,69,-56,-1,-1,0
1523614171375,3538944,69,-56,-1,-1,0
1523614171375,4325376,69,-56,-1,-1,0
1523614171375,3080192,69,-56,-1,-1,0
1523614171415,2359296,69,-56,-1,-1,0
1523614171415,1835008,69,-56,-1,-1,0
1523614171415,1966080,69,-56,-1,-1,0
1523614171415,2555904,69,-56,-1,-1,0
1523614171415,3014656,69,-56,-1,-1,0
1523614171455,2359296,69,-56,-1,-1,0
1523614171455,917504,69,-56,-1,-1,0
1523614171455,-851968,69,-56,-1,-1,0
1523614171455,-851968,69,-56,-1,-1,0
1523614171455,0,69,-56,-1,-1,0
1523614171495,-1245184,69,-56,-1,-1,0
1523614171495,-2883584,69,-56,-1,-1,0
1523614171495,-1245184,69,-56,-1,-1,0
1523614171495,458752,69,-56,-1,-1,0
1523614171495,-262144,69,-56,-1,-1,0
1523614171535,-2883584,69,-56,-1,-1,0
1523614171535,-1835008,69,-56,-1,-1,0
1523614171535,-196608,69,-56,-1,-1,0
1523614171535,-1245184,69,-56,-1,-1,0
1523614171535,-3342336,69,-56,-1,-1,0
1523614171575,-1900544,69,-56,-1,-1,0
1523614171575,-327680,69,-56,-1,-1,0
1523614171575,-1114112,69,-56,-1,-1,0
1523614171575,-1310720,69,-56,-1,-1,0
1523614171575,196608,69,-56,-1,-1,0
1523614171615,-720896,69,-56,-1,-1,0
1523614171615,-2162688,69,-56,-1,-1,0
1523614171615,-1441792,69,-56,-1,-1,0
1523614171615,-262144,69,-56,-1,-1,0
1523614171615,-1179648,69,-56,-1,-1,0
1523614171655,-2424832,69,-56,-1,-1,0
1523614171655,-1441792,69,-56,-1,-1,0
1523614171655,-65536,69,-56,-1,-1,0
1523614171655,-589824,69,-56,-1,-1,0
1523614171655,-524288,69,-56,-1,-1,0
1523614171695,131072,69,-56,-1,-1,0
1523614171695,-1507328,69,-56,-1,-1,0
1523614171695,-2752512,69,-56,-1,-1,0
1523614171695,-1572864,69,-56,-1,-1,0
1523614171695,-1638400,69,-56,-1,-1,0
1523614171735,-2686976,69,-56,-1,-1,0
1523614171735,-786432,69,-56,-1,-1,0
1523614171735,720896,69,-56,-1,-1,0
1523614171735,-1572864,69,-56,-1,-1,0
1523614171735,-4128768,69,-56,-1,-1,0
1523614171776,-2359296,69,-56,-1,-1,0
1523614171776,-262144,69,-56,-1,-1,0
1523614171776,-262144,69,-56,-1,-1,0
1523614171776,-1441792,69,-56,-1,-1,0
1523614171776,-2686976,69,-56,-1,-1,0
1523614171815,-2949120,69,-56,-1,-1,0
1523614171815,-1245184,69,-56,-1,-1,0
1523614171815,-1245184,69,-56,-1,-1,0
1523614171815,-2162688,69,-56,-1,-1,0
1523614171815,-1966080,69,-56,-1,-1,0
1523614171855,-720896,69,-56,-1,-1,0
1523614171855,-1114112,69,-56,-1,-1,0
1523614171855,-2031616,69,-56,-1,-1,0
1523614171855,-2621440,69,-56,-1,-1,0
1523614171855,-2359296,69,-56,-1,-1,0
1523614171895,-2359296,69,-56,-1,-1,0
1523614171895,-2097152,69,-56,-1,-1,0
1523614171895,-1769472,69,-56,-1,-1,0
1523614171895,-655360,69,-56,-1,-1,0
1523614171895,2883584,69,-56,-1,-1,0
1523614171935,7471104,69,-56,-1,-1,0
1523614171935,6422528,69,-56,-1,-1,0
1523614171935,720896,69,-56,-1,-1,0
1523614171935,-2621440,69,-56,-1,-1,0
1523614171935,-1966080,69,-56,-1,-1,0
1523614171975,-1769472,69,-56,-1,-1,0
1523614171975,-2228224,69,-56,-1,-1,0
1523614171975,-1507328,69,-56,-1,-1,0
1523614171975,-983040,69,-56,-1,-1,0
1523614171975,-2031616,69,-56,-1,-1,0
1523614172015,-2162688,69,-56,-1,-1,0
1523614172015,-1179648,69,-56,-1,-1,0
1523614172015,-393216,69,-56,-1,-1,0
1523614172015,-327680,69,-56,-1,-1,0
1523614172015,-851968,69,-56,-1,-1,0
1523614172055,-1900544,69,-56,-1,-1,0
1523614172055,-2359296,69,-56,-1,-1,0
1523614172055,-1310720,69,-56,-1,-1,0
1523614172055,262144,69,-56,-1,-1,0
1523614172055,65536,69,-56,-1,-1,0
1523614172095,-786432,69,-56,-1,-1,0
1523614172095,-655360,69,-56,-1,-1,0
1523614172095,393216,69,-56,-1,-1,0
1523614172095,851968,69,-56,-1,-1,0
1523614172095,655360,69,-56,-1,-1,0
1523614172135,720896,69,-56,-1,-1,0
1523614172135,1310720,69,-56,-1,-1,0
1523614172135,2490368,69,-56,-1,-1,0
1523614172135,2686976,69,-56,-1,-1,0
1523614172135,2097152,69,-56,-1,-1,0
1523614172175,1572864,69,-56,-1,-1,0
1523614172175,2228224,69,-56,-1,-1,0
1523614172175,1835008,69,-56,-1,-1,0
1523614172175,720896,69,-56,-1,-1,0
1523614172175,-262144,69,-56,-1,-1,0
1523614172215,-196608,69,-56,-1,-1,0
1523614172215,0,69,-56,-1,-1,0
1523614172215,-458752,69,-56,-1,-1,0
1523614172215,-1376256,69,-56,-1,-1,0
1523614172215,-1245184,69,-56,-1,-1,0
1523614172255,-1048576,69,-56,-1,-1,0
1523614172255,-1769472,69,-56,-1,-1,0
1523614172255,-2359296,69,-56,-1,-1,0
1523614172255,-2162688,69,-56,-1,-1,0
1523614172255,-1441792,69,-56,-1,-1,0
1523614172295,-1048576,69,-56,-1,-1,0
1523614172295,-1310720,69,-56,-1,-1,0
1523614172295,-1507328,69,-56,-1,-1,0
1523614172295,-983040,69,-56,-1,-1,0
1523614172295,-851968,69,-56,-1,-1,0
1523614172335,-1048576,69,-56,-1,-1,0
1523614172335,-1048576,69,-56,-1,-1,0
1523614172335,-1114112,69,-56,-1,-1,0
1523614172335,-1835008,69,-56,-1,-1,0
1523614172335,-1769472,69,-56,-1,-1,0
1523614172375,-786432,69,-56,-1,-1,0
1523614172375,-262144,69,-56,-1,-1,0
1523614172375,-720896,69,-56,-1,-1,0
1523614172375,-851968,69,-56,-1,-1,0
1523614172375,-327680,69,-56,-1,-1,0
1523614172416,0,69,-56,-1,-1,0
1523614172416,-524288,69,-56,-1,-1,0
1523614172416,-1572864,69,-56,-1,-1,0
1523614172416,-1376256,69,-56,-1,-1,0
1523614172416,-524288,69,-56,-1,-1,0
1523614172455,0,69,-56,-1,-1,0
1523614172455,-786432,69,-56,-1,-1,0
1523614172455,-1245184,69,-56,-1,-1,0
1523614172455,-786432,69,-56,-1,-1,0
1523614172455,-393216,69,-56,-1,-1,0
1523614172495,-524288,69,-56,-1,-1,0
1523614172495,-983040,69,-56,-1,-1,0
1523614172495,-720896,69,-56,-1,-1,0
1523614172495,-458752,69,-56,-1,-1,0
1523614172495,-524288,69,-56,-1,-1,0
1523614172535,-851968,69,-56,-1,-1,0
1523614172535,-1048576,69,-56,-1,-1,0
1523614172535,-655360,69,-56,-1,-1,0
1523614172535,-524288,69,-56,-1,-1,0
1523614172535,-458752,69,-56,-1,-1,0
1523614172575,-851968,69,-56,-1,-1,0
1523614172575,-983040,69,-56,-1,-1,0
1523614172575,-655360,69,-56,-1,-1,0
1523614172575,-393216,69,-56,-1,-1,0
1523614172575,-524288,69,-56,-1,-1,0
1523614172615,-917504,69,-56,-1,-1,0
1523614172615,-917504,69,-56,-1,-1,0
1523614172615,-327680,69,-56,-1,-1,0
1523614172615,1835008,69,-56,-1,-1,0
1523614172615,6619136,69,-56,-1,-1,0
1523614172655,9109504,69,-56,-1,-1,0
1523614172655,5242880,69,-56,-1,-1,0
1523614172655,0,69,-56,-1,-1,0
1523614172655,-917504,69,-56,-1,-1,0
1523614172655,196608,69,-56,-1,-1,0
1523614172695,655360,69,-56,-1,-1,0
1523614172695,131072,69,-56,-1,-1,0
1523614172695,-131072,69,-56,-1,-1,0
1523614172695,-262144,69,-56,-1,-1,0
1523614172695,-65536,69,-56,-1,-1,0
1523614172735,131072,69,-56,-1,-1,0
1523614172735,720896,69,-56,-1,-1,0
1523614172735,524288,69,-56,-1,-1,0
1523614172735,327680,69,-56,-1,-1,0
1523614172735,393216,69,-56,-1,-1,0
1523614172775,458752,69,-56,-1,-1,0
1523614172775,458752,69,-56,-1,-1,0
1523614172775,917504,69,-56,-1,-1,0
1523614172775,1114112,69,-56,-1,-1,0
1523614172775,1114112,69,-56,-1,-1,0
1523614172815,1245184,69,-56,-1,-1,0
1523614172815,1703936,69,-56,-1,-1,0
1523614172815,2097152,69,-56,-1,-1,0
1523614172815,2228224,69,-56,-1,-1,0
1523614172815,2621440,69,-56,-1,-1,0
1523614172855,2686976,69,-56,-1,-1,0
1523614172855,3014656,69,-56,-1,-1,0
1523614172855,3276800,69,-56,-1,-1,0
1523614172855,3801088,69,-56,-1,-1,0
1523614172855,3932160,69,-56,-1,-1,0
1523614172895,3604480,69,-56,-1,-1,0
1523614172895,3014656,69,-56,-1,-1,0
1523614172895,2293760,69,-56,-1,-1,0
1523614172895,2097152,69,-56,-1,-1,0
1523614172895,1638400,69,-56,-1,-1,0
1523614172935,1048576,69,-56,-1,-1,0
1523614172935,327680,69,-56,-1,-1,0
1523614172935,-262144,69,-56,-1,-1,0
1523614172935,-196608,69,-56,-1,-1,0
1523614172935,131072,69,-56,-1,-1,0
1523614172975,196608,69,-56,-1,-1,0
1523614172975,-131072,69,-56,-1,-1,0
1523614172975,-327680,69,-56,-1,-1,0
1523614172975,-393216,69,-56,-1,-1,0
1523614172975,-262144,69,-56,-1,-1,0
1523614173014,-65536,69,-56,-1,-1,0
1523614173014,-196608,69,-56,-1,-1,0
1523614173014,-720896,69,-56,-1,-1,0
1523614173014,-917504,69,-56,-1,-1,0
1523614173014,-262144,69,-56,-1,-1,0
1523614173056,0,69,-56,-1,-1,0
1523614173056,-196608,69,-56,-1,-1,0
1523614173056,-393216,69,-56,-1,-1,0
1523614173056,-458752,69,-56,-1,-1,0
1523614173056,-262144,69,-56,-1,-1,0
1523614173094,-131072,69,-56,-1,-1,0
1523614173094,-458752,69,-56,-1,-1,0
1523614173094,-720896,69,-56,-1,-1,0
1523614173094,-327680,69,-56,-1,-1,0
1523614173094,-262144,69,-56,-1,-1,0
1523614173134,-589824,69,-56,-1,-1,0
1523614173134,-262144,69,-56,-1,-1,0
1523614173134,327680,69,-56,-1,-1,0
1523614173134,65536,69,-56,-1,-1,0
1523614173134,-851968,69,-56,-1,-1,0
1523614173174,-720896,69,-56,-1,-1,0
1523614173174,-65536,69,-56,-1,-1,0
1523614173174,-458752,69,-56,-1,-1,0
1523614173174,-1245184,69,-56,-1,-1,0
1523614173174,-851968,69,-56,-1,-1,0
1523614173214,-65536,69,-56,-1,-1,0
1523614173214,65536,69,-56,-1,-1,0
1523614173214,-851968,69,-56,-1,-1,0
1523614173214,-1048576,69,-56,-1,-1,0
1523614173214,-917504,69,-56,-1,-1,0
1523614173254,-917504,69,-56,-1,-1,0
1523614173254,-786432,69,-56,-1,-1,0
1523614173254,-393216,69,-56,-1,-1,0
1523614173254,-327680,69,-56,-1,-1,0
1523614173254,-327680,69,-56,-1,-1,0
1523614173294,-589824,69,-56,-1,-1,0
1523614173294,-1179648,69,-56,-1,-1,0
1523614173294,-1048576,69,-56,-1,-1,0
1523614173294,-655360,69,-56,-1,-1,0
1523614173294,-458752,69,-56,-1,-1,0
1523614173334,-1114112,69,-56,-1,-1,0
1523614173334,-1507328,69,-56,-1,-1,0
1523614173334,-262144,69,-56,-1,-1,0
1523614173334,4194304,69,-56,-1,-1,0
1523614173334,9175040,69,-56,-1,-1,0
1523614173374,8323072,69,-56,-1,-1,0
1523614173374,2686976,69,-56,-1,-1,0
1523614173374,-983040,69,-56,-1,-1,0
1523614173374,-720896,69,-56,-1,-1,0
1523614173374,-458752,69,-56,-1,-1,0
1523614173414,-458752,69,-56,-1,-1,0
1523614173414,-196608,69,-56,-1,-1,0
1523614173414,-393216,69,-56,-1,-1,0
1523614173414,-589824,69,-56,-1,-1,0
1523614173414,-786432,69,-56,-1,-1,0
1523614173454,-327680,69,-56,-1,-1,0
1523614173454,0,69,-56,-1,-1,0
1523614173454,65536,69,-56,-1,-1,0
1523614173454,-393216,69,-56,-1,-1,0
1523614173454,-262144,69,-56,-1,-1,0
1523614173494,-262144,69,-56,-1,-1,0
1523614173494,-327680,69,-56,-1,-1,0
1523614173494,0,69,-56,-1,-1,0
1523614173494,524288,69,-56,-1,-1,0
1523614173494,917504,69,-56,-1,-1,0
1523614173534,851968,69,-56,-1,-1,0
1523614173534,1048576,69,-56,-1,-1,0
1523614173534,1245184,69,-56,-1,-1,0
1523614173534,1769472,69,-56,-1,-1,0
1523614173534,2031616,69,-56,-1,-1,0
1523614173574,2162688,69,-56,-1,-1,0
1523614173574,2162688,69,-56,-1,-1,0
1523614173574,2686976,69,-56,-1,-1,0
1523614173574,3342336,69,-56,-1,-1,0
1523614173574,3276800,69,-56,-1,-1,0
1523614173614,2752512,69,-56,-1,-1,0
1523614173614,2228224,69,-56,-1,-1,0
1523614173614,1966080,69,-56,-1,-1,0
1523614173614,1376256,69,-56,-1,-1,0
1523614173614,589824,69,-56,-1,-1,0
1523614173654,0,69,-56,-1,-1,0
1523614173654,-262144,69,-56,-1,-1,0
1523614173654,-589824,69,-56,-1,-1,0
1523614173654,-786432,69,-56,-1,-1,0
1523614173654,-983040,69,-56,-1,-1,0
1523614173696,-917504,69,-56,-1,-1,0
1523614173696,-1048576,69,-56,-1,-1,0
1523614173696,-1048576,69,-56,-1,-1,0
1523614173696,-1179648,69,-56,-1,-1,0
1523614173696,-1048576,69,-56,-1,-1,0
1523614173734,-1179648,69,-56,-1,-1,0
1523614173734,-1376256,69,-56,-1,-1,0
1523614173734,-1245184,69,-56,-1,-1,0
1523614173734,-851968,69,-56,-1,-1,0
1523614173734,-786432,69,-56,-1,-1,0
1523614173774,-1048576,69,-56,-1,-1,0
1523614173774,-1310720,69,-56,-1,-1,0
1523614173774,-1507328,69,-56,-1,-1,0
1523614173774,-1245184,69,-56,-1,-1,0
1523614173774,-1048576,69,-56,-1,-1,0
1523614173816,-1048576,69,-56,-1,-1,0
1523614173816,-1245184,69,-56,-1,-1,0
1523614173816,-1179648,69,-56,-1,-1,0
1523614173816,-917504,69,-56,-1,-1,0
1523614173816,-851968,69,-56,-1,-1,0
1523614173854,-786432,69,-56,-1,-1,0
1523614173854,-851968,69,-56,-1,-1,0
1523614173854,-917504,69,-56,-1,-1,0
1523614173854,-1048576,69,-56,-1,-1,0
1523614173854,-983040,69,-56,-1,-1,0
1523614173895,-983040,69,-56,-1,-1,0
1523614173895,-917504,69,-56,-1,-1,0
1523614173895,-720896,69,-56,-1,-1,0
1523614173895,-786432,69,-56,-1,-1,0
1523614173895,-851968,69,-56,-1,-1,0
1523614173934,-589824,69,-56,-1,-1,0
1523614173934,-393216,69,-56,-1,-1,0
1523614173934,-524288,69,-56,-1,-1,0
1523614173934,-1048576,69,-56,-1,-1,0
1523614173934,-1310720,69,-56,-1,-1,0
1523614173974,-1245184,69,-56,-1,-1,0
1523614173974,-983040,69,-56,-1,-1,0
1523614173974,-458752,69,-56,-1,-1,0
1523614173974,-524288,69,-56,-1,-1,0
1523614173974,-917504,69,-56,-1,-1,0
1523614174014,-983040,69,-56,-1,-1,0
1523614174014,-851968,69,-56,-1,-1,0
1523614174014,-851968,69,-56,-1,-1,0
1523614174014,-983040,69,-56,-1,-1,0
1523614174014,-917504,69,-56,-1,-1,0
1523614174055,-1114112,70,-56,-1,-1,0
1523614174055,-1376256,70,-56,-1,-1,0
1523614174055,-524288,70,-56,-1,-1,0
1523614174055,3538944,70,-56,-1,-1,0
1523614174055,9240576,70,-56,-1,-1,0
1523614174094,9437184,70,-56,-1,-1,0
1523614174094,3604480,70,-56,-1,-1,0
1523614174094,-655360,70,-56,-1,-1,0
1523614174094,-589824,70,-56,-1,-1,0
1523614174094,-262144,70,-56,-1,-1,0
1523614174134,-524288,70,-56,-1,-1,0
1523614174134,-524288,70,-56,-1,-1,0
1523614174134,-524288,70,-56,-1,-1,0
1523614174134,-524288,70,-56,-1,-1,0
1523614174134,-458752,70,-56,-1,-1,0
1523614174174,-393216,70,-56,-1,-1,0
1523614174174,-327680,70,-56,-1,-1,0
1523614174174,-393216,70,-56,-1,-1,0
1523614174174,-262144,70,-56,-1,-1,0
1523614174174,-65536,70,-56,-1,-1,0
1523614174215,131072,70,-56,-1,-1,0
1523614174215,262144,70,-56,-1,-1,0
1523614174215,327680,70,-56,-1,-1,0
1523614174215,524288,70,-56,-1,-1,0
1523614174215,786432,70,-56,-1,-1,0
1523614174254,851968,70,-56,-1,-1,0
1523614174254,917504,70,-56,-1,-1,0
1523614174254,1310720,70,-56,-1,-1,0
1523614174254,1769472,70,-56,-1,-1,0
1523614174254,1966080,70,-56,-1,-1,0
1523614174294,2293760,70,-56,-1,-1,0
1523614174294,2752512,70,-56,-1,-1,0
1523614174294,2883584,70,-56,-1,-1,0
1523614174294,2883584,70,-56,-1,-1,0
1523614174294,3276800,70,-56,-1,-1,0
1523614174336,3538944,70,-56,-1,-1,0
1523614174336,3014656,70,-56,-1,-1,0
1523614174336,2228224,70,-56,-1,-1,0
1523614174336,1507328,70,-56,-1,-1,0
1523614174336,1048576,70,-56,-1,-1,0
1523614174374,655360,70,-56,-1,-1,0
1523614174374,196608,70,-56,-1,-1,0
1523614174374,65536,70,-56,-1,-1,0
1523614174374,65536,70,-56,-1,-1,0
1523614174374,65536,70,-56,-1,-1,0
1523614174414,0,70,-56,-1,-1,0
1523614174414,0,70,-56,-1,-1,0
1523614174414,0,70,-56,-1,-1,0
1523614174414,0,70,-56,-1,-1,0
1523614174414,0,70,-56,-1,-1,0
1523614174455,-262144,70,-56,-1,-1,0
1523614174455,-589824,70,-56,-1,-1,0
1523614174455,-458752,70,-56,-1,-1,0
1523614174455,-65536,70,-56,-1,-1,0
1523614174455,0,70,-56,-1,-1,0
1523614174494,0,70,-56,-1,-1,0
1523614174494,65536,70,-56,-1,-1,0
1523614174494,0,70,-56,-1,-1,0
1523614174494,-131072,70,-56,-1,-1,0
1523614174494,-262144,70,-56,-1,-1,0
1523614174534,-262144,70,-56,-1,-1,0
1523614174534,-393216,70,-56,-1,-1,0
1523614174534,-327680,70,-56,-1,-1,0
1523614174534,-262144,70,-56,-1,-1,0
1523614174534,-131072,70,-56,-1,-1,0
1523614174574,-131072,70,-56,-1,-1,0
1523614174574,-196608,70,-56,-1,-1,0
1523614174574,-262144,70,-56,-1,-1,0
1523614174574,-262144,70,-56,-1,-1,0
1523614174574,-196608,70,-56,-1,-1,0
1523614174614,-327680,70,-56,-1,-1,0
1523614174614,-524288,70,-56,-1,-1,0
1523614174614,-589824,70,-56,-1,-1,0
1523614174614,-458752,70,-56,-1,-1,0
1523614174614,-524288,70,-56,-1,-1,0
1523614174656,-589824,70,-56,-1,-1,0
1523614174656,-720896,70,-56,-1,-1,0
1523614174656,-917504,70,-56,-1,-1,0
1523614174656,-917504,70,-56,-1,-1,0
1523614174656,-786432,70,-56,-1,-1,0
1523614174695,-655360,70,-56,-1,-1,0
1523614174695,-589824,70,-56,-1,-1,0
1523614174695,-524288,70,-56,-1,-1,0
1523614174695,-589824,70,-56,-1,-1,0
1523614174695,-720896,70,-56,-1,-1,0
1523614174734,-851968,70,-56,-1,-1,0
1523614174734,-917504,70,-56,-1,-1,0
1523614174734,-1048576,70,-56,-1,-1,0
1523614174734,-1114112,70,-56,-1,-1,0
1523614174734,-1179648,70,-56,-1,-1,0
1523614174775,-1245184,73,-56,-1,-1,0
1523614174775,-1245184,73,-56,-1,-1,0
1523614174775,589824,73,-56,-1,-1,0
1523614174775,5177344,73,-56,-1,-1,0
1523614174775,8912896,73,-56,-1,-1,0
1523614174814,6356992,73,-56,-1,-1,0
1523614174814,1114112,73,-56,-1,-1,0
1523614174814,-1048576,73,-56,-1,-1,0
1523614174814,-655360,73,-56,-1,-1,0
1523614174814,-393216,73,-56,-1,-1,0
1523614174855,-655360,73,-56,-1,-1,0
1523614174855,-786432,73,-56,-1,-1,0
1523614174855,-720896,73,-56,-1,-1,0
1523614174855,-458752,73,-56,-1,-1,0
1523614174855,-524288,73,-56,-1,-1,0
1523614174894,-327680,73,-56,-1,-1,0
1523614174894,0,73,-56,-1,-1,0
1523614174894,-65536,73,-56,-1,-1,0
1523614174894,-458752,73,-56,-1,-1,0
1523614174894,-524288,73,-56,-1,-1,0
1523614174934,-196608,73,-56,-1,-1,0
1523614174934,131072,73,-56,-1,-1,0
1523614174934,65536,73,-56,-1,-1,0
1523614174934,-65536,73,-56,-1,-1,0
1523614174934,327680,73,-56,-1,-1,0
1523614174976,851968,73,-56,-1,-1,0
1523614174976,983040,73,-56,-1,-1,0
1523614174976,917504,73,-56,-1,-1,0
1523614174976,1245184,73,-56,-1,-1,0
1523614174976,1572864,73,-56,-1,-1,0
1523614175015,1769472,73,-56,-1,-1,0
1523614175015,2162688,73,-56,-1,-1,0
1523614175015,2555904,73,-56,-1,-1,0
1523614175015,2621440,73,-56,-1,-1,0
1523614175015,2424832,73,-56,-1,-1,0
1523614175054,2228224,73,-56,-1,-1,0
1523614175054,1900544,73,-56,-1,-1,0
1523614175054,1376256,73,-56,-1,-1,0
1523614175054,589824,73,-56,-1,-1,0
1523614175054,0,73,-56,-1,-1,0
1523614175095,-196608,73,-56,-1,-1,0
1523614175095,-262144,73,-56,-1,-1,0
1523614175095,-524288,73,-56,-1,-1,0
1523614175095,-851968,73,-56,-1,-1,0
1523614175095,-983040,73,-56,-1,-1,0
1523614175134,-1048576,73,-56,-1,-1,0
1523614175134,-1048576,73,-56,-1,-1,0
1523614175134,-1048576,73,-56,-1,-1,0
1523614175134,-1048576,73,-56,-1,-1,0
1523614175134,-1048576,73,-56,-1,-1,0
1523614175175,-851968,73,-56,-1,-1,0
1523614175175,-655360,73,-56,-1,-1,0
1523614175175,-851968,73,-56,-1,-1,0
1523614175175,-1114112,73,-56,-1,-1,0
1523614175175,-1245184,73,-56,-1,-1,0
1523614175214,-917504,73,-56,-1,-1,0
1523614175214,-720896,73,-56,-1,-1,0
1523614175214,-983040,73,-56,-1,-1,0
1523614175214,-1048576,73,-56,-1,-1,0
1523614175214,-1048576,73,-56,-1,-1,0
1523614175255,-851968,73,-56,-1,-1,0
1523614175255,-851968,73,-56,-1,-1,0
1523614175255,-1441792,73,-56,-1,-1,0
1523614175255,-1835008,73,-56,-1,-1,0
1523614175255,-1310720,73,-56,-1,-1,0
1523614175295,-655360,73,-56,-1,-1,0
1523614175295,-851968,73,-56,-1,-1,0
1523614175295,-1114112,73,-56,-1,-1,0
1523614175295,-1245184,73,-56,-1,-1,0
1523614175295,-1376256,73,-56,-1,-1,0
1523614175335,-1376256,73,-56,-1,-1,0
1523614175335,-1572864,73,-56,-1,-1,0
1523614175335,-1376256,73,-56,-1,-1,0
1523614175335,-917504,73,-56,-1,-1,0
1523614175335,-655360,73,-56,-1,-1,0
1523614175374,-1048576,73,-56,-1,-1,0
1523614175374,-1179648,73,-56,-1,-1,0
1523614175374,-1114112,73,-56,-1,-1,0
1523614175374,-1245184,73,-56,-1,-1,0
1523614175374,-1507328,73,-56,-1,-1,0
1523614175415,-1507328,73,-56,-1,-1,0
1523614175415,-1114112,73,-56,-1,-1,0
1523614175415,-917504,73,-56,-1,-1,0
1523614175415,-983040,73,-56,-1,-1,0
1523614175415,-1048576,73,-56,-1,-1,0
1523614175454,-1114112,73,-56,-1,-1,0
1523614175454,-1245184,73,-56,-1,-1,0
1523614175454,-1441792,73,-56,-1,-1,0
1523614175454,-1572864,73,-56,-1,-1,0
1523614175454,-1703936,73,-56,-1,-1,0
1523614175495,-1572864,76,-56,-1,-1,0
1523614175495,-589824,76,-56,-1,-1,0
1523614175495,3080192,76,-56,-1,-1,0
1523614175495,7995392,76,-56,-1,-1,0
1523614175495,8323072,76,-56,-1,-1,0
1523614175535,3407872,76,-56,-1,-1,0
1523614175535,-917504,76,-56,-1,-1,0
1523614175535,-1376256,76,-56,-1,-1,0
1523614175535,-1048576,76,-56,-1,-1,0
1523614175535,-917504,76,-56,-1,-1,0
1523614175575,-720896,76,-56,-1,-1,0
1523614175575,-655360,76,-56,-1,-1,0
1523614175575,-393216,76,-56,-1,-1,0
1523614175575,-393216,76,-56,-1,-1,0
1523614175575,-327680,76,-56,-1,-1,0
1523614175616,-262144,76,-56,-1,-1,0
1523614175616,-196608,76,-56,-1,-1,0
1523614175616,-393216,76,-56,-1,-1,0
1523614175616,-327680,76,-56,-1,-1,0
1523614175616,-65536,76,-56,-1,-1,0
1523614175655,-65536,76,-56,-1,-1,0
1523614175655,0,76,-56,-1,-1,0
1523614175655,196608,76,-56,-1,-1,0
1523614175655,524288,76,-56,-1,-1,0
1523614175655,786432,76,-56,-1,-1,0
1523614175695,1114112,76,-56,-1,-1,0
1523614175695,1376256,76,-56,-1,-1,0
1523614175695,1572864,76,-56,-1,-1,0
1523614175695,1769472,76,-56,-1,-1,0
1523614175695,2162688,76,-56,-1,-1,0
1523614175735,2555904,76,-56,-1,-1,0
1523614175735,2555904,76,-56,-1,-1,0
1523614175735,2555904,76,-56,-1,-1,0
1523614175735,2424832,76,-56,-1,-1,0
1523614175735,2424832,76,-56,-1,-1,0
1523614175774,2293760,76,-56,-1,-1,0
1523614175774,2031616,76,-56,-1,-1,0
1523614175774,1441792,76,-56,-1,-1,0
1523614175774,917504,76,-56,-1,-1,0
1523614175774,458752,76,-56,-1,-1,0
1523614175815,262144,76,-56,-1,-1,0
1523614175815,0,76,-56,-1,-1,0
1523614175815,-524288,76,-56,-1,-1,0
1523614175815,-786432,76,-56,-1,-1,0
1523614175815,-720896,76,-56,-1,-1,0
1523614175854,-458752,76,-56,-1,-1,0
1523614175854,-524288,76,-56,-1,-1,0
1523614175854,-589824,76,-56,-1,-1,0
1523614175854,-524288,76,-56,-1,-1,0
1523614175854,-524288,76,-56,-1,-1,0
1523614175895,-458752,76,-56,-1,-1,0
1523614175895,-524288,76,-56,-1,-1,0
1523614175895,-589824,76,-56,-1,-1,0
1523614175895,-786432,76,-56,-1,-1,0
1523614175895,-851968,76,-56,-1,-1,0
1523614175935,-524288,76,-56,-1,-1,0
1523614175935,-393216,76,-56,-1,-1,0
1523614175935,-524288,76,-56,-1,-1,0
1523614175935,-589824,76,-56,-1,-1,0
1523614175935,-524288,76,-56,-1,-1,0
1523614175974,-524288,76,-56,-1,-1,0
1523614175974,-655360,76,-56,-1,-1,0
1523614175974,-720896,76,-56,-1,-1,0
1523614175974,-851968,76,-56,-1,-1,0
1523614175974,-851968,76,-56,-1,-1,0
1523614176014,-786432,76,-56,-1,-1,0
1523614176014,-720896,76,-56,-1,-1,0
1523614176014,-720896,76,-56,-1,-1,0
1523614176014,-786432,76,-56,-1,-1,0
1523614176014,-786432,76,-56,-1,-1,0
1523614176054,-786432,76,-56,-1,-1,0
1523614176054,-851968,76,-56,-1,-1,0
1523614176054,-983040,76,-56,-1,-1,0
1523614176054,-1048576,76,-56,-1,-1,0
1523614176054,-1179648,76,-56,-1,-1,0
1523614176094,-1376256,76,-56,-1,-1,0
1523614176094,-1310720,76,-56,-1,-1,0
1523614176094,-1048576,76,-56,-1,-1,0
1523614176094,-983040,76,-56,-1,-1,0
1523614176094,-917504,76,-56,-1,-1,0
1523614176135,-786432,79,-56,-1,-1,0
1523614176135,-851968,79,-56,-1,-1,0
1523614176135,-1048576,79,-56,-1,-1,0
1523614176135,-1179648,79,-56,-1,-1,0
1523614176135,-1245184,79,-56,-1,-1,0
1523614176175,-1179648,79,-56,-1,-1,0
1523614176175,-1179648,79,-56,-1,-1,0
1523614176175,-1376256,79,-56,-1,-1,0
1523614176175,-393216,79,-56,-1,-1,0
1523614176175,3604480,79,-56,-1,-1,0
1523614176215,8519680,79,-56,-1,-1,0
1523614176215,7929856,79,-56,-1,-1,0
1523614176215,2621440,79,-56,-1,-1,0
1523614176215,-1114112,79,-56,-1,-1,0
1523614176215,-983040,79,-56,-1,-1,0
1523614176256,-655360,79,-56,-1,-1,0
1523614176256,-720896,79,-56,-1,-1,0
1523614176256,-655360,79,-56,-1,-1,0
1523614176256,-589824,79,-56,-1,-1,0
1523614176256,-524288,79,-56,-1,-1,0
1523614176295,-589824,79,-56,-1,-1,0
1523614176295,-458752,79,-56,-1,-1,0
1523614176295,-327680,79,-56,-1,-1,0
1523614176295,-393216,79,-56,-1,-1,0
1523614176295,-393216,79,-56,-1,-1,0
1523614176335,-393216,79,-56,-1,-1,0
1523614176335,-131072,79,-56,-1,-1,0
1523614176335,196608,79,-56,-1,-1,0
1523614176335,393216,79,-56,-1,-1,0
1523614176335,327680,79,-56,-1,-1,0
1523614176375,458752,79,-56,-1,-1,0
1523614176375,589824,79,-56,-1,-1,0
1523614176375,720896,79,-56,-1,-1,0
1523614176375,1114112,79,-56,-1,-1,0
1523614176375,1441792,79,-56,-1,-1,0
1523614176415,1703936,79,-56,-1,-1,0
1523614176415,2031616,79,-56,-1,-1,0
1523614176415,2359296,79,-56,-1,-1,0
1523614176415,2555904,79,-56,-1,-1,0
1523614176415,2621440,79,-56,-1,-1,0
1523614176455,2686976,79,-56,-1,-1,0
1523614176455,2490368,79,-56,-1,-1,0
1523614176455,2097152,79,-56,-1,-1,0
1523614176455,1507328,79,-56,-1,-1,0
1523614176455,1048576,79,-56,-1,-1,0
1523614176494,458752,79,-56,-1,-1,0
1523614176494,0,79,-56,-1,-1,0
1523614176494,-196608,79,-56,-1,-1,0
1523614176494,-262144,79,-56,-1,-1,0
1523614176494,-393216,79,-56,-1,-1,0
1523614176535,-524288,79,-56,-1,-1,0
1523614176535,-589824,79,-56,-1,-1,0
1523614176535,-589824,79,-56,-1,-1,0
1523614176535,-589824,79,-56,-1,-1,0
1523614176535,-589824,79,-56,-1,-1,0
1523614176574,-589824,79,-56,-1,-1,0
1523614176574,-786432,79,-56,-1,-1,0
1523614176574,-983040,79,-56,-1,-1,0
1523614176574,-917504,79,-56,-1,-1,0
1523614176574,-655360,79,-56,-1,-1,0
1523614176615,-458752,79,-56,-1,-1,0
1523614176615,-393216,79,-56,-1,-1,0
1523614176615,-458752,79,-56,-1,-1,0
1523614176615,-524288,79,-56,-1,-1,0
1523614176615,-655360,79,-56,-1,-1,0
1523614176654,-655360,79,-56,-1,-1,0
1523614176654,-851968,79,-56,-1,-1,0
1523614176654,-1114112,79,-56,-1,-1,0
1523614176654,-917504,79,-56,-1,-1,0
1523614176654,-589824,79,-56,-1,-1,0
1523614176695,-524288,79,-56,-1,-1,0
1523614176695,-524288,79,-56,-1,-1,0
1523614176695,-589824,79,-56,-1,-1,0
1523614176695,-589824,79,-56,-1,-1,0
1523614176695,-720896,79,-56,-1,-1,0
1523614176735,-720896,79,-56,-1,-1,0
1523614176735,-786432,79,-56,-1,-1,0
1523614176735,-786432,79,-56,-1,-1,0
1523614176735,-983040,79,-56,-1,-1,0
1523614176735,-1048576,79,-56,-1,-1,0
1523614176775,-983040,79,-56,-1,-1,0
1523614176775,-917504,79,-56,-1,-1,0
1523614176775,-851968,79,-56,-1,-1,0
1523614176775,-655360,79,-56,-1,-1,0
1523614176775,-655360,79,-56,-1,-1,0
1523614176815,-851968,81,-56,-1,-1,0
1523614176815,-1048576,81,-56,-1,-1,0
1523614176815,-983040,81,-56,-1,-1,0
1523614176815,-1114112,81,-56,-1,-1,0
1523614176815,-1179648,81,-56,-1,-1,0
1523614176855,-1179648,81,-56,-1,-1,0
1523614176855,-1310720,81,-56,-1,-1,0
1523614176855,-1245184,81,-56,-1,-1,0
1523614176855,720896,81,-56,-1,-1,0
1523614176855,5570560,81,-56,-1,-1,0
1523614176896,8847360,81,-56,-1,-1,0
1523614176896,5636096,81,-56,-1,-1,0
1523614176896,655360,81,-56,-1,-1,0
1523614176896,-1048576,81,-56,-1,-1,0
1523614176896,-720896,81,-56,-1,-1,0
1523614176935,-655360,81,-56,-1,-1,0
1523614176935,-720896,81,-56,-1,-1,0
1523614176935,-720896,81,-56,-1,-1,0
1523614176935,-786432,81,-56,-1,-1,0
1523614176935,-655360,81,-56,-1,-1,0
1523614176975,-589824,81,-56,-1,-1,0
1523614176975,-327680,81,-56,-1,-1,0
1523614176975,-196608,81,-56,-1,-1,0
1523614176975,-65536,81,-56,-1,-1,0
1523614176975,-131072,81,-56,-1,-1,0
1523614177015,-131072,81,-56,-1,-1,0
1523614177015,-196608,81,-56,-1,-1,0
1523614177015,-262144,81,-56,-1,-1,0
1523614177015,-196608,81,-56,-1,-1,0
1523614177015,65536,81,-56,-1,-1,0
1523614177055,131072,81,-56,-1,-1,0
1523614177055,524288,81,-56,-1,-1,0
1523614177055,983040,81,-56,-1,-1,0
1523614177055,1441792,81,-56,-1,-1,0
1523614177055,1572864,81,-56,-1,-1,0
1523614177095,1769472,81,-56,-1,-1,0
1523614177095,1966080,81,-56,-1,-1,0
1523614177095,2162688,81,-56,-1,-1,0
1523614177095,2293760,81,-56,-1,-1,0
1523614177095,2359296,81,-56,-1,-1,0
1523614177135,2424832,81,-56,-1,-1,0
1523614177135,2097152,81,-56,-1,-1,0
1523614177135,1507328,81,-56,-1,-1,0
1523614177135,983040,81,-56,-1,-1,0
1523614177135,524288,81,-56,-1,-1,0
1523614177175,0,81,-56,-1,-1,0
1523614177175,-393216,81,-56,-1,-1,0
1523614177175,-458752,81,-56,-1,-1,0
1523614177175,-655360,81,-56,-1,-1,0
1523614177175,-851968,81,-56,-1,-1,0
1523614177215,-917504,81,-56,-1,-1,0
1523614177215,-917504,81,-56,-1,-1,0
1523614177215,-851968,81,-56,-1,-1,0
1523614177215,-917504,81,-56,-1,-1,0
1523614177215,-851968,81,-56,-1,-1,0
1523614177255,-851968,81,-56,-1,-1,0
1523614177255,-786432,81,-56,-1,-1,0
1523614177255,-786432,81,-56,-1,-1,0
1523614177255,-917504,81,-56,-1,-1,0
1523614177255,-917504,81,-56,-1,-1,0
1523614177295,-917504,81,-56,-1,-1,0
1523614177295,-917504,81,-56,-1,-1,0
1523614177295,-917504,81,-56,-1,-1,0
1523614177295,-786432,81,-56,-1,-1,0
1523614177295,-786432,81,-56,-1,-1,0
1523614177335,-786432,81,-56,-1,-1,0
1523614177335,-851968,81,-56,-1,-1,0
1523614177335,-851968,81,-56,-1,-1,0
1523614177335,-983040,81,-56,-1,-1,0
1523614177335,-983040,81,-56,-1,-1,0
1523614177375,-786432,81,-56,-1,-1,0
1523614177375,-720896,81,-56,-1,-1,0
1523614177375,-983040,81,-56,-1,-1,0
1523614177375,-1179648,81,-56,-1,-1,0
1523614177375,-1114112,81,-56,-1,-1,0
1523614177415,-983040,81,-56,-1,-1,0
1523614177415,-1114112,81,-56,-1,-1,0
1523614177415,-1179648,81,-56,-1,-1,0
1523614177415,-1114112,81,-56,-1,-1,0
1523614177415,-1114112,81,-56,-1,-1,0
1523614177455,-983040,82,-56,-1,-1,0
1523614177455,-1048576,82,-56,-1,-1,0
1523614177455,-1114112,82,-56,-1,-1,0
1523614177455,-983040,82,-56,-1,-1,0
1523614177455,-917504,82,-56,-1,-1,0
1523614177495,-983040,82,-56,-1,-1,0
1523614177495,-1179648,82,-56,-1,-1,0
1523614177495,-1310720,82,-56,-1,-1,0
1523614177495,-1572864,82,-56,-1,-1,0
1523614177495,-1114112,82,-56,-1,-1,0
1523614177536,1507328,82,-56,-1,-1,0
1523614177536,5963776,82,-56,-1,-1,0
1523614177536,7077888,82,-56,-1,-1,0
1523614177536,3014656,82,-56,-1,-1,0
1523614177536,-917504,82,-56,-1,-1,0
1523614177575,-1179648,82,-56,-1,-1,0
1523614177575,-720896,82,-56,-1,-1,0
1523614177575,-720896,82,-56,-1,-1,0
1523614177575,-786432,82,-56,-1,-1,0
1523614177575,-917504,82,-56,-1,-1,0
1523614177615,-786432,82,-56,-1,-1,0
1523614177615,-720896,82,-56,-1,-1,0
1523614177615,-589824,82,-56,-1,-1,0
1523614177615,-524288,82,-56,-1,-1,0
1523614177615,-458752,82,-56,-1,-1,0
1523614177655,-393216,82,-56,-1,-1,0
1523614177655,-327680,82,-56,-1,-1,0
1523614177655,-262144,82,-56,-1,-1,0
1523614177655,-131072,82,-56,-1,-1,0
1523614177655,0,82,-56,-1,-1,0
1523614177696,0,82,-56,-1,-1,0
1523614177696,196608,82,-56,-1,-1,0
1523614177696,327680,82,-56,-1,-1,0
1523614177696,655360,82,-56,-1,-1,0
1523614177696,983040,82,-56,-1,-1,0
1523614177735,1310720,82,-56,-1,-1,0
1523614177735,1507328,82,-56,-1,-1,0
1523614177735,1703936,82,-56,-1,-1,0
1523614177735,1835008,82,-56,-1,-1,0
1523614177735,2031616,82,-56,-1,-1,0
1523614177775,2097152,82,-56,-1,-1,0
1523614177775,2097152,82,-56,-1,-1,0
1523614177775,1900544,82,-56,-1,-1,0
1523614177775,1507328,82,-56,-1,-1,0
1523614177775,917504,82,-56,-1,-1,0
1523614177815,327680,82,-56,-1,-1,0
1523614177815,0,82,-56,-1,-1,0
1523614177815,-327680,82,-56,-1,-1,0
1523614177815,-655360,82,-56,-1,-1,0
1523614177815,-917504,82,-56,-1,-1,0
1523614177855,-1048576,82,-56,-1,-1,0
1523614177855,-1114112,82,-56,-1,-1,0
1523614177855,-1114112,82,-56,-1,-1,0
1523614177855,-1114112,82,-56,-1,-1,0
1523614177855,-1114112,82,-56,-1,-1,0
1523614177895,-1179648,82,-56,-1,-1,0
1523614177895,-1114112,82,-56,-1,-1,0
1523614177895,-1048576,82,-56,-1,-1,0
1523614177895,-1114112,82,-56,-1,-1,0
1523614177895,-1114112,82,-56,-1,-1,0
1523614177936,-1048576,82,-56,-1,-1,0
1523614177936,-983040,82,-56,-1,-1,0
1523614177936,-1048576,82,-56,-1,-1,0
1523614177936,-1048576,82,-56,-1,-1,0
1523614177936,-983040,82,-56,-1,-1,0
1523614177975,-983040,82,-56,-1,-1,0
1523614177975,-1048576,82,-56,-1,-1,0
1523614177975,-1048576,82,-56,-1,-1,0
1523614177975,-1048576,82,-56,-1,-1,0
1523614177975,-1179648,82,-56,-1,-1,0
1523614178015,-1245184,82,-56,-1,-1,0
1523614178015,-1114112,82,-56,-1,-1,0
1523614178015,-851968,82,-56,-1,-1,0
1523614178015,-917504,82,-56,-1,-1,0
1523614178015,-1114112,82,-56,-1,-1,0
1523614178055,-1245184,82,-56,-1,-1,0
1523614178055,-1310720,82,-56,-1,-1,0
1523614178055,-1310720,82,-56,-1,-1,0
1523614178055,-1310720,82,-56,-1,-1,0
1523614178055,-1310720,82,-56,-1,-1,0
1523614178095,-1310720,83,-56,-1,-1,0
1523614178095,-1310720,83,-56,-1,-1,0
1523614178095,-1310720,83,-56,-1,-1,0
1523614178095,-1310720,83,-56,-1,-1,0
1523614178095,-1310720,83,-56,-1,-1,0
1523614178135,-1245184,83,-56,-1,-1,0
1523614178135,-1179648,83,-56,-1,-1,0
1523614178135,-1179648,83,-56,-1,-1,0
1523614178135,-1179648,83,-56,-1,-1,0
1523614178135,-1310720,83,-56,-1,-1,0
1523614178176,-1572864,83,-56,-1,-1,0
1523614178176,-1376256,83,-56,-1,-1,0
1523614178176,1245184,83,-56,-1,-1,0
1523614178176,6094848,83,-56,-1,-1,0
1523614178176,7864320,83,-56,-1,-1,0
1523614178215,3932160,83,-56,-1,-1,0
1523614178215,-458752,83,-56,-1,-1,0
1523614178215,-1048576,83,-56,-1,-1,0
1523614178215,-655360,83,-56,-1,-1,0
1523614178215,-524288,83,-56,-1,-1,0
1523614178255,-589824,83,-56,-1,-1,0
1523614178255,-720896,83,-56,-1,-1,0
1523614178255,-786432,83,-56,-1,-1,0
1523614178255,-786432,83,-56,-1,-1,0
1523614178255,-720896,83,-56,-1,-1,0
1523614178295,-589824,83,-56,-1,-1,0
1523614178295,-655360,83,-56,-1,-1,0
1523614178295,-524288,83,-56,-1,-1,0
1523614178295,-262144,83,-56,-1,-1,0
1523614178295,-131072,83,-56,-1,-1,0
1523614178335,-131072,83,-56,-1,-1,0
1523614178335,0,83,-56,-1,-1,0
1523614178335,65536,83,-56,-1,-1,0
1523614178335,131072,83,-56,-1,-1,0
1523614178335,262144,83,-56,-1,-1,0
1523614178375,655360,83,-56,-1,-1,0
1523614178375,851968,83,-56,-1,-1,0
1523614178375,1114112,83,-56,-1,-1,0
1523614178375,1507328,83,-56,-1,-1,0
1523614178375,1769472,83,-56,-1,-1,0
1523614178415,1835008,83,-56,-1,-1,0
1523614178415,2097152,83,-56,-1,-1,0
1523614178415,2424832,83,-56,-1,-1,0
1523614178415,2424832,83,-56,-1,-1,0
1523614178415,2097152,83,-56,-1,-1,0
1523614178455,1638400,83,-56,-1,-1,0
1523614178455,1114112,83,-56,-1,-1,0
1523614178455,720896,83,-56,-1,-1,0
1523614178455,458752,83,-56,-1,-1,0
1523614178455,196608,83,-56,-1,-1,0
1523614178495,-65536,83,-56,-1,-1,0
1523614178495,-393216,83,-56,-1,-1,0
1523614178495,-655360,83,-56,-1,-1,0
1523614178495,-983040,83,-56,-1,-1,0
1523614178495,-720896,83,-56,-1,-1,0
1523614178535,-262144,83,-56,-1,-1,0
1523614178535,-131072,83,-56,-1,-1,0
1523614178535,-327680,83,-56,-1,-1,0
1523614178535,-458752,83,-56,-1,-1,0
1523614178535,-589824,83,-56,-1,-1,0
1523614178575,-655360,83,-56,-1,-1,0
1523614178575,-655360,83,-56,-1,-1,0
1523614178575,-458752,83,-56,-1,-1,0
1523614178575,-131072,83,-56,-1,-1,0
1523614178575,-131072,83,-56,-1,-1,0
1523614178615,-393216,83,-56,-1,-1,0
1523614178615,-458752,83,-56,-1,-1,0
1523614178615,-393216,83,-56,-1,-1,0
1523614178615,-393216,83,-56,-1,-1,0
1523614178615,-393216,83,-56,-1,-1,0
1523614178655,-393216,83,-56,-1,-1,0
1523614178655,-524288,83,-56,-1,-1,0
1523614178655,-524288,83,-56,-1,-1,0
1523614178655,-393216,83,-56,-1,-1,0
1523614178655,-196608,83,-56,-1,-1,0
1523614178695,-262144,83,-56,-1,-1,0
1523614178695,-262144,83,-56,-1,-1,0
1523614178695,-262144,83,-56,-1,-1,0
1523614178695,-327680,83,-56,-1,-1,0
1523614178695,-393216,83,-56,-1,-1,0
1523614178735,-393216,84,-56,-1,-1,0
1523614178735,-458752,84,-56,-1,-1,0
1523614178735,-393216,84,-56,-1,-1,0
1523614178735,-262144,84,-56,-1,-1,0
1523614178735,-327680,84,-56,-1,-1,0
1523614178775,-458752,84,-56,-1,-1,0
1523614178775,-458752,84,-56,-1,-1,0
1523614178775,-458752,84,-56,-1,-1,0
1523614178775,-458752,84,-56,-1,-1,0
1523614178775,-458752,84,-56,-1,-1,0
1523614178816,-851968,84,-56,-1,-1,0
1523614178816,-983040,84,-56,-1,-1,0
1523614178816,655360,84,-56,-1,-1,0
1523614178816,5308416,84,-56,-1,-1,0
1523614178816,9109504,84,-56,-1,-1,0
1523614178855,6684672,84,-56,-1,-1,0
1523614178855,1572864,84,-56,-1,-1,0
1523614178855,-786432,84,-56,-1,-1,0
1523614178855,-589824,84,-56,-1,-1,0
1523614178855,-458752,84,-56,-1,-1,0
1523614178895,-524288,84,-56,-1,-1,0
1523614178895,-589824,84,-56,-1,-1,0
1523614178895,-720896,84,-56,-1,-1,0
1523614178895,-524288,84,-56,-1,-1,0
1523614178895,-524288,84,-56,-1,-1,0
1523614178935,-393216,84,-56,-1,-1,0
1523614178935,-393216,84,-56,-1,-1,0
1523614178935,-458752,84,-56,-1,-1,0
1523614178935,-655360,84,-56,-1,-1,0
1523614178935,-589824,84,-56,-1,-1,0
1523614178975,-458752,84,-56,-1,-1,0
1523614178975,-196608,84,-56,-1,-1,0
1523614178975,-65536,84,-56,-1,-1,0
1523614178975,65536,84,-56,-1,-1,0
1523614178975,131072,84,-56,-1,-1,0
1523614179016,262144,84,-56,-1,-1,0
1523614179016,524288,84,-56,-1,-1,0
1523614179016,851968,84,-56,-1,-1,0
1523614179016,1179648,84,-56,-1,-1,0
1523614179016,1310720,84,-56,-1,-1,0
1523614179055,1441792,84,-56,-1,-1,0
1523614179055,1769472,84,-56,-1,-1,0
1523614179055,2031616,84,-56,-1,-1,0
1523614179055,2097152,84,-56,-1,-1,0
1523614179055,1966080,84,-56,-1,-1,0
1523614179095,1638400,84,-56,-1,-1,0
1523614179095,1048576,84,-56,-1,-1,0
1523614179095,458752,84,-56,-1,-1,0
1523614179095,0,84,-56,-1,-1,0
1523614179095,-458752,84,-56,-1,-1,0
1523614179135,-851968,84,-56,-1,-1,0
1523614179135,-1048576,84,-56,-1,-1,0
1523614179135,-1114112,84,-56,-1,-1,0
1523614179135,-1310720,84,-56,-1,-1,0
1523614179135,-1310720,84,-56,-1,-1,0
1523614179175,-1114112,84,-56,-1,-1,0
1523614179175,-1179648,84,-56,-1,-1,0
1523614179175,-1376256,84,-56,-1,-1,0
1523614179175,-1441792,84,-56,-1,-1,0
1523614179175,-1441792,84,-56,-1,-1,0
1523614179215,-1638400,84,-56,-1,-1,0
1523614179215,-1638400,84,-56,-1,-1,0
1523614179215,-1441792,84,-56,-1,-1,0
1523614179215,-1245184,84,-56,-1,-1,0
1523614179215,-1245184,84,-56,-1,-1,0
1523614179255,-1310720,84,-56,-1,-1,0
1523614179255,-1310720,84,-56,-1,-1,0
1523614179255,-1441792,84,-56,-1,-1,0
1523614179255,-1507328,84,-56,-1,-1,0
1523614179255,-1507328,84,-56,-1,-1,0
1523614179295,-1376256,84,-56,-1,-1,0
1523614179295,-1310720,84,-56,-1,-1,0
1523614179295,-1376256,84,-56,-1,-1,0
1523614179295,-1507328,84,-56,-1,-1,0
1523614179295,-1507328,84,-56,-1,-1,0
1523614179335,-1376256,84,-56,-1,-1,0
1523614179335,-1245184,84,-56,-1,-1,0
1523614179335,-1507328,84,-56,-1,-1,0
1523614179335,-1769472,84,-56,-1,-1,0
1523614179335,-1835008,84,-56,-1,-1,0
1523614179375,-1638400,85,-56,-1,-1,0
1523614179375,-1572864,85,-56,-1,-1,0
1523614179375,-1376256,85,-56,-1,-1,0
1523614179375,-983040,85,-56,-1,-1,0
1523614179375,-917504,85,-56,-1,-1,0
1523614179415,-1638400,85,-56,-1,-1,0
1523614179415,-1769472,85,-56,-1,-1,0
1523614179415,-1245184,85,-56,-1,-1,0
1523614179415,-1114112,85,-56,-1,-1,0
1523614179415,-1703936,85,-56,-1,-1,0
1523614179456,-2162688,85,-56,-1,-1,0
1523614179456,-1966080,85,-56,-1,-1,0
1523614179456,-655360,85,-56,-1,-1,0
1523614179456,3342336,85,-56,-1,-1,0
1523614179456,7995392,85,-56,-1,-1,0
1523614179495,6684672,85,-56,-1,-1,0
1523614179495,1441792,85,-56,-1,-1,0
1523614179495,-1769472,85,-56,-1,-1,0
1523614179495,-1114112,85,-56,-1,-1,0
1523614179495,-458752,85,-56,-1,-1,0
1523614179535,-589824,85,-56,-1,-1,0
1523614179535,-851968,85,-56,-1,-1,0
1523614179535,-851968,85,-56,-1,-1,0
1523614179535,-655360,85,-56,-1,-1,0
1523614179535,-393216,85,-56,-1,-1,0
1523614179574,-196608,85,-56,-1,-1,0
1523614179574,-131072,85,-56,-1,-1,0
1523614179574,-65536,85,-56,-1,-1,0
1523614179574,-65536,85,-56,-1,-1,0
1523614179574,-131072,85,-56,-1,-1,0
1523614179614,0,85,-56,-1,-1,0
1523614179614,262144,85,-56,-1,-1,0
1523614179614,589824,85,-56,-1,-1,0
1523614179614,720896,85,-56,-1,-1,0
1523614179614,655360,85,-56,-1,-1,0
1523614179654,1114112,85,-56,-1,-1,0
1523614179654,1572864,85,-56,-1,-1,0
1523614179654,1638400,85,-56,-1,-1,0
1523614179654,1835008,85,-56,-1,-1,0
1523614179654,2162688,85,-56,-1,-1,0
1523614179694,2621440,85,-56,-1,-1,0
1523614179694,3080192,85,-56,-1,-1,0
1523614179694,3735552,85,-56,-1,-1,0
1523614179694,3670016,85,-56,-1,-1,0
1523614179694,3014656,85,-56,-1,-1,0
1523614179734,2424832,85,-56,-1,-1,0
1523614179734,2097152,85,-56,-1,-1,0
1523614179734,1376256,85,-56,-1,-1,0
1523614179734,720896,85,-56,-1,-1,0
1523614179734,524288,85,-56,-1,-1,0
1523614179774,458752,85,-56,-1,-1,0
1523614179774,327680,85,-56,-1,-1,0
1523614179774,196608,85,-56,-1,-1,0
1523614179774,131072,85,-56,-1,-1,0
1523614179774,-196608,85,-56,-1,-1,0
1523614179814,-655360,85,-56,-1,-1,0
1523614179814,-458752,85,-56,-1,-1,0
1523614179814,-196608,85,-56,-1,-1,0
1523614179814,-262144,85,-56,-1,-1,0
1523614179814,-65536,85,-56,-1,-1,0
1523614179854,65536,85,-56,-1,-1,0
1523614179854,-262144,85,-56,-1,-1,0
1523614179854,-524288,85,-56,-1,-1,0
1523614179854,-720896,85,-56,-1,-1,0
1523614179854,-917504,85,-56,-1,-1,0
1523614179894,-589824,85,-56,-1,-1,0
1523614179894,-65536,85,-56,-1,-1,0
1523614179894,0,85,-56,-1,-1,0
1523614179894,-262144,85,-56,-1,-1,0
1523614179894,-458752,85,-56,-1,-1,0
1523614179934,-393216,85,-56,-1,-1,0
1523614179934,-262144,85,-56,-1,-1,0
1523614179934,-131072,85,-56,-1,-1,0
1523614179934,-262144,85,-56,-1,-1,0
1523614179934,-458752,85,-56,-1,-1,0
1523614179974,-720896,85,-56,-1,-1,0
1523614179974,-786432,85,-56,-1,-1,0
1523614179974,-786432,85,-56,-1,-1,0
1523614179974,-720896,85,-56,-1,-1,0
1523614179974,-589824,85,-56,-1,-1,0
1523614180014,-720896,86,-56,-1,-1,0
1523614180014,-851968,86,-56,-1,-1,0
1523614180014,-655360,86,-56,-1,-1,0
1523614180014,-327680,86,-56,-1,-1,0
1523614180014,-393216,86,-56,-1,-1,0
1523614180054,-524288,86,-56,-1,-1,0
1523614180054,-589824,86,-56,-1,-1,0
1523614180054,-655360,86,-56,-1,-1,0
1523614180054,-983040,86,-56,-1,-1,0
1523614180054,-1245184,86,-56,-1,-1,0
1523614180096,-65536,86,-56,-1,-1,0
1523614180096,3997696,86,-56,-1,-1,0
1523614180096,8257536,86,-56,-1,-1,0
1523614180096,6225920,86,-56,-1,-1,0
1523614180096,720896,86,-56,-1,-1,0
1523614180134,-1900544,86,-56,-1,-1,0
1523614180134,-720896,86,-56,-1,-1,0
1523614180134,-65536,86,-56,-1,-1,0
1523614180134,-65536,86,-56,-1,-1,0
1523614180134,-131072,86,-56,-1,-1,0
1523614180174,-196608,86,-56,-1,-1,0
1523614180174,-196608,86,-56,-1,-1,0
1523614180174,-131072,86,-56,-1,-1,0
1523614180174,0,86,-56,-1,-1,0
1523614180174,65536,86,-56,-1,-1,0
1523614180214,196608,86,-56,-1,-1,0
1523614180214,65536,86,-56,-1,-1,0
1523614180214,131072,86,-56,-1,-1,0
1523614180214,524288,86,-56,-1,-1,0
1523614180214,720896,86,-56,-1,-1,0
1523614180254,589824,86,-56,-1,-1,0
1523614180254,458752,86,-56,-1,-1,0
1523614180254,851968,86,-56,-1,-1,0
1523614180254,1572864,86,-56,-1,-1,0
1523614180254,2031616,86,-56,-1,-1,0
1523614180294,1703936,86,-56,-1,-1,0
1523614180294,1638400,86,-56,-1,-1,0
1523614180294,2359296,86,-56,-1,-1,0
1523614180294,2883584,86,-56,-1,-1,0
1523614180294,2621440,86,-56,-1,-1,0
1523614180334,2621440,86,-56,-1,-1,0
1523614180334,3080192,86,-56,-1,-1,0
1523614180334,3211264,86,-56,-1,-1,0
1523614180334,2097152,86,-56,-1,-1,0
1523614180334,1179648,86,-56,-1,-1,0
1523614180374,786432,86,-56,-1,-1,0
1523614180374,458752,86,-56,-1,-1,0
1523614180374,-196608,86,-56,-1,-1,0
1523614180374,-851968,86,-56,-1,-1,0
1523614180374,-851968,86,-56,-1,-1,0
1523614180414,-589824,86,-56,-1,-1,0
1523614180414,-720896,86,-56,-1,-1,0
1523614180414,-983040,86,-56,-1,-1,0
1523614180414,-1048576,86,-56,-1,-1,0
1523614180414,-1245184,86,-56,-1,-1,0
1523614180454,-1638400,86,-56,-1,-1,0
1523614180454,-1507328,86,-56,-1,-1,0
1523614180454,-1114112,86,-56,-1,-1,0
1523614180454,-1179648,86,-56,-1,-1,0
1523614180454,-1376256,86,-56,-1,-1,0
1523614180494,-1114112,86,-56,-1,-1,0
1523614180494,-917504,86,-56,-1,-1,0
1523614180494,-917504,86,-56,-1,-1,0
1523614180494,-655360,86,-56,-1,-1,0
1523614180494,-720896,86,-56,-1,-1,0
1523614180534,-983040,86,-56,-1,-1,0
1523614180534,-983040,86,-56,-1,-1,0
1523614180534,-786432,86,-56,-1,-1,0
1523614180534,-1114112,86,-56,-1,-1,0
1523614180534,-1441792,86,-56,-1,-1,0
1523614180574,-1703936,86,-56,-1,-1,0
1523614180574,-1638400,86,-56,-1,-1,0
1523614180574,-1310720,86,-56,-1,-1,0
1523614180574,-1114112,86,-56,-1,-1,0
1523614180574,-983040,86,-56,-1,-1,0
1523614180614,-917504,86,-56,-1,-1,0
1523614180614,-851968,86,-56,-1,-1,0
1523614180614,-1376256,86,-56,-1,-1,0
1523614180614,-1638400,86,-56,-1,-1,0
1523614180614,-1441792,86,-56,-1,-1,0
1523614180654,-655360,87,-56,-1,-1,0
1523614180654,-327680,87,-56,-1,-1,0
1523614180654,-917504,87,-56,-1,-1,0
1523614180654,-1572864,87,-56,-1,-1,0
1523614180654,-1507328,87,-56,-1,-1,0
1523614180694,-1310720,87,-56,-1,-1,0
1523614180694,-1376256,87,-56,-1,-1,0
1523614180694,-1507328,87,-56,-1,-1,0
1523614180694,-1441792,87,-56,-1,-1,0
1523614180694,-1245184,87,-56,-1,-1,0
1523614180736,0,87,-56,-1,-1,0
1523614180736,4128768,87,-56,-1,-1,0
1523614180736,7864320,87,-56,-1,-1,0
1523614180736,5308416,87,-56,-1,-1,0
1523614180736,327680,87,-56,-1,-1,0
1523614180774,-1507328,87,-56,-1,-1,0
1523614180774,-983040,87,-56,-1,-1,0
1523614180774,-917504,87,-56,-1,-1,0
1523614180774,-589824,87,-56,-1,-1,0
1523614180774,-589824,87,-56,-1,-1,0
1523614180814,-1048576,87,-56,-1,-1,0
1523614180814,-851968,87,-56,-1,-1,0
1523614180814,-524288,87,-56,-1,-1,0
1523614180814,-262144,87,-56,-1,-1,0
1523614180814,-327680,87,-56,-1,-1,0
1523614180854,-393216,87,-56,-1,-1,0
1523614180854,-327680,87,-56,-1,-1,0
1523614180854,131072,87,-56,-1,-1,0
1523614180854,131072,87,-56,-1,-1,0
1523614180854,0,87,-56,-1,-1,0
1523614180894,262144,87,-56,-1,-1,0
1523614180894,655360,87,-56,-1,-1,0
1523614180894,786432,87,-56,-1,-1,0
1523614180894,917504,87,-56,-1,-1,0
1523614180894,1245184,87,-56,-1,-1,0
1523614180934,1310720,87,-56,-1,-1,0
1523614180934,1703936,87,-56,-1,-1,0
1523614180934,2490368,87,-56,-1,-1,0
1523614180934,2752512,87,-56,-1,-1,0
1523614180934,2490368,87,-56,-1,-1,0
1523614180974,2490368,87,-56,-1,-1,0
1523614180974,2818048,87,-56,-1,-1,0
1523614180974,2752512,87,-56,-1,-1,0
1523614180974,2424832,87,-56,-1,-1,0
1523614180974,1835008,87,-56,-1,-1,0
1523614181014,1114112,87,-56,-1,-1,0
1523614181014,196608,87,-56,-1,-1,0
1523614181014,-262144,87,-56,-1,-1,0
1523614181014,-393216,87,-56,-1,-1,0
1523614181014,-458752,87,-56,-1,-1,0
1523614181054,-655360,87,-56,-1,-1,0
1523614181054,-1114112,87,-56,-1,-1,0
1523614181054,-917504,87,-56,-1,-1,0
1523614181054,-655360,87,-56,-1,-1,0
1523614181054,-851968,87,-56,-1,-1,0
1523614181094,-1048576,87,-56,-1,-1,0
1523614181094,-983040,87,-56,-1,-1,0
1523614181094,-1048576,87,-56,-1,-1,0
1523614181094,-1179648,87,-56,-1,-1,0
1523614181094,-983040,87,-56,-1,-1,0
1523614181134,-720896,87,-56,-1,-1,0
1523614181134,-720896,87,-56,-1,-1,0
1523614181134,-917504,87,-56,-1,-1,0
1523614181134,-720896,87,-56,-1,-1,0
1523614181134,-524288,87,-56,-1,-1,0
1523614181174,-655360,87,-56,-1,-1,0
1523614181174,-917504,87,-56,-1,-1,0
1523614181174,-851968,87,-56,-1,-1,0
1523614181174,-524288,87,-56,-1,-1,0
1523614181174,-393216,87,-56,-1,-1,0
1523614181214,-393216,87,-56,-1,-1,0
1523614181214,-524288,87,-56,-1,-1,0
1523614181214,-655360,87,-56,-1,-1,0
1523614181214,-786432,87,-56,-1,-1,0
1523614181214,-524288,87,-56,-1,-1,0
1523614181254,-458752,87,-56,-1,-1,0
1523614181254,-524288,87,-56,-1,-1,0
1523614181254,-589824,87,-56,-1,-1,0
1523614181254,-655360,87,-56,-1,-1,0
1523614181254,-786432,87,-56,-1,-1,0
1523614181294,-720896,89,-56,-1,-1,0
1523614181294,-589824,89,-56,-1,-1,0
1523614181294,-917504,89,-56,-1,-1,0
1523614181294,-1048576,89,-56,-1,-1,0
1523614181294,-786432,89,-56,-1,-1,0
1523614181334,-589824,89,-56,-1,-1,0
1523614181334,-786432,89,-56,-1,-1,0
1523614181334,-851968,89,-56,-1,-1,0
1523614181334,-851968,89,-56,-1,-1,0
1523614181334,-1179648,89,-56,-1,-1,0
1523614181376,-131072,89,-56,-1,-1,0
1523614181376,4063232,89,-56,-1,-1,0
1523614181376,8847360,89,-56,-1,-1,0
1523614181376,7536640,89,-56,-1,-1,0
1523614181376,2097152,89,-56,-1,-1,0
1523614181414,-1048576,89,-56,-1,-1,0
1523614181414,-589824,89,-56,-1,-1,0
1523614181414,-196608,89,-56,-1,-1,0
1523614181414,-262144,89,-56,-1,-1,0
1523614181414,-327680,89,-56,-1,-1,0
1523614181454,-458752,89,-56,-1,-1,0
1523614181454,-524288,89,-56,-1,-1,0
1523614181454,-524288,89,-56,-1,-1,0
1523614181454,-393216,89,-56,-1,-1,0
1523614181454,-458752,89,-56,-1,-1,0
1523614181494,-393216,89,-56,-1,-1,0
1523614181494,-262144,89,-56,-1,-1,0
1523614181494,-131072,89,-56,-1,-1,0
1523614181494,65536,89,-56,-1,-1,0
1523614181494,131072,89,-56,-1,-1,0
1523614181534,196608,89,-56,-1,-1,0
1523614181534,327680,89,-56,-1,-1,0
1523614181534,655360,89,-56,-1,-1,0
1523614181534,655360,89,-56,-1,-1,0
1523614181534,786432,89,-56,-1,-1,0
1523614181574,1114112,89,-56,-1,-1,0
1523614181574,1638400,89,-56,-1,-1,0
1523614181574,2031616,89,-56,-1,-1,0
1523614181574,2359296,89,-56,-1,-1,0
1523614181574,2686976,89,-56,-1,-1,0
1523614181614,2818048,89,-56,-1,-1,0
1523614181614,2818048,89,-56,-1,-1,0
1523614181614,2621440,89,-56,-1,-1,0
1523614181614,2162688,89,-56,-1,-1,0
1523614181614,1572864,89,-56,-1,-1,0
1523614181654,851968,89,-56,-1,-1,0
1523614181654,393216,89,-56,-1,-1,0
1523614181654,0,89,-56,-1,-1,0
1523614181654,-458752,89,-56,-1,-1,0
1523614181654,-786432,89,-56,-1,-1,0
1523614181694,-589824,89,-56,-1,-1,0
1523614181694,-589824,89,-56,-1,-1,0
1523614181694,-851968,89,-56,-1,-1,0
1523614181694,-1179648,89,-56,-1,-1,0
1523614181694,-1179648,89,-56,-1,-1,0
1523614181734,-1114112,89,-56,-1,-1,0
1523614181734,-1114112,89,-56,-1,-1,0
1523614181734,-1114112,89,-56,-1,-1,0
1523614181734,-1114112,89,-56,-1,-1,0
1523614181734,-1048576,89,-56,-1,-1,0
1523614181774,-983040,89,-56,-1,-1,0
1523614181774,-1048576,89,-56,-1,-1,0
1523614181774,-1114112,89,-56,-1,-1,0
1523614181774,-917504,89,-56,-1,-1,0
1523614181774,-720896,89,-56,-1,-1,0
1523614181814,-851968,89,-56,-1,-1,0
1523614181814,-983040,89,-56,-1,-1,0
1523614181814,-851968,89,-56,-1,-1,0
1523614181814,-917504,89,-56,-1,-1,0
1523614181814,-917504,89,-56,-1,-1,0
1523614181854,-917504,89,-56,-1,-1,0
1523614181854,-917504,89,-56,-1,-1,0
1523614181854,-917504,89,-56,-1,-1,0
1523614181854,-983040,89,-56,-1,-1,0
1523614181854,-1114112,89,-56,-1,-1,0
1523614181894,-1114112,89,-56,-1,-1,0
1523614181894,-1048576,89,-56,-1,-1,0
1523614181894,-983040,89,-56,-1,-1,0
1523614181894,-983040,89,-56,-1,-1,0
1523614181894,-1114112,89,-56,-1,-1,0
1523614181934,-1310720,89,-56,-1,-1,0
1523614181934,-1310720,89,-56,-1,-1,0
1523614181934,-1048576,89,-56,-1,-1,0
1523614181934,-786432,89,-56,-1,-1,0
1523614181934,-851968,89,-56,-1,-1,0
1523614181974,-1048576,90,-56,-1,-1,0
1523614181974,-1114112,90,-56,-1,-1,0
1523614181974,-983040,90,-56,-1,-1,0
1523614181974,-983040,90,-56,-1,-1,0
1523614181974,-1376256,90,-56,-1,-1,0
1523614182016,-1769472,90,-56,-1,-1,0
1523614182016,-1245184,90,-56,-1,-1,0
1523614182016,2162688,90,-56,-1,-1,0
1523614182016,7864320,90,-56,-1,-1,0
1523614182016,9633792,90,-56,-1,-1,0
1523614182054,4915200,90,-56,-1,-1,0
1523614182054,-131072,90,-56,-1,-1,0
1523614182054,-917504,90,-56,-1,-1,0
1523614182054,-524288,90,-56,-1,-1,0
1523614182054,-393216,90,-56,-1,-1,0
1523614182094,-458752,90,-56,-1,-1,0
1523614182094,-720896,90,-56,-1,-1,0
1523614182094,-720896,90,-56,-1,-1,0
1523614182094,-524288,90,-56,-1,-1,0
1523614182094,-458752,90,-56,-1,-1,0
1523614182134,-393216,90,-56,-1,-1,0
1523614182134,-393216,90,-56,-1,-1,0
1523614182134,-327680,90,-56,-1,-1,0
1523614182134,-262144,90,-56,-1,-1,0
1523614182134,0,90,-56,-1,-1,0
1523614182174,65536,90,-56,-1,-1,0
1523614182174,0,90,-56,-1,-1,0
1523614182174,0,90,-56,-1,-1,0
1523614182174,131072,90,-56,-1,-1,0
1523614182174,524288,90,-56,-1,-1,0
1523614182214,917504,90,-56,-1,-1,0
1523614182214,1179648,90,-56,-1,-1,0
1523614182214,1572864,90,-56,-1,-1,0
1523614182214,1966080,90,-56,-1,-1,0
1523614182214,2097152,90,-56,-1,-1,0
1523614182254,2228224,90,-56,-1,-1,0
1523614182254,2490368,90,-56,-1,-1,0
1523614182254,2818048,90,-56,-1,-1,0
1523614182254,2883584,90,-56,-1,-1,0
1523614182254,2686976,90,-56,-1,-1,0
1523614182294,2031616,90,-56,-1,-1,0
1523614182294,1245184,90,-56,-1,-1,0
1523614182294,589824,90,-56,-1,-1,0
1523614182294,262144,90,-56,-1,-1,0
1523614182294,-131072,90,-56,-1,-1,0
1523614182334,-655360,90,-56,-1,-1,0
1523614182334,-1048576,90,-56,-1,-1,0
1523614182334,-1048576,90,-56,-1,-1,0
1523614182334,-851968,90,-56,-1,-1,0
1523614182334,-851968,90,-56,-1,-1,0
1523614182374,-1048576,90,-56,-1,-1,0
1523614182374,-1245184,90,-56,-1,-1,0
1523614182374,-1245184,90,-56,-1,-1,0
1523614182374,-1048576,90,-56,-1,-1,0
1523614182374,-983040,90,-56,-1,-1,0
1523614182414,-917504,90,-56,-1,-1,0
1523614182414,-851968,90,-56,-1,-1,0
1523614182414,-851968,90,-56,-1,-1,0
1523614182414,-851968,90,-56,-1,-1,0
1523614182414,-917504,90,-56,-1,-1,0
1523614182454,-1114112,90,-56,-1,-1,0
1523614182454,-1179648,90,-56,-1,-1,0
1523614182454,-1179648,90,-56,-1,-1,0
1523614182454,-1114112,90,-56,-1,-1,0
1523614182454,-983040,90,-56,-1,-1,0
1523614182494,-983040,90,-56,-1,-1,0
1523614182494,-1048576,90,-56,-1,-1,0
1523614182494,-1048576,90,-56,-1,-1,0
1523614182494,-983040,90,-56,-1,-1,0
1523614182494,-1114112,90,-56,-1,-1,0
1523614182534,-1179648,90,-56,-1,-1,0
1523614182534,-1179648,90,-56,-1,-1,0
1523614182534,-1114112,90,-56,-1,-1,0
1523614182534,-1179648,90,-56,-1,-1,0
1523614182534,-1179648,90,-56,-1,-1,0
1523614182574,-1048576,90,-56,-1,-1,0
1523614182574,-983040,90,-56,-1,-1,0
1523614182574,-1179648,90,-56,-1,-1,0
1523614182574,-1376256,90,-56,-1,-1,0
1523614182574,-1310720,90,-56,-1,-1,0
1523614182614,-1114112,90,-56,-1,-1,0
1523614182614,-1048576,90,-56,-1,-1,0
1523614182614,-1114112,90,-56,-1,-1,0
1523614182614,-1245184,90,-56,-1,-1,0
1523614182614,-1310720,90,-56,-1,-1,0
1523614182656,-1507328,91,-56,-1,-1,0
1523614182656,-1507328,91,-56,-1,-1,0
1523614182656,-1376256,91,-56,-1,-1,0
1523614182656,-1376256,91,-56,-1,-1,0
1523614182656,-1376256,91,-56,-1,-1,0
1523614182694,1245184,91,-56,-1,-1,0
1523614182694,7012352,91,-56,-1,-1,0
1523614182694,10289152,91,-56,-1,-1,0
1523614182694,6160384,91,-56,-1,-1,0
1523614182694,589824,91,-56,-1,-1,0
1523614182734,-1114112,91,-56,-1,-1,0
1523614182734,-983040,91,-56,-1,-1,0
1523614182734,-1048576,91,-56,-1,-1,0
1523614182734,-1048576,91,-56,-1,-1,0
1523614182734,-720896,91,-56,-1,-1,0
1523614182774,-393216,91,-56,-1,-1,0
1523614182774,-393216,91,-56,-1,-1,0
1523614182774,-589824,91,-56,-1,-1,0
1523614182774,-524288,91,-56,-1,-1,0
1523614182774,-655360,91,-56,-1,-1,0
1523614182814,-720896,91,-56,-1,-1,0
1523614182814,-720896,91,-56,-1,-1,0
1523614182814,-458752,91,-56,-1,-1,0
1523614182814,-131072,91,-56,-1,-1,0
1523614182814,65536,91,-56,-1,-1,0
1523614182854,65536,91,-56,-1,-1,0
1523614182854,65536,91,-56,-1,-1,0
1523614182854,262144,91,-56,-1,-1,0
1523614182854,786432,91,-56,-1,-1,0
1523614182854,1048576,91,-56,-1,-1,0
1523614182894,983040,91,-56,-1,-1,0
1523614182894,1376256,91,-56,-1,-1,0
1523614182894,1966080,91,-56,-1,-1,0
1523614182894,2228224,91,-56,-1,-1,0
1523614182894,2359296,91,-56,-1,-1,0
1523614182934,2490368,91,-56,-1,-1,0
1523614182934,2359296,91,-56,-1,-1,0
1523614182934,2293760,91,-56,-1,-1,0
1523614182934,2228224,91,-56,-1,-1,0
1523614182934,1769472,91,-56,-1,-1,0
1523614182974,983040,91,-56,-1,-1,0
1523614182974,327680,91,-56,-1,-1,0
1523614182974,0,91,-56,-1,-1,0
1523614182974,-327680,91,-56,-1,-1,0
1523614182974,-655360,91,-56,-1,-1,0
1523614183014,-786432,91,-56,-1,-1,0
1523614183014,-1048576,91,-56,-1,-1,0
1523614183014,-1114112,91,-56,-1,-1,0
1523614183014,-786432,91,-56,-1,-1,0
1523614183014,-458752,91,-56,-1,-1,0
1523614183054,-720896,91,-56,-1,-1,0
1523614183054,-983040,91,-56,-1,-1,0
1523614183054,-851968,91,-56,-1,-1,0
1523614183054,-786432,91,-56,-1,-1,0
1523614183054,-917504,91,-56,-1,-1,0
1523614183094,-983040,91,-56,-1,-1,0
1523614183094,-786432,91,-56,-1,-1,0
1523614183094,-851968,91,-56,-1,-1,0
1523614183094,-786432,91,-56,-1,-1,0
1523614183094,-655360,91,-56,-1,-1,0
1523614183134,-655360,91,-56,-1,-1,0
1523614183134,-720896,91,-56,-1,-1,0
1523614183134,-720896,91,-56,-1,-1,0
1523614183134,-786432,91,-56,-1,-1,0
1523614183134,-786432,91,-56,-1,-1,0
1523614183174,-786432,91,-56,-1,-1,0
1523614183174,-917504,91,-56,-1,-1,0
1523614183174,-786432,91,-56,-1,-1,0
1523614183174,-786432,91,-56,-1,-1,0
1523614183174,-851968,91,-56,-1,-1,0
1523614183214,-786432,91,-56,-1,-1,0
1523614183214,-720896,91,-56,-1,-1,0
1523614183214,-983040,91,-56,-1,-1,0
1523614183214,-1179648,91,-56,-1,-1,0
1523614183214,-1179648,91,-56,-1,-1,0
1523614183254,-1114112,91,-56,-1,-1,0
1523614183254,-1114112,91,-56,-1,-1,0
1523614183254,-1048576,91,-56,-1,-1,0
1523614183254,-1048576,91,-56,-1,-1,0
1523614183254,-983040,91,-56,-1,-1,0
1523614183296,-917504,91,-56,-1,-1,0
1523614183296,-983040,91,-56,-1,-1,0
1523614183296,-1048576,91,-56,-1,-1,0
1523614183296,-983040,91,-56,-1,-1,0
1523614183296,-1114112,91,-56,-1,-1,0
1523614183334,-1245184,90,-56,-1,-1,0
1523614183334,-1114112,90,-56,-1,-1,0
1523614183334,-1179648,90,-56,-1,-1,0
1523614183334,-1507328,90,-56,-1,-1,0
1523614183334,-1507328,90,-56,-1,-1,0
1523614183374,851968,90,-56,-1,-1,0
1523614183374,6029312,90,-56,-1,-1,0
1523614183374,9633792,90,-56,-1,-1,0
1523614183374,6488064,90,-56,-1,-1,0
1523614183374,1048576,90,-56,-1,-1,0
1523614183414,-917504,90,-56,-1,-1,0
1523614183414,-589824,90,-56,-1,-1,0
1523614183414,-393216,90,-56,-1,-1,0
1523614183414,-458752,90,-56,-1,-1,0
1523614183414,-458752,90,-56,-1,-1,0
1523614183454,-589824,90,-56,-1,-1,0
1523614183454,-393216,90,-56,-1,-1,0
1523614183454,-262144,90,-56,-1,-1,0
1523614183454,-131072,90,-56,-1,-1,0
1523614183454,-196608,90,-56,-1,-1,0
1523614183494,-196608,90,-56,-1,-1,0
1523614183494,-131072,90,-56,-1,-1,0
1523614183494,0,90,-56,-1,-1,0
1523614183494,131072,90,-56,-1,-1,0
1523614183494,262144,90,-56,-1,-1,0
1523614183535,196608,90,-56,-1,-1,0
1523614183535,262144,90,-56,-1,-1,0
1523614183535,524288,90,-56,-1,-1,0
1523614183535,917504,90,-56,-1,-1,0
1523614183535,1114112,90,-56,-1,-1,0
1523614183574,1376256,90,-56,-1,-1,0
1523614183574,1638400,90,-56,-1,-1,0
1523614183574,2031616,90,-56,-1,-1,0
1523614183574,2621440,90,-56,-1,-1,0
1523614183574,2818048,90,-56,-1,-1,0
1523614183614,2883584,90,-56,-1,-1,0
1523614183614,2949120,90,-56,-1,-1,0
1523614183614,2949120,90,-56,-1,-1,0
1523614183614,2621440,90,-56,-1,-1,0
1523614183614,1966080,90,-56,-1,-1,0
1523614183654,1048576,90,-56,-1,-1,0
1523614183654,393216,90,-56,-1,-1,0
1523614183654,131072,90,-56,-1,-1,0
1523614183654,0,90,-56,-1,-1,0
1523614183654,-262144,90,-56,-1,-1,0
1523614183694,-458752,90,-56,-1,-1,0
1523614183694,-393216,90,-56,-1,-1,0
1523614183694,-393216,90,-56,-1,-1,0
1523614183694,-720896,90,-56,-1,-1,0
1523614183694,-983040,90,-56,-1,-1,0
1523614183734,-917504,90,-56,-1,-1,0
1523614183734,-720896,90,-56,-1,-1,0
1523614183734,-720896,90,-56,-1,-1,0
1523614183734,-786432,90,-56,-1,-1,0
1523614183734,-851968,90,-56,-1,-1,0
1523614183774,-851968,90,-56,-1,-1,0
1523614183774,-786432,90,-56,-1,-1,0
1523614183774,-786432,90,-56,-1,-1,0
1523614183774,-589824,90,-56,-1,-1,0
1523614183774,-720896,90,-56,-1,-1,0
1523614183814,-1048576,90,-56,-1,-1,0
1523614183814,-1114112,90,-56,-1,-1,0
1523614183814,-983040,90,-56,-1,-1,0
1523614183814,-786432,90,-56,-1,-1,0
1523614183814,-786432,90,-56,-1,-1,0
1523614183854,-917504,90,-56,-1,-1,0
1523614183854,-917504,90,-56,-1,-1,0
1523614183854,-786432,90,-56,-1,-1,0
1523614183854,-851968,90,-56,-1,-1,0
1523614183854,-983040,90,-56,-1,-1,0
1523614183894,-917504,90,-56,-1,-1,0
1523614183894,-720896,90,-56,-1,-1,0
1523614183894,-720896,90,-56,-1,-1,0
1523614183894,-917504,90,-56,-1,-1,0
1523614183894,-983040,90,-56,-1,-1,0
1523614183935,-851968,90,-56,-1,-1,0
1523614183935,-917504,90,-56,-1,-1,0
1523614183935,-1048576,90,-56,-1,-1,0
1523614183935,-1048576,90,-56,-1,-1,0
1523614183935,-1245184,90,-56,-1,-1,0
1523614183974,-1114112,90,-56,-1,-1,0
1523614183974,-786432,90,-56,-1,-1,0
1523614183974,-655360,90,-56,-1,-1,0
1523614183974,-851968,90,-56,-1,-1,0
1523614183974,-917504,90,-56,-1,-1,0
1523614184014,-786432,90,-56,-1,-1,0
1523614184014,-786432,90,-56,-1,-1,0
1523614184014,-983040,90,-56,-1,-1,0
1523614184014,-983040,90,-56,-1,-1,0
1523614184014,-983040,90,-56,-1,-1,0
1523614184055,-1310720,90,-56,-1,-1,0
1523614184055,-851968,90,-56,-1,-1,0
1523614184055,2818048,90,-56,-1,-1,0
1523614184055,8388608,90,-56,-1,-1,0
1523614184055,8978432,90,-56,-1,-1,0
1523614184094,4063232,90,-56,-1,-1,0
1523614184094,-262144,90,-56,-1,-1,0
1523614184094,-655360,90,-56,-1,-1,0
1523614184094,-327680,90,-56,-1,-1,0
1523614184094,-196608,90,-56,-1,-1,0
1523614184134,-196608,90,-56,-1,-1,0
1523614184134,-327680,90,-56,-1,-1,0
1523614184134,-327680,90,-56,-1,-1,0
1523614184134,-393216,90,-56,-1,-1,0
1523614184134,-393216,90,-56,-1,-1,0
1523614184174,-393216,90,-56,-1,-1,0
1523614184174,-262144,90,-56,-1,-1,0
1523614184174,-262144,90,-56,-1,-1,0
1523614184174,-196608,90,-56,-1,-1,0
1523614184174,65536,90,-56,-1,-1,0
1523614184214,327680,90,-56,-1,-1,0
1523614184214,327680,90,-56,-1,-1,0
1523614184214,458752,90,-56,-1,-1,0
1523614184214,720896,90,-56,-1,-1,0
1523614184214,786432,90,-56,-1,-1,0
1523614184254,917504,90,-56,-1,-1,0
1523614184254,1114112,90,-56,-1,-1,0
1523614184254,1703936,90,-56,-1,-1,0
1523614184254,2293760,90,-56,-1,-1,0
1523614184254,2490368,90,-56,-1,-1,0
1523614184294,2490368,90,-56,-1,-1,0
1523614184294,2752512,90,-56,-1,-1,0
1523614184294,3080192,90,-56,-1,-1,0
1523614184294,3145728,90,-56,-1,-1,0
1523614184294,2883584,90,-56,-1,-1,0
1523614184334,2490368,90,-56,-1,-1,0
1523614184334,1900544,90,-56,-1,-1,0
1523614184334,1179648,90,-56,-1,-1,0
1523614184334,589824,90,-56,-1,-1,0
1523614184334,196608,90,-56,-1,-1,0
1523614184374,0,90,-56,-1,-1,0
1523614184374,-262144,90,-56,-1,-1,0
1523614184374,-524288,90,-56,-1,-1,0
1523614184374,-524288,90,-56,-1,-1,0
1523614184374,-524288,90,-56,-1,-1,0
1523614184414,-589824,90,-56,-1,-1,0
1523614184414,-786432,90,-56,-1,-1,0
1523614184414,-851968,90,-56,-1,-1,0
1523614184414,-720896,90,-56,-1,-1,0
1523614184414,-720896,90,-56,-1,-1,0
1523614184454,-720896,90,-56,-1,-1,0
1523614184454,-589824,90,-56,-1,-1,0
1523614184454,-720896,90,-56,-1,-1,0
1523614184454,-983040,90,-56,-1,-1,0
1523614184454,-983040,90,-56,-1,-1,0
1523614184495,-786432,90,-56,-1,-1,0
1523614184495,-720896,90,-56,-1,-1,0
1523614184495,-917504,90,-56,-1,-1,0
1523614184495,-983040,90,-56,-1,-1,0
1523614184495,-720896,90,-56,-1,-1,0
1523614184534,-524288,90,-56,-1,-1,0
1523614184534,-786432,90,-56,-1,-1,0
1523614184534,-1048576,90,-56,-1,-1,0
1523614184534,-1114112,90,-56,-1,-1,0
1523614184534,-1114112,90,-56,-1,-1,0
1523614184575,-1179648,90,-56,-1,-1,0
1523614184575,-1114112,90,-56,-1,-1,0
1523614184575,-917504,90,-56,-1,-1,0
1523614184575,-917504,90,-56,-1,-1,0
1523614184575,-917504,90,-56,-1,-1,0
1523614184614,-786432,90,-56,-1,-1,0
1523614184614,-720896,90,-56,-1,-1,0
1523614184614,-917504,90,-56,-1,-1,0
1523614184614,-1310720,90,-56,-1,-1,0
1523614184614,-1441792,90,-56,-1,-1,0
1523614184654,-1245184,90,-56,-1,-1,0
1523614184654,-1114112,90,-56,-1,-1,0
1523614184654,-983040,90,-56,-1,-1,0
1523614184654,-917504,90,-56,-1,-1,0
1523614184654,-917504,90,-56,-1,-1,0
1523614184694,-1048576,90,-56,-1,-1,0
1523614184694,-1048576,90,-56,-1,-1,0
1523614184694,-1114112,90,-56,-1,-1,0
1523614184694,-1048576,90,-56,-1,-1,0
1523614184694,-1179648,90,-56,-1,-1,0
1523614184734,-1572864,90,-56,-1,-1,0
1523614184734,-1703936,90,-56,-1,-1,0
1523614184734,-458752,90,-56,-1,-1,0
1523614184734,3735552,90,-56,-1,-1,0
1523614184734,8585216,90,-56,-1,-1,0
1523614184774,7667712,90,-56,-1,-1,0
1523614184774,2490368,90,-56,-1,-1,0
1523614184774,-786432,90,-56,-1,-1,0
1523614184774,-589824,90,-56,-1,-1,0
1523614184774,-262144,90,-56,-1,-1,0
1523614184814,-524288,90,-56,-1,-1,0
1523614184814,-589824,90,-56,-1,-1,0
1523614184814,-524288,90,-56,-1,-1,0
1523614184814,-327680,90,-56,-1,-1,0
1523614184814,-458752,90,-56,-1,-1,0
1523614184854,-589824,90,-56,-1,-1,0
1523614184854,-524288,90,-56,-1,-1,0
1523614184854,-327680,90,-56,-1,-1,0
1523614184854,-65536,90,-56,-1,-1,0
1523614184854,0,90,-56,-1,-1,0
1523614184895,0,90,-56,-1,-1,0
1523614184895,131072,90,-56,-1,-1,0
1523614184895,458752,90,-56,-1,-1,0
1523614184895,458752,90,-56,-1,-1,0
1523614184895,524288,90,-56,-1,-1,0
1523614184934,786432,90,-56,-1,-1,0
1523614184934,1179648,90,-56,-1,-1,0
1523614184934,1376256,90,-56,-1,-1,0
1523614184934,1703936,90,-56,-1,-1,0
1523614184934,2097152,90,-56,-1,-1,0
1523614184974,2359296,90,-56,-1,-1,0
1523614184974,2555904,90,-56,-1,-1,0
1523614184974,2883584,90,-56,-1,-1,0
1523614184974,3145728,90,-56,-1,-1,0
1523614184974,3080192,90,-56,-1,-1,0
1523614185014,2818048,90,-56,-1,-1,0
1523614185014,2359296,90,-56,-1,-1,0
1523614185014,1703936,90,-56,-1,-1,0
1523614185014,1114112,90,-56,-1,-1,0
1523614185014,524288,90,-56,-1,-1,0
1523614185055,131072,90,-56,-1,-1,0
1523614185055,-131072,90,-56,-1,-1,0
1523614185055,-393216,90,-56,-1,-1,0
1523614185055,-524288,90,-56,-1,-1,0
1523614185055,-589824,90,-56,-1,-1,0
1523614185094,-589824,90,-56,-1,-1,0
1523614185094,-589824,90,-56,-1,-1,0
1523614185094,-720896,90,-56,-1,-1,0
1523614185094,-786432,90,-56,-1,-1,0
1523614185094,-720896,90,-56,-1,-1,0
1523614185134,-720896,90,-56,-1,-1,0
1523614185134,-655360,90,-56,-1,-1,0
1523614185134,-589824,90,-56,-1,-1,0
1523614185134,-524288,90,-56,-1,-1,0
1523614185134,-524288,90,-56,-1,-1,0
1523614185174,-589824,90,-56,-1,-1,0
1523614185174,-720896,90,-56,-1,-1,0
1523614185174,-786432,90,-56,-1,-1,0
1523614185174,-720896,90,-56,-1,-1,0
1523614185174,-589824,90,-56,-1,-1,0
1523614185215,-589824,90,-56,-1,-1,0
1523614185215,-458752,90,-56,-1,-1,0
1523614185215,-458752,90,-56,-1,-1,0
1523614185215,-589824,90,-56,-1,-1,0
1523614185215,-720896,90,-56,-1,-1,0
1523614185254,-720896,90,-56,-1,-1,0
1523614185254,-655360,90,-56,-1,-1,0
1523614185254,-720896,90,-56,-1,-1,0
1523614185254,-720896,90,-56,-1,-1,0
1523614185254,-589824,90,-56,-1,-1,0
1523614185295,-589824,90,-56,-1,-1,0
1523614185295,-720896,90,-56,-1,-1,0
1523614185295,-786432,90,-56,-1,-1,0
1523614185295,-720896,90,-56,-1,-1,0
1523614185295,-917504,90,-56,-1,-1,0
1523614185336,-1048576,90,-56,-1,-1,0
1523614185336,-1048576,90,-56,-1,-1,0
1523614185336,-917504,90,-56,-1,-1,0
1523614185336,-786432,90,-56,-1,-1,0
1523614185336,-720896,90,-56,-1,-1,0
1523614185374,-786432,90,-56,-1,-1,0
1523614185374,-851968,90,-56,-1,-1,0
1523614185374,-851968,90,-56,-1,-1,0
1523614185374,-851968,90,-56,-1,-1,0
1523614185374,-983040,90,-56,-1,-1,0
1523614185414,-1114112,90,-56,-1,-1,0
1523614185414,-1441792,90,-56,-1,-1,0
1523614185414,-1507328,90,-56,-1,-1,0
1523614185414,196608,90,-56,-1,-1,0
1523614185414,5439488,90,-56,-1,-1,0
1523614185454,10092544,90,-56,-1,-1,0
1523614185454,7602176,90,-56,-1,-1,0
1523614185454,1835008,90,-56,-1,-1,0
1523614185454,-983040,90,-56,-1,-1,0
1523614185454,-917504,90,-56,-1,-1,0
1523614185494,-655360,90,-56,-1,-1,0
1523614185494,-589824,90,-56,-1,-1,0
1523614185494,-524288,90,-56,-1,-1,0
1523614185494,-524288,90,-56,-1,-1,0
1523614185494,-589824,90,-56,-1,-1,0
1523614185534,-851968,90,-56,-1,-1,0
1523614185534,-917504,90,-56,-1,-1,0
1523614185534,-720896,90,-56,-1,-1,0
1523614185534,-524288,90,-56,-1,-1,0
1523614185534,-589824,90,-56,-1,-1,0
1523614185574,-524288,90,-56,-1,-1,0
1523614185574,-262144,90,-56,-1,-1,0
1523614185574,0,90,-56,-1,-1,0
1523614185574,0,90,-56,-1,-1,0
1523614185574,65536,90,-56,-1,-1,0
1523614185614,262144,90,-56,-1,-1,0
1523614185614,589824,90,-56,-1,-1,0
1523614185614,851968,90,-56,-1,-1,0
1523614185614,983040,90,-56,-1,-1,0
1523614185614,1245184,90,-56,-1,-1,0
1523614185655,1769472,90,-56,-1,-1,0
1523614185655,2097152,90,-56,-1,-1,0
1523614185655,2162688,90,-56,-1,-1,0
1523614185655,2293760,90,-56,-1,-1,0
1523614185655,2555904,90,-56,-1,-1,0
1523614185695,2621440,90,-56,-1,-1,0
1523614185695,2162688,90,-56,-1,-1,0
1523614185695,1703936,90,-56,-1,-1,0
1523614185695,1114112,90,-56,-1,-1,0
1523614185695,458752,90,-56,-1,-1,0
1523614185734,-131072,90,-56,-1,-1,0
1523614185734,-589824,90,-56,-1,-1,0
1523614185734,-786432,90,-56,-1,-1,0
1523614185734,-917504,90,-56,-1,-1,0
1523614185734,-1048576,90,-56,-1,-1,0
1523614185774,-1114112,90,-56,-1,-1,0
1523614185774,-1048576,90,-56,-1,-1,0
1523614185774,-1245184,90,-56,-1,-1,0
1523614185774,-1245184,90,-56,-1,-1,0
1523614185774,-1114112,90,-56,-1,-1,0
1523614185814,-1048576,90,-56,-1,-1,0
1523614185814,-1179648,90,-56,-1,-1,0
1523614185814,-1179648,90,-56,-1,-1,0
1523614185814,-1179648,90,-56,-1,-1,0
1523614185814,-1179648,90,-56,-1,-1,0
1523614185855,-1114112,90,-56,-1,-1,0
1523614185855,-1114112,90,-56,-1,-1,0
1523614185855,-1179648,90,-56,-1,-1,0
1523614185855,-1114112,90,-56,-1,-1,0
1523614185855,-983040,90,-56,-1,-1,0
1523614185894,-1048576,90,-56,-1,-1,0
1523614185894,-1245184,90,-56,-1,-1,0
1523614185894,-1245184,90,-56,-1,-1,0
1523614185894,-1179648,90,-56,-1,-1,0
1523614185894,-983040,90,-56,-1,-1,0
1523614185935,-917504,90,-56,-1,-1,0
1523614185935,-917504,90,-56,-1,-1,0
1523614185935,-983040,90,-56,-1,-1,0
1523614185935,-917504,90,-56,-1,-1,0
1523614185935,-851968,90,-56,-1,-1,0
1523614185974,-983040,90,-56,-1,-1,0
1523614185974,-1114112,90,-56,-1,-1,0
1523614185974,-1179648,90,-56,-1,-1,0
1523614185974,-1048576,90,-56,-1,-1,0
1523614185974,-1048576,90,-56,-1,-1,0
1523614186014,-1114112,90,-56,-1,-1,0
1523614186014,-1245184,90,-56,-1,-1,0
1523614186014,-1114112,90,-56,-1,-1,0
1523614186014,-983040,90,-56,-1,-1,0
1523614186014,-983040,90,-56,-1,-1,0
1523614186054,-983040,90,-56,-1,-1,0
1523614186054,-917504,90,-56,-1,-1,0
1523614186054,-917504,90,-56,-1,-1,0
1523614186054,-1179648,90,-56,-1,-1,0
1523614186054,-1638400,90,-56,-1,-1,0
1523614186095,-1572864,90,-56,-1,-1,0
1523614186095,655360,90,-56,-1,-1,0
1523614186095,5832704,90,-56,-1,-1,0
1523614186095,9371648,90,-56,-1,-1,0
1523614186095,5963776,90,-56,-1,-1,0
1523614186134,458752,90,-56,-1,-1,0
1523614186134,-1376256,90,-56,-1,-1,0
1523614186134,-786432,90,-56,-1,-1,0
1523614186134,-458752,90,-56,-1,-1,0
1523614186134,-524288,90,-56,-1,-1,0
1523614186175,-524288,90,-56,-1,-1,0
1523614186175,-524288,90,-56,-1,-1,0
1523614186175,-458752,90,-56,-1,-1,0
1523614186175,-524288,90,-56,-1,-1,0
1523614186175,-393216,90,-56,-1,-1,0
1523614186215,-458752,90,-56,-1,-1,0
1523614186215,-458752,90,-56,-1,-1,0
1523614186215,-393216,90,-56,-1,-1,0
1523614186215,-196608,90,-56,-1,-1,0
1523614186215,-196608,90,-56,-1,-1,0
1523614186254,-65536,90,-56,-1,-1,0
1523614186254,262144,90,-56,-1,-1,0
1523614186254,458752,90,-56,-1,-1,0
1523614186254,524288,90,-56,-1,-1,0
1523614186254,786432,90,-56,-1,-1,0
1523614186294,1114112,90,-56,-1,-1,0
1523614186294,1507328,90,-56,-1,-1,0
1523614186294,1835008,90,-56,-1,-1,0
1523614186294,2097152,90,-56,-1,-1,0
1523614186294,2293760,90,-56,-1,-1,0
1523614186335,2424832,90,-56,-1,-1,0
1523614186335,2621440,90,-56,-1,-1,0
1523614186335,2818048,90,-56,-1,-1,0
1523614186335,2949120,90,-56,-1,-1,0
1523614186335,2686976,90,-56,-1,-1,0
1523614186374,2031616,90,-56,-1,-1,0
1523614186374,1179648,90,-56,-1,-1,0
1523614186374,393216,90,-56,-1,-1,0
1523614186374,-131072,90,-56,-1,-1,0
1523614186374,-262144,90,-56,-1,-1,0
1523614186415,-262144,90,-56,-1,-1,0
1523614186415,-458752,90,-56,-1,-1,0
1523614186415,-720896,90,-56,-1,-1,0
1523614186415,-851968,90,-56,-1,-1,0
1523614186415,-786432,90,-56,-1,-1,0
1523614186454,-720896,90,-56,-1,-1,0
1523614186454,-655360,90,-56,-1,-1,0
1523614186454,-851968,90,-56,-1,-1,0
1523614186454,-1048576,90,-56,-1,-1,0
1523614186454,-1048576,90,-56,-1,-1,0
1523614186497,-851968,90,-56,-1,-1,0
1523614186497,-720896,90,-56,-1,-1,0
1523614186497,-720896,90,-56,-1,-1,0
1523614186497,-655360,90,-56,-1,-1,0
1523614186497,-655360,90,-56,-1,-1,0
1523614186535,-851968,90,-56,-1,-1,0
1523614186535,-983040,90,-56,-1,-1,0
1523614186535,-786432,90,-56,-1,-1,0
1523614186535,-655360,90,-56,-1,-1,0
1523614186535,-655360,90,-56,-1,-1,0
1523614186575,-655360,90,-56,-1,-1,0
1523614186575,-589824,90,-56,-1,-1,0
1523614186575,-720896,90,-56,-1,-1,0
1523614186575,-917504,90,-56,-1,-1,0
1523614186575,-983040,90,-56,-1,-1,0
1523614186614,-917504,90,-56,-1,-1,0
1523614186614,-851968,90,-56,-1,-1,0
1523614186614,-1048576,90,-56,-1,-1,0
1523614186614,-1179648,90,-56,-1,-1,0
1523614186614,-1114112,90,-56,-1,-1,0
1523614186655,-983040,90,-56,-1,-1,0
1523614186655,-917504,90,-56,-1,-1,0
1523614186655,-983040,90,-56,-1,-1,0
1523614186655,-1114112,90,-56,-1,-1,0
1523614186655,-1114112,90,-56,-1,-1,0
1523614186695,-1048576,91,-56,-1,-1,0
1523614186695,-1245184,91,-56,-1,-1,0
1523614186695,-1310720,91,-56,-1,-1,0
1523614186695,-1310720,91,-56,-1,-1,0
1523614186695,-1179648,91,-56,-1,-1,0
1523614186735,-1245184,91,-56,-1,-1,0
1523614186735,-1376256,91,-56,-1,-1,0
1523614186735,-1376256,91,-56,-1,-1,0
1523614186735,131072,91,-56,-1,-1,0
1523614186735,4915200,91,-56,-1,-1,0
1523614186774,9240576,91,-56,-1,-1,0
1523614186774,6553600,91,-56,-1,-1,0
1523614186774,917504,91,-56,-1,-1,0
1523614186774,-1376256,91,-56,-1,-1,0
1523614186774,-851968,91,-56,-1,-1,0
1523614186814,-589824,91,-56,-1,-1,0
1523614186814,-655360,91,-56,-1,-1,0
1523614186814,-524288,91,-56,-1,-1,0
1523614186814,-589824,91,-56,-1,-1,0
1523614186814,-589824,91,-56,-1,-1,0
1523614186854,-524288,91,-56,-1,-1,0
1523614186854,-393216,91,-56,-1,-1,0
1523614186854,-524288,91,-56,-1,-1,0
1523614186854,-393216,91,-56,-1,-1,0
1523614186854,-262144,91,-56,-1,-1,0
1523614186895,-262144,91,-56,-1,-1,0
1523614186895,-393216,91,-56,-1,-1,0
1523614186895,-196608,91,-56,-1,-1,0
1523614186895,0,91,-56,-1,-1,0
1523614186895,196608,91,-56,-1,-1,0
1523614186935,393216,91,-56,-1,-1,0
1523614186935,655360,91,-56,-1,-1,0
1523614186935,1048576,91,-56,-1,-1,0
1523614186935,1310720,91,-56,-1,-1,0
1523614186935,1638400,91,-56,-1,-1,0
1523614186975,1900544,91,-56,-1,-1,0
1523614186975,2293760,91,-56,-1,-1,0
1523614186975,2621440,91,-56,-1,-1,0
1523614186975,2621440,91,-56,-1,-1,0
1523614186975,2490368,91,-56,-1,-1,0
1523614187014,2490368,91,-56,-1,-1,0
1523614187014,2228224,91,-56,-1,-1,0
1523614187014,1703936,91,-56,-1,-1,0
1523614187014,1179648,91,-56,-1,-1,0
1523614187014,655360,91,-56,-1,-1,0
1523614187054,131072,91,-56,-1,-1,0
1523614187054,-196608,91,-56,-1,-1,0
1523614187054,-393216,91,-56,-1,-1,0
1523614187054,-524288,91,-56,-1,-1,0
1523614187054,-786432,91,-56,-1,-1,0
1523614187094,-983040,91,-56,-1,-1,0
1523614187094,-983040,91,-56,-1,-1,0
1523614187094,-983040,91,-56,-1,-1,0
1523614187094,-917504,91,-56,-1,-1,0
1523614187094,-851968,91,-56,-1,-1,0
1523614187135,-851968,91,-56,-1,-1,0
1523614187135,-1114112,91,-56,-1,-1,0
1523614187135,-1114112,91,-56,-1,-1,0
1523614187135,-983040,91,-56,-1,-1,0
1523614187135,-851968,91,-56,-1,-1,0
1523614187174,-851968,91,-56,-1,-1,0
1523614187174,-786432,91,-56,-1,-1,0
1523614187174,-786432,91,-56,-1,-1,0
1523614187174,-851968,91,-56,-1,-1,0
1523614187174,-851968,91,-56,-1,-1,0
1523614187215,-851968,91,-56,-1,-1,0
1523614187215,-720896,91,-56,-1,-1,0
1523614187215,-655360,91,-56,-1,-1,0
1523614187215,-786432,91,-56,-1,-1,0
1523614187215,-1114112,91,-56,-1,-1,0
1523614187254,-1179648,91,-56,-1,-1,0
1523614187254,-983040,91,-56,-1,-1,0
1523614187254,-851968,91,-56,-1,-1,0
1523614187254,-1048576,91,-56,-1,-1,0
1523614187254,-1179648,91,-56,-1,-1,0
1523614187295,-1310720,91,-56,-1,-1,0
1523614187295,-1507328,91,-56,-1,-1,0
1523614187295,-1572864,91,-56,-1,-1,0
1523614187295,-1376256,91,-56,-1,-1,0
1523614187295,-1179648,91,-56,-1,-1,0
1523614187335,-1048576,91,-56,-1,-1,0
1523614187335,-983040,91,-56,-1,-1,0
1523614187335,-983040,91,-56,-1,-1,0
1523614187335,-1245184,91,-56,-1,-1,0
1523614187335,-1441792,91,-56,-1,-1,0
1523614187374,-1310720,91,-56,-1,-1,0
1523614187374,-1114112,91,-56,-1,-1,0
1523614187374,-1376256,91,-56,-1,-1,0
1523614187374,-1966080,91,-56,-1,-1,0
1523614187374,-1900544,91,-56,-1,-1,0
1523614187415,983040,91,-56,-1,-1,0
1523614187415,6684672,91,-56,-1,-1,0
1523614187415,9568256,91,-56,-1,-1,0
1523614187415,5242880,91,-56,-1,-1,0
1523614187415,-327680,91,-56,-1,-1,0
1523614187455,-1703936,91,-56,-1,-1,0
1523614187455,-1114112,91,-56,-1,-1,0
1523614187455,-655360,91,-56,-1,-1,0
1523614187455,-720896,91,-56,-1,-1,0
1523614187455,-1179648,91,-56,-1,-1,0
1523614187495,-1310720,91,-56,-1,-1,0
1523614187495,-917504,91,-56,-1,-1,0
1523614187495,-851968,91,-56,-1,-1,0
1523614187495,-786432,91,-56,-1,-1,0
1523614187495,-589824,91,-56,-1,-1,0
1523614187535,-458752,91,-56,-1,-1,0
1523614187535,-524288,91,-56,-1,-1,0
1523614187535,-458752,91,-56,-1,-1,0
1523614187535,-262144,91,-56,-1,-1,0
1523614187535,-65536,91,-56,-1,-1,0
1523614187575,0,91,-56,-1,-1,0
1523614187575,65536,91,-56,-1,-1,0
1523614187575,262144,91,-56,-1,-1,0
1523614187575,524288,91,-56,-1,-1,0
1523614187575,851968,91,-56,-1,-1,0
1523614187615,1179648,91,-56,-1,-1,0
1523614187615,1376256,91,-56,-1,-1,0
1523614187615,1703936,91,-56,-1,-1,0
1523614187615,2162688,91,-56,-1,-1,0
1523614187615,2424832,91,-56,-1,-1,0
1523614187655,2359296,91,-56,-1,-1,0
1523614187655,2359296,91,-56,-1,-1,0
1523614187655,2359296,91,-56,-1,-1,0
1523614187655,2097152,91,-56,-1,-1,0
1523614187655,1507328,91,-56,-1,-1,0
1523614187695,851968,91,-56,-1,-1,0
1523614187695,327680,91,-56,-1,-1,0
1523614187695,-65536,91,-56,-1,-1,0
1523614187695,-458752,91,-56,-1,-1,0
1523614187695,-589824,91,-56,-1,-1,0
1523614187735,-655360,91,-56,-1,-1,0
1523614187735,-720896,91,-56,-1,-1,0
1523614187735,-786432,91,-56,-1,-1,0
1523614187735,-917504,91,-56,-1,-1,0
1523614187735,-983040,91,-56,-1,-1,0
1523614187775,-851968,91,-56,-1,-1,0
1523614187775,-655360,91,-56,-1,-1,0
1523614187775,-589824,91,-56,-1,-1,0
1523614187775,-786432,91,-56,-1,-1,0
1523614187775,-917504,91,-56,-1,-1,0
1523614187815,-917504,91,-56,-1,-1,0
1523614187815,-851968,91,-56,-1,-1,0
1523614187815,-786432,91,-56,-1,-1,0
1523614187815,-655360,91,-56,-1,-1,0
1523614187815,-655360,91,-56,-1,-1,0
1523614187855,-589824,91,-56,-1,-1,0
1523614187855,-589824,91,-56,-1,-1,0
1523614187855,-720896,91,-56,-1,-1,0
1523614187855,-720896,91,-56,-1,-1,0
1523614187855,-589824,91,-56,-1,-1,0
1523614187895,-524288,91,-56,-1,-1,0
1523614187895,-458752,91,-56,-1,-1,0
1523614187895,-524288,91,-56,-1,-1,0
1523614187895,-786432,91,-56,-1,-1,0
1523614187895,-983040,91,-56,-1,-1,0
1523614187934,-851968,91,-56,-1,-1,0
1523614187934,-786432,91,-56,-1,-1,0
1523614187934,-851968,91,-56,-1,-1,0
1523614187934,-917504,91,-56,-1,-1,0
1523614187934,-786432,91,-56,-1,-1,0
1523614187975,-720896,91,-56,-1,-1,0
1523614187975,-720896,91,-56,-1,-1,0
1523614187975,-720896,91,-56,-1,-1,0
1523614187975,-655360,91,-56,-1,-1,0
1523614187975,-655360,91,-56,-1,-1,0
1523614188014,-786432,91,-56,-1,-1,0
1523614188014,-917504,91,-56,-1,-1,0
1523614188014,-917504,91,-56,-1,-1,0
1523614188014,-983040,91,-56,-1,-1,0
1523614188014,-1179648,91,-56,-1,-1,0
1523614188054,-1310720,91,-56,-1,-1,0
1523614188054,0,91,-56,-1,-1,0
1523614188054,4521984,91,-56,-1,-1,0
1523614188054,9633792,91,-56,-1,-1,0
1523614188054,8257536,91,-56,-1,-1,0
1523614188095,2752512,91,-56,-1,-1,0
1523614188095,-655360,91,-56,-1,-1,0
1523614188095,-524288,91,-56,-1,-1,0
1523614188095,-131072,91,-56,-1,-1,0
1523614188095,-131072,91,-56,-1,-1,0
1523614188135,-262144,91,-56,-1,-1,0
1523614188135,-393216,91,-56,-1,-1,0
1523614188135,-196608,91,-56,-1,-1,0
1523614188135,-196608,91,-56,-1,-1,0
1523614188135,-327680,91,-56,-1,-1,0
1523614188175,-393216,91,-56,-1,-1,0
1523614188175,-131072,91,-56,-1,-1,0
1523614188175,0,91,-56,-1,-1,0
1523614188175,262144,91,-56,-1,-1,0
1523614188175,327680,91,-56,-1,-1,0
1523614188215,131072,91,-56,-1,-1,0
1523614188215,65536,91,-56,-1,-1,0
1523614188215,393216,91,-56,-1,-1,0
1523614188215,655360,91,-56,-1,-1,0
1523614188215,786432,91,-56,-1,-1,0
1523614188255,1048576,91,-56,-1,-1,0
1523614188255,1441792,91,-56,-1,-1,0
1523614188255,1769472,91,-56,-1,-1,0
1523614188255,2031616,91,-56,-1,-1,0
1523614188255,2424832,91,-56,-1,-1,0
1523614188295,2752512,91,-56,-1,-1,0
1523614188295,2818048,91,-56,-1,-1,0
1523614188295,2818048,91,-56,-1,-1,0
1523614188295,2818048,91,-56,-1,-1,0
1523614188295,2621440,91,-56,-1,-1,0
1523614188335,2097152,91,-56,-1,-1,0
1523614188335,1376256,91,-56,-1,-1,0
1523614188335,786432,91,-56,-1,-1,0
1523614188335,393216,91,-56,-1,-1,0
1523614188335,327680,91,-56,-1,-1,0
1523614188375,0,91,-56,-1,-1,0
1523614188375,-393216,91,-56,-1,-1,0
1523614188375,-589824,91,-56,-1,-1,0
1523614188375,-589824,91,-56,-1,-1,0
1523614188375,-655360,91,-56,-1,-1,0
1523614188415,-589824,91,-56,-1,-1,0
1523614188415,-589824,91,-56,-1,-1,0
1523614188415,-720896,91,-56,-1,-1,0
1523614188415,-786432,91,-56,-1,-1,0
1523614188415,-655360,91,-56,-1,-1,0
1523614188455,-720896,91,-56,-1,-1,0
1523614188455,-720896,91,-56,-1,-1,0
1523614188455,-655360,91,-56,-1,-1,0
1523614188455,-655360,91,-56,-1,-1,0
1523614188455,-655360,91,-56,-1,-1,0
1523614188495,-720896,91,-56,-1,-1,0
1523614188495,-983040,91,-56,-1,-1,0
1523614188495,-917504,91,-56,-1,-1,0
1523614188495,-720896,91,-56,-1,-1,0
1523614188495,-524288,91,-56,-1,-1,0
1523614188535,-720896,91,-56,-1,-1,0
1523614188535,-917504,91,-56,-1,-1,0
1523614188535,-917504,91,-56,-1,-1,0
1523614188535,-917504,91,-56,-1,-1,0
1523614188535,-1048576,91,-56,-1,-1,0
1523614188575,-1048576,91,-56,-1,-1,0
1523614188575,-983040,91,-56,-1,-1,0
1523614188575,-983040,91,-56,-1,-1,0
1523614188575,-983040,91,-56,-1,-1,0
1523614188575,-1048576,91,-56,-1,-1,0
1523614188615,-1114112,91,-56,-1,-1,0
1523614188615,-1114112,91,-56,-1,-1,0
1523614188615,-1048576,91,-56,-1,-1,0
1523614188615,-786432,91,-56,-1,-1,0
1523614188615,-786432,91,-56,-1,-1,0
1523614188654,-983040,91,-56,-1,-1,0
1523614188654,-1245184,91,-56,-1,-1,0
1523614188654,-1310720,91,-56,-1,-1,0
1523614188654,-1310720,91,-56,-1,-1,0
1523614188654,-1310720,91,-56,-1,-1,0
1523614188694,-1179648,91,-56,-1,-1,0
1523614188694,-1441792,91,-56,-1,-1,0
1523614188694,-1441792,91,-56,-1,-1,0
1523614188694,65536,91,-56,-1,-1,0
1523614188694,5046272,91,-56,-1,-1,0
1523614188734,9830400,91,-56,-1,-1,0
1523614188734,7798784,91,-56,-1,-1,0
1523614188734,1966080,91,-56,-1,-1,0
1523614188734,-917504,91,-56,-1,-1,0
1523614188734,-655360,91,-56,-1,-1,0
1523614188774,-589824,91,-56,-1,-1,0
1523614188774,-655360,91,-56,-1,-1,0
1523614188774,-458752,91,-56,-1,-1,0
1523614188774,-589824,91,-56,-1,-1,0
1523614188774,-655360,91,-56,-1,-1,0
1523614188814,-655360,91,-56,-1,-1,0
1523614188814,-524288,91,-56,-1,-1,0
1523614188814,-458752,91,-56,-1,-1,0
1523614188814,-393216,91,-56,-1,-1,0
1523614188814,-262144,91,-56,-1,-1,0
1523614188854,-131072,91,-56,-1,-1,0
1523614188854,-65536,91,-56,-1,-1,0
1523614188854,0,91,-56,-1,-1,0
1523614188854,0,91,-56,-1,-1,0
1523614188854,196608,91,-56,-1,-1,0
1523614188894,458752,91,-56,-1,-1,0
1523614188894,655360,91,-56,-1,-1,0
1523614188894,917504,91,-56,-1,-1,0
1523614188894,1310720,91,-56,-1,-1,0
1523614188894,1703936,91,-56,-1,-1,0
1523614188934,2031616,91,-56,-1,-1,0
1523614188934,2293760,91,-56,-1,-1,0
1523614188934,2555904,91,-56,-1,-1,0
1523614188934,2752512,91,-56,-1,-1,0
1523614188934,2949120,91,-56,-1,-1,0
1523614188975,2949120,91,-56,-1,-1,0
1523614188975,2490368,91,-56,-1,-1,0
1523614188975,1769472,91,-56,-1,-1,0
1523614188975,1048576,91,-56,-1,-1,0
1523614188975,589824,91,-56,-1,-1,0
1523614189014,131072,91,-56,-1,-1,0
1523614189014,-131072,91,-56,-1,-1,0
1523614189014,-458752,91,-56,-1,-1,0
1523614189014,-589824,91,-56,-1,-1,0
1523614189014,-655360,91,-56,-1,-1,0
1523614189056,-589824,91,-56,-1,-1,0
1523614189056,-720896,91,-56,-1,-1,0
1523614189056,-851968,91,-56,-1,-1,0
1523614189056,-983040,91,-56,-1,-1,0
1523614189056,-983040,91,-56,-1,-1,0
1523614189094,-1048576,91,-56,-1,-1,0
1523614189094,-983040,91,-56,-1,-1,0
1523614189094,-851968,91,-56,-1,-1,0
1523614189094,-786432,91,-56,-1,-1,0
1523614189094,-851968,91,-56,-1,-1,0
1523614189134,-851968,91,-56,-1,-1,0
1523614189134,-917504,91,-56,-1,-1,0
1523614189134,-983040,91,-56,-1,-1,0
1523614189134,-983040,91,-56,-1,-1,0
1523614189134,-1048576,91,-56,-1,-1,0
1523614189174,-1114112,91,-56,-1,-1,0
1523614189174,-983040,91,-56,-1,-1,0
1523614189174,-786432,91,-56,-1,-1,0
1523614189174,-851968,91,-56,-1,-1,0
1523614189174,-983040,91,-56,-1,-1,0
1523614189214,-851968,91,-56,-1,-1,0
1523614189214,-786432,91,-56,-1,-1,0
1523614189214,-983040,91,-56,-1,-1,0
1523614189214,-1245184,91,-56,-1,-1,0
1523614189214,-1245184,91,-56,-1,-1,0
1523614189254,-1179648,91,-56,-1,-1,0
1523614189254,-1310720,91,-56,-1,-1,0
1523614189254,-1310720,91,-56,-1,-1,0
1523614189254,-1114112,91,-56,-1,-1,0
1523614189254,-851968,91,-56,-1,-1,0
1523614189294,-917504,91,-56,-1,-1,0
1523614189294,-1114112,91,-56,-1,-1,0
1523614189294,-1245184,91,-56,-1,-1,0
1523614189294,-1310720,91,-56,-1,-1,0
1523614189294,-1310720,91,-56,-1,-1,0
1523614189334,-1310720,91,-56,-1,-1,0
1523614189334,-1245184,91,-56,-1,-1,0
1523614189334,-1507328,91,-56,-1,-1,0
1523614189334,-1900544,91,-56,-1,-1,0
1523614189334,-720896,91,-56,-1,-1,0
1523614189374,3997696,91,-56,-1,-1,0
1523614189374,8978432,91,-56,-1,-1,0
1523614189374,7077888,91,-56,-1,-1,0
1523614189374,1376256,91,-56,-1,-1,0
1523614189374,-1441792,91,-56,-1,-1,0
1523614189416,-983040,91,-56,-1,-1,0
1523614189416,-720896,91,-56,-1,-1,0
1523614189416,-917504,91,-56,-1,-1,0
1523614189416,-983040,91,-56,-1,-1,0
1523614189416,-917504,91,-56,-1,-1,0
1523614189454,-655360,91,-56,-1,-1,0
1523614189454,-589824,91,-56,-1,-1,0
1523614189454,-655360,91,-56,-1,-1,0
1523614189454,-720896,91,-56,-1,-1,0
1523614189454,-655360,91,-56,-1,-1,0
1523614189494,-720896,91,-56,-1,-1,0
1523614189494,-589824,91,-56,-1,-1,0
1523614189494,-393216,91,-56,-1,-1,0
1523614189494,-262144,91,-56,-1,-1,0
1523614189494,-196608,91,-56,-1,-1,0
1523614189534,0,91,-56,-1,-1,0
1523614189534,196608,91,-56,-1,-1,0
1523614189534,327680,91,-56,-1,-1,0
1523614189534,524288,91,-56,-1,-1,0
1523614189534,720896,91,-56,-1,-1,0
1523614189574,1048576,91,-56,-1,-1,0
1523614189574,1572864,91,-56,-1,-1,0
1523614189574,2031616,91,-56,-1,-1,0
1523614189574,2228224,91,-56,-1,-1,0
1523614189574,2424832,91,-56,-1,-1,0
1523614189614,2424832,91,-56,-1,-1,0
1523614189614,2359296,91,-56,-1,-1,0
1523614189614,2031616,91,-56,-1,-1,0
1523614189614,1507328,91,-56,-1,-1,0
1523614189614,786432,91,-56,-1,-1,0
1523614189654,262144,91,-56,-1,-1,0
1523614189654,0,91,-56,-1,-1,0
1523614189654,-196608,91,-56,-1,-1,0
1523614189654,-589824,91,-56,-1,-1,0
1523614189654,-917504,91,-56,-1,-1,0
1523614189696,-983040,91,-56,-1,-1,0
1523614189696,-917504,91,-56,-1,-1,0
1523614189696,-851968,91,-56,-1,-1,0
1523614189696,-851968,91,-56,-1,-1,0
1523614189696,-720896,91,-56,-1,-1,0
1523614189734,-720896,91,-56,-1,-1,0
1523614189734,-983040,91,-56,-1,-1,0
1523614189734,-1245184,91,-56,-1,-1,0
1523614189734,-1179648,91,-56,-1,-1,0
1523614189734,-983040,91,-56,-1,-1,0
1523614189774,-786432,91,-56,-1,-1,0
1523614189774,-720896,91,-56,-1,-1,0
1523614189774,-786432,91,-56,-1,-1,0
1523614189774,-786432,91,-56,-1,-1,0
1523614189774,-655360,91,-56,-1,-1,0
1523614189814,-458752,91,-56,-1,-1,0
1523614189814,-393216,91,-56,-1,-1,0
1523614189814,-458752,91,-56,-1,-1,0
1523614189814,-589824,91,-56,-1,-1,0
1523614189814,-786432,91,-56,-1,-1,0
1523614189854,-1114112,91,-56,-1,-1,0
1523614189854,-1114112,91,-56,-1,-1,0
1523614189854,-917504,91,-56,-1,-1,0
1523614189854,-786432,91,-56,-1,-1,0
1523614189854,-851968,91,-56,-1,-1,0
1523614189894,-917504,91,-56,-1,-1,0
1523614189894,-917504,91,-56,-1,-1,0
1523614189894,-851968,91,-56,-1,-1,0
1523614189894,-917504,91,-56,-1,-1,0
1523614189894,-851968,91,-56,-1,-1,0
1523614189934,-655360,91,-56,-1,-1,0
1523614189934,-786432,91,-56,-1,-1,0
1523614189934,-1114112,91,-56,-1,-1,0
1523614189934,-1179648,91,-56,-1,-1,0
1523614189934,-1114112,91,-56,-1,-1,0
1523614189974,-983040,91,-56,-1,-1,0
1523614189974,-917504,91,-56,-1,-1,0
1523614189974,-983040,91,-56,-1,-1,0
1523614189974,-1179648,91,-56,-1,-1,0
1523614189974,-1441792,91,-56,-1,-1,0
1523614190014,-524288,91,-56,-1,-1,0
1523614190014,3538944,91,-56,-1,-1,0
1523614190014,8912896,91,-56,-1,-1,0
1523614190014,8519680,91,-56,-1,-1,0
1523614190014,3211264,91,-56,-1,-1,0
1523614190054,-589824,91,-56,-1,-1,0
1523614190054,-524288,91,-56,-1,-1,0
1523614190054,-196608,91,-56,-1,-1,0
1523614190054,-458752,91,-56,-1,-1,0
1523614190054,-720896,91,-56,-1,-1,0
1523614190094,-655360,91,-56,-1,-1,0
1523614190094,-393216,91,-56,-1,-1,0
1523614190094,-262144,91,-56,-1,-1,0
1523614190094,-196608,91,-56,-1,-1,0
1523614190094,-131072,91,-56,-1,-1,0
1523614190134,-65536,91,-56,-1,-1,0
1523614190134,-65536,91,-56,-1,-1,0
1523614190134,-65536,91,-56,-1,-1,0
1523614190134,0,91,-56,-1,-1,0
1523614190134,0,91,-56,-1,-1,0
1523614190174,131072,91,-56,-1,-1,0
1523614190174,327680,91,-56,-1,-1,0
1523614190174,655360,91,-56,-1,-1,0
1523614190174,786432,91,-56,-1,-1,0
1523614190174,983040,91,-56,-1,-1,0
1523614190214,1245184,91,-56,-1,-1,0
1523614190214,1638400,91,-56,-1,-1,0
1523614190214,2031616,91,-56,-1,-1,0
1523614190214,2293760,91,-56,-1,-1,0
1523614190214,2490368,91,-56,-1,-1,0
1523614190254,2686976,91,-56,-1,-1,0
1523614190254,2818048,91,-56,-1,-1,0
1523614190254,2686976,91,-56,-1,-1,0
1523614190254,2359296,91,-56,-1,-1,0
1523614190254,1638400,91,-56,-1,-1,0
1523614190294,1179648,91,-56,-1,-1,0
1523614190294,786432,91,-56,-1,-1,0
1523614190294,262144,91,-56,-1,-1,0
1523614190294,0,91,-56,-1,-1,0
1523614190294,-65536,91,-56,-1,-1,0
1523614190336,-393216,91,-56,-1,-1,0
1523614190336,-786432,91,-56,-1,-1,0
1523614190336,-851968,91,-56,-1,-1,0
1523614190336,-720896,91,-56,-1,-1,0
1523614190336,-655360,91,-56,-1,-1,0
1523614190374,-851968,91,-56,-1,-1,0
1523614190374,-1048576,91,-56,-1,-1,0
1523614190374,-983040,91,-56,-1,-1,0
1523614190374,-917504,91,-56,-1,-1,0
1523614190374,-851968,91,-56,-1,-1,0
1523614190414,-786432,91,-56,-1,-1,0
1523614190414,-917504,91,-56,-1,-1,0
1523614190414,-1048576,91,-56,-1,-1,0
1523614190414,-1048576,91,-56,-1,-1,0
1523614190414,-851968,91,-56,-1,-1,0
1523614190454,-851968,91,-56,-1,-1,0
1523614190454,-851968,91,-56,-1,-1,0
1523614190454,-917504,91,-56,-1,-1,0
1523614190454,-851968,91,-56,-1,-1,0
1523614190454,-851968,91,-56,-1,-1,0
1523614190494,-983040,91,-56,-1,-1,0
1523614190494,-983040,91,-56,-1,-1,0
1523614190494,-917504,91,-56,-1,-1,0
1523614190494,-851968,91,-56,-1,-1,0
1523614190494,-983040,91,-56,-1,-1,0
1523614190534,-1245184,91,-56,-1,-1,0
1523614190534,-1114112,91,-56,-1,-1,0
1523614190534,-983040,91,-56,-1,-1,0
1523614190534,-917504,91,-56,-1,-1,0
1523614190534,-851968,91,-56,-1,-1,0
1523614190574,-983040,91,-56,-1,-1,0
1523614190574,-1114112,91,-56,-1,-1,0
1523614190574,-1179648,91,-56,-1,-1,0
1523614190574,-1245184,91,-56,-1,-1,0
1523614190574,-1310720,91,-56,-1,-1,0
1523614190614,-1179648,91,-56,-1,-1,0
1523614190614,-1114112,91,-56,-1,-1,0
1523614190614,-1048576,91,-56,-1,-1,0
1523614190614,-1245184,91,-56,-1,-1,0
1523614190614,-1572864,91,-56,-1,-1,0
1523614190654,-1638400,91,-56,-1,-1,0
1523614190654,458752,91,-56,-1,-1,0
1523614190654,5832704,91,-56,-1,-1,0
1523614190654,10027008,91,-56,-1,-1,0
1523614190654,6815744,91,-56,-1,-1,0
1523614190694,917504,91,-56,-1,-1,0
1523614190694,-1245184,91,-56,-1,-1,0
1523614190694,-786432,91,-56,-1,-1,0
1523614190694,-720896,91,-56,-1,-1,0
1523614190694,-917504,91,-56,-1,-1,0
1523614190734,-851968,91,-56,-1,-1,0
1523614190734,-786432,91,-56,-1,-1,0
1523614190734,-655360,91,-56,-1,-1,0
1523614190734,-655360,91,-56,-1,-1,0
1523614190734,-524288,91,-56,-1,-1,0
1523614190774,-393216,91,-56,-1,-1,0
1523614190774,-327680,91,-56,-1,-1,0
1523614190774,-458752,91,-56,-1,-1,0
1523614190774,-327680,91,-56,-1,-1,0
1523614190774,-196608,91,-56,-1,-1,0
1523614190814,-131072,91,-56,-1,-1,0
1523614190814,-131072,91,-56,-1,-1,0
1523614190814,131072,91,-56,-1,-1,0
1523614190814,524288,91,-56,-1,-1,0
1523614190814,589824,91,-56,-1,-1,0
1523614190854,786432,91,-56,-1,-1,0
1523614190854,1114112,91,-56,-1,-1,0
1523614190854,1507328,91,-56,-1,-1,0
1523614190854,1900544,91,-56,-1,-1,0
1523614190854,2162688,91,-56,-1,-1,0
1523614190894,2293760,91,-56,-1,-1,0
1523614190894,2293760,91,-56,-1,-1,0
1523614190894,2293760,91,-56,-1,-1,0
1523614190894,2097152,91,-56,-1,-1,0
1523614190894,1835008,91,-56,-1,-1,0
1523614190934,1441792,91,-56,-1,-1,0
1523614190934,983040,91,-56,-1,-1,0
1523614190934,393216,91,-56,-1,-1,0
1523614190934,0,91,-56,-1,-1,0
1523614190934,-262144,91,-56,-1,-1,0
1523614190976,-524288,91,-56,-1,-1,0
1523614190976,-655360,91,-56,-1,-1,0
1523614190976,-720896,91,-56,-1,-1,0
1523614190976,-851968,91,-56,-1,-1,0
1523614190976,-917504,91,-56,-1,-1,0
1523614191014,-851968,91,-56,-1,-1,0
1523614191014,-851968,91,-56,-1,-1,0
1523614191014,-917504,91,-56,-1,-1,0
1523614191014,-851968,91,-56,-1,-1,0
1523614191014,-851968,91,-56,-1,-1,0
1523614191054,-917504,91,-56,-1,-1,0
1523614191054,-983040,91,-56,-1,-1,0
1523614191054,-983040,91,-56,-1,-1,0
1523614191054,-917504,91,-56,-1,-1,0
1523614191054,-786432,91,-56,-1,-1,0
1523614191094,-786432,91,-56,-1,-1,0
1523614191094,-655360,91,-56,-1,-1,0
1523614191094,-720896,91,-56,-1,-1,0
1523614191094,-786432,91,-56,-1,-1,0
1523614191094,-786432,91,-56,-1,-1,0
1523614191134,-851968,91,-56,-1,-1,0
1523614191134,-983040,91,-56,-1,-1,0
1523614191134,-851968,91,-56,-1,-1,0
1523614191134,-786432,91,-56,-1,-1,0
1523614191134,-851968,91,-56,-1,-1,0
1523614191174,-851968,91,-56,-1,-1,0
1523614191174,-786432,91,-56,-1,-1,0
1523614191174,-786432,91,-56,-1,-1,0
1523614191174,-917504,91,-56,-1,-1,0
1523614191174,-1048576,91,-56,-1,-1,0
1523614191214,-1245184,91,-56,-1,-1,0
1523614191214,-1114112,91,-56,-1,-1,0
1523614191214,-917504,91,-56,-1,-1,0
1523614191214,-851968,91,-56,-1,-1,0
1523614191214,-983040,91,-56,-1,-1,0
1523614191254,-1048576,91,-56,-1,-1,0
1523614191254,-1048576,91,-56,-1,-1,0
1523614191254,-1048576,91,-56,-1,-1,0
1523614191254,-1114112,91,-56,-1,-1,0
1523614191254,-1114112,91,-56,-1,-1,0
1523614191294,-1114112,91,-56,-1,-1,0
1523614191294,-1507328,91,-56,-1,-1,0
1523614191294,-1376256,91,-56,-1,-1,0
1523614191294,1114112,91,-56,-1,-1,0
1523614191294,6750208,91,-56,-1,-1,0
1523614191334,10354688,91,-56,-1,-1,0
1523614191334,6684672,91,-56,-1,-1,0
1523614191334,917504,91,-56,-1,-1,0
1523614191334,-1114112,91,-56,-1,-1,0
1523614191334,-720896,91,-56,-1,-1,0
1523614191374,-589824,91,-56,-1,-1,0
1523614191374,-655360,91,-56,-1,-1,0
1523614191374,-720896,91,-56,-1,-1,0
1523614191374,-786432,91,-56,-1,-1,0
1523614191374,-851968,91,-56,-1,-1,0
1523614191414,-1048576,91,-56,-1,-1,0
1523614191414,-786432,91,-56,-1,-1,0
1523614191414,-524288,91,-56,-1,-1,0
1523614191414,-524288,91,-56,-1,-1,0
1523614191414,-589824,91,-56,-1,-1,0
1523614191454,-458752,91,-56,-1,-1,0
1523614191454,-393216,91,-56,-1,-1,0
1523614191454,-393216,91,-56,-1,-1,0
1523614191454,-327680,91,-56,-1,-1,0
1523614191454,-131072,91,-56,-1,-1,0
1523614191494,0,91,-56,-1,-1,0
1523614191494,131072,91,-56,-1,-1,0
1523614191494,524288,91,-56,-1,-1,0
1523614191494,851968,91,-56,-1,-1,0
1523614191494,1114112,91,-56,-1,-1,0
1523614191534,1245184,91,-56,-1,-1,0
1523614191534,1376256,91,-56,-1,-1,0
1523614191534,1310720,91,-56,-1,-1,0
1523614191534,1507328,91,-56,-1,-1,0
1523614191534,1835008,91,-56,-1,-1,0
1523614191574,1900544,91,-56,-1,-1,0
1523614191574,1441792,91,-56,-1,-1,0
1523614191574,786432,91,-56,-1,-1,0
1523614191574,65536,91,-56,-1,-1,0
1523614191574,-524288,91,-56,-1,-1,0
1523614191616,-1048576,91,-56,-1,-1,0
1523614191616,-1310720,91,-56,-1,-1,0
1523614191616,-1507328,91,-56,-1,-1,0
1523614191616,-1507328,91,-56,-1,-1,0
1523614191616,-1441792,91,-56,-1,-1,0
1523614191654,-1572864,91,-56,-1,-1,0
1523614191654,-1703936,91,-56,-1,-1,0
1523614191654,-1769472,91,-56,-1,-1,0
1523614191654,-1572864,91,-56,-1,-1,0
1523614191654,-1441792,91,-56,-1,-1,0
1523614191694,-1572864,91,-56,-1,-1,0
1523614191694,-1703936,91,-56,-1,-1,0
1523614191694,-1703936,91,-56,-1,-1,0
1523614191694,-1638400,91,-56,-1,-1,0
1523614191694,-1638400,91,-56,-1,-1,0
1523614191734,-1572864,91,-56,-1,-1,0
1523614191734,-1572864,91,-56,-1,-1,0
1523614191734,-1507328,91,-56,-1,-1,0
1523614191734,-1376256,91,-56,-1,-1,0
1523614191734,-1114112,91,-56,-1,-1,0
1523614191774,-1048576,91,-56,-1,-1,0
1523614191774,-1114112,91,-56,-1,-1,0
1523614191774,-1114112,91,-56,-1,-1,0
1523614191774,-1310720,91,-56,-1,-1,0
1523614191774,-1507328,91,-56,-1,-1,0
1523614191814,-1638400,91,-56,-1,-1,0
1523614191814,-1376256,91,-56,-1,-1,0
1523614191814,-1114112,91,-56,-1,-1,0
1523614191814,-983040,91,-56,-1,-1,0
1523614191814,-1114112,91,-56,-1,-1,0
1523614191854,-1114112,91,-56,-1,-1,0
1523614191854,-1114112,91,-56,-1,-1,0
1523614191854,-983040,91,-56,-1,-1,0
1523614191854,-917504,91,-56,-1,-1,0
1523614191854,-983040,91,-56,-1,-1,0
1523614191894,-1048576,91,-56,-1,-1,0
1523614191894,-1179648,91,-56,-1,-1,0
1523614191894,-1179648,91,-56,-1,-1,0
1523614191894,-786432,91,-56,-1,-1,0
1523614191894,-786432,91,-56,-1,-1,0
1523614191934,-1310720,91,-56,-1,-1,0
1523614191934,-1507328,91,-56,-1,-1,0
1523614191934,-131072,91,-56,-1,-1,0
1523614191934,4325376,91,-56,-1,-1,0
1523614191934,9699328,91,-56,-1,-1,0
1523614191974,8716288,91,-56,-1,-1,0
1523614191974,3014656,91,-56,-1,-1,0
1523614191974,-589824,91,-56,-1,-1,0
1523614191974,-262144,91,-56,-1,-1,0
1523614191974,0,91,-56,-1,-1,0
1523614192014,-262144,91,-56,-1,-1,0
1523614192014,-524288,91,-56,-1,-1,0
1523614192014,-524288,91,-56,-1,-1,0
1523614192014,-131072,91,-56,-1,-1,0
1523614192014,0,91,-56,-1,-1,0
1523614192054,65536,91,-56,-1,-1,0
1523614192054,393216,91,-56,-1,-1,0
1523614192054,720896,91,-56,-1,-1,0
1523614192054,458752,91,-56,-1,-1,0
1523614192054,196608,91,-56,-1,-1,0
1523614192094,196608,91,-56,-1,-1,0
1523614192094,262144,91,-56,-1,-1,0
1523614192094,524288,91,-56,-1,-1,0
1523614192094,983040,91,-56,-1,-1,0
1523614192094,1441792,91,-56,-1,-1,0
1523614192134,1441792,91,-56,-1,-1,0
1523614192134,1245184,91,-56,-1,-1,0
1523614192134,1376256,91,-56,-1,-1,0
1523614192134,2031616,91,-56,-1,-1,0
1523614192134,2228224,91,-56,-1,-1,0
1523614192174,2359296,91,-56,-1,-1,0
1523614192174,2359296,91,-56,-1,-1,0
1523614192174,2621440,91,-56,-1,-1,0
1523614192174,2752512,91,-56,-1,-1,0
1523614192174,2686976,91,-56,-1,-1,0
1523614192214,2359296,91,-56,-1,-1,0
1523614192214,1966080,91,-56,-1,-1,0
1523614192214,1572864,91,-56,-1,-1,0
1523614192214,1114112,91,-56,-1,-1,0
1523614192214,851968,91,-56,-1,-1,0
1523614192256,720896,91,-56,-1,-1,0
1523614192256,327680,91,-56,-1,-1,0
1523614192256,0,91,-56,-1,-1,0
1523614192256,-131072,91,-56,-1,-1,0
1523614192256,-196608,91,-56,-1,-1,0
1523614192294,-131072,91,-56,-1,-1,0
1523614192294,-131072,91,-56,-1,-1,0
1523614192294,-327680,91,-56,-1,-1,0
1523614192294,-327680,91,-56,-1,-1,0
1523614192294,-262144,91,-56,-1,-1,0
1523614192334,-196608,91,-56,-1,-1,0
1523614192334,-262144,91,-56,-1,-1,0
1523614192334,-262144,91,-56,-1,-1,0
1523614192334,-196608,91,-56,-1,-1,0
1523614192334,-65536,91,-56,-1,-1,0
1523614192374,0,91,-56,-1,-1,0
1523614192374,-262144,91,-56,-1,-1,0
1523614192374,-393216,91,-56,-1,-1,0
1523614192374,-262144,91,-56,-1,-1,0
1523614192374,-262144,91,-56,-1,-1,0
1523614192414,-393216,91,-56,-1,-1,0
1523614192414,-589824,91,-56,-1,-1,0
1523614192414,-720896,91,-56,-1,-1,0
1523614192414,-589824,91,-56,-1,-1,0
1523614192414,-458752,91,-56,-1,-1,0
1523614192454,-589824,91,-56,-1,-1,0
1523614192454,-786432,91,-56,-1,-1,0
1523614192454,-917504,91,-56,-1,-1,0
1523614192454,-983040,91,-56,-1,-1,0
1523614192454,-1114112,91,-56,-1,-1,0
1523614192494,-1048576,92,-56,-1,-1,0
1523614192494,-1245184,92,-56,-1,-1,0
1523614192494,-1441792,92,-56,-1,-1,0
1523614192494,-1245184,92,-56,-1,-1,0
1523614192494,-983040,92,-56,-1,-1,0
1523614192534,-1114112,92,-56,-1,-1,0
1523614192534,-1310720,92,-56,-1,-1,0
1523614192534,-1245184,92,-56,-1,-1,0
1523614192534,-1179648,92,-56,-1,-1,0
1523614192534,-1245184,92,-56,-1,-1,0
1523614192574,-1441792,92,-56,-1,-1,0
1523614192574,-1703936,92,-56,-1,-1,0
1523614192574,-1769472,92,-56,-1,-1,0
1523614192574,-327680,92,-56,-1,-1,0
1523614192574,4063232,92,-56,-1,-1,0
1523614192614,8650752,92,-56,-1,-1,0
1523614192614,7077888,92,-56,-1,-1,0
1523614192614,1835008,92,-56,-1,-1,0
1523614192614,-1048576,92,-56,-1,-1,0
1523614192614,-851968,92,-56,-1,-1,0
1523614192654,-655360,92,-56,-1,-1,0
1523614192654,-655360,92,-56,-1,-1,0
1523614192654,-720896,92,-56,-1,-1,0
1523614192654,-983040,92,-56,-1,-1,0
1523614192654,-851968,92,-56,-1,-1,0
1523614192694,-655360,92,-56,-1,-1,0
1523614192694,-589824,92,-56,-1,-1,0
1523614192694,-655360,92,-56,-1,-1,0
1523614192694,-589824,92,-56,-1,-1,0
1523614192694,-655360,92,-56,-1,-1,0
1523614192734,-524288,92,-56,-1,-1,0
1523614192734,-196608,92,-56,-1,-1,0
1523614192734,196608,92,-56,-1,-1,0
1523614192734,262144,92,-56,-1,-1,0
1523614192734,65536,92,-56,-1,-1,0
1523614192774,393216,92,-56,-1,-1,0
1523614192774,786432,92,-56,-1,-1,0
1523614192774,983040,92,-56,-1,-1,0
1523614192774,1114112,92,-56,-1,-1,0
1523614192774,1507328,92,-56,-1,-1,0
1523614192814,1900544,92,-56,-1,-1,0
1523614192814,2293760,92,-56,-1,-1,0
1523614192814,2555904,92,-56,-1,-1,0
1523614192814,2752512,92,-56,-1,-1,0
1523614192814,2752512,92,-56,-1,-1,0
1523614192854,2490368,92,-56,-1,-1,0
1523614192854,2293760,92,-56,-1,-1,0
1523614192854,1966080,92,-56,-1,-1,0
1523614192854,1310720,92,-56,-1,-1,0
1523614192854,786432,92,-56,-1,-1,0
1523614192895,327680,92,-56,-1,-1,0
1523614192895,0,92,-56,-1,-1,0
1523614192895,-262144,92,-56,-1,-1,0
1523614192895,-327680,92,-56,-1,-1,0
1523614192895,-393216,92,-56,-1,-1,0
1523614192934,-655360,92,-56,-1,-1,0
1523614192934,-851968,92,-56,-1,-1,0
1523614192934,-917504,92,-56,-1,-1,0
1523614192934,-917504,92,-56,-1,-1,0
1523614192934,-917504,92,-56,-1,-1,0
1523614192974,-917504,92,-56,-1,-1,0
1523614192974,-851968,92,-56,-1,-1,0
1523614192974,-851968,92,-56,-1,-1,0
1523614192974,-917504,92,-56,-1,-1,0
1523614192974,-851968,92,-56,-1,-1,0
1523614193014,-851968,92,-56,-1,-1,0
1523614193014,-983040,92,-56,-1,-1,0
1523614193014,-983040,92,-56,-1,-1,0
1523614193014,-917504,92,-56,-1,-1,0
1523614193014,-917504,92,-56,-1,-1,0
1523614193054,-1048576,92,-56,-1,-1,0
1523614193054,-1114112,92,-56,-1,-1,0
1523614193054,-983040,92,-56,-1,-1,0
1523614193054,-917504,92,-56,-1,-1,0
1523614193054,-983040,92,-56,-1,-1,0
1523614193094,-1114112,92,-56,-1,-1,0
1523614193094,-1114112,92,-56,-1,-1,0
1523614193094,-1179648,92,-56,-1,-1,0
1523614193094,-1048576,92,-56,-1,-1,0
1523614193094,-1048576,92,-56,-1,-1,0
1523614193134,-983040,92,-56,-1,-1,0
1523614193134,-1114112,92,-56,-1,-1,0
1523614193134,-1114112,92,-56,-1,-1,0
1523614193134,-1179648,92,-56,-1,-1,0
1523614193134,-1179648,92,-56,-1,-1,0
1523614193174,-983040,92,-56,-1,-1,0
1523614193174,-851968,92,-56,-1,-1,0
1523614193174,-1114112,92,-56,-1,-1,0
1523614193174,-1376256,92,-56,-1,-1,0
1523614193174,-1376256,92,-56,-1,-1,0
1523614193214,-851968,92,-56,-1,-1,0
1523614193214,2162688,92,-56,-1,-1,0
1523614193214,7340032,92,-56,-1,-1,0
1523614193214,9043968,92,-56,-1,-1,0
1523614193214,4587520,92,-56,-1,-1,0
1523614193254,-262144,92,-56,-1,-1,0
1523614193254,-917504,92,-56,-1,-1,0
1523614193254,-458752,92,-56,-1,-1,0
1523614193254,-393216,92,-56,-1,-1,0
1523614193254,-589824,92,-56,-1,-1,0
1523614193294,-655360,92,-56,-1,-1,0
1523614193294,-655360,92,-56,-1,-1,0
1523614193294,-524288,92,-56,-1,-1,0
1523614193294,-458752,92,-56,-1,-1,0
1523614193294,-458752,92,-56,-1,-1,0
1523614193334,-458752,92,-56,-1,-1,0
1523614193334,-262144,92,-56,-1,-1,0
1523614193334,0,92,-56,-1,-1,0
1523614193334,65536,92,-56,-1,-1,0
1523614193334,65536,92,-56,-1,-1,0
1523614193374,0,92,-56,-1,-1,0
1523614193374,65536,92,-56,-1,-1,0
1523614193374,262144,92,-56,-1,-1,0
1523614193374,458752,92,-56,-1,-1,0
1523614193374,720896,92,-56,-1,-1,0
1523614193414,1048576,92,-56,-1,-1,0
1523614193414,1376256,92,-56,-1,-1,0
1523614193414,1572864,92,-56,-1,-1,0
1523614193414,1835008,92,-56,-1,-1,0
1523614193414,2031616,92,-56,-1,-1,0
1523614193454,2097152,92,-56,-1,-1,0
1523614193454,1966080,92,-56,-1,-1,0
1523614193454,1900544,92,-56,-1,-1,0
1523614193454,1638400,92,-56,-1,-1,0
1523614193454,1245184,92,-56,-1,-1,0
1523614193494,720896,92,-56,-1,-1,0
1523614193494,196608,92,-56,-1,-1,0
1523614193494,-65536,92,-56,-1,-1,0
1523614193494,-262144,92,-56,-1,-1,0
1523614193494,-458752,92,-56,-1,-1,0
1523614193535,-655360,92,-56,-1,-1,0
1523614193535,-851968,92,-56,-1,-1,0
1523614193535,-1048576,92,-56,-1,-1,0
1523614193535,-1048576,92,-56,-1,-1,0
1523614193535,-1048576,92,-56,-1,-1,0
1523614193574,-1114112,92,-56,-1,-1,0
1523614193574,-1179648,92,-56,-1,-1,0
1523614193574,-1048576,92,-56,-1,-1,0
1523614193574,-917504,92,-56,-1,-1,0
1523614193574,-917504,92,-56,-1,-1,0
1523614193614,-917504,92,-56,-1,-1,0
1523614193614,-983040,92,-56,-1,-1,0
1523614193614,-983040,92,-56,-1,-1,0
1523614193614,-983040,92,-56,-1,-1,0
1523614193614,-917504,92,-56,-1,-1,0
1523614193654,-851968,92,-56,-1,-1,0
1523614193654,-917504,92,-56,-1,-1,0
1523614193654,-1048576,92,-56,-1,-1,0
1523614193654,-1048576,92,-56,-1,-1,0
1523614193654,-1048576,92,-56,-1,-1,0
1523614193695,-1114112,92,-56,-1,-1,0
1523614193695,-1114112,92,-56,-1,-1,0
1523614193695,-1048576,92,-56,-1,-1,0
1523614193695,-983040,92,-56,-1,-1,0
1523614193695,-1048576,92,-56,-1,-1,0
1523614193734,-1245184,92,-56,-1,-1,0
1523614193734,-1245184,92,-56,-1,-1,0
1523614193734,-1245184,92,-56,-1,-1,0
1523614193734,-1310720,92,-56,-1,-1,0
1523614193734,-1310720,92,-56,-1,-1,0
1523614193774,-1114112,92,-56,-1,-1,0
1523614193774,-983040,92,-56,-1,-1,0
1523614193774,-1048576,92,-56,-1,-1,0
1523614193774,-1114112,92,-56,-1,-1,0
1523614193774,-1179648,92,-56,-1,-1,0
1523614193814,-1179648,92,-56,-1,-1,0
1523614193814,-1245184,92,-56,-1,-1,0
1523614193814,-1245184,92,-56,-1,-1,0
1523614193814,-1245184,92,-56,-1,-1,0
1523614193814,-1441792,92,-56,-1,-1,0
1523614193854,-1441792,92,-56,-1,-1,0
1523614193854,262144,92,-56,-1,-1,0
1523614193854,5111808,92,-56,-1,-1,0
1523614193854,9437184,92,-56,-1,-1,0
1523614193854,7077888,92,-56,-1,-1,0
1523614193894,1638400,92,-56,-1,-1,0
1523614193894,-720896,92,-56,-1,-1,0
1523614193894,-393216,92,-56,-1,-1,0
1523614193894,-262144,92,-56,-1,-1,0
1523614193894,-458752,92,-56,-1,-1,0
1523614193934,-589824,92,-56,-1,-1,0
1523614193934,-720896,92,-56,-1,-1,0
1523614193934,-589824,92,-56,-1,-1,0
1523614193934,-589824,92,-56,-1,-1,0
1523614193934,-524288,92,-56,-1,-1,0
1523614193974,-524288,92,-56,-1,-1,0
1523614193974,-458752,92,-56,-1,-1,0
1523614193974,-196608,92,-56,-1,-1,0
1523614193974,65536,92,-56,-1,-1,0
1523614193974,131072,92,-56,-1,-1,0
1523614194014,65536,92,-56,-1,-1,0
1523614194014,262144,92,-56,-1,-1,0
1523614194014,524288,92,-56,-1,-1,0
1523614194014,589824,92,-56,-1,-1,0
1523614194014,589824,92,-56,-1,-1,0
1523614194054,786432,92,-56,-1,-1,0
1523614194054,1179648,92,-56,-1,-1,0
1523614194054,1507328,92,-56,-1,-1,0
1523614194054,1703936,92,-56,-1,-1,0
1523614194054,1966080,92,-56,-1,-1,0
1523614194094,2228224,92,-56,-1,-1,0
1523614194094,2293760,92,-56,-1,-1,0
1523614194094,2228224,92,-56,-1,-1,0
1523614194094,2031616,92,-56,-1,-1,0
1523614194094,1835008,92,-56,-1,-1,0
1523614194134,1507328,92,-56,-1,-1,0
1523614194134,1048576,92,-56,-1,-1,0
1523614194134,589824,92,-56,-1,-1,0
1523614194134,131072,92,-56,-1,-1,0
1523614194134,-131072,92,-56,-1,-1,0
1523614194175,-393216,92,-56,-1,-1,0
1523614194175,-524288,92,-56,-1,-1,0
1523614194175,-524288,92,-56,-1,-1,0
1523614194175,-524288,92,-56,-1,-1,0
1523614194175,-589824,92,-56,-1,-1,0
1523614194214,-655360,92,-56,-1,-1,0
1523614194214,-720896,92,-56,-1,-1,0
1523614194214,-720896,92,-56,-1,-1,0
1523614194214,-589824,92,-56,-1,-1,0
1523614194214,-589824,92,-56,-1,-1,0
1523614194254,-655360,92,-56,-1,-1,0
1523614194254,-655360,92,-56,-1,-1,0
1523614194254,-589824,92,-56,-1,-1,0
1523614194254,-524288,92,-56,-1,-1,0
1523614194254,-589824,92,-56,-1,-1,0
1523614194294,-589824,92,-56,-1,-1,0
1523614194294,-524288,92,-56,-1,-1,0
1523614194294,-589824,92,-56,-1,-1,0
1523614194294,-720896,92,-56,-1,-1,0
1523614194294,-720896,92,-56,-1,-1,0
1523614194334,-589824,92,-56,-1,-1,0
1523614194334,-524288,92,-56,-1,-1,0
1523614194334,-458752,92,-56,-1,-1,0
1523614194334,-524288,92,-56,-1,-1,0
1523614194334,-655360,92,-56,-1,-1,0
1523614194374,-851968,92,-56,-1,-1,0
1523614194374,-983040,92,-56,-1,-1,0
1523614194374,-983040,92,-56,-1,-1,0
1523614194374,-917504,92,-56,-1,-1,0
1523614194374,-983040,92,-56,-1,-1,0
1523614194414,-1048576,92,-56,-1,-1,0
1523614194414,-917504,92,-56,-1,-1,0
1523614194414,-720896,92,-56,-1,-1,0
1523614194414,-655360,92,-56,-1,-1,0
1523614194414,-851968,92,-56,-1,-1,0
1523614194454,-1245184,92,-56,-1,-1,0
1523614194454,-1179648,92,-56,-1,-1,0
1523614194454,-786432,92,-56,-1,-1,0
1523614194454,-720896,92,-56,-1,-1,0
1523614194454,-1114112,92,-56,-1,-1,0
1523614194494,-1441792,92,-56,-1,-1,0
1523614194494,-524288,92,-56,-1,-1,0
1523614194494,3342336,92,-56,-1,-1,0
1523614194494,8519680,92,-56,-1,-1,0
1523614194494,8388608,92,-56,-1,-1,0
1523614194534,3276800,92,-56,-1,-1,0
1523614194534,-720896,92,-56,-1,-1,0
1523614194534,-786432,92,-56,-1,-1,0
1523614194534,-524288,92,-56,-1,-1,0
1523614194534,-589824,92,-56,-1,-1,0
1523614194574,-524288,92,-56,-1,-1,0
1523614194574,-458752,92,-56,-1,-1,0
1523614194574,-393216,92,-56,-1,-1,0
1523614194574,-196608,92,-56,-1,-1,0
1523614194574,-131072,92,-56,-1,-1,0
1523614194614,-262144,92,-56,-1,-1,0
1523614194614,-262144,92,-56,-1,-1,0
1523614194614,-131072,92,-56,-1,-1,0
1523614194614,-65536,92,-56,-1,-1,0
1523614194614,-65536,92,-56,-1,-1,0
1523614194654,0,92,-56,-1,-1,0
1523614194654,131072,92,-56,-1,-1,0
1523614194654,327680,92,-56,-1,-1,0
1523614194654,655360,92,-56,-1,-1,0
1523614194654,851968,92,-56,-1,-1,0
1523614194694,917504,92,-56,-1,-1,0
1523614194694,1245184,92,-56,-1,-1,0
1523614194694,1703936,92,-56,-1,-1,0
1523614194694,1900544,92,-56,-1,-1,0
1523614194694,2031616,92,-56,-1,-1,0
1523614194734,2162688,92,-56,-1,-1,0
1523614194734,2359296,92,-56,-1,-1,0
1523614194734,2490368,92,-56,-1,-1,0
1523614194734,2424832,92,-56,-1,-1,0
1523614194734,2097152,92,-56,-1,-1,0
1523614194774,1703936,92,-56,-1,-1,0
1523614194774,1179648,92,-56,-1,-1,0
1523614194774,589824,92,-56,-1,-1,0
1523614194774,196608,92,-56,-1,-1,0
1523614194774,-65536,92,-56,-1,-1,0
1523614194815,-262144,92,-56,-1,-1,0
1523614194815,-393216,92,-56,-1,-1,0
1523614194815,-524288,92,-56,-1,-1,0
1523614194815,-589824,92,-56,-1,-1,0
1523614194815,-589824,92,-56,-1,-1,0
1523614194854,-458752,92,-56,-1,-1,0
1523614194854,-327680,92,-56,-1,-1,0
1523614194854,-458752,92,-56,-1,-1,0
1523614194854,-524288,92,-56,-1,-1,0
1523614194854,-393216,92,-56,-1,-1,0
1523614194894,-327680,92,-56,-1,-1,0
1523614194894,-327680,92,-56,-1,-1,0
1523614194894,-327680,92,-56,-1,-1,0
1523614194894,-524288,92,-56,-1,-1,0
1523614194894,-458752,92,-56,-1,-1,0
1523614194934,-196608,92,-56,-1,-1,0
1523614194934,-131072,92,-56,-1,-1,0
1523614194934,-393216,92,-56,-1,-1,0
1523614194934,-524288,92,-56,-1,-1,0
1523614194934,-262144,92,-56,-1,-1,0
1523614194974,-131072,92,-56,-1,-1,0
1523614194974,-262144,92,-56,-1,-1,0
1523614194974,-524288,92,-56,-1,-1,0
1523614194974,-655360,92,-56,-1,-1,0
1523614194974,-786432,92,-56,-1,-1,0
1523614195014,-655360,92,-56,-1,-1,0
1523614195014,-393216,92,-56,-1,-1,0
1523614195014,-524288,92,-56,-1,-1,0
1523614195014,-786432,92,-56,-1,-1,0
1523614195014,-786432,92,-56,-1,-1,0
1523614195054,-524288,92,-56,-1,-1,0
1523614195054,-458752,92,-56,-1,-1,0
1523614195054,-524288,92,-56,-1,-1,0
1523614195054,-720896,92,-56,-1,-1,0
1523614195054,-1114112,92,-56,-1,-1,0
1523614195094,-1245184,92,-56,-1,-1,0
1523614195094,-1048576,92,-56,-1,-1,0
1523614195094,-655360,92,-56,-1,-1,0
1523614195094,-393216,92,-56,-1,-1,0
1523614195094,-393216,92,-56,-1,-1,0
1523614195134,-851968,92,-56,-1,-1,0
1523614195134,-1179648,92,-56,-1,-1,0
1523614195134,-1310720,92,-56,-1,-1,0
1523614195134,-458752,92,-56,-1,-1,0
1523614195134,3342336,92,-56,-1,-1,0
1523614195174,8650752,92,-56,-1,-1,0
1523614195174,9043968,92,-56,-1,-1,0
1523614195174,3997696,92,-56,-1,-1,0
1523614195174,-262144,92,-56,-1,-1,0
1523614195174,-655360,92,-56,-1,-1,0
1523614195214,-524288,92,-56,-1,-1,0
1523614195214,-524288,92,-56,-1,-1,0
1523614195214,-458752,92,-56,-1,-1,0
1523614195214,-655360,92,-56,-1,-1,0
1523614195214,-851968,92,-56,-1,-1,0
1523614195254,-524288,92,-56,-1,-1,0
1523614195254,-65536,92,-56,-1,-1,0
1523614195254,-131072,92,-56,-1,-1,0
1523614195254,-262144,92,-56,-1,-1,0
1523614195254,-196608,92,-56,-1,-1,0
1523614195294,-65536,92,-56,-1,-1,0
1523614195294,-262144,92,-56,-1,-1,0
1523614195294,-393216,92,-56,-1,-1,0
1523614195294,0,92,-56,-1,-1,0
1523614195294,327680,92,-56,-1,-1,0
1523614195335,393216,92,-56,-1,-1,0
1523614195335,458752,92,-56,-1,-1,0
1523614195335,917504,92,-56,-1,-1,0
1523614195335,1179648,92,-56,-1,-1,0
1523614195335,1245184,92,-56,-1,-1,0
1523614195374,1507328,92,-56,-1,-1,0
1523614195374,1900544,92,-56,-1,-1,0
1523614195374,2097152,92,-56,-1,-1,0
1523614195374,2097152,92,-56,-1,-1,0
1523614195374,2162688,92,-56,-1,-1,0
1523614195414,2097152,92,-56,-1,-1,0
1523614195414,1966080,92,-56,-1,-1,0
1523614195414,1638400,92,-56,-1,-1,0
1523614195414,1048576,92,-56,-1,-1,0
1523614195414,458752,92,-56,-1,-1,0
1523614195458,131072,92,-56,-1,-1,0
1523614195458,-131072,92,-56,-1,-1,0
1523614195458,-393216,92,-56,-1,-1,0
1523614195458,-524288,92,-56,-1,-1,0
1523614195458,-655360,92,-56,-1,-1,0
1523614195494,-786432,92,-56,-1,-1,0
1523614195494,-655360,92,-56,-1,-1,0
1523614195494,-524288,92,-56,-1,-1,0
1523614195494,-720896,92,-56,-1,-1,0
1523614195494,-917504,92,-56,-1,-1,0
1523614195534,-851968,92,-56,-1,-1,0
1523614195534,-786432,92,-56,-1,-1,0
1523614195534,-589824,92,-56,-1,-1,0
1523614195534,-458752,92,-56,-1,-1,0
1523614195534,-458752,92,-56,-1,-1,0
1523614195574,-589824,92,-56,-1,-1,0
1523614195574,-720896,92,-56,-1,-1,0
1523614195574,-786432,92,-56,-1,-1,0
1523614195574,-720896,92,-56,-1,-1,0
1523614195574,-655360,92,-56,-1,-1,0
1523614195614,-589824,92,-56,-1,-1,0
1523614195614,-589824,92,-56,-1,-1,0
1523614195614,-524288,92,-56,-1,-1,0
1523614195614,-720896,92,-56,-1,-1,0
1523614195614,-786432,92,-56,-1,-1,0
1523614195654,-589824,92,-56,-1,-1,0
1523614195654,-720896,92,-56,-1,-1,0
1523614195654,-983040,92,-56,-1,-1,0
1523614195654,-1179648,92,-56,-1,-1,0
1523614195654,-1114112,92,-56,-1,-1,0
1523614195694,-851968,92,-56,-1,-1,0
1523614195694,-917504,92,-56,-1,-1,0
1523614195694,-1179648,92,-56,-1,-1,0
1523614195694,-1245184,92,-56,-1,-1,0
1523614195694,-1179648,92,-56,-1,-1,0
1523614195734,-1179648,92,-56,-1,-1,0
1523614195734,-983040,92,-56,-1,-1,0
1523614195734,-917504,92,-56,-1,-1,0
1523614195734,-851968,92,-56,-1,-1,0
1523614195734,-851968,92,-56,-1,-1,0
1523614195774,-917504,92,-56,-1,-1,0
1523614195774,-917504,92,-56,-1,-1,0
1523614195774,-917504,92,-56,-1,-1,0
1523614195774,-1114112,92,-56,-1,-1,0
1523614195774,-1703936,92,-56,-1,-1,0
1523614195814,-1703936,92,-56,-1,-1,0
1523614195814,196608,92,-56,-1,-1,0
1523614195814,5242880,92,-56,-1,-1,0
1523614195814,9568256,92,-56,-1,-1,0
1523614195814,7208960,92,-56,-1,-1,0
1523614195854,1703936,92,-56,-1,-1,0
1523614195854,-983040,92,-56,-1,-1,0
1523614195854,-720896,92,-56,-1,-1,0
1523614195854,-524288,92,-56,-1,-1,0
1523614195854,-589824,92,-56,-1,-1,0
1523614195894,-655360,92,-56,-1,-1,0
1523614195894,-524288,92,-56,-1,-1,0
1523614195894,-131072,92,-56,-1,-1,0
1523614195894,-262144,92,-56,-1,-1,0
1523614195894,-589824,92,-56,-1,-1,0
1523614195934,-524288,92,-56,-1,-1,0
1523614195934,-65536,92,-56,-1,-1,0
1523614195934,0,92,-56,-1,-1,0
1523614195934,-131072,92,-56,-1,-1,0
1523614195934,-393216,92,-56,-1,-1,0
1523614195974,-262144,92,-56,-1,-1,0
1523614195974,0,92,-56,-1,-1,0
1523614195974,262144,92,-56,-1,-1,0
1523614195974,524288,92,-56,-1,-1,0
1523614195974,851968,92,-56,-1,-1,0
1523614196014,1179648,92,-56,-1,-1,0
1523614196014,1441792,92,-56,-1,-1,0
1523614196014,1769472,92,-56,-1,-1,0
1523614196014,2031616,92,-56,-1,-1,0
1523614196014,1966080,92,-56,-1,-1,0
1523614196054,1835008,92,-56,-1,-1,0
1523614196054,2031616,92,-56,-1,-1,0
1523614196054,2293760,92,-56,-1,-1,0
1523614196054,2293760,92,-56,-1,-1,0
1523614196054,1769472,92,-56,-1,-1,0
1523614196097,1245184,92,-56,-1,-1,0
1523614196097,524288,92,-56,-1,-1,0
1523614196097,-65536,92,-56,-1,-1,0
1523614196097,-393216,92,-56,-1,-1,0
1523614196097,-458752,92,-56,-1,-1,0
1523614196134,-393216,92,-56,-1,-1,0
1523614196134,-393216,92,-56,-1,-1,0
1523614196134,-786432,92,-56,-1,-1,0
1523614196134,-1245184,92,-56,-1,-1,0
1523614196134,-1310720,92,-56,-1,-1,0
1523614196174,-1310720,92,-56,-1,-1,0
1523614196174,-1179648,92,-56,-1,-1,0
1523614196174,-1048576,92,-56,-1,-1,0
1523614196174,-983040,92,-56,-1,-1,0
1523614196174,-917504,92,-56,-1,-1,0
1523614196215,-917504,92,-56,-1,-1,0
1523614196215,-1179648,92,-56,-1,-1,0
1523614196215,-1376256,92,-56,-1,-1,0
1523614196215,-1114112,92,-56,-1,-1,0
1523614196215,-851968,92,-56,-1,-1,0
1523614196253,-851968,92,-56,-1,-1,0
1523614196253,-917504,92,-56,-1,-1,0
1523614196253,-851968,92,-56,-1,-1,0
1523614196253,-917504,92,-56,-1,-1,0
1523614196253,-1114112,92,-56,-1,-1,0
1523614196295,-1048576,92,-56,-1,-1,0
1523614196295,-1048576,92,-56,-1,-1,0
1523614196295,-1048576,92,-56,-1,-1,0
1523614196295,-1048576,92,-56,-1,-1,0
1523614196295,-983040,92,-56,-1,-1,0
1523614196334,-1114112,92,-56,-1,-1,0
1523614196334,-1376256,92,-56,-1,-1,0
1523614196334,-1376256,92,-56,-1,-1,0
1523614196334,-1048576,92,-56,-1,-1,0
1523614196334,-1048576,92,-56,-1,-1,0
1523614196374,-1376256,92,-56,-1,-1,0
1523614196374,-1310720,92,-56,-1,-1,0
1523614196374,-917504,92,-56,-1,-1,0
1523614196374,-917504,92,-56,-1,-1,0
1523614196374,-1114112,92,-56,-1,-1,0
1523614196414,-1245184,92,-56,-1,-1,0
1523614196414,-1179648,92,-56,-1,-1,0
1523614196414,-1310720,92,-56,-1,-1,0
1523614196414,-1310720,92,-56,-1,-1,0
1523614196414,-1179648,92,-56,-1,-1,0
1523614196454,-1114112,92,-56,-1,-1,0
1523614196454,-1441792,92,-56,-1,-1,0
1523614196454,-393216,92,-56,-1,-1,0
1523614196454,3735552,92,-56,-1,-1,0
1523614196454,8192000,92,-56,-1,-1,0
1523614196494,6750208,92,-56,-1,-1,0
1523614196494,1507328,92,-56,-1,-1,0
1523614196494,-1507328,92,-56,-1,-1,0
1523614196494,-917504,92,-56,-1,-1,0
1523614196494,-262144,92,-56,-1,-1,0
1523614196534,-196608,92,-56,-1,-1,0
1523614196534,-327680,92,-56,-1,-1,0
1523614196534,-458752,92,-56,-1,-1,0
1523614196534,-393216,92,-56,-1,-1,0
1523614196534,-458752,92,-56,-1,-1,0
1523614196574,-589824,92,-56,-1,-1,0
1523614196574,-655360,92,-56,-1,-1,0
1523614196574,-262144,92,-56,-1,-1,0
1523614196574,0,92,-56,-1,-1,0
1523614196574,-65536,92,-56,-1,-1,0
1523614196614,-131072,92,-56,-1,-1,0
1523614196614,0,92,-56,-1,-1,0
1523614196614,131072,92,-56,-1,-1,0
1523614196614,327680,92,-56,-1,-1,0
1523614196614,524288,92,-56,-1,-1,0
1523614196654,786432,92,-56,-1,-1,0
1523614196654,1114112,92,-56,-1,-1,0
1523614196654,1310720,92,-56,-1,-1,0
1523614196654,1572864,92,-56,-1,-1,0
1523614196654,1769472,92,-56,-1,-1,0
1523614196694,2031616,92,-56,-1,-1,0
1523614196694,2162688,92,-56,-1,-1,0
1523614196694,2293760,92,-56,-1,-1,0
1523614196694,2228224,92,-56,-1,-1,0
1523614196694,2031616,92,-56,-1,-1,0
1523614196735,1638400,92,-56,-1,-1,0
1523614196735,1048576,92,-56,-1,-1,0
1523614196735,458752,92,-56,-1,-1,0
1523614196735,0,92,-56,-1,-1,0
1523614196735,-327680,92,-56,-1,-1,0
1523614196774,-524288,92,-56,-1,-1,0
1523614196774,-720896,92,-56,-1,-1,0
1523614196774,-851968,92,-56,-1,-1,0
1523614196774,-983040,92,-56,-1,-1,0
1523614196774,-983040,92,-56,-1,-1,0
1523614196814,-917504,92,-56,-1,-1,0
1523614196814,-983040,92,-56,-1,-1,0
1523614196814,-1114112,92,-56,-1,-1,0
1523614196814,-1179648,92,-56,-1,-1,0
1523614196814,-1114112,92,-56,-1,-1,0
1523614196854,-1048576,92,-56,-1,-1,0
1523614196854,-1048576,92,-56,-1,-1,0
1523614196854,-1048576,92,-56,-1,-1,0
1523614196854,-851968,92,-56,-1,-1,0
1523614196854,-589824,92,-56,-1,-1,0
1523614196894,-524288,92,-56,-1,-1,0
1523614196894,-655360,92,-56,-1,-1,0
1523614196894,-851968,92,-56,-1,-1,0
1523614196894,-917504,92,-56,-1,-1,0
1523614196894,-983040,92,-56,-1,-1,0
1523614196934,-786432,92,-56,-1,-1,0
1523614196934,-720896,92,-56,-1,-1,0
1523614196934,-917504,92,-56,-1,-1,0
1523614196934,-1048576,92,-56,-1,-1,0
1523614196934,-983040,92,-56,-1,-1,0
1523614196974,-851968,92,-56,-1,-1,0
1523614196974,-917504,92,-56,-1,-1,0
1523614196974,-983040,92,-56,-1,-1,0
1523614196974,-983040,92,-56,-1,-1,0
1523614196974,-851968,92,-56,-1,-1,0
1523614197014,-917504,92,-56,-1,-1,0
1523614197014,-1179648,92,-56,-1,-1,0
1523614197014,-1310720,92,-56,-1,-1,0
1523614197014,-1114112,92,-56,-1,-1,0
1523614197014,-917504,92,-56,-1,-1,0
1523614197054,-983040,92,-56,-1,-1,0
