milliseconds, ECG, ECG HR, PPG, PPG HR, SpO2, PI
0,1507328,126,-56,-1,-1,0
33,851968,126,-56,-1,-1,0
66,-262144,126,-56,-1,-1,0
100,-655360,126,-56,-1,-1,0
133,-1048576,126,-56,-1,-1,0
166,-1376256,126,-56,-1,-1,0
200,-1179648,126,-56,-1,-1,0
233,-1441792,126,-56,-1,-1,0
266,-786432,126,-56,-1,-1,0
300,7602176,126,-56,-1,-1,0
333,-1769472,126,-56,-1,-1,0
366,-1245184,126,-56,-1,-1,0
400,65536,126,-56,-1,-1,0
433,1507328,126,-56,-1,-1,0
466,655360,126,-56,-1,-1,0
500,-327680,126,-56,-1,-1,0
533,-720896,125,-56,-1,-1,0
566,-1179648,125,-56,-1,-1,0
600,-1310720,125,-56,-1,-1,0
633,-1310720,125,-56,-1,-1,0
666,-1376256,125,-56,-1,-1,0
700,2162688,125,-56,-1,-1,0
733,1179648,125,-56,-1,-1,0
766,-1703936,125,-56,-1,-1,0
800,-983040,125,-56,-1,-1,0
833,720896,125,-56,-1,-1,0
866,1572864,125,-56,-1,-1,0
900,458752,125,-56,-1,-1,0
933,-262144,125,-56,-1,-1,0
966,-786432,123,-56,-1,-1,0
1000,-1114112,123,-56,-1,-1,0
1033,-1245184,123,-56,-1,-1,0
1066,-1310720,123,-56,-1,-1,0
1100,-1507328,123,-56,-1,-1,0
1133,3670016,123,-56,-1,-1,0
1166,-1048576,123,-56,-1,-1,0
1200,-1900544,123,-56,-1,-1,0
1233,-1048576,123,-56,-1,-1,0
1266,851968,123,-56,-1,-1,0
1300,1441792,123,-56,-1,-1,0
1333,262144,123,-56,-1,-1,0
1366,-327680,123,-56,-1,-1,0
1400,-720896,122,-56,-1,-1,0
1433,-917504,122,-56,-1,-1,0
1466,-786432,122,-56,-1,-1,0
1500,-786432,122,-56,-1,-1,0
1533,-983040,122,-56,-1,-1,0
1566,4849664,122,-56,-1,-1,0
1600,-1310720,122,-56,-1,-1,0
1633,-1376256,122,-56,-1,-1,0
1666,-589824,122,-56,-1,-1,0
1700,1310720,122,-56,-1,-1,0
1733,1769472,122,-56,-1,-1,0
1766,589824,122,-56,-1,-1,0
1800,-196608,122,-56,-1,-1,0
1833,-589824,122,-56,-1,-1,0
1866,-983040,122,-56,-1,-1,0
1900,-983040,122,-56,-1,-1,0
1933,-1245184,122,-56,-1,-1,0
1966,-1638400,122,-56,-1,-1,0
2000,3735552,122,-56,-1,-1,0
2033,-2424832,122,-56,-1,-1,0
2066,-2359296,122,-56,-1,-1,0
2100,-1572864,122,-56,-1,-1,0
2133,393216,122,-56,-1,-1,0
2166,917504,122,-56,-1,-1,0
2200,0,122,-56,-1,-1,0
2233,-851968,122,-56,-1,-1,0
2266,-1179648,121,-56,-1,-1,0
2300,-1376256,121,-56,-1,-1,0
2333,-1376256,121,-56,-1,-1,0
2366,-1245184,121,-56,-1,-1,0
2400,-1310720,121,-56,-1,-1,0
2433,6291456,121,-56,-1,-1,0
2466,-2228224,121,-56,-1,-1,0
2500,-1703936,121,-56,-1,-1,0
2533,-655360,121,-56,-1,-1,0
2566,1441792,121,-56,-1,-1,0
2600,2097152,121,-56,-1,-1,0
2633,655360,121,-56,-1,-1,0
2666,-131072,121,-56,-1,-1,0
2700,-655360,120,-56,-1,-1,0
2733,-1114112,120,-56,-1,-1,0
2766,-1048576,120,-56,-1,-1,0
2800,-1376256,120,-56,-1,-1,0
2833,-1572864,120,-56,-1,-1,0
2866,11403264,120,-56,-1,-1,0
2900,-2293760,120,-56,-1,-1,0
2933,-1638400,120,-56,-1,-1,0
2966,-655360,120,-56,-1,-1,0
3000,1441792,120,-56,-1,-1,0
3033,1179648,120,-56,-1,-1,0
3066,-393216,120,-56,-1,-1,0
3100,-720896,119,-56,-1,-1,0
3133,-1114112,119,-56,-1,-1,0
3166,-1638400,119,-56,-1,-1,0
3200,-1572864,119,-56,-1,-1,0
3233,-1638400,119,-56,-1,-1,0
3266,-2097152,119,-56,-1,-1,0
3300,13238272,119,-56,-1,-1,0
3333,-1966080,119,-56,-1,-1,0
3366,-1572864,119,-56,-1,-1,0
3400,-196608,119,-56,-1,-1,0
3433,1572864,119,-56,-1,-1,0
3466,786432,119,-56,-1,-1,0
3500,-589824,119,-56,-1,-1,0
3533,-655360,118,-56,-1,-1,0
3566,-983040,118,-56,-1,-1,0
3600,-1376256,118,-56,-1,-1,0
3633,-983040,118,-56,-1,-1,0
3666,-1376256,118,-56,-1,-1,0
3699,-1179648,118,-56,-1,-1,0
3733,7536640,118,-56,-1,-1,0
3766,-1835008,118,-56,-1,-1,0
3800,-1114112,118,-56,-1,-1,0
3833,196608,118,-56,-1,-1,0
3866,1703936,118,-56,-1,-1,0
3900,524288,118,-56,-1,-1,0
3933,-327680,118,-56,-1,-1,0
3966,-917504,118,-56,-1,-1,0
4000,-1179648,118,-56,-1,-1,0
4033,-1310720,118,-56,-1,-1,0
4066,-1310720,118,-56,-1,-1,0
4100,-1310720,118,-56,-1,-1,0
4133,524288,118,-56,-1,-1,0
4166,3145728,118,-56,-1,-1,0
4200,-2031616,118,-56,-1,-1,0
4233,-1638400,118,-56,-1,-1,0
4266,0,118,-56,-1,-1,0
4300,1048576,118,-56,-1,-1,0
4333,0,118,-56,-1,-1,0
4366,-917504,118,-56,-1,-1,0
4400,-1310720,118,-56,-1,-1,0
4433,-1441792,118,-56,-1,-1,0
4466,-1638400,118,-56,-1,-1,0
4500,-1376256,118,-56,-1,-1,0
4533,-1507328,118,-56,-1,-1,0
4566,-589824,118,-56,-1,-1,0
4600,5373952,118,-56,-1,-1,0
4633,-1966080,118,-56,-1,-1,0
4666,-1179648,118,-56,-1,-1,0
4700,393216,118,-56,-1,-1,0
4733,1835008,118,-56,-1,-1,0
4766,1179648,118,-56,-1,-1,0
4800,65536,118,-56,-1,-1,0
4833,-589824,117,-56,-1,-1,0
4866,-917504,117,-56,-1,-1,0
4900,-1179648,117,-56,-1,-1,0
4933,-1114112,117,-56,-1,-1,0
4966,-1179648,117,-56,-1,-1,0
5000,262144,117,-56,-1,-1,0
5033,4915200,117,-56,-1,-1,0
5066,-1638400,117,-56,-1,-1,0
5100,-1048576,117,-56,-1,-1,0
5133,458752,117,-56,-1,-1,0
5166,1638400,117,-56,-1,-1,0
5200,720896,117,-56,-1,-1,0
5233,-262144,117,-56,-1,-1,0
5266,-917504,117,-56,-1,-1,0
5300,-1245184,117,-56,-1,-1,0
5333,-1441792,117,-56,-1,-1,0
5366,-1245184,117,-56,-1,-1,0
5400,-1310720,117,-56,-1,-1,0
5433,2752512,117,-56,-1,-1,0
5466,589824,117,-56,-1,-1,0
5500,-1507328,117,-56,-1,-1,0
5533,-851968,117,-56,-1,-1,0
5566,786432,117,-56,-1,-1,0
5600,1310720,117,-56,-1,-1,0
5633,131072,117,-56,-1,-1,0
5666,-720896,117,-56,-1,-1,0
5700,-983040,117,-56,-1,-1,0
5733,-1245184,117,-56,-1,-1,0
5766,-1638400,117,-56,-1,-1,0
5800,-1769472,117,-56,-1,-1,0
5833,-1638400,117,-56,-1,-1,0
5866,4128768,117,-56,-1,-1,0
5900,-917504,117,-56,-1,-1,0
5933,-2097152,117,-56,-1,-1,0
5966,-1572864,117,-56,-1,-1,0
6000,0,117,-56,-1,-1,0
6033,589824,117,-56,-1,-1,0
6066,-327680,117,-56,-1,-1,0
6100,-720896,117,-56,-1,-1,0
6133,-983040,117,-56,-1,-1,0
6166,-1179648,117,-56,-1,-1,0
6200,-1376256,117,-56,-1,-1,0
6233,-1245184,117,-56,-1,-1,0
6266,-1179648,117,-56,-1,-1,0
6300,2555904,117,-56,-1,-1,0
6333,1507328,117,-56,-1,-1,0
6366,-1507328,117,-56,-1,-1,0
6400,-917504,117,-56,-1,-1,0
6433,655360,117,-56,-1,-1,0
6466,1245184,117,-56,-1,-1,0
6500,458752,117,-56,-1,-1,0
6533,-327680,117,-56,-1,-1,0
6566,-786432,117,-56,-1,-1,0
6600,-1048576,117,-56,-1,-1,0
6633,-1310720,117,-56,-1,-1,0
6666,-1179648,117,-56,-1,-1,0
6700,-1179648,117,-56,-1,-1,0
6733,-1638400,117,-56,-1,-1,0
6766,12976128,117,-56,-1,-1,0
6800,-1769472,117,-56,-1,-1,0
6833,-1441792,117,-56,-1,-1,0
6866,-458752,117,-56,-1,-1,0
6899,1441792,117,-56,-1,-1,0
6933,1310720,117,-56,-1,-1,0
6966,131072,117,-56,-1,-1,0
7000,-524288,117,-56,-1,-1,0
7033,-917504,117,-56,-1,-1,0
7066,-1179648,116,-56,-1,-1,0
7100,-1376256,116,-56,-1,-1,0
7133,-1114112,116,-56,-1,-1,0
7166,-1310720,116,-56,-1,-1,0
7200,-1900544,116,-56,-1,-1,0
7233,9502720,116,-56,-1,-1,0
7266,-1966080,116,-56,-1,-1,0
7300,-1441792,116,-56,-1,-1,0
7333,0,116,-56,-1,-1,0
7366,1638400,116,-56,-1,-1,0
7399,1114112,116,-56,-1,-1,0
7433,-65536,116,-56,-1,-1,0
7466,-655360,116,-56,-1,-1,0
7500,-917504,116,-56,-1,-1,0
7533,-1114112,116,-56,-1,-1,0
7566,-1048576,116,-56,-1,-1,0
7600,-786432,116,-56,-1,-1,0
7633,-917504,116,-56,-1,-1,0
7666,131072,116,-56,-1,-1,0
7700,3538944,116,-56,-1,-1,0
7733,-1507328,116,-56,-1,-1,0
7766,-917504,116,-56,-1,-1,0
7800,524288,116,-56,-1,-1,0
7833,1703936,116,-56,-1,-1,0
7866,851968,116,-56,-1,-1,0
7899,-262144,116,-56,-1,-1,0
7933,-851968,116,-56,-1,-1,0
7966,-1179648,116,-56,-1,-1,0
8000,-1376256,116,-56,-1,-1,0
8033,-1245184,116,-56,-1,-1,0
8066,-1441792,116,-56,-1,-1,0
8100,-1769472,116,-56,-1,-1,0
8133,7864320,116,-56,-1,-1,0
8166,-2424832,116,-56,-1,-1,0
8200,-1769472,116,-56,-1,-1,0
8233,-655360,116,-56,-1,-1,0
8266,1310720,116,-56,-1,-1,0
8300,1769472,116,-56,-1,-1,0
8333,524288,116,-56,-1,-1,0
8366,-262144,116,-56,-1,-1,0
8400,-720896,116,-56,-1,-1,0
8433,-983040,116,-56,-1,-1,0
8466,-1114112,116,-56,-1,-1,0
8500,-983040,116,-56,-1,-1,0
8533,-1179648,116,-56,-1,-1,0
8566,-589824,116,-56,-1,-1,0
8600,6750208,116,-56,-1,-1,0
8633,-1835008,116,-56,-1,-1,0
8666,-1114112,116,-56,-1,-1,0
8700,393216,116,-56,-1,-1,0
8733,2031616,116,-56,-1,-1,0
8766,1048576,116,-56,-1,-1,0
8800,-131072,116,-56,-1,-1,0
8833,-851968,116,-56,-1,-1,0
8866,-1245184,115,-56,-1,-1,0
8900,-1507328,115,-56,-1,-1,0
8933,-1441792,115,-56,-1,-1,0
8966,-1507328,115,-56,-1,-1,0
9000,-1769472,115,-56,-1,-1,0
9033,11272192,115,-56,-1,-1,0
9066,-1966080,115,-56,-1,-1,0
9100,-1376256,115,-56,-1,-1,0
9133,0,115,-56,-1,-1,0
9166,1769472,115,-56,-1,-1,0
9200,1048576,115,-56,-1,-1,0
9233,-196608,115,-56,-1,-1,0
9266,-589824,115,-56,-1,-1,0
9300,-983040,115,-56,-1,-1,0
9333,-1310720,115,-56,-1,-1,0
9366,-1179648,115,-56,-1,-1,0
9400,-1310720,115,-56,-1,-1,0
9433,-1900544,115,-56,-1,-1,0
9466,13500416,115,-56,-1,-1,0
9500,-1835008,115,-56,-1,-1,0
9533,-1441792,115,-56,-1,-1,0
9566,-327680,115,-56,-1,-1,0
9600,1572864,115,-56,-1,-1,0
9633,786432,115,-56,-1,-1,0
9666,-458752,115,-56,-1,-1,0
9700,-851968,115,-56,-1,-1,0
9733,-1179648,114,-56,-1,-1,0
9766,-1507328,114,-56,-1,-1,0
9800,-1376256,114,-56,-1,-1,0
9833,-1572864,114,-56,-1,-1,0
9866,-1835008,114,-56,-1,-1,0
9900,7864320,114,-56,-1,-1,0
9933,-2424832,114,-56,-1,-1,0
9966,-1966080,114,-56,-1,-1,0
10000,-1114112,114,-56,-1,-1,0
10033,851968,114,-56,-1,-1,0
10066,983040,114,-56,-1,-1,0
10100,-262144,114,-56,-1,-1,0
10133,-786432,114,-56,-1,-1,0
10166,-1048576,114,-56,-1,-1,0
10200,-1179648,114,-56,-1,-1,0
10233,-1114112,114,-56,-1,-1,0
10266,-1048576,114,-56,-1,-1,0
10300,-1179648,114,-56,-1,-1,0
10333,393216,114,-56,-1,-1,0
10366,3473408,114,-56,-1,-1,0
10400,-1638400,114,-56,-1,-1,0
10433,-983040,114,-56,-1,-1,0
10466,720896,114,-56,-1,-1,0
10500,2097152,114,-56,-1,-1,0
10533,917504,114,-56,-1,-1,0
10566,-196608,114,-56,-1,-1,0
10600,-786432,114,-56,-1,-1,0
10633,-1179648,114,-56,-1,-1,0
10666,-1572864,114,-56,-1,-1,0
10700,-1376256,114,-56,-1,-1,0
10733,-1507328,114,-56,-1,-1,0
10766,-1900544,114,-56,-1,-1,0
10800,11599872,114,-56,-1,-1,0
10833,-1966080,114,-56,-1,-1,0
10866,-1441792,114,-56,-1,-1,0
10900,0,114,-56,-1,-1,0
10933,2097152,114,-56,-1,-1,0
10966,1114112,114,-56,-1,-1,0
11000,-262144,114,-56,-1,-1,0
11033,-524288,114,-56,-1,-1,0
11066,-983040,113,-56,-1,-1,0
11100,-1441792,113,-56,-1,-1,0
11133,-1376256,113,-56,-1,-1,0
11166,-1376256,113,-56,-1,-1,0
11200,-1703936,113,-56,-1,-1,0
11233,13893632,113,-56,-1,-1,0
11266,-1835008,113,-56,-1,-1,0
11300,-1441792,113,-56,-1,-1,0
11333,-327680,113,-56,-1,-1,0
11366,1769472,113,-56,-1,-1,0
11400,1245184,113,-56,-1,-1,0
11433,-393216,113,-56,-1,-1,0
11466,-655360,113,-56,-1,-1,0
11500,-983040,113,-56,-1,-1,0
11533,-1310720,113,-56,-1,-1,0
11566,-1507328,113,-56,-1,-1,0
11600,-1441792,113,-56,-1,-1,0
11633,-1441792,113,-56,-1,-1,0
11666,7929856,113,-56,-1,-1,0
11700,-1769472,113,-56,-1,-1,0
11733,-1900544,113,-56,-1,-1,0
11766,-983040,113,-56,-1,-1,0
11800,1048576,113,-56,-1,-1,0
11833,1245184,113,-56,-1,-1,0
11866,0,113,-56,-1,-1,0
11900,-458752,113,-56,-1,-1,0
11933,-917504,113,-56,-1,-1,0
11966,-1310720,113,-56,-1,-1,0
12000,-1703936,113,-56,-1,-1,0
12033,-1441792,113,-56,-1,-1,0
12066,-1376256,113,-56,-1,-1,0
12100,327680,113,-56,-1,-1,0
12133,4128768,113,-56,-1,-1,0
12166,-2031616,113,-56,-1,-1,0
12200,-1310720,113,-56,-1,-1,0
12233,393216,113,-56,-1,-1,0
12266,1769472,113,-56,-1,-1,0
12300,589824,113,-56,-1,-1,0
12333,-327680,113,-56,-1,-1,0
12366,-720896,113,-56,-1,-1,0
12400,-1179648,113,-56,-1,-1,0
12433,-1441792,113,-56,-1,-1,0
12466,-1376256,113,-56,-1,-1,0
12500,-1376256,113,-56,-1,-1,0
12533,3145728,113,-56,-1,-1,0
12566,0,113,-56,-1,-1,0
12600,-1638400,113,-56,-1,-1,0
12633,-917504,113,-56,-1,-1,0
12666,983040,113,-56,-1,-1,0
12700,1835008,113,-56,-1,-1,0
12733,393216,113,-56,-1,-1,0
12766,-393216,113,-56,-1,-1,0
12800,-786432,113,-56,-1,-1,0
12833,-1245184,113,-56,-1,-1,0
12866,-1376256,113,-56,-1,-1,0
12900,-1441792,113,-56,-1,-1,0
12933,-1572864,113,-56,-1,-1,0
12966,5963776,113,-56,-1,-1,0
13000,-1507328,113,-56,-1,-1,0
13033,-1966080,113,-56,-1,-1,0
13066,-1245184,113,-56,-1,-1,0
13100,720896,113,-56,-1,-1,0
13133,983040,113,-56,-1,-1,0
13166,-458752,113,-56,-1,-1,0
13200,-917504,113,-56,-1,-1,0
13233,-1245184,113,-56,-1,-1,0
13266,-1638400,113,-56,-1,-1,0
13299,-1703936,113,-56,-1,-1,0
13333,-1703936,113,-56,-1,-1,0
13366,-1900544,113,-56,-1,-1,0
13400,5767168,113,-56,-1,-1,0
13433,-1900544,113,-56,-1,-1,0
13466,-2097152,113,-56,-1,-1,0
13500,-1114112,113,-56,-1,-1,0
13533,983040,113,-56,-1,-1,0
13566,1376256,113,-56,-1,-1,0
13600,131072,113,-56,-1,-1,0
13633,-458752,113,-56,-1,-1,0
13666,-786432,113,-56,-1,-1,0
13700,-983040,113,-56,-1,-1,0
13733,-1048576,113,-56,-1,-1,0
13766,-1114112,113,-56,-1,-1,0
13799,-1245184,113,-56,-1,-1,0
13833,4456448,113,-56,-1,-1,0
13866,-589824,113,-56,-1,-1,0
13900,-1638400,113,-56,-1,-1,0
13933,-851968,113,-56,-1,-1,0
13966,1245184,113,-56,-1,-1,0
14000,1966080,113,-56,-1,-1,0
14033,524288,113,-56,-1,-1,0
14066,-262144,113,-56,-1,-1,0
14100,-524288,113,-56,-1,-1,0
14133,-983040,113,-56,-1,-1,0
14166,-1179648,113,-56,-1,-1,0
14200,-1179648,113,-56,-1,-1,0
14233,-1376256,113,-56,-1,-1,0
14266,7405568,113,-56,-1,-1,0
14299,-1835008,113,-56,-1,-1,0
14333,-1703936,113,-56,-1,-1,0
14366,-851968,113,-56,-1,-1,0
14400,1179648,113,-56,-1,-1,0
14433,1441792,113,-56,-1,-1,0
14466,0,113,-56,-1,-1,0
14500,-720896,113,-56,-1,-1,0
14533,-1114112,113,-56,-1,-1,0
14566,-1441792,113,-56,-1,-1,0
14600,-1441792,113,-56,-1,-1,0
14633,-1572864,113,-56,-1,-1,0
14666,-1703936,113,-56,-1,-1,0
14700,8912896,113,-56,-1,-1,0
14733,-1966080,113,-56,-1,-1,0
14766,-1835008,113,-56,-1,-1,0
14799,-786432,113,-56,-1,-1,0
14833,1179648,113,-56,-1,-1,0
14866,1245184,113,-56,-1,-1,0
14900,-131072,113,-56,-1,-1,0
14933,-589824,113,-56,-1,-1,0
14966,-983040,113,-56,-1,-1,0
15000,-1376256,113,-56,-1,-1,0
15033,-1507328,113,-56,-1,-1,0
15066,-1441792,113,-56,-1,-1,0
15100,-1572864,113,-56,-1,-1,0
15133,6029312,113,-56,-1,-1,0
15166,-1245184,113,-56,-1,-1,0
15200,-1835008,113,-56,-1,-1,0
15233,-917504,113,-56,-1,-1,0
15266,983040,113,-56,-1,-1,0
15299,1310720,113,-56,-1,-1,0
15333,131072,113,-56,-1,-1,0
15366,-393216,113,-56,-1,-1,0
15400,-720896,113,-56,-1,-1,0
15433,-1048576,113,-56,-1,-1,0
15466,-1245184,113,-56,-1,-1,0
15500,-1179648,113,-56,-1,-1,0
15533,-1179648,113,-56,-1,-1,0
15566,327680,113,-56,-1,-1,0
15600,4915200,113,-56,-1,-1,0
15633,-1572864,113,-56,-1,-1,0
15666,-1048576,113,-56,-1,-1,0
15700,458752,113,-56,-1,-1,0
15733,1638400,113,-56,-1,-1,0
15766,393216,113,-56,-1,-1,0
15799,-458752,113,-56,-1,-1,0
15833,-917504,113,-56,-1,-1,0
15866,-1376256,113,-56,-1,-1,0
15900,-1638400,113,-56,-1,-1,0
15933,-1572864,113,-56,-1,-1,0
15966,-1835008,113,-56,-1,-1,0
16000,-2228224,113,-56,-1,-1,0
16033,11862016,113,-56,-1,-1,0
16066,-2621440,113,-56,-1,-1,0
16100,-2228224,113,-56,-1,-1,0
16133,-1114112,113,-56,-1,-1,0
16166,1114112,113,-56,-1,-1,0
16200,851968,113,-56,-1,-1,0
16233,-327680,113,-56,-1,-1,0
16266,-720896,113,-56,-1,-1,0
16300,-983040,113,-56,-1,-1,0
16333,-1310720,113,-56,-1,-1,0
16366,-1310720,113,-56,-1,-1,0
16400,-1114112,113,-56,-1,-1,0
16433,-1179648,113,-56,-1,-1,0
16466,-458752,113,-56,-1,-1,0
16500,6815744,113,-56,-1,-1,0
16533,-1703936,113,-56,-1,-1,0
16566,-1114112,113,-56,-1,-1,0
16600,458752,113,-56,-1,-1,0
16633,2293760,113,-56,-1,-1,0
16666,1179648,113,-56,-1,-1,0
16700,-65536,113,-56,-1,-1,0
16733,-589824,113,-56,-1,-1,0
16766,-1048576,113,-56,-1,-1,0
16800,-1245184,113,-56,-1,-1,0
16833,-1376256,113,-56,-1,-1,0
16866,-1441792,113,-56,-1,-1,0
16900,-1769472,113,-56,-1,-1,0
16933,13107200,113,-56,-1,-1,0
16966,-1835008,113,-56,-1,-1,0
17000,-1376256,113,-56,-1,-1,0
17033,-196608,113,-56,-1,-1,0
17066,1966080,113,-56,-1,-1,0
17100,1114112,113,-56,-1,-1,0
17133,-458752,113,-56,-1,-1,0
17166,-655360,113,-56,-1,-1,0
17200,-1048576,113,-56,-1,-1,0
17233,-1507328,113,-56,-1,-1,0
17266,-1572864,113,-56,-1,-1,0
17300,-1638400,113,-56,-1,-1,0
17333,-1835008,113,-56,-1,-1,0
17366,11796480,113,-56,-1,-1,0
17400,-2097152,113,-56,-1,-1,0
17433,-1638400,113,-56,-1,-1,0
17466,-524288,113,-56,-1,-1,0
17500,1703936,113,-56,-1,-1,0
17533,1376256,113,-56,-1,-1,0
17566,-196608,113,-56,-1,-1,0
17600,-524288,113,-56,-1,-1,0
17633,-851968,113,-56,-1,-1,0
17666,-1179648,113,-56,-1,-1,0
17700,-1441792,113,-56,-1,-1,0
17733,-1310720,113,-56,-1,-1,0
17766,-1376256,113,-56,-1,-1,0
17800,4063232,113,-56,-1,-1,0
17833,65536,113,-56,-1,-1,0
17866,-1703936,113,-56,-1,-1,0
17900,-983040,113,-56,-1,-1,0
17933,917504,113,-56,-1,-1,0
17966,1769472,113,-56,-1,-1,0
18000,196608,113,-56,-1,-1,0
18033,-393216,113,-56,-1,-1,0
18066,-589824,113,-56,-1,-1,0
18100,-917504,113,-56,-1,-1,0
18133,-1310720,113,-56,-1,-1,0
18166,-1179648,113,-56,-1,-1,0
18200,-1310720,113,-56,-1,-1,0
18233,-1966080,113,-56,-1,-1,0
18266,13828096,113,-56,-1,-1,0
18300,-1835008,113,-56,-1,-1,0
18333,-1441792,113,-56,-1,-1,0
18366,-589824,113,-56,-1,-1,0
18400,1638400,113,-56,-1,-1,0
18433,589824,113,-56,-1,-1,0
18466,-851968,113,-56,-1,-1,0
18500,-983040,113,-56,-1,-1,0
18533,-1376256,113,-56,-1,-1,0
18566,-1638400,113,-56,-1,-1,0
18600,-1966080,113,-56,-1,-1,0
18633,-1638400,113,-56,-1,-1,0
18666,-1835008,113,-56,-1,-1,0
18700,-2228224,113,-56,-1,-1,0
18733,10289152,113,-56,-1,-1,0
18766,-2228224,113,-56,-1,-1,0
18800,-1638400,113,-56,-1,-1,0
18833,-131072,113,-56,-1,-1,0
18866,1900544,113,-56,-1,-1,0
18900,786432,113,-56,-1,-1,0
18933,-393216,113,-56,-1,-1,0
18966,-589824,113,-56,-1,-1,0
19000,-851968,113,-56,-1,-1,0
19033,-1114112,113,-56,-1,-1,0
19066,-1310720,113,-56,-1,-1,0
19100,-1048576,113,-56,-1,-1,0
19133,-1310720,113,-56,-1,-1,0
19166,-1703936,113,-56,-1,-1,0
19200,13959168,113,-56,-1,-1,0
19233,-1769472,113,-56,-1,-1,0
19266,-1376256,113,-56,-1,-1,0
19300,-196608,113,-56,-1,-1,0
19333,2293760,113,-56,-1,-1,0
19366,1572864,113,-56,-1,-1,0
19400,-131072,113,-56,-1,-1,0
19433,-393216,113,-56,-1,-1,0
19466,-589824,113,-56,-1,-1,0
19500,-1048576,113,-56,-1,-1,0
19533,-1245184,113,-56,-1,-1,0
19566,-1179648,113,-56,-1,-1,0
19600,-1441792,113,-56,-1,-1,0
19633,-1376256,113,-56,-1,-1,0
19666,7864320,113,-56,-1,-1,0
19700,-1703936,113,-56,-1,-1,0
19733,-1835008,113,-56,-1,-1,0
19766,-983040,113,-56,-1,-1,0
19800,1114112,113,-56,-1,-1,0
19833,1638400,113,-56,-1,-1,0
19866,-65536,113,-56,-1,-1,0
19900,-720896,113,-56,-1,-1,0
19933,-720896,113,-56,-1,-1,0
19966,-1048576,113,-56,-1,-1,0
20000,-1310720,113,-56,-1,-1,0
20033,-1572864,113,-56,-1,-1,0
20066,-1376256,113,-56,-1,-1,0
20100,-1441792,113,-56,-1,-1,0
20133,-1900544,113,-56,-1,-1,0
20166,14614528,113,-56,-1,-1,0
20200,-1769472,113,-56,-1,-1,0
20233,-1376256,113,-56,-1,-1,0
20266,-262144,113,-56,-1,-1,0
20300,2097152,113,-56,-1,-1,0
20333,1245184,113,-56,-1,-1,0
20366,-262144,113,-56,-1,-1,0
20400,-458752,113,-56,-1,-1,0
20433,-720896,113,-56,-1,-1,0
20466,-983040,113,-56,-1,-1,0
20500,-1114112,113,-56,-1,-1,0
20533,-1310720,113,-56,-1,-1,0
20566,-1179648,112,-56,-1,-1,0
20600,-1245184,112,-56,-1,-1,0
20633,-1507328,112,-56,-1,-1,0
20666,13631488,112,-56,-1,-1,0
20700,-1703936,112,-56,-1,-1,0
20733,-1376256,112,-56,-1,-1,0
20766,-458752,112,-56,-1,-1,0
20800,1900544,112,-56,-1,-1,0
20833,1769472,112,-56,-1,-1,0
20866,196608,112,-56,-1,-1,0
20900,-131072,112,-56,-1,-1,0
20933,-393216,112,-56,-1,-1,0
20966,-786432,112,-56,-1,-1,0
21000,-983040,112,-56,-1,-1,0
21033,-983040,112,-56,-1,-1,0
21066,-1048576,112,-56,-1,-1,0
21100,-917504,111,-56,-1,-1,0
21133,-983040,111,-56,-1,-1,0
21166,2883584,111,-56,-1,-1,0
21200,1441792,111,-56,-1,-1,0
21233,-1572864,111,-56,-1,-1,0
21266,-983040,111,-56,-1,-1,0
21300,589824,111,-56,-1,-1,0
21333,2097152,111,-56,-1,-1,0
21366,458752,111,-56,-1,-1,0
21400,-589824,111,-56,-1,-1,0
21433,-786432,111,-56,-1,-1,0
21466,-1179648,111,-56,-1,-1,0
21500,-1507328,111,-56,-1,-1,0
21533,-1638400,111,-56,-1,-1,0
21566,-1835008,111,-56,-1,-1,0
21600,-1769472,110,-56,-1,-1,0
21633,-1769472,110,-56,-1,-1,0
21666,-2031616,110,-56,-1,-1,0
21700,9437184,110,-56,-1,-1,0
21733,-2359296,110,-56,-1,-1,0
21766,-1900544,110,-56,-1,-1,0
21800,-917504,110,-56,-1,-1,0
21833,1376256,110,-56,-1,-1,0
21866,1835008,110,-56,-1,-1,0
21900,262144,110,-56,-1,-1,0
21933,-393216,110,-56,-1,-1,0
21966,-720896,110,-56,-1,-1,0
22000,-983040,110,-56,-1,-1,0
22033,-1179648,110,-56,-1,-1,0
22066,-1179648,110,-56,-1,-1,0
22100,-1245184,109,-56,-1,-1,0
22133,-983040,109,-56,-1,-1,0
22166,-1245184,109,-56,-1,-1,0
22200,-655360,109,-56,-1,-1,0
22233,7667712,109,-56,-1,-1,0
22266,-1769472,109,-56,-1,-1,0
22300,-1179648,109,-56,-1,-1,0
22333,262144,109,-56,-1,-1,0
22366,2752512,109,-56,-1,-1,0
22400,1441792,109,-56,-1,-1,0
22433,-65536,109,-56,-1,-1,0
22466,-262144,109,-56,-1,-1,0
22500,-524288,109,-56,-1,-1,0
22533,-851968,109,-56,-1,-1,0
22566,-1048576,109,-56,-1,-1,0
22600,-1114112,107,-56,-1,-1,0
22633,-1048576,107,-56,-1,-1,0
22666,-1179648,107,-56,-1,-1,0
22700,524288,107,-56,-1,-1,0
22733,3997696,107,-56,-1,-1,0
22766,-1966080,107,-56,-1,-1,0
22800,-1310720,107,-56,-1,-1,0
22833,131072,107,-56,-1,-1,0
22866,2359296,107,-56,-1,-1,0
22900,786432,107,-56,-1,-1,0
22933,-393216,107,-56,-1,-1,0
22966,-524288,107,-56,-1,-1,0
23000,-720896,107,-56,-1,-1,0
23033,-720896,107,-56,-1,-1,0
23066,-983040,107,-56,-1,-1,0
23100,-786432,106,-56,-1,-1,0
23133,-786432,106,-56,-1,-1,0
23166,-983040,106,-56,-1,-1,0
23200,2686976,106,-56,-1,-1,0
23233,1179648,106,-56,-1,-1,0
23266,-1835008,106,-56,-1,-1,0
23300,-1245184,106,-56,-1,-1,0
23333,589824,106,-56,-1,-1,0
23366,2228224,106,-56,-1,-1,0
23400,589824,106,-56,-1,-1,0
23433,-655360,106,-56,-1,-1,0
23466,-917504,106,-56,-1,-1,0
23500,-1310720,106,-56,-1,-1,0
23533,-1638400,106,-56,-1,-1,0
23566,-1769472,105,-56,-1,-1,0
23600,-1507328,105,-56,-1,-1,0
23633,-1703936,105,-56,-1,-1,0
23666,-2031616,105,-56,-1,-1,0
23700,10551296,105,-56,-1,-1,0
23733,-2424832,105,-56,-1,-1,0
23766,-2031616,105,-56,-1,-1,0
23800,-983040,105,-56,-1,-1,0
23833,1376256,105,-56,-1,-1,0
23866,1179648,105,-56,-1,-1,0
23900,-589824,105,-56,-1,-1,0
23933,-1048576,105,-56,-1,-1,0
23966,-1441792,105,-56,-1,-1,0
24000,-1638400,105,-56,-1,-1,0
24033,-1703936,104,-56,-1,-1,0
24066,-1507328,104,-56,-1,-1,0
24100,-1507328,104,-56,-1,-1,0
24133,-1507328,104,-56,-1,-1,0
24166,8323072,104,-56,-1,-1,0
24200,-2031616,104,-56,-1,-1,0
24233,-1507328,104,-56,-1,-1,0
24266,-327680,104,-56,-1,-1,0
24300,1966080,104,-56,-1,-1,0
24333,3276800,104,-56,-1,-1,0
24366,458752,104,-56,-1,-1,0
24400,-131072,104,-56,-1,-1,0
24433,-524288,104,-56,-1,-1,0
24466,-917504,104,-56,-1,-1,0
24500,-1507328,104,-56,-1,-1,0
24533,-1114112,104,-56,-1,-1,0
24566,-1638400,104,-56,-1,-1,0
24600,-1769472,104,-56,-1,-1,0
24633,11599872,104,-56,-1,-1,0
24666,-2228224,104,-56,-1,-1,0
24700,-2031616,104,-56,-1,-1,0
24733,-851968,104,-56,-1,-1,0
24766,1507328,104,-56,-1,-1,0
24800,1507328,104,-56,-1,-1,0
24833,-589824,104,-56,-1,-1,0
24866,-917504,104,-56,-1,-1,0
24900,-1376256,104,-56,-1,-1,0
24933,-1638400,104,-56,-1,-1,0
24966,-1966080,104,-56,-1,-1,0
25000,-1638400,104,-56,-1,-1,0
25033,-2031616,104,-56,-1,-1,0
25066,-1310720,104,-56,-1,-1,0
25100,9371648,104,-56,-1,-1,0
25133,-2359296,104,-56,-1,-1,0
25166,-1048576,104,-56,-1,-1,0
25200,0,104,-56,-1,-1,0
25233,2686976,104,-56,-1,-1,0
25266,2031616,104,-56,-1,-1,0
25300,-655360,104,-56,-1,-1,0
25333,-196608,104,-56,-1,-1,0
25366,-65536,104,-56,-1,-1,0
25400,-458752,104,-56,-1,-1,0
25433,-786432,104,-56,-1,-1,0
25466,-327680,104,-56,-1,-1,0
25500,-655360,104,-56,-1,-1,0
25533,2228224,104,-56,-1,-1,0
25566,3145728,104,-56,-1,-1,0
25600,-1310720,104,-56,-1,-1,0
25633,-655360,104,-56,-1,-1,0
25666,983040,104,-56,-1,-1,0
25700,3407872,104,-56,-1,-1,0
25733,1245184,104,-56,-1,-1,0
25766,0,104,-56,-1,-1,0
25800,262144,104,-56,-1,-1,0
25833,0,104,-56,-1,-1,0
25866,-393216,104,-56,-1,-1,0
25900,-720896,104,-56,-1,-1,0
25933,-1048576,104,-56,-1,-1,0
25966,-1376256,104,-56,-1,-1,0
26000,458752,104,-56,-1,-1,0
26033,2424832,104,-56,-1,-1,0
26066,-2424832,104,-56,-1,-1,0
26099,-1900544,104,-56,-1,-1,0
26133,-131072,104,-56,-1,-1,0
26166,2228224,104,-56,-1,-1,0
26200,131072,104,-56,-1,-1,0
26233,-1245184,104,-56,-1,-1,0
26266,-1310720,104,-56,-1,-1,0
26300,-1441792,104,-56,-1,-1,0
26333,-1638400,104,-56,-1,-1,0
26366,-1966080,104,-56,-1,-1,0
26400,-1507328,104,-56,-1,-1,0
26433,-1769472,104,-56,-1,-1,0
26466,-2162688,104,-56,-1,-1,0
26500,13434880,104,-56,-1,-1,0
26533,-2424832,104,-56,-1,-1,0
26566,-1703936,104,-56,-1,-1,0
26599,-589824,104,-56,-1,-1,0
26633,2686976,104,-56,-1,-1,0
26666,2490368,104,-56,-1,-1,0
26700,0,104,-56,-1,-1,0
26733,-393216,104,-56,-1,-1,0
26766,-131072,104,-56,-1,-1,0
26800,-589824,104,-56,-1,-1,0
26833,-917504,104,-56,-1,-1,0
26866,-983040,103,-56,-1,-1,0
26900,-983040,103,-56,-1,-1,0
26933,-1179648,103,-56,-1,-1,0
26966,1966080,103,-56,-1,-1,0
27000,1835008,103,-56,-1,-1,0
27033,-1835008,103,-56,-1,-1,0
27066,-1245184,103,-56,-1,-1,0
27099,393216,103,-56,-1,-1,0
27133,2752512,103,-56,-1,-1,0
27166,524288,103,-56,-1,-1,0
27200,-1048576,103,-56,-1,-1,0
27233,-851968,103,-56,-1,-1,0
27266,-786432,103,-56,-1,-1,0
27300,-1310720,103,-56,-1,-1,0
27333,-1572864,103,-56,-1,-1,0
27366,-1441792,103,-56,-1,-1,0
27400,-1507328,103,-56,-1,-1,0
27433,-1835008,103,-56,-1,-1,0
27466,12451840,103,-56,-1,-1,0
27500,-2097152,103,-56,-1,-1,0
27533,-1572864,103,-56,-1,-1,0
27566,-786432,103,-56,-1,-1,0
27599,1966080,103,-56,-1,-1,0
27633,2424832,103,-56,-1,-1,0
27666,0,103,-56,-1,-1,0
27700,-917504,103,-56,-1,-1,0
27733,-720896,103,-56,-1,-1,0
27766,-917504,103,-56,-1,-1,0
27800,-1245184,103,-56,-1,-1,0
27833,-1441792,103,-56,-1,-1,0
27866,-1441792,103,-56,-1,-1,0
27900,-1376256,102,-56,-1,-1,0
27933,-1572864,102,-56,-1,-1,0
27966,5046272,102,-56,-1,-1,0
28000,-393216,102,-56,-1,-1,0
28033,-1835008,102,-56,-1,-1,0
28066,-1114112,102,-56,-1,-1,0
28099,851968,102,-56,-1,-1,0
28133,2490368,102,-56,-1,-1,0
28166,458752,102,-56,-1,-1,0
28200,-589824,102,-56,-1,-1,0
28233,-458752,102,-56,-1,-1,0
28266,-524288,102,-56,-1,-1,0
28300,-786432,102,-56,-1,-1,0
28333,-983040,102,-56,-1,-1,0
28366,-1048576,102,-56,-1,-1,0
28400,-786432,102,-56,-1,-1,0
28433,-1114112,102,-56,-1,-1,0
28466,-1507328,102,-56,-1,-1,0
28500,10813440,102,-56,-1,-1,0
28533,-2228224,102,-56,-1,-1,0
28566,-1966080,102,-56,-1,-1,0
28599,-1179648,102,-56,-1,-1,0
28633,1114112,102,-56,-1,-1,0
28666,2097152,102,-56,-1,-1,0
28700,-65536,102,-56,-1,-1,0
28733,-1048576,102,-56,-1,-1,0
28766,-983040,102,-56,-1,-1,0
28800,-1245184,102,-56,-1,-1,0
28833,-1507328,102,-56,-1,-1,0
28866,-1507328,102,-56,-1,-1,0
28900,-1507328,102,-56,-1,-1,0
28933,-1507328,102,-56,-1,-1,0
28966,-1245184,102,-56,-1,-1,0
29000,-1572864,102,-56,-1,-1,0
29033,1114112,102,-56,-1,-1,0
29066,3997696,102,-56,-1,-1,0
29099,-1900544,102,-56,-1,-1,0
29133,-1179648,102,-56,-1,-1,0
29166,589824,102,-56,-1,-1,0
29200,3342336,102,-56,-1,-1,0
29233,1441792,102,-56,-1,-1,0
29266,-262144,102,-56,-1,-1,0
29300,-393216,102,-56,-1,-1,0
29333,-589824,102,-56,-1,-1,0
29366,-1114112,102,-56,-1,-1,0
29400,-1310720,102,-56,-1,-1,0
29433,-1507328,102,-56,-1,-1,0
29466,-1310720,102,-56,-1,-1,0
29500,-1179648,102,-56,-1,-1,0
29533,-1507328,102,-56,-1,-1,0
29566,5898240,102,-56,-1,-1,0
29599,-1310720,102,-56,-1,-1,0
29633,-1900544,102,-56,-1,-1,0
29666,-1310720,102,-56,-1,-1,0
29700,786432,102,-56,-1,-1,0
29733,2752512,102,-56,-1,-1,0
29766,524288,102,-56,-1,-1,0
29800,-851968,102,-56,-1,-1,0
29833,-720896,102,-56,-1,-1,0
29866,-851968,102,-56,-1,-1,0
29900,-1245184,102,-56,-1,-1,0
29933,-1376256,102,-56,-1,-1,0
29966,-1507328,102,-56,-1,-1,0
30000,-1310720,102,-56,-1,-1,0
30033,-1376256,102,-56,-1,-1,0
30066,-1900544,102,-56,-1,-1,0
30099,15335424,102,-56,-1,-1,0
30133,-1769472,102,-56,-1,-1,0
30166,-1376256,102,-56,-1,-1,0
30200,-327680,102,-56,-1,-1,0
30233,2490368,102,-56,-1,-1,0
30266,2359296,102,-56,-1,-1,0
30300,0,102,-56,-1,-1,0
30333,-393216,102,-56,-1,-1,0
30366,-393216,102,-56,-1,-1,0
30400,-655360,102,-56,-1,-1,0
30433,-1048576,102,-56,-1,-1,0
30466,-1245184,102,-56,-1,-1,0
30500,-1310720,102,-56,-1,-1,0
30533,-1441792,102,-56,-1,-1,0
30566,-1441792,102,-56,-1,-1,0
30599,5767168,102,-56,-1,-1,0
30633,-458752,102,-56,-1,-1,0
30666,-1638400,102,-56,-1,-1,0
30700,-1179648,102,-56,-1,-1,0
30733,851968,102,-56,-1,-1,0
30766,2424832,102,-56,-1,-1,0
30800,262144,102,-56,-1,-1,0
30833,-983040,102,-56,-1,-1,0
30866,-720896,102,-56,-1,-1,0
30900,-917504,102,-56,-1,-1,0
30933,-1114112,102,-56,-1,-1,0
30966,-1245184,102,-56,-1,-1,0
31000,-1310720,102,-56,-1,-1,0
31033,-1310720,102,-56,-1,-1,0
31066,-1572864,102,-56,-1,-1,0
31099,524288,102,-56,-1,-1,0
31133,4915200,102,-56,-1,-1,0
31166,-1900544,102,-56,-1,-1,0
31200,-1638400,102,-56,-1,-1,0
31233,65536,102,-56,-1,-1,0
31266,2228224,102,-56,-1,-1,0
31300,1114112,102,-56,-1,-1,0
31333,-786432,102,-56,-1,-1,0
31366,-786432,102,-56,-1,-1,0
31400,-655360,102,-56,-1,-1,0
31433,-1114112,102,-56,-1,-1,0
31466,-1245184,102,-56,-1,-1,0
31500,-983040,102,-56,-1,-1,0
31533,-1245184,100,-56,-1,-1,0
31566,-1376256,100,-56,-1,-1,0
31599,-1703936,100,-56,-1,-1,0
31633,12976128,100,-56,-1,-1,0
31666,-1900544,100,-56,-1,-1,0
31700,-1703936,100,-56,-1,-1,0
31733,-524288,100,-56,-1,-1,0
31766,2228224,100,-56,-1,-1,0
31800,1376256,100,-56,-1,-1,0
31833,-327680,100,-56,-1,-1,0
31866,-327680,100,-56,-1,-1,0
31900,-720896,100,-56,-1,-1,0
31933,-1114112,100,-56,-1,-1,0
31966,-1376256,100,-56,-1,-1,0
32000,-1507328,100,-56,-1,-1,0
32033,-1441792,100,-56,-1,-1,0
32066,-2097152,100,-56,-1,-1,0
32100,-2228224,100,-56,-1,-1,0
32133,11468800,100,-56,-1,-1,0
32166,-3080192,100,-56,-1,-1,0
32200,-2162688,100,-56,-1,-1,0
32233,0,100,-56,-1,-1,0
32266,2621440,100,-56,-1,-1,0
32299,1703936,100,-56,-1,-1,0
32333,-196608,100,-56,-1,-1,0
32366,-655360,100,-56,-1,-1,0
32400,-786432,100,-56,-1,-1,0
32433,-983040,100,-56,-1,-1,0
32466,-1572864,100,-56,-1,-1,0
32500,-1310720,100,-56,-1,-1,0
32533,-1048576,100,-56,-1,-1,0
32566,-1376256,100,-56,-1,-1,0
32600,4325376,100,-56,-1,-1,0
32633,-327680,100,-56,-1,-1,0
32666,-1507328,100,-56,-1,-1,0
32700,-720896,100,-56,-1,-1,0
32733,1310720,100,-56,-1,-1,0
32766,3276800,100,-56,-1,-1,0
32800,1114112,100,-56,-1,-1,0
32833,-524288,100,-56,-1,-1,0
32866,-655360,100,-56,-1,-1,0
32900,-1179648,100,-56,-1,-1,0
32933,-1441792,100,-56,-1,-1,0
32966,-1441792,100,-56,-1,-1,0
33000,-1376256,100,-56,-1,-1,0
33033,-1507328,100,-56,-1,-1,0
33066,983040,100,-56,-1,-1,0
33100,3932160,100,-56,-1,-1,0
33133,-1900544,100,-56,-1,-1,0
33166,-1441792,100,-56,-1,-1,0
33200,65536,100,-56,-1,-1,0
33233,2621440,100,-56,-1,-1,0
33266,851968,100,-56,-1,-1,0
33300,-720896,100,-56,-1,-1,0
33333,-786432,100,-56,-1,-1,0
33366,-917504,100,-56,-1,-1,0
33400,-1310720,100,-56,-1,-1,0
33433,-1507328,100,-56,-1,-1,0
33466,-1376256,100,-56,-1,-1,0
33500,-1572864,100,-56,-1,-1,0
33533,196608,100,-56,-1,-1,0
33566,5767168,100,-56,-1,-1,0
33600,-1835008,100,-56,-1,-1,0
33633,-1310720,100,-56,-1,-1,0
33666,65536,100,-56,-1,-1,0
33700,2621440,100,-56,-1,-1,0
33733,917504,100,-56,-1,-1,0
33766,-589824,100,-56,-1,-1,0
33800,-720896,100,-56,-1,-1,0
33833,-851968,100,-56,-1,-1,0
33866,-1376256,100,-56,-1,-1,0
33900,-1441792,100,-56,-1,-1,0
33933,-1507328,100,-56,-1,-1,0
33966,-1507328,100,-56,-1,-1,0
34000,-327680,100,-56,-1,-1,0
34033,7077888,100,-56,-1,-1,0
34066,-2031616,100,-56,-1,-1,0
34100,-1507328,100,-56,-1,-1,0
34133,0,100,-56,-1,-1,0
34166,2424832,100,-56,-1,-1,0
34200,917504,100,-56,-1,-1,0
34233,-524288,100,-56,-1,-1,0
34266,-589824,100,-56,-1,-1,0
34300,-786432,100,-56,-1,-1,0
34333,-1048576,100,-56,-1,-1,0
34366,-1376256,100,-56,-1,-1,0
34400,-1245184,100,-56,-1,-1,0
34433,-1376256,100,-56,-1,-1,0
34466,-1966080,100,-56,-1,-1,0
34500,15073280,100,-56,-1,-1,0
34533,-1900544,100,-56,-1,-1,0
34566,-1572864,100,-56,-1,-1,0
34600,-458752,100,-56,-1,-1,0
34633,1966080,100,-56,-1,-1,0
34666,1572864,100,-56,-1,-1,0
34700,-196608,100,-56,-1,-1,0
34733,-589824,100,-56,-1,-1,0
34766,-655360,100,-56,-1,-1,0
34800,-1048576,100,-56,-1,-1,0
34833,-1441792,100,-56,-1,-1,0
34866,-1572864,100,-56,-1,-1,0
34900,-1507328,100,-56,-1,-1,0
34933,-1703936,100,-56,-1,-1,0
34966,1376256,100,-56,-1,-1,0
35000,2031616,100,-56,-1,-1,0
35033,-2162688,100,-56,-1,-1,0
35066,-1572864,100,-56,-1,-1,0
35100,0,100,-56,-1,-1,0
35133,2097152,100,-56,-1,-1,0
35166,524288,100,-56,-1,-1,0
35200,-589824,100,-56,-1,-1,0
35233,-720896,100,-56,-1,-1,0
35266,-1048576,100,-56,-1,-1,0
35300,-1310720,100,-56,-1,-1,0
35333,-1507328,100,-56,-1,-1,0
35366,-1245184,100,-56,-1,-1,0
35400,-1310720,100,-56,-1,-1,0
35433,-1376256,100,-56,-1,-1,0
35466,6750208,100,-56,-1,-1,0
35500,-1245184,100,-56,-1,-1,0
35533,-1638400,100,-56,-1,-1,0
35566,-851968,100,-56,-1,-1,0
35600,1179648,100,-56,-1,-1,0
35633,2621440,100,-56,-1,-1,0
35666,589824,100,-56,-1,-1,0
35700,-393216,100,-56,-1,-1,0
35733,-262144,100,-56,-1,-1,0
35766,-655360,100,-56,-1,-1,0
35800,-983040,100,-56,-1,-1,0
35833,-1310720,100,-56,-1,-1,0
35866,-1245184,100,-56,-1,-1,0
35900,-1441792,100,-56,-1,-1,0
35933,-1835008,100,-56,-1,-1,0
35966,14352384,100,-56,-1,-1,0
36000,-1900544,100,-56,-1,-1,0
36033,-1638400,100,-56,-1,-1,0
36066,-720896,100,-56,-1,-1,0
36100,1769472,100,-56,-1,-1,0
36133,1572864,100,-56,-1,-1,0
36166,-327680,100,-56,-1,-1,0
36200,-786432,100,-56,-1,-1,0
36233,-589824,100,-56,-1,-1,0
36266,-1048576,100,-56,-1,-1,0
36300,-1245184,100,-56,-1,-1,0
36333,-1507328,100,-56,-1,-1,0
36366,-1441792,101,-56,-1,-1,0
36400,-1376256,101,-56,-1,-1,0
36433,-1900544,101,-56,-1,-1,0
36466,14155776,101,-56,-1,-1,0
36500,-1835008,101,-56,-1,-1,0
36533,-1507328,101,-56,-1,-1,0
36566,-393216,101,-56,-1,-1,0
36600,2097152,101,-56,-1,-1,0
36633,1638400,101,-56,-1,-1,0
36666,-131072,101,-56,-1,-1,0
36700,-524288,101,-56,-1,-1,0
36733,-458752,101,-56,-1,-1,0
36766,-851968,101,-56,-1,-1,0
36800,-1179648,101,-56,-1,-1,0
36833,-1245184,101,-56,-1,-1,0
36866,-1245184,101,-56,-1,-1,0
36900,-1245184,101,-56,-1,-1,0
36933,-1376256,101,-56,-1,-1,0
36966,1245184,101,-56,-1,-1,0
37000,3932160,101,-56,-1,-1,0
37033,-1900544,101,-56,-1,-1,0
37066,-1376256,101,-56,-1,-1,0
37100,0,101,-56,-1,-1,0
37133,2293760,101,-56,-1,-1,0
37166,655360,101,-56,-1,-1,0
37200,-524288,101,-56,-1,-1,0
37233,-524288,101,-56,-1,-1,0
37266,-524288,101,-56,-1,-1,0
37300,-917504,101,-56,-1,-1,0
37333,-1048576,101,-56,-1,-1,0
37366,-1114112,101,-56,-1,-1,0
37400,-1245184,101,-56,-1,-1,0
37433,-1048576,101,-56,-1,-1,0
37466,-1114112,101,-56,-1,-1,0
37500,-1572864,101,-56,-1,-1,0
37533,13697024,101,-56,-1,-1,0
37566,-1835008,101,-56,-1,-1,0
37600,-1638400,101,-56,-1,-1,0
37633,-917504,101,-56,-1,-1,0
37666,1048576,101,-56,-1,-1,0
37700,1966080,101,-56,-1,-1,0
37733,327680,101,-56,-1,-1,0
37766,-393216,101,-56,-1,-1,0
37800,-327680,101,-56,-1,-1,0
37833,-655360,101,-56,-1,-1,0
37866,-983040,101,-56,-1,-1,0
37900,-1114112,101,-56,-1,-1,0
37933,-1179648,101,-56,-1,-1,0
37966,-1245184,101,-56,-1,-1,0
38000,-1179648,101,-56,-1,-1,0
38033,-1114112,101,-56,-1,-1,0
38066,-1310720,101,-56,-1,-1,0
38100,5570560,101,-56,-1,-1,0
38133,-131072,101,-56,-1,-1,0
38166,-1769472,101,-56,-1,-1,0
38200,-1114112,101,-56,-1,-1,0
38233,458752,101,-56,-1,-1,0
38266,2359296,101,-56,-1,-1,0
38300,720896,101,-56,-1,-1,0
38333,-327680,101,-56,-1,-1,0
38366,-393216,101,-56,-1,-1,0
38400,-589824,101,-56,-1,-1,0
38433,-851968,101,-56,-1,-1,0
38466,-983040,101,-56,-1,-1,0
38500,-1048576,101,-56,-1,-1,0
38533,-1048576,101,-56,-1,-1,0
38566,-1245184,101,-56,-1,-1,0
38600,-917504,101,-56,-1,-1,0
38633,-1179648,101,-56,-1,-1,0
38666,-1769472,101,-56,-1,-1,0
38700,15204352,101,-56,-1,-1,0
38733,-1769472,101,-56,-1,-1,0
38766,-1507328,101,-56,-1,-1,0
38800,-589824,101,-56,-1,-1,0
38833,1835008,101,-56,-1,-1,0
38866,1769472,101,-56,-1,-1,0
38900,0,101,-56,-1,-1,0
38933,-524288,101,-56,-1,-1,0
38966,-655360,101,-56,-1,-1,0
39000,-983040,101,-56,-1,-1,0
39033,-1245184,101,-56,-1,-1,0
39066,-1376256,101,-56,-1,-1,0
39100,-1376256,101,-56,-1,-1,0
39133,-1441792,101,-56,-1,-1,0
39166,-1310720,101,-56,-1,-1,0
39200,-1179648,101,-56,-1,-1,0
39233,-1376256,101,-56,-1,-1,0
39266,458752,101,-56,-1,-1,0
39300,4915200,101,-56,-1,-1,0
39333,-1966080,101,-56,-1,-1,0
39366,-1310720,101,-56,-1,-1,0
39400,131072,101,-56,-1,-1,0
39433,2949120,101,-56,-1,-1,0
39466,1703936,101,-56,-1,-1,0
39500,0,101,-56,-1,-1,0
39533,-262144,101,-56,-1,-1,0
39566,-393216,101,-56,-1,-1,0
39600,-786432,101,-56,-1,-1,0
39633,-983040,101,-56,-1,-1,0
39666,-1114112,101,-56,-1,-1,0
39700,-1179648,101,-56,-1,-1,0
39733,-1310720,101,-56,-1,-1,0
39766,-1048576,101,-56,-1,-1,0
39800,-1310720,100,-56,-1,-1,0
39833,-1310720,100,-56,-1,-1,0
39866,10813440,100,-56,-1,-1,0
39900,-1900544,100,-56,-1,-1,0
39933,-1376256,100,-56,-1,-1,0
39966,-131072,100,-56,-1,-1,0
40000,2555904,100,-56,-1,-1,0
40033,1900544,100,-56,-1,-1,0
40066,-65536,100,-56,-1,-1,0
40100,-458752,100,-56,-1,-1,0
40133,-327680,100,-56,-1,-1,0
40166,-589824,100,-56,-1,-1,0
40200,-851968,100,-56,-1,-1,0
40233,-851968,100,-56,-1,-1,0
40266,-851968,100,-56,-1,-1,0
40300,-851968,100,-56,-1,-1,0
40333,-655360,100,-56,-1,-1,0
40366,-917504,96,-56,-1,-1,0
40400,-393216,96,-56,-1,-1,0
40433,9043968,96,-56,-1,-1,0
40466,-1638400,96,-56,-1,-1,0
40500,-1245184,96,-56,-1,-1,0
40533,-196608,96,-56,-1,-1,0
40566,2490368,96,-56,-1,-1,0
40600,1441792,96,-56,-1,-1,0
40633,-458752,96,-56,-1,-1,0
40666,-917504,96,-56,-1,-1,0
40700,-917504,96,-56,-1,-1,0
40733,-1310720,96,-56,-1,-1,0
40766,-1703936,96,-56,-1,-1,0
40800,-1835008,96,-56,-1,-1,0
40833,-1835008,96,-56,-1,-1,0
40866,-1769472,96,-56,-1,-1,0
40900,-1572864,96,-56,-1,-1,0
40933,-1966080,94,-56,-1,-1,0
40966,-131072,94,-56,-1,-1,0
41000,5177344,94,-56,-1,-1,0
41033,-2162688,94,-56,-1,-1,0
41066,-1441792,94,-56,-1,-1,0
41100,65536,94,-56,-1,-1,0
41133,3080192,94,-56,-1,-1,0
41166,1966080,94,-56,-1,-1,0
41200,65536,94,-56,-1,-1,0
41233,-196608,94,-56,-1,-1,0
41266,-262144,94,-56,-1,-1,0
41300,-655360,94,-56,-1,-1,0
41333,-851968,94,-56,-1,-1,0
41366,-1114112,94,-56,-1,-1,0
41400,-1179648,94,-56,-1,-1,0
41433,-1114112,94,-56,-1,-1,0
41466,-1376256,92,-56,-1,-1,0
41500,-1703936,92,-56,-1,-1,0
41533,13041664,92,-56,-1,-1,0
41566,-2031616,92,-56,-1,-1,0
41600,-1638400,92,-56,-1,-1,0
41633,-786432,92,-56,-1,-1,0
41666,1638400,92,-56,-1,-1,0
41700,2818048,92,-56,-1,-1,0
41733,196608,92,-56,-1,-1,0
41766,-786432,92,-56,-1,-1,0
41800,-589824,92,-56,-1,-1,0
41833,-589824,92,-56,-1,-1,0
41866,-1114112,92,-56,-1,-1,0
41900,-1245184,92,-56,-1,-1,0
41933,-1245184,92,-56,-1,-1,0
41966,-1245184,92,-56,-1,-1,0
42000,-1048576,92,-56,-1,-1,0
42033,-1179648,90,-56,-1,-1,0
42066,1769472,90,-56,-1,-1,0
42100,3538944,90,-56,-1,-1,0
42133,-1638400,90,-56,-1,-1,0
42166,-1179648,90,-56,-1,-1,0
42200,196608,90,-56,-1,-1,0
42233,2949120,90,-56,-1,-1,0
42266,1376256,90,-56,-1,-1,0
42300,-458752,90,-56,-1,-1,0
42333,-655360,90,-56,-1,-1,0
42366,-458752,90,-56,-1,-1,0
42400,-786432,90,-56,-1,-1,0
42433,-1114112,90,-56,-1,-1,0
42466,-1114112,90,-56,-1,-1,0
42500,-1114112,90,-56,-1,-1,0
42533,-1179648,90,-56,-1,-1,0
42566,-1048576,90,-56,-1,-1,0
42600,-1310720,90,-56,-1,-1,0
42633,983040,89,-56,-1,-1,0
42666,5111808,89,-56,-1,-1,0
42700,-1769472,89,-56,-1,-1,0
42733,-1245184,89,-56,-1,-1,0
42766,0,89,-56,-1,-1,0
42800,2949120,89,-56,-1,-1,0
42833,1703936,89,-56,-1,-1,0
42866,-262144,89,-56,-1,-1,0
42900,-589824,89,-56,-1,-1,0
42933,-458752,89,-56,-1,-1,0
42966,-720896,89,-56,-1,-1,0
43000,-983040,89,-56,-1,-1,0
43033,-1114112,89,-56,-1,-1,0
43066,-1048576,89,-56,-1,-1,0
43100,-1179648,89,-56,-1,-1,0
43133,-983040,89,-56,-1,-1,0
43166,-1048576,89,-56,-1,-1,0
43200,-1507328,89,-56,-1,-1,0
43233,13762560,89,-56,-1,-1,0
43266,-1638400,89,-56,-1,-1,0
43300,-1441792,89,-56,-1,-1,0
43333,-720896,89,-56,-1,-1,0
43366,1376256,89,-56,-1,-1,0
43400,2818048,89,-56,-1,-1,0
43433,524288,89,-56,-1,-1,0
43466,-524288,89,-56,-1,-1,0
43500,-458752,89,-56,-1,-1,0
43533,-524288,89,-56,-1,-1,0
43566,-786432,89,-56,-1,-1,0
43600,-1048576,89,-56,-1,-1,0
43633,-1114112,89,-56,-1,-1,0
43666,-1179648,89,-56,-1,-1,0
43700,-1376256,89,-56,-1,-1,0
43733,-1245184,89,-56,-1,-1,0
43766,-1310720,89,-56,-1,-1,0
43800,-1507328,89,-56,-1,-1,0
43833,8978432,88,-56,-1,-1,0
43866,-1703936,88,-56,-1,-1,0
43900,-1900544,88,-56,-1,-1,0
43933,-1114112,88,-56,-1,-1,0
43966,786432,88,-56,-1,-1,0
44000,3080192,88,-56,-1,-1,0
44033,1114112,88,-56,-1,-1,0
44066,-262144,88,-56,-1,-1,0
44100,0,88,-56,-1,-1,0
44133,-458752,88,-56,-1,-1,0
44166,-655360,88,-56,-1,-1,0
44200,-851968,88,-56,-1,-1,0
44233,-720896,88,-56,-1,-1,0
44266,-1310720,88,-56,-1,-1,0
44300,-1179648,88,-56,-1,-1,0
44333,-983040,88,-56,-1,-1,0
44366,-983040,88,-56,-1,-1,0
44400,-1245184,88,-56,-1,-1,0
44433,4194304,87,-56,-1,-1,0
44466,-458752,87,-56,-1,-1,0
44500,-2228224,87,-56,-1,-1,0
44533,-1507328,87,-56,-1,-1,0
44566,131072,87,-56,-1,-1,0
44600,2752512,87,-56,-1,-1,0
44633,1245184,87,-56,-1,-1,0
44666,-655360,87,-56,-1,-1,0
44700,-917504,87,-56,-1,-1,0
44733,-983040,87,-56,-1,-1,0
44766,-1114112,87,-56,-1,-1,0
44800,-1441792,87,-56,-1,-1,0
44833,-1441792,87,-56,-1,-1,0
44866,-1376256,87,-56,-1,-1,0
44900,-1376256,87,-56,-1,-1,0
44933,-1179648,87,-56,-1,-1,0
44966,-1114112,87,-56,-1,-1,0
45000,-1507328,87,-56,-1,-1,0
45033,1835008,87,-56,-1,-1,0
45066,1572864,87,-56,-1,-1,0
45100,-2097152,87,-56,-1,-1,0
45133,-1507328,87,-56,-1,-1,0
45166,0,87,-56,-1,-1,0
45200,3080192,87,-56,-1,-1,0
45233,1769472,87,-56,-1,-1,0
45266,-196608,87,-56,-1,-1,0
45300,-589824,87,-56,-1,-1,0
45333,-524288,87,-56,-1,-1,0
45366,-851968,87,-56,-1,-1,0
45400,-1048576,87,-56,-1,-1,0
45433,-1048576,87,-56,-1,-1,0
45466,-1114112,87,-56,-1,-1,0
45500,-1245184,87,-56,-1,-1,0
45533,-917504,87,-56,-1,-1,0
45566,-1310720,86,-56,-1,-1,0
45600,-1507328,86,-56,-1,-1,0
45633,11993088,86,-56,-1,-1,0
45666,-1966080,86,-56,-1,-1,0
45700,-1310720,86,-56,-1,-1,0
45733,-327680,86,-56,-1,-1,0
45766,2621440,86,-56,-1,-1,0
45800,2949120,86,-56,-1,-1,0
45833,524288,86,-56,-1,-1,0
45866,-327680,86,-56,-1,-1,0
45900,-196608,86,-56,-1,-1,0
45933,-524288,86,-56,-1,-1,0
45966,-917504,86,-56,-1,-1,0
46000,-1114112,86,-56,-1,-1,0
46033,-1048576,86,-56,-1,-1,0
46066,-983040,86,-56,-1,-1,0
46100,-917504,86,-56,-1,-1,0
46133,-1245184,87,-56,-1,-1,0
46166,1703936,87,-56,-1,-1,0
46200,3538944,87,-56,-1,-1,0
46233,-1638400,87,-56,-1,-1,0
46266,-1245184,87,-56,-1,-1,0
46300,131072,87,-56,-1,-1,0
46333,3145728,87,-56,-1,-1,0
46366,1769472,87,-56,-1,-1,0
46400,-327680,87,-56,-1,-1,0
46433,-720896,87,-56,-1,-1,0
46466,-458752,87,-56,-1,-1,0
46500,-851968,87,-56,-1,-1,0
46533,-1114112,87,-56,-1,-1,0
46566,-1245184,87,-56,-1,-1,0
46600,-1310720,87,-56,-1,-1,0
46633,-1114112,87,-56,-1,-1,0
46666,-1114112,87,-56,-1,-1,0
46700,-1376256,87,-56,-1,-1,0
46733,5636096,87,-56,-1,-1,0
46766,-393216,87,-56,-1,-1,0
46800,-1835008,87,-56,-1,-1,0
46833,-1245184,87,-56,-1,-1,0
46866,262144,87,-56,-1,-1,0
46900,2949120,87,-56,-1,-1,0
46933,1245184,87,-56,-1,-1,0
46966,-524288,87,-56,-1,-1,0
47000,-524288,87,-56,-1,-1,0
47033,-524288,87,-56,-1,-1,0
47066,-720896,87,-56,-1,-1,0
47100,-720896,87,-56,-1,-1,0
47133,-917504,87,-56,-1,-1,0
47166,-983040,87,-56,-1,-1,0
47200,-786432,87,-56,-1,-1,0
47233,-983040,87,-56,-1,-1,0
47266,-1310720,88,-56,-1,-1,0
47300,7274496,88,-56,-1,-1,0
47333,-851968,88,-56,-1,-1,0
47366,-1703936,88,-56,-1,-1,0
47400,-1245184,88,-56,-1,-1,0
47433,720896,88,-56,-1,-1,0
47466,2949120,88,-56,-1,-1,0
47500,1114112,88,-56,-1,-1,0
47533,-524288,88,-56,-1,-1,0
47566,-851968,88,-56,-1,-1,0
47600,-983040,88,-56,-1,-1,0
47633,-1179648,88,-56,-1,-1,0
47666,-1900544,88,-56,-1,-1,0
47700,-2097152,88,-56,-1,-1,0
47733,-2097152,88,-56,-1,-1,0
47766,-2031616,88,-56,-1,-1,0
47800,-1835008,88,-56,-1,-1,0
47833,-2097152,88,-56,-1,-1,0
47866,-524288,88,-56,-1,-1,0
47900,4587520,88,-56,-1,-1,0
47933,-2162688,88,-56,-1,-1,0
47966,-1835008,88,-56,-1,-1,0
48000,-196608,88,-56,-1,-1,0
48033,2555904,88,-56,-1,-1,0
48066,1638400,88,-56,-1,-1,0
48100,-524288,88,-56,-1,-1,0
48133,-655360,88,-56,-1,-1,0
48166,720896,88,-56,-1,-1,0
48200,-458752,88,-56,-1,-1,0
48233,-524288,88,-56,-1,-1,0
48266,-851968,88,-56,-1,-1,0
48300,-983040,88,-56,-1,-1,0
48333,-720896,88,-56,-1,-1,0
48366,-458752,88,-56,-1,-1,0
48400,-1310720,88,-56,-1,-1,0
48433,-1966080,87,-56,-1,-1,0
48466,14286848,87,-56,-1,-1,0
48500,-2162688,87,-56,-1,-1,0
48533,-1769472,87,-56,-1,-1,0
48566,0,87,-56,-1,-1,0
48600,3145728,87,-56,-1,-1,0
48633,3080192,87,-56,-1,-1,0
48666,655360,87,-56,-1,-1,0
48700,-262144,87,-56,-1,-1,0
48733,-262144,87,-56,-1,-1,0
48766,-393216,87,-56,-1,-1,0
48800,-655360,87,-56,-1,-1,0
48833,-1114112,87,-56,-1,-1,0
48866,-1114112,87,-56,-1,-1,0
48900,-1376256,87,-56,-1,-1,0
48933,-1179648,87,-56,-1,-1,0
48966,-1310720,87,-56,-1,-1,0
49000,-1900544,87,-56,-1,-1,0
49033,14483456,87,-56,-1,-1,0
49066,-2097152,87,-56,-1,-1,0
49100,-1703936,87,-56,-1,-1,0
49133,-917504,87,-56,-1,-1,0
49166,1310720,87,-56,-1,-1,0
49200,2883584,87,-56,-1,-1,0
49233,65536,87,-56,-1,-1,0
49266,-1048576,87,-56,-1,-1,0
49300,-786432,87,-56,-1,-1,0
49333,-524288,87,-56,-1,-1,0
49366,-983040,87,-56,-1,-1,0
49400,-1179648,87,-56,-1,-1,0
49433,-1245184,87,-56,-1,-1,0
49466,-1310720,87,-56,-1,-1,0
49500,-1179648,87,-56,-1,-1,0
49533,-1245184,87,-56,-1,-1,0
49566,-1572864,87,-56,-1,-1,0
49600,11010048,87,-56,-1,-1,0
49633,-1900544,87,-56,-1,-1,0
49666,-1835008,87,-56,-1,-1,0
49700,-1310720,87,-56,-1,-1,0
49733,655360,87,-56,-1,-1,0
49766,2949120,87,-56,-1,-1,0
49800,720896,87,-56,-1,-1,0
49833,-720896,87,-56,-1,-1,0
49866,-655360,87,-56,-1,-1,0
49900,-524288,87,-56,-1,-1,0
49933,-786432,87,-56,-1,-1,0
49966,-1048576,87,-56,-1,-1,0
50000,-1048576,87,-56,-1,-1,0
