milliseconds, ECG, ECG HR, PPG, PPG HR, SpO2, PI,Landmark_0,Landmark_1,Landmark_2,Landmark_3,Landmark_4,Landmark_5,Landmark_6,Landmark_7,Landmark_8,Landmark_9,Landmark_10,Landmark_11,Landmark_12,Landmark_13,Landmark_14,Landmark_15,Landmark_16,Landmark_17,Landmark_18,Landmark_19,Landmark_20,Landmark_21,Landmark_22,Landmark_23,Landmark_24,Landmark_25,Landmark_26,Landmark_27,Landmark_28,Landmark_29,Landmark_30,Landmark_31,Landmark_32,Landmark_33,Landmark_34,Landmark_35,Landmark_36,Landmark_37,Landmark_38,Landmark_39,Landmark_40,Landmark_41,Landmark_42,Landmark_43,Landmark_44,Landmark_45,Landmark_46,Landmark_47,Landmark_48,Landmark_49,Landmark_50,Landmark_51,Landmark_52,Landmark_53,Landmark_54,Landmark_55,Landmark_56,Landmark_57,Landmark_58,Landmark_59,Landmark_60,Landmark_61,Landmark_62,Landmark_63,Landmark_64,Landmark_65,Landmark_66,Landmark_67,EyeAspectRatio,MouthAspectRatio,LightIntensity,FaceWidthRatio,EyebrowHeight,LipsWidthRatio,LipsHeightRatio,EyeOpening,NoseWidthRatio,NoseHeightRatio,AvgRedForehead,AvgGreenForehead,AvgBlueForehead,AvgRedLips,AvgGreenLips,AvgBlueLips,AvgRedCheeks,AvgGreenCheeks,AvgBlueCheeks
0,1507328,126,-56,-1,-1,0,"(1254, 346)","(1261, 374)","(1269, 403)","(1282, 428)","(1302, 449)","(1328, 463)","(1357, 472)","(1386, 477)","(1410, 473)","(1429, 462)","(1438, 442)","(1445, 421)","(1448, 398)","(1449, 375)","(1447, 354)","(1442, 333)","(1434, 315)","(1298, 328)","(1311, 314)","(1329, 306)","(1349, 303)","(1368, 306)","(1393, 302)","(1403, 293)","(1414, 288)","(1425, 286)","(1431, 294)","(1386, 322)","(1392, 336)","(1399, 350)","(1406, 365)","(1380, 382)","(1391, 383)","(1403, 384)","(1411, 379)","(1417, 372)","(1324, 337)","(1334, 329)","(1346, 326)","(1356, 331)","(1347, 336)","(1336, 338)","(1398, 321)","(1406, 312)","(1415, 310)","(1423, 314)","(1418, 319)","(1408, 321)","(1360, 419)","(1378, 409)","(1394, 403)","(1404, 403)","(1411, 399)","(1420, 398)","(1426, 401)","(1423, 413)","(1416, 420)","(1408, 424)","(1398, 426)","(1381, 425)","(1367, 418)","(1395, 410)","(1405, 409)","(1412, 406)","(1422, 403)","(1414, 410)","(1406, 413)","(1397, 415)",0.36,0.57,46.0,0.32,-0.25,0.36,0.02,-7.0,0.17,0.28,21.6,30.8,62.4,10.2,14.4,39.0,16.29,24.17,43.23
33,851968,126,-56,-1,-1,0,"(1243, 354)","(1242, 376)","(1242, 397)","(1244, 419)","(1250, 440)","(1260, 459)","(1274, 476)","(1289, 491)","(1308, 497)","(1330, 495)","(1352, 484)","(1373, 470)","(1390, 453)","(1402, 431)","(1406, 407)","(1410, 382)","(1411, 357)","(1246, 351)","(1255, 344)","(1269, 345)","(1283, 350)","(1296, 357)","(1320, 358)","(1337, 352)","(1354, 348)","(1373, 350)","(1387, 358)","(1306, 370)","(1304, 386)","(1301, 402)","(1298, 419)","(1286, 422)","(1293, 427)","(1302, 431)","(1312, 427)","(1323, 424)","(1263, 366)","(1271, 363)","(1281, 364)","(1291, 369)","(1280, 372)","(1270, 371)","(1334, 371)","(1344, 367)","(1355, 367)","(1365, 370)","(1355, 375)","(1344, 374)","(1278, 442)","(1287, 443)","(1296, 444)","(1304, 447)","(1313, 445)","(1327, 445)","(1344, 446)","(1328, 455)","(1314, 459)","(1305, 459)","(1296, 458)","(1287, 452)","(1283, 444)","(1296, 449)","(1304, 450)","(1314, 450)","(1338, 447)","(1314, 450)","(1305, 450)","(1296, 448)",0.24,1.08,59.0,0.35,0.05,0.39,0.01,-8.5,0.1,0.38,24.6,37.8,79.6,20.75,30.5,89.2,17.41,29.88,61.7
66,-262144,126,-56,-1,-1,0,"(1237, 340)","(1235, 363)","(1236, 385)","(1237, 407)","(1243, 429)","(1253, 449)","(1266, 467)","(1281, 485)","(1301, 493)","(1324, 493)","(1347, 482)","(1371, 469)","(1390, 451)","(1404, 428)","(1411, 403)","(1417, 377)","(1421, 350)","(1238, 335)","(1249, 329)","(1264, 333)","(1278, 339)","(1292, 347)","(1320, 349)","(1339, 344)","(1358, 341)","(1377, 343)","(1394, 351)","(1304, 361)","(1301, 378)","(1298, 397)","(1294, 415)","(1281, 415)","(1288, 421)","(1297, 426)","(1308, 422)","(1319, 419)","(1254, 349)","(1264, 346)","(1276, 348)","(1286, 357)","(1274, 359)","(1262, 357)","(1334, 362)","(1345, 355)","(1358, 355)","(1369, 361)","(1359, 367)","(1345, 366)","(1270, 435)","(1281, 437)","(1291, 438)","(1299, 442)","(1309, 440)","(1324, 441)","(1342, 442)","(1324, 451)","(1309, 454)","(1299, 453)","(1290, 451)","(1281, 446)","(1276, 437)","(1290, 443)","(1299, 445)","(1309, 445)","(1335, 443)","(1309, 444)","(1300, 444)","(1291, 441)",0.32,1.02,59.0,0.36,0.12,0.39,0.01,-12.5,0.08,0.4,27.1,43.9,84.8,21.95,31.0,88.9,9.64,18.47,37.88
100,-655360,126,-56,-1,-1,0,"(1239, 334)","(1236, 357)","(1235, 379)","(1236, 401)","(1240, 423)","(1250, 443)","(1263, 462)","(1278, 479)","(1297, 487)","(1320, 487)","(1344, 478)","(1369, 465)","(1388, 447)","(1403, 424)","(1410, 399)","(1416, 373)","(1420, 345)","(1237, 326)","(1247, 321)","(1261, 324)","(1275, 331)","(1289, 340)","(1318, 343)","(1337, 337)","(1356, 334)","(1377, 335)","(1393, 344)","(1301, 356)","(1297, 373)","(1293, 391)","(1290, 409)","(1277, 410)","(1284, 416)","(1293, 420)","(1304, 418)","(1315, 415)","(1252, 343)","(1261, 339)","(1274, 341)","(1284, 352)","(1272, 354)","(1259, 352)","(1332, 357)","(1344, 349)","(1357, 350)","(1369, 356)","(1358, 363)","(1344, 362)","(1269, 431)","(1278, 432)","(1287, 433)","(1295, 437)","(1304, 435)","(1319, 438)","(1337, 439)","(1319, 447)","(1304, 450)","(1294, 449)","(1286, 447)","(1278, 441)","(1274, 433)","(1287, 439)","(1295, 441)","(1304, 441)","(1330, 440)","(1304, 440)","(1295, 439)","(1287, 437)",0.35,1.11,59.0,0.38,0.13,0.37,0.01,-14.5,0.07,0.4,29.4,45.3,85.5,22.25,30.65,88.45,11.76,21.11,42.64
133,-1048576,126,-56,-1,-1,0,"(1242, 336)","(1238, 356)","(1236, 378)","(1236, 400)","(1239, 421)","(1247, 441)","(1258, 459)","(1270, 477)","(1289, 486)","(1312, 487)","(1336, 478)","(1360, 467)","(1381, 450)","(1395, 428)","(1403, 404)","(1409, 377)","(1413, 351)","(1243, 326)","(1250, 320)","(1263, 321)","(1275, 327)","(1287, 335)","(1315, 338)","(1333, 333)","(1351, 332)","(1370, 335)","(1384, 345)","(1298, 350)","(1293, 366)","(1289, 382)","(1284, 399)","(1273, 402)","(1280, 408)","(1287, 412)","(1298, 410)","(1308, 408)","(1255, 341)","(1263, 337)","(1274, 339)","(1283, 348)","(1272, 349)","(1261, 348)","(1327, 354)","(1338, 347)","(1350, 348)","(1360, 355)","(1350, 359)","(1338, 358)","(1265, 426)","(1273, 426)","(1281, 427)","(1289, 431)","(1298, 429)","(1312, 433)","(1329, 436)","(1312, 443)","(1297, 444)","(1287, 443)","(1279, 441)","(1272, 436)","(1269, 428)","(1281, 433)","(1288, 435)","(1298, 435)","(1323, 436)","(1297, 435)","(1288, 434)","(1281, 431)",0.33,1.15,59.0,0.36,0.15,0.37,0.01,-12.0,0.05,0.36,27.7,41.4,80.4,20.55,31.65,89.1,15.7,25.17,48.76
166,-1376256,126,-56,-1,-1,0,"(1240, 332)","(1236, 353)","(1234, 374)","(1234, 395)","(1237, 416)","(1245, 436)","(1256, 455)","(1268, 473)","(1287, 481)","(1309, 482)","(1334, 475)","(1360, 463)","(1382, 447)","(1398, 425)","(1408, 400)","(1414, 374)","(1420, 346)","(1240, 321)","(1247, 315)","(1260, 317)","(1272, 323)","(1284, 331)","(1310, 334)","(1329, 329)","(1348, 328)","(1368, 332)","(1384, 342)","(1294, 347)","(1289, 363)","(1284, 380)","(1279, 397)","(1269, 398)","(1275, 405)","(1283, 409)","(1294, 407)","(1305, 404)","(1253, 337)","(1261, 334)","(1272, 336)","(1281, 344)","(1270, 345)","(1260, 344)","(1325, 350)","(1335, 344)","(1347, 346)","(1358, 352)","(1347, 356)","(1335, 354)","(1262, 421)","(1270, 422)","(1278, 423)","(1285, 426)","(1294, 425)","(1309, 428)","(1327, 431)","(1309, 438)","(1294, 440)","(1284, 439)","(1276, 436)","(1269, 431)","(1267, 423)","(1277, 428)","(1285, 431)","(1294, 431)","(1320, 431)","(1294, 430)","(1285, 429)","(1277, 427)",0.3,1.19,59.0,0.34,0.16,0.36,0.0,-11.5,0.06,0.37,22.3,36.1,73.9,21.9,31.35,88.9,11.23,20.47,41.76
200,-1179648,126,-56,-1,-1,0,"(1242, 325)","(1236, 346)","(1233, 367)","(1232, 388)","(1235, 410)","(1242, 430)","(1253, 449)","(1265, 468)","(1283, 477)","(1306, 479)","(1332, 472)","(1359, 460)","(1380, 443)","(1397, 421)","(1406, 396)","(1413, 369)","(1417, 342)","(1237, 310)","(1246, 305)","(1259, 309)","(1271, 316)","(1282, 326)","(1308, 330)","(1328, 324)","(1348, 322)","(1368, 326)","(1384, 336)","(1292, 343)","(1287, 359)","(1282, 374)","(1276, 391)","(1267, 394)","(1273, 400)","(1281, 404)","(1291, 403)","(1302, 401)","(1249, 331)","(1257, 327)","(1269, 330)","(1279, 339)","(1267, 341)","(1255, 339)","(1322, 346)","(1334, 340)","(1347, 342)","(1358, 348)","(1347, 353)","(1334, 352)","(1261, 418)","(1268, 418)","(1276, 418)","(1282, 422)","(1291, 421)","(1306, 425)","(1324, 429)","(1305, 435)","(1290, 437)","(1281, 436)","(1273, 433)","(1267, 428)","(1266, 420)","(1275, 425)","(1282, 427)","(1291, 428)","(1317, 429)","(1291, 427)","(1282, 426)","(1275, 423)",0.31,1.26,59.0,0.38,0.2,0.36,0.01,-13.5,0.05,0.35,34.2,48.1,90.4,21.35,31.9,88.6,12.0,21.17,41.23
233,-1441792,126,-56,-1,-1,0,"(1242, 323)","(1236, 344)","(1233, 364)","(1232, 385)","(1234, 407)","(1241, 427)","(1251, 446)","(1262, 465)","(1279, 475)","(1302, 477)","(1329, 470)","(1356, 459)","(1379, 443)","(1396, 421)","(1407, 395)","(1413, 368)","(1418, 340)","(1237, 308)","(1245, 303)","(1257, 306)","(1268, 313)","(1279, 322)","(1305, 326)","(1324, 321)","(1344, 320)","(1364, 324)","(1381, 334)","(1288, 340)","(1283, 356)","(1278, 372)","(1272, 388)","(1263, 391)","(1269, 398)","(1276, 402)","(1287, 401)","(1298, 399)","(1249, 328)","(1257, 325)","(1268, 327)","(1277, 337)","(1266, 338)","(1255, 336)","(1320, 344)","(1331, 338)","(1343, 340)","(1354, 347)","(1343, 351)","(1330, 349)","(1258, 415)","(1264, 415)","(1272, 416)","(1278, 420)","(1287, 419)","(1302, 422)","(1321, 426)","(1301, 432)","(1286, 434)","(1277, 432)","(1269, 430)","(1263, 424)","(1263, 417)","(1271, 422)","(1278, 424)","(1287, 425)","(1314, 426)","(1286, 424)","(1278, 423)","(1271, 420)",0.32,1.3,59.0,0.35,0.21,0.35,0.01,-13.0,0.05,0.35,31.3,45.3,84.8,20.15,30.25,86.15,11.05,20.76,40.41
266,-786432,126,-56,-1,-1,0,"(1242, 324)","(1236, 343)","(1233, 364)","(1231, 385)","(1234, 406)","(1240, 426)","(1249, 445)","(1260, 464)","(1278, 474)","(1301, 476)","(1328, 469)","(1355, 458)","(1378, 442)","(1396, 420)","(1406, 395)","(1412, 368)","(1417, 340)","(1237, 307)","(1245, 302)","(1256, 306)","(1268, 313)","(1278, 321)","(1303, 325)","(1322, 320)","(1342, 319)","(1362, 323)","(1378, 333)","(1287, 339)","(1282, 354)","(1276, 369)","(1270, 385)","(1262, 388)","(1268, 395)","(1275, 399)","(1286, 398)","(1297, 396)","(1249, 327)","(1257, 324)","(1268, 326)","(1276, 335)","(1265, 336)","(1255, 334)","(1319, 342)","(1329, 336)","(1342, 339)","(1352, 345)","(1341, 349)","(1329, 347)","(1257, 413)","(1263, 413)","(1270, 413)","(1277, 417)","(1286, 416)","(1301, 420)","(1319, 425)","(1300, 430)","(1284, 431)","(1275, 430)","(1268, 427)","(1262, 422)","(1261, 415)","(1270, 420)","(1276, 422)","(1285, 423)","(1312, 425)","(1285, 422)","(1276, 420)","(1269, 418)",0.31,1.31,59.0,0.34,0.21,0.35,0.0,-12.5,0.05,0.34,28.2,40.8,80.0,20.95,30.45,87.8,12.05,21.05,41.64
300,7602176,126,-56,-1,-1,0,"(1243, 321)","(1237, 341)","(1233, 362)","(1232, 384)","(1234, 405)","(1240, 426)","(1250, 445)","(1260, 464)","(1278, 473)","(1300, 475)","(1328, 468)","(1355, 457)","(1378, 441)","(1396, 419)","(1406, 393)","(1413, 366)","(1418, 338)","(1238, 305)","(1246, 300)","(1257, 304)","(1268, 311)","(1278, 319)","(1304, 323)","(1322, 318)","(1342, 317)","(1362, 321)","(1378, 331)","(1288, 336)","(1282, 352)","(1276, 368)","(1269, 384)","(1262, 387)","(1268, 393)","(1275, 398)","(1285, 396)","(1295, 394)","(1250, 324)","(1257, 320)","(1268, 323)","(1277, 332)","(1266, 334)","(1255, 331)","(1319, 339)","(1329, 332)","(1342, 335)","(1352, 341)","(1341, 346)","(1329, 345)","(1257, 412)","(1263, 411)","(1270, 412)","(1276, 415)","(1285, 415)","(1301, 418)","(1319, 423)","(1300, 428)","(1284, 429)","(1275, 428)","(1268, 425)","(1262, 420)","(1262, 413)","(1269, 418)","(1276, 420)","(1285, 421)","(1312, 423)","(1285, 420)","(1276, 419)","(1269, 416)",0.36,1.37,59.0,0.34,0.21,0.35,0.0,-14.0,0.04,0.35,26.7,40.9,80.5,20.55,30.0,86.45,13.47,22.64,44.11
333,-1769472,126,-56,-1,-1,0,"(1243, 325)","(1236, 344)","(1233, 365)","(1232, 385)","(1234, 405)","(1240, 425)","(1249, 444)","(1260, 463)","(1277, 471)","(1300, 473)","(1327, 466)","(1354, 456)","(1378, 441)","(1396, 419)","(1406, 394)","(1412, 367)","(1417, 340)","(1240, 309)","(1247, 304)","(1257, 305)","(1268, 311)","(1279, 319)","(1301, 321)","(1320, 317)","(1340, 316)","(1360, 321)","(1375, 331)","(1286, 336)","(1281, 351)","(1274, 366)","(1268, 381)","(1261, 385)","(1267, 391)","(1274, 396)","(1284, 394)","(1295, 392)","(1252, 328)","(1259, 325)","(1269, 326)","(1277, 334)","(1267, 336)","(1258, 334)","(1317, 340)","(1327, 334)","(1339, 336)","(1349, 342)","(1338, 346)","(1327, 344)","(1257, 411)","(1261, 410)","(1268, 410)","(1275, 413)","(1284, 413)","(1299, 416)","(1318, 422)","(1299, 426)","(1283, 427)","(1274, 426)","(1267, 424)","(1261, 419)","(1261, 412)","(1268, 416)","(1275, 418)","(1284, 419)","(1311, 421)","(1284, 418)","(1275, 417)","(1268, 415)",0.31,1.43,59.0,0.33,0.19,0.35,0.0,-11.5,0.05,0.33,22.9,36.2,74.3,20.8,29.65,86.1,12.88,23.58,45.88
366,-1245184,126,-56,-1,-1,0,"(1242, 320)","(1236, 340)","(1233, 361)","(1231, 383)","(1234, 404)","(1240, 424)","(1249, 443)","(1260, 461)","(1277, 471)","(1300, 473)","(1327, 466)","(1355, 455)","(1378, 439)","(1396, 417)","(1406, 391)","(1413, 364)","(1418, 336)","(1238, 305)","(1246, 300)","(1257, 303)","(1267, 309)","(1278, 318)","(1302, 321)","(1321, 316)","(1341, 315)","(1361, 319)","(1377, 330)","(1287, 335)","(1281, 350)","(1275, 366)","(1269, 382)","(1262, 385)","(1267, 391)","(1274, 396)","(1285, 394)","(1295, 392)","(1251, 323)","(1258, 320)","(1268, 322)","(1277, 331)","(1266, 332)","(1256, 330)","(1318, 338)","(1328, 331)","(1341, 333)","(1351, 340)","(1340, 344)","(1328, 343)","(1257, 410)","(1262, 409)","(1269, 410)","(1276, 413)","(1285, 413)","(1300, 416)","(1318, 421)","(1300, 426)","(1284, 427)","(1275, 426)","(1267, 423)","(1261, 418)","(1261, 411)","(1269, 415)","(1276, 418)","(1285, 419)","(1312, 420)","(1285, 418)","(1276, 417)","(1269, 414)",0.34,1.37,59.0,0.34,0.21,0.34,0.0,-12.5,0.04,0.34,25.1,38.6,77.8,20.55,29.7,85.45,12.7,21.0,40.58
400,65536,126,-56,-1,-1,0,"(1243, 319)","(1236, 339)","(1233, 359)","(1231, 381)","(1233, 402)","(1239, 423)","(1248, 442)","(1259, 460)","(1276, 470)","(1299, 472)","(1327, 465)","(1354, 455)","(1378, 439)","(1396, 417)","(1406, 392)","(1414, 365)","(1419, 337)","(1238, 302)","(1246, 297)","(1257, 300)","(1268, 307)","(1278, 316)","(1303, 320)","(1322, 315)","(1342, 314)","(1362, 318)","(1378, 329)","(1287, 333)","(1281, 349)","(1274, 364)","(1268, 380)","(1260, 384)","(1266, 390)","(1273, 395)","(1284, 393)","(1295, 391)","(1250, 322)","(1257, 318)","(1268, 320)","(1276, 330)","(1265, 331)","(1255, 329)","(1318, 337)","(1329, 331)","(1341, 333)","(1352, 340)","(1341, 344)","(1328, 342)","(1256, 409)","(1261, 408)","(1268, 409)","(1275, 412)","(1284, 412)","(1299, 415)","(1318, 420)","(1299, 425)","(1283, 426)","(1274, 425)","(1266, 422)","(1260, 417)","(1260, 411)","(1268, 415)","(1275, 417)","(1284, 418)","(1311, 420)","(1284, 417)","(1275, 416)","(1268, 413)",0.32,1.38,59.0,0.34,0.22,0.35,0.0,-13.0,0.04,0.34,27.0,41.7,80.2,20.1,28.65,84.75,12.11,20.52,39.23
433,1507328,126,-56,-1,-1,0,"(1243, 318)","(1237, 338)","(1233, 359)","(1232, 381)","(1233, 402)","(1239, 422)","(1248, 442)","(1259, 461)","(1276, 470)","(1299, 472)","(1327, 465)","(1354, 454)","(1378, 438)","(1396, 416)","(1407, 391)","(1414, 364)","(1420, 336)","(1238, 303)","(1245, 299)","(1256, 302)","(1267, 308)","(1278, 317)","(1303, 320)","(1322, 315)","(1343, 314)","(1362, 319)","(1378, 330)","(1287, 334)","(1281, 349)","(1275, 364)","(1268, 380)","(1261, 383)","(1266, 390)","(1273, 394)","(1284, 393)","(1295, 391)","(1250, 322)","(1257, 318)","(1268, 321)","(1277, 330)","(1266, 331)","(1255, 329)","(1318, 337)","(1329, 331)","(1341, 333)","(1352, 340)","(1341, 344)","(1329, 342)","(1256, 409)","(1261, 408)","(1268, 408)","(1275, 412)","(1284, 411)","(1299, 415)","(1317, 420)","(1298, 425)","(1283, 426)","(1273, 425)","(1266, 422)","(1260, 417)","(1260, 410)","(1268, 414)","(1274, 417)","(1283, 417)","(1310, 420)","(1283, 417)","(1274, 416)","(1268, 413)",0.32,1.36,59.0,0.35,0.23,0.34,0.0,-13.0,0.04,0.33,26.5,38.9,75.3,20.95,29.95,85.2,12.76,21.29,40.64
466,655360,126,-56,-1,-1,0,"(1242, 318)","(1236, 338)","(1233, 359)","(1231, 380)","(1233, 402)","(1239, 422)","(1249, 441)","(1259, 460)","(1277, 469)","(1300, 471)","(1327, 464)","(1355, 454)","(1378, 438)","(1396, 416)","(1406, 391)","(1414, 363)","(1419, 335)","(1238, 303)","(1245, 298)","(1257, 301)","(1268, 308)","(1278, 316)","(1303, 319)","(1322, 315)","(1342, 314)","(1362, 319)","(1378, 329)","(1287, 333)","(1281, 349)","(1275, 364)","(1269, 380)","(1261, 383)","(1266, 390)","(1274, 394)","(1284, 393)","(1295, 391)","(1250, 322)","(1257, 319)","(1268, 321)","(1276, 330)","(1266, 331)","(1255, 329)","(1318, 337)","(1328, 331)","(1341, 333)","(1351, 339)","(1340, 343)","(1328, 342)","(1256, 409)","(1262, 408)","(1269, 409)","(1275, 412)","(1284, 412)","(1299, 415)","(1317, 420)","(1298, 425)","(1283, 426)","(1274, 425)","(1267, 422)","(1261, 417)","(1261, 410)","(1268, 414)","(1275, 417)","(1284, 418)","(1310, 420)","(1283, 417)","(1275, 416)","(1268, 413)",0.31,1.34,59.0,0.33,0.22,0.34,0.0,-12.0,0.04,0.34,26.6,39.4,76.8,19.4,28.25,83.75,12.47,20.58,38.41
500,-327680,126,-56,-1,-1,0,"(1242, 319)","(1237, 339)","(1233, 360)","(1232, 382)","(1234, 404)","(1240, 424)","(1249, 443)","(1260, 461)","(1278, 470)","(1301, 471)","(1328, 464)","(1355, 454)","(1378, 438)","(1396, 416)","(1406, 391)","(1413, 364)","(1419, 336)","(1238, 304)","(1245, 299)","(1257, 302)","(1268, 308)","(1279, 317)","(1303, 320)","(1322, 315)","(1343, 314)","(1363, 318)","(1379, 329)","(1288, 333)","(1282, 349)","(1276, 364)","(1269, 381)","(1262, 383)","(1267, 390)","(1274, 394)","(1285, 393)","(1296, 391)","(1250, 322)","(1257, 318)","(1268, 320)","(1277, 330)","(1266, 332)","(1255, 330)","(1319, 337)","(1329, 329)","(1342, 332)","(1353, 338)","(1342, 343)","(1329, 342)","(1257, 410)","(1262, 409)","(1269, 409)","(1276, 413)","(1285, 412)","(1300, 415)","(1318, 420)","(1299, 425)","(1284, 426)","(1275, 425)","(1268, 422)","(1262, 418)","(1262, 411)","(1269, 415)","(1276, 417)","(1285, 418)","(1311, 420)","(1285, 417)","(1276, 416)","(1269, 414)",0.35,1.36,59.0,0.34,0.2,0.34,0.01,-14.0,0.04,0.35,29.7,42.1,79.3,18.8,27.3,84.25,12.41,21.58,42.58
533,-720896,125,-56,-1,-1,0,"(1241, 327)","(1235, 346)","(1232, 366)","(1231, 386)","(1233, 407)","(1239, 426)","(1248, 444)","(1258, 462)","(1276, 471)","(1298, 473)","(1323, 466)","(1349, 457)","(1371, 442)","(1387, 422)","(1396, 397)","(1403, 371)","(1408, 345)","(1238, 310)","(1245, 303)","(1257, 304)","(1268, 310)","(1278, 318)","(1304, 321)","(1322, 316)","(1341, 315)","(1360, 321)","(1374, 333)","(1288, 334)","(1283, 348)","(1277, 362)","(1271, 378)","(1263, 383)","(1268, 389)","(1275, 393)","(1286, 392)","(1296, 390)","(1250, 326)","(1257, 322)","(1268, 324)","(1276, 332)","(1266, 334)","(1256, 332)","(1317, 338)","(1328, 332)","(1339, 334)","(1349, 341)","(1339, 344)","(1327, 343)","(1256, 410)","(1262, 409)","(1269, 409)","(1276, 412)","(1285, 411)","(1300, 416)","(1318, 421)","(1300, 426)","(1285, 427)","(1275, 426)","(1268, 424)","(1261, 419)","(1261, 412)","(1269, 415)","(1276, 417)","(1285, 418)","(1311, 421)","(1285, 418)","(1276, 417)","(1269, 414)",0.32,1.33,59.0,0.35,0.18,0.37,0.01,-12.0,0.04,0.32,24.2,35.8,72.7,19.35,29.15,85.35,14.35,23.76,43.88
566,-1179648,125,-56,-1,-1,0,"(1241, 327)","(1234, 346)","(1231, 366)","(1230, 387)","(1233, 407)","(1239, 426)","(1248, 445)","(1258, 463)","(1276, 472)","(1299, 473)","(1324, 467)","(1349, 457)","(1371, 442)","(1387, 421)","(1396, 397)","(1403, 371)","(1407, 345)","(1238, 310)","(1245, 303)","(1256, 305)","(1267, 310)","(1278, 318)","(1303, 321)","(1321, 317)","(1340, 316)","(1359, 321)","(1373, 332)","(1287, 334)","(1282, 349)","(1277, 363)","(1271, 379)","(1262, 384)","(1268, 390)","(1275, 394)","(1285, 392)","(1296, 391)","(1250, 327)","(1257, 323)","(1267, 324)","(1275, 333)","(1265, 334)","(1255, 333)","(1317, 339)","(1327, 333)","(1339, 335)","(1349, 341)","(1338, 345)","(1327, 343)","(1256, 411)","(1262, 409)","(1269, 409)","(1276, 413)","(1285, 412)","(1300, 416)","(1317, 421)","(1300, 427)","(1284, 428)","(1275, 427)","(1268, 425)","(1261, 420)","(1260, 412)","(1269, 415)","(1276, 418)","(1284, 419)","(1311, 421)","(1285, 419)","(1276, 418)","(1269, 415)",0.31,1.32,59.0,0.34,0.17,0.36,0.01,-11.5,0.05,0.32,23.9,36.5,73.6,21.15,30.5,85.85,12.94,22.29,42.76
600,-1310720,125,-56,-1,-1,0,"(1242, 324)","(1235, 343)","(1232, 363)","(1230, 384)","(1233, 405)","(1239, 425)","(1248, 443)","(1259, 462)","(1276, 471)","(1299, 472)","(1326, 466)","(1353, 455)","(1376, 440)","(1394, 419)","(1405, 394)","(1412, 367)","(1417, 340)","(1240, 306)","(1247, 302)","(1257, 305)","(1267, 311)","(1277, 319)","(1302, 322)","(1321, 317)","(1340, 316)","(1360, 321)","(1375, 331)","(1286, 336)","(1281, 351)","(1274, 366)","(1268, 381)","(1261, 385)","(1266, 391)","(1273, 396)","(1284, 394)","(1295, 392)","(1251, 326)","(1258, 322)","(1268, 324)","(1276, 332)","(1266, 334)","(1256, 332)","(1317, 339)","(1327, 333)","(1339, 335)","(1349, 342)","(1338, 345)","(1327, 344)","(1257, 411)","(1261, 410)","(1268, 410)","(1275, 414)","(1283, 413)","(1299, 417)","(1316, 422)","(1298, 426)","(1283, 427)","(1274, 426)","(1267, 423)","(1261, 419)","(1261, 412)","(1268, 416)","(1275, 418)","(1283, 419)","(1310, 421)","(1283, 418)","(1275, 417)","(1268, 414)",0.32,1.45,59.0,0.32,0.22,0.33,0.01,-12.0,0.05,0.33,22.6,36.6,75.1,18.75,27.2,83.15,13.11,21.94,43.05
633,-1310720,125,-56,-1,-1,0,"(1241, 322)","(1235, 342)","(1232, 363)","(1231, 384)","(1233, 406)","(1239, 426)","(1248, 445)","(1259, 463)","(1277, 472)","(1300, 473)","(1327, 466)","(1354, 455)","(1378, 440)","(1395, 418)","(1405, 392)","(1412, 365)","(1417, 338)","(1237, 306)","(1245, 301)","(1256, 304)","(1266, 310)","(1277, 319)","(1302, 321)","(1321, 316)","(1341, 315)","(1361, 319)","(1377, 329)","(1286, 335)","(1281, 350)","(1274, 365)","(1268, 381)","(1261, 385)","(1266, 392)","(1274, 396)","(1284, 394)","(1295, 392)","(1249, 326)","(1256, 322)","(1267, 323)","(1276, 332)","(1265, 334)","(1255, 332)","(1318, 338)","(1328, 331)","(1340, 333)","(1351, 340)","(1340, 344)","(1328, 343)","(1257, 413)","(1262, 411)","(1269, 411)","(1275, 415)","(1284, 414)","(1299, 417)","(1317, 422)","(1298, 427)","(1283, 427)","(1274, 426)","(1267, 424)","(1261, 420)","(1261, 414)","(1268, 417)","(1275, 419)","(1284, 420)","(1310, 422)","(1284, 418)","(1275, 417)","(1268, 415)",0.34,1.39,59.0,0.34,0.2,0.34,0.0,-12.5,0.05,0.33,28.3,41.8,81.3,18.4,26.15,81.85,12.0,20.76,39.47
666,-1376256,125,-56,-1,-1,0,"(1241, 321)","(1235, 341)","(1231, 362)","(1230, 383)","(1232, 404)","(1239, 425)","(1248, 444)","(1258, 462)","(1276, 472)","(1298, 474)","(1325, 467)","(1353, 456)","(1377, 441)","(1395, 419)","(1405, 394)","(1412, 367)","(1417, 339)","(1238, 305)","(1246, 301)","(1257, 304)","(1268, 311)","(1278, 320)","(1302, 323)","(1321, 319)","(1341, 317)","(1360, 322)","(1376, 331)","(1287, 337)","(1281, 352)","(1275, 367)","(1269, 383)","(1261, 386)","(1267, 393)","(1274, 397)","(1284, 396)","(1295, 394)","(1250, 325)","(1257, 321)","(1268, 323)","(1276, 333)","(1265, 334)","(1255, 332)","(1317, 340)","(1328, 333)","(1340, 336)","(1351, 342)","(1340, 347)","(1328, 345)","(1256, 412)","(1261, 411)","(1269, 412)","(1275, 415)","(1284, 414)","(1299, 418)","(1316, 424)","(1298, 429)","(1283, 430)","(1274, 428)","(1266, 426)","(1260, 421)","(1261, 414)","(1268, 418)","(1275, 420)","(1284, 421)","(1309, 423)","(1283, 420)","(1275, 419)","(1268, 416)",0.33,1.35,59.0,0.34,0.22,0.34,0.0,-13.5,0.04,0.34,25.6,39.4,77.5,21.15,30.3,87.15,12.23,20.0,39.7
700,2162688,125,-56,-1,-1,0,"(1241, 323)","(1235, 343)","(1231, 363)","(1230, 384)","(1232, 404)","(1238, 425)","(1247, 444)","(1258, 462)","(1275, 472)","(1298, 474)","(1325, 467)","(1353, 457)","(1376, 442)","(1394, 420)","(1405, 394)","(1412, 367)","(1416, 340)","(1238, 308)","(1246, 303)","(1256, 306)","(1267, 312)","(1277, 320)","(1302, 323)","(1320, 318)","(1340, 317)","(1359, 322)","(1375, 331)","(1286, 337)","(1280, 352)","(1274, 367)","(1268, 383)","(1260, 386)","(1265, 393)","(1273, 397)","(1284, 396)","(1295, 393)","(1250, 327)","(1257, 324)","(1267, 326)","(1276, 334)","(1265, 336)","(1255, 334)","(1317, 340)","(1327, 334)","(1339, 336)","(1349, 343)","(1338, 347)","(1326, 345)","(1255, 412)","(1260, 411)","(1267, 411)","(1274, 415)","(1283, 414)","(1298, 418)","(1316, 423)","(1297, 428)","(1282, 429)","(1273, 428)","(1265, 425)","(1259, 421)","(1259, 414)","(1267, 418)","(1274, 420)","(1283, 421)","(1309, 423)","(1282, 419)","(1273, 418)","(1267, 416)",0.34,1.36,59.0,0.33,0.2,0.34,0.0,-12.5,0.05,0.34,24.7,39.6,76.0,20.3,29.0,86.1,12.17,20.52,40.52
733,1179648,125,-56,-1,-1,0,"(1242, 323)","(1235, 343)","(1232, 363)","(1231, 384)","(1233, 406)","(1239, 426)","(1248, 445)","(1259, 464)","(1276, 473)","(1299, 474)","(1326, 467)","(1354, 456)","(1377, 440)","(1395, 419)","(1405, 393)","(1412, 366)","(1417, 339)","(1238, 308)","(1245, 303)","(1256, 306)","(1267, 312)","(1277, 321)","(1302, 323)","(1321, 318)","(1341, 317)","(1360, 322)","(1376, 331)","(1286, 337)","(1280, 352)","(1274, 368)","(1268, 383)","(1261, 387)","(1266, 394)","(1273, 398)","(1284, 396)","(1294, 394)","(1250, 327)","(1257, 323)","(1267, 325)","(1276, 334)","(1265, 335)","(1255, 334)","(1317, 340)","(1328, 333)","(1340, 335)","(1350, 342)","(1339, 346)","(1327, 345)","(1257, 414)","(1261, 412)","(1268, 413)","(1275, 416)","(1283, 415)","(1298, 419)","(1316, 424)","(1298, 428)","(1282, 429)","(1273, 428)","(1266, 425)","(1261, 421)","(1261, 415)","(1268, 419)","(1275, 421)","(1283, 422)","(1309, 423)","(1283, 420)","(1274, 419)","(1268, 416)",0.34,1.44,59.0,0.34,0.21,0.33,0.0,-12.5,0.04,0.33,25.9,39.5,78.3,18.45,26.7,84.25,13.82,22.0,43.35
766,-1703936,125,-56,-1,-1,0,"(1241, 324)","(1235, 343)","(1232, 364)","(1230, 385)","(1233, 406)","(1239, 426)","(1248, 445)","(1259, 463)","(1276, 473)","(1299, 474)","(1326, 467)","(1354, 456)","(1377, 440)","(1395, 418)","(1405, 393)","(1411, 366)","(1416, 339)","(1238, 309)","(1245, 304)","(1256, 307)","(1267, 313)","(1277, 322)","(1301, 324)","(1320, 319)","(1339, 318)","(1359, 322)","(1375, 331)","(1285, 338)","(1280, 353)","(1274, 368)","(1268, 384)","(1261, 388)","(1266, 394)","(1273, 398)","(1283, 397)","(1294, 394)","(1250, 328)","(1257, 324)","(1267, 326)","(1275, 334)","(1265, 336)","(1255, 334)","(1316, 340)","(1326, 334)","(1338, 337)","(1349, 343)","(1338, 347)","(1326, 345)","(1256, 414)","(1261, 412)","(1268, 413)","(1275, 416)","(1284, 415)","(1298, 419)","(1316, 424)","(1298, 429)","(1283, 430)","(1274, 429)","(1266, 427)","(1260, 422)","(1261, 415)","(1268, 419)","(1275, 421)","(1283, 422)","(1309, 423)","(1283, 421)","(1275, 420)","(1268, 417)",0.31,1.34,59.0,0.33,0.2,0.34,0.0,-12.5,0.05,0.34,26.5,39.5,79.1,20.2,28.4,85.95,13.05,22.11,42.64
800,-983040,125,-56,-1,-1,0,"(1241, 325)","(1235, 344)","(1232, 364)","(1231, 385)","(1233, 406)","(1239, 426)","(1248, 445)","(1259, 463)","(1277, 472)","(1299, 474)","(1326, 467)","(1354, 456)","(1377, 441)","(1395, 419)","(1405, 393)","(1412, 366)","(1416, 339)","(1238, 309)","(1245, 305)","(1256, 307)","(1266, 313)","(1277, 321)","(1301, 323)","(1320, 319)","(1339, 317)","(1359, 322)","(1375, 331)","(1285, 337)","(1280, 353)","(1274, 368)","(1268, 384)","(1260, 388)","(1266, 394)","(1273, 398)","(1284, 397)","(1295, 395)","(1250, 328)","(1257, 325)","(1267, 326)","(1275, 334)","(1265, 336)","(1255, 334)","(1317, 340)","(1327, 334)","(1339, 337)","(1349, 343)","(1338, 346)","(1326, 345)","(1256, 413)","(1261, 413)","(1268, 413)","(1275, 417)","(1284, 416)","(1299, 419)","(1317, 424)","(1298, 428)","(1283, 429)","(1274, 428)","(1266, 425)","(1260, 421)","(1260, 415)","(1268, 419)","(1275, 421)","(1284, 422)","(1310, 423)","(1283, 420)","(1275, 419)","(1268, 416)",0.31,1.35,59.0,0.32,0.2,0.34,0.0,-11.5,0.05,0.34,26.6,41.1,80.6,18.5,26.9,84.1,14.17,23.05,44.11
833,720896,125,-56,-1,-1,0,"(1241, 322)","(1235, 342)","(1231, 362)","(1230, 383)","(1232, 404)","(1238, 425)","(1248, 443)","(1259, 462)","(1276, 472)","(1299, 474)","(1326, 467)","(1353, 457)","(1377, 441)","(1395, 419)","(1405, 394)","(1412, 366)","(1417, 339)","(1238, 307)","(1245, 302)","(1256, 306)","(1267, 312)","(1277, 320)","(1302, 323)","(1321, 319)","(1341, 318)","(1360, 322)","(1376, 332)","(1286, 338)","(1281, 353)","(1275, 368)","(1269, 384)","(1261, 387)","(1266, 394)","(1274, 398)","(1284, 397)","(1295, 395)","(1249, 327)","(1257, 323)","(1267, 325)","(1276, 334)","(1265, 335)","(1255, 333)","(1317, 341)","(1328, 335)","(1340, 337)","(1351, 343)","(1339, 347)","(1327, 346)","(1256, 413)","(1261, 412)","(1268, 413)","(1275, 416)","(1284, 415)","(1299, 419)","(1317, 424)","(1298, 429)","(1282, 430)","(1273, 429)","(1266, 426)","(1260, 421)","(1260, 414)","(1268, 419)","(1275, 421)","(1283, 422)","(1310, 423)","(1283, 420)","(1274, 419)","(1268, 417)",0.3,1.36,59.0,0.35,0.21,0.34,0.0,-12.0,0.05,0.34,27.8,41.1,79.6,19.2,28.9,84.65,11.47,20.17,40.35
866,1572864,125,-56,-1,-1,0,"(1242, 323)","(1235, 342)","(1231, 363)","(1230, 384)","(1232, 405)","(1239, 426)","(1248, 445)","(1260, 463)","(1277, 472)","(1300, 474)","(1327, 467)","(1354, 457)","(1377, 441)","(1394, 419)","(1405, 394)","(1412, 367)","(1416, 339)","(1238, 307)","(1246, 302)","(1257, 306)","(1268, 313)","(1278, 321)","(1303, 324)","(1322, 320)","(1341, 318)","(1361, 323)","(1377, 332)","(1287, 338)","(1282, 353)","(1276, 369)","(1270, 385)","(1261, 388)","(1267, 394)","(1274, 399)","(1285, 397)","(1296, 395)","(1249, 326)","(1257, 322)","(1267, 325)","(1276, 334)","(1265, 336)","(1254, 334)","(1318, 341)","(1328, 334)","(1341, 336)","(1351, 343)","(1340, 348)","(1328, 346)","(1257, 414)","(1262, 413)","(1269, 413)","(1276, 417)","(1284, 416)","(1299, 420)","(1317, 425)","(1299, 430)","(1284, 431)","(1275, 430)","(1267, 427)","(1261, 422)","(1261, 415)","(1269, 419)","(1276, 422)","(1284, 422)","(1310, 424)","(1284, 421)","(1275, 420)","(1269, 418)",0.36,1.39,59.0,0.35,0.21,0.34,0.0,-14.0,0.05,0.35,26.5,39.6,79.6,19.45,28.65,84.75,12.35,20.17,39.0
900,458752,125,-56,-1,-1,0,"(1241, 323)","(1235, 342)","(1232, 363)","(1231, 384)","(1233, 405)","(1239, 426)","(1249, 445)","(1260, 464)","(1277, 474)","(1300, 475)","(1327, 468)","(1354, 457)","(1377, 441)","(1394, 419)","(1405, 394)","(1412, 367)","(1416, 339)","(1238, 307)","(1246, 303)","(1257, 307)","(1268, 314)","(1278, 323)","(1304, 325)","(1323, 320)","(1342, 319)","(1362, 322)","(1379, 331)","(1287, 339)","(1282, 354)","(1276, 370)","(1270, 386)","(1262, 389)","(1267, 395)","(1275, 400)","(1285, 398)","(1296, 396)","(1249, 328)","(1256, 324)","(1267, 326)","(1276, 335)","(1265, 337)","(1254, 335)","(1319, 341)","(1329, 335)","(1342, 337)","(1353, 343)","(1341, 348)","(1329, 346)","(1256, 414)","(1262, 414)","(1270, 414)","(1276, 418)","(1285, 417)","(1301, 420)","(1319, 425)","(1300, 431)","(1284, 432)","(1275, 431)","(1268, 428)","(1261, 423)","(1261, 416)","(1269, 420)","(1276, 423)","(1285, 423)","(1312, 424)","(1285, 422)","(1276, 421)","(1269, 419)",0.32,1.33,59.0,0.35,0.22,0.36,0.0,-13.0,0.05,0.34,26.7,41.3,81.5,21.25,29.2,85.8,11.58,19.88,39.52
933,-262144,125,-56,-1,-1,0,"(1240, 326)","(1234, 346)","(1231, 367)","(1231, 388)","(1234, 409)","(1241, 429)","(1252, 448)","(1263, 466)","(1281, 475)","(1303, 476)","(1329, 469)","(1356, 457)","(1378, 441)","(1394, 418)","(1404, 393)","(1410, 366)","(1413, 339)","(1235, 310)","(1244, 305)","(1256, 309)","(1267, 316)","(1278, 325)","(1302, 327)","(1321, 322)","(1340, 320)","(1360, 324)","(1376, 333)","(1287, 341)","(1282, 357)","(1277, 372)","(1272, 388)","(1263, 391)","(1269, 398)","(1277, 402)","(1287, 400)","(1299, 398)","(1248, 330)","(1256, 329)","(1266, 331)","(1275, 338)","(1264, 339)","(1254, 337)","(1318, 344)","(1329, 340)","(1340, 342)","(1351, 346)","(1340, 350)","(1328, 348)","(1258, 415)","(1264, 415)","(1272, 415)","(1279, 419)","(1289, 418)","(1304, 421)","(1322, 426)","(1303, 432)","(1288, 433)","(1278, 432)","(1270, 430)","(1263, 424)","(1262, 417)","(1271, 421)","(1279, 424)","(1288, 425)","(1315, 425)","(1288, 424)","(1279, 423)","(1271, 420)",0.24,1.27,59.0,0.35,0.2,0.36,0.0,-10.0,0.06,0.35,32.5,46.3,89.6,21.0,31.3,88.45,12.7,20.94,39.41
966,-786432,123,-56,-1,-1,0,"(1239, 324)","(1233, 345)","(1231, 366)","(1231, 388)","(1235, 410)","(1243, 430)","(1253, 449)","(1265, 467)","(1283, 476)","(1306, 477)","(1332, 468)","(1358, 456)","(1380, 438)","(1396, 415)","(1405, 389)","(1411, 362)","(1415, 334)","(1235, 309)","(1244, 305)","(1255, 309)","(1267, 316)","(1277, 324)","(1306, 326)","(1324, 320)","(1343, 317)","(1363, 319)","(1380, 327)","(1289, 341)","(1284, 357)","(1279, 374)","(1273, 391)","(1264, 393)","(1270, 400)","(1278, 404)","(1289, 402)","(1300, 399)","(1246, 330)","(1254, 326)","(1266, 329)","(1276, 337)","(1264, 339)","(1252, 337)","(1319, 342)","(1331, 335)","(1344, 336)","(1356, 342)","(1344, 347)","(1331, 346)","(1259, 418)","(1265, 417)","(1273, 418)","(1280, 421)","(1289, 420)","(1304, 423)","(1323, 427)","(1304, 434)","(1289, 436)","(1280, 435)","(1272, 433)","(1265, 427)","(1264, 420)","(1273, 424)","(1280, 426)","(1289, 427)","(1316, 427)","(1289, 426)","(1280, 425)","(1273, 423)",0.29,1.3,59.0,0.38,0.17,0.36,0.01,-12.5,0.06,0.37,38.3,57.9,99.8,21.75,31.05,87.4,13.05,20.41,38.47
1000,-1114112,123,-56,-1,-1,0,"(1237, 334)","(1233, 355)","(1232, 376)","(1233, 397)","(1237, 418)","(1245, 437)","(1256, 455)","(1268, 473)","(1285, 480)","(1307, 480)","(1332, 472)","(1358, 460)","(1379, 443)","(1395, 421)","(1404, 396)","(1410, 370)","(1414, 343)","(1233, 325)","(1242, 319)","(1255, 321)","(1268, 326)","(1280, 333)","(1304, 335)","(1323, 329)","(1342, 327)","(1363, 330)","(1380, 339)","(1289, 347)","(1284, 363)","(1279, 379)","(1274, 396)","(1266, 399)","(1272, 405)","(1280, 409)","(1290, 407)","(1301, 404)","(1247, 339)","(1255, 335)","(1267, 336)","(1277, 345)","(1265, 347)","(1253, 346)","(1319, 349)","(1330, 341)","(1343, 342)","(1354, 348)","(1343, 353)","(1330, 353)","(1261, 422)","(1267, 422)","(1275, 422)","(1282, 425)","(1291, 424)","(1307, 426)","(1326, 430)","(1307, 436)","(1292, 438)","(1282, 438)","(1274, 435)","(1267, 431)","(1265, 424)","(1275, 428)","(1282, 430)","(1291, 430)","(1319, 430)","(1292, 429)","(1283, 428)","(1275, 426)",0.32,1.31,59.0,0.37,0.11,0.36,0.0,-12.0,0.06,0.36,28.7,45.2,86.9,19.4,29.0,87.55,10.88,19.88,37.17
1033,-1245184,123,-56,-1,-1,0,"(1236, 335)","(1232, 356)","(1231, 377)","(1232, 398)","(1237, 418)","(1246, 438)","(1258, 456)","(1270, 473)","(1288, 481)","(1311, 481)","(1336, 472)","(1361, 459)","(1383, 442)","(1398, 419)","(1406, 393)","(1412, 366)","(1416, 339)","(1232, 325)","(1241, 320)","(1254, 323)","(1267, 329)","(1279, 336)","(1303, 338)","(1322, 332)","(1341, 328)","(1362, 330)","(1380, 337)","(1289, 349)","(1285, 365)","(1281, 382)","(1276, 399)","(1267, 402)","(1273, 408)","(1281, 412)","(1292, 409)","(1303, 406)","(1246, 340)","(1254, 336)","(1266, 337)","(1276, 347)","(1264, 348)","(1252, 347)","(1320, 349)","(1331, 341)","(1344, 342)","(1356, 347)","(1344, 353)","(1331, 353)","(1262, 425)","(1269, 425)","(1277, 425)","(1284, 428)","(1293, 427)","(1309, 428)","(1328, 431)","(1309, 437)","(1294, 440)","(1285, 440)","(1277, 438)","(1269, 433)","(1267, 427)","(1277, 431)","(1284, 433)","(1293, 433)","(1321, 431)","(1294, 431)","(1285, 430)","(1278, 428)",0.31,1.26,59.0,0.37,0.1,0.36,0.0,-12.0,0.07,0.37,31.9,46.2,87.2,19.2,27.95,85.9,9.52,18.58,35.76
1066,-1310720,123,-56,-1,-1,0,"(1238, 347)","(1236, 367)","(1235, 387)","(1237, 407)","(1242, 426)","(1251, 444)","(1262, 462)","(1274, 478)","(1291, 484)","(1313, 484)","(1336, 475)","(1358, 462)","(1376, 446)","(1389, 425)","(1395, 401)","(1398, 376)","(1400, 351)","(1238, 339)","(1245, 330)","(1257, 330)","(1269, 334)","(1282, 341)","(1302, 342)","(1320, 336)","(1338, 334)","(1357, 337)","(1371, 347)","(1290, 355)","(1286, 370)","(1283, 385)","(1279, 400)","(1269, 405)","(1276, 409)","(1284, 413)","(1294, 410)","(1305, 408)","(1252, 354)","(1260, 352)","(1269, 353)","(1278, 356)","(1268, 359)","(1259, 358)","(1318, 359)","(1328, 356)","(1339, 357)","(1349, 360)","(1338, 363)","(1328, 362)","(1264, 427)","(1271, 427)","(1279, 427)","(1287, 430)","(1296, 428)","(1310, 430)","(1328, 432)","(1311, 440)","(1297, 443)","(1287, 443)","(1279, 441)","(1272, 436)","(1269, 429)","(1279, 432)","(1287, 434)","(1296, 434)","(1322, 433)","(1297, 434)","(1287, 434)","(1280, 432)",0.19,1.19,59.0,0.35,0.05,0.39,0.01,-7.0,0.09,0.34,22.0,34.8,75.2,20.55,28.2,87.6,19.0,29.7,57.23
1100,-1507328,123,-56,-1,-1,0,"(1238, 350)","(1236, 369)","(1235, 390)","(1237, 410)","(1243, 429)","(1252, 447)","(1263, 464)","(1275, 480)","(1294, 486)","(1315, 485)","(1337, 475)","(1359, 462)","(1377, 446)","(1389, 425)","(1395, 401)","(1398, 376)","(1400, 351)","(1237, 341)","(1244, 332)","(1256, 332)","(1269, 336)","(1281, 343)","(1303, 343)","(1320, 337)","(1338, 334)","(1357, 337)","(1371, 347)","(1290, 357)","(1287, 371)","(1284, 385)","(1280, 401)","(1271, 406)","(1277, 411)","(1285, 414)","(1295, 411)","(1305, 409)","(1252, 356)","(1259, 355)","(1268, 355)","(1278, 358)","(1268, 361)","(1259, 360)","(1319, 360)","(1329, 357)","(1339, 358)","(1349, 361)","(1339, 364)","(1329, 363)","(1266, 429)","(1273, 429)","(1281, 429)","(1288, 431)","(1297, 430)","(1311, 431)","(1329, 433)","(1313, 441)","(1299, 444)","(1289, 444)","(1281, 442)","(1273, 438)","(1270, 430)","(1281, 434)","(1288, 435)","(1297, 435)","(1323, 434)","(1298, 435)","(1289, 435)","(1282, 433)",0.19,1.21,59.0,0.34,0.05,0.38,0.01,-6.5,0.09,0.34,19.7,33.3,71.1,19.3,28.15,85.7,17.35,29.58,57.94
1133,3670016,123,-56,-1,-1,0,"(1236, 349)","(1234, 369)","(1234, 390)","(1235, 410)","(1241, 430)","(1251, 448)","(1262, 465)","(1275, 481)","(1293, 487)","(1315, 486)","(1337, 476)","(1359, 464)","(1377, 447)","(1389, 426)","(1395, 402)","(1398, 377)","(1400, 352)","(1237, 341)","(1244, 333)","(1256, 333)","(1269, 337)","(1282, 344)","(1304, 344)","(1321, 338)","(1340, 336)","(1358, 338)","(1372, 348)","(1291, 358)","(1288, 373)","(1285, 387)","(1281, 403)","(1271, 408)","(1278, 413)","(1286, 416)","(1296, 414)","(1306, 411)","(1252, 357)","(1259, 356)","(1269, 356)","(1278, 359)","(1268, 362)","(1259, 361)","(1319, 361)","(1329, 359)","(1340, 360)","(1350, 362)","(1340, 366)","(1329, 365)","(1265, 430)","(1273, 430)","(1281, 430)","(1288, 433)","(1297, 432)","(1311, 433)","(1329, 435)","(1312, 443)","(1298, 446)","(1289, 446)","(1281, 444)","(1273, 439)","(1270, 432)","(1281, 436)","(1288, 437)","(1297, 437)","(1323, 436)","(1298, 437)","(1289, 437)","(1281, 435)",0.19,1.16,59.0,0.34,0.06,0.39,0.01,-6.5,0.09,0.34,21.1,34.9,75.8,20.15,29.1,87.55,17.05,27.17,53.23
1166,-1048576,123,-56,-1,-1,0,"(1236, 344)","(1233, 364)","(1233, 385)","(1234, 406)","(1240, 426)","(1249, 445)","(1261, 463)","(1273, 480)","(1292, 487)","(1314, 487)","(1337, 477)","(1361, 464)","(1381, 446)","(1396, 423)","(1403, 398)","(1407, 372)","(1410, 345)","(1234, 340)","(1241, 333)","(1254, 334)","(1267, 339)","(1281, 346)","(1303, 346)","(1321, 340)","(1340, 337)","(1361, 339)","(1377, 348)","(1289, 360)","(1286, 375)","(1282, 390)","(1279, 407)","(1269, 410)","(1275, 415)","(1283, 419)","(1294, 416)","(1305, 413)","(1249, 355)","(1257, 354)","(1267, 355)","(1277, 359)","(1266, 361)","(1256, 360)","(1320, 361)","(1330, 358)","(1341, 359)","(1352, 361)","(1341, 366)","(1330, 365)","(1264, 431)","(1271, 432)","(1279, 432)","(1286, 435)","(1295, 433)","(1309, 434)","(1327, 436)","(1310, 443)","(1296, 446)","(1287, 446)","(1279, 444)","(1272, 440)","(1269, 432)","(1279, 437)","(1286, 439)","(1295, 439)","(1320, 436)","(1296, 437)","(1287, 437)","(1280, 435)",0.21,1.19,59.0,0.34,0.07,0.36,0.0,-7.5,0.09,0.37,22.4,36.2,76.3,21.05,30.35,90.75,14.47,24.7,48.0
1200,-1900544,123,-56,-1,-1,0,"(1235, 344)","(1232, 364)","(1232, 385)","(1234, 406)","(1240, 426)","(1250, 446)","(1261, 465)","(1273, 483)","(1292, 491)","(1314, 490)","(1337, 480)","(1361, 466)","(1381, 447)","(1395, 424)","(1403, 399)","(1408, 372)","(1411, 345)","(1234, 337)","(1241, 331)","(1254, 333)","(1267, 339)","(1280, 346)","(1301, 346)","(1320, 340)","(1339, 337)","(1359, 339)","(1376, 348)","(1288, 359)","(1285, 375)","(1281, 392)","(1277, 408)","(1268, 411)","(1274, 417)","(1282, 420)","(1293, 418)","(1303, 415)","(1248, 352)","(1256, 349)","(1267, 350)","(1276, 357)","(1265, 360)","(1254, 359)","(1319, 360)","(1329, 355)","(1341, 356)","(1352, 360)","(1341, 366)","(1329, 365)","(1265, 433)","(1271, 433)","(1278, 434)","(1285, 437)","(1293, 435)","(1308, 437)","(1324, 439)","(1308, 447)","(1294, 450)","(1286, 450)","(1278, 448)","(1272, 443)","(1270, 435)","(1278, 439)","(1285, 441)","(1293, 441)","(1318, 440)","(1294, 441)","(1286, 440)","(1279, 438)",0.3,1.29,59.0,0.34,0.1,0.33,0.01,-11.0,0.08,0.37,28.6,43.3,85.5,18.5,27.4,83.5,13.76,23.76,46.58
1233,-1048576,123,-56,-1,-1,0,"(1236, 350)","(1233, 370)","(1234, 390)","(1236, 411)","(1242, 431)","(1250, 450)","(1261, 470)","(1272, 488)","(1290, 495)","(1312, 494)","(1334, 484)","(1356, 469)","(1374, 451)","(1387, 429)","(1393, 405)","(1397, 379)","(1399, 353)","(1235, 343)","(1242, 336)","(1254, 336)","(1267, 341)","(1279, 347)","(1301, 348)","(1318, 342)","(1337, 339)","(1355, 341)","(1370, 351)","(1288, 362)","(1285, 377)","(1281, 393)","(1278, 409)","(1268, 413)","(1274, 418)","(1283, 421)","(1293, 419)","(1303, 416)","(1249, 359)","(1257, 357)","(1266, 358)","(1275, 362)","(1265, 364)","(1256, 363)","(1317, 364)","(1327, 361)","(1338, 362)","(1348, 365)","(1338, 368)","(1327, 367)","(1265, 437)","(1271, 436)","(1278, 436)","(1285, 439)","(1293, 437)","(1307, 439)","(1323, 443)","(1308, 452)","(1295, 456)","(1286, 456)","(1278, 454)","(1271, 448)","(1270, 438)","(1278, 441)","(1285, 443)","(1294, 443)","(1317, 443)","(1294, 446)","(1286, 446)","(1278, 443)",0.19,1.28,59.0,0.35,0.06,0.35,0.02,-7.0,0.09,0.35,22.5,35.9,78.2,16.3,25.05,76.2,17.23,28.11,56.64
1266,851968,123,-56,-1,-1,0,"(1233, 351)","(1231, 371)","(1232, 392)","(1234, 413)","(1239, 433)","(1247, 453)","(1258, 472)","(1270, 490)","(1288, 497)","(1310, 497)","(1332, 487)","(1354, 473)","(1373, 455)","(1387, 434)","(1394, 409)","(1399, 382)","(1402, 355)","(1233, 344)","(1241, 337)","(1253, 338)","(1266, 343)","(1278, 350)","(1300, 350)","(1318, 345)","(1336, 342)","(1356, 344)","(1372, 354)","(1287, 364)","(1283, 380)","(1280, 396)","(1276, 412)","(1266, 416)","(1272, 421)","(1281, 425)","(1291, 422)","(1301, 420)","(1247, 360)","(1255, 358)","(1265, 359)","(1274, 364)","(1264, 366)","(1254, 365)","(1317, 367)","(1327, 363)","(1338, 364)","(1348, 367)","(1338, 371)","(1327, 370)","(1263, 441)","(1269, 440)","(1276, 440)","(1282, 443)","(1291, 441)","(1304, 444)","(1320, 447)","(1305, 456)","(1292, 459)","(1283, 459)","(1276, 457)","(1269, 451)","(1267, 443)","(1275, 446)","(1283, 448)","(1291, 447)","(1314, 448)","(1291, 448)","(1283, 448)","(1276, 446)",0.22,1.26,59.0,0.34,0.09,0.33,0.01,-8.0,0.08,0.36,26.6,41.5,82.7,15.65,24.15,77.35,15.94,26.47,51.88
1300,1441792,123,-56,-1,-1,0,"(1233, 355)","(1231, 376)","(1231, 396)","(1233, 417)","(1237, 437)","(1245, 456)","(1256, 474)","(1268, 491)","(1286, 499)","(1308, 498)","(1331, 489)","(1354, 476)","(1373, 459)","(1386, 437)","(1393, 412)","(1398, 386)","(1401, 359)","(1233, 350)","(1241, 342)","(1253, 343)","(1266, 348)","(1279, 354)","(1300, 355)","(1318, 349)","(1337, 346)","(1356, 349)","(1371, 359)","(1287, 368)","(1284, 384)","(1280, 400)","(1276, 416)","(1266, 420)","(1273, 425)","(1280, 429)","(1291, 426)","(1301, 423)","(1248, 365)","(1256, 363)","(1265, 364)","(1274, 368)","(1264, 370)","(1255, 370)","(1317, 371)","(1327, 367)","(1337, 369)","(1348, 371)","(1337, 375)","(1326, 375)","(1262, 444)","(1268, 444)","(1275, 444)","(1282, 447)","(1290, 446)","(1303, 448)","(1319, 450)","(1304, 458)","(1291, 460)","(1282, 460)","(1275, 458)","(1268, 453)","(1266, 446)","(1275, 450)","(1282, 451)","(1290, 451)","(1313, 450)","(1291, 451)","(1283, 450)","(1275, 448)",0.22,1.23,59.0,0.34,0.07,0.33,0.01,-7.5,0.08,0.36,20.9,35.8,74.5,18.85,27.35,85.5,16.7,26.58,51.35
1333,262144,123,-56,-1,-1,0,"(1223, 370)","(1222, 395)","(1225, 419)","(1233, 443)","(1244, 467)","(1257, 491)","(1274, 513)","(1292, 531)","(1317, 537)","(1345, 535)","(1374, 522)","(1398, 503)","(1417, 479)","(1428, 450)","(1432, 419)","(1432, 387)","(1429, 356)","(1221, 337)","(1231, 332)","(1244, 335)","(1257, 342)","(1270, 351)","(1303, 350)","(1322, 340)","(1342, 334)","(1364, 333)","(1383, 341)","(1286, 369)","(1284, 387)","(1281, 405)","(1278, 424)","(1269, 434)","(1277, 440)","(1287, 443)","(1298, 440)","(1308, 436)","(1239, 364)","(1247, 358)","(1260, 359)","(1271, 368)","(1259, 371)","(1246, 371)","(1321, 368)","(1332, 359)","(1347, 359)","(1360, 365)","(1349, 372)","(1334, 372)","(1271, 471)","(1275, 466)","(1283, 464)","(1292, 467)","(1301, 464)","(1320, 466)","(1343, 471)","(1327, 485)","(1311, 491)","(1300, 491)","(1291, 490)","(1281, 483)","(1277, 472)","(1285, 472)","(1293, 473)","(1303, 473)","(1335, 472)","(1308, 477)","(1298, 477)","(1289, 475)",0.33,1.55,59.0,0.34,0.08,0.34,0.02,-13.0,0.1,0.32,30.0,46.3,86.3,24.35,41.45,89.6,20.88,26.82,44.76
1366,-327680,123,-56,-1,-1,0,"(1232, 354)","(1229, 375)","(1229, 396)","(1231, 417)","(1236, 438)","(1244, 457)","(1255, 476)","(1266, 494)","(1284, 501)","(1306, 501)","(1329, 491)","(1350, 477)","(1369, 460)","(1382, 438)","(1389, 414)","(1394, 388)","(1397, 362)","(1234, 349)","(1241, 341)","(1254, 343)","(1266, 347)","(1278, 354)","(1299, 355)","(1317, 350)","(1335, 347)","(1353, 350)","(1368, 360)","(1286, 369)","(1283, 385)","(1279, 401)","(1275, 417)","(1265, 421)","(1271, 426)","(1279, 430)","(1289, 427)","(1299, 424)","(1247, 365)","(1255, 363)","(1264, 364)","(1273, 369)","(1263, 371)","(1254, 370)","(1314, 372)","(1324, 369)","(1335, 370)","(1345, 373)","(1334, 377)","(1324, 376)","(1261, 445)","(1267, 445)","(1274, 445)","(1281, 448)","(1290, 446)","(1303, 449)","(1318, 451)","(1303, 460)","(1290, 463)","(1281, 463)","(1273, 461)","(1267, 455)","(1265, 447)","(1274, 450)","(1281, 452)","(1290, 452)","(1313, 452)","(1290, 453)","(1282, 453)","(1274, 450)",0.22,1.21,59.0,0.34,0.09,0.34,0.02,-8.0,0.07,0.36,20.5,35.9,78.3,16.7,25.55,81.05,17.52,28.47,56.76
1400,-720896,122,-56,-1,-1,0,"(1230, 349)","(1227, 370)","(1227, 392)","(1228, 413)","(1233, 434)","(1242, 454)","(1252, 473)","(1263, 491)","(1281, 499)","(1303, 499)","(1326, 488)","(1348, 475)","(1367, 458)","(1382, 436)","(1389, 412)","(1394, 386)","(1397, 360)","(1232, 344)","(1240, 336)","(1253, 338)","(1265, 343)","(1278, 350)","(1298, 351)","(1315, 346)","(1334, 344)","(1352, 347)","(1367, 357)","(1285, 365)","(1281, 382)","(1278, 398)","(1274, 415)","(1263, 418)","(1269, 424)","(1277, 428)","(1288, 425)","(1298, 422)","(1245, 359)","(1253, 357)","(1263, 358)","(1272, 365)","(1261, 366)","(1251, 365)","(1313, 369)","(1323, 364)","(1334, 365)","(1344, 369)","(1334, 374)","(1323, 373)","(1259, 442)","(1265, 441)","(1272, 441)","(1279, 445)","(1288, 443)","(1301, 446)","(1316, 450)","(1301, 459)","(1288, 462)","(1279, 462)","(1271, 459)","(1264, 453)","(1263, 444)","(1272, 447)","(1279, 449)","(1288, 449)","(1310, 450)","(1288, 452)","(1279, 451)","(1272, 449)",0.29,1.23,59.0,0.35,0.1,0.34,0.02,-9.5,0.07,0.37,29.6,46.8,91.1,16.6,23.0,74.4,20.47,30.52,57.05
1433,-917504,122,-56,-1,-1,0,"(1227, 342)","(1224, 363)","(1224, 385)","(1226, 407)","(1231, 429)","(1240, 450)","(1252, 468)","(1263, 487)","(1281, 495)","(1303, 494)","(1327, 483)","(1352, 469)","(1373, 450)","(1389, 426)","(1399, 400)","(1404, 373)","(1408, 344)","(1226, 330)","(1235, 324)","(1248, 327)","(1261, 333)","(1272, 342)","(1300, 343)","(1317, 336)","(1336, 332)","(1356, 333)","(1373, 340)","(1283, 358)","(1279, 375)","(1275, 393)","(1271, 410)","(1261, 413)","(1267, 420)","(1275, 423)","(1285, 421)","(1296, 418)","(1239, 348)","(1248, 343)","(1260, 345)","(1270, 355)","(1258, 356)","(1246, 355)","(1313, 357)","(1324, 349)","(1337, 350)","(1349, 355)","(1338, 361)","(1324, 361)","(1256, 438)","(1262, 437)","(1270, 437)","(1277, 441)","(1285, 439)","(1300, 442)","(1316, 445)","(1299, 455)","(1285, 459)","(1276, 458)","(1268, 456)","(1262, 449)","(1261, 440)","(1270, 443)","(1277, 445)","(1285, 445)","(1309, 446)","(1285, 448)","(1277, 447)","(1270, 445)",0.31,1.27,59.0,0.37,0.1,0.33,0.02,-12.5,0.07,0.37,32.9,52.1,96.0,18.55,25.8,76.0,11.52,20.88,42.29
1466,-786432,122,-56,-1,-1,0,"(1231, 345)","(1227, 365)","(1225, 386)","(1225, 406)","(1230, 427)","(1237, 446)","(1247, 465)","(1257, 482)","(1274, 490)","(1296, 490)","(1319, 481)","(1342, 470)","(1363, 454)","(1378, 433)","(1386, 409)","(1391, 384)","(1394, 358)","(1233, 338)","(1239, 329)","(1251, 328)","(1264, 332)","(1276, 339)","(1295, 340)","(1313, 335)","(1332, 334)","(1350, 339)","(1363, 351)","(1282, 357)","(1278, 372)","(1274, 387)","(1269, 403)","(1259, 408)","(1265, 413)","(1273, 417)","(1283, 415)","(1293, 413)","(1246, 354)","(1253, 352)","(1262, 353)","(1270, 358)","(1261, 360)","(1252, 359)","(1310, 362)","(1320, 359)","(1330, 360)","(1340, 363)","(1329, 367)","(1319, 366)","(1253, 433)","(1259, 431)","(1266, 431)","(1273, 434)","(1282, 433)","(1295, 437)","(1310, 442)","(1294, 450)","(1281, 452)","(1272, 452)","(1264, 449)","(1258, 443)","(1258, 434)","(1266, 437)","(1273, 439)","(1282, 439)","(1304, 442)","(1281, 442)","(1273, 442)","(1266, 440)",0.23,1.23,59.0,0.33,0.09,0.34,0.02,-8.0,0.06,0.34,25.4,40.5,84.4,17.95,26.3,78.35,19.58,31.0,59.05
1500,-786432,122,-56,-1,-1,0,"(1228, 333)","(1224, 354)","(1222, 376)","(1222, 398)","(1225, 419)","(1233, 439)","(1242, 459)","(1253, 478)","(1270, 487)","(1292, 488)","(1317, 479)","(1343, 467)","(1366, 450)","(1383, 428)","(1394, 403)","(1402, 376)","(1408, 348)","(1226, 319)","(1234, 313)","(1246, 315)","(1258, 320)","(1269, 329)","(1297, 330)","(1316, 325)","(1336, 325)","(1356, 329)","(1371, 340)","(1280, 347)","(1275, 365)","(1270, 382)","(1265, 399)","(1255, 402)","(1260, 408)","(1268, 413)","(1279, 411)","(1289, 409)","(1238, 336)","(1246, 333)","(1258, 335)","(1267, 345)","(1255, 346)","(1244, 344)","(1310, 351)","(1321, 344)","(1334, 346)","(1346, 352)","(1334, 357)","(1321, 356)","(1249, 427)","(1255, 426)","(1262, 426)","(1269, 430)","(1278, 429)","(1292, 433)","(1309, 439)","(1291, 446)","(1276, 448)","(1267, 447)","(1259, 444)","(1253, 438)","(1254, 429)","(1262, 432)","(1269, 435)","(1277, 435)","(1302, 438)","(1277, 437)","(1268, 437)","(1261, 434)",0.31,1.29,59.0,0.36,0.18,0.33,0.01,-13.0,0.05,0.37,29.0,44.8,86.7,18.2,26.3,78.25,10.47,20.58,41.17
1533,-983040,122,-56,-1,-1,0,"(1226, 322)","(1222, 345)","(1221, 368)","(1221, 391)","(1224, 414)","(1230, 436)","(1238, 456)","(1249, 476)","(1267, 484)","(1290, 485)","(1317, 476)","(1343, 464)","(1367, 447)","(1384, 424)","(1395, 398)","(1404, 370)","(1410, 340)","(1221, 309)","(1230, 303)","(1243, 305)","(1256, 311)","(1268, 320)","(1297, 322)","(1317, 316)","(1337, 315)","(1358, 320)","(1375, 331)","(1279, 339)","(1274, 357)","(1267, 375)","(1261, 393)","(1253, 396)","(1258, 403)","(1266, 407)","(1277, 406)","(1288, 404)","(1234, 328)","(1243, 322)","(1256, 325)","(1266, 337)","(1254, 338)","(1241, 336)","(1312, 342)","(1324, 333)","(1338, 334)","(1350, 342)","(1339, 348)","(1325, 347)","(1248, 425)","(1253, 423)","(1260, 423)","(1267, 427)","(1276, 426)","(1290, 431)","(1308, 437)","(1290, 443)","(1275, 444)","(1265, 443)","(1258, 440)","(1252, 435)","(1253, 426)","(1260, 430)","(1266, 432)","(1276, 433)","(1300, 437)","(1275, 433)","(1266, 432)","(1260, 429)",0.36,1.37,59.0,0.38,0.17,0.32,0.01,-15.5,0.04,0.37,30.7,45.4,86.2,17.8,24.6,76.1,11.52,20.11,36.82
1566,4849664,122,-56,-1,-1,0,"(1202, 279)","(1192, 303)","(1185, 329)","(1183, 356)","(1184, 385)","(1189, 415)","(1195, 445)","(1206, 472)","(1228, 487)","(1258, 491)","(1293, 483)","(1326, 470)","(1357, 451)","(1380, 426)","(1395, 395)","(1406, 361)","(1416, 326)","(1199, 278)","(1212, 275)","(1228, 283)","(1242, 295)","(1255, 309)","(1289, 316)","(1313, 310)","(1337, 308)","(1361, 313)","(1380, 325)","(1263, 330)","(1253, 353)","(1243, 376)","(1232, 399)","(1213, 388)","(1223, 400)","(1236, 409)","(1254, 405)","(1272, 401)","(1211, 306)","(1223, 305)","(1236, 310)","(1246, 320)","(1232, 320)","(1219, 316)","(1303, 334)","(1318, 329)","(1334, 332)","(1348, 338)","(1333, 344)","(1317, 341)","(1206, 405)","(1213, 409)","(1225, 414)","(1236, 421)","(1250, 421)","(1272, 424)","(1296, 429)","(1270, 445)","(1247, 451)","(1232, 450)","(1219, 444)","(1210, 430)","(1211, 409)","(1224, 420)","(1235, 425)","(1249, 427)","(1289, 429)","(1249, 436)","(1235, 435)","(1223, 429)",0.26,1.25,59.0,0.37,0.29,0.42,0.04,-15.0,0.04,0.43,30.5,45.6,80.9,21.95,33.45,65.85,17.05,24.17,39.47
1600,-1310720,122,-56,-1,-1,0,"(1229, 332)","(1224, 351)","(1221, 371)","(1221, 392)","(1223, 413)","(1229, 432)","(1237, 451)","(1246, 468)","(1262, 477)","(1283, 478)","(1309, 472)","(1336, 462)","(1360, 448)","(1378, 428)","(1390, 403)","(1398, 377)","(1404, 350)","(1231, 313)","(1236, 304)","(1246, 302)","(1258, 305)","(1268, 312)","(1294, 313)","(1314, 309)","(1333, 310)","(1352, 319)","(1365, 333)","(1278, 335)","(1272, 350)","(1265, 365)","(1259, 381)","(1251, 388)","(1256, 393)","(1263, 397)","(1273, 396)","(1283, 395)","(1242, 333)","(1249, 329)","(1258, 330)","(1267, 337)","(1257, 339)","(1248, 338)","(1307, 342)","(1317, 337)","(1329, 340)","(1339, 346)","(1328, 348)","(1317, 347)","(1246, 418)","(1250, 414)","(1257, 413)","(1263, 416)","(1271, 416)","(1285, 421)","(1301, 429)","(1283, 434)","(1269, 435)","(1260, 434)","(1253, 431)","(1248, 426)","(1250, 418)","(1256, 419)","(1263, 422)","(1271, 423)","(1294, 428)","(1270, 425)","(1262, 424)","(1255, 421)",0.28,1.43,59.0,0.32,0.12,0.31,0.01,-10.5,0.02,0.32,22.4,33.7,71.1,17.05,24.0,74.3,15.82,24.7,45.29
1633,-1376256,122,-56,-1,-1,0,"(1229, 319)","(1224, 339)","(1221, 361)","(1219, 382)","(1220, 404)","(1225, 425)","(1233, 445)","(1243, 464)","(1261, 473)","(1284, 476)","(1311, 469)","(1338, 459)","(1361, 444)","(1379, 423)","(1390, 398)","(1398, 371)","(1406, 343)","(1228, 303)","(1234, 296)","(1245, 296)","(1257, 301)","(1267, 310)","(1293, 312)","(1312, 308)","(1333, 309)","(1352, 317)","(1366, 331)","(1276, 331)","(1270, 346)","(1263, 362)","(1256, 378)","(1249, 383)","(1254, 389)","(1261, 393)","(1271, 392)","(1281, 391)","(1239, 324)","(1247, 321)","(1257, 322)","(1265, 331)","(1255, 332)","(1245, 330)","(1307, 338)","(1318, 333)","(1330, 335)","(1340, 342)","(1328, 345)","(1317, 343)","(1244, 413)","(1248, 409)","(1254, 409)","(1260, 412)","(1269, 412)","(1283, 418)","(1299, 425)","(1282, 430)","(1268, 431)","(1259, 430)","(1252, 427)","(1247, 422)","(1248, 413)","(1254, 415)","(1260, 418)","(1269, 419)","(1292, 424)","(1269, 421)","(1260, 420)","(1254, 417)",0.3,1.48,59.0,0.33,0.21,0.31,0.01,-11.5,0.02,0.33,25.9,38.3,74.3,16.45,23.7,74.65,9.29,15.29,30.11
1666,-589824,122,-56,-1,-1,0,"(1229, 317)","(1225, 337)","(1222, 358)","(1221, 379)","(1221, 400)","(1226, 421)","(1233, 441)","(1243, 459)","(1261, 469)","(1284, 471)","(1311, 466)","(1338, 456)","(1361, 441)","(1378, 420)","(1389, 395)","(1398, 368)","(1405, 341)","(1227, 301)","(1234, 294)","(1245, 294)","(1256, 299)","(1267, 306)","(1293, 309)","(1312, 305)","(1332, 306)","(1352, 314)","(1365, 328)","(1276, 327)","(1270, 343)","(1263, 358)","(1256, 375)","(1249, 379)","(1254, 385)","(1261, 389)","(1271, 389)","(1281, 387)","(1239, 320)","(1247, 317)","(1257, 319)","(1265, 327)","(1255, 328)","(1245, 327)","(1307, 334)","(1317, 329)","(1329, 331)","(1339, 338)","(1328, 342)","(1317, 340)","(1244, 410)","(1247, 406)","(1254, 406)","(1260, 409)","(1269, 409)","(1282, 414)","(1299, 422)","(1282, 426)","(1268, 426)","(1259, 425)","(1252, 422)","(1247, 418)","(1248, 410)","(1254, 412)","(1260, 415)","(1268, 416)","(1292, 421)","(1268, 416)","(1260, 415)","(1254, 412)",0.34,1.47,59.0,0.33,0.18,0.31,0.01,-12.0,0.02,0.33,25.0,36.7,71.5,15.7,23.6,76.8,11.76,18.94,36.58
1700,1310720,122,-56,-1,-1,0,"(1228, 309)","(1224, 330)","(1222, 351)","(1221, 372)","(1222, 394)","(1226, 416)","(1233, 437)","(1243, 456)","(1261, 466)","(1285, 469)","(1312, 463)","(1339, 453)","(1362, 438)","(1379, 417)","(1390, 391)","(1399, 364)","(1406, 336)","(1225, 295)","(1233, 288)","(1244, 290)","(1256, 295)","(1267, 304)","(1293, 306)","(1313, 302)","(1334, 303)","(1354, 310)","(1368, 324)","(1277, 324)","(1271, 340)","(1263, 356)","(1256, 373)","(1248, 376)","(1254, 383)","(1261, 387)","(1271, 386)","(1282, 385)","(1238, 316)","(1246, 312)","(1256, 315)","(1265, 323)","(1254, 325)","(1244, 323)","(1308, 331)","(1319, 326)","(1331, 329)","(1342, 335)","(1331, 339)","(1318, 337)","(1244, 404)","(1248, 403)","(1255, 403)","(1261, 407)","(1269, 406)","(1283, 412)","(1301, 419)","(1282, 424)","(1268, 425)","(1259, 423)","(1252, 420)","(1247, 415)","(1248, 406)","(1254, 409)","(1260, 412)","(1269, 413)","(1294, 418)","(1269, 414)","(1260, 413)","(1254, 410)",0.3,1.47,59.0,0.34,0.22,0.32,0.01,-13.0,0.02,0.34,27.0,39.2,77.5,17.5,25.8,81.15,10.05,17.52,33.05
1733,1769472,122,-56,-1,-1,0,"(1227, 311)","(1223, 332)","(1222, 353)","(1221, 375)","(1222, 397)","(1226, 418)","(1234, 438)","(1244, 456)","(1263, 465)","(1286, 467)","(1313, 461)","(1340, 451)","(1363, 436)","(1379, 415)","(1390, 389)","(1398, 363)","(1406, 335)","(1225, 297)","(1233, 290)","(1245, 290)","(1257, 295)","(1269, 303)","(1295, 304)","(1314, 300)","(1335, 301)","(1355, 309)","(1369, 322)","(1278, 323)","(1272, 339)","(1265, 354)","(1258, 370)","(1250, 376)","(1256, 381)","(1263, 386)","(1273, 385)","(1283, 384)","(1238, 316)","(1247, 312)","(1258, 314)","(1266, 323)","(1255, 324)","(1245, 323)","(1309, 330)","(1320, 324)","(1333, 327)","(1343, 333)","(1332, 338)","(1319, 336)","(1245, 406)","(1249, 403)","(1256, 402)","(1262, 406)","(1271, 405)","(1285, 411)","(1302, 418)","(1284, 422)","(1270, 423)","(1261, 422)","(1254, 419)","(1248, 414)","(1249, 407)","(1255, 409)","(1262, 411)","(1271, 412)","(1294, 417)","(1271, 412)","(1262, 411)","(1256, 409)",0.33,1.43,59.0,0.34,0.18,0.31,0.01,-13.0,0.02,0.33,25.1,37.2,74.0,17.8,24.55,78.35,10.47,18.23,33.35
1766,589824,122,-56,-1,-1,0,"(1228, 309)","(1224, 329)","(1223, 351)","(1221, 372)","(1222, 394)","(1226, 416)","(1233, 436)","(1244, 455)","(1262, 464)","(1286, 467)","(1313, 461)","(1340, 451)","(1362, 436)","(1379, 415)","(1390, 389)","(1399, 362)","(1407, 334)","(1225, 295)","(1233, 288)","(1246, 289)","(1258, 293)","(1269, 301)","(1295, 303)","(1315, 299)","(1335, 300)","(1355, 308)","(1370, 321)","(1279, 321)","(1272, 337)","(1265, 352)","(1258, 368)","(1250, 374)","(1256, 380)","(1263, 384)","(1273, 383)","(1283, 382)","(1238, 314)","(1247, 310)","(1258, 312)","(1266, 321)","(1255, 323)","(1244, 321)","(1309, 329)","(1321, 323)","(1333, 325)","(1344, 332)","(1332, 336)","(1320, 334)","(1245, 405)","(1249, 401)","(1256, 400)","(1262, 404)","(1271, 404)","(1285, 410)","(1302, 418)","(1284, 422)","(1270, 423)","(1261, 421)","(1254, 419)","(1248, 414)","(1249, 406)","(1255, 408)","(1262, 410)","(1271, 411)","(1295, 417)","(1271, 412)","(1262, 411)","(1256, 408)",0.31,1.46,59.0,0.35,0.18,0.31,0.01,-13.0,0.02,0.32,26.1,39.8,76.0,18.0,24.7,77.4,9.58,17.05,32.41
1800,-196608,122,-56,-1,-1,0,"(1227, 309)","(1224, 330)","(1222, 352)","(1221, 373)","(1223, 396)","(1227, 417)","(1235, 438)","(1245, 456)","(1263, 466)","(1287, 468)","(1313, 461)","(1340, 451)","(1362, 436)","(1379, 415)","(1390, 390)","(1399, 363)","(1407, 335)","(1226, 295)","(1233, 287)","(1246, 287)","(1258, 292)","(1269, 301)","(1295, 303)","(1315, 299)","(1336, 299)","(1355, 308)","(1369, 322)","(1278, 321)","(1272, 337)","(1265, 352)","(1258, 369)","(1250, 374)","(1255, 380)","(1262, 384)","(1273, 383)","(1283, 382)","(1239, 314)","(1247, 310)","(1258, 312)","(1266, 321)","(1256, 323)","(1245, 321)","(1309, 329)","(1320, 323)","(1333, 325)","(1343, 332)","(1332, 336)","(1319, 335)","(1245, 405)","(1249, 401)","(1256, 400)","(1262, 404)","(1271, 404)","(1285, 410)","(1302, 418)","(1284, 423)","(1270, 424)","(1261, 423)","(1254, 420)","(1248, 414)","(1250, 405)","(1256, 407)","(1262, 410)","(1271, 411)","(1295, 417)","(1270, 414)","(1262, 412)","(1256, 409)",0.33,1.46,59.0,0.34,0.19,0.31,0.01,-13.0,0.02,0.33,27.6,40.5,76.7,17.45,23.0,71.5,9.82,17.17,32.35
1833,-589824,122,-56,-1,-1,0,"(1233, 318)","(1228, 337)","(1224, 357)","(1222, 378)","(1223, 399)","(1227, 420)","(1234, 439)","(1244, 457)","(1262, 466)","(1285, 468)","(1311, 462)","(1337, 453)","(1359, 439)","(1376, 418)","(1386, 394)","(1393, 369)","(1399, 342)","(1234, 302)","(1239, 293)","(1250, 291)","(1261, 294)","(1272, 302)","(1296, 303)","(1315, 299)","(1335, 301)","(1353, 310)","(1365, 325)","(1280, 323)","(1274, 337)","(1268, 351)","(1261, 365)","(1253, 374)","(1258, 379)","(1265, 383)","(1275, 382)","(1285, 382)","(1244, 320)","(1251, 316)","(1260, 317)","(1269, 324)","(1259, 326)","(1249, 325)","(1309, 330)","(1319, 325)","(1331, 328)","(1340, 335)","(1329, 337)","(1318, 335)","(1246, 405)","(1251, 401)","(1258, 400)","(1264, 403)","(1273, 403)","(1287, 409)","(1302, 418)","(1286, 423)","(1271, 424)","(1262, 423)","(1255, 420)","(1249, 415)","(1251, 406)","(1257, 407)","(1264, 409)","(1272, 411)","(1296, 417)","(1272, 414)","(1263, 413)","(1257, 410)",0.3,1.38,59.0,0.33,0.15,0.33,0.02,-11.0,0.03,0.29,24.7,36.1,73.0,16.1,22.75,74.0,10.52,19.88,38.7
1866,-983040,122,-56,-1,-1,0,"(1234, 318)","(1228, 337)","(1224, 357)","(1222, 378)","(1223, 399)","(1227, 419)","(1235, 438)","(1245, 456)","(1262, 466)","(1285, 468)","(1311, 462)","(1337, 453)","(1360, 439)","(1377, 418)","(1387, 394)","(1394, 369)","(1400, 342)","(1233, 302)","(1239, 293)","(1249, 291)","(1261, 295)","(1272, 302)","(1296, 304)","(1315, 300)","(1335, 301)","(1354, 311)","(1366, 325)","(1280, 323)","(1274, 337)","(1268, 351)","(1261, 366)","(1252, 374)","(1258, 379)","(1265, 383)","(1275, 383)","(1285, 382)","(1244, 319)","(1251, 315)","(1261, 316)","(1269, 324)","(1259, 326)","(1249, 324)","(1309, 331)","(1320, 326)","(1331, 328)","(1341, 335)","(1330, 338)","(1319, 336)","(1246, 405)","(1251, 400)","(1258, 399)","(1264, 403)","(1273, 403)","(1287, 409)","(1304, 418)","(1286, 423)","(1271, 424)","(1262, 422)","(1255, 419)","(1249, 414)","(1251, 405)","(1257, 407)","(1264, 409)","(1273, 410)","(1297, 417)","(1272, 414)","(1263, 412)","(1257, 409)",0.31,1.42,59.0,0.34,0.14,0.34,0.02,-11.5,0.03,0.3,23.9,38.0,75.0,15.55,22.6,73.9,11.58,19.82,39.17
1900,-983040,122,-56,-1,-1,0,"(1234, 318)","(1228, 337)","(1225, 357)","(1222, 378)","(1223, 399)","(1227, 420)","(1235, 439)","(1245, 457)","(1263, 466)","(1286, 468)","(1313, 462)","(1338, 452)","(1361, 438)","(1377, 417)","(1386, 393)","(1393, 367)","(1399, 341)","(1233, 303)","(1239, 293)","(1250, 292)","(1261, 295)","(1272, 303)","(1296, 304)","(1316, 300)","(1335, 302)","(1354, 311)","(1366, 326)","(1281, 323)","(1275, 337)","(1268, 351)","(1262, 366)","(1253, 375)","(1259, 380)","(1266, 383)","(1276, 383)","(1286, 382)","(1244, 320)","(1251, 315)","(1261, 317)","(1270, 325)","(1260, 326)","(1250, 325)","(1309, 331)","(1320, 325)","(1331, 328)","(1341, 335)","(1330, 338)","(1319, 336)","(1247, 405)","(1251, 401)","(1259, 400)","(1265, 403)","(1274, 403)","(1288, 409)","(1304, 418)","(1287, 422)","(1272, 423)","(1263, 421)","(1256, 418)","(1250, 413)","(1251, 405)","(1258, 407)","(1265, 410)","(1274, 411)","(1298, 416)","(1273, 412)","(1265, 411)","(1258, 408)",0.32,1.4,59.0,0.35,0.14,0.34,0.01,-12.0,0.03,0.3,26.2,39.1,74.1,17.3,25.2,76.75,13.05,21.58,40.47
1933,-1245184,122,-56,-1,-1,0,"(1235, 316)","(1229, 335)","(1225, 355)","(1223, 376)","(1223, 397)","(1227, 418)","(1235, 437)","(1245, 456)","(1262, 465)","(1285, 467)","(1312, 462)","(1339, 452)","(1361, 438)","(1378, 417)","(1387, 393)","(1395, 367)","(1400, 341)","(1234, 302)","(1239, 293)","(1250, 291)","(1262, 295)","(1272, 303)","(1296, 305)","(1315, 301)","(1335, 302)","(1354, 311)","(1366, 326)","(1280, 324)","(1274, 338)","(1268, 352)","(1261, 367)","(1253, 374)","(1258, 379)","(1265, 383)","(1275, 383)","(1286, 382)","(1245, 319)","(1251, 314)","(1261, 316)","(1270, 324)","(1260, 326)","(1250, 324)","(1309, 331)","(1320, 325)","(1331, 328)","(1341, 335)","(1330, 338)","(1319, 336)","(1246, 403)","(1251, 400)","(1258, 399)","(1265, 403)","(1273, 403)","(1288, 409)","(1304, 417)","(1286, 423)","(1271, 423)","(1262, 422)","(1255, 419)","(1249, 413)","(1251, 404)","(1258, 406)","(1264, 409)","(1273, 410)","(1298, 416)","(1272, 413)","(1264, 412)","(1257, 409)",0.32,1.42,59.0,0.34,0.15,0.35,0.02,-12.5,0.03,0.3,23.6,37.6,75.7,18.35,26.8,79.9,15.29,23.23,41.52
1966,-1638400,122,-56,-1,-1,0,"(1235, 317)","(1229, 336)","(1225, 356)","(1223, 377)","(1224, 398)","(1229, 418)","(1236, 437)","(1246, 455)","(1264, 465)","(1286, 467)","(1313, 461)","(1339, 452)","(1362, 437)","(1378, 417)","(1388, 393)","(1395, 367)","(1400, 341)","(1235, 302)","(1240, 293)","(1251, 291)","(1262, 295)","(1273, 303)","(1296, 304)","(1315, 300)","(1335, 301)","(1354, 310)","(1366, 324)","(1281, 324)","(1275, 338)","(1269, 352)","(1262, 366)","(1254, 375)","(1259, 380)","(1266, 383)","(1276, 383)","(1286, 382)","(1245, 320)","(1252, 315)","(1262, 317)","(1270, 325)","(1260, 327)","(1251, 325)","(1310, 331)","(1320, 325)","(1332, 328)","(1341, 335)","(1331, 338)","(1319, 336)","(1248, 404)","(1252, 400)","(1259, 399)","(1266, 403)","(1274, 403)","(1288, 409)","(1305, 417)","(1287, 422)","(1272, 422)","(1264, 421)","(1257, 418)","(1251, 413)","(1252, 405)","(1259, 407)","(1265, 409)","(1274, 410)","(1298, 416)","(1273, 412)","(1265, 411)","(1258, 408)",0.33,1.45,59.0,0.34,0.15,0.34,0.01,-12.5,0.03,0.29,26.2,40.8,77.3,16.35,23.95,75.75,13.88,22.05,39.76
2000,3735552,122,-56,-1,-1,0,"(1236, 316)","(1230, 336)","(1226, 356)","(1224, 377)","(1225, 398)","(1229, 419)","(1237, 439)","(1247, 457)","(1265, 466)","(1288, 468)","(1315, 462)","(1341, 452)","(1363, 437)","(1379, 417)","(1389, 392)","(1396, 366)","(1401, 339)","(1235, 300)","(1240, 292)","(1251, 291)","(1262, 295)","(1273, 302)","(1297, 304)","(1316, 300)","(1336, 301)","(1354, 310)","(1367, 323)","(1281, 323)","(1275, 337)","(1269, 351)","(1263, 366)","(1254, 374)","(1260, 379)","(1266, 383)","(1276, 383)","(1287, 381)","(1245, 318)","(1252, 314)","(1262, 316)","(1270, 324)","(1261, 326)","(1251, 324)","(1311, 330)","(1321, 325)","(1333, 327)","(1342, 334)","(1331, 337)","(1320, 335)","(1248, 405)","(1253, 401)","(1260, 399)","(1266, 403)","(1275, 403)","(1289, 408)","(1305, 417)","(1288, 422)","(1273, 423)","(1264, 422)","(1257, 419)","(1251, 414)","(1253, 405)","(1259, 407)","(1266, 409)","(1275, 410)","(1299, 416)","(1274, 413)","(1266, 411)","(1259, 409)",0.32,1.38,59.0,0.34,0.15,0.34,0.02,-12.0,0.03,0.3,26.6,40.3,77.3,15.5,24.2,73.1,13.7,23.0,44.11
2033,-2424832,122,-56,-1,-1,0,"(1236, 317)","(1229, 336)","(1226, 356)","(1224, 377)","(1224, 398)","(1229, 419)","(1237, 438)","(1247, 456)","(1265, 465)","(1288, 467)","(1314, 462)","(1340, 452)","(1362, 438)","(1378, 417)","(1388, 393)","(1395, 367)","(1401, 341)","(1235, 301)","(1240, 292)","(1251, 291)","(1263, 295)","(1273, 303)","(1298, 305)","(1317, 301)","(1337, 302)","(1355, 310)","(1367, 324)","(1282, 323)","(1276, 337)","(1270, 351)","(1264, 366)","(1255, 374)","(1260, 379)","(1267, 383)","(1277, 383)","(1287, 382)","(1245, 319)","(1252, 314)","(1262, 316)","(1270, 324)","(1261, 325)","(1251, 324)","(1311, 330)","(1321, 325)","(1333, 327)","(1342, 335)","(1332, 337)","(1321, 335)","(1248, 405)","(1253, 402)","(1260, 400)","(1266, 404)","(1275, 403)","(1289, 409)","(1305, 417)","(1288, 421)","(1273, 422)","(1265, 421)","(1258, 418)","(1252, 413)","(1253, 406)","(1260, 408)","(1266, 410)","(1274, 411)","(1298, 416)","(1274, 412)","(1266, 411)","(1260, 408)",0.31,1.37,59.0,0.34,0.15,0.34,0.01,-11.5,0.03,0.3,23.7,37.0,72.7,17.1,25.55,80.75,13.47,21.23,39.58
2066,-2359296,122,-56,-1,-1,0,"(1238, 317)","(1232, 335)","(1228, 355)","(1225, 376)","(1226, 397)","(1230, 418)","(1237, 438)","(1247, 457)","(1265, 466)","(1288, 469)","(1314, 463)","(1340, 453)","(1362, 438)","(1379, 417)","(1389, 393)","(1396, 367)","(1401, 341)","(1237, 302)","(1243, 293)","(1254, 292)","(1265, 297)","(1275, 304)","(1299, 306)","(1317, 301)","(1337, 303)","(1355, 311)","(1367, 324)","(1283, 324)","(1277, 338)","(1271, 352)","(1265, 367)","(1256, 374)","(1261, 380)","(1268, 384)","(1278, 383)","(1288, 382)","(1248, 319)","(1255, 315)","(1264, 316)","(1272, 324)","(1263, 325)","(1253, 324)","(1312, 330)","(1322, 325)","(1333, 328)","(1342, 335)","(1332, 337)","(1321, 335)","(1250, 405)","(1254, 401)","(1261, 401)","(1268, 404)","(1276, 404)","(1290, 409)","(1306, 418)","(1289, 423)","(1274, 423)","(1265, 422)","(1258, 419)","(1252, 414)","(1254, 406)","(1261, 408)","(1267, 410)","(1275, 411)","(1300, 417)","(1275, 413)","(1267, 412)","(1260, 409)",0.31,1.43,59.0,0.33,0.15,0.34,0.01,-11.0,0.03,0.3,21.5,34.9,70.6,18.7,27.8,85.1,18.11,26.35,47.11
2100,-1572864,122,-56,-1,-1,0,"(1238, 317)","(1231, 335)","(1227, 355)","(1224, 376)","(1224, 398)","(1229, 418)","(1236, 438)","(1246, 457)","(1264, 467)","(1287, 469)","(1313, 463)","(1339, 454)","(1362, 440)","(1379, 419)","(1388, 395)","(1396, 369)","(1402, 342)","(1237, 300)","(1243, 292)","(1253, 292)","(1264, 296)","(1275, 304)","(1299, 306)","(1318, 302)","(1337, 303)","(1356, 311)","(1368, 325)","(1283, 325)","(1277, 338)","(1270, 352)","(1264, 367)","(1255, 375)","(1260, 380)","(1267, 384)","(1277, 384)","(1287, 383)","(1247, 319)","(1254, 315)","(1264, 317)","(1272, 325)","(1262, 326)","(1252, 325)","(1312, 332)","(1322, 326)","(1334, 329)","(1343, 336)","(1333, 339)","(1321, 337)","(1248, 405)","(1253, 402)","(1260, 401)","(1266, 404)","(1275, 404)","(1289, 410)","(1305, 418)","(1288, 423)","(1273, 425)","(1265, 423)","(1258, 420)","(1251, 415)","(1253, 406)","(1260, 408)","(1266, 411)","(1274, 412)","(1298, 417)","(1274, 414)","(1266, 413)","(1260, 410)",0.33,1.39,59.0,0.34,0.18,0.34,0.01,-12.0,0.02,0.29,25.3,38.2,73.3,17.9,27.0,83.35,15.52,23.29,42.35
2133,393216,122,-56,-1,-1,0,"(1237, 316)","(1231, 336)","(1227, 356)","(1225, 377)","(1225, 399)","(1229, 420)","(1237, 441)","(1247, 460)","(1265, 469)","(1287, 471)","(1314, 465)","(1340, 455)","(1362, 440)","(1379, 419)","(1389, 394)","(1396, 368)","(1402, 342)","(1237, 302)","(1242, 293)","(1253, 293)","(1265, 297)","(1275, 305)","(1299, 307)","(1318, 303)","(1338, 304)","(1356, 312)","(1368, 326)","(1283, 325)","(1277, 339)","(1271, 353)","(1264, 367)","(1255, 376)","(1261, 381)","(1268, 385)","(1278, 384)","(1288, 383)","(1247, 320)","(1254, 316)","(1264, 317)","(1272, 325)","(1262, 327)","(1252, 325)","(1312, 332)","(1322, 326)","(1334, 329)","(1343, 336)","(1333, 339)","(1321, 337)","(1249, 408)","(1253, 404)","(1261, 402)","(1267, 406)","(1275, 405)","(1289, 411)","(1305, 419)","(1289, 426)","(1274, 427)","(1265, 426)","(1258, 423)","(1252, 418)","(1254, 409)","(1260, 410)","(1267, 412)","(1275, 413)","(1299, 418)","(1275, 417)","(1267, 415)","(1260, 413)",0.33,1.42,59.0,0.33,0.17,0.33,0.02,-12.0,0.03,0.29,25.5,37.8,73.9,16.95,24.75,74.0,14.88,23.29,41.58
2166,917504,122,-56,-1,-1,0,"(1235, 311)","(1230, 332)","(1227, 354)","(1225, 376)","(1226, 398)","(1231, 420)","(1238, 440)","(1247, 459)","(1264, 469)","(1287, 471)","(1313, 465)","(1341, 455)","(1365, 440)","(1384, 419)","(1397, 393)","(1407, 366)","(1415, 337)","(1235, 297)","(1242, 290)","(1253, 292)","(1264, 297)","(1274, 305)","(1299, 308)","(1319, 304)","(1339, 304)","(1359, 311)","(1374, 324)","(1282, 324)","(1276, 340)","(1268, 355)","(1261, 371)","(1254, 376)","(1258, 382)","(1265, 386)","(1276, 386)","(1286, 385)","(1246, 316)","(1253, 312)","(1264, 314)","(1272, 323)","(1261, 325)","(1251, 322)","(1314, 331)","(1324, 324)","(1336, 327)","(1346, 334)","(1335, 338)","(1323, 336)","(1249, 407)","(1253, 403)","(1259, 402)","(1265, 406)","(1274, 406)","(1288, 411)","(1304, 420)","(1286, 426)","(1272, 427)","(1263, 426)","(1256, 423)","(1251, 417)","(1253, 408)","(1258, 409)","(1265, 412)","(1273, 413)","(1297, 419)","(1273, 416)","(1265, 415)","(1258, 412)",0.35,1.49,59.0,0.32,0.2,0.3,0.02,-13.5,0.02,0.32,27.0,40.7,77.2,17.7,24.7,72.45,12.35,20.23,37.29
2200,0,122,-56,-1,-1,0,"(1236, 312)","(1230, 332)","(1227, 353)","(1225, 375)","(1226, 397)","(1229, 418)","(1236, 439)","(1245, 458)","(1262, 468)","(1285, 471)","(1313, 465)","(1341, 456)","(1365, 441)","(1384, 420)","(1397, 395)","(1407, 368)","(1415, 340)","(1235, 296)","(1242, 289)","(1253, 290)","(1264, 296)","(1274, 304)","(1299, 307)","(1319, 303)","(1339, 305)","(1358, 313)","(1372, 326)","(1282, 324)","(1275, 339)","(1268, 354)","(1260, 370)","(1253, 375)","(1258, 382)","(1265, 386)","(1275, 386)","(1285, 385)","(1246, 315)","(1253, 312)","(1263, 314)","(1271, 323)","(1261, 324)","(1251, 322)","(1313, 332)","(1323, 326)","(1335, 329)","(1345, 336)","(1333, 339)","(1322, 337)","(1249, 406)","(1252, 403)","(1259, 402)","(1265, 406)","(1273, 406)","(1287, 412)","(1304, 421)","(1285, 426)","(1270, 426)","(1262, 424)","(1255, 421)","(1250, 416)","(1253, 407)","(1258, 409)","(1264, 411)","(1273, 413)","(1297, 420)","(1272, 416)","(1264, 414)","(1257, 411)",0.32,1.55,59.0,0.32,0.22,0.3,0.02,-12.5,0.01,0.31,27.6,41.7,78.7,18.05,24.8,73.0,11.23,18.76,36.05
2233,-851968,122,-56,-1,-1,0,"(1240, 315)","(1232, 334)","(1228, 354)","(1225, 375)","(1225, 397)","(1228, 419)","(1235, 440)","(1245, 459)","(1263, 470)","(1286, 472)","(1313, 467)","(1340, 457)","(1362, 442)","(1380, 421)","(1390, 397)","(1397, 371)","(1403, 344)","(1238, 300)","(1244, 292)","(1255, 293)","(1266, 298)","(1276, 307)","(1301, 310)","(1320, 306)","(1339, 307)","(1357, 315)","(1370, 328)","(1284, 326)","(1278, 340)","(1271, 354)","(1264, 369)","(1255, 376)","(1261, 382)","(1267, 386)","(1277, 386)","(1288, 385)","(1248, 318)","(1255, 315)","(1264, 317)","(1272, 325)","(1262, 326)","(1253, 324)","(1314, 333)","(1324, 328)","(1336, 331)","(1345, 338)","(1334, 341)","(1323, 338)","(1249, 406)","(1253, 403)","(1260, 402)","(1266, 406)","(1275, 406)","(1289, 412)","(1305, 421)","(1288, 427)","(1273, 428)","(1264, 426)","(1256, 423)","(1251, 417)","(1253, 408)","(1259, 410)","(1266, 412)","(1274, 414)","(1298, 420)","(1274, 417)","(1265, 415)","(1259, 412)",0.32,1.47,59.0,0.34,0.21,0.34,0.02,-12.0,0.02,0.29,24.6,37.2,74.2,17.55,25.7,73.85,13.82,22.17,41.82
2266,-1179648,121,-56,-1,-1,0,"(1237, 314)","(1231, 334)","(1228, 356)","(1225, 377)","(1226, 399)","(1230, 420)","(1237, 439)","(1247, 458)","(1264, 467)","(1287, 470)","(1314, 465)","(1342, 455)","(1366, 441)","(1384, 421)","(1397, 397)","(1406, 370)","(1414, 342)","(1237, 300)","(1244, 293)","(1255, 294)","(1266, 299)","(1276, 307)","(1300, 310)","(1320, 307)","(1339, 308)","(1358, 316)","(1372, 329)","(1283, 327)","(1276, 341)","(1269, 355)","(1262, 371)","(1254, 376)","(1259, 382)","(1266, 386)","(1276, 386)","(1287, 385)","(1248, 318)","(1255, 314)","(1265, 316)","(1273, 325)","(1263, 326)","(1253, 324)","(1313, 333)","(1323, 328)","(1335, 331)","(1345, 338)","(1333, 341)","(1322, 339)","(1248, 407)","(1252, 403)","(1259, 402)","(1265, 406)","(1274, 406)","(1289, 412)","(1305, 421)","(1287, 425)","(1272, 425)","(1263, 424)","(1256, 421)","(1250, 415)","(1252, 407)","(1258, 409)","(1265, 412)","(1274, 413)","(1298, 420)","(1273, 415)","(1264, 414)","(1258, 411)",0.32,1.48,59.0,0.32,0.21,0.32,0.01,-12.5,0.02,0.31,25.5,37.6,74.3,19.1,26.2,77.1,12.0,21.35,39.7
2300,-1376256,121,-56,-1,-1,0,"(1238, 313)","(1232, 334)","(1228, 355)","(1226, 377)","(1226, 399)","(1230, 420)","(1237, 439)","(1247, 457)","(1264, 467)","(1287, 471)","(1314, 465)","(1342, 456)","(1366, 442)","(1385, 422)","(1397, 397)","(1407, 370)","(1415, 343)","(1237, 299)","(1244, 292)","(1254, 294)","(1265, 300)","(1275, 308)","(1301, 311)","(1320, 308)","(1340, 309)","(1359, 316)","(1373, 329)","(1283, 327)","(1276, 342)","(1269, 356)","(1261, 372)","(1253, 376)","(1259, 383)","(1265, 387)","(1276, 387)","(1287, 386)","(1247, 317)","(1254, 314)","(1265, 316)","(1273, 325)","(1262, 326)","(1252, 324)","(1314, 334)","(1324, 328)","(1336, 331)","(1346, 339)","(1335, 342)","(1323, 340)","(1248, 407)","(1252, 403)","(1259, 403)","(1265, 407)","(1274, 406)","(1289, 412)","(1305, 421)","(1287, 424)","(1272, 424)","(1263, 423)","(1256, 420)","(1250, 415)","(1252, 408)","(1258, 410)","(1265, 412)","(1273, 413)","(1298, 419)","(1273, 414)","(1265, 413)","(1258, 410)",0.35,1.46,59.0,0.33,0.23,0.32,0.01,-13.0,0.02,0.32,25.0,37.7,72.2,18.9,26.35,79.8,14.0,22.64,43.17
2333,-1376256,121,-56,-1,-1,0,"(1238, 313)","(1232, 333)","(1228, 355)","(1226, 376)","(1225, 398)","(1229, 419)","(1236, 438)","(1246, 456)","(1263, 466)","(1287, 470)","(1314, 465)","(1342, 457)","(1366, 443)","(1384, 423)","(1397, 398)","(1407, 372)","(1416, 345)","(1237, 298)","(1245, 292)","(1256, 293)","(1267, 300)","(1277, 308)","(1303, 312)","(1322, 309)","(1342, 310)","(1362, 318)","(1375, 331)","(1285, 327)","(1278, 342)","(1270, 356)","(1263, 372)","(1255, 376)","(1259, 383)","(1266, 387)","(1277, 387)","(1287, 386)","(1248, 316)","(1255, 313)","(1266, 315)","(1274, 325)","(1263, 326)","(1253, 323)","(1315, 335)","(1326, 329)","(1338, 332)","(1348, 340)","(1336, 343)","(1324, 341)","(1248, 406)","(1252, 403)","(1260, 402)","(1266, 406)","(1274, 406)","(1289, 413)","(1305, 422)","(1286, 424)","(1271, 424)","(1263, 422)","(1256, 419)","(1250, 414)","(1252, 407)","(1259, 409)","(1265, 412)","(1274, 413)","(1298, 420)","(1273, 414)","(1264, 412)","(1258, 409)",0.34,1.45,59.0,0.33,0.24,0.32,0.01,-13.5,0.01,0.32,26.0,39.4,76.4,20.65,29.1,86.85,13.11,21.41,42.11
2366,-1245184,121,-56,-1,-1,0,"(1238, 316)","(1232, 336)","(1228, 357)","(1225, 378)","(1225, 399)","(1229, 420)","(1237, 439)","(1246, 457)","(1264, 466)","(1287, 470)","(1314, 466)","(1341, 457)","(1365, 444)","(1384, 424)","(1397, 400)","(1406, 373)","(1414, 346)","(1238, 300)","(1245, 293)","(1255, 295)","(1266, 301)","(1276, 309)","(1301, 313)","(1320, 309)","(1340, 311)","(1359, 319)","(1373, 332)","(1284, 328)","(1277, 342)","(1270, 357)","(1263, 372)","(1254, 376)","(1259, 382)","(1266, 387)","(1277, 387)","(1288, 386)","(1249, 319)","(1256, 315)","(1265, 317)","(1273, 326)","(1263, 327)","(1253, 325)","(1314, 335)","(1325, 330)","(1336, 333)","(1346, 341)","(1335, 343)","(1323, 341)","(1248, 406)","(1253, 402)","(1260, 402)","(1266, 406)","(1275, 406)","(1288, 412)","(1305, 421)","(1286, 424)","(1272, 423)","(1263, 421)","(1256, 418)","(1251, 413)","(1252, 406)","(1259, 409)","(1265, 411)","(1274, 413)","(1298, 420)","(1273, 413)","(1265, 411)","(1258, 408)",0.32,1.37,59.0,0.32,0.24,0.32,0.01,-12.5,0.02,0.31,25.0,37.5,74.9,21.75,30.6,86.35,12.64,22.7,42.7
2400,-1310720,121,-56,-1,-1,0,"(1238, 313)","(1232, 334)","(1228, 355)","(1225, 377)","(1225, 399)","(1228, 420)","(1236, 439)","(1245, 457)","(1262, 467)","(1286, 470)","(1313, 466)","(1341, 456)","(1366, 443)","(1384, 422)","(1397, 398)","(1407, 371)","(1415, 344)","(1237, 299)","(1244, 293)","(1255, 295)","(1266, 301)","(1276, 309)","(1302, 313)","(1321, 310)","(1341, 310)","(1360, 318)","(1374, 331)","(1284, 328)","(1277, 343)","(1269, 357)","(1262, 372)","(1254, 377)","(1259, 383)","(1266, 388)","(1276, 388)","(1287, 387)","(1248, 318)","(1255, 315)","(1266, 317)","(1274, 326)","(1263, 327)","(1253, 325)","(1314, 335)","(1325, 330)","(1337, 333)","(1347, 340)","(1335, 343)","(1324, 341)","(1247, 406)","(1251, 403)","(1259, 403)","(1265, 407)","(1274, 406)","(1288, 412)","(1305, 421)","(1286, 423)","(1272, 423)","(1262, 421)","(1255, 418)","(1249, 414)","(1251, 407)","(1258, 409)","(1265, 412)","(1273, 413)","(1298, 419)","(1273, 413)","(1264, 412)","(1257, 409)",0.31,1.39,59.0,0.33,0.24,0.32,0.01,-12.5,0.01,0.31,26.8,39.0,74.7,19.9,29.25,85.0,12.64,20.64,39.0
2433,6291456,121,-56,-1,-1,0,"(1238, 316)","(1232, 336)","(1228, 357)","(1225, 378)","(1225, 400)","(1229, 420)","(1236, 439)","(1246, 457)","(1264, 467)","(1287, 470)","(1314, 466)","(1342, 457)","(1366, 443)","(1384, 423)","(1397, 399)","(1406, 372)","(1414, 345)","(1238, 300)","(1244, 293)","(1255, 295)","(1266, 301)","(1276, 309)","(1302, 313)","(1321, 310)","(1341, 311)","(1360, 318)","(1373, 331)","(1284, 328)","(1277, 342)","(1270, 356)","(1263, 371)","(1254, 376)","(1260, 383)","(1266, 387)","(1277, 387)","(1287, 386)","(1248, 318)","(1255, 315)","(1266, 317)","(1273, 326)","(1263, 327)","(1253, 325)","(1314, 335)","(1325, 329)","(1337, 333)","(1347, 340)","(1335, 343)","(1324, 341)","(1247, 406)","(1252, 403)","(1259, 402)","(1266, 406)","(1275, 406)","(1289, 412)","(1305, 421)","(1287, 424)","(1272, 423)","(1263, 422)","(1256, 419)","(1250, 414)","(1251, 407)","(1259, 409)","(1265, 412)","(1274, 413)","(1298, 419)","(1273, 413)","(1265, 412)","(1258, 409)",0.33,1.36,59.0,0.33,0.23,0.32,0.01,-13.0,0.01,0.3,26.9,39.8,74.9,21.05,30.8,86.65,12.41,20.88,41.23
2466,-2228224,121,-56,-1,-1,0,"(1238, 316)","(1232, 335)","(1228, 356)","(1225, 378)","(1225, 399)","(1229, 420)","(1236, 439)","(1246, 457)","(1263, 467)","(1286, 471)","(1313, 466)","(1341, 458)","(1365, 445)","(1384, 425)","(1397, 401)","(1407, 374)","(1415, 347)","(1239, 301)","(1245, 294)","(1256, 295)","(1267, 301)","(1277, 309)","(1302, 313)","(1321, 309)","(1341, 311)","(1360, 319)","(1374, 332)","(1284, 328)","(1277, 342)","(1270, 357)","(1263, 371)","(1255, 376)","(1260, 383)","(1266, 387)","(1277, 387)","(1287, 386)","(1249, 319)","(1256, 315)","(1266, 317)","(1274, 326)","(1264, 327)","(1254, 325)","(1314, 335)","(1325, 330)","(1337, 333)","(1346, 341)","(1335, 343)","(1323, 341)","(1248, 405)","(1252, 402)","(1259, 402)","(1266, 406)","(1274, 406)","(1289, 412)","(1305, 421)","(1286, 423)","(1271, 423)","(1263, 421)","(1256, 418)","(1250, 413)","(1251, 406)","(1259, 409)","(1265, 412)","(1274, 413)","(1298, 419)","(1273, 413)","(1264, 411)","(1258, 409)",0.32,1.45,59.0,0.32,0.23,0.32,0.0,-12.5,0.01,0.3,26.1,39.3,76.7,22.0,31.05,86.35,12.88,21.23,40.41
2500,-1703936,121,-56,-1,-1,0,"(1239, 315)","(1232, 335)","(1228, 356)","(1225, 378)","(1225, 400)","(1229, 421)","(1236, 440)","(1246, 458)","(1264, 468)","(1287, 471)","(1315, 467)","(1342, 458)","(1366, 444)","(1385, 424)","(1397, 399)","(1407, 373)","(1415, 346)","(1238, 301)","(1244, 294)","(1255, 295)","(1266, 301)","(1276, 309)","(1302, 313)","(1322, 310)","(1342, 311)","(1361, 319)","(1374, 333)","(1285, 328)","(1278, 342)","(1270, 357)","(1263, 372)","(1254, 376)","(1259, 383)","(1267, 388)","(1277, 387)","(1288, 386)","(1249, 319)","(1256, 315)","(1266, 317)","(1274, 326)","(1263, 327)","(1254, 325)","(1315, 335)","(1325, 330)","(1337, 334)","(1347, 341)","(1335, 343)","(1324, 341)","(1247, 406)","(1252, 403)","(1259, 403)","(1266, 406)","(1275, 406)","(1289, 412)","(1306, 421)","(1287, 423)","(1273, 423)","(1263, 421)","(1256, 418)","(1250, 414)","(1251, 407)","(1258, 409)","(1265, 412)","(1274, 413)","(1299, 419)","(1274, 413)","(1265, 412)","(1259, 409)",0.31,1.36,59.0,0.32,0.23,0.33,0.0,-12.5,0.01,0.31,27.5,40.2,75.7,21.6,29.75,86.15,12.11,20.35,38.52
2533,-655360,121,-56,-1,-1,0,"(1238, 314)","(1232, 335)","(1228, 357)","(1226, 379)","(1226, 401)","(1230, 422)","(1237, 440)","(1247, 458)","(1264, 468)","(1288, 471)","(1315, 466)","(1343, 457)","(1368, 443)","(1386, 422)","(1398, 398)","(1408, 371)","(1416, 344)","(1237, 301)","(1244, 294)","(1255, 296)","(1266, 301)","(1276, 310)","(1301, 314)","(1321, 310)","(1341, 311)","(1361, 319)","(1375, 332)","(1284, 328)","(1277, 343)","(1270, 357)","(1262, 372)","(1254, 377)","(1259, 383)","(1266, 388)","(1277, 387)","(1288, 387)","(1248, 319)","(1255, 315)","(1265, 318)","(1273, 326)","(1263, 328)","(1253, 325)","(1314, 335)","(1325, 329)","(1337, 333)","(1347, 340)","(1336, 343)","(1324, 341)","(1247, 407)","(1252, 404)","(1259, 403)","(1266, 407)","(1275, 407)","(1289, 412)","(1306, 421)","(1287, 423)","(1272, 423)","(1263, 422)","(1256, 419)","(1250, 414)","(1251, 408)","(1258, 410)","(1265, 412)","(1274, 414)","(1299, 419)","(1274, 414)","(1265, 412)","(1258, 409)",0.33,1.35,59.0,0.32,0.23,0.33,0.01,-13.5,0.02,0.31,27.9,39.9,78.1,19.9,29.5,86.05,12.58,20.88,41.0
2566,1441792,121,-56,-1,-1,0,"(1239, 313)","(1233, 334)","(1229, 355)","(1226, 377)","(1226, 399)","(1229, 420)","(1236, 439)","(1246, 458)","(1263, 468)","(1286, 471)","(1314, 467)","(1342, 458)","(1367, 444)","(1385, 423)","(1398, 398)","(1408, 372)","(1416, 344)","(1238, 301)","(1244, 294)","(1255, 296)","(1266, 302)","(1277, 311)","(1302, 315)","(1322, 311)","(1342, 312)","(1361, 319)","(1376, 332)","(1285, 329)","(1278, 343)","(1270, 358)","(1263, 373)","(1255, 378)","(1260, 384)","(1267, 388)","(1277, 388)","(1287, 387)","(1249, 319)","(1256, 315)","(1266, 317)","(1274, 326)","(1264, 328)","(1254, 325)","(1315, 336)","(1326, 330)","(1338, 333)","(1347, 340)","(1336, 344)","(1324, 341)","(1249, 407)","(1253, 404)","(1260, 404)","(1266, 407)","(1275, 407)","(1289, 413)","(1305, 421)","(1287, 424)","(1272, 423)","(1263, 421)","(1256, 418)","(1251, 414)","(1253, 408)","(1259, 410)","(1265, 412)","(1274, 414)","(1298, 420)","(1273, 414)","(1265, 412)","(1259, 409)",0.34,1.42,59.0,0.32,0.23,0.31,0.01,-13.5,0.01,0.31,25.2,38.1,73.7,20.9,29.4,86.65,15.64,23.17,42.47
2600,2097152,121,-56,-1,-1,0,"(1239, 314)","(1232, 334)","(1228, 355)","(1225, 377)","(1224, 399)","(1228, 420)","(1236, 439)","(1246, 458)","(1264, 468)","(1288, 471)","(1316, 467)","(1345, 458)","(1369, 443)","(1387, 422)","(1399, 398)","(1409, 371)","(1416, 344)","(1238, 299)","(1245, 293)","(1256, 295)","(1267, 301)","(1277, 310)","(1302, 314)","(1322, 311)","(1342, 312)","(1362, 319)","(1376, 331)","(1285, 329)","(1278, 343)","(1270, 357)","(1263, 372)","(1255, 378)","(1260, 384)","(1267, 388)","(1277, 388)","(1288, 387)","(1249, 318)","(1256, 314)","(1266, 317)","(1274, 326)","(1263, 327)","(1253, 325)","(1315, 335)","(1326, 329)","(1338, 332)","(1348, 340)","(1337, 343)","(1325, 341)","(1248, 407)","(1253, 404)","(1260, 404)","(1266, 408)","(1275, 407)","(1290, 413)","(1306, 422)","(1288, 424)","(1273, 423)","(1264, 422)","(1256, 419)","(1251, 414)","(1252, 408)","(1259, 410)","(1266, 413)","(1274, 414)","(1299, 420)","(1274, 414)","(1266, 412)","(1259, 409)",0.34,1.41,59.0,0.33,0.24,0.32,0.01,-13.5,0.01,0.3,27.4,42.5,78.8,21.2,30.7,86.55,11.29,18.88,36.41
2633,655360,121,-56,-1,-1,0,"(1238, 315)","(1232, 335)","(1228, 357)","(1225, 379)","(1225, 401)","(1229, 421)","(1236, 440)","(1247, 458)","(1264, 467)","(1288, 471)","(1316, 467)","(1344, 458)","(1368, 444)","(1387, 424)","(1399, 399)","(1408, 373)","(1416, 346)","(1237, 300)","(1244, 294)","(1256, 296)","(1267, 302)","(1277, 310)","(1303, 315)","(1323, 311)","(1343, 312)","(1362, 319)","(1377, 332)","(1285, 330)","(1279, 343)","(1271, 357)","(1264, 372)","(1255, 378)","(1261, 384)","(1268, 388)","(1278, 388)","(1289, 388)","(1248, 320)","(1255, 316)","(1266, 319)","(1274, 327)","(1263, 329)","(1253, 326)","(1316, 336)","(1327, 331)","(1339, 334)","(1349, 341)","(1337, 344)","(1325, 342)","(1248, 408)","(1253, 404)","(1260, 404)","(1267, 408)","(1276, 407)","(1291, 413)","(1308, 422)","(1289, 424)","(1274, 424)","(1265, 422)","(1257, 419)","(1251, 415)","(1252, 408)","(1259, 411)","(1266, 413)","(1275, 415)","(1301, 420)","(1275, 414)","(1266, 413)","(1259, 410)",0.32,1.39,59.0,0.33,0.23,0.33,0.01,-13.0,0.02,0.3,27.5,39.1,76.2,22.05,31.35,86.35,13.0,20.17,38.58
2666,-131072,121,-56,-1,-1,0,"(1240, 312)","(1233, 332)","(1229, 354)","(1226, 376)","(1225, 399)","(1229, 420)","(1236, 440)","(1246, 459)","(1264, 468)","(1287, 472)","(1315, 467)","(1344, 457)","(1368, 443)","(1387, 422)","(1400, 398)","(1409, 371)","(1417, 344)","(1238, 299)","(1245, 293)","(1256, 295)","(1267, 302)","(1277, 310)","(1301, 314)","(1321, 311)","(1342, 312)","(1361, 319)","(1376, 332)","(1284, 329)","(1277, 343)","(1270, 358)","(1262, 373)","(1254, 378)","(1259, 384)","(1266, 389)","(1277, 388)","(1288, 388)","(1248, 318)","(1255, 314)","(1266, 317)","(1274, 326)","(1263, 327)","(1253, 325)","(1315, 335)","(1326, 330)","(1338, 333)","(1348, 340)","(1336, 343)","(1324, 341)","(1247, 407)","(1252, 404)","(1259, 404)","(1266, 408)","(1275, 408)","(1289, 413)","(1306, 421)","(1287, 424)","(1272, 424)","(1263, 422)","(1256, 419)","(1250, 415)","(1251, 408)","(1258, 411)","(1265, 413)","(1274, 414)","(1299, 419)","(1274, 414)","(1265, 413)","(1258, 410)",0.32,1.35,59.0,0.33,0.25,0.33,0.01,-13.0,0.02,0.31,28.4,42.1,78.9,22.3,31.35,86.55,13.7,21.82,41.64
2700,-655360,120,-56,-1,-1,0,"(1240, 311)","(1233, 332)","(1229, 354)","(1226, 376)","(1225, 398)","(1228, 420)","(1235, 439)","(1245, 458)","(1262, 469)","(1286, 472)","(1314, 468)","(1342, 459)","(1367, 445)","(1386, 424)","(1399, 399)","(1409, 373)","(1417, 345)","(1238, 298)","(1246, 292)","(1257, 295)","(1268, 302)","(1278, 311)","(1304, 315)","(1323, 312)","(1344, 313)","(1363, 320)","(1378, 332)","(1286, 329)","(1279, 344)","(1271, 358)","(1264, 374)","(1255, 378)","(1260, 384)","(1267, 389)","(1278, 389)","(1288, 388)","(1248, 317)","(1256, 313)","(1267, 316)","(1275, 326)","(1264, 327)","(1253, 325)","(1316, 336)","(1327, 330)","(1340, 333)","(1350, 340)","(1338, 344)","(1326, 342)","(1248, 407)","(1253, 404)","(1260, 404)","(1266, 408)","(1276, 407)","(1290, 413)","(1307, 422)","(1288, 425)","(1273, 424)","(1263, 423)","(1256, 420)","(1251, 415)","(1252, 408)","(1259, 410)","(1266, 413)","(1275, 414)","(1300, 420)","(1274, 415)","(1265, 413)","(1259, 410)",0.33,1.37,59.0,0.34,0.26,0.33,0.01,-14.0,0.01,0.32,27.2,40.0,76.0,21.9,31.8,88.6,14.17,22.41,39.76
2733,-1114112,120,-56,-1,-1,0,"(1239, 314)","(1233, 334)","(1229, 356)","(1226, 377)","(1226, 399)","(1230, 420)","(1237, 440)","(1247, 458)","(1265, 467)","(1288, 471)","(1316, 466)","(1344, 457)","(1368, 443)","(1387, 423)","(1399, 398)","(1408, 372)","(1416, 345)","(1238, 300)","(1245, 294)","(1256, 296)","(1267, 302)","(1277, 311)","(1303, 315)","(1322, 312)","(1342, 312)","(1362, 319)","(1376, 332)","(1285, 329)","(1278, 343)","(1270, 358)","(1263, 373)","(1255, 377)","(1260, 384)","(1267, 388)","(1277, 388)","(1288, 387)","(1249, 318)","(1256, 315)","(1266, 317)","(1274, 326)","(1263, 327)","(1253, 325)","(1315, 335)","(1326, 330)","(1338, 333)","(1348, 340)","(1336, 344)","(1325, 341)","(1247, 407)","(1252, 404)","(1260, 404)","(1266, 407)","(1275, 407)","(1290, 412)","(1306, 420)","(1288, 423)","(1273, 423)","(1264, 421)","(1256, 418)","(1251, 414)","(1252, 408)","(1259, 410)","(1266, 413)","(1274, 414)","(1299, 419)","(1274, 413)","(1266, 412)","(1259, 409)",0.33,1.35,59.0,0.33,0.24,0.33,0.0,-13.0,0.01,0.31,27.9,40.0,75.5,21.35,29.3,86.3,15.17,23.64,43.76
2766,-1048576,120,-56,-1,-1,0,"(1239, 315)","(1233, 335)","(1229, 356)","(1226, 378)","(1225, 400)","(1229, 420)","(1237, 439)","(1246, 458)","(1264, 467)","(1287, 471)","(1315, 467)","(1343, 458)","(1368, 444)","(1386, 424)","(1398, 400)","(1408, 373)","(1416, 346)","(1238, 302)","(1245, 295)","(1256, 297)","(1267, 303)","(1278, 311)","(1303, 315)","(1322, 312)","(1343, 313)","(1362, 320)","(1375, 334)","(1285, 329)","(1278, 344)","(1271, 358)","(1264, 373)","(1256, 377)","(1261, 384)","(1268, 388)","(1278, 388)","(1288, 387)","(1250, 320)","(1257, 316)","(1267, 318)","(1275, 327)","(1265, 328)","(1255, 326)","(1315, 336)","(1326, 331)","(1338, 334)","(1348, 342)","(1336, 344)","(1325, 342)","(1249, 405)","(1254, 403)","(1261, 403)","(1267, 407)","(1276, 407)","(1290, 413)","(1306, 421)","(1287, 424)","(1272, 423)","(1264, 421)","(1257, 418)","(1251, 414)","(1253, 406)","(1260, 409)","(1266, 412)","(1275, 414)","(1299, 419)","(1274, 414)","(1266, 412)","(1259, 409)",0.31,1.37,59.0,0.33,0.23,0.32,0.01,-12.5,0.01,0.31,25.1,37.6,72.9,21.8,30.95,88.7,14.47,23.23,43.0
2800,-1376256,120,-56,-1,-1,0,"(1240, 311)","(1233, 332)","(1229, 354)","(1226, 376)","(1225, 398)","(1229, 420)","(1236, 439)","(1246, 457)","(1263, 467)","(1286, 471)","(1314, 466)","(1343, 457)","(1368, 444)","(1387, 423)","(1399, 398)","(1409, 372)","(1417, 344)","(1238, 298)","(1245, 292)","(1257, 295)","(1268, 302)","(1278, 310)","(1304, 315)","(1323, 311)","(1344, 312)","(1363, 319)","(1378, 331)","(1286, 329)","(1279, 343)","(1271, 358)","(1263, 373)","(1255, 377)","(1260, 384)","(1267, 388)","(1277, 388)","(1288, 387)","(1249, 317)","(1256, 313)","(1267, 316)","(1275, 326)","(1264, 327)","(1253, 324)","(1316, 335)","(1327, 329)","(1340, 332)","(1350, 340)","(1338, 343)","(1326, 341)","(1247, 406)","(1252, 403)","(1259, 403)","(1266, 407)","(1275, 407)","(1290, 412)","(1306, 421)","(1288, 424)","(1273, 424)","(1263, 422)","(1256, 419)","(1250, 414)","(1251, 407)","(1259, 410)","(1265, 412)","(1274, 413)","(1299, 419)","(1274, 414)","(1265, 412)","(1258, 410)",0.33,1.38,59.0,0.34,0.24,0.33,0.01,-14.0,0.01,0.31,28.2,39.9,76.5,22.9,32.45,88.2,13.17,21.41,40.0
2833,-1572864,120,-56,-1,-1,0,"(1239, 317)","(1232, 337)","(1229, 358)","(1226, 379)","(1226, 401)","(1230, 421)","(1238, 440)","(1249, 458)","(1266, 467)","(1289, 470)","(1316, 466)","(1344, 457)","(1368, 443)","(1387, 422)","(1399, 398)","(1408, 371)","(1415, 344)","(1238, 302)","(1245, 296)","(1256, 297)","(1267, 303)","(1277, 311)","(1302, 314)","(1322, 311)","(1341, 312)","(1360, 319)","(1374, 332)","(1285, 329)","(1278, 343)","(1271, 357)","(1264, 372)","(1256, 377)","(1261, 383)","(1268, 388)","(1278, 387)","(1289, 386)","(1249, 320)","(1256, 316)","(1266, 319)","(1274, 327)","(1264, 328)","(1254, 326)","(1315, 335)","(1326, 330)","(1337, 333)","(1347, 340)","(1336, 343)","(1324, 341)","(1249, 407)","(1253, 403)","(1261, 403)","(1267, 407)","(1276, 406)","(1291, 412)","(1307, 420)","(1289, 423)","(1274, 422)","(1265, 421)","(1258, 418)","(1252, 414)","(1253, 407)","(1260, 409)","(1267, 412)","(1276, 413)","(1300, 418)","(1275, 413)","(1267, 412)","(1260, 409)",0.32,1.41,59.0,0.32,0.23,0.32,0.01,-12.5,0.02,0.31,23.4,36.1,70.1,20.95,29.35,86.3,14.58,21.94,40.47
2866,11403264,120,-56,-1,-1,0,"(1241, 312)","(1234, 333)","(1230, 354)","(1227, 375)","(1226, 397)","(1229, 418)","(1236, 438)","(1246, 457)","(1263, 467)","(1287, 471)","(1315, 466)","(1343, 457)","(1368, 443)","(1387, 423)","(1399, 398)","(1409, 371)","(1417, 344)","(1239, 299)","(1247, 293)","(1257, 295)","(1268, 302)","(1278, 310)","(1302, 314)","(1322, 311)","(1342, 312)","(1361, 319)","(1375, 332)","(1285, 329)","(1279, 343)","(1271, 357)","(1264, 373)","(1256, 376)","(1261, 383)","(1268, 388)","(1278, 387)","(1289, 386)","(1250, 318)","(1258, 316)","(1267, 318)","(1275, 326)","(1265, 326)","(1256, 324)","(1316, 335)","(1326, 331)","(1338, 334)","(1348, 341)","(1336, 343)","(1325, 341)","(1249, 404)","(1254, 402)","(1260, 402)","(1267, 406)","(1276, 406)","(1290, 412)","(1307, 420)","(1287, 423)","(1272, 423)","(1263, 421)","(1256, 418)","(1251, 413)","(1253, 405)","(1259, 409)","(1266, 412)","(1275, 413)","(1300, 419)","(1274, 413)","(1265, 412)","(1258, 409)",0.29,1.39,59.0,0.32,0.25,0.32,0.0,-11.0,0.02,0.31,28.0,40.2,76.5,22.7,32.3,89.3,12.64,21.11,40.23
2900,-2293760,120,-56,-1,-1,0,"(1241, 308)","(1234, 330)","(1231, 352)","(1228, 374)","(1227, 397)","(1231, 418)","(1239, 438)","(1248, 456)","(1266, 466)","(1290, 470)","(1317, 465)","(1345, 455)","(1369, 441)","(1387, 420)","(1399, 395)","(1409, 369)","(1417, 341)","(1238, 295)","(1247, 290)","(1258, 294)","(1269, 301)","(1279, 310)","(1304, 315)","(1324, 311)","(1344, 312)","(1364, 318)","(1379, 330)","(1288, 327)","(1281, 342)","(1273, 358)","(1266, 373)","(1257, 377)","(1262, 383)","(1269, 388)","(1280, 388)","(1291, 387)","(1248, 314)","(1256, 311)","(1267, 314)","(1275, 324)","(1264, 324)","(1253, 321)","(1318, 334)","(1330, 329)","(1342, 332)","(1353, 339)","(1341, 342)","(1329, 340)","(1250, 405)","(1255, 402)","(1262, 402)","(1269, 406)","(1278, 406)","(1293, 412)","(1310, 421)","(1291, 424)","(1276, 423)","(1266, 421)","(1259, 418)","(1253, 413)","(1254, 406)","(1261, 409)","(1268, 412)","(1278, 413)","(1303, 419)","(1277, 413)","(1268, 412)","(1261, 408)",0.29,1.41,59.0,0.35,0.26,0.34,0.0,-13.0,0.01,0.33,29.3,43.2,78.7,23.25,32.1,88.35,11.29,21.23,38.23
2933,-1638400,120,-56,-1,-1,0,"(1241, 313)","(1235, 334)","(1231, 355)","(1228, 377)","(1228, 399)","(1232, 419)","(1240, 438)","(1249, 456)","(1267, 465)","(1290, 469)","(1317, 464)","(1345, 455)","(1369, 441)","(1387, 421)","(1399, 398)","(1408, 372)","(1416, 346)","(1238, 299)","(1246, 293)","(1257, 295)","(1269, 302)","(1279, 311)","(1303, 316)","(1323, 312)","(1343, 313)","(1363, 320)","(1377, 333)","(1287, 330)","(1280, 344)","(1273, 358)","(1266, 373)","(1257, 377)","(1262, 383)","(1269, 388)","(1280, 387)","(1291, 387)","(1249, 317)","(1257, 314)","(1267, 317)","(1276, 326)","(1264, 326)","(1254, 324)","(1316, 337)","(1328, 332)","(1340, 336)","(1350, 342)","(1338, 345)","(1326, 342)","(1249, 404)","(1255, 401)","(1263, 401)","(1269, 405)","(1278, 405)","(1292, 410)","(1309, 419)","(1290, 423)","(1275, 422)","(1266, 420)","(1259, 417)","(1253, 413)","(1254, 405)","(1262, 408)","(1268, 410)","(1277, 412)","(1302, 418)","(1277, 412)","(1268, 411)","(1261, 408)",0.28,1.31,59.0,0.35,0.25,0.34,0.01,-12.5,0.02,0.31,23.2,35.2,68.4,23.4,33.15,88.35,13.29,20.7,40.94
2966,-655360,120,-56,-1,-1,0,"(1243, 310)","(1236, 331)","(1232, 352)","(1229, 374)","(1228, 396)","(1232, 417)","(1239, 436)","(1248, 454)","(1265, 464)","(1289, 469)","(1316, 464)","(1344, 456)","(1368, 442)","(1387, 422)","(1399, 399)","(1409, 373)","(1418, 346)","(1240, 295)","(1248, 290)","(1260, 293)","(1271, 300)","(1281, 309)","(1306, 314)","(1326, 311)","(1346, 312)","(1365, 319)","(1379, 332)","(1289, 327)","(1282, 342)","(1275, 356)","(1267, 371)","(1258, 375)","(1263, 382)","(1270, 387)","(1281, 386)","(1292, 386)","(1250, 314)","(1258, 312)","(1269, 315)","(1277, 324)","(1266, 324)","(1256, 321)","(1319, 335)","(1331, 331)","(1342, 334)","(1353, 341)","(1341, 343)","(1329, 341)","(1250, 402)","(1256, 400)","(1263, 400)","(1270, 405)","(1279, 405)","(1293, 411)","(1310, 419)","(1291, 423)","(1276, 422)","(1266, 420)","(1259, 417)","(1253, 411)","(1255, 404)","(1262, 407)","(1269, 410)","(1278, 412)","(1303, 418)","(1277, 412)","(1268, 410)","(1262, 407)",0.27,1.33,59.0,0.35,0.28,0.34,0.01,-12.0,0.01,0.32,25.0,38.7,73.9,23.0,32.35,89.85,10.58,19.05,37.47
3000,1441792,120,-56,-1,-1,0,"(1244, 314)","(1237, 334)","(1233, 355)","(1229, 376)","(1229, 397)","(1233, 417)","(1240, 435)","(1250, 453)","(1267, 463)","(1290, 467)","(1317, 464)","(1345, 456)","(1369, 443)","(1388, 424)","(1400, 400)","(1410, 374)","(1418, 348)","(1242, 299)","(1250, 293)","(1261, 295)","(1272, 301)","(1282, 310)","(1306, 314)","(1326, 310)","(1346, 311)","(1366, 319)","(1380, 332)","(1289, 327)","(1283, 341)","(1275, 355)","(1268, 370)","(1259, 374)","(1264, 381)","(1271, 386)","(1282, 385)","(1293, 385)","(1252, 317)","(1260, 315)","(1270, 317)","(1278, 325)","(1268, 326)","(1258, 324)","(1320, 335)","(1331, 331)","(1343, 334)","(1353, 341)","(1341, 343)","(1329, 340)","(1251, 402)","(1256, 400)","(1264, 400)","(1271, 404)","(1280, 404)","(1294, 410)","(1311, 418)","(1292, 421)","(1277, 420)","(1267, 418)","(1260, 415)","(1254, 410)","(1255, 403)","(1263, 406)","(1270, 409)","(1279, 411)","(1304, 416)","(1278, 410)","(1269, 409)","(1262, 406)",0.27,1.32,58.0,0.34,0.25,0.34,0.01,-11.5,0.02,0.31,25.3,38.1,73.9,22.25,31.4,87.3,14.0,22.88,42.52
3033,1179648,120,-56,-1,-1,0,"(1245, 312)","(1239, 332)","(1234, 353)","(1231, 374)","(1230, 395)","(1234, 416)","(1241, 435)","(1251, 453)","(1268, 463)","(1291, 467)","(1319, 463)","(1347, 455)","(1372, 442)","(1391, 422)","(1403, 398)","(1413, 372)","(1421, 345)","(1244, 298)","(1251, 291)","(1262, 294)","(1273, 300)","(1283, 308)","(1306, 312)","(1326, 309)","(1346, 311)","(1365, 318)","(1380, 331)","(1290, 327)","(1283, 341)","(1276, 355)","(1268, 370)","(1260, 374)","(1265, 380)","(1272, 385)","(1282, 385)","(1293, 384)","(1255, 317)","(1262, 314)","(1272, 317)","(1279, 324)","(1269, 325)","(1260, 323)","(1320, 334)","(1331, 330)","(1342, 334)","(1352, 340)","(1341, 342)","(1330, 339)","(1254, 401)","(1258, 399)","(1265, 399)","(1271, 403)","(1280, 403)","(1294, 409)","(1311, 417)","(1291, 420)","(1277, 419)","(1268, 417)","(1261, 414)","(1256, 410)","(1258, 402)","(1264, 406)","(1271, 408)","(1279, 410)","(1304, 416)","(1278, 410)","(1270, 408)","(1263, 405)",0.26,1.43,58.0,0.32,0.24,0.32,0.01,-11.5,0.01,0.31,26.4,39.0,73.5,21.95,31.15,87.8,14.47,24.05,43.94
3066,-393216,120,-56,-1,-1,0,"(1246, 310)","(1239, 330)","(1234, 352)","(1231, 373)","(1231, 395)","(1234, 415)","(1242, 435)","(1251, 453)","(1269, 463)","(1292, 467)","(1320, 463)","(1348, 455)","(1372, 442)","(1391, 422)","(1404, 398)","(1414, 372)","(1423, 345)","(1245, 294)","(1253, 289)","(1264, 292)","(1275, 298)","(1285, 307)","(1309, 312)","(1329, 309)","(1350, 310)","(1370, 318)","(1384, 331)","(1292, 326)","(1285, 340)","(1277, 354)","(1270, 369)","(1261, 373)","(1267, 380)","(1273, 384)","(1284, 384)","(1295, 384)","(1255, 314)","(1263, 311)","(1273, 314)","(1281, 323)","(1270, 324)","(1260, 321)","(1323, 334)","(1334, 329)","(1346, 332)","(1356, 339)","(1344, 342)","(1333, 340)","(1254, 402)","(1259, 399)","(1266, 399)","(1273, 403)","(1282, 403)","(1296, 409)","(1313, 419)","(1294, 421)","(1279, 420)","(1270, 418)","(1262, 415)","(1257, 410)","(1258, 403)","(1265, 406)","(1272, 408)","(1281, 410)","(1306, 417)","(1280, 410)","(1271, 408)","(1265, 405)",0.31,1.38,58.0,0.33,0.27,0.33,0.01,-13.0,0.01,0.31,26.3,40.9,77.1,22.5,32.8,88.9,11.88,20.47,38.64
3100,-720896,119,-56,-1,-1,0,"(1248, 309)","(1240, 330)","(1236, 351)","(1232, 372)","(1232, 394)","(1236, 415)","(1243, 434)","(1253, 453)","(1270, 463)","(1294, 467)","(1321, 464)","(1350, 455)","(1374, 442)","(1393, 422)","(1406, 398)","(1416, 372)","(1424, 345)","(1247, 295)","(1255, 290)","(1266, 292)","(1276, 299)","(1286, 308)","(1310, 312)","(1330, 309)","(1350, 311)","(1370, 318)","(1384, 331)","(1293, 327)","(1286, 340)","(1278, 354)","(1271, 369)","(1263, 374)","(1268, 380)","(1274, 385)","(1285, 384)","(1296, 384)","(1257, 314)","(1265, 311)","(1275, 314)","(1283, 323)","(1272, 324)","(1262, 321)","(1324, 333)","(1335, 328)","(1347, 332)","(1356, 339)","(1345, 342)","(1333, 339)","(1256, 402)","(1260, 399)","(1268, 399)","(1274, 403)","(1283, 403)","(1297, 409)","(1314, 418)","(1295, 420)","(1280, 419)","(1271, 417)","(1264, 414)","(1258, 410)","(1260, 403)","(1267, 406)","(1273, 409)","(1282, 410)","(1307, 417)","(1282, 410)","(1273, 408)","(1266, 405)",0.32,1.41,59.0,0.33,0.28,0.32,0.0,-13.5,0.01,0.3,24.9,38.3,76.5,22.35,30.95,88.5,11.23,20.76,41.7
3133,-1114112,119,-56,-1,-1,0,"(1250, 307)","(1242, 326)","(1237, 347)","(1233, 367)","(1232, 389)","(1235, 410)","(1242, 430)","(1252, 449)","(1269, 460)","(1292, 466)","(1320, 463)","(1349, 455)","(1374, 442)","(1394, 422)","(1406, 397)","(1416, 370)","(1425, 343)","(1249, 294)","(1257, 290)","(1267, 293)","(1277, 299)","(1287, 308)","(1311, 311)","(1331, 309)","(1351, 310)","(1371, 318)","(1385, 331)","(1294, 326)","(1287, 340)","(1280, 354)","(1272, 369)","(1264, 373)","(1269, 379)","(1275, 384)","(1286, 384)","(1297, 384)","(1259, 314)","(1267, 312)","(1277, 315)","(1284, 323)","(1274, 324)","(1264, 321)","(1324, 333)","(1335, 329)","(1347, 333)","(1357, 339)","(1345, 342)","(1334, 340)","(1256, 399)","(1261, 398)","(1268, 398)","(1274, 403)","(1283, 403)","(1297, 409)","(1314, 417)","(1295, 420)","(1280, 419)","(1271, 417)","(1264, 413)","(1258, 408)","(1260, 400)","(1267, 405)","(1273, 408)","(1282, 410)","(1307, 415)","(1281, 409)","(1272, 407)","(1266, 404)",0.3,1.39,59.0,0.33,0.3,0.33,0.01,-12.5,0.01,0.32,25.6,39.6,76.9,21.45,30.1,85.7,10.52,18.82,37.41
3166,-1638400,119,-56,-1,-1,0,"(1249, 308)","(1242, 328)","(1237, 349)","(1234, 370)","(1233, 392)","(1237, 413)","(1244, 433)","(1253, 453)","(1271, 463)","(1294, 468)","(1321, 464)","(1350, 456)","(1375, 443)","(1394, 422)","(1407, 398)","(1416, 372)","(1425, 344)","(1249, 296)","(1257, 290)","(1268, 293)","(1278, 299)","(1288, 307)","(1312, 312)","(1332, 309)","(1352, 310)","(1372, 318)","(1385, 332)","(1295, 326)","(1288, 340)","(1281, 354)","(1273, 369)","(1265, 372)","(1270, 379)","(1277, 384)","(1287, 384)","(1298, 383)","(1260, 314)","(1267, 312)","(1277, 314)","(1285, 323)","(1275, 324)","(1265, 321)","(1326, 333)","(1337, 329)","(1348, 332)","(1358, 339)","(1347, 342)","(1335, 339)","(1258, 400)","(1262, 398)","(1270, 398)","(1276, 403)","(1285, 403)","(1299, 409)","(1316, 418)","(1296, 421)","(1281, 420)","(1272, 418)","(1265, 415)","(1260, 409)","(1262, 401)","(1269, 405)","(1275, 408)","(1284, 410)","(1309, 417)","(1283, 411)","(1274, 409)","(1268, 406)",0.31,1.41,59.0,0.32,0.26,0.32,0.01,-12.5,0.01,0.31,26.9,39.9,74.8,22.85,32.8,89.75,9.41,16.82,32.23
3200,-1572864,119,-56,-1,-1,0,"(1253, 305)","(1244, 325)","(1239, 346)","(1235, 367)","(1234, 390)","(1238, 411)","(1245, 431)","(1254, 450)","(1272, 462)","(1295, 466)","(1323, 462)","(1351, 454)","(1375, 440)","(1394, 420)","(1406, 395)","(1415, 370)","(1422, 343)","(1251, 284)","(1259, 280)","(1269, 284)","(1279, 292)","(1288, 303)","(1317, 310)","(1335, 306)","(1355, 307)","(1373, 314)","(1387, 326)","(1297, 325)","(1290, 339)","(1282, 353)","(1275, 368)","(1265, 373)","(1271, 380)","(1277, 384)","(1287, 385)","(1298, 384)","(1258, 309)","(1266, 305)","(1277, 309)","(1285, 321)","(1274, 321)","(1262, 318)","(1326, 333)","(1338, 327)","(1351, 330)","(1361, 339)","(1349, 342)","(1336, 339)","(1258, 401)","(1263, 398)","(1270, 399)","(1276, 403)","(1285, 403)","(1299, 409)","(1315, 418)","(1296, 421)","(1282, 420)","(1273, 418)","(1266, 415)","(1261, 410)","(1262, 402)","(1269, 406)","(1275, 409)","(1284, 411)","(1308, 416)","(1284, 410)","(1275, 409)","(1269, 405)",0.34,1.38,59.0,0.37,0.33,0.33,0.0,-15.5,0.0,0.31,30.3,45.7,86.0,23.05,33.15,89.3,10.35,17.35,35.58
3233,-1638400,119,-56,-1,-1,0,"(1251, 307)","(1244, 327)","(1240, 347)","(1237, 368)","(1236, 390)","(1239, 411)","(1246, 431)","(1256, 450)","(1274, 461)","(1297, 466)","(1325, 463)","(1353, 455)","(1377, 442)","(1396, 421)","(1408, 397)","(1418, 370)","(1426, 343)","(1251, 294)","(1259, 289)","(1270, 293)","(1280, 299)","(1290, 308)","(1316, 312)","(1335, 309)","(1355, 310)","(1375, 317)","(1389, 330)","(1298, 326)","(1291, 341)","(1284, 355)","(1276, 370)","(1268, 373)","(1273, 380)","(1279, 385)","(1290, 385)","(1301, 384)","(1261, 314)","(1269, 311)","(1279, 314)","(1287, 323)","(1276, 324)","(1266, 321)","(1329, 333)","(1340, 329)","(1352, 332)","(1361, 339)","(1350, 342)","(1338, 339)","(1260, 400)","(1265, 399)","(1272, 399)","(1278, 403)","(1287, 403)","(1301, 409)","(1318, 418)","(1299, 420)","(1284, 420)","(1276, 417)","(1269, 414)","(1263, 409)","(1264, 402)","(1271, 406)","(1278, 409)","(1286, 410)","(1311, 416)","(1286, 410)","(1278, 408)","(1271, 405)",0.31,1.39,59.0,0.33,0.28,0.33,0.0,-13.0,0.01,0.32,26.7,39.3,75.7,22.35,31.45,88.35,9.0,17.41,34.47
3266,-2097152,119,-56,-1,-1,0,"(1254, 312)","(1246, 332)","(1242, 352)","(1238, 372)","(1238, 394)","(1242, 415)","(1249, 434)","(1259, 453)","(1276, 463)","(1299, 467)","(1326, 463)","(1352, 455)","(1376, 441)","(1393, 421)","(1403, 396)","(1411, 371)","(1418, 344)","(1254, 300)","(1260, 293)","(1271, 294)","(1282, 299)","(1292, 307)","(1318, 312)","(1336, 308)","(1356, 309)","(1374, 316)","(1387, 329)","(1300, 326)","(1294, 340)","(1287, 354)","(1280, 369)","(1270, 374)","(1276, 380)","(1282, 384)","(1293, 384)","(1303, 383)","(1263, 317)","(1270, 314)","(1280, 316)","(1288, 324)","(1278, 325)","(1268, 323)","(1329, 333)","(1340, 328)","(1351, 331)","(1361, 338)","(1350, 341)","(1339, 338)","(1262, 402)","(1267, 399)","(1275, 399)","(1281, 403)","(1290, 402)","(1304, 408)","(1319, 417)","(1301, 421)","(1287, 421)","(1278, 419)","(1271, 416)","(1265, 411)","(1266, 403)","(1274, 406)","(1281, 409)","(1289, 410)","(1313, 416)","(1288, 411)","(1280, 409)","(1273, 406)",0.31,1.32,59.0,0.34,0.21,0.34,0.01,-12.0,0.01,0.31,26.7,40.2,75.8,22.25,32.0,88.8,10.76,20.11,41.47
3300,13238272,119,-56,-1,-1,0,"(1254, 312)","(1247, 331)","(1243, 351)","(1239, 372)","(1239, 394)","(1243, 415)","(1250, 434)","(1261, 453)","(1278, 463)","(1302, 467)","(1328, 463)","(1355, 455)","(1377, 441)","(1394, 420)","(1405, 396)","(1413, 370)","(1419, 344)","(1256, 300)","(1262, 293)","(1273, 293)","(1284, 299)","(1295, 307)","(1319, 311)","(1338, 308)","(1357, 309)","(1376, 316)","(1388, 329)","(1302, 325)","(1295, 339)","(1289, 353)","(1282, 367)","(1273, 373)","(1278, 379)","(1284, 383)","(1295, 383)","(1305, 382)","(1265, 316)","(1272, 313)","(1282, 315)","(1290, 323)","(1280, 324)","(1270, 322)","(1331, 333)","(1342, 328)","(1353, 331)","(1363, 338)","(1352, 340)","(1340, 338)","(1264, 401)","(1269, 399)","(1277, 399)","(1283, 403)","(1292, 403)","(1306, 409)","(1322, 417)","(1304, 421)","(1289, 420)","(1280, 418)","(1273, 415)","(1267, 410)","(1268, 403)","(1276, 406)","(1283, 408)","(1291, 410)","(1315, 416)","(1291, 411)","(1282, 409)","(1275, 406)",0.29,1.34,59.0,0.34,0.21,0.35,0.01,-11.5,0.01,0.3,27.2,41.1,79.4,22.35,31.3,88.05,10.47,19.23,37.82
3333,-1966080,119,-56,-1,-1,0,"(1254, 310)","(1248, 330)","(1244, 350)","(1241, 372)","(1241, 393)","(1244, 414)","(1252, 433)","(1262, 451)","(1279, 462)","(1303, 466)","(1330, 462)","(1358, 454)","(1383, 441)","(1402, 421)","(1414, 397)","(1424, 371)","(1432, 344)","(1257, 297)","(1263, 291)","(1274, 292)","(1285, 299)","(1296, 306)","(1320, 311)","(1340, 308)","(1361, 309)","(1380, 317)","(1394, 330)","(1303, 325)","(1296, 339)","(1289, 353)","(1281, 369)","(1272, 373)","(1277, 379)","(1284, 384)","(1295, 384)","(1306, 383)","(1266, 314)","(1273, 310)","(1284, 313)","(1292, 322)","(1281, 323)","(1271, 320)","(1333, 332)","(1344, 327)","(1356, 330)","(1366, 338)","(1354, 340)","(1342, 338)","(1264, 401)","(1270, 398)","(1278, 398)","(1284, 402)","(1293, 402)","(1307, 408)","(1323, 417)","(1304, 419)","(1289, 418)","(1280, 416)","(1273, 413)","(1267, 409)","(1268, 402)","(1276, 405)","(1283, 408)","(1292, 409)","(1316, 415)","(1291, 409)","(1282, 407)","(1276, 404)",0.31,1.29,59.0,0.33,0.23,0.33,0.0,-13.0,0.01,0.32,30.2,43.6,82.0,22.6,31.25,85.75,12.52,20.88,40.17
3366,-1572864,119,-56,-1,-1,0,"(1257, 306)","(1250, 326)","(1246, 347)","(1242, 368)","(1242, 391)","(1245, 412)","(1253, 433)","(1263, 452)","(1282, 462)","(1305, 466)","(1332, 461)","(1358, 453)","(1380, 438)","(1397, 418)","(1407, 393)","(1415, 368)","(1421, 341)","(1256, 295)","(1263, 289)","(1275, 292)","(1286, 298)","(1297, 307)","(1323, 312)","(1342, 308)","(1361, 309)","(1379, 316)","(1392, 329)","(1305, 325)","(1298, 339)","(1292, 353)","(1285, 368)","(1275, 373)","(1280, 379)","(1287, 384)","(1298, 383)","(1308, 383)","(1265, 313)","(1274, 310)","(1284, 313)","(1292, 322)","(1281, 323)","(1271, 320)","(1334, 332)","(1345, 328)","(1357, 331)","(1367, 338)","(1356, 341)","(1344, 338)","(1266, 401)","(1272, 398)","(1280, 399)","(1286, 403)","(1295, 403)","(1309, 409)","(1325, 418)","(1307, 422)","(1292, 421)","(1283, 419)","(1275, 416)","(1269, 411)","(1270, 402)","(1278, 406)","(1286, 409)","(1294, 410)","(1319, 416)","(1294, 411)","(1285, 409)","(1278, 406)",0.29,1.31,59.0,0.36,0.26,0.35,0.01,-13.0,0.01,0.31,26.9,39.8,74.1,22.3,32.15,89.6,11.0,20.23,40.11
3400,-196608,119,-56,-1,-1,0,"(1257, 310)","(1251, 330)","(1247, 351)","(1244, 372)","(1244, 394)","(1249, 415)","(1257, 435)","(1268, 454)","(1286, 464)","(1310, 466)","(1337, 461)","(1363, 452)","(1384, 438)","(1400, 417)","(1409, 393)","(1416, 367)","(1422, 341)","(1257, 298)","(1264, 291)","(1276, 292)","(1288, 298)","(1299, 307)","(1324, 311)","(1343, 308)","(1362, 309)","(1381, 316)","(1393, 329)","(1307, 325)","(1301, 338)","(1294, 352)","(1288, 366)","(1278, 373)","(1284, 378)","(1291, 383)","(1301, 382)","(1311, 381)","(1267, 315)","(1275, 311)","(1286, 314)","(1294, 323)","(1283, 324)","(1273, 321)","(1336, 332)","(1347, 327)","(1359, 330)","(1368, 337)","(1357, 340)","(1345, 338)","(1269, 402)","(1275, 399)","(1283, 399)","(1290, 403)","(1299, 402)","(1313, 408)","(1329, 417)","(1312, 421)","(1297, 421)","(1288, 419)","(1280, 416)","(1273, 411)","(1274, 403)","(1282, 406)","(1290, 408)","(1298, 410)","(1323, 416)","(1298, 411)","(1289, 409)","(1282, 406)",0.33,1.28,59.0,0.36,0.23,0.36,0.01,-13.0,0.02,0.29,26.6,39.4,75.7,20.8,30.75,87.85,12.0,22.17,41.94
3433,1572864,119,-56,-1,-1,0,"(1257, 307)","(1251, 328)","(1248, 349)","(1245, 371)","(1245, 393)","(1250, 415)","(1258, 436)","(1269, 454)","(1288, 463)","(1312, 466)","(1338, 460)","(1364, 451)","(1385, 436)","(1400, 415)","(1408, 391)","(1415, 366)","(1421, 340)","(1257, 298)","(1265, 290)","(1278, 291)","(1290, 297)","(1301, 306)","(1326, 311)","(1345, 307)","(1364, 308)","(1383, 315)","(1395, 328)","(1309, 324)","(1304, 338)","(1298, 351)","(1291, 366)","(1281, 372)","(1287, 378)","(1294, 382)","(1304, 382)","(1314, 381)","(1269, 314)","(1277, 311)","(1287, 313)","(1296, 322)","(1285, 323)","(1275, 321)","(1337, 331)","(1348, 326)","(1360, 329)","(1370, 336)","(1359, 339)","(1347, 336)","(1271, 401)","(1277, 398)","(1286, 398)","(1292, 402)","(1301, 402)","(1315, 407)","(1330, 415)","(1313, 419)","(1299, 419)","(1290, 418)","(1282, 415)","(1275, 410)","(1275, 402)","(1285, 405)","(1292, 408)","(1300, 409)","(1324, 414)","(1300, 410)","(1292, 408)","(1285, 405)",0.3,1.24,59.0,0.36,0.2,0.35,0.01,-12.5,0.03,0.3,27.8,41.0,75.6,20.65,29.4,86.4,12.58,22.29,42.05
3466,786432,119,-56,-1,-1,0,"(1259, 305)","(1253, 326)","(1249, 347)","(1246, 368)","(1246, 390)","(1250, 411)","(1257, 430)","(1267, 449)","(1284, 460)","(1308, 465)","(1335, 461)","(1363, 453)","(1388, 440)","(1407, 420)","(1420, 396)","(1430, 369)","(1438, 342)","(1262, 294)","(1270, 287)","(1282, 289)","(1294, 296)","(1304, 304)","(1329, 309)","(1348, 306)","(1368, 307)","(1388, 314)","(1402, 327)","(1311, 323)","(1304, 337)","(1297, 352)","(1289, 367)","(1280, 371)","(1285, 377)","(1292, 382)","(1303, 382)","(1314, 381)","(1272, 312)","(1281, 309)","(1291, 311)","(1299, 321)","(1288, 322)","(1278, 319)","(1341, 331)","(1352, 326)","(1364, 329)","(1374, 337)","(1363, 339)","(1351, 337)","(1270, 398)","(1276, 396)","(1285, 396)","(1291, 400)","(1300, 400)","(1314, 406)","(1330, 416)","(1311, 420)","(1296, 420)","(1287, 418)","(1279, 414)","(1273, 409)","(1275, 399)","(1283, 403)","(1290, 406)","(1299, 407)","(1324, 414)","(1298, 409)","(1289, 408)","(1282, 404)",0.31,1.27,59.0,0.33,0.23,0.33,0.01,-13.0,0.01,0.32,28.9,43.5,83.3,22.35,33.1,90.4,12.47,19.88,36.0
3500,-589824,119,-56,-1,-1,0,"(1261, 302)","(1255, 323)","(1251, 344)","(1248, 365)","(1248, 387)","(1251, 408)","(1259, 428)","(1269, 447)","(1287, 458)","(1311, 463)","(1338, 459)","(1366, 451)","(1390, 437)","(1408, 417)","(1421, 393)","(1431, 367)","(1439, 340)","(1263, 293)","(1271, 286)","(1283, 288)","(1295, 295)","(1306, 303)","(1331, 308)","(1351, 305)","(1371, 306)","(1390, 314)","(1404, 327)","(1313, 322)","(1306, 337)","(1299, 351)","(1292, 366)","(1282, 369)","(1287, 376)","(1294, 381)","(1305, 380)","(1315, 380)","(1274, 310)","(1282, 307)","(1293, 310)","(1301, 320)","(1290, 320)","(1279, 317)","(1343, 330)","(1354, 325)","(1366, 328)","(1376, 336)","(1365, 339)","(1353, 336)","(1273, 397)","(1279, 394)","(1287, 394)","(1293, 399)","(1302, 399)","(1316, 405)","(1332, 415)","(1313, 419)","(1298, 418)","(1289, 416)","(1282, 413)","(1276, 407)","(1278, 398)","(1286, 401)","(1292, 404)","(1301, 406)","(1325, 413)","(1300, 408)","(1291, 406)","(1285, 403)",0.32,1.32,59.0,0.34,0.23,0.33,0.01,-13.5,0.01,0.32,27.5,41.8,78.6,22.55,32.45,89.6,10.11,19.35,36.47
3533,-655360,118,-56,-1,-1,0,"(1265, 308)","(1258, 328)","(1254, 348)","(1251, 370)","(1250, 391)","(1254, 412)","(1262, 431)","(1272, 449)","(1291, 459)","(1314, 462)","(1341, 458)","(1367, 449)","(1389, 435)","(1406, 415)","(1417, 391)","(1425, 366)","(1431, 340)","(1266, 296)","(1273, 288)","(1285, 288)","(1297, 294)","(1308, 302)","(1333, 307)","(1352, 303)","(1371, 304)","(1390, 312)","(1402, 325)","(1315, 321)","(1309, 334)","(1302, 348)","(1295, 362)","(1285, 369)","(1291, 374)","(1297, 379)","(1308, 378)","(1319, 378)","(1276, 312)","(1284, 309)","(1294, 311)","(1302, 320)","(1292, 321)","(1282, 318)","(1344, 328)","(1355, 323)","(1367, 326)","(1376, 333)","(1365, 336)","(1354, 334)","(1275, 397)","(1282, 395)","(1290, 394)","(1297, 398)","(1305, 398)","(1319, 404)","(1335, 413)","(1317, 416)","(1302, 416)","(1293, 414)","(1285, 411)","(1279, 406)","(1280, 399)","(1289, 401)","(1296, 404)","(1304, 405)","(1329, 411)","(1303, 406)","(1295, 404)","(1288, 401)",0.32,1.24,59.0,0.35,0.19,0.36,0.01,-12.5,0.02,0.29,26.3,40.0,76.6,20.65,29.4,86.6,11.0,20.0,40.58
3566,-983040,118,-56,-1,-1,0,"(1266, 306)","(1259, 326)","(1255, 346)","(1252, 368)","(1252, 390)","(1256, 410)","(1264, 430)","(1274, 448)","(1292, 458)","(1316, 461)","(1342, 456)","(1369, 447)","(1391, 434)","(1408, 413)","(1419, 390)","(1427, 364)","(1433, 338)","(1268, 295)","(1275, 287)","(1287, 287)","(1299, 293)","(1310, 301)","(1335, 305)","(1353, 302)","(1373, 303)","(1391, 310)","(1403, 323)","(1317, 320)","(1310, 333)","(1304, 347)","(1297, 362)","(1287, 368)","(1293, 373)","(1299, 378)","(1309, 377)","(1320, 376)","(1279, 311)","(1286, 307)","(1296, 309)","(1304, 318)","(1294, 319)","(1284, 317)","(1346, 326)","(1356, 321)","(1368, 324)","(1377, 331)","(1367, 334)","(1355, 332)","(1277, 397)","(1283, 393)","(1291, 393)","(1298, 397)","(1307, 397)","(1320, 402)","(1336, 411)","(1318, 414)","(1304, 414)","(1295, 412)","(1287, 410)","(1281, 405)","(1282, 398)","(1290, 400)","(1297, 403)","(1306, 404)","(1329, 410)","(1305, 404)","(1297, 403)","(1290, 400)",0.33,1.24,59.0,0.33,0.19,0.35,0.0,-12.5,0.01,0.3,25.9,39.4,74.9,20.6,28.85,86.4,11.88,21.17,41.76
3600,-1376256,118,-56,-1,-1,0,"(1267, 305)","(1260, 325)","(1256, 346)","(1253, 367)","(1253, 389)","(1257, 410)","(1265, 430)","(1275, 448)","(1294, 458)","(1317, 460)","(1344, 455)","(1370, 446)","(1392, 432)","(1408, 412)","(1419, 389)","(1427, 363)","(1433, 337)","(1269, 295)","(1276, 286)","(1288, 286)","(1300, 292)","(1312, 300)","(1336, 304)","(1355, 300)","(1374, 301)","(1393, 309)","(1405, 323)","(1318, 318)","(1312, 332)","(1306, 345)","(1299, 360)","(1289, 366)","(1294, 371)","(1301, 376)","(1311, 375)","(1322, 375)","(1280, 310)","(1287, 306)","(1297, 308)","(1305, 316)","(1295, 317)","(1285, 315)","(1347, 325)","(1358, 320)","(1370, 323)","(1379, 330)","(1368, 333)","(1357, 330)","(1278, 395)","(1284, 392)","(1293, 391)","(1300, 395)","(1308, 395)","(1322, 401)","(1337, 410)","(1320, 414)","(1305, 414)","(1296, 412)","(1289, 409)","(1282, 404)","(1283, 396)","(1292, 399)","(1299, 402)","(1307, 403)","(1331, 409)","(1307, 404)","(1298, 402)","(1291, 399)",0.31,1.25,59.0,0.34,0.19,0.35,0.0,-12.0,0.02,0.3,27.6,40.3,76.5,19.5,29.3,87.0,13.35,21.7,41.64
3633,-983040,118,-56,-1,-1,0,"(1269, 306)","(1262, 326)","(1258, 347)","(1255, 368)","(1255, 389)","(1259, 410)","(1267, 429)","(1277, 447)","(1295, 456)","(1318, 459)","(1344, 454)","(1370, 446)","(1393, 432)","(1409, 413)","(1419, 389)","(1427, 364)","(1434, 339)","(1271, 294)","(1278, 286)","(1290, 286)","(1302, 291)","(1313, 300)","(1336, 304)","(1355, 300)","(1374, 301)","(1392, 309)","(1405, 323)","(1319, 318)","(1313, 332)","(1307, 346)","(1300, 360)","(1290, 367)","(1295, 372)","(1302, 376)","(1312, 375)","(1323, 375)","(1282, 310)","(1290, 308)","(1299, 310)","(1307, 317)","(1297, 318)","(1287, 316)","(1349, 326)","(1360, 322)","(1370, 325)","(1379, 331)","(1369, 333)","(1358, 330)","(1280, 395)","(1286, 392)","(1294, 391)","(1301, 395)","(1310, 395)","(1324, 401)","(1340, 409)","(1322, 413)","(1307, 413)","(1298, 411)","(1290, 408)","(1284, 403)","(1284, 396)","(1293, 399)","(1301, 401)","(1309, 402)","(1333, 408)","(1309, 403)","(1300, 401)","(1293, 399)",0.26,1.27,58.0,0.33,0.2,0.36,0.01,-10.5,0.02,0.3,24.2,38.3,74.9,18.45,26.55,83.95,15.52,25.11,46.11
