milliseconds, ECG, ECG HR, PPG, PPG HR, SpO2, PI
0,3801088,123,-56,-1,-1,0
33,-1048576,123,-56,-1,-1,0
66,-786432,123,-56,-1,-1,0
100,-393216,123,-56,-1,-1,0
133,524288,123,-56,-1,-1,0
166,851968,123,-56,-1,-1,0
200,-393216,123,-56,-1,-1,0
233,-589824,123,-56,-1,-1,0
266,-393216,123,-56,-1,-1,0
300,-524288,123,-56,-1,-1,0
333,-524288,123,-56,-1,-1,0
366,-458752,123,-56,-1,-1,0
400,1900544,123,-56,-1,-1,0
433,-1376256,123,-56,-1,-1,0
466,-327680,123,-56,-1,-1,0
500,0,123,-56,-1,-1,0
533,786432,123,-56,-1,-1,0
566,1572864,123,-56,-1,-1,0
600,262144,123,-56,-1,-1,0
633,-196608,123,-56,-1,-1,0
666,-65536,123,-56,-1,-1,0
700,-131072,123,-56,-1,-1,0
733,-131072,123,-56,-1,-1,0
766,-327680,123,-56,-1,-1,0
800,-917504,123,-56,-1,-1,0
833,983040,123,-56,-1,-1,0
866,-655360,123,-56,-1,-1,0
900,-589824,123,-56,-1,-1,0
933,-65536,123,-56,-1,-1,0
966,1114112,123,-56,-1,-1,0
1000,524288,123,-56,-1,-1,0
1033,-589824,122,-56,-1,-1,0
1066,-589824,122,-56,-1,-1,0
1100,-524288,122,-56,-1,-1,0
1133,-655360,122,-56,-1,-1,0
1166,-655360,122,-56,-1,-1,0
1200,-720896,122,-56,-1,-1,0
1233,2883584,122,-56,-1,-1,0
1266,-1048576,122,-56,-1,-1,0
1300,-524288,122,-56,-1,-1,0
1333,-196608,122,-56,-1,-1,0
1366,655360,122,-56,-1,-1,0
1400,1769472,122,-56,-1,-1,0
1433,524288,122,-56,-1,-1,0
1466,262144,122,-56,-1,-1,0
1500,524288,122,-56,-1,-1,0
1533,589824,122,-56,-1,-1,0
1566,524288,122,-56,-1,-1,0
1600,589824,122,-56,-1,-1,0
1633,393216,122,-56,-1,-1,0
1666,5570560,122,-56,-1,-1,0
1700,196608,122,-56,-1,-1,0
1733,393216,122,-56,-1,-1,0
1766,589824,122,-56,-1,-1,0
1800,1441792,122,-56,-1,-1,0
1833,1835008,122,-56,-1,-1,0
1866,327680,122,-56,-1,-1,0
1900,-196608,122,-56,-1,-1,0
1933,-262144,122,-56,-1,-1,0
1966,-393216,122,-56,-1,-1,0
2000,-720896,122,-56,-1,-1,0
2033,-720896,122,-56,-1,-1,0
2066,-786432,122,-56,-1,-1,0
2100,-262144,122,-56,-1,-1,0
2133,-1900544,122,-56,-1,-1,0
2166,-1179648,122,-56,-1,-1,0
2200,-1048576,122,-56,-1,-1,0
2233,-262144,122,-56,-1,-1,0
2266,983040,122,-56,-1,-1,0
2300,-65536,122,-56,-1,-1,0
2333,-983040,122,-56,-1,-1,0
2366,-983040,122,-56,-1,-1,0
2400,-786432,122,-56,-1,-1,0
2433,-786432,122,-56,-1,-1,0
2466,-851968,122,-56,-1,-1,0
2500,-786432,122,-56,-1,-1,0
2533,-1310720,122,-56,-1,-1,0
2566,65536,122,-56,-1,-1,0
2600,-917504,122,-56,-1,-1,0
2633,-786432,122,-56,-1,-1,0
2666,-262144,122,-56,-1,-1,0
2700,1114112,122,-56,-1,-1,0
2733,327680,122,-56,-1,-1,0
2766,-786432,122,-56,-1,-1,0
2800,-786432,122,-56,-1,-1,0
2833,-655360,122,-56,-1,-1,0
2866,-720896,122,-56,-1,-1,0
2900,-786432,122,-56,-1,-1,0
2933,-851968,122,-56,-1,-1,0
2966,-851968,122,-56,-1,-1,0
3000,3997696,122,-56,-1,-1,0
3033,-1245184,122,-56,-1,-1,0
3066,-393216,122,-56,-1,-1,0
3100,-393216,122,-56,-1,-1,0
3133,458752,122,-56,-1,-1,0
3166,1376256,122,-56,-1,-1,0
3200,-196608,122,-56,-1,-1,0
3233,-655360,122,-56,-1,-1,0
3266,-458752,122,-56,-1,-1,0
3300,-458752,122,-56,-1,-1,0
3333,-655360,122,-56,-1,-1,0
3366,-589824,122,-56,-1,-1,0
3400,-589824,122,-56,-1,-1,0
3433,-917504,122,-56,-1,-1,0
3466,4849664,122,-56,-1,-1,0
3500,-655360,122,-56,-1,-1,0
3533,-458752,122,-56,-1,-1,0
3566,-196608,122,-56,-1,-1,0
3600,851968,122,-56,-1,-1,0
3633,1310720,122,-56,-1,-1,0
3666,65536,122,-56,-1,-1,0
3699,-196608,122,-56,-1,-1,0
3733,0,122,-56,-1,-1,0
3766,0,121,-56,-1,-1,0
3800,-65536,121,-56,-1,-1,0
3833,-196608,121,-56,-1,-1,0
3866,-131072,121,-56,-1,-1,0
3900,-327680,121,-56,-1,-1,0
3933,4587520,121,-56,-1,-1,0
3966,-655360,121,-56,-1,-1,0
4000,-524288,121,-56,-1,-1,0
4033,-131072,121,-56,-1,-1,0
4066,720896,121,-56,-1,-1,0
4100,1638400,121,-56,-1,-1,0
4133,0,121,-56,-1,-1,0
4166,-524288,121,-56,-1,-1,0
4200,-262144,121,-56,-1,-1,0
4233,-393216,120,-56,-1,-1,0
4266,-327680,120,-56,-1,-1,0
4300,-524288,120,-56,-1,-1,0
4333,-524288,120,-56,-1,-1,0
4366,-917504,120,-56,-1,-1,0
4400,3538944,120,-56,-1,-1,0
4433,-655360,120,-56,-1,-1,0
4466,-131072,120,-56,-1,-1,0
4500,196608,120,-56,-1,-1,0
4533,1572864,120,-56,-1,-1,0
4566,1638400,120,-56,-1,-1,0
4600,0,120,-56,-1,-1,0
4633,-327680,120,-56,-1,-1,0
4666,-196608,120,-56,-1,-1,0
4700,-327680,120,-56,-1,-1,0
4733,-458752,120,-56,-1,-1,0
4766,-524288,120,-56,-1,-1,0
4800,-589824,120,-56,-1,-1,0
4833,-262144,120,-56,-1,-1,0
4866,-1114112,120,-56,-1,-1,0
4900,-524288,120,-56,-1,-1,0
4933,-327680,120,-56,-1,-1,0
4966,131072,120,-56,-1,-1,0
5000,1572864,120,-56,-1,-1,0
5033,524288,120,-56,-1,-1,0
5066,-393216,120,-56,-1,-1,0
5100,-393216,120,-56,-1,-1,0
5133,-393216,120,-56,-1,-1,0
5166,-327680,118,-56,-1,-1,0
5200,-589824,118,-56,-1,-1,0
5233,-589824,118,-56,-1,-1,0
5266,-655360,118,-56,-1,-1,0
5300,2031616,118,-56,-1,-1,0
5333,-1048576,118,-56,-1,-1,0
5366,-655360,118,-56,-1,-1,0
5400,-327680,118,-56,-1,-1,0
5433,327680,118,-56,-1,-1,0
5466,1638400,118,-56,-1,-1,0
5500,458752,118,-56,-1,-1,0
5533,0,118,-56,-1,-1,0
5566,0,118,-56,-1,-1,0
5600,262144,118,-56,-1,-1,0
5633,262144,117,-56,-1,-1,0
5666,65536,117,-56,-1,-1,0
5700,0,117,-56,-1,-1,0
5733,-131072,117,-56,-1,-1,0
5766,2359296,117,-56,-1,-1,0
5800,-917504,117,-56,-1,-1,0
5833,-524288,117,-56,-1,-1,0
5866,-327680,117,-56,-1,-1,0
5900,262144,117,-56,-1,-1,0
5933,1376256,117,-56,-1,-1,0
5966,65536,117,-56,-1,-1,0
6000,-589824,117,-56,-1,-1,0
6033,-655360,117,-56,-1,-1,0
6066,-393216,117,-56,-1,-1,0
6100,-458752,115,-56,-1,-1,0
6133,-524288,115,-56,-1,-1,0
6166,-393216,115,-56,-1,-1,0
6200,-458752,115,-56,-1,-1,0
6233,3473408,115,-56,-1,-1,0
6266,-1245184,115,-56,-1,-1,0
6300,-393216,115,-56,-1,-1,0
6333,-65536,115,-56,-1,-1,0
6366,786432,115,-56,-1,-1,0
6400,1966080,115,-56,-1,-1,0
6433,327680,115,-56,-1,-1,0
6466,-327680,115,-56,-1,-1,0
6500,-262144,115,-56,-1,-1,0
6533,-131072,111,-56,-1,-1,0
6566,-262144,111,-56,-1,-1,0
6600,-458752,111,-56,-1,-1,0
6633,-458752,111,-56,-1,-1,0
6666,-786432,111,-56,-1,-1,0
6700,4325376,111,-56,-1,-1,0
6733,-786432,111,-56,-1,-1,0
6766,-524288,111,-56,-1,-1,0
6800,-196608,111,-56,-1,-1,0
6833,786432,111,-56,-1,-1,0
6866,1376256,111,-56,-1,-1,0
6899,-131072,111,-56,-1,-1,0
6933,-589824,111,-56,-1,-1,0
6966,-524288,111,-56,-1,-1,0
7000,-393216,111,-56,-1,-1,0
7033,-589824,111,-56,-1,-1,0
7066,-655360,111,-56,-1,-1,0
7100,-720896,111,-56,-1,-1,0
7133,-851968,111,-56,-1,-1,0
7166,4456448,111,-56,-1,-1,0
7200,-983040,111,-56,-1,-1,0
7233,-655360,111,-56,-1,-1,0
7266,-458752,111,-56,-1,-1,0
7300,524288,111,-56,-1,-1,0
7333,1441792,111,-56,-1,-1,0
7366,131072,111,-56,-1,-1,0
7399,-131072,111,-56,-1,-1,0
7433,0,111,-56,-1,-1,0
7466,196608,111,-56,-1,-1,0
7500,196608,110,-56,-1,-1,0
7533,0,110,-56,-1,-1,0
7566,0,110,-56,-1,-1,0
7600,-196608,110,-56,-1,-1,0
7633,-589824,110,-56,-1,-1,0
7666,-327680,110,-56,-1,-1,0
7700,-524288,110,-56,-1,-1,0
7733,-458752,110,-56,-1,-1,0
7766,0,110,-56,-1,-1,0
7800,1310720,110,-56,-1,-1,0
7833,786432,110,-56,-1,-1,0
7866,-393216,110,-56,-1,-1,0
7899,-524288,110,-56,-1,-1,0
7933,-458752,110,-56,-1,-1,0
7966,-393216,109,-56,-1,-1,0
8000,-524288,109,-56,-1,-1,0
8033,-458752,109,-56,-1,-1,0
8066,-589824,109,-56,-1,-1,0
8100,-983040,109,-56,-1,-1,0
8133,-327680,109,-56,-1,-1,0
8166,-589824,109,-56,-1,-1,0
8200,-327680,109,-56,-1,-1,0
8233,262144,109,-56,-1,-1,0
8266,1638400,109,-56,-1,-1,0
8300,1179648,109,-56,-1,-1,0
8333,-262144,109,-56,-1,-1,0
8366,-393216,109,-56,-1,-1,0
8400,-262144,109,-56,-1,-1,0
8433,-262144,108,-56,-1,-1,0
8466,-524288,108,-56,-1,-1,0
8500,-524288,108,-56,-1,-1,0
8533,-655360,108,-56,-1,-1,0
8566,-262144,108,-56,-1,-1,0
8600,-1441792,108,-56,-1,-1,0
8633,-720896,108,-56,-1,-1,0
8666,-524288,108,-56,-1,-1,0
8700,0,108,-56,-1,-1,0
8733,1441792,108,-56,-1,-1,0
8766,524288,108,-56,-1,-1,0
8800,-393216,108,-56,-1,-1,0
8833,-524288,108,-56,-1,-1,0
8866,-393216,108,-56,-1,-1,0
8900,-262144,108,-56,-1,-1,0
8933,-262144,108,-56,-1,-1,0
8966,-196608,108,-56,-1,-1,0
9000,-196608,108,-56,-1,-1,0
9033,3473408,108,-56,-1,-1,0
9066,-720896,108,-56,-1,-1,0
9100,-131072,108,-56,-1,-1,0
9133,-65536,108,-56,-1,-1,0
9166,524288,108,-56,-1,-1,0
9200,1835008,108,-56,-1,-1,0
9233,393216,108,-56,-1,-1,0
9266,-196608,108,-56,-1,-1,0
9300,-262144,108,-56,-1,-1,0
9333,-196608,108,-56,-1,-1,0
9366,-196608,108,-56,-1,-1,0
9400,-393216,108,-56,-1,-1,0
9433,-458752,108,-56,-1,-1,0
9466,-851968,108,-56,-1,-1,0
9500,4849664,108,-56,-1,-1,0
9533,-655360,108,-56,-1,-1,0
9566,-589824,108,-56,-1,-1,0
9600,-262144,108,-56,-1,-1,0
9633,983040,108,-56,-1,-1,0
9666,1441792,108,-56,-1,-1,0
9700,0,108,-56,-1,-1,0
9733,-262144,108,-56,-1,-1,0
9766,-65536,108,-56,-1,-1,0
9800,0,108,-56,-1,-1,0
9833,-196608,108,-56,-1,-1,0
9866,-327680,108,-56,-1,-1,0
9900,-524288,108,-56,-1,-1,0
9933,-1048576,108,-56,-1,-1,0
9966,2555904,108,-56,-1,-1,0
10000,-786432,108,-56,-1,-1,0
10033,-655360,108,-56,-1,-1,0
10066,-262144,108,-56,-1,-1,0
10100,1179648,108,-56,-1,-1,0
10133,1441792,108,-56,-1,-1,0
10166,-131072,108,-56,-1,-1,0
10200,-589824,108,-56,-1,-1,0
10233,-458752,108,-56,-1,-1,0
10266,-327680,108,-56,-1,-1,0
10300,-458752,108,-56,-1,-1,0
10333,-458752,108,-56,-1,-1,0
10366,-589824,108,-56,-1,-1,0
10400,2883584,108,-56,-1,-1,0
10433,-1310720,108,-56,-1,-1,0
10466,-524288,108,-56,-1,-1,0
10500,-262144,108,-56,-1,-1,0
10533,458752,108,-56,-1,-1,0
10566,1769472,108,-56,-1,-1,0
10600,65536,108,-56,-1,-1,0
10633,-458752,108,-56,-1,-1,0
10666,-524288,108,-56,-1,-1,0
10700,-458752,108,-56,-1,-1,0
10733,-458752,108,-56,-1,-1,0
10766,-589824,108,-56,-1,-1,0
10800,-589824,108,-56,-1,-1,0
10833,-1048576,108,-56,-1,-1,0
10866,4390912,108,-56,-1,-1,0
10900,-917504,108,-56,-1,-1,0
10933,-786432,108,-56,-1,-1,0
10966,-589824,108,-56,-1,-1,0
11000,327680,108,-56,-1,-1,0
11033,1114112,108,-56,-1,-1,0
11066,-458752,108,-56,-1,-1,0
11100,-851968,108,-56,-1,-1,0
11133,-786432,108,-56,-1,-1,0
11166,-655360,108,-56,-1,-1,0
11200,-720896,108,-56,-1,-1,0
11233,-720896,108,-56,-1,-1,0
11266,-655360,108,-56,-1,-1,0
11300,-1114112,108,-56,-1,-1,0
11333,0,108,-56,-1,-1,0
11366,-458752,108,-56,-1,-1,0
11400,-196608,108,-56,-1,-1,0
11433,262144,108,-56,-1,-1,0
11466,1703936,108,-56,-1,-1,0
11500,1441792,108,-56,-1,-1,0
11533,131072,108,-56,-1,-1,0
11566,0,108,-56,-1,-1,0
11600,0,108,-56,-1,-1,0
11633,-131072,108,-56,-1,-1,0
11666,-327680,108,-56,-1,-1,0
11700,-393216,108,-56,-1,-1,0
11733,-524288,108,-56,-1,-1,0
11766,3473408,108,-56,-1,-1,0
11800,-1245184,108,-56,-1,-1,0
11833,-524288,108,-56,-1,-1,0
11866,-458752,108,-56,-1,-1,0
11900,524288,108,-56,-1,-1,0
11933,1835008,108,-56,-1,-1,0
11966,196608,108,-56,-1,-1,0
12000,-458752,108,-56,-1,-1,0
12033,-327680,108,-56,-1,-1,0
12066,-131072,108,-56,-1,-1,0
12100,-196608,108,-56,-1,-1,0
12133,-196608,108,-56,-1,-1,0
12166,-262144,108,-56,-1,-1,0
12200,2818048,108,-56,-1,-1,0
12233,-1441792,108,-56,-1,-1,0
12266,-458752,108,-56,-1,-1,0
12300,-262144,108,-56,-1,-1,0
12333,524288,108,-56,-1,-1,0
12366,1900544,108,-56,-1,-1,0
12400,196608,108,-56,-1,-1,0
12433,-458752,108,-56,-1,-1,0
12466,-524288,109,-56,-1,-1,0
12500,-262144,109,-56,-1,-1,0
12533,-262144,109,-56,-1,-1,0
12566,-327680,109,-56,-1,-1,0
12600,-458752,109,-56,-1,-1,0
12633,-524288,109,-56,-1,-1,0
12666,-720896,109,-56,-1,-1,0
12700,-524288,109,-56,-1,-1,0
12733,-327680,109,-56,-1,-1,0
12766,65536,109,-56,-1,-1,0
12800,1703936,109,-56,-1,-1,0
12833,1048576,109,-56,-1,-1,0
12866,-262144,109,-56,-1,-1,0
12900,-327680,109,-56,-1,-1,0
12933,-393216,109,-56,-1,-1,0
12966,-262144,109,-56,-1,-1,0
13000,-262144,109,-56,-1,-1,0
13033,-458752,109,-56,-1,-1,0
13066,-1310720,109,-56,-1,-1,0
13100,2490368,109,-56,-1,-1,0
13133,-851968,109,-56,-1,-1,0
13166,-786432,109,-56,-1,-1,0
13200,-458752,109,-56,-1,-1,0
13233,655360,109,-56,-1,-1,0
13266,917504,109,-56,-1,-1,0
13299,-983040,109,-56,-1,-1,0
13333,-589824,109,-56,-1,-1,0
13366,-1114112,109,-56,-1,-1,0
13400,-655360,109,-56,-1,-1,0
13433,-327680,109,-56,-1,-1,0
13466,196608,109,-56,-1,-1,0
13500,196608,109,-56,-1,-1,0
13533,1703936,109,-56,-1,-1,0
13566,0,109,-56,-1,-1,0
13600,262144,109,-56,-1,-1,0
13633,458752,109,-56,-1,-1,0
13666,851968,109,-56,-1,-1,0
13700,2097152,109,-56,-1,-1,0
13733,917504,109,-56,-1,-1,0
13766,-65536,109,-56,-1,-1,0
13799,-327680,109,-56,-1,-1,0
13833,-393216,109,-56,-1,-1,0
13866,-458752,109,-56,-1,-1,0
13900,-589824,109,-56,-1,-1,0
13933,-589824,109,-56,-1,-1,0
13966,-1048576,109,-56,-1,-1,0
14000,3866624,109,-56,-1,-1,0
14033,-1048576,109,-56,-1,-1,0
14066,-720896,109,-56,-1,-1,0
14100,-327680,109,-56,-1,-1,0
14133,851968,109,-56,-1,-1,0
14166,1835008,109,-56,-1,-1,0
14200,0,109,-56,-1,-1,0
14233,-393216,109,-56,-1,-1,0
14266,-262144,110,-56,-1,-1,0
14299,-65536,110,-56,-1,-1,0
14333,-131072,110,-56,-1,-1,0
14366,-131072,110,-56,-1,-1,0
14400,-196608,110,-56,-1,-1,0
14433,2686976,110,-56,-1,-1,0
14466,-1245184,110,-56,-1,-1,0
14500,-131072,110,-56,-1,-1,0
14533,0,110,-56,-1,-1,0
14566,851968,110,-56,-1,-1,0
14600,2490368,110,-56,-1,-1,0
14633,851968,110,-56,-1,-1,0
14666,0,110,-56,-1,-1,0
14700,-65536,110,-56,-1,-1,0
14733,0,110,-56,-1,-1,0
14766,0,110,-56,-1,-1,0
14799,-131072,110,-56,-1,-1,0
14833,-196608,110,-56,-1,-1,0
14866,-851968,110,-56,-1,-1,0
14900,3932160,110,-56,-1,-1,0
14933,-720896,110,-56,-1,-1,0
14966,-524288,110,-56,-1,-1,0
15000,-262144,110,-56,-1,-1,0
15033,851968,110,-56,-1,-1,0
15066,1441792,110,-56,-1,-1,0
15100,-327680,110,-56,-1,-1,0
15133,-786432,110,-56,-1,-1,0
15166,-786432,110,-56,-1,-1,0
15200,-589824,110,-56,-1,-1,0
15233,-720896,110,-56,-1,-1,0
15266,-851968,110,-56,-1,-1,0
15299,-851968,110,-56,-1,-1,0
15333,-1507328,110,-56,-1,-1,0
15366,3670016,110,-56,-1,-1,0
15400,-1114112,110,-56,-1,-1,0
15433,-851968,110,-56,-1,-1,0
15466,-524288,110,-56,-1,-1,0
15500,655360,110,-56,-1,-1,0
15533,1245184,110,-56,-1,-1,0
15566,-393216,110,-56,-1,-1,0
15600,-720896,110,-56,-1,-1,0
15633,-655360,110,-56,-1,-1,0
15666,-393216,110,-56,-1,-1,0
15700,-393216,110,-56,-1,-1,0
15733,-589824,110,-56,-1,-1,0
15766,-458752,110,-56,-1,-1,0
15799,-589824,110,-56,-1,-1,0
15833,-524288,110,-56,-1,-1,0
15866,-1048576,110,-56,-1,-1,0
15900,-851968,110,-56,-1,-1,0
15933,-786432,110,-56,-1,-1,0
15966,-393216,110,-56,-1,-1,0
16000,983040,110,-56,-1,-1,0
16033,458752,110,-56,-1,-1,0
16066,-983040,110,-56,-1,-1,0
16100,-1245184,110,-56,-1,-1,0
16133,-1376256,110,-56,-1,-1,0
16166,-1245184,110,-56,-1,-1,0
16200,-1376256,110,-56,-1,-1,0
16233,-1638400,110,-56,-1,-1,0
16266,-1507328,110,-56,-1,-1,0
16300,-1769472,110,-56,-1,-1,0
16333,-131072,110,-56,-1,-1,0
16366,-2162688,110,-56,-1,-1,0
16400,-917504,110,-56,-1,-1,0
16433,-1572864,110,-56,-1,-1,0
16466,-131072,110,-56,-1,-1,0
16500,1638400,110,-56,-1,-1,0
16533,983040,110,-56,-1,-1,0
16566,-131072,110,-56,-1,-1,0
16600,0,110,-56,-1,-1,0
16633,131072,110,-56,-1,-1,0
16666,327680,110,-56,-1,-1,0
16700,524288,110,-56,-1,-1,0
16733,524288,110,-56,-1,-1,0
16766,327680,110,-56,-1,-1,0
16800,196608,110,-56,-1,-1,0
16833,-393216,110,-56,-1,-1,0
16866,4325376,110,-56,-1,-1,0
16900,-851968,110,-56,-1,-1,0
16933,-393216,110,-56,-1,-1,0
16966,-327680,110,-56,-1,-1,0
17000,524288,110,-56,-1,-1,0
17033,1966080,110,-56,-1,-1,0
17066,1048576,110,-56,-1,-1,0
17100,786432,110,-56,-1,-1,0
17133,655360,110,-56,-1,-1,0
17166,786432,110,-56,-1,-1,0
17200,1114112,110,-56,-1,-1,0
17233,1114112,110,-56,-1,-1,0
17266,1048576,110,-56,-1,-1,0
17300,1179648,110,-56,-1,-1,0
17333,1048576,110,-56,-1,-1,0
17366,3801088,110,-56,-1,-1,0
17400,196608,110,-56,-1,-1,0
17433,589824,110,-56,-1,-1,0
17466,524288,110,-56,-1,-1,0
17500,917504,110,-56,-1,-1,0
17533,2031616,110,-56,-1,-1,0
17566,786432,110,-56,-1,-1,0
17600,-458752,110,-56,-1,-1,0
17633,-655360,110,-56,-1,-1,0
17666,-589824,110,-56,-1,-1,0
17700,-327680,110,-56,-1,-1,0
17733,-393216,110,-56,-1,-1,0
17766,-131072,110,-56,-1,-1,0
17800,-131072,110,-56,-1,-1,0
17833,-196608,110,-56,-1,-1,0
17866,3735552,110,-56,-1,-1,0
17900,-196608,110,-56,-1,-1,0
17933,0,110,-56,-1,-1,0
17966,196608,110,-56,-1,-1,0
18000,1441792,110,-56,-1,-1,0
18033,2228224,110,-56,-1,-1,0
18066,262144,110,-56,-1,-1,0
18100,-262144,110,-56,-1,-1,0
18133,-131072,110,-56,-1,-1,0
18166,-65536,110,-56,-1,-1,0
18200,-393216,108,-56,-1,-1,0
18233,-524288,108,-56,-1,-1,0
18266,-393216,108,-56,-1,-1,0
18300,-589824,108,-56,-1,-1,0
18333,0,108,-56,-1,-1,0
18366,-1245184,108,-56,-1,-1,0
18400,-655360,108,-56,-1,-1,0
18433,-524288,108,-56,-1,-1,0
18466,-196608,108,-56,-1,-1,0
18500,1376256,108,-56,-1,-1,0
18533,786432,108,-56,-1,-1,0
18566,-720896,108,-56,-1,-1,0
18600,-786432,108,-56,-1,-1,0
18633,-655360,108,-56,-1,-1,0
18666,-655360,108,-56,-1,-1,0
18700,-786432,108,-56,-1,-1,0
18733,-655360,108,-56,-1,-1,0
18766,-786432,108,-56,-1,-1,0
18800,-196608,108,-56,-1,-1,0
18833,-1441792,108,-56,-1,-1,0
18866,-983040,108,-56,-1,-1,0
18900,-851968,108,-56,-1,-1,0
18933,-327680,108,-56,-1,-1,0
18966,1245184,108,-56,-1,-1,0
19000,524288,108,-56,-1,-1,0
19033,-655360,108,-56,-1,-1,0
19066,-720896,108,-56,-1,-1,0
19100,-524288,108,-56,-1,-1,0
19133,-458752,108,-56,-1,-1,0
19166,-589824,108,-56,-1,-1,0
19200,-655360,108,-56,-1,-1,0
19233,-655360,108,-56,-1,-1,0
19266,1966080,108,-56,-1,-1,0
19300,-1376256,108,-56,-1,-1,0
19333,-786432,108,-56,-1,-1,0
19366,-655360,108,-56,-1,-1,0
19400,-131072,108,-56,-1,-1,0
19433,1507328,108,-56,-1,-1,0
19466,262144,108,-56,-1,-1,0
19500,-720896,108,-56,-1,-1,0
19533,-720896,108,-56,-1,-1,0
19566,-655360,108,-56,-1,-1,0
19600,-524288,107,-56,-1,-1,0
19633,-720896,107,-56,-1,-1,0
19666,-720896,107,-56,-1,-1,0
19700,-786432,107,-56,-1,-1,0
19733,4128768,107,-56,-1,-1,0
19766,-1245184,107,-56,-1,-1,0
19800,-851968,107,-56,-1,-1,0
19833,-524288,107,-56,-1,-1,0
19866,262144,107,-56,-1,-1,0
19900,1572864,107,-56,-1,-1,0
19933,0,107,-56,-1,-1,0
19966,-589824,107,-56,-1,-1,0
20000,-458752,107,-56,-1,-1,0
20033,-327680,107,-56,-1,-1,0
20066,-262144,107,-56,-1,-1,0
20100,-393216,107,-56,-1,-1,0
20133,-393216,107,-56,-1,-1,0
20166,-262144,107,-56,-1,-1,0
20200,1179648,107,-56,-1,-1,0
20233,-655360,107,-56,-1,-1,0
20266,-262144,107,-56,-1,-1,0
20300,-196608,107,-56,-1,-1,0
20333,131072,107,-56,-1,-1,0
20366,1638400,107,-56,-1,-1,0
20400,851968,107,-56,-1,-1,0
20433,-327680,107,-56,-1,-1,0
20466,-524288,107,-56,-1,-1,0
20500,-393216,107,-56,-1,-1,0
20533,-327680,107,-56,-1,-1,0
20566,-458752,107,-56,-1,-1,0
20600,-458752,107,-56,-1,-1,0
20633,-524288,107,-56,-1,-1,0
20666,458752,107,-56,-1,-1,0
20700,-1703936,107,-56,-1,-1,0
20733,-655360,107,-56,-1,-1,0
20766,-458752,107,-56,-1,-1,0
20800,131072,107,-56,-1,-1,0
20833,1900544,107,-56,-1,-1,0
20866,983040,107,-56,-1,-1,0
20900,-196608,107,-56,-1,-1,0
20933,-393216,107,-56,-1,-1,0
20966,-131072,107,-56,-1,-1,0
21000,-131072,107,-56,-1,-1,0
21033,-262144,107,-56,-1,-1,0
21066,-262144,107,-56,-1,-1,0
21100,-327680,107,-56,-1,-1,0
21133,4915200,107,-56,-1,-1,0
21166,-851968,107,-56,-1,-1,0
21200,-393216,107,-56,-1,-1,0
21233,0,107,-56,-1,-1,0
21266,917504,107,-56,-1,-1,0
21300,2228224,107,-56,-1,-1,0
21333,327680,107,-56,-1,-1,0
21366,-327680,107,-56,-1,-1,0
21400,-262144,107,-56,-1,-1,0
21433,-65536,107,-56,-1,-1,0
21466,-131072,107,-56,-1,-1,0
21500,-262144,107,-56,-1,-1,0
21533,-327680,107,-56,-1,-1,0
21566,-786432,107,-56,-1,-1,0
21600,4784128,107,-56,-1,-1,0
21633,-655360,107,-56,-1,-1,0
21666,-458752,107,-56,-1,-1,0
21700,-196608,107,-56,-1,-1,0
21733,786432,107,-56,-1,-1,0
21766,1703936,107,-56,-1,-1,0
21800,-262144,107,-56,-1,-1,0
21833,-589824,107,-56,-1,-1,0
21866,-655360,107,-56,-1,-1,0
21900,-524288,107,-56,-1,-1,0
21933,-524288,107,-56,-1,-1,0
21966,-655360,106,-56,-1,-1,0
22000,-655360,106,-56,-1,-1,0
22033,-851968,106,-56,-1,-1,0
22066,4128768,106,-56,-1,-1,0
22100,-1179648,106,-56,-1,-1,0
22133,-655360,106,-56,-1,-1,0
22166,-458752,106,-56,-1,-1,0
22200,196608,106,-56,-1,-1,0
22233,1703936,106,-56,-1,-1,0
22266,458752,106,-56,-1,-1,0
22300,-196608,106,-56,-1,-1,0
22333,-196608,106,-56,-1,-1,0
22366,0,106,-56,-1,-1,0
22400,65536,106,-56,-1,-1,0
22433,0,106,-56,-1,-1,0
22466,-327680,106,-56,-1,-1,0
22500,-262144,105,-56,-1,-1,0
22533,-393216,105,-56,-1,-1,0
22566,-983040,105,-56,-1,-1,0
22600,262144,105,-56,-1,-1,0
22633,-655360,105,-56,-1,-1,0
22666,-655360,105,-56,-1,-1,0
22700,-262144,105,-56,-1,-1,0
22733,1114112,105,-56,-1,-1,0
22766,1376256,105,-56,-1,-1,0
22800,-196608,105,-56,-1,-1,0
22833,-524288,105,-56,-1,-1,0
22866,-589824,105,-56,-1,-1,0
22900,-327680,105,-56,-1,-1,0
22933,-393216,105,-56,-1,-1,0
22966,-458752,105,-56,-1,-1,0
23000,-655360,104,-56,-1,-1,0
23033,-524288,104,-56,-1,-1,0
23066,-458752,104,-56,-1,-1,0
23100,3145728,104,-56,-1,-1,0
23133,-1441792,104,-56,-1,-1,0
23166,-458752,104,-56,-1,-1,0
23200,-196608,104,-56,-1,-1,0
23233,458752,104,-56,-1,-1,0
23266,1966080,104,-56,-1,-1,0
23300,655360,104,-56,-1,-1,0
23333,-524288,104,-56,-1,-1,0
23366,-524288,104,-56,-1,-1,0
23400,-393216,104,-56,-1,-1,0
23433,-393216,104,-56,-1,-1,0
23466,-458752,104,-56,-1,-1,0
23500,-524288,104,-56,-1,-1,0
23533,-589824,104,-56,-1,-1,0
23566,-524288,104,-56,-1,-1,0
23600,-1048576,104,-56,-1,-1,0
23633,4063232,104,-56,-1,-1,0
23666,-851968,104,-56,-1,-1,0
23700,-589824,104,-56,-1,-1,0
23733,-262144,104,-56,-1,-1,0
23766,720896,104,-56,-1,-1,0
23800,1835008,104,-56,-1,-1,0
23833,0,104,-56,-1,-1,0
23866,-458752,104,-56,-1,-1,0
23900,-524288,104,-56,-1,-1,0
23933,-393216,104,-56,-1,-1,0
23966,-262144,104,-56,-1,-1,0
24000,-393216,104,-56,-1,-1,0
24033,-393216,104,-56,-1,-1,0
24066,-524288,104,-56,-1,-1,0
24100,-458752,104,-56,-1,-1,0
24133,-327680,104,-56,-1,-1,0
24166,-720896,103,-56,-1,-1,0
24200,5177344,103,-56,-1,-1,0
24233,-393216,103,-56,-1,-1,0
24266,-196608,103,-56,-1,-1,0
24300,-65536,103,-56,-1,-1,0
24333,720896,103,-56,-1,-1,0
24366,2097152,103,-56,-1,-1,0
24400,655360,103,-56,-1,-1,0
24433,-65536,103,-56,-1,-1,0
24466,-196608,103,-56,-1,-1,0
24500,-196608,103,-56,-1,-1,0
24533,-196608,103,-56,-1,-1,0
24566,-393216,103,-56,-1,-1,0
24600,-458752,103,-56,-1,-1,0
24633,-655360,103,-56,-1,-1,0
24666,-720896,103,-56,-1,-1,0
24700,-655360,103,-56,-1,-1,0
24733,-786432,103,-56,-1,-1,0
24766,3735552,103,-56,-1,-1,0
24800,-1245184,103,-56,-1,-1,0
24833,-524288,103,-56,-1,-1,0
24866,-131072,103,-56,-1,-1,0
24900,589824,103,-56,-1,-1,0
24933,2490368,103,-56,-1,-1,0
24966,1179648,103,-56,-1,-1,0
25000,0,103,-56,-1,-1,0
25033,-131072,103,-56,-1,-1,0
25066,65536,103,-56,-1,-1,0
25100,131072,103,-56,-1,-1,0
25133,196608,103,-56,-1,-1,0
25166,0,103,-56,-1,-1,0
25200,0,103,-56,-1,-1,0
25233,0,103,-56,-1,-1,0
25266,2490368,103,-56,-1,-1,0
25300,-1245184,103,-56,-1,-1,0
25333,0,103,-56,-1,-1,0
25366,196608,103,-56,-1,-1,0
25400,917504,103,-56,-1,-1,0
25433,3080192,103,-56,-1,-1,0
25466,1376256,103,-56,-1,-1,0
25500,-196608,103,-56,-1,-1,0
25533,-524288,103,-56,-1,-1,0
25566,-262144,103,-56,-1,-1,0
25600,-327680,103,-56,-1,-1,0
25633,-458752,103,-56,-1,-1,0
25666,-655360,103,-56,-1,-1,0
25700,-655360,103,-56,-1,-1,0
25733,-720896,103,-56,-1,-1,0
25766,1769472,103,-56,-1,-1,0
25800,-1572864,103,-56,-1,-1,0
25833,-786432,103,-56,-1,-1,0
25866,-589824,103,-56,-1,-1,0
25900,-65536,103,-56,-1,-1,0
25933,1835008,103,-56,-1,-1,0
25966,655360,103,-56,-1,-1,0
26000,-524288,103,-56,-1,-1,0
26033,-786432,103,-56,-1,-1,0
26066,-589824,103,-56,-1,-1,0
26099,-524288,103,-56,-1,-1,0
26133,-524288,103,-56,-1,-1,0
26166,-720896,102,-56,-1,-1,0
26200,-655360,102,-56,-1,-1,0
26233,-655360,102,-56,-1,-1,0
26266,917504,102,-56,-1,-1,0
26300,-1507328,102,-56,-1,-1,0
26333,-655360,102,-56,-1,-1,0
26366,-589824,102,-56,-1,-1,0
26400,0,102,-56,-1,-1,0
26433,1835008,102,-56,-1,-1,0
26466,983040,102,-56,-1,-1,0
26500,-458752,102,-56,-1,-1,0
26533,-720896,102,-56,-1,-1,0
26566,-589824,102,-56,-1,-1,0
26599,-393216,102,-56,-1,-1,0
26633,-458752,102,-56,-1,-1,0
26666,-524288,101,-56,-1,-1,0
26700,-524288,101,-56,-1,-1,0
26733,-458752,101,-56,-1,-1,0
26766,589824,101,-56,-1,-1,0
26800,-1376256,101,-56,-1,-1,0
26833,-655360,101,-56,-1,-1,0
26866,-458752,101,-56,-1,-1,0
26900,0,101,-56,-1,-1,0
26933,1835008,101,-56,-1,-1,0
26966,1114112,101,-56,-1,-1,0
27000,-458752,101,-56,-1,-1,0
27033,-589824,101,-56,-1,-1,0
27066,-524288,101,-56,-1,-1,0
27099,-393216,101,-56,-1,-1,0
27133,-393216,101,-56,-1,-1,0
27166,-524288,100,-56,-1,-1,0
27200,-524288,100,-56,-1,-1,0
27233,-720896,100,-56,-1,-1,0
27266,-983040,100,-56,-1,-1,0
27300,-655360,100,-56,-1,-1,0
27333,-917504,100,-56,-1,-1,0
27366,-720896,100,-56,-1,-1,0
27400,-262144,100,-56,-1,-1,0
27433,1114112,100,-56,-1,-1,0
27466,1114112,100,-56,-1,-1,0
27500,-655360,100,-56,-1,-1,0
27533,-1048576,100,-56,-1,-1,0
27566,-1048576,100,-56,-1,-1,0
27599,-851968,100,-56,-1,-1,0
27633,-851968,100,-56,-1,-1,0
27666,-1245184,100,-56,-1,-1,0
27700,-1376256,99,-56,-1,-1,0
27733,-1048576,99,-56,-1,-1,0
27766,-1114112,99,-56,-1,-1,0
27800,4653056,99,-56,-1,-1,0
27833,-589824,99,-56,-1,-1,0
27866,-65536,99,-56,-1,-1,0
27900,262144,99,-56,-1,-1,0
27933,1703936,99,-56,-1,-1,0
27966,2752512,99,-56,-1,-1,0
28000,1179648,99,-56,-1,-1,0
28033,589824,99,-56,-1,-1,0
28066,589824,99,-56,-1,-1,0
28099,524288,99,-56,-1,-1,0
28133,196608,99,-56,-1,-1,0
28166,0,99,-56,-1,-1,0
28200,-327680,99,-56,-1,-1,0
28233,-458752,99,-56,-1,-1,0
28266,-589824,99,-56,-1,-1,0
28300,-1179648,99,-56,-1,-1,0
28333,1114112,99,-56,-1,-1,0
28366,-917504,99,-56,-1,-1,0
28400,-720896,99,-56,-1,-1,0
28433,-458752,99,-56,-1,-1,0
28466,589824,99,-56,-1,-1,0
28500,1572864,99,-56,-1,-1,0
28533,131072,99,-56,-1,-1,0
28566,65536,99,-56,-1,-1,0
28599,196608,99,-56,-1,-1,0
28633,524288,99,-56,-1,-1,0
28666,393216,99,-56,-1,-1,0
28700,196608,99,-56,-1,-1,0
28733,-327680,98,-56,-1,-1,0
28766,-196608,98,-56,-1,-1,0
28800,-786432,98,-56,-1,-1,0
28833,1900544,98,-56,-1,-1,0
28866,-1703936,98,-56,-1,-1,0
28900,-917504,98,-56,-1,-1,0
28933,-720896,98,-56,-1,-1,0
28966,-65536,98,-56,-1,-1,0
29000,1703936,98,-56,-1,-1,0
29033,1114112,98,-56,-1,-1,0
29066,-327680,98,-56,-1,-1,0
29099,-458752,98,-56,-1,-1,0
29133,-458752,98,-56,-1,-1,0
29166,-196608,98,-56,-1,-1,0
29200,-262144,98,-56,-1,-1,0
29233,-262144,98,-56,-1,-1,0
29266,-458752,98,-56,-1,-1,0
29300,-524288,98,-56,-1,-1,0
29333,-983040,98,-56,-1,-1,0
29366,4784128,98,-56,-1,-1,0
29400,-655360,98,-56,-1,-1,0
29433,-458752,98,-56,-1,-1,0
29466,-327680,98,-56,-1,-1,0
29500,524288,98,-56,-1,-1,0
29533,1769472,98,-56,-1,-1,0
29566,131072,98,-56,-1,-1,0
29599,-393216,98,-56,-1,-1,0
29633,-458752,98,-56,-1,-1,0
29666,-393216,98,-56,-1,-1,0
29700,-393216,98,-56,-1,-1,0
29733,-393216,98,-56,-1,-1,0
29766,-524288,98,-56,-1,-1,0
29800,-524288,96,-56,-1,-1,0
29833,-524288,96,-56,-1,-1,0
29866,-1310720,96,-56,-1,-1,0
29900,1769472,96,-56,-1,-1,0
29933,-589824,96,-56,-1,-1,0
29966,-524288,96,-56,-1,-1,0
30000,-196608,96,-56,-1,-1,0
30033,786432,96,-56,-1,-1,0
30066,1572864,96,-56,-1,-1,0
30099,0,96,-56,-1,-1,0
30133,-262144,96,-56,-1,-1,0
30166,-327680,96,-56,-1,-1,0
30200,-196608,96,-56,-1,-1,0
30233,-196608,96,-56,-1,-1,0
30266,-393216,96,-56,-1,-1,0
30300,-524288,96,-56,-1,-1,0
30333,-458752,96,-56,-1,-1,0
30366,-524288,96,-56,-1,-1,0
30400,-851968,96,-56,-1,-1,0
30433,3932160,96,-56,-1,-1,0
30466,-655360,96,-56,-1,-1,0
30500,-589824,96,-56,-1,-1,0
30533,-327680,96,-56,-1,-1,0
30566,327680,96,-56,-1,-1,0
30599,1703936,96,-56,-1,-1,0
30633,131072,96,-56,-1,-1,0
30666,-655360,96,-56,-1,-1,0
30700,-720896,96,-56,-1,-1,0
30733,-655360,96,-56,-1,-1,0
30766,-524288,96,-56,-1,-1,0
30800,-720896,96,-56,-1,-1,0
30833,-851968,96,-56,-1,-1,0
30866,-917504,96,-56,-1,-1,0
30900,-917504,96,-56,-1,-1,0
30933,3473408,96,-56,-1,-1,0
30966,-1114112,96,-56,-1,-1,0
31000,-720896,96,-56,-1,-1,0
31033,-458752,96,-56,-1,-1,0
31066,393216,96,-56,-1,-1,0
31099,1703936,96,-56,-1,-1,0
31133,131072,96,-56,-1,-1,0
31166,-524288,96,-56,-1,-1,0
31200,-589824,96,-56,-1,-1,0
31233,-458752,96,-56,-1,-1,0
31266,-655360,96,-56,-1,-1,0
31300,-655360,97,-56,-1,-1,0
31333,-327680,97,-56,-1,-1,0
31366,131072,97,-56,-1,-1,0
31400,196608,97,-56,-1,-1,0
31433,3407872,97,-56,-1,-1,0
31466,0,97,-56,-1,-1,0
31500,393216,97,-56,-1,-1,0
31533,655360,97,-56,-1,-1,0
31566,1048576,97,-56,-1,-1,0
31599,2359296,97,-56,-1,-1,0
31633,1572864,97,-56,-1,-1,0
31666,851968,97,-56,-1,-1,0
31700,655360,97,-56,-1,-1,0
31733,917504,97,-56,-1,-1,0
31766,786432,98,-56,-1,-1,0
31800,327680,98,-56,-1,-1,0
31833,327680,98,-56,-1,-1,0
31866,-196608,98,-56,-1,-1,0
31900,-655360,98,-56,-1,-1,0
31933,-851968,98,-56,-1,-1,0
31966,-1048576,98,-56,-1,-1,0
32000,-1179648,98,-56,-1,-1,0
32033,-1048576,98,-56,-1,-1,0
32066,524288,98,-56,-1,-1,0
32100,720896,98,-56,-1,-1,0
32133,-786432,98,-56,-1,-1,0
32166,-1179648,98,-56,-1,-1,0
32200,-589824,98,-56,-1,-1,0
32233,-458752,98,-56,-1,-1,0
32266,-655360,98,-56,-1,-1,0
32299,-524288,98,-56,-1,-1,0
32333,-655360,98,-56,-1,-1,0
32366,1179648,98,-56,-1,-1,0
32400,-1114112,98,-56,-1,-1,0
32433,-655360,98,-56,-1,-1,0
32466,-524288,98,-56,-1,-1,0
32500,-262144,98,-56,-1,-1,0
32533,1245184,98,-56,-1,-1,0
32566,589824,98,-56,-1,-1,0
32600,-327680,98,-56,-1,-1,0
32633,-65536,98,-56,-1,-1,0
32666,0,99,-56,-1,-1,0
32700,-393216,99,-56,-1,-1,0
32733,0,99,-56,-1,-1,0
32766,-196608,99,-56,-1,-1,0
32800,-458752,99,-56,-1,-1,0
32833,4784128,99,-56,-1,-1,0
32866,-524288,99,-56,-1,-1,0
32900,-458752,99,-56,-1,-1,0
32933,-393216,99,-56,-1,-1,0
32966,458752,99,-56,-1,-1,0
33000,1507328,99,-56,-1,-1,0
33033,0,99,-56,-1,-1,0
33066,-655360,99,-56,-1,-1,0
33100,-786432,99,-56,-1,-1,0
33133,-589824,99,-56,-1,-1,0
33166,-524288,99,-56,-1,-1,0
33200,-589824,99,-56,-1,-1,0
33233,-655360,99,-56,-1,-1,0
33266,2490368,99,-56,-1,-1,0
33300,-1572864,99,-56,-1,-1,0
33333,-589824,99,-56,-1,-1,0
33366,-327680,99,-56,-1,-1,0
33400,131072,99,-56,-1,-1,0
33433,1769472,99,-56,-1,-1,0
33466,393216,99,-56,-1,-1,0
33500,-524288,99,-56,-1,-1,0
33533,-589824,99,-56,-1,-1,0
33566,-327680,99,-56,-1,-1,0
33600,-524288,99,-56,-1,-1,0
33633,-589824,99,-56,-1,-1,0
33666,-655360,99,-56,-1,-1,0
33700,-1310720,99,-56,-1,-1,0
33733,2621440,99,-56,-1,-1,0
33766,-786432,99,-56,-1,-1,0
33800,-655360,99,-56,-1,-1,0
33833,-393216,99,-56,-1,-1,0
33866,720896,99,-56,-1,-1,0
33900,1376256,99,-56,-1,-1,0
33933,-131072,99,-56,-1,-1,0
33966,-589824,99,-56,-1,-1,0
34000,-589824,99,-56,-1,-1,0
34033,-393216,100,-56,-1,-1,0
34066,-458752,100,-56,-1,-1,0
34100,-589824,100,-56,-1,-1,0
34133,-655360,100,-56,-1,-1,0
34166,1966080,100,-56,-1,-1,0
34200,-1179648,100,-56,-1,-1,0
34233,-655360,100,-56,-1,-1,0
34266,-655360,100,-56,-1,-1,0
34300,-131072,100,-56,-1,-1,0
34333,1441792,100,-56,-1,-1,0
34366,589824,100,-56,-1,-1,0
34400,-524288,100,-56,-1,-1,0
34433,-720896,100,-56,-1,-1,0
34466,-655360,101,-56,-1,-1,0
34500,-393216,101,-56,-1,-1,0
34533,-327680,101,-56,-1,-1,0
34566,-327680,101,-56,-1,-1,0
34600,-458752,101,-56,-1,-1,0
34633,5111808,101,-56,-1,-1,0
34666,-851968,101,-56,-1,-1,0
34700,-262144,101,-56,-1,-1,0
34733,-65536,101,-56,-1,-1,0
34766,917504,101,-56,-1,-1,0
34800,2490368,101,-56,-1,-1,0
34833,589824,101,-56,-1,-1,0
34866,-196608,101,-56,-1,-1,0
34900,-262144,101,-56,-1,-1,0
34933,-131072,102,-56,-1,-1,0
34966,-131072,102,-56,-1,-1,0
35000,-196608,102,-56,-1,-1,0
35033,-393216,102,-56,-1,-1,0
35066,-983040,102,-56,-1,-1,0
35100,2228224,102,-56,-1,-1,0
35133,-655360,102,-56,-1,-1,0
35166,-458752,102,-56,-1,-1,0
35200,-131072,102,-56,-1,-1,0
35233,1245184,102,-56,-1,-1,0
35266,1900544,102,-56,-1,-1,0
35300,-131072,102,-56,-1,-1,0
35333,-393216,102,-56,-1,-1,0
35366,-458752,102,-56,-1,-1,0
35400,-262144,102,-56,-1,-1,0
35433,-196608,102,-56,-1,-1,0
35466,-458752,103,-56,-1,-1,0
35500,-458752,103,-56,-1,-1,0
35533,-720896,103,-56,-1,-1,0
35566,5963776,103,-56,-1,-1,0
35600,-917504,103,-56,-1,-1,0
35633,-589824,103,-56,-1,-1,0
35666,-262144,103,-56,-1,-1,0
35700,458752,103,-56,-1,-1,0
35733,1966080,103,-56,-1,-1,0
35766,327680,103,-56,-1,-1,0
35800,-458752,103,-56,-1,-1,0
35833,-589824,103,-56,-1,-1,0
35866,-524288,103,-56,-1,-1,0
35900,-327680,103,-56,-1,-1,0
35933,-327680,103,-56,-1,-1,0
35966,-589824,103,-56,-1,-1,0
36000,-458752,103,-56,-1,-1,0
36033,-655360,103,-56,-1,-1,0
36066,5373952,103,-56,-1,-1,0
36100,-1048576,103,-56,-1,-1,0
36133,-655360,103,-56,-1,-1,0
36166,-393216,103,-56,-1,-1,0
36200,131072,103,-56,-1,-1,0
36233,1769472,103,-56,-1,-1,0
36266,458752,103,-56,-1,-1,0
36300,-458752,103,-56,-1,-1,0
36333,-589824,103,-56,-1,-1,0
36366,-524288,103,-56,-1,-1,0
36400,-393216,103,-56,-1,-1,0
36433,-393216,103,-56,-1,-1,0
36466,-524288,103,-56,-1,-1,0
36500,-720896,103,-56,-1,-1,0
36533,-655360,103,-56,-1,-1,0
36566,-786432,103,-56,-1,-1,0
36600,2490368,103,-56,-1,-1,0
36633,-1507328,103,-56,-1,-1,0
36666,-786432,103,-56,-1,-1,0
36700,-655360,103,-56,-1,-1,0
36733,-65536,103,-56,-1,-1,0
36766,1703936,103,-56,-1,-1,0
36800,1048576,103,-56,-1,-1,0
36833,-196608,103,-56,-1,-1,0
36866,-458752,103,-56,-1,-1,0
36900,-393216,103,-56,-1,-1,0
36933,-131072,103,-56,-1,-1,0
36966,0,103,-56,-1,-1,0
37000,-65536,103,-56,-1,-1,0
37033,-196608,103,-56,-1,-1,0
37066,-65536,103,-56,-1,-1,0
37100,-131072,104,-56,-1,-1,0
37133,1376256,104,-56,-1,-1,0
37166,-983040,104,-56,-1,-1,0
37200,-131072,104,-56,-1,-1,0
37233,0,104,-56,-1,-1,0
37266,393216,104,-56,-1,-1,0
37300,2097152,104,-56,-1,-1,0
37333,1703936,104,-56,-1,-1,0
37366,65536,104,-56,-1,-1,0
37400,-131072,104,-56,-1,-1,0
37433,-131072,104,-56,-1,-1,0
37466,65536,104,-56,-1,-1,0
37500,0,104,-56,-1,-1,0
37533,-131072,104,-56,-1,-1,0
37566,-262144,104,-56,-1,-1,0
37600,-327680,104,-56,-1,-1,0
37633,-393216,104,-56,-1,-1,0
37666,-393216,104,-56,-1,-1,0
37700,-1048576,104,-56,-1,-1,0
37733,1441792,104,-56,-1,-1,0
37766,-589824,104,-56,-1,-1,0
37800,-655360,104,-56,-1,-1,0
37833,-393216,104,-56,-1,-1,0
37866,720896,104,-56,-1,-1,0
37900,1769472,104,-56,-1,-1,0
37933,0,104,-56,-1,-1,0
37966,-524288,104,-56,-1,-1,0
38000,-589824,104,-56,-1,-1,0
38033,-524288,104,-56,-1,-1,0
38066,-458752,104,-56,-1,-1,0
38100,-589824,104,-56,-1,-1,0
38133,-589824,104,-56,-1,-1,0
38166,-720896,104,-56,-1,-1,0
38200,-655360,104,-56,-1,-1,0
38233,-655360,104,-56,-1,-1,0
38266,3407872,104,-56,-1,-1,0
38300,-1376256,104,-56,-1,-1,0
38333,-655360,104,-56,-1,-1,0
38366,-458752,104,-56,-1,-1,0
38400,65536,104,-56,-1,-1,0
38433,1572864,104,-56,-1,-1,0
38466,983040,104,-56,-1,-1,0
38500,-131072,104,-56,-1,-1,0
38533,-131072,104,-56,-1,-1,0
38566,-65536,104,-56,-1,-1,0
38600,65536,104,-56,-1,-1,0
38633,-65536,104,-56,-1,-1,0
38666,-262144,104,-56,-1,-1,0
38700,-393216,104,-56,-1,-1,0
38733,-589824,104,-56,-1,-1,0
38766,-458752,104,-56,-1,-1,0
38800,-524288,104,-56,-1,-1,0
38833,1310720,104,-56,-1,-1,0
38866,-1441792,104,-56,-1,-1,0
38900,-589824,104,-56,-1,-1,0
38933,-458752,104,-56,-1,-1,0
38966,-65536,104,-56,-1,-1,0
39000,1572864,104,-56,-1,-1,0
39033,1507328,104,-56,-1,-1,0
39066,-196608,104,-56,-1,-1,0
39100,-524288,104,-56,-1,-1,0
39133,-524288,104,-56,-1,-1,0
39166,-196608,104,-56,-1,-1,0
39200,-262144,104,-56,-1,-1,0
39233,-458752,104,-56,-1,-1,0
39266,-589824,104,-56,-1,-1,0
39300,-524288,103,-56,-1,-1,0
39333,-524288,103,-56,-1,-1,0
39366,-1114112,103,-56,-1,-1,0
39400,1769472,103,-56,-1,-1,0
39433,-589824,103,-56,-1,-1,0
39466,-524288,103,-56,-1,-1,0
39500,-393216,103,-56,-1,-1,0
39533,720896,103,-56,-1,-1,0
39566,1769472,103,-56,-1,-1,0
39600,0,103,-56,-1,-1,0
39633,-458752,103,-56,-1,-1,0
39666,-524288,103,-56,-1,-1,0
39700,-393216,103,-56,-1,-1,0
39733,-458752,103,-56,-1,-1,0
39766,-589824,103,-56,-1,-1,0
39800,-655360,102,-56,-1,-1,0
39833,-589824,102,-56,-1,-1,0
39866,-589824,102,-56,-1,-1,0
39900,1310720,102,-56,-1,-1,0
39933,-983040,102,-56,-1,-1,0
39966,-458752,102,-56,-1,-1,0
40000,-327680,102,-56,-1,-1,0
40033,65536,102,-56,-1,-1,0
40066,1572864,102,-56,-1,-1,0
40100,1638400,102,-56,-1,-1,0
40133,131072,102,-56,-1,-1,0
40166,-65536,102,-56,-1,-1,0
40200,-131072,102,-56,-1,-1,0
40233,0,102,-56,-1,-1,0
40266,0,102,-56,-1,-1,0
40300,-196608,100,-56,-1,-1,0
40333,-196608,100,-56,-1,-1,0
40366,-327680,100,-56,-1,-1,0
40400,-983040,100,-56,-1,-1,0
40433,983040,100,-56,-1,-1,0
40466,-524288,100,-56,-1,-1,0
40500,-393216,100,-56,-1,-1,0
40533,-131072,100,-56,-1,-1,0
40566,917504,100,-56,-1,-1,0
40600,1966080,100,-56,-1,-1,0
40633,196608,100,-56,-1,-1,0
40666,-393216,100,-56,-1,-1,0
40700,-393216,100,-56,-1,-1,0
40733,-131072,100,-56,-1,-1,0
40766,-65536,100,-56,-1,-1,0
40800,0,100,-56,-1,-1,0
40833,0,98,-56,-1,-1,0
40866,0,98,-56,-1,-1,0
40900,-458752,98,-56,-1,-1,0
40933,4390912,98,-56,-1,-1,0
40966,-131072,98,-56,-1,-1,0
41000,0,98,-56,-1,-1,0
41033,131072,98,-56,-1,-1,0
41066,851968,98,-56,-1,-1,0
41100,2162688,98,-56,-1,-1,0
41133,655360,98,-56,-1,-1,0
41166,-131072,98,-56,-1,-1,0
41200,-262144,98,-56,-1,-1,0
41233,-196608,98,-56,-1,-1,0
41266,-196608,98,-56,-1,-1,0
41300,-262144,98,-56,-1,-1,0
41333,-589824,97,-56,-1,-1,0
41366,-589824,97,-56,-1,-1,0
41400,-655360,97,-56,-1,-1,0
41433,3604480,97,-56,-1,-1,0
41466,-1179648,97,-56,-1,-1,0
41500,-786432,97,-56,-1,-1,0
41533,-524288,97,-56,-1,-1,0
41566,0,97,-56,-1,-1,0
41600,1638400,97,-56,-1,-1,0
41633,786432,97,-56,-1,-1,0
41666,-327680,97,-56,-1,-1,0
41700,-458752,97,-56,-1,-1,0
41733,-524288,97,-56,-1,-1,0
41766,-524288,97,-56,-1,-1,0
41800,-655360,97,-56,-1,-1,0
41833,-786432,97,-56,-1,-1,0
41866,-786432,96,-56,-1,-1,0
41900,-786432,96,-56,-1,-1,0
41933,-1245184,96,-56,-1,-1,0
41966,1179648,96,-56,-1,-1,0
42000,-983040,96,-56,-1,-1,0
42033,-786432,96,-56,-1,-1,0
42066,-524288,96,-56,-1,-1,0
42100,589824,96,-56,-1,-1,0
42133,1835008,96,-56,-1,-1,0
42166,0,96,-56,-1,-1,0
42200,-655360,96,-56,-1,-1,0
42233,-786432,96,-56,-1,-1,0
42266,-458752,96,-56,-1,-1,0
42300,-393216,96,-56,-1,-1,0
42333,-589824,96,-56,-1,-1,0
42366,-655360,95,-56,-1,-1,0
42400,-524288,95,-56,-1,-1,0
42433,-589824,95,-56,-1,-1,0
42466,4325376,95,-56,-1,-1,0
42500,-1179648,95,-56,-1,-1,0
42533,-655360,95,-56,-1,-1,0
42566,-524288,95,-56,-1,-1,0
42600,0,95,-56,-1,-1,0
42633,1703936,95,-56,-1,-1,0
42666,851968,95,-56,-1,-1,0
42700,-458752,95,-56,-1,-1,0
42733,-524288,95,-56,-1,-1,0
42766,-524288,95,-56,-1,-1,0
42800,-327680,95,-56,-1,-1,0
42833,-327680,95,-56,-1,-1,0
42866,-458752,95,-56,-1,-1,0
42900,-262144,95,-56,-1,-1,0
42933,-458752,95,-56,-1,-1,0
42966,2686976,95,-56,-1,-1,0
43000,-983040,95,-56,-1,-1,0
43033,-524288,95,-56,-1,-1,0
43066,-327680,95,-56,-1,-1,0
43100,0,95,-56,-1,-1,0
43133,1638400,95,-56,-1,-1,0
43166,1179648,95,-56,-1,-1,0
43200,-131072,95,-56,-1,-1,0
43233,-327680,95,-56,-1,-1,0
43266,-327680,95,-56,-1,-1,0
43300,-65536,95,-56,-1,-1,0
43333,-196608,95,-56,-1,-1,0
43366,-327680,95,-56,-1,-1,0
43400,-327680,95,-56,-1,-1,0
43433,-458752,95,-56,-1,-1,0
43466,-1114112,95,-56,-1,-1,0
43500,2621440,95,-56,-1,-1,0
43533,-720896,95,-56,-1,-1,0
43566,-655360,95,-56,-1,-1,0
43600,-458752,95,-56,-1,-1,0
43633,393216,95,-56,-1,-1,0
43666,1703936,95,-56,-1,-1,0
43700,65536,95,-56,-1,-1,0
43733,-589824,95,-56,-1,-1,0
43766,-720896,95,-56,-1,-1,0
43800,-524288,95,-56,-1,-1,0
43833,-327680,95,-56,-1,-1,0
43866,-393216,95,-56,-1,-1,0
43900,-327680,95,-56,-1,-1,0
43933,-327680,95,-56,-1,-1,0
43966,-720896,95,-56,-1,-1,0
44000,-196608,95,-56,-1,-1,0
44033,-393216,95,-56,-1,-1,0
44066,-196608,95,-56,-1,-1,0
44100,65536,95,-56,-1,-1,0
44133,1638400,95,-56,-1,-1,0
44166,2424832,95,-56,-1,-1,0
44200,196608,95,-56,-1,-1,0
44233,-262144,95,-56,-1,-1,0
44266,-262144,95,-56,-1,-1,0
44300,-65536,95,-56,-1,-1,0
44333,-196608,96,-56,-1,-1,0
44366,-458752,96,-56,-1,-1,0
44400,-393216,96,-56,-1,-1,0
44433,-589824,96,-56,-1,-1,0
44466,5636096,96,-56,-1,-1,0
44500,-983040,96,-56,-1,-1,0
44533,-655360,96,-56,-1,-1,0
44566,-393216,96,-56,-1,-1,0
44600,327680,96,-56,-1,-1,0
44633,2490368,96,-56,-1,-1,0
44666,524288,96,-56,-1,-1,0
44700,-524288,96,-56,-1,-1,0
44733,-720896,96,-56,-1,-1,0
44766,-655360,96,-56,-1,-1,0
44800,-589824,96,-56,-1,-1,0
44833,-786432,97,-56,-1,-1,0
44866,-851968,97,-56,-1,-1,0
44900,-851968,97,-56,-1,-1,0
44933,-1441792,97,-56,-1,-1,0
44966,4980736,97,-56,-1,-1,0
45000,-1114112,97,-56,-1,-1,0
45033,-983040,97,-56,-1,-1,0
45066,-655360,97,-56,-1,-1,0
45100,262144,97,-56,-1,-1,0
45133,2031616,97,-56,-1,-1,0
45166,131072,97,-56,-1,-1,0
45200,-589824,97,-56,-1,-1,0
45233,-720896,97,-56,-1,-1,0
45266,-458752,97,-56,-1,-1,0
45300,-262144,97,-56,-1,-1,0
45333,-327680,98,-56,-1,-1,0
45366,-262144,98,-56,-1,-1,0
45400,-393216,98,-56,-1,-1,0
45433,-851968,98,-56,-1,-1,0
45466,131072,98,-56,-1,-1,0
45500,-327680,98,-56,-1,-1,0
45533,-65536,98,-56,-1,-1,0
45566,262144,98,-56,-1,-1,0
45600,1769472,98,-56,-1,-1,0
45633,2490368,98,-56,-1,-1,0
45666,458752,98,-56,-1,-1,0
45700,0,98,-56,-1,-1,0
45733,-65536,98,-56,-1,-1,0
45766,65536,98,-56,-1,-1,0
45800,131072,98,-56,-1,-1,0
45833,0,98,-56,-1,-1,0
45866,-65536,98,-56,-1,-1,0
45900,-262144,98,-56,-1,-1,0
45933,-655360,98,-56,-1,-1,0
45966,0,98,-56,-1,-1,0
46000,-458752,98,-56,-1,-1,0
46033,-262144,98,-56,-1,-1,0
46066,0,98,-56,-1,-1,0
46100,1376256,98,-56,-1,-1,0
46133,1900544,98,-56,-1,-1,0
46166,0,98,-56,-1,-1,0
46200,-524288,98,-56,-1,-1,0
46233,-589824,98,-56,-1,-1,0
46266,-458752,98,-56,-1,-1,0
46300,-327680,98,-56,-1,-1,0
46333,-524288,98,-56,-1,-1,0
46366,-524288,98,-56,-1,-1,0
46400,-524288,98,-56,-1,-1,0
46433,-1441792,98,-56,-1,-1,0
46466,2883584,98,-56,-1,-1,0
46500,-851968,98,-56,-1,-1,0
46533,-720896,98,-56,-1,-1,0
46566,-524288,98,-56,-1,-1,0
46600,589824,98,-56,-1,-1,0
46633,1835008,98,-56,-1,-1,0
46666,0,98,-56,-1,-1,0
46700,-720896,98,-56,-1,-1,0
46733,-720896,98,-56,-1,-1,0
46766,-589824,98,-56,-1,-1,0
46800,-458752,98,-56,-1,-1,0
46833,-655360,98,-56,-1,-1,0
46866,-655360,98,-56,-1,-1,0
46900,-589824,98,-56,-1,-1,0
46933,-655360,98,-56,-1,-1,0
46966,4128768,98,-56,-1,-1,0
47000,-1310720,98,-56,-1,-1,0
47033,-655360,98,-56,-1,-1,0
47066,-458752,98,-56,-1,-1,0
47100,131072,98,-56,-1,-1,0
47133,1900544,98,-56,-1,-1,0
47166,983040,98,-56,-1,-1,0
47200,-196608,98,-56,-1,-1,0
47233,-458752,98,-56,-1,-1,0
47266,-196608,98,-56,-1,-1,0
47300,-65536,98,-56,-1,-1,0
47333,-131072,98,-56,-1,-1,0
47366,-262144,98,-56,-1,-1,0
47400,-458752,98,-56,-1,-1,0
47433,-327680,98,-56,-1,-1,0
47466,-458752,98,-56,-1,-1,0
47500,458752,98,-56,-1,-1,0
47533,-917504,98,-56,-1,-1,0
47566,-524288,98,-56,-1,-1,0
47600,-393216,98,-56,-1,-1,0
47633,-65536,98,-56,-1,-1,0
47666,1245184,98,-56,-1,-1,0
47700,1638400,98,-56,-1,-1,0
47733,-65536,98,-56,-1,-1,0
47766,-458752,98,-56,-1,-1,0
47800,-458752,98,-56,-1,-1,0
47833,-327680,98,-56,-1,-1,0
47866,-327680,98,-56,-1,-1,0
47900,-393216,98,-56,-1,-1,0
47933,-589824,98,-56,-1,-1,0
47966,-524288,98,-56,-1,-1,0
48000,-589824,98,-56,-1,-1,0
48033,4194304,98,-56,-1,-1,0
48066,-1245184,98,-56,-1,-1,0
48100,-524288,98,-56,-1,-1,0
48133,-393216,98,-56,-1,-1,0
48166,131072,98,-56,-1,-1,0
48200,1835008,98,-56,-1,-1,0
48233,983040,98,-56,-1,-1,0
48266,-262144,98,-56,-1,-1,0
48300,-393216,98,-56,-1,-1,0
48333,-262144,98,-56,-1,-1,0
48366,-196608,98,-56,-1,-1,0
48400,-262144,98,-56,-1,-1,0
48433,-327680,98,-56,-1,-1,0
48466,-458752,98,-56,-1,-1,0
48500,-393216,98,-56,-1,-1,0
48533,-458752,98,-56,-1,-1,0
48566,-851968,98,-56,-1,-1,0
48600,720896,98,-56,-1,-1,0
48633,-458752,98,-56,-1,-1,0
48666,-393216,98,-56,-1,-1,0
48700,-131072,98,-56,-1,-1,0
48733,917504,98,-56,-1,-1,0
48766,1835008,98,-56,-1,-1,0
48800,131072,98,-56,-1,-1,0
48833,-327680,98,-56,-1,-1,0
48866,-327680,98,-56,-1,-1,0
48900,-262144,98,-56,-1,-1,0
48933,-196608,98,-56,-1,-1,0
48966,-262144,98,-56,-1,-1,0
49000,-393216,98,-56,-1,-1,0
49033,-458752,98,-56,-1,-1,0
49066,-262144,98,-56,-1,-1,0
49100,-393216,98,-56,-1,-1,0
49133,1376256,98,-56,-1,-1,0
49166,-983040,98,-56,-1,-1,0
49200,-524288,98,-56,-1,-1,0
49233,-458752,98,-56,-1,-1,0
49266,0,98,-56,-1,-1,0
49300,1376256,98,-56,-1,-1,0
49333,1507328,98,-56,-1,-1,0
49366,0,98,-56,-1,-1,0
49400,-458752,98,-56,-1,-1,0
49433,-393216,98,-56,-1,-1,0
49466,-131072,98,-56,-1,-1,0
49500,-131072,98,-56,-1,-1,0
49533,-393216,98,-56,-1,-1,0
49566,-458752,98,-56,-1,-1,0
49600,-655360,98,-56,-1,-1,0
49633,-262144,98,-56,-1,-1,0
49666,-1638400,98,-56,-1,-1,0
49700,-720896,98,-56,-1,-1,0
49733,-524288,98,-56,-1,-1,0
49766,-65536,98,-56,-1,-1,0
49800,1376256,98,-56,-1,-1,0
49833,1703936,98,-56,-1,-1,0
49866,-131072,98,-56,-1,-1,0
49900,-589824,98,-56,-1,-1,0
49933,-327680,98,-56,-1,-1,0
49966,-262144,98,-56,-1,-1,0
50000,-327680,98,-56,-1,-1,0
