milliseconds, ECG, ECG HR, PPG, PPG HR, SpO2, PI
1523627798820,3801088,123,-56,-1,-1,0
1523627798820,2228224,123,-56,-1,-1,0
1523627798820,-262144,123,-56,-1,-1,0
1523627798820,-1441792,123,-56,-1,-1,0
1523627798820,-1376256,123,-56,-1,-1,0
1523627798872,-1048576,123,-56,-1,-1,0
1523627798872,-851968,123,-56,-1,-1,0
1523627798872,-786432,123,-56,-1,-1,0
1523627798872,-786432,123,-56,-1,-1,0
1523627798872,-786432,123,-56,-1,-1,0
1523627798900,-786432,123,-56,-1,-1,0
1523627798900,-720896,123,-56,-1,-1,0
1523627798900,-655360,123,-56,-1,-1,0
1523627798900,-524288,123,-56,-1,-1,0
1523627798900,-393216,123,-56,-1,-1,0
1523627798940,-393216,123,-56,-1,-1,0
1523627798940,-393216,123,-56,-1,-1,0
1523627798940,-262144,123,-56,-1,-1,0
1523627798940,0,123,-56,-1,-1,0
1523627798940,262144,123,-56,-1,-1,0
1523627798980,524288,123,-56,-1,-1,0
1523627798980,786432,123,-56,-1,-1,0
1523627798980,917504,123,-56,-1,-1,0
1523627798980,917504,123,-56,-1,-1,0
1523627798980,983040,123,-56,-1,-1,0
1523627799020,851968,123,-56,-1,-1,0
1523627799020,524288,123,-56,-1,-1,0
1523627799020,131072,123,-56,-1,-1,0
1523627799020,-65536,123,-56,-1,-1,0
1523627799020,-262144,123,-56,-1,-1,0
1523627799060,-393216,123,-56,-1,-1,0
1523627799060,-524288,123,-56,-1,-1,0
1523627799060,-589824,123,-56,-1,-1,0
1523627799060,-589824,123,-56,-1,-1,0
1523627799060,-589824,123,-56,-1,-1,0
1523627799100,-589824,123,-56,-1,-1,0
1523627799100,-589824,123,-56,-1,-1,0
1523627799100,-589824,123,-56,-1,-1,0
1523627799100,-458752,123,-56,-1,-1,0
1523627799100,-458752,123,-56,-1,-1,0
1523627799140,-393216,123,-56,-1,-1,0
1523627799140,-393216,123,-56,-1,-1,0
1523627799140,-458752,123,-56,-1,-1,0
1523627799140,-458752,123,-56,-1,-1,0
1523627799140,-524288,123,-56,-1,-1,0
1523627799180,-524288,123,-56,-1,-1,0
1523627799180,-458752,123,-56,-1,-1,0
1523627799180,-393216,123,-56,-1,-1,0
1523627799180,-458752,123,-56,-1,-1,0
1523627799180,-458752,123,-56,-1,-1,0
1523627799220,-524288,123,-56,-1,-1,0
1523627799220,-458752,123,-56,-1,-1,0
1523627799220,-458752,123,-56,-1,-1,0
1523627799220,-458752,123,-56,-1,-1,0
1523627799220,-458752,123,-56,-1,-1,0
1523627799260,-458752,123,-56,-1,-1,0
1523627799260,-458752,123,-56,-1,-1,0
1523627799260,-655360,123,-56,-1,-1,0
1523627799260,-851968,123,-56,-1,-1,0
1523627799260,-131072,123,-56,-1,-1,0
1523627799300,1900544,123,-56,-1,-1,0
1523627799300,4128768,123,-56,-1,-1,0
1523627799300,3538944,123,-56,-1,-1,0
1523627799300,720896,123,-56,-1,-1,0
1523627799300,-1245184,123,-56,-1,-1,0
1523627799340,-1376256,123,-56,-1,-1,0
1523627799340,-917504,123,-56,-1,-1,0
1523627799340,-524288,123,-56,-1,-1,0
1523627799340,-393216,123,-56,-1,-1,0
1523627799340,-393216,123,-56,-1,-1,0
1523627799380,-327680,123,-56,-1,-1,0
1523627799380,-327680,123,-56,-1,-1,0
1523627799380,-327680,123,-56,-1,-1,0
1523627799380,-262144,123,-56,-1,-1,0
1523627799380,-131072,123,-56,-1,-1,0
1523627799420,0,123,-56,-1,-1,0
1523627799420,65536,123,-56,-1,-1,0
1523627799420,131072,123,-56,-1,-1,0
1523627799420,262144,123,-56,-1,-1,0
1523627799420,458752,123,-56,-1,-1,0
1523627799460,786432,123,-56,-1,-1,0
1523627799460,1048576,123,-56,-1,-1,0
1523627799460,1310720,123,-56,-1,-1,0
1523627799460,1572864,123,-56,-1,-1,0
1523627799460,1638400,123,-56,-1,-1,0
1523627799505,1572864,123,-56,-1,-1,0
1523627799505,1441792,123,-56,-1,-1,0
1523627799505,1245184,123,-56,-1,-1,0
1523627799505,851968,123,-56,-1,-1,0
1523627799505,524288,123,-56,-1,-1,0
1523627799540,262144,123,-56,-1,-1,0
1523627799540,65536,123,-56,-1,-1,0
1523627799540,-65536,123,-56,-1,-1,0
1523627799540,-196608,123,-56,-1,-1,0
1523627799540,-196608,123,-56,-1,-1,0
1523627799580,-196608,123,-56,-1,-1,0
1523627799580,-196608,123,-56,-1,-1,0
1523627799580,-196608,123,-56,-1,-1,0
1523627799580,-196608,123,-56,-1,-1,0
1523627799580,-131072,123,-56,-1,-1,0
1523627799620,-65536,123,-56,-1,-1,0
1523627799620,0,123,-56,-1,-1,0
1523627799620,-65536,123,-56,-1,-1,0
1523627799620,-65536,123,-56,-1,-1,0
1523627799620,0,123,-56,-1,-1,0
1523627799660,-131072,123,-56,-1,-1,0
1523627799660,-131072,123,-56,-1,-1,0
1523627799660,-131072,123,-56,-1,-1,0
1523627799660,-131072,123,-56,-1,-1,0
1523627799660,-196608,123,-56,-1,-1,0
1523627799700,-131072,123,-56,-1,-1,0
1523627799700,-262144,123,-56,-1,-1,0
1523627799700,-327680,123,-56,-1,-1,0
1523627799700,-393216,123,-56,-1,-1,0
1523627799700,-327680,123,-56,-1,-1,0
1523627799740,-327680,123,-56,-1,-1,0
1523627799740,-327680,123,-56,-1,-1,0
1523627799740,-327680,123,-56,-1,-1,0
1523627799740,-458752,123,-56,-1,-1,0
1523627799740,-786432,123,-56,-1,-1,0
1523627799780,-917504,123,-56,-1,-1,0
1523627799780,-196608,123,-56,-1,-1,0
1523627799780,1966080,123,-56,-1,-1,0
1523627799780,4194304,123,-56,-1,-1,0
1523627799780,3735552,123,-56,-1,-1,0
1523627799820,983040,123,-56,-1,-1,0
1523627799820,-1114112,123,-56,-1,-1,0
1523627799820,-1441792,123,-56,-1,-1,0
1523627799820,-1114112,123,-56,-1,-1,0
1523627799820,-786432,123,-56,-1,-1,0
1523627799860,-655360,123,-56,-1,-1,0
1523627799860,-655360,123,-56,-1,-1,0
1523627799860,-655360,123,-56,-1,-1,0
1523627799860,-655360,123,-56,-1,-1,0
1523627799860,-655360,123,-56,-1,-1,0
1523627799900,-589824,123,-56,-1,-1,0
1523627799900,-524288,123,-56,-1,-1,0
1523627799900,-458752,123,-56,-1,-1,0
1523627799900,-393216,123,-56,-1,-1,0
1523627799900,-262144,123,-56,-1,-1,0
1523627799940,-65536,123,-56,-1,-1,0
1523627799940,65536,123,-56,-1,-1,0
1523627799940,327680,123,-56,-1,-1,0
1523627799940,589824,123,-56,-1,-1,0
1523627799940,851968,123,-56,-1,-1,0
1523627799980,1114112,123,-56,-1,-1,0
1523627799980,1245184,123,-56,-1,-1,0
1523627799980,1245184,123,-56,-1,-1,0
1523627799980,1179648,123,-56,-1,-1,0
1523627799980,917504,123,-56,-1,-1,0
1523627800020,524288,123,-56,-1,-1,0
1523627800020,131072,123,-56,-1,-1,0
1523627800020,-131072,123,-56,-1,-1,0
1523627800020,-327680,123,-56,-1,-1,0
1523627800020,-524288,123,-56,-1,-1,0
1523627800060,-589824,122,-56,-1,-1,0
1523627800060,-589824,122,-56,-1,-1,0
1523627800060,-655360,122,-56,-1,-1,0
1523627800060,-720896,122,-56,-1,-1,0
1523627800060,-655360,122,-56,-1,-1,0
1523627800100,-589824,122,-56,-1,-1,0
1523627800100,-524288,122,-56,-1,-1,0
1523627800100,-589824,122,-56,-1,-1,0
1523627800100,-589824,122,-56,-1,-1,0
1523627800100,-589824,122,-56,-1,-1,0
1523627800141,-524288,122,-56,-1,-1,0
1523627800141,-589824,122,-56,-1,-1,0
1523627800141,-589824,122,-56,-1,-1,0
1523627800141,-655360,122,-56,-1,-1,0
1523627800141,-655360,122,-56,-1,-1,0
1523627800180,-655360,122,-56,-1,-1,0
1523627800180,-720896,122,-56,-1,-1,0
1523627800180,-720896,122,-56,-1,-1,0
1523627800180,-655360,122,-56,-1,-1,0
1523627800180,-589824,122,-56,-1,-1,0
1523627800220,-655360,122,-56,-1,-1,0
1523627800220,-655360,122,-56,-1,-1,0
1523627800220,-655360,122,-56,-1,-1,0
1523627800220,-655360,122,-56,-1,-1,0
1523627800220,-720896,122,-56,-1,-1,0
1523627800260,-720896,122,-56,-1,-1,0
1523627800260,-851968,122,-56,-1,-1,0
1523627800260,-1179648,122,-56,-1,-1,0
1523627800260,-1245184,122,-56,-1,-1,0
1523627800260,131072,122,-56,-1,-1,0
1523627800300,2883584,122,-56,-1,-1,0
1523627800300,4653056,122,-56,-1,-1,0
1523627800300,3145728,122,-56,-1,-1,0
1523627800300,196608,122,-56,-1,-1,0
1523627800300,-1048576,122,-56,-1,-1,0
1523627800340,-1048576,122,-56,-1,-1,0
1523627800340,-851968,122,-56,-1,-1,0
1523627800340,-720896,122,-56,-1,-1,0
1523627800340,-589824,122,-56,-1,-1,0
1523627800340,-524288,122,-56,-1,-1,0
1523627800380,-524288,122,-56,-1,-1,0
1523627800380,-524288,122,-56,-1,-1,0
1523627800380,-524288,122,-56,-1,-1,0
1523627800380,-393216,122,-56,-1,-1,0
1523627800380,-262144,122,-56,-1,-1,0
1523627800420,-196608,122,-56,-1,-1,0
1523627800420,-131072,122,-56,-1,-1,0
1523627800420,0,122,-56,-1,-1,0
1523627800420,196608,122,-56,-1,-1,0
1523627800420,458752,122,-56,-1,-1,0
1523627800460,655360,122,-56,-1,-1,0
1523627800460,983040,122,-56,-1,-1,0
1523627800460,1310720,122,-56,-1,-1,0
1523627800460,1507328,122,-56,-1,-1,0
1523627800460,1703936,122,-56,-1,-1,0
1523627800500,1769472,122,-56,-1,-1,0
1523627800500,1638400,122,-56,-1,-1,0
1523627800500,1310720,122,-56,-1,-1,0
1523627800500,983040,122,-56,-1,-1,0
1523627800500,720896,122,-56,-1,-1,0
1523627800540,524288,122,-56,-1,-1,0
1523627800540,393216,122,-56,-1,-1,0
1523627800540,327680,122,-56,-1,-1,0
1523627800540,262144,122,-56,-1,-1,0
1523627800540,196608,122,-56,-1,-1,0
1523627800580,262144,122,-56,-1,-1,0
1523627800580,262144,122,-56,-1,-1,0
1523627800580,327680,122,-56,-1,-1,0
1523627800580,327680,122,-56,-1,-1,0
1523627800580,458752,122,-56,-1,-1,0
1523627800620,524288,122,-56,-1,-1,0
1523627800620,524288,122,-56,-1,-1,0
1523627800620,589824,122,-56,-1,-1,0
1523627800620,589824,122,-56,-1,-1,0
1523627800620,589824,122,-56,-1,-1,0
1523627800660,589824,122,-56,-1,-1,0
1523627800660,589824,122,-56,-1,-1,0
1523627800660,524288,122,-56,-1,-1,0
1523627800660,458752,122,-56,-1,-1,0
1523627800660,524288,122,-56,-1,-1,0
1523627800700,524288,122,-56,-1,-1,0
1523627800700,589824,122,-56,-1,-1,0
1523627800700,655360,122,-56,-1,-1,0
1523627800700,655360,122,-56,-1,-1,0
1523627800700,655360,122,-56,-1,-1,0
1523627800740,589824,122,-56,-1,-1,0
1523627800740,524288,122,-56,-1,-1,0
1523627800740,458752,122,-56,-1,-1,0
1523627800740,524288,122,-56,-1,-1,0
1523627800740,524288,122,-56,-1,-1,0
1523627800781,393216,122,-56,-1,-1,0
1523627800781,0,122,-56,-1,-1,0
1523627800781,-131072,122,-56,-1,-1,0
1523627800781,917504,122,-56,-1,-1,0
1523627800781,3473408,122,-56,-1,-1,0
1523627800820,5570560,122,-56,-1,-1,0
1523627800820,4653056,122,-56,-1,-1,0
1523627800820,1835008,122,-56,-1,-1,0
1523627800820,131072,122,-56,-1,-1,0
1523627800820,0,122,-56,-1,-1,0
1523627800860,196608,122,-56,-1,-1,0
1523627800860,262144,122,-56,-1,-1,0
1523627800860,327680,122,-56,-1,-1,0
1523627800860,393216,122,-56,-1,-1,0
1523627800860,393216,122,-56,-1,-1,0
1523627800900,393216,122,-56,-1,-1,0
1523627800900,327680,122,-56,-1,-1,0
1523627800900,393216,122,-56,-1,-1,0
1523627800900,458752,122,-56,-1,-1,0
1523627800900,524288,122,-56,-1,-1,0
1523627800941,589824,122,-56,-1,-1,0
1523627800941,655360,122,-56,-1,-1,0
1523627800941,851968,122,-56,-1,-1,0
1523627800941,983040,122,-56,-1,-1,0
1523627800941,1179648,122,-56,-1,-1,0
1523627800980,1441792,122,-56,-1,-1,0
1523627800980,1703936,122,-56,-1,-1,0
1523627800980,1900544,122,-56,-1,-1,0
1523627800980,1966080,122,-56,-1,-1,0
1523627800980,1966080,122,-56,-1,-1,0
1523627801020,1835008,122,-56,-1,-1,0
1523627801020,1572864,122,-56,-1,-1,0
1523627801020,1179648,122,-56,-1,-1,0
1523627801020,851968,122,-56,-1,-1,0
1523627801020,524288,122,-56,-1,-1,0
1523627801060,327680,122,-56,-1,-1,0
1523627801060,131072,122,-56,-1,-1,0
1523627801060,0,122,-56,-1,-1,0
1523627801060,0,122,-56,-1,-1,0
1523627801060,-65536,122,-56,-1,-1,0
1523627801100,-196608,122,-56,-1,-1,0
1523627801100,-196608,122,-56,-1,-1,0
1523627801100,-131072,122,-56,-1,-1,0
1523627801100,-196608,122,-56,-1,-1,0
1523627801100,-262144,122,-56,-1,-1,0
1523627801141,-262144,122,-56,-1,-1,0
1523627801141,-327680,122,-56,-1,-1,0
1523627801141,-327680,122,-56,-1,-1,0
1523627801141,-327680,122,-56,-1,-1,0
1523627801141,-393216,122,-56,-1,-1,0
1523627801179,-393216,122,-56,-1,-1,0
1523627801179,-393216,122,-56,-1,-1,0
1523627801179,-458752,122,-56,-1,-1,0
1523627801179,-524288,122,-56,-1,-1,0
1523627801179,-589824,122,-56,-1,-1,0
1523627801219,-720896,122,-56,-1,-1,0
1523627801219,-720896,122,-56,-1,-1,0
1523627801219,-720896,122,-56,-1,-1,0
1523627801219,-786432,122,-56,-1,-1,0
1523627801219,-720896,122,-56,-1,-1,0
1523627801259,-720896,122,-56,-1,-1,0
1523627801259,-720896,122,-56,-1,-1,0
1523627801259,-851968,122,-56,-1,-1,0
1523627801259,-851968,122,-56,-1,-1,0
1523627801259,-851968,122,-56,-1,-1,0
1523627801299,-786432,122,-56,-1,-1,0
1523627801299,-786432,122,-56,-1,-1,0
1523627801299,-917504,122,-56,-1,-1,0
1523627801299,-1310720,122,-56,-1,-1,0
1523627801299,-1376256,122,-56,-1,-1,0
1523627801339,-262144,122,-56,-1,-1,0
1523627801339,2097152,122,-56,-1,-1,0
1523627801339,3604480,122,-56,-1,-1,0
1523627801339,2097152,122,-56,-1,-1,0
1523627801339,-589824,122,-56,-1,-1,0
1523627801379,-1900544,122,-56,-1,-1,0
1523627801379,-1769472,122,-56,-1,-1,0
1523627801379,-1441792,122,-56,-1,-1,0
1523627801379,-1245184,122,-56,-1,-1,0
1523627801379,-1179648,122,-56,-1,-1,0
1523627801421,-1179648,122,-56,-1,-1,0
1523627801421,-1114112,122,-56,-1,-1,0
1523627801421,-1048576,122,-56,-1,-1,0
1523627801421,-1048576,122,-56,-1,-1,0
1523627801421,-1048576,122,-56,-1,-1,0
1523627801459,-1048576,122,-56,-1,-1,0
1523627801459,-917504,122,-56,-1,-1,0
1523627801459,-786432,122,-56,-1,-1,0
1523627801459,-655360,122,-56,-1,-1,0
1523627801459,-458752,122,-56,-1,-1,0
1523627801499,-262144,122,-56,-1,-1,0
1523627801499,0,122,-56,-1,-1,0
1523627801499,196608,122,-56,-1,-1,0
1523627801499,524288,122,-56,-1,-1,0
1523627801499,786432,122,-56,-1,-1,0
1523627801539,983040,122,-56,-1,-1,0
1523627801539,983040,122,-56,-1,-1,0
1523627801539,851968,122,-56,-1,-1,0
1523627801539,589824,122,-56,-1,-1,0
1523627801539,196608,122,-56,-1,-1,0
1523627801579,-65536,122,-56,-1,-1,0
1523627801579,-393216,122,-56,-1,-1,0
1523627801579,-655360,122,-56,-1,-1,0
1523627801579,-786432,122,-56,-1,-1,0
1523627801579,-851968,122,-56,-1,-1,0
1523627801619,-983040,122,-56,-1,-1,0
1523627801619,-1114112,122,-56,-1,-1,0
1523627801619,-1114112,122,-56,-1,-1,0
1523627801619,-1048576,122,-56,-1,-1,0
1523627801619,-983040,122,-56,-1,-1,0
1523627801659,-983040,122,-56,-1,-1,0
1523627801659,-983040,122,-56,-1,-1,0
1523627801659,-851968,122,-56,-1,-1,0
1523627801659,-786432,122,-56,-1,-1,0
1523627801659,-720896,122,-56,-1,-1,0
1523627801699,-786432,122,-56,-1,-1,0
1523627801699,-851968,122,-56,-1,-1,0
1523627801699,-851968,122,-56,-1,-1,0
1523627801699,-851968,122,-56,-1,-1,0
1523627801699,-786432,122,-56,-1,-1,0
1523627801739,-786432,122,-56,-1,-1,0
1523627801739,-786432,122,-56,-1,-1,0
1523627801739,-851968,122,-56,-1,-1,0
1523627801739,-917504,122,-56,-1,-1,0
1523627801739,-851968,122,-56,-1,-1,0
1523627801779,-851968,122,-56,-1,-1,0
1523627801779,-851968,122,-56,-1,-1,0
1523627801779,-851968,122,-56,-1,-1,0
1523627801779,-851968,122,-56,-1,-1,0
1523627801779,-786432,122,-56,-1,-1,0
1523627801819,-786432,122,-56,-1,-1,0
1523627801819,-851968,122,-56,-1,-1,0
1523627801819,-917504,122,-56,-1,-1,0
1523627801819,-983040,122,-56,-1,-1,0
1523627801819,-1245184,122,-56,-1,-1,0
1523627801859,-1310720,122,-56,-1,-1,0
1523627801859,-458752,122,-56,-1,-1,0
1523627801859,1900544,122,-56,-1,-1,0
1523627801859,4063232,122,-56,-1,-1,0
1523627801859,3145728,122,-56,-1,-1,0
1523627801899,65536,122,-56,-1,-1,0
1523627801899,-1769472,122,-56,-1,-1,0
1523627801899,-1703936,122,-56,-1,-1,0
1523627801899,-1179648,122,-56,-1,-1,0
1523627801899,-917504,122,-56,-1,-1,0
1523627801939,-917504,122,-56,-1,-1,0
1523627801939,-851968,122,-56,-1,-1,0
1523627801939,-786432,122,-56,-1,-1,0
1523627801939,-851968,122,-56,-1,-1,0
1523627801939,-851968,122,-56,-1,-1,0
1523627801979,-786432,122,-56,-1,-1,0
1523627801979,-655360,122,-56,-1,-1,0
1523627801979,-589824,122,-56,-1,-1,0
1523627801979,-524288,122,-56,-1,-1,0
1523627801979,-393216,122,-56,-1,-1,0
1523627802019,-262144,122,-56,-1,-1,0
1523627802019,0,122,-56,-1,-1,0
1523627802019,196608,122,-56,-1,-1,0
1523627802019,524288,122,-56,-1,-1,0
1523627802019,851968,122,-56,-1,-1,0
1523627802061,1114112,122,-56,-1,-1,0
1523627802061,1310720,122,-56,-1,-1,0
1523627802061,1245184,122,-56,-1,-1,0
1523627802061,983040,122,-56,-1,-1,0
1523627802061,655360,122,-56,-1,-1,0
1523627802099,327680,122,-56,-1,-1,0
1523627802099,0,122,-56,-1,-1,0
1523627802099,-262144,122,-56,-1,-1,0
1523627802099,-589824,122,-56,-1,-1,0
1523627802099,-720896,122,-56,-1,-1,0
1523627802139,-786432,122,-56,-1,-1,0
1523627802139,-720896,122,-56,-1,-1,0
1523627802139,-786432,122,-56,-1,-1,0
1523627802139,-786432,122,-56,-1,-1,0
1523627802139,-720896,122,-56,-1,-1,0
1523627802179,-786432,122,-56,-1,-1,0
1523627802179,-851968,122,-56,-1,-1,0
1523627802179,-786432,122,-56,-1,-1,0
1523627802179,-786432,122,-56,-1,-1,0
1523627802179,-720896,122,-56,-1,-1,0
1523627802219,-655360,122,-56,-1,-1,0
1523627802219,-589824,122,-56,-1,-1,0
1523627802219,-589824,122,-56,-1,-1,0
1523627802219,-655360,122,-56,-1,-1,0
1523627802219,-655360,122,-56,-1,-1,0
1523627802259,-720896,122,-56,-1,-1,0
1523627802259,-786432,122,-56,-1,-1,0
1523627802259,-786432,122,-56,-1,-1,0
1523627802259,-720896,122,-56,-1,-1,0
1523627802259,-720896,122,-56,-1,-1,0
1523627802299,-786432,122,-56,-1,-1,0
1523627802299,-851968,122,-56,-1,-1,0
1523627802299,-851968,122,-56,-1,-1,0
1523627802299,-917504,122,-56,-1,-1,0
1523627802299,-917504,122,-56,-1,-1,0
1523627802339,-851968,122,-56,-1,-1,0
1523627802339,-720896,122,-56,-1,-1,0
1523627802339,-720896,122,-56,-1,-1,0
1523627802339,-851968,122,-56,-1,-1,0
1523627802339,-786432,122,-56,-1,-1,0
1523627802379,-851968,122,-56,-1,-1,0
1523627802379,-1179648,122,-56,-1,-1,0
1523627802379,-1441792,122,-56,-1,-1,0
1523627802379,-983040,122,-56,-1,-1,0
1523627802379,917504,122,-56,-1,-1,0
1523627802419,3997696,122,-56,-1,-1,0
1523627802419,4915200,122,-56,-1,-1,0
1523627802419,2359296,122,-56,-1,-1,0
1523627802419,-655360,122,-56,-1,-1,0
1523627802419,-1507328,122,-56,-1,-1,0
1523627802459,-1245184,122,-56,-1,-1,0
1523627802459,-851968,122,-56,-1,-1,0
1523627802459,-589824,122,-56,-1,-1,0
1523627802459,-589824,122,-56,-1,-1,0
1523627802459,-524288,122,-56,-1,-1,0
1523627802499,-393216,122,-56,-1,-1,0
1523627802499,-393216,122,-56,-1,-1,0
1523627802499,-393216,122,-56,-1,-1,0
1523627802499,-458752,122,-56,-1,-1,0
1523627802499,-393216,122,-56,-1,-1,0
1523627802541,-393216,122,-56,-1,-1,0
1523627802541,-327680,122,-56,-1,-1,0
1523627802541,-196608,122,-56,-1,-1,0
1523627802541,-65536,122,-56,-1,-1,0
1523627802541,65536,122,-56,-1,-1,0
1523627802579,458752,122,-56,-1,-1,0
1523627802579,851968,122,-56,-1,-1,0
1523627802579,1179648,122,-56,-1,-1,0
1523627802579,1310720,122,-56,-1,-1,0
1523627802579,1441792,122,-56,-1,-1,0
1523627802620,1376256,122,-56,-1,-1,0
1523627802620,1245184,122,-56,-1,-1,0
1523627802620,917504,122,-56,-1,-1,0
1523627802620,524288,122,-56,-1,-1,0
1523627802620,65536,122,-56,-1,-1,0
1523627802659,-196608,122,-56,-1,-1,0
1523627802659,-262144,122,-56,-1,-1,0
1523627802659,-262144,122,-56,-1,-1,0
1523627802659,-458752,122,-56,-1,-1,0
1523627802659,-655360,122,-56,-1,-1,0
1523627802701,-655360,122,-56,-1,-1,0
1523627802701,-655360,122,-56,-1,-1,0
1523627802701,-589824,122,-56,-1,-1,0
1523627802701,-458752,122,-56,-1,-1,0
1523627802701,-393216,122,-56,-1,-1,0
1523627802739,-458752,122,-56,-1,-1,0
1523627802739,-458752,122,-56,-1,-1,0
1523627802739,-524288,122,-56,-1,-1,0
1523627802739,-655360,122,-56,-1,-1,0
1523627802739,-589824,122,-56,-1,-1,0
1523627802779,-458752,122,-56,-1,-1,0
1523627802779,-458752,122,-56,-1,-1,0
1523627802779,-327680,122,-56,-1,-1,0
1523627802779,-262144,122,-56,-1,-1,0
1523627802779,-393216,122,-56,-1,-1,0
1523627802821,-655360,122,-56,-1,-1,0
1523627802821,-655360,122,-56,-1,-1,0
1523627802821,-524288,122,-56,-1,-1,0
1523627802821,-524288,122,-56,-1,-1,0
1523627802821,-589824,122,-56,-1,-1,0
1523627802859,-589824,122,-56,-1,-1,0
1523627802859,-589824,122,-56,-1,-1,0
1523627802859,-589824,122,-56,-1,-1,0
1523627802859,-589824,122,-56,-1,-1,0
1523627802859,-589824,122,-56,-1,-1,0
1523627802899,-589824,122,-56,-1,-1,0
1523627802899,-524288,122,-56,-1,-1,0
1523627802899,-458752,122,-56,-1,-1,0
1523627802899,-524288,122,-56,-1,-1,0
1523627802899,-589824,122,-56,-1,-1,0
1523627802939,-917504,122,-56,-1,-1,0
1523627802939,-1376256,122,-56,-1,-1,0
1523627802939,-983040,122,-56,-1,-1,0
1523627802939,1310720,122,-56,-1,-1,0
1523627802939,4390912,122,-56,-1,-1,0
1523627802979,4849664,122,-56,-1,-1,0
1523627802979,2359296,122,-56,-1,-1,0
1523627802979,-327680,122,-56,-1,-1,0
1523627802979,-983040,122,-56,-1,-1,0
1523627802979,-851968,122,-56,-1,-1,0
1523627803019,-655360,122,-56,-1,-1,0
1523627803019,-589824,122,-56,-1,-1,0
1523627803019,-589824,122,-56,-1,-1,0
1523627803019,-589824,122,-56,-1,-1,0
1523627803019,-589824,122,-56,-1,-1,0
1523627803059,-458752,122,-56,-1,-1,0
1523627803059,-393216,122,-56,-1,-1,0
1523627803059,-327680,122,-56,-1,-1,0
1523627803059,-262144,122,-56,-1,-1,0
1523627803059,-327680,122,-56,-1,-1,0
1523627803099,-196608,122,-56,-1,-1,0
1523627803099,0,122,-56,-1,-1,0
1523627803099,65536,122,-56,-1,-1,0
1523627803099,196608,122,-56,-1,-1,0
1523627803099,524288,122,-56,-1,-1,0
1523627803139,851968,122,-56,-1,-1,0
1523627803139,1179648,122,-56,-1,-1,0
1523627803139,1441792,122,-56,-1,-1,0
1523627803139,1507328,122,-56,-1,-1,0
1523627803139,1441792,122,-56,-1,-1,0
1523627803180,1310720,122,-56,-1,-1,0
1523627803180,1048576,122,-56,-1,-1,0
1523627803180,720896,122,-56,-1,-1,0
1523627803180,458752,122,-56,-1,-1,0
1523627803180,262144,122,-56,-1,-1,0
1523627803220,65536,122,-56,-1,-1,0
1523627803220,0,122,-56,-1,-1,0
1523627803220,0,122,-56,-1,-1,0
1523627803220,-65536,122,-56,-1,-1,0
1523627803220,-196608,122,-56,-1,-1,0
1523627803259,-196608,122,-56,-1,-1,0
1523627803259,-196608,122,-56,-1,-1,0
1523627803259,-131072,122,-56,-1,-1,0
1523627803259,0,122,-56,-1,-1,0
1523627803259,0,122,-56,-1,-1,0
1523627803299,0,122,-56,-1,-1,0
1523627803299,0,122,-56,-1,-1,0
1523627803299,0,122,-56,-1,-1,0
1523627803299,0,122,-56,-1,-1,0
1523627803299,0,122,-56,-1,-1,0
1523627803341,0,121,-56,-1,-1,0
1523627803341,0,121,-56,-1,-1,0
1523627803341,0,121,-56,-1,-1,0
1523627803341,65536,121,-56,-1,-1,0
1523627803341,0,121,-56,-1,-1,0
1523627803379,-65536,121,-56,-1,-1,0
1523627803379,-131072,121,-56,-1,-1,0
1523627803379,-131072,121,-56,-1,-1,0
1523627803379,-131072,121,-56,-1,-1,0
1523627803379,-196608,121,-56,-1,-1,0
1523627803419,-196608,121,-56,-1,-1,0
1523627803419,0,121,-56,-1,-1,0
1523627803419,0,121,-56,-1,-1,0
1523627803419,-131072,121,-56,-1,-1,0
1523627803419,-196608,121,-56,-1,-1,0
1523627803459,-131072,121,-56,-1,-1,0
1523627803459,-131072,121,-56,-1,-1,0
1523627803459,-196608,121,-56,-1,-1,0
1523627803459,-262144,121,-56,-1,-1,0
1523627803459,-262144,121,-56,-1,-1,0
1523627803499,-327680,121,-56,-1,-1,0
1523627803499,-655360,121,-56,-1,-1,0
1523627803499,-917504,121,-56,-1,-1,0
1523627803499,-131072,121,-56,-1,-1,0
1523627803499,2097152,121,-56,-1,-1,0
1523627803539,4587520,121,-56,-1,-1,0
1523627803539,4259840,121,-56,-1,-1,0
1523627803539,1507328,121,-56,-1,-1,0
1523627803539,-589824,121,-56,-1,-1,0
1523627803539,-917504,121,-56,-1,-1,0
1523627803579,-655360,121,-56,-1,-1,0
1523627803579,-393216,121,-56,-1,-1,0
1523627803579,-262144,121,-56,-1,-1,0
1523627803579,-393216,121,-56,-1,-1,0
1523627803579,-458752,121,-56,-1,-1,0
1523627803619,-524288,121,-56,-1,-1,0
1523627803619,-393216,121,-56,-1,-1,0
1523627803619,-327680,121,-56,-1,-1,0
1523627803619,-196608,121,-56,-1,-1,0
1523627803619,-196608,121,-56,-1,-1,0
1523627803659,-131072,121,-56,-1,-1,0
1523627803659,0,121,-56,-1,-1,0
1523627803659,65536,121,-56,-1,-1,0
1523627803659,262144,121,-56,-1,-1,0
1523627803659,458752,121,-56,-1,-1,0
1523627803699,720896,121,-56,-1,-1,0
1523627803699,1048576,121,-56,-1,-1,0
1523627803699,1310720,121,-56,-1,-1,0
1523627803699,1507328,121,-56,-1,-1,0
1523627803699,1638400,121,-56,-1,-1,0
1523627803739,1638400,121,-56,-1,-1,0
1523627803739,1441792,121,-56,-1,-1,0
1523627803739,1048576,121,-56,-1,-1,0
1523627803739,589824,121,-56,-1,-1,0
1523627803739,262144,121,-56,-1,-1,0
1523627803779,0,121,-56,-1,-1,0
1523627803779,-262144,121,-56,-1,-1,0
1523627803779,-393216,121,-56,-1,-1,0
1523627803779,-458752,121,-56,-1,-1,0
1523627803779,-524288,121,-56,-1,-1,0
1523627803819,-524288,121,-56,-1,-1,0
1523627803819,-524288,121,-56,-1,-1,0
1523627803819,-458752,121,-56,-1,-1,0
1523627803819,-393216,121,-56,-1,-1,0
1523627803819,-327680,121,-56,-1,-1,0
1523627803859,-262144,121,-56,-1,-1,0
1523627803859,-327680,121,-56,-1,-1,0
1523627803859,-327680,121,-56,-1,-1,0
1523627803859,-327680,121,-56,-1,-1,0
1523627803859,-393216,121,-56,-1,-1,0
1523627803899,-393216,120,-56,-1,-1,0
1523627803899,-327680,120,-56,-1,-1,0
1523627803899,-262144,120,-56,-1,-1,0
1523627803899,-262144,120,-56,-1,-1,0
1523627803899,-262144,120,-56,-1,-1,0
1523627803939,-327680,120,-56,-1,-1,0
1523627803939,-327680,120,-56,-1,-1,0
1523627803939,-393216,120,-56,-1,-1,0
1523627803939,-393216,120,-56,-1,-1,0
1523627803939,-393216,120,-56,-1,-1,0
1523627803981,-524288,120,-56,-1,-1,0
1523627803981,-589824,120,-56,-1,-1,0
1523627803981,-589824,120,-56,-1,-1,0
1523627803981,-589824,120,-56,-1,-1,0
1523627803981,-589824,120,-56,-1,-1,0
1523627804019,-524288,120,-56,-1,-1,0
1523627804019,-458752,120,-56,-1,-1,0
1523627804019,-393216,120,-56,-1,-1,0
1523627804019,-327680,120,-56,-1,-1,0
1523627804019,-458752,120,-56,-1,-1,0
1523627804059,-917504,120,-56,-1,-1,0
1523627804059,-1114112,120,-56,-1,-1,0
1523627804059,-196608,120,-56,-1,-1,0
1523627804059,2097152,120,-56,-1,-1,0
1523627804059,4325376,120,-56,-1,-1,0
1523627804099,3538944,120,-56,-1,-1,0
1523627804099,655360,120,-56,-1,-1,0
1523627804099,-1245184,120,-56,-1,-1,0
1523627804099,-1310720,120,-56,-1,-1,0
1523627804099,-917504,120,-56,-1,-1,0
1523627804139,-655360,120,-56,-1,-1,0
1523627804139,-458752,120,-56,-1,-1,0
1523627804139,-327680,120,-56,-1,-1,0
1523627804139,-196608,120,-56,-1,-1,0
1523627804139,-196608,120,-56,-1,-1,0
1523627804179,-131072,120,-56,-1,-1,0
1523627804179,0,120,-56,-1,-1,0
1523627804179,0,120,-56,-1,-1,0
1523627804179,-65536,120,-56,-1,-1,0
1523627804179,0,120,-56,-1,-1,0
1523627804219,196608,120,-56,-1,-1,0
1523627804219,393216,120,-56,-1,-1,0
1523627804219,589824,120,-56,-1,-1,0
1523627804219,917504,120,-56,-1,-1,0
1523627804219,1245184,120,-56,-1,-1,0
1523627804259,1572864,120,-56,-1,-1,0
1523627804259,1769472,120,-56,-1,-1,0
1523627804259,1900544,120,-56,-1,-1,0
1523627804259,1900544,120,-56,-1,-1,0
1523627804259,1835008,120,-56,-1,-1,0
1523627804299,1638400,120,-56,-1,-1,0
1523627804299,1310720,120,-56,-1,-1,0
1523627804299,917504,120,-56,-1,-1,0
1523627804299,393216,120,-56,-1,-1,0
1523627804299,131072,120,-56,-1,-1,0
1523627804339,0,120,-56,-1,-1,0
1523627804339,-131072,120,-56,-1,-1,0
1523627804339,-327680,120,-56,-1,-1,0
1523627804339,-327680,120,-56,-1,-1,0
1523627804339,-327680,120,-56,-1,-1,0
1523627804379,-327680,120,-56,-1,-1,0
1523627804379,-327680,120,-56,-1,-1,0
1523627804379,-262144,120,-56,-1,-1,0
1523627804379,-196608,120,-56,-1,-1,0
1523627804379,-196608,120,-56,-1,-1,0
1523627804419,-196608,120,-56,-1,-1,0
1523627804419,-131072,120,-56,-1,-1,0
1523627804419,-131072,120,-56,-1,-1,0
1523627804419,-131072,120,-56,-1,-1,0
1523627804419,-196608,120,-56,-1,-1,0
1523627804459,-327680,120,-56,-1,-1,0
1523627804459,-393216,120,-56,-1,-1,0
1523627804459,-458752,120,-56,-1,-1,0
1523627804459,-458752,120,-56,-1,-1,0
1523627804459,-458752,120,-56,-1,-1,0
1523627804499,-458752,120,-56,-1,-1,0
1523627804499,-458752,120,-56,-1,-1,0
1523627804499,-458752,120,-56,-1,-1,0
1523627804499,-458752,120,-56,-1,-1,0
1523627804499,-524288,120,-56,-1,-1,0
1523627804539,-524288,120,-56,-1,-1,0
1523627804539,-524288,120,-56,-1,-1,0
1523627804539,-524288,120,-56,-1,-1,0
1523627804539,-589824,120,-56,-1,-1,0
1523627804539,-589824,120,-56,-1,-1,0
1523627804579,-589824,120,-56,-1,-1,0
1523627804579,-524288,120,-56,-1,-1,0
1523627804579,-589824,120,-56,-1,-1,0
1523627804579,-917504,120,-56,-1,-1,0
1523627804579,-1114112,120,-56,-1,-1,0
1523627804621,-262144,120,-56,-1,-1,0
1523627804621,2162688,120,-56,-1,-1,0
1523627804621,4456448,120,-56,-1,-1,0
1523627804621,3735552,120,-56,-1,-1,0
1523627804621,786432,120,-56,-1,-1,0
1523627804659,-1114112,120,-56,-1,-1,0
1523627804659,-1245184,120,-56,-1,-1,0
1523627804659,-851968,120,-56,-1,-1,0
1523627804659,-655360,120,-56,-1,-1,0
1523627804659,-524288,120,-56,-1,-1,0
1523627804699,-524288,120,-56,-1,-1,0
1523627804699,-458752,120,-56,-1,-1,0
1523627804699,-458752,120,-56,-1,-1,0
1523627804699,-393216,120,-56,-1,-1,0
1523627804699,-393216,120,-56,-1,-1,0
1523627804739,-327680,120,-56,-1,-1,0
1523627804739,-262144,120,-56,-1,-1,0
1523627804739,-131072,120,-56,-1,-1,0
1523627804739,-65536,120,-56,-1,-1,0
1523627804739,0,120,-56,-1,-1,0
1523627804779,131072,120,-56,-1,-1,0
1523627804779,327680,120,-56,-1,-1,0
1523627804779,720896,120,-56,-1,-1,0
1523627804779,1114112,120,-56,-1,-1,0
1523627804779,1376256,120,-56,-1,-1,0
1523627804819,1572864,120,-56,-1,-1,0
1523627804819,1638400,120,-56,-1,-1,0
1523627804819,1572864,120,-56,-1,-1,0
1523627804819,1310720,120,-56,-1,-1,0
1523627804819,917504,120,-56,-1,-1,0
1523627804859,524288,120,-56,-1,-1,0
1523627804859,65536,120,-56,-1,-1,0
1523627804859,-65536,120,-56,-1,-1,0
1523627804859,-262144,120,-56,-1,-1,0
1523627804859,-327680,120,-56,-1,-1,0
1523627804899,-393216,120,-56,-1,-1,0
1523627804899,-393216,120,-56,-1,-1,0
1523627804899,-524288,120,-56,-1,-1,0
1523627804899,-524288,120,-56,-1,-1,0
1523627804899,-458752,120,-56,-1,-1,0
1523627804939,-393216,120,-56,-1,-1,0
1523627804939,-393216,120,-56,-1,-1,0
1523627804939,-393216,120,-56,-1,-1,0
1523627804939,-458752,120,-56,-1,-1,0
1523627804939,-393216,120,-56,-1,-1,0
1523627804979,-393216,120,-56,-1,-1,0
1523627804979,-327680,120,-56,-1,-1,0
1523627804979,-393216,120,-56,-1,-1,0
1523627804979,-393216,120,-56,-1,-1,0
1523627804979,-393216,120,-56,-1,-1,0
1523627805019,-327680,118,-56,-1,-1,0
1523627805019,-393216,118,-56,-1,-1,0
1523627805019,-458752,118,-56,-1,-1,0
1523627805019,-524288,118,-56,-1,-1,0
1523627805019,-589824,118,-56,-1,-1,0
1523627805059,-589824,118,-56,-1,-1,0
1523627805059,-655360,118,-56,-1,-1,0
1523627805059,-589824,118,-56,-1,-1,0
1523627805059,-589824,118,-56,-1,-1,0
1523627805059,-524288,118,-56,-1,-1,0
1523627805099,-589824,118,-56,-1,-1,0
1523627805099,-589824,118,-56,-1,-1,0
1523627805099,-655360,118,-56,-1,-1,0
1523627805099,-720896,118,-56,-1,-1,0
1523627805099,-720896,118,-56,-1,-1,0
1523627805139,-655360,118,-56,-1,-1,0
1523627805139,-720896,118,-56,-1,-1,0
1523627805139,-1114112,118,-56,-1,-1,0
1523627805139,-1376256,118,-56,-1,-1,0
1523627805139,-458752,118,-56,-1,-1,0
1523627805179,2031616,118,-56,-1,-1,0
1523627805179,4456448,118,-56,-1,-1,0
1523627805179,3866624,118,-56,-1,-1,0
1523627805179,1179648,118,-56,-1,-1,0
1523627805179,-786432,118,-56,-1,-1,0
1523627805219,-1048576,118,-56,-1,-1,0
1523627805219,-720896,118,-56,-1,-1,0
1523627805219,-524288,118,-56,-1,-1,0
1523627805219,-589824,118,-56,-1,-1,0
1523627805219,-720896,118,-56,-1,-1,0
1523627805261,-655360,118,-56,-1,-1,0
1523627805261,-524288,118,-56,-1,-1,0
1523627805261,-458752,118,-56,-1,-1,0
1523627805261,-393216,118,-56,-1,-1,0
1523627805261,-393216,118,-56,-1,-1,0
1523627805299,-327680,118,-56,-1,-1,0
1523627805299,-131072,118,-56,-1,-1,0
1523627805299,-65536,118,-56,-1,-1,0
1523627805299,0,118,-56,-1,-1,0
1523627805299,65536,118,-56,-1,-1,0
1523627805339,327680,118,-56,-1,-1,0
1523627805339,589824,118,-56,-1,-1,0
1523627805339,917504,118,-56,-1,-1,0
1523627805339,1310720,118,-56,-1,-1,0
1523627805339,1572864,118,-56,-1,-1,0
1523627805379,1638400,118,-56,-1,-1,0
1523627805379,1507328,118,-56,-1,-1,0
1523627805379,1310720,118,-56,-1,-1,0
1523627805379,1048576,118,-56,-1,-1,0
1523627805379,786432,118,-56,-1,-1,0
1523627805419,458752,118,-56,-1,-1,0
1523627805419,262144,118,-56,-1,-1,0
1523627805419,131072,118,-56,-1,-1,0
1523627805419,65536,118,-56,-1,-1,0
1523627805419,0,118,-56,-1,-1,0
1523627805459,0,118,-56,-1,-1,0
1523627805459,0,118,-56,-1,-1,0
1523627805459,0,118,-56,-1,-1,0
1523627805459,0,118,-56,-1,-1,0
1523627805459,0,118,-56,-1,-1,0
1523627805499,0,118,-56,-1,-1,0
1523627805499,65536,118,-56,-1,-1,0
1523627805499,131072,118,-56,-1,-1,0
1523627805499,196608,118,-56,-1,-1,0
1523627805499,262144,118,-56,-1,-1,0
1523627805539,262144,118,-56,-1,-1,0
1523627805539,196608,118,-56,-1,-1,0
1523627805539,196608,118,-56,-1,-1,0
1523627805539,262144,118,-56,-1,-1,0
1523627805539,262144,118,-56,-1,-1,0
1523627805579,262144,117,-56,-1,-1,0
1523627805579,196608,117,-56,-1,-1,0
1523627805579,196608,117,-56,-1,-1,0
1523627805579,131072,117,-56,-1,-1,0
1523627805579,65536,117,-56,-1,-1,0
1523627805619,65536,117,-56,-1,-1,0
1523627805619,65536,117,-56,-1,-1,0
1523627805619,65536,117,-56,-1,-1,0
1523627805619,65536,117,-56,-1,-1,0
1523627805619,0,117,-56,-1,-1,0
1523627805659,0,117,-56,-1,-1,0
1523627805659,0,117,-56,-1,-1,0
1523627805659,0,117,-56,-1,-1,0
1523627805659,-65536,117,-56,-1,-1,0
1523627805659,-131072,117,-56,-1,-1,0
1523627805699,-131072,117,-56,-1,-1,0
1523627805699,-262144,117,-56,-1,-1,0
1523627805699,-655360,117,-56,-1,-1,0
1523627805699,-851968,117,-56,-1,-1,0
1523627805699,0,117,-56,-1,-1,0
1523627805739,2359296,117,-56,-1,-1,0
1523627805739,4456448,117,-56,-1,-1,0
1523627805739,3735552,117,-56,-1,-1,0
1523627805739,1114112,117,-56,-1,-1,0
1523627805739,-720896,117,-56,-1,-1,0
1523627805779,-917504,117,-56,-1,-1,0
1523627805779,-720896,117,-56,-1,-1,0
1523627805779,-524288,117,-56,-1,-1,0
1523627805779,-524288,117,-56,-1,-1,0
1523627805779,-524288,117,-56,-1,-1,0
1523627805819,-524288,117,-56,-1,-1,0
1523627805819,-524288,117,-56,-1,-1,0
1523627805819,-524288,117,-56,-1,-1,0
1523627805819,-524288,117,-56,-1,-1,0
1523627805819,-393216,117,-56,-1,-1,0
1523627805859,-327680,117,-56,-1,-1,0
1523627805859,-262144,117,-56,-1,-1,0
1523627805859,-196608,117,-56,-1,-1,0
1523627805859,-65536,117,-56,-1,-1,0
1523627805859,0,117,-56,-1,-1,0
1523627805901,262144,117,-56,-1,-1,0
1523627805901,524288,117,-56,-1,-1,0
1523627805901,786432,117,-56,-1,-1,0
1523627805901,1114112,117,-56,-1,-1,0
1523627805901,1310720,117,-56,-1,-1,0
1523627805939,1376256,117,-56,-1,-1,0
1523627805939,1310720,117,-56,-1,-1,0
1523627805939,1179648,117,-56,-1,-1,0
1523627805939,851968,117,-56,-1,-1,0
1523627805939,458752,117,-56,-1,-1,0
1523627805979,65536,117,-56,-1,-1,0
1523627805979,-65536,117,-56,-1,-1,0
1523627805979,-262144,117,-56,-1,-1,0
1523627805979,-393216,117,-56,-1,-1,0
1523627805979,-524288,117,-56,-1,-1,0
1523627806019,-589824,117,-56,-1,-1,0
1523627806019,-589824,117,-56,-1,-1,0
1523627806019,-589824,117,-56,-1,-1,0
1523627806019,-589824,117,-56,-1,-1,0
1523627806019,-589824,117,-56,-1,-1,0
1523627806059,-655360,117,-56,-1,-1,0
1523627806059,-589824,117,-56,-1,-1,0
1523627806059,-524288,117,-56,-1,-1,0
1523627806059,-458752,117,-56,-1,-1,0
1523627806059,-393216,117,-56,-1,-1,0
1523627806099,-393216,117,-56,-1,-1,0
1523627806099,-458752,117,-56,-1,-1,0
1523627806099,-458752,117,-56,-1,-1,0
1523627806099,-458752,117,-56,-1,-1,0
1523627806099,-458752,117,-56,-1,-1,0
1523627806139,-458752,115,-56,-1,-1,0
1523627806139,-524288,115,-56,-1,-1,0
1523627806139,-589824,115,-56,-1,-1,0
1523627806139,-589824,115,-56,-1,-1,0
1523627806139,-589824,115,-56,-1,-1,0
1523627806179,-524288,115,-56,-1,-1,0
1523627806179,-524288,115,-56,-1,-1,0
1523627806179,-524288,115,-56,-1,-1,0
1523627806179,-458752,115,-56,-1,-1,0
1523627806179,-458752,115,-56,-1,-1,0
1523627806219,-393216,115,-56,-1,-1,0
1523627806219,-393216,115,-56,-1,-1,0
1523627806219,-393216,115,-56,-1,-1,0
1523627806219,-458752,115,-56,-1,-1,0
1523627806219,-458752,115,-56,-1,-1,0
1523627806259,-458752,115,-56,-1,-1,0
1523627806259,-655360,115,-56,-1,-1,0
1523627806259,-917504,115,-56,-1,-1,0
1523627806259,-589824,115,-56,-1,-1,0
1523627806259,983040,115,-56,-1,-1,0
1523627806299,3473408,115,-56,-1,-1,0
1523627806299,3997696,115,-56,-1,-1,0
1523627806299,1769472,115,-56,-1,-1,0
1523627806299,-786432,115,-56,-1,-1,0
1523627806299,-1507328,115,-56,-1,-1,0
1523627806339,-1245184,115,-56,-1,-1,0
1523627806339,-786432,115,-56,-1,-1,0
1523627806339,-524288,115,-56,-1,-1,0
1523627806339,-458752,115,-56,-1,-1,0
1523627806339,-393216,115,-56,-1,-1,0
1523627806379,-393216,115,-56,-1,-1,0
1523627806379,-393216,115,-56,-1,-1,0
1523627806379,-327680,115,-56,-1,-1,0
1523627806379,-196608,115,-56,-1,-1,0
1523627806379,-131072,115,-56,-1,-1,0
1523627806419,-65536,115,-56,-1,-1,0
1523627806419,0,115,-56,-1,-1,0
1523627806419,131072,115,-56,-1,-1,0
1523627806419,327680,115,-56,-1,-1,0
1523627806419,458752,115,-56,-1,-1,0
1523627806459,786432,115,-56,-1,-1,0
1523627806459,1179648,115,-56,-1,-1,0
1523627806459,1572864,115,-56,-1,-1,0
1523627806459,1835008,115,-56,-1,-1,0
1523627806459,1966080,115,-56,-1,-1,0
1523627806499,1966080,115,-56,-1,-1,0
1523627806499,1769472,115,-56,-1,-1,0
1523627806499,1507328,115,-56,-1,-1,0
1523627806499,1114112,115,-56,-1,-1,0
1523627806499,720896,115,-56,-1,-1,0
1523627806541,327680,115,-56,-1,-1,0
1523627806541,65536,115,-56,-1,-1,0
1523627806541,-131072,115,-56,-1,-1,0
1523627806541,-262144,115,-56,-1,-1,0
1523627806541,-262144,115,-56,-1,-1,0
1523627806579,-327680,115,-56,-1,-1,0
1523627806579,-393216,115,-56,-1,-1,0
1523627806579,-393216,115,-56,-1,-1,0
1523627806579,-327680,115,-56,-1,-1,0
1523627806579,-262144,115,-56,-1,-1,0
1523627806619,-262144,115,-56,-1,-1,0
1523627806619,-262144,115,-56,-1,-1,0
1523627806619,-131072,115,-56,-1,-1,0
1523627806619,-65536,115,-56,-1,-1,0
1523627806619,-131072,115,-56,-1,-1,0
1523627806659,-131072,111,-56,-1,-1,0
1523627806659,-131072,111,-56,-1,-1,0
1523627806659,-196608,111,-56,-1,-1,0
1523627806659,-196608,111,-56,-1,-1,0
1523627806659,-196608,111,-56,-1,-1,0
1523627806699,-262144,111,-56,-1,-1,0
1523627806699,-327680,111,-56,-1,-1,0
1523627806699,-393216,111,-56,-1,-1,0
1523627806699,-393216,111,-56,-1,-1,0
1523627806699,-458752,111,-56,-1,-1,0
1523627806739,-458752,111,-56,-1,-1,0
1523627806739,-393216,111,-56,-1,-1,0
1523627806739,-393216,111,-56,-1,-1,0
1523627806739,-458752,111,-56,-1,-1,0
1523627806739,-458752,111,-56,-1,-1,0
1523627806779,-458752,111,-56,-1,-1,0
1523627806779,-458752,111,-56,-1,-1,0
1523627806779,-524288,111,-56,-1,-1,0
1523627806779,-524288,111,-56,-1,-1,0
1523627806779,-589824,111,-56,-1,-1,0
1523627806819,-786432,111,-56,-1,-1,0
1523627806819,-1048576,111,-56,-1,-1,0
1523627806819,-720896,111,-56,-1,-1,0
1523627806819,983040,111,-56,-1,-1,0
1523627806819,3735552,111,-56,-1,-1,0
1523627806859,4325376,111,-56,-1,-1,0
1523627806859,1966080,111,-56,-1,-1,0
1523627806859,-720896,111,-56,-1,-1,0
1523627806859,-1376256,111,-56,-1,-1,0
1523627806859,-1114112,111,-56,-1,-1,0
1523627806899,-786432,111,-56,-1,-1,0
1523627806899,-655360,111,-56,-1,-1,0
1523627806899,-589824,111,-56,-1,-1,0
1523627806899,-524288,111,-56,-1,-1,0
1523627806899,-524288,111,-56,-1,-1,0
1523627806939,-524288,111,-56,-1,-1,0
1523627806939,-524288,111,-56,-1,-1,0
1523627806939,-458752,111,-56,-1,-1,0
1523627806939,-393216,111,-56,-1,-1,0
1523627806939,-327680,111,-56,-1,-1,0
1523627806979,-196608,111,-56,-1,-1,0
1523627806979,-131072,111,-56,-1,-1,0
1523627806979,0,111,-56,-1,-1,0
1523627806979,196608,111,-56,-1,-1,0
1523627806979,458752,111,-56,-1,-1,0
1523627807019,786432,111,-56,-1,-1,0
1523627807019,1179648,111,-56,-1,-1,0
1523627807019,1441792,111,-56,-1,-1,0
1523627807019,1638400,111,-56,-1,-1,0
1523627807019,1572864,111,-56,-1,-1,0
1523627807059,1376256,111,-56,-1,-1,0
1523627807059,1048576,111,-56,-1,-1,0
1523627807059,655360,111,-56,-1,-1,0
1523627807059,262144,111,-56,-1,-1,0
1523627807059,0,111,-56,-1,-1,0
1523627807099,-131072,111,-56,-1,-1,0
1523627807099,-262144,111,-56,-1,-1,0
1523627807099,-458752,111,-56,-1,-1,0
1523627807099,-524288,111,-56,-1,-1,0
1523627807099,-589824,111,-56,-1,-1,0
1523627807139,-589824,111,-56,-1,-1,0
1523627807139,-524288,111,-56,-1,-1,0
1523627807139,-524288,111,-56,-1,-1,0
1523627807139,-458752,111,-56,-1,-1,0
1523627807139,-458752,111,-56,-1,-1,0
1523627807181,-524288,111,-56,-1,-1,0
1523627807181,-458752,111,-56,-1,-1,0
1523627807181,-393216,111,-56,-1,-1,0
1523627807181,-458752,111,-56,-1,-1,0
1523627807181,-458752,111,-56,-1,-1,0
1523627807219,-393216,111,-56,-1,-1,0
1523627807219,-393216,111,-56,-1,-1,0
1523627807219,-458752,111,-56,-1,-1,0
1523627807219,-524288,111,-56,-1,-1,0
1523627807219,-589824,111,-56,-1,-1,0
1523627807259,-589824,111,-56,-1,-1,0
1523627807259,-589824,111,-56,-1,-1,0
1523627807259,-655360,111,-56,-1,-1,0
1523627807259,-655360,111,-56,-1,-1,0
1523627807259,-655360,111,-56,-1,-1,0
1523627807299,-655360,111,-56,-1,-1,0
1523627807299,-786432,111,-56,-1,-1,0
1523627807299,-786432,111,-56,-1,-1,0
1523627807299,-720896,111,-56,-1,-1,0
1523627807299,-655360,111,-56,-1,-1,0
1523627807339,-720896,111,-56,-1,-1,0
1523627807339,-786432,111,-56,-1,-1,0
1523627807339,-786432,111,-56,-1,-1,0
1523627807339,-786432,111,-56,-1,-1,0
1523627807339,-720896,111,-56,-1,-1,0
1523627807379,-851968,111,-56,-1,-1,0
1523627807379,-1310720,111,-56,-1,-1,0
1523627807379,-1572864,111,-56,-1,-1,0
1523627807379,-458752,111,-56,-1,-1,0
1523627807379,2097152,111,-56,-1,-1,0
1523627807419,4456448,111,-56,-1,-1,0
1523627807419,3735552,111,-56,-1,-1,0
1523627807419,983040,111,-56,-1,-1,0
1523627807419,-917504,111,-56,-1,-1,0
1523627807419,-1179648,111,-56,-1,-1,0
1523627807459,-983040,111,-56,-1,-1,0
1523627807459,-851968,111,-56,-1,-1,0
1523627807459,-786432,111,-56,-1,-1,0
1523627807459,-720896,111,-56,-1,-1,0
1523627807459,-589824,111,-56,-1,-1,0
1523627807499,-655360,111,-56,-1,-1,0
1523627807499,-655360,111,-56,-1,-1,0
1523627807499,-655360,111,-56,-1,-1,0
1523627807499,-655360,111,-56,-1,-1,0
1523627807499,-589824,111,-56,-1,-1,0
1523627807539,-458752,111,-56,-1,-1,0
1523627807539,-327680,111,-56,-1,-1,0
1523627807539,-196608,111,-56,-1,-1,0
1523627807539,0,111,-56,-1,-1,0
1523627807539,196608,111,-56,-1,-1,0
1523627807579,524288,111,-56,-1,-1,0
1523627807579,786432,111,-56,-1,-1,0
1523627807579,1114112,111,-56,-1,-1,0
1523627807579,1310720,111,-56,-1,-1,0
1523627807579,1441792,111,-56,-1,-1,0
1523627807620,1441792,111,-56,-1,-1,0
1523627807620,1310720,111,-56,-1,-1,0
1523627807620,1048576,111,-56,-1,-1,0
1523627807620,720896,111,-56,-1,-1,0
1523627807620,393216,111,-56,-1,-1,0
1523627807659,131072,111,-56,-1,-1,0
1523627807659,0,111,-56,-1,-1,0
1523627807659,0,111,-56,-1,-1,0
1523627807659,-65536,111,-56,-1,-1,0
1523627807659,-65536,111,-56,-1,-1,0
1523627807700,-131072,111,-56,-1,-1,0
1523627807700,-131072,111,-56,-1,-1,0
1523627807700,-65536,111,-56,-1,-1,0
1523627807700,0,111,-56,-1,-1,0
1523627807700,0,111,-56,-1,-1,0
1523627807739,0,111,-56,-1,-1,0
1523627807739,65536,111,-56,-1,-1,0
1523627807739,131072,111,-56,-1,-1,0
1523627807739,131072,111,-56,-1,-1,0
1523627807739,196608,111,-56,-1,-1,0
1523627807780,196608,111,-56,-1,-1,0
1523627807780,196608,111,-56,-1,-1,0
1523627807780,262144,111,-56,-1,-1,0
1523627807780,262144,111,-56,-1,-1,0
1523627807780,196608,111,-56,-1,-1,0
1523627807821,196608,110,-56,-1,-1,0
1523627807821,262144,110,-56,-1,-1,0
1523627807821,196608,110,-56,-1,-1,0
1523627807821,65536,110,-56,-1,-1,0
1523627807821,0,110,-56,-1,-1,0
1523627807859,0,110,-56,-1,-1,0
1523627807859,-65536,110,-56,-1,-1,0
1523627807859,-65536,110,-56,-1,-1,0
1523627807859,0,110,-56,-1,-1,0
1523627807859,0,110,-56,-1,-1,0
1523627807899,0,110,-56,-1,-1,0
1523627807899,0,110,-56,-1,-1,0
1523627807899,0,110,-56,-1,-1,0
1523627807899,-65536,110,-56,-1,-1,0
1523627807899,-131072,110,-56,-1,-1,0
1523627807939,-196608,110,-56,-1,-1,0
1523627807939,-196608,110,-56,-1,-1,0
1523627807939,-262144,110,-56,-1,-1,0
1523627807939,-524288,110,-56,-1,-1,0
1523627807939,-917504,110,-56,-1,-1,0
1523627807979,-589824,110,-56,-1,-1,0
1523627807979,1179648,110,-56,-1,-1,0
1523627807979,3735552,110,-56,-1,-1,0
1523627807979,4325376,110,-56,-1,-1,0
1523627807979,2162688,110,-56,-1,-1,0
1523627808020,-327680,110,-56,-1,-1,0
1523627808020,-983040,110,-56,-1,-1,0
1523627808020,-851968,110,-56,-1,-1,0
1523627808020,-655360,110,-56,-1,-1,0
1523627808020,-524288,110,-56,-1,-1,0
1523627808059,-524288,110,-56,-1,-1,0
1523627808059,-524288,110,-56,-1,-1,0
1523627808059,-589824,110,-56,-1,-1,0
1523627808059,-589824,110,-56,-1,-1,0
1523627808059,-524288,110,-56,-1,-1,0
1523627808100,-458752,110,-56,-1,-1,0
1523627808100,-393216,110,-56,-1,-1,0
1523627808100,-393216,110,-56,-1,-1,0
1523627808100,-327680,110,-56,-1,-1,0
1523627808100,-196608,110,-56,-1,-1,0
1523627808139,0,110,-56,-1,-1,0
1523627808139,131072,110,-56,-1,-1,0
1523627808139,458752,110,-56,-1,-1,0
1523627808139,720896,110,-56,-1,-1,0
1523627808139,1048576,110,-56,-1,-1,0
1523627808179,1310720,110,-56,-1,-1,0
1523627808179,1507328,110,-56,-1,-1,0
1523627808179,1507328,110,-56,-1,-1,0
1523627808179,1441792,110,-56,-1,-1,0
1523627808179,1179648,110,-56,-1,-1,0
1523627808219,786432,110,-56,-1,-1,0
1523627808219,393216,110,-56,-1,-1,0
1523627808219,131072,110,-56,-1,-1,0
1523627808219,-65536,110,-56,-1,-1,0
1523627808219,-262144,110,-56,-1,-1,0
1523627808260,-393216,110,-56,-1,-1,0
1523627808260,-458752,110,-56,-1,-1,0
1523627808260,-524288,110,-56,-1,-1,0
1523627808260,-589824,110,-56,-1,-1,0
1523627808260,-589824,110,-56,-1,-1,0
1523627808299,-524288,110,-56,-1,-1,0
1523627808299,-524288,110,-56,-1,-1,0
1523627808299,-458752,110,-56,-1,-1,0
1523627808299,-458752,110,-56,-1,-1,0
1523627808299,-458752,110,-56,-1,-1,0
1523627808340,-458752,110,-56,-1,-1,0
1523627808340,-458752,110,-56,-1,-1,0
1523627808340,-393216,110,-56,-1,-1,0
1523627808340,-393216,110,-56,-1,-1,0
1523627808340,-393216,110,-56,-1,-1,0
1523627808380,-393216,109,-56,-1,-1,0
1523627808380,-393216,109,-56,-1,-1,0
1523627808380,-458752,109,-56,-1,-1,0
1523627808380,-524288,109,-56,-1,-1,0
1523627808380,-524288,109,-56,-1,-1,0
1523627808420,-524288,109,-56,-1,-1,0
1523627808420,-524288,109,-56,-1,-1,0
1523627808420,-524288,109,-56,-1,-1,0
1523627808420,-524288,109,-56,-1,-1,0
1523627808420,-524288,109,-56,-1,-1,0
1523627808461,-458752,109,-56,-1,-1,0
1523627808461,-458752,109,-56,-1,-1,0
1523627808461,-458752,109,-56,-1,-1,0
1523627808461,-458752,109,-56,-1,-1,0
1523627808461,-524288,109,-56,-1,-1,0
1523627808500,-589824,109,-56,-1,-1,0
1523627808500,-589824,109,-56,-1,-1,0
1523627808500,-589824,109,-56,-1,-1,0
1523627808500,-720896,109,-56,-1,-1,0
1523627808500,-983040,109,-56,-1,-1,0
1523627808540,-983040,109,-56,-1,-1,0
1523627808540,196608,109,-56,-1,-1,0
1523627808540,2686976,109,-56,-1,-1,0
1523627808540,4128768,109,-56,-1,-1,0
1523627808540,2621440,109,-56,-1,-1,0
1523627808580,-327680,109,-56,-1,-1,0
1523627808580,-1703936,109,-56,-1,-1,0
1523627808580,-1572864,109,-56,-1,-1,0
1523627808580,-1114112,109,-56,-1,-1,0
1523627808580,-786432,109,-56,-1,-1,0
1523627808620,-589824,109,-56,-1,-1,0
1523627808620,-458752,109,-56,-1,-1,0
1523627808620,-393216,109,-56,-1,-1,0
1523627808620,-393216,109,-56,-1,-1,0
1523627808620,-393216,109,-56,-1,-1,0
1523627808660,-327680,109,-56,-1,-1,0
1523627808660,-196608,109,-56,-1,-1,0
1523627808660,-131072,109,-56,-1,-1,0
1523627808660,-131072,109,-56,-1,-1,0
1523627808660,0,109,-56,-1,-1,0
1523627808700,262144,109,-56,-1,-1,0
1523627808700,458752,109,-56,-1,-1,0
1523627808700,786432,109,-56,-1,-1,0
1523627808700,983040,109,-56,-1,-1,0
1523627808700,1310720,109,-56,-1,-1,0
1523627808740,1638400,109,-56,-1,-1,0
1523627808740,1966080,109,-56,-1,-1,0
1523627808740,2031616,109,-56,-1,-1,0
1523627808740,1900544,109,-56,-1,-1,0
1523627808740,1572864,109,-56,-1,-1,0
1523627808780,1179648,109,-56,-1,-1,0
1523627808780,786432,109,-56,-1,-1,0
1523627808780,327680,109,-56,-1,-1,0
1523627808780,0,109,-56,-1,-1,0
1523627808780,-131072,109,-56,-1,-1,0
1523627808820,-262144,109,-56,-1,-1,0
1523627808820,-327680,109,-56,-1,-1,0
1523627808820,-393216,109,-56,-1,-1,0
1523627808820,-393216,109,-56,-1,-1,0
1523627808820,-393216,109,-56,-1,-1,0
1523627808860,-393216,109,-56,-1,-1,0
1523627808860,-393216,109,-56,-1,-1,0
1523627808860,-327680,109,-56,-1,-1,0
1523627808860,-262144,109,-56,-1,-1,0
1523627808860,-262144,109,-56,-1,-1,0
1523627808900,-262144,109,-56,-1,-1,0
1523627808900,-196608,109,-56,-1,-1,0
1523627808900,-196608,109,-56,-1,-1,0
1523627808900,-196608,109,-56,-1,-1,0
1523627808900,-262144,109,-56,-1,-1,0
1523627808940,-262144,108,-56,-1,-1,0
1523627808940,-262144,108,-56,-1,-1,0
1523627808940,-393216,108,-56,-1,-1,0
1523627808940,-393216,108,-56,-1,-1,0
1523627808940,-458752,108,-56,-1,-1,0
1523627808980,-524288,108,-56,-1,-1,0
1523627808980,-524288,108,-56,-1,-1,0
1523627808980,-524288,108,-56,-1,-1,0
1523627808980,-524288,108,-56,-1,-1,0
1523627808980,-524288,108,-56,-1,-1,0
1523627809020,-524288,108,-56,-1,-1,0
1523627809020,-524288,108,-56,-1,-1,0
1523627809020,-524288,108,-56,-1,-1,0
1523627809020,-589824,108,-56,-1,-1,0
1523627809020,-655360,108,-56,-1,-1,0
1523627809060,-655360,108,-56,-1,-1,0
1523627809060,-720896,108,-56,-1,-1,0
1523627809060,-786432,108,-56,-1,-1,0
1523627809060,-1114112,108,-56,-1,-1,0
1523627809060,-1245184,108,-56,-1,-1,0
1523627809101,-262144,108,-56,-1,-1,0
1523627809101,2162688,108,-56,-1,-1,0
1523627809101,4390912,108,-56,-1,-1,0
1523627809101,3538944,108,-56,-1,-1,0
1523627809101,589824,108,-56,-1,-1,0
1523627809140,-1441792,108,-56,-1,-1,0
1523627809140,-1572864,108,-56,-1,-1,0
1523627809140,-1179648,108,-56,-1,-1,0
1523627809140,-851968,108,-56,-1,-1,0
1523627809140,-720896,108,-56,-1,-1,0
1523627809180,-720896,108,-56,-1,-1,0
1523627809180,-720896,108,-56,-1,-1,0
1523627809180,-655360,108,-56,-1,-1,0
1523627809180,-589824,108,-56,-1,-1,0
1523627809180,-589824,108,-56,-1,-1,0
1523627809220,-524288,108,-56,-1,-1,0
1523627809220,-458752,108,-56,-1,-1,0
1523627809220,-327680,108,-56,-1,-1,0
1523627809220,-262144,108,-56,-1,-1,0
1523627809220,-131072,108,-56,-1,-1,0
1523627809260,0,108,-56,-1,-1,0
1523627809260,196608,108,-56,-1,-1,0
1523627809260,524288,108,-56,-1,-1,0
1523627809260,917504,108,-56,-1,-1,0
1523627809260,1245184,108,-56,-1,-1,0
1523627809300,1441792,108,-56,-1,-1,0
1523627809300,1572864,108,-56,-1,-1,0
1523627809300,1572864,108,-56,-1,-1,0
1523627809300,1376256,108,-56,-1,-1,0
1523627809300,983040,108,-56,-1,-1,0
1523627809340,524288,108,-56,-1,-1,0
1523627809340,131072,108,-56,-1,-1,0
1523627809340,-65536,108,-56,-1,-1,0
1523627809340,-262144,108,-56,-1,-1,0
1523627809340,-393216,108,-56,-1,-1,0
1523627809380,-393216,108,-56,-1,-1,0
1523627809380,-458752,108,-56,-1,-1,0
1523627809380,-589824,108,-56,-1,-1,0
1523627809380,-589824,108,-56,-1,-1,0
1523627809380,-589824,108,-56,-1,-1,0
1523627809420,-524288,108,-56,-1,-1,0
1523627809420,-458752,108,-56,-1,-1,0
1523627809420,-458752,108,-56,-1,-1,0
1523627809420,-458752,108,-56,-1,-1,0
1523627809420,-393216,108,-56,-1,-1,0
1523627809460,-393216,108,-56,-1,-1,0
1523627809460,-327680,108,-56,-1,-1,0
1523627809460,-262144,108,-56,-1,-1,0
1523627809460,-262144,108,-56,-1,-1,0
1523627809460,-262144,108,-56,-1,-1,0
1523627809500,-262144,108,-56,-1,-1,0
1523627809500,-196608,108,-56,-1,-1,0
1523627809500,-196608,108,-56,-1,-1,0
1523627809500,-262144,108,-56,-1,-1,0
1523627809500,-262144,108,-56,-1,-1,0
1523627809540,-262144,108,-56,-1,-1,0
1523627809540,-262144,108,-56,-1,-1,0
1523627809540,-262144,108,-56,-1,-1,0
1523627809540,-196608,108,-56,-1,-1,0
1523627809540,-196608,108,-56,-1,-1,0
1523627809580,-196608,108,-56,-1,-1,0
1523627809580,-262144,108,-56,-1,-1,0
1523627809580,-196608,108,-56,-1,-1,0
1523627809580,-196608,108,-56,-1,-1,0
1523627809580,-196608,108,-56,-1,-1,0
1523627809620,-196608,108,-56,-1,-1,0
1523627809620,-393216,108,-56,-1,-1,0
1523627809620,-851968,108,-56,-1,-1,0
1523627809620,-851968,108,-56,-1,-1,0
1523627809620,524288,108,-56,-1,-1,0
1523627809660,3473408,108,-56,-1,-1,0
1523627809660,5505024,108,-56,-1,-1,0
1523627809660,3997696,108,-56,-1,-1,0
1523627809660,851968,108,-56,-1,-1,0
1523627809660,-720896,108,-56,-1,-1,0
1523627809700,-720896,108,-56,-1,-1,0
1523627809700,-393216,108,-56,-1,-1,0
1523627809700,-262144,108,-56,-1,-1,0
1523627809700,-196608,108,-56,-1,-1,0
1523627809700,-196608,108,-56,-1,-1,0
1523627809741,-131072,108,-56,-1,-1,0
1523627809741,-196608,108,-56,-1,-1,0
1523627809741,-196608,108,-56,-1,-1,0
1523627809741,-262144,108,-56,-1,-1,0
1523627809741,-196608,108,-56,-1,-1,0
1523627809780,-65536,108,-56,-1,-1,0
1523627809780,0,108,-56,-1,-1,0
1523627809780,65536,108,-56,-1,-1,0
1523627809780,196608,108,-56,-1,-1,0
1523627809780,327680,108,-56,-1,-1,0
1523627809820,524288,108,-56,-1,-1,0
1523627809820,851968,108,-56,-1,-1,0
1523627809820,1245184,108,-56,-1,-1,0
1523627809820,1507328,108,-56,-1,-1,0
1523627809820,1769472,108,-56,-1,-1,0
1523627809860,1835008,108,-56,-1,-1,0
1523627809860,1835008,108,-56,-1,-1,0
1523627809860,1638400,108,-56,-1,-1,0
1523627809860,1179648,108,-56,-1,-1,0
1523627809860,720896,108,-56,-1,-1,0
1523627809900,393216,108,-56,-1,-1,0
1523627809900,131072,108,-56,-1,-1,0
1523627809900,0,108,-56,-1,-1,0
1523627809900,-65536,108,-56,-1,-1,0
1523627809900,-196608,108,-56,-1,-1,0
1523627809940,-196608,108,-56,-1,-1,0
1523627809940,-262144,108,-56,-1,-1,0
1523627809940,-262144,108,-56,-1,-1,0
1523627809940,-262144,108,-56,-1,-1,0
1523627809940,-262144,108,-56,-1,-1,0
1523627809980,-262144,108,-56,-1,-1,0
1523627809980,-196608,108,-56,-1,-1,0
1523627809980,-196608,108,-56,-1,-1,0
1523627809980,-196608,108,-56,-1,-1,0
1523627809980,-262144,108,-56,-1,-1,0
1523627810020,-196608,108,-56,-1,-1,0
1523627810020,-131072,108,-56,-1,-1,0
1523627810020,-131072,108,-56,-1,-1,0
1523627810020,-65536,108,-56,-1,-1,0
1523627810020,-131072,108,-56,-1,-1,0
1523627810060,-196608,108,-56,-1,-1,0
1523627810060,-262144,108,-56,-1,-1,0
1523627810060,-262144,108,-56,-1,-1,0
1523627810060,-327680,108,-56,-1,-1,0
1523627810060,-393216,108,-56,-1,-1,0
1523627810100,-393216,108,-56,-1,-1,0
1523627810100,-327680,108,-56,-1,-1,0
1523627810100,-262144,108,-56,-1,-1,0
1523627810100,-327680,108,-56,-1,-1,0
1523627810100,-393216,108,-56,-1,-1,0
1523627810140,-458752,108,-56,-1,-1,0
1523627810140,-393216,108,-56,-1,-1,0
1523627810140,-393216,108,-56,-1,-1,0
1523627810140,-393216,108,-56,-1,-1,0
1523627810140,-458752,108,-56,-1,-1,0
1523627810180,-851968,108,-56,-1,-1,0
1523627810180,-1179648,108,-56,-1,-1,0
1523627810180,-589824,108,-56,-1,-1,0
1523627810180,1703936,108,-56,-1,-1,0
1523627810180,4718592,108,-56,-1,-1,0
1523627810220,4849664,108,-56,-1,-1,0
1523627810220,2031616,108,-56,-1,-1,0
1523627810220,-589824,108,-56,-1,-1,0
1523627810220,-1048576,108,-56,-1,-1,0
1523627810220,-851968,108,-56,-1,-1,0
1523627810260,-655360,108,-56,-1,-1,0
1523627810260,-589824,108,-56,-1,-1,0
1523627810260,-589824,108,-56,-1,-1,0
1523627810260,-589824,108,-56,-1,-1,0
1523627810260,-589824,108,-56,-1,-1,0
1523627810299,-589824,108,-56,-1,-1,0
1523627810299,-524288,108,-56,-1,-1,0
1523627810299,-393216,108,-56,-1,-1,0
1523627810299,-393216,108,-56,-1,-1,0
1523627810299,-327680,108,-56,-1,-1,0
1523627810339,-262144,108,-56,-1,-1,0
1523627810339,-131072,108,-56,-1,-1,0
1523627810339,0,108,-56,-1,-1,0
1523627810339,196608,108,-56,-1,-1,0
1523627810339,524288,108,-56,-1,-1,0
1523627810381,983040,108,-56,-1,-1,0
1523627810381,1245184,108,-56,-1,-1,0
1523627810381,1376256,108,-56,-1,-1,0
1523627810381,1507328,108,-56,-1,-1,0
1523627810381,1507328,108,-56,-1,-1,0
1523627810419,1441792,108,-56,-1,-1,0
1523627810419,1114112,108,-56,-1,-1,0
1523627810419,786432,108,-56,-1,-1,0
1523627810419,458752,108,-56,-1,-1,0
1523627810419,196608,108,-56,-1,-1,0
1523627810459,0,108,-56,-1,-1,0
1523627810459,-131072,108,-56,-1,-1,0
1523627810459,-196608,108,-56,-1,-1,0
1523627810459,-196608,108,-56,-1,-1,0
1523627810459,-262144,108,-56,-1,-1,0
1523627810499,-262144,108,-56,-1,-1,0
1523627810499,-262144,108,-56,-1,-1,0
1523627810499,-262144,108,-56,-1,-1,0
1523627810499,-196608,108,-56,-1,-1,0
1523627810499,-131072,108,-56,-1,-1,0
1523627810539,-65536,108,-56,-1,-1,0
1523627810539,-65536,108,-56,-1,-1,0
1523627810539,-65536,108,-56,-1,-1,0
1523627810539,0,108,-56,-1,-1,0
1523627810539,0,108,-56,-1,-1,0
1523627810579,0,108,-56,-1,-1,0
1523627810579,-65536,108,-56,-1,-1,0
1523627810579,-131072,108,-56,-1,-1,0
1523627810579,-65536,108,-56,-1,-1,0
1523627810579,-131072,108,-56,-1,-1,0
1523627810619,-196608,108,-56,-1,-1,0
1523627810619,-327680,108,-56,-1,-1,0
1523627810619,-262144,108,-56,-1,-1,0
1523627810619,-262144,108,-56,-1,-1,0
1523627810619,-327680,108,-56,-1,-1,0
1523627810659,-327680,108,-56,-1,-1,0
1523627810659,-262144,108,-56,-1,-1,0
1523627810659,-327680,108,-56,-1,-1,0
1523627810659,-393216,108,-56,-1,-1,0
1523627810659,-458752,108,-56,-1,-1,0
1523627810699,-524288,108,-56,-1,-1,0
1523627810699,-524288,108,-56,-1,-1,0
1523627810699,-524288,108,-56,-1,-1,0
1523627810699,-524288,108,-56,-1,-1,0
1523627810699,-655360,108,-56,-1,-1,0
1523627810739,-1048576,108,-56,-1,-1,0
1523627810739,-1048576,108,-56,-1,-1,0
1523627810739,262144,108,-56,-1,-1,0
1523627810739,2818048,108,-56,-1,-1,0
1523627810739,4194304,108,-56,-1,-1,0
1523627810779,2555904,108,-56,-1,-1,0
1523627810779,-196608,108,-56,-1,-1,0
1523627810779,-1441792,108,-56,-1,-1,0
1523627810779,-1310720,108,-56,-1,-1,0
1523627810779,-917504,108,-56,-1,-1,0
1523627810819,-786432,108,-56,-1,-1,0
1523627810819,-655360,108,-56,-1,-1,0
1523627810819,-655360,108,-56,-1,-1,0
1523627810819,-655360,108,-56,-1,-1,0
1523627810819,-655360,108,-56,-1,-1,0
1523627810859,-655360,108,-56,-1,-1,0
1523627810859,-655360,108,-56,-1,-1,0
1523627810859,-589824,108,-56,-1,-1,0
1523627810859,-524288,108,-56,-1,-1,0
1523627810859,-458752,108,-56,-1,-1,0
1523627810899,-262144,108,-56,-1,-1,0
1523627810899,-65536,108,-56,-1,-1,0
1523627810899,0,108,-56,-1,-1,0
1523627810899,327680,108,-56,-1,-1,0
1523627810899,655360,108,-56,-1,-1,0
1523627810939,1179648,108,-56,-1,-1,0
1523627810939,1507328,108,-56,-1,-1,0
1523627810939,1769472,108,-56,-1,-1,0
1523627810939,1835008,108,-56,-1,-1,0
1523627810939,1703936,108,-56,-1,-1,0
1523627810979,1441792,108,-56,-1,-1,0
1523627810979,1048576,108,-56,-1,-1,0
1523627810979,655360,108,-56,-1,-1,0
1523627810979,262144,108,-56,-1,-1,0
1523627810979,65536,108,-56,-1,-1,0
1523627811021,-131072,108,-56,-1,-1,0
1523627811021,-393216,108,-56,-1,-1,0
1523627811021,-524288,108,-56,-1,-1,0
1523627811021,-524288,108,-56,-1,-1,0
1523627811021,-524288,108,-56,-1,-1,0
1523627811059,-589824,108,-56,-1,-1,0
1523627811059,-589824,108,-56,-1,-1,0
1523627811059,-589824,108,-56,-1,-1,0
1523627811059,-524288,108,-56,-1,-1,0
1523627811059,-458752,108,-56,-1,-1,0
1523627811099,-458752,108,-56,-1,-1,0
1523627811099,-458752,108,-56,-1,-1,0
1523627811099,-458752,108,-56,-1,-1,0
1523627811099,-393216,108,-56,-1,-1,0
1523627811099,-393216,108,-56,-1,-1,0
1523627811139,-327680,108,-56,-1,-1,0
1523627811139,-393216,108,-56,-1,-1,0
1523627811139,-393216,108,-56,-1,-1,0
1523627811139,-458752,108,-56,-1,-1,0
1523627811139,-458752,108,-56,-1,-1,0
1523627811179,-458752,108,-56,-1,-1,0
1523627811179,-458752,108,-56,-1,-1,0
1523627811179,-458752,108,-56,-1,-1,0
1523627811179,-458752,108,-56,-1,-1,0
1523627811179,-524288,108,-56,-1,-1,0
1523627811219,-458752,108,-56,-1,-1,0
1523627811219,-524288,108,-56,-1,-1,0
1523627811219,-589824,108,-56,-1,-1,0
1523627811219,-655360,108,-56,-1,-1,0
1523627811219,-589824,108,-56,-1,-1,0
1523627811259,-589824,108,-56,-1,-1,0
1523627811259,-720896,108,-56,-1,-1,0
1523627811259,-1048576,108,-56,-1,-1,0
1523627811259,-983040,108,-56,-1,-1,0
1523627811259,262144,108,-56,-1,-1,0
1523627811299,2883584,108,-56,-1,-1,0
1523627811299,4456448,108,-56,-1,-1,0
1523627811299,2883584,108,-56,-1,-1,0
1523627811299,-65536,108,-56,-1,-1,0
1523627811299,-1441792,108,-56,-1,-1,0
1523627811339,-1310720,108,-56,-1,-1,0
1523627811339,-917504,108,-56,-1,-1,0
1523627811339,-655360,108,-56,-1,-1,0
1523627811339,-524288,108,-56,-1,-1,0
1523627811339,-589824,108,-56,-1,-1,0
1523627811379,-524288,108,-56,-1,-1,0
1523627811379,-458752,108,-56,-1,-1,0
1523627811379,-393216,108,-56,-1,-1,0
1523627811379,-393216,108,-56,-1,-1,0
1523627811379,-327680,108,-56,-1,-1,0
1523627811419,-262144,108,-56,-1,-1,0
1523627811419,-131072,108,-56,-1,-1,0
1523627811419,-65536,108,-56,-1,-1,0
1523627811419,0,108,-56,-1,-1,0
1523627811419,131072,108,-56,-1,-1,0
1523627811459,458752,108,-56,-1,-1,0
1523627811459,786432,108,-56,-1,-1,0
1523627811459,1114112,108,-56,-1,-1,0
1523627811459,1441792,108,-56,-1,-1,0
1523627811459,1703936,108,-56,-1,-1,0
1523627811499,1769472,108,-56,-1,-1,0
1523627811499,1638400,108,-56,-1,-1,0
1523627811499,1376256,108,-56,-1,-1,0
1523627811499,983040,108,-56,-1,-1,0
1523627811499,458752,108,-56,-1,-1,0
1523627811539,65536,108,-56,-1,-1,0
1523627811539,-131072,108,-56,-1,-1,0
1523627811539,-262144,108,-56,-1,-1,0
1523627811539,-393216,108,-56,-1,-1,0
1523627811539,-393216,108,-56,-1,-1,0
1523627811579,-458752,108,-56,-1,-1,0
1523627811579,-524288,108,-56,-1,-1,0
1523627811579,-589824,108,-56,-1,-1,0
1523627811579,-589824,108,-56,-1,-1,0
1523627811579,-524288,108,-56,-1,-1,0
1523627811619,-524288,108,-56,-1,-1,0
1523627811619,-524288,108,-56,-1,-1,0
1523627811619,-524288,108,-56,-1,-1,0
1523627811619,-458752,108,-56,-1,-1,0
1523627811619,-458752,108,-56,-1,-1,0
1523627811661,-458752,108,-56,-1,-1,0
1523627811661,-393216,108,-56,-1,-1,0
1523627811661,-327680,108,-56,-1,-1,0
1523627811661,-327680,108,-56,-1,-1,0
1523627811661,-393216,108,-56,-1,-1,0
1523627811699,-458752,108,-56,-1,-1,0
1523627811699,-458752,108,-56,-1,-1,0
1523627811699,-524288,108,-56,-1,-1,0
1523627811699,-524288,108,-56,-1,-1,0
1523627811699,-589824,108,-56,-1,-1,0
1523627811739,-589824,108,-56,-1,-1,0
1523627811739,-655360,108,-56,-1,-1,0
1523627811739,-589824,108,-56,-1,-1,0
1523627811739,-589824,108,-56,-1,-1,0
1523627811739,-589824,108,-56,-1,-1,0
1523627811779,-589824,108,-56,-1,-1,0
1523627811779,-589824,108,-56,-1,-1,0
1523627811779,-589824,108,-56,-1,-1,0
1523627811779,-655360,108,-56,-1,-1,0
1523627811779,-720896,108,-56,-1,-1,0
1523627811819,-1048576,108,-56,-1,-1,0
1523627811819,-1376256,108,-56,-1,-1,0
1523627811819,-786432,108,-56,-1,-1,0
1523627811819,1507328,108,-56,-1,-1,0
1523627811819,4325376,108,-56,-1,-1,0
1523627811859,4390912,108,-56,-1,-1,0
1523627811859,1703936,108,-56,-1,-1,0
1523627811859,-786432,108,-56,-1,-1,0
1523627811859,-1310720,108,-56,-1,-1,0
1523627811859,-1114112,108,-56,-1,-1,0
1523627811899,-917504,108,-56,-1,-1,0
1523627811899,-851968,108,-56,-1,-1,0
1523627811899,-851968,108,-56,-1,-1,0
1523627811899,-786432,108,-56,-1,-1,0
1523627811899,-786432,108,-56,-1,-1,0
1523627811941,-786432,108,-56,-1,-1,0
1523627811941,-786432,108,-56,-1,-1,0
1523627811941,-786432,108,-56,-1,-1,0
1523627811941,-786432,108,-56,-1,-1,0
1523627811941,-720896,108,-56,-1,-1,0
1523627811979,-589824,108,-56,-1,-1,0
1523627811979,-524288,108,-56,-1,-1,0
1523627811979,-327680,108,-56,-1,-1,0
1523627811979,-196608,108,-56,-1,-1,0
1523627811979,0,108,-56,-1,-1,0
1523627812019,327680,108,-56,-1,-1,0
1523627812019,720896,108,-56,-1,-1,0
1523627812019,1048576,108,-56,-1,-1,0
1523627812019,1179648,108,-56,-1,-1,0
1523627812019,1245184,108,-56,-1,-1,0
1523627812059,1114112,108,-56,-1,-1,0
1523627812059,851968,108,-56,-1,-1,0
1523627812059,458752,108,-56,-1,-1,0
1523627812059,0,108,-56,-1,-1,0
1523627812059,-262144,108,-56,-1,-1,0
1523627812099,-458752,108,-56,-1,-1,0
1523627812099,-655360,108,-56,-1,-1,0
1523627812099,-720896,108,-56,-1,-1,0
1523627812099,-786432,108,-56,-1,-1,0
1523627812099,-851968,108,-56,-1,-1,0
1523627812139,-851968,108,-56,-1,-1,0
1523627812139,-851968,108,-56,-1,-1,0
1523627812139,-851968,108,-56,-1,-1,0
1523627812139,-917504,108,-56,-1,-1,0
1523627812139,-917504,108,-56,-1,-1,0
1523627812179,-786432,108,-56,-1,-1,0
1523627812179,-786432,108,-56,-1,-1,0
1523627812179,-786432,108,-56,-1,-1,0
1523627812179,-655360,108,-56,-1,-1,0
1523627812179,-589824,108,-56,-1,-1,0
1523627812219,-655360,108,-56,-1,-1,0
1523627812219,-720896,108,-56,-1,-1,0
1523627812219,-720896,108,-56,-1,-1,0
1523627812219,-720896,108,-56,-1,-1,0
1523627812219,-786432,108,-56,-1,-1,0
1523627812259,-720896,108,-56,-1,-1,0
1523627812259,-720896,108,-56,-1,-1,0
1523627812259,-720896,108,-56,-1,-1,0
1523627812259,-655360,108,-56,-1,-1,0
1523627812259,-655360,108,-56,-1,-1,0
1523627812301,-720896,108,-56,-1,-1,0
1523627812301,-720896,108,-56,-1,-1,0
1523627812301,-720896,108,-56,-1,-1,0
1523627812301,-720896,108,-56,-1,-1,0
1523627812301,-720896,108,-56,-1,-1,0
1523627812339,-655360,108,-56,-1,-1,0
1523627812339,-589824,108,-56,-1,-1,0
1523627812339,-655360,108,-56,-1,-1,0
1523627812339,-851968,108,-56,-1,-1,0
1523627812339,-1310720,108,-56,-1,-1,0
1523627812379,-1114112,108,-56,-1,-1,0
1523627812379,393216,108,-56,-1,-1,0
1523627812379,3145728,108,-56,-1,-1,0
1523627812379,4456448,108,-56,-1,-1,0
1523627812379,2686976,108,-56,-1,-1,0
1523627812419,0,108,-56,-1,-1,0
1523627812419,-983040,108,-56,-1,-1,0
1523627812419,-917504,108,-56,-1,-1,0
1523627812419,-589824,108,-56,-1,-1,0
1523627812419,-458752,108,-56,-1,-1,0
1523627812459,-458752,108,-56,-1,-1,0
1523627812459,-524288,108,-56,-1,-1,0
1523627812459,-458752,108,-56,-1,-1,0
1523627812459,-393216,108,-56,-1,-1,0
1523627812459,-327680,108,-56,-1,-1,0
1523627812499,-196608,108,-56,-1,-1,0
1523627812499,-131072,108,-56,-1,-1,0
1523627812499,-65536,108,-56,-1,-1,0
1523627812499,0,108,-56,-1,-1,0
1523627812499,131072,108,-56,-1,-1,0
1523627812539,262144,108,-56,-1,-1,0
1523627812539,393216,108,-56,-1,-1,0
1523627812539,655360,108,-56,-1,-1,0
1523627812539,983040,108,-56,-1,-1,0
1523627812539,1376256,108,-56,-1,-1,0
1523627812579,1703936,108,-56,-1,-1,0
1523627812579,1966080,108,-56,-1,-1,0
1523627812579,2031616,108,-56,-1,-1,0
1523627812579,1966080,108,-56,-1,-1,0
1523627812579,1769472,108,-56,-1,-1,0
1523627812619,1441792,108,-56,-1,-1,0
1523627812619,1048576,108,-56,-1,-1,0
1523627812619,786432,108,-56,-1,-1,0
1523627812619,524288,108,-56,-1,-1,0
1523627812619,327680,108,-56,-1,-1,0
1523627812659,131072,108,-56,-1,-1,0
1523627812659,65536,108,-56,-1,-1,0
1523627812659,0,108,-56,-1,-1,0
1523627812659,0,108,-56,-1,-1,0
1523627812659,0,108,-56,-1,-1,0
1523627812699,0,108,-56,-1,-1,0
1523627812699,0,108,-56,-1,-1,0
1523627812699,0,108,-56,-1,-1,0
1523627812699,0,108,-56,-1,-1,0
1523627812699,0,108,-56,-1,-1,0
1523627812739,0,108,-56,-1,-1,0
1523627812739,0,108,-56,-1,-1,0
1523627812739,0,108,-56,-1,-1,0
1523627812739,-65536,108,-56,-1,-1,0
1523627812739,-65536,108,-56,-1,-1,0
1523627812779,-131072,108,-56,-1,-1,0
1523627812779,-262144,108,-56,-1,-1,0
1523627812779,-262144,108,-56,-1,-1,0
1523627812779,-327680,108,-56,-1,-1,0
1523627812779,-327680,108,-56,-1,-1,0
1523627812819,-327680,108,-56,-1,-1,0
1523627812819,-262144,108,-56,-1,-1,0
1523627812819,-262144,108,-56,-1,-1,0
1523627812819,-262144,108,-56,-1,-1,0
1523627812819,-327680,108,-56,-1,-1,0
1523627812859,-393216,108,-56,-1,-1,0
1523627812859,-393216,108,-56,-1,-1,0
1523627812859,-458752,108,-56,-1,-1,0
1523627812859,-458752,108,-56,-1,-1,0
1523627812859,-458752,108,-56,-1,-1,0
1523627812899,-524288,108,-56,-1,-1,0
1523627812899,-786432,108,-56,-1,-1,0
1523627812899,-983040,108,-56,-1,-1,0
1523627812899,-524288,108,-56,-1,-1,0
1523627812899,1245184,108,-56,-1,-1,0
1523627812942,3473408,108,-56,-1,-1,0
1523627812942,3604480,108,-56,-1,-1,0
1523627812942,1245184,108,-56,-1,-1,0
1523627812942,-1048576,108,-56,-1,-1,0
1523627812942,-1572864,108,-56,-1,-1,0
1523627812979,-1245184,108,-56,-1,-1,0
1523627812979,-917504,108,-56,-1,-1,0
1523627812979,-720896,108,-56,-1,-1,0
1523627812979,-655360,108,-56,-1,-1,0
1523627812979,-524288,108,-56,-1,-1,0
1523627813019,-524288,108,-56,-1,-1,0
1523627813019,-589824,108,-56,-1,-1,0
1523627813019,-589824,108,-56,-1,-1,0
1523627813019,-589824,108,-56,-1,-1,0
1523627813019,-524288,108,-56,-1,-1,0
1523627813059,-458752,108,-56,-1,-1,0
1523627813059,-262144,108,-56,-1,-1,0
1523627813059,-65536,108,-56,-1,-1,0
1523627813059,65536,108,-56,-1,-1,0
1523627813059,196608,108,-56,-1,-1,0
1523627813099,524288,108,-56,-1,-1,0
1523627813099,917504,108,-56,-1,-1,0
1523627813099,1310720,108,-56,-1,-1,0
1523627813099,1572864,108,-56,-1,-1,0
1523627813099,1769472,108,-56,-1,-1,0
1523627813139,1835008,108,-56,-1,-1,0
1523627813139,1703936,108,-56,-1,-1,0
1523627813139,1376256,108,-56,-1,-1,0
1523627813139,917504,108,-56,-1,-1,0
1523627813139,524288,108,-56,-1,-1,0
1523627813179,196608,108,-56,-1,-1,0
1523627813179,0,108,-56,-1,-1,0
1523627813179,-131072,108,-56,-1,-1,0
1523627813179,-327680,108,-56,-1,-1,0
1523627813179,-393216,108,-56,-1,-1,0
1523627813219,-458752,108,-56,-1,-1,0
1523627813219,-458752,108,-56,-1,-1,0
1523627813219,-524288,108,-56,-1,-1,0
1523627813219,-458752,108,-56,-1,-1,0
1523627813219,-458752,108,-56,-1,-1,0
1523627813259,-327680,108,-56,-1,-1,0
1523627813259,-327680,108,-56,-1,-1,0
1523627813259,-327680,108,-56,-1,-1,0
1523627813259,-327680,108,-56,-1,-1,0
1523627813259,-196608,108,-56,-1,-1,0
1523627813299,-131072,108,-56,-1,-1,0
1523627813299,-131072,108,-56,-1,-1,0
1523627813299,-131072,108,-56,-1,-1,0
1523627813299,-196608,108,-56,-1,-1,0
1523627813299,-262144,108,-56,-1,-1,0
1523627813339,-196608,108,-56,-1,-1,0
1523627813339,-131072,108,-56,-1,-1,0
1523627813339,-131072,108,-56,-1,-1,0
1523627813339,-262144,108,-56,-1,-1,0
1523627813339,-262144,108,-56,-1,-1,0
1523627813379,-196608,108,-56,-1,-1,0
1523627813379,-262144,108,-56,-1,-1,0
1523627813379,-262144,108,-56,-1,-1,0
1523627813379,-327680,108,-56,-1,-1,0
1523627813379,-327680,108,-56,-1,-1,0
1523627813419,-262144,108,-56,-1,-1,0
1523627813419,-458752,108,-56,-1,-1,0
1523627813419,-851968,108,-56,-1,-1,0
1523627813419,-851968,108,-56,-1,-1,0
1523627813419,327680,108,-56,-1,-1,0
1523627813459,2818048,108,-56,-1,-1,0
1523627813459,4521984,108,-56,-1,-1,0
1523627813459,3014656,108,-56,-1,-1,0
1523627813459,0,108,-56,-1,-1,0
1523627813459,-1572864,108,-56,-1,-1,0
1523627813499,-1441792,108,-56,-1,-1,0
1523627813499,-1048576,108,-56,-1,-1,0
1523627813499,-720896,108,-56,-1,-1,0
1523627813499,-589824,108,-56,-1,-1,0
1523627813499,-524288,108,-56,-1,-1,0
1523627813539,-458752,108,-56,-1,-1,0
1523627813539,-458752,108,-56,-1,-1,0
1523627813539,-393216,108,-56,-1,-1,0
1523627813539,-393216,108,-56,-1,-1,0
1523627813539,-327680,108,-56,-1,-1,0
1523627813581,-262144,108,-56,-1,-1,0
1523627813581,-196608,108,-56,-1,-1,0
1523627813581,-131072,108,-56,-1,-1,0
1523627813581,0,108,-56,-1,-1,0
1523627813581,196608,108,-56,-1,-1,0
1523627813619,524288,108,-56,-1,-1,0
1523627813619,851968,108,-56,-1,-1,0
1523627813619,1179648,108,-56,-1,-1,0
1523627813619,1507328,108,-56,-1,-1,0
1523627813619,1769472,108,-56,-1,-1,0
1523627813659,1900544,108,-56,-1,-1,0
1523627813659,1835008,108,-56,-1,-1,0
1523627813659,1572864,108,-56,-1,-1,0
1523627813659,1048576,108,-56,-1,-1,0
1523627813659,589824,108,-56,-1,-1,0
1523627813699,196608,108,-56,-1,-1,0
1523627813699,-65536,108,-56,-1,-1,0
1523627813699,-262144,108,-56,-1,-1,0
1523627813699,-327680,108,-56,-1,-1,0
1523627813699,-393216,108,-56,-1,-1,0
1523627813739,-458752,108,-56,-1,-1,0
1523627813739,-458752,108,-56,-1,-1,0
1523627813739,-524288,108,-56,-1,-1,0
1523627813739,-524288,108,-56,-1,-1,0
1523627813739,-524288,108,-56,-1,-1,0
1523627813779,-524288,109,-56,-1,-1,0
1523627813779,-458752,109,-56,-1,-1,0
1523627813779,-327680,109,-56,-1,-1,0
1523627813779,-327680,109,-56,-1,-1,0
1523627813779,-262144,109,-56,-1,-1,0
1523627813819,-262144,109,-56,-1,-1,0
1523627813819,-262144,109,-56,-1,-1,0
1523627813819,-262144,109,-56,-1,-1,0
1523627813819,-262144,109,-56,-1,-1,0
1523627813819,-262144,109,-56,-1,-1,0
1523627813859,-262144,109,-56,-1,-1,0
1523627813859,-262144,109,-56,-1,-1,0
1523627813859,-327680,109,-56,-1,-1,0
1523627813859,-327680,109,-56,-1,-1,0
1523627813859,-327680,109,-56,-1,-1,0
1523627813899,-327680,109,-56,-1,-1,0
1523627813899,-393216,109,-56,-1,-1,0
1523627813899,-458752,109,-56,-1,-1,0
1523627813899,-458752,109,-56,-1,-1,0
1523627813899,-458752,109,-56,-1,-1,0
1523627813939,-458752,109,-56,-1,-1,0
1523627813939,-458752,109,-56,-1,-1,0
1523627813939,-458752,109,-56,-1,-1,0
1523627813939,-786432,109,-56,-1,-1,0
1523627813939,-1114112,109,-56,-1,-1,0
1523627813979,-524288,109,-56,-1,-1,0
1523627813979,1703936,109,-56,-1,-1,0
1523627813979,4718592,109,-56,-1,-1,0
1523627813979,4849664,109,-56,-1,-1,0
1523627813979,1966080,109,-56,-1,-1,0
1523627814019,-720896,109,-56,-1,-1,0
1523627814019,-1310720,109,-56,-1,-1,0
1523627814019,-983040,109,-56,-1,-1,0
1523627814019,-720896,109,-56,-1,-1,0
1523627814019,-589824,109,-56,-1,-1,0
1523627814059,-524288,109,-56,-1,-1,0
1523627814059,-458752,109,-56,-1,-1,0
1523627814059,-458752,109,-56,-1,-1,0
1523627814059,-458752,109,-56,-1,-1,0
1523627814059,-393216,109,-56,-1,-1,0
1523627814099,-327680,109,-56,-1,-1,0
1523627814099,-327680,109,-56,-1,-1,0
1523627814099,-327680,109,-56,-1,-1,0
1523627814099,-131072,109,-56,-1,-1,0
1523627814099,0,109,-56,-1,-1,0
1523627814139,65536,109,-56,-1,-1,0
1523627814139,327680,109,-56,-1,-1,0
1523627814139,655360,109,-56,-1,-1,0
1523627814139,983040,109,-56,-1,-1,0
1523627814139,1376256,109,-56,-1,-1,0
1523627814179,1703936,109,-56,-1,-1,0
1523627814179,1900544,109,-56,-1,-1,0
1523627814179,1900544,109,-56,-1,-1,0
1523627814179,1769472,109,-56,-1,-1,0
1523627814179,1441792,109,-56,-1,-1,0
1523627814221,1048576,109,-56,-1,-1,0
1523627814221,589824,109,-56,-1,-1,0
1523627814221,196608,109,-56,-1,-1,0
1523627814221,0,109,-56,-1,-1,0
1523627814221,-131072,109,-56,-1,-1,0
1523627814259,-262144,109,-56,-1,-1,0
1523627814259,-327680,109,-56,-1,-1,0
1523627814259,-393216,109,-56,-1,-1,0
1523627814259,-393216,109,-56,-1,-1,0
1523627814259,-327680,109,-56,-1,-1,0
1523627814299,-327680,109,-56,-1,-1,0
1523627814299,-458752,109,-56,-1,-1,0
1523627814299,-458752,109,-56,-1,-1,0
1523627814299,-458752,109,-56,-1,-1,0
1523627814299,-393216,109,-56,-1,-1,0
1523627814339,-393216,109,-56,-1,-1,0
1523627814339,-327680,109,-56,-1,-1,0
1523627814339,-262144,109,-56,-1,-1,0
1523627814339,-262144,109,-56,-1,-1,0
1523627814339,-262144,109,-56,-1,-1,0
1523627814379,-262144,109,-56,-1,-1,0
1523627814379,-327680,109,-56,-1,-1,0
1523627814379,-327680,109,-56,-1,-1,0
1523627814379,-327680,109,-56,-1,-1,0
1523627814379,-327680,109,-56,-1,-1,0
1523627814419,-262144,109,-56,-1,-1,0
1523627814419,-327680,109,-56,-1,-1,0
1523627814419,-393216,109,-56,-1,-1,0
1523627814419,-393216,109,-56,-1,-1,0
1523627814419,-458752,109,-56,-1,-1,0
1523627814459,-458752,109,-56,-1,-1,0
1523627814459,-524288,109,-56,-1,-1,0
1523627814459,-524288,109,-56,-1,-1,0
1523627814459,-589824,109,-56,-1,-1,0
1523627814459,-917504,109,-56,-1,-1,0
1523627814499,-1310720,109,-56,-1,-1,0
1523627814499,-851968,109,-56,-1,-1,0
1523627814499,1376256,109,-56,-1,-1,0
1523627814499,4587520,109,-56,-1,-1,0
1523627814499,5242880,109,-56,-1,-1,0
1523627814539,2490368,109,-56,-1,-1,0
1523627814539,-589824,109,-56,-1,-1,0
1523627814539,-1376256,109,-56,-1,-1,0
1523627814539,-1179648,109,-56,-1,-1,0
1523627814539,-917504,109,-56,-1,-1,0
1523627814579,-851968,109,-56,-1,-1,0
1523627814579,-851968,109,-56,-1,-1,0
1523627814579,-851968,109,-56,-1,-1,0
1523627814579,-851968,109,-56,-1,-1,0
1523627814579,-786432,109,-56,-1,-1,0
1523627814619,-786432,109,-56,-1,-1,0
1523627814619,-786432,109,-56,-1,-1,0
1523627814619,-720896,109,-56,-1,-1,0
1523627814619,-655360,109,-56,-1,-1,0
1523627814619,-589824,109,-56,-1,-1,0
1523627814659,-458752,109,-56,-1,-1,0
1523627814659,-262144,109,-56,-1,-1,0
1523627814659,-131072,109,-56,-1,-1,0
1523627814659,0,109,-56,-1,-1,0
1523627814659,393216,109,-56,-1,-1,0
1523627814699,655360,109,-56,-1,-1,0
1523627814699,917504,109,-56,-1,-1,0
1523627814699,1114112,109,-56,-1,-1,0
1523627814699,1179648,109,-56,-1,-1,0
1523627814699,1048576,109,-56,-1,-1,0
1523627814739,917504,109,-56,-1,-1,0
1523627814739,589824,109,-56,-1,-1,0
1523627814739,131072,109,-56,-1,-1,0
1523627814739,-393216,109,-56,-1,-1,0
1523627814739,-786432,109,-56,-1,-1,0
1523627814779,-983040,109,-56,-1,-1,0
1523627814779,-983040,109,-56,-1,-1,0
1523627814779,-917504,109,-56,-1,-1,0
1523627814779,-983040,109,-56,-1,-1,0
1523627814779,-851968,109,-56,-1,-1,0
1523627814819,-589824,109,-56,-1,-1,0
1523627814819,-458752,109,-56,-1,-1,0
1523627814819,-786432,109,-56,-1,-1,0
1523627814819,-1179648,109,-56,-1,-1,0
1523627814819,-1376256,109,-56,-1,-1,0
1523627814860,-1114112,109,-56,-1,-1,0
1523627814860,-1114112,109,-56,-1,-1,0
1523627814860,-1179648,109,-56,-1,-1,0
1523627814860,-1179648,109,-56,-1,-1,0
1523627814860,-851968,109,-56,-1,-1,0
1523627814899,-655360,109,-56,-1,-1,0
1523627814899,-458752,109,-56,-1,-1,0
1523627814899,-327680,109,-56,-1,-1,0
1523627814899,-458752,109,-56,-1,-1,0
1523627814899,-655360,109,-56,-1,-1,0
1523627814939,-327680,109,-56,-1,-1,0
1523627814939,-196608,109,-56,-1,-1,0
1523627814939,-196608,109,-56,-1,-1,0
1523627814939,0,109,-56,-1,-1,0
1523627814939,196608,109,-56,-1,-1,0
1523627814979,196608,109,-56,-1,-1,0
1523627814979,131072,109,-56,-1,-1,0
1523627814979,131072,109,-56,-1,-1,0
1523627814979,65536,109,-56,-1,-1,0
1523627814979,131072,109,-56,-1,-1,0
1523627815019,196608,109,-56,-1,-1,0
1523627815019,196608,109,-56,-1,-1,0
1523627815019,0,109,-56,-1,-1,0
1523627815019,-393216,109,-56,-1,-1,0
1523627815019,-131072,109,-56,-1,-1,0
1523627815059,1703936,109,-56,-1,-1,0
1523627815059,4718592,109,-56,-1,-1,0
1523627815059,5832704,109,-56,-1,-1,0
1523627815059,3801088,109,-56,-1,-1,0
1523627815059,983040,109,-56,-1,-1,0
1523627815099,0,109,-56,-1,-1,0
1523627815099,0,109,-56,-1,-1,0
1523627815099,131072,109,-56,-1,-1,0
1523627815099,196608,109,-56,-1,-1,0
1523627815099,262144,109,-56,-1,-1,0
1523627815139,262144,109,-56,-1,-1,0
1523627815139,327680,109,-56,-1,-1,0
1523627815139,327680,109,-56,-1,-1,0
1523627815139,393216,109,-56,-1,-1,0
1523627815139,458752,109,-56,-1,-1,0
1523627815179,458752,109,-56,-1,-1,0
1523627815179,458752,109,-56,-1,-1,0
1523627815179,458752,109,-56,-1,-1,0
1523627815179,589824,109,-56,-1,-1,0
1523627815179,720896,109,-56,-1,-1,0
1523627815220,851968,109,-56,-1,-1,0
1523627815220,1048576,109,-56,-1,-1,0
1523627815220,1310720,109,-56,-1,-1,0
1523627815220,1638400,109,-56,-1,-1,0
1523627815220,1900544,109,-56,-1,-1,0
1523627815259,2097152,109,-56,-1,-1,0
1523627815259,2228224,109,-56,-1,-1,0
1523627815259,2097152,109,-56,-1,-1,0
1523627815259,1769472,109,-56,-1,-1,0
1523627815259,1310720,109,-56,-1,-1,0
1523627815299,917504,109,-56,-1,-1,0
1523627815299,524288,109,-56,-1,-1,0
1523627815299,262144,109,-56,-1,-1,0
1523627815299,65536,109,-56,-1,-1,0
1523627815299,0,109,-56,-1,-1,0
1523627815339,-65536,109,-56,-1,-1,0
1523627815339,-131072,109,-56,-1,-1,0
1523627815339,-131072,109,-56,-1,-1,0
1523627815339,-196608,109,-56,-1,-1,0
1523627815339,-262144,109,-56,-1,-1,0
1523627815379,-327680,109,-56,-1,-1,0
1523627815379,-393216,109,-56,-1,-1,0
1523627815379,-393216,109,-56,-1,-1,0
1523627815379,-393216,109,-56,-1,-1,0
1523627815379,-393216,109,-56,-1,-1,0
1523627815419,-393216,109,-56,-1,-1,0
1523627815419,-327680,109,-56,-1,-1,0
1523627815419,-327680,109,-56,-1,-1,0
1523627815419,-327680,109,-56,-1,-1,0
1523627815419,-458752,109,-56,-1,-1,0
1523627815459,-458752,109,-56,-1,-1,0
1523627815459,-458752,109,-56,-1,-1,0
1523627815459,-524288,109,-56,-1,-1,0
1523627815459,-524288,109,-56,-1,-1,0
1523627815459,-524288,109,-56,-1,-1,0
1523627815500,-589824,109,-56,-1,-1,0
1523627815500,-589824,109,-56,-1,-1,0
1523627815500,-589824,109,-56,-1,-1,0
1523627815500,-589824,109,-56,-1,-1,0
1523627815500,-589824,109,-56,-1,-1,0
1523627815539,-589824,109,-56,-1,-1,0
1523627815539,-589824,109,-56,-1,-1,0
1523627815539,-589824,109,-56,-1,-1,0
1523627815539,-655360,109,-56,-1,-1,0
1523627815539,-786432,109,-56,-1,-1,0
1523627815579,-1048576,109,-56,-1,-1,0
1523627815579,-1245184,109,-56,-1,-1,0
1523627815579,-786432,109,-56,-1,-1,0
1523627815579,917504,109,-56,-1,-1,0
1523627815579,3407872,109,-56,-1,-1,0
1523627815619,3866624,109,-56,-1,-1,0
1523627815619,1572864,109,-56,-1,-1,0
1523627815619,-983040,109,-56,-1,-1,0
1523627815619,-1638400,109,-56,-1,-1,0
1523627815619,-1376256,109,-56,-1,-1,0
1523627815659,-1048576,109,-56,-1,-1,0
1523627815659,-851968,109,-56,-1,-1,0
1523627815659,-786432,109,-56,-1,-1,0
1523627815659,-720896,109,-56,-1,-1,0
1523627815659,-720896,109,-56,-1,-1,0
1523627815699,-720896,109,-56,-1,-1,0
1523627815699,-655360,109,-56,-1,-1,0
1523627815699,-589824,109,-56,-1,-1,0
1523627815699,-524288,109,-56,-1,-1,0
1523627815699,-458752,109,-56,-1,-1,0
1523627815739,-327680,109,-56,-1,-1,0
1523627815739,-196608,109,-56,-1,-1,0
1523627815739,0,109,-56,-1,-1,0
1523627815739,131072,109,-56,-1,-1,0
1523627815739,458752,109,-56,-1,-1,0
1523627815779,851968,109,-56,-1,-1,0
1523627815779,1245184,109,-56,-1,-1,0
1523627815779,1507328,109,-56,-1,-1,0
1523627815779,1769472,109,-56,-1,-1,0
1523627815779,1900544,109,-56,-1,-1,0
1523627815819,1835008,109,-56,-1,-1,0
1523627815819,1572864,109,-56,-1,-1,0
1523627815819,1114112,109,-56,-1,-1,0
1523627815819,655360,109,-56,-1,-1,0
1523627815819,262144,109,-56,-1,-1,0
1523627815859,0,109,-56,-1,-1,0
1523627815859,-131072,109,-56,-1,-1,0
1523627815859,-196608,109,-56,-1,-1,0
1523627815859,-262144,109,-56,-1,-1,0
1523627815859,-327680,109,-56,-1,-1,0
1523627815899,-393216,109,-56,-1,-1,0
1523627815899,-393216,109,-56,-1,-1,0
1523627815899,-458752,109,-56,-1,-1,0
1523627815899,-327680,109,-56,-1,-1,0
1523627815899,-262144,109,-56,-1,-1,0
1523627815939,-262144,110,-56,-1,-1,0
1523627815939,-262144,110,-56,-1,-1,0
1523627815939,-196608,110,-56,-1,-1,0
1523627815939,-131072,110,-56,-1,-1,0
1523627815939,-65536,110,-56,-1,-1,0
1523627815979,-65536,110,-56,-1,-1,0
1523627815979,-131072,110,-56,-1,-1,0
1523627815979,-131072,110,-56,-1,-1,0
1523627815979,-131072,110,-56,-1,-1,0
1523627815979,-131072,110,-56,-1,-1,0
1523627816019,-131072,110,-56,-1,-1,0
1523627816019,-131072,110,-56,-1,-1,0
1523627816019,-131072,110,-56,-1,-1,0
1523627816019,-131072,110,-56,-1,-1,0
1523627816019,-65536,110,-56,-1,-1,0
1523627816059,-131072,110,-56,-1,-1,0
1523627816059,-131072,110,-56,-1,-1,0
1523627816059,-196608,110,-56,-1,-1,0
1523627816059,-262144,110,-56,-1,-1,0
1523627816059,-262144,110,-56,-1,-1,0
1523627816099,-196608,110,-56,-1,-1,0
1523627816099,-262144,110,-56,-1,-1,0
1523627816099,-655360,110,-56,-1,-1,0
1523627816099,-720896,110,-56,-1,-1,0
1523627816099,196608,110,-56,-1,-1,0
1523627816140,2686976,110,-56,-1,-1,0
1523627816140,4849664,110,-56,-1,-1,0
1523627816140,3932160,110,-56,-1,-1,0
1523627816140,851968,110,-56,-1,-1,0
1523627816140,-1179648,110,-56,-1,-1,0
1523627816179,-1245184,110,-56,-1,-1,0
1523627816179,-786432,110,-56,-1,-1,0
1523627816179,-458752,110,-56,-1,-1,0
1523627816179,-196608,110,-56,-1,-1,0
1523627816179,-131072,110,-56,-1,-1,0
1523627816219,-131072,110,-56,-1,-1,0
1523627816219,-131072,110,-56,-1,-1,0
1523627816219,-65536,110,-56,-1,-1,0
1523627816219,-65536,110,-56,-1,-1,0
1523627816219,0,110,-56,-1,-1,0
1523627816259,0,110,-56,-1,-1,0
1523627816259,131072,110,-56,-1,-1,0
1523627816259,196608,110,-56,-1,-1,0
1523627816259,393216,110,-56,-1,-1,0
1523627816259,589824,110,-56,-1,-1,0
1523627816299,851968,110,-56,-1,-1,0
1523627816299,1179648,110,-56,-1,-1,0
1523627816299,1572864,110,-56,-1,-1,0
1523627816299,2031616,110,-56,-1,-1,0
1523627816299,2359296,110,-56,-1,-1,0
1523627816339,2490368,110,-56,-1,-1,0
1523627816339,2424832,110,-56,-1,-1,0
1523627816339,2162688,110,-56,-1,-1,0
1523627816339,1769472,110,-56,-1,-1,0
1523627816339,1310720,110,-56,-1,-1,0
1523627816379,851968,110,-56,-1,-1,0
1523627816379,524288,110,-56,-1,-1,0
1523627816379,327680,110,-56,-1,-1,0
1523627816379,131072,110,-56,-1,-1,0
1523627816379,0,110,-56,-1,-1,0
1523627816419,0,110,-56,-1,-1,0
1523627816419,0,110,-56,-1,-1,0
1523627816419,-65536,110,-56,-1,-1,0
1523627816419,-131072,110,-56,-1,-1,0
1523627816419,-131072,110,-56,-1,-1,0
1523627816459,-65536,110,-56,-1,-1,0
1523627816459,-65536,110,-56,-1,-1,0
1523627816459,0,110,-56,-1,-1,0
1523627816459,0,110,-56,-1,-1,0
1523627816459,0,110,-56,-1,-1,0
1523627816499,0,110,-56,-1,-1,0
1523627816499,0,110,-56,-1,-1,0
1523627816499,65536,110,-56,-1,-1,0
1523627816499,65536,110,-56,-1,-1,0
1523627816499,0,110,-56,-1,-1,0
1523627816539,0,110,-56,-1,-1,0
1523627816539,0,110,-56,-1,-1,0
1523627816539,-65536,110,-56,-1,-1,0
1523627816539,-131072,110,-56,-1,-1,0
1523627816539,-196608,110,-56,-1,-1,0
1523627816579,-131072,110,-56,-1,-1,0
1523627816579,-65536,110,-56,-1,-1,0
1523627816579,-65536,110,-56,-1,-1,0
1523627816579,-131072,110,-56,-1,-1,0
1523627816579,-196608,110,-56,-1,-1,0
1523627816620,-196608,110,-56,-1,-1,0
1523627816620,-262144,110,-56,-1,-1,0
1523627816620,-327680,110,-56,-1,-1,0
1523627816620,-327680,110,-56,-1,-1,0
1523627816620,-458752,110,-56,-1,-1,0
1523627816659,-851968,110,-56,-1,-1,0
1523627816659,-983040,110,-56,-1,-1,0
1523627816659,65536,110,-56,-1,-1,0
1523627816659,2752512,110,-56,-1,-1,0
1523627816659,5111808,110,-56,-1,-1,0
1523627816699,3932160,110,-56,-1,-1,0
1523627816699,720896,110,-56,-1,-1,0
1523627816699,-1245184,110,-56,-1,-1,0
1523627816699,-1310720,110,-56,-1,-1,0
1523627816699,-917504,110,-56,-1,-1,0
1523627816740,-720896,110,-56,-1,-1,0
1523627816740,-655360,110,-56,-1,-1,0
1523627816740,-655360,110,-56,-1,-1,0
1523627816740,-589824,110,-56,-1,-1,0
1523627816740,-589824,110,-56,-1,-1,0
1523627816780,-524288,110,-56,-1,-1,0
1523627816780,-589824,110,-56,-1,-1,0
1523627816780,-524288,110,-56,-1,-1,0
1523627816780,-458752,110,-56,-1,-1,0
1523627816780,-327680,110,-56,-1,-1,0
1523627816819,-262144,110,-56,-1,-1,0
1523627816819,-196608,110,-56,-1,-1,0
1523627816819,0,110,-56,-1,-1,0
1523627816819,131072,110,-56,-1,-1,0
1523627816819,393216,110,-56,-1,-1,0
1523627816859,851968,110,-56,-1,-1,0
1523627816859,1245184,110,-56,-1,-1,0
1523627816859,1507328,110,-56,-1,-1,0
1523627816859,1703936,110,-56,-1,-1,0
1523627816859,1703936,110,-56,-1,-1,0
1523627816900,1441792,110,-56,-1,-1,0
1523627816900,1048576,110,-56,-1,-1,0
1523627816900,589824,110,-56,-1,-1,0
1523627816900,196608,110,-56,-1,-1,0
1523627816900,-131072,110,-56,-1,-1,0
1523627816939,-327680,110,-56,-1,-1,0
1523627816939,-458752,110,-56,-1,-1,0
1523627816939,-589824,110,-56,-1,-1,0
1523627816939,-655360,110,-56,-1,-1,0
1523627816939,-720896,110,-56,-1,-1,0
1523627816979,-786432,110,-56,-1,-1,0
1523627816979,-851968,110,-56,-1,-1,0
1523627816979,-851968,110,-56,-1,-1,0
1523627816979,-786432,110,-56,-1,-1,0
1523627816979,-851968,110,-56,-1,-1,0
1523627817019,-786432,110,-56,-1,-1,0
1523627817019,-786432,110,-56,-1,-1,0
1523627817019,-720896,110,-56,-1,-1,0
1523627817019,-720896,110,-56,-1,-1,0
1523627817019,-655360,110,-56,-1,-1,0
1523627817059,-589824,110,-56,-1,-1,0
1523627817059,-589824,110,-56,-1,-1,0
1523627817059,-589824,110,-56,-1,-1,0
1523627817059,-589824,110,-56,-1,-1,0
1523627817059,-655360,110,-56,-1,-1,0
1523627817099,-720896,110,-56,-1,-1,0
1523627817099,-720896,110,-56,-1,-1,0
1523627817099,-786432,110,-56,-1,-1,0
1523627817099,-851968,110,-56,-1,-1,0
1523627817099,-851968,110,-56,-1,-1,0
1523627817139,-851968,110,-56,-1,-1,0
1523627817139,-786432,110,-56,-1,-1,0
1523627817139,-786432,110,-56,-1,-1,0
1523627817139,-786432,110,-56,-1,-1,0
1523627817139,-786432,110,-56,-1,-1,0
1523627817179,-851968,110,-56,-1,-1,0
1523627817179,-917504,110,-56,-1,-1,0
1523627817179,-917504,110,-56,-1,-1,0
1523627817179,-917504,110,-56,-1,-1,0
1523627817179,-1114112,110,-56,-1,-1,0
1523627817219,-1507328,110,-56,-1,-1,0
1523627817219,-1572864,110,-56,-1,-1,0
1523627817219,-262144,110,-56,-1,-1,0
1523627817219,2686976,110,-56,-1,-1,0
1523627817219,5046272,110,-56,-1,-1,0
1523627817259,3670016,110,-56,-1,-1,0
1523627817259,262144,110,-56,-1,-1,0
1523627817259,-1638400,110,-56,-1,-1,0
1523627817259,-1638400,110,-56,-1,-1,0
1523627817259,-1310720,110,-56,-1,-1,0
1523627817299,-1114112,110,-56,-1,-1,0
1523627817299,-917504,110,-56,-1,-1,0
1523627817299,-917504,110,-56,-1,-1,0
1523627817299,-851968,110,-56,-1,-1,0
1523627817299,-851968,110,-56,-1,-1,0
1523627817339,-851968,110,-56,-1,-1,0
1523627817339,-851968,110,-56,-1,-1,0
1523627817339,-786432,110,-56,-1,-1,0
1523627817339,-720896,110,-56,-1,-1,0
1523627817339,-589824,110,-56,-1,-1,0
1523627817379,-524288,110,-56,-1,-1,0
1523627817379,-327680,110,-56,-1,-1,0
1523627817379,-196608,110,-56,-1,-1,0
1523627817379,0,110,-56,-1,-1,0
1523627817379,262144,110,-56,-1,-1,0
1523627817420,655360,110,-56,-1,-1,0
1523627817420,1048576,110,-56,-1,-1,0
1523627817420,1441792,110,-56,-1,-1,0
1523627817420,1572864,110,-56,-1,-1,0
1523627817420,1507328,110,-56,-1,-1,0
1523627817459,1245184,110,-56,-1,-1,0
1523627817459,851968,110,-56,-1,-1,0
1523627817459,458752,110,-56,-1,-1,0
1523627817459,131072,110,-56,-1,-1,0
1523627817459,-131072,110,-56,-1,-1,0
1523627817499,-393216,110,-56,-1,-1,0
1523627817499,-524288,110,-56,-1,-1,0
1523627817499,-589824,110,-56,-1,-1,0
1523627817499,-655360,110,-56,-1,-1,0
1523627817499,-655360,110,-56,-1,-1,0
1523627817539,-720896,110,-56,-1,-1,0
1523627817539,-720896,110,-56,-1,-1,0
1523627817539,-655360,110,-56,-1,-1,0
1523627817539,-655360,110,-56,-1,-1,0
1523627817539,-720896,110,-56,-1,-1,0
1523627817579,-655360,110,-56,-1,-1,0
1523627817579,-589824,110,-56,-1,-1,0
1523627817579,-589824,110,-56,-1,-1,0
1523627817579,-524288,110,-56,-1,-1,0
1523627817579,-458752,110,-56,-1,-1,0
1523627817619,-393216,110,-56,-1,-1,0
1523627817619,-393216,110,-56,-1,-1,0
1523627817619,-393216,110,-56,-1,-1,0
1523627817619,-327680,110,-56,-1,-1,0
1523627817619,-393216,110,-56,-1,-1,0
1523627817659,-393216,110,-56,-1,-1,0
1523627817659,-393216,110,-56,-1,-1,0
1523627817659,-393216,110,-56,-1,-1,0
1523627817659,-458752,110,-56,-1,-1,0
1523627817659,-524288,110,-56,-1,-1,0
1523627817699,-589824,110,-56,-1,-1,0
1523627817699,-524288,110,-56,-1,-1,0
1523627817699,-524288,110,-56,-1,-1,0
1523627817699,-524288,110,-56,-1,-1,0
1523627817699,-458752,110,-56,-1,-1,0
1523627817739,-458752,110,-56,-1,-1,0
1523627817739,-393216,110,-56,-1,-1,0
1523627817739,-458752,110,-56,-1,-1,0
1523627817739,-524288,110,-56,-1,-1,0
1523627817739,-589824,110,-56,-1,-1,0
1523627817779,-589824,110,-56,-1,-1,0
1523627817779,-524288,110,-56,-1,-1,0
1523627817779,-589824,110,-56,-1,-1,0
1523627817779,-1048576,110,-56,-1,-1,0
1523627817779,-1376256,110,-56,-1,-1,0
1523627817819,-524288,110,-56,-1,-1,0
1523627817819,2031616,110,-56,-1,-1,0
1523627817819,4718592,110,-56,-1,-1,0
1523627817819,4325376,110,-56,-1,-1,0
1523627817819,1245184,110,-56,-1,-1,0
1523627817859,-1048576,110,-56,-1,-1,0
1523627817859,-1376256,110,-56,-1,-1,0
1523627817859,-1114112,110,-56,-1,-1,0
1523627817859,-983040,110,-56,-1,-1,0
1523627817859,-851968,110,-56,-1,-1,0
1523627817899,-851968,110,-56,-1,-1,0
1523627817899,-786432,110,-56,-1,-1,0
1523627817899,-851968,110,-56,-1,-1,0
1523627817899,-851968,110,-56,-1,-1,0
1523627817899,-786432,110,-56,-1,-1,0
1523627817939,-786432,110,-56,-1,-1,0
1523627817939,-720896,110,-56,-1,-1,0
1523627817939,-720896,110,-56,-1,-1,0
1523627817939,-720896,110,-56,-1,-1,0
1523627817939,-589824,110,-56,-1,-1,0
1523627817979,-393216,110,-56,-1,-1,0
1523627817979,-196608,110,-56,-1,-1,0
1523627817979,0,110,-56,-1,-1,0
1523627817979,327680,110,-56,-1,-1,0
1523627817979,655360,110,-56,-1,-1,0
1523627818019,983040,110,-56,-1,-1,0
1523627818019,1179648,110,-56,-1,-1,0
1523627818019,1310720,110,-56,-1,-1,0
1523627818019,1245184,110,-56,-1,-1,0
1523627818019,917504,110,-56,-1,-1,0
1523627818061,458752,110,-56,-1,-1,0
1523627818061,0,110,-56,-1,-1,0
1523627818061,-327680,110,-56,-1,-1,0
1523627818061,-655360,110,-56,-1,-1,0
1523627818061,-851968,110,-56,-1,-1,0
1523627818099,-983040,110,-56,-1,-1,0
1523627818099,-1048576,110,-56,-1,-1,0
1523627818099,-1114112,110,-56,-1,-1,0
1523627818099,-1179648,110,-56,-1,-1,0
1523627818099,-1245184,110,-56,-1,-1,0
1523627818139,-1245184,110,-56,-1,-1,0
1523627818139,-1245184,110,-56,-1,-1,0
1523627818139,-1310720,110,-56,-1,-1,0
1523627818139,-1376256,110,-56,-1,-1,0
1523627818139,-1376256,110,-56,-1,-1,0
1523627818179,-1376256,110,-56,-1,-1,0
1523627818179,-1245184,110,-56,-1,-1,0
1523627818179,-1179648,110,-56,-1,-1,0
1523627818179,-1179648,110,-56,-1,-1,0
1523627818179,-1179648,110,-56,-1,-1,0
1523627818219,-1245184,110,-56,-1,-1,0
1523627818219,-1179648,110,-56,-1,-1,0
1523627818219,-1179648,110,-56,-1,-1,0
1523627818219,-1245184,110,-56,-1,-1,0
1523627818219,-1310720,110,-56,-1,-1,0
1523627818259,-1376256,110,-56,-1,-1,0
1523627818259,-1376256,110,-56,-1,-1,0
1523627818259,-1441792,110,-56,-1,-1,0
1523627818259,-1507328,110,-56,-1,-1,0
1523627818259,-1572864,110,-56,-1,-1,0
1523627818299,-1638400,110,-56,-1,-1,0
1523627818299,-1769472,110,-56,-1,-1,0
1523627818299,-1835008,110,-56,-1,-1,0
1523627818299,-1638400,110,-56,-1,-1,0
1523627818299,-1507328,110,-56,-1,-1,0
1523627818339,-1507328,110,-56,-1,-1,0
1523627818339,-1703936,110,-56,-1,-1,0
1523627818339,-1900544,110,-56,-1,-1,0
1523627818339,-1835008,110,-56,-1,-1,0
1523627818339,-1769472,110,-56,-1,-1,0
1523627818379,-1769472,110,-56,-1,-1,0
1523627818379,-1835008,110,-56,-1,-1,0
1523627818379,-2097152,110,-56,-1,-1,0
1523627818379,-2490368,110,-56,-1,-1,0
1523627818379,-2162688,110,-56,-1,-1,0
1523627818419,-131072,110,-56,-1,-1,0
1523627818419,2949120,110,-56,-1,-1,0
1523627818419,4194304,110,-56,-1,-1,0
1523627818419,1900544,110,-56,-1,-1,0
1523627818419,-1179648,110,-56,-1,-1,0
1523627818459,-2162688,110,-56,-1,-1,0
1523627818459,-1900544,110,-56,-1,-1,0
1523627818459,-1769472,110,-56,-1,-1,0
1523627818459,-1703936,110,-56,-1,-1,0
1523627818459,-1245184,110,-56,-1,-1,0
1523627818499,-917504,110,-56,-1,-1,0
1523627818499,-1048576,110,-56,-1,-1,0
1523627818499,-1441792,110,-56,-1,-1,0
1523627818499,-1900544,110,-56,-1,-1,0
1523627818499,-1900544,110,-56,-1,-1,0
1523627818539,-1572864,110,-56,-1,-1,0
1523627818539,-1048576,110,-56,-1,-1,0
1523627818539,-851968,110,-56,-1,-1,0
1523627818539,-655360,110,-56,-1,-1,0
1523627818539,-393216,110,-56,-1,-1,0
1523627818579,-131072,110,-56,-1,-1,0
1523627818579,131072,110,-56,-1,-1,0
1523627818579,524288,110,-56,-1,-1,0
1523627818579,851968,110,-56,-1,-1,0
1523627818579,1310720,110,-56,-1,-1,0
1523627818619,1638400,110,-56,-1,-1,0
1523627818619,1900544,110,-56,-1,-1,0
1523627818619,1900544,110,-56,-1,-1,0
1523627818619,1703936,110,-56,-1,-1,0
1523627818619,1376256,110,-56,-1,-1,0
1523627818659,983040,110,-56,-1,-1,0
1523627818659,589824,110,-56,-1,-1,0
1523627818659,327680,110,-56,-1,-1,0
1523627818659,131072,110,-56,-1,-1,0
1523627818659,0,110,-56,-1,-1,0
1523627818701,-131072,110,-56,-1,-1,0
1523627818701,-196608,110,-56,-1,-1,0
1523627818701,-65536,110,-56,-1,-1,0
1523627818701,131072,110,-56,-1,-1,0
1523627818701,196608,110,-56,-1,-1,0
1523627818739,0,110,-56,-1,-1,0
1523627818739,-131072,110,-56,-1,-1,0
1523627818739,-131072,110,-56,-1,-1,0
1523627818739,65536,110,-56,-1,-1,0
1523627818739,262144,110,-56,-1,-1,0
1523627818779,131072,110,-56,-1,-1,0
1523627818779,-65536,110,-56,-1,-1,0
1523627818779,65536,110,-56,-1,-1,0
1523627818779,327680,110,-56,-1,-1,0
1523627818779,458752,110,-56,-1,-1,0
1523627818819,327680,110,-56,-1,-1,0
1523627818819,327680,110,-56,-1,-1,0
1523627818819,327680,110,-56,-1,-1,0
1523627818819,393216,110,-56,-1,-1,0
1523627818819,458752,110,-56,-1,-1,0
1523627818859,524288,110,-56,-1,-1,0
1523627818859,458752,110,-56,-1,-1,0
1523627818859,458752,110,-56,-1,-1,0
1523627818859,458752,110,-56,-1,-1,0
1523627818859,524288,110,-56,-1,-1,0
1523627818899,524288,110,-56,-1,-1,0
1523627818899,458752,110,-56,-1,-1,0
1523627818899,393216,110,-56,-1,-1,0
1523627818899,327680,110,-56,-1,-1,0
1523627818899,327680,110,-56,-1,-1,0
1523627818939,327680,110,-56,-1,-1,0
1523627818939,327680,110,-56,-1,-1,0
1523627818939,393216,110,-56,-1,-1,0
1523627818939,327680,110,-56,-1,-1,0
1523627818939,327680,110,-56,-1,-1,0
1523627818979,196608,110,-56,-1,-1,0
1523627818979,0,110,-56,-1,-1,0
1523627818979,0,110,-56,-1,-1,0
1523627818979,-131072,110,-56,-1,-1,0
1523627818979,-131072,110,-56,-1,-1,0
1523627819019,-393216,110,-56,-1,-1,0
1523627819019,-720896,110,-56,-1,-1,0
1523627819019,-655360,110,-56,-1,-1,0
1523627819019,393216,110,-56,-1,-1,0
1523627819019,2752512,110,-56,-1,-1,0
1523627819059,4325376,110,-56,-1,-1,0
1523627819059,3080192,110,-56,-1,-1,0
1523627819059,458752,110,-56,-1,-1,0
1523627819059,-786432,110,-56,-1,-1,0
1523627819059,-983040,110,-56,-1,-1,0
1523627819099,-851968,110,-56,-1,-1,0
1523627819099,-720896,110,-56,-1,-1,0
1523627819099,-720896,110,-56,-1,-1,0
1523627819099,-786432,110,-56,-1,-1,0
1523627819099,-524288,110,-56,-1,-1,0
1523627819139,-393216,110,-56,-1,-1,0
1523627819139,-524288,110,-56,-1,-1,0
1523627819139,-589824,110,-56,-1,-1,0
1523627819139,-458752,110,-56,-1,-1,0
1523627819139,-458752,110,-56,-1,-1,0
1523627819179,-327680,110,-56,-1,-1,0
1523627819179,-262144,110,-56,-1,-1,0
1523627819179,-65536,110,-56,-1,-1,0
1523627819179,0,110,-56,-1,-1,0
1523627819179,262144,110,-56,-1,-1,0
1523627819221,524288,110,-56,-1,-1,0
1523627819221,917504,110,-56,-1,-1,0
1523627819221,1310720,110,-56,-1,-1,0
1523627819221,1572864,110,-56,-1,-1,0
1523627819221,1769472,110,-56,-1,-1,0
1523627819259,1966080,110,-56,-1,-1,0
1523627819259,2031616,110,-56,-1,-1,0
1523627819259,1900544,110,-56,-1,-1,0
1523627819259,1572864,110,-56,-1,-1,0
1523627819259,1245184,110,-56,-1,-1,0
1523627819299,1048576,110,-56,-1,-1,0
1523627819299,786432,110,-56,-1,-1,0
1523627819299,589824,110,-56,-1,-1,0
1523627819299,524288,110,-56,-1,-1,0
1523627819299,589824,110,-56,-1,-1,0
1523627819341,786432,110,-56,-1,-1,0
1523627819341,786432,110,-56,-1,-1,0
1523627819341,524288,110,-56,-1,-1,0
1523627819341,262144,110,-56,-1,-1,0
1523627819341,393216,110,-56,-1,-1,0
1523627819379,655360,110,-56,-1,-1,0
1523627819379,917504,110,-56,-1,-1,0
1523627819379,983040,110,-56,-1,-1,0
1523627819379,917504,110,-56,-1,-1,0
1523627819379,917504,110,-56,-1,-1,0
1523627819419,786432,110,-56,-1,-1,0
1523627819419,786432,110,-56,-1,-1,0
1523627819419,917504,110,-56,-1,-1,0
1523627819419,983040,110,-56,-1,-1,0
1523627819419,1048576,110,-56,-1,-1,0
1523627819459,1114112,110,-56,-1,-1,0
1523627819459,1114112,110,-56,-1,-1,0
1523627819459,1179648,110,-56,-1,-1,0
1523627819459,1245184,110,-56,-1,-1,0
1523627819459,1179648,110,-56,-1,-1,0
1523627819499,1114112,110,-56,-1,-1,0
1523627819499,1048576,110,-56,-1,-1,0
1523627819499,1048576,110,-56,-1,-1,0
1523627819499,1048576,110,-56,-1,-1,0
1523627819499,1048576,110,-56,-1,-1,0
1523627819539,1048576,110,-56,-1,-1,0
1523627819539,1048576,110,-56,-1,-1,0
1523627819539,1114112,110,-56,-1,-1,0
1523627819539,1179648,110,-56,-1,-1,0
1523627819539,1179648,110,-56,-1,-1,0
1523627819579,1179648,110,-56,-1,-1,0
1523627819579,1179648,110,-56,-1,-1,0
1523627819579,1114112,110,-56,-1,-1,0
1523627819579,1114112,110,-56,-1,-1,0
1523627819579,1048576,110,-56,-1,-1,0
1523627819619,1048576,110,-56,-1,-1,0
1523627819619,917504,110,-56,-1,-1,0
1523627819619,524288,110,-56,-1,-1,0
1523627819619,524288,110,-56,-1,-1,0
1523627819619,1638400,110,-56,-1,-1,0
1523627819659,3801088,110,-56,-1,-1,0
1523627819659,5308416,110,-56,-1,-1,0
1523627819659,4259840,110,-56,-1,-1,0
1523627819659,1769472,110,-56,-1,-1,0
1523627819659,327680,110,-56,-1,-1,0
1523627819699,196608,110,-56,-1,-1,0
1523627819699,458752,110,-56,-1,-1,0
1523627819699,589824,110,-56,-1,-1,0
1523627819699,589824,110,-56,-1,-1,0
1523627819699,589824,110,-56,-1,-1,0
1523627819739,589824,110,-56,-1,-1,0
1523627819739,524288,110,-56,-1,-1,0
1523627819739,524288,110,-56,-1,-1,0
1523627819739,524288,110,-56,-1,-1,0
1523627819739,524288,110,-56,-1,-1,0
1523627819779,524288,110,-56,-1,-1,0
1523627819779,589824,110,-56,-1,-1,0
1523627819779,589824,110,-56,-1,-1,0
1523627819779,589824,110,-56,-1,-1,0
1523627819779,720896,110,-56,-1,-1,0
1523627819819,917504,110,-56,-1,-1,0
1523627819819,1114112,110,-56,-1,-1,0
1523627819819,1376256,110,-56,-1,-1,0
1523627819819,1703936,110,-56,-1,-1,0
1523627819819,1900544,110,-56,-1,-1,0
1523627819859,2031616,110,-56,-1,-1,0
1523627819859,1966080,110,-56,-1,-1,0
1523627819859,1835008,110,-56,-1,-1,0
1523627819859,1572864,110,-56,-1,-1,0
1523627819859,1179648,110,-56,-1,-1,0
1523627819899,786432,110,-56,-1,-1,0
1523627819899,393216,110,-56,-1,-1,0
1523627819899,65536,110,-56,-1,-1,0
1523627819899,-65536,110,-56,-1,-1,0
1523627819899,-262144,110,-56,-1,-1,0
1523627819939,-458752,110,-56,-1,-1,0
1523627819939,-524288,110,-56,-1,-1,0
1523627819939,-524288,110,-56,-1,-1,0
1523627819939,-589824,110,-56,-1,-1,0
1523627819939,-589824,110,-56,-1,-1,0
1523627819981,-655360,110,-56,-1,-1,0
1523627819981,-589824,110,-56,-1,-1,0
1523627819981,-524288,110,-56,-1,-1,0
1523627819981,-589824,110,-56,-1,-1,0
1523627819981,-589824,110,-56,-1,-1,0
1523627820019,-589824,110,-56,-1,-1,0
1523627820019,-524288,110,-56,-1,-1,0
1523627820019,-458752,110,-56,-1,-1,0
1523627820019,-458752,110,-56,-1,-1,0
1523627820019,-393216,110,-56,-1,-1,0
1523627820059,-327680,110,-56,-1,-1,0
1523627820059,-393216,110,-56,-1,-1,0
1523627820059,-393216,110,-56,-1,-1,0
1523627820059,-393216,110,-56,-1,-1,0
1523627820059,-393216,110,-56,-1,-1,0
1523627820099,-393216,110,-56,-1,-1,0
1523627820099,-393216,110,-56,-1,-1,0
1523627820099,-393216,110,-56,-1,-1,0
1523627820099,-393216,110,-56,-1,-1,0
1523627820099,-327680,110,-56,-1,-1,0
1523627820139,-131072,110,-56,-1,-1,0
1523627820139,-65536,110,-56,-1,-1,0
1523627820139,-131072,110,-56,-1,-1,0
1523627820139,-196608,110,-56,-1,-1,0
1523627820139,-131072,110,-56,-1,-1,0
1523627820179,-131072,110,-56,-1,-1,0
1523627820179,-65536,110,-56,-1,-1,0
1523627820179,0,110,-56,-1,-1,0
1523627820179,65536,110,-56,-1,-1,0
1523627820179,0,110,-56,-1,-1,0
1523627820219,-196608,110,-56,-1,-1,0
1523627820219,-196608,110,-56,-1,-1,0
1523627820219,720896,110,-56,-1,-1,0
1523627820219,2883584,110,-56,-1,-1,0
1523627820219,4653056,110,-56,-1,-1,0
1523627820259,3735552,110,-56,-1,-1,0
1523627820259,917504,110,-56,-1,-1,0
1523627820259,-786432,110,-56,-1,-1,0
1523627820259,-917504,110,-56,-1,-1,0
1523627820259,-524288,110,-56,-1,-1,0
1523627820299,-196608,110,-56,-1,-1,0
1523627820299,-65536,110,-56,-1,-1,0
1523627820299,-131072,110,-56,-1,-1,0
1523627820299,-65536,110,-56,-1,-1,0
1523627820299,0,110,-56,-1,-1,0
1523627820339,0,110,-56,-1,-1,0
1523627820339,0,110,-56,-1,-1,0
1523627820339,0,110,-56,-1,-1,0
1523627820339,0,110,-56,-1,-1,0
1523627820339,65536,110,-56,-1,-1,0
1523627820379,196608,110,-56,-1,-1,0
1523627820379,327680,110,-56,-1,-1,0
1523627820379,524288,110,-56,-1,-1,0
1523627820379,917504,110,-56,-1,-1,0
1523627820379,1179648,110,-56,-1,-1,0
1523627820419,1441792,110,-56,-1,-1,0
1523627820419,1835008,110,-56,-1,-1,0
1523627820419,2228224,110,-56,-1,-1,0
1523627820419,2424832,110,-56,-1,-1,0
1523627820419,2424832,110,-56,-1,-1,0
1523627820459,2228224,110,-56,-1,-1,0
1523627820459,1900544,110,-56,-1,-1,0
1523627820459,1441792,110,-56,-1,-1,0
1523627820459,917504,110,-56,-1,-1,0
1523627820459,524288,110,-56,-1,-1,0
1523627820499,262144,110,-56,-1,-1,0
1523627820499,65536,110,-56,-1,-1,0
1523627820499,-65536,110,-56,-1,-1,0
1523627820499,-131072,110,-56,-1,-1,0
1523627820499,-262144,110,-56,-1,-1,0
1523627820539,-262144,110,-56,-1,-1,0
1523627820539,-262144,110,-56,-1,-1,0
1523627820539,-262144,110,-56,-1,-1,0
1523627820539,-262144,110,-56,-1,-1,0
1523627820539,-196608,110,-56,-1,-1,0
1523627820579,-131072,110,-56,-1,-1,0
1523627820579,-65536,110,-56,-1,-1,0
1523627820579,-65536,110,-56,-1,-1,0
1523627820579,0,110,-56,-1,-1,0
1523627820579,0,110,-56,-1,-1,0
1523627820621,-65536,110,-56,-1,-1,0
1523627820621,-131072,110,-56,-1,-1,0
1523627820621,-196608,110,-56,-1,-1,0
1523627820621,-262144,110,-56,-1,-1,0
1523627820621,-327680,110,-56,-1,-1,0
1523627820659,-393216,108,-56,-1,-1,0
1523627820659,-393216,108,-56,-1,-1,0
1523627820659,-393216,108,-56,-1,-1,0
1523627820659,-458752,108,-56,-1,-1,0
1523627820659,-524288,108,-56,-1,-1,0
1523627820699,-524288,108,-56,-1,-1,0
1523627820699,-524288,108,-56,-1,-1,0
1523627820699,-458752,108,-56,-1,-1,0
1523627820699,-458752,108,-56,-1,-1,0
1523627820699,-458752,108,-56,-1,-1,0
1523627820739,-393216,108,-56,-1,-1,0
1523627820739,-458752,108,-56,-1,-1,0
1523627820739,-458752,108,-56,-1,-1,0
1523627820739,-524288,108,-56,-1,-1,0
1523627820739,-589824,108,-56,-1,-1,0
1523627820779,-589824,108,-56,-1,-1,0
1523627820779,-589824,108,-56,-1,-1,0
1523627820779,-720896,108,-56,-1,-1,0
1523627820779,-1048576,108,-56,-1,-1,0
1523627820779,-1048576,108,-56,-1,-1,0
1523627820819,0,108,-56,-1,-1,0
1523627820819,2490368,108,-56,-1,-1,0
1523627820819,4849664,108,-56,-1,-1,0
1523627820819,3997696,108,-56,-1,-1,0
1523627820819,851968,108,-56,-1,-1,0
1523627820859,-1245184,108,-56,-1,-1,0
1523627820859,-1310720,108,-56,-1,-1,0
1523627820859,-983040,108,-56,-1,-1,0
1523627820859,-720896,108,-56,-1,-1,0
1523627820859,-655360,108,-56,-1,-1,0
1523627820899,-655360,108,-56,-1,-1,0
1523627820899,-589824,108,-56,-1,-1,0
1523627820899,-524288,108,-56,-1,-1,0
1523627820899,-458752,108,-56,-1,-1,0
1523627820899,-524288,108,-56,-1,-1,0
1523627820939,-524288,108,-56,-1,-1,0
1523627820939,-458752,108,-56,-1,-1,0
1523627820939,-458752,108,-56,-1,-1,0
1523627820939,-458752,108,-56,-1,-1,0
1523627820939,-327680,108,-56,-1,-1,0
1523627820979,-196608,108,-56,-1,-1,0
1523627820979,0,108,-56,-1,-1,0
1523627820979,262144,108,-56,-1,-1,0
1523627820979,655360,108,-56,-1,-1,0
1523627820979,1048576,108,-56,-1,-1,0
1523627821019,1376256,108,-56,-1,-1,0
1523627821019,1638400,108,-56,-1,-1,0
1523627821019,1703936,108,-56,-1,-1,0
1523627821019,1572864,108,-56,-1,-1,0
1523627821019,1245184,108,-56,-1,-1,0
1523627821059,786432,108,-56,-1,-1,0
1523627821059,327680,108,-56,-1,-1,0
1523627821059,0,108,-56,-1,-1,0
1523627821059,-262144,108,-56,-1,-1,0
1523627821059,-524288,108,-56,-1,-1,0
1523627821099,-720896,108,-56,-1,-1,0
1523627821099,-720896,108,-56,-1,-1,0
1523627821099,-786432,108,-56,-1,-1,0
1523627821099,-786432,108,-56,-1,-1,0
1523627821099,-786432,108,-56,-1,-1,0
1523627821139,-786432,108,-56,-1,-1,0
1523627821139,-786432,108,-56,-1,-1,0
1523627821139,-786432,108,-56,-1,-1,0
1523627821139,-720896,108,-56,-1,-1,0
1523627821139,-655360,108,-56,-1,-1,0
1523627821179,-655360,108,-56,-1,-1,0
1523627821179,-655360,108,-56,-1,-1,0
1523627821179,-589824,108,-56,-1,-1,0
1523627821179,-589824,108,-56,-1,-1,0
1523627821179,-589824,108,-56,-1,-1,0
1523627821219,-655360,108,-56,-1,-1,0
1523627821219,-655360,108,-56,-1,-1,0
1523627821219,-655360,108,-56,-1,-1,0
1523627821219,-655360,108,-56,-1,-1,0
1523627821219,-720896,108,-56,-1,-1,0
1523627821260,-786432,108,-56,-1,-1,0
1523627821260,-851968,108,-56,-1,-1,0
1523627821260,-851968,108,-56,-1,-1,0
1523627821260,-851968,108,-56,-1,-1,0
1523627821260,-720896,108,-56,-1,-1,0
1523627821299,-655360,108,-56,-1,-1,0
1523627821299,-720896,108,-56,-1,-1,0
1523627821299,-720896,108,-56,-1,-1,0
1523627821299,-786432,108,-56,-1,-1,0
1523627821299,-786432,108,-56,-1,-1,0
1523627821339,-786432,108,-56,-1,-1,0
1523627821339,-786432,108,-56,-1,-1,0
1523627821339,-917504,108,-56,-1,-1,0
1523627821339,-1376256,108,-56,-1,-1,0
1523627821339,-1441792,108,-56,-1,-1,0
1523627821379,-196608,108,-56,-1,-1,0
1523627821379,2621440,108,-56,-1,-1,0
1523627821379,4849664,108,-56,-1,-1,0
1523627821379,3538944,108,-56,-1,-1,0
1523627821379,327680,108,-56,-1,-1,0
1523627821419,-1441792,108,-56,-1,-1,0
1523627821419,-1441792,108,-56,-1,-1,0
1523627821419,-1179648,108,-56,-1,-1,0
1523627821419,-1114112,108,-56,-1,-1,0
1523627821419,-1048576,108,-56,-1,-1,0
1523627821459,-983040,108,-56,-1,-1,0
1523627821459,-917504,108,-56,-1,-1,0
1523627821459,-917504,108,-56,-1,-1,0
1523627821459,-917504,108,-56,-1,-1,0
1523627821459,-917504,108,-56,-1,-1,0
1523627821499,-851968,108,-56,-1,-1,0
1523627821499,-786432,108,-56,-1,-1,0
1523627821499,-655360,108,-56,-1,-1,0
1523627821499,-589824,108,-56,-1,-1,0
1523627821499,-458752,108,-56,-1,-1,0
1523627821539,-327680,108,-56,-1,-1,0
1523627821539,-131072,108,-56,-1,-1,0
1523627821539,131072,108,-56,-1,-1,0
1523627821539,458752,108,-56,-1,-1,0
1523627821539,851968,108,-56,-1,-1,0
1523627821579,1245184,108,-56,-1,-1,0
1523627821579,1441792,108,-56,-1,-1,0
1523627821579,1441792,108,-56,-1,-1,0
1523627821579,1310720,108,-56,-1,-1,0
1523627821579,983040,108,-56,-1,-1,0
1523627821619,524288,108,-56,-1,-1,0
1523627821619,131072,108,-56,-1,-1,0
1523627821619,-65536,108,-56,-1,-1,0
1523627821619,-327680,108,-56,-1,-1,0
1523627821619,-524288,108,-56,-1,-1,0
1523627821659,-655360,108,-56,-1,-1,0
1523627821659,-720896,108,-56,-1,-1,0
1523627821659,-786432,108,-56,-1,-1,0
1523627821659,-786432,108,-56,-1,-1,0
1523627821659,-786432,108,-56,-1,-1,0
1523627821699,-720896,108,-56,-1,-1,0
1523627821699,-720896,108,-56,-1,-1,0
1523627821699,-720896,108,-56,-1,-1,0
1523627821699,-655360,108,-56,-1,-1,0
1523627821699,-589824,108,-56,-1,-1,0
1523627821739,-524288,108,-56,-1,-1,0
1523627821739,-524288,108,-56,-1,-1,0
1523627821739,-524288,108,-56,-1,-1,0
1523627821739,-458752,108,-56,-1,-1,0
1523627821739,-458752,108,-56,-1,-1,0
1523627821779,-458752,108,-56,-1,-1,0
1523627821779,-524288,108,-56,-1,-1,0
1523627821779,-589824,108,-56,-1,-1,0
1523627821779,-589824,108,-56,-1,-1,0
1523627821779,-589824,108,-56,-1,-1,0
1523627821819,-589824,108,-56,-1,-1,0
1523627821819,-655360,108,-56,-1,-1,0
1523627821819,-655360,108,-56,-1,-1,0
1523627821819,-655360,108,-56,-1,-1,0
1523627821819,-589824,108,-56,-1,-1,0
1523627821859,-655360,108,-56,-1,-1,0
1523627821859,-720896,108,-56,-1,-1,0
1523627821859,-720896,108,-56,-1,-1,0
1523627821859,-720896,108,-56,-1,-1,0
1523627821859,-655360,108,-56,-1,-1,0
1523627821900,-655360,108,-56,-1,-1,0
1523627821900,-720896,108,-56,-1,-1,0
1523627821900,-1048576,108,-56,-1,-1,0
1523627821900,-1310720,108,-56,-1,-1,0
1523627821900,-458752,108,-56,-1,-1,0
1523627821939,1966080,108,-56,-1,-1,0
1523627821939,4587520,108,-56,-1,-1,0
1523627821939,4194304,108,-56,-1,-1,0
1523627821939,1245184,108,-56,-1,-1,0
1523627821939,-1048576,108,-56,-1,-1,0
1523627821979,-1376256,108,-56,-1,-1,0
1523627821979,-1179648,108,-56,-1,-1,0
1523627821979,-983040,108,-56,-1,-1,0
1523627821979,-851968,108,-56,-1,-1,0
1523627821979,-786432,108,-56,-1,-1,0
1523627822019,-786432,108,-56,-1,-1,0
1523627822019,-786432,108,-56,-1,-1,0
1523627822019,-786432,108,-56,-1,-1,0
1523627822019,-720896,108,-56,-1,-1,0
1523627822019,-655360,108,-56,-1,-1,0
1523627822059,-655360,108,-56,-1,-1,0
1523627822059,-589824,108,-56,-1,-1,0
1523627822059,-524288,108,-56,-1,-1,0
1523627822059,-458752,108,-56,-1,-1,0
1523627822059,-327680,108,-56,-1,-1,0
1523627822099,-131072,108,-56,-1,-1,0
1523627822099,65536,108,-56,-1,-1,0
1523627822099,393216,108,-56,-1,-1,0
1523627822099,851968,108,-56,-1,-1,0
1523627822099,1179648,108,-56,-1,-1,0
1523627822139,1507328,108,-56,-1,-1,0
1523627822139,1507328,108,-56,-1,-1,0
1523627822139,1310720,108,-56,-1,-1,0
1523627822139,1048576,108,-56,-1,-1,0
1523627822139,655360,108,-56,-1,-1,0
1523627822179,262144,108,-56,-1,-1,0
1523627822179,0,108,-56,-1,-1,0
1523627822179,-262144,108,-56,-1,-1,0
1523627822179,-458752,108,-56,-1,-1,0
1523627822179,-655360,108,-56,-1,-1,0
1523627822219,-720896,108,-56,-1,-1,0
1523627822219,-786432,108,-56,-1,-1,0
1523627822219,-786432,108,-56,-1,-1,0
1523627822219,-786432,108,-56,-1,-1,0
1523627822219,-720896,108,-56,-1,-1,0
1523627822259,-720896,108,-56,-1,-1,0
1523627822259,-720896,108,-56,-1,-1,0
1523627822259,-720896,108,-56,-1,-1,0
1523627822259,-720896,108,-56,-1,-1,0
1523627822259,-655360,108,-56,-1,-1,0
1523627822299,-655360,108,-56,-1,-1,0
1523627822299,-655360,108,-56,-1,-1,0
1523627822299,-655360,108,-56,-1,-1,0
1523627822299,-589824,108,-56,-1,-1,0
1523627822299,-589824,108,-56,-1,-1,0
1523627822339,-524288,107,-56,-1,-1,0
1523627822339,-589824,107,-56,-1,-1,0
1523627822339,-720896,107,-56,-1,-1,0
1523627822339,-786432,107,-56,-1,-1,0
1523627822339,-720896,107,-56,-1,-1,0
1523627822379,-720896,107,-56,-1,-1,0
1523627822379,-720896,107,-56,-1,-1,0
1523627822379,-720896,107,-56,-1,-1,0
1523627822379,-655360,107,-56,-1,-1,0
1523627822379,-720896,107,-56,-1,-1,0
1523627822419,-720896,107,-56,-1,-1,0
1523627822419,-786432,107,-56,-1,-1,0
1523627822419,-786432,107,-56,-1,-1,0
1523627822419,-786432,107,-56,-1,-1,0
1523627822419,-786432,107,-56,-1,-1,0
1523627822459,-786432,107,-56,-1,-1,0
1523627822459,-1179648,107,-56,-1,-1,0
1523627822459,-1310720,107,-56,-1,-1,0
1523627822459,-458752,107,-56,-1,-1,0
1523627822459,1835008,107,-56,-1,-1,0
1523627822499,4128768,107,-56,-1,-1,0
1523627822499,3407872,107,-56,-1,-1,0
1523627822499,524288,107,-56,-1,-1,0
1523627822499,-1441792,107,-56,-1,-1,0
1523627822499,-1638400,107,-56,-1,-1,0
1523627822540,-1245184,107,-56,-1,-1,0
1523627822540,-917504,107,-56,-1,-1,0
1523627822540,-720896,107,-56,-1,-1,0
1523627822540,-720896,107,-56,-1,-1,0
1523627822540,-786432,107,-56,-1,-1,0
1523627822579,-851968,107,-56,-1,-1,0
1523627822579,-851968,107,-56,-1,-1,0
1523627822579,-786432,107,-56,-1,-1,0
1523627822579,-720896,107,-56,-1,-1,0
1523627822579,-655360,107,-56,-1,-1,0
1523627822619,-524288,107,-56,-1,-1,0
1523627822619,-393216,107,-56,-1,-1,0
1523627822619,-327680,107,-56,-1,-1,0
1523627822619,-196608,107,-56,-1,-1,0
1523627822619,0,107,-56,-1,-1,0
1523627822659,262144,107,-56,-1,-1,0
1523627822659,655360,107,-56,-1,-1,0
1523627822659,1048576,107,-56,-1,-1,0
1523627822659,1376256,107,-56,-1,-1,0
1523627822659,1572864,107,-56,-1,-1,0
1523627822699,1572864,107,-56,-1,-1,0
1523627822699,1441792,107,-56,-1,-1,0
1523627822699,1114112,107,-56,-1,-1,0
1523627822699,720896,107,-56,-1,-1,0
1523627822699,393216,107,-56,-1,-1,0
1523627822739,0,107,-56,-1,-1,0
1523627822739,-196608,107,-56,-1,-1,0
1523627822739,-327680,107,-56,-1,-1,0
1523627822739,-458752,107,-56,-1,-1,0
1523627822739,-524288,107,-56,-1,-1,0
1523627822779,-589824,107,-56,-1,-1,0
1523627822779,-589824,107,-56,-1,-1,0
1523627822779,-589824,107,-56,-1,-1,0
1523627822779,-589824,107,-56,-1,-1,0
1523627822779,-524288,107,-56,-1,-1,0
1523627822819,-458752,107,-56,-1,-1,0
1523627822819,-458752,107,-56,-1,-1,0
1523627822819,-458752,107,-56,-1,-1,0
1523627822819,-393216,107,-56,-1,-1,0
1523627822819,-393216,107,-56,-1,-1,0
1523627822859,-327680,107,-56,-1,-1,0
1523627822859,-262144,107,-56,-1,-1,0
1523627822859,-262144,107,-56,-1,-1,0
1523627822859,-262144,107,-56,-1,-1,0
1523627822859,-327680,107,-56,-1,-1,0
1523627822899,-262144,107,-56,-1,-1,0
1523627822899,-262144,107,-56,-1,-1,0
1523627822899,-327680,107,-56,-1,-1,0
1523627822899,-458752,107,-56,-1,-1,0
1523627822899,-524288,107,-56,-1,-1,0
1523627822939,-393216,107,-56,-1,-1,0
1523627822939,-327680,107,-56,-1,-1,0
1523627822939,-393216,107,-56,-1,-1,0
1523627822939,-458752,107,-56,-1,-1,0
1523627822939,-458752,107,-56,-1,-1,0
1523627822979,-393216,107,-56,-1,-1,0
1523627822979,-327680,107,-56,-1,-1,0
1523627822979,-327680,107,-56,-1,-1,0
1523627822979,-327680,107,-56,-1,-1,0
1523627822979,-327680,107,-56,-1,-1,0
1523627823019,-262144,107,-56,-1,-1,0
1523627823019,-327680,107,-56,-1,-1,0
1523627823019,-589824,107,-56,-1,-1,0
1523627823019,-917504,107,-56,-1,-1,0
1523627823019,-589824,107,-56,-1,-1,0
1523627823059,1179648,107,-56,-1,-1,0
1523627823059,3997696,107,-56,-1,-1,0
1523627823059,4980736,107,-56,-1,-1,0
1523627823059,2949120,107,-56,-1,-1,0
1523627823059,262144,107,-56,-1,-1,0
1523627823099,-655360,107,-56,-1,-1,0
1523627823099,-655360,107,-56,-1,-1,0
1523627823099,-458752,107,-56,-1,-1,0
1523627823099,-393216,107,-56,-1,-1,0
1523627823099,-262144,107,-56,-1,-1,0
1523627823139,-262144,107,-56,-1,-1,0
1523627823139,-196608,107,-56,-1,-1,0
1523627823139,-196608,107,-56,-1,-1,0
1523627823139,-262144,107,-56,-1,-1,0
1523627823139,-262144,107,-56,-1,-1,0
1523627823180,-196608,107,-56,-1,-1,0
1523627823180,-196608,107,-56,-1,-1,0
1523627823180,-131072,107,-56,-1,-1,0
1523627823180,-65536,107,-56,-1,-1,0
1523627823180,0,107,-56,-1,-1,0
1523627823219,131072,107,-56,-1,-1,0
1523627823219,393216,107,-56,-1,-1,0
1523627823219,720896,107,-56,-1,-1,0
1523627823219,1114112,107,-56,-1,-1,0
1523627823219,1376256,107,-56,-1,-1,0
1523627823259,1638400,107,-56,-1,-1,0
1523627823259,1769472,107,-56,-1,-1,0
1523627823259,1769472,107,-56,-1,-1,0
1523627823259,1572864,107,-56,-1,-1,0
1523627823259,1245184,107,-56,-1,-1,0
1523627823299,851968,107,-56,-1,-1,0
1523627823299,524288,107,-56,-1,-1,0
1523627823299,196608,107,-56,-1,-1,0
1523627823299,0,107,-56,-1,-1,0
1523627823299,-131072,107,-56,-1,-1,0
1523627823339,-327680,107,-56,-1,-1,0
1523627823339,-393216,107,-56,-1,-1,0
1523627823339,-458752,107,-56,-1,-1,0
1523627823339,-458752,107,-56,-1,-1,0
1523627823339,-524288,107,-56,-1,-1,0
1523627823379,-524288,107,-56,-1,-1,0
1523627823379,-524288,107,-56,-1,-1,0
1523627823379,-458752,107,-56,-1,-1,0
1523627823379,-458752,107,-56,-1,-1,0
1523627823379,-458752,107,-56,-1,-1,0
1523627823419,-393216,107,-56,-1,-1,0
1523627823419,-393216,107,-56,-1,-1,0
1523627823419,-393216,107,-56,-1,-1,0
1523627823419,-393216,107,-56,-1,-1,0
1523627823419,-327680,107,-56,-1,-1,0
1523627823459,-327680,107,-56,-1,-1,0
1523627823459,-327680,107,-56,-1,-1,0
1523627823459,-327680,107,-56,-1,-1,0
1523627823459,-393216,107,-56,-1,-1,0
1523627823459,-458752,107,-56,-1,-1,0
1523627823499,-458752,107,-56,-1,-1,0
1523627823499,-458752,107,-56,-1,-1,0
1523627823499,-458752,107,-56,-1,-1,0
1523627823499,-393216,107,-56,-1,-1,0
1523627823499,-393216,107,-56,-1,-1,0
1523627823539,-458752,107,-56,-1,-1,0
1523627823539,-524288,107,-56,-1,-1,0
1523627823539,-524288,107,-56,-1,-1,0
1523627823539,-589824,107,-56,-1,-1,0
1523627823539,-589824,107,-56,-1,-1,0
1523627823579,-524288,107,-56,-1,-1,0
1523627823579,-524288,107,-56,-1,-1,0
1523627823579,-720896,107,-56,-1,-1,0
1523627823579,-1048576,107,-56,-1,-1,0
1523627823579,-851968,107,-56,-1,-1,0
1523627823619,458752,107,-56,-1,-1,0
1523627823619,2949120,107,-56,-1,-1,0
1523627823619,4128768,107,-56,-1,-1,0
1523627823619,2293760,107,-56,-1,-1,0
1523627823619,-458752,107,-56,-1,-1,0
1523627823659,-1703936,107,-56,-1,-1,0
1523627823659,-1507328,107,-56,-1,-1,0
1523627823659,-983040,107,-56,-1,-1,0
1523627823659,-720896,107,-56,-1,-1,0
1523627823659,-655360,107,-56,-1,-1,0
1523627823699,-655360,107,-56,-1,-1,0
1523627823699,-655360,107,-56,-1,-1,0
1523627823699,-589824,107,-56,-1,-1,0
1523627823699,-589824,107,-56,-1,-1,0
1523627823699,-524288,107,-56,-1,-1,0
1523627823739,-458752,107,-56,-1,-1,0
1523627823739,-393216,107,-56,-1,-1,0
1523627823739,-327680,107,-56,-1,-1,0
1523627823739,-196608,107,-56,-1,-1,0
1523627823739,0,107,-56,-1,-1,0
1523627823779,131072,107,-56,-1,-1,0
1523627823779,393216,107,-56,-1,-1,0
1523627823779,720896,107,-56,-1,-1,0
1523627823779,1179648,107,-56,-1,-1,0
1523627823779,1572864,107,-56,-1,-1,0
1523627823820,1900544,107,-56,-1,-1,0
1523627823820,2031616,107,-56,-1,-1,0
1523627823820,2031616,107,-56,-1,-1,0
1523627823820,1769472,107,-56,-1,-1,0
1523627823820,1441792,107,-56,-1,-1,0
1523627823859,983040,107,-56,-1,-1,0
1523627823859,589824,107,-56,-1,-1,0
1523627823859,196608,107,-56,-1,-1,0
1523627823859,0,107,-56,-1,-1,0
1523627823859,-131072,107,-56,-1,-1,0
1523627823899,-196608,107,-56,-1,-1,0
1523627823899,-327680,107,-56,-1,-1,0
1523627823899,-327680,107,-56,-1,-1,0
1523627823899,-327680,107,-56,-1,-1,0
1523627823899,-327680,107,-56,-1,-1,0
1523627823939,-393216,107,-56,-1,-1,0
1523627823939,-393216,107,-56,-1,-1,0
1523627823939,-393216,107,-56,-1,-1,0
1523627823939,-327680,107,-56,-1,-1,0
1523627823939,-262144,107,-56,-1,-1,0
1523627823979,-131072,107,-56,-1,-1,0
1523627823979,0,107,-56,-1,-1,0
1523627823979,-65536,107,-56,-1,-1,0
1523627823979,-196608,107,-56,-1,-1,0
1523627823979,-196608,107,-56,-1,-1,0
1523627824019,-131072,107,-56,-1,-1,0
1523627824019,-131072,107,-56,-1,-1,0
1523627824019,-262144,107,-56,-1,-1,0
1523627824019,-196608,107,-56,-1,-1,0
1523627824019,-131072,107,-56,-1,-1,0
1523627824059,-262144,107,-56,-1,-1,0
1523627824059,-262144,107,-56,-1,-1,0
1523627824059,-262144,107,-56,-1,-1,0
1523627824059,-262144,107,-56,-1,-1,0
1523627824059,-327680,107,-56,-1,-1,0
1523627824099,-262144,107,-56,-1,-1,0
1523627824099,-262144,107,-56,-1,-1,0
1523627824099,-327680,107,-56,-1,-1,0
1523627824099,-393216,107,-56,-1,-1,0
1523627824099,-327680,107,-56,-1,-1,0
1523627824139,-327680,107,-56,-1,-1,0
1523627824139,-655360,107,-56,-1,-1,0
1523627824139,-851968,107,-56,-1,-1,0
1523627824139,65536,107,-56,-1,-1,0
1523627824139,2686976,107,-56,-1,-1,0
1523627824179,4915200,107,-56,-1,-1,0
1523627824179,3801088,107,-56,-1,-1,0
1523627824179,524288,107,-56,-1,-1,0
1523627824179,-1376256,107,-56,-1,-1,0
1523627824179,-1376256,107,-56,-1,-1,0
1523627824219,-851968,107,-56,-1,-1,0
1523627824219,-589824,107,-56,-1,-1,0
1523627824219,-458752,107,-56,-1,-1,0
1523627824219,-393216,107,-56,-1,-1,0
1523627824219,-327680,107,-56,-1,-1,0
1523627824259,-393216,107,-56,-1,-1,0
1523627824259,-393216,107,-56,-1,-1,0
1523627824259,-327680,107,-56,-1,-1,0
1523627824259,-196608,107,-56,-1,-1,0
1523627824259,-65536,107,-56,-1,-1,0
1523627824299,0,107,-56,-1,-1,0
1523627824299,0,107,-56,-1,-1,0
1523627824299,131072,107,-56,-1,-1,0
1523627824299,327680,107,-56,-1,-1,0
1523627824299,524288,107,-56,-1,-1,0
1523627824339,917504,107,-56,-1,-1,0
