milliseconds, ECG, ECG HR, PPG, PPG HR, SpO2, PI
1523619022598,917504,125,-56,-1,-1,0
1523619022598,655360,125,-56,-1,-1,0
1523619022598,393216,125,-56,-1,-1,0
1523619022598,262144,125,-56,-1,-1,0
1523619022598,131072,125,-56,-1,-1,0
1523619022638,131072,125,-56,-1,-1,0
1523619022638,65536,125,-56,-1,-1,0
1523619022638,0,125,-56,-1,-1,0
1523619022638,-65536,125,-56,-1,-1,0
1523619022638,-131072,125,-56,-1,-1,0
1523619022679,-262144,125,-56,-1,-1,0
1523619022679,-327680,125,-56,-1,-1,0
1523619022679,-393216,125,-56,-1,-1,0
1523619022679,-524288,125,-56,-1,-1,0
1523619022679,-655360,125,-56,-1,-1,0
1523619022718,-655360,125,-56,-1,-1,0
1523619022718,-589824,125,-56,-1,-1,0
1523619022718,-458752,125,-56,-1,-1,0
1523619022718,-196608,125,-56,-1,-1,0
1523619022718,-65536,125,-56,-1,-1,0
1523619022758,-65536,125,-56,-1,-1,0
1523619022758,-262144,125,-56,-1,-1,0
1523619022758,-524288,125,-56,-1,-1,0
1523619022758,-655360,125,-56,-1,-1,0
1523619022758,-851968,125,-56,-1,-1,0
1523619022798,-917504,125,-56,-1,-1,0
1523619022798,-917504,125,-56,-1,-1,0
1523619022798,-983040,125,-56,-1,-1,0
1523619022798,-1114112,125,-56,-1,-1,0
1523619022798,-1310720,125,-56,-1,-1,0
1523619022838,-786432,125,-56,-1,-1,0
1523619022838,720896,125,-56,-1,-1,0
1523619022838,2097152,125,-56,-1,-1,0
1523619022838,1376256,125,-56,-1,-1,0
1523619022838,-1310720,125,-56,-1,-1,0
1523619022878,-3866624,125,-56,-1,-1,0
1523619022878,-4390912,125,-56,-1,-1,0
1523619022878,-3145728,125,-56,-1,-1,0
1523619022878,-1900544,125,-56,-1,-1,0
1523619022878,-1245184,125,-56,-1,-1,0
1523619022918,-1048576,125,-56,-1,-1,0
1523619022918,-983040,125,-56,-1,-1,0
1523619022918,-917504,125,-56,-1,-1,0
1523619022918,-786432,125,-56,-1,-1,0
1523619022918,-655360,125,-56,-1,-1,0
1523619022958,-524288,125,-56,-1,-1,0
1523619022958,-327680,125,-56,-1,-1,0
1523619022958,-65536,125,-56,-1,-1,0
1523619022958,196608,125,-56,-1,-1,0
1523619022958,589824,125,-56,-1,-1,0
1523619022998,1048576,125,-56,-1,-1,0
1523619022998,1507328,125,-56,-1,-1,0
1523619022998,1966080,125,-56,-1,-1,0
1523619022998,2490368,125,-56,-1,-1,0
1523619022998,2883584,125,-56,-1,-1,0
1523619023038,3145728,125,-56,-1,-1,0
1523619023038,3211264,125,-56,-1,-1,0
1523619023038,3145728,125,-56,-1,-1,0
1523619023038,2949120,125,-56,-1,-1,0
1523619023038,2555904,125,-56,-1,-1,0
1523619023078,2031616,125,-56,-1,-1,0
1523619023078,1507328,125,-56,-1,-1,0
1523619023078,1114112,125,-56,-1,-1,0
1523619023078,786432,125,-56,-1,-1,0
1523619023078,524288,125,-56,-1,-1,0
1523619023118,393216,123,-56,-1,-1,0
1523619023118,327680,123,-56,-1,-1,0
1523619023118,196608,123,-56,-1,-1,0
1523619023118,131072,123,-56,-1,-1,0
1523619023118,0,123,-56,-1,-1,0
1523619023158,0,123,-56,-1,-1,0
1523619023158,0,123,-56,-1,-1,0
1523619023158,-65536,123,-56,-1,-1,0
1523619023158,-131072,123,-56,-1,-1,0
1523619023158,-196608,123,-56,-1,-1,0
1523619023198,-262144,123,-56,-1,-1,0
1523619023198,-393216,123,-56,-1,-1,0
1523619023198,-458752,123,-56,-1,-1,0
1523619023198,-393216,123,-56,-1,-1,0
1523619023198,-131072,123,-56,-1,-1,0
1523619023238,0,123,-56,-1,-1,0
1523619023238,131072,123,-56,-1,-1,0
1523619023238,65536,123,-56,-1,-1,0
1523619023238,0,123,-56,-1,-1,0
1523619023238,-262144,123,-56,-1,-1,0
1523619023278,-524288,123,-56,-1,-1,0
1523619023278,-589824,123,-56,-1,-1,0
1523619023278,-655360,123,-56,-1,-1,0
1523619023278,-720896,123,-56,-1,-1,0
1523619023278,-851968,123,-56,-1,-1,0
1523619023319,-1114112,123,-56,-1,-1,0
1523619023319,-1179648,123,-56,-1,-1,0
1523619023319,-196608,123,-56,-1,-1,0
1523619023319,2097152,123,-56,-1,-1,0
1523619023319,3866624,123,-56,-1,-1,0
1523619023358,2424832,123,-56,-1,-1,0
1523619023358,-1703936,123,-56,-1,-1,0
1523619023358,-4980736,123,-56,-1,-1,0
1523619023358,-5177344,123,-56,-1,-1,0
1523619023358,-3473408,123,-56,-1,-1,0
1523619023398,-1966080,123,-56,-1,-1,0
1523619023398,-1179648,123,-56,-1,-1,0
1523619023398,-851968,123,-56,-1,-1,0
1523619023398,-720896,123,-56,-1,-1,0
1523619023398,-655360,123,-56,-1,-1,0
1523619023438,-524288,123,-56,-1,-1,0
1523619023438,-327680,123,-56,-1,-1,0
1523619023438,-196608,123,-56,-1,-1,0
1523619023438,65536,123,-56,-1,-1,0
1523619023438,327680,123,-56,-1,-1,0
1523619023478,655360,123,-56,-1,-1,0
1523619023478,1048576,123,-56,-1,-1,0
1523619023478,1507328,123,-56,-1,-1,0
1523619023478,2031616,123,-56,-1,-1,0
1523619023478,2621440,123,-56,-1,-1,0
1523619023518,3145728,123,-56,-1,-1,0
1523619023518,3604480,123,-56,-1,-1,0
1523619023518,3801088,123,-56,-1,-1,0
1523619023518,3866624,123,-56,-1,-1,0
1523619023518,3604480,123,-56,-1,-1,0
1523619023558,3211264,123,-56,-1,-1,0
1523619023558,2555904,123,-56,-1,-1,0
1523619023558,1900544,123,-56,-1,-1,0
1523619023558,1376256,123,-56,-1,-1,0
1523619023558,917504,123,-56,-1,-1,0
1523619023598,589824,123,-56,-1,-1,0
1523619023598,393216,123,-56,-1,-1,0
1523619023598,196608,123,-56,-1,-1,0
1523619023598,65536,123,-56,-1,-1,0
1523619023598,0,123,-56,-1,-1,0
1523619023638,-65536,123,-56,-1,-1,0
1523619023638,-131072,123,-56,-1,-1,0
1523619023638,-262144,123,-56,-1,-1,0
1523619023638,-393216,123,-56,-1,-1,0
1523619023638,-458752,123,-56,-1,-1,0
1523619023678,-589824,123,-56,-1,-1,0
1523619023678,-720896,123,-56,-1,-1,0
1523619023678,-851968,123,-56,-1,-1,0
1523619023678,-917504,123,-56,-1,-1,0
1523619023678,-983040,123,-56,-1,-1,0
1523619023718,-851968,123,-56,-1,-1,0
1523619023718,-655360,123,-56,-1,-1,0
1523619023718,-524288,123,-56,-1,-1,0
1523619023718,-393216,123,-56,-1,-1,0
1523619023718,-458752,123,-56,-1,-1,0
1523619023758,-589824,123,-56,-1,-1,0
1523619023758,-786432,123,-56,-1,-1,0
1523619023758,-983040,123,-56,-1,-1,0
1523619023758,-1114112,123,-56,-1,-1,0
1523619023758,-1114112,123,-56,-1,-1,0
1523619023798,-1179648,123,-56,-1,-1,0
1523619023798,-1245184,123,-56,-1,-1,0
1523619023798,-1507328,123,-56,-1,-1,0
1523619023798,-1310720,123,-56,-1,-1,0
1523619023798,196608,123,-56,-1,-1,0
1523619023838,2621440,123,-56,-1,-1,0
1523619023838,3342336,123,-56,-1,-1,0
1523619023838,655360,123,-56,-1,-1,0
1523619023838,-3473408,123,-56,-1,-1,0
1523619023838,-5373952,123,-56,-1,-1,0
1523619023878,-4456448,123,-56,-1,-1,0
1523619023878,-2752512,123,-56,-1,-1,0
1523619023878,-1703936,123,-56,-1,-1,0
1523619023878,-1310720,123,-56,-1,-1,0
1523619023878,-1179648,123,-56,-1,-1,0
1523619023918,-1048576,123,-56,-1,-1,0
1523619023918,-983040,123,-56,-1,-1,0
1523619023918,-851968,123,-56,-1,-1,0
1523619023918,-720896,123,-56,-1,-1,0
1523619023918,-524288,123,-56,-1,-1,0
1523619023959,-262144,123,-56,-1,-1,0
1523619023959,0,123,-56,-1,-1,0
1523619023959,393216,123,-56,-1,-1,0
1523619023959,851968,123,-56,-1,-1,0
1523619023959,1310720,123,-56,-1,-1,0
1523619023998,1900544,123,-56,-1,-1,0
1523619023998,2424832,123,-56,-1,-1,0
1523619023998,2883584,123,-56,-1,-1,0
1523619023998,3211264,123,-56,-1,-1,0
1523619023998,3342336,123,-56,-1,-1,0
1523619024038,3276800,123,-56,-1,-1,0
1523619024038,3014656,123,-56,-1,-1,0
1523619024038,2621440,123,-56,-1,-1,0
1523619024038,2031616,123,-56,-1,-1,0
1523619024038,1441792,123,-56,-1,-1,0
1523619024078,983040,123,-56,-1,-1,0
1523619024078,655360,123,-56,-1,-1,0
1523619024078,327680,123,-56,-1,-1,0
1523619024078,131072,123,-56,-1,-1,0
1523619024078,0,123,-56,-1,-1,0
1523619024118,-131072,123,-56,-1,-1,0
1523619024118,-196608,123,-56,-1,-1,0
1523619024118,-327680,123,-56,-1,-1,0
1523619024118,-458752,123,-56,-1,-1,0
1523619024118,-524288,123,-56,-1,-1,0
1523619024158,-655360,123,-56,-1,-1,0
1523619024158,-720896,123,-56,-1,-1,0
1523619024158,-851968,123,-56,-1,-1,0
1523619024158,-917504,123,-56,-1,-1,0
1523619024158,-1048576,123,-56,-1,-1,0
1523619024198,-1114112,123,-56,-1,-1,0
1523619024198,-1048576,123,-56,-1,-1,0
1523619024198,-851968,123,-56,-1,-1,0
1523619024198,-589824,123,-56,-1,-1,0
1523619024198,-524288,123,-56,-1,-1,0
1523619024238,-524288,123,-56,-1,-1,0
1523619024238,-655360,123,-56,-1,-1,0
1523619024238,-851968,123,-56,-1,-1,0
1523619024238,-1048576,123,-56,-1,-1,0
1523619024238,-1179648,123,-56,-1,-1,0
1523619024278,-1245184,123,-56,-1,-1,0
1523619024278,-1310720,123,-56,-1,-1,0
1523619024278,-1310720,123,-56,-1,-1,0
1523619024278,-1507328,123,-56,-1,-1,0
1523619024278,-1638400,123,-56,-1,-1,0
1523619024318,-720896,123,-56,-1,-1,0
1523619024318,1376256,123,-56,-1,-1,0
1523619024318,3080192,123,-56,-1,-1,0
1523619024318,1966080,123,-56,-1,-1,0
1523619024318,-1703936,123,-56,-1,-1,0
1523619024358,-4653056,123,-56,-1,-1,0
1523619024358,-4718592,123,-56,-1,-1,0
1523619024358,-3080192,123,-56,-1,-1,0
1523619024358,-1835008,123,-56,-1,-1,0
1523619024358,-1245184,123,-56,-1,-1,0
1523619024398,-1048576,123,-56,-1,-1,0
1523619024398,-983040,123,-56,-1,-1,0
1523619024398,-851968,123,-56,-1,-1,0
1523619024398,-720896,123,-56,-1,-1,0
1523619024398,-589824,123,-56,-1,-1,0
1523619024438,-393216,123,-56,-1,-1,0
1523619024438,-65536,123,-56,-1,-1,0
1523619024438,196608,123,-56,-1,-1,0
1523619024438,524288,123,-56,-1,-1,0
1523619024438,983040,123,-56,-1,-1,0
1523619024478,1507328,123,-56,-1,-1,0
1523619024478,2031616,123,-56,-1,-1,0
1523619024478,2621440,123,-56,-1,-1,0
1523619024478,3080192,123,-56,-1,-1,0
1523619024478,3473408,123,-56,-1,-1,0
1523619024518,3670016,123,-56,-1,-1,0
1523619024518,3670016,123,-56,-1,-1,0
1523619024518,3407872,123,-56,-1,-1,0
1523619024518,3080192,123,-56,-1,-1,0
1523619024518,2555904,123,-56,-1,-1,0
1523619024558,2031616,123,-56,-1,-1,0
1523619024558,1572864,123,-56,-1,-1,0
1523619024558,1245184,123,-56,-1,-1,0
1523619024558,983040,123,-56,-1,-1,0
1523619024558,786432,123,-56,-1,-1,0
1523619024599,720896,122,-56,-1,-1,0
1523619024599,524288,122,-56,-1,-1,0
1523619024599,393216,122,-56,-1,-1,0
1523619024599,327680,122,-56,-1,-1,0
1523619024599,262144,122,-56,-1,-1,0
1523619024638,196608,122,-56,-1,-1,0
1523619024638,65536,122,-56,-1,-1,0
1523619024638,0,122,-56,-1,-1,0
1523619024638,-131072,122,-56,-1,-1,0
1523619024638,-262144,122,-56,-1,-1,0
1523619024678,-393216,122,-56,-1,-1,0
1523619024678,-458752,122,-56,-1,-1,0
1523619024678,-393216,122,-56,-1,-1,0
1523619024678,-196608,122,-56,-1,-1,0
1523619024678,0,122,-56,-1,-1,0
1523619024718,65536,122,-56,-1,-1,0
1523619024718,131072,122,-56,-1,-1,0
1523619024718,0,122,-56,-1,-1,0
1523619024718,-65536,122,-56,-1,-1,0
1523619024718,-262144,122,-56,-1,-1,0
1523619024758,-393216,122,-56,-1,-1,0
1523619024758,-524288,122,-56,-1,-1,0
1523619024758,-524288,122,-56,-1,-1,0
1523619024758,-589824,122,-56,-1,-1,0
1523619024758,-786432,122,-56,-1,-1,0
1523619024798,-917504,122,-56,-1,-1,0
1523619024798,-131072,122,-56,-1,-1,0
1523619024798,1769472,122,-56,-1,-1,0
1523619024798,3670016,122,-56,-1,-1,0
1523619024798,3145728,122,-56,-1,-1,0
1523619024838,0,122,-56,-1,-1,0
1523619024838,-3080192,122,-56,-1,-1,0
1523619024838,-3670016,122,-56,-1,-1,0
1523619024838,-2359296,122,-56,-1,-1,0
1523619024838,-1245184,122,-56,-1,-1,0
1523619024878,-786432,122,-56,-1,-1,0
1523619024878,-720896,122,-56,-1,-1,0
1523619024878,-655360,122,-56,-1,-1,0
1523619024878,-524288,122,-56,-1,-1,0
1523619024878,-393216,122,-56,-1,-1,0
1523619024918,-262144,122,-56,-1,-1,0
1523619024918,-131072,122,-56,-1,-1,0
1523619024918,65536,122,-56,-1,-1,0
1523619024918,262144,122,-56,-1,-1,0
1523619024918,589824,122,-56,-1,-1,0
1523619024958,983040,122,-56,-1,-1,0
1523619024958,1441792,122,-56,-1,-1,0
1523619024958,1900544,122,-56,-1,-1,0
1523619024958,2424832,122,-56,-1,-1,0
1523619024958,2883584,122,-56,-1,-1,0
1523619024997,3145728,122,-56,-1,-1,0
1523619024997,3211264,122,-56,-1,-1,0
1523619024997,3211264,122,-56,-1,-1,0
1523619024997,3080192,122,-56,-1,-1,0
1523619024997,2686976,122,-56,-1,-1,0
1523619025038,2162688,122,-56,-1,-1,0
1523619025038,1638400,122,-56,-1,-1,0
1523619025038,1179648,122,-56,-1,-1,0
1523619025038,786432,122,-56,-1,-1,0
1523619025038,458752,122,-56,-1,-1,0
1523619025078,262144,122,-56,-1,-1,0
1523619025078,131072,122,-56,-1,-1,0
1523619025078,65536,122,-56,-1,-1,0
1523619025078,0,122,-56,-1,-1,0
1523619025078,-131072,122,-56,-1,-1,0
1523619025118,-196608,122,-56,-1,-1,0
1523619025118,-327680,122,-56,-1,-1,0
1523619025118,-393216,122,-56,-1,-1,0
1523619025118,-524288,122,-56,-1,-1,0
1523619025118,-589824,122,-56,-1,-1,0
1523619025158,-720896,122,-56,-1,-1,0
1523619025158,-917504,122,-56,-1,-1,0
1523619025158,-1048576,122,-56,-1,-1,0
1523619025158,-983040,122,-56,-1,-1,0
1523619025158,-720896,122,-56,-1,-1,0
1523619025198,-524288,122,-56,-1,-1,0
1523619025198,-458752,122,-56,-1,-1,0
1523619025198,-524288,122,-56,-1,-1,0
1523619025198,-589824,122,-56,-1,-1,0
1523619025198,-786432,122,-56,-1,-1,0
1523619025239,-983040,122,-56,-1,-1,0
1523619025239,-1114112,122,-56,-1,-1,0
1523619025239,-1179648,122,-56,-1,-1,0
1523619025239,-1245184,122,-56,-1,-1,0
1523619025239,-1245184,122,-56,-1,-1,0
1523619025279,-1441792,122,-56,-1,-1,0
1523619025279,-1703936,122,-56,-1,-1,0
1523619025279,-1310720,122,-56,-1,-1,0
1523619025279,131072,122,-56,-1,-1,0
1523619025279,1572864,122,-56,-1,-1,0
1523619025318,720896,122,-56,-1,-1,0
1523619025318,-1966080,122,-56,-1,-1,0
1523619025318,-4325376,122,-56,-1,-1,0
1523619025318,-4587520,122,-56,-1,-1,0
1523619025318,-3211264,122,-56,-1,-1,0
1523619025358,-1900544,122,-56,-1,-1,0
1523619025358,-1179648,122,-56,-1,-1,0
1523619025358,-917504,122,-56,-1,-1,0
1523619025358,-786432,122,-56,-1,-1,0
1523619025358,-720896,122,-56,-1,-1,0
1523619025398,-589824,122,-56,-1,-1,0
1523619025398,-393216,122,-56,-1,-1,0
1523619025398,-131072,122,-56,-1,-1,0
1523619025398,0,122,-56,-1,-1,0
1523619025398,262144,122,-56,-1,-1,0
1523619025438,655360,122,-56,-1,-1,0
1523619025438,1114112,122,-56,-1,-1,0
1523619025438,1572864,122,-56,-1,-1,0
1523619025438,2031616,122,-56,-1,-1,0
1523619025438,2555904,122,-56,-1,-1,0
1523619025478,3145728,122,-56,-1,-1,0
1523619025478,3473408,122,-56,-1,-1,0
1523619025478,3670016,122,-56,-1,-1,0
1523619025478,3801088,122,-56,-1,-1,0
1523619025478,3670016,122,-56,-1,-1,0
1523619025518,3473408,122,-56,-1,-1,0
1523619025518,3080192,122,-56,-1,-1,0
1523619025518,2555904,122,-56,-1,-1,0
1523619025518,2031616,122,-56,-1,-1,0
1523619025518,1572864,122,-56,-1,-1,0
1523619025558,1179648,122,-56,-1,-1,0
1523619025558,917504,122,-56,-1,-1,0
1523619025558,786432,122,-56,-1,-1,0
1523619025558,655360,122,-56,-1,-1,0
1523619025558,589824,122,-56,-1,-1,0
1523619025598,524288,122,-56,-1,-1,0
1523619025598,393216,122,-56,-1,-1,0
1523619025598,327680,122,-56,-1,-1,0
1523619025598,262144,122,-56,-1,-1,0
1523619025598,131072,122,-56,-1,-1,0
1523619025638,65536,122,-56,-1,-1,0
1523619025638,0,122,-56,-1,-1,0
1523619025638,-131072,122,-56,-1,-1,0
1523619025638,-131072,122,-56,-1,-1,0
1523619025638,0,122,-56,-1,-1,0
1523619025678,131072,122,-56,-1,-1,0
1523619025678,131072,122,-56,-1,-1,0
1523619025678,131072,122,-56,-1,-1,0
1523619025678,0,122,-56,-1,-1,0
1523619025678,-131072,122,-56,-1,-1,0
1523619025718,-262144,122,-56,-1,-1,0
1523619025718,-393216,122,-56,-1,-1,0
1523619025718,-524288,122,-56,-1,-1,0
1523619025718,-655360,122,-56,-1,-1,0
1523619025718,-655360,122,-56,-1,-1,0
1523619025758,-786432,122,-56,-1,-1,0
1523619025758,-1114112,122,-56,-1,-1,0
1523619025758,-786432,122,-56,-1,-1,0
1523619025758,983040,122,-56,-1,-1,0
1523619025758,3604480,122,-56,-1,-1,0
1523619025798,4063232,122,-56,-1,-1,0
1523619025798,786432,122,-56,-1,-1,0
1523619025798,-3670016,122,-56,-1,-1,0
1523619025798,-5505024,122,-56,-1,-1,0
1523619025798,-4456448,122,-56,-1,-1,0
1523619025838,-2752512,122,-56,-1,-1,0
1523619025838,-1638400,122,-56,-1,-1,0
1523619025838,-1245184,122,-56,-1,-1,0
1523619025838,-1114112,122,-56,-1,-1,0
1523619025838,-1048576,122,-56,-1,-1,0
1523619025879,-1048576,122,-56,-1,-1,0
1523619025879,-983040,122,-56,-1,-1,0
1523619025879,-720896,122,-56,-1,-1,0
1523619025879,-458752,122,-56,-1,-1,0
1523619025879,-131072,122,-56,-1,-1,0
1523619025918,131072,122,-56,-1,-1,0
1523619025918,524288,122,-56,-1,-1,0
1523619025918,983040,122,-56,-1,-1,0
1523619025918,1507328,122,-56,-1,-1,0
1523619025918,2097152,122,-56,-1,-1,0
1523619025958,2686976,122,-56,-1,-1,0
1523619025958,3211264,122,-56,-1,-1,0
1523619025958,3604480,122,-56,-1,-1,0
1523619025958,3670016,122,-56,-1,-1,0
1523619025958,3473408,122,-56,-1,-1,0
1523619025998,3145728,122,-56,-1,-1,0
1523619025998,2555904,122,-56,-1,-1,0
1523619025998,1835008,122,-56,-1,-1,0
1523619025998,1048576,122,-56,-1,-1,0
1523619025998,458752,122,-56,-1,-1,0
1523619026038,65536,122,-56,-1,-1,0
1523619026038,-262144,122,-56,-1,-1,0
1523619026038,-458752,122,-56,-1,-1,0
1523619026038,-524288,122,-56,-1,-1,0
1523619026038,-458752,122,-56,-1,-1,0
1523619026078,-458752,122,-56,-1,-1,0
1523619026078,-524288,122,-56,-1,-1,0
1523619026078,-589824,122,-56,-1,-1,0
1523619026078,-786432,122,-56,-1,-1,0
1523619026078,-851968,122,-56,-1,-1,0
1523619026118,-917504,122,-56,-1,-1,0
1523619026118,-983040,122,-56,-1,-1,0
1523619026118,-1179648,122,-56,-1,-1,0
1523619026118,-1245184,122,-56,-1,-1,0
1523619026118,-1114112,122,-56,-1,-1,0
1523619026158,-851968,122,-56,-1,-1,0
1523619026158,-786432,122,-56,-1,-1,0
1523619026158,-917504,122,-56,-1,-1,0
1523619026158,-1114112,122,-56,-1,-1,0
1523619026158,-1310720,122,-56,-1,-1,0
1523619026198,-1572864,122,-56,-1,-1,0
1523619026198,-1769472,122,-56,-1,-1,0
1523619026198,-1835008,122,-56,-1,-1,0
1523619026198,-1835008,122,-56,-1,-1,0
1523619026198,-1900544,122,-56,-1,-1,0
1523619026238,-2097152,122,-56,-1,-1,0
1523619026238,-1835008,122,-56,-1,-1,0
1523619026238,0,122,-56,-1,-1,0
1523619026238,3211264,122,-56,-1,-1,0
1523619026238,5111808,122,-56,-1,-1,0
1523619026278,2555904,122,-56,-1,-1,0
1523619026278,-2883584,122,-56,-1,-1,0
1523619026278,-6422528,122,-56,-1,-1,0
1523619026278,-6094848,122,-56,-1,-1,0
1523619026278,-4128768,122,-56,-1,-1,0
1523619026318,-2686976,122,-56,-1,-1,0
1523619026318,-2031616,122,-56,-1,-1,0
1523619026318,-1638400,122,-56,-1,-1,0
1523619026318,-1441792,122,-56,-1,-1,0
1523619026318,-1310720,122,-56,-1,-1,0
1523619026358,-1179648,122,-56,-1,-1,0
1523619026358,-917504,122,-56,-1,-1,0
1523619026358,-720896,122,-56,-1,-1,0
1523619026358,-393216,122,-56,-1,-1,0
1523619026358,-131072,122,-56,-1,-1,0
1523619026398,65536,122,-56,-1,-1,0
1523619026398,458752,122,-56,-1,-1,0
1523619026398,1048576,122,-56,-1,-1,0
1523619026398,1769472,122,-56,-1,-1,0
1523619026398,2490368,122,-56,-1,-1,0
1523619026438,3145728,122,-56,-1,-1,0
1523619026438,3473408,122,-56,-1,-1,0
1523619026438,3538944,122,-56,-1,-1,0
1523619026438,3407872,122,-56,-1,-1,0
1523619026438,3014656,122,-56,-1,-1,0
1523619026478,2490368,122,-56,-1,-1,0
1523619026478,1769472,122,-56,-1,-1,0
1523619026478,917504,122,-56,-1,-1,0
1523619026478,131072,122,-56,-1,-1,0
1523619026478,-393216,122,-56,-1,-1,0
1523619026519,-720896,122,-56,-1,-1,0
1523619026519,-851968,122,-56,-1,-1,0
1523619026519,-851968,122,-56,-1,-1,0
1523619026519,-786432,122,-56,-1,-1,0
1523619026519,-720896,122,-56,-1,-1,0
1523619026558,-720896,122,-56,-1,-1,0
1523619026558,-720896,122,-56,-1,-1,0
1523619026558,-786432,122,-56,-1,-1,0
1523619026558,-917504,122,-56,-1,-1,0
1523619026558,-1048576,122,-56,-1,-1,0
1523619026598,-1114112,122,-56,-1,-1,0
1523619026598,-1179648,122,-56,-1,-1,0
1523619026598,-1114112,122,-56,-1,-1,0
1523619026598,-983040,122,-56,-1,-1,0
1523619026598,-917504,122,-56,-1,-1,0
1523619026638,-917504,122,-56,-1,-1,0
1523619026638,-983040,122,-56,-1,-1,0
1523619026638,-1114112,122,-56,-1,-1,0
1523619026638,-1441792,122,-56,-1,-1,0
1523619026638,-1703936,122,-56,-1,-1,0
1523619026678,-1835008,122,-56,-1,-1,0
1523619026678,-1900544,122,-56,-1,-1,0
1523619026678,-1900544,122,-56,-1,-1,0
1523619026678,-1966080,122,-56,-1,-1,0
1523619026678,-2162688,122,-56,-1,-1,0
1523619026718,-1835008,122,-56,-1,-1,0
1523619026718,196608,122,-56,-1,-1,0
1523619026718,3407872,122,-56,-1,-1,0
1523619026718,4390912,122,-56,-1,-1,0
1523619026718,917504,122,-56,-1,-1,0
1523619026758,-4325376,122,-56,-1,-1,0
1523619026758,-6881280,122,-56,-1,-1,0
1523619026758,-5767168,122,-56,-1,-1,0
1523619026758,-3670016,122,-56,-1,-1,0
1523619026758,-2359296,122,-56,-1,-1,0
1523619026798,-1835008,122,-56,-1,-1,0
1523619026798,-1638400,122,-56,-1,-1,0
1523619026798,-1441792,122,-56,-1,-1,0
1523619026798,-1310720,122,-56,-1,-1,0
1523619026798,-1179648,122,-56,-1,-1,0
1523619026838,-917504,122,-56,-1,-1,0
1523619026838,-720896,122,-56,-1,-1,0
1523619026838,-458752,122,-56,-1,-1,0
1523619026838,-131072,122,-56,-1,-1,0
1523619026838,196608,122,-56,-1,-1,0
1523619026878,655360,122,-56,-1,-1,0
1523619026878,1310720,122,-56,-1,-1,0
1523619026878,1966080,122,-56,-1,-1,0
1523619026878,2621440,122,-56,-1,-1,0
1523619026878,3080192,122,-56,-1,-1,0
1523619026918,3342336,122,-56,-1,-1,0
1523619026918,3342336,122,-56,-1,-1,0
1523619026918,3211264,122,-56,-1,-1,0
1523619026918,2883584,122,-56,-1,-1,0
1523619026918,2424832,122,-56,-1,-1,0
1523619026958,1835008,122,-56,-1,-1,0
1523619026958,1310720,122,-56,-1,-1,0
1523619026958,851968,122,-56,-1,-1,0
1523619026958,458752,122,-56,-1,-1,0
1523619026958,262144,122,-56,-1,-1,0
1523619026998,65536,123,-56,-1,-1,0
1523619026998,0,123,-56,-1,-1,0
1523619026998,0,123,-56,-1,-1,0
1523619026998,0,123,-56,-1,-1,0
1523619026998,-65536,123,-56,-1,-1,0
1523619027038,-131072,123,-56,-1,-1,0
1523619027038,-196608,123,-56,-1,-1,0
1523619027038,-327680,123,-56,-1,-1,0
1523619027038,-458752,123,-56,-1,-1,0
1523619027038,-589824,123,-56,-1,-1,0
1523619027078,-720896,123,-56,-1,-1,0
1523619027078,-851968,123,-56,-1,-1,0
1523619027078,-720896,123,-56,-1,-1,0
1523619027078,-524288,123,-56,-1,-1,0
1523619027078,-327680,123,-56,-1,-1,0
1523619027118,-262144,123,-56,-1,-1,0
1523619027118,-393216,123,-56,-1,-1,0
1523619027118,-524288,123,-56,-1,-1,0
1523619027118,-720896,123,-56,-1,-1,0
1523619027118,-851968,123,-56,-1,-1,0
1523619027159,-983040,123,-56,-1,-1,0
1523619027159,-1048576,123,-56,-1,-1,0
1523619027159,-1179648,123,-56,-1,-1,0
1523619027159,-1245184,123,-56,-1,-1,0
1523619027159,-1441792,123,-56,-1,-1,0
1523619027198,-1507328,123,-56,-1,-1,0
1523619027198,-393216,123,-56,-1,-1,0
1523619027198,2031616,123,-56,-1,-1,0
1523619027198,3670016,123,-56,-1,-1,0
1523619027198,1966080,123,-56,-1,-1,0
1523619027238,-2097152,123,-56,-1,-1,0
1523619027238,-4784128,123,-56,-1,-1,0
1523619027238,-4587520,123,-56,-1,-1,0
1523619027238,-3014656,123,-56,-1,-1,0
1523619027238,-1835008,123,-56,-1,-1,0
1523619027278,-1310720,123,-56,-1,-1,0
1523619027278,-1048576,123,-56,-1,-1,0
1523619027278,-983040,123,-56,-1,-1,0
1523619027278,-917504,123,-56,-1,-1,0
1523619027278,-851968,123,-56,-1,-1,0
1523619027318,-655360,123,-56,-1,-1,0
1523619027318,-458752,123,-56,-1,-1,0
1523619027318,-262144,123,-56,-1,-1,0
1523619027318,0,123,-56,-1,-1,0
1523619027318,393216,123,-56,-1,-1,0
1523619027358,786432,123,-56,-1,-1,0
1523619027358,1310720,123,-56,-1,-1,0
1523619027358,1835008,123,-56,-1,-1,0
1523619027358,2293760,123,-56,-1,-1,0
1523619027358,2752512,123,-56,-1,-1,0
1523619027398,3014656,123,-56,-1,-1,0
1523619027398,3080192,123,-56,-1,-1,0
1523619027398,3014656,123,-56,-1,-1,0
1523619027398,2752512,123,-56,-1,-1,0
1523619027398,2359296,123,-56,-1,-1,0
1523619027438,1900544,123,-56,-1,-1,0
1523619027438,1376256,123,-56,-1,-1,0
1523619027438,851968,123,-56,-1,-1,0
1523619027438,458752,123,-56,-1,-1,0
1523619027438,196608,123,-56,-1,-1,0
1523619027478,0,123,-56,-1,-1,0
1523619027478,-65536,123,-56,-1,-1,0
1523619027478,-131072,123,-56,-1,-1,0
1523619027478,-196608,123,-56,-1,-1,0
1523619027478,-196608,123,-56,-1,-1,0
1523619027518,-327680,123,-56,-1,-1,0
1523619027518,-458752,123,-56,-1,-1,0
1523619027518,-524288,123,-56,-1,-1,0
1523619027518,-655360,123,-56,-1,-1,0
1523619027518,-786432,123,-56,-1,-1,0
1523619027558,-917504,123,-56,-1,-1,0
1523619027558,-1048576,123,-56,-1,-1,0
1523619027558,-983040,123,-56,-1,-1,0
1523619027558,-786432,123,-56,-1,-1,0
1523619027558,-655360,123,-56,-1,-1,0
1523619027598,-589824,123,-56,-1,-1,0
1523619027598,-589824,123,-56,-1,-1,0
1523619027598,-720896,123,-56,-1,-1,0
1523619027598,-917504,123,-56,-1,-1,0
1523619027598,-1114112,123,-56,-1,-1,0
1523619027638,-1245184,123,-56,-1,-1,0
1523619027638,-1376256,123,-56,-1,-1,0
1523619027638,-1441792,123,-56,-1,-1,0
1523619027638,-1507328,123,-56,-1,-1,0
1523619027638,-1703936,123,-56,-1,-1,0
1523619027678,-2031616,123,-56,-1,-1,0
1523619027678,-1900544,123,-56,-1,-1,0
1523619027678,-524288,123,-56,-1,-1,0
1523619027678,1507328,123,-56,-1,-1,0
1523619027678,1966080,123,-56,-1,-1,0
1523619027718,-196608,123,-56,-1,-1,0
1523619027718,-3407872,123,-56,-1,-1,0
1523619027718,-4784128,123,-56,-1,-1,0
1523619027718,-3932160,123,-56,-1,-1,0
1523619027718,-2555904,123,-56,-1,-1,0
1523619027758,-1769472,123,-56,-1,-1,0
1523619027758,-1572864,123,-56,-1,-1,0
1523619027758,-1441792,123,-56,-1,-1,0
1523619027758,-1310720,123,-56,-1,-1,0
1523619027758,-1114112,123,-56,-1,-1,0
1523619027799,-917504,123,-56,-1,-1,0
1523619027799,-720896,123,-56,-1,-1,0
1523619027799,-458752,123,-56,-1,-1,0
1523619027799,-196608,123,-56,-1,-1,0
1523619027799,131072,123,-56,-1,-1,0
1523619027838,524288,123,-56,-1,-1,0
1523619027838,917504,123,-56,-1,-1,0
1523619027838,1376256,123,-56,-1,-1,0
1523619027838,1966080,123,-56,-1,-1,0
1523619027838,2555904,123,-56,-1,-1,0
1523619027878,2949120,123,-56,-1,-1,0
1523619027878,3211264,123,-56,-1,-1,0
1523619027878,3276800,123,-56,-1,-1,0
1523619027878,3145728,123,-56,-1,-1,0
1523619027878,2883584,123,-56,-1,-1,0
1523619027918,2490368,123,-56,-1,-1,0
1523619027918,1966080,123,-56,-1,-1,0
1523619027918,1507328,123,-56,-1,-1,0
1523619027918,1048576,123,-56,-1,-1,0
1523619027918,786432,123,-56,-1,-1,0
1523619027958,589824,123,-56,-1,-1,0
1523619027958,458752,123,-56,-1,-1,0
1523619027958,393216,123,-56,-1,-1,0
1523619027958,393216,123,-56,-1,-1,0
1523619027958,393216,123,-56,-1,-1,0
1523619027998,393216,123,-56,-1,-1,0
1523619027998,327680,123,-56,-1,-1,0
1523619027998,262144,123,-56,-1,-1,0
1523619027998,196608,123,-56,-1,-1,0
1523619027998,65536,123,-56,-1,-1,0
1523619028038,0,123,-56,-1,-1,0
1523619028038,0,123,-56,-1,-1,0
1523619028038,0,123,-56,-1,-1,0
1523619028038,131072,123,-56,-1,-1,0
1523619028038,327680,123,-56,-1,-1,0
1523619028078,458752,123,-56,-1,-1,0
1523619028078,524288,123,-56,-1,-1,0
1523619028078,327680,123,-56,-1,-1,0
1523619028078,65536,123,-56,-1,-1,0
1523619028078,-65536,123,-56,-1,-1,0
1523619028118,-65536,123,-56,-1,-1,0
1523619028118,-131072,123,-56,-1,-1,0
1523619028118,-262144,123,-56,-1,-1,0
1523619028118,-393216,123,-56,-1,-1,0
1523619028118,-458752,123,-56,-1,-1,0
1523619028158,-655360,123,-56,-1,-1,0
1523619028158,-327680,123,-56,-1,-1,0
1523619028158,1507328,123,-56,-1,-1,0
1523619028158,4456448,123,-56,-1,-1,0
1523619028158,5505024,123,-56,-1,-1,0
1523619028198,2949120,123,-56,-1,-1,0
1523619028198,-1507328,123,-56,-1,-1,0
1523619028198,-3932160,123,-56,-1,-1,0
1523619028198,-3276800,123,-56,-1,-1,0
1523619028198,-1769472,123,-56,-1,-1,0
1523619028238,-917504,123,-56,-1,-1,0
1523619028238,-589824,123,-56,-1,-1,0
1523619028238,-393216,123,-56,-1,-1,0
1523619028238,-327680,123,-56,-1,-1,0
1523619028238,-196608,123,-56,-1,-1,0
1523619028278,-131072,123,-56,-1,-1,0
1523619028278,0,123,-56,-1,-1,0
1523619028278,196608,123,-56,-1,-1,0
1523619028278,458752,123,-56,-1,-1,0
1523619028278,851968,123,-56,-1,-1,0
1523619028318,1179648,123,-56,-1,-1,0
1523619028318,1638400,123,-56,-1,-1,0
1523619028318,2162688,123,-56,-1,-1,0
1523619028318,2686976,123,-56,-1,-1,0
1523619028318,3276800,123,-56,-1,-1,0
1523619028358,3735552,123,-56,-1,-1,0
1523619028358,3997696,123,-56,-1,-1,0
1523619028358,3997696,123,-56,-1,-1,0
1523619028358,3801088,123,-56,-1,-1,0
1523619028358,3473408,123,-56,-1,-1,0
1523619028398,2949120,123,-56,-1,-1,0
1523619028398,2424832,123,-56,-1,-1,0
1523619028398,1835008,123,-56,-1,-1,0
1523619028398,1310720,123,-56,-1,-1,0
1523619028398,917504,123,-56,-1,-1,0
1523619028439,589824,123,-56,-1,-1,0
1523619028439,393216,123,-56,-1,-1,0
1523619028439,262144,123,-56,-1,-1,0
1523619028439,196608,123,-56,-1,-1,0
1523619028439,131072,123,-56,-1,-1,0
1523619028478,65536,123,-56,-1,-1,0
1523619028478,65536,123,-56,-1,-1,0
1523619028478,0,123,-56,-1,-1,0
1523619028478,-196608,123,-56,-1,-1,0
1523619028478,-393216,123,-56,-1,-1,0
1523619028518,-524288,123,-56,-1,-1,0
1523619028518,-589824,123,-56,-1,-1,0
1523619028518,-589824,123,-56,-1,-1,0
1523619028518,-458752,123,-56,-1,-1,0
1523619028518,-327680,123,-56,-1,-1,0
1523619028558,-327680,123,-56,-1,-1,0
1523619028558,-458752,123,-56,-1,-1,0
1523619028558,-720896,123,-56,-1,-1,0
1523619028558,-983040,123,-56,-1,-1,0
1523619028558,-1245184,123,-56,-1,-1,0
1523619028598,-1376256,123,-56,-1,-1,0
1523619028598,-1441792,123,-56,-1,-1,0
1523619028598,-1507328,123,-56,-1,-1,0
1523619028598,-1638400,123,-56,-1,-1,0
1523619028598,-1900544,123,-56,-1,-1,0
1523619028638,-1703936,123,-56,-1,-1,0
1523619028638,0,123,-56,-1,-1,0
1523619028638,3407872,123,-56,-1,-1,0
1523619028638,5505024,123,-56,-1,-1,0
1523619028638,3276800,123,-56,-1,-1,0
1523619028678,-2097152,123,-56,-1,-1,0
1523619028678,-5832704,123,-56,-1,-1,0
1523619028678,-5767168,123,-56,-1,-1,0
1523619028678,-4063232,123,-56,-1,-1,0
1523619028678,-2818048,123,-56,-1,-1,0
1523619028718,-2293760,123,-56,-1,-1,0
1523619028718,-2031616,123,-56,-1,-1,0
1523619028718,-1966080,123,-56,-1,-1,0
1523619028718,-1835008,123,-56,-1,-1,0
1523619028718,-1703936,123,-56,-1,-1,0
1523619028758,-1572864,123,-56,-1,-1,0
1523619028758,-1376256,123,-56,-1,-1,0
1523619028758,-1114112,123,-56,-1,-1,0
1523619028758,-786432,123,-56,-1,-1,0
1523619028758,-524288,123,-56,-1,-1,0
1523619028798,-131072,123,-56,-1,-1,0
1523619028798,393216,123,-56,-1,-1,0
1523619028798,917504,123,-56,-1,-1,0
1523619028798,1572864,123,-56,-1,-1,0
1523619028798,2162688,123,-56,-1,-1,0
1523619028838,2424832,123,-56,-1,-1,0
1523619028838,2490368,123,-56,-1,-1,0
1523619028838,2359296,123,-56,-1,-1,0
1523619028838,2162688,123,-56,-1,-1,0
1523619028838,1835008,123,-56,-1,-1,0
1523619028878,1310720,123,-56,-1,-1,0
1523619028878,720896,123,-56,-1,-1,0
1523619028878,131072,123,-56,-1,-1,0
1523619028878,-327680,123,-56,-1,-1,0
1523619028878,-655360,123,-56,-1,-1,0
1523619028918,-786432,123,-56,-1,-1,0
1523619028918,-786432,123,-56,-1,-1,0
1523619028918,-786432,123,-56,-1,-1,0
1523619028918,-786432,123,-56,-1,-1,0
1523619028918,-786432,123,-56,-1,-1,0
1523619028958,-720896,123,-56,-1,-1,0
1523619028958,-786432,123,-56,-1,-1,0
1523619028958,-917504,123,-56,-1,-1,0
1523619028958,-1048576,123,-56,-1,-1,0
1523619028958,-1114112,123,-56,-1,-1,0
1523619028998,-1245184,123,-56,-1,-1,0
1523619028998,-1376256,123,-56,-1,-1,0
1523619028998,-1310720,123,-56,-1,-1,0
1523619028998,-1048576,123,-56,-1,-1,0
1523619028998,-917504,123,-56,-1,-1,0
1523619029038,-851968,123,-56,-1,-1,0
1523619029038,-983040,123,-56,-1,-1,0
1523619029038,-1114112,123,-56,-1,-1,0
1523619029038,-1310720,123,-56,-1,-1,0
1523619029038,-1507328,123,-56,-1,-1,0
1523619029079,-1638400,123,-56,-1,-1,0
1523619029079,-1703936,123,-56,-1,-1,0
1523619029079,-1703936,123,-56,-1,-1,0
1523619029079,-1769472,123,-56,-1,-1,0
1523619029079,-1966080,123,-56,-1,-1,0
1523619029118,-1638400,123,-56,-1,-1,0
1523619029118,393216,123,-56,-1,-1,0
1523619029118,3670016,123,-56,-1,-1,0
1523619029118,4784128,123,-56,-1,-1,0
1523619029118,1638400,123,-56,-1,-1,0
1523619029158,-3473408,123,-56,-1,-1,0
1523619029158,-6225920,123,-56,-1,-1,0
1523619029158,-5308416,123,-56,-1,-1,0
1523619029158,-3342336,123,-56,-1,-1,0
1523619029158,-2097152,123,-56,-1,-1,0
1523619029198,-1638400,123,-56,-1,-1,0
1523619029198,-1441792,123,-56,-1,-1,0
1523619029198,-1310720,123,-56,-1,-1,0
1523619029198,-1114112,123,-56,-1,-1,0
1523619029198,-983040,123,-56,-1,-1,0
1523619029238,-720896,123,-56,-1,-1,0
1523619029238,-524288,123,-56,-1,-1,0
1523619029238,-196608,123,-56,-1,-1,0
1523619029238,131072,123,-56,-1,-1,0
1523619029238,589824,123,-56,-1,-1,0
1523619029278,1048576,123,-56,-1,-1,0
1523619029278,1572864,123,-56,-1,-1,0
1523619029278,2162688,123,-56,-1,-1,0
1523619029278,2818048,123,-56,-1,-1,0
1523619029278,3276800,123,-56,-1,-1,0
1523619029318,3473408,123,-56,-1,-1,0
1523619029318,3538944,123,-56,-1,-1,0
1523619029318,3407872,123,-56,-1,-1,0
1523619029318,3211264,123,-56,-1,-1,0
1523619029318,2818048,123,-56,-1,-1,0
1523619029358,2293760,123,-56,-1,-1,0
1523619029358,1703936,123,-56,-1,-1,0
1523619029358,1310720,123,-56,-1,-1,0
1523619029358,1114112,123,-56,-1,-1,0
1523619029358,917504,123,-56,-1,-1,0
1523619029398,786432,122,-56,-1,-1,0
1523619029398,655360,122,-56,-1,-1,0
1523619029398,589824,122,-56,-1,-1,0
1523619029398,524288,122,-56,-1,-1,0
1523619029398,458752,122,-56,-1,-1,0
1523619029438,327680,122,-56,-1,-1,0
1523619029438,196608,122,-56,-1,-1,0
1523619029438,131072,122,-56,-1,-1,0
1523619029438,0,122,-56,-1,-1,0
1523619029438,-65536,122,-56,-1,-1,0
1523619029478,-196608,122,-56,-1,-1,0
1523619029478,-327680,122,-56,-1,-1,0
1523619029478,-393216,122,-56,-1,-1,0
1523619029478,-196608,122,-56,-1,-1,0
1523619029478,0,122,-56,-1,-1,0
1523619029518,0,122,-56,-1,-1,0
1523619029518,65536,122,-56,-1,-1,0
1523619029518,0,122,-56,-1,-1,0
1523619029518,-131072,122,-56,-1,-1,0
1523619029518,-393216,122,-56,-1,-1,0
1523619029558,-524288,122,-56,-1,-1,0
1523619029558,-655360,122,-56,-1,-1,0
1523619029558,-720896,122,-56,-1,-1,0
1523619029558,-786432,122,-56,-1,-1,0
1523619029558,-917504,122,-56,-1,-1,0
1523619029598,-1245184,122,-56,-1,-1,0
1523619029598,-1114112,122,-56,-1,-1,0
1523619029598,262144,122,-56,-1,-1,0
1523619029598,2752512,122,-56,-1,-1,0
1523619029598,3735552,122,-56,-1,-1,0
1523619029638,1572864,122,-56,-1,-1,0
1523619029638,-2359296,122,-56,-1,-1,0
1523619029638,-4390912,122,-56,-1,-1,0
1523619029638,-3670016,122,-56,-1,-1,0
1523619029638,-2097152,122,-56,-1,-1,0
1523619029678,-1179648,122,-56,-1,-1,0
1523619029678,-851968,122,-56,-1,-1,0
1523619029678,-720896,122,-56,-1,-1,0
1523619029678,-720896,122,-56,-1,-1,0
1523619029678,-589824,122,-56,-1,-1,0
1523619029719,-458752,122,-56,-1,-1,0
1523619029719,-327680,122,-56,-1,-1,0
1523619029719,-131072,122,-56,-1,-1,0
1523619029719,0,122,-56,-1,-1,0
1523619029719,262144,122,-56,-1,-1,0
1523619029758,655360,122,-56,-1,-1,0
1523619029758,983040,122,-56,-1,-1,0
1523619029758,1441792,122,-56,-1,-1,0
1523619029758,1966080,122,-56,-1,-1,0
1523619029758,2424832,122,-56,-1,-1,0
1523619029798,2752512,122,-56,-1,-1,0
1523619029798,2949120,122,-56,-1,-1,0
1523619029798,2883584,122,-56,-1,-1,0
1523619029798,2752512,122,-56,-1,-1,0
1523619029798,2555904,122,-56,-1,-1,0
1523619029838,2162688,122,-56,-1,-1,0
1523619029838,1703936,122,-56,-1,-1,0
1523619029838,1179648,122,-56,-1,-1,0
1523619029838,720896,122,-56,-1,-1,0
1523619029838,458752,122,-56,-1,-1,0
1523619029878,262144,122,-56,-1,-1,0
1523619029878,131072,122,-56,-1,-1,0
1523619029878,0,122,-56,-1,-1,0
1523619029878,-65536,122,-56,-1,-1,0
1523619029878,-131072,122,-56,-1,-1,0
1523619029918,-196608,122,-56,-1,-1,0
1523619029918,-262144,122,-56,-1,-1,0
1523619029918,-393216,122,-56,-1,-1,0
1523619029918,-458752,122,-56,-1,-1,0
1523619029918,-589824,122,-56,-1,-1,0
1523619029958,-655360,122,-56,-1,-1,0
1523619029958,-786432,122,-56,-1,-1,0
1523619029958,-917504,122,-56,-1,-1,0
1523619029958,-917504,122,-56,-1,-1,0
1523619029958,-786432,122,-56,-1,-1,0
1523619029998,-524288,122,-56,-1,-1,0
1523619029998,-458752,122,-56,-1,-1,0
1523619029998,-393216,122,-56,-1,-1,0
1523619029998,-458752,122,-56,-1,-1,0
1523619029998,-655360,122,-56,-1,-1,0
1523619030038,-786432,122,-56,-1,-1,0
1523619030038,-983040,122,-56,-1,-1,0
1523619030038,-1048576,122,-56,-1,-1,0
1523619030038,-1114112,122,-56,-1,-1,0
1523619030038,-1114112,122,-56,-1,-1,0
1523619030078,-1179648,122,-56,-1,-1,0
1523619030078,-1441792,122,-56,-1,-1,0
1523619030078,-1638400,122,-56,-1,-1,0
1523619030078,-851968,122,-56,-1,-1,0
1523619030078,851968,122,-56,-1,-1,0
1523619030118,2162688,122,-56,-1,-1,0
1523619030118,1310720,122,-56,-1,-1,0
1523619030118,-1638400,122,-56,-1,-1,0
1523619030118,-3997696,122,-56,-1,-1,0
1523619030118,-4063232,122,-56,-1,-1,0
1523619030158,-2555904,122,-56,-1,-1,0
1523619030158,-1441792,122,-56,-1,-1,0
1523619030158,-1048576,122,-56,-1,-1,0
1523619030158,-917504,122,-56,-1,-1,0
1523619030158,-786432,122,-56,-1,-1,0
1523619030198,-720896,122,-56,-1,-1,0
1523619030198,-524288,122,-56,-1,-1,0
1523619030198,-327680,122,-56,-1,-1,0
1523619030198,-131072,122,-56,-1,-1,0
1523619030198,65536,122,-56,-1,-1,0
1523619030238,393216,122,-56,-1,-1,0
1523619030238,720896,122,-56,-1,-1,0
1523619030238,1114112,122,-56,-1,-1,0
1523619030238,1507328,122,-56,-1,-1,0
1523619030238,1966080,122,-56,-1,-1,0
1523619030278,2490368,122,-56,-1,-1,0
1523619030278,2883584,122,-56,-1,-1,0
1523619030278,3145728,122,-56,-1,-1,0
1523619030278,3276800,122,-56,-1,-1,0
1523619030278,3276800,122,-56,-1,-1,0
1523619030318,3080192,122,-56,-1,-1,0
1523619030318,2752512,122,-56,-1,-1,0
1523619030318,2359296,122,-56,-1,-1,0
1523619030318,1835008,122,-56,-1,-1,0
1523619030318,1376256,122,-56,-1,-1,0
1523619030359,983040,122,-56,-1,-1,0
1523619030359,720896,122,-56,-1,-1,0
1523619030359,589824,122,-56,-1,-1,0
1523619030359,458752,122,-56,-1,-1,0
1523619030359,458752,122,-56,-1,-1,0
1523619030398,458752,122,-56,-1,-1,0
1523619030398,393216,122,-56,-1,-1,0
1523619030398,327680,122,-56,-1,-1,0
1523619030398,196608,122,-56,-1,-1,0
1523619030398,131072,122,-56,-1,-1,0
1523619030438,65536,122,-56,-1,-1,0
1523619030438,0,122,-56,-1,-1,0
1523619030438,-65536,122,-56,-1,-1,0
1523619030438,-196608,122,-56,-1,-1,0
1523619030438,-196608,122,-56,-1,-1,0
1523619030478,-131072,122,-56,-1,-1,0
1523619030478,0,122,-56,-1,-1,0
1523619030478,65536,122,-56,-1,-1,0
1523619030478,196608,122,-56,-1,-1,0
1523619030478,196608,122,-56,-1,-1,0
1523619030518,65536,122,-56,-1,-1,0
1523619030518,-131072,122,-56,-1,-1,0
1523619030518,-327680,122,-56,-1,-1,0
1523619030518,-524288,122,-56,-1,-1,0
1523619030518,-589824,122,-56,-1,-1,0
1523619030558,-655360,122,-56,-1,-1,0
1523619030558,-720896,122,-56,-1,-1,0
1523619030558,-917504,122,-56,-1,-1,0
1523619030558,-1114112,122,-56,-1,-1,0
1523619030558,-327680,122,-56,-1,-1,0
1523619030598,1966080,122,-56,-1,-1,0
1523619030598,4521984,122,-56,-1,-1,0
1523619030598,4259840,122,-56,-1,-1,0
1523619030598,524288,122,-56,-1,-1,0
1523619030598,-3604480,122,-56,-1,-1,0
1523619030638,-4849664,122,-56,-1,-1,0
1523619030638,-3538944,122,-56,-1,-1,0
1523619030638,-2031616,122,-56,-1,-1,0
1523619030638,-1245184,122,-56,-1,-1,0
1523619030638,-1048576,122,-56,-1,-1,0
1523619030678,-983040,122,-56,-1,-1,0
1523619030678,-851968,122,-56,-1,-1,0
1523619030678,-720896,122,-56,-1,-1,0
1523619030678,-589824,122,-56,-1,-1,0
1523619030678,-458752,122,-56,-1,-1,0
1523619030718,-196608,122,-56,-1,-1,0
1523619030718,0,122,-56,-1,-1,0
1523619030718,327680,122,-56,-1,-1,0
1523619030718,655360,122,-56,-1,-1,0
1523619030718,983040,122,-56,-1,-1,0
1523619030758,1572864,122,-56,-1,-1,0
1523619030758,2162688,122,-56,-1,-1,0
1523619030758,2686976,122,-56,-1,-1,0
1523619030758,3080192,122,-56,-1,-1,0
1523619030758,3276800,122,-56,-1,-1,0
1523619030798,3211264,122,-56,-1,-1,0
1523619030798,2949120,122,-56,-1,-1,0
1523619030798,2686976,122,-56,-1,-1,0
1523619030798,2228224,122,-56,-1,-1,0
1523619030798,1703936,122,-56,-1,-1,0
1523619030838,1114112,122,-56,-1,-1,0
1523619030838,589824,122,-56,-1,-1,0
1523619030838,196608,122,-56,-1,-1,0
1523619030838,0,122,-56,-1,-1,0
1523619030838,-65536,122,-56,-1,-1,0
1523619030878,-262144,122,-56,-1,-1,0
1523619030878,-393216,122,-56,-1,-1,0
1523619030878,-458752,122,-56,-1,-1,0
1523619030878,-524288,122,-56,-1,-1,0
1523619030878,-524288,122,-56,-1,-1,0
1523619030918,-655360,122,-56,-1,-1,0
1523619030918,-851968,122,-56,-1,-1,0
1523619030918,-983040,122,-56,-1,-1,0
1523619030918,-1048576,122,-56,-1,-1,0
1523619030918,-1114112,122,-56,-1,-1,0
1523619030958,-1310720,122,-56,-1,-1,0
1523619030958,-1376256,122,-56,-1,-1,0
1523619030958,-1245184,122,-56,-1,-1,0
1523619030958,-1048576,122,-56,-1,-1,0
1523619030958,-917504,122,-56,-1,-1,0
1523619030999,-851968,122,-56,-1,-1,0
1523619030999,-917504,122,-56,-1,-1,0
1523619030999,-1114112,122,-56,-1,-1,0
1523619030999,-1245184,122,-56,-1,-1,0
1523619030999,-1441792,122,-56,-1,-1,0
1523619031037,-1507328,122,-56,-1,-1,0
1523619031037,-1572864,122,-56,-1,-1,0
1523619031037,-1572864,122,-56,-1,-1,0
1523619031037,-1703936,122,-56,-1,-1,0
1523619031037,-1835008,122,-56,-1,-1,0
1523619031077,-1507328,122,-56,-1,-1,0
1523619031077,393216,122,-56,-1,-1,0
1523619031077,3473408,122,-56,-1,-1,0
1523619031077,4587520,122,-56,-1,-1,0
1523619031077,1638400,122,-56,-1,-1,0
1523619031117,-3342336,122,-56,-1,-1,0
1523619031117,-6160384,122,-56,-1,-1,0
1523619031117,-5308416,122,-56,-1,-1,0
1523619031117,-3342336,122,-56,-1,-1,0
1523619031117,-2031616,122,-56,-1,-1,0
1523619031157,-1507328,122,-56,-1,-1,0
1523619031157,-1310720,122,-56,-1,-1,0
1523619031157,-1179648,122,-56,-1,-1,0
1523619031157,-1048576,122,-56,-1,-1,0
1523619031157,-917504,122,-56,-1,-1,0
1523619031197,-786432,122,-56,-1,-1,0
1523619031197,-524288,122,-56,-1,-1,0
1523619031197,-196608,122,-56,-1,-1,0
1523619031197,0,122,-56,-1,-1,0
1523619031197,327680,122,-56,-1,-1,0
1523619031237,786432,122,-56,-1,-1,0
1523619031237,1310720,122,-56,-1,-1,0
1523619031237,1900544,122,-56,-1,-1,0
1523619031237,2424832,122,-56,-1,-1,0
1523619031237,2818048,122,-56,-1,-1,0
1523619031277,3080192,122,-56,-1,-1,0
1523619031277,3211264,122,-56,-1,-1,0
1523619031277,3080192,122,-56,-1,-1,0
1523619031277,2883584,122,-56,-1,-1,0
1523619031277,2490368,122,-56,-1,-1,0
1523619031317,2031616,122,-56,-1,-1,0
1523619031317,1441792,122,-56,-1,-1,0
1523619031317,983040,122,-56,-1,-1,0
1523619031317,655360,122,-56,-1,-1,0
1523619031317,524288,122,-56,-1,-1,0
1523619031357,393216,122,-56,-1,-1,0
1523619031357,262144,122,-56,-1,-1,0
1523619031357,65536,122,-56,-1,-1,0
1523619031357,0,122,-56,-1,-1,0
1523619031357,0,122,-56,-1,-1,0
1523619031397,-65536,122,-56,-1,-1,0
1523619031397,-196608,122,-56,-1,-1,0
1523619031397,-262144,122,-56,-1,-1,0
1523619031397,-393216,122,-56,-1,-1,0
1523619031397,-524288,122,-56,-1,-1,0
1523619031437,-655360,122,-56,-1,-1,0
1523619031437,-786432,122,-56,-1,-1,0
1523619031437,-917504,122,-56,-1,-1,0
1523619031437,-917504,122,-56,-1,-1,0
1523619031437,-786432,122,-56,-1,-1,0
1523619031477,-589824,122,-56,-1,-1,0
1523619031477,-393216,122,-56,-1,-1,0
1523619031477,-393216,122,-56,-1,-1,0
1523619031477,-458752,122,-56,-1,-1,0
1523619031477,-655360,122,-56,-1,-1,0
1523619031519,-851968,122,-56,-1,-1,0
1523619031519,-983040,122,-56,-1,-1,0
1523619031519,-1114112,122,-56,-1,-1,0
1523619031519,-1179648,122,-56,-1,-1,0
1523619031519,-1245184,122,-56,-1,-1,0
1523619031557,-1376256,122,-56,-1,-1,0
1523619031557,-1638400,122,-56,-1,-1,0
1523619031557,-1376256,122,-56,-1,-1,0
1523619031557,327680,122,-56,-1,-1,0
1523619031557,2949120,122,-56,-1,-1,0
1523619031597,3735552,122,-56,-1,-1,0
1523619031597,1114112,122,-56,-1,-1,0
1523619031597,-3014656,122,-56,-1,-1,0
1523619031597,-5111808,122,-56,-1,-1,0
1523619031597,-4194304,122,-56,-1,-1,0
1523619031639,-2424832,122,-56,-1,-1,0
1523619031639,-1441792,122,-56,-1,-1,0
1523619031639,-1114112,122,-56,-1,-1,0
1523619031639,-983040,122,-56,-1,-1,0
1523619031639,-851968,122,-56,-1,-1,0
1523619031678,-720896,122,-56,-1,-1,0
1523619031678,-589824,122,-56,-1,-1,0
1523619031678,-393216,122,-56,-1,-1,0
1523619031678,-196608,122,-56,-1,-1,0
1523619031678,0,122,-56,-1,-1,0
1523619031718,196608,122,-56,-1,-1,0
1523619031718,524288,122,-56,-1,-1,0
1523619031718,983040,122,-56,-1,-1,0
1523619031718,1376256,122,-56,-1,-1,0
1523619031718,1900544,122,-56,-1,-1,0
1523619031758,2424832,122,-56,-1,-1,0
1523619031758,2818048,122,-56,-1,-1,0
1523619031758,3014656,122,-56,-1,-1,0
1523619031758,3014656,122,-56,-1,-1,0
1523619031758,2949120,122,-56,-1,-1,0
1523619031797,2752512,122,-56,-1,-1,0
1523619031797,2359296,122,-56,-1,-1,0
1523619031797,1900544,122,-56,-1,-1,0
1523619031797,1441792,122,-56,-1,-1,0
1523619031797,1048576,122,-56,-1,-1,0
1523619031838,720896,122,-56,-1,-1,0
1523619031838,524288,122,-56,-1,-1,0
1523619031838,327680,122,-56,-1,-1,0
1523619031838,196608,122,-56,-1,-1,0
1523619031838,131072,122,-56,-1,-1,0
1523619031878,0,122,-56,-1,-1,0
1523619031878,0,122,-56,-1,-1,0
1523619031878,-131072,122,-56,-1,-1,0
1523619031878,-196608,122,-56,-1,-1,0
1523619031878,-262144,122,-56,-1,-1,0
1523619031917,-327680,122,-56,-1,-1,0
1523619031917,-458752,122,-56,-1,-1,0
1523619031917,-589824,122,-56,-1,-1,0
1523619031917,-655360,122,-56,-1,-1,0
1523619031917,-786432,122,-56,-1,-1,0
1523619031957,-851968,122,-56,-1,-1,0
1523619031957,-720896,122,-56,-1,-1,0
1523619031957,-458752,122,-56,-1,-1,0
1523619031957,-327680,122,-56,-1,-1,0
1523619031957,-262144,122,-56,-1,-1,0
1523619031998,-262144,122,-56,-1,-1,0
1523619031998,-327680,122,-56,-1,-1,0
1523619031998,-524288,122,-56,-1,-1,0
1523619031998,-720896,122,-56,-1,-1,0
1523619031998,-851968,122,-56,-1,-1,0
1523619032038,-917504,122,-56,-1,-1,0
1523619032038,-983040,122,-56,-1,-1,0
1523619032038,-983040,122,-56,-1,-1,0
1523619032038,-1179648,122,-56,-1,-1,0
1523619032038,-1441792,122,-56,-1,-1,0
1523619032078,-1048576,122,-56,-1,-1,0
1523619032078,393216,122,-56,-1,-1,0
1523619032078,2031616,122,-56,-1,-1,0
1523619032078,1572864,122,-56,-1,-1,0
1523619032078,-983040,122,-56,-1,-1,0
1523619032117,-3801088,122,-56,-1,-1,0
1523619032117,-4587520,122,-56,-1,-1,0
1523619032117,-3342336,122,-56,-1,-1,0
1523619032117,-2097152,122,-56,-1,-1,0
1523619032117,-1376256,122,-56,-1,-1,0
1523619032157,-1245184,122,-56,-1,-1,0
1523619032157,-1114112,122,-56,-1,-1,0
1523619032157,-983040,122,-56,-1,-1,0
1523619032157,-851968,122,-56,-1,-1,0
1523619032157,-720896,122,-56,-1,-1,0
1523619032197,-589824,122,-56,-1,-1,0
1523619032197,-393216,122,-56,-1,-1,0
1523619032197,-131072,122,-56,-1,-1,0
1523619032197,131072,122,-56,-1,-1,0
1523619032197,458752,122,-56,-1,-1,0
1523619032238,851968,122,-56,-1,-1,0
1523619032238,1310720,122,-56,-1,-1,0
1523619032238,1769472,122,-56,-1,-1,0
1523619032238,2293760,122,-56,-1,-1,0
1523619032238,2621440,122,-56,-1,-1,0
1523619032279,2818048,122,-56,-1,-1,0
1523619032279,2818048,122,-56,-1,-1,0
1523619032279,2752512,122,-56,-1,-1,0
1523619032279,2490368,122,-56,-1,-1,0
1523619032279,2162688,122,-56,-1,-1,0
1523619032317,1703936,122,-56,-1,-1,0
1523619032317,1245184,122,-56,-1,-1,0
1523619032317,786432,122,-56,-1,-1,0
1523619032317,524288,122,-56,-1,-1,0
1523619032317,393216,122,-56,-1,-1,0
1523619032358,262144,122,-56,-1,-1,0
1523619032358,131072,122,-56,-1,-1,0
1523619032358,65536,122,-56,-1,-1,0
1523619032358,65536,122,-56,-1,-1,0
1523619032358,0,122,-56,-1,-1,0
1523619032398,0,122,-56,-1,-1,0
1523619032398,0,122,-56,-1,-1,0
1523619032398,-65536,122,-56,-1,-1,0
1523619032398,-131072,122,-56,-1,-1,0
1523619032398,-262144,122,-56,-1,-1,0
1523619032437,-327680,122,-56,-1,-1,0
1523619032437,-327680,122,-56,-1,-1,0
1523619032437,-393216,122,-56,-1,-1,0
1523619032437,-458752,122,-56,-1,-1,0
1523619032437,-327680,122,-56,-1,-1,0
1523619032477,-131072,122,-56,-1,-1,0
1523619032477,0,122,-56,-1,-1,0
1523619032477,196608,122,-56,-1,-1,0
1523619032477,196608,122,-56,-1,-1,0
1523619032477,65536,122,-56,-1,-1,0
1523619032517,-131072,122,-56,-1,-1,0
1523619032517,-327680,122,-56,-1,-1,0
1523619032517,-393216,122,-56,-1,-1,0
1523619032517,-524288,122,-56,-1,-1,0
1523619032517,-524288,122,-56,-1,-1,0
1523619032559,-589824,122,-56,-1,-1,0
1523619032559,-786432,122,-56,-1,-1,0
1523619032559,-851968,122,-56,-1,-1,0
1523619032559,0,122,-56,-1,-1,0
1523619032559,2228224,122,-56,-1,-1,0
1523619032597,4063232,122,-56,-1,-1,0
1523619032597,3145728,122,-56,-1,-1,0
1523619032597,-524288,122,-56,-1,-1,0
1523619032597,-3801088,122,-56,-1,-1,0
1523619032597,-4325376,122,-56,-1,-1,0
1523619032638,-2949120,122,-56,-1,-1,0
1523619032638,-1572864,122,-56,-1,-1,0
1523619032638,-917504,122,-56,-1,-1,0
1523619032638,-720896,122,-56,-1,-1,0
1523619032638,-655360,122,-56,-1,-1,0
1523619032678,-589824,122,-56,-1,-1,0
1523619032678,-393216,122,-56,-1,-1,0
1523619032678,-262144,122,-56,-1,-1,0
1523619032678,-65536,122,-56,-1,-1,0
1523619032678,65536,122,-56,-1,-1,0
1523619032718,327680,122,-56,-1,-1,0
1523619032718,655360,122,-56,-1,-1,0
1523619032718,1048576,122,-56,-1,-1,0
1523619032718,1507328,122,-56,-1,-1,0
1523619032718,2031616,122,-56,-1,-1,0
1523619032758,2490368,122,-56,-1,-1,0
1523619032758,3014656,122,-56,-1,-1,0
1523619032758,3407872,122,-56,-1,-1,0
1523619032758,3604480,122,-56,-1,-1,0
1523619032758,3670016,122,-56,-1,-1,0
1523619032798,3538944,122,-56,-1,-1,0
1523619032798,3211264,122,-56,-1,-1,0
1523619032798,2686976,122,-56,-1,-1,0
1523619032798,2097152,122,-56,-1,-1,0
1523619032798,1572864,122,-56,-1,-1,0
1523619032838,1179648,122,-56,-1,-1,0
1523619032838,917504,122,-56,-1,-1,0
1523619032838,655360,122,-56,-1,-1,0
1523619032838,458752,122,-56,-1,-1,0
1523619032838,262144,122,-56,-1,-1,0
1523619032877,131072,122,-56,-1,-1,0
1523619032877,65536,122,-56,-1,-1,0
1523619032877,0,122,-56,-1,-1,0
1523619032877,-65536,122,-56,-1,-1,0
1523619032877,-65536,122,-56,-1,-1,0
1523619032919,-131072,122,-56,-1,-1,0
1523619032919,-262144,122,-56,-1,-1,0
1523619032919,-458752,122,-56,-1,-1,0
1523619032919,-655360,122,-56,-1,-1,0
1523619032919,-786432,122,-56,-1,-1,0
1523619032957,-786432,122,-56,-1,-1,0
1523619032957,-851968,122,-56,-1,-1,0
1523619032957,-720896,122,-56,-1,-1,0
1523619032957,-524288,122,-56,-1,-1,0
1523619032957,-393216,122,-56,-1,-1,0
1523619032997,-458752,122,-56,-1,-1,0
1523619032997,-524288,122,-56,-1,-1,0
1523619032997,-655360,122,-56,-1,-1,0
1523619032997,-851968,122,-56,-1,-1,0
1523619032997,-983040,122,-56,-1,-1,0
1523619033038,-1179648,122,-56,-1,-1,0
1523619033038,-1310720,122,-56,-1,-1,0
1523619033038,-1376256,122,-56,-1,-1,0
1523619033038,-1441792,122,-56,-1,-1,0
1523619033038,-1572864,122,-56,-1,-1,0
1523619033077,-1572864,122,-56,-1,-1,0
1523619033077,-393216,122,-56,-1,-1,0
1523619033077,2490368,122,-56,-1,-1,0
1523619033077,5177344,122,-56,-1,-1,0
1523619033077,4063232,122,-56,-1,-1,0
1523619033117,-720896,122,-56,-1,-1,0
1523619033117,-5177344,122,-56,-1,-1,0
1523619033117,-5963776,122,-56,-1,-1,0
1523619033117,-4259840,122,-56,-1,-1,0
1523619033117,-2621440,122,-56,-1,-1,0
1523619033158,-1835008,122,-56,-1,-1,0
1523619033158,-1572864,122,-56,-1,-1,0
1523619033158,-1441792,122,-56,-1,-1,0
1523619033158,-1376256,122,-56,-1,-1,0
1523619033158,-1245184,122,-56,-1,-1,0
1523619033197,-1048576,122,-56,-1,-1,0
1523619033197,-851968,122,-56,-1,-1,0
1523619033197,-589824,122,-56,-1,-1,0
1523619033197,-393216,122,-56,-1,-1,0
1523619033197,-65536,122,-56,-1,-1,0
1523619033237,262144,122,-56,-1,-1,0
1523619033237,720896,122,-56,-1,-1,0
1523619033237,1245184,122,-56,-1,-1,0
1523619033237,1835008,122,-56,-1,-1,0
1523619033237,2293760,122,-56,-1,-1,0
1523619033277,2686976,122,-56,-1,-1,0
1523619033277,3014656,122,-56,-1,-1,0
1523619033277,3014656,122,-56,-1,-1,0
1523619033277,2883584,122,-56,-1,-1,0
1523619033277,2555904,122,-56,-1,-1,0
1523619033318,2162688,122,-56,-1,-1,0
1523619033318,1572864,122,-56,-1,-1,0
1523619033318,983040,122,-56,-1,-1,0
1523619033318,458752,122,-56,-1,-1,0
1523619033318,65536,122,-56,-1,-1,0
1523619033358,-65536,122,-56,-1,-1,0
1523619033358,-262144,122,-56,-1,-1,0
1523619033358,-327680,122,-56,-1,-1,0
1523619033358,-393216,122,-56,-1,-1,0
1523619033358,-458752,122,-56,-1,-1,0
1523619033398,-524288,122,-56,-1,-1,0
1523619033398,-589824,122,-56,-1,-1,0
1523619033398,-655360,122,-56,-1,-1,0
1523619033398,-786432,122,-56,-1,-1,0
1523619033398,-917504,122,-56,-1,-1,0
1523619033437,-1048576,122,-56,-1,-1,0
1523619033437,-1179648,122,-56,-1,-1,0
1523619033437,-1245184,122,-56,-1,-1,0
1523619033437,-1310720,122,-56,-1,-1,0
1523619033437,-1376256,122,-56,-1,-1,0
1523619033477,-1245184,122,-56,-1,-1,0
1523619033477,-1114112,122,-56,-1,-1,0
1523619033477,-983040,122,-56,-1,-1,0
1523619033477,-851968,122,-56,-1,-1,0
1523619033477,-786432,122,-56,-1,-1,0
1523619033517,-917504,122,-56,-1,-1,0
1523619033517,-1179648,122,-56,-1,-1,0
1523619033517,-1310720,122,-56,-1,-1,0
1523619033517,-1441792,122,-56,-1,-1,0
1523619033517,-1507328,122,-56,-1,-1,0
1523619033559,-1572864,122,-56,-1,-1,0
1523619033559,-1638400,122,-56,-1,-1,0
1523619033559,-1703936,122,-56,-1,-1,0
1523619033559,-1703936,122,-56,-1,-1,0
1523619033559,-589824,122,-56,-1,-1,0
1523619033597,2162688,122,-56,-1,-1,0
1523619033597,4849664,122,-56,-1,-1,0
1523619033597,3997696,122,-56,-1,-1,0
1523619033597,-589824,122,-56,-1,-1,0
1523619033597,-5046272,122,-56,-1,-1,0
1523619033637,-6094848,122,-56,-1,-1,0
1523619033637,-4325376,122,-56,-1,-1,0
1523619033637,-2555904,122,-56,-1,-1,0
1523619033637,-1703936,122,-56,-1,-1,0
1523619033637,-1376256,122,-56,-1,-1,0
1523619033677,-1245184,122,-56,-1,-1,0
1523619033677,-1048576,122,-56,-1,-1,0
1523619033677,-917504,122,-56,-1,-1,0
1523619033677,-786432,122,-56,-1,-1,0
1523619033677,-589824,122,-56,-1,-1,0
1523619033717,-327680,122,-56,-1,-1,0
1523619033717,-65536,122,-56,-1,-1,0
1523619033717,196608,122,-56,-1,-1,0
1523619033717,589824,122,-56,-1,-1,0
1523619033717,1048576,122,-56,-1,-1,0
1523619033757,1572864,122,-56,-1,-1,0
1523619033757,2162688,122,-56,-1,-1,0
1523619033757,2621440,122,-56,-1,-1,0
1523619033757,3080192,122,-56,-1,-1,0
1523619033757,3342336,122,-56,-1,-1,0
1523619033797,3342336,122,-56,-1,-1,0
1523619033797,3276800,122,-56,-1,-1,0
1523619033797,3014656,122,-56,-1,-1,0
1523619033797,2555904,122,-56,-1,-1,0
1523619033797,2031616,122,-56,-1,-1,0
1523619033837,1572864,122,-56,-1,-1,0
1523619033837,1114112,122,-56,-1,-1,0
1523619033837,786432,122,-56,-1,-1,0
1523619033837,524288,122,-56,-1,-1,0
1523619033837,393216,122,-56,-1,-1,0
1523619033877,262144,122,-56,-1,-1,0
1523619033877,196608,122,-56,-1,-1,0
1523619033877,65536,122,-56,-1,-1,0
1523619033877,0,122,-56,-1,-1,0
1523619033877,0,122,-56,-1,-1,0
1523619033917,-65536,122,-56,-1,-1,0
1523619033917,-196608,122,-56,-1,-1,0
1523619033917,-327680,122,-56,-1,-1,0
1523619033917,-393216,122,-56,-1,-1,0
1523619033917,-524288,122,-56,-1,-1,0
1523619033957,-589824,122,-56,-1,-1,0
1523619033957,-655360,122,-56,-1,-1,0
1523619033957,-720896,122,-56,-1,-1,0
1523619033957,-720896,122,-56,-1,-1,0
1523619033957,-589824,122,-56,-1,-1,0
1523619033997,-393216,122,-56,-1,-1,0
1523619033997,-262144,122,-56,-1,-1,0
1523619033997,-196608,122,-56,-1,-1,0
1523619033997,-262144,122,-56,-1,-1,0
1523619033997,-524288,122,-56,-1,-1,0
1523619034037,-720896,122,-56,-1,-1,0
1523619034037,-851968,122,-56,-1,-1,0
1523619034037,-983040,122,-56,-1,-1,0
1523619034037,-1114112,122,-56,-1,-1,0
1523619034037,-1114112,122,-56,-1,-1,0
1523619034077,-1245184,122,-56,-1,-1,0
1523619034077,-1441792,122,-56,-1,-1,0
1523619034077,-786432,122,-56,-1,-1,0
1523619034077,1441792,122,-56,-1,-1,0
1523619034077,4194304,122,-56,-1,-1,0
1523619034117,4390912,122,-56,-1,-1,0
1523619034117,851968,122,-56,-1,-1,0
1523619034117,-3538944,122,-56,-1,-1,0
1523619034117,-5177344,122,-56,-1,-1,0
1523619034117,-3866624,122,-56,-1,-1,0
1523619034157,-2228224,122,-56,-1,-1,0
1523619034157,-1376256,122,-56,-1,-1,0
1523619034157,-1114112,122,-56,-1,-1,0
1523619034157,-983040,122,-56,-1,-1,0
1523619034157,-851968,122,-56,-1,-1,0
1523619034199,-786432,122,-56,-1,-1,0
1523619034199,-655360,122,-56,-1,-1,0
1523619034199,-524288,122,-56,-1,-1,0
1523619034199,-262144,122,-56,-1,-1,0
1523619034199,0,122,-56,-1,-1,0
1523619034237,327680,122,-56,-1,-1,0
1523619034237,655360,122,-56,-1,-1,0
1523619034237,1048576,122,-56,-1,-1,0
1523619034237,1507328,122,-56,-1,-1,0
1523619034237,2031616,122,-56,-1,-1,0
1523619034277,2490368,122,-56,-1,-1,0
1523619034277,2883584,122,-56,-1,-1,0
1523619034277,3080192,122,-56,-1,-1,0
1523619034277,3145728,122,-56,-1,-1,0
1523619034277,3014656,122,-56,-1,-1,0
1523619034317,2752512,122,-56,-1,-1,0
1523619034317,2424832,122,-56,-1,-1,0
1523619034317,1900544,122,-56,-1,-1,0
1523619034317,1376256,122,-56,-1,-1,0
1523619034317,983040,122,-56,-1,-1,0
1523619034357,720896,122,-56,-1,-1,0
1523619034357,589824,122,-56,-1,-1,0
1523619034357,458752,122,-56,-1,-1,0
1523619034357,327680,122,-56,-1,-1,0
1523619034357,196608,122,-56,-1,-1,0
1523619034397,131072,122,-56,-1,-1,0
1523619034397,65536,122,-56,-1,-1,0
1523619034397,0,122,-56,-1,-1,0
1523619034397,-131072,122,-56,-1,-1,0
1523619034397,-196608,122,-56,-1,-1,0
1523619034437,-262144,122,-56,-1,-1,0
1523619034437,-393216,122,-56,-1,-1,0
1523619034437,-524288,122,-56,-1,-1,0
1523619034437,-655360,122,-56,-1,-1,0
1523619034437,-720896,122,-56,-1,-1,0
1523619034477,-851968,122,-56,-1,-1,0
1523619034477,-851968,122,-56,-1,-1,0
1523619034477,-720896,122,-56,-1,-1,0
1523619034477,-524288,122,-56,-1,-1,0
1523619034477,-327680,122,-56,-1,-1,0
1523619034518,-262144,122,-56,-1,-1,0
1523619034518,-327680,122,-56,-1,-1,0
1523619034518,-458752,122,-56,-1,-1,0
1523619034518,-655360,122,-56,-1,-1,0
1523619034518,-786432,122,-56,-1,-1,0
1523619034557,-917504,122,-56,-1,-1,0
1523619034557,-1048576,122,-56,-1,-1,0
1523619034557,-1048576,122,-56,-1,-1,0
1523619034557,-1048576,122,-56,-1,-1,0
1523619034557,-1245184,122,-56,-1,-1,0
1523619034598,-1376256,122,-56,-1,-1,0
1523619034598,-524288,122,-56,-1,-1,0
1523619034598,1441792,122,-56,-1,-1,0
1523619034598,2949120,122,-56,-1,-1,0
1523619034598,1835008,122,-56,-1,-1,0
1523619034637,-1572864,122,-56,-1,-1,0
1523619034637,-4259840,122,-56,-1,-1,0
1523619034637,-4259840,122,-56,-1,-1,0
1523619034637,-2752512,122,-56,-1,-1,0
1523619034637,-1638400,122,-56,-1,-1,0
1523619034677,-1245184,122,-56,-1,-1,0
1523619034677,-1114112,122,-56,-1,-1,0
1523619034677,-1048576,122,-56,-1,-1,0
1523619034677,-917504,122,-56,-1,-1,0
1523619034677,-786432,122,-56,-1,-1,0
1523619034717,-655360,122,-56,-1,-1,0
1523619034717,-524288,122,-56,-1,-1,0
1523619034717,-262144,122,-56,-1,-1,0
1523619034717,0,122,-56,-1,-1,0
1523619034717,262144,122,-56,-1,-1,0
1523619034757,655360,122,-56,-1,-1,0
1523619034757,1048576,122,-56,-1,-1,0
1523619034757,1507328,122,-56,-1,-1,0
1523619034757,2031616,122,-56,-1,-1,0
1523619034757,2490368,122,-56,-1,-1,0
1523619034797,2752512,122,-56,-1,-1,0
1523619034797,2883584,122,-56,-1,-1,0
1523619034797,2883584,122,-56,-1,-1,0
1523619034797,2686976,122,-56,-1,-1,0
1523619034797,2424832,122,-56,-1,-1,0
1523619034839,2031616,122,-56,-1,-1,0
1523619034839,1507328,122,-56,-1,-1,0
1523619034839,1114112,122,-56,-1,-1,0
1523619034839,786432,122,-56,-1,-1,0
1523619034839,524288,122,-56,-1,-1,0
1523619034877,327680,122,-56,-1,-1,0
1523619034877,196608,122,-56,-1,-1,0
1523619034877,65536,122,-56,-1,-1,0
1523619034877,0,122,-56,-1,-1,0
1523619034877,0,122,-56,-1,-1,0
1523619034917,-65536,122,-56,-1,-1,0
1523619034917,-131072,122,-56,-1,-1,0
1523619034917,-262144,122,-56,-1,-1,0
1523619034917,-327680,122,-56,-1,-1,0
1523619034917,-393216,122,-56,-1,-1,0
1523619034957,-524288,122,-56,-1,-1,0
1523619034957,-655360,122,-56,-1,-1,0
1523619034957,-720896,122,-56,-1,-1,0
1523619034957,-786432,122,-56,-1,-1,0
1523619034957,-851968,122,-56,-1,-1,0
1523619034997,-851968,122,-56,-1,-1,0
1523619034997,-655360,122,-56,-1,-1,0
1523619034997,-458752,122,-56,-1,-1,0
1523619034997,-327680,122,-56,-1,-1,0
1523619034997,-327680,122,-56,-1,-1,0
1523619035038,-393216,122,-56,-1,-1,0
1523619035038,-655360,122,-56,-1,-1,0
1523619035038,-786432,122,-56,-1,-1,0
1523619035038,-917504,122,-56,-1,-1,0
1523619035038,-1048576,122,-56,-1,-1,0
1523619035078,-1114112,122,-56,-1,-1,0
1523619035078,-1114112,122,-56,-1,-1,0
1523619035078,-1245184,122,-56,-1,-1,0
1523619035078,-1507328,122,-56,-1,-1,0
1523619035078,-1507328,122,-56,-1,-1,0
1523619035117,-393216,122,-56,-1,-1,0
1523619035117,1245184,122,-56,-1,-1,0
1523619035117,1769472,122,-56,-1,-1,0
1523619035117,0,122,-56,-1,-1,0
1523619035117,-3014656,122,-56,-1,-1,0
1523619035157,-4587520,122,-56,-1,-1,0
1523619035157,-3997696,122,-56,-1,-1,0
1523619035157,-2555904,122,-56,-1,-1,0
1523619035157,-1638400,122,-56,-1,-1,0
1523619035157,-1245184,122,-56,-1,-1,0
1523619035197,-1179648,122,-56,-1,-1,0
1523619035197,-1114112,122,-56,-1,-1,0
1523619035197,-983040,122,-56,-1,-1,0
1523619035197,-851968,122,-56,-1,-1,0
1523619035197,-655360,122,-56,-1,-1,0
1523619035237,-458752,122,-56,-1,-1,0
1523619035237,-262144,122,-56,-1,-1,0
1523619035237,0,122,-56,-1,-1,0
1523619035237,393216,122,-56,-1,-1,0
1523619035237,720896,122,-56,-1,-1,0
1523619035278,1114112,122,-56,-1,-1,0
1523619035278,1507328,122,-56,-1,-1,0
1523619035278,2031616,122,-56,-1,-1,0
1523619035278,2490368,122,-56,-1,-1,0
1523619035278,2752512,122,-56,-1,-1,0
1523619035318,2883584,122,-56,-1,-1,0
1523619035318,2818048,122,-56,-1,-1,0
1523619035318,2752512,122,-56,-1,-1,0
1523619035318,2490368,122,-56,-1,-1,0
1523619035318,2097152,122,-56,-1,-1,0
1523619035357,1638400,122,-56,-1,-1,0
1523619035357,1179648,122,-56,-1,-1,0
1523619035357,851968,122,-56,-1,-1,0
1523619035357,589824,122,-56,-1,-1,0
1523619035357,393216,122,-56,-1,-1,0
1523619035397,262144,121,-56,-1,-1,0
1523619035397,131072,121,-56,-1,-1,0
1523619035397,65536,121,-56,-1,-1,0
1523619035397,0,121,-56,-1,-1,0
1523619035397,0,121,-56,-1,-1,0
1523619035437,-65536,121,-56,-1,-1,0
1523619035437,-131072,121,-56,-1,-1,0
1523619035437,-131072,121,-56,-1,-1,0
1523619035437,-196608,121,-56,-1,-1,0
1523619035437,-262144,121,-56,-1,-1,0
1523619035479,-393216,121,-56,-1,-1,0
1523619035479,-458752,121,-56,-1,-1,0
1523619035479,-524288,121,-56,-1,-1,0
1523619035479,-589824,121,-56,-1,-1,0
1523619035479,-458752,121,-56,-1,-1,0
1523619035517,-262144,121,-56,-1,-1,0
1523619035517,-65536,121,-56,-1,-1,0
1523619035517,0,121,-56,-1,-1,0
1523619035517,0,121,-56,-1,-1,0
1523619035517,-131072,121,-56,-1,-1,0
1523619035557,-327680,121,-56,-1,-1,0
1523619035557,-524288,121,-56,-1,-1,0
1523619035557,-655360,121,-56,-1,-1,0
1523619035557,-720896,121,-56,-1,-1,0
1523619035557,-851968,121,-56,-1,-1,0
1523619035597,-917504,121,-56,-1,-1,0
1523619035597,-1048576,121,-56,-1,-1,0
1523619035597,-1048576,121,-56,-1,-1,0
1523619035597,-65536,121,-56,-1,-1,0
1523619035597,1966080,121,-56,-1,-1,0
1523619035637,3342336,121,-56,-1,-1,0
1523619035637,1835008,121,-56,-1,-1,0
1523619035637,-1769472,121,-56,-1,-1,0
1523619035637,-4456448,121,-56,-1,-1,0
1523619035637,-4587520,121,-56,-1,-1,0
1523619035677,-3080192,121,-56,-1,-1,0
1523619035677,-1769472,121,-56,-1,-1,0
1523619035677,-1114112,121,-56,-1,-1,0
1523619035677,-917504,121,-56,-1,-1,0
1523619035677,-786432,121,-56,-1,-1,0
1523619035717,-655360,121,-56,-1,-1,0
1523619035717,-524288,121,-56,-1,-1,0
1523619035717,-327680,121,-56,-1,-1,0
1523619035717,-131072,121,-56,-1,-1,0
1523619035717,0,121,-56,-1,-1,0
1523619035757,262144,121,-56,-1,-1,0
1523619035757,589824,121,-56,-1,-1,0
1523619035757,983040,121,-56,-1,-1,0
1523619035757,1376256,121,-56,-1,-1,0
1523619035757,1900544,121,-56,-1,-1,0
1523619035797,2424832,121,-56,-1,-1,0
1523619035797,3014656,121,-56,-1,-1,0
1523619035797,3473408,121,-56,-1,-1,0
1523619035797,3735552,121,-56,-1,-1,0
1523619035797,3801088,121,-56,-1,-1,0
1523619035838,3670016,121,-56,-1,-1,0
1523619035838,3407872,121,-56,-1,-1,0
1523619035838,2949120,121,-56,-1,-1,0
1523619035838,2359296,121,-56,-1,-1,0
1523619035838,1769472,121,-56,-1,-1,0
1523619035877,1310720,121,-56,-1,-1,0
1523619035877,917504,121,-56,-1,-1,0
1523619035877,720896,121,-56,-1,-1,0
1523619035877,589824,121,-56,-1,-1,0
1523619035877,458752,121,-56,-1,-1,0
1523619035918,393216,121,-56,-1,-1,0
1523619035918,327680,121,-56,-1,-1,0
1523619035918,196608,121,-56,-1,-1,0
1523619035918,131072,121,-56,-1,-1,0
1523619035918,0,121,-56,-1,-1,0
1523619035958,0,121,-56,-1,-1,0
1523619035958,-65536,121,-56,-1,-1,0
1523619035958,-131072,121,-56,-1,-1,0
1523619035958,-262144,121,-56,-1,-1,0
1523619035958,-393216,121,-56,-1,-1,0
1523619035997,-458752,121,-56,-1,-1,0
1523619035997,-524288,121,-56,-1,-1,0
1523619035997,-393216,121,-56,-1,-1,0
1523619035997,-196608,121,-56,-1,-1,0
1523619035997,-65536,121,-56,-1,-1,0
1523619036037,-65536,121,-56,-1,-1,0
1523619036037,-131072,121,-56,-1,-1,0
1523619036037,-262144,121,-56,-1,-1,0
1523619036037,-458752,121,-56,-1,-1,0
1523619036037,-655360,121,-56,-1,-1,0
1523619036077,-917504,121,-56,-1,-1,0
1523619036077,-1048576,121,-56,-1,-1,0
1523619036077,-1048576,121,-56,-1,-1,0
1523619036077,-1114112,121,-56,-1,-1,0
1523619036077,-1245184,121,-56,-1,-1,0
1523619036119,-1048576,121,-56,-1,-1,0
1523619036119,524288,121,-56,-1,-1,0
1523619036119,3670016,121,-56,-1,-1,0
1523619036119,5439488,121,-56,-1,-1,0
1523619036119,3014656,121,-56,-1,-1,0
1523619036158,-2162688,121,-56,-1,-1,0
1523619036158,-5505024,121,-56,-1,-1,0
1523619036158,-5308416,121,-56,-1,-1,0
1523619036158,-3473408,121,-56,-1,-1,0
1523619036158,-2031616,121,-56,-1,-1,0
1523619036197,-1376256,121,-56,-1,-1,0
1523619036197,-1179648,121,-56,-1,-1,0
1523619036197,-1048576,121,-56,-1,-1,0
1523619036197,-917504,121,-56,-1,-1,0
1523619036197,-851968,121,-56,-1,-1,0
1523619036238,-720896,121,-56,-1,-1,0
1523619036238,-524288,121,-56,-1,-1,0
1523619036238,-262144,121,-56,-1,-1,0
1523619036238,0,121,-56,-1,-1,0
1523619036238,262144,121,-56,-1,-1,0
1523619036278,655360,121,-56,-1,-1,0
1523619036278,1179648,121,-56,-1,-1,0
1523619036278,1638400,121,-56,-1,-1,0
1523619036278,2162688,121,-56,-1,-1,0
1523619036278,2752512,121,-56,-1,-1,0
1523619036318,3211264,121,-56,-1,-1,0
1523619036318,3473408,121,-56,-1,-1,0
1523619036318,3407872,121,-56,-1,-1,0
1523619036318,3211264,121,-56,-1,-1,0
1523619036318,2883584,121,-56,-1,-1,0
1523619036357,2293760,121,-56,-1,-1,0
1523619036357,1638400,121,-56,-1,-1,0
1523619036357,1114112,121,-56,-1,-1,0
1523619036357,589824,121,-56,-1,-1,0
1523619036357,262144,121,-56,-1,-1,0
1523619036398,0,120,-56,-1,-1,0
1523619036398,-65536,120,-56,-1,-1,0
1523619036398,-196608,120,-56,-1,-1,0
1523619036398,-327680,120,-56,-1,-1,0
1523619036398,-458752,120,-56,-1,-1,0
1523619036438,-524288,120,-56,-1,-1,0
1523619036438,-589824,120,-56,-1,-1,0
1523619036438,-720896,120,-56,-1,-1,0
1523619036438,-851968,120,-56,-1,-1,0
1523619036438,-983040,120,-56,-1,-1,0
1523619036478,-1048576,120,-56,-1,-1,0
1523619036478,-1179648,120,-56,-1,-1,0
1523619036478,-1245184,120,-56,-1,-1,0
1523619036478,-1376256,120,-56,-1,-1,0
1523619036478,-1376256,120,-56,-1,-1,0
1523619036518,-1310720,120,-56,-1,-1,0
1523619036518,-1114112,120,-56,-1,-1,0
1523619036518,-983040,120,-56,-1,-1,0
1523619036518,-917504,120,-56,-1,-1,0
1523619036518,-1114112,120,-56,-1,-1,0
1523619036558,-1245184,120,-56,-1,-1,0
1523619036558,-1376256,120,-56,-1,-1,0
1523619036558,-1507328,120,-56,-1,-1,0
1523619036558,-1703936,120,-56,-1,-1,0
1523619036558,-1769472,120,-56,-1,-1,0
1523619036598,-1835008,120,-56,-1,-1,0
1523619036598,-1900544,120,-56,-1,-1,0
1523619036598,-1900544,120,-56,-1,-1,0
1523619036598,-1114112,120,-56,-1,-1,0
1523619036598,1441792,120,-56,-1,-1,0
1523619036638,4521984,120,-56,-1,-1,0
1523619036638,4849664,120,-56,-1,-1,0
1523619036638,851968,120,-56,-1,-1,0
1523619036638,-4128768,120,-56,-1,-1,0
1523619036638,-6225920,120,-56,-1,-1,0
1523619036678,-5046272,120,-56,-1,-1,0
1523619036678,-3211264,120,-56,-1,-1,0
1523619036678,-2162688,120,-56,-1,-1,0
1523619036678,-1703936,120,-56,-1,-1,0
1523619036678,-1507328,120,-56,-1,-1,0
1523619036718,-1441792,120,-56,-1,-1,0
1523619036718,-1310720,120,-56,-1,-1,0
1523619036718,-1179648,120,-56,-1,-1,0
1523619036718,-983040,120,-56,-1,-1,0
1523619036718,-786432,120,-56,-1,-1,0
1523619036759,-458752,120,-56,-1,-1,0
1523619036759,-131072,120,-56,-1,-1,0
1523619036759,131072,120,-56,-1,-1,0
1523619036759,524288,120,-56,-1,-1,0
1523619036759,1048576,120,-56,-1,-1,0
1523619036798,1638400,120,-56,-1,-1,0
1523619036798,2228224,120,-56,-1,-1,0
1523619036798,2752512,120,-56,-1,-1,0
1523619036798,3080192,120,-56,-1,-1,0
1523619036798,3145728,120,-56,-1,-1,0
1523619036838,3145728,120,-56,-1,-1,0
1523619036838,2949120,120,-56,-1,-1,0
1523619036838,2555904,120,-56,-1,-1,0
1523619036838,1966080,120,-56,-1,-1,0
1523619036838,1310720,120,-56,-1,-1,0
1523619036878,851968,120,-56,-1,-1,0
1523619036878,458752,120,-56,-1,-1,0
1523619036878,196608,120,-56,-1,-1,0
1523619036878,0,120,-56,-1,-1,0
1523619036878,0,120,-56,-1,-1,0
1523619036918,-65536,120,-56,-1,-1,0
1523619036918,-131072,120,-56,-1,-1,0
1523619036918,-196608,120,-56,-1,-1,0
1523619036918,-327680,120,-56,-1,-1,0
1523619036918,-393216,120,-56,-1,-1,0
1523619036958,-458752,120,-56,-1,-1,0
1523619036958,-524288,120,-56,-1,-1,0
1523619036958,-589824,120,-56,-1,-1,0
1523619036958,-720896,120,-56,-1,-1,0
1523619036958,-786432,120,-56,-1,-1,0
1523619036998,-917504,120,-56,-1,-1,0
1523619036998,-983040,120,-56,-1,-1,0
1523619036998,-851968,120,-56,-1,-1,0
1523619036998,-655360,120,-56,-1,-1,0
1523619036998,-524288,120,-56,-1,-1,0
1523619037038,-458752,120,-56,-1,-1,0
1523619037038,-458752,120,-56,-1,-1,0
1523619037038,-589824,120,-56,-1,-1,0
1523619037038,-851968,120,-56,-1,-1,0
1523619037038,-1048576,120,-56,-1,-1,0
1523619037078,-1245184,120,-56,-1,-1,0
1523619037078,-1245184,120,-56,-1,-1,0
1523619037078,-1245184,120,-56,-1,-1,0
1523619037078,-1310720,120,-56,-1,-1,0
1523619037078,-1507328,120,-56,-1,-1,0
1523619037118,-1441792,120,-56,-1,-1,0
1523619037118,0,120,-56,-1,-1,0
1523619037118,2949120,120,-56,-1,-1,0
1523619037118,4849664,120,-56,-1,-1,0
1523619037118,3014656,120,-56,-1,-1,0
1523619037158,-1966080,120,-56,-1,-1,0
1523619037158,-5636096,120,-56,-1,-1,0
1523619037158,-5636096,120,-56,-1,-1,0
1523619037158,-3670016,120,-56,-1,-1,0
1523619037158,-2097152,120,-56,-1,-1,0
1523619037198,-1376256,120,-56,-1,-1,0
1523619037198,-1179648,120,-56,-1,-1,0
1523619037198,-1114112,120,-56,-1,-1,0
1523619037198,-983040,120,-56,-1,-1,0
1523619037198,-851968,120,-56,-1,-1,0
1523619037238,-655360,120,-56,-1,-1,0
1523619037238,-458752,120,-56,-1,-1,0
1523619037238,-196608,120,-56,-1,-1,0
1523619037238,0,120,-56,-1,-1,0
1523619037238,393216,120,-56,-1,-1,0
1523619037278,786432,120,-56,-1,-1,0
1523619037278,1310720,120,-56,-1,-1,0
1523619037278,1835008,120,-56,-1,-1,0
1523619037278,2424832,120,-56,-1,-1,0
1523619037278,2949120,120,-56,-1,-1,0
1523619037318,3276800,120,-56,-1,-1,0
1523619037318,3473408,120,-56,-1,-1,0
1523619037318,3473408,120,-56,-1,-1,0
1523619037318,3276800,120,-56,-1,-1,0
1523619037318,2949120,120,-56,-1,-1,0
1523619037358,2490368,120,-56,-1,-1,0
1523619037358,1966080,120,-56,-1,-1,0
1523619037358,1441792,120,-56,-1,-1,0
1523619037358,1114112,120,-56,-1,-1,0
1523619037358,851968,120,-56,-1,-1,0
1523619037399,655360,120,-56,-1,-1,0
1523619037399,524288,120,-56,-1,-1,0
1523619037399,393216,120,-56,-1,-1,0
1523619037399,327680,120,-56,-1,-1,0
1523619037399,196608,120,-56,-1,-1,0
1523619037438,131072,120,-56,-1,-1,0
1523619037438,65536,120,-56,-1,-1,0
1523619037438,0,120,-56,-1,-1,0
1523619037438,-65536,120,-56,-1,-1,0
1523619037438,-196608,120,-56,-1,-1,0
1523619037478,-327680,120,-56,-1,-1,0
1523619037478,-458752,120,-56,-1,-1,0
1523619037478,-524288,120,-56,-1,-1,0
1523619037478,-655360,120,-56,-1,-1,0
1523619037478,-655360,120,-56,-1,-1,0
1523619037518,-524288,120,-56,-1,-1,0
1523619037518,-393216,120,-56,-1,-1,0
1523619037518,-262144,120,-56,-1,-1,0
1523619037518,-131072,120,-56,-1,-1,0
1523619037518,-262144,120,-56,-1,-1,0
1523619037558,-524288,120,-56,-1,-1,0
1523619037558,-720896,120,-56,-1,-1,0
1523619037558,-917504,120,-56,-1,-1,0
1523619037558,-983040,120,-56,-1,-1,0
1523619037558,-1048576,120,-56,-1,-1,0
1523619037598,-1048576,120,-56,-1,-1,0
1523619037598,-1179648,120,-56,-1,-1,0
1523619037598,-1507328,120,-56,-1,-1,0
1523619037598,-1310720,120,-56,-1,-1,0
1523619037598,262144,120,-56,-1,-1,0
1523619037638,2752512,120,-56,-1,-1,0
1523619037638,3407872,120,-56,-1,-1,0
1523619037638,786432,120,-56,-1,-1,0
1523619037638,-3145728,120,-56,-1,-1,0
1523619037638,-4980736,120,-56,-1,-1,0
1523619037678,-3997696,120,-56,-1,-1,0
1523619037678,-2359296,120,-56,-1,-1,0
1523619037678,-1441792,120,-56,-1,-1,0
1523619037678,-1179648,120,-56,-1,-1,0
1523619037678,-983040,120,-56,-1,-1,0
1523619037718,-917504,120,-56,-1,-1,0
1523619037718,-786432,120,-56,-1,-1,0
1523619037718,-720896,120,-56,-1,-1,0
1523619037718,-524288,120,-56,-1,-1,0
1523619037718,-262144,120,-56,-1,-1,0
1523619037758,-65536,120,-56,-1,-1,0
1523619037758,131072,120,-56,-1,-1,0
1523619037758,524288,120,-56,-1,-1,0
1523619037758,917504,120,-56,-1,-1,0
1523619037758,1376256,120,-56,-1,-1,0
1523619037798,1900544,120,-56,-1,-1,0
1523619037798,2359296,120,-56,-1,-1,0
1523619037798,2752512,120,-56,-1,-1,0
1523619037798,3014656,120,-56,-1,-1,0
1523619037798,3080192,120,-56,-1,-1,0
1523619037838,2949120,120,-56,-1,-1,0
1523619037838,2752512,120,-56,-1,-1,0
1523619037838,2424832,120,-56,-1,-1,0
1523619037838,1966080,120,-56,-1,-1,0
1523619037838,1507328,120,-56,-1,-1,0
1523619037878,1048576,120,-56,-1,-1,0
1523619037878,720896,120,-56,-1,-1,0
1523619037878,458752,120,-56,-1,-1,0
1523619037878,327680,120,-56,-1,-1,0
1523619037878,196608,120,-56,-1,-1,0
1523619037918,131072,120,-56,-1,-1,0
1523619037918,65536,120,-56,-1,-1,0
1523619037918,0,120,-56,-1,-1,0
1523619037918,0,120,-56,-1,-1,0
1523619037918,-65536,120,-56,-1,-1,0
1523619037958,-196608,120,-56,-1,-1,0
1523619037958,-262144,120,-56,-1,-1,0
1523619037958,-393216,120,-56,-1,-1,0
1523619037958,-524288,120,-56,-1,-1,0
1523619037958,-589824,120,-56,-1,-1,0
1523619037998,-720896,120,-56,-1,-1,0
1523619037998,-786432,120,-56,-1,-1,0
1523619037998,-786432,120,-56,-1,-1,0
1523619037998,-655360,120,-56,-1,-1,0
1523619037998,-393216,120,-56,-1,-1,0
1523619038039,-262144,120,-56,-1,-1,0
1523619038039,-196608,120,-56,-1,-1,0
1523619038039,-327680,120,-56,-1,-1,0
1523619038039,-524288,120,-56,-1,-1,0
1523619038039,-720896,120,-56,-1,-1,0
1523619038078,-917504,120,-56,-1,-1,0
1523619038078,-983040,120,-56,-1,-1,0
1523619038078,-1048576,120,-56,-1,-1,0
1523619038078,-1048576,120,-56,-1,-1,0
1523619038078,-1179648,120,-56,-1,-1,0
1523619038118,-1507328,120,-56,-1,-1,0
1523619038118,-1507328,120,-56,-1,-1,0
1523619038118,-327680,120,-56,-1,-1,0
1523619038118,1507328,120,-56,-1,-1,0
1523619038118,2162688,120,-56,-1,-1,0
1523619038158,327680,120,-56,-1,-1,0
1523619038158,-2818048,120,-56,-1,-1,0
1523619038158,-4456448,120,-56,-1,-1,0
1523619038158,-3801088,120,-56,-1,-1,0
1523619038158,-2359296,120,-56,-1,-1,0
1523619038198,-1507328,120,-56,-1,-1,0
1523619038198,-1245184,120,-56,-1,-1,0
1523619038198,-1114112,120,-56,-1,-1,0
1523619038198,-1048576,120,-56,-1,-1,0
1523619038198,-917504,120,-56,-1,-1,0
1523619038238,-851968,120,-56,-1,-1,0
1523619038238,-655360,120,-56,-1,-1,0
1523619038238,-458752,120,-56,-1,-1,0
1523619038238,-196608,120,-56,-1,-1,0
1523619038238,0,120,-56,-1,-1,0
1523619038278,327680,120,-56,-1,-1,0
1523619038278,655360,120,-56,-1,-1,0
1523619038278,1048576,120,-56,-1,-1,0
1523619038278,1572864,120,-56,-1,-1,0
1523619038278,2097152,120,-56,-1,-1,0
1523619038318,2490368,120,-56,-1,-1,0
1523619038318,2686976,120,-56,-1,-1,0
1523619038318,2752512,120,-56,-1,-1,0
1523619038318,2686976,120,-56,-1,-1,0
1523619038318,2490368,120,-56,-1,-1,0
1523619038358,2228224,120,-56,-1,-1,0
1523619038358,1769472,120,-56,-1,-1,0
1523619038358,1310720,120,-56,-1,-1,0
1523619038358,917504,120,-56,-1,-1,0
1523619038358,524288,120,-56,-1,-1,0
1523619038398,262144,120,-56,-1,-1,0
1523619038398,131072,120,-56,-1,-1,0
1523619038398,65536,120,-56,-1,-1,0
1523619038398,0,120,-56,-1,-1,0
1523619038398,-65536,120,-56,-1,-1,0
1523619038438,-131072,120,-56,-1,-1,0
1523619038438,-196608,120,-56,-1,-1,0
1523619038438,-196608,120,-56,-1,-1,0
1523619038438,-262144,120,-56,-1,-1,0
1523619038438,-327680,120,-56,-1,-1,0
1523619038478,-458752,120,-56,-1,-1,0
1523619038478,-589824,120,-56,-1,-1,0
1523619038478,-655360,120,-56,-1,-1,0
1523619038478,-720896,120,-56,-1,-1,0
1523619038478,-786432,120,-56,-1,-1,0
1523619038518,-786432,120,-56,-1,-1,0
1523619038518,-589824,120,-56,-1,-1,0
1523619038518,-393216,120,-56,-1,-1,0
1523619038518,-262144,120,-56,-1,-1,0
1523619038518,-262144,120,-56,-1,-1,0
1523619038558,-262144,120,-56,-1,-1,0
1523619038558,-458752,120,-56,-1,-1,0
1523619038558,-589824,120,-56,-1,-1,0
1523619038558,-786432,120,-56,-1,-1,0
1523619038558,-851968,120,-56,-1,-1,0
1523619038598,-917504,120,-56,-1,-1,0
1523619038598,-983040,120,-56,-1,-1,0
1523619038598,-1048576,120,-56,-1,-1,0
1523619038598,-1245184,120,-56,-1,-1,0
1523619038598,-1114112,120,-56,-1,-1,0
1523619038638,0,120,-56,-1,-1,0
1523619038638,2031616,120,-56,-1,-1,0
1523619038638,2752512,120,-56,-1,-1,0
1523619038638,983040,120,-56,-1,-1,0
1523619038638,-2228224,120,-56,-1,-1,0
1523619038679,-4194304,120,-56,-1,-1,0
1523619038679,-3866624,120,-56,-1,-1,0
1523619038679,-2424832,120,-56,-1,-1,0
1523619038679,-1376256,120,-56,-1,-1,0
1523619038679,-1048576,120,-56,-1,-1,0
1523619038718,-917504,120,-56,-1,-1,0
1523619038718,-786432,120,-56,-1,-1,0
1523619038718,-589824,120,-56,-1,-1,0
1523619038718,-458752,120,-56,-1,-1,0
1523619038718,-262144,120,-56,-1,-1,0
1523619038758,-65536,120,-56,-1,-1,0
1523619038758,131072,120,-56,-1,-1,0
1523619038758,393216,120,-56,-1,-1,0
1523619038758,720896,120,-56,-1,-1,0
1523619038758,1048576,120,-56,-1,-1,0
1523619038798,1441792,120,-56,-1,-1,0
1523619038798,1900544,120,-56,-1,-1,0
1523619038798,2424832,120,-56,-1,-1,0
1523619038798,2883584,120,-56,-1,-1,0
1523619038798,3276800,120,-56,-1,-1,0
1523619038838,3407872,120,-56,-1,-1,0
1523619038838,3407872,120,-56,-1,-1,0
1523619038838,3211264,120,-56,-1,-1,0
1523619038838,2949120,120,-56,-1,-1,0
1523619038838,2490368,120,-56,-1,-1,0
1523619038878,1835008,120,-56,-1,-1,0
1523619038878,1310720,120,-56,-1,-1,0
1523619038878,917504,120,-56,-1,-1,0
1523619038878,524288,120,-56,-1,-1,0
1523619038878,327680,120,-56,-1,-1,0
1523619038918,196608,120,-56,-1,-1,0
1523619038918,131072,120,-56,-1,-1,0
1523619038918,131072,120,-56,-1,-1,0
1523619038918,65536,120,-56,-1,-1,0
1523619038918,0,120,-56,-1,-1,0
1523619038958,0,120,-56,-1,-1,0
1523619038958,-65536,120,-56,-1,-1,0
1523619038958,-196608,120,-56,-1,-1,0
1523619038958,-262144,120,-56,-1,-1,0
1523619038958,-327680,120,-56,-1,-1,0
1523619038998,-458752,120,-56,-1,-1,0
1523619038998,-524288,120,-56,-1,-1,0
1523619038998,-655360,120,-56,-1,-1,0
1523619038998,-720896,120,-56,-1,-1,0
1523619038998,-655360,120,-56,-1,-1,0
1523619039038,-458752,120,-56,-1,-1,0
1523619039038,-327680,120,-56,-1,-1,0
1523619039038,-262144,120,-56,-1,-1,0
1523619039038,-262144,120,-56,-1,-1,0
1523619039038,-393216,120,-56,-1,-1,0
1523619039078,-589824,120,-56,-1,-1,0
1523619039078,-720896,120,-56,-1,-1,0
1523619039078,-851968,120,-56,-1,-1,0
1523619039078,-983040,120,-56,-1,-1,0
1523619039078,-1114112,120,-56,-1,-1,0
1523619039118,-1179648,120,-56,-1,-1,0
1523619039118,-1245184,120,-56,-1,-1,0
1523619039118,-1245184,120,-56,-1,-1,0
1523619039118,0,120,-56,-1,-1,0
1523619039118,2686976,120,-56,-1,-1,0
1523619039158,4718592,120,-56,-1,-1,0
1523619039158,3145728,120,-56,-1,-1,0
1523619039158,-1310720,120,-56,-1,-1,0
1523619039158,-4784128,120,-56,-1,-1,0
1523619039158,-5046272,120,-56,-1,-1,0
1523619039198,-3342336,120,-56,-1,-1,0
1523619039198,-1966080,120,-56,-1,-1,0
1523619039198,-1376256,120,-56,-1,-1,0
1523619039198,-1114112,120,-56,-1,-1,0
1523619039198,-983040,120,-56,-1,-1,0
1523619039238,-851968,120,-56,-1,-1,0
1523619039238,-720896,120,-56,-1,-1,0
1523619039238,-589824,120,-56,-1,-1,0
1523619039238,-393216,120,-56,-1,-1,0
1523619039238,-196608,120,-56,-1,-1,0
1523619039278,65536,120,-56,-1,-1,0
1523619039278,393216,120,-56,-1,-1,0
1523619039278,720896,120,-56,-1,-1,0
1523619039278,1048576,120,-56,-1,-1,0
1523619039278,1638400,120,-56,-1,-1,0
1523619039319,2228224,120,-56,-1,-1,0
1523619039319,2818048,120,-56,-1,-1,0
1523619039319,3211264,120,-56,-1,-1,0
1523619039319,3473408,120,-56,-1,-1,0
1523619039319,3407872,120,-56,-1,-1,0
1523619039358,3211264,120,-56,-1,-1,0
1523619039358,2883584,120,-56,-1,-1,0
1523619039358,2424832,120,-56,-1,-1,0
1523619039358,1835008,120,-56,-1,-1,0
1523619039358,1245184,120,-56,-1,-1,0
1523619039398,851968,120,-56,-1,-1,0
1523619039398,524288,120,-56,-1,-1,0
1523619039398,196608,120,-56,-1,-1,0
1523619039398,0,120,-56,-1,-1,0
1523619039398,-65536,120,-56,-1,-1,0
1523619039438,-131072,119,-56,-1,-1,0
1523619039438,-196608,119,-56,-1,-1,0
1523619039438,-196608,119,-56,-1,-1,0
1523619039438,-262144,119,-56,-1,-1,0
1523619039438,-327680,119,-56,-1,-1,0
1523619039478,-458752,119,-56,-1,-1,0
1523619039478,-589824,119,-56,-1,-1,0
1523619039478,-655360,119,-56,-1,-1,0
1523619039478,-786432,119,-56,-1,-1,0
1523619039478,-917504,119,-56,-1,-1,0
1523619039518,-1048576,119,-56,-1,-1,0
1523619039518,-1114112,119,-56,-1,-1,0
1523619039518,-1048576,119,-56,-1,-1,0
1523619039518,-851968,119,-56,-1,-1,0
1523619039518,-720896,119,-56,-1,-1,0
1523619039558,-655360,119,-56,-1,-1,0
1523619039558,-655360,119,-56,-1,-1,0
1523619039558,-720896,119,-56,-1,-1,0
1523619039558,-983040,119,-56,-1,-1,0
1523619039558,-1179648,119,-56,-1,-1,0
1523619039598,-1310720,119,-56,-1,-1,0
1523619039598,-1376256,119,-56,-1,-1,0
1523619039598,-1507328,119,-56,-1,-1,0
1523619039598,-1572864,119,-56,-1,-1,0
1523619039598,-1638400,119,-56,-1,-1,0
1523619039638,-1703936,119,-56,-1,-1,0
1523619039638,-655360,119,-56,-1,-1,0
1523619039638,1966080,119,-56,-1,-1,0
1523619039638,4653056,119,-56,-1,-1,0
1523619039638,4128768,119,-56,-1,-1,0
1523619039678,-131072,119,-56,-1,-1,0
1523619039678,-4718592,119,-56,-1,-1,0
1523619039678,-6029312,119,-56,-1,-1,0
1523619039678,-4456448,119,-56,-1,-1,0
1523619039678,-2686976,119,-56,-1,-1,0
1523619039718,-1769472,119,-56,-1,-1,0
1523619039718,-1441792,119,-56,-1,-1,0
1523619039718,-1245184,119,-56,-1,-1,0
1523619039718,-1114112,119,-56,-1,-1,0
1523619039718,-1048576,119,-56,-1,-1,0
1523619039758,-851968,119,-56,-1,-1,0
1523619039758,-655360,119,-56,-1,-1,0
1523619039758,-458752,119,-56,-1,-1,0
1523619039758,-196608,119,-56,-1,-1,0
1523619039758,65536,119,-56,-1,-1,0
1523619039798,458752,119,-56,-1,-1,0
1523619039798,917504,119,-56,-1,-1,0
1523619039798,1376256,119,-56,-1,-1,0
1523619039798,1966080,119,-56,-1,-1,0
1523619039798,2490368,119,-56,-1,-1,0
1523619039839,2949120,119,-56,-1,-1,0
1523619039839,3211264,119,-56,-1,-1,0
1523619039839,3276800,119,-56,-1,-1,0
1523619039839,3276800,119,-56,-1,-1,0
1523619039839,3080192,119,-56,-1,-1,0
1523619039878,2621440,119,-56,-1,-1,0
1523619039878,2097152,119,-56,-1,-1,0
1523619039878,1572864,119,-56,-1,-1,0
1523619039878,1114112,119,-56,-1,-1,0
1523619039878,786432,119,-56,-1,-1,0
1523619039918,524288,119,-56,-1,-1,0
1523619039918,327680,119,-56,-1,-1,0
1523619039918,262144,119,-56,-1,-1,0
1523619039918,131072,119,-56,-1,-1,0
1523619039918,131072,119,-56,-1,-1,0
1523619039959,65536,119,-56,-1,-1,0
1523619039959,0,119,-56,-1,-1,0
1523619039959,0,119,-56,-1,-1,0
1523619039959,-65536,119,-56,-1,-1,0
1523619039959,-131072,119,-56,-1,-1,0
1523619039998,-262144,119,-56,-1,-1,0
1523619039998,-393216,119,-56,-1,-1,0
1523619039998,-458752,119,-56,-1,-1,0
1523619039998,-589824,119,-56,-1,-1,0
1523619039998,-720896,119,-56,-1,-1,0
1523619040038,-786432,119,-56,-1,-1,0
1523619040038,-655360,119,-56,-1,-1,0
1523619040038,-458752,119,-56,-1,-1,0
1523619040038,-327680,119,-56,-1,-1,0
1523619040038,-262144,119,-56,-1,-1,0
1523619040077,-327680,119,-56,-1,-1,0
1523619040077,-524288,119,-56,-1,-1,0
1523619040077,-720896,119,-56,-1,-1,0
1523619040077,-851968,119,-56,-1,-1,0
1523619040077,-983040,119,-56,-1,-1,0
1523619040117,-1114112,119,-56,-1,-1,0
1523619040117,-1114112,119,-56,-1,-1,0
1523619040117,-1245184,119,-56,-1,-1,0
1523619040117,-1376256,119,-56,-1,-1,0
1523619040117,-1179648,119,-56,-1,-1,0
1523619040157,524288,119,-56,-1,-1,0
1523619040157,3538944,119,-56,-1,-1,0
1523619040157,4915200,119,-56,-1,-1,0
1523619040157,2490368,119,-56,-1,-1,0
1523619040157,-2490368,119,-56,-1,-1,0
1523619040197,-5570560,119,-56,-1,-1,0
1523619040197,-5046272,119,-56,-1,-1,0
1523619040197,-3014656,119,-56,-1,-1,0
1523619040197,-1703936,119,-56,-1,-1,0
1523619040197,-1245184,119,-56,-1,-1,0
1523619040237,-1114112,119,-56,-1,-1,0
1523619040237,-983040,119,-56,-1,-1,0
1523619040237,-851968,119,-56,-1,-1,0
1523619040237,-786432,119,-56,-1,-1,0
1523619040237,-655360,119,-56,-1,-1,0
1523619040277,-393216,119,-56,-1,-1,0
1523619040277,-196608,119,-56,-1,-1,0
1523619040277,0,119,-56,-1,-1,0
1523619040277,393216,119,-56,-1,-1,0
1523619040277,720896,119,-56,-1,-1,0
1523619040317,1179648,119,-56,-1,-1,0
1523619040317,1638400,119,-56,-1,-1,0
1523619040317,2162688,119,-56,-1,-1,0
1523619040317,2686976,119,-56,-1,-1,0
1523619040317,3014656,119,-56,-1,-1,0
1523619040357,3145728,119,-56,-1,-1,0
1523619040357,3080192,119,-56,-1,-1,0
1523619040357,2883584,119,-56,-1,-1,0
1523619040357,2621440,119,-56,-1,-1,0
1523619040357,2228224,119,-56,-1,-1,0
1523619040397,1703936,119,-56,-1,-1,0
1523619040397,1245184,119,-56,-1,-1,0
1523619040397,917504,119,-56,-1,-1,0
1523619040397,655360,119,-56,-1,-1,0
1523619040397,524288,119,-56,-1,-1,0
1523619040437,458752,119,-56,-1,-1,0
1523619040437,327680,119,-56,-1,-1,0
1523619040437,262144,119,-56,-1,-1,0
1523619040437,131072,119,-56,-1,-1,0
1523619040437,65536,119,-56,-1,-1,0
1523619040477,0,119,-56,-1,-1,0
1523619040477,0,119,-56,-1,-1,0
1523619040477,-131072,119,-56,-1,-1,0
1523619040477,-262144,119,-56,-1,-1,0
1523619040477,-327680,119,-56,-1,-1,0
1523619040517,-458752,119,-56,-1,-1,0
1523619040517,-589824,119,-56,-1,-1,0
1523619040517,-655360,119,-56,-1,-1,0
1523619040517,-786432,119,-56,-1,-1,0
1523619040517,-786432,119,-56,-1,-1,0
1523619040557,-655360,119,-56,-1,-1,0
1523619040557,-458752,119,-56,-1,-1,0
1523619040557,-327680,119,-56,-1,-1,0
1523619040557,-262144,119,-56,-1,-1,0
1523619040557,-393216,119,-56,-1,-1,0
1523619040599,-524288,119,-56,-1,-1,0
1523619040599,-786432,119,-56,-1,-1,0
1523619040599,-917504,119,-56,-1,-1,0
1523619040599,-1048576,119,-56,-1,-1,0
1523619040599,-1048576,119,-56,-1,-1,0
1523619040637,-1114112,119,-56,-1,-1,0
1523619040637,-1245184,119,-56,-1,-1,0
1523619040637,-1572864,119,-56,-1,-1,0
1523619040637,-1441792,119,-56,-1,-1,0
1523619040637,0,119,-56,-1,-1,0
1523619040677,2359296,119,-56,-1,-1,0
1523619040677,3407872,119,-56,-1,-1,0
1523619040677,1310720,119,-56,-1,-1,0
1523619040677,-2686976,119,-56,-1,-1,0
1523619040677,-5046272,119,-56,-1,-1,0
1523619040717,-4521984,119,-56,-1,-1,0
1523619040717,-2818048,119,-56,-1,-1,0
1523619040717,-1638400,119,-56,-1,-1,0
1523619040717,-1245184,119,-56,-1,-1,0
1523619040717,-1114112,119,-56,-1,-1,0
1523619040757,-983040,119,-56,-1,-1,0
1523619040757,-917504,119,-56,-1,-1,0
1523619040757,-786432,119,-56,-1,-1,0
1523619040757,-655360,119,-56,-1,-1,0
1523619040757,-458752,119,-56,-1,-1,0
1523619040797,-196608,119,-56,-1,-1,0
1523619040797,0,119,-56,-1,-1,0
1523619040797,327680,119,-56,-1,-1,0
1523619040797,720896,119,-56,-1,-1,0
1523619040797,1114112,119,-56,-1,-1,0
1523619040837,1638400,119,-56,-1,-1,0
1523619040837,2162688,119,-56,-1,-1,0
1523619040837,2555904,119,-56,-1,-1,0
1523619040837,2883584,119,-56,-1,-1,0
1523619040837,3080192,119,-56,-1,-1,0
1523619040877,3014656,119,-56,-1,-1,0
1523619040877,2818048,119,-56,-1,-1,0
1523619040877,2555904,119,-56,-1,-1,0
1523619040877,2162688,119,-56,-1,-1,0
1523619040877,1703936,119,-56,-1,-1,0
1523619040919,1179648,119,-56,-1,-1,0
1523619040919,851968,119,-56,-1,-1,0
1523619040919,589824,119,-56,-1,-1,0
1523619040919,393216,119,-56,-1,-1,0
1523619040919,262144,119,-56,-1,-1,0
1523619040957,131072,119,-56,-1,-1,0
1523619040957,65536,119,-56,-1,-1,0
1523619040957,0,119,-56,-1,-1,0
1523619040957,-65536,119,-56,-1,-1,0
1523619040957,-131072,119,-56,-1,-1,0
1523619040997,-262144,119,-56,-1,-1,0
1523619040997,-327680,119,-56,-1,-1,0
1523619040997,-458752,119,-56,-1,-1,0
1523619040997,-524288,119,-56,-1,-1,0
1523619040997,-589824,119,-56,-1,-1,0
1523619041037,-720896,119,-56,-1,-1,0
1523619041037,-851968,119,-56,-1,-1,0
1523619041037,-917504,119,-56,-1,-1,0
1523619041037,-851968,119,-56,-1,-1,0
1523619041037,-655360,119,-56,-1,-1,0
1523619041079,-458752,119,-56,-1,-1,0
1523619041079,-393216,119,-56,-1,-1,0
1523619041079,-327680,119,-56,-1,-1,0
1523619041079,-458752,119,-56,-1,-1,0
1523619041079,-655360,119,-56,-1,-1,0
1523619041117,-851968,119,-56,-1,-1,0
1523619041117,-983040,119,-56,-1,-1,0
1523619041117,-1048576,119,-56,-1,-1,0
1523619041117,-1114112,119,-56,-1,-1,0
1523619041117,-1048576,119,-56,-1,-1,0
1523619041157,-1179648,119,-56,-1,-1,0
1523619041157,-1441792,119,-56,-1,-1,0
1523619041157,-1441792,119,-56,-1,-1,0
1523619041157,-393216,119,-56,-1,-1,0
1523619041157,1441792,119,-56,-1,-1,0
1523619041197,2031616,119,-56,-1,-1,0
1523619041197,65536,119,-56,-1,-1,0
1523619041197,-3211264,119,-56,-1,-1,0
1523619041197,-4915200,119,-56,-1,-1,0
1523619041197,-4325376,119,-56,-1,-1,0
1523619041239,-2752512,119,-56,-1,-1,0
1523619041239,-1638400,119,-56,-1,-1,0
1523619041239,-1245184,119,-56,-1,-1,0
1523619041239,-1048576,119,-56,-1,-1,0
1523619041239,-983040,119,-56,-1,-1,0
1523619041279,-917504,119,-56,-1,-1,0
1523619041279,-786432,119,-56,-1,-1,0
1523619041279,-655360,119,-56,-1,-1,0
1523619041279,-458752,119,-56,-1,-1,0
1523619041279,-196608,119,-56,-1,-1,0
1523619041317,0,119,-56,-1,-1,0
1523619041317,327680,119,-56,-1,-1,0
1523619041317,720896,119,-56,-1,-1,0
1523619041317,1114112,119,-56,-1,-1,0
1523619041317,1572864,119,-56,-1,-1,0
1523619041357,2097152,119,-56,-1,-1,0
1523619041357,2555904,119,-56,-1,-1,0
1523619041357,2883584,119,-56,-1,-1,0
1523619041357,3080192,119,-56,-1,-1,0
1523619041357,3014656,119,-56,-1,-1,0
1523619041397,2883584,119,-56,-1,-1,0
1523619041397,2621440,119,-56,-1,-1,0
1523619041397,2293760,119,-56,-1,-1,0
1523619041397,1835008,119,-56,-1,-1,0
1523619041397,1376256,119,-56,-1,-1,0
1523619041437,917504,119,-56,-1,-1,0
1523619041437,655360,119,-56,-1,-1,0
1523619041437,458752,119,-56,-1,-1,0
1523619041437,393216,119,-56,-1,-1,0
1523619041437,262144,119,-56,-1,-1,0
1523619041477,196608,119,-56,-1,-1,0
1523619041477,131072,119,-56,-1,-1,0
1523619041477,0,119,-56,-1,-1,0
1523619041477,0,119,-56,-1,-1,0
1523619041477,-131072,119,-56,-1,-1,0
1523619041517,-196608,119,-56,-1,-1,0
1523619041517,-262144,119,-56,-1,-1,0
1523619041517,-327680,119,-56,-1,-1,0
1523619041517,-393216,119,-56,-1,-1,0
1523619041517,-458752,119,-56,-1,-1,0
1523619041557,-524288,119,-56,-1,-1,0
1523619041557,-655360,119,-56,-1,-1,0
1523619041557,-589824,119,-56,-1,-1,0
1523619041557,-393216,119,-56,-1,-1,0
1523619041557,-196608,119,-56,-1,-1,0
1523619041597,-65536,119,-56,-1,-1,0
1523619041597,-65536,119,-56,-1,-1,0
1523619041597,-196608,119,-56,-1,-1,0
1523619041597,-393216,119,-56,-1,-1,0
1523619041597,-589824,119,-56,-1,-1,0
1523619041637,-720896,119,-56,-1,-1,0
1523619041637,-851968,119,-56,-1,-1,0
1523619041637,-851968,119,-56,-1,-1,0
1523619041637,-917504,119,-56,-1,-1,0
1523619041637,-983040,119,-56,-1,-1,0
1523619041677,-1179648,119,-56,-1,-1,0
1523619041677,-917504,119,-56,-1,-1,0
1523619041677,458752,119,-56,-1,-1,0
1523619041677,2293760,119,-56,-1,-1,0
1523619041677,2293760,119,-56,-1,-1,0
1523619041717,-327680,119,-56,-1,-1,0
1523619041717,-3735552,119,-56,-1,-1,0
1523619041717,-5111808,119,-56,-1,-1,0
1523619041717,-4259840,119,-56,-1,-1,0
1523619041717,-2752512,119,-56,-1,-1,0
1523619041757,-1638400,119,-56,-1,-1,0
1523619041757,-1114112,119,-56,-1,-1,0
1523619041757,-983040,119,-56,-1,-1,0
1523619041757,-917504,119,-56,-1,-1,0
1523619041757,-786432,119,-56,-1,-1,0
1523619041797,-720896,119,-56,-1,-1,0
1523619041797,-524288,119,-56,-1,-1,0
1523619041797,-327680,119,-56,-1,-1,0
1523619041797,0,119,-56,-1,-1,0
1523619041797,262144,119,-56,-1,-1,0
1523619041837,589824,119,-56,-1,-1,0
1523619041837,917504,119,-56,-1,-1,0
1523619041837,1376256,119,-56,-1,-1,0
1523619041837,1900544,119,-56,-1,-1,0
1523619041837,2424832,119,-56,-1,-1,0
1523619041879,2883584,119,-56,-1,-1,0
1523619041879,3342336,119,-56,-1,-1,0
1523619041879,3604480,119,-56,-1,-1,0
1523619041879,3670016,119,-56,-1,-1,0
1523619041879,3538944,119,-56,-1,-1,0
1523619041917,3276800,119,-56,-1,-1,0
1523619041917,2883584,119,-56,-1,-1,0
1523619041917,2293760,119,-56,-1,-1,0
1523619041917,1769472,119,-56,-1,-1,0
1523619041917,1310720,119,-56,-1,-1,0
1523619041959,983040,119,-56,-1,-1,0
1523619041959,786432,119,-56,-1,-1,0
1523619041959,589824,119,-56,-1,-1,0
1523619041959,458752,119,-56,-1,-1,0
1523619041959,393216,119,-56,-1,-1,0
1523619041997,393216,119,-56,-1,-1,0
1523619041997,327680,119,-56,-1,-1,0
1523619041997,262144,119,-56,-1,-1,0
1523619041997,196608,119,-56,-1,-1,0
1523619041997,65536,119,-56,-1,-1,0
1523619042039,0,119,-56,-1,-1,0
1523619042039,-131072,119,-56,-1,-1,0
1523619042039,-196608,119,-56,-1,-1,0
1523619042039,-262144,119,-56,-1,-1,0
1523619042039,-327680,119,-56,-1,-1,0
1523619042077,-393216,119,-56,-1,-1,0
1523619042077,-393216,119,-56,-1,-1,0
1523619042077,-196608,119,-56,-1,-1,0
1523619042077,0,119,-56,-1,-1,0
1523619042077,65536,119,-56,-1,-1,0
1523619042117,0,119,-56,-1,-1,0
1523619042117,-131072,119,-56,-1,-1,0
1523619042117,-327680,119,-56,-1,-1,0
1523619042117,-458752,119,-56,-1,-1,0
1523619042117,-589824,119,-56,-1,-1,0
1523619042159,-720896,119,-56,-1,-1,0
1523619042159,-851968,119,-56,-1,-1,0
1523619042159,-851968,119,-56,-1,-1,0
1523619042159,-1048576,119,-56,-1,-1,0
1523619042159,-1114112,119,-56,-1,-1,0
1523619042197,-196608,119,-56,-1,-1,0
1523619042197,2162688,119,-56,-1,-1,0
1523619042197,4587520,119,-56,-1,-1,0
1523619042197,3866624,119,-56,-1,-1,0
1523619042197,-196608,119,-56,-1,-1,0
1523619042237,-4390912,119,-56,-1,-1,0
1523619042237,-5439488,119,-56,-1,-1,0
1523619042237,-3932160,119,-56,-1,-1,0
1523619042237,-2359296,119,-56,-1,-1,0
1523619042237,-1441792,119,-56,-1,-1,0
1523619042279,-1048576,119,-56,-1,-1,0
1523619042279,-851968,119,-56,-1,-1,0
1523619042279,-786432,119,-56,-1,-1,0
1523619042279,-720896,119,-56,-1,-1,0
1523619042279,-589824,119,-56,-1,-1,0
1523619042317,-458752,119,-56,-1,-1,0
1523619042317,-262144,119,-56,-1,-1,0
1523619042317,0,119,-56,-1,-1,0
1523619042317,262144,119,-56,-1,-1,0
1523619042317,655360,119,-56,-1,-1,0
1523619042357,1114112,119,-56,-1,-1,0
1523619042357,1572864,119,-56,-1,-1,0
1523619042357,2097152,119,-56,-1,-1,0
1523619042357,2621440,119,-56,-1,-1,0
1523619042357,3080192,119,-56,-1,-1,0
1523619042397,3407872,119,-56,-1,-1,0
1523619042397,3538944,119,-56,-1,-1,0
1523619042397,3538944,119,-56,-1,-1,0
1523619042397,3407872,119,-56,-1,-1,0
1523619042397,3080192,119,-56,-1,-1,0
1523619042437,2490368,119,-56,-1,-1,0
1523619042437,1835008,119,-56,-1,-1,0
1523619042437,1310720,119,-56,-1,-1,0
1523619042437,917504,119,-56,-1,-1,0
1523619042437,655360,119,-56,-1,-1,0
1523619042477,458752,119,-56,-1,-1,0
1523619042477,327680,119,-56,-1,-1,0
1523619042477,131072,119,-56,-1,-1,0
1523619042477,65536,119,-56,-1,-1,0
1523619042477,0,119,-56,-1,-1,0
1523619042519,0,119,-56,-1,-1,0
1523619042519,-131072,119,-56,-1,-1,0
1523619042519,-262144,119,-56,-1,-1,0
1523619042519,-327680,119,-56,-1,-1,0
1523619042519,-458752,119,-56,-1,-1,0
1523619042557,-589824,119,-56,-1,-1,0
1523619042557,-720896,119,-56,-1,-1,0
1523619042557,-786432,119,-56,-1,-1,0
1523619042557,-917504,119,-56,-1,-1,0
1523619042557,-983040,119,-56,-1,-1,0
1523619042597,-917504,119,-56,-1,-1,0
1523619042597,-720896,119,-56,-1,-1,0
1523619042597,-655360,119,-56,-1,-1,0
1523619042597,-655360,119,-56,-1,-1,0
1523619042597,-720896,119,-56,-1,-1,0
1523619042637,-851968,119,-56,-1,-1,0
1523619042637,-1048576,119,-56,-1,-1,0
1523619042637,-1310720,119,-56,-1,-1,0
1523619042637,-1507328,119,-56,-1,-1,0
1523619042637,-1572864,119,-56,-1,-1,0
1523619042677,-1638400,119,-56,-1,-1,0
1523619042677,-1703936,119,-56,-1,-1,0
1523619042677,-1835008,119,-56,-1,-1,0
1523619042677,-1572864,119,-56,-1,-1,0
1523619042677,262144,119,-56,-1,-1,0
1523619042717,3473408,119,-56,-1,-1,0
1523619042717,5308416,119,-56,-1,-1,0
1523619042717,2949120,119,-56,-1,-1,0
1523619042717,-2228224,119,-56,-1,-1,0
1523619042717,-5701632,119,-56,-1,-1,0
1523619042757,-5636096,119,-56,-1,-1,0
1523619042757,-3866624,119,-56,-1,-1,0
1523619042757,-2555904,119,-56,-1,-1,0
1523619042757,-2031616,119,-56,-1,-1,0
1523619042757,-1835008,119,-56,-1,-1,0
1523619042797,-1703936,119,-56,-1,-1,0
1523619042797,-1572864,119,-56,-1,-1,0
1523619042797,-1507328,119,-56,-1,-1,0
1523619042797,-1376256,119,-56,-1,-1,0
1523619042797,-1179648,119,-56,-1,-1,0
1523619042837,-917504,119,-56,-1,-1,0
1523619042837,-655360,119,-56,-1,-1,0
1523619042837,-262144,119,-56,-1,-1,0
1523619042837,0,119,-56,-1,-1,0
1523619042837,458752,119,-56,-1,-1,0
1523619042877,983040,119,-56,-1,-1,0
1523619042877,1572864,119,-56,-1,-1,0
1523619042877,2097152,119,-56,-1,-1,0
1523619042877,2490368,119,-56,-1,-1,0
1523619042877,2686976,119,-56,-1,-1,0
1523619042917,2686976,119,-56,-1,-1,0
1523619042917,2555904,119,-56,-1,-1,0
1523619042917,2359296,119,-56,-1,-1,0
1523619042917,1966080,119,-56,-1,-1,0
1523619042917,1441792,119,-56,-1,-1,0
1523619042957,851968,119,-56,-1,-1,0
1523619042957,393216,119,-56,-1,-1,0
1523619042957,65536,119,-56,-1,-1,0
1523619042957,-65536,119,-56,-1,-1,0
1523619042957,-196608,119,-56,-1,-1,0
1523619042997,-262144,119,-56,-1,-1,0
1523619042997,-327680,119,-56,-1,-1,0
1523619042997,-393216,119,-56,-1,-1,0
1523619042997,-393216,119,-56,-1,-1,0
1523619042997,-458752,119,-56,-1,-1,0
1523619043037,-589824,119,-56,-1,-1,0
1523619043037,-655360,119,-56,-1,-1,0
1523619043037,-786432,119,-56,-1,-1,0
1523619043037,-917504,119,-56,-1,-1,0
1523619043037,-1048576,119,-56,-1,-1,0
1523619043078,-1114112,119,-56,-1,-1,0
1523619043078,-1179648,119,-56,-1,-1,0
1523619043078,-1245184,119,-56,-1,-1,0
1523619043078,-1179648,119,-56,-1,-1,0
1523619043078,-983040,119,-56,-1,-1,0
1523619043117,-786432,119,-56,-1,-1,0
1523619043117,-720896,119,-56,-1,-1,0
1523619043117,-720896,119,-56,-1,-1,0
1523619043117,-851968,119,-56,-1,-1,0
1523619043117,-1048576,119,-56,-1,-1,0
1523619043159,-1245184,119,-56,-1,-1,0
1523619043159,-1376256,119,-56,-1,-1,0
1523619043159,-1441792,119,-56,-1,-1,0
1523619043159,-1507328,119,-56,-1,-1,0
1523619043159,-1572864,119,-56,-1,-1,0
1523619043197,-1703936,119,-56,-1,-1,0
1523619043197,-1835008,119,-56,-1,-1,0
1523619043197,-917504,119,-56,-1,-1,0
1523619043197,1703936,119,-56,-1,-1,0
1523619043197,4456448,119,-56,-1,-1,0
1523619043237,4063232,119,-56,-1,-1,0
1523619043237,-262144,119,-56,-1,-1,0
1523619043237,-4849664,119,-56,-1,-1,0
1523619043237,-6160384,119,-56,-1,-1,0
1523619043237,-4587520,119,-56,-1,-1,0
1523619043277,-2752512,119,-56,-1,-1,0
1523619043277,-1835008,119,-56,-1,-1,0
1523619043277,-1507328,119,-56,-1,-1,0
1523619043277,-1376256,119,-56,-1,-1,0
1523619043277,-1245184,119,-56,-1,-1,0
1523619043317,-1114112,119,-56,-1,-1,0
1523619043317,-983040,119,-56,-1,-1,0
1523619043317,-720896,119,-56,-1,-1,0
1523619043317,-524288,119,-56,-1,-1,0
1523619043317,-262144,119,-56,-1,-1,0
1523619043357,0,119,-56,-1,-1,0
1523619043357,458752,119,-56,-1,-1,0
1523619043357,917504,119,-56,-1,-1,0
1523619043357,1376256,119,-56,-1,-1,0
1523619043357,1900544,119,-56,-1,-1,0
1523619043397,2490368,119,-56,-1,-1,0
1523619043397,2949120,119,-56,-1,-1,0
1523619043397,3211264,119,-56,-1,-1,0
1523619043397,3211264,119,-56,-1,-1,0
1523619043397,3145728,119,-56,-1,-1,0
1523619043437,2949120,119,-56,-1,-1,0
1523619043437,2686976,119,-56,-1,-1,0
1523619043437,2228224,119,-56,-1,-1,0
1523619043437,1769472,119,-56,-1,-1,0
1523619043437,1310720,119,-56,-1,-1,0
1523619043477,1048576,119,-56,-1,-1,0
1523619043477,851968,119,-56,-1,-1,0
1523619043477,720896,119,-56,-1,-1,0
1523619043477,589824,119,-56,-1,-1,0
1523619043477,524288,119,-56,-1,-1,0
1523619043517,458752,119,-56,-1,-1,0
1523619043517,393216,119,-56,-1,-1,0
1523619043517,393216,119,-56,-1,-1,0
1523619043517,327680,119,-56,-1,-1,0
1523619043517,262144,119,-56,-1,-1,0
1523619043557,131072,119,-56,-1,-1,0
1523619043557,0,119,-56,-1,-1,0
1523619043557,-131072,119,-56,-1,-1,0
1523619043557,-262144,119,-56,-1,-1,0
1523619043557,-393216,119,-56,-1,-1,0
1523619043597,-524288,119,-56,-1,-1,0
1523619043597,-589824,119,-56,-1,-1,0
1523619043597,-393216,119,-56,-1,-1,0
1523619043597,-196608,119,-56,-1,-1,0
1523619043597,-65536,119,-56,-1,-1,0
1523619043637,-65536,119,-56,-1,-1,0
1523619043637,-131072,119,-56,-1,-1,0
1523619043637,-393216,119,-56,-1,-1,0
1523619043637,-589824,119,-56,-1,-1,0
1523619043637,-720896,119,-56,-1,-1,0
1523619043677,-917504,119,-56,-1,-1,0
1523619043677,-983040,119,-56,-1,-1,0
1523619043677,-983040,119,-56,-1,-1,0
1523619043677,-1114112,119,-56,-1,-1,0
1523619043677,-1376256,119,-56,-1,-1,0
1523619043718,-1245184,119,-56,-1,-1,0
1523619043718,196608,119,-56,-1,-1,0
1523619043718,2883584,119,-56,-1,-1,0
1523619043718,4259840,119,-56,-1,-1,0
1523619043718,2359296,119,-56,-1,-1,0
1523619043757,-1900544,119,-56,-1,-1,0
1523619043757,-4653056,119,-56,-1,-1,0
1523619043757,-4325376,119,-56,-1,-1,0
1523619043757,-2686976,119,-56,-1,-1,0
1523619043757,-1572864,119,-56,-1,-1,0
1523619043799,-1179648,119,-56,-1,-1,0
1523619043799,-1048576,119,-56,-1,-1,0
1523619043799,-983040,119,-56,-1,-1,0
1523619043799,-917504,119,-56,-1,-1,0
1523619043799,-851968,119,-56,-1,-1,0
1523619043837,-655360,119,-56,-1,-1,0
1523619043837,-458752,119,-56,-1,-1,0
1523619043837,-196608,119,-56,-1,-1,0
1523619043837,0,119,-56,-1,-1,0
1523619043837,327680,119,-56,-1,-1,0
1523619043877,720896,119,-56,-1,-1,0
1523619043877,1114112,119,-56,-1,-1,0
1523619043877,1572864,119,-56,-1,-1,0
1523619043877,2097152,119,-56,-1,-1,0
1523619043877,2555904,119,-56,-1,-1,0
1523619043917,2752512,119,-56,-1,-1,0
1523619043917,2883584,119,-56,-1,-1,0
1523619043917,2752512,119,-56,-1,-1,0
1523619043917,2555904,119,-56,-1,-1,0
1523619043917,2293760,119,-56,-1,-1,0
1523619043957,1900544,119,-56,-1,-1,0
1523619043957,1441792,119,-56,-1,-1,0
1523619043957,1048576,119,-56,-1,-1,0
1523619043957,720896,119,-56,-1,-1,0
1523619043957,524288,119,-56,-1,-1,0
1523619043997,393216,119,-56,-1,-1,0
1523619043997,262144,119,-56,-1,-1,0
1523619043997,131072,119,-56,-1,-1,0
1523619043997,65536,119,-56,-1,-1,0
1523619043997,65536,119,-56,-1,-1,0
1523619044037,0,119,-56,-1,-1,0
1523619044037,-65536,119,-56,-1,-1,0
1523619044037,-131072,119,-56,-1,-1,0
1523619044037,-196608,119,-56,-1,-1,0
1523619044037,-262144,119,-56,-1,-1,0
1523619044077,-393216,119,-56,-1,-1,0
1523619044077,-524288,119,-56,-1,-1,0
1523619044077,-655360,119,-56,-1,-1,0
1523619044077,-720896,119,-56,-1,-1,0
1523619044077,-786432,119,-56,-1,-1,0
1523619044117,-786432,119,-56,-1,-1,0
1523619044117,-655360,119,-56,-1,-1,0
1523619044117,-458752,119,-56,-1,-1,0
1523619044117,-262144,119,-56,-1,-1,0
1523619044117,-262144,119,-56,-1,-1,0
1523619044157,-262144,119,-56,-1,-1,0
1523619044157,-458752,119,-56,-1,-1,0
1523619044157,-589824,119,-56,-1,-1,0
1523619044157,-786432,119,-56,-1,-1,0
1523619044157,-851968,119,-56,-1,-1,0
1523619044197,-917504,119,-56,-1,-1,0
1523619044197,-917504,119,-56,-1,-1,0
1523619044197,-1048576,119,-56,-1,-1,0
1523619044197,-1310720,119,-56,-1,-1,0
1523619044197,-1310720,119,-56,-1,-1,0
1523619044237,-262144,119,-56,-1,-1,0
1523619044237,1703936,119,-56,-1,-1,0
1523619044237,2752512,119,-56,-1,-1,0
1523619044237,1179648,119,-56,-1,-1,0
1523619044237,-2228224,119,-56,-1,-1,0
1523619044277,-4456448,119,-56,-1,-1,0
1523619044277,-4194304,119,-56,-1,-1,0
1523619044277,-2686976,119,-56,-1,-1,0
1523619044277,-1638400,119,-56,-1,-1,0
1523619044277,-1245184,119,-56,-1,-1,0
1523619044317,-1179648,119,-56,-1,-1,0
1523619044317,-1048576,119,-56,-1,-1,0
1523619044317,-917504,119,-56,-1,-1,0
1523619044317,-851968,119,-56,-1,-1,0
1523619044317,-720896,119,-56,-1,-1,0
1523619044357,-524288,119,-56,-1,-1,0
1523619044357,-327680,119,-56,-1,-1,0
1523619044357,-65536,119,-56,-1,-1,0
1523619044357,196608,119,-56,-1,-1,0
1523619044357,589824,119,-56,-1,-1,0
1523619044397,983040,119,-56,-1,-1,0
1523619044397,1441792,119,-56,-1,-1,0
1523619044397,1900544,119,-56,-1,-1,0
1523619044397,2293760,119,-56,-1,-1,0
1523619044397,2621440,119,-56,-1,-1,0
1523619044438,2752512,119,-56,-1,-1,0
1523619044438,2686976,119,-56,-1,-1,0
1523619044438,2555904,119,-56,-1,-1,0
1523619044438,2293760,119,-56,-1,-1,0
1523619044438,1900544,119,-56,-1,-1,0
1523619044477,1507328,119,-56,-1,-1,0
1523619044477,1114112,119,-56,-1,-1,0
1523619044477,720896,119,-56,-1,-1,0
1523619044477,458752,119,-56,-1,-1,0
1523619044477,262144,119,-56,-1,-1,0
1523619044517,196608,119,-56,-1,-1,0
1523619044517,65536,119,-56,-1,-1,0
1523619044517,0,119,-56,-1,-1,0
1523619044517,0,119,-56,-1,-1,0
1523619044517,0,119,-56,-1,-1,0
1523619044557,0,119,-56,-1,-1,0
1523619044557,-65536,119,-56,-1,-1,0
1523619044557,-131072,119,-56,-1,-1,0
1523619044557,-196608,119,-56,-1,-1,0
1523619044557,-262144,119,-56,-1,-1,0
1523619044597,-393216,119,-56,-1,-1,0
1523619044597,-458752,119,-56,-1,-1,0
1523619044597,-524288,119,-56,-1,-1,0
1523619044597,-589824,119,-56,-1,-1,0
1523619044597,-589824,119,-56,-1,-1,0
1523619044637,-524288,119,-56,-1,-1,0
1523619044637,-262144,119,-56,-1,-1,0
1523619044637,-131072,119,-56,-1,-1,0
1523619044637,0,119,-56,-1,-1,0
1523619044637,-65536,119,-56,-1,-1,0
1523619044677,-196608,119,-56,-1,-1,0
1523619044677,-327680,119,-56,-1,-1,0
1523619044677,-524288,119,-56,-1,-1,0
1523619044677,-589824,119,-56,-1,-1,0
1523619044677,-655360,119,-56,-1,-1,0
1523619044718,-720896,119,-56,-1,-1,0
1523619044718,-786432,119,-56,-1,-1,0
1523619044718,-983040,119,-56,-1,-1,0
1523619044718,-917504,119,-56,-1,-1,0
1523619044718,65536,119,-56,-1,-1,0
1523619044758,2228224,119,-56,-1,-1,0
1523619044758,3735552,119,-56,-1,-1,0
1523619044758,2359296,119,-56,-1,-1,0
1523619044758,-1376256,119,-56,-1,-1,0
1523619044758,-4325376,119,-56,-1,-1,0
1523619044798,-4521984,119,-56,-1,-1,0
1523619044798,-3014656,119,-56,-1,-1,0
1523619044798,-1703936,119,-56,-1,-1,0
1523619044798,-1048576,119,-56,-1,-1,0
1523619044798,-851968,119,-56,-1,-1,0
1523619044837,-786432,119,-56,-1,-1,0
1523619044837,-655360,119,-56,-1,-1,0
1523619044837,-524288,119,-56,-1,-1,0
1523619044837,-393216,119,-56,-1,-1,0
1523619044837,-327680,119,-56,-1,-1,0
1523619044878,-65536,119,-56,-1,-1,0
1523619044878,131072,119,-56,-1,-1,0
1523619044878,458752,119,-56,-1,-1,0
1523619044878,851968,119,-56,-1,-1,0
1523619044878,1245184,119,-56,-1,-1,0
1523619044918,1703936,119,-56,-1,-1,0
1523619044918,2228224,119,-56,-1,-1,0
1523619044918,2752512,119,-56,-1,-1,0
1523619044918,3145728,119,-56,-1,-1,0
1523619044918,3342336,119,-56,-1,-1,0
1523619044958,3342336,119,-56,-1,-1,0
1523619044958,3342336,119,-56,-1,-1,0
1523619044958,3145728,119,-56,-1,-1,0
1523619044958,2752512,119,-56,-1,-1,0
1523619044958,2228224,119,-56,-1,-1,0
1523619044998,1703936,119,-56,-1,-1,0
1523619044998,1179648,119,-56,-1,-1,0
1523619044998,851968,119,-56,-1,-1,0
1523619044998,589824,119,-56,-1,-1,0
1523619044998,393216,119,-56,-1,-1,0
1523619045037,327680,119,-56,-1,-1,0
1523619045037,262144,119,-56,-1,-1,0
1523619045037,131072,119,-56,-1,-1,0
1523619045037,65536,119,-56,-1,-1,0
1523619045037,0,119,-56,-1,-1,0
1523619045078,0,119,-56,-1,-1,0
1523619045078,-65536,119,-56,-1,-1,0
1523619045078,-196608,119,-56,-1,-1,0
1523619045078,-327680,119,-56,-1,-1,0
1523619045078,-458752,119,-56,-1,-1,0
1523619045117,-589824,119,-56,-1,-1,0
1523619045117,-655360,119,-56,-1,-1,0
1523619045117,-720896,119,-56,-1,-1,0
1523619045117,-786432,119,-56,-1,-1,0
1523619045117,-786432,119,-56,-1,-1,0
1523619045157,-655360,119,-56,-1,-1,0
1523619045157,-524288,119,-56,-1,-1,0
1523619045157,-458752,119,-56,-1,-1,0
1523619045157,-458752,119,-56,-1,-1,0
1523619045157,-524288,119,-56,-1,-1,0
1523619045198,-720896,119,-56,-1,-1,0
1523619045198,-917504,119,-56,-1,-1,0
1523619045198,-1114112,119,-56,-1,-1,0
1523619045198,-1179648,119,-56,-1,-1,0
1523619045198,-1245184,119,-56,-1,-1,0
1523619045237,-1310720,119,-56,-1,-1,0
1523619045237,-1376256,119,-56,-1,-1,0
1523619045237,-1507328,119,-56,-1,-1,0
1523619045237,-983040,119,-56,-1,-1,0
1523619045237,1245184,119,-56,-1,-1,0
1523619045278,4390912,119,-56,-1,-1,0
1523619045278,5111808,119,-56,-1,-1,0
1523619045278,1835008,119,-56,-1,-1,0
1523619045278,-3145728,119,-56,-1,-1,0
1523619045278,-5570560,119,-56,-1,-1,0
1523619045318,-4718592,119,-56,-1,-1,0
1523619045318,-3014656,119,-56,-1,-1,0
1523619045318,-1900544,119,-56,-1,-1,0
1523619045318,-1376256,119,-56,-1,-1,0
1523619045318,-1310720,119,-56,-1,-1,0
1523619045358,-1310720,119,-56,-1,-1,0
1523619045358,-1179648,119,-56,-1,-1,0
1523619045358,-1048576,119,-56,-1,-1,0
1523619045358,-851968,119,-56,-1,-1,0
1523619045358,-589824,119,-56,-1,-1,0
1523619045397,-327680,119,-56,-1,-1,0
1523619045397,0,119,-56,-1,-1,0
1523619045397,196608,119,-56,-1,-1,0
1523619045397,524288,119,-56,-1,-1,0
1523619045397,1048576,119,-56,-1,-1,0
1523619045438,1507328,119,-56,-1,-1,0
1523619045438,2097152,119,-56,-1,-1,0
1523619045438,2621440,119,-56,-1,-1,0
1523619045438,2949120,119,-56,-1,-1,0
1523619045438,3080192,119,-56,-1,-1,0
1523619045478,3014656,119,-56,-1,-1,0
1523619045478,2883584,119,-56,-1,-1,0
1523619045478,2555904,119,-56,-1,-1,0
1523619045478,2097152,119,-56,-1,-1,0
1523619045478,1572864,119,-56,-1,-1,0
1523619045518,1048576,119,-56,-1,-1,0
1523619045518,589824,119,-56,-1,-1,0
1523619045518,327680,119,-56,-1,-1,0
1523619045518,131072,119,-56,-1,-1,0
1523619045518,0,119,-56,-1,-1,0
1523619045557,-65536,119,-56,-1,-1,0
1523619045557,-131072,119,-56,-1,-1,0
1523619045557,-196608,119,-56,-1,-1,0
1523619045557,-262144,119,-56,-1,-1,0
1523619045557,-327680,119,-56,-1,-1,0
1523619045598,-393216,118,-56,-1,-1,0
1523619045598,-458752,118,-56,-1,-1,0
1523619045598,-589824,118,-56,-1,-1,0
1523619045598,-720896,118,-56,-1,-1,0
1523619045598,-851968,118,-56,-1,-1,0
1523619045637,-917504,118,-56,-1,-1,0
1523619045637,-1048576,118,-56,-1,-1,0
1523619045637,-1114112,118,-56,-1,-1,0
1523619045637,-1245184,118,-56,-1,-1,0
1523619045637,-1114112,118,-56,-1,-1,0
1523619045678,-917504,118,-56,-1,-1,0
1523619045678,-786432,118,-56,-1,-1,0
1523619045678,-655360,118,-56,-1,-1,0
1523619045678,-655360,118,-56,-1,-1,0
1523619045678,-720896,118,-56,-1,-1,0
1523619045719,-917504,118,-56,-1,-1,0
1523619045719,-1048576,118,-56,-1,-1,0
1523619045719,-1179648,118,-56,-1,-1,0
1523619045719,-1310720,118,-56,-1,-1,0
1523619045719,-1376256,118,-56,-1,-1,0
1523619045757,-1376256,118,-56,-1,-1,0
1523619045757,-1376256,118,-56,-1,-1,0
1523619045757,-1441792,118,-56,-1,-1,0
1523619045757,-720896,118,-56,-1,-1,0
1523619045757,1703936,118,-56,-1,-1,0
1523619045798,4915200,118,-56,-1,-1,0
1523619045798,5701632,118,-56,-1,-1,0
1523619045798,2228224,118,-56,-1,-1,0
1523619045798,-3014656,118,-56,-1,-1,0
1523619045798,-5570560,118,-56,-1,-1,0
1523619045838,-4653056,118,-56,-1,-1,0
1523619045838,-2818048,118,-56,-1,-1,0
1523619045838,-1769472,118,-56,-1,-1,0
1523619045838,-1376256,118,-56,-1,-1,0
1523619045838,-1245184,118,-56,-1,-1,0
1523619045878,-1114112,118,-56,-1,-1,0
1523619045878,-917504,118,-56,-1,-1,0
1523619045878,-786432,118,-56,-1,-1,0
1523619045878,-655360,118,-56,-1,-1,0
1523619045878,-458752,118,-56,-1,-1,0
1523619045919,-196608,118,-56,-1,-1,0
1523619045919,0,118,-56,-1,-1,0
1523619045919,393216,118,-56,-1,-1,0
1523619045919,786432,118,-56,-1,-1,0
1523619045919,1179648,118,-56,-1,-1,0
1523619045958,1703936,118,-56,-1,-1,0
1523619045958,2228224,118,-56,-1,-1,0
1523619045958,2686976,118,-56,-1,-1,0
1523619045958,3014656,118,-56,-1,-1,0
1523619045958,3145728,118,-56,-1,-1,0
1523619045998,3145728,118,-56,-1,-1,0
1523619045998,3014656,118,-56,-1,-1,0
1523619045998,2752512,118,-56,-1,-1,0
1523619045998,2293760,118,-56,-1,-1,0
1523619045998,1769472,118,-56,-1,-1,0
1523619046038,1245184,118,-56,-1,-1,0
1523619046038,786432,118,-56,-1,-1,0
1523619046038,524288,118,-56,-1,-1,0
1523619046038,327680,118,-56,-1,-1,0
1523619046038,262144,118,-56,-1,-1,0
1523619046078,131072,118,-56,-1,-1,0
1523619046078,65536,118,-56,-1,-1,0
1523619046078,0,118,-56,-1,-1,0
1523619046078,0,118,-56,-1,-1,0
1523619046078,-65536,118,-56,-1,-1,0
1523619046118,-196608,118,-56,-1,-1,0
1523619046118,-262144,118,-56,-1,-1,0
1523619046118,-393216,118,-56,-1,-1,0
1523619046118,-524288,118,-56,-1,-1,0
1523619046118,-589824,118,-56,-1,-1,0
1523619046158,-655360,118,-56,-1,-1,0
1523619046158,-720896,118,-56,-1,-1,0
1523619046158,-851968,118,-56,-1,-1,0
1523619046158,-917504,118,-56,-1,-1,0
1523619046158,-917504,118,-56,-1,-1,0
1523619046198,-786432,118,-56,-1,-1,0
1523619046198,-589824,118,-56,-1,-1,0
1523619046198,-458752,118,-56,-1,-1,0
1523619046198,-393216,118,-56,-1,-1,0
1523619046198,-393216,118,-56,-1,-1,0
1523619046238,-589824,118,-56,-1,-1,0
1523619046238,-786432,118,-56,-1,-1,0
1523619046238,-1048576,118,-56,-1,-1,0
1523619046238,-1114112,118,-56,-1,-1,0
1523619046238,-1179648,118,-56,-1,-1,0
1523619046278,-1245184,118,-56,-1,-1,0
1523619046278,-1310720,118,-56,-1,-1,0
1523619046278,-1441792,118,-56,-1,-1,0
1523619046278,-1310720,118,-56,-1,-1,0
1523619046278,131072,118,-56,-1,-1,0
1523619046318,3014656,118,-56,-1,-1,0
1523619046318,5111808,118,-56,-1,-1,0
1523619046318,3538944,118,-56,-1,-1,0
1523619046318,-1179648,118,-56,-1,-1,0
1523619046318,-4980736,118,-56,-1,-1,0
1523619046359,-5308416,118,-56,-1,-1,0
1523619046359,-3473408,118,-56,-1,-1,0
1523619046359,-2031616,118,-56,-1,-1,0
1523619046359,-1441792,118,-56,-1,-1,0
1523619046359,-1245184,118,-56,-1,-1,0
1523619046398,-1114112,118,-56,-1,-1,0
1523619046398,-983040,118,-56,-1,-1,0
1523619046398,-851968,118,-56,-1,-1,0
1523619046398,-655360,118,-56,-1,-1,0
1523619046398,-524288,118,-56,-1,-1,0
1523619046438,-262144,118,-56,-1,-1,0
1523619046438,0,118,-56,-1,-1,0
1523619046438,196608,118,-56,-1,-1,0
1523619046438,524288,118,-56,-1,-1,0
1523619046438,983040,118,-56,-1,-1,0
1523619046478,1441792,118,-56,-1,-1,0
1523619046478,1966080,118,-56,-1,-1,0
1523619046478,2424832,118,-56,-1,-1,0
1523619046478,2752512,118,-56,-1,-1,0
1523619046478,2883584,118,-56,-1,-1,0
1523619046518,2883584,118,-56,-1,-1,0
1523619046518,2752512,118,-56,-1,-1,0
1523619046518,2490368,118,-56,-1,-1,0
1523619046518,2097152,118,-56,-1,-1,0
1523619046518,1703936,118,-56,-1,-1,0
1523619046558,1245184,118,-56,-1,-1,0
1523619046558,917504,118,-56,-1,-1,0
1523619046558,589824,118,-56,-1,-1,0
1523619046558,393216,118,-56,-1,-1,0
1523619046558,262144,118,-56,-1,-1,0
1523619046597,196608,118,-56,-1,-1,0
1523619046597,131072,118,-56,-1,-1,0
1523619046597,65536,118,-56,-1,-1,0
1523619046597,0,118,-56,-1,-1,0
1523619046597,0,118,-56,-1,-1,0
1523619046637,-131072,118,-56,-1,-1,0
1523619046637,-196608,118,-56,-1,-1,0
1523619046637,-327680,118,-56,-1,-1,0
1523619046637,-393216,118,-56,-1,-1,0
1523619046637,-458752,118,-56,-1,-1,0
1523619046677,-589824,118,-56,-1,-1,0
1523619046677,-655360,118,-56,-1,-1,0
1523619046677,-786432,118,-56,-1,-1,0
1523619046677,-851968,118,-56,-1,-1,0
1523619046677,-851968,118,-56,-1,-1,0
1523619046717,-851968,118,-56,-1,-1,0
1523619046717,-720896,118,-56,-1,-1,0
1523619046717,-524288,118,-56,-1,-1,0
1523619046717,-327680,118,-56,-1,-1,0
1523619046717,-262144,118,-56,-1,-1,0
1523619046757,-327680,118,-56,-1,-1,0
1523619046757,-524288,118,-56,-1,-1,0
1523619046757,-720896,118,-56,-1,-1,0
1523619046757,-851968,118,-56,-1,-1,0
1523619046757,-917504,118,-56,-1,-1,0
1523619046797,-983040,118,-56,-1,-1,0
1523619046797,-983040,118,-56,-1,-1,0
1523619046797,-1048576,118,-56,-1,-1,0
1523619046797,-1245184,118,-56,-1,-1,0
1523619046797,-1310720,118,-56,-1,-1,0
1523619046837,-327680,118,-56,-1,-1,0
1523619046837,1769472,118,-56,-1,-1,0
1523619046837,3342336,118,-56,-1,-1,0
1523619046837,2097152,118,-56,-1,-1,0
1523619046837,-1507328,118,-56,-1,-1,0
1523619046877,-4456448,118,-56,-1,-1,0
1523619046877,-4718592,118,-56,-1,-1,0
1523619046877,-3145728,118,-56,-1,-1,0
1523619046877,-1835008,118,-56,-1,-1,0
1523619046877,-1245184,118,-56,-1,-1,0
1523619046917,-1114112,118,-56,-1,-1,0
1523619046917,-983040,118,-56,-1,-1,0
1523619046917,-917504,118,-56,-1,-1,0
1523619046917,-851968,118,-56,-1,-1,0
1523619046917,-720896,118,-56,-1,-1,0
1523619046957,-524288,118,-56,-1,-1,0
1523619046957,-327680,118,-56,-1,-1,0
1523619046957,-65536,118,-56,-1,-1,0
1523619046957,131072,118,-56,-1,-1,0
1523619046957,458752,118,-56,-1,-1,0
1523619046999,851968,118,-56,-1,-1,0
1523619046999,1310720,118,-56,-1,-1,0
1523619046999,1703936,118,-56,-1,-1,0
1523619046999,2162688,118,-56,-1,-1,0
1523619046999,2555904,118,-56,-1,-1,0
1523619047037,2752512,118,-56,-1,-1,0
1523619047037,2752512,118,-56,-1,-1,0
1523619047037,2686976,118,-56,-1,-1,0
1523619047037,2490368,118,-56,-1,-1,0
1523619047037,2162688,118,-56,-1,-1,0
1523619047077,1703936,118,-56,-1,-1,0
1523619047077,1245184,118,-56,-1,-1,0
1523619047077,851968,118,-56,-1,-1,0
1523619047077,524288,118,-56,-1,-1,0
1523619047077,327680,118,-56,-1,-1,0
1523619047117,196608,118,-56,-1,-1,0
1523619047117,65536,118,-56,-1,-1,0
1523619047117,0,118,-56,-1,-1,0
1523619047117,0,118,-56,-1,-1,0
1523619047117,-65536,118,-56,-1,-1,0
1523619047157,-196608,118,-56,-1,-1,0
1523619047157,-262144,118,-56,-1,-1,0
1523619047157,-327680,118,-56,-1,-1,0
1523619047157,-393216,118,-56,-1,-1,0
1523619047157,-458752,118,-56,-1,-1,0
1523619047197,-589824,118,-56,-1,-1,0
1523619047197,-655360,118,-56,-1,-1,0
1523619047197,-720896,118,-56,-1,-1,0
1523619047197,-851968,118,-56,-1,-1,0
1523619047197,-917504,118,-56,-1,-1,0
1523619047237,-983040,118,-56,-1,-1,0
1523619047237,-851968,118,-56,-1,-1,0
1523619047237,-655360,118,-56,-1,-1,0
1523619047237,-393216,118,-56,-1,-1,0
1523619047237,-262144,118,-56,-1,-1,0
1523619047277,-262144,118,-56,-1,-1,0
1523619047277,-393216,118,-56,-1,-1,0
1523619047277,-524288,118,-56,-1,-1,0
1523619047277,-720896,118,-56,-1,-1,0
1523619047277,-851968,118,-56,-1,-1,0
1523619047317,-917504,118,-56,-1,-1,0
1523619047317,-917504,118,-56,-1,-1,0
1523619047317,-983040,118,-56,-1,-1,0
1523619047317,-1048576,118,-56,-1,-1,0
1523619047317,-1114112,118,-56,-1,-1,0
1523619047357,-917504,118,-56,-1,-1,0
1523619047357,327680,118,-56,-1,-1,0
1523619047357,2555904,118,-56,-1,-1,0
1523619047357,3342336,118,-56,-1,-1,0
1523619047357,1179648,118,-56,-1,-1,0
1523619047397,-2424832,118,-56,-1,-1,0
1523619047397,-4521984,118,-56,-1,-1,0
1523619047397,-4128768,118,-56,-1,-1,0
1523619047397,-2555904,118,-56,-1,-1,0
1523619047397,-1441792,118,-56,-1,-1,0
1523619047437,-983040,118,-56,-1,-1,0
1523619047437,-851968,118,-56,-1,-1,0
1523619047437,-720896,118,-56,-1,-1,0
1523619047437,-589824,118,-56,-1,-1,0
1523619047437,-458752,118,-56,-1,-1,0
1523619047477,-262144,118,-56,-1,-1,0
1523619047477,-65536,118,-56,-1,-1,0
1523619047477,65536,118,-56,-1,-1,0
1523619047477,327680,118,-56,-1,-1,0
1523619047477,589824,118,-56,-1,-1,0
1523619047517,917504,118,-56,-1,-1,0
1523619047517,1245184,118,-56,-1,-1,0
1523619047517,1703936,118,-56,-1,-1,0
1523619047517,2228224,118,-56,-1,-1,0
1523619047517,2752512,118,-56,-1,-1,0
1523619047557,3145728,118,-56,-1,-1,0
1523619047557,3407872,118,-56,-1,-1,0
1523619047557,3473408,118,-56,-1,-1,0
1523619047557,3342336,118,-56,-1,-1,0
1523619047557,3080192,118,-56,-1,-1,0
1523619047597,2686976,118,-56,-1,-1,0
1523619047597,2162688,118,-56,-1,-1,0
1523619047597,1703936,118,-56,-1,-1,0
1523619047597,1310720,118,-56,-1,-1,0
1523619047597,983040,118,-56,-1,-1,0
1523619047639,655360,118,-56,-1,-1,0
1523619047639,524288,118,-56,-1,-1,0
1523619047639,393216,118,-56,-1,-1,0
1523619047639,393216,118,-56,-1,-1,0
1523619047639,327680,118,-56,-1,-1,0
1523619047677,262144,118,-56,-1,-1,0
1523619047677,131072,118,-56,-1,-1,0
1523619047677,65536,118,-56,-1,-1,0
1523619047677,0,118,-56,-1,-1,0
1523619047677,-131072,118,-56,-1,-1,0
1523619047717,-262144,118,-56,-1,-1,0
1523619047717,-327680,118,-56,-1,-1,0
1523619047717,-458752,118,-56,-1,-1,0
1523619047717,-524288,118,-56,-1,-1,0
1523619047717,-655360,118,-56,-1,-1,0
1523619047757,-655360,118,-56,-1,-1,0
1523619047757,-655360,118,-56,-1,-1,0
1523619047757,-524288,118,-56,-1,-1,0
1523619047757,-393216,118,-56,-1,-1,0
1523619047757,-262144,118,-56,-1,-1,0
1523619047797,-196608,118,-56,-1,-1,0
1523619047797,-262144,118,-56,-1,-1,0
1523619047797,-393216,118,-56,-1,-1,0
1523619047797,-589824,118,-56,-1,-1,0
1523619047797,-786432,118,-56,-1,-1,0
1523619047837,-917504,118,-56,-1,-1,0
1523619047837,-983040,118,-56,-1,-1,0
1523619047837,-1048576,118,-56,-1,-1,0
1523619047837,-1114112,118,-56,-1,-1,0
1523619047837,-1245184,118,-56,-1,-1,0
1523619047877,-1048576,118,-56,-1,-1,0
1523619047877,589824,118,-56,-1,-1,0
1523619047877,3538944,118,-56,-1,-1,0
1523619047877,5308416,118,-56,-1,-1,0
1523619047877,3080192,118,-56,-1,-1,0
1523619047917,-1835008,118,-56,-1,-1,0
1523619047917,-5308416,118,-56,-1,-1,0
1523619047917,-5308416,118,-56,-1,-1,0
1523619047917,-3538944,118,-56,-1,-1,0
1523619047917,-2097152,118,-56,-1,-1,0
1523619047957,-1441792,118,-56,-1,-1,0
1523619047957,-1179648,118,-56,-1,-1,0
1523619047957,-1048576,118,-56,-1,-1,0
1523619047957,-851968,118,-56,-1,-1,0
