milliseconds, ECG, ECG HR, PPG, PPG HR, SpO2, PI
1523628367502,-786432,87,-56,-1,-1,0
1523628367502,-786432,87,-56,-1,-1,0
1523628367502,-786432,87,-56,-1,-1,0
1523628367502,-851968,87,-56,-1,-1,0
1523628367502,-851968,87,-56,-1,-1,0
1523628367543,-851968,87,-56,-1,-1,0
1523628367543,-786432,87,-56,-1,-1,0
1523628367543,-851968,87,-56,-1,-1,0
1523628367543,-851968,87,-56,-1,-1,0
1523628367543,-851968,87,-56,-1,-1,0
1523628367581,-786432,87,-56,-1,-1,0
1523628367581,-720896,87,-56,-1,-1,0
1523628367581,-655360,87,-56,-1,-1,0
1523628367581,-524288,87,-56,-1,-1,0
1523628367581,-458752,87,-56,-1,-1,0
1523628367621,-524288,87,-56,-1,-1,0
1523628367621,-655360,87,-56,-1,-1,0
1523628367621,-720896,87,-56,-1,-1,0
1523628367621,-786432,87,-56,-1,-1,0
1523628367621,-786432,87,-56,-1,-1,0
1523628367661,-786432,87,-56,-1,-1,0
1523628367661,-786432,87,-56,-1,-1,0
1523628367661,-720896,87,-56,-1,-1,0
1523628367661,-786432,87,-56,-1,-1,0
1523628367661,-1179648,87,-56,-1,-1,0
1523628367701,-786432,87,-56,-1,-1,0
1523628367701,1507328,87,-56,-1,-1,0
1523628367701,6094848,87,-56,-1,-1,0
1523628367701,10813440,87,-56,-1,-1,0
1523628367701,11534336,87,-56,-1,-1,0
1523628367741,7012352,87,-56,-1,-1,0
1523628367741,2031616,87,-56,-1,-1,0
1523628367741,0,87,-56,-1,-1,0
1523628367741,-131072,87,-56,-1,-1,0
1523628367741,-327680,87,-56,-1,-1,0
1523628367781,-524288,87,-56,-1,-1,0
1523628367781,-655360,87,-56,-1,-1,0
1523628367781,-655360,87,-56,-1,-1,0
1523628367781,-524288,87,-56,-1,-1,0
1523628367781,-524288,87,-56,-1,-1,0
1523628367821,-524288,87,-56,-1,-1,0
1523628367821,-589824,87,-56,-1,-1,0
1523628367821,-458752,87,-56,-1,-1,0
1523628367821,-393216,87,-56,-1,-1,0
1523628367821,-262144,87,-56,-1,-1,0
1523628367861,-131072,87,-56,-1,-1,0
1523628367861,-65536,87,-56,-1,-1,0
1523628367861,65536,87,-56,-1,-1,0
1523628367861,262144,87,-56,-1,-1,0
1523628367861,524288,87,-56,-1,-1,0
1523628367901,786432,87,-56,-1,-1,0
1523628367901,983040,87,-56,-1,-1,0
1523628367901,1114112,87,-56,-1,-1,0
1523628367901,1310720,87,-56,-1,-1,0
1523628367901,1376256,87,-56,-1,-1,0
1523628367941,1310720,87,-56,-1,-1,0
1523628367941,1179648,87,-56,-1,-1,0
1523628367941,1048576,87,-56,-1,-1,0
1523628367941,917504,87,-56,-1,-1,0
1523628367941,786432,87,-56,-1,-1,0
1523628367981,589824,87,-56,-1,-1,0
1523628367981,393216,87,-56,-1,-1,0
1523628367981,131072,87,-56,-1,-1,0
1523628367981,-65536,87,-56,-1,-1,0
1523628367981,-262144,87,-56,-1,-1,0
1523628368021,-458752,87,-56,-1,-1,0
1523628368021,-524288,87,-56,-1,-1,0
1523628368021,-589824,87,-56,-1,-1,0
1523628368021,-589824,87,-56,-1,-1,0
1523628368021,-524288,87,-56,-1,-1,0
1523628368061,-458752,87,-56,-1,-1,0
1523628368061,-393216,87,-56,-1,-1,0
1523628368061,-393216,87,-56,-1,-1,0
1523628368061,-393216,87,-56,-1,-1,0
1523628368061,-393216,87,-56,-1,-1,0
1523628368101,-393216,87,-56,-1,-1,0
1523628368101,-327680,87,-56,-1,-1,0
1523628368101,-327680,87,-56,-1,-1,0
1523628368101,-327680,87,-56,-1,-1,0
1523628368101,-327680,87,-56,-1,-1,0
1523628368143,-393216,87,-56,-1,-1,0
1523628368143,-393216,87,-56,-1,-1,0
1523628368143,-393216,87,-56,-1,-1,0
1523628368143,-393216,87,-56,-1,-1,0
1523628368143,-458752,87,-56,-1,-1,0
1523628368183,-524288,87,-56,-1,-1,0
1523628368183,-655360,87,-56,-1,-1,0
1523628368183,-655360,87,-56,-1,-1,0
1523628368183,-655360,87,-56,-1,-1,0
1523628368183,-655360,87,-56,-1,-1,0
1523628368221,-655360,87,-56,-1,-1,0
1523628368221,-655360,87,-56,-1,-1,0
1523628368221,-655360,87,-56,-1,-1,0
1523628368221,-720896,87,-56,-1,-1,0
1523628368221,-786432,87,-56,-1,-1,0
1523628368261,-786432,87,-56,-1,-1,0
1523628368261,-786432,87,-56,-1,-1,0
1523628368261,-786432,87,-56,-1,-1,0
1523628368261,-786432,87,-56,-1,-1,0
1523628368261,-720896,87,-56,-1,-1,0
1523628368301,-589824,87,-56,-1,-1,0
1523628368301,-524288,87,-56,-1,-1,0
1523628368301,-524288,87,-56,-1,-1,0
1523628368301,-524288,87,-56,-1,-1,0
1523628368301,-458752,87,-56,-1,-1,0
1523628368343,-524288,87,-56,-1,-1,0
1523628368343,-655360,87,-56,-1,-1,0
1523628368343,-720896,87,-56,-1,-1,0
1523628368343,-786432,87,-56,-1,-1,0
1523628368343,-851968,87,-56,-1,-1,0
1523628368381,-917504,87,-56,-1,-1,0
1523628368381,-917504,87,-56,-1,-1,0
1523628368381,-851968,87,-56,-1,-1,0
1523628368381,-917504,87,-56,-1,-1,0
1523628368381,-1245184,87,-56,-1,-1,0
1523628368421,-786432,87,-56,-1,-1,0
1523628368421,1638400,87,-56,-1,-1,0
1523628368421,6029312,87,-56,-1,-1,0
1523628368421,10682368,87,-56,-1,-1,0
1523628368421,11730944,87,-56,-1,-1,0
1523628368461,7208960,86,-56,-1,-1,0
1523628368461,2031616,86,-56,-1,-1,0
1523628368461,65536,86,-56,-1,-1,0
1523628368461,0,86,-56,-1,-1,0
1523628368461,-131072,86,-56,-1,-1,0
1523628368501,-327680,86,-56,-1,-1,0
1523628368501,-327680,86,-56,-1,-1,0
1523628368501,-327680,86,-56,-1,-1,0
1523628368501,-262144,86,-56,-1,-1,0
1523628368501,-262144,86,-56,-1,-1,0
1523628368541,-262144,86,-56,-1,-1,0
1523628368541,-196608,86,-56,-1,-1,0
1523628368541,-65536,86,-56,-1,-1,0
1523628368541,0,86,-56,-1,-1,0
1523628368541,65536,86,-56,-1,-1,0
1523628368581,196608,86,-56,-1,-1,0
1523628368581,327680,86,-56,-1,-1,0
1523628368581,524288,86,-56,-1,-1,0
1523628368581,720896,86,-56,-1,-1,0
1523628368581,983040,86,-56,-1,-1,0
1523628368621,1245184,86,-56,-1,-1,0
1523628368621,1507328,86,-56,-1,-1,0
1523628368621,1703936,86,-56,-1,-1,0
1523628368621,1900544,86,-56,-1,-1,0
1523628368621,1900544,86,-56,-1,-1,0
1523628368661,1835008,86,-56,-1,-1,0
1523628368661,1703936,86,-56,-1,-1,0
1523628368661,1507328,86,-56,-1,-1,0
1523628368661,1310720,86,-56,-1,-1,0
1523628368661,1048576,86,-56,-1,-1,0
1523628368701,851968,86,-56,-1,-1,0
1523628368701,589824,86,-56,-1,-1,0
1523628368701,262144,86,-56,-1,-1,0
1523628368701,0,86,-56,-1,-1,0
1523628368701,-131072,86,-56,-1,-1,0
1523628368741,-327680,86,-56,-1,-1,0
1523628368741,-458752,86,-56,-1,-1,0
1523628368741,-458752,86,-56,-1,-1,0
1523628368741,-458752,86,-56,-1,-1,0
1523628368741,-393216,86,-56,-1,-1,0
1523628368781,-393216,86,-56,-1,-1,0
1523628368781,-327680,86,-56,-1,-1,0
1523628368781,-262144,86,-56,-1,-1,0
1523628368781,-262144,86,-56,-1,-1,0
1523628368781,-262144,86,-56,-1,-1,0
1523628368822,-196608,86,-56,-1,-1,0
1523628368822,-196608,86,-56,-1,-1,0
1523628368822,-196608,86,-56,-1,-1,0
1523628368822,-196608,86,-56,-1,-1,0
1523628368822,-131072,86,-56,-1,-1,0
1523628368861,-131072,86,-56,-1,-1,0
1523628368861,-196608,86,-56,-1,-1,0
1523628368861,-262144,86,-56,-1,-1,0
1523628368861,-262144,86,-56,-1,-1,0
1523628368861,-262144,86,-56,-1,-1,0
1523628368901,-262144,86,-56,-1,-1,0
1523628368901,-327680,86,-56,-1,-1,0
1523628368901,-393216,86,-56,-1,-1,0
1523628368901,-458752,86,-56,-1,-1,0
1523628368901,-458752,86,-56,-1,-1,0
1523628368943,-524288,86,-56,-1,-1,0
1523628368943,-524288,86,-56,-1,-1,0
1523628368943,-589824,86,-56,-1,-1,0
1523628368943,-655360,86,-56,-1,-1,0
1523628368943,-655360,86,-56,-1,-1,0
1523628368981,-655360,86,-56,-1,-1,0
1523628368981,-720896,86,-56,-1,-1,0
1523628368981,-720896,86,-56,-1,-1,0
1523628368981,-851968,86,-56,-1,-1,0
1523628368981,-917504,86,-56,-1,-1,0
1523628369021,-983040,86,-56,-1,-1,0
1523628369021,-983040,86,-56,-1,-1,0
1523628369021,-917504,86,-56,-1,-1,0
1523628369021,-917504,86,-56,-1,-1,0
1523628369021,-851968,86,-56,-1,-1,0
1523628369061,-720896,86,-56,-1,-1,0
1523628369061,-655360,86,-56,-1,-1,0
1523628369061,-655360,86,-56,-1,-1,0
1523628369061,-720896,86,-56,-1,-1,0
1523628369061,-851968,86,-56,-1,-1,0
1523628369101,-983040,86,-56,-1,-1,0
1523628369101,-1048576,86,-56,-1,-1,0
1523628369101,-1114112,86,-56,-1,-1,0
1523628369101,-1048576,86,-56,-1,-1,0
1523628369101,-1048576,86,-56,-1,-1,0
1523628369141,-1114112,86,-56,-1,-1,0
1523628369141,-1441792,86,-56,-1,-1,0
1523628369141,-1638400,86,-56,-1,-1,0
1523628369141,-524288,86,-56,-1,-1,0
1523628369141,3145728,86,-56,-1,-1,0
1523628369181,8912896,86,-56,-1,-1,0
1523628369181,13303808,86,-56,-1,-1,0
1523628369181,11534336,86,-56,-1,-1,0
1523628369181,5308416,86,-56,-1,-1,0
1523628369181,720896,86,-56,-1,-1,0
1523628369221,-262144,85,-56,-1,-1,0
1523628369221,-589824,85,-56,-1,-1,0
1523628369221,-851968,85,-56,-1,-1,0
1523628369221,-917504,85,-56,-1,-1,0
1523628369221,-917504,85,-56,-1,-1,0
1523628369261,-917504,85,-56,-1,-1,0
1523628369261,-851968,85,-56,-1,-1,0
1523628369261,-851968,85,-56,-1,-1,0
1523628369261,-851968,85,-56,-1,-1,0
1523628369261,-851968,85,-56,-1,-1,0
1523628369300,-786432,85,-56,-1,-1,0
1523628369300,-720896,85,-56,-1,-1,0
1523628369300,-655360,85,-56,-1,-1,0
1523628369300,-524288,85,-56,-1,-1,0
1523628369300,-393216,85,-56,-1,-1,0
1523628369341,-196608,85,-56,-1,-1,0
1523628369341,0,85,-56,-1,-1,0
1523628369341,196608,85,-56,-1,-1,0
1523628369341,458752,85,-56,-1,-1,0
1523628369341,655360,85,-56,-1,-1,0
1523628369381,917504,85,-56,-1,-1,0
1523628369381,1048576,85,-56,-1,-1,0
1523628369381,1114112,85,-56,-1,-1,0
1523628369381,1114112,85,-56,-1,-1,0
1523628369381,1048576,85,-56,-1,-1,0
1523628369421,851968,85,-56,-1,-1,0
1523628369421,655360,85,-56,-1,-1,0
1523628369421,393216,85,-56,-1,-1,0
1523628369421,131072,85,-56,-1,-1,0
1523628369421,-131072,85,-56,-1,-1,0
1523628369462,-393216,85,-56,-1,-1,0
1523628369462,-589824,85,-56,-1,-1,0
1523628369462,-720896,85,-56,-1,-1,0
1523628369462,-851968,85,-56,-1,-1,0
1523628369462,-917504,85,-56,-1,-1,0
1523628369501,-917504,85,-56,-1,-1,0
1523628369501,-983040,85,-56,-1,-1,0
1523628369501,-983040,85,-56,-1,-1,0
1523628369501,-983040,85,-56,-1,-1,0
1523628369501,-983040,85,-56,-1,-1,0
1523628369541,-983040,85,-56,-1,-1,0
1523628369541,-983040,85,-56,-1,-1,0
1523628369541,-917504,85,-56,-1,-1,0
1523628369541,-851968,85,-56,-1,-1,0
1523628369541,-851968,85,-56,-1,-1,0
1523628369581,-786432,85,-56,-1,-1,0
1523628369581,-786432,85,-56,-1,-1,0
1523628369581,-786432,85,-56,-1,-1,0
1523628369581,-786432,85,-56,-1,-1,0
1523628369581,-720896,85,-56,-1,-1,0
1523628369621,-720896,85,-56,-1,-1,0
1523628369621,-786432,85,-56,-1,-1,0
1523628369621,-786432,85,-56,-1,-1,0
1523628369621,-851968,85,-56,-1,-1,0
1523628369621,-851968,85,-56,-1,-1,0
1523628369661,-851968,85,-56,-1,-1,0
1523628369661,-851968,85,-56,-1,-1,0
1523628369661,-917504,85,-56,-1,-1,0
1523628369661,-917504,85,-56,-1,-1,0
1523628369661,-983040,85,-56,-1,-1,0
1523628369701,-1048576,85,-56,-1,-1,0
1523628369701,-1048576,85,-56,-1,-1,0
1523628369701,-1048576,85,-56,-1,-1,0
1523628369701,-1048576,85,-56,-1,-1,0
1523628369701,-1048576,85,-56,-1,-1,0
1523628369742,-1048576,85,-56,-1,-1,0
1523628369742,-1114112,85,-56,-1,-1,0
1523628369742,-1114112,85,-56,-1,-1,0
1523628369742,-1114112,85,-56,-1,-1,0
1523628369742,-1114112,85,-56,-1,-1,0
1523628369779,-1114112,85,-56,-1,-1,0
1523628369779,-1048576,85,-56,-1,-1,0
1523628369779,-983040,85,-56,-1,-1,0
1523628369779,-917504,85,-56,-1,-1,0
1523628369779,-917504,85,-56,-1,-1,0
1523628369821,-851968,85,-56,-1,-1,0
1523628369821,-786432,85,-56,-1,-1,0
1523628369821,-851968,85,-56,-1,-1,0
1523628369821,-983040,85,-56,-1,-1,0
1523628369821,-1048576,85,-56,-1,-1,0
1523628369861,-1114112,85,-56,-1,-1,0
1523628369861,-1114112,85,-56,-1,-1,0
1523628369861,-1114112,85,-56,-1,-1,0
1523628369861,-1114112,85,-56,-1,-1,0
1523628369861,-1114112,85,-56,-1,-1,0
1523628369901,-1179648,85,-56,-1,-1,0
1523628369901,-1507328,85,-56,-1,-1,0
1523628369901,-1441792,85,-56,-1,-1,0
1523628369901,262144,85,-56,-1,-1,0
1523628369901,4587520,85,-56,-1,-1,0
1523628369941,10354688,85,-56,-1,-1,0
1523628369941,13238272,85,-56,-1,-1,0
1523628369941,9764864,85,-56,-1,-1,0
1523628369941,3735552,85,-56,-1,-1,0
1523628369941,327680,85,-56,-1,-1,0
1523628369981,-196608,84,-56,-1,-1,0
1523628369981,-393216,84,-56,-1,-1,0
1523628369981,-589824,84,-56,-1,-1,0
1523628369981,-720896,84,-56,-1,-1,0
1523628369981,-720896,84,-56,-1,-1,0
1523628370021,-720896,84,-56,-1,-1,0
1523628370021,-720896,84,-56,-1,-1,0
1523628370021,-655360,84,-56,-1,-1,0
1523628370021,-655360,84,-56,-1,-1,0
1523628370021,-589824,84,-56,-1,-1,0
1523628370061,-589824,84,-56,-1,-1,0
1523628370061,-524288,84,-56,-1,-1,0
1523628370061,-393216,84,-56,-1,-1,0
1523628370061,-262144,84,-56,-1,-1,0
1523628370061,-65536,84,-56,-1,-1,0
1523628370102,0,84,-56,-1,-1,0
1523628370102,196608,84,-56,-1,-1,0
1523628370102,327680,84,-56,-1,-1,0
1523628370102,589824,84,-56,-1,-1,0
1523628370102,786432,84,-56,-1,-1,0
1523628370141,983040,84,-56,-1,-1,0
1523628370141,1179648,84,-56,-1,-1,0
1523628370141,1245184,84,-56,-1,-1,0
1523628370141,1245184,84,-56,-1,-1,0
1523628370141,1179648,84,-56,-1,-1,0
1523628370181,1048576,84,-56,-1,-1,0
1523628370181,786432,84,-56,-1,-1,0
1523628370181,458752,84,-56,-1,-1,0
1523628370181,65536,84,-56,-1,-1,0
1523628370181,-262144,84,-56,-1,-1,0
1523628370221,-524288,84,-56,-1,-1,0
1523628370221,-720896,84,-56,-1,-1,0
1523628370221,-851968,84,-56,-1,-1,0
1523628370221,-917504,84,-56,-1,-1,0
1523628370221,-1048576,84,-56,-1,-1,0
1523628370259,-1114112,84,-56,-1,-1,0
1523628370259,-1179648,84,-56,-1,-1,0
1523628370259,-1114112,84,-56,-1,-1,0
1523628370259,-1114112,84,-56,-1,-1,0
1523628370259,-1179648,84,-56,-1,-1,0
1523628370301,-1114112,84,-56,-1,-1,0
1523628370301,-1048576,84,-56,-1,-1,0
1523628370301,-1048576,84,-56,-1,-1,0
1523628370301,-1048576,84,-56,-1,-1,0
1523628370301,-1048576,84,-56,-1,-1,0
1523628370341,-1048576,84,-56,-1,-1,0
1523628370341,-1048576,84,-56,-1,-1,0
1523628370341,-1048576,84,-56,-1,-1,0
1523628370341,-1048576,84,-56,-1,-1,0
1523628370341,-1048576,84,-56,-1,-1,0
1523628370381,-1048576,84,-56,-1,-1,0
1523628370381,-1048576,84,-56,-1,-1,0
1523628370381,-1048576,84,-56,-1,-1,0
1523628370381,-1048576,84,-56,-1,-1,0
1523628370381,-1048576,84,-56,-1,-1,0
1523628370421,-1048576,84,-56,-1,-1,0
1523628370421,-1048576,84,-56,-1,-1,0
1523628370421,-1114112,84,-56,-1,-1,0
1523628370421,-1179648,84,-56,-1,-1,0
1523628370421,-1114112,84,-56,-1,-1,0
1523628370461,-1114112,84,-56,-1,-1,0
1523628370461,-1114112,84,-56,-1,-1,0
1523628370461,-1114112,84,-56,-1,-1,0
1523628370461,-1114112,84,-56,-1,-1,0
1523628370461,-1048576,84,-56,-1,-1,0
1523628370501,-1114112,84,-56,-1,-1,0
1523628370501,-1114112,84,-56,-1,-1,0
1523628370501,-1114112,84,-56,-1,-1,0
1523628370501,-1114112,84,-56,-1,-1,0
1523628370501,-1114112,84,-56,-1,-1,0
1523628370541,-1114112,84,-56,-1,-1,0
1523628370541,-1114112,84,-56,-1,-1,0
1523628370541,-1114112,84,-56,-1,-1,0
1523628370541,-1114112,84,-56,-1,-1,0
1523628370541,-1114112,84,-56,-1,-1,0
1523628370581,-1048576,84,-56,-1,-1,0
1523628370581,-983040,84,-56,-1,-1,0
1523628370581,-917504,84,-56,-1,-1,0
1523628370581,-983040,84,-56,-1,-1,0
1523628370581,-1048576,84,-56,-1,-1,0
1523628370624,-1179648,84,-56,-1,-1,0
1523628370624,-1179648,84,-56,-1,-1,0
1523628370624,-1245184,84,-56,-1,-1,0
1523628370624,-1245184,84,-56,-1,-1,0
1523628370624,-1245184,84,-56,-1,-1,0
1523628370662,-1245184,84,-56,-1,-1,0
1523628370662,-1245184,84,-56,-1,-1,0
1523628370662,-1441792,84,-56,-1,-1,0
1523628370662,-1638400,84,-56,-1,-1,0
1523628370662,-393216,84,-56,-1,-1,0
1523628370701,3211264,84,-56,-1,-1,0
1523628370701,8650752,84,-56,-1,-1,0
1523628370701,12648448,84,-56,-1,-1,0
1523628370701,10878976,84,-56,-1,-1,0
1523628370701,4915200,84,-56,-1,-1,0
1523628370742,589824,84,-56,-1,-1,0
1523628370742,-196608,84,-56,-1,-1,0
1523628370742,-393216,84,-56,-1,-1,0
1523628370742,-655360,84,-56,-1,-1,0
1523628370742,-720896,84,-56,-1,-1,0
1523628370781,-851968,83,-56,-1,-1,0
1523628370781,-851968,83,-56,-1,-1,0
1523628370781,-851968,83,-56,-1,-1,0
1523628370781,-786432,83,-56,-1,-1,0
1523628370781,-720896,83,-56,-1,-1,0
1523628370821,-655360,83,-56,-1,-1,0
1523628370821,-524288,83,-56,-1,-1,0
1523628370821,-458752,83,-56,-1,-1,0
1523628370821,-327680,83,-56,-1,-1,0
1523628370821,-196608,83,-56,-1,-1,0
1523628370861,-65536,83,-56,-1,-1,0
1523628370861,0,83,-56,-1,-1,0
1523628370861,131072,83,-56,-1,-1,0
1523628370861,393216,83,-56,-1,-1,0
1523628370861,655360,83,-56,-1,-1,0
1523628370901,851968,83,-56,-1,-1,0
1523628370901,1048576,83,-56,-1,-1,0
1523628370901,1179648,83,-56,-1,-1,0
1523628370901,1310720,83,-56,-1,-1,0
1523628370901,1245184,83,-56,-1,-1,0
1523628370941,1114112,83,-56,-1,-1,0
1523628370941,983040,83,-56,-1,-1,0
1523628370941,786432,83,-56,-1,-1,0
1523628370941,524288,83,-56,-1,-1,0
1523628370941,262144,83,-56,-1,-1,0
1523628370981,0,83,-56,-1,-1,0
1523628370981,-196608,83,-56,-1,-1,0
1523628370981,-393216,83,-56,-1,-1,0
1523628370981,-524288,83,-56,-1,-1,0
1523628370981,-655360,83,-56,-1,-1,0
1523628371021,-786432,83,-56,-1,-1,0
1523628371021,-851968,83,-56,-1,-1,0
1523628371021,-851968,83,-56,-1,-1,0
1523628371021,-851968,83,-56,-1,-1,0
1523628371021,-851968,83,-56,-1,-1,0
1523628371061,-786432,83,-56,-1,-1,0
1523628371061,-786432,83,-56,-1,-1,0
1523628371061,-720896,83,-56,-1,-1,0
1523628371061,-655360,83,-56,-1,-1,0
1523628371061,-655360,83,-56,-1,-1,0
1523628371101,-589824,83,-56,-1,-1,0
1523628371101,-589824,83,-56,-1,-1,0
1523628371101,-589824,83,-56,-1,-1,0
1523628371101,-524288,83,-56,-1,-1,0
1523628371101,-589824,83,-56,-1,-1,0
1523628371141,-589824,83,-56,-1,-1,0
1523628371141,-589824,83,-56,-1,-1,0
1523628371141,-655360,83,-56,-1,-1,0
1523628371141,-720896,83,-56,-1,-1,0
1523628371141,-720896,83,-56,-1,-1,0
1523628371181,-720896,83,-56,-1,-1,0
1523628371181,-720896,83,-56,-1,-1,0
1523628371181,-655360,83,-56,-1,-1,0
1523628371181,-720896,83,-56,-1,-1,0
1523628371181,-720896,83,-56,-1,-1,0
1523628371220,-720896,83,-56,-1,-1,0
1523628371220,-655360,83,-56,-1,-1,0
1523628371220,-655360,83,-56,-1,-1,0
1523628371220,-655360,83,-56,-1,-1,0
1523628371220,-720896,83,-56,-1,-1,0
1523628371261,-720896,83,-56,-1,-1,0
1523628371261,-720896,83,-56,-1,-1,0
1523628371261,-720896,83,-56,-1,-1,0
1523628371261,-720896,83,-56,-1,-1,0
1523628371261,-720896,83,-56,-1,-1,0
1523628371301,-720896,83,-56,-1,-1,0
1523628371301,-720896,83,-56,-1,-1,0
1523628371301,-786432,83,-56,-1,-1,0
1523628371301,-851968,83,-56,-1,-1,0
1523628371301,-851968,83,-56,-1,-1,0
1523628371341,-851968,83,-56,-1,-1,0
1523628371341,-851968,83,-56,-1,-1,0
1523628371341,-786432,83,-56,-1,-1,0
1523628371341,-786432,83,-56,-1,-1,0
1523628371341,-720896,83,-56,-1,-1,0
1523628371382,-655360,83,-56,-1,-1,0
1523628371382,-524288,83,-56,-1,-1,0
1523628371382,-524288,83,-56,-1,-1,0
1523628371382,-589824,83,-56,-1,-1,0
1523628371382,-720896,83,-56,-1,-1,0
1523628371421,-786432,83,-56,-1,-1,0
1523628371421,-851968,83,-56,-1,-1,0
1523628371421,-786432,83,-56,-1,-1,0
1523628371421,-851968,83,-56,-1,-1,0
1523628371421,-851968,83,-56,-1,-1,0
1523628371461,-851968,83,-56,-1,-1,0
1523628371461,-851968,83,-56,-1,-1,0
1523628371461,-1179648,83,-56,-1,-1,0
1523628371461,-983040,83,-56,-1,-1,0
1523628371461,1114112,83,-56,-1,-1,0
1523628371501,6029312,83,-56,-1,-1,0
1523628371501,11993088,83,-56,-1,-1,0
1523628371501,14221312,83,-56,-1,-1,0
1523628371501,9830400,83,-56,-1,-1,0
1523628371501,3670016,83,-56,-1,-1,0
1523628371541,655360,83,-56,-1,-1,0
1523628371541,196608,83,-56,-1,-1,0
1523628371541,-131072,83,-56,-1,-1,0
1523628371541,-524288,83,-56,-1,-1,0
1523628371541,-786432,83,-56,-1,-1,0
1523628371581,-917504,82,-56,-1,-1,0
1523628371581,-851968,82,-56,-1,-1,0
1523628371581,-917504,82,-56,-1,-1,0
1523628371581,-786432,82,-56,-1,-1,0
1523628371581,-655360,82,-56,-1,-1,0
1523628371621,-589824,82,-56,-1,-1,0
1523628371621,-655360,82,-56,-1,-1,0
1523628371621,-589824,82,-56,-1,-1,0
1523628371621,-524288,82,-56,-1,-1,0
1523628371621,-393216,82,-56,-1,-1,0
1523628371661,-262144,82,-56,-1,-1,0
1523628371661,-65536,82,-56,-1,-1,0
1523628371661,0,82,-56,-1,-1,0
1523628371661,393216,82,-56,-1,-1,0
1523628371661,851968,82,-56,-1,-1,0
1523628371701,1048576,82,-56,-1,-1,0
1523628371701,917504,82,-56,-1,-1,0
1523628371701,983040,82,-56,-1,-1,0
1523628371701,1179648,82,-56,-1,-1,0
1523628371701,1179648,82,-56,-1,-1,0
1523628371741,1114112,82,-56,-1,-1,0
1523628371741,1114112,82,-56,-1,-1,0
1523628371741,1114112,82,-56,-1,-1,0
1523628371741,917504,82,-56,-1,-1,0
1523628371741,458752,82,-56,-1,-1,0
1523628371781,196608,82,-56,-1,-1,0
1523628371781,0,82,-56,-1,-1,0
1523628371781,-327680,82,-56,-1,-1,0
1523628371781,-589824,82,-56,-1,-1,0
1523628371781,-655360,82,-56,-1,-1,0
1523628371821,-524288,82,-56,-1,-1,0
1523628371821,-327680,82,-56,-1,-1,0
1523628371821,-196608,82,-56,-1,-1,0
1523628371821,-327680,82,-56,-1,-1,0
1523628371821,-589824,82,-56,-1,-1,0
1523628371861,-655360,82,-56,-1,-1,0
1523628371861,-589824,82,-56,-1,-1,0
1523628371861,-524288,82,-56,-1,-1,0
1523628371861,-458752,82,-56,-1,-1,0
1523628371861,-393216,82,-56,-1,-1,0
1523628371901,-327680,82,-56,-1,-1,0
1523628371901,-262144,82,-56,-1,-1,0
1523628371901,-131072,82,-56,-1,-1,0
1523628371901,-131072,82,-56,-1,-1,0
1523628371901,-65536,82,-56,-1,-1,0
1523628371941,0,82,-56,-1,-1,0
1523628371941,-262144,82,-56,-1,-1,0
1523628371941,-655360,82,-56,-1,-1,0
1523628371941,-655360,82,-56,-1,-1,0
1523628371941,-524288,82,-56,-1,-1,0
1523628371981,-327680,82,-56,-1,-1,0
1523628371981,-327680,82,-56,-1,-1,0
1523628371981,-327680,82,-56,-1,-1,0
1523628371981,-393216,82,-56,-1,-1,0
1523628371981,-393216,82,-56,-1,-1,0
1523628372022,-458752,82,-56,-1,-1,0
1523628372022,-458752,82,-56,-1,-1,0
1523628372022,-589824,82,-56,-1,-1,0
1523628372022,-589824,82,-56,-1,-1,0
1523628372022,-458752,82,-56,-1,-1,0
1523628372061,-458752,82,-56,-1,-1,0
1523628372061,-720896,82,-56,-1,-1,0
1523628372061,-851968,82,-56,-1,-1,0
1523628372061,-589824,82,-56,-1,-1,0
1523628372061,-327680,82,-56,-1,-1,0
1523628372104,-393216,82,-56,-1,-1,0
1523628372104,-524288,82,-56,-1,-1,0
1523628372104,-655360,82,-56,-1,-1,0
1523628372104,-786432,82,-56,-1,-1,0
1523628372104,-589824,82,-56,-1,-1,0
1523628372141,-589824,82,-56,-1,-1,0
1523628372141,-655360,82,-56,-1,-1,0
1523628372141,-589824,82,-56,-1,-1,0
1523628372141,-589824,82,-56,-1,-1,0
1523628372141,-720896,82,-56,-1,-1,0
1523628372184,-851968,82,-56,-1,-1,0
1523628372184,-851968,82,-56,-1,-1,0
1523628372184,-589824,82,-56,-1,-1,0
1523628372184,-393216,82,-56,-1,-1,0
1523628372184,-393216,82,-56,-1,-1,0
1523628372221,-524288,82,-56,-1,-1,0
1523628372221,-458752,82,-56,-1,-1,0
1523628372221,-851968,82,-56,-1,-1,0
1523628372221,-1048576,82,-56,-1,-1,0
1523628372221,-720896,82,-56,-1,-1,0
1523628372261,-458752,82,-56,-1,-1,0
1523628372261,-720896,82,-56,-1,-1,0
1523628372261,-983040,82,-56,-1,-1,0
1523628372261,-1048576,82,-56,-1,-1,0
1523628372261,-1376256,82,-56,-1,-1,0
1523628372301,-1048576,82,-56,-1,-1,0
1523628372301,1245184,82,-56,-1,-1,0
1523628372301,6160384,82,-56,-1,-1,0
1523628372301,11796480,82,-56,-1,-1,0
1523628372301,13500416,82,-56,-1,-1,0
1523628372340,8781824,82,-56,-1,-1,0
1523628372340,2686976,82,-56,-1,-1,0
1523628372340,-65536,82,-56,-1,-1,0
1523628372340,-458752,82,-56,-1,-1,0
1523628372340,-720896,82,-56,-1,-1,0
1523628372381,-851968,82,-56,-1,-1,0
1523628372381,-1048576,82,-56,-1,-1,0
1523628372381,-1376256,82,-56,-1,-1,0
1523628372381,-1376256,82,-56,-1,-1,0
1523628372381,-1179648,82,-56,-1,-1,0
1523628372421,-983040,82,-56,-1,-1,0
1523628372421,-851968,82,-56,-1,-1,0
1523628372421,-786432,82,-56,-1,-1,0
1523628372421,-655360,82,-56,-1,-1,0
1523628372421,-524288,82,-56,-1,-1,0
1523628372461,-327680,82,-56,-1,-1,0
1523628372461,-196608,82,-56,-1,-1,0
1523628372461,0,82,-56,-1,-1,0
1523628372461,0,82,-56,-1,-1,0
1523628372461,131072,82,-56,-1,-1,0
1523628372501,327680,82,-56,-1,-1,0
1523628372501,524288,82,-56,-1,-1,0
1523628372501,720896,82,-56,-1,-1,0
1523628372501,851968,82,-56,-1,-1,0
1523628372501,983040,82,-56,-1,-1,0
1523628372541,1048576,82,-56,-1,-1,0
1523628372541,983040,82,-56,-1,-1,0
1523628372541,983040,82,-56,-1,-1,0
1523628372541,851968,82,-56,-1,-1,0
1523628372541,720896,82,-56,-1,-1,0
1523628372581,393216,82,-56,-1,-1,0
1523628372581,65536,82,-56,-1,-1,0
1523628372581,-262144,82,-56,-1,-1,0
1523628372581,-524288,82,-56,-1,-1,0
1523628372581,-720896,82,-56,-1,-1,0
1523628372622,-851968,82,-56,-1,-1,0
1523628372622,-983040,82,-56,-1,-1,0
1523628372622,-983040,82,-56,-1,-1,0
1523628372622,-983040,82,-56,-1,-1,0
1523628372622,-983040,82,-56,-1,-1,0
1523628372663,-917504,82,-56,-1,-1,0
1523628372663,-851968,82,-56,-1,-1,0
1523628372663,-786432,82,-56,-1,-1,0
1523628372663,-720896,82,-56,-1,-1,0
1523628372663,-655360,82,-56,-1,-1,0
1523628372701,-524288,82,-56,-1,-1,0
1523628372701,-393216,82,-56,-1,-1,0
1523628372701,-327680,82,-56,-1,-1,0
1523628372701,-393216,82,-56,-1,-1,0
1523628372701,-458752,82,-56,-1,-1,0
1523628372741,-524288,82,-56,-1,-1,0
1523628372741,-655360,82,-56,-1,-1,0
1523628372741,-786432,82,-56,-1,-1,0
1523628372741,-917504,82,-56,-1,-1,0
1523628372741,-983040,82,-56,-1,-1,0
1523628372781,-917504,82,-56,-1,-1,0
1523628372781,-917504,82,-56,-1,-1,0
1523628372781,-983040,82,-56,-1,-1,0
1523628372781,-1048576,82,-56,-1,-1,0
1523628372781,-1114112,82,-56,-1,-1,0
1523628372821,-1179648,82,-56,-1,-1,0
1523628372821,-1179648,82,-56,-1,-1,0
1523628372821,-1310720,82,-56,-1,-1,0
1523628372821,-1376256,82,-56,-1,-1,0
1523628372821,-1376256,82,-56,-1,-1,0
1523628372861,-1376256,82,-56,-1,-1,0
1523628372861,-1310720,82,-56,-1,-1,0
1523628372861,-1376256,82,-56,-1,-1,0
1523628372861,-1310720,82,-56,-1,-1,0
1523628372861,-1310720,82,-56,-1,-1,0
1523628372901,-1245184,82,-56,-1,-1,0
1523628372901,-1245184,82,-56,-1,-1,0
1523628372901,-1245184,82,-56,-1,-1,0
1523628372901,-1245184,82,-56,-1,-1,0
1523628372901,-1245184,82,-56,-1,-1,0
1523628372941,-1310720,82,-56,-1,-1,0
1523628372941,-1245184,82,-56,-1,-1,0
1523628372941,-1245184,82,-56,-1,-1,0
1523628372941,-1245184,82,-56,-1,-1,0
1523628372941,-1245184,82,-56,-1,-1,0
1523628372981,-1114112,82,-56,-1,-1,0
1523628372981,-1048576,82,-56,-1,-1,0
1523628372981,-983040,82,-56,-1,-1,0
1523628372981,-917504,82,-56,-1,-1,0
1523628372981,-851968,82,-56,-1,-1,0
1523628373021,-851968,82,-56,-1,-1,0
1523628373021,-983040,82,-56,-1,-1,0
1523628373021,-1114112,82,-56,-1,-1,0
1523628373021,-1245184,82,-56,-1,-1,0
1523628373021,-1310720,82,-56,-1,-1,0
1523628373061,-1376256,82,-56,-1,-1,0
1523628373061,-1376256,82,-56,-1,-1,0
1523628373061,-1310720,82,-56,-1,-1,0
1523628373061,-1310720,82,-56,-1,-1,0
1523628373061,-1638400,82,-56,-1,-1,0
1523628373101,-1769472,82,-56,-1,-1,0
1523628373101,-262144,82,-56,-1,-1,0
1523628373101,3670016,82,-56,-1,-1,0
1523628373101,9240576,82,-56,-1,-1,0
1523628373101,12845056,82,-56,-1,-1,0
1523628373141,10420224,82,-56,-1,-1,0
1523628373141,4390912,82,-56,-1,-1,0
1523628373141,524288,82,-56,-1,-1,0
1523628373141,0,82,-56,-1,-1,0
1523628373141,-196608,82,-56,-1,-1,0
1523628373181,-327680,82,-56,-1,-1,0
1523628373181,-262144,82,-56,-1,-1,0
1523628373181,-196608,82,-56,-1,-1,0
1523628373181,-131072,82,-56,-1,-1,0
1523628373181,-65536,82,-56,-1,-1,0
1523628373223,0,81,-56,-1,-1,0
1523628373223,0,81,-56,-1,-1,0
1523628373223,0,81,-56,-1,-1,0
1523628373223,65536,81,-56,-1,-1,0
1523628373223,131072,81,-56,-1,-1,0
1523628373261,196608,81,-56,-1,-1,0
1523628373261,262144,81,-56,-1,-1,0
1523628373261,393216,81,-56,-1,-1,0
1523628373261,393216,81,-56,-1,-1,0
1523628373261,524288,81,-56,-1,-1,0
1523628373302,655360,81,-56,-1,-1,0
1523628373302,983040,81,-56,-1,-1,0
1523628373302,1245184,81,-56,-1,-1,0
1523628373302,1507328,81,-56,-1,-1,0
1523628373302,1638400,81,-56,-1,-1,0
1523628373341,1703936,81,-56,-1,-1,0
1523628373341,1638400,81,-56,-1,-1,0
1523628373341,1507328,81,-56,-1,-1,0
1523628373341,1310720,81,-56,-1,-1,0
1523628373341,1048576,81,-56,-1,-1,0
1523628373381,786432,81,-56,-1,-1,0
1523628373381,524288,81,-56,-1,-1,0
1523628373381,131072,81,-56,-1,-1,0
1523628373381,-131072,81,-56,-1,-1,0
1523628373381,-327680,81,-56,-1,-1,0
1523628373421,-458752,81,-56,-1,-1,0
1523628373421,-524288,81,-56,-1,-1,0
1523628373421,-589824,81,-56,-1,-1,0
1523628373421,-720896,81,-56,-1,-1,0
1523628373421,-786432,81,-56,-1,-1,0
1523628373461,-786432,81,-56,-1,-1,0
1523628373461,-786432,81,-56,-1,-1,0
1523628373461,-720896,81,-56,-1,-1,0
1523628373461,-655360,81,-56,-1,-1,0
1523628373461,-655360,81,-56,-1,-1,0
1523628373501,-589824,81,-56,-1,-1,0
1523628373501,-524288,81,-56,-1,-1,0
1523628373501,-524288,81,-56,-1,-1,0
1523628373501,-458752,81,-56,-1,-1,0
1523628373501,-458752,81,-56,-1,-1,0
1523628373541,-458752,81,-56,-1,-1,0
1523628373541,-458752,81,-56,-1,-1,0
1523628373541,-458752,81,-56,-1,-1,0
1523628373541,-458752,81,-56,-1,-1,0
1523628373541,-458752,81,-56,-1,-1,0
1523628373581,-458752,81,-56,-1,-1,0
1523628373581,-524288,81,-56,-1,-1,0
1523628373581,-524288,81,-56,-1,-1,0
1523628373581,-524288,81,-56,-1,-1,0
1523628373581,-458752,81,-56,-1,-1,0
1523628373621,-458752,81,-56,-1,-1,0
1523628373621,-458752,81,-56,-1,-1,0
1523628373621,-458752,81,-56,-1,-1,0
1523628373621,-458752,81,-56,-1,-1,0
1523628373621,-524288,81,-56,-1,-1,0
1523628373661,-589824,81,-56,-1,-1,0
1523628373661,-589824,81,-56,-1,-1,0
1523628373661,-655360,81,-56,-1,-1,0
1523628373661,-720896,81,-56,-1,-1,0
1523628373661,-786432,81,-56,-1,-1,0
1523628373702,-851968,81,-56,-1,-1,0
1523628373702,-851968,81,-56,-1,-1,0
1523628373702,-917504,81,-56,-1,-1,0
1523628373702,-983040,81,-56,-1,-1,0
1523628373702,-1048576,81,-56,-1,-1,0
1523628373741,-1048576,81,-56,-1,-1,0
1523628373741,-1048576,81,-56,-1,-1,0
1523628373741,-983040,81,-56,-1,-1,0
1523628373741,-983040,81,-56,-1,-1,0
1523628373741,-983040,81,-56,-1,-1,0
1523628373783,-983040,81,-56,-1,-1,0
1523628373783,-983040,81,-56,-1,-1,0
1523628373783,-851968,81,-56,-1,-1,0
1523628373783,-786432,81,-56,-1,-1,0
1523628373783,-655360,81,-56,-1,-1,0
1523628373821,-589824,81,-56,-1,-1,0
1523628373821,-524288,81,-56,-1,-1,0
1523628373821,-655360,81,-56,-1,-1,0
1523628373821,-720896,81,-56,-1,-1,0
1523628373821,-851968,81,-56,-1,-1,0
1523628373861,-983040,81,-56,-1,-1,0
1523628373861,-983040,81,-56,-1,-1,0
1523628373861,-983040,81,-56,-1,-1,0
1523628373861,-917504,81,-56,-1,-1,0
1523628373861,-917504,81,-56,-1,-1,0
1523628373902,-1048576,81,-56,-1,-1,0
1523628373902,-1441792,81,-56,-1,-1,0
1523628373902,-1179648,81,-56,-1,-1,0
1523628373902,1179648,81,-56,-1,-1,0
1523628373902,6291456,81,-56,-1,-1,0
1523628373943,11993088,81,-56,-1,-1,0
1523628373943,13434880,81,-56,-1,-1,0
1523628373943,8716288,81,-56,-1,-1,0
1523628373943,2818048,81,-56,-1,-1,0
1523628373943,196608,81,-56,-1,-1,0
1523628373982,-131072,81,-56,-1,-1,0
1523628373982,-393216,81,-56,-1,-1,0
1523628373982,-655360,81,-56,-1,-1,0
1523628373982,-786432,81,-56,-1,-1,0
1523628373982,-786432,81,-56,-1,-1,0
1523628374021,-720896,80,-56,-1,-1,0
1523628374021,-720896,80,-56,-1,-1,0
1523628374021,-589824,80,-56,-1,-1,0
1523628374021,-524288,80,-56,-1,-1,0
1523628374021,-458752,80,-56,-1,-1,0
1523628374061,-393216,80,-56,-1,-1,0
1523628374061,-262144,80,-56,-1,-1,0
1523628374061,-131072,80,-56,-1,-1,0
1523628374061,0,80,-56,-1,-1,0
1523628374061,131072,80,-56,-1,-1,0
1523628374101,393216,80,-56,-1,-1,0
1523628374101,589824,80,-56,-1,-1,0
1523628374101,851968,80,-56,-1,-1,0
1523628374101,1114112,80,-56,-1,-1,0
1523628374101,1376256,80,-56,-1,-1,0
1523628374141,1638400,80,-56,-1,-1,0
1523628374141,1769472,80,-56,-1,-1,0
1523628374141,1835008,80,-56,-1,-1,0
1523628374141,1835008,80,-56,-1,-1,0
1523628374141,1769472,80,-56,-1,-1,0
1523628374181,1638400,80,-56,-1,-1,0
1523628374181,1310720,80,-56,-1,-1,0
1523628374181,917504,80,-56,-1,-1,0
1523628374181,524288,80,-56,-1,-1,0
1523628374181,131072,80,-56,-1,-1,0
1523628374221,-131072,80,-56,-1,-1,0
1523628374221,-327680,80,-56,-1,-1,0
1523628374221,-458752,80,-56,-1,-1,0
1523628374221,-655360,80,-56,-1,-1,0
1523628374221,-786432,80,-56,-1,-1,0
1523628374261,-786432,80,-56,-1,-1,0
1523628374261,-786432,80,-56,-1,-1,0
1523628374261,-851968,80,-56,-1,-1,0
1523628374261,-851968,80,-56,-1,-1,0
1523628374261,-786432,80,-56,-1,-1,0
1523628374302,-786432,80,-56,-1,-1,0
1523628374302,-720896,80,-56,-1,-1,0
1523628374302,-720896,80,-56,-1,-1,0
1523628374302,-655360,80,-56,-1,-1,0
1523628374302,-655360,80,-56,-1,-1,0
1523628374341,-589824,80,-56,-1,-1,0
1523628374341,-589824,80,-56,-1,-1,0
1523628374341,-524288,80,-56,-1,-1,0
1523628374341,-524288,80,-56,-1,-1,0
1523628374341,-458752,80,-56,-1,-1,0
1523628374381,-458752,80,-56,-1,-1,0
1523628374381,-458752,80,-56,-1,-1,0
1523628374381,-524288,80,-56,-1,-1,0
1523628374381,-589824,80,-56,-1,-1,0
1523628374381,-589824,80,-56,-1,-1,0
1523628374421,-589824,80,-56,-1,-1,0
1523628374421,-655360,80,-56,-1,-1,0
1523628374421,-655360,80,-56,-1,-1,0
1523628374421,-655360,80,-56,-1,-1,0
1523628374421,-655360,80,-56,-1,-1,0
1523628374461,-720896,80,-56,-1,-1,0
1523628374461,-720896,80,-56,-1,-1,0
1523628374461,-720896,80,-56,-1,-1,0
1523628374461,-720896,80,-56,-1,-1,0
1523628374461,-786432,80,-56,-1,-1,0
1523628374501,-786432,80,-56,-1,-1,0
1523628374501,-786432,80,-56,-1,-1,0
1523628374501,-786432,80,-56,-1,-1,0
1523628374501,-786432,80,-56,-1,-1,0
1523628374501,-786432,80,-56,-1,-1,0
1523628374541,-786432,80,-56,-1,-1,0
1523628374541,-786432,80,-56,-1,-1,0
1523628374541,-851968,80,-56,-1,-1,0
1523628374541,-917504,80,-56,-1,-1,0
1523628374541,-917504,80,-56,-1,-1,0
1523628374582,-917504,80,-56,-1,-1,0
1523628374582,-983040,80,-56,-1,-1,0
1523628374582,-1048576,80,-56,-1,-1,0
1523628374582,-1114112,80,-56,-1,-1,0
1523628374582,-1048576,80,-56,-1,-1,0
1523628374621,-983040,80,-56,-1,-1,0
1523628374621,-917504,80,-56,-1,-1,0
1523628374621,-917504,80,-56,-1,-1,0
1523628374621,-851968,80,-56,-1,-1,0
1523628374621,-851968,80,-56,-1,-1,0
1523628374661,-851968,80,-56,-1,-1,0
1523628374661,-1048576,80,-56,-1,-1,0
1523628374661,-1114112,80,-56,-1,-1,0
1523628374661,-1179648,80,-56,-1,-1,0
1523628374661,-1310720,80,-56,-1,-1,0
1523628374701,-1376256,80,-56,-1,-1,0
1523628374701,-1310720,80,-56,-1,-1,0
1523628374701,-1245184,80,-56,-1,-1,0
1523628374701,-1310720,80,-56,-1,-1,0
1523628374701,-1638400,80,-56,-1,-1,0
1523628374741,-1769472,80,-56,-1,-1,0
1523628374741,-196608,80,-56,-1,-1,0
1523628374741,3735552,80,-56,-1,-1,0
1523628374741,9175040,80,-56,-1,-1,0
1523628374741,12451840,80,-56,-1,-1,0
1523628374781,9764864,80,-56,-1,-1,0
1523628374781,3801088,80,-56,-1,-1,0
1523628374781,131072,80,-56,-1,-1,0
1523628374781,-393216,80,-56,-1,-1,0
1523628374781,-589824,80,-56,-1,-1,0
1523628374821,-786432,78,-56,-1,-1,0
1523628374821,-917504,78,-56,-1,-1,0
1523628374821,-917504,78,-56,-1,-1,0
1523628374821,-851968,78,-56,-1,-1,0
1523628374821,-851968,78,-56,-1,-1,0
1523628374861,-786432,78,-56,-1,-1,0
1523628374861,-720896,78,-56,-1,-1,0
1523628374861,-589824,78,-56,-1,-1,0
1523628374861,-524288,78,-56,-1,-1,0
1523628374861,-458752,78,-56,-1,-1,0
1523628374901,-393216,78,-56,-1,-1,0
1523628374901,-196608,78,-56,-1,-1,0
1523628374901,0,78,-56,-1,-1,0
1523628374901,65536,78,-56,-1,-1,0
1523628374901,262144,78,-56,-1,-1,0
1523628374941,458752,78,-56,-1,-1,0
1523628374941,720896,78,-56,-1,-1,0
1523628374941,1048576,78,-56,-1,-1,0
1523628374941,1376256,78,-56,-1,-1,0
1523628374941,1638400,78,-56,-1,-1,0
1523628374981,1703936,78,-56,-1,-1,0
1523628374981,1638400,78,-56,-1,-1,0
1523628374981,1572864,78,-56,-1,-1,0
1523628374981,1441792,78,-56,-1,-1,0
1523628374981,1179648,78,-56,-1,-1,0
1523628375021,851968,78,-56,-1,-1,0
1523628375021,393216,78,-56,-1,-1,0
1523628375021,0,78,-56,-1,-1,0
1523628375021,-393216,78,-56,-1,-1,0
1523628375021,-589824,78,-56,-1,-1,0
1523628375061,-720896,78,-56,-1,-1,0
1523628375061,-851968,78,-56,-1,-1,0
1523628375061,-983040,78,-56,-1,-1,0
1523628375061,-1048576,78,-56,-1,-1,0
1523628375061,-1048576,78,-56,-1,-1,0
1523628375101,-983040,78,-56,-1,-1,0
1523628375101,-983040,78,-56,-1,-1,0
1523628375101,-983040,78,-56,-1,-1,0
1523628375101,-917504,78,-56,-1,-1,0
1523628375101,-851968,78,-56,-1,-1,0
1523628375141,-786432,78,-56,-1,-1,0
1523628375141,-786432,78,-56,-1,-1,0
1523628375141,-720896,78,-56,-1,-1,0
1523628375141,-720896,78,-56,-1,-1,0
1523628375141,-655360,78,-56,-1,-1,0
1523628375181,-589824,78,-56,-1,-1,0
1523628375181,-589824,78,-56,-1,-1,0
1523628375181,-589824,78,-56,-1,-1,0
1523628375181,-589824,78,-56,-1,-1,0
1523628375181,-655360,78,-56,-1,-1,0
1523628375222,-720896,78,-56,-1,-1,0
1523628375222,-786432,78,-56,-1,-1,0
1523628375222,-786432,78,-56,-1,-1,0
1523628375222,-786432,78,-56,-1,-1,0
1523628375222,-786432,78,-56,-1,-1,0
1523628375261,-851968,78,-56,-1,-1,0
1523628375261,-851968,78,-56,-1,-1,0
1523628375261,-851968,78,-56,-1,-1,0
1523628375261,-851968,78,-56,-1,-1,0
1523628375261,-851968,78,-56,-1,-1,0
1523628375301,-917504,78,-56,-1,-1,0
1523628375301,-983040,78,-56,-1,-1,0
1523628375301,-983040,78,-56,-1,-1,0
1523628375301,-917504,78,-56,-1,-1,0
1523628375301,-917504,78,-56,-1,-1,0
1523628375341,-851968,78,-56,-1,-1,0
1523628375341,-851968,78,-56,-1,-1,0
1523628375341,-851968,78,-56,-1,-1,0
1523628375341,-917504,78,-56,-1,-1,0
1523628375341,-851968,78,-56,-1,-1,0
1523628375382,-786432,78,-56,-1,-1,0
1523628375382,-720896,78,-56,-1,-1,0
1523628375382,-655360,78,-56,-1,-1,0
1523628375382,-655360,78,-56,-1,-1,0
1523628375382,-458752,78,-56,-1,-1,0
1523628375421,-393216,78,-56,-1,-1,0
1523628375421,-393216,78,-56,-1,-1,0
1523628375421,-589824,78,-56,-1,-1,0
1523628375421,-720896,78,-56,-1,-1,0
1523628375421,-786432,78,-56,-1,-1,0
1523628375461,-786432,78,-56,-1,-1,0
1523628375461,-720896,78,-56,-1,-1,0
1523628375461,-720896,78,-56,-1,-1,0
1523628375461,-786432,78,-56,-1,-1,0
1523628375461,-851968,78,-56,-1,-1,0
1523628375501,-983040,78,-56,-1,-1,0
1523628375501,-1179648,78,-56,-1,-1,0
1523628375501,-327680,78,-56,-1,-1,0
1523628375501,2490368,78,-56,-1,-1,0
1523628375501,7340032,78,-56,-1,-1,0
1523628375541,11796480,78,-56,-1,-1,0
1523628375541,11534336,78,-56,-1,-1,0
1523628375541,6291456,78,-56,-1,-1,0
1523628375541,1507328,78,-56,-1,-1,0
1523628375541,196608,78,-56,-1,-1,0
1523628375581,0,78,-56,-1,-1,0
1523628375581,-196608,78,-56,-1,-1,0
1523628375581,-393216,78,-56,-1,-1,0
1523628375581,-458752,78,-56,-1,-1,0
1523628375581,-458752,78,-56,-1,-1,0
1523628375621,-524288,76,-56,-1,-1,0
1523628375621,-524288,76,-56,-1,-1,0
1523628375621,-524288,76,-56,-1,-1,0
1523628375621,-458752,76,-56,-1,-1,0
1523628375621,-327680,76,-56,-1,-1,0
1523628375661,-262144,76,-56,-1,-1,0
1523628375661,-196608,76,-56,-1,-1,0
1523628375661,-65536,76,-56,-1,-1,0
1523628375661,65536,76,-56,-1,-1,0
1523628375661,196608,76,-56,-1,-1,0
1523628375700,393216,76,-56,-1,-1,0
1523628375700,589824,76,-56,-1,-1,0
1523628375700,917504,76,-56,-1,-1,0
1523628375700,1179648,76,-56,-1,-1,0
1523628375700,1507328,76,-56,-1,-1,0
1523628375741,1769472,76,-56,-1,-1,0
1523628375741,1900544,76,-56,-1,-1,0
1523628375741,1900544,76,-56,-1,-1,0
1523628375741,1835008,76,-56,-1,-1,0
1523628375741,1703936,76,-56,-1,-1,0
1523628375781,1441792,76,-56,-1,-1,0
1523628375781,1048576,76,-56,-1,-1,0
1523628375781,655360,76,-56,-1,-1,0
1523628375781,196608,76,-56,-1,-1,0
1523628375781,-131072,76,-56,-1,-1,0
1523628375821,-458752,76,-56,-1,-1,0
1523628375821,-655360,76,-56,-1,-1,0
1523628375821,-851968,76,-56,-1,-1,0
1523628375821,-917504,76,-56,-1,-1,0
1523628375821,-983040,76,-56,-1,-1,0
1523628375862,-1114112,76,-56,-1,-1,0
1523628375862,-1114112,76,-56,-1,-1,0
1523628375862,-1179648,76,-56,-1,-1,0
1523628375862,-1114112,76,-56,-1,-1,0
1523628375862,-1048576,76,-56,-1,-1,0
1523628375901,-983040,76,-56,-1,-1,0
1523628375901,-917504,76,-56,-1,-1,0
1523628375901,-851968,76,-56,-1,-1,0
1523628375901,-786432,76,-56,-1,-1,0
1523628375901,-720896,76,-56,-1,-1,0
1523628375941,-655360,76,-56,-1,-1,0
1523628375941,-589824,76,-56,-1,-1,0
1523628375941,-524288,76,-56,-1,-1,0
1523628375941,-458752,76,-56,-1,-1,0
1523628375941,-458752,76,-56,-1,-1,0
1523628375981,-458752,76,-56,-1,-1,0
1523628375981,-458752,76,-56,-1,-1,0
1523628375981,-458752,76,-56,-1,-1,0
1523628375981,-524288,76,-56,-1,-1,0
1523628375981,-589824,76,-56,-1,-1,0
1523628376021,-589824,76,-56,-1,-1,0
1523628376021,-655360,76,-56,-1,-1,0
1523628376021,-720896,76,-56,-1,-1,0
1523628376021,-786432,76,-56,-1,-1,0
1523628376021,-851968,76,-56,-1,-1,0
1523628376061,-851968,76,-56,-1,-1,0
1523628376061,-917504,76,-56,-1,-1,0
1523628376061,-917504,76,-56,-1,-1,0
1523628376061,-917504,76,-56,-1,-1,0
1523628376061,-917504,76,-56,-1,-1,0
1523628376101,-917504,76,-56,-1,-1,0
1523628376101,-917504,76,-56,-1,-1,0
1523628376101,-917504,76,-56,-1,-1,0
1523628376101,-917504,76,-56,-1,-1,0
1523628376101,-917504,76,-56,-1,-1,0
1523628376141,-983040,76,-56,-1,-1,0
1523628376141,-983040,76,-56,-1,-1,0
1523628376141,-983040,76,-56,-1,-1,0
1523628376141,-983040,76,-56,-1,-1,0
1523628376141,-983040,76,-56,-1,-1,0
1523628376181,-983040,76,-56,-1,-1,0
1523628376181,-983040,76,-56,-1,-1,0
1523628376181,-983040,76,-56,-1,-1,0
1523628376181,-917504,76,-56,-1,-1,0
1523628376181,-917504,76,-56,-1,-1,0
1523628376221,-917504,76,-56,-1,-1,0
1523628376221,-851968,76,-56,-1,-1,0
1523628376221,-720896,76,-56,-1,-1,0
1523628376221,-720896,76,-56,-1,-1,0
1523628376221,-786432,76,-56,-1,-1,0
1523628376261,-851968,76,-56,-1,-1,0
1523628376261,-917504,76,-56,-1,-1,0
1523628376261,-983040,76,-56,-1,-1,0
1523628376261,-1048576,76,-56,-1,-1,0
1523628376261,-1048576,76,-56,-1,-1,0
1523628376301,-983040,76,-56,-1,-1,0
1523628376301,-1048576,76,-56,-1,-1,0
1523628376301,-1114112,76,-56,-1,-1,0
1523628376301,-1507328,76,-56,-1,-1,0
1523628376301,-1441792,76,-56,-1,-1,0
1523628376341,458752,76,-56,-1,-1,0
1523628376341,5177344,76,-56,-1,-1,0
1523628376341,11141120,76,-56,-1,-1,0
1523628376341,13959168,76,-56,-1,-1,0
1523628376341,10158080,76,-56,-1,-1,0
1523628376381,3866624,76,-56,-1,-1,0
1523628376381,458752,76,-56,-1,-1,0
1523628376381,0,76,-56,-1,-1,0
1523628376381,-262144,76,-56,-1,-1,0
1523628376381,-524288,76,-56,-1,-1,0
1523628376421,-589824,76,-56,-1,-1,0
1523628376421,-655360,76,-56,-1,-1,0
1523628376421,-655360,76,-56,-1,-1,0
1523628376421,-655360,76,-56,-1,-1,0
1523628376421,-655360,76,-56,-1,-1,0
1523628376462,-589824,76,-56,-1,-1,0
1523628376462,-524288,76,-56,-1,-1,0
1523628376462,-458752,76,-56,-1,-1,0
1523628376462,-327680,76,-56,-1,-1,0
1523628376462,-262144,76,-56,-1,-1,0
1523628376503,-131072,76,-56,-1,-1,0
1523628376503,0,76,-56,-1,-1,0
1523628376503,196608,76,-56,-1,-1,0
1523628376503,393216,76,-56,-1,-1,0
1523628376503,589824,76,-56,-1,-1,0
1523628376541,851968,76,-56,-1,-1,0
1523628376541,1114112,76,-56,-1,-1,0
1523628376541,1310720,76,-56,-1,-1,0
1523628376541,1572864,76,-56,-1,-1,0
1523628376541,1703936,76,-56,-1,-1,0
1523628376581,1703936,76,-56,-1,-1,0
1523628376581,1703936,76,-56,-1,-1,0
1523628376581,1572864,76,-56,-1,-1,0
1523628376581,1310720,76,-56,-1,-1,0
1523628376581,983040,76,-56,-1,-1,0
1523628376621,589824,76,-56,-1,-1,0
1523628376621,196608,76,-56,-1,-1,0
1523628376621,-65536,76,-56,-1,-1,0
1523628376621,-262144,76,-56,-1,-1,0
1523628376621,-393216,76,-56,-1,-1,0
1523628376661,-524288,76,-56,-1,-1,0
1523628376661,-589824,76,-56,-1,-1,0
1523628376661,-655360,76,-56,-1,-1,0
1523628376661,-720896,76,-56,-1,-1,0
1523628376661,-720896,76,-56,-1,-1,0
1523628376701,-720896,76,-56,-1,-1,0
1523628376701,-720896,76,-56,-1,-1,0
1523628376701,-655360,76,-56,-1,-1,0
1523628376701,-655360,76,-56,-1,-1,0
1523628376701,-589824,76,-56,-1,-1,0
1523628376741,-589824,76,-56,-1,-1,0
1523628376741,-524288,76,-56,-1,-1,0
1523628376741,-458752,76,-56,-1,-1,0
1523628376741,-458752,76,-56,-1,-1,0
1523628376741,-458752,76,-56,-1,-1,0
1523628376781,-393216,76,-56,-1,-1,0
1523628376781,-327680,76,-56,-1,-1,0
1523628376781,-327680,76,-56,-1,-1,0
1523628376781,-327680,76,-56,-1,-1,0
1523628376781,-327680,76,-56,-1,-1,0
1523628376823,-393216,76,-56,-1,-1,0
1523628376823,-393216,76,-56,-1,-1,0
1523628376823,-393216,76,-56,-1,-1,0
1523628376823,-458752,76,-56,-1,-1,0
1523628376823,-393216,76,-56,-1,-1,0
1523628376861,-393216,76,-56,-1,-1,0
1523628376861,-458752,76,-56,-1,-1,0
1523628376861,-524288,76,-56,-1,-1,0
1523628376861,-655360,76,-56,-1,-1,0
1523628376861,-720896,76,-56,-1,-1,0
1523628376901,-786432,76,-56,-1,-1,0
1523628376901,-786432,76,-56,-1,-1,0
1523628376901,-851968,76,-56,-1,-1,0
1523628376901,-851968,76,-56,-1,-1,0
1523628376901,-786432,76,-56,-1,-1,0
1523628376941,-720896,76,-56,-1,-1,0
1523628376941,-786432,76,-56,-1,-1,0
1523628376941,-786432,76,-56,-1,-1,0
1523628376941,-786432,76,-56,-1,-1,0
1523628376941,-851968,76,-56,-1,-1,0
1523628376981,-917504,76,-56,-1,-1,0
1523628376981,-917504,76,-56,-1,-1,0
1523628376981,-917504,76,-56,-1,-1,0
1523628376981,-983040,76,-56,-1,-1,0
1523628376981,-983040,76,-56,-1,-1,0
1523628377021,-983040,76,-56,-1,-1,0
1523628377021,-917504,76,-56,-1,-1,0
1523628377021,-917504,76,-56,-1,-1,0
1523628377021,-983040,76,-56,-1,-1,0
1523628377021,-983040,76,-56,-1,-1,0
1523628377062,-1048576,76,-56,-1,-1,0
1523628377062,-1048576,76,-56,-1,-1,0
1523628377062,-1048576,76,-56,-1,-1,0
1523628377062,-1048576,76,-56,-1,-1,0
1523628377062,-1048576,76,-56,-1,-1,0
1523628377101,-917504,76,-56,-1,-1,0
1523628377101,-851968,76,-56,-1,-1,0
1523628377101,-851968,76,-56,-1,-1,0
1523628377101,-983040,76,-56,-1,-1,0
1523628377101,-1048576,76,-56,-1,-1,0
1523628377142,-1048576,76,-56,-1,-1,0
1523628377142,-1048576,76,-56,-1,-1,0
1523628377142,-983040,76,-56,-1,-1,0
1523628377142,-917504,76,-56,-1,-1,0
1523628377142,-851968,76,-56,-1,-1,0
1523628377181,-917504,76,-56,-1,-1,0
1523628377181,-1179648,76,-56,-1,-1,0
1523628377181,-1048576,76,-56,-1,-1,0
1523628377181,655360,76,-56,-1,-1,0
1523628377181,4718592,76,-56,-1,-1,0
1523628377221,10092544,76,-56,-1,-1,0
1523628377221,12910592,76,-56,-1,-1,0
1523628377221,9699328,76,-56,-1,-1,0
1523628377221,3801088,76,-56,-1,-1,0
1523628377221,393216,76,-56,-1,-1,0
1523628377261,0,76,-56,-1,-1,0
1523628377261,-262144,76,-56,-1,-1,0
1523628377261,-458752,76,-56,-1,-1,0
1523628377261,-524288,76,-56,-1,-1,0
1523628377261,-524288,76,-56,-1,-1,0
1523628377301,-458752,76,-56,-1,-1,0
1523628377301,-458752,76,-56,-1,-1,0
1523628377301,-393216,76,-56,-1,-1,0
1523628377301,-327680,76,-56,-1,-1,0
1523628377301,-196608,76,-56,-1,-1,0
1523628377341,-131072,75,-56,-1,-1,0
1523628377341,-65536,75,-56,-1,-1,0
1523628377341,0,75,-56,-1,-1,0
1523628377341,0,75,-56,-1,-1,0
1523628377341,131072,75,-56,-1,-1,0
1523628377381,327680,75,-56,-1,-1,0
1523628377381,589824,75,-56,-1,-1,0
1523628377381,851968,75,-56,-1,-1,0
1523628377381,1114112,75,-56,-1,-1,0
1523628377381,1376256,75,-56,-1,-1,0
1523628377421,1638400,75,-56,-1,-1,0
1523628377421,1769472,75,-56,-1,-1,0
1523628377421,1900544,75,-56,-1,-1,0
1523628377421,1835008,75,-56,-1,-1,0
1523628377421,1769472,75,-56,-1,-1,0
1523628377461,1572864,75,-56,-1,-1,0
1523628377461,1310720,75,-56,-1,-1,0
1523628377461,983040,75,-56,-1,-1,0
1523628377461,589824,75,-56,-1,-1,0
1523628377461,196608,75,-56,-1,-1,0
1523628377501,0,75,-56,-1,-1,0
1523628377501,-262144,75,-56,-1,-1,0
1523628377501,-393216,75,-56,-1,-1,0
1523628377501,-524288,75,-56,-1,-1,0
1523628377501,-655360,75,-56,-1,-1,0
1523628377541,-720896,75,-56,-1,-1,0
1523628377541,-720896,75,-56,-1,-1,0
1523628377541,-720896,75,-56,-1,-1,0
1523628377541,-655360,75,-56,-1,-1,0
1523628377541,-655360,75,-56,-1,-1,0
1523628377581,-589824,75,-56,-1,-1,0
1523628377581,-524288,75,-56,-1,-1,0
1523628377581,-458752,75,-56,-1,-1,0
1523628377581,-393216,75,-56,-1,-1,0
1523628377581,-393216,75,-56,-1,-1,0
1523628377621,-327680,75,-56,-1,-1,0
1523628377621,-262144,75,-56,-1,-1,0
1523628377621,-262144,75,-56,-1,-1,0
1523628377621,-196608,75,-56,-1,-1,0
1523628377621,-196608,75,-56,-1,-1,0
1523628377661,-196608,75,-56,-1,-1,0
1523628377661,-196608,75,-56,-1,-1,0
1523628377661,-262144,75,-56,-1,-1,0
1523628377661,-327680,75,-56,-1,-1,0
1523628377661,-393216,75,-56,-1,-1,0
1523628377701,-458752,75,-56,-1,-1,0
1523628377701,-458752,75,-56,-1,-1,0
1523628377701,-458752,75,-56,-1,-1,0
1523628377701,-458752,75,-56,-1,-1,0
1523628377701,-458752,75,-56,-1,-1,0
1523628377741,-524288,75,-56,-1,-1,0
1523628377741,-589824,75,-56,-1,-1,0
1523628377741,-589824,75,-56,-1,-1,0
1523628377741,-589824,75,-56,-1,-1,0
1523628377741,-655360,75,-56,-1,-1,0
1523628377782,-720896,75,-56,-1,-1,0
1523628377782,-786432,75,-56,-1,-1,0
1523628377782,-851968,75,-56,-1,-1,0
1523628377782,-851968,75,-56,-1,-1,0
1523628377782,-851968,75,-56,-1,-1,0
1523628377821,-851968,75,-56,-1,-1,0
1523628377821,-851968,75,-56,-1,-1,0
1523628377821,-851968,75,-56,-1,-1,0
1523628377821,-851968,75,-56,-1,-1,0
1523628377821,-851968,75,-56,-1,-1,0
1523628377861,-851968,75,-56,-1,-1,0
1523628377861,-851968,75,-56,-1,-1,0
1523628377861,-851968,75,-56,-1,-1,0
1523628377861,-851968,75,-56,-1,-1,0
1523628377861,-851968,75,-56,-1,-1,0
1523628377901,-786432,75,-56,-1,-1,0
1523628377901,-786432,75,-56,-1,-1,0
1523628377901,-851968,75,-56,-1,-1,0
1523628377901,-851968,75,-56,-1,-1,0
1523628377901,-786432,75,-56,-1,-1,0
1523628377941,-720896,75,-56,-1,-1,0
1523628377941,-655360,75,-56,-1,-1,0
1523628377941,-589824,75,-56,-1,-1,0
1523628377941,-458752,75,-56,-1,-1,0
1523628377941,-393216,75,-56,-1,-1,0
1523628377981,-524288,75,-56,-1,-1,0
1523628377981,-589824,75,-56,-1,-1,0
1523628377981,-720896,75,-56,-1,-1,0
1523628377981,-720896,75,-56,-1,-1,0
1523628377981,-786432,75,-56,-1,-1,0
1523628378021,-786432,75,-56,-1,-1,0
1523628378021,-786432,75,-56,-1,-1,0
1523628378021,-786432,75,-56,-1,-1,0
1523628378021,-917504,75,-56,-1,-1,0
1523628378021,-1310720,75,-56,-1,-1,0
1523628378061,-1507328,75,-56,-1,-1,0
1523628378061,0,75,-56,-1,-1,0
1523628378061,4325376,75,-56,-1,-1,0
1523628378061,10616832,75,-56,-1,-1,0
1523628378061,14680064,75,-56,-1,-1,0
1523628378102,11927552,75,-56,-1,-1,0
1523628378102,5373952,75,-56,-1,-1,0
1523628378102,1048576,75,-56,-1,-1,0
1523628378102,131072,75,-56,-1,-1,0
1523628378102,-196608,75,-56,-1,-1,0
1523628378141,-524288,75,-56,-1,-1,0
1523628378141,-655360,75,-56,-1,-1,0
1523628378141,-720896,75,-56,-1,-1,0
1523628378141,-720896,75,-56,-1,-1,0
1523628378141,-720896,75,-56,-1,-1,0
1523628378181,-720896,75,-56,-1,-1,0
1523628378181,-655360,75,-56,-1,-1,0
1523628378181,-589824,75,-56,-1,-1,0
1523628378181,-524288,75,-56,-1,-1,0
1523628378181,-393216,75,-56,-1,-1,0
1523628378221,-262144,74,-56,-1,-1,0
1523628378221,-196608,74,-56,-1,-1,0
1523628378221,0,74,-56,-1,-1,0
1523628378221,65536,74,-56,-1,-1,0
1523628378221,327680,74,-56,-1,-1,0
1523628378262,524288,74,-56,-1,-1,0
1523628378262,786432,74,-56,-1,-1,0
1523628378262,1048576,74,-56,-1,-1,0
1523628378262,1376256,74,-56,-1,-1,0
1523628378262,1638400,74,-56,-1,-1,0
1523628378301,1769472,74,-56,-1,-1,0
1523628378301,1835008,74,-56,-1,-1,0
1523628378301,1769472,74,-56,-1,-1,0
1523628378301,1638400,74,-56,-1,-1,0
1523628378301,1441792,74,-56,-1,-1,0
1523628378343,1114112,74,-56,-1,-1,0
1523628378343,720896,74,-56,-1,-1,0
1523628378343,262144,74,-56,-1,-1,0
1523628378343,-65536,74,-56,-1,-1,0
1523628378343,-327680,74,-56,-1,-1,0
1523628378381,-524288,74,-56,-1,-1,0
1523628378381,-655360,74,-56,-1,-1,0
1523628378381,-786432,74,-56,-1,-1,0
1523628378381,-786432,74,-56,-1,-1,0
1523628378381,-786432,74,-56,-1,-1,0
1523628378422,-786432,74,-56,-1,-1,0
1523628378422,-786432,74,-56,-1,-1,0
1523628378422,-720896,74,-56,-1,-1,0
1523628378422,-655360,74,-56,-1,-1,0
1523628378422,-589824,74,-56,-1,-1,0
1523628378461,-524288,74,-56,-1,-1,0
1523628378461,-524288,74,-56,-1,-1,0
1523628378461,-458752,74,-56,-1,-1,0
1523628378461,-393216,74,-56,-1,-1,0
1523628378461,-393216,74,-56,-1,-1,0
1523628378501,-458752,74,-56,-1,-1,0
1523628378501,-458752,74,-56,-1,-1,0
1523628378501,-458752,74,-56,-1,-1,0
1523628378501,-393216,74,-56,-1,-1,0
1523628378501,-393216,74,-56,-1,-1,0
1523628378541,-458752,74,-56,-1,-1,0
1523628378541,-458752,74,-56,-1,-1,0
1523628378541,-393216,74,-56,-1,-1,0
1523628378541,-458752,74,-56,-1,-1,0
1523628378541,-458752,74,-56,-1,-1,0
1523628378581,-524288,74,-56,-1,-1,0
1523628378581,-589824,74,-56,-1,-1,0
1523628378581,-589824,74,-56,-1,-1,0
1523628378581,-589824,74,-56,-1,-1,0
1523628378581,-589824,74,-56,-1,-1,0
1523628378621,-589824,74,-56,-1,-1,0
1523628378621,-589824,74,-56,-1,-1,0
1523628378621,-655360,74,-56,-1,-1,0
1523628378621,-786432,74,-56,-1,-1,0
1523628378621,-851968,74,-56,-1,-1,0
1523628378661,-786432,74,-56,-1,-1,0
1523628378661,-720896,74,-56,-1,-1,0
1523628378661,-720896,74,-56,-1,-1,0
1523628378661,-786432,74,-56,-1,-1,0
1523628378661,-786432,74,-56,-1,-1,0
1523628378701,-786432,74,-56,-1,-1,0
1523628378701,-917504,74,-56,-1,-1,0
1523628378701,-917504,74,-56,-1,-1,0
1523628378701,-983040,74,-56,-1,-1,0
1523628378701,-983040,74,-56,-1,-1,0
1523628378741,-983040,74,-56,-1,-1,0
1523628378741,-917504,74,-56,-1,-1,0
1523628378741,-917504,74,-56,-1,-1,0
1523628378741,-917504,74,-56,-1,-1,0
1523628378741,-983040,74,-56,-1,-1,0
1523628378781,-983040,74,-56,-1,-1,0
1523628378781,-983040,74,-56,-1,-1,0
1523628378781,-1114112,74,-56,-1,-1,0
1523628378781,-1048576,74,-56,-1,-1,0
1523628378781,-983040,74,-56,-1,-1,0
1523628378821,-983040,74,-56,-1,-1,0
1523628378821,-983040,74,-56,-1,-1,0
1523628378821,-851968,74,-56,-1,-1,0
1523628378821,-786432,74,-56,-1,-1,0
1523628378821,-917504,74,-56,-1,-1,0
1523628378861,-1048576,74,-56,-1,-1,0
1523628378861,-1179648,74,-56,-1,-1,0
1523628378861,-1179648,74,-56,-1,-1,0
1523628378861,-1245184,74,-56,-1,-1,0
1523628378861,-1179648,74,-56,-1,-1,0
1523628378901,-1179648,74,-56,-1,-1,0
1523628378901,-1114112,74,-56,-1,-1,0
1523628378901,-1245184,74,-56,-1,-1,0
1523628378901,-1507328,74,-56,-1,-1,0
1523628378901,-851968,74,-56,-1,-1,0
1523628378941,1835008,74,-56,-1,-1,0
1523628378941,6619136,74,-56,-1,-1,0
1523628378941,11403264,74,-56,-1,-1,0
1523628378941,11927552,74,-56,-1,-1,0
1523628378941,6946816,74,-56,-1,-1,0
1523628378981,1703936,74,-56,-1,-1,0
1523628378981,0,74,-56,-1,-1,0
1523628378981,-131072,74,-56,-1,-1,0
1523628378981,-327680,74,-56,-1,-1,0
1523628378981,-524288,74,-56,-1,-1,0
1523628379021,-589824,74,-56,-1,-1,0
1523628379021,-655360,74,-56,-1,-1,0
1523628379021,-589824,74,-56,-1,-1,0
1523628379021,-524288,74,-56,-1,-1,0
1523628379021,-458752,74,-56,-1,-1,0
1523628379062,-393216,74,-56,-1,-1,0
1523628379062,-327680,74,-56,-1,-1,0
1523628379062,-262144,74,-56,-1,-1,0
1523628379062,-131072,74,-56,-1,-1,0
1523628379062,0,74,-56,-1,-1,0
1523628379102,65536,73,-56,-1,-1,0
1523628379102,262144,73,-56,-1,-1,0
1523628379102,458752,73,-56,-1,-1,0
1523628379102,589824,73,-56,-1,-1,0
1523628379102,851968,73,-56,-1,-1,0
1523628379141,1114112,73,-56,-1,-1,0
1523628379141,1376256,73,-56,-1,-1,0
1523628379141,1638400,73,-56,-1,-1,0
1523628379141,1835008,73,-56,-1,-1,0
1523628379141,1900544,73,-56,-1,-1,0
1523628379181,1900544,73,-56,-1,-1,0
1523628379181,1703936,73,-56,-1,-1,0
1523628379181,1507328,73,-56,-1,-1,0
1523628379181,1179648,73,-56,-1,-1,0
1523628379181,851968,73,-56,-1,-1,0
1523628379221,393216,73,-56,-1,-1,0
1523628379221,0,73,-56,-1,-1,0
1523628379221,-262144,73,-56,-1,-1,0
1523628379221,-524288,73,-56,-1,-1,0
1523628379221,-655360,73,-56,-1,-1,0
1523628379261,-720896,73,-56,-1,-1,0
1523628379261,-786432,73,-56,-1,-1,0
1523628379261,-851968,73,-56,-1,-1,0
1523628379261,-917504,73,-56,-1,-1,0
1523628379261,-917504,73,-56,-1,-1,0
1523628379301,-851968,73,-56,-1,-1,0
1523628379301,-786432,73,-56,-1,-1,0
1523628379301,-786432,73,-56,-1,-1,0
1523628379301,-786432,73,-56,-1,-1,0
1523628379301,-786432,73,-56,-1,-1,0
1523628379341,-655360,73,-56,-1,-1,0
1523628379341,-655360,73,-56,-1,-1,0
1523628379341,-589824,73,-56,-1,-1,0
1523628379341,-589824,73,-56,-1,-1,0
1523628379341,-589824,73,-56,-1,-1,0
1523628379382,-589824,73,-56,-1,-1,0
1523628379382,-589824,73,-56,-1,-1,0
1523628379382,-589824,73,-56,-1,-1,0
1523628379382,-589824,73,-56,-1,-1,0
1523628379382,-589824,73,-56,-1,-1,0
1523628379421,-655360,73,-56,-1,-1,0
1523628379421,-655360,73,-56,-1,-1,0
1523628379421,-720896,73,-56,-1,-1,0
1523628379421,-786432,73,-56,-1,-1,0
1523628379421,-786432,73,-56,-1,-1,0
1523628379461,-786432,73,-56,-1,-1,0
1523628379461,-720896,73,-56,-1,-1,0
1523628379461,-786432,73,-56,-1,-1,0
1523628379461,-786432,73,-56,-1,-1,0
1523628379461,-786432,73,-56,-1,-1,0
1523628379502,-786432,73,-56,-1,-1,0
1523628379502,-851968,73,-56,-1,-1,0
1523628379502,-851968,73,-56,-1,-1,0
1523628379502,-851968,73,-56,-1,-1,0
1523628379502,-851968,73,-56,-1,-1,0
1523628379540,-851968,73,-56,-1,-1,0
1523628379540,-917504,73,-56,-1,-1,0
1523628379540,-917504,73,-56,-1,-1,0
1523628379540,-851968,73,-56,-1,-1,0
1523628379540,-851968,73,-56,-1,-1,0
1523628379581,-851968,73,-56,-1,-1,0
1523628379581,-851968,73,-56,-1,-1,0
1523628379581,-851968,73,-56,-1,-1,0
1523628379581,-917504,73,-56,-1,-1,0
1523628379581,-917504,73,-56,-1,-1,0
1523628379621,-917504,73,-56,-1,-1,0
1523628379621,-917504,73,-56,-1,-1,0
1523628379621,-917504,73,-56,-1,-1,0
1523628379621,-983040,73,-56,-1,-1,0
1523628379621,-983040,73,-56,-1,-1,0
1523628379661,-983040,73,-56,-1,-1,0
1523628379661,-917504,73,-56,-1,-1,0
1523628379661,-851968,73,-56,-1,-1,0
1523628379661,-786432,73,-56,-1,-1,0
1523628379661,-720896,73,-56,-1,-1,0
1523628379702,-655360,73,-56,-1,-1,0
1523628379702,-720896,73,-56,-1,-1,0
1523628379702,-851968,73,-56,-1,-1,0
1523628379702,-917504,73,-56,-1,-1,0
1523628379702,-1048576,73,-56,-1,-1,0
1523628379741,-1114112,73,-56,-1,-1,0
1523628379741,-1114112,73,-56,-1,-1,0
1523628379741,-1048576,73,-56,-1,-1,0
1523628379741,-1048576,73,-56,-1,-1,0
1523628379741,-1114112,73,-56,-1,-1,0
1523628379781,-1441792,73,-56,-1,-1,0
1523628379781,-1572864,73,-56,-1,-1,0
1523628379781,-131072,73,-56,-1,-1,0
1523628379781,3997696,73,-56,-1,-1,0
1523628379781,10027008,73,-56,-1,-1,0
1523628379825,14090240,73,-56,-1,-1,0
1523628379825,11665408,73,-56,-1,-1,0
1523628379825,5242880,73,-56,-1,-1,0
1523628379825,983040,73,-56,-1,-1,0
1523628379825,0,73,-56,-1,-1,0
1523628379861,-262144,73,-56,-1,-1,0
1523628379861,-524288,73,-56,-1,-1,0
1523628379861,-589824,73,-56,-1,-1,0
1523628379861,-589824,73,-56,-1,-1,0
1523628379861,-589824,73,-56,-1,-1,0
1523628379901,-589824,73,-56,-1,-1,0
1523628379901,-524288,73,-56,-1,-1,0
1523628379901,-458752,73,-56,-1,-1,0
1523628379901,-393216,73,-56,-1,-1,0
1523628379901,-393216,73,-56,-1,-1,0
1523628379942,-327680,72,-56,-1,-1,0
1523628379942,-262144,72,-56,-1,-1,0
1523628379942,-131072,72,-56,-1,-1,0
1523628379942,0,72,-56,-1,-1,0
1523628379942,131072,72,-56,-1,-1,0
1523628379981,327680,72,-56,-1,-1,0
1523628379981,524288,72,-56,-1,-1,0
1523628379981,786432,72,-56,-1,-1,0
1523628379981,1048576,72,-56,-1,-1,0
1523628379981,1310720,72,-56,-1,-1,0
1523628380020,1572864,72,-56,-1,-1,0
1523628380020,1769472,72,-56,-1,-1,0
1523628380020,1835008,72,-56,-1,-1,0
1523628380020,1769472,72,-56,-1,-1,0
1523628380020,1703936,72,-56,-1,-1,0
1523628380061,1441792,72,-56,-1,-1,0
1523628380061,1179648,72,-56,-1,-1,0
1523628380061,720896,72,-56,-1,-1,0
1523628380061,327680,72,-56,-1,-1,0
1523628380061,0,72,-56,-1,-1,0
1523628380103,-327680,72,-56,-1,-1,0
1523628380103,-524288,72,-56,-1,-1,0
1523628380103,-655360,72,-56,-1,-1,0
1523628380103,-720896,72,-56,-1,-1,0
1523628380103,-786432,72,-56,-1,-1,0
1523628380141,-786432,72,-56,-1,-1,0
1523628380141,-851968,72,-56,-1,-1,0
1523628380141,-851968,72,-56,-1,-1,0
1523628380141,-786432,72,-56,-1,-1,0
1523628380141,-786432,72,-56,-1,-1,0
1523628380181,-786432,72,-56,-1,-1,0
1523628380181,-786432,72,-56,-1,-1,0
1523628380181,-720896,72,-56,-1,-1,0
1523628380181,-720896,72,-56,-1,-1,0
1523628380181,-720896,72,-56,-1,-1,0
1523628380223,-720896,72,-56,-1,-1,0
1523628380223,-655360,72,-56,-1,-1,0
1523628380223,-655360,72,-56,-1,-1,0
1523628380223,-655360,72,-56,-1,-1,0
1523628380223,-655360,72,-56,-1,-1,0
1523628380261,-655360,72,-56,-1,-1,0
1523628380261,-589824,72,-56,-1,-1,0
1523628380261,-589824,72,-56,-1,-1,0
1523628380261,-589824,72,-56,-1,-1,0
1523628380261,-655360,72,-56,-1,-1,0
1523628380303,-655360,72,-56,-1,-1,0
1523628380303,-655360,72,-56,-1,-1,0
1523628380303,-655360,72,-56,-1,-1,0
1523628380303,-720896,72,-56,-1,-1,0
1523628380303,-786432,72,-56,-1,-1,0
1523628380345,-786432,72,-56,-1,-1,0
1523628380345,-786432,72,-56,-1,-1,0
1523628380345,-786432,72,-56,-1,-1,0
1523628380345,-851968,72,-56,-1,-1,0
1523628380345,-851968,72,-56,-1,-1,0
1523628380380,-917504,72,-56,-1,-1,0
1523628380380,-917504,72,-56,-1,-1,0
1523628380380,-983040,72,-56,-1,-1,0
1523628380380,-983040,72,-56,-1,-1,0
1523628380380,-917504,72,-56,-1,-1,0
1523628380421,-917504,72,-56,-1,-1,0
1523628380421,-983040,72,-56,-1,-1,0
1523628380421,-983040,72,-56,-1,-1,0
1523628380421,-983040,72,-56,-1,-1,0
1523628380421,-983040,72,-56,-1,-1,0
1523628380462,-983040,72,-56,-1,-1,0
1523628380462,-1048576,72,-56,-1,-1,0
1523628380462,-983040,72,-56,-1,-1,0
1523628380462,-983040,72,-56,-1,-1,0
1523628380462,-1048576,72,-56,-1,-1,0
1523628380501,-1048576,72,-56,-1,-1,0
1523628380501,-1048576,72,-56,-1,-1,0
1523628380501,-1048576,72,-56,-1,-1,0
1523628380501,-917504,72,-56,-1,-1,0
1523628380501,-917504,72,-56,-1,-1,0
1523628380541,-851968,72,-56,-1,-1,0
1523628380541,-786432,72,-56,-1,-1,0
1523628380541,-786432,72,-56,-1,-1,0
1523628380541,-786432,72,-56,-1,-1,0
1523628380541,-917504,72,-56,-1,-1,0
1523628380581,-983040,72,-56,-1,-1,0
1523628380581,-1048576,72,-56,-1,-1,0
1523628380581,-1114112,72,-56,-1,-1,0
1523628380581,-1114112,72,-56,-1,-1,0
1523628380581,-1179648,72,-56,-1,-1,0
1523628380622,-1179648,72,-56,-1,-1,0
1523628380622,-1245184,72,-56,-1,-1,0
1523628380622,-1507328,72,-56,-1,-1,0
1523628380622,-1835008,72,-56,-1,-1,0
1523628380622,-1114112,72,-56,-1,-1,0
1523628380660,1900544,72,-56,-1,-1,0
1523628380660,7471104,72,-56,-1,-1,0
1523628380660,12779520,72,-56,-1,-1,0
1523628380660,12845056,72,-56,-1,-1,0
1523628380660,7143424,72,-56,-1,-1,0
1523628380701,1703936,72,-56,-1,-1,0
1523628380701,0,72,-56,-1,-1,0
1523628380701,-327680,72,-56,-1,-1,0
1523628380701,-589824,72,-56,-1,-1,0
1523628380701,-720896,72,-56,-1,-1,0
1523628380741,-655360,72,-56,-1,-1,0
1523628380741,-655360,72,-56,-1,-1,0
1523628380741,-589824,72,-56,-1,-1,0
1523628380741,-589824,72,-56,-1,-1,0
1523628380741,-524288,72,-56,-1,-1,0
1523628380781,-393216,71,-56,-1,-1,0
1523628380781,-327680,71,-56,-1,-1,0
1523628380781,-262144,71,-56,-1,-1,0
1523628380781,-196608,71,-56,-1,-1,0
1523628380781,-65536,71,-56,-1,-1,0
1523628380822,0,71,-56,-1,-1,0
1523628380822,196608,71,-56,-1,-1,0
1523628380822,393216,71,-56,-1,-1,0
1523628380822,589824,71,-56,-1,-1,0
1523628380822,851968,71,-56,-1,-1,0
1523628380861,1179648,71,-56,-1,-1,0
1523628380861,1441792,71,-56,-1,-1,0
1523628380861,1703936,71,-56,-1,-1,0
1523628380861,1900544,71,-56,-1,-1,0
1523628380861,2031616,71,-56,-1,-1,0
1523628380901,2031616,71,-56,-1,-1,0
1523628380901,1966080,71,-56,-1,-1,0
1523628380901,1835008,71,-56,-1,-1,0
1523628380901,1507328,71,-56,-1,-1,0
1523628380901,1114112,71,-56,-1,-1,0
1523628380941,655360,71,-56,-1,-1,0
1523628380941,262144,71,-56,-1,-1,0
1523628380941,-65536,71,-56,-1,-1,0
1523628380941,-393216,71,-56,-1,-1,0
1523628380941,-589824,71,-56,-1,-1,0
1523628380982,-655360,71,-56,-1,-1,0
1523628380982,-720896,71,-56,-1,-1,0
1523628380982,-786432,71,-56,-1,-1,0
1523628380982,-786432,71,-56,-1,-1,0
1523628380982,-786432,71,-56,-1,-1,0
1523628381021,-786432,71,-56,-1,-1,0
1523628381021,-720896,71,-56,-1,-1,0
1523628381021,-720896,71,-56,-1,-1,0
1523628381021,-655360,71,-56,-1,-1,0
1523628381021,-589824,71,-56,-1,-1,0
1523628381061,-524288,71,-56,-1,-1,0
1523628381061,-458752,71,-56,-1,-1,0
1523628381061,-393216,71,-56,-1,-1,0
1523628381061,-327680,71,-56,-1,-1,0
1523628381061,-327680,71,-56,-1,-1,0
1523628381101,-262144,71,-56,-1,-1,0
1523628381101,-196608,71,-56,-1,-1,0
1523628381101,-196608,71,-56,-1,-1,0
1523628381101,-262144,71,-56,-1,-1,0
1523628381101,-327680,71,-56,-1,-1,0
1523628381141,-393216,71,-56,-1,-1,0
1523628381141,-458752,71,-56,-1,-1,0
1523628381141,-524288,71,-56,-1,-1,0
1523628381141,-655360,71,-56,-1,-1,0
1523628381141,-720896,71,-56,-1,-1,0
1523628381181,-720896,71,-56,-1,-1,0
1523628381181,-786432,71,-56,-1,-1,0
1523628381181,-851968,71,-56,-1,-1,0
1523628381181,-851968,71,-56,-1,-1,0
1523628381181,-851968,71,-56,-1,-1,0
1523628381221,-786432,71,-56,-1,-1,0
1523628381221,-851968,71,-56,-1,-1,0
1523628381221,-851968,71,-56,-1,-1,0
1523628381221,-786432,71,-56,-1,-1,0
1523628381221,-786432,71,-56,-1,-1,0
1523628381261,-786432,71,-56,-1,-1,0
1523628381261,-786432,71,-56,-1,-1,0
1523628381261,-786432,71,-56,-1,-1,0
1523628381261,-851968,71,-56,-1,-1,0
1523628381261,-917504,71,-56,-1,-1,0
1523628381301,-851968,71,-56,-1,-1,0
1523628381301,-851968,71,-56,-1,-1,0
1523628381301,-786432,71,-56,-1,-1,0
1523628381301,-786432,71,-56,-1,-1,0
1523628381301,-851968,71,-56,-1,-1,0
1523628381341,-851968,71,-56,-1,-1,0
1523628381341,-917504,71,-56,-1,-1,0
1523628381341,-917504,71,-56,-1,-1,0
1523628381341,-917504,71,-56,-1,-1,0
1523628381341,-917504,71,-56,-1,-1,0
1523628381381,-917504,71,-56,-1,-1,0
1523628381381,-851968,71,-56,-1,-1,0
1523628381381,-786432,71,-56,-1,-1,0
1523628381381,-720896,71,-56,-1,-1,0
1523628381381,-655360,71,-56,-1,-1,0
1523628381421,-655360,71,-56,-1,-1,0
1523628381421,-851968,71,-56,-1,-1,0
1523628381421,-917504,71,-56,-1,-1,0
1523628381421,-983040,71,-56,-1,-1,0
1523628381421,-983040,71,-56,-1,-1,0
1523628381461,-983040,71,-56,-1,-1,0
1523628381461,-983040,71,-56,-1,-1,0
1523628381461,-983040,71,-56,-1,-1,0
1523628381461,-1048576,71,-56,-1,-1,0
1523628381461,-1245184,71,-56,-1,-1,0
1523628381501,-1441792,71,-56,-1,-1,0
1523628381501,-262144,71,-56,-1,-1,0
1523628381501,3342336,71,-56,-1,-1,0
1523628381501,9043968,71,-56,-1,-1,0
1523628381501,13500416,71,-56,-1,-1,0
1523628381541,12058624,71,-56,-1,-1,0
1523628381541,5832704,71,-56,-1,-1,0
1523628381541,1114112,71,-56,-1,-1,0
1523628381541,0,71,-56,-1,-1,0
1523628381541,-196608,71,-56,-1,-1,0
1523628381581,-458752,71,-56,-1,-1,0
1523628381581,-589824,71,-56,-1,-1,0
1523628381581,-589824,71,-56,-1,-1,0
1523628381581,-589824,71,-56,-1,-1,0
1523628381581,-524288,71,-56,-1,-1,0
1523628381622,-458752,71,-56,-1,-1,0
1523628381622,-393216,71,-56,-1,-1,0
1523628381622,-327680,71,-56,-1,-1,0
1523628381622,-262144,71,-56,-1,-1,0
1523628381622,-196608,71,-56,-1,-1,0
1523628381661,-65536,71,-56,-1,-1,0
1523628381661,0,71,-56,-1,-1,0
1523628381661,131072,71,-56,-1,-1,0
1523628381661,327680,71,-56,-1,-1,0
1523628381661,589824,71,-56,-1,-1,0
1523628381701,720896,71,-56,-1,-1,0
1523628381701,983040,71,-56,-1,-1,0
1523628381701,1179648,71,-56,-1,-1,0
1523628381701,1507328,71,-56,-1,-1,0
1523628381701,1703936,71,-56,-1,-1,0
1523628381741,1900544,71,-56,-1,-1,0
1523628381741,1966080,71,-56,-1,-1,0
1523628381741,1966080,71,-56,-1,-1,0
1523628381741,1900544,71,-56,-1,-1,0
1523628381741,1638400,71,-56,-1,-1,0
1523628381781,1310720,71,-56,-1,-1,0
1523628381781,917504,71,-56,-1,-1,0
1523628381781,458752,71,-56,-1,-1,0
1523628381781,0,71,-56,-1,-1,0
1523628381781,-196608,71,-56,-1,-1,0
1523628381821,-458752,71,-56,-1,-1,0
1523628381821,-655360,71,-56,-1,-1,0
1523628381821,-786432,71,-56,-1,-1,0
1523628381821,-786432,71,-56,-1,-1,0
1523628381821,-851968,71,-56,-1,-1,0
1523628381861,-917504,71,-56,-1,-1,0
1523628381861,-917504,71,-56,-1,-1,0
1523628381861,-917504,71,-56,-1,-1,0
1523628381861,-917504,71,-56,-1,-1,0
1523628381861,-917504,71,-56,-1,-1,0
1523628381901,-851968,71,-56,-1,-1,0
1523628381901,-720896,71,-56,-1,-1,0
1523628381901,-655360,71,-56,-1,-1,0
1523628381901,-655360,71,-56,-1,-1,0
1523628381901,-655360,71,-56,-1,-1,0
1523628381941,-589824,71,-56,-1,-1,0
1523628381941,-589824,71,-56,-1,-1,0
1523628381941,-589824,71,-56,-1,-1,0
1523628381941,-589824,71,-56,-1,-1,0
1523628381941,-524288,71,-56,-1,-1,0
1523628381986,-524288,71,-56,-1,-1,0
1523628381986,-589824,71,-56,-1,-1,0
1523628381986,-589824,71,-56,-1,-1,0
1523628381986,-589824,71,-56,-1,-1,0
1523628381986,-655360,71,-56,-1,-1,0
1523628382021,-720896,71,-56,-1,-1,0
1523628382021,-720896,71,-56,-1,-1,0
1523628382021,-786432,71,-56,-1,-1,0
1523628382021,-720896,71,-56,-1,-1,0
1523628382021,-720896,71,-56,-1,-1,0
1523628382061,-786432,71,-56,-1,-1,0
1523628382061,-786432,71,-56,-1,-1,0
1523628382061,-786432,71,-56,-1,-1,0
1523628382061,-851968,71,-56,-1,-1,0
1523628382061,-917504,71,-56,-1,-1,0
1523628382101,-917504,71,-56,-1,-1,0
1523628382101,-851968,71,-56,-1,-1,0
1523628382101,-851968,71,-56,-1,-1,0
1523628382101,-851968,71,-56,-1,-1,0
1523628382101,-851968,71,-56,-1,-1,0
1523628382142,-851968,71,-56,-1,-1,0
1523628382142,-851968,71,-56,-1,-1,0
1523628382142,-851968,71,-56,-1,-1,0
1523628382142,-917504,71,-56,-1,-1,0
1523628382142,-917504,71,-56,-1,-1,0
1523628382181,-917504,71,-56,-1,-1,0
1523628382181,-983040,71,-56,-1,-1,0
1523628382181,-983040,71,-56,-1,-1,0
1523628382181,-983040,71,-56,-1,-1,0
1523628382181,-851968,71,-56,-1,-1,0
1523628382222,-786432,71,-56,-1,-1,0
1523628382222,-786432,71,-56,-1,-1,0
1523628382222,-720896,71,-56,-1,-1,0
1523628382222,-655360,71,-56,-1,-1,0
1523628382222,-655360,71,-56,-1,-1,0
1523628382263,-786432,71,-56,-1,-1,0
1523628382263,-917504,71,-56,-1,-1,0
1523628382263,-1048576,71,-56,-1,-1,0
1523628382263,-1048576,71,-56,-1,-1,0
1523628382263,-1048576,71,-56,-1,-1,0
1523628382306,-1048576,71,-56,-1,-1,0
1523628382306,-1048576,71,-56,-1,-1,0
1523628382306,-1114112,71,-56,-1,-1,0
1523628382306,-1310720,71,-56,-1,-1,0
1523628382306,-1572864,71,-56,-1,-1,0
1523628382341,-589824,71,-56,-1,-1,0
1523628382341,2621440,71,-56,-1,-1,0
1523628382341,7864320,71,-56,-1,-1,0
1523628382341,12320768,71,-56,-1,-1,0
1523628382341,11534336,71,-56,-1,-1,0
1523628382381,5767168,71,-56,-1,-1,0
1523628382381,1048576,71,-56,-1,-1,0
1523628382381,-65536,71,-56,-1,-1,0
1523628382381,-262144,71,-56,-1,-1,0
1523628382381,-458752,71,-56,-1,-1,0
1523628382421,-655360,71,-56,-1,-1,0
1523628382421,-655360,71,-56,-1,-1,0
1523628382421,-655360,71,-56,-1,-1,0
1523628382421,-589824,71,-56,-1,-1,0
1523628382421,-589824,71,-56,-1,-1,0
1523628382461,-524288,71,-56,-1,-1,0
1523628382461,-458752,71,-56,-1,-1,0
1523628382461,-393216,71,-56,-1,-1,0
1523628382461,-327680,71,-56,-1,-1,0
1523628382461,-196608,71,-56,-1,-1,0
1523628382502,-65536,71,-56,-1,-1,0
1523628382502,0,71,-56,-1,-1,0
1523628382502,196608,71,-56,-1,-1,0
1523628382502,458752,71,-56,-1,-1,0
1523628382502,720896,71,-56,-1,-1,0
1523628382541,983040,71,-56,-1,-1,0
1523628382541,1376256,71,-56,-1,-1,0
1523628382541,1638400,71,-56,-1,-1,0
1523628382541,1966080,71,-56,-1,-1,0
1523628382541,2162688,71,-56,-1,-1,0
1523628382580,2228224,71,-56,-1,-1,0
1523628382580,2228224,71,-56,-1,-1,0
1523628382580,2097152,71,-56,-1,-1,0
1523628382580,1900544,71,-56,-1,-1,0
1523628382580,1572864,71,-56,-1,-1,0
1523628382621,1048576,71,-56,-1,-1,0
1523628382621,524288,71,-56,-1,-1,0
1523628382621,0,71,-56,-1,-1,0
1523628382621,-262144,71,-56,-1,-1,0
1523628382621,-524288,71,-56,-1,-1,0
1523628382661,-720896,71,-56,-1,-1,0
1523628382661,-851968,71,-56,-1,-1,0
1523628382661,-917504,71,-56,-1,-1,0
1523628382661,-917504,71,-56,-1,-1,0
1523628382661,-983040,71,-56,-1,-1,0
1523628382701,-983040,71,-56,-1,-1,0
1523628382701,-917504,71,-56,-1,-1,0
1523628382701,-917504,71,-56,-1,-1,0
1523628382701,-917504,71,-56,-1,-1,0
1523628382701,-851968,71,-56,-1,-1,0
1523628382741,-786432,71,-56,-1,-1,0
1523628382741,-720896,71,-56,-1,-1,0
1523628382741,-655360,71,-56,-1,-1,0
1523628382741,-589824,71,-56,-1,-1,0
1523628382741,-524288,71,-56,-1,-1,0
1523628382781,-524288,71,-56,-1,-1,0
1523628382781,-524288,71,-56,-1,-1,0
1523628382781,-589824,71,-56,-1,-1,0
1523628382781,-655360,71,-56,-1,-1,0
1523628382781,-655360,71,-56,-1,-1,0
1523628382821,-589824,71,-56,-1,-1,0
1523628382821,-655360,71,-56,-1,-1,0
1523628382821,-655360,71,-56,-1,-1,0
1523628382821,-720896,71,-56,-1,-1,0
1523628382821,-786432,71,-56,-1,-1,0
1523628382862,-786432,71,-56,-1,-1,0
1523628382862,-786432,71,-56,-1,-1,0
1523628382862,-786432,71,-56,-1,-1,0
1523628382862,-786432,71,-56,-1,-1,0
1523628382862,-786432,71,-56,-1,-1,0
1523628382903,-786432,71,-56,-1,-1,0
1523628382903,-851968,71,-56,-1,-1,0
1523628382903,-851968,71,-56,-1,-1,0
1523628382903,-851968,71,-56,-1,-1,0
1523628382903,-917504,71,-56,-1,-1,0
1523628382941,-917504,71,-56,-1,-1,0
1523628382941,-983040,71,-56,-1,-1,0
1523628382941,-917504,71,-56,-1,-1,0
1523628382941,-917504,71,-56,-1,-1,0
1523628382941,-917504,71,-56,-1,-1,0
1523628382983,-983040,71,-56,-1,-1,0
1523628382983,-983040,71,-56,-1,-1,0
1523628382983,-983040,71,-56,-1,-1,0
1523628382983,-983040,71,-56,-1,-1,0
1523628382983,-983040,71,-56,-1,-1,0
1523628383021,-917504,71,-56,-1,-1,0
1523628383021,-917504,71,-56,-1,-1,0
1523628383021,-917504,71,-56,-1,-1,0
1523628383021,-851968,71,-56,-1,-1,0
1523628383021,-720896,71,-56,-1,-1,0
1523628383061,-720896,71,-56,-1,-1,0
1523628383061,-786432,71,-56,-1,-1,0
1523628383061,-917504,71,-56,-1,-1,0
1523628383061,-983040,71,-56,-1,-1,0
1523628383061,-1114112,71,-56,-1,-1,0
1523628383101,-1179648,71,-56,-1,-1,0
1523628383101,-1179648,71,-56,-1,-1,0
1523628383101,-1245184,71,-56,-1,-1,0
1523628383101,-1245184,71,-56,-1,-1,0
1523628383101,-1376256,71,-56,-1,-1,0
1523628383141,-1703936,71,-56,-1,-1,0
1523628383141,-1835008,71,-56,-1,-1,0
1523628383141,-327680,71,-56,-1,-1,0
1523628383141,3866624,71,-56,-1,-1,0
1523628383141,10092544,71,-56,-1,-1,0
1523628383181,14090240,71,-56,-1,-1,0
1523628383181,11599872,71,-56,-1,-1,0
1523628383181,5046272,71,-56,-1,-1,0
1523628383181,720896,71,-56,-1,-1,0
1523628383181,-131072,71,-56,-1,-1,0
1523628383221,-393216,71,-56,-1,-1,0
1523628383221,-655360,71,-56,-1,-1,0
1523628383221,-786432,71,-56,-1,-1,0
1523628383221,-851968,71,-56,-1,-1,0
1523628383221,-786432,71,-56,-1,-1,0
1523628383261,-786432,71,-56,-1,-1,0
1523628383261,-786432,71,-56,-1,-1,0
1523628383261,-786432,71,-56,-1,-1,0
1523628383261,-720896,71,-56,-1,-1,0
1523628383261,-655360,71,-56,-1,-1,0
1523628383301,-589824,71,-56,-1,-1,0
1523628383301,-458752,71,-56,-1,-1,0
1523628383301,-327680,71,-56,-1,-1,0
1523628383301,-131072,71,-56,-1,-1,0
1523628383301,0,71,-56,-1,-1,0
1523628383341,196608,71,-56,-1,-1,0
1523628383341,458752,71,-56,-1,-1,0
1523628383341,720896,71,-56,-1,-1,0
1523628383341,983040,71,-56,-1,-1,0
1523628383341,1310720,71,-56,-1,-1,0
1523628383381,1638400,71,-56,-1,-1,0
1523628383381,1835008,71,-56,-1,-1,0
1523628383381,1966080,71,-56,-1,-1,0
1523628383381,1966080,71,-56,-1,-1,0
1523628383381,1835008,71,-56,-1,-1,0
1523628383421,1572864,71,-56,-1,-1,0
1523628383421,1179648,71,-56,-1,-1,0
1523628383421,720896,71,-56,-1,-1,0
1523628383421,196608,71,-56,-1,-1,0
1523628383421,-131072,71,-56,-1,-1,0
1523628383461,-393216,71,-56,-1,-1,0
1523628383461,-655360,71,-56,-1,-1,0
1523628383461,-786432,71,-56,-1,-1,0
1523628383461,-851968,71,-56,-1,-1,0
1523628383461,-917504,71,-56,-1,-1,0
1523628383501,-983040,71,-56,-1,-1,0
1523628383501,-983040,71,-56,-1,-1,0
1523628383501,-983040,71,-56,-1,-1,0
1523628383501,-917504,71,-56,-1,-1,0
1523628383501,-917504,71,-56,-1,-1,0
1523628383543,-917504,71,-56,-1,-1,0
1523628383543,-917504,71,-56,-1,-1,0
1523628383543,-851968,71,-56,-1,-1,0
1523628383543,-786432,71,-56,-1,-1,0
1523628383543,-720896,71,-56,-1,-1,0
1523628383581,-655360,71,-56,-1,-1,0
1523628383581,-655360,71,-56,-1,-1,0
1523628383581,-720896,71,-56,-1,-1,0
1523628383581,-720896,71,-56,-1,-1,0
1523628383581,-655360,71,-56,-1,-1,0
1523628383621,-655360,71,-56,-1,-1,0
1523628383621,-655360,71,-56,-1,-1,0
1523628383621,-655360,71,-56,-1,-1,0
1523628383621,-655360,71,-56,-1,-1,0
1523628383621,-655360,71,-56,-1,-1,0
1523628383659,-655360,71,-56,-1,-1,0
1523628383659,-655360,71,-56,-1,-1,0
1523628383659,-720896,71,-56,-1,-1,0
1523628383659,-720896,71,-56,-1,-1,0
1523628383659,-786432,71,-56,-1,-1,0
1523628383701,-851968,71,-56,-1,-1,0
1523628383701,-851968,71,-56,-1,-1,0
1523628383701,-786432,71,-56,-1,-1,0
1523628383701,-851968,71,-56,-1,-1,0
1523628383701,-851968,71,-56,-1,-1,0
1523628383739,-851968,71,-56,-1,-1,0
1523628383739,-851968,71,-56,-1,-1,0
1523628383739,-917504,71,-56,-1,-1,0
1523628383739,-917504,71,-56,-1,-1,0
1523628383739,-851968,71,-56,-1,-1,0
1523628383779,-851968,71,-56,-1,-1,0
1523628383779,-851968,71,-56,-1,-1,0
1523628383779,-786432,71,-56,-1,-1,0
1523628383779,-786432,71,-56,-1,-1,0
1523628383779,-786432,71,-56,-1,-1,0
1523628383819,-786432,71,-56,-1,-1,0
1523628383819,-851968,71,-56,-1,-1,0
1523628383819,-851968,71,-56,-1,-1,0
1523628383819,-851968,71,-56,-1,-1,0
1523628383819,-851968,71,-56,-1,-1,0
1523628383861,-786432,71,-56,-1,-1,0
1523628383861,-786432,71,-56,-1,-1,0
1523628383861,-786432,71,-56,-1,-1,0
1523628383861,-720896,71,-56,-1,-1,0
1523628383861,-655360,71,-56,-1,-1,0
1523628383899,-589824,71,-56,-1,-1,0
1523628383899,-524288,71,-56,-1,-1,0
1523628383899,-458752,71,-56,-1,-1,0
1523628383899,-458752,71,-56,-1,-1,0
1523628383899,-589824,71,-56,-1,-1,0
1523628383943,-655360,71,-56,-1,-1,0
1523628383943,-720896,71,-56,-1,-1,0
1523628383943,-786432,71,-56,-1,-1,0
1523628383943,-851968,71,-56,-1,-1,0
1523628383943,-786432,71,-56,-1,-1,0
1523628383979,-786432,71,-56,-1,-1,0
1523628383979,-786432,71,-56,-1,-1,0
1523628383979,-983040,71,-56,-1,-1,0
1523628383979,-1310720,71,-56,-1,-1,0
1523628383979,-851968,71,-56,-1,-1,0
1523628384021,1638400,71,-56,-1,-1,0
1523628384021,6619136,71,-56,-1,-1,0
1523628384021,11993088,71,-56,-1,-1,0
1523628384021,13107200,71,-56,-1,-1,0
1523628384021,8323072,71,-56,-1,-1,0
1523628384061,2752512,71,-56,-1,-1,0
1523628384061,393216,71,-56,-1,-1,0
1523628384061,0,71,-56,-1,-1,0
1523628384061,-262144,71,-56,-1,-1,0
1523628384061,-524288,71,-56,-1,-1,0
1523628384101,-458752,71,-56,-1,-1,0
1523628384101,-458752,71,-56,-1,-1,0
1523628384101,-458752,71,-56,-1,-1,0
1523628384101,-458752,71,-56,-1,-1,0
1523628384101,-458752,71,-56,-1,-1,0
1523628384139,-458752,70,-56,-1,-1,0
1523628384139,-393216,70,-56,-1,-1,0
1523628384139,-327680,70,-56,-1,-1,0
1523628384139,-262144,70,-56,-1,-1,0
1523628384139,-196608,70,-56,-1,-1,0
1523628384181,0,70,-56,-1,-1,0
1523628384181,65536,70,-56,-1,-1,0
1523628384181,262144,70,-56,-1,-1,0
1523628384181,458752,70,-56,-1,-1,0
1523628384181,720896,70,-56,-1,-1,0
1523628384219,983040,70,-56,-1,-1,0
1523628384219,1245184,70,-56,-1,-1,0
1523628384219,1572864,70,-56,-1,-1,0
1523628384219,1900544,70,-56,-1,-1,0
1523628384219,2097152,70,-56,-1,-1,0
1523628384261,2228224,70,-56,-1,-1,0
1523628384261,2228224,70,-56,-1,-1,0
1523628384261,2097152,70,-56,-1,-1,0
1523628384261,1769472,70,-56,-1,-1,0
1523628384261,1245184,70,-56,-1,-1,0
1523628384299,720896,70,-56,-1,-1,0
1523628384299,262144,70,-56,-1,-1,0
1523628384299,-65536,70,-56,-1,-1,0
1523628384299,-327680,70,-56,-1,-1,0
1523628384299,-524288,70,-56,-1,-1,0
1523628384341,-720896,70,-56,-1,-1,0
1523628384341,-786432,70,-56,-1,-1,0
1523628384341,-786432,70,-56,-1,-1,0
1523628384341,-851968,70,-56,-1,-1,0
1523628384341,-917504,70,-56,-1,-1,0
1523628384379,-917504,70,-56,-1,-1,0
1523628384379,-917504,70,-56,-1,-1,0
1523628384379,-851968,70,-56,-1,-1,0
1523628384379,-851968,70,-56,-1,-1,0
1523628384379,-851968,70,-56,-1,-1,0
1523628384421,-851968,70,-56,-1,-1,0
1523628384421,-851968,70,-56,-1,-1,0
1523628384421,-786432,70,-56,-1,-1,0
1523628384421,-786432,70,-56,-1,-1,0
1523628384421,-786432,70,-56,-1,-1,0
1523628384459,-786432,70,-56,-1,-1,0
1523628384459,-720896,70,-56,-1,-1,0
1523628384459,-720896,70,-56,-1,-1,0
1523628384459,-720896,70,-56,-1,-1,0
1523628384459,-720896,70,-56,-1,-1,0
1523628384501,-655360,70,-56,-1,-1,0
1523628384501,-655360,70,-56,-1,-1,0
1523628384501,-720896,70,-56,-1,-1,0
1523628384501,-786432,70,-56,-1,-1,0
1523628384501,-786432,70,-56,-1,-1,0
1523628384539,-786432,70,-56,-1,-1,0
1523628384539,-851968,70,-56,-1,-1,0
1523628384539,-917504,70,-56,-1,-1,0
1523628384539,-983040,70,-56,-1,-1,0
1523628384539,-983040,70,-56,-1,-1,0
1523628384581,-983040,70,-56,-1,-1,0
1523628384581,-983040,70,-56,-1,-1,0
1523628384581,-983040,70,-56,-1,-1,0
1523628384581,-1048576,70,-56,-1,-1,0
1523628384581,-1114112,70,-56,-1,-1,0
1523628384619,-1048576,70,-56,-1,-1,0
1523628384619,-1048576,70,-56,-1,-1,0
1523628384619,-1048576,70,-56,-1,-1,0
1523628384619,-1114112,70,-56,-1,-1,0
1523628384619,-1114112,70,-56,-1,-1,0
1523628384661,-1114112,70,-56,-1,-1,0
1523628384661,-1114112,70,-56,-1,-1,0
1523628384661,-1114112,70,-56,-1,-1,0
1523628384661,-1114112,70,-56,-1,-1,0
1523628384661,-1114112,70,-56,-1,-1,0
1523628384699,-1114112,70,-56,-1,-1,0
1523628384699,-1114112,70,-56,-1,-1,0
1523628384699,-1048576,70,-56,-1,-1,0
1523628384699,-1048576,70,-56,-1,-1,0
1523628384699,-983040,70,-56,-1,-1,0
1523628384741,-983040,70,-56,-1,-1,0
1523628384741,-917504,70,-56,-1,-1,0
1523628384741,-786432,70,-56,-1,-1,0
1523628384741,-851968,70,-56,-1,-1,0
1523628384741,-917504,70,-56,-1,-1,0
1523628384779,-1048576,70,-56,-1,-1,0
1523628384779,-1048576,70,-56,-1,-1,0
1523628384779,-1048576,70,-56,-1,-1,0
1523628384779,-983040,70,-56,-1,-1,0
1523628384779,-983040,70,-56,-1,-1,0
1523628384821,-983040,70,-56,-1,-1,0
1523628384821,-983040,70,-56,-1,-1,0
1523628384821,-1179648,70,-56,-1,-1,0
1523628384821,-1441792,70,-56,-1,-1,0
1523628384821,-524288,70,-56,-1,-1,0
1523628384859,2555904,70,-56,-1,-1,0
1523628384859,7536640,70,-56,-1,-1,0
1523628384859,11993088,70,-56,-1,-1,0
1523628384859,11599872,70,-56,-1,-1,0
1523628384859,6225920,70,-56,-1,-1,0
1523628384900,1507328,70,-56,-1,-1,0
1523628384900,131072,70,-56,-1,-1,0
1523628384900,0,70,-56,-1,-1,0
1523628384900,-131072,70,-56,-1,-1,0
1523628384900,-262144,70,-56,-1,-1,0
1523628384939,-327680,70,-56,-1,-1,0
1523628384939,-327680,70,-56,-1,-1,0
1523628384939,-327680,70,-56,-1,-1,0
1523628384939,-262144,70,-56,-1,-1,0
1523628384939,-131072,70,-56,-1,-1,0
1523628384981,-131072,70,-56,-1,-1,0
1523628384981,0,70,-56,-1,-1,0
1523628384981,0,70,-56,-1,-1,0
1523628384981,196608,70,-56,-1,-1,0
1523628384981,262144,70,-56,-1,-1,0
1523628385019,458752,70,-56,-1,-1,0
1523628385019,655360,70,-56,-1,-1,0
1523628385019,917504,70,-56,-1,-1,0
1523628385019,1114112,70,-56,-1,-1,0
1523628385019,1376256,70,-56,-1,-1,0
1523628385061,1703936,70,-56,-1,-1,0
1523628385061,2031616,70,-56,-1,-1,0
1523628385061,2359296,70,-56,-1,-1,0
1523628385061,2555904,70,-56,-1,-1,0
1523628385061,2490368,70,-56,-1,-1,0
1523628385099,2424832,70,-56,-1,-1,0
1523628385099,2228224,70,-56,-1,-1,0
1523628385099,1835008,70,-56,-1,-1,0
1523628385099,1179648,70,-56,-1,-1,0
1523628385099,589824,70,-56,-1,-1,0
1523628385141,131072,70,-56,-1,-1,0
1523628385141,-262144,70,-56,-1,-1,0
1523628385141,-720896,70,-56,-1,-1,0
1523628385141,-1048576,70,-56,-1,-1,0
1523628385141,-1376256,70,-56,-1,-1,0
1523628385179,-1507328,70,-56,-1,-1,0
1523628385179,-1507328,70,-56,-1,-1,0
1523628385179,-1441792,70,-56,-1,-1,0
1523628385179,-1441792,70,-56,-1,-1,0
1523628385179,-1376256,70,-56,-1,-1,0
1523628385221,-1310720,70,-56,-1,-1,0
1523628385221,-1179648,70,-56,-1,-1,0
1523628385221,-1245184,70,-56,-1,-1,0
1523628385221,-1376256,70,-56,-1,-1,0
1523628385221,-1245184,70,-56,-1,-1,0
1523628385259,-1114112,70,-56,-1,-1,0
1523628385259,-1114112,70,-56,-1,-1,0
1523628385259,-1245184,70,-56,-1,-1,0
1523628385259,-1048576,70,-56,-1,-1,0
1523628385259,-917504,70,-56,-1,-1,0
1523628385299,-851968,70,-56,-1,-1,0
1523628385299,-589824,70,-56,-1,-1,0
1523628385299,-589824,70,-56,-1,-1,0
1523628385299,-851968,70,-56,-1,-1,0
1523628385299,-1114112,70,-56,-1,-1,0
1523628385339,-720896,70,-56,-1,-1,0
1523628385339,-393216,70,-56,-1,-1,0
1523628385339,-458752,70,-56,-1,-1,0
1523628385339,-983040,70,-56,-1,-1,0
1523628385339,-1114112,70,-56,-1,-1,0
1523628385379,-1245184,70,-56,-1,-1,0
1523628385379,-917504,70,-56,-1,-1,0
1523628385379,-589824,70,-56,-1,-1,0
1523628385379,-393216,70,-56,-1,-1,0
1523628385379,-262144,70,-56,-1,-1,0
1523628385419,0,70,-56,-1,-1,0
1523628385419,-196608,70,-56,-1,-1,0
1523628385419,-1048576,70,-56,-1,-1,0
1523628385419,-1507328,70,-56,-1,-1,0
1523628385419,-1376256,70,-56,-1,-1,0
1523628385461,-917504,70,-56,-1,-1,0
1523628385461,-655360,70,-56,-1,-1,0
1523628385461,-655360,70,-56,-1,-1,0
1523628385461,-655360,70,-56,-1,-1,0
1523628385461,-393216,70,-56,-1,-1,0
1523628385499,-131072,70,-56,-1,-1,0
1523628385499,-65536,70,-56,-1,-1,0
1523628385499,-262144,70,-56,-1,-1,0
1523628385499,-458752,70,-56,-1,-1,0
1523628385499,-327680,70,-56,-1,-1,0
1523628385539,-589824,70,-56,-1,-1,0
1523628385539,-851968,70,-56,-1,-1,0
1523628385539,-524288,70,-56,-1,-1,0
1523628385539,65536,70,-56,-1,-1,0
1523628385539,196608,70,-56,-1,-1,0
1523628385579,131072,70,-56,-1,-1,0
1523628385579,0,70,-56,-1,-1,0
1523628385579,-327680,70,-56,-1,-1,0
1523628385579,-917504,70,-56,-1,-1,0
1523628385579,-983040,70,-56,-1,-1,0
1523628385619,-917504,70,-56,-1,-1,0
1523628385619,-393216,70,-56,-1,-1,0
1523628385619,131072,70,-56,-1,-1,0
1523628385619,327680,70,-56,-1,-1,0
1523628385619,0,70,-56,-1,-1,0
1523628385659,-458752,70,-56,-1,-1,0
1523628385659,-917504,70,-56,-1,-1,0
1523628385659,-1245184,70,-56,-1,-1,0
1523628385659,-1245184,70,-56,-1,-1,0
1523628385659,-1114112,70,-56,-1,-1,0
1523628385699,-1441792,70,-56,-1,-1,0
1523628385699,-1638400,70,-56,-1,-1,0
1523628385699,-1638400,70,-56,-1,-1,0
1523628385699,-1769472,70,-56,-1,-1,0
1523628385699,-1114112,70,-56,-1,-1,0
1523628385739,1114112,70,-56,-1,-1,0
1523628385739,6356992,70,-56,-1,-1,0
1523628385739,12845056,70,-56,-1,-1,0
1523628385739,15663104,70,-56,-1,-1,0
1523628385739,11075584,70,-56,-1,-1,0
1523628385779,4259840,70,-56,-1,-1,0
1523628385779,851968,70,-56,-1,-1,0
1523628385779,196608,70,-56,-1,-1,0
1523628385779,-196608,70,-56,-1,-1,0
1523628385779,-524288,70,-56,-1,-1,0
1523628385821,-524288,70,-56,-1,-1,0
1523628385821,-524288,70,-56,-1,-1,0
1523628385821,-458752,70,-56,-1,-1,0
1523628385821,-458752,70,-56,-1,-1,0
1523628385821,-458752,70,-56,-1,-1,0
1523628385859,-458752,70,-56,-1,-1,0
1523628385859,-393216,70,-56,-1,-1,0
1523628385859,-393216,70,-56,-1,-1,0
1523628385859,-327680,70,-56,-1,-1,0
1523628385859,-196608,70,-56,-1,-1,0
1523628385899,-65536,70,-56,-1,-1,0
1523628385899,0,70,-56,-1,-1,0
1523628385899,65536,70,-56,-1,-1,0
1523628385899,458752,70,-56,-1,-1,0
1523628385899,786432,70,-56,-1,-1,0
1523628385939,983040,69,-56,-1,-1,0
1523628385939,1245184,69,-56,-1,-1,0
1523628385939,1638400,69,-56,-1,-1,0
1523628385939,1966080,69,-56,-1,-1,0
1523628385939,2228224,69,-56,-1,-1,0
1523628385979,2359296,69,-56,-1,-1,0
1523628385979,2424832,69,-56,-1,-1,0
1523628385979,2293760,69,-56,-1,-1,0
1523628385979,1966080,69,-56,-1,-1,0
1523628385979,1507328,69,-56,-1,-1,0
1523628386019,917504,69,-56,-1,-1,0
1523628386019,262144,69,-56,-1,-1,0
1523628386019,-196608,69,-56,-1,-1,0
1523628386019,-655360,69,-56,-1,-1,0
1523628386019,-917504,69,-56,-1,-1,0
1523628386059,-983040,69,-56,-1,-1,0
1523628386059,-1048576,69,-56,-1,-1,0
1523628386059,-983040,69,-56,-1,-1,0
1523628386059,-1048576,69,-56,-1,-1,0
1523628386059,-1114112,69,-56,-1,-1,0
1523628386101,-1245184,69,-56,-1,-1,0
1523628386101,-1245184,69,-56,-1,-1,0
1523628386101,-1376256,69,-56,-1,-1,0
1523628386101,-1310720,69,-56,-1,-1,0
1523628386101,-1114112,69,-56,-1,-1,0
1523628386139,-917504,69,-56,-1,-1,0
1523628386139,-786432,69,-56,-1,-1,0
1523628386139,-655360,69,-56,-1,-1,0
1523628386139,-655360,69,-56,-1,-1,0
1523628386139,-786432,69,-56,-1,-1,0
1523628386179,-983040,69,-56,-1,-1,0
1523628386179,-1048576,69,-56,-1,-1,0
1523628386179,-851968,69,-56,-1,-1,0
1523628386179,-720896,69,-56,-1,-1,0
1523628386179,-983040,69,-56,-1,-1,0
1523628386219,-1179648,69,-56,-1,-1,0
1523628386219,-1310720,69,-56,-1,-1,0
1523628386219,-1310720,69,-56,-1,-1,0
1523628386219,-1376256,69,-56,-1,-1,0
1523628386219,-1376256,69,-56,-1,-1,0
1523628386259,-1310720,69,-56,-1,-1,0
1523628386259,-1245184,69,-56,-1,-1,0
1523628386259,-1376256,69,-56,-1,-1,0
1523628386259,-1507328,69,-56,-1,-1,0
1523628386259,-1441792,69,-56,-1,-1,0
1523628386299,-1507328,69,-56,-1,-1,0
1523628386299,-1638400,69,-56,-1,-1,0
1523628386299,-1572864,69,-56,-1,-1,0
1523628386299,-1310720,69,-56,-1,-1,0
1523628386299,-1114112,69,-56,-1,-1,0
1523628386339,-1179648,69,-56,-1,-1,0
1523628386339,-1245184,69,-56,-1,-1,0
1523628386339,-1179648,69,-56,-1,-1,0
1523628386339,-983040,69,-56,-1,-1,0
1523628386339,-851968,69,-56,-1,-1,0
1523628386379,-917504,69,-56,-1,-1,0
1523628386379,-983040,69,-56,-1,-1,0
1523628386379,-983040,69,-56,-1,-1,0
1523628386379,-1048576,69,-56,-1,-1,0
1523628386379,-1048576,69,-56,-1,-1,0
1523628386419,-1048576,69,-56,-1,-1,0
1523628386419,-917504,69,-56,-1,-1,0
1523628386419,-786432,69,-56,-1,-1,0
1523628386419,-786432,69,-56,-1,-1,0
1523628386419,-655360,69,-56,-1,-1,0
1523628386459,-458752,69,-56,-1,-1,0
1523628386459,-458752,69,-56,-1,-1,0
1523628386459,-655360,69,-56,-1,-1,0
1523628386459,-655360,69,-56,-1,-1,0
1523628386459,-589824,69,-56,-1,-1,0
1523628386499,-458752,69,-56,-1,-1,0
1523628386499,-458752,69,-56,-1,-1,0
1523628386499,-458752,69,-56,-1,-1,0
1523628386499,-327680,69,-56,-1,-1,0
1523628386499,-196608,69,-56,-1,-1,0
1523628386539,-262144,69,-56,-1,-1,0
1523628386539,-327680,69,-56,-1,-1,0
1523628386539,-589824,69,-56,-1,-1,0
1523628386539,-786432,69,-56,-1,-1,0
1523628386539,-851968,69,-56,-1,-1,0
1523628386579,-851968,69,-56,-1,-1,0
1523628386579,-786432,69,-56,-1,-1,0
1523628386579,-655360,69,-56,-1,-1,0
1523628386579,-589824,69,-56,-1,-1,0
1523628386579,-720896,69,-56,-1,-1,0
1523628386619,-983040,69,-56,-1,-1,0
1523628386619,-1179648,69,-56,-1,-1,0
1523628386619,196608,69,-56,-1,-1,0
1523628386619,4456448,69,-56,-1,-1,0
1523628386619,10813440,69,-56,-1,-1,0
1523628386659,15269888,69,-56,-1,-1,0
1523628386659,13041664,69,-56,-1,-1,0
1523628386659,6225920,69,-56,-1,-1,0
1523628386659,1310720,69,-56,-1,-1,0
1523628386659,196608,69,-56,-1,-1,0
1523628386699,-196608,69,-56,-1,-1,0
1523628386699,-524288,69,-56,-1,-1,0
1523628386699,-589824,69,-56,-1,-1,0
1523628386699,-524288,69,-56,-1,-1,0
1523628386699,-524288,69,-56,-1,-1,0
1523628386741,-458752,69,-56,-1,-1,0
1523628386741,-458752,69,-56,-1,-1,0
1523628386741,-393216,69,-56,-1,-1,0
1523628386741,-262144,69,-56,-1,-1,0
1523628386741,-196608,69,-56,-1,-1,0
1523628386779,-196608,69,-56,-1,-1,0
1523628386779,-196608,69,-56,-1,-1,0
1523628386779,-65536,69,-56,-1,-1,0
1523628386779,65536,69,-56,-1,-1,0
1523628386779,327680,69,-56,-1,-1,0
1523628386819,589824,69,-56,-1,-1,0
1523628386819,786432,69,-56,-1,-1,0
1523628386819,983040,69,-56,-1,-1,0
1523628386819,1376256,69,-56,-1,-1,0
1523628386819,1703936,69,-56,-1,-1,0
1523628386859,1900544,69,-56,-1,-1,0
1523628386859,2031616,69,-56,-1,-1,0
1523628386859,2293760,69,-56,-1,-1,0
1523628386859,2359296,69,-56,-1,-1,0
1523628386859,2293760,69,-56,-1,-1,0
1523628386900,2162688,69,-56,-1,-1,0
1523628386900,1900544,69,-56,-1,-1,0
1523628386900,1310720,69,-56,-1,-1,0
1523628386900,720896,69,-56,-1,-1,0
1523628386900,196608,69,-56,-1,-1,0
1523628386939,-131072,69,-56,-1,-1,0
1523628386939,-458752,69,-56,-1,-1,0
1523628386939,-524288,69,-56,-1,-1,0
1523628386939,-589824,69,-56,-1,-1,0
1523628386939,-655360,69,-56,-1,-1,0
1523628386979,-655360,69,-56,-1,-1,0
1523628386979,-589824,69,-56,-1,-1,0
1523628386979,-524288,69,-56,-1,-1,0
1523628386979,-458752,69,-56,-1,-1,0
1523628386979,-524288,69,-56,-1,-1,0
1523628387019,-524288,69,-56,-1,-1,0
1523628387019,-458752,69,-56,-1,-1,0
1523628387019,-327680,69,-56,-1,-1,0
1523628387019,-196608,69,-56,-1,-1,0
1523628387019,-65536,69,-56,-1,-1,0
1523628387059,0,69,-56,-1,-1,0
1523628387059,131072,69,-56,-1,-1,0
1523628387059,131072,69,-56,-1,-1,0
1523628387059,131072,69,-56,-1,-1,0
1523628387059,0,69,-56,-1,-1,0
1523628387099,0,69,-56,-1,-1,0
1523628387099,65536,69,-56,-1,-1,0
1523628387099,65536,69,-56,-1,-1,0
1523628387099,0,69,-56,-1,-1,0
1523628387099,0,69,-56,-1,-1,0
1523628387139,0,69,-56,-1,-1,0
1523628387139,0,69,-56,-1,-1,0
1523628387139,0,69,-56,-1,-1,0
1523628387139,0,69,-56,-1,-1,0
1523628387139,-131072,69,-56,-1,-1,0
1523628387179,0,69,-56,-1,-1,0
1523628387179,0,69,-56,-1,-1,0
1523628387179,-131072,69,-56,-1,-1,0
1523628387179,-327680,69,-56,-1,-1,0
1523628387179,-327680,69,-56,-1,-1,0
1523628387219,-262144,69,-56,-1,-1,0
1523628387219,-327680,69,-56,-1,-1,0
1523628387219,-262144,69,-56,-1,-1,0
1523628387219,-327680,69,-56,-1,-1,0
1523628387219,-589824,69,-56,-1,-1,0
1523628387259,-655360,69,-56,-1,-1,0
1523628387259,-655360,69,-56,-1,-1,0
1523628387259,-589824,69,-56,-1,-1,0
1523628387259,-655360,69,-56,-1,-1,0
1523628387259,-458752,69,-56,-1,-1,0
1523628387299,-262144,69,-56,-1,-1,0
1523628387299,-196608,69,-56,-1,-1,0
1523628387299,-262144,69,-56,-1,-1,0
1523628387299,-458752,69,-56,-1,-1,0
1523628387299,-327680,69,-56,-1,-1,0
1523628387339,-327680,69,-56,-1,-1,0
1523628387339,-327680,69,-56,-1,-1,0
1523628387339,-262144,69,-56,-1,-1,0
1523628387339,-327680,69,-56,-1,-1,0
1523628387339,-524288,69,-56,-1,-1,0
1523628387380,-655360,69,-56,-1,-1,0
1523628387380,-524288,69,-56,-1,-1,0
1523628387380,-327680,69,-56,-1,-1,0
1523628387380,65536,69,-56,-1,-1,0
1523628387380,327680,69,-56,-1,-1,0
1523628387419,131072,69,-56,-1,-1,0
1523628387419,0,69,-56,-1,-1,0
1523628387419,0,69,-56,-1,-1,0
1523628387419,-65536,69,-56,-1,-1,0
1523628387419,-196608,69,-56,-1,-1,0
1523628387459,-262144,69,-56,-1,-1,0
1523628387459,-262144,69,-56,-1,-1,0
1523628387459,-131072,69,-56,-1,-1,0
1523628387459,-196608,69,-56,-1,-1,0
1523628387459,-196608,69,-56,-1,-1,0
1523628387499,-131072,69,-56,-1,-1,0
1523628387499,-262144,69,-56,-1,-1,0
1523628387499,-589824,69,-56,-1,-1,0
1523628387499,196608,69,-56,-1,-1,0
1523628387499,3145728,69,-56,-1,-1,0
1523628387539,8126464,69,-56,-1,-1,0
1523628387539,12451840,69,-56,-1,-1,0
1523628387539,11993088,69,-56,-1,-1,0
1523628387539,6815744,69,-56,-1,-1,0
1523628387539,2162688,69,-56,-1,-1,0
1523628387579,524288,69,-56,-1,-1,0
1523628387579,262144,69,-56,-1,-1,0
1523628387579,0,69,-56,-1,-1,0
1523628387579,-131072,69,-56,-1,-1,0
1523628387579,-196608,69,-56,-1,-1,0
1523628387619,-196608,69,-56,-1,-1,0
1523628387619,-131072,69,-56,-1,-1,0
1523628387619,0,69,-56,-1,-1,0
1523628387619,0,69,-56,-1,-1,0
1523628387619,0,69,-56,-1,-1,0
1523628387659,65536,69,-56,-1,-1,0
1523628387659,131072,69,-56,-1,-1,0
1523628387659,131072,69,-56,-1,-1,0
1523628387659,131072,69,-56,-1,-1,0
1523628387659,262144,69,-56,-1,-1,0
1523628387701,327680,69,-56,-1,-1,0
1523628387701,458752,69,-56,-1,-1,0
1523628387701,589824,69,-56,-1,-1,0
1523628387701,786432,69,-56,-1,-1,0
1523628387701,983040,69,-56,-1,-1,0
1523628387739,1245184,69,-56,-1,-1,0
1523628387739,1441792,69,-56,-1,-1,0
1523628387739,1572864,69,-56,-1,-1,0
1523628387739,1703936,69,-56,-1,-1,0
1523628387739,1835008,69,-56,-1,-1,0
1523628387780,1769472,69,-56,-1,-1,0
1523628387780,1638400,69,-56,-1,-1,0
1523628387780,1376256,69,-56,-1,-1,0
1523628387780,1114112,69,-56,-1,-1,0
1523628387780,720896,69,-56,-1,-1,0
1523628387819,327680,69,-56,-1,-1,0
1523628387819,0,69,-56,-1,-1,0
1523628387819,-262144,69,-56,-1,-1,0
1523628387819,-393216,69,-56,-1,-1,0
1523628387819,-524288,69,-56,-1,-1,0
1523628387859,-655360,69,-56,-1,-1,0
1523628387859,-786432,69,-56,-1,-1,0
1523628387859,-786432,69,-56,-1,-1,0
1523628387859,-851968,69,-56,-1,-1,0
1523628387859,-851968,69,-56,-1,-1,0
1523628387900,-917504,69,-56,-1,-1,0
1523628387900,-917504,69,-56,-1,-1,0
1523628387900,-1048576,69,-56,-1,-1,0
1523628387900,-1114112,69,-56,-1,-1,0
1523628387900,-1114112,69,-56,-1,-1,0
1523628387939,-1114112,69,-56,-1,-1,0
1523628387939,-1114112,69,-56,-1,-1,0
1523628387939,-1048576,69,-56,-1,-1,0
1523628387939,-917504,69,-56,-1,-1,0
1523628387939,-851968,69,-56,-1,-1,0
1523628387979,-786432,69,-56,-1,-1,0
1523628387979,-720896,69,-56,-1,-1,0
1523628387979,-589824,69,-56,-1,-1,0
1523628387979,-589824,69,-56,-1,-1,0
1523628387979,-655360,69,-56,-1,-1,0
1523628388020,-720896,69,-56,-1,-1,0
1523628388020,-786432,69,-56,-1,-1,0
1523628388020,-720896,69,-56,-1,-1,0
1523628388020,-720896,69,-56,-1,-1,0
1523628388020,-786432,69,-56,-1,-1,0
1523628388059,-851968,69,-56,-1,-1,0
1523628388059,-851968,69,-56,-1,-1,0
1523628388059,-786432,69,-56,-1,-1,0
1523628388059,-786432,69,-56,-1,-1,0
1523628388059,-786432,69,-56,-1,-1,0
1523628388099,-720896,69,-56,-1,-1,0
1523628388099,-720896,69,-56,-1,-1,0
1523628388099,-786432,69,-56,-1,-1,0
1523628388099,-786432,69,-56,-1,-1,0
1523628388099,-786432,69,-56,-1,-1,0
1523628388139,-851968,69,-56,-1,-1,0
1523628388139,-917504,69,-56,-1,-1,0
1523628388139,-851968,69,-56,-1,-1,0
1523628388139,-786432,69,-56,-1,-1,0
1523628388139,-851968,69,-56,-1,-1,0
1523628388179,-983040,69,-56,-1,-1,0
1523628388179,-983040,69,-56,-1,-1,0
1523628388179,-1048576,69,-56,-1,-1,0
1523628388179,-1048576,69,-56,-1,-1,0
1523628388179,-1114112,69,-56,-1,-1,0
1523628388219,-1179648,69,-56,-1,-1,0
1523628388219,-1179648,69,-56,-1,-1,0
1523628388219,-1114112,69,-56,-1,-1,0
1523628388219,-1114112,69,-56,-1,-1,0
1523628388219,-983040,69,-56,-1,-1,0
1523628388259,-983040,69,-56,-1,-1,0
1523628388259,-917504,69,-56,-1,-1,0
1523628388259,-917504,69,-56,-1,-1,0
1523628388259,-983040,69,-56,-1,-1,0
1523628388259,-1114112,69,-56,-1,-1,0
1523628388299,-1245184,69,-56,-1,-1,0
1523628388299,-1310720,69,-56,-1,-1,0
1523628388299,-1441792,69,-56,-1,-1,0
1523628388299,-1376256,69,-56,-1,-1,0
1523628388299,-1310720,69,-56,-1,-1,0
1523628388339,-1245184,69,-56,-1,-1,0
1523628388339,-1179648,69,-56,-1,-1,0
1523628388339,-1310720,69,-56,-1,-1,0
1523628388339,-1638400,69,-56,-1,-1,0
1523628388339,-786432,69,-56,-1,-1,0
1523628388379,2228224,69,-56,-1,-1,0
1523628388379,7143424,69,-56,-1,-1,0
1523628388379,11796480,69,-56,-1,-1,0
1523628388379,11796480,69,-56,-1,-1,0
1523628388379,6488064,69,-56,-1,-1,0
1523628388419,1376256,69,-56,-1,-1,0
1523628388419,-196608,69,-56,-1,-1,0
1523628388419,-393216,69,-56,-1,-1,0
1523628388419,-589824,69,-56,-1,-1,0
1523628388419,-786432,69,-56,-1,-1,0
1523628388459,-851968,69,-56,-1,-1,0
1523628388459,-851968,69,-56,-1,-1,0
1523628388459,-720896,69,-56,-1,-1,0
1523628388459,-720896,69,-56,-1,-1,0
1523628388459,-655360,69,-56,-1,-1,0
1523628388499,-524288,70,-56,-1,-1,0
1523628388499,-327680,70,-56,-1,-1,0
1523628388499,-131072,70,-56,-1,-1,0
1523628388499,0,70,-56,-1,-1,0
1523628388499,196608,70,-56,-1,-1,0
1523628388539,458752,70,-56,-1,-1,0
1523628388539,589824,70,-56,-1,-1,0
1523628388539,786432,70,-56,-1,-1,0
1523628388539,983040,70,-56,-1,-1,0
1523628388539,1310720,70,-56,-1,-1,0
1523628388579,1572864,70,-56,-1,-1,0
1523628388579,1900544,70,-56,-1,-1,0
1523628388579,2162688,70,-56,-1,-1,0
1523628388579,2293760,70,-56,-1,-1,0
1523628388579,2359296,70,-56,-1,-1,0
1523628388619,2293760,70,-56,-1,-1,0
1523628388619,2162688,70,-56,-1,-1,0
1523628388619,1900544,70,-56,-1,-1,0
1523628388619,1507328,70,-56,-1,-1,0
1523628388619,983040,70,-56,-1,-1,0
1523628388660,393216,70,-56,-1,-1,0
1523628388660,-65536,70,-56,-1,-1,0
1523628388660,-524288,70,-56,-1,-1,0
1523628388660,-917504,70,-56,-1,-1,0
1523628388660,-1114112,70,-56,-1,-1,0
1523628388699,-1310720,70,-56,-1,-1,0
1523628388699,-1376256,70,-56,-1,-1,0
1523628388699,-1441792,70,-56,-1,-1,0
1523628388699,-1441792,70,-56,-1,-1,0
1523628388699,-1441792,70,-56,-1,-1,0
1523628388739,-1376256,70,-56,-1,-1,0
1523628388739,-1310720,70,-56,-1,-1,0
1523628388739,-1245184,70,-56,-1,-1,0
1523628388739,-1114112,70,-56,-1,-1,0
1523628388739,-1048576,70,-56,-1,-1,0
1523628388779,-917504,70,-56,-1,-1,0
1523628388779,-851968,70,-56,-1,-1,0
1523628388779,-851968,70,-56,-1,-1,0
1523628388779,-851968,70,-56,-1,-1,0
1523628388779,-786432,70,-56,-1,-1,0
1523628388819,-786432,70,-56,-1,-1,0
1523628388819,-786432,70,-56,-1,-1,0
1523628388819,-720896,70,-56,-1,-1,0
1523628388819,-720896,70,-56,-1,-1,0
1523628388819,-786432,70,-56,-1,-1,0
1523628388859,-851968,70,-56,-1,-1,0
1523628388859,-983040,70,-56,-1,-1,0
1523628388859,-983040,70,-56,-1,-1,0
1523628388859,-1048576,70,-56,-1,-1,0
1523628388859,-1114112,70,-56,-1,-1,0
1523628388899,-1179648,70,-56,-1,-1,0
1523628388899,-1179648,70,-56,-1,-1,0
1523628388899,-1245184,70,-56,-1,-1,0
1523628388899,-1245184,70,-56,-1,-1,0
1523628388899,-1310720,70,-56,-1,-1,0
1523628388939,-1310720,70,-56,-1,-1,0
1523628388939,-1310720,70,-56,-1,-1,0
1523628388939,-1310720,70,-56,-1,-1,0
1523628388939,-1310720,70,-56,-1,-1,0
1523628388939,-1310720,70,-56,-1,-1,0
1523628388979,-1310720,70,-56,-1,-1,0
1523628388979,-1310720,70,-56,-1,-1,0
1523628388979,-1310720,70,-56,-1,-1,0
1523628388979,-1310720,70,-56,-1,-1,0
1523628388979,-1376256,70,-56,-1,-1,0
1523628389019,-1376256,70,-56,-1,-1,0
1523628389019,-1376256,70,-56,-1,-1,0
1523628389019,-1376256,70,-56,-1,-1,0
1523628389019,-1376256,70,-56,-1,-1,0
1523628389019,-1441792,70,-56,-1,-1,0
1523628389059,-1376256,70,-56,-1,-1,0
1523628389059,-1310720,70,-56,-1,-1,0
1523628389059,-1310720,70,-56,-1,-1,0
1523628389059,-1310720,70,-56,-1,-1,0
1523628389059,-1245184,70,-56,-1,-1,0
1523628389099,-1245184,70,-56,-1,-1,0
1523628389099,-1179648,70,-56,-1,-1,0
1523628389099,-1114112,70,-56,-1,-1,0
1523628389099,-1048576,70,-56,-1,-1,0
1523628389099,-983040,70,-56,-1,-1,0
1523628389139,-1114112,70,-56,-1,-1,0
1523628389139,-1245184,70,-56,-1,-1,0
1523628389139,-1310720,70,-56,-1,-1,0
1523628389139,-1310720,70,-56,-1,-1,0
1523628389139,-1441792,70,-56,-1,-1,0
1523628389179,-1507328,70,-56,-1,-1,0
1523628389179,-1507328,70,-56,-1,-1,0
1523628389179,-1441792,70,-56,-1,-1,0
1523628389179,-1507328,70,-56,-1,-1,0
1523628389179,-1769472,70,-56,-1,-1,0
1523628389219,-2097152,70,-56,-1,-1,0
1523628389219,-1310720,70,-56,-1,-1,0
1523628389219,1835008,70,-56,-1,-1,0
1523628389219,7667712,70,-56,-1,-1,0
1523628389219,13238272,70,-56,-1,-1,0
1523628389259,13434880,70,-56,-1,-1,0
1523628389259,7667712,70,-56,-1,-1,0
1523628389259,1900544,70,-56,-1,-1,0
1523628389259,0,70,-56,-1,-1,0
1523628389259,-327680,70,-56,-1,-1,0
1523628389301,-655360,70,-56,-1,-1,0
1523628389301,-917504,70,-56,-1,-1,0
1523628389301,-983040,70,-56,-1,-1,0
1523628389301,-983040,70,-56,-1,-1,0
1523628389301,-917504,70,-56,-1,-1,0
1523628389339,-917504,70,-56,-1,-1,0
1523628389339,-851968,70,-56,-1,-1,0
1523628389339,-851968,70,-56,-1,-1,0
1523628389339,-720896,70,-56,-1,-1,0
1523628389339,-720896,70,-56,-1,-1,0
1523628389379,-589824,70,-56,-1,-1,0
1523628389379,-524288,70,-56,-1,-1,0
1523628389379,-393216,70,-56,-1,-1,0
1523628389379,-262144,70,-56,-1,-1,0
1523628389379,0,70,-56,-1,-1,0
1523628389419,131072,70,-56,-1,-1,0
1523628389419,393216,70,-56,-1,-1,0
1523628389419,720896,70,-56,-1,-1,0
1523628389419,983040,70,-56,-1,-1,0
1523628389419,1245184,70,-56,-1,-1,0
1523628389459,1572864,70,-56,-1,-1,0
1523628389459,1703936,70,-56,-1,-1,0
1523628389459,1769472,70,-56,-1,-1,0
1523628389459,1769472,70,-56,-1,-1,0
1523628389459,1572864,70,-56,-1,-1,0
1523628389499,1245184,70,-56,-1,-1,0
1523628389499,917504,70,-56,-1,-1,0
1523628389499,524288,70,-56,-1,-1,0
1523628389499,65536,70,-56,-1,-1,0
1523628389499,-262144,70,-56,-1,-1,0
1523628389540,-524288,70,-56,-1,-1,0
1523628389540,-655360,70,-56,-1,-1,0
1523628389540,-786432,70,-56,-1,-1,0
1523628389540,-851968,70,-56,-1,-1,0
1523628389540,-851968,70,-56,-1,-1,0
1523628389579,-786432,70,-56,-1,-1,0
1523628389579,-786432,70,-56,-1,-1,0
1523628389579,-786432,70,-56,-1,-1,0
1523628389579,-786432,70,-56,-1,-1,0
1523628389579,-720896,70,-56,-1,-1,0
1523628389620,-720896,70,-56,-1,-1,0
1523628389620,-589824,70,-56,-1,-1,0
1523628389620,-589824,70,-56,-1,-1,0
1523628389620,-589824,70,-56,-1,-1,0
1523628389620,-589824,70,-56,-1,-1,0
1523628389659,-655360,70,-56,-1,-1,0
1523628389659,-655360,70,-56,-1,-1,0
1523628389659,-589824,70,-56,-1,-1,0
1523628389659,-589824,70,-56,-1,-1,0
1523628389659,-655360,70,-56,-1,-1,0
1523628389700,-720896,70,-56,-1,-1,0
1523628389700,-720896,70,-56,-1,-1,0
1523628389700,-786432,70,-56,-1,-1,0
1523628389700,-851968,70,-56,-1,-1,0
1523628389700,-851968,70,-56,-1,-1,0
1523628389739,-851968,70,-56,-1,-1,0
1523628389739,-851968,70,-56,-1,-1,0
1523628389739,-851968,70,-56,-1,-1,0
1523628389739,-851968,70,-56,-1,-1,0
1523628389739,-917504,70,-56,-1,-1,0
1523628389779,-917504,70,-56,-1,-1,0
1523628389779,-983040,70,-56,-1,-1,0
1523628389779,-983040,70,-56,-1,-1,0
1523628389779,-1048576,70,-56,-1,-1,0
1523628389779,-983040,70,-56,-1,-1,0
1523628389819,-917504,70,-56,-1,-1,0
1523628389819,-983040,70,-56,-1,-1,0
1523628389819,-983040,70,-56,-1,-1,0
1523628389819,-983040,70,-56,-1,-1,0
1523628389819,-983040,70,-56,-1,-1,0
1523628389860,-983040,70,-56,-1,-1,0
1523628389860,-983040,70,-56,-1,-1,0
1523628389860,-917504,70,-56,-1,-1,0
1523628389860,-917504,70,-56,-1,-1,0
1523628389860,-917504,70,-56,-1,-1,0
1523628389899,-917504,70,-56,-1,-1,0
1523628389899,-851968,70,-56,-1,-1,0
1523628389899,-851968,70,-56,-1,-1,0
1523628389899,-851968,70,-56,-1,-1,0
1523628389899,-917504,70,-56,-1,-1,0
1523628389940,-917504,70,-56,-1,-1,0
1523628389940,-851968,70,-56,-1,-1,0
1523628389940,-786432,70,-56,-1,-1,0
1523628389940,-720896,70,-56,-1,-1,0
1523628389940,-655360,70,-56,-1,-1,0
1523628389979,-524288,70,-56,-1,-1,0
1523628389979,-524288,70,-56,-1,-1,0
1523628389979,-655360,70,-56,-1,-1,0
1523628389979,-720896,70,-56,-1,-1,0
1523628389979,-786432,70,-56,-1,-1,0
1523628390019,-851968,70,-56,-1,-1,0
1523628390019,-851968,70,-56,-1,-1,0
1523628390019,-851968,70,-56,-1,-1,0
1523628390019,-917504,70,-56,-1,-1,0
1523628390019,-917504,70,-56,-1,-1,0
1523628390059,-983040,70,-56,-1,-1,0
1523628390059,-1376256,70,-56,-1,-1,0
1523628390059,-1179648,70,-56,-1,-1,0
1523628390059,851968,70,-56,-1,-1,0
1523628390059,5505024,70,-56,-1,-1,0
1523628390100,11206656,70,-56,-1,-1,0
1523628390100,13565952,70,-56,-1,-1,0
1523628390100,9502720,70,-56,-1,-1,0
1523628390100,3407872,70,-56,-1,-1,0
1523628390100,196608,70,-56,-1,-1,0
1523628390139,-262144,70,-56,-1,-1,0
1523628390139,-589824,70,-56,-1,-1,0
1523628390139,-786432,70,-56,-1,-1,0
1523628390139,-851968,70,-56,-1,-1,0
1523628390139,-917504,70,-56,-1,-1,0
1523628390180,-851968,70,-56,-1,-1,0
1523628390180,-851968,70,-56,-1,-1,0
1523628390180,-851968,70,-56,-1,-1,0
1523628390180,-851968,70,-56,-1,-1,0
1523628390180,-786432,70,-56,-1,-1,0
1523628390219,-655360,70,-56,-1,-1,0
1523628390219,-524288,70,-56,-1,-1,0
1523628390219,-393216,70,-56,-1,-1,0
1523628390219,-327680,70,-56,-1,-1,0
1523628390219,-196608,70,-56,-1,-1,0
1523628390260,0,70,-56,-1,-1,0
1523628390260,262144,70,-56,-1,-1,0
1523628390260,458752,70,-56,-1,-1,0
1523628390260,720896,70,-56,-1,-1,0
1523628390260,983040,70,-56,-1,-1,0
1523628390299,1376256,70,-56,-1,-1,0
1523628390299,1638400,70,-56,-1,-1,0
1523628390299,1835008,70,-56,-1,-1,0
1523628390299,1966080,70,-56,-1,-1,0
1523628390299,2031616,70,-56,-1,-1,0
1523628390340,2031616,70,-56,-1,-1,0
1523628390340,1769472,70,-56,-1,-1,0
1523628390340,1310720,70,-56,-1,-1,0
1523628390340,851968,70,-56,-1,-1,0
1523628390340,458752,70,-56,-1,-1,0
1523628390379,0,70,-56,-1,-1,0
1523628390379,-327680,70,-56,-1,-1,0
1523628390379,-589824,70,-56,-1,-1,0
1523628390379,-720896,70,-56,-1,-1,0
1523628390379,-786432,70,-56,-1,-1,0
1523628390419,-851968,70,-56,-1,-1,0
1523628390419,-983040,70,-56,-1,-1,0
1523628390419,-1048576,70,-56,-1,-1,0
1523628390419,-1114112,70,-56,-1,-1,0
1523628390419,-1114112,70,-56,-1,-1,0
1523628390460,-1048576,70,-56,-1,-1,0
1523628390460,-917504,70,-56,-1,-1,0
1523628390460,-917504,70,-56,-1,-1,0
1523628390460,-851968,70,-56,-1,-1,0
1523628390460,-851968,70,-56,-1,-1,0
1523628390500,-851968,70,-56,-1,-1,0
1523628390500,-917504,70,-56,-1,-1,0
1523628390500,-917504,70,-56,-1,-1,0
1523628390500,-851968,70,-56,-1,-1,0
1523628390500,-851968,70,-56,-1,-1,0
1523628390539,-851968,70,-56,-1,-1,0
1523628390539,-786432,70,-56,-1,-1,0
1523628390539,-786432,70,-56,-1,-1,0
1523628390539,-851968,70,-56,-1,-1,0
1523628390539,-917504,70,-56,-1,-1,0
1523628390580,-917504,70,-56,-1,-1,0
1523628390580,-917504,70,-56,-1,-1,0
1523628390580,-983040,70,-56,-1,-1,0
1523628390580,-983040,70,-56,-1,-1,0
1523628390580,-983040,70,-56,-1,-1,0
1523628390619,-983040,70,-56,-1,-1,0
1523628390619,-983040,70,-56,-1,-1,0
1523628390619,-983040,70,-56,-1,-1,0
1523628390619,-1048576,70,-56,-1,-1,0
1523628390619,-1048576,70,-56,-1,-1,0
1523628390660,-1114112,70,-56,-1,-1,0
1523628390660,-1048576,70,-56,-1,-1,0
1523628390660,-1048576,70,-56,-1,-1,0
1523628390660,-1048576,70,-56,-1,-1,0
1523628390660,-1048576,70,-56,-1,-1,0
1523628390701,-1114112,70,-56,-1,-1,0
1523628390701,-1114112,70,-56,-1,-1,0
1523628390701,-1114112,70,-56,-1,-1,0
1523628390701,-1179648,70,-56,-1,-1,0
1523628390701,-1179648,70,-56,-1,-1,0
1523628390740,-1114112,70,-56,-1,-1,0
1523628390740,-1048576,70,-56,-1,-1,0
1523628390740,-1048576,70,-56,-1,-1,0
1523628390740,-983040,70,-56,-1,-1,0
1523628390740,-917504,70,-56,-1,-1,0
1523628390779,-917504,70,-56,-1,-1,0
1523628390779,-1048576,70,-56,-1,-1,0
1523628390779,-1114112,70,-56,-1,-1,0
1523628390779,-1179648,70,-56,-1,-1,0
1523628390779,-1245184,70,-56,-1,-1,0
1523628390820,-1245184,70,-56,-1,-1,0
1523628390820,-1245184,70,-56,-1,-1,0
1523628390820,-1245184,70,-56,-1,-1,0
1523628390820,-1245184,70,-56,-1,-1,0
1523628390820,-1245184,70,-56,-1,-1,0
1523628390859,-1507328,70,-56,-1,-1,0
1523628390859,-1507328,70,-56,-1,-1,0
1523628390859,-65536,70,-56,-1,-1,0
1523628390859,3604480,70,-56,-1,-1,0
1523628390859,8781824,70,-56,-1,-1,0
1523628390900,12058624,70,-56,-1,-1,0
1523628390900,9764864,70,-56,-1,-1,0
1523628390900,3997696,70,-56,-1,-1,0
1523628390900,327680,70,-56,-1,-1,0
1523628390900,-196608,70,-56,-1,-1,0
1523628390939,-393216,70,-56,-1,-1,0
1523628390939,-589824,70,-56,-1,-1,0
1523628390939,-720896,70,-56,-1,-1,0
1523628390939,-720896,70,-56,-1,-1,0
1523628390939,-655360,70,-56,-1,-1,0
1523628390980,-655360,70,-56,-1,-1,0
1523628390980,-655360,70,-56,-1,-1,0
1523628390980,-589824,70,-56,-1,-1,0
1523628390980,-458752,70,-56,-1,-1,0
1523628390980,-393216,70,-56,-1,-1,0
1523628391019,-262144,70,-56,-1,-1,0
1523628391019,-131072,70,-56,-1,-1,0
1523628391019,0,70,-56,-1,-1,0
1523628391019,196608,70,-56,-1,-1,0
1523628391019,393216,70,-56,-1,-1,0
1523628391060,720896,70,-56,-1,-1,0
1523628391060,983040,70,-56,-1,-1,0
1523628391060,1245184,70,-56,-1,-1,0
1523628391060,1572864,70,-56,-1,-1,0
1523628391060,1900544,70,-56,-1,-1,0
1523628391099,2162688,70,-56,-1,-1,0
1523628391099,2359296,70,-56,-1,-1,0
1523628391099,2424832,70,-56,-1,-1,0
1523628391099,2424832,70,-56,-1,-1,0
1523628391099,2228224,70,-56,-1,-1,0
1523628391140,1966080,70,-56,-1,-1,0
1523628391140,1572864,70,-56,-1,-1,0
1523628391140,1048576,70,-56,-1,-1,0
1523628391140,524288,70,-56,-1,-1,0
1523628391140,131072,70,-56,-1,-1,0
1523628391179,-196608,70,-56,-1,-1,0
1523628391179,-458752,70,-56,-1,-1,0
1523628391179,-655360,70,-56,-1,-1,0
1523628391179,-720896,70,-56,-1,-1,0
1523628391179,-786432,70,-56,-1,-1,0
1523628391220,-851968,70,-56,-1,-1,0
1523628391220,-851968,70,-56,-1,-1,0
1523628391220,-851968,70,-56,-1,-1,0
1523628391220,-851968,70,-56,-1,-1,0
1523628391220,-786432,70,-56,-1,-1,0
1523628391259,-786432,70,-56,-1,-1,0
1523628391259,-786432,70,-56,-1,-1,0
1523628391259,-786432,70,-56,-1,-1,0
1523628391259,-720896,70,-56,-1,-1,0
1523628391259,-655360,70,-56,-1,-1,0
1523628391300,-589824,70,-56,-1,-1,0
1523628391300,-655360,70,-56,-1,-1,0
1523628391300,-655360,70,-56,-1,-1,0
1523628391300,-655360,70,-56,-1,-1,0
1523628391300,-589824,70,-56,-1,-1,0
1523628391339,-589824,70,-56,-1,-1,0
1523628391339,-524288,70,-56,-1,-1,0
1523628391339,-589824,70,-56,-1,-1,0
1523628391339,-589824,70,-56,-1,-1,0
1523628391339,-655360,70,-56,-1,-1,0
1523628391380,-655360,70,-56,-1,-1,0
1523628391380,-720896,70,-56,-1,-1,0
1523628391380,-720896,70,-56,-1,-1,0
1523628391380,-720896,70,-56,-1,-1,0
1523628391380,-720896,70,-56,-1,-1,0
1523628391419,-786432,70,-56,-1,-1,0
1523628391419,-786432,70,-56,-1,-1,0
1523628391419,-851968,70,-56,-1,-1,0
1523628391419,-851968,70,-56,-1,-1,0
1523628391419,-917504,70,-56,-1,-1,0
1523628391460,-917504,70,-56,-1,-1,0
1523628391460,-917504,70,-56,-1,-1,0
1523628391460,-983040,70,-56,-1,-1,0
1523628391460,-983040,70,-56,-1,-1,0
1523628391460,-917504,70,-56,-1,-1,0
1523628391499,-983040,70,-56,-1,-1,0
1523628391499,-983040,70,-56,-1,-1,0
1523628391499,-1048576,70,-56,-1,-1,0
1523628391499,-1048576,70,-56,-1,-1,0
1523628391499,-1048576,70,-56,-1,-1,0
1523628391540,-1048576,70,-56,-1,-1,0
1523628391540,-1114112,70,-56,-1,-1,0
1523628391540,-1114112,70,-56,-1,-1,0
1523628391540,-1048576,70,-56,-1,-1,0
1523628391540,-983040,70,-56,-1,-1,0
1523628391579,-917504,70,-56,-1,-1,0
1523628391579,-851968,70,-56,-1,-1,0
1523628391579,-851968,70,-56,-1,-1,0
1523628391579,-917504,70,-56,-1,-1,0
1523628391579,-1048576,70,-56,-1,-1,0
1523628391620,-1179648,70,-56,-1,-1,0
1523628391620,-1245184,70,-56,-1,-1,0
1523628391620,-1245184,70,-56,-1,-1,0
1523628391620,-1245184,70,-56,-1,-1,0
1523628391620,-1179648,70,-56,-1,-1,0
1523628391660,-1114112,70,-56,-1,-1,0
1523628391660,-1114112,70,-56,-1,-1,0
1523628391660,-1376256,70,-56,-1,-1,0
1523628391660,-1507328,70,-56,-1,-1,0
1523628391660,-262144,70,-56,-1,-1,0
1523628391700,3604480,70,-56,-1,-1,0
1523628391700,9437184,70,-56,-1,-1,0
1523628391700,13697024,70,-56,-1,-1,0
1523628391700,11730944,70,-56,-1,-1,0
1523628391700,5570560,70,-56,-1,-1,0
1523628391740,1048576,70,-56,-1,-1,0
1523628391740,0,70,-56,-1,-1,0
1523628391740,-262144,70,-56,-1,-1,0
1523628391740,-524288,70,-56,-1,-1,0
1523628391740,-655360,70,-56,-1,-1,0
1523628391780,-655360,70,-56,-1,-1,0
1523628391780,-655360,70,-56,-1,-1,0
1523628391780,-655360,70,-56,-1,-1,0
1523628391780,-589824,70,-56,-1,-1,0
1523628391780,-589824,70,-56,-1,-1,0
1523628391819,-458752,70,-56,-1,-1,0
1523628391819,-327680,70,-56,-1,-1,0
1523628391819,-327680,70,-56,-1,-1,0
1523628391819,-196608,70,-56,-1,-1,0
1523628391819,-131072,70,-56,-1,-1,0
1523628391861,0,70,-56,-1,-1,0
1523628391861,131072,70,-56,-1,-1,0
1523628391861,327680,70,-56,-1,-1,0
1523628391861,524288,70,-56,-1,-1,0
1523628391861,786432,70,-56,-1,-1,0
1523628391899,983040,70,-56,-1,-1,0
1523628391899,1310720,70,-56,-1,-1,0
1523628391899,1638400,70,-56,-1,-1,0
1523628391899,1900544,70,-56,-1,-1,0
1523628391899,2031616,70,-56,-1,-1,0
1523628391939,2097152,70,-56,-1,-1,0
1523628391939,2031616,70,-56,-1,-1,0
1523628391939,1835008,70,-56,-1,-1,0
1523628391939,1572864,70,-56,-1,-1,0
1523628391939,1114112,70,-56,-1,-1,0
1523628391979,655360,70,-56,-1,-1,0
1523628391979,262144,70,-56,-1,-1,0
1523628391979,0,70,-56,-1,-1,0
1523628391979,-196608,70,-56,-1,-1,0
1523628391979,-393216,70,-56,-1,-1,0
1523628392019,-524288,70,-56,-1,-1,0
1523628392019,-589824,70,-56,-1,-1,0
1523628392019,-589824,70,-56,-1,-1,0
1523628392019,-524288,70,-56,-1,-1,0
1523628392019,-524288,70,-56,-1,-1,0
1523628392060,-524288,70,-56,-1,-1,0
1523628392060,-524288,70,-56,-1,-1,0
1523628392060,-524288,70,-56,-1,-1,0
1523628392060,-458752,70,-56,-1,-1,0
1523628392060,-524288,70,-56,-1,-1,0
1523628392099,-524288,70,-56,-1,-1,0
1523628392099,-458752,70,-56,-1,-1,0
1523628392099,-393216,70,-56,-1,-1,0
1523628392099,-393216,70,-56,-1,-1,0
1523628392099,-393216,70,-56,-1,-1,0
1523628392139,-393216,70,-56,-1,-1,0
1523628392139,-393216,70,-56,-1,-1,0
1523628392139,-393216,70,-56,-1,-1,0
1523628392139,-393216,70,-56,-1,-1,0
1523628392139,-327680,70,-56,-1,-1,0
1523628392179,-393216,70,-56,-1,-1,0
1523628392179,-393216,70,-56,-1,-1,0
1523628392179,-458752,70,-56,-1,-1,0
1523628392179,-458752,70,-56,-1,-1,0
1523628392179,-458752,70,-56,-1,-1,0
1523628392219,-524288,70,-56,-1,-1,0
1523628392219,-524288,70,-56,-1,-1,0
1523628392219,-524288,70,-56,-1,-1,0
1523628392219,-524288,70,-56,-1,-1,0
1523628392219,-589824,70,-56,-1,-1,0
1523628392259,-655360,70,-56,-1,-1,0
1523628392259,-655360,70,-56,-1,-1,0
1523628392259,-720896,70,-56,-1,-1,0
1523628392259,-720896,70,-56,-1,-1,0
1523628392259,-786432,70,-56,-1,-1,0
1523628392299,-851968,70,-56,-1,-1,0
1523628392299,-851968,70,-56,-1,-1,0
1523628392299,-851968,70,-56,-1,-1,0
1523628392299,-851968,70,-56,-1,-1,0
1523628392299,-917504,70,-56,-1,-1,0
1523628392341,-983040,70,-56,-1,-1,0
1523628392341,-983040,70,-56,-1,-1,0
1523628392341,-1048576,70,-56,-1,-1,0
1523628392341,-1114112,70,-56,-1,-1,0
1523628392341,-1048576,70,-56,-1,-1,0
1523628392379,-983040,70,-56,-1,-1,0
1523628392379,-917504,70,-56,-1,-1,0
1523628392379,-786432,70,-56,-1,-1,0
1523628392379,-786432,70,-56,-1,-1,0
1523628392379,-917504,70,-56,-1,-1,0
1523628392419,-983040,70,-56,-1,-1,0
1523628392419,-1114112,70,-56,-1,-1,0
1523628392419,-1179648,70,-56,-1,-1,0
1523628392419,-1310720,70,-56,-1,-1,0
1523628392419,-1245184,70,-56,-1,-1,0
1523628392461,-1179648,70,-56,-1,-1,0
1523628392461,-1179648,70,-56,-1,-1,0
1523628392461,-1245184,70,-56,-1,-1,0
1523628392461,-1441792,70,-56,-1,-1,0
1523628392461,-1769472,70,-56,-1,-1,0
1523628392502,-1179648,70,-56,-1,-1,0
1523628392502,1507328,70,-56,-1,-1,0
1523628392502,6422528,70,-56,-1,-1,0
1523628392502,11468800,70,-56,-1,-1,0
1523628392502,12189696,70,-56,-1,-1,0
1523628392539,7077888,70,-56,-1,-1,0
1523628392539,1638400,70,-56,-1,-1,0
1523628392539,-393216,70,-56,-1,-1,0
1523628392539,-524288,70,-56,-1,-1,0
1523628392539,-720896,70,-56,-1,-1,0
1523628392579,-917504,70,-56,-1,-1,0
1523628392579,-1048576,70,-56,-1,-1,0
1523628392579,-1048576,70,-56,-1,-1,0
1523628392579,-983040,70,-56,-1,-1,0
1523628392579,-917504,70,-56,-1,-1,0
1523628392619,-917504,70,-56,-1,-1,0
1523628392619,-917504,70,-56,-1,-1,0
1523628392619,-851968,70,-56,-1,-1,0
1523628392619,-786432,70,-56,-1,-1,0
1523628392619,-589824,70,-56,-1,-1,0
1523628392661,-524288,70,-56,-1,-1,0
1523628392661,-327680,70,-56,-1,-1,0
1523628392661,-196608,70,-56,-1,-1,0
1523628392661,0,70,-56,-1,-1,0
1523628392661,262144,70,-56,-1,-1,0
1523628392699,589824,70,-56,-1,-1,0
1523628392699,917504,70,-56,-1,-1,0
1523628392699,1310720,70,-56,-1,-1,0
1523628392699,1703936,70,-56,-1,-1,0
1523628392699,1966080,70,-56,-1,-1,0
1523628392739,2228224,70,-56,-1,-1,0
1523628392739,2359296,70,-56,-1,-1,0
1523628392739,2359296,70,-56,-1,-1,0
1523628392739,2228224,70,-56,-1,-1,0
1523628392739,1966080,70,-56,-1,-1,0
1523628392779,1572864,70,-56,-1,-1,0
1523628392779,983040,70,-56,-1,-1,0
1523628392779,458752,70,-56,-1,-1,0
1523628392779,65536,70,-56,-1,-1,0
1523628392779,-262144,70,-56,-1,-1,0
1523628392821,-524288,70,-56,-1,-1,0
1523628392821,-720896,70,-56,-1,-1,0
1523628392821,-786432,70,-56,-1,-1,0
1523628392821,-851968,70,-56,-1,-1,0
1523628392821,-917504,70,-56,-1,-1,0
1523628392859,-917504,70,-56,-1,-1,0
1523628392859,-917504,70,-56,-1,-1,0
1523628392859,-917504,70,-56,-1,-1,0
1523628392859,-917504,70,-56,-1,-1,0
1523628392859,-917504,70,-56,-1,-1,0
1523628392899,-917504,70,-56,-1,-1,0
1523628392899,-917504,70,-56,-1,-1,0
1523628392899,-917504,70,-56,-1,-1,0
1523628392899,-851968,70,-56,-1,-1,0
1523628392899,-786432,70,-56,-1,-1,0
1523628392939,-720896,70,-56,-1,-1,0
1523628392939,-720896,70,-56,-1,-1,0
1523628392939,-655360,70,-56,-1,-1,0
1523628392939,-589824,70,-56,-1,-1,0
1523628392939,-589824,70,-56,-1,-1,0
1523628392979,-589824,70,-56,-1,-1,0
1523628392979,-589824,70,-56,-1,-1,0
1523628392979,-589824,70,-56,-1,-1,0
1523628392979,-589824,70,-56,-1,-1,0
1523628392979,-655360,70,-56,-1,-1,0
1523628393019,-720896,70,-56,-1,-1,0
1523628393019,-720896,70,-56,-1,-1,0
1523628393019,-720896,70,-56,-1,-1,0
1523628393019,-720896,70,-56,-1,-1,0
1523628393019,-720896,70,-56,-1,-1,0
1523628393059,-786432,70,-56,-1,-1,0
1523628393059,-786432,70,-56,-1,-1,0
1523628393059,-786432,70,-56,-1,-1,0
1523628393059,-786432,70,-56,-1,-1,0
1523628393059,-786432,70,-56,-1,-1,0
1523628393099,-786432,70,-56,-1,-1,0
1523628393099,-851968,70,-56,-1,-1,0
1523628393099,-851968,70,-56,-1,-1,0
1523628393099,-917504,70,-56,-1,-1,0
1523628393099,-983040,70,-56,-1,-1,0
1523628393142,-1048576,70,-56,-1,-1,0
1523628393142,-1048576,70,-56,-1,-1,0
1523628393142,-983040,70,-56,-1,-1,0
1523628393142,-917504,70,-56,-1,-1,0
1523628393142,-851968,70,-56,-1,-1,0
1523628393179,-786432,70,-56,-1,-1,0
1523628393179,-720896,70,-56,-1,-1,0
1523628393179,-655360,70,-56,-1,-1,0
1523628393179,-720896,70,-56,-1,-1,0
1523628393179,-851968,70,-56,-1,-1,0
1523628393219,-917504,70,-56,-1,-1,0
1523628393219,-917504,70,-56,-1,-1,0
1523628393219,-983040,70,-56,-1,-1,0
1523628393219,-1048576,70,-56,-1,-1,0
1523628393219,-1048576,70,-56,-1,-1,0
1523628393259,-1048576,70,-56,-1,-1,0
1523628393259,-1114112,70,-56,-1,-1,0
1523628393259,-1376256,70,-56,-1,-1,0
1523628393259,-1638400,70,-56,-1,-1,0
1523628393259,-524288,70,-56,-1,-1,0
1523628393299,2883584,70,-56,-1,-1,0
1523628393299,8454144,70,-56,-1,-1,0
1523628393299,12976128,70,-56,-1,-1,0
1523628393299,11796480,70,-56,-1,-1,0
1523628393299,5898240,70,-56,-1,-1,0
1523628393339,1179648,70,-56,-1,-1,0
1523628393339,0,70,-56,-1,-1,0
1523628393339,-262144,70,-56,-1,-1,0
1523628393339,-524288,70,-56,-1,-1,0
1523628393339,-589824,70,-56,-1,-1,0
1523628393379,-655360,70,-56,-1,-1,0
1523628393379,-655360,70,-56,-1,-1,0
1523628393379,-655360,70,-56,-1,-1,0
1523628393379,-589824,70,-56,-1,-1,0
1523628393379,-589824,70,-56,-1,-1,0
1523628393419,-589824,71,-56,-1,-1,0
1523628393419,-524288,71,-56,-1,-1,0
1523628393419,-393216,71,-56,-1,-1,0
1523628393419,-327680,71,-56,-1,-1,0
1523628393419,-196608,71,-56,-1,-1,0
1523628393459,0,71,-56,-1,-1,0
1523628393459,131072,71,-56,-1,-1,0
1523628393459,327680,71,-56,-1,-1,0
1523628393459,589824,71,-56,-1,-1,0
