milliseconds, ECG, ECG HR, PPG, PPG HR, SpO2, PI
0,-131072,82,-56,-1,-1,0
33,-65536,82,-56,-1,-1,0
66,131072,82,-56,-1,-1,0
100,327680,82,-56,-1,-1,0
133,851968,82,-56,-1,-1,0
166,1310720,82,-56,-1,-1,0
200,393216,82,-56,-1,-1,0
233,-131072,82,-56,-1,-1,0
266,0,82,-56,-1,-1,0
300,0,82,-56,-1,-1,0
333,-65536,82,-56,-1,-1,0
366,-131072,82,-56,-1,-1,0
400,-196608,82,-56,-1,-1,0
433,-131072,82,-56,-1,-1,0
466,-196608,82,-56,-1,-1,0
500,-262144,82,-56,-1,-1,0
533,-65536,82,-56,-1,-1,0
566,0,82,-56,-1,-1,0
600,-196608,82,-56,-1,-1,0
633,2097152,82,-56,-1,-1,0
666,-196608,82,-56,-1,-1,0
700,131072,82,-56,-1,-1,0
733,196608,82,-56,-1,-1,0
766,458752,82,-56,-1,-1,0
800,655360,82,-56,-1,-1,0
833,1245184,82,-56,-1,-1,0
866,1703936,82,-56,-1,-1,0
900,720896,82,-56,-1,-1,0
933,65536,82,-56,-1,-1,0
966,0,82,-56,-1,-1,0
1000,0,82,-56,-1,-1,0
1033,0,82,-56,-1,-1,0
1066,-196608,82,-56,-1,-1,0
1100,-262144,82,-56,-1,-1,0
1133,-327680,82,-56,-1,-1,0
1166,-327680,82,-56,-1,-1,0
1200,-393216,82,-56,-1,-1,0
1233,-393216,82,-56,-1,-1,0
1266,-393216,82,-56,-1,-1,0
1300,-458752,82,-56,-1,-1,0
1333,-524288,82,-56,-1,-1,0
1366,4456448,82,-56,-1,-1,0
1400,-1179648,82,-56,-1,-1,0
1433,-458752,82,-56,-1,-1,0
1466,-327680,82,-56,-1,-1,0
1500,-131072,82,-56,-1,-1,0
1533,65536,82,-56,-1,-1,0
1566,655360,82,-56,-1,-1,0
1600,1048576,82,-56,-1,-1,0
1633,589824,82,-56,-1,-1,0
1666,-131072,82,-56,-1,-1,0
1700,-262144,82,-56,-1,-1,0
1733,0,82,-56,-1,-1,0
1766,-131072,82,-56,-1,-1,0
1800,-196608,82,-56,-1,-1,0
1833,-131072,82,-56,-1,-1,0
1866,-196608,82,-56,-1,-1,0
1900,-196608,82,-56,-1,-1,0
1933,-196608,82,-56,-1,-1,0
1966,-262144,82,-56,-1,-1,0
2000,-131072,82,-56,-1,-1,0
2033,-196608,82,-56,-1,-1,0
2066,4259840,82,-56,-1,-1,0
2100,-1441792,82,-56,-1,-1,0
2133,-262144,82,-56,-1,-1,0
2166,-196608,81,-56,-1,-1,0
2200,-65536,81,-56,-1,-1,0
2233,196608,81,-56,-1,-1,0
2266,720896,81,-56,-1,-1,0
2300,1245184,81,-56,-1,-1,0
2333,851968,81,-56,-1,-1,0
2366,0,81,-56,-1,-1,0
2400,-131072,81,-56,-1,-1,0
2433,-65536,81,-56,-1,-1,0
2466,-65536,81,-56,-1,-1,0
2500,-65536,81,-56,-1,-1,0
2533,-131072,81,-56,-1,-1,0
2566,-196608,81,-56,-1,-1,0
2600,-65536,81,-56,-1,-1,0
2633,-65536,81,-56,-1,-1,0
2666,-196608,81,-56,-1,-1,0
2700,65536,81,-56,-1,-1,0
2733,262144,81,-56,-1,-1,0
2766,393216,81,-56,-1,-1,0
2800,1245184,81,-56,-1,-1,0
2833,589824,77,-56,-1,-1,0
2866,1179648,77,-56,-1,-1,0
2900,1507328,77,-56,-1,-1,0
2933,1966080,77,-56,-1,-1,0
2966,2359296,77,-56,-1,-1,0
3000,3407872,77,-56,-1,-1,0
3033,4063232,77,-56,-1,-1,0
3066,3407872,77,-56,-1,-1,0
3100,3211264,77,-56,-1,-1,0
3133,3604480,77,-56,-1,-1,0
3166,4128768,77,-56,-1,-1,0
3200,3997696,77,-56,-1,-1,0
3233,3473408,77,-56,-1,-1,0
3266,1048576,77,-56,-1,-1,0
3300,-1376256,77,-56,-1,-1,0
3333,-3080192,77,-56,-1,-1,0
3366,-3670016,77,-56,-1,-1,0
3400,-3866624,77,-56,-1,-1,0
3433,-3670016,77,-56,-1,-1,0
3466,-3801088,76,-56,-1,-1,0
3500,-3342336,76,-56,-1,-1,0
3533,-2883584,76,-56,-1,-1,0
3566,-2555904,76,-56,-1,-1,0
3600,-2097152,76,-56,-1,-1,0
3633,-1376256,76,-56,-1,-1,0
3666,-393216,76,-56,-1,-1,0
3699,65536,76,-56,-1,-1,0
3733,-851968,76,-56,-1,-1,0
3766,-1179648,76,-56,-1,-1,0
3800,-917504,76,-56,-1,-1,0
3833,-655360,76,-56,-1,-1,0
3866,-655360,76,-56,-1,-1,0
3900,-720896,76,-56,-1,-1,0
3933,-524288,76,-56,-1,-1,0
3966,-327680,76,-56,-1,-1,0
4000,-262144,76,-56,-1,-1,0
4033,-65536,76,-56,-1,-1,0
4066,393216,76,-56,-1,-1,0
4100,-1572864,76,-56,-1,-1,0
4133,196608,76,-56,-1,-1,0
4166,458752,76,-56,-1,-1,0
4200,589824,76,-56,-1,-1,0
4233,720896,76,-56,-1,-1,0
4266,983040,76,-56,-1,-1,0
4300,1835008,76,-56,-1,-1,0
4333,1638400,76,-56,-1,-1,0
4366,393216,76,-56,-1,-1,0
4400,0,76,-56,-1,-1,0
4433,0,76,-56,-1,-1,0
4466,0,76,-56,-1,-1,0
4500,-393216,76,-56,-1,-1,0
4533,-589824,76,-56,-1,-1,0
4566,-786432,76,-56,-1,-1,0
4600,-1048576,76,-56,-1,-1,0
4633,-1245184,76,-56,-1,-1,0
4666,-1441792,76,-56,-1,-1,0
4700,-1507328,76,-56,-1,-1,0
4733,2555904,76,-56,-1,-1,0
4766,-2883584,76,-56,-1,-1,0
4800,-1507328,75,-56,-1,-1,0
4833,-1507328,75,-56,-1,-1,0
4866,-1179648,75,-56,-1,-1,0
4900,-851968,75,-56,-1,-1,0
4933,-131072,75,-56,-1,-1,0
4966,720896,75,-56,-1,-1,0
5000,458752,75,-56,-1,-1,0
5033,-262144,75,-56,-1,-1,0
5066,-393216,75,-56,-1,-1,0
5100,-196608,75,-56,-1,-1,0
5133,0,75,-56,-1,-1,0
5166,-131072,75,-56,-1,-1,0
5200,-131072,75,-56,-1,-1,0
5233,-327680,75,-56,-1,-1,0
5266,-327680,75,-56,-1,-1,0
5300,-589824,75,-56,-1,-1,0
5333,-393216,75,-56,-1,-1,0
5366,-655360,75,-56,-1,-1,0
5400,-589824,75,-56,-1,-1,0
5433,-65536,75,-56,-1,-1,0
5466,-786432,75,-56,-1,-1,0
5500,-655360,75,-56,-1,-1,0
5533,-524288,74,-56,-1,-1,0
5566,-262144,74,-56,-1,-1,0
5600,0,74,-56,-1,-1,0
5633,851968,74,-56,-1,-1,0
5666,1179648,74,-56,-1,-1,0
5700,-65536,74,-56,-1,-1,0
5733,-720896,74,-56,-1,-1,0
5766,-720896,74,-56,-1,-1,0
5800,-524288,74,-56,-1,-1,0
5833,-589824,74,-56,-1,-1,0
5866,-524288,74,-56,-1,-1,0
5900,-458752,74,-56,-1,-1,0
5933,-393216,74,-56,-1,-1,0
5966,-262144,74,-56,-1,-1,0
6000,-262144,74,-56,-1,-1,0
6033,-196608,74,-56,-1,-1,0
6066,-65536,74,-56,-1,-1,0
6100,0,74,-56,-1,-1,0
6133,5111808,74,-56,-1,-1,0
6166,-720896,74,-56,-1,-1,0
6200,327680,74,-56,-1,-1,0
6233,393216,74,-56,-1,-1,0
6266,524288,74,-56,-1,-1,0
6300,851968,73,-56,-1,-1,0
6333,1441792,73,-56,-1,-1,0
6366,2031616,73,-56,-1,-1,0
6400,1572864,73,-56,-1,-1,0
6433,458752,73,-56,-1,-1,0
6466,393216,73,-56,-1,-1,0
6500,327680,73,-56,-1,-1,0
6533,196608,73,-56,-1,-1,0
6566,131072,73,-56,-1,-1,0
6600,131072,73,-56,-1,-1,0
6633,65536,73,-56,-1,-1,0
6666,131072,73,-56,-1,-1,0
6700,0,73,-56,-1,-1,0
6733,-65536,73,-56,-1,-1,0
6766,-131072,73,-56,-1,-1,0
6800,0,73,-56,-1,-1,0
6833,0,73,-56,-1,-1,0
6866,-196608,73,-56,-1,-1,0
6899,4456448,73,-56,-1,-1,0
6933,-655360,73,-56,-1,-1,0
6966,-131072,73,-56,-1,-1,0
7000,0,72,-56,-1,-1,0
7033,65536,72,-56,-1,-1,0
7066,458752,72,-56,-1,-1,0
7100,983040,72,-56,-1,-1,0
7133,1441792,72,-56,-1,-1,0
7166,851968,72,-56,-1,-1,0
7200,-131072,72,-56,-1,-1,0
7233,-262144,72,-56,-1,-1,0
7266,-327680,72,-56,-1,-1,0
7300,-131072,72,-56,-1,-1,0
7333,-327680,72,-56,-1,-1,0
7366,-458752,72,-56,-1,-1,0
7399,-458752,72,-56,-1,-1,0
7433,-458752,72,-56,-1,-1,0
7466,-589824,72,-56,-1,-1,0
7500,-393216,72,-56,-1,-1,0
7533,-393216,72,-56,-1,-1,0
7566,-393216,72,-56,-1,-1,0
7600,3735552,72,-56,-1,-1,0
7633,-524288,72,-56,-1,-1,0
7666,-65536,72,-56,-1,-1,0
7700,0,72,-56,-1,-1,0
7733,196608,71,-56,-1,-1,0
7766,458752,71,-56,-1,-1,0
7800,1179648,71,-56,-1,-1,0
7833,1638400,71,-56,-1,-1,0
7866,917504,71,-56,-1,-1,0
7899,131072,71,-56,-1,-1,0
7933,-65536,71,-56,-1,-1,0
7966,0,71,-56,-1,-1,0
8000,-131072,71,-56,-1,-1,0
8033,-393216,71,-56,-1,-1,0
8066,-524288,71,-56,-1,-1,0
8100,-589824,71,-56,-1,-1,0
8133,-786432,71,-56,-1,-1,0
8166,-917504,71,-56,-1,-1,0
8200,-983040,71,-56,-1,-1,0
8233,-983040,71,-56,-1,-1,0
8266,-786432,71,-56,-1,-1,0
8300,-851968,71,-56,-1,-1,0
8333,917504,71,-56,-1,-1,0
8366,-2686976,71,-56,-1,-1,0
8400,-917504,71,-56,-1,-1,0
8433,-655360,71,-56,-1,-1,0
8466,-720896,71,-56,-1,-1,0
8500,-524288,71,-56,-1,-1,0
8533,-65536,71,-56,-1,-1,0
8566,589824,71,-56,-1,-1,0
8600,720896,71,-56,-1,-1,0
8633,-327680,71,-56,-1,-1,0
8666,-589824,71,-56,-1,-1,0
8700,-458752,71,-56,-1,-1,0
8733,-393216,71,-56,-1,-1,0
8766,-393216,71,-56,-1,-1,0
8800,-393216,71,-56,-1,-1,0
8833,-393216,71,-56,-1,-1,0
8866,-327680,71,-56,-1,-1,0
8900,-262144,71,-56,-1,-1,0
8933,-262144,71,-56,-1,-1,0
8966,-262144,71,-56,-1,-1,0
9000,-327680,71,-56,-1,-1,0
9033,-65536,71,-56,-1,-1,0
9066,65536,71,-56,-1,-1,0
9100,4784128,71,-56,-1,-1,0
9133,-917504,71,-56,-1,-1,0
9166,131072,71,-56,-1,-1,0
9200,262144,71,-56,-1,-1,0
9233,327680,71,-56,-1,-1,0
9266,589824,71,-56,-1,-1,0
9300,1114112,71,-56,-1,-1,0
9333,1507328,71,-56,-1,-1,0
9366,1179648,71,-56,-1,-1,0
9400,262144,71,-56,-1,-1,0
9433,0,71,-56,-1,-1,0
9466,65536,71,-56,-1,-1,0
9500,65536,71,-56,-1,-1,0
9533,65536,71,-56,-1,-1,0
9566,0,71,-56,-1,-1,0
9600,0,71,-56,-1,-1,0
9633,0,71,-56,-1,-1,0
9666,-131072,71,-56,-1,-1,0
9700,0,71,-56,-1,-1,0
9733,-65536,71,-56,-1,-1,0
9766,-262144,71,-56,-1,-1,0
9800,3276800,71,-56,-1,-1,0
9833,-327680,71,-56,-1,-1,0
9866,65536,71,-56,-1,-1,0
9900,65536,71,-56,-1,-1,0
9933,131072,71,-56,-1,-1,0
9966,524288,71,-56,-1,-1,0
10000,1114112,71,-56,-1,-1,0
10033,1572864,71,-56,-1,-1,0
10066,720896,71,-56,-1,-1,0
10100,0,71,-56,-1,-1,0
10133,0,71,-56,-1,-1,0
10166,0,71,-56,-1,-1,0
10200,-65536,71,-56,-1,-1,0
10233,-131072,71,-56,-1,-1,0
10266,-131072,71,-56,-1,-1,0
10300,-262144,71,-56,-1,-1,0
10333,-196608,71,-56,-1,-1,0
10366,-196608,71,-56,-1,-1,0
10400,-327680,71,-56,-1,-1,0
10433,-131072,71,-56,-1,-1,0
10466,-196608,71,-56,-1,-1,0
10500,851968,71,-56,-1,-1,0
10533,-2228224,71,-56,-1,-1,0
10566,-262144,71,-56,-1,-1,0
10600,-65536,71,-56,-1,-1,0
10633,0,71,-56,-1,-1,0
10666,0,71,-56,-1,-1,0
10700,458752,71,-56,-1,-1,0
10733,1310720,71,-56,-1,-1,0
10766,1310720,71,-56,-1,-1,0
10800,196608,71,-56,-1,-1,0
10833,-65536,71,-56,-1,-1,0
10866,-65536,71,-56,-1,-1,0
10900,-131072,71,-56,-1,-1,0
10933,-196608,71,-56,-1,-1,0
10966,-327680,71,-56,-1,-1,0
11000,-393216,71,-56,-1,-1,0
11033,-262144,71,-56,-1,-1,0
11066,-393216,71,-56,-1,-1,0
11100,-327680,71,-56,-1,-1,0
11133,-327680,71,-56,-1,-1,0
11166,-327680,71,-56,-1,-1,0
11200,-327680,71,-56,-1,-1,0
11233,196608,71,-56,-1,-1,0
11266,-2293760,71,-56,-1,-1,0
11300,-458752,71,-56,-1,-1,0
11333,-262144,70,-56,-1,-1,0
11366,-131072,70,-56,-1,-1,0
11400,0,70,-56,-1,-1,0
11433,327680,70,-56,-1,-1,0
11466,1114112,70,-56,-1,-1,0
11500,1245184,70,-56,-1,-1,0
11533,131072,70,-56,-1,-1,0
11566,-262144,70,-56,-1,-1,0
11600,-262144,70,-56,-1,-1,0
11633,-196608,70,-56,-1,-1,0
11666,-262144,70,-56,-1,-1,0
11700,-458752,70,-56,-1,-1,0
11733,-655360,70,-56,-1,-1,0
11766,-589824,70,-56,-1,-1,0
11800,-458752,70,-56,-1,-1,0
11833,-786432,70,-56,-1,-1,0
11866,-655360,70,-56,-1,-1,0
11900,-655360,70,-56,-1,-1,0
11933,458752,70,-56,-1,-1,0
11966,-2621440,70,-56,-1,-1,0
12000,-655360,70,-56,-1,-1,0
12033,-458752,70,-56,-1,-1,0
12066,-393216,70,-56,-1,-1,0
12100,-131072,70,-56,-1,-1,0
12133,196608,70,-56,-1,-1,0
12166,851968,70,-56,-1,-1,0
12200,1048576,70,-56,-1,-1,0
12233,65536,70,-56,-1,-1,0
12266,-131072,70,-56,-1,-1,0
12300,-131072,70,-56,-1,-1,0
12333,-65536,70,-56,-1,-1,0
12366,-131072,70,-56,-1,-1,0
12400,-131072,70,-56,-1,-1,0
12433,-131072,70,-56,-1,-1,0
12466,-131072,70,-56,-1,-1,0
12500,-65536,70,-56,-1,-1,0
12533,0,70,-56,-1,-1,0
12566,0,70,-56,-1,-1,0
12600,0,70,-56,-1,-1,0
12633,131072,70,-56,-1,-1,0
12666,5046272,70,-56,-1,-1,0
12700,-720896,70,-56,-1,-1,0
12733,262144,70,-56,-1,-1,0
12766,393216,69,-56,-1,-1,0
12800,458752,69,-56,-1,-1,0
12833,589824,69,-56,-1,-1,0
12866,1179648,69,-56,-1,-1,0
12900,1769472,69,-56,-1,-1,0
12933,1310720,69,-56,-1,-1,0
12966,327680,69,-56,-1,-1,0
13000,0,69,-56,-1,-1,0
13033,-65536,69,-56,-1,-1,0
13066,65536,69,-56,-1,-1,0
13100,0,69,-56,-1,-1,0
13133,-196608,69,-56,-1,-1,0
13166,-262144,69,-56,-1,-1,0
13200,-327680,69,-56,-1,-1,0
13233,-393216,69,-56,-1,-1,0
13266,-393216,69,-56,-1,-1,0
13299,-524288,69,-56,-1,-1,0
13333,-524288,69,-56,-1,-1,0
13366,3604480,69,-56,-1,-1,0
13400,-1703936,69,-56,-1,-1,0
13433,-327680,69,-56,-1,-1,0
13466,-196608,69,-56,-1,-1,0
13500,-196608,69,-56,-1,-1,0
13533,0,69,-56,-1,-1,0
13566,589824,69,-56,-1,-1,0
13600,1179648,69,-56,-1,-1,0
13633,786432,69,-56,-1,-1,0
13666,-131072,69,-56,-1,-1,0
13700,-262144,69,-56,-1,-1,0
13733,-65536,69,-56,-1,-1,0
13766,-131072,69,-56,-1,-1,0
13799,-65536,69,-56,-1,-1,0
13833,-262144,69,-56,-1,-1,0
13866,-458752,69,-56,-1,-1,0
13900,-458752,69,-56,-1,-1,0
13933,-393216,69,-56,-1,-1,0
13966,-458752,69,-56,-1,-1,0
14000,-196608,69,-56,-1,-1,0
14033,-458752,69,-56,-1,-1,0
14066,-262144,69,-56,-1,-1,0
14100,4456448,69,-56,-1,-1,0
14133,-1179648,69,-56,-1,-1,0
14166,-131072,69,-56,-1,-1,0
14200,-65536,69,-56,-1,-1,0
14233,0,69,-56,-1,-1,0
14266,0,69,-56,-1,-1,0
14299,589824,69,-56,-1,-1,0
14333,1179648,69,-56,-1,-1,0
14366,917504,69,-56,-1,-1,0
14400,-131072,69,-56,-1,-1,0
14433,-262144,69,-56,-1,-1,0
14466,-393216,69,-56,-1,-1,0
14500,-327680,69,-56,-1,-1,0
14533,-524288,69,-56,-1,-1,0
14566,-524288,69,-56,-1,-1,0
14600,-524288,69,-56,-1,-1,0
14633,-589824,69,-56,-1,-1,0
14666,-524288,69,-56,-1,-1,0
14700,-786432,69,-56,-1,-1,0
14733,-458752,69,-56,-1,-1,0
14766,-655360,69,-56,-1,-1,0
14799,-786432,69,-56,-1,-1,0
14833,3801088,69,-56,-1,-1,0
14866,-2031616,69,-56,-1,-1,0
14900,-655360,69,-56,-1,-1,0
14933,-589824,69,-56,-1,-1,0
14966,-458752,69,-56,-1,-1,0
15000,-196608,69,-56,-1,-1,0
15033,327680,69,-56,-1,-1,0
15066,851968,69,-56,-1,-1,0
15100,393216,69,-56,-1,-1,0
15133,-458752,69,-56,-1,-1,0
15166,-589824,69,-56,-1,-1,0
15200,-458752,69,-56,-1,-1,0
15233,-262144,69,-56,-1,-1,0
15266,-196608,69,-56,-1,-1,0
15299,-196608,69,-56,-1,-1,0
15333,-196608,69,-56,-1,-1,0
15366,-131072,69,-56,-1,-1,0
15400,0,69,-56,-1,-1,0
15433,0,69,-56,-1,-1,0
15466,65536,69,-56,-1,-1,0
15500,0,69,-56,-1,-1,0
15533,196608,69,-56,-1,-1,0
15566,-393216,69,-56,-1,-1,0
15600,131072,69,-56,-1,-1,0
15633,262144,69,-56,-1,-1,0
15666,393216,69,-56,-1,-1,0
15700,458752,69,-56,-1,-1,0
15733,786432,69,-56,-1,-1,0
15766,1441792,69,-56,-1,-1,0
15799,1835008,69,-56,-1,-1,0
15833,655360,69,-56,-1,-1,0
15866,0,69,-56,-1,-1,0
15900,0,69,-56,-1,-1,0
15933,0,69,-56,-1,-1,0
15966,-131072,69,-56,-1,-1,0
16000,-327680,69,-56,-1,-1,0
16033,-458752,69,-56,-1,-1,0
16066,-524288,69,-56,-1,-1,0
16100,-720896,69,-56,-1,-1,0
16133,-851968,69,-56,-1,-1,0
16166,-458752,69,-56,-1,-1,0
16200,-655360,69,-56,-1,-1,0
16233,-851968,69,-56,-1,-1,0
16266,3145728,69,-56,-1,-1,0
16300,-1048576,69,-56,-1,-1,0
16333,-393216,69,-56,-1,-1,0
16366,-327680,69,-56,-1,-1,0
16400,-131072,69,-56,-1,-1,0
16433,262144,69,-56,-1,-1,0
16466,851968,69,-56,-1,-1,0
16500,1245184,69,-56,-1,-1,0
16533,524288,69,-56,-1,-1,0
16566,-131072,69,-56,-1,-1,0
16600,131072,69,-56,-1,-1,0
16633,196608,69,-56,-1,-1,0
16666,196608,69,-56,-1,-1,0
16700,196608,69,-56,-1,-1,0
16733,0,69,-56,-1,-1,0
16766,65536,69,-56,-1,-1,0
16800,131072,69,-56,-1,-1,0
16833,65536,69,-56,-1,-1,0
16866,327680,69,-56,-1,-1,0
16900,196608,69,-56,-1,-1,0
16933,65536,69,-56,-1,-1,0
16966,2293760,69,-56,-1,-1,0
17000,65536,69,-56,-1,-1,0
17033,393216,70,-56,-1,-1,0
17066,393216,70,-56,-1,-1,0
17100,393216,70,-56,-1,-1,0
17133,720896,70,-56,-1,-1,0
17166,1441792,70,-56,-1,-1,0
17200,1703936,70,-56,-1,-1,0
17233,655360,70,-56,-1,-1,0
17266,65536,70,-56,-1,-1,0
17300,65536,70,-56,-1,-1,0
17333,65536,70,-56,-1,-1,0
17366,0,70,-56,-1,-1,0
17400,-131072,70,-56,-1,-1,0
17433,-327680,70,-56,-1,-1,0
17466,-327680,70,-56,-1,-1,0
17500,-458752,70,-56,-1,-1,0
17533,-327680,70,-56,-1,-1,0
17566,-131072,70,-56,-1,-1,0
17600,-262144,70,-56,-1,-1,0
17633,524288,70,-56,-1,-1,0
17666,-2359296,70,-56,-1,-1,0
17700,-393216,70,-56,-1,-1,0
17733,-196608,70,-56,-1,-1,0
17766,0,70,-56,-1,-1,0
17800,0,70,-56,-1,-1,0
17833,393216,70,-56,-1,-1,0
17866,983040,70,-56,-1,-1,0
17900,1048576,70,-56,-1,-1,0
17933,65536,70,-56,-1,-1,0
17966,-196608,70,-56,-1,-1,0
18000,-196608,70,-56,-1,-1,0
18033,-196608,70,-56,-1,-1,0
18066,-196608,70,-56,-1,-1,0
18100,-393216,70,-56,-1,-1,0
18133,-393216,70,-56,-1,-1,0
18166,-458752,70,-56,-1,-1,0
18200,-458752,70,-56,-1,-1,0
18233,-589824,70,-56,-1,-1,0
18266,-589824,70,-56,-1,-1,0
18300,-589824,70,-56,-1,-1,0
18333,786432,70,-56,-1,-1,0
18366,-2818048,70,-56,-1,-1,0
18400,-655360,70,-56,-1,-1,0
18433,-589824,70,-56,-1,-1,0
18466,-524288,70,-56,-1,-1,0
18500,-196608,70,-56,-1,-1,0
18533,0,70,-56,-1,-1,0
18566,655360,70,-56,-1,-1,0
18600,655360,70,-56,-1,-1,0
18633,-262144,70,-56,-1,-1,0
18666,-393216,70,-56,-1,-1,0
18700,-327680,70,-56,-1,-1,0
18733,-262144,70,-56,-1,-1,0
18766,-327680,70,-56,-1,-1,0
18800,-393216,70,-56,-1,-1,0
18833,-262144,70,-56,-1,-1,0
18866,-327680,70,-56,-1,-1,0
18900,-393216,70,-56,-1,-1,0
18933,-262144,70,-56,-1,-1,0
18966,-131072,70,-56,-1,-1,0
19000,-65536,70,-56,-1,-1,0
19033,1048576,70,-56,-1,-1,0
19066,-2162688,70,-56,-1,-1,0
19100,65536,70,-56,-1,-1,0
19133,262144,71,-56,-1,-1,0
19166,327680,71,-56,-1,-1,0
19200,458752,71,-56,-1,-1,0
19233,917504,71,-56,-1,-1,0
19266,1310720,71,-56,-1,-1,0
19300,1376256,71,-56,-1,-1,0
19333,131072,71,-56,-1,-1,0
19366,-196608,71,-56,-1,-1,0
19400,-262144,71,-56,-1,-1,0
19433,-196608,71,-56,-1,-1,0
19466,-393216,71,-56,-1,-1,0
19500,-393216,71,-56,-1,-1,0
19533,-458752,71,-56,-1,-1,0
19566,-524288,71,-56,-1,-1,0
19600,-589824,71,-56,-1,-1,0
19633,-589824,71,-56,-1,-1,0
19666,-327680,71,-56,-1,-1,0
19700,-458752,71,-56,-1,-1,0
19733,0,71,-56,-1,-1,0
19766,-2555904,71,-56,-1,-1,0
19800,-524288,71,-56,-1,-1,0
19833,-393216,70,-56,-1,-1,0
19866,-262144,70,-56,-1,-1,0
19900,-65536,70,-56,-1,-1,0
19933,131072,70,-56,-1,-1,0
19966,720896,70,-56,-1,-1,0
20000,851968,70,-56,-1,-1,0
20033,0,70,-56,-1,-1,0
20066,-393216,70,-56,-1,-1,0
20100,-327680,70,-56,-1,-1,0
20133,-262144,70,-56,-1,-1,0
20166,-131072,70,-56,-1,-1,0
20200,-262144,70,-56,-1,-1,0
20233,-262144,70,-56,-1,-1,0
20266,-393216,70,-56,-1,-1,0
20300,-458752,70,-56,-1,-1,0
20333,-524288,70,-56,-1,-1,0
20366,-393216,70,-56,-1,-1,0
20400,-524288,70,-56,-1,-1,0
20433,-524288,70,-56,-1,-1,0
20466,-1441792,70,-56,-1,-1,0
20500,-720896,70,-56,-1,-1,0
20533,-589824,71,-56,-1,-1,0
20566,-524288,71,-56,-1,-1,0
20600,-393216,71,-56,-1,-1,0
20633,-131072,71,-56,-1,-1,0
20666,393216,71,-56,-1,-1,0
20700,786432,71,-56,-1,-1,0
20733,-196608,71,-56,-1,-1,0
20766,-589824,71,-56,-1,-1,0
20800,-393216,71,-56,-1,-1,0
20833,-131072,71,-56,-1,-1,0
20866,-196608,71,-56,-1,-1,0
20900,-131072,71,-56,-1,-1,0
20933,-196608,71,-56,-1,-1,0
20966,-65536,71,-56,-1,-1,0
21000,-65536,71,-56,-1,-1,0
21033,196608,71,-56,-1,-1,0
21066,327680,71,-56,-1,-1,0
21100,327680,71,-56,-1,-1,0
21133,4456448,71,-56,-1,-1,0
21166,-917504,71,-56,-1,-1,0
21200,458752,71,-56,-1,-1,0
21233,589824,71,-56,-1,-1,0
21266,786432,71,-56,-1,-1,0
21300,851968,71,-56,-1,-1,0
21333,1441792,71,-56,-1,-1,0
21366,1900544,71,-56,-1,-1,0
21400,1507328,71,-56,-1,-1,0
21433,589824,71,-56,-1,-1,0
21466,393216,71,-56,-1,-1,0
21500,458752,71,-56,-1,-1,0
21533,524288,71,-56,-1,-1,0
21566,327680,71,-56,-1,-1,0
21600,196608,71,-56,-1,-1,0
21633,0,71,-56,-1,-1,0
21666,-131072,71,-56,-1,-1,0
21700,-524288,71,-56,-1,-1,0
21733,-458752,71,-56,-1,-1,0
21766,-786432,71,-56,-1,-1,0
21800,-917504,71,-56,-1,-1,0
21833,3735552,71,-56,-1,-1,0
21866,-1900544,71,-56,-1,-1,0
21900,-786432,71,-56,-1,-1,0
21933,-589824,71,-56,-1,-1,0
21966,-524288,71,-56,-1,-1,0
22000,-262144,71,-56,-1,-1,0
22033,131072,71,-56,-1,-1,0
22066,786432,71,-56,-1,-1,0
22100,393216,71,-56,-1,-1,0
22133,-262144,71,-56,-1,-1,0
22166,-524288,71,-56,-1,-1,0
22200,-524288,71,-56,-1,-1,0
22233,-524288,71,-56,-1,-1,0
22266,-655360,71,-56,-1,-1,0
22300,-786432,71,-56,-1,-1,0
22333,-786432,71,-56,-1,-1,0
22366,-917504,71,-56,-1,-1,0
22400,-1114112,71,-56,-1,-1,0
22433,-983040,71,-56,-1,-1,0
22466,-917504,71,-56,-1,-1,0
22500,-786432,71,-56,-1,-1,0
22533,1507328,71,-56,-1,-1,0
22566,-2555904,71,-56,-1,-1,0
22600,-458752,71,-56,-1,-1,0
22633,0,71,-56,-1,-1,0
22666,65536,71,-56,-1,-1,0
22700,327680,71,-56,-1,-1,0
22733,851968,71,-56,-1,-1,0
22766,1638400,71,-56,-1,-1,0
22800,1769472,71,-56,-1,-1,0
22833,589824,71,-56,-1,-1,0
22866,393216,71,-56,-1,-1,0
22900,458752,71,-56,-1,-1,0
22933,458752,71,-56,-1,-1,0
22966,524288,71,-56,-1,-1,0
23000,458752,71,-56,-1,-1,0
23033,458752,71,-56,-1,-1,0
23066,393216,71,-56,-1,-1,0
23100,196608,71,-56,-1,-1,0
23133,393216,71,-56,-1,-1,0
23166,65536,71,-56,-1,-1,0
23200,0,71,-56,-1,-1,0
23233,196608,71,-56,-1,-1,0
23266,0,71,-56,-1,-1,0
23300,262144,71,-56,-1,-1,0
23333,327680,71,-56,-1,-1,0
23366,393216,71,-56,-1,-1,0
23400,720896,71,-56,-1,-1,0
23433,1376256,71,-56,-1,-1,0
23466,1769472,71,-56,-1,-1,0
23500,524288,71,-56,-1,-1,0
23533,-131072,71,-56,-1,-1,0
23566,-131072,71,-56,-1,-1,0
23600,-131072,71,-56,-1,-1,0
23633,-262144,71,-56,-1,-1,0
23666,-327680,71,-56,-1,-1,0
23700,-458752,71,-56,-1,-1,0
23733,-655360,71,-56,-1,-1,0
23766,-1114112,71,-56,-1,-1,0
23800,-1114112,71,-56,-1,-1,0
23833,-1376256,71,-56,-1,-1,0
23866,-1376256,71,-56,-1,-1,0
23900,4456448,71,-56,-1,-1,0
23933,-1572864,71,-56,-1,-1,0
23966,-655360,71,-56,-1,-1,0
24000,-393216,71,-56,-1,-1,0
24033,-131072,71,-56,-1,-1,0
24066,327680,71,-56,-1,-1,0
24100,1179648,71,-56,-1,-1,0
24133,1900544,71,-56,-1,-1,0
24166,1441792,71,-56,-1,-1,0
24200,589824,71,-56,-1,-1,0
24233,524288,71,-56,-1,-1,0
24266,524288,71,-56,-1,-1,0
24300,589824,71,-56,-1,-1,0
24333,458752,71,-56,-1,-1,0
24366,589824,71,-56,-1,-1,0
24400,1048576,71,-56,-1,-1,0
24433,1245184,71,-56,-1,-1,0
24466,1572864,71,-56,-1,-1,0
24500,1572864,71,-56,-1,-1,0
24533,1507328,71,-56,-1,-1,0
24566,7012352,71,-56,-1,-1,0
24600,1114112,71,-56,-1,-1,0
24633,1900544,72,-56,-1,-1,0
24666,-589824,72,-56,-1,-1,0
24700,2031616,72,-56,-1,-1,0
24733,1441792,72,-56,-1,-1,0
24766,720896,72,-56,-1,-1,0
24800,983040,72,-56,-1,-1,0
24833,851968,72,-56,-1,-1,0
24866,0,72,-56,-1,-1,0
24900,-1900544,72,-56,-1,-1,0
24933,-917504,72,-56,-1,-1,0
24966,-524288,72,-56,-1,-1,0
25000,-1507328,72,-56,-1,-1,0
25033,-3473408,72,-56,-1,-1,0
25066,-1114112,72,-56,-1,-1,0
25100,-1179648,72,-56,-1,-1,0
25133,-1769472,72,-56,-1,-1,0
25166,-1638400,72,-56,-1,-1,0
25200,-2097152,72,-56,-1,-1,0
25233,2555904,72,-56,-1,-1,0
25266,-2031616,72,-56,-1,-1,0
25300,-655360,72,-56,-1,-1,0
25333,-458752,72,-56,-1,-1,0
25366,-393216,72,-56,-1,-1,0
25400,262144,72,-56,-1,-1,0
25433,458752,72,-56,-1,-1,0
25466,917504,72,-56,-1,-1,0
25500,196608,72,-56,-1,-1,0
25533,196608,72,-56,-1,-1,0
25566,-262144,72,-56,-1,-1,0
25600,-917504,72,-56,-1,-1,0
25633,-851968,72,-56,-1,-1,0
25666,-917504,72,-56,-1,-1,0
25700,-65536,72,-56,-1,-1,0
25733,-655360,72,-56,-1,-1,0
25766,-786432,72,-56,-1,-1,0
25800,-524288,72,-56,-1,-1,0
25833,-524288,72,-56,-1,-1,0
25866,-393216,72,-56,-1,-1,0
25900,-2949120,72,-56,-1,-1,0
25933,-786432,72,-56,-1,-1,0
25966,-524288,72,-56,-1,-1,0
26000,-524288,72,-56,-1,-1,0
26033,-131072,72,-56,-1,-1,0
26066,524288,72,-56,-1,-1,0
26099,1179648,72,-56,-1,-1,0
26133,1441792,72,-56,-1,-1,0
26166,393216,72,-56,-1,-1,0
26200,65536,72,-56,-1,-1,0
26233,262144,72,-56,-1,-1,0
26266,-131072,72,-56,-1,-1,0
26300,-262144,72,-56,-1,-1,0
26333,-655360,72,-56,-1,-1,0
26366,-589824,72,-56,-1,-1,0
26400,-393216,72,-56,-1,-1,0
26433,-524288,72,-56,-1,-1,0
26466,262144,72,-56,-1,-1,0
26500,-2162688,72,-56,-1,-1,0
26533,327680,72,-56,-1,-1,0
26566,524288,72,-56,-1,-1,0
26599,786432,72,-56,-1,-1,0
26633,1245184,72,-56,-1,-1,0
26666,1507328,72,-56,-1,-1,0
26700,1769472,72,-56,-1,-1,0
26733,1572864,72,-56,-1,-1,0
26766,196608,72,-56,-1,-1,0
26800,-131072,72,-56,-1,-1,0
26833,0,72,-56,-1,-1,0
26866,-65536,72,-56,-1,-1,0
26900,-393216,72,-56,-1,-1,0
26933,-655360,72,-56,-1,-1,0
26966,-851968,72,-56,-1,-1,0
27000,-786432,72,-56,-1,-1,0
27033,-1179648,72,-56,-1,-1,0
27066,-1245184,73,-56,-1,-1,0
27099,2949120,73,-56,-1,-1,0
27133,-2555904,73,-56,-1,-1,0
27166,-983040,73,-56,-1,-1,0
27200,-851968,73,-56,-1,-1,0
27233,-655360,73,-56,-1,-1,0
27266,-524288,73,-56,-1,-1,0
27300,196608,73,-56,-1,-1,0
27333,851968,73,-56,-1,-1,0
27366,524288,73,-56,-1,-1,0
27400,-393216,73,-56,-1,-1,0
27433,-655360,73,-56,-1,-1,0
27466,-262144,73,-56,-1,-1,0
27500,-327680,73,-56,-1,-1,0
27533,-327680,73,-56,-1,-1,0
27566,-524288,73,-56,-1,-1,0
27599,-327680,73,-56,-1,-1,0
27633,-393216,73,-56,-1,-1,0
27666,458752,73,-56,-1,-1,0
27700,-2555904,73,-56,-1,-1,0
27733,-393216,73,-56,-1,-1,0
27766,-65536,73,-56,-1,-1,0
27800,0,73,-56,-1,-1,0
27833,131072,73,-56,-1,-1,0
27866,458752,73,-56,-1,-1,0
27900,1310720,73,-56,-1,-1,0
27933,1114112,73,-56,-1,-1,0
27966,-262144,73,-56,-1,-1,0
28000,-524288,73,-56,-1,-1,0
28033,-458752,73,-56,-1,-1,0
28066,-327680,73,-56,-1,-1,0
28099,-589824,73,-56,-1,-1,0
28133,-786432,73,-56,-1,-1,0
28166,-983040,73,-56,-1,-1,0
28200,-917504,73,-56,-1,-1,0
28233,-917504,73,-56,-1,-1,0
28266,1376256,73,-56,-1,-1,0
28300,-2883584,75,-56,-1,-1,0
28333,-851968,75,-56,-1,-1,0
28366,-720896,75,-56,-1,-1,0
28400,-524288,75,-56,-1,-1,0
28433,-327680,75,-56,-1,-1,0
28466,65536,75,-56,-1,-1,0
28500,917504,75,-56,-1,-1,0
28533,589824,75,-56,-1,-1,0
28566,-262144,75,-56,-1,-1,0
28599,-524288,75,-56,-1,-1,0
28633,-393216,75,-56,-1,-1,0
28666,-327680,75,-56,-1,-1,0
28700,-393216,75,-56,-1,-1,0
28733,-524288,75,-56,-1,-1,0
28766,-589824,75,-56,-1,-1,0
28800,-262144,75,-56,-1,-1,0
28833,-524288,75,-56,-1,-1,0
28866,-786432,75,-56,-1,-1,0
28900,2621440,75,-56,-1,-1,0
28933,-1048576,75,-56,-1,-1,0
28966,-524288,76,-56,-1,-1,0
29000,-524288,76,-56,-1,-1,0
29033,-327680,76,-56,-1,-1,0
29066,0,76,-56,-1,-1,0
29099,851968,76,-56,-1,-1,0
29133,1310720,76,-56,-1,-1,0
29166,393216,76,-56,-1,-1,0
29200,-262144,76,-56,-1,-1,0
29233,-262144,76,-56,-1,-1,0
29266,0,76,-56,-1,-1,0
29300,0,76,-56,-1,-1,0
29333,0,76,-56,-1,-1,0
29366,0,76,-56,-1,-1,0
29400,196608,76,-56,-1,-1,0
29433,65536,76,-56,-1,-1,0
29466,131072,76,-56,-1,-1,0
29500,262144,76,-56,-1,-1,0
29533,262144,76,-56,-1,-1,0
29566,3866624,76,-56,-1,-1,0
29599,-131072,76,-56,-1,-1,0
29633,524288,76,-56,-1,-1,0
29666,458752,76,-56,-1,-1,0
29700,524288,76,-56,-1,-1,0
29733,720896,76,-56,-1,-1,0
29766,1245184,76,-56,-1,-1,0
29800,1572864,76,-56,-1,-1,0
29833,458752,76,-56,-1,-1,0
29866,-786432,76,-56,-1,-1,0
29900,-1114112,76,-56,-1,-1,0
29933,-1048576,76,-56,-1,-1,0
29966,-786432,76,-56,-1,-1,0
30000,-196608,76,-56,-1,-1,0
30033,65536,76,-56,-1,-1,0
30066,65536,76,-56,-1,-1,0
30099,-196608,76,-56,-1,-1,0
30133,-524288,76,-56,-1,-1,0
30166,-720896,76,-56,-1,-1,0
30200,-917504,76,-56,-1,-1,0
30233,4718592,76,-56,-1,-1,0
30266,-1638400,76,-56,-1,-1,0
30300,-262144,76,-56,-1,-1,0
30333,-196608,76,-56,-1,-1,0
30366,-196608,76,-56,-1,-1,0
30400,-65536,76,-56,-1,-1,0
30433,655360,76,-56,-1,-1,0
30466,1376256,76,-56,-1,-1,0
30500,1114112,76,-56,-1,-1,0
30533,655360,76,-56,-1,-1,0
30566,720896,76,-56,-1,-1,0
30599,720896,76,-56,-1,-1,0
30633,262144,76,-56,-1,-1,0
30666,196608,76,-56,-1,-1,0
30700,0,76,-56,-1,-1,0
30733,65536,76,-56,-1,-1,0
30766,196608,76,-56,-1,-1,0
30800,458752,76,-56,-1,-1,0
30833,131072,76,-56,-1,-1,0
30866,0,76,-56,-1,-1,0
30900,-589824,76,-56,-1,-1,0
30933,4587520,76,-56,-1,-1,0
30966,-1507328,76,-56,-1,-1,0
31000,-196608,76,-56,-1,-1,0
31033,65536,76,-56,-1,-1,0
31066,393216,76,-56,-1,-1,0
31099,720896,76,-56,-1,-1,0
31133,1310720,76,-56,-1,-1,0
31166,1835008,76,-56,-1,-1,0
31200,983040,76,-56,-1,-1,0
31233,-262144,76,-56,-1,-1,0
31266,-655360,76,-56,-1,-1,0
31300,-655360,76,-56,-1,-1,0
31333,-524288,76,-56,-1,-1,0
31366,-458752,76,-56,-1,-1,0
31400,-196608,76,-56,-1,-1,0
31433,-65536,76,-56,-1,-1,0
31466,0,76,-56,-1,-1,0
31500,-131072,76,-56,-1,-1,0
31533,-262144,76,-56,-1,-1,0
31566,-262144,76,-56,-1,-1,0
31599,-196608,76,-56,-1,-1,0
31633,-196608,76,-56,-1,-1,0
31666,5242880,76,-56,-1,-1,0
31700,-655360,76,-56,-1,-1,0
31733,-196608,76,-56,-1,-1,0
31766,-65536,76,-56,-1,-1,0
31800,-65536,76,-56,-1,-1,0
31833,327680,76,-56,-1,-1,0
31866,1048576,76,-56,-1,-1,0
31900,1769472,76,-56,-1,-1,0
31933,851968,76,-56,-1,-1,0
31966,-458752,76,-56,-1,-1,0
32000,-1114112,76,-56,-1,-1,0
32033,-1114112,76,-56,-1,-1,0
32066,-983040,76,-56,-1,-1,0
32100,-983040,76,-56,-1,-1,0
32133,-851968,76,-56,-1,-1,0
32166,-655360,76,-56,-1,-1,0
32200,-327680,76,-56,-1,-1,0
32233,-327680,76,-56,-1,-1,0
32266,-65536,76,-56,-1,-1,0
32299,0,76,-56,-1,-1,0
32333,-65536,76,-56,-1,-1,0
32366,5439488,76,-56,-1,-1,0
32400,-720896,76,-56,-1,-1,0
32433,65536,76,-56,-1,-1,0
32466,0,76,-56,-1,-1,0
32500,0,76,-56,-1,-1,0
32533,131072,76,-56,-1,-1,0
32566,589824,76,-56,-1,-1,0
32600,1179648,76,-56,-1,-1,0
32633,393216,76,-56,-1,-1,0
32666,-589824,76,-56,-1,-1,0
32700,-655360,76,-56,-1,-1,0
32733,-589824,76,-56,-1,-1,0
32766,-655360,76,-56,-1,-1,0
32800,-589824,76,-56,-1,-1,0
32833,-589824,76,-56,-1,-1,0
32866,-655360,76,-56,-1,-1,0
32900,-589824,76,-56,-1,-1,0
32933,-655360,76,-56,-1,-1,0
32966,-851968,76,-56,-1,-1,0
33000,-851968,76,-56,-1,-1,0
33033,-983040,76,-56,-1,-1,0
33066,851968,76,-56,-1,-1,0
33100,-3080192,76,-56,-1,-1,0
33133,-983040,76,-56,-1,-1,0
33166,-983040,75,-56,-1,-1,0
33200,-983040,75,-56,-1,-1,0
33233,-917504,75,-56,-1,-1,0
33266,-393216,75,-56,-1,-1,0
33300,131072,75,-56,-1,-1,0
33333,131072,75,-56,-1,-1,0
33366,-720896,75,-56,-1,-1,0
33400,-786432,75,-56,-1,-1,0
33433,-393216,75,-56,-1,-1,0
33466,65536,75,-56,-1,-1,0
33500,262144,75,-56,-1,-1,0
33533,196608,75,-56,-1,-1,0
33566,524288,75,-56,-1,-1,0
33600,720896,75,-56,-1,-1,0
33633,720896,75,-56,-1,-1,0
33666,720896,75,-56,-1,-1,0
33700,786432,75,-56,-1,-1,0
33733,589824,75,-56,-1,-1,0
33766,983040,75,-56,-1,-1,0
33800,-327680,75,-56,-1,-1,0
33833,1703936,75,-56,-1,-1,0
33866,2162688,75,-56,-1,-1,0
33900,2555904,74,-56,-1,-1,0
33933,2752512,74,-56,-1,-1,0
33966,2621440,74,-56,-1,-1,0
34000,2621440,74,-56,-1,-1,0
34033,2031616,74,-56,-1,-1,0
34066,393216,74,-56,-1,-1,0
34100,0,74,-56,-1,-1,0
34133,0,74,-56,-1,-1,0
34166,-131072,74,-56,-1,-1,0
34200,-262144,74,-56,-1,-1,0
34233,-327680,74,-56,-1,-1,0
34266,-131072,74,-56,-1,-1,0
34300,131072,74,-56,-1,-1,0
34333,262144,74,-56,-1,-1,0
34366,262144,74,-56,-1,-1,0
34400,393216,74,-56,-1,-1,0
34433,131072,74,-56,-1,-1,0
34466,0,74,-56,-1,-1,0
34500,4325376,74,-56,-1,-1,0
34533,-917504,74,-56,-1,-1,0
34566,-393216,74,-56,-1,-1,0
34600,-458752,74,-56,-1,-1,0
34633,-524288,72,-56,-1,-1,0
34666,-262144,72,-56,-1,-1,0
34700,327680,72,-56,-1,-1,0
34733,851968,72,-56,-1,-1,0
34766,327680,72,-56,-1,-1,0
34800,-262144,72,-56,-1,-1,0
34833,-262144,72,-56,-1,-1,0
34866,-327680,72,-56,-1,-1,0
34900,-327680,72,-56,-1,-1,0
34933,-458752,72,-56,-1,-1,0
34966,-524288,72,-56,-1,-1,0
35000,-524288,72,-56,-1,-1,0
35033,-524288,72,-56,-1,-1,0
35066,-589824,72,-56,-1,-1,0
35100,-524288,72,-56,-1,-1,0
35133,-458752,72,-56,-1,-1,0
35166,-393216,72,-56,-1,-1,0
35200,-589824,72,-56,-1,-1,0
35233,3342336,72,-56,-1,-1,0
35266,-1114112,72,-56,-1,-1,0
35300,-655360,72,-56,-1,-1,0
35333,-655360,71,-56,-1,-1,0
35366,-589824,71,-56,-1,-1,0
35400,-327680,71,-56,-1,-1,0
35433,65536,71,-56,-1,-1,0
35466,589824,71,-56,-1,-1,0
35500,-327680,71,-56,-1,-1,0
35533,-917504,71,-56,-1,-1,0
35566,-1048576,71,-56,-1,-1,0
35600,-983040,71,-56,-1,-1,0
35633,-917504,71,-56,-1,-1,0
35666,-1114112,71,-56,-1,-1,0
35700,-1245184,71,-56,-1,-1,0
35733,-1245184,71,-56,-1,-1,0
35766,-1179648,71,-56,-1,-1,0
35800,-1114112,71,-56,-1,-1,0
35833,-1114112,71,-56,-1,-1,0
35866,-786432,71,-56,-1,-1,0
35900,-851968,71,-56,-1,-1,0
35933,131072,71,-56,-1,-1,0
35966,-2949120,71,-56,-1,-1,0
36000,-458752,70,-56,-1,-1,0
36033,-131072,70,-56,-1,-1,0
36066,-65536,70,-56,-1,-1,0
36100,196608,70,-56,-1,-1,0
36133,720896,70,-56,-1,-1,0
36166,1507328,70,-56,-1,-1,0
36200,1376256,70,-56,-1,-1,0
36233,65536,70,-56,-1,-1,0
36266,-262144,70,-56,-1,-1,0
36300,-65536,70,-56,-1,-1,0
36333,-131072,70,-56,-1,-1,0
36366,-262144,70,-56,-1,-1,0
36400,-262144,70,-56,-1,-1,0
36433,-393216,70,-56,-1,-1,0
36466,-327680,70,-56,-1,-1,0
36500,-393216,70,-56,-1,-1,0
36533,-196608,70,-56,-1,-1,0
36566,-196608,70,-56,-1,-1,0
36600,1769472,70,-56,-1,-1,0
36633,-2228224,70,-56,-1,-1,0
36666,-65536,70,-56,-1,-1,0
36700,0,70,-56,-1,-1,0
36733,131072,70,-56,-1,-1,0
36766,327680,70,-56,-1,-1,0
36800,851968,70,-56,-1,-1,0
36833,1638400,70,-56,-1,-1,0
36866,1376256,70,-56,-1,-1,0
36900,131072,70,-56,-1,-1,0
36933,-65536,70,-56,-1,-1,0
36966,65536,70,-56,-1,-1,0
37000,196608,70,-56,-1,-1,0
37033,196608,70,-56,-1,-1,0
37066,65536,70,-56,-1,-1,0
37100,-65536,70,-56,-1,-1,0
37133,0,70,-56,-1,-1,0
37166,-131072,70,-56,-1,-1,0
37200,-131072,70,-56,-1,-1,0
37233,-131072,70,-56,-1,-1,0
37266,3735552,70,-56,-1,-1,0
37300,-1638400,70,-56,-1,-1,0
37333,-131072,70,-56,-1,-1,0
37366,-196608,70,-56,-1,-1,0
37400,-131072,70,-56,-1,-1,0
37433,196608,70,-56,-1,-1,0
37466,1245184,70,-56,-1,-1,0
37500,2490368,70,-56,-1,-1,0
37533,2031616,70,-56,-1,-1,0
37566,983040,70,-56,-1,-1,0
37600,327680,70,-56,-1,-1,0
37633,-458752,70,-56,-1,-1,0
37666,-1048576,70,-56,-1,-1,0
37700,-1441792,70,-56,-1,-1,0
37733,-1441792,70,-56,-1,-1,0
37766,-1114112,70,-56,-1,-1,0
37800,-786432,70,-56,-1,-1,0
37833,-327680,70,-56,-1,-1,0
37866,196608,70,-56,-1,-1,0
37900,196608,70,-56,-1,-1,0
37933,131072,70,-56,-1,-1,0
37966,-262144,70,-56,-1,-1,0
38000,-524288,70,-56,-1,-1,0
38033,2686976,70,-56,-1,-1,0
38066,-720896,70,-56,-1,-1,0
38100,0,70,-56,-1,-1,0
38133,196608,70,-56,-1,-1,0
38166,458752,70,-56,-1,-1,0
38200,851968,70,-56,-1,-1,0
38233,1769472,70,-56,-1,-1,0
38266,2490368,70,-56,-1,-1,0
38300,1572864,70,-56,-1,-1,0
38333,983040,70,-56,-1,-1,0
38366,1114112,70,-56,-1,-1,0
38400,1376256,70,-56,-1,-1,0
38433,1441792,70,-56,-1,-1,0
38466,851968,70,-56,-1,-1,0
38500,65536,70,-56,-1,-1,0
38533,-983040,70,-56,-1,-1,0
38566,-1966080,70,-56,-1,-1,0
38600,-2490368,70,-56,-1,-1,0
38633,-2424832,70,-56,-1,-1,0
38666,-2359296,70,-56,-1,-1,0
38700,-2359296,70,-56,-1,-1,0
38733,-1966080,70,-56,-1,-1,0
38766,-1572864,70,-56,-1,-1,0
38800,-1114112,70,-56,-1,-1,0
38833,-65536,70,-56,-1,-1,0
38866,-655360,70,-56,-1,-1,0
38900,-524288,70,-56,-1,-1,0
38933,-458752,70,-56,-1,-1,0
38966,-327680,69,-56,-1,-1,0
39000,0,69,-56,-1,-1,0
39033,851968,69,-56,-1,-1,0
39066,1572864,69,-56,-1,-1,0
39100,720896,69,-56,-1,-1,0
39133,131072,69,-56,-1,-1,0
39166,196608,69,-56,-1,-1,0
39200,196608,69,-56,-1,-1,0
39233,262144,69,-56,-1,-1,0
39266,0,69,-56,-1,-1,0
39300,65536,69,-56,-1,-1,0
39333,65536,69,-56,-1,-1,0
39366,131072,69,-56,-1,-1,0
39400,131072,69,-56,-1,-1,0
39433,0,69,-56,-1,-1,0
39466,0,69,-56,-1,-1,0
39500,-131072,69,-56,-1,-1,0
39533,-196608,69,-56,-1,-1,0
39566,4521984,69,-56,-1,-1,0
39600,-983040,69,-56,-1,-1,0
39633,196608,69,-56,-1,-1,0
39666,262144,69,-56,-1,-1,0
39700,131072,69,-56,-1,-1,0
39733,0,69,-56,-1,-1,0
39766,458752,69,-56,-1,-1,0
39800,1245184,69,-56,-1,-1,0
39833,851968,69,-56,-1,-1,0
39866,65536,69,-56,-1,-1,0
39900,-196608,69,-56,-1,-1,0
39933,-196608,69,-56,-1,-1,0
39966,-262144,69,-56,-1,-1,0
40000,-458752,69,-56,-1,-1,0
40033,-524288,69,-56,-1,-1,0
40066,-393216,69,-56,-1,-1,0
40100,-327680,69,-56,-1,-1,0
40133,-262144,69,-56,-1,-1,0
40166,-327680,69,-56,-1,-1,0
40200,-131072,69,-56,-1,-1,0
40233,-262144,69,-56,-1,-1,0
40266,-327680,69,-56,-1,-1,0
40300,4325376,69,-56,-1,-1,0
40333,-1703936,69,-56,-1,-1,0
40366,-262144,69,-56,-1,-1,0
40400,-196608,69,-56,-1,-1,0
40433,0,69,-56,-1,-1,0
40466,131072,69,-56,-1,-1,0
40500,851968,69,-56,-1,-1,0
40533,1572864,69,-56,-1,-1,0
40566,917504,69,-56,-1,-1,0
40600,-196608,69,-56,-1,-1,0
40633,-524288,69,-56,-1,-1,0
40666,-262144,69,-56,-1,-1,0
40700,-196608,69,-56,-1,-1,0
40733,-458752,69,-56,-1,-1,0
40766,-524288,69,-56,-1,-1,0
40800,-720896,69,-56,-1,-1,0
40833,-786432,69,-56,-1,-1,0
40866,-851968,69,-56,-1,-1,0
40900,-983040,69,-56,-1,-1,0
40933,-786432,69,-56,-1,-1,0
40966,-917504,69,-56,-1,-1,0
41000,-917504,69,-56,-1,-1,0
41033,4325376,69,-56,-1,-1,0
41066,-1835008,69,-56,-1,-1,0
41100,-458752,69,-56,-1,-1,0
41133,-262144,69,-56,-1,-1,0
41166,-131072,69,-56,-1,-1,0
41200,0,69,-56,-1,-1,0
41233,851968,69,-56,-1,-1,0
41266,1900544,69,-56,-1,-1,0
41300,1310720,69,-56,-1,-1,0
41333,65536,69,-56,-1,-1,0
41366,-196608,69,-56,-1,-1,0
41400,-196608,69,-56,-1,-1,0
41433,-131072,69,-56,-1,-1,0
41466,-262144,69,-56,-1,-1,0
41500,-393216,69,-56,-1,-1,0
41533,-524288,69,-56,-1,-1,0
41566,-655360,69,-56,-1,-1,0
41600,-655360,69,-56,-1,-1,0
41633,-458752,69,-56,-1,-1,0
41666,-589824,69,-56,-1,-1,0
41700,-327680,69,-56,-1,-1,0
41733,-786432,69,-56,-1,-1,0
41766,-589824,69,-56,-1,-1,0
41800,-262144,69,-56,-1,-1,0
41833,-131072,69,-56,-1,-1,0
41866,-65536,69,-56,-1,-1,0
41900,327680,69,-56,-1,-1,0
41933,1376256,69,-56,-1,-1,0
41966,1769472,69,-56,-1,-1,0
42000,196608,69,-56,-1,-1,0
42033,-196608,69,-56,-1,-1,0
42066,-131072,69,-56,-1,-1,0
42100,65536,69,-56,-1,-1,0
42133,0,69,-56,-1,-1,0
42166,0,69,-56,-1,-1,0
42200,-131072,69,-56,-1,-1,0
42233,-131072,69,-56,-1,-1,0
42266,-131072,69,-56,-1,-1,0
42300,-393216,69,-56,-1,-1,0
42333,0,69,-56,-1,-1,0
42366,-196608,69,-56,-1,-1,0
42400,-196608,69,-56,-1,-1,0
42433,458752,69,-56,-1,-1,0
42466,-262144,69,-56,-1,-1,0
42500,0,69,-56,-1,-1,0
42533,0,69,-56,-1,-1,0
42566,131072,69,-56,-1,-1,0
42600,458752,69,-56,-1,-1,0
42633,1245184,69,-56,-1,-1,0
42666,1966080,69,-56,-1,-1,0
42700,524288,69,-56,-1,-1,0
42733,-131072,69,-56,-1,-1,0
42766,-131072,69,-56,-1,-1,0
42800,0,69,-56,-1,-1,0
42833,-65536,69,-56,-1,-1,0
42866,-196608,69,-56,-1,-1,0
42900,-262144,69,-56,-1,-1,0
42933,-393216,69,-56,-1,-1,0
42966,-393216,69,-56,-1,-1,0
43000,-524288,69,-56,-1,-1,0
43033,-393216,69,-56,-1,-1,0
43066,-589824,69,-56,-1,-1,0
43100,-393216,69,-56,-1,-1,0
43133,-1114112,69,-56,-1,-1,0
43166,-655360,69,-56,-1,-1,0
43200,-327680,69,-56,-1,-1,0
43233,-196608,69,-56,-1,-1,0
43266,-131072,69,-56,-1,-1,0
43300,262144,69,-56,-1,-1,0
43333,1179648,69,-56,-1,-1,0
43366,1638400,69,-56,-1,-1,0
43400,0,69,-56,-1,-1,0
43433,-393216,69,-56,-1,-1,0
43466,-393216,69,-56,-1,-1,0
43500,-196608,69,-56,-1,-1,0
43533,-131072,69,-56,-1,-1,0
43566,-196608,69,-56,-1,-1,0
43600,-196608,69,-56,-1,-1,0
43633,-262144,69,-56,-1,-1,0
43666,-196608,69,-56,-1,-1,0
43700,-458752,69,-56,-1,-1,0
43733,-262144,69,-56,-1,-1,0
43766,-131072,69,-56,-1,-1,0
43800,2424832,69,-56,-1,-1,0
43833,-2228224,69,-56,-1,-1,0
43866,-196608,69,-56,-1,-1,0
43900,-65536,70,-56,-1,-1,0
43933,65536,70,-56,-1,-1,0
43966,196608,70,-56,-1,-1,0
44000,720896,70,-56,-1,-1,0
44033,1769472,70,-56,-1,-1,0
44066,1507328,70,-56,-1,-1,0
44100,-65536,70,-56,-1,-1,0
44133,-393216,70,-56,-1,-1,0
44166,-589824,70,-56,-1,-1,0
44200,0,70,-56,-1,-1,0
44233,-393216,70,-56,-1,-1,0
44266,-589824,70,-56,-1,-1,0
44300,-458752,70,-56,-1,-1,0
44333,0,70,-56,-1,-1,0
44366,65536,70,-56,-1,-1,0
44400,-131072,70,-56,-1,-1,0
44433,-327680,70,-56,-1,-1,0
44466,-589824,70,-56,-1,-1,0
44500,983040,70,-56,-1,-1,0
44533,-2097152,70,-56,-1,-1,0
44566,327680,70,-56,-1,-1,0
44600,589824,70,-56,-1,-1,0
44633,262144,70,-56,-1,-1,0
44666,0,70,-56,-1,-1,0
44700,-65536,70,-56,-1,-1,0
44733,851968,70,-56,-1,-1,0
44766,983040,70,-56,-1,-1,0
44800,-196608,70,-56,-1,-1,0
44833,-393216,70,-56,-1,-1,0
44866,-458752,70,-56,-1,-1,0
44900,-262144,70,-56,-1,-1,0
44933,-589824,70,-56,-1,-1,0
44966,-720896,70,-56,-1,-1,0
45000,-1179648,70,-56,-1,-1,0
45033,-1507328,70,-56,-1,-1,0
45066,-1310720,70,-56,-1,-1,0
45100,-720896,70,-56,-1,-1,0
45133,-393216,70,-56,-1,-1,0
45166,-524288,70,-56,-1,-1,0
45200,-786432,70,-56,-1,-1,0
45233,5046272,70,-56,-1,-1,0
45266,-1245184,70,-56,-1,-1,0
45300,-327680,70,-56,-1,-1,0
45333,-393216,69,-56,-1,-1,0
45366,0,69,-56,-1,-1,0
45400,393216,69,-56,-1,-1,0
45433,458752,69,-56,-1,-1,0
45466,1572864,69,-56,-1,-1,0
45500,1179648,69,-56,-1,-1,0
45533,196608,69,-56,-1,-1,0
45566,393216,69,-56,-1,-1,0
45600,524288,69,-56,-1,-1,0
45633,655360,69,-56,-1,-1,0
45666,393216,69,-56,-1,-1,0
45700,0,69,-56,-1,-1,0
45733,-262144,69,-56,-1,-1,0
45766,-458752,69,-56,-1,-1,0
45800,-983040,69,-56,-1,-1,0
45833,-1048576,69,-56,-1,-1,0
45866,-655360,69,-56,-1,-1,0
45900,-393216,69,-56,-1,-1,0
45933,655360,69,-56,-1,-1,0
45966,-917504,69,-56,-1,-1,0
46000,786432,69,-56,-1,-1,0
46033,1310720,69,-56,-1,-1,0
46066,1572864,70,-56,-1,-1,0
46100,1638400,70,-56,-1,-1,0
46133,1966080,70,-56,-1,-1,0
46166,1966080,70,-56,-1,-1,0
46200,786432,70,-56,-1,-1,0
46233,-1376256,70,-56,-1,-1,0
46266,-2097152,70,-56,-1,-1,0
46300,-1507328,70,-56,-1,-1,0
46333,-1245184,70,-56,-1,-1,0
46366,-786432,70,-56,-1,-1,0
46400,-589824,70,-56,-1,-1,0
46433,-458752,70,-56,-1,-1,0
46466,-458752,70,-56,-1,-1,0
46500,-589824,70,-56,-1,-1,0
46533,-458752,70,-56,-1,-1,0
46566,-196608,70,-56,-1,-1,0
46600,0,70,-56,-1,-1,0
46633,0,70,-56,-1,-1,0
46666,5242880,70,-56,-1,-1,0
46700,-655360,70,-56,-1,-1,0
46733,262144,70,-56,-1,-1,0
46766,524288,70,-56,-1,-1,0
46800,589824,70,-56,-1,-1,0
46833,786432,70,-56,-1,-1,0
46866,1507328,70,-56,-1,-1,0
46900,1966080,70,-56,-1,-1,0
46933,1114112,70,-56,-1,-1,0
46966,65536,70,-56,-1,-1,0
47000,0,70,-56,-1,-1,0
47033,65536,70,-56,-1,-1,0
47066,131072,70,-56,-1,-1,0
47100,65536,70,-56,-1,-1,0
47133,0,70,-56,-1,-1,0
47166,-65536,70,-56,-1,-1,0
47200,-262144,70,-56,-1,-1,0
47233,-393216,70,-56,-1,-1,0
47266,-393216,70,-56,-1,-1,0
47300,-327680,70,-56,-1,-1,0
47333,-458752,70,-56,-1,-1,0
47366,3604480,70,-56,-1,-1,0
47400,-1966080,70,-56,-1,-1,0
47433,-327680,70,-56,-1,-1,0
47466,-327680,70,-56,-1,-1,0
47500,-262144,70,-56,-1,-1,0
47533,-131072,70,-56,-1,-1,0
47566,196608,70,-56,-1,-1,0
47600,786432,70,-56,-1,-1,0
47633,196608,70,-56,-1,-1,0
47666,-983040,70,-56,-1,-1,0
47700,-1114112,70,-56,-1,-1,0
47733,-983040,70,-56,-1,-1,0
47766,-917504,70,-56,-1,-1,0
47800,-917504,70,-56,-1,-1,0
47833,-983040,70,-56,-1,-1,0
47866,-917504,70,-56,-1,-1,0
47900,-786432,70,-56,-1,-1,0
47933,-720896,70,-56,-1,-1,0
47966,-655360,70,-56,-1,-1,0
48000,-655360,70,-56,-1,-1,0
48033,-655360,70,-56,-1,-1,0
48066,4325376,70,-56,-1,-1,0
48100,-1638400,71,-56,-1,-1,0
48133,-524288,71,-56,-1,-1,0
48166,-262144,71,-56,-1,-1,0
48200,-65536,71,-56,-1,-1,0
48233,262144,71,-56,-1,-1,0
48266,917504,71,-56,-1,-1,0
48300,1769472,71,-56,-1,-1,0
48333,1114112,71,-56,-1,-1,0
48366,0,71,-56,-1,-1,0
48400,-65536,71,-56,-1,-1,0
48433,65536,71,-56,-1,-1,0
48466,0,71,-56,-1,-1,0
48500,0,71,-56,-1,-1,0
48533,0,71,-56,-1,-1,0
48566,0,71,-56,-1,-1,0
48600,0,71,-56,-1,-1,0
48633,0,71,-56,-1,-1,0
48666,0,71,-56,-1,-1,0
48700,2228224,71,-56,-1,-1,0
48733,-2621440,71,-56,-1,-1,0
48766,-65536,71,-56,-1,-1,0
48800,65536,71,-56,-1,-1,0
48833,65536,71,-56,-1,-1,0
48866,327680,71,-56,-1,-1,0
48900,983040,71,-56,-1,-1,0
48933,1835008,71,-56,-1,-1,0
48966,1310720,71,-56,-1,-1,0
49000,-131072,71,-56,-1,-1,0
49033,-262144,71,-56,-1,-1,0
49066,0,71,-56,-1,-1,0
49100,0,71,-56,-1,-1,0
49133,-65536,71,-56,-1,-1,0
49166,-262144,71,-56,-1,-1,0
49200,-393216,71,-56,-1,-1,0
49233,-262144,71,-56,-1,-1,0
49266,-327680,71,-56,-1,-1,0
49300,-458752,71,-56,-1,-1,0
49333,5046272,71,-56,-1,-1,0
49366,-1114112,71,-56,-1,-1,0
49400,-131072,71,-56,-1,-1,0
49433,-131072,71,-56,-1,-1,0
49466,-65536,71,-56,-1,-1,0
49500,65536,71,-56,-1,-1,0
49533,786432,71,-56,-1,-1,0
49566,1245184,71,-56,-1,-1,0
49600,65536,71,-56,-1,-1,0
49633,-786432,71,-56,-1,-1,0
49666,-851968,71,-56,-1,-1,0
49700,-655360,71,-56,-1,-1,0
49733,-720896,71,-56,-1,-1,0
49766,-720896,71,-56,-1,-1,0
49800,-720896,71,-56,-1,-1,0
49833,-1048576,71,-56,-1,-1,0
49866,-786432,71,-56,-1,-1,0
49900,-917504,71,-56,-1,-1,0
49933,-655360,71,-56,-1,-1,0
49966,-1572864,71,-56,-1,-1,0
