milliseconds, ECG, ECG HR, PPG, PPG HR, SpO2, PI
1523613375636,-131072,82,-56,-1,-1,0
1523613375636,-65536,82,-56,-1,-1,0
1523613375636,-65536,82,-56,-1,-1,0
1523613375636,-65536,82,-56,-1,-1,0
1523613375636,-65536,82,-56,-1,-1,0
1523613375675,-65536,82,-56,-1,-1,0
1523613375675,-65536,82,-56,-1,-1,0
1523613375675,0,82,-56,-1,-1,0
1523613375675,65536,82,-56,-1,-1,0
1523613375675,131072,82,-56,-1,-1,0
1523613375715,131072,82,-56,-1,-1,0
1523613375715,131072,82,-56,-1,-1,0
1523613375715,196608,82,-56,-1,-1,0
1523613375715,262144,82,-56,-1,-1,0
1523613375715,262144,82,-56,-1,-1,0
1523613375757,327680,82,-56,-1,-1,0
1523613375757,393216,82,-56,-1,-1,0
1523613375757,458752,82,-56,-1,-1,0
1523613375757,524288,82,-56,-1,-1,0
1523613375757,720896,82,-56,-1,-1,0
1523613375795,851968,82,-56,-1,-1,0
1523613375795,983040,82,-56,-1,-1,0
1523613375795,1114112,82,-56,-1,-1,0
1523613375795,1245184,82,-56,-1,-1,0
1523613375795,1245184,82,-56,-1,-1,0
1523613375835,1310720,82,-56,-1,-1,0
1523613375835,1179648,82,-56,-1,-1,0
1523613375835,1048576,82,-56,-1,-1,0
1523613375835,851968,82,-56,-1,-1,0
1523613375835,589824,82,-56,-1,-1,0
1523613375875,393216,82,-56,-1,-1,0
1523613375875,131072,82,-56,-1,-1,0
1523613375875,0,82,-56,-1,-1,0
1523613375875,-65536,82,-56,-1,-1,0
1523613375875,-131072,82,-56,-1,-1,0
1523613375915,-131072,82,-56,-1,-1,0
1523613375915,-65536,82,-56,-1,-1,0
1523613375915,-65536,82,-56,-1,-1,0
1523613375915,-65536,82,-56,-1,-1,0
1523613375915,0,82,-56,-1,-1,0
1523613375958,0,82,-56,-1,-1,0
1523613375958,0,82,-56,-1,-1,0
1523613375958,0,82,-56,-1,-1,0
1523613375958,0,82,-56,-1,-1,0
1523613375958,0,82,-56,-1,-1,0
1523613375995,0,82,-56,-1,-1,0
1523613375995,0,82,-56,-1,-1,0
1523613375995,0,82,-56,-1,-1,0
1523613375995,-65536,82,-56,-1,-1,0
1523613375995,0,82,-56,-1,-1,0
1523613376035,-65536,82,-56,-1,-1,0
1523613376035,-65536,82,-56,-1,-1,0
1523613376035,-131072,82,-56,-1,-1,0
1523613376035,-196608,82,-56,-1,-1,0
1523613376035,-131072,82,-56,-1,-1,0
1523613376076,-131072,82,-56,-1,-1,0
1523613376076,-131072,82,-56,-1,-1,0
1523613376076,-131072,82,-56,-1,-1,0
1523613376076,-196608,82,-56,-1,-1,0
1523613376076,-196608,82,-56,-1,-1,0
1523613376132,-196608,82,-56,-1,-1,0
1523613376132,-196608,82,-56,-1,-1,0
1523613376132,-196608,82,-56,-1,-1,0
1523613376132,-262144,82,-56,-1,-1,0
1523613376132,-196608,82,-56,-1,-1,0
1523613376155,-131072,82,-56,-1,-1,0
1523613376155,-196608,82,-56,-1,-1,0
1523613376155,-196608,82,-56,-1,-1,0
1523613376155,-196608,82,-56,-1,-1,0
1523613376155,-131072,82,-56,-1,-1,0
1523613376195,-196608,82,-56,-1,-1,0
1523613376195,-196608,82,-56,-1,-1,0
1523613376195,-196608,82,-56,-1,-1,0
1523613376195,-262144,82,-56,-1,-1,0
1523613376195,-327680,82,-56,-1,-1,0
1523613376235,-262144,82,-56,-1,-1,0
1523613376235,-262144,82,-56,-1,-1,0
1523613376235,-262144,82,-56,-1,-1,0
1523613376235,-196608,82,-56,-1,-1,0
1523613376235,-131072,82,-56,-1,-1,0
1523613376277,-65536,82,-56,-1,-1,0
1523613376277,-131072,82,-56,-1,-1,0
1523613376277,-65536,82,-56,-1,-1,0
1523613376277,0,82,-56,-1,-1,0
1523613376277,0,82,-56,-1,-1,0
1523613376315,0,82,-56,-1,-1,0
1523613376315,0,82,-56,-1,-1,0
1523613376315,0,82,-56,-1,-1,0
1523613376315,0,82,-56,-1,-1,0
1523613376315,-65536,82,-56,-1,-1,0
1523613376358,-196608,82,-56,-1,-1,0
1523613376358,0,82,-56,-1,-1,0
1523613376358,1441792,82,-56,-1,-1,0
1523613376358,3735552,82,-56,-1,-1,0
1523613376358,4587520,82,-56,-1,-1,0
1523613376395,2097152,82,-56,-1,-1,0
1523613376395,-917504,82,-56,-1,-1,0
1523613376395,-1769472,82,-56,-1,-1,0
1523613376395,-1114112,82,-56,-1,-1,0
1523613376395,-589824,82,-56,-1,-1,0
1523613376435,-196608,82,-56,-1,-1,0
1523613376435,0,82,-56,-1,-1,0
1523613376435,0,82,-56,-1,-1,0
1523613376435,131072,82,-56,-1,-1,0
1523613376435,131072,82,-56,-1,-1,0
1523613376475,131072,82,-56,-1,-1,0
1523613376475,65536,82,-56,-1,-1,0
1523613376475,131072,82,-56,-1,-1,0
1523613376475,131072,82,-56,-1,-1,0
1523613376475,196608,82,-56,-1,-1,0
1523613376515,196608,82,-56,-1,-1,0
1523613376515,327680,82,-56,-1,-1,0
1523613376515,327680,82,-56,-1,-1,0
1523613376515,327680,82,-56,-1,-1,0
1523613376515,393216,82,-56,-1,-1,0
1523613376555,458752,82,-56,-1,-1,0
1523613376555,524288,82,-56,-1,-1,0
1523613376555,524288,82,-56,-1,-1,0
1523613376555,458752,82,-56,-1,-1,0
1523613376555,589824,82,-56,-1,-1,0
1523613376595,655360,82,-56,-1,-1,0
1523613376595,786432,82,-56,-1,-1,0
1523613376595,851968,82,-56,-1,-1,0
1523613376595,983040,82,-56,-1,-1,0
1523613376595,1179648,82,-56,-1,-1,0
1523613376635,1245184,82,-56,-1,-1,0
1523613376635,1310720,82,-56,-1,-1,0
1523613376635,1376256,82,-56,-1,-1,0
1523613376635,1572864,82,-56,-1,-1,0
1523613376635,1703936,82,-56,-1,-1,0
1523613376675,1703936,82,-56,-1,-1,0
1523613376675,1572864,82,-56,-1,-1,0
1523613376675,1441792,82,-56,-1,-1,0
1523613376675,1245184,82,-56,-1,-1,0
1523613376675,917504,82,-56,-1,-1,0
1523613376715,720896,82,-56,-1,-1,0
1523613376715,524288,82,-56,-1,-1,0
1523613376715,327680,82,-56,-1,-1,0
1523613376715,131072,82,-56,-1,-1,0
1523613376715,0,82,-56,-1,-1,0
1523613376772,65536,82,-56,-1,-1,0
1523613376772,65536,82,-56,-1,-1,0
1523613376772,65536,82,-56,-1,-1,0
1523613376772,65536,82,-56,-1,-1,0
1523613376772,65536,82,-56,-1,-1,0
1523613376795,0,82,-56,-1,-1,0
1523613376795,0,82,-56,-1,-1,0
1523613376795,0,82,-56,-1,-1,0
1523613376795,0,82,-56,-1,-1,0
1523613376795,0,82,-56,-1,-1,0
1523613376835,0,82,-56,-1,-1,0
1523613376835,65536,82,-56,-1,-1,0
1523613376835,65536,82,-56,-1,-1,0
1523613376835,0,82,-56,-1,-1,0
1523613376835,0,82,-56,-1,-1,0
1523613376875,0,82,-56,-1,-1,0
1523613376875,-65536,82,-56,-1,-1,0
1523613376875,-131072,82,-56,-1,-1,0
1523613376875,-131072,82,-56,-1,-1,0
1523613376875,-131072,82,-56,-1,-1,0
1523613376915,-196608,82,-56,-1,-1,0
1523613376915,-196608,82,-56,-1,-1,0
1523613376915,-262144,82,-56,-1,-1,0
1523613376915,-262144,82,-56,-1,-1,0
1523613376915,-262144,82,-56,-1,-1,0
1523613376955,-262144,82,-56,-1,-1,0
1523613376955,-262144,82,-56,-1,-1,0
1523613376955,-327680,82,-56,-1,-1,0
1523613376955,-393216,82,-56,-1,-1,0
1523613376955,-327680,82,-56,-1,-1,0
1523613376995,-327680,82,-56,-1,-1,0
1523613376995,-327680,82,-56,-1,-1,0
1523613376995,-327680,82,-56,-1,-1,0
1523613376995,-327680,82,-56,-1,-1,0
1523613376995,-327680,82,-56,-1,-1,0
1523613377035,-327680,82,-56,-1,-1,0
1523613377035,-327680,82,-56,-1,-1,0
1523613377035,-327680,82,-56,-1,-1,0
1523613377035,-327680,82,-56,-1,-1,0
1523613377035,-327680,82,-56,-1,-1,0
1523613377075,-393216,82,-56,-1,-1,0
1523613377075,-458752,82,-56,-1,-1,0
1523613377075,-393216,82,-56,-1,-1,0
1523613377075,-393216,82,-56,-1,-1,0
1523613377075,-327680,82,-56,-1,-1,0
1523613377115,-393216,82,-56,-1,-1,0
1523613377115,-458752,82,-56,-1,-1,0
1523613377115,-458752,82,-56,-1,-1,0
1523613377115,-458752,82,-56,-1,-1,0
1523613377115,-458752,82,-56,-1,-1,0
1523613377155,-393216,82,-56,-1,-1,0
1523613377155,-393216,82,-56,-1,-1,0
1523613377155,-393216,82,-56,-1,-1,0
1523613377155,-458752,82,-56,-1,-1,0
1523613377155,-458752,82,-56,-1,-1,0
1523613377195,-458752,82,-56,-1,-1,0
1523613377195,-524288,82,-56,-1,-1,0
1523613377195,-524288,82,-56,-1,-1,0
1523613377195,-524288,82,-56,-1,-1,0
1523613377195,-524288,82,-56,-1,-1,0
1523613377235,-524288,82,-56,-1,-1,0
1523613377235,-524288,82,-56,-1,-1,0
1523613377235,-393216,82,-56,-1,-1,0
1523613377235,720896,82,-56,-1,-1,0
1523613377235,3080192,82,-56,-1,-1,0
1523613377275,4456448,82,-56,-1,-1,0
1523613377275,2162688,82,-56,-1,-1,0
1523613377275,-1245184,82,-56,-1,-1,0
1523613377275,-2490368,82,-56,-1,-1,0
1523613377275,-1769472,82,-56,-1,-1,0
1523613377317,-1179648,82,-56,-1,-1,0
1523613377317,-786432,82,-56,-1,-1,0
1523613377317,-524288,82,-56,-1,-1,0
1523613377317,-458752,82,-56,-1,-1,0
1523613377317,-458752,82,-56,-1,-1,0
1523613377355,-458752,82,-56,-1,-1,0
1523613377355,-327680,82,-56,-1,-1,0
1523613377355,-327680,82,-56,-1,-1,0
1523613377355,-262144,82,-56,-1,-1,0
1523613377355,-262144,82,-56,-1,-1,0
1523613377412,-327680,82,-56,-1,-1,0
1523613377412,-327680,82,-56,-1,-1,0
1523613377412,-262144,82,-56,-1,-1,0
1523613377412,-196608,82,-56,-1,-1,0
1523613377412,-196608,82,-56,-1,-1,0
1523613377435,-131072,82,-56,-1,-1,0
1523613377435,-65536,82,-56,-1,-1,0
1523613377435,0,82,-56,-1,-1,0
1523613377435,0,82,-56,-1,-1,0
1523613377435,65536,82,-56,-1,-1,0
1523613377475,65536,82,-56,-1,-1,0
1523613377475,65536,82,-56,-1,-1,0
1523613377475,131072,82,-56,-1,-1,0
1523613377475,327680,82,-56,-1,-1,0
1523613377475,458752,82,-56,-1,-1,0
1523613377515,655360,82,-56,-1,-1,0
1523613377515,786432,82,-56,-1,-1,0
1523613377515,851968,82,-56,-1,-1,0
1523613377515,983040,82,-56,-1,-1,0
1523613377515,1114112,82,-56,-1,-1,0
1523613377557,1048576,82,-56,-1,-1,0
1523613377557,1048576,82,-56,-1,-1,0
1523613377557,1048576,82,-56,-1,-1,0
1523613377557,1048576,82,-56,-1,-1,0
1523613377557,851968,82,-56,-1,-1,0
1523613377595,589824,82,-56,-1,-1,0
1523613377595,327680,82,-56,-1,-1,0
1523613377595,131072,82,-56,-1,-1,0
1523613377595,0,82,-56,-1,-1,0
1523613377595,-65536,82,-56,-1,-1,0
1523613377635,-131072,82,-56,-1,-1,0
1523613377635,-196608,82,-56,-1,-1,0
1523613377635,-262144,82,-56,-1,-1,0
1523613377635,-262144,82,-56,-1,-1,0
1523613377635,-262144,82,-56,-1,-1,0
1523613377675,-262144,82,-56,-1,-1,0
1523613377675,-262144,82,-56,-1,-1,0
1523613377675,-196608,82,-56,-1,-1,0
1523613377675,-131072,82,-56,-1,-1,0
1523613377675,-65536,82,-56,-1,-1,0
1523613377715,0,82,-56,-1,-1,0
1523613377715,-65536,82,-56,-1,-1,0
1523613377715,0,82,-56,-1,-1,0
1523613377715,0,82,-56,-1,-1,0
1523613377715,0,82,-56,-1,-1,0
1523613377755,-131072,82,-56,-1,-1,0
1523613377755,-131072,82,-56,-1,-1,0
1523613377755,-65536,82,-56,-1,-1,0
1523613377755,-65536,82,-56,-1,-1,0
1523613377755,-196608,82,-56,-1,-1,0
1523613377795,-196608,82,-56,-1,-1,0
1523613377795,-131072,82,-56,-1,-1,0
1523613377795,-65536,82,-56,-1,-1,0
1523613377795,-65536,82,-56,-1,-1,0
1523613377795,-65536,82,-56,-1,-1,0
1523613377835,-131072,82,-56,-1,-1,0
1523613377835,-196608,82,-56,-1,-1,0
1523613377835,-196608,82,-56,-1,-1,0
1523613377835,-196608,82,-56,-1,-1,0
1523613377835,-196608,82,-56,-1,-1,0
1523613377875,-196608,82,-56,-1,-1,0
1523613377875,-131072,82,-56,-1,-1,0
1523613377875,-131072,82,-56,-1,-1,0
1523613377875,-196608,82,-56,-1,-1,0
1523613377875,-196608,82,-56,-1,-1,0
1523613377915,-196608,82,-56,-1,-1,0
1523613377915,-196608,82,-56,-1,-1,0
1523613377915,-196608,82,-56,-1,-1,0
1523613377915,-196608,82,-56,-1,-1,0
1523613377915,-196608,82,-56,-1,-1,0
1523613377955,-196608,82,-56,-1,-1,0
1523613377955,-196608,82,-56,-1,-1,0
1523613377955,-262144,82,-56,-1,-1,0
1523613377955,-327680,82,-56,-1,-1,0
1523613377955,-327680,82,-56,-1,-1,0
1523613377995,-262144,82,-56,-1,-1,0
1523613377995,-196608,82,-56,-1,-1,0
1523613377995,-65536,82,-56,-1,-1,0
1523613377995,-131072,82,-56,-1,-1,0
1523613377995,-131072,82,-56,-1,-1,0
1523613378052,-131072,82,-56,-1,-1,0
1523613378052,-196608,82,-56,-1,-1,0
1523613378052,-196608,82,-56,-1,-1,0
1523613378052,-262144,82,-56,-1,-1,0
1523613378052,-196608,82,-56,-1,-1,0
1523613378075,-196608,82,-56,-1,-1,0
1523613378075,-327680,82,-56,-1,-1,0
1523613378075,-393216,82,-56,-1,-1,0
1523613378075,65536,82,-56,-1,-1,0
1523613378075,1835008,82,-56,-1,-1,0
1523613378115,4259840,82,-56,-1,-1,0
1523613378115,4456448,82,-56,-1,-1,0
1523613378115,1310720,82,-56,-1,-1,0
1523613378115,-1638400,82,-56,-1,-1,0
1523613378115,-2097152,82,-56,-1,-1,0
1523613378158,-1441792,82,-56,-1,-1,0
1523613378158,-983040,82,-56,-1,-1,0
1523613378158,-589824,82,-56,-1,-1,0
1523613378158,-393216,82,-56,-1,-1,0
1523613378158,-327680,82,-56,-1,-1,0
1523613378195,-262144,82,-56,-1,-1,0
1523613378195,-196608,82,-56,-1,-1,0
1523613378195,-131072,82,-56,-1,-1,0
1523613378195,-131072,82,-56,-1,-1,0
1523613378195,-131072,82,-56,-1,-1,0
1523613378235,-196608,81,-56,-1,-1,0
1523613378235,-196608,81,-56,-1,-1,0
1523613378235,-131072,81,-56,-1,-1,0
1523613378235,-65536,81,-56,-1,-1,0
1523613378235,-65536,81,-56,-1,-1,0
1523613378275,-65536,81,-56,-1,-1,0
1523613378275,0,81,-56,-1,-1,0
1523613378275,0,81,-56,-1,-1,0
1523613378275,65536,81,-56,-1,-1,0
1523613378275,131072,81,-56,-1,-1,0
1523613378315,196608,81,-56,-1,-1,0
1523613378315,262144,81,-56,-1,-1,0
1523613378315,327680,81,-56,-1,-1,0
1523613378315,458752,81,-56,-1,-1,0
1523613378315,589824,81,-56,-1,-1,0
1523613378355,720896,81,-56,-1,-1,0
1523613378355,786432,81,-56,-1,-1,0
1523613378355,851968,81,-56,-1,-1,0
1523613378355,983040,81,-56,-1,-1,0
1523613378355,1114112,81,-56,-1,-1,0
1523613378395,1245184,81,-56,-1,-1,0
1523613378395,1245184,81,-56,-1,-1,0
1523613378395,1179648,81,-56,-1,-1,0
1523613378395,1114112,81,-56,-1,-1,0
1523613378395,983040,81,-56,-1,-1,0
1523613378435,851968,81,-56,-1,-1,0
1523613378435,720896,81,-56,-1,-1,0
1523613378435,524288,81,-56,-1,-1,0
1523613378435,327680,81,-56,-1,-1,0
1523613378435,65536,81,-56,-1,-1,0
1523613378475,0,81,-56,-1,-1,0
1523613378475,-65536,81,-56,-1,-1,0
1523613378475,-131072,81,-56,-1,-1,0
1523613378475,-196608,81,-56,-1,-1,0
1523613378475,-131072,81,-56,-1,-1,0
1523613378515,-131072,81,-56,-1,-1,0
1523613378515,-196608,81,-56,-1,-1,0
1523613378515,-196608,81,-56,-1,-1,0
1523613378515,-131072,81,-56,-1,-1,0
1523613378515,-131072,81,-56,-1,-1,0
1523613378557,-65536,81,-56,-1,-1,0
1523613378557,-65536,81,-56,-1,-1,0
1523613378557,-65536,81,-56,-1,-1,0
1523613378557,0,81,-56,-1,-1,0
1523613378557,0,81,-56,-1,-1,0
1523613378595,-65536,81,-56,-1,-1,0
1523613378595,-131072,81,-56,-1,-1,0
1523613378595,-131072,81,-56,-1,-1,0
1523613378595,-131072,81,-56,-1,-1,0
1523613378595,-65536,81,-56,-1,-1,0
1523613378635,-65536,81,-56,-1,-1,0
1523613378635,0,81,-56,-1,-1,0
1523613378635,0,81,-56,-1,-1,0
1523613378635,-65536,81,-56,-1,-1,0
1523613378635,-131072,81,-56,-1,-1,0
1523613378692,-131072,81,-56,-1,-1,0
1523613378692,-131072,81,-56,-1,-1,0
1523613378692,-131072,81,-56,-1,-1,0
1523613378692,-131072,81,-56,-1,-1,0
1523613378692,-131072,81,-56,-1,-1,0
1523613378715,-196608,81,-56,-1,-1,0
1523613378715,-262144,81,-56,-1,-1,0
1523613378715,-262144,81,-56,-1,-1,0
1523613378715,-196608,81,-56,-1,-1,0
1523613378715,-65536,81,-56,-1,-1,0
1523613378755,-65536,81,-56,-1,-1,0
1523613378755,-65536,81,-56,-1,-1,0
1523613378755,-131072,81,-56,-1,-1,0
1523613378755,-131072,81,-56,-1,-1,0
1523613378755,-131072,81,-56,-1,-1,0
1523613378795,-65536,81,-56,-1,-1,0
1523613378795,0,81,-56,-1,-1,0
1523613378795,0,81,-56,-1,-1,0
1523613378795,-65536,81,-56,-1,-1,0
1523613378795,-131072,81,-56,-1,-1,0
1523613378835,-196608,81,-56,-1,-1,0
1523613378835,-131072,81,-56,-1,-1,0
1523613378835,0,81,-56,-1,-1,0
1523613378835,0,81,-56,-1,-1,0
1523613378835,65536,81,-56,-1,-1,0
1523613378875,65536,81,-56,-1,-1,0
1523613378875,0,81,-56,-1,-1,0
1523613378875,0,81,-56,-1,-1,0
1523613378875,131072,81,-56,-1,-1,0
1523613378875,262144,81,-56,-1,-1,0
1523613378915,262144,81,-56,-1,-1,0
1523613378915,262144,81,-56,-1,-1,0
1523613378915,327680,81,-56,-1,-1,0
1523613378915,393216,81,-56,-1,-1,0
1523613378915,393216,81,-56,-1,-1,0
1523613378955,393216,81,-56,-1,-1,0
1523613378955,1114112,81,-56,-1,-1,0
1523613378955,3145728,81,-56,-1,-1,0
1523613378955,5373952,81,-56,-1,-1,0
1523613378955,4587520,81,-56,-1,-1,0
1523613378995,1245184,81,-56,-1,-1,0
1523613378995,-1048576,81,-56,-1,-1,0
1523613378995,-983040,81,-56,-1,-1,0
1523613378995,-196608,81,-56,-1,-1,0
1523613378995,262144,81,-56,-1,-1,0
1523613379035,589824,77,-56,-1,-1,0
1523613379035,655360,77,-56,-1,-1,0
1523613379035,786432,77,-56,-1,-1,0
1523613379035,983040,77,-56,-1,-1,0
1523613379035,1114112,77,-56,-1,-1,0
1523613379075,1179648,77,-56,-1,-1,0
1523613379075,1179648,77,-56,-1,-1,0
1523613379075,1179648,77,-56,-1,-1,0
1523613379075,1310720,77,-56,-1,-1,0
1523613379075,1441792,77,-56,-1,-1,0
1523613379115,1507328,77,-56,-1,-1,0
1523613379115,1638400,77,-56,-1,-1,0
1523613379115,1638400,77,-56,-1,-1,0
1523613379115,1769472,77,-56,-1,-1,0
1523613379115,1835008,77,-56,-1,-1,0
1523613379155,1966080,77,-56,-1,-1,0
1523613379155,1966080,77,-56,-1,-1,0
1523613379155,1966080,77,-56,-1,-1,0
1523613379155,2097152,77,-56,-1,-1,0
1523613379155,2293760,77,-56,-1,-1,0
1523613379195,2359296,77,-56,-1,-1,0
1523613379195,2424832,77,-56,-1,-1,0
1523613379195,2621440,77,-56,-1,-1,0
1523613379195,2949120,77,-56,-1,-1,0
1523613379195,3211264,77,-56,-1,-1,0
1523613379235,3407872,77,-56,-1,-1,0
1523613379235,3604480,77,-56,-1,-1,0
1523613379235,3735552,77,-56,-1,-1,0
1523613379235,3801088,77,-56,-1,-1,0
1523613379235,3932160,77,-56,-1,-1,0
1523613379275,4063232,77,-56,-1,-1,0
1523613379275,4063232,77,-56,-1,-1,0
1523613379275,3932160,77,-56,-1,-1,0
1523613379275,3801088,77,-56,-1,-1,0
1523613379275,3604480,77,-56,-1,-1,0
1523613379332,3407872,77,-56,-1,-1,0
1523613379332,3145728,77,-56,-1,-1,0
1523613379332,3080192,77,-56,-1,-1,0
1523613379332,3080192,77,-56,-1,-1,0
1523613379332,3211264,77,-56,-1,-1,0
1523613379355,3211264,77,-56,-1,-1,0
1523613379355,3276800,77,-56,-1,-1,0
1523613379355,3276800,77,-56,-1,-1,0
1523613379355,3407872,77,-56,-1,-1,0
1523613379355,3538944,77,-56,-1,-1,0
1523613379395,3604480,77,-56,-1,-1,0
1523613379395,3801088,77,-56,-1,-1,0
1523613379395,3801088,77,-56,-1,-1,0
1523613379395,3735552,77,-56,-1,-1,0
1523613379395,3866624,77,-56,-1,-1,0
1523613379435,4128768,77,-56,-1,-1,0
1523613379435,4063232,77,-56,-1,-1,0
1523613379435,3997696,77,-56,-1,-1,0
1523613379435,3997696,77,-56,-1,-1,0
1523613379435,3997696,77,-56,-1,-1,0
1523613379475,3997696,77,-56,-1,-1,0
1523613379475,4063232,77,-56,-1,-1,0
1523613379475,3997696,77,-56,-1,-1,0
1523613379475,3866624,77,-56,-1,-1,0
1523613379475,3670016,77,-56,-1,-1,0
1523613379515,3473408,77,-56,-1,-1,0
1523613379515,3145728,77,-56,-1,-1,0
1523613379515,2818048,77,-56,-1,-1,0
1523613379515,2293760,77,-56,-1,-1,0
1523613379515,1638400,77,-56,-1,-1,0
1523613379555,1048576,77,-56,-1,-1,0
1523613379555,458752,77,-56,-1,-1,0
1523613379555,0,77,-56,-1,-1,0
1523613379555,-458752,77,-56,-1,-1,0
1523613379555,-917504,77,-56,-1,-1,0
1523613379595,-1376256,77,-56,-1,-1,0
1523613379595,-1835008,77,-56,-1,-1,0
1523613379595,-2228224,77,-56,-1,-1,0
1523613379595,-2555904,77,-56,-1,-1,0
1523613379595,-2818048,77,-56,-1,-1,0
1523613379635,-3080192,77,-56,-1,-1,0
1523613379635,-3276800,77,-56,-1,-1,0
1523613379635,-3407872,77,-56,-1,-1,0
1523613379635,-3473408,77,-56,-1,-1,0
1523613379635,-3538944,77,-56,-1,-1,0
1523613379675,-3670016,77,-56,-1,-1,0
1523613379675,-3801088,77,-56,-1,-1,0
1523613379675,-3801088,77,-56,-1,-1,0
1523613379675,-3801088,77,-56,-1,-1,0
1523613379675,-3801088,77,-56,-1,-1,0
1523613379715,-3866624,77,-56,-1,-1,0
1523613379715,-3866624,77,-56,-1,-1,0
1523613379715,-3735552,77,-56,-1,-1,0
1523613379715,-3670016,77,-56,-1,-1,0
1523613379715,-3735552,77,-56,-1,-1,0
1523613379755,-3670016,77,-56,-1,-1,0
1523613379755,-2883584,77,-56,-1,-1,0
1523613379755,-1048576,77,-56,-1,-1,0
1523613379755,524288,77,-56,-1,-1,0
1523613379755,-786432,77,-56,-1,-1,0
1523613379795,-3801088,76,-56,-1,-1,0
1523613379795,-5636096,76,-56,-1,-1,0
1523613379795,-5242880,76,-56,-1,-1,0
1523613379795,-4390912,76,-56,-1,-1,0
1523613379795,-3735552,76,-56,-1,-1,0
1523613379835,-3342336,76,-56,-1,-1,0
1523613379835,-3145728,76,-56,-1,-1,0
1523613379835,-3014656,76,-56,-1,-1,0
1523613379835,-3014656,76,-56,-1,-1,0
1523613379835,-2883584,76,-56,-1,-1,0
1523613379875,-2883584,76,-56,-1,-1,0
1523613379875,-2818048,76,-56,-1,-1,0
1523613379875,-2686976,76,-56,-1,-1,0
1523613379875,-2686976,76,-56,-1,-1,0
1523613379875,-2621440,76,-56,-1,-1,0
1523613379915,-2555904,76,-56,-1,-1,0
1523613379915,-2424832,76,-56,-1,-1,0
1523613379915,-2359296,76,-56,-1,-1,0
1523613379915,-2293760,76,-56,-1,-1,0
1523613379915,-2228224,76,-56,-1,-1,0
1523613379972,-2097152,76,-56,-1,-1,0
1523613379972,-2031616,76,-56,-1,-1,0
1523613379972,-1835008,76,-56,-1,-1,0
1523613379972,-1638400,76,-56,-1,-1,0
1523613379972,-1441792,76,-56,-1,-1,0
1523613379995,-1376256,76,-56,-1,-1,0
1523613379995,-1245184,76,-56,-1,-1,0
1523613379995,-1179648,76,-56,-1,-1,0
1523613379995,-917504,76,-56,-1,-1,0
1523613379995,-655360,76,-56,-1,-1,0
1523613380035,-393216,76,-56,-1,-1,0
1523613380035,-262144,76,-56,-1,-1,0
1523613380035,-131072,76,-56,-1,-1,0
1523613380035,-65536,76,-56,-1,-1,0
1523613380035,0,76,-56,-1,-1,0
1523613380075,65536,76,-56,-1,-1,0
1523613380075,0,76,-56,-1,-1,0
1523613380075,-196608,76,-56,-1,-1,0
1523613380075,-327680,76,-56,-1,-1,0
1523613380075,-524288,76,-56,-1,-1,0
1523613380115,-851968,76,-56,-1,-1,0
1523613380115,-1114112,76,-56,-1,-1,0
1523613380115,-1179648,76,-56,-1,-1,0
1523613380115,-1179648,76,-56,-1,-1,0
1523613380115,-1179648,76,-56,-1,-1,0
1523613380155,-1179648,76,-56,-1,-1,0
1523613380155,-1114112,76,-56,-1,-1,0
1523613380155,-1114112,76,-56,-1,-1,0
1523613380155,-1048576,76,-56,-1,-1,0
1523613380155,-983040,76,-56,-1,-1,0
1523613380195,-917504,76,-56,-1,-1,0
1523613380195,-851968,76,-56,-1,-1,0
1523613380195,-786432,76,-56,-1,-1,0
1523613380195,-786432,76,-56,-1,-1,0
1523613380195,-720896,76,-56,-1,-1,0
1523613380236,-655360,76,-56,-1,-1,0
1523613380236,-655360,76,-56,-1,-1,0
1523613380236,-655360,76,-56,-1,-1,0
1523613380236,-655360,76,-56,-1,-1,0
1523613380236,-655360,76,-56,-1,-1,0
1523613380275,-655360,76,-56,-1,-1,0
1523613380275,-720896,76,-56,-1,-1,0
1523613380275,-786432,76,-56,-1,-1,0
1523613380275,-851968,76,-56,-1,-1,0
1523613380275,-786432,76,-56,-1,-1,0
1523613380315,-720896,76,-56,-1,-1,0
1523613380315,-720896,76,-56,-1,-1,0
1523613380315,-720896,76,-56,-1,-1,0
1523613380315,-655360,76,-56,-1,-1,0
1523613380315,-589824,76,-56,-1,-1,0
1523613380355,-524288,76,-56,-1,-1,0
1523613380355,-524288,76,-56,-1,-1,0
1523613380355,-458752,76,-56,-1,-1,0
1523613380355,-458752,76,-56,-1,-1,0
1523613380355,-458752,76,-56,-1,-1,0
1523613380395,-327680,76,-56,-1,-1,0
1523613380395,-262144,76,-56,-1,-1,0
1523613380395,-196608,76,-56,-1,-1,0
1523613380395,-131072,76,-56,-1,-1,0
1523613380395,-131072,76,-56,-1,-1,0
1523613380435,-262144,76,-56,-1,-1,0
1523613380435,-262144,76,-56,-1,-1,0
1523613380435,-262144,76,-56,-1,-1,0
1523613380435,-131072,76,-56,-1,-1,0
1523613380435,-65536,76,-56,-1,-1,0
1523613380475,-65536,76,-56,-1,-1,0
1523613380475,-65536,76,-56,-1,-1,0
1523613380475,-65536,76,-56,-1,-1,0
1523613380475,0,76,-56,-1,-1,0
1523613380475,0,76,-56,-1,-1,0
1523613380515,393216,76,-56,-1,-1,0
1523613380515,1835008,76,-56,-1,-1,0
1523613380515,3997696,76,-56,-1,-1,0
1523613380515,4325376,76,-56,-1,-1,0
1523613380515,1441792,76,-56,-1,-1,0
1523613380555,-1572864,76,-56,-1,-1,0
1523613380555,-2097152,76,-56,-1,-1,0
1523613380555,-1245184,76,-56,-1,-1,0
1523613380555,-589824,76,-56,-1,-1,0
1523613380555,-65536,76,-56,-1,-1,0
1523613380612,196608,76,-56,-1,-1,0
1523613380612,327680,76,-56,-1,-1,0
1523613380612,393216,76,-56,-1,-1,0
1523613380612,393216,76,-56,-1,-1,0
1523613380612,458752,76,-56,-1,-1,0
1523613380635,458752,76,-56,-1,-1,0
1523613380635,524288,76,-56,-1,-1,0
1523613380635,589824,76,-56,-1,-1,0
1523613380635,589824,76,-56,-1,-1,0
1523613380635,589824,76,-56,-1,-1,0
1523613380675,589824,76,-56,-1,-1,0
1523613380675,589824,76,-56,-1,-1,0
1523613380675,589824,76,-56,-1,-1,0
1523613380675,655360,76,-56,-1,-1,0
1523613380675,655360,76,-56,-1,-1,0
1523613380715,720896,76,-56,-1,-1,0
1523613380715,720896,76,-56,-1,-1,0
1523613380715,786432,76,-56,-1,-1,0
1523613380715,851968,76,-56,-1,-1,0
1523613380715,917504,76,-56,-1,-1,0
1523613380755,983040,76,-56,-1,-1,0
1523613380755,1048576,76,-56,-1,-1,0
1523613380755,1179648,76,-56,-1,-1,0
1523613380755,1376256,76,-56,-1,-1,0
1523613380755,1638400,76,-56,-1,-1,0
1523613380796,1835008,76,-56,-1,-1,0
1523613380796,1900544,76,-56,-1,-1,0
1523613380796,1835008,76,-56,-1,-1,0
1523613380796,1835008,76,-56,-1,-1,0
1523613380796,1769472,76,-56,-1,-1,0
1523613380835,1638400,76,-56,-1,-1,0
1523613380835,1441792,76,-56,-1,-1,0
1523613380835,1179648,76,-56,-1,-1,0
1523613380835,851968,76,-56,-1,-1,0
1523613380835,589824,76,-56,-1,-1,0
1523613380876,393216,76,-56,-1,-1,0
1523613380876,262144,76,-56,-1,-1,0
1523613380876,65536,76,-56,-1,-1,0
1523613380876,0,76,-56,-1,-1,0
1523613380876,0,76,-56,-1,-1,0
1523613380915,0,76,-56,-1,-1,0
1523613380915,0,76,-56,-1,-1,0
1523613380915,0,76,-56,-1,-1,0
1523613380915,0,76,-56,-1,-1,0
1523613380915,0,76,-56,-1,-1,0
1523613380955,0,76,-56,-1,-1,0
1523613380955,0,76,-56,-1,-1,0
1523613380955,65536,76,-56,-1,-1,0
1523613380955,65536,76,-56,-1,-1,0
1523613380955,65536,76,-56,-1,-1,0
1523613380996,0,76,-56,-1,-1,0
1523613380996,0,76,-56,-1,-1,0
1523613380996,-65536,76,-56,-1,-1,0
1523613380996,-196608,76,-56,-1,-1,0
1523613380996,-327680,76,-56,-1,-1,0
1523613381035,-393216,76,-56,-1,-1,0
1523613381035,-393216,76,-56,-1,-1,0
1523613381035,-393216,76,-56,-1,-1,0
1523613381035,-458752,76,-56,-1,-1,0
1523613381035,-524288,76,-56,-1,-1,0
1523613381075,-589824,76,-56,-1,-1,0
1523613381075,-655360,76,-56,-1,-1,0
1523613381075,-720896,76,-56,-1,-1,0
1523613381075,-786432,76,-56,-1,-1,0
1523613381075,-786432,76,-56,-1,-1,0
1523613381116,-786432,76,-56,-1,-1,0
1523613381116,-786432,76,-56,-1,-1,0
1523613381116,-851968,76,-56,-1,-1,0
1523613381116,-917504,76,-56,-1,-1,0
1523613381116,-983040,76,-56,-1,-1,0
1523613381155,-1048576,76,-56,-1,-1,0
1523613381155,-1179648,76,-56,-1,-1,0
1523613381155,-1245184,76,-56,-1,-1,0
1523613381155,-1245184,76,-56,-1,-1,0
1523613381155,-1310720,76,-56,-1,-1,0
1523613381195,-1245184,76,-56,-1,-1,0
1523613381195,-1179648,76,-56,-1,-1,0
1523613381195,-1179648,76,-56,-1,-1,0
1523613381195,-1310720,76,-56,-1,-1,0
1523613381195,-1441792,76,-56,-1,-1,0
1523613381252,-1441792,76,-56,-1,-1,0
1523613381252,-1441792,76,-56,-1,-1,0
1523613381252,-1376256,76,-56,-1,-1,0
1523613381252,-1441792,76,-56,-1,-1,0
1523613381252,-1441792,76,-56,-1,-1,0
1523613381275,-1507328,76,-56,-1,-1,0
1523613381275,-1507328,76,-56,-1,-1,0
1523613381275,-1572864,76,-56,-1,-1,0
1523613381275,-1114112,76,-56,-1,-1,0
1523613381275,262144,76,-56,-1,-1,0
1523613381318,2555904,76,-56,-1,-1,0
1523613381318,3145728,76,-56,-1,-1,0
1523613381318,393216,76,-56,-1,-1,0
1523613381318,-2818048,76,-56,-1,-1,0
1523613381318,-3604480,76,-56,-1,-1,0
1523613381355,-2883584,76,-56,-1,-1,0
1523613381355,-2293760,76,-56,-1,-1,0
1523613381355,-1900544,76,-56,-1,-1,0
1523613381355,-1638400,76,-56,-1,-1,0
1523613381355,-1572864,76,-56,-1,-1,0
1523613381395,-1507328,75,-56,-1,-1,0
1523613381395,-1507328,75,-56,-1,-1,0
1523613381395,-1441792,75,-56,-1,-1,0
1523613381395,-1507328,75,-56,-1,-1,0
1523613381395,-1507328,75,-56,-1,-1,0
1523613381435,-1507328,75,-56,-1,-1,0
1523613381435,-1441792,75,-56,-1,-1,0
1523613381435,-1441792,75,-56,-1,-1,0
1523613381435,-1376256,75,-56,-1,-1,0
1523613381435,-1245184,75,-56,-1,-1,0
1523613381475,-1179648,75,-56,-1,-1,0
1523613381475,-1245184,75,-56,-1,-1,0
1523613381475,-1179648,75,-56,-1,-1,0
1523613381475,-1114112,75,-56,-1,-1,0
1523613381475,-983040,75,-56,-1,-1,0
1523613381515,-851968,75,-56,-1,-1,0
1523613381515,-720896,75,-56,-1,-1,0
1523613381515,-655360,75,-56,-1,-1,0
1523613381515,-458752,75,-56,-1,-1,0
1523613381515,-327680,75,-56,-1,-1,0
1523613381555,-131072,75,-56,-1,-1,0
1523613381555,0,75,-56,-1,-1,0
1523613381555,196608,75,-56,-1,-1,0
1523613381555,458752,75,-56,-1,-1,0
1523613381555,589824,75,-56,-1,-1,0
1523613381595,720896,75,-56,-1,-1,0
1523613381595,786432,75,-56,-1,-1,0
1523613381595,851968,75,-56,-1,-1,0
1523613381595,786432,75,-56,-1,-1,0
1523613381595,655360,75,-56,-1,-1,0
1523613381635,458752,75,-56,-1,-1,0
1523613381635,196608,75,-56,-1,-1,0
1523613381635,0,75,-56,-1,-1,0
1523613381635,-131072,75,-56,-1,-1,0
1523613381635,-196608,75,-56,-1,-1,0
1523613381678,-262144,75,-56,-1,-1,0
1523613381678,-327680,75,-56,-1,-1,0
1523613381678,-327680,75,-56,-1,-1,0
1523613381678,-327680,75,-56,-1,-1,0
1523613381678,-393216,75,-56,-1,-1,0
1523613381715,-393216,75,-56,-1,-1,0
1523613381715,-393216,75,-56,-1,-1,0
1523613381715,-327680,75,-56,-1,-1,0
1523613381715,-327680,75,-56,-1,-1,0
1523613381715,-262144,75,-56,-1,-1,0
1523613381755,-196608,75,-56,-1,-1,0
1523613381755,-131072,75,-56,-1,-1,0
1523613381755,-65536,75,-56,-1,-1,0
1523613381755,-65536,75,-56,-1,-1,0
1523613381755,-65536,75,-56,-1,-1,0
1523613381795,0,75,-56,-1,-1,0
1523613381795,0,75,-56,-1,-1,0
1523613381795,-65536,75,-56,-1,-1,0
1523613381795,-131072,75,-56,-1,-1,0
1523613381795,-131072,75,-56,-1,-1,0
1523613381835,-131072,75,-56,-1,-1,0
1523613381835,-131072,75,-56,-1,-1,0
1523613381835,-196608,75,-56,-1,-1,0
1523613381835,-196608,75,-56,-1,-1,0
1523613381835,-196608,75,-56,-1,-1,0
1523613381891,-131072,75,-56,-1,-1,0
1523613381891,-131072,75,-56,-1,-1,0
1523613381891,-196608,75,-56,-1,-1,0
1523613381891,-262144,75,-56,-1,-1,0
1523613381891,-327680,75,-56,-1,-1,0
1523613381915,-327680,75,-56,-1,-1,0
1523613381915,-393216,75,-56,-1,-1,0
1523613381915,-393216,75,-56,-1,-1,0
1523613381915,-327680,75,-56,-1,-1,0
1523613381915,-327680,75,-56,-1,-1,0
1523613381955,-327680,75,-56,-1,-1,0
1523613381955,-327680,75,-56,-1,-1,0
1523613381955,-393216,75,-56,-1,-1,0
1523613381955,-458752,75,-56,-1,-1,0
1523613381955,-524288,75,-56,-1,-1,0
1523613381995,-589824,75,-56,-1,-1,0
1523613381995,-589824,75,-56,-1,-1,0
1523613381995,-524288,75,-56,-1,-1,0
1523613381995,-458752,75,-56,-1,-1,0
1523613381995,-458752,75,-56,-1,-1,0
1523613382036,-393216,75,-56,-1,-1,0
1523613382036,-524288,75,-56,-1,-1,0
1523613382036,-589824,75,-56,-1,-1,0
1523613382036,-655360,75,-56,-1,-1,0
1523613382036,-655360,75,-56,-1,-1,0
1523613382075,-655360,75,-56,-1,-1,0
1523613382075,-589824,75,-56,-1,-1,0
1523613382075,-589824,75,-56,-1,-1,0
1523613382075,-589824,75,-56,-1,-1,0
1523613382075,-655360,75,-56,-1,-1,0
1523613382115,-589824,75,-56,-1,-1,0
1523613382115,196608,75,-56,-1,-1,0
1523613382115,2359296,75,-56,-1,-1,0
1523613382115,4521984,75,-56,-1,-1,0
1523613382115,3473408,75,-56,-1,-1,0
1523613382156,-65536,75,-56,-1,-1,0
1523613382156,-2621440,75,-56,-1,-1,0
1523613382156,-2424832,75,-56,-1,-1,0
1523613382156,-1638400,75,-56,-1,-1,0
1523613382156,-1114112,75,-56,-1,-1,0
1523613382195,-786432,75,-56,-1,-1,0
1523613382195,-720896,75,-56,-1,-1,0
1523613382195,-655360,75,-56,-1,-1,0
1523613382195,-655360,75,-56,-1,-1,0
1523613382195,-655360,75,-56,-1,-1,0
1523613382235,-655360,75,-56,-1,-1,0
1523613382235,-589824,75,-56,-1,-1,0
1523613382235,-524288,75,-56,-1,-1,0
1523613382235,-458752,75,-56,-1,-1,0
1523613382235,-458752,75,-56,-1,-1,0
1523613382275,-524288,74,-56,-1,-1,0
1523613382275,-458752,74,-56,-1,-1,0
1523613382275,-393216,74,-56,-1,-1,0
1523613382275,-327680,74,-56,-1,-1,0
1523613382275,-327680,74,-56,-1,-1,0
1523613382316,-262144,74,-56,-1,-1,0
1523613382316,-131072,74,-56,-1,-1,0
1523613382316,-65536,74,-56,-1,-1,0
1523613382316,-65536,74,-56,-1,-1,0
1523613382316,0,74,-56,-1,-1,0
1523613382355,0,74,-56,-1,-1,0
1523613382355,131072,74,-56,-1,-1,0
1523613382355,262144,74,-56,-1,-1,0
1523613382355,458752,74,-56,-1,-1,0
1523613382355,655360,74,-56,-1,-1,0
1523613382396,851968,74,-56,-1,-1,0
1523613382396,983040,74,-56,-1,-1,0
1523613382396,1114112,74,-56,-1,-1,0
1523613382396,1245184,74,-56,-1,-1,0
1523613382396,1245184,74,-56,-1,-1,0
1523613382435,1179648,74,-56,-1,-1,0
1523613382435,1048576,74,-56,-1,-1,0
1523613382435,786432,74,-56,-1,-1,0
1523613382435,393216,74,-56,-1,-1,0
1523613382435,65536,74,-56,-1,-1,0
1523613382475,-65536,74,-56,-1,-1,0
1523613382475,-262144,74,-56,-1,-1,0
1523613382475,-393216,74,-56,-1,-1,0
1523613382475,-524288,74,-56,-1,-1,0
1523613382475,-589824,74,-56,-1,-1,0
1523613382531,-720896,74,-56,-1,-1,0
1523613382531,-786432,74,-56,-1,-1,0
1523613382531,-786432,74,-56,-1,-1,0
1523613382531,-786432,74,-56,-1,-1,0
1523613382531,-786432,74,-56,-1,-1,0
1523613382555,-720896,74,-56,-1,-1,0
1523613382555,-589824,74,-56,-1,-1,0
1523613382555,-589824,74,-56,-1,-1,0
1523613382555,-589824,74,-56,-1,-1,0
1523613382555,-524288,74,-56,-1,-1,0
1523613382596,-524288,74,-56,-1,-1,0
1523613382596,-458752,74,-56,-1,-1,0
1523613382596,-589824,74,-56,-1,-1,0
1523613382596,-589824,74,-56,-1,-1,0
1523613382596,-655360,74,-56,-1,-1,0
1523613382635,-589824,74,-56,-1,-1,0
1523613382635,-589824,74,-56,-1,-1,0
1523613382635,-589824,74,-56,-1,-1,0
1523613382635,-589824,74,-56,-1,-1,0
1523613382635,-524288,74,-56,-1,-1,0
1523613382676,-524288,74,-56,-1,-1,0
1523613382676,-589824,74,-56,-1,-1,0
1523613382676,-589824,74,-56,-1,-1,0
1523613382676,-524288,74,-56,-1,-1,0
1523613382676,-458752,74,-56,-1,-1,0
1523613382715,-458752,74,-56,-1,-1,0
1523613382715,-393216,74,-56,-1,-1,0
1523613382715,-393216,74,-56,-1,-1,0
1523613382715,-393216,74,-56,-1,-1,0
1523613382715,-393216,74,-56,-1,-1,0
1523613382756,-393216,74,-56,-1,-1,0
1523613382756,-393216,74,-56,-1,-1,0
1523613382756,-327680,74,-56,-1,-1,0
1523613382756,-327680,74,-56,-1,-1,0
1523613382756,-262144,74,-56,-1,-1,0
1523613382795,-262144,74,-56,-1,-1,0
1523613382795,-262144,74,-56,-1,-1,0
1523613382795,-262144,74,-56,-1,-1,0
1523613382795,-262144,74,-56,-1,-1,0
1523613382795,-196608,74,-56,-1,-1,0
1523613382836,-262144,74,-56,-1,-1,0
1523613382836,-327680,74,-56,-1,-1,0
1523613382836,-327680,74,-56,-1,-1,0
1523613382836,-262144,74,-56,-1,-1,0
1523613382836,-262144,74,-56,-1,-1,0
1523613382875,-196608,74,-56,-1,-1,0
1523613382875,-65536,74,-56,-1,-1,0
1523613382875,0,74,-56,-1,-1,0
1523613382875,0,74,-56,-1,-1,0
1523613382875,0,74,-56,-1,-1,0
1523613382915,-65536,74,-56,-1,-1,0
1523613382915,0,74,-56,-1,-1,0
1523613382915,0,74,-56,-1,-1,0
1523613382915,0,74,-56,-1,-1,0
1523613382915,0,74,-56,-1,-1,0
1523613382956,0,74,-56,-1,-1,0
1523613382956,-65536,74,-56,-1,-1,0
1523613382956,-65536,74,-56,-1,-1,0
1523613382956,524288,74,-56,-1,-1,0
1523613382956,2490368,74,-56,-1,-1,0
1523613382996,5111808,74,-56,-1,-1,0
1523613382996,5242880,74,-56,-1,-1,0
1523613382996,1900544,74,-56,-1,-1,0
1523613382996,-1179648,74,-56,-1,-1,0
1523613382996,-1441792,74,-56,-1,-1,0
1523613383035,-720896,74,-56,-1,-1,0
1523613383035,-196608,74,-56,-1,-1,0
1523613383035,65536,74,-56,-1,-1,0
1523613383035,196608,74,-56,-1,-1,0
1523613383035,327680,74,-56,-1,-1,0
1523613383075,327680,74,-56,-1,-1,0
1523613383075,327680,74,-56,-1,-1,0
1523613383075,327680,74,-56,-1,-1,0
1523613383075,327680,74,-56,-1,-1,0
1523613383075,393216,74,-56,-1,-1,0
1523613383115,393216,74,-56,-1,-1,0
1523613383115,458752,74,-56,-1,-1,0
1523613383115,458752,74,-56,-1,-1,0
1523613383115,458752,74,-56,-1,-1,0
1523613383115,524288,74,-56,-1,-1,0
1523613383172,524288,74,-56,-1,-1,0
1523613383172,524288,74,-56,-1,-1,0
1523613383172,589824,74,-56,-1,-1,0
1523613383172,655360,74,-56,-1,-1,0
1523613383172,720896,74,-56,-1,-1,0
1523613383195,851968,73,-56,-1,-1,0
1523613383195,917504,73,-56,-1,-1,0
1523613383195,1048576,73,-56,-1,-1,0
1523613383195,1179648,73,-56,-1,-1,0
1523613383195,1310720,73,-56,-1,-1,0
1523613383236,1441792,73,-56,-1,-1,0
1523613383236,1572864,73,-56,-1,-1,0
1523613383236,1638400,73,-56,-1,-1,0
1523613383236,1703936,73,-56,-1,-1,0
1523613383236,1900544,73,-56,-1,-1,0
1523613383276,2031616,73,-56,-1,-1,0
1523613383276,2097152,73,-56,-1,-1,0
1523613383276,2031616,73,-56,-1,-1,0
1523613383276,1966080,73,-56,-1,-1,0
1523613383276,1835008,73,-56,-1,-1,0
1523613383315,1572864,73,-56,-1,-1,0
1523613383315,1245184,73,-56,-1,-1,0
1523613383315,983040,73,-56,-1,-1,0
1523613383315,720896,73,-56,-1,-1,0
1523613383315,589824,73,-56,-1,-1,0
1523613383355,458752,73,-56,-1,-1,0
1523613383355,327680,73,-56,-1,-1,0
1523613383355,327680,73,-56,-1,-1,0
1523613383355,327680,73,-56,-1,-1,0
1523613383355,393216,73,-56,-1,-1,0
1523613383396,393216,73,-56,-1,-1,0
1523613383396,393216,73,-56,-1,-1,0
1523613383396,327680,73,-56,-1,-1,0
1523613383396,327680,73,-56,-1,-1,0
1523613383396,327680,73,-56,-1,-1,0
1523613383435,327680,73,-56,-1,-1,0
1523613383435,262144,73,-56,-1,-1,0
1523613383435,262144,73,-56,-1,-1,0
1523613383435,262144,73,-56,-1,-1,0
1523613383435,262144,73,-56,-1,-1,0
1523613383476,196608,73,-56,-1,-1,0
1523613383476,196608,73,-56,-1,-1,0
1523613383476,196608,73,-56,-1,-1,0
1523613383476,196608,73,-56,-1,-1,0
1523613383476,131072,73,-56,-1,-1,0
1523613383515,131072,73,-56,-1,-1,0
1523613383515,131072,73,-56,-1,-1,0
1523613383515,131072,73,-56,-1,-1,0
1523613383515,131072,73,-56,-1,-1,0
1523613383515,131072,73,-56,-1,-1,0
1523613383556,131072,73,-56,-1,-1,0
1523613383556,131072,73,-56,-1,-1,0
1523613383556,131072,73,-56,-1,-1,0
1523613383556,65536,73,-56,-1,-1,0
1523613383556,65536,73,-56,-1,-1,0
1523613383595,65536,73,-56,-1,-1,0
1523613383595,65536,73,-56,-1,-1,0
1523613383595,65536,73,-56,-1,-1,0
1523613383595,131072,73,-56,-1,-1,0
1523613383595,131072,73,-56,-1,-1,0
1523613383635,131072,73,-56,-1,-1,0
1523613383635,65536,73,-56,-1,-1,0
1523613383635,0,73,-56,-1,-1,0
1523613383635,0,73,-56,-1,-1,0
1523613383635,0,73,-56,-1,-1,0
1523613383675,0,73,-56,-1,-1,0
1523613383675,0,73,-56,-1,-1,0
1523613383675,0,73,-56,-1,-1,0
1523613383675,0,73,-56,-1,-1,0
1523613383675,0,73,-56,-1,-1,0
1523613383715,-65536,73,-56,-1,-1,0
1523613383715,-65536,73,-56,-1,-1,0
1523613383715,-65536,73,-56,-1,-1,0
1523613383715,-65536,73,-56,-1,-1,0
1523613383715,-65536,73,-56,-1,-1,0
1523613383755,-131072,73,-56,-1,-1,0
1523613383755,-196608,73,-56,-1,-1,0
1523613383755,-196608,73,-56,-1,-1,0
1523613383755,-131072,73,-56,-1,-1,0
1523613383755,-65536,73,-56,-1,-1,0
1523613383812,0,73,-56,-1,-1,0
1523613383812,65536,73,-56,-1,-1,0
1523613383812,0,73,-56,-1,-1,0
1523613383812,0,73,-56,-1,-1,0
1523613383812,0,73,-56,-1,-1,0
1523613383835,0,73,-56,-1,-1,0
1523613383835,-65536,73,-56,-1,-1,0
1523613383835,-65536,73,-56,-1,-1,0
1523613383835,-131072,73,-56,-1,-1,0
1523613383835,-131072,73,-56,-1,-1,0
1523613383875,-196608,73,-56,-1,-1,0
1523613383875,-262144,73,-56,-1,-1,0
1523613383875,393216,73,-56,-1,-1,0
1523613383875,2359296,73,-56,-1,-1,0
1523613383875,4718592,73,-56,-1,-1,0
1523613383915,4456448,73,-56,-1,-1,0
1523613383915,1048576,73,-56,-1,-1,0
1523613383915,-1835008,73,-56,-1,-1,0
1523613383915,-1966080,73,-56,-1,-1,0
1523613383915,-1179648,73,-56,-1,-1,0
1523613383956,-655360,73,-56,-1,-1,0
1523613383956,-393216,73,-56,-1,-1,0
1523613383956,-262144,73,-56,-1,-1,0
1523613383956,-131072,73,-56,-1,-1,0
1523613383956,-65536,73,-56,-1,-1,0
1523613383995,-131072,73,-56,-1,-1,0
1523613383995,-131072,73,-56,-1,-1,0
1523613383995,-131072,73,-56,-1,-1,0
1523613383995,-65536,73,-56,-1,-1,0
1523613383995,-65536,73,-56,-1,-1,0
1523613384035,0,72,-56,-1,-1,0
1523613384035,0,72,-56,-1,-1,0
1523613384035,0,72,-56,-1,-1,0
1523613384035,0,72,-56,-1,-1,0
1523613384035,65536,72,-56,-1,-1,0
1523613384075,65536,72,-56,-1,-1,0
1523613384075,131072,72,-56,-1,-1,0
1523613384075,196608,72,-56,-1,-1,0
1523613384075,262144,72,-56,-1,-1,0
1523613384075,327680,72,-56,-1,-1,0
1523613384115,458752,72,-56,-1,-1,0
1523613384115,458752,72,-56,-1,-1,0
1523613384115,524288,72,-56,-1,-1,0
1523613384115,655360,72,-56,-1,-1,0
1523613384115,851968,72,-56,-1,-1,0
1523613384155,983040,72,-56,-1,-1,0
1523613384155,1114112,72,-56,-1,-1,0
1523613384155,1245184,72,-56,-1,-1,0
1523613384155,1376256,72,-56,-1,-1,0
1523613384155,1441792,72,-56,-1,-1,0
1523613384196,1441792,72,-56,-1,-1,0
1523613384196,1507328,72,-56,-1,-1,0
1523613384196,1441792,72,-56,-1,-1,0
1523613384196,1245184,72,-56,-1,-1,0
1523613384196,1048576,72,-56,-1,-1,0
1523613384235,851968,72,-56,-1,-1,0
1523613384235,589824,72,-56,-1,-1,0
1523613384235,327680,72,-56,-1,-1,0
1523613384235,131072,72,-56,-1,-1,0
1523613384235,0,72,-56,-1,-1,0
1523613384276,-131072,72,-56,-1,-1,0
1523613384276,-262144,72,-56,-1,-1,0
1523613384276,-262144,72,-56,-1,-1,0
1523613384276,-262144,72,-56,-1,-1,0
1523613384276,-262144,72,-56,-1,-1,0
1523613384315,-262144,72,-56,-1,-1,0
1523613384315,-262144,72,-56,-1,-1,0
1523613384315,-327680,72,-56,-1,-1,0
1523613384315,-327680,72,-56,-1,-1,0
1523613384315,-327680,72,-56,-1,-1,0
1523613384356,-327680,72,-56,-1,-1,0
1523613384356,-327680,72,-56,-1,-1,0
1523613384356,-327680,72,-56,-1,-1,0
1523613384356,-262144,72,-56,-1,-1,0
1523613384356,-196608,72,-56,-1,-1,0
1523613384395,-131072,72,-56,-1,-1,0
1523613384395,-131072,72,-56,-1,-1,0
1523613384395,-131072,72,-56,-1,-1,0
1523613384395,-196608,72,-56,-1,-1,0
1523613384395,-262144,72,-56,-1,-1,0
1523613384452,-327680,72,-56,-1,-1,0
1523613384452,-393216,72,-56,-1,-1,0
1523613384452,-393216,72,-56,-1,-1,0
1523613384452,-458752,72,-56,-1,-1,0
1523613384452,-458752,72,-56,-1,-1,0
1523613384475,-458752,72,-56,-1,-1,0
1523613384475,-393216,72,-56,-1,-1,0
1523613384475,-458752,72,-56,-1,-1,0
1523613384475,-458752,72,-56,-1,-1,0
1523613384475,-458752,72,-56,-1,-1,0
1523613384515,-458752,72,-56,-1,-1,0
1523613384515,-393216,72,-56,-1,-1,0
1523613384515,-393216,72,-56,-1,-1,0
1523613384515,-393216,72,-56,-1,-1,0
1523613384515,-458752,72,-56,-1,-1,0
1523613384555,-458752,72,-56,-1,-1,0
1523613384555,-524288,72,-56,-1,-1,0
1523613384555,-524288,72,-56,-1,-1,0
1523613384555,-524288,72,-56,-1,-1,0
1523613384555,-524288,72,-56,-1,-1,0
1523613384595,-589824,72,-56,-1,-1,0
1523613384595,-655360,72,-56,-1,-1,0
1523613384595,-655360,72,-56,-1,-1,0
1523613384595,-589824,72,-56,-1,-1,0
1523613384595,-458752,72,-56,-1,-1,0
1523613384635,-393216,72,-56,-1,-1,0
1523613384635,-393216,72,-56,-1,-1,0
1523613384635,-524288,72,-56,-1,-1,0
1523613384635,-589824,72,-56,-1,-1,0
1523613384635,-458752,72,-56,-1,-1,0
1523613384675,-393216,72,-56,-1,-1,0
1523613384675,-393216,72,-56,-1,-1,0
1523613384675,-393216,72,-56,-1,-1,0
1523613384675,-327680,72,-56,-1,-1,0
1523613384675,-327680,72,-56,-1,-1,0
1523613384715,-393216,72,-56,-1,-1,0
1523613384715,-393216,72,-56,-1,-1,0
1523613384715,458752,72,-56,-1,-1,0
1523613384715,2752512,72,-56,-1,-1,0
1523613384715,4915200,72,-56,-1,-1,0
1523613384755,3735552,72,-56,-1,-1,0
1523613384755,131072,72,-56,-1,-1,0
1523613384755,-2097152,72,-56,-1,-1,0
1523613384755,-1769472,72,-56,-1,-1,0
1523613384755,-983040,72,-56,-1,-1,0
1523613384795,-524288,72,-56,-1,-1,0
1523613384795,-262144,72,-56,-1,-1,0
1523613384795,-196608,72,-56,-1,-1,0
1523613384795,-131072,72,-56,-1,-1,0
1523613384795,-65536,72,-56,-1,-1,0
1523613384835,-65536,72,-56,-1,-1,0
1523613384835,-65536,72,-56,-1,-1,0
1523613384835,0,72,-56,-1,-1,0
1523613384835,0,72,-56,-1,-1,0
1523613384835,0,72,-56,-1,-1,0
1523613384875,0,72,-56,-1,-1,0
1523613384875,0,72,-56,-1,-1,0
1523613384875,65536,72,-56,-1,-1,0
1523613384875,65536,72,-56,-1,-1,0
1523613384875,131072,72,-56,-1,-1,0
1523613384915,196608,71,-56,-1,-1,0
1523613384915,196608,71,-56,-1,-1,0
1523613384915,262144,71,-56,-1,-1,0
1523613384915,327680,71,-56,-1,-1,0
1523613384915,393216,71,-56,-1,-1,0
1523613384955,458752,71,-56,-1,-1,0
1523613384955,589824,71,-56,-1,-1,0
1523613384955,655360,71,-56,-1,-1,0
1523613384955,720896,71,-56,-1,-1,0
1523613384955,917504,71,-56,-1,-1,0
1523613384995,1179648,71,-56,-1,-1,0
1523613384995,1310720,71,-56,-1,-1,0
1523613384995,1507328,71,-56,-1,-1,0
1523613384995,1638400,71,-56,-1,-1,0
1523613384995,1638400,71,-56,-1,-1,0
1523613385035,1638400,71,-56,-1,-1,0
1523613385035,1572864,71,-56,-1,-1,0
1523613385035,1507328,71,-56,-1,-1,0
1523613385035,1376256,71,-56,-1,-1,0
1523613385035,1114112,71,-56,-1,-1,0
1523613385092,917504,71,-56,-1,-1,0
1523613385092,720896,71,-56,-1,-1,0
1523613385092,458752,71,-56,-1,-1,0
1523613385092,262144,71,-56,-1,-1,0
1523613385092,196608,71,-56,-1,-1,0
1523613385115,131072,71,-56,-1,-1,0
1523613385115,65536,71,-56,-1,-1,0
1523613385115,0,71,-56,-1,-1,0
1523613385115,0,71,-56,-1,-1,0
1523613385115,0,71,-56,-1,-1,0
1523613385155,-65536,71,-56,-1,-1,0
1523613385155,-65536,71,-56,-1,-1,0
1523613385155,-65536,71,-56,-1,-1,0
1523613385155,-65536,71,-56,-1,-1,0
1523613385155,0,71,-56,-1,-1,0
1523613385195,0,71,-56,-1,-1,0
1523613385195,0,71,-56,-1,-1,0
1523613385195,0,71,-56,-1,-1,0
1523613385195,-65536,71,-56,-1,-1,0
1523613385195,-131072,71,-56,-1,-1,0
1523613385235,-131072,71,-56,-1,-1,0
1523613385235,-65536,71,-56,-1,-1,0
1523613385235,-131072,71,-56,-1,-1,0
1523613385235,-196608,71,-56,-1,-1,0
1523613385235,-327680,71,-56,-1,-1,0
1523613385276,-393216,71,-56,-1,-1,0
1523613385276,-393216,71,-56,-1,-1,0
1523613385276,-458752,71,-56,-1,-1,0
1523613385276,-458752,71,-56,-1,-1,0
1523613385276,-524288,71,-56,-1,-1,0
1523613385315,-524288,71,-56,-1,-1,0
1523613385315,-524288,71,-56,-1,-1,0
1523613385315,-458752,71,-56,-1,-1,0
1523613385315,-458752,71,-56,-1,-1,0
1523613385315,-524288,71,-56,-1,-1,0
1523613385356,-589824,71,-56,-1,-1,0
1523613385356,-589824,71,-56,-1,-1,0
1523613385356,-655360,71,-56,-1,-1,0
1523613385356,-720896,71,-56,-1,-1,0
1523613385356,-720896,71,-56,-1,-1,0
1523613385395,-786432,71,-56,-1,-1,0
1523613385395,-851968,71,-56,-1,-1,0
1523613385395,-851968,71,-56,-1,-1,0
1523613385395,-917504,71,-56,-1,-1,0
1523613385395,-917504,71,-56,-1,-1,0
1523613385435,-917504,71,-56,-1,-1,0
1523613385435,-917504,71,-56,-1,-1,0
1523613385435,-917504,71,-56,-1,-1,0
1523613385435,-917504,71,-56,-1,-1,0
1523613385435,-983040,71,-56,-1,-1,0
1523613385475,-983040,71,-56,-1,-1,0
1523613385475,-1048576,71,-56,-1,-1,0
1523613385475,-1114112,71,-56,-1,-1,0
1523613385475,-1114112,71,-56,-1,-1,0
1523613385475,-1048576,71,-56,-1,-1,0
1523613385515,-983040,71,-56,-1,-1,0
1523613385515,-983040,71,-56,-1,-1,0
1523613385515,-851968,71,-56,-1,-1,0
1523613385515,-786432,71,-56,-1,-1,0
1523613385515,-786432,71,-56,-1,-1,0
1523613385555,-786432,71,-56,-1,-1,0
1523613385555,-786432,71,-56,-1,-1,0
1523613385555,-786432,71,-56,-1,-1,0
1523613385555,-851968,71,-56,-1,-1,0
1523613385555,-851968,71,-56,-1,-1,0
1523613385595,-851968,71,-56,-1,-1,0
1523613385595,-851968,71,-56,-1,-1,0
1523613385595,-917504,71,-56,-1,-1,0
1523613385595,-917504,71,-56,-1,-1,0
1523613385595,-524288,71,-56,-1,-1,0
1523613385636,917504,71,-56,-1,-1,0
1523613385636,3211264,71,-56,-1,-1,0
1523613385636,3735552,71,-56,-1,-1,0
1523613385636,1048576,71,-56,-1,-1,0
1523613385636,-1966080,71,-56,-1,-1,0
1523613385675,-2686976,71,-56,-1,-1,0
1523613385675,-2031616,71,-56,-1,-1,0
1523613385675,-1507328,71,-56,-1,-1,0
1523613385675,-1048576,71,-56,-1,-1,0
1523613385675,-917504,71,-56,-1,-1,0
1523613385732,-917504,71,-56,-1,-1,0
1523613385732,-851968,71,-56,-1,-1,0
1523613385732,-786432,71,-56,-1,-1,0
1523613385732,-720896,71,-56,-1,-1,0
1523613385732,-720896,71,-56,-1,-1,0
1523613385755,-655360,71,-56,-1,-1,0
1523613385755,-720896,71,-56,-1,-1,0
1523613385755,-720896,71,-56,-1,-1,0
1523613385755,-786432,71,-56,-1,-1,0
1523613385755,-720896,71,-56,-1,-1,0
1523613385795,-720896,71,-56,-1,-1,0
1523613385795,-655360,71,-56,-1,-1,0
1523613385795,-589824,71,-56,-1,-1,0
1523613385795,-589824,71,-56,-1,-1,0
1523613385795,-589824,71,-56,-1,-1,0
1523613385835,-524288,71,-56,-1,-1,0
1523613385835,-458752,71,-56,-1,-1,0
1523613385835,-393216,71,-56,-1,-1,0
1523613385835,-262144,71,-56,-1,-1,0
1523613385835,-196608,71,-56,-1,-1,0
1523613385875,-65536,71,-56,-1,-1,0
1523613385875,0,71,-56,-1,-1,0
1523613385875,131072,71,-56,-1,-1,0
1523613385875,327680,71,-56,-1,-1,0
1523613385875,524288,71,-56,-1,-1,0
1523613385915,589824,71,-56,-1,-1,0
1523613385915,720896,71,-56,-1,-1,0
1523613385915,720896,71,-56,-1,-1,0
1523613385915,786432,71,-56,-1,-1,0
1523613385915,786432,71,-56,-1,-1,0
1523613385955,720896,71,-56,-1,-1,0
1523613385955,524288,71,-56,-1,-1,0
1523613385955,262144,71,-56,-1,-1,0
1523613385955,65536,71,-56,-1,-1,0
1523613385955,-131072,71,-56,-1,-1,0
1523613385995,-327680,71,-56,-1,-1,0
1523613385995,-393216,71,-56,-1,-1,0
1523613385995,-458752,71,-56,-1,-1,0
1523613385995,-589824,71,-56,-1,-1,0
1523613385995,-589824,71,-56,-1,-1,0
1523613386035,-589824,71,-56,-1,-1,0
1523613386035,-589824,71,-56,-1,-1,0
1523613386035,-589824,71,-56,-1,-1,0
1523613386035,-589824,71,-56,-1,-1,0
1523613386035,-524288,71,-56,-1,-1,0
1523613386075,-458752,71,-56,-1,-1,0
1523613386075,-524288,71,-56,-1,-1,0
1523613386075,-458752,71,-56,-1,-1,0
1523613386075,-458752,71,-56,-1,-1,0
1523613386075,-458752,71,-56,-1,-1,0
1523613386115,-393216,71,-56,-1,-1,0
1523613386115,-327680,71,-56,-1,-1,0
1523613386115,-262144,71,-56,-1,-1,0
1523613386115,-327680,71,-56,-1,-1,0
1523613386115,-393216,71,-56,-1,-1,0
1523613386155,-393216,71,-56,-1,-1,0
1523613386155,-458752,71,-56,-1,-1,0
1523613386155,-458752,71,-56,-1,-1,0
1523613386155,-393216,71,-56,-1,-1,0
1523613386155,-393216,71,-56,-1,-1,0
1523613386195,-393216,71,-56,-1,-1,0
1523613386195,-393216,71,-56,-1,-1,0
1523613386195,-458752,71,-56,-1,-1,0
1523613386195,-393216,71,-56,-1,-1,0
1523613386195,-327680,71,-56,-1,-1,0
1523613386235,-393216,71,-56,-1,-1,0
1523613386235,-327680,71,-56,-1,-1,0
1523613386235,-327680,71,-56,-1,-1,0
1523613386235,-327680,71,-56,-1,-1,0
1523613386235,-327680,71,-56,-1,-1,0
1523613386275,-327680,71,-56,-1,-1,0
1523613386275,-327680,71,-56,-1,-1,0
1523613386275,-327680,71,-56,-1,-1,0
1523613386275,-327680,71,-56,-1,-1,0
1523613386275,-327680,71,-56,-1,-1,0
1523613386315,-262144,71,-56,-1,-1,0
1523613386315,-262144,71,-56,-1,-1,0
1523613386315,-262144,71,-56,-1,-1,0
1523613386315,-262144,71,-56,-1,-1,0
1523613386315,-262144,71,-56,-1,-1,0
1523613386372,-262144,71,-56,-1,-1,0
1523613386372,-327680,71,-56,-1,-1,0
1523613386372,-262144,71,-56,-1,-1,0
1523613386372,-262144,71,-56,-1,-1,0
1523613386372,-196608,71,-56,-1,-1,0
1523613386395,-262144,71,-56,-1,-1,0
1523613386395,-327680,71,-56,-1,-1,0
1523613386395,-262144,71,-56,-1,-1,0
1523613386395,-327680,71,-56,-1,-1,0
1523613386395,-327680,71,-56,-1,-1,0
1523613386435,-327680,71,-56,-1,-1,0
1523613386435,-262144,71,-56,-1,-1,0
1523613386435,-131072,71,-56,-1,-1,0
1523613386435,-131072,71,-56,-1,-1,0
1523613386435,-131072,71,-56,-1,-1,0
1523613386476,-65536,71,-56,-1,-1,0
1523613386476,-65536,71,-56,-1,-1,0
1523613386476,-65536,71,-56,-1,-1,0
1523613386476,-65536,71,-56,-1,-1,0
1523613386476,0,71,-56,-1,-1,0
1523613386516,65536,71,-56,-1,-1,0
1523613386516,0,71,-56,-1,-1,0
1523613386516,0,71,-56,-1,-1,0
1523613386516,589824,71,-56,-1,-1,0
1523613386516,2490368,71,-56,-1,-1,0
1523613386555,4784128,71,-56,-1,-1,0
1523613386555,4325376,71,-56,-1,-1,0
1523613386555,983040,71,-56,-1,-1,0
1523613386555,-1703936,71,-56,-1,-1,0
1523613386555,-1703936,71,-56,-1,-1,0
1523613386595,-917504,71,-56,-1,-1,0
1523613386595,-393216,71,-56,-1,-1,0
1523613386595,0,71,-56,-1,-1,0
1523613386595,131072,71,-56,-1,-1,0
1523613386595,131072,71,-56,-1,-1,0
1523613386635,131072,71,-56,-1,-1,0
1523613386635,196608,71,-56,-1,-1,0
1523613386635,196608,71,-56,-1,-1,0
1523613386635,196608,71,-56,-1,-1,0
1523613386635,196608,71,-56,-1,-1,0
1523613386675,262144,71,-56,-1,-1,0
1523613386675,327680,71,-56,-1,-1,0
1523613386675,327680,71,-56,-1,-1,0
1523613386675,327680,71,-56,-1,-1,0
1523613386675,262144,71,-56,-1,-1,0
1523613386715,327680,71,-56,-1,-1,0
1523613386715,393216,71,-56,-1,-1,0
1523613386715,458752,71,-56,-1,-1,0
1523613386715,524288,71,-56,-1,-1,0
1523613386715,589824,71,-56,-1,-1,0
1523613386755,589824,71,-56,-1,-1,0
1523613386755,720896,71,-56,-1,-1,0
1523613386755,786432,71,-56,-1,-1,0
1523613386755,851968,71,-56,-1,-1,0
1523613386755,917504,71,-56,-1,-1,0
1523613386800,1114112,71,-56,-1,-1,0
1523613386800,1245184,71,-56,-1,-1,0
1523613386800,1376256,71,-56,-1,-1,0
1523613386800,1441792,71,-56,-1,-1,0
1523613386800,1507328,71,-56,-1,-1,0
1523613386835,1507328,71,-56,-1,-1,0
1523613386835,1572864,71,-56,-1,-1,0
1523613386835,1572864,71,-56,-1,-1,0
1523613386835,1572864,71,-56,-1,-1,0
1523613386835,1376256,71,-56,-1,-1,0
1523613386875,1179648,71,-56,-1,-1,0
1523613386875,917504,71,-56,-1,-1,0
1523613386875,720896,71,-56,-1,-1,0
1523613386875,524288,71,-56,-1,-1,0
1523613386875,327680,71,-56,-1,-1,0
1523613386915,262144,71,-56,-1,-1,0
1523613386915,131072,71,-56,-1,-1,0
1523613386915,0,71,-56,-1,-1,0
1523613386915,0,71,-56,-1,-1,0
1523613386915,0,71,-56,-1,-1,0
1523613386955,0,71,-56,-1,-1,0
1523613386955,65536,71,-56,-1,-1,0
1523613386955,65536,71,-56,-1,-1,0
1523613386955,65536,71,-56,-1,-1,0
1523613386955,65536,71,-56,-1,-1,0
1523613387012,65536,71,-56,-1,-1,0
1523613387012,65536,71,-56,-1,-1,0
1523613387012,131072,71,-56,-1,-1,0
1523613387012,131072,71,-56,-1,-1,0
1523613387012,65536,71,-56,-1,-1,0
1523613387035,65536,71,-56,-1,-1,0
1523613387035,0,71,-56,-1,-1,0
1523613387035,65536,71,-56,-1,-1,0
1523613387035,65536,71,-56,-1,-1,0
1523613387035,65536,71,-56,-1,-1,0
1523613387075,65536,71,-56,-1,-1,0
1523613387075,65536,71,-56,-1,-1,0
1523613387075,0,71,-56,-1,-1,0
1523613387075,0,71,-56,-1,-1,0
1523613387075,65536,71,-56,-1,-1,0
1523613387115,0,71,-56,-1,-1,0
1523613387115,0,71,-56,-1,-1,0
1523613387115,0,71,-56,-1,-1,0
1523613387115,0,71,-56,-1,-1,0
1523613387115,0,71,-56,-1,-1,0
1523613387155,0,71,-56,-1,-1,0
1523613387155,-65536,71,-56,-1,-1,0
1523613387155,-65536,71,-56,-1,-1,0
1523613387155,-65536,71,-56,-1,-1,0
1523613387155,-65536,71,-56,-1,-1,0
1523613387195,0,71,-56,-1,-1,0
1523613387195,0,71,-56,-1,-1,0
1523613387195,0,71,-56,-1,-1,0
1523613387195,0,71,-56,-1,-1,0
1523613387195,-65536,71,-56,-1,-1,0
1523613387235,-131072,71,-56,-1,-1,0
1523613387235,-196608,71,-56,-1,-1,0
1523613387235,-262144,71,-56,-1,-1,0
1523613387235,-131072,71,-56,-1,-1,0
1523613387235,0,71,-56,-1,-1,0
1523613387275,0,71,-56,-1,-1,0
1523613387275,0,71,-56,-1,-1,0
1523613387275,0,71,-56,-1,-1,0
1523613387275,-65536,71,-56,-1,-1,0
1523613387275,-65536,71,-56,-1,-1,0
1523613387315,-65536,71,-56,-1,-1,0
1523613387315,-65536,71,-56,-1,-1,0
1523613387315,0,71,-56,-1,-1,0
1523613387315,-65536,71,-56,-1,-1,0
1523613387315,-131072,71,-56,-1,-1,0
1523613387355,-262144,71,-56,-1,-1,0
1523613387355,-131072,71,-56,-1,-1,0
1523613387355,917504,71,-56,-1,-1,0
1523613387355,3276800,71,-56,-1,-1,0
1523613387355,5046272,71,-56,-1,-1,0
1523613387395,3276800,71,-56,-1,-1,0
1523613387395,-262144,71,-56,-1,-1,0
1523613387395,-2031616,71,-56,-1,-1,0
1523613387395,-1507328,71,-56,-1,-1,0
1523613387395,-786432,71,-56,-1,-1,0
1523613387435,-327680,71,-56,-1,-1,0
1523613387435,-65536,71,-56,-1,-1,0
1523613387435,0,71,-56,-1,-1,0
1523613387435,0,71,-56,-1,-1,0
1523613387435,0,71,-56,-1,-1,0
1523613387475,65536,71,-56,-1,-1,0
1523613387475,65536,71,-56,-1,-1,0
1523613387475,65536,71,-56,-1,-1,0
1523613387475,65536,71,-56,-1,-1,0
1523613387475,65536,71,-56,-1,-1,0
1523613387516,65536,71,-56,-1,-1,0
1523613387516,65536,71,-56,-1,-1,0
1523613387516,65536,71,-56,-1,-1,0
1523613387516,65536,71,-56,-1,-1,0
1523613387516,131072,71,-56,-1,-1,0
1523613387555,131072,71,-56,-1,-1,0
1523613387555,196608,71,-56,-1,-1,0
1523613387555,262144,71,-56,-1,-1,0
1523613387555,327680,71,-56,-1,-1,0
1523613387555,458752,71,-56,-1,-1,0
1523613387595,524288,71,-56,-1,-1,0
1523613387595,589824,71,-56,-1,-1,0
1523613387595,720896,71,-56,-1,-1,0
1523613387595,786432,71,-56,-1,-1,0
1523613387595,983040,71,-56,-1,-1,0
1523613387652,1114112,71,-56,-1,-1,0
1523613387652,1245184,71,-56,-1,-1,0
1523613387652,1310720,71,-56,-1,-1,0
1523613387652,1310720,71,-56,-1,-1,0
1523613387652,1441792,71,-56,-1,-1,0
1523613387675,1572864,71,-56,-1,-1,0
1523613387675,1572864,71,-56,-1,-1,0
1523613387675,1441792,71,-56,-1,-1,0
1523613387675,1179648,71,-56,-1,-1,0
1523613387675,983040,71,-56,-1,-1,0
1523613387715,720896,71,-56,-1,-1,0
1523613387715,458752,71,-56,-1,-1,0
1523613387715,262144,71,-56,-1,-1,0
1523613387715,131072,71,-56,-1,-1,0
1523613387715,65536,71,-56,-1,-1,0
1523613387755,0,71,-56,-1,-1,0
1523613387755,0,71,-56,-1,-1,0
1523613387755,-65536,71,-56,-1,-1,0
1523613387755,-131072,71,-56,-1,-1,0
1523613387755,-65536,71,-56,-1,-1,0
1523613387795,0,71,-56,-1,-1,0
1523613387795,0,71,-56,-1,-1,0
1523613387795,0,71,-56,-1,-1,0
1523613387795,0,71,-56,-1,-1,0
1523613387795,0,71,-56,-1,-1,0
1523613387835,0,71,-56,-1,-1,0
1523613387835,0,71,-56,-1,-1,0
1523613387835,0,71,-56,-1,-1,0
1523613387835,0,71,-56,-1,-1,0
1523613387835,0,71,-56,-1,-1,0
1523613387875,-65536,71,-56,-1,-1,0
1523613387875,-65536,71,-56,-1,-1,0
1523613387875,-65536,71,-56,-1,-1,0
1523613387875,-131072,71,-56,-1,-1,0
1523613387875,-131072,71,-56,-1,-1,0
1523613387915,-131072,71,-56,-1,-1,0
1523613387915,-131072,71,-56,-1,-1,0
1523613387915,-131072,71,-56,-1,-1,0
1523613387915,-131072,71,-56,-1,-1,0
1523613387915,-131072,71,-56,-1,-1,0
1523613387955,-131072,71,-56,-1,-1,0
1523613387955,-131072,71,-56,-1,-1,0
1523613387955,-131072,71,-56,-1,-1,0
1523613387955,-131072,71,-56,-1,-1,0
1523613387955,-196608,71,-56,-1,-1,0
1523613387995,-262144,71,-56,-1,-1,0
1523613387995,-196608,71,-56,-1,-1,0
1523613387995,-131072,71,-56,-1,-1,0
1523613387995,-65536,71,-56,-1,-1,0
1523613387995,-131072,71,-56,-1,-1,0
1523613388037,-196608,71,-56,-1,-1,0
1523613388037,-262144,71,-56,-1,-1,0
1523613388037,-196608,71,-56,-1,-1,0
1523613388037,-262144,71,-56,-1,-1,0
1523613388037,-196608,71,-56,-1,-1,0
1523613388075,-196608,71,-56,-1,-1,0
1523613388075,-131072,71,-56,-1,-1,0
1523613388075,-196608,71,-56,-1,-1,0
1523613388075,-262144,71,-56,-1,-1,0
1523613388075,-327680,71,-56,-1,-1,0
1523613388115,-327680,71,-56,-1,-1,0
1523613388115,-262144,71,-56,-1,-1,0
1523613388115,-131072,71,-56,-1,-1,0
1523613388115,-65536,71,-56,-1,-1,0
1523613388115,-65536,71,-56,-1,-1,0
1523613388155,-131072,71,-56,-1,-1,0
1523613388155,-131072,71,-56,-1,-1,0
1523613388155,-196608,71,-56,-1,-1,0
1523613388155,-196608,71,-56,-1,-1,0
1523613388155,-131072,71,-56,-1,-1,0
1523613388197,-196608,71,-56,-1,-1,0
1523613388197,-196608,71,-56,-1,-1,0
1523613388197,-262144,71,-56,-1,-1,0
1523613388197,-327680,71,-56,-1,-1,0
1523613388197,-131072,71,-56,-1,-1,0
1523613388235,851968,71,-56,-1,-1,0
1523613388235,3080192,71,-56,-1,-1,0
1523613388235,4718592,71,-56,-1,-1,0
1523613388235,2883584,71,-56,-1,-1,0
1523613388235,-524288,71,-56,-1,-1,0
1523613388292,-2228224,71,-56,-1,-1,0
1523613388292,-1703936,71,-56,-1,-1,0
1523613388292,-1048576,71,-56,-1,-1,0
1523613388292,-589824,71,-56,-1,-1,0
1523613388292,-327680,71,-56,-1,-1,0
1523613388315,-262144,71,-56,-1,-1,0
1523613388315,-131072,71,-56,-1,-1,0
1523613388315,-131072,71,-56,-1,-1,0
1523613388315,-131072,71,-56,-1,-1,0
1523613388315,-131072,71,-56,-1,-1,0
1523613388355,-65536,71,-56,-1,-1,0
1523613388355,0,71,-56,-1,-1,0
1523613388355,0,71,-56,-1,-1,0
1523613388355,0,71,-56,-1,-1,0
1523613388355,0,71,-56,-1,-1,0
1523613388395,0,71,-56,-1,-1,0
1523613388395,0,71,-56,-1,-1,0
1523613388395,0,71,-56,-1,-1,0
1523613388395,0,71,-56,-1,-1,0
1523613388395,0,71,-56,-1,-1,0
1523613388435,0,71,-56,-1,-1,0
1523613388435,65536,71,-56,-1,-1,0
1523613388435,196608,71,-56,-1,-1,0
1523613388435,327680,71,-56,-1,-1,0
1523613388435,327680,71,-56,-1,-1,0
1523613388475,458752,71,-56,-1,-1,0
1523613388475,589824,71,-56,-1,-1,0
1523613388475,786432,71,-56,-1,-1,0
1523613388475,917504,71,-56,-1,-1,0
1523613388475,1114112,71,-56,-1,-1,0
1523613388516,1310720,71,-56,-1,-1,0
1523613388516,1376256,71,-56,-1,-1,0
1523613388516,1376256,71,-56,-1,-1,0
1523613388516,1376256,71,-56,-1,-1,0
1523613388516,1441792,71,-56,-1,-1,0
1523613388555,1310720,71,-56,-1,-1,0
1523613388555,1114112,71,-56,-1,-1,0
1523613388555,917504,71,-56,-1,-1,0
1523613388555,655360,71,-56,-1,-1,0
1523613388555,458752,71,-56,-1,-1,0
1523613388596,196608,71,-56,-1,-1,0
1523613388596,65536,71,-56,-1,-1,0
1523613388596,0,71,-56,-1,-1,0
1523613388596,0,71,-56,-1,-1,0
1523613388596,0,71,-56,-1,-1,0
1523613388635,-65536,71,-56,-1,-1,0
1523613388635,-131072,71,-56,-1,-1,0
1523613388635,-131072,71,-56,-1,-1,0
1523613388635,-65536,71,-56,-1,-1,0
1523613388635,-65536,71,-56,-1,-1,0
1523613388675,-65536,71,-56,-1,-1,0
1523613388675,-131072,71,-56,-1,-1,0
1523613388675,-131072,71,-56,-1,-1,0
1523613388675,-131072,71,-56,-1,-1,0
1523613388675,-131072,71,-56,-1,-1,0
1523613388718,-131072,71,-56,-1,-1,0
1523613388718,-65536,71,-56,-1,-1,0
1523613388718,-131072,71,-56,-1,-1,0
1523613388718,-131072,71,-56,-1,-1,0
1523613388718,-196608,71,-56,-1,-1,0
1523613388755,-196608,71,-56,-1,-1,0
1523613388755,-196608,71,-56,-1,-1,0
1523613388755,-262144,71,-56,-1,-1,0
1523613388755,-327680,71,-56,-1,-1,0
1523613388755,-327680,71,-56,-1,-1,0
1523613388795,-327680,71,-56,-1,-1,0
1523613388795,-327680,71,-56,-1,-1,0
1523613388795,-327680,71,-56,-1,-1,0
1523613388795,-327680,71,-56,-1,-1,0
1523613388795,-327680,71,-56,-1,-1,0
1523613388835,-393216,71,-56,-1,-1,0
1523613388835,-327680,71,-56,-1,-1,0
1523613388835,-262144,71,-56,-1,-1,0
1523613388835,-262144,71,-56,-1,-1,0
1523613388835,-262144,71,-56,-1,-1,0
1523613388875,-262144,71,-56,-1,-1,0
1523613388875,-327680,71,-56,-1,-1,0
1523613388875,-393216,71,-56,-1,-1,0
1523613388875,-327680,71,-56,-1,-1,0
1523613388875,-327680,71,-56,-1,-1,0
1523613388933,-393216,71,-56,-1,-1,0
1523613388933,-458752,71,-56,-1,-1,0
1523613388933,-458752,71,-56,-1,-1,0
1523613388933,-393216,71,-56,-1,-1,0
1523613388933,-393216,71,-56,-1,-1,0
1523613388955,-327680,71,-56,-1,-1,0
1523613388955,-327680,71,-56,-1,-1,0
1523613388955,-393216,71,-56,-1,-1,0
1523613388955,-393216,71,-56,-1,-1,0
1523613388955,-393216,71,-56,-1,-1,0
1523613388995,-327680,71,-56,-1,-1,0
1523613388995,-327680,71,-56,-1,-1,0
1523613388995,-327680,71,-56,-1,-1,0
1523613388995,-262144,71,-56,-1,-1,0
1523613388995,-262144,71,-56,-1,-1,0
1523613389035,-327680,71,-56,-1,-1,0
1523613389035,-327680,71,-56,-1,-1,0
1523613389035,-327680,71,-56,-1,-1,0
1523613389035,-393216,71,-56,-1,-1,0
1523613389035,-393216,71,-56,-1,-1,0
1523613389075,-327680,71,-56,-1,-1,0
1523613389075,-327680,71,-56,-1,-1,0
1523613389075,-327680,71,-56,-1,-1,0
1523613389075,-393216,71,-56,-1,-1,0
1523613389075,-327680,71,-56,-1,-1,0
1523613389115,196608,71,-56,-1,-1,0
1523613389115,2097152,71,-56,-1,-1,0
1523613389115,4325376,71,-56,-1,-1,0
1523613389115,3735552,71,-56,-1,-1,0
1523613389115,393216,71,-56,-1,-1,0
1523613389155,-2293760,71,-56,-1,-1,0
1523613389155,-2359296,71,-56,-1,-1,0
1523613389155,-1572864,71,-56,-1,-1,0
1523613389155,-1048576,71,-56,-1,-1,0
1523613389155,-655360,71,-56,-1,-1,0
1523613389195,-458752,71,-56,-1,-1,0
1523613389195,-393216,71,-56,-1,-1,0
1523613389195,-327680,71,-56,-1,-1,0
1523613389195,-262144,71,-56,-1,-1,0
1523613389195,-262144,71,-56,-1,-1,0
1523613389235,-262144,70,-56,-1,-1,0
1523613389235,-262144,70,-56,-1,-1,0
1523613389235,-196608,70,-56,-1,-1,0
1523613389235,-131072,70,-56,-1,-1,0
1523613389235,-131072,70,-56,-1,-1,0
1523613389275,-131072,70,-56,-1,-1,0
1523613389275,-131072,70,-56,-1,-1,0
1523613389275,-65536,70,-56,-1,-1,0
1523613389275,-65536,70,-56,-1,-1,0
1523613389275,0,70,-56,-1,-1,0
1523613389316,0,70,-56,-1,-1,0
1523613389316,0,70,-56,-1,-1,0
1523613389316,0,70,-56,-1,-1,0
1523613389316,131072,70,-56,-1,-1,0
1523613389316,196608,70,-56,-1,-1,0
1523613389355,327680,70,-56,-1,-1,0
1523613389355,458752,70,-56,-1,-1,0
1523613389355,655360,70,-56,-1,-1,0
1523613389355,786432,70,-56,-1,-1,0
1523613389355,983040,70,-56,-1,-1,0
1523613389395,1114112,70,-56,-1,-1,0
1523613389395,1179648,70,-56,-1,-1,0
1523613389395,1245184,70,-56,-1,-1,0
1523613389395,1245184,70,-56,-1,-1,0
1523613389395,1310720,70,-56,-1,-1,0
1523613389435,1245184,70,-56,-1,-1,0
1523613389435,1114112,70,-56,-1,-1,0
1523613389435,786432,70,-56,-1,-1,0
1523613389435,524288,70,-56,-1,-1,0
1523613389435,327680,70,-56,-1,-1,0
1523613389475,131072,70,-56,-1,-1,0
1523613389475,0,70,-56,-1,-1,0
1523613389475,-131072,70,-56,-1,-1,0
1523613389475,-262144,70,-56,-1,-1,0
1523613389475,-262144,70,-56,-1,-1,0
1523613389515,-262144,70,-56,-1,-1,0
1523613389515,-262144,70,-56,-1,-1,0
1523613389515,-262144,70,-56,-1,-1,0
1523613389515,-262144,70,-56,-1,-1,0
1523613389515,-262144,70,-56,-1,-1,0
1523613389571,-262144,70,-56,-1,-1,0
1523613389571,-262144,70,-56,-1,-1,0
1523613389571,-262144,70,-56,-1,-1,0
1523613389571,-196608,70,-56,-1,-1,0
1523613389571,-131072,70,-56,-1,-1,0
1523613389595,-196608,70,-56,-1,-1,0
1523613389595,-262144,70,-56,-1,-1,0
1523613389595,-327680,70,-56,-1,-1,0
1523613389595,-327680,70,-56,-1,-1,0
1523613389595,-262144,70,-56,-1,-1,0
1523613389635,-262144,70,-56,-1,-1,0
1523613389635,-327680,70,-56,-1,-1,0
1523613389635,-393216,70,-56,-1,-1,0
1523613389635,-393216,70,-56,-1,-1,0
1523613389635,-393216,70,-56,-1,-1,0
1523613389675,-458752,70,-56,-1,-1,0
1523613389675,-458752,70,-56,-1,-1,0
1523613389675,-524288,70,-56,-1,-1,0
1523613389675,-524288,70,-56,-1,-1,0
1523613389675,-589824,70,-56,-1,-1,0
1523613389716,-655360,70,-56,-1,-1,0
1523613389716,-655360,70,-56,-1,-1,0
1523613389716,-655360,70,-56,-1,-1,0
1523613389716,-655360,70,-56,-1,-1,0
1523613389716,-589824,70,-56,-1,-1,0
1523613389755,-589824,70,-56,-1,-1,0
1523613389755,-589824,70,-56,-1,-1,0
1523613389755,-589824,70,-56,-1,-1,0
1523613389755,-524288,70,-56,-1,-1,0
1523613389755,-524288,70,-56,-1,-1,0
1523613389796,-458752,70,-56,-1,-1,0
1523613389796,-524288,70,-56,-1,-1,0
1523613389796,-655360,70,-56,-1,-1,0
1523613389796,-720896,70,-56,-1,-1,0
1523613389796,-786432,70,-56,-1,-1,0
1523613389835,-786432,70,-56,-1,-1,0
1523613389835,-786432,70,-56,-1,-1,0
1523613389835,-655360,70,-56,-1,-1,0
1523613389835,-589824,70,-56,-1,-1,0
1523613389835,-589824,70,-56,-1,-1,0
1523613389875,-655360,70,-56,-1,-1,0
1523613389875,-720896,70,-56,-1,-1,0
1523613389875,-720896,70,-56,-1,-1,0
1523613389875,-655360,70,-56,-1,-1,0
1523613389875,-589824,70,-56,-1,-1,0
1523613389915,-655360,70,-56,-1,-1,0
1523613389915,-589824,70,-56,-1,-1,0
1523613389915,-524288,70,-56,-1,-1,0
1523613389915,-589824,70,-56,-1,-1,0
1523613389915,-524288,70,-56,-1,-1,0
1523613389955,458752,70,-56,-1,-1,0
1523613389955,2752512,70,-56,-1,-1,0
1523613389955,4456448,70,-56,-1,-1,0
1523613389955,2621440,70,-56,-1,-1,0
1523613389955,-917504,70,-56,-1,-1,0
1523613389995,-2621440,70,-56,-1,-1,0
1523613389995,-2097152,70,-56,-1,-1,0
1523613389995,-1441792,70,-56,-1,-1,0
1523613389995,-1048576,70,-56,-1,-1,0
1523613389995,-786432,70,-56,-1,-1,0
1523613390035,-655360,70,-56,-1,-1,0
1523613390035,-524288,70,-56,-1,-1,0
1523613390035,-458752,70,-56,-1,-1,0
1523613390035,-458752,70,-56,-1,-1,0
1523613390035,-458752,70,-56,-1,-1,0
1523613390075,-458752,70,-56,-1,-1,0
1523613390075,-393216,70,-56,-1,-1,0
1523613390075,-393216,70,-56,-1,-1,0
1523613390075,-393216,70,-56,-1,-1,0
1523613390075,-393216,70,-56,-1,-1,0
1523613390115,-393216,70,-56,-1,-1,0
1523613390115,-393216,70,-56,-1,-1,0
1523613390115,-262144,70,-56,-1,-1,0
1523613390115,-196608,70,-56,-1,-1,0
1523613390115,-131072,70,-56,-1,-1,0
1523613390155,-131072,70,-56,-1,-1,0
1523613390155,-65536,70,-56,-1,-1,0
1523613390155,-65536,70,-56,-1,-1,0
1523613390155,0,70,-56,-1,-1,0
1523613390155,65536,70,-56,-1,-1,0
1523613390213,196608,70,-56,-1,-1,0
1523613390213,327680,70,-56,-1,-1,0
1523613390213,524288,70,-56,-1,-1,0
1523613390213,655360,70,-56,-1,-1,0
1523613390213,786432,70,-56,-1,-1,0
1523613390235,851968,70,-56,-1,-1,0
1523613390235,983040,70,-56,-1,-1,0
1523613390235,1048576,70,-56,-1,-1,0
1523613390235,1114112,70,-56,-1,-1,0
1523613390235,1114112,70,-56,-1,-1,0
1523613390275,1048576,70,-56,-1,-1,0
1523613390275,851968,70,-56,-1,-1,0
1523613390275,589824,70,-56,-1,-1,0
1523613390275,393216,70,-56,-1,-1,0
1523613390275,196608,70,-56,-1,-1,0
1523613390315,65536,70,-56,-1,-1,0
1523613390315,0,70,-56,-1,-1,0
1523613390315,-65536,70,-56,-1,-1,0
1523613390315,-196608,70,-56,-1,-1,0
1523613390315,-131072,70,-56,-1,-1,0
1523613390357,-131072,70,-56,-1,-1,0
1523613390357,-65536,70,-56,-1,-1,0
1523613390357,-65536,70,-56,-1,-1,0
1523613390357,-65536,70,-56,-1,-1,0
1523613390357,-65536,70,-56,-1,-1,0
1523613390395,-131072,70,-56,-1,-1,0
1523613390395,-65536,70,-56,-1,-1,0
1523613390395,0,70,-56,-1,-1,0
1523613390395,-65536,70,-56,-1,-1,0
1523613390395,-65536,70,-56,-1,-1,0
1523613390435,-65536,70,-56,-1,-1,0
1523613390435,-65536,70,-56,-1,-1,0
1523613390435,0,70,-56,-1,-1,0
1523613390435,0,70,-56,-1,-1,0
1523613390435,-65536,70,-56,-1,-1,0
1523613390476,-131072,70,-56,-1,-1,0
1523613390476,-131072,70,-56,-1,-1,0
1523613390476,-131072,70,-56,-1,-1,0
1523613390476,-131072,70,-56,-1,-1,0
1523613390476,-131072,70,-56,-1,-1,0
1523613390515,-131072,70,-56,-1,-1,0
1523613390515,-131072,70,-56,-1,-1,0
1523613390515,-131072,70,-56,-1,-1,0
1523613390515,-196608,70,-56,-1,-1,0
1523613390515,-196608,70,-56,-1,-1,0
1523613390556,-131072,70,-56,-1,-1,0
1523613390556,-131072,70,-56,-1,-1,0
1523613390556,-196608,70,-56,-1,-1,0
1523613390556,-196608,70,-56,-1,-1,0
1523613390556,-196608,70,-56,-1,-1,0
1523613390595,-131072,70,-56,-1,-1,0
1523613390595,-131072,70,-56,-1,-1,0
1523613390595,-65536,70,-56,-1,-1,0
1523613390595,-65536,70,-56,-1,-1,0
1523613390595,0,70,-56,-1,-1,0
1523613390635,-65536,70,-56,-1,-1,0
1523613390635,-65536,70,-56,-1,-1,0
1523613390635,-65536,70,-56,-1,-1,0
1523613390635,0,70,-56,-1,-1,0
1523613390635,0,70,-56,-1,-1,0
1523613390675,0,70,-56,-1,-1,0
1523613390675,-65536,70,-56,-1,-1,0
1523613390675,-65536,70,-56,-1,-1,0
1523613390675,-131072,70,-56,-1,-1,0
1523613390675,-65536,70,-56,-1,-1,0
1523613390715,0,70,-56,-1,-1,0
1523613390715,65536,70,-56,-1,-1,0
1523613390715,65536,70,-56,-1,-1,0
1523613390715,65536,70,-56,-1,-1,0
1523613390715,0,70,-56,-1,-1,0
1523613390755,0,70,-56,-1,-1,0
1523613390755,0,70,-56,-1,-1,0
1523613390755,0,70,-56,-1,-1,0
1523613390755,0,70,-56,-1,-1,0
1523613390755,65536,70,-56,-1,-1,0
1523613390795,131072,70,-56,-1,-1,0
1523613390795,65536,70,-56,-1,-1,0
1523613390795,65536,70,-56,-1,-1,0
1523613390795,851968,70,-56,-1,-1,0
1523613390795,2883584,70,-56,-1,-1,0
1523613390851,5046272,70,-56,-1,-1,0
1523613390851,4325376,70,-56,-1,-1,0
1523613390851,917504,70,-56,-1,-1,0
1523613390851,-1507328,70,-56,-1,-1,0
1523613390851,-1441792,70,-56,-1,-1,0
1523613390875,-720896,70,-56,-1,-1,0
1523613390875,-262144,70,-56,-1,-1,0
1523613390875,0,70,-56,-1,-1,0
1523613390875,131072,70,-56,-1,-1,0
1523613390875,196608,70,-56,-1,-1,0
1523613390915,262144,70,-56,-1,-1,0
1523613390915,327680,70,-56,-1,-1,0
1523613390915,393216,70,-56,-1,-1,0
1523613390915,458752,70,-56,-1,-1,0
1523613390915,393216,70,-56,-1,-1,0
1523613390955,393216,69,-56,-1,-1,0
1523613390955,327680,69,-56,-1,-1,0
1523613390955,327680,69,-56,-1,-1,0
1523613390955,393216,69,-56,-1,-1,0
1523613390955,393216,69,-56,-1,-1,0
1523613390995,458752,69,-56,-1,-1,0
1523613390995,458752,69,-56,-1,-1,0
1523613390995,524288,69,-56,-1,-1,0
1523613390995,589824,69,-56,-1,-1,0
1523613390995,589824,69,-56,-1,-1,0
1523613391035,589824,69,-56,-1,-1,0
1523613391035,720896,69,-56,-1,-1,0
1523613391035,786432,69,-56,-1,-1,0
1523613391035,917504,69,-56,-1,-1,0
1523613391035,983040,69,-56,-1,-1,0
1523613391075,1179648,69,-56,-1,-1,0
1523613391075,1310720,69,-56,-1,-1,0
1523613391075,1507328,69,-56,-1,-1,0
1523613391075,1638400,69,-56,-1,-1,0
1523613391075,1703936,69,-56,-1,-1,0
1523613391115,1769472,69,-56,-1,-1,0
1523613391115,1769472,69,-56,-1,-1,0
1523613391115,1703936,69,-56,-1,-1,0
1523613391115,1638400,69,-56,-1,-1,0
1523613391115,1507328,69,-56,-1,-1,0
1523613391156,1310720,69,-56,-1,-1,0
1523613391156,1048576,69,-56,-1,-1,0
1523613391156,786432,69,-56,-1,-1,0
1523613391156,589824,69,-56,-1,-1,0
1523613391156,393216,69,-56,-1,-1,0
1523613391195,327680,69,-56,-1,-1,0
1523613391195,262144,69,-56,-1,-1,0
1523613391195,262144,69,-56,-1,-1,0
1523613391195,131072,69,-56,-1,-1,0
1523613391195,131072,69,-56,-1,-1,0
1523613391235,0,69,-56,-1,-1,0
1523613391235,0,69,-56,-1,-1,0
1523613391235,0,69,-56,-1,-1,0
1523613391235,0,69,-56,-1,-1,0
1523613391235,0,69,-56,-1,-1,0
1523613391275,-65536,69,-56,-1,-1,0
1523613391275,-65536,69,-56,-1,-1,0
1523613391275,0,69,-56,-1,-1,0
1523613391275,0,69,-56,-1,-1,0
1523613391275,65536,69,-56,-1,-1,0
1523613391315,65536,69,-56,-1,-1,0
1523613391315,0,69,-56,-1,-1,0
1523613391315,0,69,-56,-1,-1,0
1523613391315,0,69,-56,-1,-1,0
1523613391315,0,69,-56,-1,-1,0
1523613391355,0,69,-56,-1,-1,0
1523613391355,0,69,-56,-1,-1,0
1523613391355,0,69,-56,-1,-1,0
1523613391355,-65536,69,-56,-1,-1,0
1523613391355,-65536,69,-56,-1,-1,0
1523613391396,-196608,69,-56,-1,-1,0
1523613391396,-262144,69,-56,-1,-1,0
1523613391396,-327680,69,-56,-1,-1,0
1523613391396,-327680,69,-56,-1,-1,0
1523613391396,-327680,69,-56,-1,-1,0
1523613391435,-262144,69,-56,-1,-1,0
1523613391435,-262144,69,-56,-1,-1,0
1523613391435,-262144,69,-56,-1,-1,0
1523613391435,-262144,69,-56,-1,-1,0
1523613391435,-262144,69,-56,-1,-1,0
1523613391491,-327680,69,-56,-1,-1,0
1523613391491,-327680,69,-56,-1,-1,0
1523613391491,-327680,69,-56,-1,-1,0
1523613391491,-327680,69,-56,-1,-1,0
1523613391491,-327680,69,-56,-1,-1,0
1523613391515,-393216,69,-56,-1,-1,0
1523613391515,-524288,69,-56,-1,-1,0
1523613391515,-524288,69,-56,-1,-1,0
1523613391515,-458752,69,-56,-1,-1,0
1523613391515,-393216,69,-56,-1,-1,0
1523613391555,-393216,69,-56,-1,-1,0
1523613391555,-327680,69,-56,-1,-1,0
1523613391555,-327680,69,-56,-1,-1,0
1523613391555,-393216,69,-56,-1,-1,0
1523613391555,-458752,69,-56,-1,-1,0
1523613391596,-524288,69,-56,-1,-1,0
1523613391596,-524288,69,-56,-1,-1,0
1523613391596,-589824,69,-56,-1,-1,0
1523613391596,-589824,69,-56,-1,-1,0
1523613391596,-524288,69,-56,-1,-1,0
1523613391635,-524288,69,-56,-1,-1,0
1523613391635,-589824,69,-56,-1,-1,0
1523613391635,-655360,69,-56,-1,-1,0
1523613391635,-262144,69,-56,-1,-1,0
1523613391635,1179648,69,-56,-1,-1,0
1523613391675,3604480,69,-56,-1,-1,0
1523613391675,4390912,69,-56,-1,-1,0
1523613391675,1638400,69,-56,-1,-1,0
1523613391675,-1703936,69,-56,-1,-1,0
1523613391675,-2424832,69,-56,-1,-1,0
1523613391715,-1703936,69,-56,-1,-1,0
1523613391715,-1114112,69,-56,-1,-1,0
1523613391715,-655360,69,-56,-1,-1,0
1523613391715,-458752,69,-56,-1,-1,0
1523613391715,-393216,69,-56,-1,-1,0
1523613391755,-327680,69,-56,-1,-1,0
1523613391755,-327680,69,-56,-1,-1,0
1523613391755,-262144,69,-56,-1,-1,0
1523613391755,-262144,69,-56,-1,-1,0
1523613391755,-196608,69,-56,-1,-1,0
1523613391795,-196608,69,-56,-1,-1,0
1523613391795,-131072,69,-56,-1,-1,0
1523613391795,-65536,69,-56,-1,-1,0
1523613391795,-131072,69,-56,-1,-1,0
1523613391795,-196608,69,-56,-1,-1,0
1523613391835,-196608,69,-56,-1,-1,0
1523613391835,-131072,69,-56,-1,-1,0
1523613391835,-131072,69,-56,-1,-1,0
1523613391835,-65536,69,-56,-1,-1,0
1523613391835,0,69,-56,-1,-1,0
1523613391876,0,69,-56,-1,-1,0
1523613391876,65536,69,-56,-1,-1,0
1523613391876,131072,69,-56,-1,-1,0
1523613391876,262144,69,-56,-1,-1,0
1523613391876,393216,69,-56,-1,-1,0
1523613391915,589824,69,-56,-1,-1,0
1523613391915,720896,69,-56,-1,-1,0
1523613391915,917504,69,-56,-1,-1,0
1523613391915,1048576,69,-56,-1,-1,0
1523613391915,1114112,69,-56,-1,-1,0
1523613391957,1179648,69,-56,-1,-1,0
1523613391957,1179648,69,-56,-1,-1,0
1523613391957,1179648,69,-56,-1,-1,0
1523613391957,1114112,69,-56,-1,-1,0
1523613391957,983040,69,-56,-1,-1,0
1523613391995,786432,69,-56,-1,-1,0
1523613391995,524288,69,-56,-1,-1,0
1523613391995,262144,69,-56,-1,-1,0
1523613391995,65536,69,-56,-1,-1,0
1523613391995,0,69,-56,-1,-1,0
1523613392035,-131072,69,-56,-1,-1,0
1523613392035,-196608,69,-56,-1,-1,0
1523613392035,-196608,69,-56,-1,-1,0
1523613392035,-262144,69,-56,-1,-1,0
1523613392035,-262144,69,-56,-1,-1,0
1523613392075,-262144,69,-56,-1,-1,0
1523613392075,-196608,69,-56,-1,-1,0
1523613392075,-196608,69,-56,-1,-1,0
1523613392075,-131072,69,-56,-1,-1,0
1523613392075,-65536,69,-56,-1,-1,0
1523613392132,-65536,69,-56,-1,-1,0
1523613392132,-131072,69,-56,-1,-1,0
1523613392132,-131072,69,-56,-1,-1,0
1523613392132,-131072,69,-56,-1,-1,0
1523613392132,-131072,69,-56,-1,-1,0
1523613392155,-131072,69,-56,-1,-1,0
1523613392155,-65536,69,-56,-1,-1,0
1523613392155,-65536,69,-56,-1,-1,0
1523613392155,-65536,69,-56,-1,-1,0
1523613392155,-65536,69,-56,-1,-1,0
1523613392195,-65536,69,-56,-1,-1,0
1523613392195,-65536,69,-56,-1,-1,0
1523613392195,-65536,69,-56,-1,-1,0
1523613392195,-65536,69,-56,-1,-1,0
1523613392195,-131072,69,-56,-1,-1,0
1523613392235,-262144,69,-56,-1,-1,0
1523613392235,-327680,69,-56,-1,-1,0
1523613392235,-393216,69,-56,-1,-1,0
1523613392235,-393216,69,-56,-1,-1,0
1523613392235,-458752,69,-56,-1,-1,0
1523613392275,-458752,69,-56,-1,-1,0
1523613392275,-458752,69,-56,-1,-1,0
1523613392275,-458752,69,-56,-1,-1,0
1523613392275,-393216,69,-56,-1,-1,0
1523613392275,-458752,69,-56,-1,-1,0
1523613392315,-458752,69,-56,-1,-1,0
1523613392315,-458752,69,-56,-1,-1,0
1523613392315,-458752,69,-56,-1,-1,0
1523613392315,-393216,69,-56,-1,-1,0
1523613392315,-393216,69,-56,-1,-1,0
1523613392356,-393216,69,-56,-1,-1,0
1523613392356,-393216,69,-56,-1,-1,0
1523613392356,-327680,69,-56,-1,-1,0
1523613392356,-327680,69,-56,-1,-1,0
1523613392356,-393216,69,-56,-1,-1,0
1523613392395,-458752,69,-56,-1,-1,0
1523613392395,-458752,69,-56,-1,-1,0
1523613392395,-458752,69,-56,-1,-1,0
1523613392395,-393216,69,-56,-1,-1,0
1523613392395,-327680,69,-56,-1,-1,0
1523613392435,-196608,69,-56,-1,-1,0
1523613392435,-131072,69,-56,-1,-1,0
1523613392435,-262144,69,-56,-1,-1,0
1523613392435,-327680,69,-56,-1,-1,0
1523613392435,-458752,69,-56,-1,-1,0
1523613392475,-458752,69,-56,-1,-1,0
1523613392475,-393216,69,-56,-1,-1,0
1523613392475,-327680,69,-56,-1,-1,0
1523613392475,-262144,69,-56,-1,-1,0
1523613392475,-262144,69,-56,-1,-1,0
1523613392515,-262144,69,-56,-1,-1,0
1523613392515,-327680,69,-56,-1,-1,0
1523613392515,-393216,69,-56,-1,-1,0
1523613392515,262144,69,-56,-1,-1,0
1523613392515,2228224,69,-56,-1,-1,0
1523613392555,4456448,69,-56,-1,-1,0
1523613392555,3801088,69,-56,-1,-1,0
1523613392555,458752,69,-56,-1,-1,0
1523613392555,-2031616,69,-56,-1,-1,0
1523613392555,-1966080,69,-56,-1,-1,0
1523613392595,-1179648,69,-56,-1,-1,0
1523613392595,-655360,69,-56,-1,-1,0
1523613392595,-327680,69,-56,-1,-1,0
1523613392595,-262144,69,-56,-1,-1,0
1523613392595,-196608,69,-56,-1,-1,0
1523613392635,-131072,69,-56,-1,-1,0
1523613392635,-131072,69,-56,-1,-1,0
1523613392635,-131072,69,-56,-1,-1,0
1523613392635,-131072,69,-56,-1,-1,0
1523613392635,-65536,69,-56,-1,-1,0
1523613392675,-65536,69,-56,-1,-1,0
1523613392675,-131072,69,-56,-1,-1,0
1523613392675,-65536,69,-56,-1,-1,0
1523613392675,-65536,69,-56,-1,-1,0
1523613392675,-65536,69,-56,-1,-1,0
1523613392715,0,69,-56,-1,-1,0
1523613392715,0,69,-56,-1,-1,0
1523613392715,0,69,-56,-1,-1,0
1523613392715,0,69,-56,-1,-1,0
1523613392715,0,69,-56,-1,-1,0
1523613392771,0,69,-56,-1,-1,0
1523613392771,65536,69,-56,-1,-1,0
1523613392771,196608,69,-56,-1,-1,0
1523613392771,262144,69,-56,-1,-1,0
1523613392771,393216,69,-56,-1,-1,0
1523613392795,589824,69,-56,-1,-1,0
1523613392795,720896,69,-56,-1,-1,0
1523613392795,917504,69,-56,-1,-1,0
1523613392795,1048576,69,-56,-1,-1,0
1523613392795,1114112,69,-56,-1,-1,0
1523613392835,1179648,69,-56,-1,-1,0
1523613392835,1245184,69,-56,-1,-1,0
1523613392835,1245184,69,-56,-1,-1,0
1523613392835,1179648,69,-56,-1,-1,0
1523613392835,1114112,69,-56,-1,-1,0
1523613392875,917504,69,-56,-1,-1,0
1523613392875,655360,69,-56,-1,-1,0
1523613392875,393216,69,-56,-1,-1,0
1523613392875,131072,69,-56,-1,-1,0
1523613392875,0,69,-56,-1,-1,0
1523613392915,-131072,69,-56,-1,-1,0
1523613392915,-196608,69,-56,-1,-1,0
1523613392915,-262144,69,-56,-1,-1,0
1523613392915,-262144,69,-56,-1,-1,0
1523613392915,-262144,69,-56,-1,-1,0
1523613392955,-262144,69,-56,-1,-1,0
1523613392955,-262144,69,-56,-1,-1,0
1523613392955,-327680,69,-56,-1,-1,0
1523613392955,-393216,69,-56,-1,-1,0
1523613392955,-393216,69,-56,-1,-1,0
1523613392995,-393216,69,-56,-1,-1,0
1523613392995,-393216,69,-56,-1,-1,0
1523613392995,-393216,69,-56,-1,-1,0
1523613392995,-327680,69,-56,-1,-1,0
1523613392995,-327680,69,-56,-1,-1,0
1523613393036,-327680,69,-56,-1,-1,0
1523613393036,-327680,69,-56,-1,-1,0
1523613393036,-327680,69,-56,-1,-1,0
1523613393036,-327680,69,-56,-1,-1,0
1523613393036,-393216,69,-56,-1,-1,0
1523613393075,-524288,69,-56,-1,-1,0
1523613393075,-589824,69,-56,-1,-1,0
1523613393075,-524288,69,-56,-1,-1,0
1523613393075,-524288,69,-56,-1,-1,0
1523613393075,-524288,69,-56,-1,-1,0
1523613393115,-524288,69,-56,-1,-1,0
1523613393115,-524288,69,-56,-1,-1,0
1523613393115,-524288,69,-56,-1,-1,0
1523613393115,-524288,69,-56,-1,-1,0
1523613393115,-524288,69,-56,-1,-1,0
1523613393155,-524288,69,-56,-1,-1,0
1523613393155,-589824,69,-56,-1,-1,0
1523613393155,-524288,69,-56,-1,-1,0
1523613393155,-524288,69,-56,-1,-1,0
1523613393155,-589824,69,-56,-1,-1,0
1523613393195,-589824,69,-56,-1,-1,0
1523613393195,-589824,69,-56,-1,-1,0
1523613393195,-589824,69,-56,-1,-1,0
1523613393195,-524288,69,-56,-1,-1,0
1523613393195,-524288,69,-56,-1,-1,0
1523613393235,-524288,69,-56,-1,-1,0
1523613393235,-589824,69,-56,-1,-1,0
1523613393235,-589824,69,-56,-1,-1,0
1523613393235,-655360,69,-56,-1,-1,0
1523613393235,-720896,69,-56,-1,-1,0
1523613393275,-786432,69,-56,-1,-1,0
1523613393275,-786432,69,-56,-1,-1,0
1523613393275,-720896,69,-56,-1,-1,0
1523613393275,-655360,69,-56,-1,-1,0
1523613393275,-524288,69,-56,-1,-1,0
1523613393317,-458752,69,-56,-1,-1,0
1523613393317,-458752,69,-56,-1,-1,0
1523613393317,-458752,69,-56,-1,-1,0
1523613393317,-589824,69,-56,-1,-1,0
1523613393317,-720896,69,-56,-1,-1,0
1523613393355,-655360,69,-56,-1,-1,0
1523613393355,-655360,69,-56,-1,-1,0
1523613393355,-655360,69,-56,-1,-1,0
1523613393355,-720896,69,-56,-1,-1,0
1523613393355,-720896,69,-56,-1,-1,0
1523613393413,-786432,69,-56,-1,-1,0
1523613393413,-786432,69,-56,-1,-1,0
1523613393413,-786432,69,-56,-1,-1,0
1523613393413,-196608,69,-56,-1,-1,0
1523613393413,1507328,69,-56,-1,-1,0
1523613393435,3801088,69,-56,-1,-1,0
1523613393435,3670016,69,-56,-1,-1,0
1523613393435,393216,69,-56,-1,-1,0
1523613393435,-2555904,69,-56,-1,-1,0
1523613393435,-2818048,69,-56,-1,-1,0
1523613393475,-2031616,69,-56,-1,-1,0
1523613393475,-1376256,69,-56,-1,-1,0
1523613393475,-983040,69,-56,-1,-1,0
1523613393475,-786432,69,-56,-1,-1,0
1523613393475,-655360,69,-56,-1,-1,0
1523613393516,-655360,69,-56,-1,-1,0
1523613393516,-589824,69,-56,-1,-1,0
1523613393516,-589824,69,-56,-1,-1,0
1523613393516,-589824,69,-56,-1,-1,0
1523613393516,-589824,69,-56,-1,-1,0
1523613393555,-589824,69,-56,-1,-1,0
1523613393555,-524288,69,-56,-1,-1,0
1523613393555,-589824,69,-56,-1,-1,0
1523613393555,-524288,69,-56,-1,-1,0
1523613393555,-524288,69,-56,-1,-1,0
1523613393595,-458752,69,-56,-1,-1,0
1523613393595,-458752,69,-56,-1,-1,0
1523613393595,-393216,69,-56,-1,-1,0
1523613393595,-262144,69,-56,-1,-1,0
1523613393595,-196608,69,-56,-1,-1,0
1523613393635,-196608,69,-56,-1,-1,0
1523613393635,-131072,69,-56,-1,-1,0
1523613393635,-65536,69,-56,-1,-1,0
1523613393635,0,69,-56,-1,-1,0
1523613393635,131072,69,-56,-1,-1,0
1523613393675,327680,69,-56,-1,-1,0
1523613393675,393216,69,-56,-1,-1,0
1523613393675,524288,69,-56,-1,-1,0
1523613393675,655360,69,-56,-1,-1,0
1523613393675,786432,69,-56,-1,-1,0
1523613393717,851968,69,-56,-1,-1,0
1523613393717,917504,69,-56,-1,-1,0
1523613393717,917504,69,-56,-1,-1,0
1523613393717,851968,69,-56,-1,-1,0
1523613393717,655360,69,-56,-1,-1,0
1523613393755,393216,69,-56,-1,-1,0
1523613393755,131072,69,-56,-1,-1,0
1523613393755,0,69,-56,-1,-1,0
1523613393755,-131072,69,-56,-1,-1,0
1523613393755,-327680,69,-56,-1,-1,0
1523613393795,-458752,69,-56,-1,-1,0
1523613393795,-589824,69,-56,-1,-1,0
1523613393795,-655360,69,-56,-1,-1,0
1523613393795,-655360,69,-56,-1,-1,0
1523613393795,-655360,69,-56,-1,-1,0
1523613393835,-589824,69,-56,-1,-1,0
1523613393835,-524288,69,-56,-1,-1,0
1523613393835,-458752,69,-56,-1,-1,0
1523613393835,-393216,69,-56,-1,-1,0
1523613393835,-393216,69,-56,-1,-1,0
1523613393875,-458752,69,-56,-1,-1,0
1523613393875,-393216,69,-56,-1,-1,0
1523613393875,-327680,69,-56,-1,-1,0
1523613393875,-262144,69,-56,-1,-1,0
1523613393875,-262144,69,-56,-1,-1,0
1523613393915,-262144,69,-56,-1,-1,0
1523613393915,-262144,69,-56,-1,-1,0
1523613393915,-262144,69,-56,-1,-1,0
1523613393915,-327680,69,-56,-1,-1,0
1523613393915,-262144,69,-56,-1,-1,0
1523613393955,-196608,69,-56,-1,-1,0
1523613393955,-196608,69,-56,-1,-1,0
1523613393955,-196608,69,-56,-1,-1,0
1523613393955,-196608,69,-56,-1,-1,0
1523613393955,-262144,69,-56,-1,-1,0
1523613393995,-196608,69,-56,-1,-1,0
1523613393995,-196608,69,-56,-1,-1,0
1523613393995,-196608,69,-56,-1,-1,0
1523613393995,-196608,69,-56,-1,-1,0
1523613393995,-196608,69,-56,-1,-1,0
1523613394052,-196608,69,-56,-1,-1,0
1523613394052,-196608,69,-56,-1,-1,0
1523613394052,-262144,69,-56,-1,-1,0
1523613394052,-196608,69,-56,-1,-1,0
1523613394052,-131072,69,-56,-1,-1,0
1523613394075,-131072,69,-56,-1,-1,0
1523613394075,-65536,69,-56,-1,-1,0
1523613394075,0,69,-56,-1,-1,0
1523613394075,0,69,-56,-1,-1,0
1523613394075,0,69,-56,-1,-1,0
1523613394115,0,69,-56,-1,-1,0
1523613394115,-65536,69,-56,-1,-1,0
1523613394115,-65536,69,-56,-1,-1,0
1523613394115,-65536,69,-56,-1,-1,0
1523613394115,-65536,69,-56,-1,-1,0
1523613394155,0,69,-56,-1,-1,0
1523613394155,0,69,-56,-1,-1,0
1523613394155,65536,69,-56,-1,-1,0
1523613394155,65536,69,-56,-1,-1,0
1523613394155,65536,69,-56,-1,-1,0
1523613394195,65536,69,-56,-1,-1,0
1523613394195,0,69,-56,-1,-1,0
1523613394195,0,69,-56,-1,-1,0
1523613394195,0,69,-56,-1,-1,0
1523613394195,0,69,-56,-1,-1,0
1523613394235,0,69,-56,-1,-1,0
1523613394235,65536,69,-56,-1,-1,0
1523613394235,0,69,-56,-1,-1,0
1523613394235,0,69,-56,-1,-1,0
1523613394235,0,69,-56,-1,-1,0
1523613394275,196608,69,-56,-1,-1,0
1523613394275,1441792,69,-56,-1,-1,0
1523613394275,3866624,69,-56,-1,-1,0
1523613394275,5308416,69,-56,-1,-1,0
1523613394275,3080192,69,-56,-1,-1,0
1523613394315,-393216,69,-56,-1,-1,0
1523613394315,-1769472,69,-56,-1,-1,0
1523613394315,-1179648,69,-56,-1,-1,0
1523613394315,-524288,69,-56,-1,-1,0
1523613394315,-131072,69,-56,-1,-1,0
1523613394355,131072,69,-56,-1,-1,0
1523613394355,196608,69,-56,-1,-1,0
1523613394355,262144,69,-56,-1,-1,0
1523613394355,196608,69,-56,-1,-1,0
1523613394355,262144,69,-56,-1,-1,0
1523613394395,262144,69,-56,-1,-1,0
1523613394395,393216,69,-56,-1,-1,0
1523613394395,393216,69,-56,-1,-1,0
1523613394395,393216,69,-56,-1,-1,0
1523613394395,327680,69,-56,-1,-1,0
1523613394435,393216,69,-56,-1,-1,0
1523613394435,458752,69,-56,-1,-1,0
1523613394435,458752,69,-56,-1,-1,0
1523613394435,393216,69,-56,-1,-1,0
1523613394435,393216,69,-56,-1,-1,0
1523613394475,458752,69,-56,-1,-1,0
1523613394475,458752,69,-56,-1,-1,0
1523613394475,524288,69,-56,-1,-1,0
1523613394475,655360,69,-56,-1,-1,0
1523613394475,720896,69,-56,-1,-1,0
1523613394515,786432,69,-56,-1,-1,0
1523613394515,917504,69,-56,-1,-1,0
1523613394515,1048576,69,-56,-1,-1,0
1523613394515,1245184,69,-56,-1,-1,0
1523613394515,1376256,69,-56,-1,-1,0
1523613394555,1441792,69,-56,-1,-1,0
1523613394555,1572864,69,-56,-1,-1,0
1523613394555,1703936,69,-56,-1,-1,0
1523613394555,1835008,69,-56,-1,-1,0
1523613394555,1900544,69,-56,-1,-1,0
1523613394595,1835008,69,-56,-1,-1,0
1523613394595,1703936,69,-56,-1,-1,0
1523613394595,1507328,69,-56,-1,-1,0
1523613394595,1179648,69,-56,-1,-1,0
1523613394595,917504,69,-56,-1,-1,0
1523613394635,655360,69,-56,-1,-1,0
1523613394635,524288,69,-56,-1,-1,0
1523613394635,327680,69,-56,-1,-1,0
1523613394635,196608,69,-56,-1,-1,0
1523613394635,65536,69,-56,-1,-1,0
1523613394692,0,69,-56,-1,-1,0
1523613394692,0,69,-56,-1,-1,0
1523613394692,0,69,-56,-1,-1,0
1523613394692,0,69,-56,-1,-1,0
1523613394692,0,69,-56,-1,-1,0
1523613394716,0,69,-56,-1,-1,0
1523613394716,0,69,-56,-1,-1,0
1523613394716,0,69,-56,-1,-1,0
1523613394716,-65536,69,-56,-1,-1,0
1523613394716,0,69,-56,-1,-1,0
1523613394755,0,69,-56,-1,-1,0
1523613394755,0,69,-56,-1,-1,0
1523613394755,0,69,-56,-1,-1,0
1523613394755,-65536,69,-56,-1,-1,0
1523613394755,-131072,69,-56,-1,-1,0
1523613394795,-131072,69,-56,-1,-1,0
1523613394795,-196608,69,-56,-1,-1,0
1523613394795,-262144,69,-56,-1,-1,0
1523613394795,-327680,69,-56,-1,-1,0
1523613394795,-327680,69,-56,-1,-1,0
1523613394835,-327680,69,-56,-1,-1,0
1523613394835,-327680,69,-56,-1,-1,0
1523613394835,-327680,69,-56,-1,-1,0
1523613394835,-393216,69,-56,-1,-1,0
1523613394835,-458752,69,-56,-1,-1,0
1523613394875,-458752,69,-56,-1,-1,0
1523613394875,-458752,69,-56,-1,-1,0
1523613394875,-458752,69,-56,-1,-1,0
1523613394875,-458752,69,-56,-1,-1,0
1523613394875,-458752,69,-56,-1,-1,0
1523613394915,-524288,69,-56,-1,-1,0
1523613394915,-589824,69,-56,-1,-1,0
1523613394915,-655360,69,-56,-1,-1,0
1523613394915,-655360,69,-56,-1,-1,0
1523613394915,-720896,69,-56,-1,-1,0
1523613394955,-720896,69,-56,-1,-1,0
1523613394955,-655360,69,-56,-1,-1,0
1523613394955,-720896,69,-56,-1,-1,0
1523613394955,-786432,69,-56,-1,-1,0
1523613394955,-851968,69,-56,-1,-1,0
1523613394995,-851968,69,-56,-1,-1,0
1523613394995,-786432,69,-56,-1,-1,0
1523613394995,-720896,69,-56,-1,-1,0
1523613394995,-655360,69,-56,-1,-1,0
1523613394995,-524288,69,-56,-1,-1,0
1523613395035,-458752,69,-56,-1,-1,0
1523613395035,-458752,69,-56,-1,-1,0
1523613395035,-524288,69,-56,-1,-1,0
1523613395035,-589824,69,-56,-1,-1,0
1523613395035,-655360,69,-56,-1,-1,0
1523613395075,-655360,69,-56,-1,-1,0
1523613395075,-655360,69,-56,-1,-1,0
1523613395075,-655360,69,-56,-1,-1,0
1523613395075,-720896,69,-56,-1,-1,0
1523613395075,-786432,69,-56,-1,-1,0
1523613395115,-851968,69,-56,-1,-1,0
1523613395115,-720896,69,-56,-1,-1,0
1523613395115,131072,69,-56,-1,-1,0
1523613395115,2228224,69,-56,-1,-1,0
1523613395115,4325376,69,-56,-1,-1,0
1523613395155,3145728,69,-56,-1,-1,0
1523613395155,-393216,69,-56,-1,-1,0
1523613395155,-2686976,69,-56,-1,-1,0
1523613395155,-2293760,69,-56,-1,-1,0
1523613395155,-1572864,69,-56,-1,-1,0
1523613395195,-1048576,69,-56,-1,-1,0
1523613395195,-786432,69,-56,-1,-1,0
1523613395195,-720896,69,-56,-1,-1,0
1523613395195,-589824,69,-56,-1,-1,0
1523613395195,-524288,69,-56,-1,-1,0
1523613395235,-393216,69,-56,-1,-1,0
1523613395235,-393216,69,-56,-1,-1,0
1523613395235,-327680,69,-56,-1,-1,0
1523613395235,-262144,69,-56,-1,-1,0
1523613395235,-327680,69,-56,-1,-1,0
1523613395275,-327680,69,-56,-1,-1,0
1523613395275,-327680,69,-56,-1,-1,0
1523613395275,-262144,69,-56,-1,-1,0
1523613395275,-196608,69,-56,-1,-1,0
1523613395275,-196608,69,-56,-1,-1,0
1523613395331,-131072,69,-56,-1,-1,0
1523613395331,-65536,69,-56,-1,-1,0
1523613395331,0,69,-56,-1,-1,0
1523613395331,65536,69,-56,-1,-1,0
1523613395331,131072,69,-56,-1,-1,0
1523613395355,262144,69,-56,-1,-1,0
1523613395355,327680,69,-56,-1,-1,0
1523613395355,458752,69,-56,-1,-1,0
1523613395355,524288,69,-56,-1,-1,0
1523613395355,720896,69,-56,-1,-1,0
1523613395395,851968,69,-56,-1,-1,0
1523613395395,983040,69,-56,-1,-1,0
1523613395395,1048576,69,-56,-1,-1,0
1523613395395,1114112,69,-56,-1,-1,0
1523613395395,1179648,69,-56,-1,-1,0
1523613395435,1245184,69,-56,-1,-1,0
1523613395435,1245184,69,-56,-1,-1,0
1523613395435,1114112,69,-56,-1,-1,0
1523613395435,917504,69,-56,-1,-1,0
1523613395435,720896,69,-56,-1,-1,0
1523613395475,524288,69,-56,-1,-1,0
1523613395475,327680,69,-56,-1,-1,0
1523613395475,131072,69,-56,-1,-1,0
1523613395475,0,69,-56,-1,-1,0
1523613395475,-65536,69,-56,-1,-1,0
1523613395515,-131072,69,-56,-1,-1,0
1523613395515,-131072,69,-56,-1,-1,0
1523613395515,-65536,69,-56,-1,-1,0
1523613395515,0,69,-56,-1,-1,0
1523613395515,65536,69,-56,-1,-1,0
1523613395555,131072,69,-56,-1,-1,0
1523613395555,131072,69,-56,-1,-1,0
1523613395555,196608,69,-56,-1,-1,0
1523613395555,196608,69,-56,-1,-1,0
1523613395555,196608,69,-56,-1,-1,0
1523613395595,196608,69,-56,-1,-1,0
1523613395595,196608,69,-56,-1,-1,0
1523613395595,196608,69,-56,-1,-1,0
1523613395595,196608,69,-56,-1,-1,0
1523613395595,196608,69,-56,-1,-1,0
1523613395635,196608,69,-56,-1,-1,0
1523613395635,196608,69,-56,-1,-1,0
1523613395635,196608,69,-56,-1,-1,0
1523613395635,131072,69,-56,-1,-1,0
1523613395635,196608,69,-56,-1,-1,0
1523613395675,196608,69,-56,-1,-1,0
1523613395675,131072,69,-56,-1,-1,0
1523613395675,65536,69,-56,-1,-1,0
1523613395675,0,69,-56,-1,-1,0
1523613395675,0,69,-56,-1,-1,0
1523613395715,0,69,-56,-1,-1,0
1523613395715,0,69,-56,-1,-1,0
1523613395715,0,69,-56,-1,-1,0
1523613395715,0,69,-56,-1,-1,0
1523613395715,65536,69,-56,-1,-1,0
1523613395755,65536,69,-56,-1,-1,0
1523613395755,65536,69,-56,-1,-1,0
1523613395755,65536,69,-56,-1,-1,0
1523613395755,131072,69,-56,-1,-1,0
1523613395755,131072,69,-56,-1,-1,0
1523613395795,131072,69,-56,-1,-1,0
1523613395795,131072,69,-56,-1,-1,0
1523613395795,131072,69,-56,-1,-1,0
1523613395795,65536,69,-56,-1,-1,0
1523613395795,0,69,-56,-1,-1,0
1523613395835,65536,69,-56,-1,-1,0
1523613395835,65536,69,-56,-1,-1,0
1523613395835,131072,69,-56,-1,-1,0
1523613395835,196608,69,-56,-1,-1,0
1523613395835,327680,69,-56,-1,-1,0
1523613395876,327680,69,-56,-1,-1,0
1523613395876,196608,69,-56,-1,-1,0
1523613395876,131072,69,-56,-1,-1,0
1523613395876,131072,69,-56,-1,-1,0
1523613395876,131072,69,-56,-1,-1,0
1523613395915,196608,69,-56,-1,-1,0
1523613395915,196608,69,-56,-1,-1,0
1523613395915,262144,69,-56,-1,-1,0
1523613395915,196608,69,-56,-1,-1,0
1523613395915,131072,69,-56,-1,-1,0
1523613395971,65536,69,-56,-1,-1,0
1523613395971,524288,69,-56,-1,-1,0
1523613395971,2293760,69,-56,-1,-1,0
1523613395971,4915200,69,-56,-1,-1,0
1523613395971,5439488,69,-56,-1,-1,0
1523613395995,2293760,69,-56,-1,-1,0
1523613395995,-983040,69,-56,-1,-1,0
1523613395995,-1572864,69,-56,-1,-1,0
1523613395995,-786432,69,-56,-1,-1,0
1523613395995,-196608,69,-56,-1,-1,0
1523613396035,65536,69,-56,-1,-1,0
1523613396035,262144,69,-56,-1,-1,0
1523613396035,262144,69,-56,-1,-1,0
1523613396035,262144,69,-56,-1,-1,0
1523613396035,327680,69,-56,-1,-1,0
1523613396075,393216,70,-56,-1,-1,0
1523613396075,393216,70,-56,-1,-1,0
1523613396075,393216,70,-56,-1,-1,0
1523613396075,327680,70,-56,-1,-1,0
1523613396075,393216,70,-56,-1,-1,0
1523613396115,393216,70,-56,-1,-1,0
1523613396115,458752,70,-56,-1,-1,0
1523613396115,458752,70,-56,-1,-1,0
1523613396115,458752,70,-56,-1,-1,0
1523613396115,393216,70,-56,-1,-1,0
1523613396155,393216,70,-56,-1,-1,0
1523613396155,458752,70,-56,-1,-1,0
1523613396155,589824,70,-56,-1,-1,0
1523613396155,655360,70,-56,-1,-1,0
1523613396155,655360,70,-56,-1,-1,0
1523613396195,720896,70,-56,-1,-1,0
1523613396195,851968,70,-56,-1,-1,0
1523613396195,983040,70,-56,-1,-1,0
1523613396195,1114112,70,-56,-1,-1,0
1523613396195,1310720,70,-56,-1,-1,0
1523613396235,1441792,70,-56,-1,-1,0
1523613396235,1507328,70,-56,-1,-1,0
1523613396235,1638400,70,-56,-1,-1,0
1523613396235,1703936,70,-56,-1,-1,0
1523613396235,1703936,70,-56,-1,-1,0
1523613396275,1703936,70,-56,-1,-1,0
1523613396275,1638400,70,-56,-1,-1,0
1523613396275,1507328,70,-56,-1,-1,0
1523613396275,1310720,70,-56,-1,-1,0
1523613396275,983040,70,-56,-1,-1,0
1523613396315,655360,70,-56,-1,-1,0
1523613396315,458752,70,-56,-1,-1,0
1523613396315,327680,70,-56,-1,-1,0
1523613396315,196608,70,-56,-1,-1,0
1523613396315,131072,70,-56,-1,-1,0
1523613396355,65536,70,-56,-1,-1,0
1523613396355,65536,70,-56,-1,-1,0
1523613396355,131072,70,-56,-1,-1,0
1523613396355,65536,70,-56,-1,-1,0
1523613396355,65536,70,-56,-1,-1,0
1523613396395,65536,70,-56,-1,-1,0
1523613396395,65536,70,-56,-1,-1,0
1523613396395,65536,70,-56,-1,-1,0
1523613396395,65536,70,-56,-1,-1,0
1523613396395,65536,70,-56,-1,-1,0
1523613396435,65536,70,-56,-1,-1,0
1523613396435,65536,70,-56,-1,-1,0
1523613396435,131072,70,-56,-1,-1,0
1523613396435,65536,70,-56,-1,-1,0
1523613396435,0,70,-56,-1,-1,0
1523613396475,0,70,-56,-1,-1,0
1523613396475,0,70,-56,-1,-1,0
1523613396475,-65536,70,-56,-1,-1,0
1523613396475,-65536,70,-56,-1,-1,0
1523613396475,-131072,70,-56,-1,-1,0
1523613396515,-131072,70,-56,-1,-1,0
1523613396515,-196608,70,-56,-1,-1,0
1523613396515,-262144,70,-56,-1,-1,0
1523613396515,-262144,70,-56,-1,-1,0
1523613396515,-262144,70,-56,-1,-1,0
1523613396555,-327680,70,-56,-1,-1,0
1523613396555,-327680,70,-56,-1,-1,0
1523613396555,-262144,70,-56,-1,-1,0
1523613396555,-262144,70,-56,-1,-1,0
1523613396555,-262144,70,-56,-1,-1,0
1523613396611,-327680,70,-56,-1,-1,0
1523613396611,-262144,70,-56,-1,-1,0
1523613396611,-327680,70,-56,-1,-1,0
1523613396611,-327680,70,-56,-1,-1,0
1523613396611,-393216,70,-56,-1,-1,0
1523613396635,-458752,70,-56,-1,-1,0
1523613396635,-524288,70,-56,-1,-1,0
1523613396635,-524288,70,-56,-1,-1,0
1523613396635,-458752,70,-56,-1,-1,0
1523613396635,-458752,70,-56,-1,-1,0
1523613396675,-327680,70,-56,-1,-1,0
1523613396675,-196608,70,-56,-1,-1,0
1523613396675,-65536,70,-56,-1,-1,0
1523613396675,0,70,-56,-1,-1,0
1523613396675,0,70,-56,-1,-1,0
1523613396715,-131072,70,-56,-1,-1,0
1523613396715,-196608,70,-56,-1,-1,0
1523613396715,-196608,70,-56,-1,-1,0
1523613396715,-196608,70,-56,-1,-1,0
1523613396715,-196608,70,-56,-1,-1,0
1523613396755,-262144,70,-56,-1,-1,0
1523613396755,-262144,70,-56,-1,-1,0
1523613396755,-262144,70,-56,-1,-1,0
1523613396755,-327680,70,-56,-1,-1,0
1523613396755,-262144,70,-56,-1,-1,0
1523613396795,524288,70,-56,-1,-1,0
1523613396795,2555904,70,-56,-1,-1,0
1523613396795,4718592,70,-56,-1,-1,0
1523613396795,3670016,70,-56,-1,-1,0
1523613396795,0,70,-56,-1,-1,0
1523613396835,-2359296,70,-56,-1,-1,0
1523613396835,-2097152,70,-56,-1,-1,0
1523613396835,-1310720,70,-56,-1,-1,0
1523613396835,-786432,70,-56,-1,-1,0
1523613396835,-458752,70,-56,-1,-1,0
1523613396875,-393216,70,-56,-1,-1,0
1523613396875,-262144,70,-56,-1,-1,0
1523613396875,-196608,70,-56,-1,-1,0
1523613396875,-196608,70,-56,-1,-1,0
1523613396875,-196608,70,-56,-1,-1,0
1523613396915,-196608,70,-56,-1,-1,0
1523613396915,-262144,70,-56,-1,-1,0
1523613396915,-196608,70,-56,-1,-1,0
1523613396915,-131072,70,-56,-1,-1,0
1523613396915,-65536,70,-56,-1,-1,0
1523613396955,0,70,-56,-1,-1,0
1523613396955,0,70,-56,-1,-1,0
1523613396955,0,70,-56,-1,-1,0
1523613396955,0,70,-56,-1,-1,0
1523613396955,0,70,-56,-1,-1,0
1523613396995,0,70,-56,-1,-1,0
1523613396995,0,70,-56,-1,-1,0
1523613396995,0,70,-56,-1,-1,0
1523613396995,131072,70,-56,-1,-1,0
1523613396995,262144,70,-56,-1,-1,0
1523613397035,393216,70,-56,-1,-1,0
1523613397035,458752,70,-56,-1,-1,0
1523613397035,655360,70,-56,-1,-1,0
1523613397035,786432,70,-56,-1,-1,0
1523613397035,851968,70,-56,-1,-1,0
1523613397075,983040,70,-56,-1,-1,0
1523613397075,1048576,70,-56,-1,-1,0
1523613397075,1048576,70,-56,-1,-1,0
1523613397075,1048576,70,-56,-1,-1,0
1523613397075,1048576,70,-56,-1,-1,0
1523613397115,1048576,70,-56,-1,-1,0
1523613397115,917504,70,-56,-1,-1,0
1523613397115,720896,70,-56,-1,-1,0
1523613397115,458752,70,-56,-1,-1,0
1523613397115,196608,70,-56,-1,-1,0
1523613397155,65536,70,-56,-1,-1,0
1523613397155,0,70,-56,-1,-1,0
1523613397155,-65536,70,-56,-1,-1,0
1523613397155,-131072,70,-56,-1,-1,0
1523613397155,-196608,70,-56,-1,-1,0
1523613397195,-196608,70,-56,-1,-1,0
1523613397195,-196608,70,-56,-1,-1,0
1523613397195,-196608,70,-56,-1,-1,0
1523613397195,-196608,70,-56,-1,-1,0
1523613397195,-196608,70,-56,-1,-1,0
1523613397251,-196608,70,-56,-1,-1,0
1523613397251,-196608,70,-56,-1,-1,0
1523613397251,-262144,70,-56,-1,-1,0
1523613397251,-262144,70,-56,-1,-1,0
1523613397251,-262144,70,-56,-1,-1,0
1523613397275,-196608,70,-56,-1,-1,0
1523613397275,-196608,70,-56,-1,-1,0
1523613397275,-196608,70,-56,-1,-1,0
1523613397275,-196608,70,-56,-1,-1,0
1523613397275,-196608,70,-56,-1,-1,0
1523613397315,-196608,70,-56,-1,-1,0
1523613397315,-262144,70,-56,-1,-1,0
1523613397315,-327680,70,-56,-1,-1,0
1523613397315,-327680,70,-56,-1,-1,0
1523613397315,-393216,70,-56,-1,-1,0
1523613397355,-393216,70,-56,-1,-1,0
1523613397355,-393216,70,-56,-1,-1,0
1523613397355,-393216,70,-56,-1,-1,0
1523613397355,-393216,70,-56,-1,-1,0
1523613397355,-393216,70,-56,-1,-1,0
1523613397395,-393216,70,-56,-1,-1,0
1523613397395,-393216,70,-56,-1,-1,0
1523613397395,-393216,70,-56,-1,-1,0
1523613397395,-393216,70,-56,-1,-1,0
1523613397395,-393216,70,-56,-1,-1,0
1523613397435,-458752,70,-56,-1,-1,0
1523613397435,-393216,70,-56,-1,-1,0
1523613397435,-393216,70,-56,-1,-1,0
1523613397435,-393216,70,-56,-1,-1,0
1523613397435,-458752,70,-56,-1,-1,0
1523613397475,-458752,70,-56,-1,-1,0
1523613397475,-589824,70,-56,-1,-1,0
1523613397475,-589824,70,-56,-1,-1,0
1523613397475,-655360,70,-56,-1,-1,0
1523613397475,-655360,70,-56,-1,-1,0
1523613397515,-589824,70,-56,-1,-1,0
1523613397515,-524288,70,-56,-1,-1,0
1523613397515,-458752,70,-56,-1,-1,0
1523613397515,-524288,70,-56,-1,-1,0
1523613397515,-524288,70,-56,-1,-1,0
1523613397555,-589824,70,-56,-1,-1,0
1523613397555,-589824,70,-56,-1,-1,0
1523613397555,-655360,70,-56,-1,-1,0
1523613397555,-655360,70,-56,-1,-1,0
1523613397555,-655360,70,-56,-1,-1,0
1523613397595,-589824,70,-56,-1,-1,0
1523613397595,-655360,70,-56,-1,-1,0
1523613397595,-720896,70,-56,-1,-1,0
1523613397595,-786432,70,-56,-1,-1,0
1523613397595,-524288,70,-56,-1,-1,0
1523613397635,786432,70,-56,-1,-1,0
1523613397635,3145728,70,-56,-1,-1,0
1523613397635,4259840,70,-56,-1,-1,0
1523613397635,1703936,70,-56,-1,-1,0
1523613397635,-1703936,70,-56,-1,-1,0
1523613397675,-2818048,70,-56,-1,-1,0
1523613397675,-2097152,70,-56,-1,-1,0
1523613397675,-1376256,70,-56,-1,-1,0
1523613397675,-983040,70,-56,-1,-1,0
1523613397675,-720896,70,-56,-1,-1,0
1523613397716,-655360,70,-56,-1,-1,0
1523613397716,-524288,70,-56,-1,-1,0
1523613397716,-524288,70,-56,-1,-1,0
1523613397716,-524288,70,-56,-1,-1,0
1523613397716,-589824,70,-56,-1,-1,0
1523613397755,-589824,70,-56,-1,-1,0
1523613397755,-589824,70,-56,-1,-1,0
1523613397755,-589824,70,-56,-1,-1,0
1523613397755,-589824,70,-56,-1,-1,0
1523613397755,-524288,70,-56,-1,-1,0
1523613397795,-524288,70,-56,-1,-1,0
1523613397795,-393216,70,-56,-1,-1,0
1523613397795,-327680,70,-56,-1,-1,0
1523613397795,-262144,70,-56,-1,-1,0
1523613397795,-196608,70,-56,-1,-1,0
1523613397835,-196608,70,-56,-1,-1,0
1523613397835,-131072,70,-56,-1,-1,0
1523613397835,-131072,70,-56,-1,-1,0
1523613397835,-65536,70,-56,-1,-1,0
1523613397835,0,70,-56,-1,-1,0
1523613397891,0,70,-56,-1,-1,0
1523613397891,131072,70,-56,-1,-1,0
1523613397891,327680,70,-56,-1,-1,0
1523613397891,458752,70,-56,-1,-1,0
1523613397891,589824,70,-56,-1,-1,0
1523613397915,655360,70,-56,-1,-1,0
1523613397915,720896,70,-56,-1,-1,0
1523613397915,720896,70,-56,-1,-1,0
1523613397915,786432,70,-56,-1,-1,0
1523613397915,720896,70,-56,-1,-1,0
1523613397955,655360,70,-56,-1,-1,0
1523613397955,458752,70,-56,-1,-1,0
1523613397955,196608,70,-56,-1,-1,0
1523613397955,0,70,-56,-1,-1,0
1523613397955,-131072,70,-56,-1,-1,0
1523613397995,-262144,70,-56,-1,-1,0
1523613397995,-327680,70,-56,-1,-1,0
1523613397995,-393216,70,-56,-1,-1,0
1523613397995,-393216,70,-56,-1,-1,0
1523613397995,-458752,70,-56,-1,-1,0
1523613398035,-393216,70,-56,-1,-1,0
1523613398035,-393216,70,-56,-1,-1,0
1523613398035,-327680,70,-56,-1,-1,0
1523613398035,-327680,70,-56,-1,-1,0
1523613398035,-327680,70,-56,-1,-1,0
1523613398075,-327680,70,-56,-1,-1,0
1523613398075,-327680,70,-56,-1,-1,0
1523613398075,-327680,70,-56,-1,-1,0
1523613398075,-262144,70,-56,-1,-1,0
1523613398075,-196608,70,-56,-1,-1,0
1523613398115,-262144,70,-56,-1,-1,0
1523613398115,-262144,70,-56,-1,-1,0
1523613398115,-262144,70,-56,-1,-1,0
1523613398115,-262144,70,-56,-1,-1,0
1523613398115,-327680,70,-56,-1,-1,0
1523613398155,-327680,70,-56,-1,-1,0
1523613398155,-327680,70,-56,-1,-1,0
1523613398155,-393216,70,-56,-1,-1,0
1523613398155,-393216,70,-56,-1,-1,0
1523613398155,-393216,70,-56,-1,-1,0
1523613398195,-393216,70,-56,-1,-1,0
1523613398195,-393216,70,-56,-1,-1,0
1523613398195,-393216,70,-56,-1,-1,0
1523613398195,-327680,70,-56,-1,-1,0
1523613398195,-262144,70,-56,-1,-1,0
1523613398235,-262144,70,-56,-1,-1,0
1523613398235,-262144,70,-56,-1,-1,0
1523613398235,-327680,70,-56,-1,-1,0
1523613398235,-327680,70,-56,-1,-1,0
1523613398235,-327680,70,-56,-1,-1,0
1523613398275,-327680,70,-56,-1,-1,0
1523613398275,-393216,70,-56,-1,-1,0
1523613398275,-393216,70,-56,-1,-1,0
1523613398275,-393216,70,-56,-1,-1,0
1523613398275,-393216,70,-56,-1,-1,0
1523613398315,-393216,70,-56,-1,-1,0
1523613398315,-393216,70,-56,-1,-1,0
1523613398315,-458752,70,-56,-1,-1,0
1523613398315,-458752,70,-56,-1,-1,0
1523613398315,-393216,70,-56,-1,-1,0
1523613398355,-262144,70,-56,-1,-1,0
1523613398355,-131072,70,-56,-1,-1,0
1523613398355,-65536,70,-56,-1,-1,0
1523613398355,-65536,70,-56,-1,-1,0
1523613398355,-65536,70,-56,-1,-1,0
1523613398395,-131072,70,-56,-1,-1,0
1523613398395,-196608,70,-56,-1,-1,0
1523613398395,-131072,70,-56,-1,-1,0
1523613398395,-131072,70,-56,-1,-1,0
1523613398395,-65536,70,-56,-1,-1,0
1523613398435,-65536,70,-56,-1,-1,0
1523613398435,0,70,-56,-1,-1,0
1523613398435,0,70,-56,-1,-1,0
1523613398435,-131072,70,-56,-1,-1,0
1523613398435,0,70,-56,-1,-1,0
1523613398476,1048576,70,-56,-1,-1,0
1523613398476,3342336,70,-56,-1,-1,0
1523613398476,4784128,70,-56,-1,-1,0
1523613398476,2752512,70,-56,-1,-1,0
1523613398476,-720896,70,-56,-1,-1,0
1523613398533,-2162688,70,-56,-1,-1,0
1523613398533,-1507328,70,-56,-1,-1,0
1523613398533,-720896,70,-56,-1,-1,0
1523613398533,-262144,70,-56,-1,-1,0
1523613398533,0,70,-56,-1,-1,0
1523613398555,65536,70,-56,-1,-1,0
1523613398555,131072,70,-56,-1,-1,0
1523613398555,131072,70,-56,-1,-1,0
1523613398555,131072,70,-56,-1,-1,0
1523613398555,196608,70,-56,-1,-1,0
1523613398595,262144,71,-56,-1,-1,0
1523613398595,262144,71,-56,-1,-1,0
1523613398595,262144,71,-56,-1,-1,0
1523613398595,327680,71,-56,-1,-1,0
1523613398595,327680,71,-56,-1,-1,0
1523613398635,327680,71,-56,-1,-1,0
1523613398635,327680,71,-56,-1,-1,0
1523613398635,327680,71,-56,-1,-1,0
1523613398635,327680,71,-56,-1,-1,0
1523613398635,393216,71,-56,-1,-1,0
1523613398675,458752,71,-56,-1,-1,0
1523613398675,524288,71,-56,-1,-1,0
1523613398675,589824,71,-56,-1,-1,0
1523613398675,720896,71,-56,-1,-1,0
1523613398675,786432,71,-56,-1,-1,0
1523613398715,917504,71,-56,-1,-1,0
1523613398715,983040,71,-56,-1,-1,0
1523613398715,1179648,71,-56,-1,-1,0
1523613398715,1179648,71,-56,-1,-1,0
1523613398715,1245184,71,-56,-1,-1,0
1523613398755,1310720,71,-56,-1,-1,0
1523613398755,1376256,71,-56,-1,-1,0
1523613398755,1376256,71,-56,-1,-1,0
1523613398755,1441792,71,-56,-1,-1,0
1523613398755,1441792,71,-56,-1,-1,0
1523613398795,1376256,71,-56,-1,-1,0
1523613398795,1179648,71,-56,-1,-1,0
1523613398795,851968,71,-56,-1,-1,0
1523613398795,589824,71,-56,-1,-1,0
1523613398795,327680,71,-56,-1,-1,0
1523613398835,131072,71,-56,-1,-1,0
1523613398835,0,71,-56,-1,-1,0
1523613398835,-131072,71,-56,-1,-1,0
1523613398835,-131072,71,-56,-1,-1,0
1523613398835,-131072,71,-56,-1,-1,0
1523613398875,-196608,71,-56,-1,-1,0
1523613398875,-196608,71,-56,-1,-1,0
1523613398875,-262144,71,-56,-1,-1,0
1523613398875,-262144,71,-56,-1,-1,0
1523613398875,-262144,71,-56,-1,-1,0
1523613398915,-262144,71,-56,-1,-1,0
1523613398915,-262144,71,-56,-1,-1,0
1523613398915,-262144,71,-56,-1,-1,0
1523613398915,-196608,71,-56,-1,-1,0
1523613398915,-196608,71,-56,-1,-1,0
1523613398955,-196608,71,-56,-1,-1,0
1523613398955,-262144,71,-56,-1,-1,0
1523613398955,-262144,71,-56,-1,-1,0
1523613398955,-262144,71,-56,-1,-1,0
1523613398955,-327680,71,-56,-1,-1,0
1523613398995,-393216,71,-56,-1,-1,0
1523613398995,-458752,71,-56,-1,-1,0
1523613398995,-458752,71,-56,-1,-1,0
1523613398995,-393216,71,-56,-1,-1,0
1523613398995,-393216,71,-56,-1,-1,0
1523613399035,-393216,71,-56,-1,-1,0
1523613399035,-393216,71,-56,-1,-1,0
1523613399035,-458752,71,-56,-1,-1,0
1523613399035,-524288,71,-56,-1,-1,0
1523613399035,-524288,71,-56,-1,-1,0
1523613399075,-458752,71,-56,-1,-1,0
1523613399075,-393216,71,-56,-1,-1,0
1523613399075,-458752,71,-56,-1,-1,0
1523613399075,-524288,71,-56,-1,-1,0
1523613399075,-524288,71,-56,-1,-1,0
1523613399115,-524288,71,-56,-1,-1,0
1523613399115,-524288,71,-56,-1,-1,0
1523613399115,-589824,71,-56,-1,-1,0
1523613399115,-589824,71,-56,-1,-1,0
1523613399115,-589824,71,-56,-1,-1,0
1523613399171,-589824,71,-56,-1,-1,0
1523613399171,-589824,71,-56,-1,-1,0
1523613399171,-655360,71,-56,-1,-1,0
1523613399171,-720896,71,-56,-1,-1,0
1523613399171,-655360,71,-56,-1,-1,0
1523613399195,-589824,71,-56,-1,-1,0
1523613399195,-458752,71,-56,-1,-1,0
1523613399195,-327680,71,-56,-1,-1,0
1523613399195,-262144,71,-56,-1,-1,0
1523613399195,-262144,71,-56,-1,-1,0
1523613399235,-327680,71,-56,-1,-1,0
1523613399235,-458752,71,-56,-1,-1,0
1523613399235,-458752,71,-56,-1,-1,0
1523613399235,-458752,71,-56,-1,-1,0
1523613399235,-393216,71,-56,-1,-1,0
1523613399275,-458752,71,-56,-1,-1,0
1523613399275,-458752,71,-56,-1,-1,0
1523613399275,-524288,71,-56,-1,-1,0
1523613399275,-589824,71,-56,-1,-1,0
1523613399275,-589824,71,-56,-1,-1,0
1523613399315,0,71,-56,-1,-1,0
1523613399315,1638400,71,-56,-1,-1,0
1523613399315,3735552,71,-56,-1,-1,0
1523613399315,3276800,71,-56,-1,-1,0
1523613399315,65536,71,-56,-1,-1,0
1523613399355,-2555904,71,-56,-1,-1,0
1523613399355,-2490368,71,-56,-1,-1,0
1523613399355,-1703936,71,-56,-1,-1,0
1523613399355,-1114112,71,-56,-1,-1,0
1523613399355,-720896,71,-56,-1,-1,0
1523613399395,-524288,71,-56,-1,-1,0
1523613399395,-458752,71,-56,-1,-1,0
1523613399395,-393216,71,-56,-1,-1,0
1523613399395,-393216,71,-56,-1,-1,0
1523613399395,-393216,71,-56,-1,-1,0
1523613399435,-393216,70,-56,-1,-1,0
1523613399435,-393216,70,-56,-1,-1,0
1523613399435,-327680,70,-56,-1,-1,0
1523613399435,-262144,70,-56,-1,-1,0
1523613399435,-262144,70,-56,-1,-1,0
1523613399475,-262144,70,-56,-1,-1,0
1523613399475,-327680,70,-56,-1,-1,0
1523613399475,-262144,70,-56,-1,-1,0
1523613399475,-196608,70,-56,-1,-1,0
1523613399475,-131072,70,-56,-1,-1,0
1523613399515,-65536,70,-56,-1,-1,0
1523613399515,-65536,70,-56,-1,-1,0
1523613399515,-65536,70,-56,-1,-1,0
1523613399515,-65536,70,-56,-1,-1,0
1523613399515,0,70,-56,-1,-1,0
1523613399555,131072,70,-56,-1,-1,0
1523613399555,196608,70,-56,-1,-1,0
1523613399555,327680,70,-56,-1,-1,0
1523613399555,458752,70,-56,-1,-1,0
1523613399555,589824,70,-56,-1,-1,0
1523613399595,720896,70,-56,-1,-1,0
1523613399595,720896,70,-56,-1,-1,0
1523613399595,786432,70,-56,-1,-1,0
1523613399595,851968,70,-56,-1,-1,0
1523613399595,917504,70,-56,-1,-1,0
1523613399635,851968,70,-56,-1,-1,0
1523613399635,720896,70,-56,-1,-1,0
1523613399635,524288,70,-56,-1,-1,0
1523613399635,262144,70,-56,-1,-1,0
1523613399635,131072,70,-56,-1,-1,0
1523613399675,0,70,-56,-1,-1,0
1523613399675,-131072,70,-56,-1,-1,0
1523613399675,-262144,70,-56,-1,-1,0
1523613399675,-327680,70,-56,-1,-1,0
1523613399675,-393216,70,-56,-1,-1,0
1523613399715,-393216,70,-56,-1,-1,0
1523613399715,-393216,70,-56,-1,-1,0
1523613399715,-393216,70,-56,-1,-1,0
1523613399715,-393216,70,-56,-1,-1,0
1523613399715,-327680,70,-56,-1,-1,0
1523613399755,-327680,70,-56,-1,-1,0
1523613399755,-327680,70,-56,-1,-1,0
1523613399755,-262144,70,-56,-1,-1,0
1523613399755,-262144,70,-56,-1,-1,0
1523613399755,-262144,70,-56,-1,-1,0
1523613399811,-262144,70,-56,-1,-1,0
1523613399811,-196608,70,-56,-1,-1,0
1523613399811,-196608,70,-56,-1,-1,0
1523613399811,-131072,70,-56,-1,-1,0
1523613399811,-131072,70,-56,-1,-1,0
1523613399835,-131072,70,-56,-1,-1,0
1523613399835,-131072,70,-56,-1,-1,0
1523613399835,-196608,70,-56,-1,-1,0
1523613399835,-262144,70,-56,-1,-1,0
1523613399835,-327680,70,-56,-1,-1,0
1523613399875,-262144,70,-56,-1,-1,0
1523613399875,-327680,70,-56,-1,-1,0
1523613399875,-327680,70,-56,-1,-1,0
1523613399875,-393216,70,-56,-1,-1,0
1523613399875,-327680,70,-56,-1,-1,0
1523613399915,-262144,70,-56,-1,-1,0
1523613399915,-262144,70,-56,-1,-1,0
1523613399915,-327680,70,-56,-1,-1,0
1523613399915,-327680,70,-56,-1,-1,0
1523613399915,-393216,70,-56,-1,-1,0
1523613399955,-393216,70,-56,-1,-1,0
1523613399955,-393216,70,-56,-1,-1,0
1523613399955,-393216,70,-56,-1,-1,0
1523613399955,-327680,70,-56,-1,-1,0
1523613399955,-393216,70,-56,-1,-1,0
1523613399995,-458752,70,-56,-1,-1,0
1523613399995,-458752,70,-56,-1,-1,0
1523613399995,-458752,70,-56,-1,-1,0
1523613399995,-524288,70,-56,-1,-1,0
1523613399995,-524288,70,-56,-1,-1,0
1523613400035,-524288,70,-56,-1,-1,0
1523613400035,-458752,70,-56,-1,-1,0
1523613400035,-393216,70,-56,-1,-1,0
1523613400035,-393216,70,-56,-1,-1,0
1523613400035,-327680,70,-56,-1,-1,0
1523613400075,-393216,70,-56,-1,-1,0
1523613400075,-458752,70,-56,-1,-1,0
1523613400075,-524288,70,-56,-1,-1,0
1523613400075,-524288,70,-56,-1,-1,0
1523613400075,-524288,70,-56,-1,-1,0
1523613400115,-524288,70,-56,-1,-1,0
1523613400115,-524288,70,-56,-1,-1,0
1523613400115,-524288,70,-56,-1,-1,0
1523613400115,-589824,70,-56,-1,-1,0
1523613400115,-720896,70,-56,-1,-1,0
1523613400155,-524288,70,-56,-1,-1,0
1523613400155,458752,70,-56,-1,-1,0
1523613400155,2621440,70,-56,-1,-1,0
1523613400155,3932160,70,-56,-1,-1,0
1523613400155,1900544,70,-56,-1,-1,0
1523613400195,-1441792,70,-56,-1,-1,0
1523613400195,-2818048,70,-56,-1,-1,0
1523613400195,-2162688,70,-56,-1,-1,0
1523613400195,-1441792,70,-56,-1,-1,0
1523613400195,-983040,70,-56,-1,-1,0
1523613400235,-720896,70,-56,-1,-1,0
1523613400235,-655360,70,-56,-1,-1,0
1523613400235,-655360,70,-56,-1,-1,0
1523613400235,-589824,70,-56,-1,-1,0
1523613400235,-589824,70,-56,-1,-1,0
1523613400275,-589824,71,-56,-1,-1,0
1523613400275,-589824,71,-56,-1,-1,0
1523613400275,-589824,71,-56,-1,-1,0
1523613400275,-589824,71,-56,-1,-1,0
1523613400275,-589824,71,-56,-1,-1,0
1523613400315,-524288,71,-56,-1,-1,0
1523613400315,-524288,71,-56,-1,-1,0
1523613400315,-524288,71,-56,-1,-1,0
1523613400315,-524288,71,-56,-1,-1,0
1523613400315,-458752,71,-56,-1,-1,0
1523613400355,-393216,71,-56,-1,-1,0
1523613400355,-262144,71,-56,-1,-1,0
1523613400355,-196608,71,-56,-1,-1,0
1523613400355,-196608,71,-56,-1,-1,0
1523613400355,-196608,71,-56,-1,-1,0
1523613400395,-131072,71,-56,-1,-1,0
1523613400395,-65536,71,-56,-1,-1,0
1523613400395,65536,71,-56,-1,-1,0
1523613400395,196608,71,-56,-1,-1,0
1523613400395,327680,71,-56,-1,-1,0
1523613400451,393216,71,-56,-1,-1,0
1523613400451,524288,71,-56,-1,-1,0
1523613400451,589824,71,-56,-1,-1,0
1523613400451,655360,71,-56,-1,-1,0
1523613400451,786432,71,-56,-1,-1,0
1523613400475,786432,71,-56,-1,-1,0
1523613400475,786432,71,-56,-1,-1,0
1523613400475,524288,71,-56,-1,-1,0
1523613400475,262144,71,-56,-1,-1,0
1523613400475,0,71,-56,-1,-1,0
1523613400515,-196608,71,-56,-1,-1,0
1523613400515,-327680,71,-56,-1,-1,0
1523613400515,-393216,71,-56,-1,-1,0
1523613400515,-524288,71,-56,-1,-1,0
1523613400515,-589824,71,-56,-1,-1,0
1523613400557,-589824,71,-56,-1,-1,0
1523613400557,-589824,71,-56,-1,-1,0
1523613400557,-589824,71,-56,-1,-1,0
1523613400557,-589824,71,-56,-1,-1,0
1523613400557,-524288,71,-56,-1,-1,0
1523613400595,-393216,71,-56,-1,-1,0
1523613400595,-327680,71,-56,-1,-1,0
1523613400595,-262144,71,-56,-1,-1,0
1523613400595,-196608,71,-56,-1,-1,0
1523613400595,-131072,71,-56,-1,-1,0
1523613400635,-131072,71,-56,-1,-1,0
1523613400635,-65536,71,-56,-1,-1,0
1523613400635,-65536,71,-56,-1,-1,0
1523613400635,-131072,71,-56,-1,-1,0
1523613400635,-131072,71,-56,-1,-1,0
1523613400675,-196608,71,-56,-1,-1,0
1523613400675,-196608,71,-56,-1,-1,0
1523613400675,-196608,71,-56,-1,-1,0
1523613400675,-131072,71,-56,-1,-1,0
1523613400675,-131072,71,-56,-1,-1,0
1523613400716,-131072,71,-56,-1,-1,0
1523613400716,-196608,71,-56,-1,-1,0
1523613400716,-196608,71,-56,-1,-1,0
1523613400716,-196608,71,-56,-1,-1,0
1523613400716,-196608,71,-56,-1,-1,0
1523613400757,-196608,71,-56,-1,-1,0
1523613400757,-196608,71,-56,-1,-1,0
1523613400757,-196608,71,-56,-1,-1,0
1523613400757,-131072,71,-56,-1,-1,0
1523613400757,-65536,71,-56,-1,-1,0
1523613400795,-65536,71,-56,-1,-1,0
1523613400795,-65536,71,-56,-1,-1,0
1523613400795,-65536,71,-56,-1,-1,0
1523613400795,0,71,-56,-1,-1,0
1523613400795,-65536,71,-56,-1,-1,0
1523613400835,-65536,71,-56,-1,-1,0
1523613400835,-65536,71,-56,-1,-1,0
1523613400835,-65536,71,-56,-1,-1,0
1523613400835,0,71,-56,-1,-1,0
1523613400835,65536,71,-56,-1,-1,0
1523613400875,196608,71,-56,-1,-1,0
1523613400875,327680,71,-56,-1,-1,0
1523613400875,393216,71,-56,-1,-1,0
1523613400875,393216,71,-56,-1,-1,0
1523613400875,327680,71,-56,-1,-1,0
1523613400915,327680,71,-56,-1,-1,0
1523613400915,327680,71,-56,-1,-1,0
1523613400915,327680,71,-56,-1,-1,0
1523613400915,327680,71,-56,-1,-1,0
1523613400915,327680,71,-56,-1,-1,0
1523613400956,327680,71,-56,-1,-1,0
1523613400956,327680,71,-56,-1,-1,0
1523613400956,327680,71,-56,-1,-1,0
1523613400956,720896,71,-56,-1,-1,0
1523613400956,2097152,71,-56,-1,-1,0
1523613400995,4456448,71,-56,-1,-1,0
1523613400995,5177344,71,-56,-1,-1,0
1523613400995,2359296,71,-56,-1,-1,0
1523613400995,-917504,71,-56,-1,-1,0
1523613400995,-1703936,71,-56,-1,-1,0
1523613401035,-917504,71,-56,-1,-1,0
1523613401035,-262144,71,-56,-1,-1,0
1523613401035,65536,71,-56,-1,-1,0
1523613401035,262144,71,-56,-1,-1,0
1523613401035,327680,71,-56,-1,-1,0
1523613401091,458752,71,-56,-1,-1,0
1523613401091,458752,71,-56,-1,-1,0
1523613401091,589824,71,-56,-1,-1,0
1523613401091,589824,71,-56,-1,-1,0
1523613401091,589824,71,-56,-1,-1,0
1523613401115,589824,71,-56,-1,-1,0
1523613401115,589824,71,-56,-1,-1,0
1523613401115,720896,71,-56,-1,-1,0
1523613401115,786432,71,-56,-1,-1,0
1523613401115,786432,71,-56,-1,-1,0
1523613401155,786432,71,-56,-1,-1,0
1523613401155,786432,71,-56,-1,-1,0
1523613401155,786432,71,-56,-1,-1,0
1523613401155,851968,71,-56,-1,-1,0
1523613401155,851968,71,-56,-1,-1,0
1523613401195,851968,71,-56,-1,-1,0
1523613401195,917504,71,-56,-1,-1,0
1523613401195,983040,71,-56,-1,-1,0
1523613401195,1114112,71,-56,-1,-1,0
1523613401195,1245184,71,-56,-1,-1,0
1523613401235,1441792,71,-56,-1,-1,0
1523613401235,1507328,71,-56,-1,-1,0
1523613401235,1638400,71,-56,-1,-1,0
1523613401235,1703936,71,-56,-1,-1,0
1523613401235,1835008,71,-56,-1,-1,0
1523613401275,1900544,71,-56,-1,-1,0
1523613401275,1900544,71,-56,-1,-1,0
1523613401275,1900544,71,-56,-1,-1,0
1523613401275,1835008,71,-56,-1,-1,0
1523613401275,1638400,71,-56,-1,-1,0
1523613401315,1507328,71,-56,-1,-1,0
1523613401315,1376256,71,-56,-1,-1,0
1523613401315,1179648,71,-56,-1,-1,0
1523613401315,917504,71,-56,-1,-1,0
1523613401315,720896,71,-56,-1,-1,0
1523613401355,589824,71,-56,-1,-1,0
1523613401355,458752,71,-56,-1,-1,0
1523613401355,393216,71,-56,-1,-1,0
1523613401355,393216,71,-56,-1,-1,0
1523613401355,393216,71,-56,-1,-1,0
1523613401395,393216,71,-56,-1,-1,0
1523613401395,458752,71,-56,-1,-1,0
1523613401395,458752,71,-56,-1,-1,0
1523613401395,524288,71,-56,-1,-1,0
1523613401395,458752,71,-56,-1,-1,0
1523613401435,458752,71,-56,-1,-1,0
1523613401435,458752,71,-56,-1,-1,0
1523613401435,458752,71,-56,-1,-1,0
1523613401435,524288,71,-56,-1,-1,0
1523613401435,524288,71,-56,-1,-1,0
1523613401475,524288,71,-56,-1,-1,0
1523613401475,458752,71,-56,-1,-1,0
1523613401475,458752,71,-56,-1,-1,0
1523613401475,393216,71,-56,-1,-1,0
1523613401475,327680,71,-56,-1,-1,0
1523613401515,327680,71,-56,-1,-1,0
1523613401515,327680,71,-56,-1,-1,0
1523613401515,327680,71,-56,-1,-1,0
1523613401515,327680,71,-56,-1,-1,0
1523613401515,262144,71,-56,-1,-1,0
1523613401555,196608,71,-56,-1,-1,0
1523613401555,131072,71,-56,-1,-1,0
1523613401555,65536,71,-56,-1,-1,0
1523613401555,65536,71,-56,-1,-1,0
1523613401555,0,71,-56,-1,-1,0
1523613401595,0,71,-56,-1,-1,0
1523613401595,-65536,71,-56,-1,-1,0
1523613401595,-131072,71,-56,-1,-1,0
1523613401595,-131072,71,-56,-1,-1,0
1523613401595,-131072,71,-56,-1,-1,0
1523613401635,-131072,71,-56,-1,-1,0
1523613401635,-196608,71,-56,-1,-1,0
1523613401635,-262144,71,-56,-1,-1,0
1523613401635,-393216,71,-56,-1,-1,0
1523613401635,-458752,71,-56,-1,-1,0
1523613401675,-524288,71,-56,-1,-1,0
1523613401675,-589824,71,-56,-1,-1,0
1523613401675,-655360,71,-56,-1,-1,0
1523613401675,-589824,71,-56,-1,-1,0
1523613401675,-524288,71,-56,-1,-1,0
1523613401731,-458752,71,-56,-1,-1,0
1523613401731,-458752,71,-56,-1,-1,0
1523613401731,-524288,71,-56,-1,-1,0
1523613401731,-720896,71,-56,-1,-1,0
1523613401731,-786432,71,-56,-1,-1,0
1523613401755,-786432,71,-56,-1,-1,0
1523613401755,-786432,71,-56,-1,-1,0
1523613401755,-851968,71,-56,-1,-1,0
1523613401755,-917504,71,-56,-1,-1,0
1523613401755,-917504,71,-56,-1,-1,0
1523613401795,-917504,71,-56,-1,-1,0
1523613401795,-917504,71,-56,-1,-1,0
1523613401795,-917504,71,-56,-1,-1,0
1523613401795,-196608,71,-56,-1,-1,0
1523613401795,1572864,71,-56,-1,-1,0
1523613401835,3735552,71,-56,-1,-1,0
1523613401835,3080192,71,-56,-1,-1,0
1523613401835,-262144,71,-56,-1,-1,0
1523613401835,-2818048,71,-56,-1,-1,0
1523613401835,-2686976,71,-56,-1,-1,0
1523613401875,-1900544,71,-56,-1,-1,0
1523613401875,-1310720,71,-56,-1,-1,0
1523613401875,-983040,71,-56,-1,-1,0
1523613401875,-917504,71,-56,-1,-1,0
1523613401875,-851968,71,-56,-1,-1,0
1523613401915,-786432,71,-56,-1,-1,0
1523613401915,-720896,71,-56,-1,-1,0
1523613401915,-655360,71,-56,-1,-1,0
1523613401915,-589824,71,-56,-1,-1,0
1523613401915,-589824,71,-56,-1,-1,0
1523613401955,-589824,71,-56,-1,-1,0
1523613401955,-589824,71,-56,-1,-1,0
1523613401955,-589824,71,-56,-1,-1,0
1523613401955,-589824,71,-56,-1,-1,0
1523613401955,-589824,71,-56,-1,-1,0
1523613401995,-524288,71,-56,-1,-1,0
1523613401995,-524288,71,-56,-1,-1,0
1523613401995,-458752,71,-56,-1,-1,0
1523613401995,-393216,71,-56,-1,-1,0
1523613401995,-327680,71,-56,-1,-1,0
1523613402035,-262144,71,-56,-1,-1,0
1523613402035,-196608,71,-56,-1,-1,0
1523613402035,-131072,71,-56,-1,-1,0
1523613402035,-65536,71,-56,-1,-1,0
1523613402035,0,71,-56,-1,-1,0
1523613402075,131072,71,-56,-1,-1,0
1523613402075,262144,71,-56,-1,-1,0
1523613402075,524288,71,-56,-1,-1,0
1523613402075,655360,71,-56,-1,-1,0
1523613402075,720896,71,-56,-1,-1,0
1523613402115,786432,71,-56,-1,-1,0
