milliseconds, ECG, ECG HR, PPG, PPG HR, SpO2, PI
0,3473408,-123,-56,-1,-1,0
33,851968,-123,-56,-1,-1,0
66,65536,-123,-56,-1,-1,0
100,-196608,-123,-56,-1,-1,0
133,393216,-123,-56,-1,-1,0
166,-458752,-123,-56,-1,-1,0
200,-1179648,-123,-56,-1,-1,0
233,196608,-123,-56,-1,-1,0
266,-1572864,-123,-56,-1,-1,0
300,-458752,-123,-56,-1,-1,0
333,1769472,-123,-56,-1,-1,0
366,4194304,-123,-56,-1,-1,0
400,720896,-123,-56,-1,-1,0
433,-1179648,-123,-56,-1,-1,0
466,-2359296,-123,-56,-1,-1,0
500,-2949120,-123,-56,-1,-1,0
533,-3604480,-123,-56,-1,-1,0
566,-4784128,-123,-56,-1,-1,0
600,1245184,-123,-56,-1,-1,0
633,-6225920,-123,-56,-1,-1,0
666,-2555904,-123,-56,-1,-1,0
700,-262144,-123,-56,-1,-1,0
733,3866624,-123,-56,-1,-1,0
766,2949120,-123,-56,-1,-1,0
800,524288,-123,-56,-1,-1,0
833,0,-123,-56,-1,-1,0
866,-524288,-123,-56,-1,-1,0
900,0,-123,-56,-1,-1,0
933,-851968,-123,-56,-1,-1,0
966,-1572864,-123,-56,-1,-1,0
1000,131072,-123,-56,-1,-1,0
1033,-2162688,-123,-56,-1,-1,0
1066,-786432,-123,-56,-1,-1,0
1100,1966080,-123,-56,-1,-1,0
1133,5111808,-123,-56,-1,-1,0
1166,2686976,-123,-56,-1,-1,0
1200,1179648,-123,-56,-1,-1,0
1233,131072,-123,-56,-1,-1,0
1266,0,-123,-56,-1,-1,0
1300,196608,-123,-56,-1,-1,0
1333,-262144,-123,-56,-1,-1,0
1366,458752,-123,-56,-1,-1,0
1400,-4653056,-123,-56,-1,-1,0
1433,-262144,-123,-56,-1,-1,0
1466,917504,-123,-56,-1,-1,0
1500,3997696,-123,-56,-1,-1,0
1533,4784128,-123,-56,-1,-1,0
1566,1638400,-123,-56,-1,-1,0
1600,327680,-123,-56,-1,-1,0
1633,-262144,-123,-56,-1,-1,0
1666,65536,-123,-56,-1,-1,0
1700,-393216,-123,-56,-1,-1,0
1733,-851968,-123,-56,-1,-1,0
1766,2949120,-123,-56,-1,-1,0
1800,-2555904,-123,-56,-1,-1,0
1833,-589824,-123,-56,-1,-1,0
1866,983040,-123,-56,-1,-1,0
1900,4587520,-123,-56,-1,-1,0
1933,2424832,-123,-56,-1,-1,0
1966,0,-123,-56,-1,-1,0
2000,-655360,-123,-56,-1,-1,0
2033,-1507328,-123,-56,-1,-1,0
2066,-851968,-123,-56,-1,-1,0
2100,-1835008,-123,-56,-1,-1,0
2133,-1507328,-123,-56,-1,-1,0
2166,-4521984,-123,-56,-1,-1,0
2200,-2686976,-123,-56,-1,-1,0
2233,-1507328,-123,-56,-1,-1,0
2266,1376256,-123,-56,-1,-1,0
2300,2883584,-123,-56,-1,-1,0
2333,-655360,-124,-56,-1,-1,0
2366,-1835008,-124,-56,-1,-1,0
2400,-2293760,-124,-56,-1,-1,0
2433,-2097152,-124,-56,-1,-1,0
2466,-2097152,-124,-56,-1,-1,0
2500,-2424832,-124,-56,-1,-1,0
2533,4194304,-124,-56,-1,-1,0
2566,-4390912,-124,-56,-1,-1,0
2600,-1900544,-124,-56,-1,-1,0
2633,0,-124,-56,-1,-1,0
2666,3670016,-124,-56,-1,-1,0
2700,2359296,-125,-56,-1,-1,0
2733,-196608,-125,-56,-1,-1,0
2766,-917504,-125,-56,-1,-1,0
2800,-1572864,-125,-56,-1,-1,0
2833,-917504,-125,-56,-1,-1,0
2866,-1638400,-125,-56,-1,-1,0
2900,-1900544,-125,-56,-1,-1,0
2933,1638400,-125,-56,-1,-1,0
2966,-1179648,-125,-56,-1,-1,0
3000,393216,-125,-56,-1,-1,0
3033,2686976,-125,-56,-1,-1,0
3066,5636096,-125,-56,-1,-1,0
3100,3276800,-125,-56,-1,-1,0
3133,1835008,-125,-56,-1,-1,0
3166,1114112,-125,-56,-1,-1,0
3200,458752,-125,-56,-1,-1,0
3233,851968,-125,-56,-1,-1,0
3266,-65536,-125,-56,-1,-1,0
3300,-327680,-125,-56,-1,-1,0
3333,-4587520,-125,-56,-1,-1,0
3366,-1572864,-125,-56,-1,-1,0
3400,-1245184,-125,-56,-1,-1,0
3433,655360,-125,-56,-1,-1,0
3466,2031616,-125,-56,-1,-1,0
3500,-851968,-125,-56,-1,-1,0
3533,-1835008,-125,-56,-1,-1,0
3566,-1835008,-125,-56,-1,-1,0
3600,-983040,-125,-56,-1,-1,0
3633,-1048576,-125,-56,-1,-1,0
3666,-1245184,-125,-56,-1,-1,0
3699,2818048,-125,-56,-1,-1,0
3733,-3670016,-125,-56,-1,-1,0
3766,-524288,-125,-56,-1,-1,0
3800,1179648,-125,-56,-1,-1,0
3833,4718592,-125,-56,-1,-1,0
3866,3604480,-126,-56,-1,-1,0
3900,589824,-126,-56,-1,-1,0
3933,-589824,-126,-56,-1,-1,0
3966,-1638400,-126,-56,-1,-1,0
4000,-1179648,-126,-56,-1,-1,0
4033,-2359296,-126,-56,-1,-1,0
4066,-2752512,-126,-56,-1,-1,0
4100,-2293760,-126,-56,-1,-1,0
4133,-3211264,-126,-56,-1,-1,0
4166,-2359296,-126,-56,-1,-1,0
4200,393216,-126,-56,-1,-1,0
4233,3866624,-126,-56,-1,-1,0
4266,2621440,-126,-56,-1,-1,0
4300,2883584,-126,-56,-1,-1,0
4333,2752512,-126,-56,-1,-1,0
4366,2686976,-126,-56,-1,-1,0
4400,2883584,-126,-56,-1,-1,0
4433,2031616,-126,-56,-1,-1,0
4466,6291456,-126,-56,-1,-1,0
4500,-2752512,-126,-56,-1,-1,0
4533,65536,-126,-56,-1,-1,0
4566,327680,-126,-56,-1,-1,0
4600,2097152,-126,-56,-1,-1,0
4633,655360,-126,-56,-1,-1,0
4666,-2949120,-126,-56,-1,-1,0
4700,-4194304,-126,-56,-1,-1,0
4733,-5177344,-126,-56,-1,-1,0
4766,-4325376,-126,-56,-1,-1,0
4800,-4128768,-126,-56,-1,-1,0
4833,-4128768,-126,-56,-1,-1,0
4866,1245184,-126,-56,-1,-1,0
4900,-4063232,-126,-56,-1,-1,0
4933,-983040,-126,-56,-1,-1,0
4966,1310720,-126,-56,-1,-1,0
5000,5177344,-126,-56,-1,-1,0
5033,3801088,-126,-56,-1,-1,0
5066,1703936,-126,-56,-1,-1,0
5100,1114112,-126,-56,-1,-1,0
5133,851968,-126,-56,-1,-1,0
5166,1703936,-126,-56,-1,-1,0
5200,1245184,-126,-56,-1,-1,0
5233,851968,-126,-56,-1,-1,0
5266,1900544,-126,-56,-1,-1,0
5300,1310720,-126,-56,-1,-1,0
5333,2490368,-126,-56,-1,-1,0
5366,4653056,-126,-56,-1,-1,0
5400,6815744,-126,-56,-1,-1,0
5433,3473408,-126,-56,-1,-1,0
5466,1179648,-126,-56,-1,-1,0
5500,131072,-126,-56,-1,-1,0
5533,-917504,-126,-56,-1,-1,0
5566,-983040,-126,-56,-1,-1,0
5600,-2424832,-126,-56,-1,-1,0
5633,-1769472,-126,-56,-1,-1,0
5666,-6488064,-126,-56,-1,-1,0
5700,-3932160,-126,-56,-1,-1,0
5733,-2818048,-126,-56,-1,-1,0
5766,-262144,-126,-56,-1,-1,0
5800,1048576,-126,-56,-1,-1,0
5833,-1900544,-126,-56,-1,-1,0
5866,-2752512,-126,-56,-1,-1,0
5900,-3145728,-126,-56,-1,-1,0
5933,-2818048,-126,-56,-1,-1,0
5966,-2359296,-126,-56,-1,-1,0
6000,-2293760,-126,-56,-1,-1,0
6033,4259840,-126,-56,-1,-1,0
6066,-3801088,-126,-56,-1,-1,0
6100,-458752,-126,-56,-1,-1,0
6133,1835008,-126,-56,-1,-1,0
6166,5767168,-126,-56,-1,-1,0
6200,5046272,-126,-56,-1,-1,0
6233,2162688,-127,-56,-1,-1,0
6266,1179648,-127,-56,-1,-1,0
6300,196608,-127,-56,-1,-1,0
6333,327680,-127,-56,-1,-1,0
6366,-327680,-127,-56,-1,-1,0
6400,-851968,-127,-56,-1,-1,0
6433,4390912,-127,-56,-1,-1,0
6466,-2883584,-127,-56,-1,-1,0
6500,-1507328,-127,-56,-1,-1,0
6533,65536,-127,-56,-1,-1,0
6566,3145728,-127,-56,-1,-1,0
6600,983040,-127,-56,-1,-1,0
6633,-1179648,-127,-56,-1,-1,0
6666,-2031616,-127,-56,-1,-1,0
6700,-2555904,-127,-56,-1,-1,0
6733,-1900544,-127,-56,-1,-1,0
6766,-2228224,-127,-56,-1,-1,0
6800,-2490368,-127,-56,-1,-1,0
6833,2031616,-127,-56,-1,-1,0
6866,-2162688,-127,-56,-1,-1,0
6899,-458752,-127,-56,-1,-1,0
6933,1835008,-127,-56,-1,-1,0
6966,5046272,-127,-56,-1,-1,0
7000,3211264,-127,-56,-1,-1,0
7033,1048576,-127,-56,-1,-1,0
7066,131072,-127,-56,-1,-1,0
7100,-393216,-127,-56,-1,-1,0
7133,131072,-127,-56,-1,-1,0
7166,-393216,-127,-56,-1,-1,0
7200,-917504,-127,-56,-1,-1,0
7233,2228224,-127,-56,-1,-1,0
7266,-1507328,-127,-56,-1,-1,0
7300,131072,-127,-56,-1,-1,0
7333,2293760,-127,-56,-1,-1,0
7366,5373952,-127,-56,-1,-1,0
7399,3670016,-127,-56,-1,-1,0
7433,1376256,-127,-56,-1,-1,0
7466,458752,-127,-56,-1,-1,0
7500,-196608,-127,-56,-1,-1,0
7533,196608,-127,-56,-1,-1,0
7566,-655360,-127,-56,-1,-1,0
7600,-1376256,-127,-56,-1,-1,0
7633,2949120,-127,-56,-1,-1,0
7666,-3604480,-127,-56,-1,-1,0
7700,-2228224,-127,-56,-1,-1,0
7733,-720896,-127,-56,-1,-1,0
7766,2228224,-127,-56,-1,-1,0
7800,-458752,-127,-56,-1,-1,0
7833,-3473408,-127,-56,-1,-1,0
7866,-5373952,-127,-56,-1,-1,0
7899,-6225920,-127,-56,-1,-1,0
7933,-5111808,-127,-56,-1,-1,0
7966,-4128768,-127,-56,-1,-1,0
8000,-3080192,-127,-56,-1,-1,0
8033,3735552,-127,-56,-1,-1,0
8066,-2293760,-127,-56,-1,-1,0
8100,-458752,-127,-56,-1,-1,0
8133,720896,-127,-56,-1,-1,0
8166,3932160,-127,-56,-1,-1,0
8200,983040,-127,-56,-1,-1,0
8233,-1966080,-127,-56,-1,-1,0
8266,-3604480,-127,-56,-1,-1,0
8300,-4521984,-127,-56,-1,-1,0
8333,-4390912,-127,-56,-1,-1,0
8366,-4587520,-127,-56,-1,-1,0
8400,-983040,-127,-56,-1,-1,0
8433,11468800,-127,-56,-1,-1,0
8466,8519680,-127,-56,-1,-1,0
8500,10747904,-127,-56,-1,-1,0
8533,13238272,-127,-56,-1,-1,0
8566,15532032,-127,-56,-1,-1,0
8600,10944512,-128,-56,-1,-1,0
8633,4849664,-128,-56,-1,-1,0
8666,917504,-128,-56,-1,-1,0
8700,-1835008,-128,-56,-1,-1,0
8733,-2359296,-128,-56,-1,-1,0
8766,-3538944,-128,-56,-1,-1,0
8800,-4194304,-128,-56,-1,-1,0
8833,-917504,-128,-56,-1,-1,0
8866,-4718592,-128,-56,-1,-1,0
8900,-3604480,-128,-56,-1,-1,0
8933,-1835008,-128,-56,-1,-1,0
8966,786432,-128,-56,-1,-1,0
9000,-1507328,-128,-56,-1,-1,0
9033,-2359296,-128,-56,-1,-1,0
9066,-3932160,-128,-56,-1,-1,0
9100,-3932160,-128,-56,-1,-1,0
9133,-4587520,-128,-56,-1,-1,0
9166,-4784128,-128,-56,-1,-1,0
9200,-3866624,-128,-56,-1,-1,0
9233,-6488064,-128,-56,-1,-1,0
9266,-3604480,-128,-56,-1,-1,0
9300,-2293760,-128,-56,-1,-1,0
9333,1572864,-128,-56,-1,-1,0
9366,5373952,-128,-56,-1,-1,0
9400,4063232,-128,-56,-1,-1,0
9433,3080192,-128,-56,-1,-1,0
9466,2162688,-128,-56,-1,-1,0
9500,1703936,-128,-56,-1,-1,0
9533,2097152,-128,-56,-1,-1,0
9566,1376256,-128,-56,-1,-1,0
9600,1441792,-128,-56,-1,-1,0
9633,-2621440,-128,-56,-1,-1,0
9666,2228224,-128,-56,-1,-1,0
9700,3932160,-128,-56,-1,-1,0
9733,7274496,-128,-56,-1,-1,0
9766,10027008,-128,-56,-1,-1,0
9800,6094848,-128,-56,-1,-1,0
9833,-1179648,-128,-56,-1,-1,0
9866,-3342336,-128,-56,-1,-1,0
9900,-3801088,-128,-56,-1,-1,0
9933,-5308416,-128,-56,-1,-1,0
9966,-6160384,-128,-56,-1,-1,0
10000,262144,-128,-56,-1,-1,0
10033,-6815744,-128,-56,-1,-1,0
10066,-3211264,-128,-56,-1,-1,0
10100,-524288,-128,-56,-1,-1,0
10133,3997696,-128,-56,-1,-1,0
10166,2555904,-128,-56,-1,-1,0
10200,-3211264,-128,-56,-1,-1,0
10233,-3538944,-128,-56,-1,-1,0
10266,-3014656,-128,-56,-1,-1,0
10300,-4259840,-128,-56,-1,-1,0
10333,-5046272,-128,-56,-1,-1,0
10366,-2555904,-128,-56,-1,-1,0
10400,-9043968,-128,-56,-1,-1,0
10433,-3997696,-128,-56,-1,-1,0
10466,-2293760,-128,-56,-1,-1,0
10500,917504,-128,-56,-1,-1,0
10533,2818048,-128,-56,-1,-1,0
10566,-655360,-128,-56,-1,-1,0
10600,-655360,-128,-56,-1,-1,0
10633,-1900544,-128,-56,-1,-1,0
10666,-2031616,-128,-56,-1,-1,0
10700,-1245184,-128,-56,-1,-1,0
10733,-262144,-128,-56,-1,-1,0
10766,5242880,-128,-56,-1,-1,0
10800,-1900544,-128,-56,-1,-1,0
10833,524288,-128,-56,-1,-1,0
10866,2686976,-128,-56,-1,-1,0
10900,3866624,-128,-56,-1,-1,0
10933,-2162688,-128,-56,-1,-1,0
10966,-7733248,-128,-56,-1,-1,0
11000,-10944512,-128,-56,-1,-1,0
11033,-12648448,-128,-56,-1,-1,0
11066,-12648448,-128,-56,-1,-1,0
11100,-6881280,-128,-56,-1,-1,0
11133,9633792,-128,-56,-1,-1,0
11166,8126464,-128,-56,-1,-1,0
11200,18350080,-128,-56,-1,-1,0
11233,22609920,-128,-56,-1,-1,0
11266,26542080,-128,-56,-1,-1,0
11300,24379392,-128,-56,-1,-1,0
11333,15925248,-128,-56,-1,-1,0
11366,9764864,-128,-56,-1,-1,0
11400,2424832,-128,-56,-1,-1,0
11433,-1900544,-128,-56,-1,-1,0
11466,-4325376,-128,-56,-1,-1,0
11500,-3473408,-128,-56,-1,-1,0
11533,-4784128,-128,-56,-1,-1,0
11566,-6356992,-128,-56,-1,-1,0
11600,-7995392,-128,-56,-1,-1,0
11633,-4980736,-128,-56,-1,-1,0
11666,-2883584,-128,-56,-1,-1,0
11700,-4259840,-128,-56,-1,-1,0
11733,-4390912,-128,-56,-1,-1,0
11766,-4259840,-128,-56,-1,-1,0
11800,-4194304,-128,-56,-1,-1,0
11833,-6029312,-128,-56,-1,-1,0
11866,-5767168,-128,-56,-1,-1,0
11900,1179648,-128,-56,-1,-1,0
11933,-5111808,-128,-56,-1,-1,0
11966,-2686976,-128,-56,-1,-1,0
12000,262144,-128,-56,-1,-1,0
12033,4521984,-128,-56,-1,-1,0
12066,3473408,-128,-56,-1,-1,0
12100,1900544,-128,-56,-1,-1,0
12133,786432,-128,-56,-1,-1,0
12166,1376256,-128,-56,-1,-1,0
12200,1441792,-128,-56,-1,-1,0
12233,524288,-128,-56,-1,-1,0
12266,10092544,-128,-56,-1,-1,0
12300,-983040,-128,-56,-1,-1,0
12333,851968,-128,-56,-1,-1,0
12366,-1245184,-128,-56,-1,-1,0
12400,1638400,-128,-56,-1,-1,0
12433,-1441792,-128,-56,-1,-1,0
12466,-3604480,-128,-56,-1,-1,0
12500,-2949120,-128,-56,-1,-1,0
12533,-2031616,-128,-56,-1,-1,0
12566,-1245184,-128,-56,-1,-1,0
12600,-1048576,-128,-56,-1,-1,0
12633,3997696,-128,-56,-1,-1,0
12666,-3473408,-128,-56,-1,-1,0
12700,655360,-128,-56,-1,-1,0
12733,2359296,-128,-56,-1,-1,0
12766,6553600,-128,-56,-1,-1,0
12800,6946816,-128,-56,-1,-1,0
12833,5046272,-128,-56,-1,-1,0
12866,2686976,-128,-56,-1,-1,0
12900,-4063232,-128,-56,-1,-1,0
12933,-3866624,-128,-56,-1,-1,0
12966,-5308416,-128,-56,-1,-1,0
13000,-3014656,-128,-56,-1,-1,0
13033,-10682368,-128,-56,-1,-1,0
13066,-6815744,-128,-56,-1,-1,0
13100,-4980736,-128,-56,-1,-1,0
13133,589824,-127,-56,-1,-1,0
13166,1769472,-127,-56,-1,-1,0
13200,-327680,-127,-56,-1,-1,0
13233,-458752,-127,-56,-1,-1,0
13266,-983040,-127,-56,-1,-1,0
13299,-917504,-127,-56,-1,-1,0
13333,-196608,-127,-56,-1,-1,0
13366,7471104,-127,-56,-1,-1,0
13400,-1310720,-127,-56,-1,-1,0
13433,1835008,-127,-56,-1,-1,0
13466,2883584,-127,-56,-1,-1,0
13500,6684672,-127,-56,-1,-1,0
13533,6881280,-127,-56,-1,-1,0
13566,4521984,-127,-56,-1,-1,0
13600,4063232,-127,-56,-1,-1,0
13633,3670016,-127,-56,-1,-1,0
13666,3997696,-127,-56,-1,-1,0
13700,3866624,-127,-56,-1,-1,0
13733,720896,-127,-56,-1,-1,0
13766,-7340032,-127,-56,-1,-1,0
13799,-4390912,-127,-56,-1,-1,0
13833,-3473408,-127,-56,-1,-1,0
13866,-851968,-126,-56,-1,-1,0
13900,131072,-126,-56,-1,-1,0
13933,-2293760,-126,-56,-1,-1,0
13966,-2424832,-126,-56,-1,-1,0
14000,-3014656,-126,-56,-1,-1,0
14033,-2818048,-126,-56,-1,-1,0
14066,-2818048,-126,-56,-1,-1,0
14100,1114112,-126,-56,-1,-1,0
14133,-4653056,-126,-56,-1,-1,0
14166,-2424832,-126,-56,-1,-1,0
14200,-2293760,-126,-56,-1,-1,0
14233,1638400,-126,-56,-1,-1,0
14266,1114112,-126,-56,-1,-1,0
14299,-2949120,-126,-56,-1,-1,0
14333,-3670016,-126,-56,-1,-1,0
14366,-4456448,-126,-56,-1,-1,0
14400,-4849664,-126,-56,-1,-1,0
14433,-4653056,-126,-56,-1,-1,0
14466,786432,-126,-56,-1,-1,0
14500,-8978432,-126,-56,-1,-1,0
14533,-5636096,-126,-56,-1,-1,0
14566,-4784128,-126,-56,-1,-1,0
14600,-1179648,-125,-56,-1,-1,0
14633,-131072,-125,-56,-1,-1,0
14666,-917504,-125,-56,-1,-1,0
14700,-2424832,-125,-56,-1,-1,0
14733,-3932160,-125,-56,-1,-1,0
14766,-5701632,-125,-56,-1,-1,0
14799,-10878976,-125,-56,-1,-1,0
14833,-9437184,-124,-56,-1,-1,0
14866,-22740992,-124,-56,-1,-1,0
14900,-22282240,-124,-56,-1,-1,0
14933,-20119552,-124,-56,-1,-1,0
14966,-10027008,-124,-56,-1,-1,0
15000,2293760,-124,-56,-1,-1,0
15033,11730944,-124,-56,-1,-1,0
15066,17367040,-124,-56,-1,-1,0
15100,21692416,-124,-56,-1,-1,0
15133,24772608,-124,-56,-1,-1,0
15166,26673152,-124,-56,-1,-1,0
15200,32964608,-124,-56,-1,-1,0
15233,26017792,-124,-56,-1,-1,0
15266,26673152,-124,-56,-1,-1,0
15299,27066368,-124,-56,-1,-1,0
15333,23789568,-124,-56,-1,-1,0
15366,11796480,-124,-56,-1,-1,0
15400,2883584,-124,-56,-1,-1,0
15433,0,-124,-56,-1,-1,0
15466,-13041664,-124,-56,-1,-1,0
15500,-2097152,-124,-56,-1,-1,0
15533,851968,-124,-56,-1,-1,0
15566,2293760,-124,-56,-1,-1,0
15600,-1769472,-124,-56,-1,-1,0
15633,-6815744,-124,-56,-1,-1,0
15666,-9830400,-124,-56,-1,-1,0
15700,-9895936,-124,-56,-1,-1,0
15733,-10747904,-124,-56,-1,-1,0
15766,-11403264,-124,-56,-1,-1,0
15799,-10289152,-124,-56,-1,-1,0
15833,-9109504,-124,-56,-1,-1,0
15866,-8650752,-124,-56,-1,-1,0
15900,1245184,-124,-56,-1,-1,0
15933,-7602176,-124,-56,-1,-1,0
15966,-2949120,-124,-56,-1,-1,0
16000,-851968,-124,-56,-1,-1,0
16033,2228224,-123,-56,-1,-1,0
16066,4915200,-123,-56,-1,-1,0
16100,3342336,-123,-56,-1,-1,0
16133,2686976,-123,-56,-1,-1,0
16166,1179648,-123,-56,-1,-1,0
16200,1507328,-123,-56,-1,-1,0
16233,1441792,-123,-56,-1,-1,0
16266,3342336,-123,-56,-1,-1,0
16300,-3932160,-123,-56,-1,-1,0
16333,-1835008,-123,-56,-1,-1,0
16366,-196608,-123,-56,-1,-1,0
16400,2621440,-123,-56,-1,-1,0
16433,3407872,-123,-56,-1,-1,0
16466,327680,-123,-56,-1,-1,0
16500,-1179648,-123,-56,-1,-1,0
16533,-983040,-123,-56,-1,-1,0
16566,-1507328,-123,-56,-1,-1,0
16600,-1114112,-123,-56,-1,-1,0
16633,3735552,-123,-56,-1,-1,0
16666,-1376256,-123,-56,-1,-1,0
16700,-1638400,-123,-56,-1,-1,0
16733,-983040,-121,-56,-1,-1,0
16766,2949120,-121,-56,-1,-1,0
16800,-524288,-121,-56,-1,-1,0
16833,-2752512,-121,-56,-1,-1,0
16866,-3866624,-121,-56,-1,-1,0
16900,-4063232,-121,-56,-1,-1,0
16933,-3604480,-121,-56,-1,-1,0
16966,196608,-121,-56,-1,-1,0
17000,-8519680,-121,-56,-1,-1,0
17033,-4915200,-121,-56,-1,-1,0
17066,-4521984,-120,-56,-1,-1,0
17100,-1376256,-120,-56,-1,-1,0
17133,-1507328,-120,-56,-1,-1,0
17166,-4849664,-120,-56,-1,-1,0
17200,-5636096,-120,-56,-1,-1,0
17233,-3538944,-120,-56,-1,-1,0
17266,-3473408,-120,-56,-1,-1,0
17300,-5242880,-120,-56,-1,-1,0
17333,-851968,-120,-56,-1,-1,0
17366,-8650752,-120,-56,-1,-1,0
17400,-8519680,-120,-56,-1,-1,0
17433,-7864320,-120,-56,-1,-1,0
17466,-4849664,-120,-56,-1,-1,0
17500,-8978432,-120,-56,-1,-1,0
17533,-15925248,-120,-56,-1,-1,0
17566,-17170432,-120,-56,-1,-1,0
17600,-7077888,-120,-56,-1,-1,0
17633,7143424,-120,-56,-1,-1,0
17666,19005440,-120,-56,-1,-1,0
17700,18743296,-120,-56,-1,-1,0
17733,26607616,-120,-56,-1,-1,0
17766,28180480,-119,-56,-1,-1,0
17800,30605312,-119,-56,-1,-1,0
17833,30670848,-119,-56,-1,-1,0
17866,24117248,-119,-56,-1,-1,0
17900,17760256,-119,-56,-1,-1,0
17933,11272192,-119,-56,-1,-1,0
17966,4063232,-119,-56,-1,-1,0
18000,-2555904,-119,-56,-1,-1,0
18033,327680,-119,-56,-1,-1,0
18066,-6094848,-119,-56,-1,-1,0
18100,-6881280,-119,-56,-1,-1,0
18133,-5767168,-119,-56,-1,-1,0
18166,-2949120,-119,-56,-1,-1,0
18200,-5177344,-119,-56,-1,-1,0
18233,-7602176,-119,-56,-1,-1,0
18266,-9699328,-119,-56,-1,-1,0
18300,-10223616,-119,-56,-1,-1,0
18333,-10747904,-119,-56,-1,-1,0
18366,-4521984,-119,-56,-1,-1,0
18400,-11665408,-119,-56,-1,-1,0
18433,-8257536,-119,-56,-1,-1,0
18466,-5373952,-119,-56,-1,-1,0
18500,131072,-119,-56,-1,-1,0
18533,2359296,-119,-56,-1,-1,0
18566,589824,-119,-56,-1,-1,0
18600,-327680,-119,-56,-1,-1,0
18633,-131072,-119,-56,-1,-1,0
18666,-589824,-119,-56,-1,-1,0
18700,-917504,-119,-56,-1,-1,0
18733,4390912,-119,-56,-1,-1,0
18766,-1441792,-119,-56,-1,-1,0
18800,589824,-118,-56,-1,-1,0
18833,3145728,-118,-56,-1,-1,0
18866,4456448,-118,-56,-1,-1,0
18900,3801088,-118,-56,-1,-1,0
18933,2228224,-118,-56,-1,-1,0
18966,-1507328,-118,-56,-1,-1,0
19000,-2555904,-118,-56,-1,-1,0
19033,-3670016,-118,-56,-1,-1,0
19066,-589824,-118,-56,-1,-1,0
19100,-5570560,-118,-56,-1,-1,0
19133,-1179648,-118,-56,-1,-1,0
19166,1245184,-116,-56,-1,-1,0
19200,5636096,-116,-56,-1,-1,0
19233,7864320,-116,-56,-1,-1,0
19266,4521984,-116,-56,-1,-1,0
19300,3211264,-116,-56,-1,-1,0
19333,2228224,-116,-56,-1,-1,0
19366,-2883584,-116,-56,-1,-1,0
19400,-2162688,-116,-56,-1,-1,0
19433,-7077888,-116,-56,-1,-1,0
19466,-6356992,-116,-56,-1,-1,0
19500,-5963776,-116,-56,-1,-1,0
19533,-3735552,-116,-56,-1,-1,0
19566,-2883584,-116,-56,-1,-1,0
19600,-5767168,-116,-56,-1,-1,0
19633,-7340032,-116,-56,-1,-1,0
19666,-7143424,-116,-56,-1,-1,0
19700,-8585216,-116,-56,-1,-1,0
19733,-9437184,-116,-56,-1,-1,0
19766,-4390912,-116,-56,-1,-1,0
19800,-8978432,-116,-56,-1,-1,0
19833,-7602176,-115,-56,-1,-1,0
19866,-6422528,-115,-56,-1,-1,0
19900,-4521984,-115,-56,-1,-1,0
19933,-8257536,-115,-56,-1,-1,0
19966,-10485760,-115,-56,-1,-1,0
20000,-13631488,-115,-56,-1,-1,0
20033,-17432576,-115,-56,-1,-1,0
20066,-15073280,-115,-56,-1,-1,0
20100,7733248,-115,-56,-1,-1,0
20133,10092544,-115,-56,-1,-1,0
20166,20512768,-115,-56,-1,-1,0
20200,24707072,-115,-56,-1,-1,0
20233,30998528,-115,-56,-1,-1,0
20266,30605312,-115,-56,-1,-1,0
20300,28114944,-115,-56,-1,-1,0
20333,27328512,-115,-56,-1,-1,0
20366,25559040,-115,-56,-1,-1,0
20400,21823488,-115,-56,-1,-1,0
20433,21168128,-115,-56,-1,-1,0
20466,-196608,-115,-56,-1,-1,0
20500,-2162688,-115,-56,-1,-1,0
20533,-3407872,-115,-56,-1,-1,0
20566,-2686976,-115,-56,-1,-1,0
20600,-4587520,-115,-56,-1,-1,0
20633,-8060928,-115,-56,-1,-1,0
20666,-8978432,-115,-56,-1,-1,0
20700,-7602176,-115,-56,-1,-1,0
20733,-9502720,-115,-56,-1,-1,0
20766,-3735552,-115,-56,-1,-1,0
20800,-13893632,-115,-56,-1,-1,0
20833,-10682368,-115,-56,-1,-1,0
20866,-9043968,-114,-56,-1,-1,0
20900,-5308416,-114,-56,-1,-1,0
20933,-3932160,-114,-56,-1,-1,0
20966,-4259840,-114,-56,-1,-1,0
21000,-2097152,-114,-56,-1,-1,0
21033,0,-114,-56,-1,-1,0
21066,-851968,-114,-56,-1,-1,0
21100,-983040,-114,-56,-1,-1,0
21133,1114112,-114,-56,-1,-1,0
21166,-589824,-114,-56,-1,-1,0
21200,851968,-114,-56,-1,-1,0
21233,3080192,-114,-56,-1,-1,0
21266,5111808,-114,-56,-1,-1,0
21300,786432,-114,-56,-1,-1,0
21333,0,-114,-56,-1,-1,0
21366,-393216,-114,-56,-1,-1,0
21400,131072,-114,-56,-1,-1,0
21433,-1310720,-114,-56,-1,-1,0
21466,2424832,-114,-56,-1,-1,0
21500,-5439488,-114,-56,-1,-1,0
21533,-3211264,-114,-56,-1,-1,0
21566,-2359296,-112,-56,-1,-1,0
21600,655360,-112,-56,-1,-1,0
21633,851968,-112,-56,-1,-1,0
21666,-327680,-112,-56,-1,-1,0
21700,0,-112,-56,-1,-1,0
21733,262144,-112,-56,-1,-1,0
21766,1900544,-112,-56,-1,-1,0
21800,10223616,-112,-56,-1,-1,0
21833,-65536,-112,-56,-1,-1,0
21866,-1835008,-112,-56,-1,-1,0
21900,-1835008,-112,-56,-1,-1,0
21933,262144,-112,-56,-1,-1,0
21966,-2621440,-112,-56,-1,-1,0
22000,-4980736,-112,-56,-1,-1,0
22033,-5767168,-112,-56,-1,-1,0
22066,-7602176,-112,-56,-1,-1,0
22100,-9437184,-112,-56,-1,-1,0
22133,-3342336,-112,-56,-1,-1,0
22166,-10092544,-112,-56,-1,-1,0
22200,21102592,-112,-56,-1,-1,0
22233,7340032,-112,-56,-1,-1,0
22266,5898240,-112,-56,-1,-1,0
22300,3932160,-112,-56,-1,-1,0
22333,983040,-112,-56,-1,-1,0
22366,-1638400,-112,-56,-1,-1,0
22400,-4063232,-112,-56,-1,-1,0
22433,-7274496,-112,-56,-1,-1,0
22466,-4980736,-112,-56,-1,-1,0
22500,-11927552,-112,-56,-1,-1,0
22533,-8060928,-112,-56,-1,-1,0
22566,-5636096,-112,-56,-1,-1,0
22600,-2883584,-112,-56,-1,-1,0
22633,-6619136,-112,-56,-1,-1,0
22666,-8192000,-112,-56,-1,-1,0
22700,-131072,-112,-56,-1,-1,0
22733,9240576,-112,-56,-1,-1,0
22766,10944512,-112,-56,-1,-1,0
22800,21037056,-112,-56,-1,-1,0
22833,12320768,-112,-56,-1,-1,0
22866,16842752,-111,-56,-1,-1,0
22900,18874368,-111,-56,-1,-1,0
22933,21692416,-111,-56,-1,-1,0
22966,16908288,-111,-56,-1,-1,0
23000,6750208,-111,-56,-1,-1,0
23033,524288,-111,-56,-1,-1,0
23066,-4521984,-111,-56,-1,-1,0
23100,-6619136,-111,-56,-1,-1,0
23133,3735552,-111,-56,-1,-1,0
23166,-9109504,-111,-56,-1,-1,0
23200,-7077888,-111,-56,-1,-1,0
23233,-4456448,-111,-56,-1,-1,0
23266,-1048576,-111,-56,-1,-1,0
23300,-2883584,-111,-56,-1,-1,0
23333,-5636096,-111,-56,-1,-1,0
23366,-5636096,-111,-56,-1,-1,0
23400,-5963776,-111,-56,-1,-1,0
23433,-5767168,-111,-56,-1,-1,0
23466,5439488,-111,-56,-1,-1,0
23500,-6160384,-111,-56,-1,-1,0
23533,-4128768,-111,-56,-1,-1,0
23566,-2097152,-111,-56,-1,-1,0
23600,2490368,-111,-56,-1,-1,0
23633,2162688,-111,-56,-1,-1,0
23666,65536,-111,-56,-1,-1,0
23700,-1048576,-111,-56,-1,-1,0
23733,-1441792,-111,-56,-1,-1,0
23766,-3276800,-111,-56,-1,-1,0
23800,196608,-111,-56,-1,-1,0
23833,-6553600,-111,-56,-1,-1,0
23866,-3211264,-111,-56,-1,-1,0
23900,-3866624,-111,-56,-1,-1,0
23933,-1572864,-111,-56,-1,-1,0
23966,-655360,-111,-56,-1,-1,0
24000,-983040,-111,-56,-1,-1,0
24033,-3670016,-111,-56,-1,-1,0
24066,-3932160,-111,-56,-1,-1,0
24100,-983040,-111,-56,-1,-1,0
24133,9437184,-111,-56,-1,-1,0
24166,5046272,-111,-56,-1,-1,0
24200,7798784,-109,-56,-1,-1,0
24233,7536640,-109,-56,-1,-1,0
24266,8519680,-109,-56,-1,-1,0
24300,6881280,-109,-56,-1,-1,0
24333,1638400,-109,-56,-1,-1,0
24366,327680,-109,-56,-1,-1,0
24400,0,-109,-56,-1,-1,0
24433,-1179648,-109,-56,-1,-1,0
24466,6815744,-109,-56,-1,-1,0
24500,-4456448,-109,-56,-1,-1,0
24533,-2949120,-109,-56,-1,-1,0
24566,-786432,-109,-56,-1,-1,0
24600,3014656,-109,-56,-1,-1,0
24633,262144,-109,-56,-1,-1,0
24666,-3342336,-109,-56,-1,-1,0
24700,-3473408,-109,-56,-1,-1,0
24733,-4259840,-109,-56,-1,-1,0
24766,-5767168,-109,-56,-1,-1,0
24800,2883584,-109,-56,-1,-1,0
24833,-6356992,-108,-56,-1,-1,0
24866,-2949120,-108,-56,-1,-1,0
24900,1048576,-108,-56,-1,-1,0
24933,3932160,-108,-56,-1,-1,0
24966,2424832,-108,-56,-1,-1,0
25000,327680,-108,-56,-1,-1,0
25033,0,-108,-56,-1,-1,0
25066,-524288,-108,-56,-1,-1,0
25100,-983040,-108,-56,-1,-1,0
25133,7077888,-108,-56,-1,-1,0
25166,-2555904,-108,-56,-1,-1,0
25200,-5636096,-108,-56,-1,-1,0
25233,-5898240,-108,-56,-1,-1,0
25266,3473408,-108,-56,-1,-1,0
25300,7995392,-108,-56,-1,-1,0
25333,7667712,-108,-56,-1,-1,0
25366,3407872,-108,-56,-1,-1,0
25400,1703936,-108,-56,-1,-1,0
25433,4915200,-108,-56,-1,-1,0
25466,14090240,-108,-56,-1,-1,0
25500,2490368,-108,-56,-1,-1,0
25533,-3342336,-108,-56,-1,-1,0
25566,-4128768,-108,-56,-1,-1,0
25600,917504,-108,-56,-1,-1,0
25633,983040,-108,-56,-1,-1,0
25666,-1703936,-108,-56,-1,-1,0
25700,-1376256,-108,-56,-1,-1,0
25733,-1966080,-108,-56,-1,-1,0
25766,-3407872,-108,-56,-1,-1,0
25800,-4194304,-108,-56,-1,-1,0
25833,-5046272,-106,-56,-1,-1,0
25866,-4718592,-106,-56,-1,-1,0
25900,-3080192,-106,-56,-1,-1,0
25933,-1703936,-106,-56,-1,-1,0
25966,-3866624,-106,-56,-1,-1,0
26000,-4653056,-106,-56,-1,-1,0
26033,-4325376,-106,-56,-1,-1,0
26066,-4849664,-106,-56,-1,-1,0
26099,-4259840,-106,-56,-1,-1,0
26133,-2555904,-106,-56,-1,-1,0
26166,-2031616,-106,-56,-1,-1,0
26200,-655360,-106,-56,-1,-1,0
26233,1441792,-106,-56,-1,-1,0
26266,3473408,-106,-56,-1,-1,0
26300,2162688,-106,-56,-1,-1,0
26333,393216,-106,-56,-1,-1,0
26366,262144,-106,-56,-1,-1,0
26400,-1310720,-106,-56,-1,-1,0
26433,-2228224,-106,-56,-1,-1,0
26466,-2162688,-106,-56,-1,-1,0
26500,-1048576,-106,-56,-1,-1,0
26533,851968,-106,-56,-1,-1,0
26566,4653056,-106,-56,-1,-1,0
26599,7536640,-106,-56,-1,-1,0
26633,3932160,-106,-56,-1,-1,0
26666,-589824,-106,-56,-1,-1,0
26700,-983040,-106,-56,-1,-1,0
26733,-2031616,-106,-56,-1,-1,0
26766,-393216,-106,-56,-1,-1,0
26800,-5308416,-106,-56,-1,-1,0
26833,-327680,-106,-56,-1,-1,0
26866,2555904,-106,-56,-1,-1,0
26900,7602176,-106,-56,-1,-1,0
26933,10813440,-106,-56,-1,-1,0
26966,7798784,-106,-56,-1,-1,0
27000,6094848,-106,-56,-1,-1,0
27033,3604480,-106,-56,-1,-1,0
27066,1900544,-106,-56,-1,-1,0
27099,6029312,-106,-56,-1,-1,0
27133,-5242880,-105,-56,-1,-1,0
27166,-4390912,-105,-56,-1,-1,0
27200,-3473408,-105,-56,-1,-1,0
27233,-851968,-105,-56,-1,-1,0
27266,-1966080,-105,-56,-1,-1,0
27300,-2686976,-105,-56,-1,-1,0
27333,-2883584,-105,-56,-1,-1,0
27366,-4128768,-105,-56,-1,-1,0
27400,-5308416,-105,-56,-1,-1,0
27433,524288,-105,-56,-1,-1,0
27466,-3866624,-105,-56,-1,-1,0
27500,-1769472,-105,-56,-1,-1,0
27533,458752,-105,-56,-1,-1,0
27566,4063232,-105,-56,-1,-1,0
27599,1703936,-105,-56,-1,-1,0
27633,393216,-105,-56,-1,-1,0
27666,655360,-105,-56,-1,-1,0
27700,-3342336,-105,-56,-1,-1,0
27733,-6881280,-105,-56,-1,-1,0
27766,-8847360,-105,-56,-1,-1,0
27800,-6815744,-105,-56,-1,-1,0
27833,786432,-105,-56,-1,-1,0
27866,6488064,-105,-56,-1,-1,0
27900,10813440,-105,-56,-1,-1,0
27933,8912896,-105,-56,-1,-1,0
27966,7274496,-105,-56,-1,-1,0
28000,6029312,-105,-56,-1,-1,0
28033,2293760,-105,-56,-1,-1,0
28066,1638400,-105,-56,-1,-1,0
28099,-9043968,-105,-56,-1,-1,0
28133,-5636096,-105,-56,-1,-1,0
28166,-4718592,-105,-56,-1,-1,0
28200,-1572864,-105,-56,-1,-1,0
28233,-1114112,-105,-56,-1,-1,0
28266,-5046272,-105,-56,-1,-1,0
28300,-6684672,-105,-56,-1,-1,0
28333,-7864320,-105,-56,-1,-1,0
28366,-8585216,-105,-56,-1,-1,0
28400,-2359296,-105,-56,-1,-1,0
28433,-12976128,-105,-56,-1,-1,0
28466,-12058624,-105,-56,-1,-1,0
28500,-10813440,-105,-56,-1,-1,0
28533,-8781824,-105,-56,-1,-1,0
28566,33751040,-105,-56,-1,-1,0
28599,22675456,-105,-56,-1,-1,0
28633,8978432,-105,-56,-1,-1,0
28666,4653056,-105,-56,-1,-1,0
28700,2686976,-105,-56,-1,-1,0
28733,11403264,-105,-56,-1,-1,0
28766,65536,-105,-56,-1,-1,0
28800,196608,-105,-56,-1,-1,0
28833,1572864,-105,-56,-1,-1,0
28866,4259840,-105,-56,-1,-1,0
28900,2490368,-105,-56,-1,-1,0
28933,-393216,-105,-56,-1,-1,0
28966,-1048576,-105,-56,-1,-1,0
29000,-2097152,-105,-56,-1,-1,0
29033,-2686976,-105,-56,-1,-1,0
29066,-262144,-105,-56,-1,-1,0
29099,-1900544,-103,-56,-1,-1,0
29133,-720896,-103,-56,-1,-1,0
29166,720896,-103,-56,-1,-1,0
29200,3997696,-103,-56,-1,-1,0
29233,2555904,-103,-56,-1,-1,0
29266,917504,-103,-56,-1,-1,0
29300,983040,-103,-56,-1,-1,0
29333,0,-103,-56,-1,-1,0
29366,262144,-103,-56,-1,-1,0
29400,-2359296,-103,-56,-1,-1,0
29433,2293760,-103,-56,-1,-1,0
29466,3866624,-103,-56,-1,-1,0
29500,7143424,-103,-56,-1,-1,0
29533,8781824,-103,-56,-1,-1,0
29566,3735552,-103,-56,-1,-1,0
29599,0,-103,-56,-1,-1,0
29633,-2752512,-103,-56,-1,-1,0
29666,-6553600,-103,-56,-1,-1,0
29700,983040,-103,-56,-1,-1,0
29733,-9306112,-103,-56,-1,-1,0
29766,-6881280,-103,-56,-1,-1,0
29800,-4915200,-103,-56,-1,-1,0
29833,-2883584,-103,-56,-1,-1,0
29866,-4325376,-103,-56,-1,-1,0
29900,-3801088,-103,-56,-1,-1,0
29933,-6094848,-103,-56,-1,-1,0
29966,-7667712,-103,-56,-1,-1,0
30000,-7602176,-103,-56,-1,-1,0
30033,-5701632,-103,-56,-1,-1,0
30066,-8257536,-103,-56,-1,-1,0
30099,-9109504,-103,-56,-1,-1,0
30133,-9502720,-103,-56,-1,-1,0
30166,-7340032,-103,-56,-1,-1,0
30200,-9764864,-103,-56,-1,-1,0
30233,-10485760,-103,-56,-1,-1,0
30266,-10092544,-103,-56,-1,-1,0
30300,-13500416,-103,-56,-1,-1,0
30333,-9830400,-103,-56,-1,-1,0
30366,-6553600,-103,-56,-1,-1,0
30400,9043968,-103,-56,-1,-1,0
30433,16318464,-103,-56,-1,-1,0
30466,23658496,-103,-56,-1,-1,0
30500,28114944,-103,-56,-1,-1,0
30533,26542080,-103,-56,-1,-1,0
30566,27000832,-103,-56,-1,-1,0
30599,24903680,-103,-56,-1,-1,0
30633,21823488,-103,-56,-1,-1,0
30666,23003136,-103,-56,-1,-1,0
30700,5898240,-103,-56,-1,-1,0
30733,1703936,-103,-56,-1,-1,0
30766,1114112,-103,-56,-1,-1,0
30800,3080192,-103,-56,-1,-1,0
30833,1441792,-103,-56,-1,-1,0
30866,-655360,-103,-56,-1,-1,0
30900,-3604480,-103,-56,-1,-1,0
30933,-6160384,-103,-56,-1,-1,0
30966,-8060928,-103,-56,-1,-1,0
31000,-11010048,-102,-56,-1,-1,0
31033,-9961472,-102,-56,-1,-1,0
31066,-9502720,-102,-56,-1,-1,0
31099,-7995392,-102,-56,-1,-1,0
31133,-6488064,-102,-56,-1,-1,0
31166,-9109504,-102,-56,-1,-1,0
31200,-8126464,-102,-56,-1,-1,0
31233,1048576,-102,-56,-1,-1,0
31266,-1835008,-102,-56,-1,-1,0
31300,5373952,-102,-56,-1,-1,0
31333,-5701632,-102,-56,-1,-1,0
31366,-2228224,-102,-56,-1,-1,0
31400,-720896,-102,-56,-1,-1,0
31433,2031616,-102,-56,-1,-1,0
31466,983040,-102,-56,-1,-1,0
31500,-262144,-102,-56,-1,-1,0
31533,-131072,-102,-56,-1,-1,0
31566,-1769472,-102,-56,-1,-1,0
31599,-1179648,-102,-56,-1,-1,0
31633,-2097152,-102,-56,-1,-1,0
31666,-1507328,-102,-56,-1,-1,0
31700,196608,-102,-56,-1,-1,0
31733,2686976,-102,-56,-1,-1,0
31766,2555904,-102,-56,-1,-1,0
31800,196608,-102,-56,-1,-1,0
31833,-65536,-102,-56,-1,-1,0
31866,131072,-102,-56,-1,-1,0
31900,-65536,-102,-56,-1,-1,0
31933,4456448,-102,-56,-1,-1,0
31966,-2490368,-102,-56,-1,-1,0
32000,917504,-102,-56,-1,-1,0
32033,2490368,-102,-56,-1,-1,0
32066,6094848,-102,-56,-1,-1,0
32100,7077888,-102,-56,-1,-1,0
32133,5242880,-102,-56,-1,-1,0
32166,4456448,-102,-56,-1,-1,0
32200,1703936,-102,-56,-1,-1,0
32233,-917504,-102,-56,-1,-1,0
32266,1769472,-102,-56,-1,-1,0
32299,-5636096,-102,-56,-1,-1,0
32333,-4784128,-102,-56,-1,-1,0
32366,-2490368,-102,-56,-1,-1,0
32400,196608,-102,-56,-1,-1,0
32433,-2883584,-102,-56,-1,-1,0
32466,-3604480,-102,-56,-1,-1,0
32500,-3932160,-102,-56,-1,-1,0
32533,-5701632,-102,-56,-1,-1,0
32566,-917504,-102,-56,-1,-1,0
32600,-10092544,-102,-56,-1,-1,0
32633,-5570560,-102,-56,-1,-1,0
32666,-2883584,-102,-56,-1,-1,0
32700,458752,-102,-56,-1,-1,0
32733,-1441792,-102,-56,-1,-1,0
32766,-4325376,-102,-56,-1,-1,0
32800,-6225920,-102,-56,-1,-1,0
32833,-7340032,-102,-56,-1,-1,0
32866,-8126464,-102,-56,-1,-1,0
32900,-3670016,-102,-56,-1,-1,0
32933,-5242880,-102,-56,-1,-1,0
32966,-1900544,-102,-56,-1,-1,0
33000,-1114112,-102,-56,-1,-1,0
33033,-983040,-102,-56,-1,-1,0
33066,-3997696,-102,-56,-1,-1,0
33100,-1769472,-102,-56,-1,-1,0
33133,5636096,-102,-56,-1,-1,0
33166,9961472,-102,-56,-1,-1,0
33200,18939904,-102,-56,-1,-1,0
33233,12320768,-102,-56,-1,-1,0
33266,16842752,-102,-56,-1,-1,0
33300,16842752,-102,-56,-1,-1,0
33333,15663104,-102,-56,-1,-1,0
33366,9633792,-102,-56,-1,-1,0
33400,3014656,-102,-56,-1,-1,0
33433,1900544,-102,-56,-1,-1,0
33466,65536,-102,-56,-1,-1,0
33500,-1703936,-102,-56,-1,-1,0
33533,2031616,-100,-56,-1,-1,0
33566,-4521984,-100,-56,-1,-1,0
33600,-3735552,-100,-56,-1,-1,0
33633,-2818048,-100,-56,-1,-1,0
33666,-1376256,-100,-56,-1,-1,0
33700,-3670016,-100,-56,-1,-1,0
33733,-5177344,-100,-56,-1,-1,0
33766,-4784128,-100,-56,-1,-1,0
33800,-5570560,-100,-56,-1,-1,0
33833,-3932160,-100,-56,-1,-1,0
33866,-11272192,-100,-56,-1,-1,0
33900,-6684672,-100,-56,-1,-1,0
33933,-5111808,-100,-56,-1,-1,0
33966,-1703936,-100,-56,-1,-1,0
34000,65536,-100,-56,-1,-1,0
34033,262144,-100,-56,-1,-1,0
34066,262144,-100,-56,-1,-1,0
34100,-1376256,-100,-56,-1,-1,0
34133,-2359296,-100,-56,-1,-1,0
34166,2097152,-100,-56,-1,-1,0
34200,-1179648,-100,-56,-1,-1,0
34233,327680,-100,-56,-1,-1,0
34266,2621440,-100,-56,-1,-1,0
34300,5242880,-100,-56,-1,-1,0
34333,1376256,-100,-56,-1,-1,0
34366,196608,-100,-56,-1,-1,0
34400,-327680,-100,-56,-1,-1,0
34433,-1114112,-100,-56,-1,-1,0
34466,2555904,-100,-56,-1,-1,0
34500,-4849664,-100,-56,-1,-1,0
34533,-131072,-100,-56,-1,-1,0
34566,1572864,-100,-56,-1,-1,0
34600,4784128,-100,-56,-1,-1,0
34633,4980736,-100,-56,-1,-1,0
34666,3604480,-100,-56,-1,-1,0
34700,3276800,-100,-56,-1,-1,0
34733,3211264,-100,-56,-1,-1,0
34766,2752512,-100,-56,-1,-1,0
34800,6881280,-100,-56,-1,-1,0
34833,1245184,-100,-56,-1,-1,0
34866,1048576,-100,-56,-1,-1,0
34900,720896,-100,-56,-1,-1,0
34933,3670016,-100,-56,-1,-1,0
34966,-1179648,-100,-56,-1,-1,0
35000,-2686976,-100,-56,-1,-1,0
35033,-3211264,-100,-56,-1,-1,0
35066,-5046272,-100,-56,-1,-1,0
35100,1441792,-99,-56,-1,-1,0
35133,-9240576,-99,-56,-1,-1,0
35166,-7798784,-99,-56,-1,-1,0
35200,-7536640,-99,-56,-1,-1,0
35233,-4456448,-99,-56,-1,-1,0
35266,-5963776,-99,-56,-1,-1,0
35300,-8257536,-99,-56,-1,-1,0
35333,-7929856,-99,-56,-1,-1,0
35366,-8060928,-99,-56,-1,-1,0
35400,-9109504,-99,-56,-1,-1,0
35433,-9633792,-99,-56,-1,-1,0
35466,-10485760,-99,-56,-1,-1,0
35500,-9961472,-99,-56,-1,-1,0
35533,-9043968,-99,-56,-1,-1,0
35566,-7602176,-99,-56,-1,-1,0
35600,-9699328,-99,-56,-1,-1,0
35633,-10747904,-99,-56,-1,-1,0
35666,-11075584,-99,-56,-1,-1,0
35700,-4718592,-99,-56,-1,-1,0
35733,17432576,-99,-56,-1,-1,0
35766,15269888,-99,-56,-1,-1,0
35800,20971520,-99,-56,-1,-1,0
35833,24772608,-99,-56,-1,-1,0
35866,30212096,-99,-56,-1,-1,0
35900,28835840,-99,-56,-1,-1,0
35933,26214400,-99,-56,-1,-1,0
35966,24313856,-99,-56,-1,-1,0
36000,18874368,-99,-56,-1,-1,0
36033,12320768,-99,-56,-1,-1,0
36066,65536,-99,-56,-1,-1,0
36100,-1179648,-99,-56,-1,-1,0
36133,-2883584,-99,-56,-1,-1,0
36166,-786432,-99,-56,-1,-1,0
36200,-1114112,-99,-56,-1,-1,0
36233,-4980736,-99,-56,-1,-1,0
36266,-6029312,-99,-56,-1,-1,0
36300,-8060928,-99,-56,-1,-1,0
36333,-8454144,-99,-56,-1,-1,0
36366,-524288,-99,-56,-1,-1,0
36400,-9502720,-99,-56,-1,-1,0
36433,-7667712,-99,-56,-1,-1,0
36466,-5832704,-99,-56,-1,-1,0
36500,-4325376,-99,-56,-1,-1,0
36533,-5767168,-99,-56,-1,-1,0
36566,-3735552,-99,-56,-1,-1,0
36600,-1245184,-99,-56,-1,-1,0
36633,-3473408,-99,-56,-1,-1,0
36666,2752512,-99,-56,-1,-1,0
36700,-5505024,-99,-56,-1,-1,0
36733,-2097152,-99,-56,-1,-1,0
36766,-1048576,-99,-56,-1,-1,0
36800,1638400,-99,-56,-1,-1,0
36833,2031616,-99,-56,-1,-1,0
36866,196608,-99,-56,-1,-1,0
36900,-262144,-99,-56,-1,-1,0
36933,-1769472,-99,-56,-1,-1,0
36966,-3080192,-99,-56,-1,-1,0
37000,-1703936,-99,-56,-1,-1,0
37033,-3211264,-99,-56,-1,-1,0
37066,-2228224,-99,-56,-1,-1,0
37100,458752,-99,-56,-1,-1,0
37133,2883584,-99,-56,-1,-1,0
37166,851968,-99,-56,-1,-1,0
37200,-1507328,-99,-56,-1,-1,0
37233,-2949120,-99,-56,-1,-1,0
37266,-3801088,-99,-56,-1,-1,0
37300,2949120,-99,-56,-1,-1,0
37333,-4390912,-99,-56,-1,-1,0
37366,524288,-99,-56,-1,-1,0
37400,4128768,-99,-56,-1,-1,0
37433,9043968,-99,-56,-1,-1,0
37466,7798784,-99,-56,-1,-1,0
37500,4849664,-99,-56,-1,-1,0
37533,3080192,-99,-56,-1,-1,0
37566,-524288,-99,-56,-1,-1,0
37600,327680,-99,-56,-1,-1,0
37633,-3866624,-99,-56,-1,-1,0
37666,-2359296,-99,-56,-1,-1,0
37700,-1966080,-99,-56,-1,-1,0
37733,-262144,-99,-56,-1,-1,0
37766,-589824,-99,-56,-1,-1,0
37800,-2424832,-99,-56,-1,-1,0
37833,-1966080,-99,-56,-1,-1,0
37866,-2949120,-99,-56,-1,-1,0
37900,-4456448,-99,-56,-1,-1,0
37933,1179648,-99,-56,-1,-1,0
37966,-5308416,-99,-56,-1,-1,0
38000,-3080192,-99,-56,-1,-1,0
38033,0,-99,-56,-1,-1,0
38066,2949120,-99,-56,-1,-1,0
38100,1114112,-99,-56,-1,-1,0
38133,-393216,-99,-56,-1,-1,0
38166,-655360,-99,-56,-1,-1,0
38200,-1507328,-99,-56,-1,-1,0
38233,4653056,-99,-56,-1,-1,0
38266,-5177344,-97,-56,-1,-1,0
38300,-2686976,-97,-56,-1,-1,0
38333,-2162688,-97,-56,-1,-1,0
38366,-65536,-97,-56,-1,-1,0
38400,1835008,-97,-56,-1,-1,0
38433,2621440,-97,-56,-1,-1,0
38466,4784128,-97,-56,-1,-1,0
38500,3997696,-97,-56,-1,-1,0
38533,2228224,-97,-56,-1,-1,0
38566,-720896,-97,-56,-1,-1,0
38600,0,-97,-56,-1,-1,0
38633,1245184,-97,-56,-1,-1,0
38666,3211264,-97,-56,-1,-1,0
38700,4980736,-97,-56,-1,-1,0
38733,3276800,-97,-56,-1,-1,0
38766,3014656,-97,-56,-1,-1,0
38800,3080192,-97,-56,-1,-1,0
38833,2162688,-97,-56,-1,-1,0
38866,9699328,-97,-56,-1,-1,0
38900,-327680,-97,-56,-1,-1,0
38933,-1048576,-97,-56,-1,-1,0
38966,-1048576,-97,-56,-1,-1,0
39000,2031616,-97,-56,-1,-1,0
39033,0,-97,-56,-1,-1,0
39066,-1245184,-97,-56,-1,-1,0
39100,-1507328,-97,-56,-1,-1,0
39133,-4587520,-97,-56,-1,-1,0
39166,-2424832,-97,-56,-1,-1,0
39200,-10813440,-97,-56,-1,-1,0
39233,-7798784,-97,-56,-1,-1,0
39266,-6356992,-97,-56,-1,-1,0
39300,-3080192,-97,-56,-1,-1,0
39333,-3276800,-97,-56,-1,-1,0
39366,-5636096,-97,-56,-1,-1,0
39400,-4587520,-97,-56,-1,-1,0
39433,-4849664,-97,-56,-1,-1,0
39466,-6488064,-97,-56,-1,-1,0
39500,-5636096,-97,-56,-1,-1,0
39533,-7602176,-97,-56,-1,-1,0
39566,-6619136,-97,-56,-1,-1,0
39600,-4587520,-97,-56,-1,-1,0
39633,-1507328,-97,-56,-1,-1,0
39666,-4521984,-97,-56,-1,-1,0
39700,-7798784,-97,-56,-1,-1,0
39733,-10420224,-97,-56,-1,-1,0
39766,-5963776,-97,-56,-1,-1,0
39800,17498112,-97,-56,-1,-1,0
39833,16056320,-97,-56,-1,-1,0
39866,19791872,-97,-56,-1,-1,0
39900,22413312,-97,-56,-1,-1,0
39933,24772608,-97,-56,-1,-1,0
39966,20512768,-97,-56,-1,-1,0
40000,18481152,-97,-56,-1,-1,0
40033,15204352,-97,-56,-1,-1,0
40066,7012352,-97,-56,-1,-1,0
40100,4521984,-97,-56,-1,-1,0
40133,-7536640,-97,-56,-1,-1,0
40166,-4784128,-97,-56,-1,-1,0
40200,-3932160,-97,-56,-1,-1,0
40233,-851968,-97,-56,-1,-1,0
40266,-3342336,-97,-56,-1,-1,0
40300,-5505024,-97,-56,-1,-1,0
40333,-5963776,-97,-56,-1,-1,0
40366,-7274496,-97,-56,-1,-1,0
40400,-8060928,-97,-56,-1,-1,0
40433,-8323072,-97,-56,-1,-1,0
40466,-6750208,-97,-56,-1,-1,0
40500,-5111808,-97,-56,-1,-1,0
40533,-4128768,-97,-56,-1,-1,0
40566,-2490368,-97,-56,-1,-1,0
40600,-3801088,-97,-56,-1,-1,0
40633,-4063232,-97,-56,-1,-1,0
40666,-5177344,-97,-56,-1,-1,0
40700,-5373952,-97,-56,-1,-1,0
40733,2555904,-97,-56,-1,-1,0
40766,-3866624,-97,-56,-1,-1,0
40800,-1966080,-97,-56,-1,-1,0
40833,327680,-97,-56,-1,-1,0
40866,4128768,-97,-56,-1,-1,0
40900,2490368,-97,-56,-1,-1,0
40933,1835008,-97,-56,-1,-1,0
40966,262144,-97,-56,-1,-1,0
41000,-1507328,-97,-56,-1,-1,0
41033,4718592,-97,-56,-1,-1,0
41066,-5439488,-95,-56,-1,-1,0
41100,-917504,-95,-56,-1,-1,0
41133,2883584,-95,-56,-1,-1,0
41166,6160384,-95,-56,-1,-1,0
41200,4784128,-95,-56,-1,-1,0
41233,2621440,-95,-56,-1,-1,0
41266,2228224,-95,-56,-1,-1,0
41300,1835008,-95,-56,-1,-1,0
41333,2293760,-95,-56,-1,-1,0
41366,-1245184,-95,-56,-1,-1,0
41400,2031616,-95,-56,-1,-1,0
41433,3866624,-95,-56,-1,-1,0
41466,6160384,-95,-56,-1,-1,0
41500,8323072,-95,-56,-1,-1,0
41533,4718592,-95,-56,-1,-1,0
41566,3014656,-95,-56,-1,-1,0
41600,0,-95,-56,-1,-1,0
41633,-1572864,-95,-56,-1,-1,0
41666,-262144,-95,-56,-1,-1,0
41700,-3997696,-95,-56,-1,-1,0
41733,-2621440,-95,-56,-1,-1,0
41766,-1245184,-95,-56,-1,-1,0
41800,655360,-95,-56,-1,-1,0
41833,-3342336,-95,-56,-1,-1,0
41866,-4325376,-95,-56,-1,-1,0
41900,-6488064,-95,-56,-1,-1,0
41933,-6946816,-95,-56,-1,-1,0
41966,-131072,-95,-56,-1,-1,0
42000,-8912896,-95,-56,-1,-1,0
42033,-5636096,-95,-56,-1,-1,0
42066,-2621440,-95,-56,-1,-1,0
42100,524288,-95,-56,-1,-1,0
42133,-1441792,-95,-56,-1,-1,0
42166,-3604480,-95,-56,-1,-1,0
42200,-3604480,-95,-56,-1,-1,0
42233,-4653056,-95,-56,-1,-1,0
42266,-1572864,-95,-56,-1,-1,0
42300,-7077888,-95,-56,-1,-1,0
42333,-2359296,-95,-56,-1,-1,0
42366,-720896,-95,-56,-1,-1,0
42400,0,-95,-56,-1,-1,0
42433,-4587520,-95,-56,-1,-1,0
42466,-6553600,-95,-56,-1,-1,0
42500,1835008,-95,-56,-1,-1,0
42533,10878976,-95,-56,-1,-1,0
42566,16187392,-95,-56,-1,-1,0
42600,15269888,-95,-56,-1,-1,0
42633,17104896,-95,-56,-1,-1,0
42666,16777216,-95,-56,-1,-1,0
42700,15532032,-95,-56,-1,-1,0
42733,9633792,-95,-56,-1,-1,0
42766,65536,-95,-56,-1,-1,0
42800,-3211264,-95,-56,-1,-1,0
42833,-4915200,-95,-56,-1,-1,0
42866,-4980736,-95,-56,-1,-1,0
42900,-1048576,-95,-56,-1,-1,0
42933,-3276800,-95,-56,-1,-1,0
42966,-4718592,-95,-56,-1,-1,0
43000,-3276800,-95,-56,-1,-1,0
43033,589824,-95,-56,-1,-1,0
43066,-3014656,-95,-56,-1,-1,0
43100,-4063232,-95,-56,-1,-1,0
43133,-4390912,-95,-56,-1,-1,0
43166,-5308416,-95,-56,-1,-1,0
43200,2883584,-95,-56,-1,-1,0
43233,-7143424,-95,-56,-1,-1,0
43266,-5767168,-95,-56,-1,-1,0
43300,-4653056,-95,-56,-1,-1,0
43333,-1179648,-95,-56,-1,-1,0
43366,-3342336,-95,-56,-1,-1,0
43400,-3801088,-95,-56,-1,-1,0
43433,-3342336,-95,-56,-1,-1,0
43466,-2621440,-95,-56,-1,-1,0
43500,3866624,-95,-56,-1,-1,0
43533,-3407872,-95,-56,-1,-1,0
43566,1179648,-95,-56,-1,-1,0
43600,3211264,-95,-56,-1,-1,0
43633,6160384,-95,-56,-1,-1,0
43666,4653056,-95,-56,-1,-1,0
43700,2686976,-95,-56,-1,-1,0
43733,2359296,-95,-56,-1,-1,0
43766,1572864,-95,-56,-1,-1,0
43800,3145728,-95,-56,-1,-1,0
43833,655360,-95,-56,-1,-1,0
43866,2228224,-95,-56,-1,-1,0
43900,720896,-95,-56,-1,-1,0
43933,1441792,-95,-56,-1,-1,0
43966,2359296,-95,-56,-1,-1,0
44000,851968,-95,-56,-1,-1,0
44033,2031616,-95,-56,-1,-1,0
44066,393216,-95,-56,-1,-1,0
44100,-1507328,-95,-56,-1,-1,0
44133,458752,-95,-56,-1,-1,0
44166,-4259840,-95,-56,-1,-1,0
44200,-3735552,-95,-56,-1,-1,0
44233,-1507328,-95,-56,-1,-1,0
44266,2621440,-95,-56,-1,-1,0
44300,262144,-95,-56,-1,-1,0
44333,458752,-95,-56,-1,-1,0
44366,262144,-95,-56,-1,-1,0
44400,-1245184,-95,-56,-1,-1,0
44433,4259840,-95,-56,-1,-1,0
44466,-4128768,-95,-56,-1,-1,0
44500,-3014656,-95,-56,-1,-1,0
44533,-1376256,-95,-56,-1,-1,0
44566,1703936,-95,-56,-1,-1,0
44600,-458752,-95,-56,-1,-1,0
44633,-2490368,-95,-56,-1,-1,0
44666,-3342336,-95,-56,-1,-1,0
44700,-3801088,-95,-56,-1,-1,0
44733,1638400,-93,-56,-1,-1,0
44766,-7274496,-93,-56,-1,-1,0
44800,-4128768,-93,-56,-1,-1,0
44833,-2949120,-93,-56,-1,-1,0
44866,917504,-93,-56,-1,-1,0
44900,786432,-93,-56,-1,-1,0
44933,-851968,-93,-56,-1,-1,0
44966,-1245184,-93,-56,-1,-1,0
45000,-2424832,-93,-56,-1,-1,0
45033,589824,-93,-56,-1,-1,0
45066,-5832704,-93,-56,-1,-1,0
45100,-1900544,-93,-56,-1,-1,0
45133,524288,-93,-56,-1,-1,0
45166,4784128,-93,-56,-1,-1,0
45200,6094848,-93,-56,-1,-1,0
45233,3538944,-93,-56,-1,-1,0
45266,3014656,-93,-56,-1,-1,0
45300,524288,-93,-56,-1,-1,0
45333,-1507328,-93,-56,-1,-1,0
45366,-3866624,-93,-56,-1,-1,0
45400,-2162688,-93,-56,-1,-1,0
45433,327680,-93,-56,-1,-1,0
45466,3997696,-93,-56,-1,-1,0
45500,5308416,-93,-56,-1,-1,0
45533,2949120,-93,-56,-1,-1,0
45566,2752512,-93,-56,-1,-1,0
45600,2097152,-93,-56,-1,-1,0
45633,2228224,-93,-56,-1,-1,0
45666,8126464,-93,-56,-1,-1,0
45700,1900544,-93,-56,-1,-1,0
45733,2621440,-93,-56,-1,-1,0
45766,3932160,-93,-56,-1,-1,0
45800,6684672,-93,-56,-1,-1,0
45833,786432,-93,-56,-1,-1,0
45866,-983040,-93,-56,-1,-1,0
45900,-4128768,-93,-56,-1,-1,0
45933,-4325376,-93,-56,-1,-1,0
45966,6291456,-93,-56,-1,-1,0
46000,-5439488,-93,-56,-1,-1,0
46033,-4456448,-93,-56,-1,-1,0
46066,-3670016,-93,-56,-1,-1,0
46100,-1376256,-93,-56,-1,-1,0
46133,-4390912,-93,-56,-1,-1,0
46166,-3604480,-93,-56,-1,-1,0
46200,-3932160,-93,-56,-1,-1,0
46233,-5046272,-93,-56,-1,-1,0
46266,393216,-93,-56,-1,-1,0
46300,-6094848,-93,-56,-1,-1,0
46333,-2359296,-93,-56,-1,-1,0
46366,-1572864,-93,-56,-1,-1,0
46400,393216,-93,-56,-1,-1,0
46433,-655360,-93,-56,-1,-1,0
46466,-2555904,-93,-56,-1,-1,0
46500,-3145728,-93,-56,-1,-1,0
46533,-4915200,-93,-56,-1,-1,0
46566,-3342336,-93,-56,-1,-1,0
46600,-6750208,-93,-56,-1,-1,0
46633,-5308416,-93,-56,-1,-1,0
46666,-8126464,-93,-56,-1,-1,0
46700,-8781824,-93,-56,-1,-1,0
46733,589824,-93,-56,-1,-1,0
46766,11468800,-93,-56,-1,-1,0
46800,14876672,-93,-56,-1,-1,0
46833,13893632,-93,-56,-1,-1,0
46866,14221312,-93,-56,-1,-1,0
46900,11927552,-93,-56,-1,-1,0
46933,11141120,-93,-56,-1,-1,0
46966,9633792,-93,-56,-1,-1,0
47000,5832704,-93,-56,-1,-1,0
47033,1966080,-93,-56,-1,-1,0
47066,-1572864,-93,-56,-1,-1,0
47100,-1179648,-93,-56,-1,-1,0
47133,-1703936,-93,-56,-1,-1,0
47166,-2490368,-93,-56,-1,-1,0
47200,196608,-93,-56,-1,-1,0
47233,-3735552,-93,-56,-1,-1,0
47266,-3866624,-93,-56,-1,-1,0
47300,-2162688,-93,-56,-1,-1,0
47333,524288,-93,-56,-1,-1,0
47366,-3211264,-93,-56,-1,-1,0
47400,-3538944,-93,-56,-1,-1,0
47433,-5373952,-93,-56,-1,-1,0
47466,-5177344,-93,-56,-1,-1,0
47500,2097152,-93,-56,-1,-1,0
47533,-6356992,-93,-56,-1,-1,0
47566,-4587520,-93,-56,-1,-1,0
47600,-3276800,-93,-56,-1,-1,0
47633,-327680,-93,-56,-1,-1,0
47666,-3407872,-93,-56,-1,-1,0
47700,-4325376,-93,-56,-1,-1,0
47733,-3735552,-93,-56,-1,-1,0
47766,-3801088,-93,-56,-1,-1,0
47800,5701632,-93,-56,-1,-1,0
47833,-3538944,-93,-56,-1,-1,0
47866,65536,-93,-56,-1,-1,0
47900,3473408,-93,-56,-1,-1,0
47933,7340032,-93,-56,-1,-1,0
47966,5505024,-93,-56,-1,-1,0
48000,3080192,-93,-56,-1,-1,0
48033,1835008,-93,-56,-1,-1,0
48066,0,-93,-56,-1,-1,0
48100,2752512,-93,-56,-1,-1,0
48133,-4587520,-93,-56,-1,-1,0
48166,-1638400,-93,-56,-1,-1,0
48200,0,-93,-56,-1,-1,0
48233,2555904,-93,-56,-1,-1,0
48266,2228224,-93,-56,-1,-1,0
48300,1310720,-93,-56,-1,-1,0
48333,1507328,-93,-56,-1,-1,0
48366,458752,-93,-56,-1,-1,0
48400,1638400,-93,-56,-1,-1,0
48433,-1703936,-93,-56,-1,-1,0
48466,720896,-93,-56,-1,-1,0
48500,2293760,-93,-56,-1,-1,0
48533,5636096,-93,-56,-1,-1,0
48566,6946816,-93,-56,-1,-1,0
48600,4521984,-93,-56,-1,-1,0
48633,3735552,-93,-56,-1,-1,0
48666,2162688,-93,-56,-1,-1,0
48700,720896,-93,-56,-1,-1,0
48733,-3211264,-93,-56,-1,-1,0
48766,-3014656,-93,-56,-1,-1,0
48800,-2490368,-93,-56,-1,-1,0
48833,131072,-93,-56,-1,-1,0
48866,0,-93,-56,-1,-1,0
48900,-3538944,-93,-56,-1,-1,0
48933,-3473408,-93,-56,-1,-1,0
48966,-5636096,-93,-56,-1,-1,0
49000,-5898240,-93,-56,-1,-1,0
49033,-3145728,-93,-56,-1,-1,0
49066,-3735552,-93,-56,-1,-1,0
49100,-1769472,-93,-56,-1,-1,0
49133,0,-93,-56,-1,-1,0
49166,1703936,-93,-56,-1,-1,0
49200,131072,-93,-56,-1,-1,0
49233,0,-93,-56,-1,-1,0
49266,-851968,-93,-56,-1,-1,0
49300,-1703936,-93,-56,-1,-1,0
49333,2621440,-93,-56,-1,-1,0
49366,-3342336,-93,-56,-1,-1,0
49400,-1703936,-93,-56,-1,-1,0
49433,65536,-93,-56,-1,-1,0
49466,2949120,-93,-56,-1,-1,0
49500,1376256,-93,-56,-1,-1,0
49533,655360,-93,-56,-1,-1,0
49566,-131072,-93,-56,-1,-1,0
49600,-1572864,-93,-56,-1,-1,0
49633,4849664,-93,-56,-1,-1,0
49666,-3735552,-93,-56,-1,-1,0
49700,-655360,-93,-56,-1,-1,0
49733,2031616,-93,-56,-1,-1,0
49766,4194304,-93,-56,-1,-1,0
49800,1572864,-93,-56,-1,-1,0
49833,327680,-93,-56,-1,-1,0
49866,458752,-93,-56,-1,-1,0
49900,0,-93,-56,-1,-1,0
49933,4325376,-93,-56,-1,-1,0
49966,-2162688,-93,-56,-1,-1,0
50000,1572864,-93,-56,-1,-1,0
