milliseconds, ECG, ECG HR, PPG, PPG HR, SpO2, PI
1523619888496,3473408,-123,-56,-1,-1,0
1523619888496,2818048,-123,-56,-1,-1,0
1523619888496,2162688,-123,-56,-1,-1,0
1523619888496,1572864,-123,-56,-1,-1,0
1523619888496,1114112,-123,-56,-1,-1,0
1523619888530,851968,-123,-56,-1,-1,0
1523619888530,589824,-123,-56,-1,-1,0
1523619888530,393216,-123,-56,-1,-1,0
1523619888530,262144,-123,-56,-1,-1,0
1523619888530,196608,-123,-56,-1,-1,0
1523619888576,65536,-123,-56,-1,-1,0
1523619888576,0,-123,-56,-1,-1,0
1523619888576,0,-123,-56,-1,-1,0
1523619888576,-65536,-123,-56,-1,-1,0
1523619888576,-131072,-123,-56,-1,-1,0
1523619888610,-196608,-123,-56,-1,-1,0
1523619888610,-262144,-123,-56,-1,-1,0
1523619888610,-131072,-123,-56,-1,-1,0
1523619888610,131072,-123,-56,-1,-1,0
1523619888610,327680,-123,-56,-1,-1,0
1523619888659,393216,-123,-56,-1,-1,0
1523619888659,262144,-123,-56,-1,-1,0
1523619888659,0,-123,-56,-1,-1,0
1523619888659,-131072,-123,-56,-1,-1,0
1523619888659,-327680,-123,-56,-1,-1,0
1523619888690,-458752,-123,-56,-1,-1,0
1523619888690,-589824,-123,-56,-1,-1,0
1523619888690,-655360,-123,-56,-1,-1,0
1523619888690,-655360,-123,-56,-1,-1,0
1523619888690,-851968,-123,-56,-1,-1,0
1523619888735,-1179648,-123,-56,-1,-1,0
1523619888735,-720896,-123,-56,-1,-1,0
1523619888735,1310720,-123,-56,-1,-1,0
1523619888735,3604480,-123,-56,-1,-1,0
1523619888735,3407872,-123,-56,-1,-1,0
1523619888773,196608,-123,-56,-1,-1,0
1523619888773,-3473408,-123,-56,-1,-1,0
1523619888773,-4784128,-123,-56,-1,-1,0
1523619888773,-3670016,-123,-56,-1,-1,0
1523619888773,-2293760,-123,-56,-1,-1,0
1523619888810,-1572864,-123,-56,-1,-1,0
1523619888810,-1376256,-123,-56,-1,-1,0
1523619888810,-1245184,-123,-56,-1,-1,0
1523619888810,-1048576,-123,-56,-1,-1,0
1523619888810,-720896,-123,-56,-1,-1,0
1523619888850,-458752,-123,-56,-1,-1,0
1523619888850,-196608,-123,-56,-1,-1,0
1523619888850,65536,-123,-56,-1,-1,0
1523619888850,589824,-123,-56,-1,-1,0
1523619888850,1114112,-123,-56,-1,-1,0
1523619888891,1769472,-123,-56,-1,-1,0
1523619888891,2490368,-123,-56,-1,-1,0
1523619888891,3276800,-123,-56,-1,-1,0
1523619888891,3932160,-123,-56,-1,-1,0
1523619888891,4259840,-123,-56,-1,-1,0
1523619888931,4194304,-123,-56,-1,-1,0
1523619888931,3866624,-123,-56,-1,-1,0
1523619888931,3211264,-123,-56,-1,-1,0
1523619888931,2293760,-123,-56,-1,-1,0
1523619888931,1376256,-123,-56,-1,-1,0
1523619888970,720896,-123,-56,-1,-1,0
1523619888970,196608,-123,-56,-1,-1,0
1523619888970,-196608,-123,-56,-1,-1,0
1523619888970,-589824,-123,-56,-1,-1,0
1523619888970,-917504,-123,-56,-1,-1,0
1523619889010,-1179648,-123,-56,-1,-1,0
1523619889010,-1441792,-123,-56,-1,-1,0
1523619889010,-1638400,-123,-56,-1,-1,0
1523619889010,-1835008,-123,-56,-1,-1,0
1523619889010,-2097152,-123,-56,-1,-1,0
1523619889050,-2359296,-123,-56,-1,-1,0
1523619889050,-2621440,-123,-56,-1,-1,0
1523619889050,-2818048,-123,-56,-1,-1,0
1523619889050,-3014656,-123,-56,-1,-1,0
1523619889050,-3080192,-123,-56,-1,-1,0
1523619889091,-2949120,-123,-56,-1,-1,0
1523619889091,-2883584,-123,-56,-1,-1,0
1523619889091,-2883584,-123,-56,-1,-1,0
1523619889091,-3080192,-123,-56,-1,-1,0
1523619889091,-3276800,-123,-56,-1,-1,0
1523619889130,-3604480,-123,-56,-1,-1,0
1523619889130,-3866624,-123,-56,-1,-1,0
1523619889130,-4194304,-123,-56,-1,-1,0
1523619889130,-4390912,-123,-56,-1,-1,0
1523619889130,-4653056,-123,-56,-1,-1,0
1523619889171,-4784128,-123,-56,-1,-1,0
1523619889171,-4849664,-123,-56,-1,-1,0
1523619889171,-4980736,-123,-56,-1,-1,0
1523619889171,-4259840,-123,-56,-1,-1,0
1523619889171,-1835008,-123,-56,-1,-1,0
1523619889210,1245184,-123,-56,-1,-1,0
1523619889210,2228224,-123,-56,-1,-1,0
1523619889210,-524288,-123,-56,-1,-1,0
1523619889210,-5046272,-123,-56,-1,-1,0
1523619889210,-7274496,-123,-56,-1,-1,0
1523619889250,-6225920,-123,-56,-1,-1,0
1523619889250,-4653056,-123,-56,-1,-1,0
1523619889250,-3801088,-123,-56,-1,-1,0
1523619889250,-3342336,-123,-56,-1,-1,0
1523619889250,-2949120,-123,-56,-1,-1,0
1523619889293,-2555904,-123,-56,-1,-1,0
1523619889293,-2228224,-123,-56,-1,-1,0
1523619889293,-1769472,-123,-56,-1,-1,0
1523619889293,-1310720,-123,-56,-1,-1,0
1523619889293,-786432,-123,-56,-1,-1,0
1523619889330,-262144,-123,-56,-1,-1,0
1523619889330,327680,-123,-56,-1,-1,0
1523619889330,1245184,-123,-56,-1,-1,0
1523619889330,2228224,-123,-56,-1,-1,0
1523619889330,3145728,-123,-56,-1,-1,0
1523619889370,3866624,-123,-56,-1,-1,0
1523619889370,4325376,-123,-56,-1,-1,0
1523619889370,4390912,-123,-56,-1,-1,0
1523619889370,4194304,-123,-56,-1,-1,0
1523619889370,3670016,-123,-56,-1,-1,0
1523619889413,2949120,-123,-56,-1,-1,0
1523619889413,2228224,-123,-56,-1,-1,0
1523619889413,1507328,-123,-56,-1,-1,0
1523619889413,983040,-123,-56,-1,-1,0
1523619889413,655360,-123,-56,-1,-1,0
1523619889450,524288,-123,-56,-1,-1,0
1523619889450,393216,-123,-56,-1,-1,0
1523619889450,327680,-123,-56,-1,-1,0
1523619889450,262144,-123,-56,-1,-1,0
1523619889450,65536,-123,-56,-1,-1,0
1523619889490,0,-123,-56,-1,-1,0
1523619889490,-131072,-123,-56,-1,-1,0
1523619889490,-262144,-123,-56,-1,-1,0
1523619889490,-393216,-123,-56,-1,-1,0
1523619889490,-458752,-123,-56,-1,-1,0
1523619889531,-524288,-123,-56,-1,-1,0
1523619889531,-655360,-123,-56,-1,-1,0
1523619889531,-589824,-123,-56,-1,-1,0
1523619889531,-327680,-123,-56,-1,-1,0
1523619889531,-65536,-123,-56,-1,-1,0
1523619889570,0,-123,-56,-1,-1,0
1523619889570,-65536,-123,-56,-1,-1,0
1523619889570,-196608,-123,-56,-1,-1,0
1523619889570,-393216,-123,-56,-1,-1,0
1523619889570,-655360,-123,-56,-1,-1,0
1523619889621,-851968,-123,-56,-1,-1,0
1523619889621,-983040,-123,-56,-1,-1,0
1523619889621,-1048576,-123,-56,-1,-1,0
1523619889621,-1114112,-123,-56,-1,-1,0
1523619889621,-1310720,-123,-56,-1,-1,0
1523619889650,-1572864,-123,-56,-1,-1,0
1523619889650,-983040,-123,-56,-1,-1,0
1523619889650,1310720,-123,-56,-1,-1,0
1523619889650,3932160,-123,-56,-1,-1,0
1523619889650,3932160,-123,-56,-1,-1,0
1523619889691,131072,-123,-56,-1,-1,0
1523619889691,-4194304,-123,-56,-1,-1,0
1523619889691,-5898240,-123,-56,-1,-1,0
1523619889691,-4653056,-123,-56,-1,-1,0
1523619889691,-3080192,-123,-56,-1,-1,0
1523619889733,-2162688,-123,-56,-1,-1,0
1523619889733,-1835008,-123,-56,-1,-1,0
1523619889733,-1638400,-123,-56,-1,-1,0
1523619889733,-1441792,-123,-56,-1,-1,0
1523619889733,-1114112,-123,-56,-1,-1,0
1523619889771,-786432,-123,-56,-1,-1,0
1523619889771,-393216,-123,-56,-1,-1,0
1523619889771,0,-123,-56,-1,-1,0
1523619889771,524288,-123,-56,-1,-1,0
1523619889771,1114112,-123,-56,-1,-1,0
1523619889810,1966080,-123,-56,-1,-1,0
1523619889810,2883584,-123,-56,-1,-1,0
1523619889810,3866624,-123,-56,-1,-1,0
1523619889810,4587520,-123,-56,-1,-1,0
1523619889810,5046272,-123,-56,-1,-1,0
1523619889851,5111808,-123,-56,-1,-1,0
1523619889851,5046272,-123,-56,-1,-1,0
1523619889851,4718592,-123,-56,-1,-1,0
1523619889851,4128768,-123,-56,-1,-1,0
1523619889851,3342336,-123,-56,-1,-1,0
1523619889890,2686976,-123,-56,-1,-1,0
1523619889890,2162688,-123,-56,-1,-1,0
1523619889890,1835008,-123,-56,-1,-1,0
1523619889890,1572864,-123,-56,-1,-1,0
1523619889890,1376256,-123,-56,-1,-1,0
1523619889930,1179648,-123,-56,-1,-1,0
1523619889930,983040,-123,-56,-1,-1,0
1523619889930,851968,-123,-56,-1,-1,0
1523619889930,589824,-123,-56,-1,-1,0
1523619889930,393216,-123,-56,-1,-1,0
1523619889971,131072,-123,-56,-1,-1,0
1523619889971,0,-123,-56,-1,-1,0
1523619889971,-65536,-123,-56,-1,-1,0
1523619889971,-131072,-123,-56,-1,-1,0
1523619889971,-131072,-123,-56,-1,-1,0
1523619890011,0,-123,-56,-1,-1,0
1523619890011,196608,-123,-56,-1,-1,0
1523619890011,458752,-123,-56,-1,-1,0
1523619890011,524288,-123,-56,-1,-1,0
1523619890011,393216,-123,-56,-1,-1,0
1523619890050,196608,-123,-56,-1,-1,0
1523619890050,0,-123,-56,-1,-1,0
1523619890050,-65536,-123,-56,-1,-1,0
1523619890050,-131072,-123,-56,-1,-1,0
1523619890050,-196608,-123,-56,-1,-1,0
1523619890093,-262144,-123,-56,-1,-1,0
1523619890093,-262144,-123,-56,-1,-1,0
1523619890093,-393216,-123,-56,-1,-1,0
1523619890093,-786432,-123,-56,-1,-1,0
1523619890093,-851968,-123,-56,-1,-1,0
1523619890130,458752,-123,-56,-1,-1,0
1523619890130,2752512,-123,-56,-1,-1,0
1523619890130,3145728,-123,-56,-1,-1,0
1523619890130,524288,-123,-56,-1,-1,0
1523619890130,-3080192,-123,-56,-1,-1,0
1523619890174,-4653056,-123,-56,-1,-1,0
1523619890174,-3801088,-123,-56,-1,-1,0
1523619890174,-2097152,-123,-56,-1,-1,0
1523619890174,-983040,-123,-56,-1,-1,0
1523619890174,-524288,-123,-56,-1,-1,0
1523619890211,-262144,-123,-56,-1,-1,0
1523619890211,-131072,-123,-56,-1,-1,0
1523619890211,65536,-123,-56,-1,-1,0
1523619890211,327680,-123,-56,-1,-1,0
1523619890211,589824,-123,-56,-1,-1,0
1523619890254,917504,-123,-56,-1,-1,0
1523619890254,1310720,-123,-56,-1,-1,0
1523619890254,1835008,-123,-56,-1,-1,0
1523619890254,2555904,-123,-56,-1,-1,0
1523619890254,3276800,-123,-56,-1,-1,0
1523619890291,3997696,-123,-56,-1,-1,0
1523619890291,4718592,-123,-56,-1,-1,0
1523619890291,5177344,-123,-56,-1,-1,0
1523619890291,5308416,-123,-56,-1,-1,0
1523619890291,5177344,-123,-56,-1,-1,0
1523619890330,4784128,-123,-56,-1,-1,0
1523619890330,4194304,-123,-56,-1,-1,0
1523619890330,3473408,-123,-56,-1,-1,0
1523619890330,2752512,-123,-56,-1,-1,0
1523619890330,2162688,-123,-56,-1,-1,0
1523619890376,1638400,-123,-56,-1,-1,0
1523619890376,1245184,-123,-56,-1,-1,0
1523619890376,983040,-123,-56,-1,-1,0
1523619890376,720896,-123,-56,-1,-1,0
1523619890376,524288,-123,-56,-1,-1,0
1523619890410,327680,-123,-56,-1,-1,0
1523619890410,196608,-123,-56,-1,-1,0
1523619890410,65536,-123,-56,-1,-1,0
1523619890410,-65536,-123,-56,-1,-1,0
1523619890410,-131072,-123,-56,-1,-1,0
1523619890450,-262144,-123,-56,-1,-1,0
1523619890450,-327680,-123,-56,-1,-1,0
1523619890450,-393216,-123,-56,-1,-1,0
1523619890450,-327680,-123,-56,-1,-1,0
1523619890450,-65536,-123,-56,-1,-1,0
1523619890490,65536,-123,-56,-1,-1,0
1523619890490,65536,-123,-56,-1,-1,0
1523619890490,0,-123,-56,-1,-1,0
1523619890490,-65536,-123,-56,-1,-1,0
1523619890490,-196608,-123,-56,-1,-1,0
1523619890530,-393216,-123,-56,-1,-1,0
1523619890530,-589824,-123,-56,-1,-1,0
1523619890530,-720896,-123,-56,-1,-1,0
1523619890530,-720896,-123,-56,-1,-1,0
1523619890530,-720896,-123,-56,-1,-1,0
1523619890573,-851968,-123,-56,-1,-1,0
1523619890573,-1179648,-123,-56,-1,-1,0
1523619890573,-1048576,-123,-56,-1,-1,0
1523619890573,524288,-123,-56,-1,-1,0
1523619890573,2752512,-123,-56,-1,-1,0
1523619890610,2949120,-123,-56,-1,-1,0
1523619890610,196608,-123,-56,-1,-1,0
1523619890610,-3276800,-123,-56,-1,-1,0
1523619890610,-4849664,-123,-56,-1,-1,0
1523619890610,-4063232,-123,-56,-1,-1,0
1523619890650,-2555904,-123,-56,-1,-1,0
1523619890650,-1638400,-123,-56,-1,-1,0
1523619890650,-1245184,-123,-56,-1,-1,0
1523619890650,-1048576,-123,-56,-1,-1,0
1523619890650,-851968,-123,-56,-1,-1,0
1523619890694,-589824,-123,-56,-1,-1,0
1523619890694,-327680,-123,-56,-1,-1,0
1523619890694,-131072,-123,-56,-1,-1,0
1523619890694,65536,-123,-56,-1,-1,0
1523619890694,524288,-123,-56,-1,-1,0
1523619890730,983040,-123,-56,-1,-1,0
1523619890730,1572864,-123,-56,-1,-1,0
1523619890730,2424832,-123,-56,-1,-1,0
1523619890730,3407872,-123,-56,-1,-1,0
1523619890730,4194304,-123,-56,-1,-1,0
1523619890771,4587520,-123,-56,-1,-1,0
1523619890771,4653056,-123,-56,-1,-1,0
1523619890771,4456448,-123,-56,-1,-1,0
1523619890771,3932160,-123,-56,-1,-1,0
1523619890771,3211264,-123,-56,-1,-1,0
1523619890813,2424832,-123,-56,-1,-1,0
1523619890813,1638400,-123,-56,-1,-1,0
1523619890813,1114112,-123,-56,-1,-1,0
1523619890813,655360,-123,-56,-1,-1,0
1523619890813,262144,-123,-56,-1,-1,0
1523619890850,0,-123,-56,-1,-1,0
1523619890850,-196608,-123,-56,-1,-1,0
1523619890850,-327680,-123,-56,-1,-1,0
1523619890850,-393216,-123,-56,-1,-1,0
1523619890850,-524288,-123,-56,-1,-1,0
1523619890896,-655360,-123,-56,-1,-1,0
1523619890896,-851968,-123,-56,-1,-1,0
1523619890896,-1048576,-123,-56,-1,-1,0
1523619890896,-1179648,-123,-56,-1,-1,0
1523619890896,-1310720,-123,-56,-1,-1,0
1523619890930,-1507328,-123,-56,-1,-1,0
1523619890930,-1376256,-123,-56,-1,-1,0
1523619890930,-1114112,-123,-56,-1,-1,0
1523619890930,-851968,-123,-56,-1,-1,0
1523619890930,-786432,-123,-56,-1,-1,0
1523619890970,-851968,-123,-56,-1,-1,0
1523619890970,-1048576,-123,-56,-1,-1,0
1523619890970,-1310720,-123,-56,-1,-1,0
1523619890970,-1507328,-123,-56,-1,-1,0
1523619890970,-1703936,-123,-56,-1,-1,0
1523619891010,-1835008,-123,-56,-1,-1,0
1523619891010,-1966080,-123,-56,-1,-1,0
1523619891010,-2031616,-123,-56,-1,-1,0
1523619891010,-2228224,-123,-56,-1,-1,0
1523619891010,-2359296,-123,-56,-1,-1,0
1523619891051,-1507328,-123,-56,-1,-1,0
1523619891051,917504,-123,-56,-1,-1,0
1523619891051,3538944,-123,-56,-1,-1,0
1523619891051,3407872,-123,-56,-1,-1,0
1523619891051,-393216,-123,-56,-1,-1,0
1523619891090,-4521984,-123,-56,-1,-1,0
1523619891090,-5832704,-123,-56,-1,-1,0
1523619891090,-4587520,-123,-56,-1,-1,0
1523619891090,-3407872,-123,-56,-1,-1,0
1523619891090,-2883584,-123,-56,-1,-1,0
1523619891131,-2686976,-123,-56,-1,-1,0
1523619891131,-2490368,-123,-56,-1,-1,0
1523619891131,-2228224,-123,-56,-1,-1,0
1523619891131,-1966080,-123,-56,-1,-1,0
1523619891131,-1703936,-123,-56,-1,-1,0
1523619891170,-1507328,-123,-56,-1,-1,0
1523619891170,-1179648,-123,-56,-1,-1,0
1523619891170,-720896,-123,-56,-1,-1,0
1523619891170,0,-123,-56,-1,-1,0
1523619891170,655360,-123,-56,-1,-1,0
1523619891210,1376256,-123,-56,-1,-1,0
1523619891210,2162688,-123,-56,-1,-1,0
1523619891210,2752512,-123,-56,-1,-1,0
1523619891210,3080192,-123,-56,-1,-1,0
1523619891210,3145728,-123,-56,-1,-1,0
1523619891254,2883584,-123,-56,-1,-1,0
1523619891254,2293760,-123,-56,-1,-1,0
1523619891254,1376256,-123,-56,-1,-1,0
1523619891254,393216,-123,-56,-1,-1,0
1523619891254,-262144,-123,-56,-1,-1,0
1523619891290,-655360,-124,-56,-1,-1,0
1523619891290,-983040,-124,-56,-1,-1,0
1523619891290,-1310720,-124,-56,-1,-1,0
1523619891290,-1507328,-124,-56,-1,-1,0
1523619891290,-1703936,-124,-56,-1,-1,0
1523619891330,-1835008,-124,-56,-1,-1,0
1523619891330,-1835008,-124,-56,-1,-1,0
1523619891330,-1900544,-124,-56,-1,-1,0
1523619891330,-2097152,-124,-56,-1,-1,0
1523619891330,-2228224,-124,-56,-1,-1,0
1523619891370,-2293760,-124,-56,-1,-1,0
1523619891370,-2424832,-124,-56,-1,-1,0
1523619891370,-2490368,-124,-56,-1,-1,0
1523619891370,-2490368,-124,-56,-1,-1,0
1523619891370,-2359296,-124,-56,-1,-1,0
1523619891410,-2097152,-124,-56,-1,-1,0
1523619891410,-1900544,-124,-56,-1,-1,0
1523619891410,-1769472,-124,-56,-1,-1,0
1523619891410,-1769472,-124,-56,-1,-1,0
1523619891410,-1900544,-124,-56,-1,-1,0
1523619891451,-2097152,-124,-56,-1,-1,0
1523619891451,-2228224,-124,-56,-1,-1,0
1523619891451,-2359296,-124,-56,-1,-1,0
1523619891451,-2424832,-124,-56,-1,-1,0
1523619891451,-2424832,-124,-56,-1,-1,0
1523619891490,-2424832,-124,-56,-1,-1,0
1523619891490,-2490368,-124,-56,-1,-1,0
1523619891490,-2490368,-124,-56,-1,-1,0
1523619891490,-1245184,-124,-56,-1,-1,0
1523619891490,1507328,-124,-56,-1,-1,0
1523619891531,4194304,-124,-56,-1,-1,0
1523619891531,4063232,-124,-56,-1,-1,0
1523619891531,196608,-124,-56,-1,-1,0
1523619891531,-4128768,-124,-56,-1,-1,0
1523619891531,-5701632,-124,-56,-1,-1,0
1523619891570,-4390912,-124,-56,-1,-1,0
1523619891570,-3080192,-124,-56,-1,-1,0
1523619891570,-2490368,-124,-56,-1,-1,0
1523619891570,-2293760,-124,-56,-1,-1,0
1523619891570,-2097152,-124,-56,-1,-1,0
1523619891610,-1900544,-124,-56,-1,-1,0
1523619891610,-1572864,-124,-56,-1,-1,0
1523619891610,-1179648,-124,-56,-1,-1,0
1523619891610,-851968,-124,-56,-1,-1,0
1523619891610,-393216,-124,-56,-1,-1,0
1523619891650,0,-124,-56,-1,-1,0
1523619891650,589824,-124,-56,-1,-1,0
1523619891650,1376256,-124,-56,-1,-1,0
1523619891650,2228224,-124,-56,-1,-1,0
1523619891650,3080192,-124,-56,-1,-1,0
1523619891690,3670016,-124,-56,-1,-1,0
1523619891690,3932160,-124,-56,-1,-1,0
1523619891690,3932160,-124,-56,-1,-1,0
1523619891690,3670016,-124,-56,-1,-1,0
1523619891690,3080192,-124,-56,-1,-1,0
1523619891730,2359296,-125,-56,-1,-1,0
1523619891730,1507328,-125,-56,-1,-1,0
1523619891730,851968,-125,-56,-1,-1,0
1523619891730,327680,-125,-56,-1,-1,0
1523619891730,0,-125,-56,-1,-1,0
1523619891770,-196608,-125,-56,-1,-1,0
1523619891770,-327680,-125,-56,-1,-1,0
1523619891770,-458752,-125,-56,-1,-1,0
1523619891770,-589824,-125,-56,-1,-1,0
1523619891770,-786432,-125,-56,-1,-1,0
1523619891811,-917504,-125,-56,-1,-1,0
1523619891811,-1048576,-125,-56,-1,-1,0
1523619891811,-1245184,-125,-56,-1,-1,0
1523619891811,-1376256,-125,-56,-1,-1,0
1523619891811,-1507328,-125,-56,-1,-1,0
1523619891850,-1572864,-125,-56,-1,-1,0
1523619891850,-1638400,-125,-56,-1,-1,0
1523619891850,-1507328,-125,-56,-1,-1,0
1523619891850,-1179648,-125,-56,-1,-1,0
1523619891850,-917504,-125,-56,-1,-1,0
1523619891890,-917504,-125,-56,-1,-1,0
1523619891890,-1114112,-125,-56,-1,-1,0
1523619891890,-1245184,-125,-56,-1,-1,0
1523619891890,-1441792,-125,-56,-1,-1,0
1523619891890,-1572864,-125,-56,-1,-1,0
1523619891930,-1638400,-125,-56,-1,-1,0
1523619891930,-1572864,-125,-56,-1,-1,0
1523619891930,-1572864,-125,-56,-1,-1,0
1523619891930,-1572864,-125,-56,-1,-1,0
1523619891930,-1638400,-125,-56,-1,-1,0
1523619891970,-1900544,-125,-56,-1,-1,0
1523619891970,-1703936,-125,-56,-1,-1,0
1523619891970,65536,-125,-56,-1,-1,0
1523619891970,2883584,-125,-56,-1,-1,0
1523619891970,3997696,-125,-56,-1,-1,0
1523619892011,1638400,-125,-56,-1,-1,0
1523619892011,-2555904,-125,-56,-1,-1,0
1523619892011,-4849664,-125,-56,-1,-1,0
1523619892011,-3997696,-125,-56,-1,-1,0
1523619892011,-2293760,-125,-56,-1,-1,0
1523619892050,-1179648,-125,-56,-1,-1,0
1523619892050,-720896,-125,-56,-1,-1,0
1523619892050,-458752,-125,-56,-1,-1,0
1523619892050,-262144,-125,-56,-1,-1,0
1523619892050,0,-125,-56,-1,-1,0
1523619892091,393216,-125,-56,-1,-1,0
1523619892091,917504,-125,-56,-1,-1,0
1523619892091,1245184,-125,-56,-1,-1,0
1523619892091,1572864,-125,-56,-1,-1,0
1523619892091,2031616,-125,-56,-1,-1,0
1523619892131,2686976,-125,-56,-1,-1,0
1523619892131,3473408,-125,-56,-1,-1,0
1523619892131,4194304,-125,-56,-1,-1,0
1523619892131,4915200,-125,-56,-1,-1,0
1523619892131,5439488,-125,-56,-1,-1,0
1523619892170,5636096,-125,-56,-1,-1,0
1523619892170,5570560,-125,-56,-1,-1,0
1523619892170,5242880,-125,-56,-1,-1,0
1523619892170,4653056,-125,-56,-1,-1,0
1523619892170,3866624,-125,-56,-1,-1,0
1523619892211,3276800,-125,-56,-1,-1,0
1523619892211,2883584,-125,-56,-1,-1,0
1523619892211,2555904,-125,-56,-1,-1,0
1523619892211,2228224,-125,-56,-1,-1,0
1523619892211,2031616,-125,-56,-1,-1,0
1523619892250,1835008,-125,-56,-1,-1,0
1523619892250,1638400,-125,-56,-1,-1,0
1523619892250,1572864,-125,-56,-1,-1,0
1523619892250,1441792,-125,-56,-1,-1,0
1523619892250,1310720,-125,-56,-1,-1,0
1523619892290,1114112,-125,-56,-1,-1,0
1523619892290,1114112,-125,-56,-1,-1,0
1523619892290,1048576,-125,-56,-1,-1,0
1523619892290,851968,-125,-56,-1,-1,0
1523619892290,524288,-125,-56,-1,-1,0
1523619892336,458752,-125,-56,-1,-1,0
1523619892336,655360,-125,-56,-1,-1,0
1523619892336,983040,-125,-56,-1,-1,0
1523619892336,983040,-125,-56,-1,-1,0
1523619892336,851968,-125,-56,-1,-1,0
1523619892370,851968,-125,-56,-1,-1,0
1523619892370,786432,-125,-56,-1,-1,0
1523619892370,458752,-125,-56,-1,-1,0
1523619892370,131072,-125,-56,-1,-1,0
1523619892370,0,-125,-56,-1,-1,0
1523619892414,-65536,-125,-56,-1,-1,0
1523619892414,-65536,-125,-56,-1,-1,0
1523619892414,-65536,-125,-56,-1,-1,0
1523619892414,-196608,-125,-56,-1,-1,0
1523619892414,-655360,-125,-56,-1,-1,0
1523619892450,-327680,-125,-56,-1,-1,0
1523619892450,1507328,-125,-56,-1,-1,0
1523619892450,3211264,-125,-56,-1,-1,0
1523619892450,2097152,-125,-56,-1,-1,0
1523619892450,-1507328,-125,-56,-1,-1,0
1523619892490,-4587520,-125,-56,-1,-1,0
1523619892490,-5177344,-125,-56,-1,-1,0
1523619892490,-3801088,-125,-56,-1,-1,0
1523619892490,-2424832,-125,-56,-1,-1,0
1523619892490,-1769472,-125,-56,-1,-1,0
1523619892531,-1572864,-125,-56,-1,-1,0
1523619892531,-1507328,-125,-56,-1,-1,0
1523619892531,-1376256,-125,-56,-1,-1,0
1523619892531,-1114112,-125,-56,-1,-1,0
1523619892531,-1114112,-125,-56,-1,-1,0
1523619892570,-1245184,-125,-56,-1,-1,0
1523619892570,-1310720,-125,-56,-1,-1,0
1523619892570,-851968,-125,-56,-1,-1,0
1523619892570,-327680,-125,-56,-1,-1,0
1523619892570,131072,-125,-56,-1,-1,0
1523619892611,655360,-125,-56,-1,-1,0
1523619892611,1245184,-125,-56,-1,-1,0
1523619892611,1835008,-125,-56,-1,-1,0
1523619892611,2162688,-125,-56,-1,-1,0
1523619892611,2162688,-125,-56,-1,-1,0
1523619892652,2031616,-125,-56,-1,-1,0
1523619892652,1572864,-125,-56,-1,-1,0
1523619892652,917504,-125,-56,-1,-1,0
1523619892652,196608,-125,-56,-1,-1,0
1523619892652,-327680,-125,-56,-1,-1,0
1523619892690,-851968,-125,-56,-1,-1,0
1523619892690,-1179648,-125,-56,-1,-1,0
1523619892690,-1441792,-125,-56,-1,-1,0
1523619892690,-1572864,-125,-56,-1,-1,0
1523619892690,-1703936,-125,-56,-1,-1,0
1523619892739,-1835008,-125,-56,-1,-1,0
1523619892739,-1900544,-125,-56,-1,-1,0
1523619892739,-1900544,-125,-56,-1,-1,0
1523619892739,-1900544,-125,-56,-1,-1,0
1523619892739,-1900544,-125,-56,-1,-1,0
1523619892770,-1835008,-125,-56,-1,-1,0
1523619892770,-1703936,-125,-56,-1,-1,0
1523619892770,-1638400,-125,-56,-1,-1,0
1523619892770,-1572864,-125,-56,-1,-1,0
1523619892770,-1310720,-125,-56,-1,-1,0
1523619892812,-983040,-125,-56,-1,-1,0
1523619892812,-786432,-125,-56,-1,-1,0
1523619892812,-720896,-125,-56,-1,-1,0
1523619892812,-786432,-125,-56,-1,-1,0
1523619892812,-917504,-125,-56,-1,-1,0
1523619892866,-1048576,-125,-56,-1,-1,0
1523619892866,-1245184,-125,-56,-1,-1,0
1523619892866,-1310720,-125,-56,-1,-1,0
1523619892866,-1376256,-125,-56,-1,-1,0
1523619892866,-1310720,-125,-56,-1,-1,0
1523619892890,-1245184,-125,-56,-1,-1,0
1523619892890,-1310720,-125,-56,-1,-1,0
1523619892890,-1572864,-125,-56,-1,-1,0
1523619892890,-983040,-125,-56,-1,-1,0
1523619892890,983040,-125,-56,-1,-1,0
1523619892930,2818048,-125,-56,-1,-1,0
1523619892930,1835008,-125,-56,-1,-1,0
1523619892930,-1638400,-125,-56,-1,-1,0
1523619892930,-4587520,-125,-56,-1,-1,0
1523619892930,-5111808,-125,-56,-1,-1,0
1523619892986,-3670016,-125,-56,-1,-1,0
1523619892986,-2162688,-125,-56,-1,-1,0
1523619892986,-1310720,-125,-56,-1,-1,0
1523619892986,-917504,-125,-56,-1,-1,0
1523619892986,-720896,-125,-56,-1,-1,0
1523619893010,-524288,-125,-56,-1,-1,0
1523619893010,-393216,-125,-56,-1,-1,0
1523619893010,-65536,-125,-56,-1,-1,0
1523619893010,262144,-125,-56,-1,-1,0
1523619893010,720896,-125,-56,-1,-1,0
1523619893054,1179648,-125,-56,-1,-1,0
1523619893054,1703936,-125,-56,-1,-1,0
1523619893054,2359296,-125,-56,-1,-1,0
1523619893054,3145728,-125,-56,-1,-1,0
1523619893054,3997696,-125,-56,-1,-1,0
1523619893090,4718592,-125,-56,-1,-1,0
1523619893090,5242880,-125,-56,-1,-1,0
1523619893090,5373952,-125,-56,-1,-1,0
1523619893090,5111808,-125,-56,-1,-1,0
1523619893090,4456448,-125,-56,-1,-1,0
1523619893131,3604480,-126,-56,-1,-1,0
1523619893131,2752512,-126,-56,-1,-1,0
1523619893131,2031616,-126,-56,-1,-1,0
1523619893131,1441792,-126,-56,-1,-1,0
1523619893131,983040,-126,-56,-1,-1,0
1523619893186,589824,-126,-56,-1,-1,0
1523619893186,196608,-126,-56,-1,-1,0
1523619893186,-131072,-126,-56,-1,-1,0
1523619893186,-327680,-126,-56,-1,-1,0
1523619893186,-458752,-126,-56,-1,-1,0
1523619893211,-589824,-126,-56,-1,-1,0
1523619893211,-720896,-126,-56,-1,-1,0
1523619893211,-917504,-126,-56,-1,-1,0
1523619893211,-1179648,-126,-56,-1,-1,0
1523619893211,-1376256,-126,-56,-1,-1,0
1523619893250,-1638400,-126,-56,-1,-1,0
1523619893250,-1769472,-126,-56,-1,-1,0
1523619893250,-1572864,-126,-56,-1,-1,0
1523619893250,-1310720,-126,-56,-1,-1,0
1523619893250,-1245184,-126,-56,-1,-1,0
1523619893290,-1179648,-126,-56,-1,-1,0
1523619893290,-1310720,-126,-56,-1,-1,0
1523619893290,-1572864,-126,-56,-1,-1,0
1523619893290,-1835008,-126,-56,-1,-1,0
1523619893290,-2162688,-126,-56,-1,-1,0
1523619893331,-2359296,-126,-56,-1,-1,0
1523619893331,-2490368,-126,-56,-1,-1,0
1523619893331,-2490368,-126,-56,-1,-1,0
1523619893331,-2424832,-126,-56,-1,-1,0
1523619893331,-2621440,-126,-56,-1,-1,0
1523619893372,-2752512,-126,-56,-1,-1,0
1523619893372,-1638400,-126,-56,-1,-1,0
1523619893372,1179648,-126,-56,-1,-1,0
1523619893372,3473408,-126,-56,-1,-1,0
1523619893372,2359296,-126,-56,-1,-1,0
1523619893411,-2293760,-126,-56,-1,-1,0
1523619893411,-6160384,-126,-56,-1,-1,0
1523619893411,-6684672,-126,-56,-1,-1,0
1523619893411,-5046272,-126,-56,-1,-1,0
1523619893411,-3735552,-126,-56,-1,-1,0
1523619893450,-3211264,-126,-56,-1,-1,0
1523619893450,-3014656,-126,-56,-1,-1,0
1523619893450,-3014656,-126,-56,-1,-1,0
1523619893450,-2949120,-126,-56,-1,-1,0
1523619893450,-2752512,-126,-56,-1,-1,0
1523619893490,-2359296,-126,-56,-1,-1,0
1523619893490,-1966080,-126,-56,-1,-1,0
1523619893490,-1507328,-126,-56,-1,-1,0
1523619893490,-983040,-126,-56,-1,-1,0
1523619893490,-262144,-126,-56,-1,-1,0
1523619893530,393216,-126,-56,-1,-1,0
1523619893530,1245184,-126,-56,-1,-1,0
1523619893530,2293760,-126,-56,-1,-1,0
1523619893530,3014656,-126,-56,-1,-1,0
1523619893530,3538944,-126,-56,-1,-1,0
1523619893570,3866624,-126,-56,-1,-1,0
1523619893570,3932160,-126,-56,-1,-1,0
1523619893570,3735552,-126,-56,-1,-1,0
1523619893570,3407872,-126,-56,-1,-1,0
1523619893570,3014656,-126,-56,-1,-1,0
1523619893610,2621440,-126,-56,-1,-1,0
1523619893610,2424832,-126,-56,-1,-1,0
1523619893610,2424832,-126,-56,-1,-1,0
1523619893610,2621440,-126,-56,-1,-1,0
1523619893610,2752512,-126,-56,-1,-1,0
1523619893651,2883584,-126,-56,-1,-1,0
1523619893651,2883584,-126,-56,-1,-1,0
1523619893651,2883584,-126,-56,-1,-1,0
1523619893651,2883584,-126,-56,-1,-1,0
1523619893651,2883584,-126,-56,-1,-1,0
1523619893690,2752512,-126,-56,-1,-1,0
1523619893690,2555904,-126,-56,-1,-1,0
1523619893690,2490368,-126,-56,-1,-1,0
1523619893690,2490368,-126,-56,-1,-1,0
1523619893690,2490368,-126,-56,-1,-1,0
1523619893736,2686976,-126,-56,-1,-1,0
1523619893736,2883584,-126,-56,-1,-1,0
1523619893736,3080192,-126,-56,-1,-1,0
1523619893736,3211264,-126,-56,-1,-1,0
1523619893736,3145728,-126,-56,-1,-1,0
1523619893770,2883584,-126,-56,-1,-1,0
1523619893770,2621440,-126,-56,-1,-1,0
1523619893770,2424832,-126,-56,-1,-1,0
1523619893770,2228224,-126,-56,-1,-1,0
1523619893770,2097152,-126,-56,-1,-1,0
1523619893810,2031616,-126,-56,-1,-1,0
1523619893810,1900544,-126,-56,-1,-1,0
1523619893810,1638400,-126,-56,-1,-1,0
1523619893810,1769472,-126,-56,-1,-1,0
1523619893810,3342336,-126,-56,-1,-1,0
1523619893851,6291456,-126,-56,-1,-1,0
1523619893851,8060928,-126,-56,-1,-1,0
1523619893851,6225920,-126,-56,-1,-1,0
1523619893851,1310720,-126,-56,-1,-1,0
1523619893851,-2359296,-126,-56,-1,-1,0
1523619893890,-2752512,-126,-56,-1,-1,0
1523619893890,-1245184,-126,-56,-1,-1,0
1523619893890,-262144,-126,-56,-1,-1,0
1523619893890,0,-126,-56,-1,-1,0
1523619893890,0,-126,-56,-1,-1,0
1523619893931,65536,-126,-56,-1,-1,0
1523619893931,196608,-126,-56,-1,-1,0
1523619893931,196608,-126,-56,-1,-1,0
1523619893931,262144,-126,-56,-1,-1,0
1523619893931,327680,-126,-56,-1,-1,0
1523619893970,327680,-126,-56,-1,-1,0
1523619893970,458752,-126,-56,-1,-1,0
1523619893970,720896,-126,-56,-1,-1,0
1523619893970,1048576,-126,-56,-1,-1,0
1523619893970,1572864,-126,-56,-1,-1,0
1523619894014,2097152,-126,-56,-1,-1,0
1523619894014,2293760,-126,-56,-1,-1,0
1523619894014,2228224,-126,-56,-1,-1,0
1523619894014,1900544,-126,-56,-1,-1,0
1523619894014,1441792,-126,-56,-1,-1,0
1523619894051,655360,-126,-56,-1,-1,0
1523619894051,-196608,-126,-56,-1,-1,0
1523619894051,-1179648,-126,-56,-1,-1,0
1523619894051,-2031616,-126,-56,-1,-1,0
1523619894051,-2555904,-126,-56,-1,-1,0
1523619894090,-2949120,-126,-56,-1,-1,0
1523619894090,-3342336,-126,-56,-1,-1,0
1523619894090,-3670016,-126,-56,-1,-1,0
1523619894090,-3866624,-126,-56,-1,-1,0
1523619894090,-4063232,-126,-56,-1,-1,0
1523619894132,-4194304,-126,-56,-1,-1,0
1523619894132,-4390912,-126,-56,-1,-1,0
1523619894132,-4587520,-126,-56,-1,-1,0
1523619894132,-4784128,-126,-56,-1,-1,0
1523619894132,-4980736,-126,-56,-1,-1,0
1523619894171,-5177344,-126,-56,-1,-1,0
1523619894171,-5308416,-126,-56,-1,-1,0
1523619894171,-5308416,-126,-56,-1,-1,0
1523619894171,-5177344,-126,-56,-1,-1,0
1523619894171,-4784128,-126,-56,-1,-1,0
1523619894219,-4325376,-126,-56,-1,-1,0
1523619894219,-3997696,-126,-56,-1,-1,0
1523619894219,-3866624,-126,-56,-1,-1,0
1523619894219,-3866624,-126,-56,-1,-1,0
1523619894219,-3997696,-126,-56,-1,-1,0
1523619894250,-4128768,-126,-56,-1,-1,0
1523619894250,-4128768,-126,-56,-1,-1,0
1523619894250,-4194304,-126,-56,-1,-1,0
1523619894250,-4128768,-126,-56,-1,-1,0
1523619894250,-4128768,-126,-56,-1,-1,0
1523619894294,-4128768,-126,-56,-1,-1,0
1523619894294,-4390912,-126,-56,-1,-1,0
1523619894294,-4063232,-126,-56,-1,-1,0
1523619894294,-2097152,-126,-56,-1,-1,0
1523619894294,524288,-126,-56,-1,-1,0
1523619894344,1245184,-126,-56,-1,-1,0
1523619894344,-1179648,-126,-56,-1,-1,0
1523619894344,-4980736,-126,-56,-1,-1,0
1523619894344,-6684672,-126,-56,-1,-1,0
1523619894344,-5767168,-126,-56,-1,-1,0
1523619894370,-4063232,-126,-56,-1,-1,0
1523619894370,-2949120,-126,-56,-1,-1,0
1523619894370,-2424832,-126,-56,-1,-1,0
1523619894370,-1966080,-126,-56,-1,-1,0
1523619894370,-1507328,-126,-56,-1,-1,0
1523619894419,-983040,-126,-56,-1,-1,0
1523619894419,-589824,-126,-56,-1,-1,0
1523619894419,-196608,-126,-56,-1,-1,0
1523619894419,131072,-126,-56,-1,-1,0
1523619894419,655360,-126,-56,-1,-1,0
1523619894450,1310720,-126,-56,-1,-1,0
1523619894450,2097152,-126,-56,-1,-1,0
1523619894450,2949120,-126,-56,-1,-1,0
1523619894450,3866624,-126,-56,-1,-1,0
1523619894450,4653056,-126,-56,-1,-1,0
1523619894491,5177344,-126,-56,-1,-1,0
1523619894491,5373952,-126,-56,-1,-1,0
1523619894491,5308416,-126,-56,-1,-1,0
1523619894491,4980736,-126,-56,-1,-1,0
1523619894491,4521984,-126,-56,-1,-1,0
1523619894530,3801088,-126,-56,-1,-1,0
1523619894530,3080192,-126,-56,-1,-1,0
1523619894530,2490368,-126,-56,-1,-1,0
1523619894530,2162688,-126,-56,-1,-1,0
1523619894530,1900544,-126,-56,-1,-1,0
1523619894574,1703936,-126,-56,-1,-1,0
1523619894574,1507328,-126,-56,-1,-1,0
1523619894574,1376256,-126,-56,-1,-1,0
1523619894574,1245184,-126,-56,-1,-1,0
1523619894574,1179648,-126,-56,-1,-1,0
1523619894616,1114112,-126,-56,-1,-1,0
1523619894616,1048576,-126,-56,-1,-1,0
1523619894616,983040,-126,-56,-1,-1,0
1523619894616,917504,-126,-56,-1,-1,0
1523619894616,917504,-126,-56,-1,-1,0
1523619894657,851968,-126,-56,-1,-1,0
1523619894657,851968,-126,-56,-1,-1,0
1523619894657,1048576,-126,-56,-1,-1,0
1523619894657,1376256,-126,-56,-1,-1,0
1523619894657,1572864,-126,-56,-1,-1,0
1523619894691,1703936,-126,-56,-1,-1,0
1523619894691,1638400,-126,-56,-1,-1,0
1523619894691,1572864,-126,-56,-1,-1,0
1523619894691,1376256,-126,-56,-1,-1,0
1523619894691,1310720,-126,-56,-1,-1,0
1523619894749,1245184,-126,-56,-1,-1,0
1523619894749,1245184,-126,-56,-1,-1,0
1523619894749,1245184,-126,-56,-1,-1,0
1523619894749,1245184,-126,-56,-1,-1,0
1523619894749,1114112,-126,-56,-1,-1,0
1523619894771,851968,-126,-56,-1,-1,0
1523619894771,1245184,-126,-56,-1,-1,0
1523619894771,3080192,-126,-56,-1,-1,0
1523619894771,5046272,-126,-56,-1,-1,0
1523619894771,4718592,-126,-56,-1,-1,0
1523619894821,1900544,-126,-56,-1,-1,0
1523619894821,-1048576,-126,-56,-1,-1,0
1523619894821,-1966080,-126,-56,-1,-1,0
1523619894821,-851968,-126,-56,-1,-1,0
1523619894821,458752,-126,-56,-1,-1,0
1523619894850,1310720,-126,-56,-1,-1,0
1523619894850,1703936,-126,-56,-1,-1,0
1523619894850,1900544,-126,-56,-1,-1,0
1523619894850,1966080,-126,-56,-1,-1,0
1523619894850,2162688,-126,-56,-1,-1,0
1523619894896,2490368,-126,-56,-1,-1,0
1523619894896,2818048,-126,-56,-1,-1,0
1523619894896,3145728,-126,-56,-1,-1,0
1523619894896,3604480,-126,-56,-1,-1,0
1523619894896,4063232,-126,-56,-1,-1,0
1523619894932,4653056,-126,-56,-1,-1,0
1523619894932,5308416,-126,-56,-1,-1,0
1523619894932,5963776,-126,-56,-1,-1,0
1523619894932,6488064,-126,-56,-1,-1,0
1523619894932,6815744,-126,-56,-1,-1,0
1523619894971,6815744,-126,-56,-1,-1,0
1523619894971,6553600,-126,-56,-1,-1,0
1523619894971,6029312,-126,-56,-1,-1,0
1523619894971,5242880,-126,-56,-1,-1,0
1523619894971,4325376,-126,-56,-1,-1,0
1523619895016,3473408,-126,-56,-1,-1,0
1523619895016,2883584,-126,-56,-1,-1,0
1523619895016,2424832,-126,-56,-1,-1,0
1523619895016,2031616,-126,-56,-1,-1,0
1523619895016,1572864,-126,-56,-1,-1,0
1523619895050,1179648,-126,-56,-1,-1,0
1523619895050,983040,-126,-56,-1,-1,0
1523619895050,720896,-126,-56,-1,-1,0
1523619895050,524288,-126,-56,-1,-1,0
1523619895050,327680,-126,-56,-1,-1,0
1523619895096,131072,-126,-56,-1,-1,0
1523619895096,-65536,-126,-56,-1,-1,0
1523619895096,-262144,-126,-56,-1,-1,0
1523619895096,-524288,-126,-56,-1,-1,0
1523619895096,-786432,-126,-56,-1,-1,0
1523619895146,-917504,-126,-56,-1,-1,0
1523619895146,-786432,-126,-56,-1,-1,0
1523619895146,-655360,-126,-56,-1,-1,0
1523619895146,-589824,-126,-56,-1,-1,0
1523619895146,-720896,-126,-56,-1,-1,0
1523619895170,-983040,-126,-56,-1,-1,0
1523619895170,-1376256,-126,-56,-1,-1,0
1523619895170,-1703936,-126,-56,-1,-1,0
1523619895170,-1966080,-126,-56,-1,-1,0
1523619895170,-2228224,-126,-56,-1,-1,0
1523619895214,-2424832,-126,-56,-1,-1,0
1523619895214,-2621440,-126,-56,-1,-1,0
1523619895214,-2818048,-126,-56,-1,-1,0
1523619895214,-3211264,-126,-56,-1,-1,0
1523619895214,-3276800,-126,-56,-1,-1,0
1523619895252,-1769472,-126,-56,-1,-1,0
1523619895252,917504,-126,-56,-1,-1,0
1523619895252,2621440,-126,-56,-1,-1,0
1523619895252,917504,-126,-56,-1,-1,0
1523619895252,-3342336,-126,-56,-1,-1,0
1523619895294,-6488064,-126,-56,-1,-1,0
1523619895294,-6684672,-126,-56,-1,-1,0
1523619895294,-5373952,-126,-56,-1,-1,0
1523619895294,-4456448,-126,-56,-1,-1,0
1523619895294,-4063232,-126,-56,-1,-1,0
1523619895346,-3932160,-126,-56,-1,-1,0
1523619895346,-3932160,-126,-56,-1,-1,0
1523619895346,-3735552,-126,-56,-1,-1,0
1523619895346,-3473408,-126,-56,-1,-1,0
1523619895346,-3145728,-126,-56,-1,-1,0
1523619895376,-2818048,-126,-56,-1,-1,0
1523619895376,-2490368,-126,-56,-1,-1,0
1523619895376,-2162688,-126,-56,-1,-1,0
1523619895376,-1769472,-126,-56,-1,-1,0
1523619895376,-1114112,-126,-56,-1,-1,0
1523619895419,-262144,-126,-56,-1,-1,0
1523619895419,393216,-126,-56,-1,-1,0
1523619895419,917504,-126,-56,-1,-1,0
1523619895419,1310720,-126,-56,-1,-1,0
1523619895419,1376256,-126,-56,-1,-1,0
1523619895488,1048576,-126,-56,-1,-1,0
1523619895488,393216,-126,-56,-1,-1,0
1523619895488,-262144,-126,-56,-1,-1,0
1523619895488,-983040,-126,-56,-1,-1,0
1523619895488,-1507328,-126,-56,-1,-1,0
1523619895491,-1900544,-126,-56,-1,-1,0
1523619895491,-2162688,-126,-56,-1,-1,0
1523619895491,-2424832,-126,-56,-1,-1,0
1523619895491,-2621440,-126,-56,-1,-1,0
1523619895491,-2818048,-126,-56,-1,-1,0
1523619895546,-2752512,-126,-56,-1,-1,0
1523619895546,-2686976,-126,-56,-1,-1,0
1523619895546,-2752512,-126,-56,-1,-1,0
1523619895546,-2949120,-126,-56,-1,-1,0
1523619895546,-3080192,-126,-56,-1,-1,0
1523619895571,-3145728,-126,-56,-1,-1,0
1523619895571,-3145728,-126,-56,-1,-1,0
1523619895571,-3211264,-126,-56,-1,-1,0
1523619895571,-3276800,-126,-56,-1,-1,0
1523619895571,-3211264,-126,-56,-1,-1,0
1523619895623,-2818048,-126,-56,-1,-1,0
1523619895623,-2424832,-126,-56,-1,-1,0
1523619895623,-2162688,-126,-56,-1,-1,0
1523619895623,-2097152,-126,-56,-1,-1,0
1523619895623,-2162688,-126,-56,-1,-1,0
1523619895688,-2359296,-126,-56,-1,-1,0
1523619895688,-2424832,-126,-56,-1,-1,0
1523619895688,-2424832,-126,-56,-1,-1,0
1523619895688,-2359296,-126,-56,-1,-1,0
1523619895688,-2359296,-126,-56,-1,-1,0
1523619895690,-2293760,-126,-56,-1,-1,0
1523619895690,-2293760,-126,-56,-1,-1,0
1523619895690,-2359296,-126,-56,-1,-1,0
1523619895690,-1376256,-126,-56,-1,-1,0
1523619895690,1245184,-126,-56,-1,-1,0
1523619895746,4259840,-126,-56,-1,-1,0
1523619895746,4849664,-126,-56,-1,-1,0
1523619895746,1441792,-126,-56,-1,-1,0
1523619895746,-3145728,-126,-56,-1,-1,0
1523619895746,-5046272,-126,-56,-1,-1,0
1523619895776,-3801088,-126,-56,-1,-1,0
1523619895776,-2293760,-126,-56,-1,-1,0
1523619895776,-1572864,-126,-56,-1,-1,0
1523619895776,-1245184,-126,-56,-1,-1,0
1523619895776,-851968,-126,-56,-1,-1,0
1523619895813,-458752,-126,-56,-1,-1,0
1523619895813,-65536,-126,-56,-1,-1,0
1523619895813,393216,-126,-56,-1,-1,0
1523619895813,917504,-126,-56,-1,-1,0
1523619895813,1376256,-126,-56,-1,-1,0
1523619895850,1835008,-126,-56,-1,-1,0
1523619895850,2424832,-126,-56,-1,-1,0
1523619895850,3211264,-126,-56,-1,-1,0
1523619895850,4063232,-126,-56,-1,-1,0
1523619895850,5046272,-126,-56,-1,-1,0
1523619895891,5767168,-126,-56,-1,-1,0
1523619895891,6291456,-126,-56,-1,-1,0
1523619895891,6356992,-126,-56,-1,-1,0
1523619895891,6225920,-126,-56,-1,-1,0
1523619895891,5767168,-126,-56,-1,-1,0
1523619895948,5046272,-126,-56,-1,-1,0
1523619895948,4194304,-126,-56,-1,-1,0
1523619895948,3473408,-126,-56,-1,-1,0
1523619895948,2818048,-126,-56,-1,-1,0
1523619895948,2424832,-126,-56,-1,-1,0
1523619895971,2162688,-127,-56,-1,-1,0
1523619895971,1900544,-127,-56,-1,-1,0
1523619895971,1638400,-127,-56,-1,-1,0
1523619895971,1441792,-127,-56,-1,-1,0
1523619895971,1310720,-127,-56,-1,-1,0
1523619896031,1179648,-127,-56,-1,-1,0
1523619896031,1048576,-127,-56,-1,-1,0
1523619896031,851968,-127,-56,-1,-1,0
1523619896031,589824,-127,-56,-1,-1,0
1523619896031,393216,-127,-56,-1,-1,0
1523619896050,196608,-127,-56,-1,-1,0
1523619896050,65536,-127,-56,-1,-1,0
1523619896050,-65536,-127,-56,-1,-1,0
1523619896050,0,-127,-56,-1,-1,0
1523619896050,131072,-127,-56,-1,-1,0
1523619896091,327680,-127,-56,-1,-1,0
1523619896091,393216,-127,-56,-1,-1,0
1523619896091,327680,-127,-56,-1,-1,0
1523619896091,196608,-127,-56,-1,-1,0
1523619896091,0,-127,-56,-1,-1,0
1523619896140,-327680,-127,-56,-1,-1,0
1523619896140,-524288,-127,-56,-1,-1,0
1523619896140,-589824,-127,-56,-1,-1,0
1523619896140,-655360,-127,-56,-1,-1,0
1523619896140,-720896,-127,-56,-1,-1,0
1523619896170,-851968,-127,-56,-1,-1,0
1523619896170,-1048576,-127,-56,-1,-1,0
1523619896170,-262144,-127,-56,-1,-1,0
1523619896170,2031616,-127,-56,-1,-1,0
1523619896170,4521984,-127,-56,-1,-1,0
1523619896216,4390912,-127,-56,-1,-1,0
1523619896216,655360,-127,-56,-1,-1,0
1523619896216,-3735552,-127,-56,-1,-1,0
1523619896216,-5505024,-127,-56,-1,-1,0
1523619896216,-4325376,-127,-56,-1,-1,0
1523619896250,-2883584,-127,-56,-1,-1,0
1523619896250,-2162688,-127,-56,-1,-1,0
1523619896250,-1966080,-127,-56,-1,-1,0
1523619896250,-1835008,-127,-56,-1,-1,0
1523619896250,-1703936,-127,-56,-1,-1,0
1523619896296,-1507328,-127,-56,-1,-1,0
1523619896296,-1310720,-127,-56,-1,-1,0
1523619896296,-1048576,-127,-56,-1,-1,0
1523619896296,-655360,-127,-56,-1,-1,0
1523619896296,-262144,-127,-56,-1,-1,0
1523619896332,65536,-127,-56,-1,-1,0
1523619896332,655360,-127,-56,-1,-1,0
1523619896332,1376256,-127,-56,-1,-1,0
1523619896332,2097152,-127,-56,-1,-1,0
1523619896332,2752512,-127,-56,-1,-1,0
1523619896370,3145728,-127,-56,-1,-1,0
1523619896370,3211264,-127,-56,-1,-1,0
1523619896370,3014656,-127,-56,-1,-1,0
1523619896370,2490368,-127,-56,-1,-1,0
1523619896370,1835008,-127,-56,-1,-1,0
1523619896416,983040,-127,-56,-1,-1,0
1523619896416,262144,-127,-56,-1,-1,0
1523619896416,-262144,-127,-56,-1,-1,0
1523619896416,-720896,-127,-56,-1,-1,0
1523619896416,-983040,-127,-56,-1,-1,0
1523619896451,-1179648,-127,-56,-1,-1,0
1523619896451,-1310720,-127,-56,-1,-1,0
1523619896451,-1507328,-127,-56,-1,-1,0
1523619896451,-1638400,-127,-56,-1,-1,0
1523619896451,-1835008,-127,-56,-1,-1,0
1523619896491,-2031616,-127,-56,-1,-1,0
1523619896491,-2162688,-127,-56,-1,-1,0
1523619896491,-2293760,-127,-56,-1,-1,0
1523619896491,-2424832,-127,-56,-1,-1,0
1523619896491,-2490368,-127,-56,-1,-1,0
1523619896530,-2555904,-127,-56,-1,-1,0
1523619896530,-2621440,-127,-56,-1,-1,0
1523619896530,-2621440,-127,-56,-1,-1,0
1523619896530,-2424832,-127,-56,-1,-1,0
1523619896530,-2097152,-127,-56,-1,-1,0
1523619896571,-1900544,-127,-56,-1,-1,0
1523619896571,-1835008,-127,-56,-1,-1,0
1523619896571,-1835008,-127,-56,-1,-1,0
1523619896571,-1966080,-127,-56,-1,-1,0
1523619896571,-2097152,-127,-56,-1,-1,0
1523619896610,-2228224,-127,-56,-1,-1,0
1523619896610,-2293760,-127,-56,-1,-1,0
1523619896610,-2359296,-127,-56,-1,-1,0
1523619896610,-2293760,-127,-56,-1,-1,0
1523619896610,-2293760,-127,-56,-1,-1,0
1523619896651,-2490368,-127,-56,-1,-1,0
1523619896651,-2555904,-127,-56,-1,-1,0
1523619896651,-1441792,-127,-56,-1,-1,0
1523619896651,917504,-127,-56,-1,-1,0
1523619896651,2883584,-127,-56,-1,-1,0
1523619896690,2031616,-127,-56,-1,-1,0
1523619896690,-1638400,-127,-56,-1,-1,0
1523619896690,-4784128,-127,-56,-1,-1,0
1523619896690,-5111808,-127,-56,-1,-1,0
1523619896690,-3473408,-127,-56,-1,-1,0
1523619896731,-2162688,-127,-56,-1,-1,0
1523619896731,-1572864,-127,-56,-1,-1,0
1523619896731,-1310720,-127,-56,-1,-1,0
1523619896731,-1114112,-127,-56,-1,-1,0
1523619896731,-786432,-127,-56,-1,-1,0
1523619896771,-458752,-127,-56,-1,-1,0
1523619896771,-131072,-127,-56,-1,-1,0
1523619896771,196608,-127,-56,-1,-1,0
1523619896771,655360,-127,-56,-1,-1,0
1523619896771,1245184,-127,-56,-1,-1,0
1523619896810,1835008,-127,-56,-1,-1,0
1523619896810,2555904,-127,-56,-1,-1,0
1523619896810,3342336,-127,-56,-1,-1,0
1523619896810,4128768,-127,-56,-1,-1,0
1523619896810,4718592,-127,-56,-1,-1,0
1523619896851,5046272,-127,-56,-1,-1,0
1523619896851,5111808,-127,-56,-1,-1,0
1523619896851,4915200,-127,-56,-1,-1,0
1523619896851,4456448,-127,-56,-1,-1,0
1523619896851,3866624,-127,-56,-1,-1,0
1523619896892,3211264,-127,-56,-1,-1,0
1523619896892,2555904,-127,-56,-1,-1,0
1523619896892,2031616,-127,-56,-1,-1,0
1523619896892,1638400,-127,-56,-1,-1,0
1523619896892,1310720,-127,-56,-1,-1,0
1523619896931,1048576,-127,-56,-1,-1,0
1523619896931,786432,-127,-56,-1,-1,0
1523619896931,589824,-127,-56,-1,-1,0
1523619896931,393216,-127,-56,-1,-1,0
1523619896931,262144,-127,-56,-1,-1,0
1523619896972,131072,-127,-56,-1,-1,0
1523619896972,0,-127,-56,-1,-1,0
1523619896972,-131072,-127,-56,-1,-1,0
1523619896972,-262144,-127,-56,-1,-1,0
1523619896972,-393216,-127,-56,-1,-1,0
1523619897010,-393216,-127,-56,-1,-1,0
1523619897010,-458752,-127,-56,-1,-1,0
1523619897010,-458752,-127,-56,-1,-1,0
1523619897010,-262144,-127,-56,-1,-1,0
1523619897010,0,-127,-56,-1,-1,0
1523619897050,131072,-127,-56,-1,-1,0
1523619897050,131072,-127,-56,-1,-1,0
1523619897050,65536,-127,-56,-1,-1,0
1523619897050,0,-127,-56,-1,-1,0
1523619897050,-196608,-127,-56,-1,-1,0
1523619897090,-393216,-127,-56,-1,-1,0
1523619897090,-589824,-127,-56,-1,-1,0
1523619897090,-655360,-127,-56,-1,-1,0
1523619897090,-655360,-127,-56,-1,-1,0
1523619897090,-655360,-127,-56,-1,-1,0
1523619897130,-917504,-127,-56,-1,-1,0
1523619897130,-1310720,-127,-56,-1,-1,0
1523619897130,-720896,-127,-56,-1,-1,0
1523619897130,1245184,-127,-56,-1,-1,0
1523619897130,2949120,-127,-56,-1,-1,0
1523619897172,2228224,-127,-56,-1,-1,0
1523619897172,-917504,-127,-56,-1,-1,0
1523619897172,-3801088,-127,-56,-1,-1,0
1523619897172,-4259840,-127,-56,-1,-1,0
1523619897172,-2818048,-127,-56,-1,-1,0
1523619897216,-1507328,-127,-56,-1,-1,0
1523619897216,-851968,-127,-56,-1,-1,0
1523619897216,-524288,-127,-56,-1,-1,0
1523619897216,-262144,-127,-56,-1,-1,0
1523619897216,0,-127,-56,-1,-1,0
1523619897250,131072,-127,-56,-1,-1,0
1523619897250,393216,-127,-56,-1,-1,0
1523619897250,786432,-127,-56,-1,-1,0
1523619897250,1245184,-127,-56,-1,-1,0
1523619897250,1703936,-127,-56,-1,-1,0
1523619897292,2293760,-127,-56,-1,-1,0
1523619897292,3014656,-127,-56,-1,-1,0
1523619897292,3735552,-127,-56,-1,-1,0
1523619897292,4456448,-127,-56,-1,-1,0
1523619897292,5046272,-127,-56,-1,-1,0
1523619897346,5373952,-127,-56,-1,-1,0
1523619897346,5439488,-127,-56,-1,-1,0
1523619897346,5308416,-127,-56,-1,-1,0
1523619897346,4915200,-127,-56,-1,-1,0
1523619897346,4390912,-127,-56,-1,-1,0
1523619897376,3670016,-127,-56,-1,-1,0
1523619897376,3014656,-127,-56,-1,-1,0
1523619897376,2424832,-127,-56,-1,-1,0
1523619897376,1966080,-127,-56,-1,-1,0
1523619897376,1638400,-127,-56,-1,-1,0
1523619897412,1376256,-127,-56,-1,-1,0
1523619897412,1114112,-127,-56,-1,-1,0
1523619897412,917504,-127,-56,-1,-1,0
1523619897412,720896,-127,-56,-1,-1,0
1523619897412,655360,-127,-56,-1,-1,0
1523619897450,458752,-127,-56,-1,-1,0
1523619897450,327680,-127,-56,-1,-1,0
1523619897450,131072,-127,-56,-1,-1,0
1523619897450,0,-127,-56,-1,-1,0
1523619897450,-131072,-127,-56,-1,-1,0
1523619897542,-196608,-127,-56,-1,-1,0
1523619897542,-327680,-127,-56,-1,-1,0
1523619897542,-393216,-127,-56,-1,-1,0
1523619897542,-262144,-127,-56,-1,-1,0
1523619897542,0,-127,-56,-1,-1,0
1523619897547,196608,-127,-56,-1,-1,0
1523619897547,196608,-127,-56,-1,-1,0
1523619897547,65536,-127,-56,-1,-1,0
1523619897547,-65536,-127,-56,-1,-1,0
1523619897547,-327680,-127,-56,-1,-1,0
1523619897581,-655360,-127,-56,-1,-1,0
1523619897581,-983040,-127,-56,-1,-1,0
1523619897581,-1048576,-127,-56,-1,-1,0
1523619897581,-1048576,-127,-56,-1,-1,0
1523619897581,-1048576,-127,-56,-1,-1,0
1523619897614,-1376256,-127,-56,-1,-1,0
1523619897614,-1835008,-127,-56,-1,-1,0
1523619897614,-1376256,-127,-56,-1,-1,0
1523619897614,589824,-127,-56,-1,-1,0
1523619897614,2949120,-127,-56,-1,-1,0
1523619897653,2949120,-127,-56,-1,-1,0
1523619897653,-262144,-127,-56,-1,-1,0
1523619897653,-4259840,-127,-56,-1,-1,0
1523619897653,-5767168,-127,-56,-1,-1,0
1523619897653,-4784128,-127,-56,-1,-1,0
1523619897690,-3604480,-127,-56,-1,-1,0
1523619897690,-3014656,-127,-56,-1,-1,0
1523619897690,-2752512,-127,-56,-1,-1,0
1523619897690,-2555904,-127,-56,-1,-1,0
1523619897690,-2359296,-127,-56,-1,-1,0
1523619897731,-2228224,-127,-56,-1,-1,0
1523619897731,-2031616,-127,-56,-1,-1,0
1523619897731,-1769472,-127,-56,-1,-1,0
1523619897731,-1507328,-127,-56,-1,-1,0
1523619897731,-1179648,-127,-56,-1,-1,0
1523619897772,-720896,-127,-56,-1,-1,0
1523619897772,-65536,-127,-56,-1,-1,0
1523619897772,458752,-127,-56,-1,-1,0
1523619897772,1114112,-127,-56,-1,-1,0
1523619897772,1769472,-127,-56,-1,-1,0
1523619897810,2228224,-127,-56,-1,-1,0
1523619897810,2293760,-127,-56,-1,-1,0
1523619897810,1966080,-127,-56,-1,-1,0
1523619897810,1310720,-127,-56,-1,-1,0
1523619897810,393216,-127,-56,-1,-1,0
1523619897851,-458752,-127,-56,-1,-1,0
1523619897851,-1179648,-127,-56,-1,-1,0
1523619897851,-1900544,-127,-56,-1,-1,0
1523619897851,-2490368,-127,-56,-1,-1,0
1523619897851,-2949120,-127,-56,-1,-1,0
1523619897890,-3473408,-127,-56,-1,-1,0
1523619897890,-4128768,-127,-56,-1,-1,0
1523619897890,-4653056,-127,-56,-1,-1,0
1523619897890,-4915200,-127,-56,-1,-1,0
1523619897890,-5177344,-127,-56,-1,-1,0
1523619897931,-5373952,-127,-56,-1,-1,0
1523619897931,-5832704,-127,-56,-1,-1,0
1523619897931,-6094848,-127,-56,-1,-1,0
1523619897931,-6356992,-127,-56,-1,-1,0
1523619897931,-6356992,-127,-56,-1,-1,0
1523619897970,-6225920,-127,-56,-1,-1,0
1523619897970,-6094848,-127,-56,-1,-1,0
1523619897970,-6291456,-127,-56,-1,-1,0
1523619897970,-6225920,-127,-56,-1,-1,0
1523619897970,-5767168,-127,-56,-1,-1,0
1523619898011,-5111808,-127,-56,-1,-1,0
1523619898011,-4587520,-127,-56,-1,-1,0
1523619898011,-4325376,-127,-56,-1,-1,0
1523619898011,-4325376,-127,-56,-1,-1,0
1523619898011,-4259840,-127,-56,-1,-1,0
1523619898050,-4128768,-127,-56,-1,-1,0
1523619898050,-3866624,-127,-56,-1,-1,0
1523619898050,-3670016,-127,-56,-1,-1,0
1523619898050,-3276800,-127,-56,-1,-1,0
1523619898050,-3014656,-127,-56,-1,-1,0
1523619898090,-3080192,-127,-56,-1,-1,0
1523619898090,-3145728,-127,-56,-1,-1,0
1523619898090,-1769472,-127,-56,-1,-1,0
1523619898090,1179648,-127,-56,-1,-1,0
1523619898090,3997696,-127,-56,-1,-1,0
1523619898130,3735552,-127,-56,-1,-1,0
1523619898130,-65536,-127,-56,-1,-1,0
1523619898130,-4259840,-127,-56,-1,-1,0
1523619898130,-5505024,-127,-56,-1,-1,0
1523619898130,-3932160,-127,-56,-1,-1,0
1523619898170,-2293760,-127,-56,-1,-1,0
1523619898170,-1572864,-127,-56,-1,-1,0
1523619898170,-1441792,-127,-56,-1,-1,0
1523619898170,-1310720,-127,-56,-1,-1,0
1523619898170,-786432,-127,-56,-1,-1,0
1523619898210,-458752,-127,-56,-1,-1,0
1523619898210,-262144,-127,-56,-1,-1,0
1523619898210,-65536,-127,-56,-1,-1,0
1523619898210,131072,-127,-56,-1,-1,0
1523619898210,393216,-127,-56,-1,-1,0
1523619898250,720896,-127,-56,-1,-1,0
1523619898250,1245184,-127,-56,-1,-1,0
1523619898250,2031616,-127,-56,-1,-1,0
1523619898250,2883584,-127,-56,-1,-1,0
1523619898250,3538944,-127,-56,-1,-1,0
1523619898290,3932160,-127,-56,-1,-1,0
1523619898290,3801088,-127,-56,-1,-1,0
1523619898290,3473408,-127,-56,-1,-1,0
1523619898290,2949120,-127,-56,-1,-1,0
1523619898290,2031616,-127,-56,-1,-1,0
1523619898331,983040,-127,-56,-1,-1,0
1523619898331,65536,-127,-56,-1,-1,0
1523619898331,-655360,-127,-56,-1,-1,0
1523619898331,-1245184,-127,-56,-1,-1,0
1523619898331,-1703936,-127,-56,-1,-1,0
1523619898371,-1966080,-127,-56,-1,-1,0
1523619898371,-2162688,-127,-56,-1,-1,0
1523619898371,-2424832,-127,-56,-1,-1,0
1523619898371,-2752512,-127,-56,-1,-1,0
1523619898371,-3211264,-127,-56,-1,-1,0
1523619898410,-3604480,-127,-56,-1,-1,0
1523619898410,-3932160,-127,-56,-1,-1,0
1523619898410,-4194304,-127,-56,-1,-1,0
1523619898410,-4259840,-127,-56,-1,-1,0
1523619898410,-4325376,-127,-56,-1,-1,0
1523619898450,-4521984,-127,-56,-1,-1,0
1523619898450,-4784128,-127,-56,-1,-1,0
1523619898450,-4915200,-127,-56,-1,-1,0
1523619898450,-4784128,-127,-56,-1,-1,0
1523619898450,-4521984,-127,-56,-1,-1,0
1523619898491,-4390912,-127,-56,-1,-1,0
1523619898491,-4259840,-127,-56,-1,-1,0
1523619898491,-4194304,-127,-56,-1,-1,0
1523619898491,-4456448,-127,-56,-1,-1,0
1523619898491,-4653056,-127,-56,-1,-1,0
1523619898530,-4587520,-127,-56,-1,-1,0
1523619898530,-4325376,-127,-56,-1,-1,0
1523619898530,-3932160,-127,-56,-1,-1,0
1523619898530,-3080192,-127,-56,-1,-1,0
1523619898530,-2097152,-127,-56,-1,-1,0
1523619898570,-983040,-127,-56,-1,-1,0
1523619898570,589824,-127,-56,-1,-1,0
1523619898570,3866624,-127,-56,-1,-1,0
1523619898570,8650752,-127,-56,-1,-1,0
1523619898570,12189696,-127,-56,-1,-1,0
1523619898610,11468800,-127,-56,-1,-1,0
1523619898610,7208960,-127,-56,-1,-1,0
1523619898610,4194304,-127,-56,-1,-1,0
1523619898610,4784128,-127,-56,-1,-1,0
1523619898610,6881280,-127,-56,-1,-1,0
1523619898650,8519680,-127,-56,-1,-1,0
1523619898650,9502720,-127,-56,-1,-1,0
1523619898650,9830400,-127,-56,-1,-1,0
1523619898650,9961472,-127,-56,-1,-1,0
1523619898650,10354688,-127,-56,-1,-1,0
1523619898690,10747904,-127,-56,-1,-1,0
1523619898690,11010048,-127,-56,-1,-1,0
1523619898690,11337728,-127,-56,-1,-1,0
1523619898690,11796480,-127,-56,-1,-1,0
1523619898690,12386304,-127,-56,-1,-1,0
1523619898730,13238272,-127,-56,-1,-1,0
1523619898730,14024704,-127,-56,-1,-1,0
1523619898730,14614528,-127,-56,-1,-1,0
1523619898730,15204352,-127,-56,-1,-1,0
1523619898730,15532032,-127,-56,-1,-1,0
1523619898770,15532032,-127,-56,-1,-1,0
1523619898770,15400960,-127,-56,-1,-1,0
1523619898770,15007744,-127,-56,-1,-1,0
1523619898770,13959168,-127,-56,-1,-1,0
1523619898770,12582912,-127,-56,-1,-1,0
1523619898811,10944512,-128,-56,-1,-1,0
1523619898811,9437184,-128,-56,-1,-1,0
1523619898811,8126464,-128,-56,-1,-1,0
1523619898811,7077888,-128,-56,-1,-1,0
1523619898811,5898240,-128,-56,-1,-1,0
1523619898850,4849664,-128,-56,-1,-1,0
1523619898850,3932160,-128,-56,-1,-1,0
1523619898850,2883584,-128,-56,-1,-1,0
1523619898850,1966080,-128,-56,-1,-1,0
1523619898850,1441792,-128,-56,-1,-1,0
1523619898890,917504,-128,-56,-1,-1,0
1523619898890,393216,-128,-56,-1,-1,0
1523619898890,-131072,-128,-56,-1,-1,0
1523619898890,-786432,-128,-56,-1,-1,0
1523619898890,-1376256,-128,-56,-1,-1,0
1523619898930,-1835008,-128,-56,-1,-1,0
1523619898930,-2228224,-128,-56,-1,-1,0
1523619898930,-2359296,-128,-56,-1,-1,0
1523619898930,-2293760,-128,-56,-1,-1,0
1523619898930,-2293760,-128,-56,-1,-1,0
1523619898972,-2359296,-128,-56,-1,-1,0
1523619898972,-2490368,-128,-56,-1,-1,0
1523619898972,-2686976,-128,-56,-1,-1,0
1523619898972,-2883584,-128,-56,-1,-1,0
1523619898972,-3145728,-128,-56,-1,-1,0
1523619899010,-3538944,-128,-56,-1,-1,0
1523619899010,-3932160,-128,-56,-1,-1,0
1523619899010,-3997696,-128,-56,-1,-1,0
1523619899010,-3801088,-128,-56,-1,-1,0
1523619899010,-3997696,-128,-56,-1,-1,0
1523619899050,-4194304,-128,-56,-1,-1,0
1523619899050,-2621440,-128,-56,-1,-1,0
1523619899050,983040,-128,-56,-1,-1,0
1523619899050,4456448,-128,-56,-1,-1,0
1523619899050,4063232,-128,-56,-1,-1,0
1523619899090,-917504,-128,-56,-1,-1,0
1523619899090,-5963776,-128,-56,-1,-1,0
1523619899090,-7143424,-128,-56,-1,-1,0
1523619899090,-5963776,-128,-56,-1,-1,0
1523619899090,-5242880,-128,-56,-1,-1,0
1523619899136,-4718592,-128,-56,-1,-1,0
1523619899136,-4194304,-128,-56,-1,-1,0
1523619899136,-3997696,-128,-56,-1,-1,0
1523619899136,-3997696,-128,-56,-1,-1,0
1523619899136,-3866624,-128,-56,-1,-1,0
1523619899171,-3604480,-128,-56,-1,-1,0
1523619899171,-3080192,-128,-56,-1,-1,0
1523619899171,-2818048,-128,-56,-1,-1,0
1523619899171,-2818048,-128,-56,-1,-1,0
1523619899171,-2490368,-128,-56,-1,-1,0
1523619899211,-1835008,-128,-56,-1,-1,0
1523619899211,-1114112,-128,-56,-1,-1,0
1523619899211,-458752,-128,-56,-1,-1,0
1523619899211,196608,-128,-56,-1,-1,0
1523619899211,720896,-128,-56,-1,-1,0
1523619899250,786432,-128,-56,-1,-1,0
1523619899250,589824,-128,-56,-1,-1,0
1523619899250,262144,-128,-56,-1,-1,0
1523619899250,-393216,-128,-56,-1,-1,0
1523619899250,-1245184,-128,-56,-1,-1,0
1523619899290,-1507328,-128,-56,-1,-1,0
1523619899290,-1507328,-128,-56,-1,-1,0
1523619899290,-1769472,-128,-56,-1,-1,0
1523619899290,-2162688,-128,-56,-1,-1,0
1523619899290,-2424832,-128,-56,-1,-1,0
1523619899330,-2359296,-128,-56,-1,-1,0
1523619899330,-2228224,-128,-56,-1,-1,0
1523619899330,-2162688,-128,-56,-1,-1,0
1523619899330,-2424832,-128,-56,-1,-1,0
1523619899330,-3080192,-128,-56,-1,-1,0
1523619899373,-3932160,-128,-56,-1,-1,0
1523619899373,-4325376,-128,-56,-1,-1,0
1523619899373,-4653056,-128,-56,-1,-1,0
1523619899373,-4587520,-128,-56,-1,-1,0
1523619899373,-4259840,-128,-56,-1,-1,0
1523619899410,-3932160,-128,-56,-1,-1,0
1523619899410,-3997696,-128,-56,-1,-1,0
1523619899410,-4194304,-128,-56,-1,-1,0
1523619899410,-4325376,-128,-56,-1,-1,0
1523619899410,-4521984,-128,-56,-1,-1,0
1523619899451,-4587520,-128,-56,-1,-1,0
1523619899451,-4653056,-128,-56,-1,-1,0
1523619899451,-4653056,-128,-56,-1,-1,0
1523619899451,-4653056,-128,-56,-1,-1,0
1523619899451,-4653056,-128,-56,-1,-1,0
1523619899490,-4784128,-128,-56,-1,-1,0
1523619899490,-4915200,-128,-56,-1,-1,0
1523619899490,-4849664,-128,-56,-1,-1,0
1523619899490,-4980736,-128,-56,-1,-1,0
1523619899490,-5111808,-128,-56,-1,-1,0
1523619899536,-3866624,-128,-56,-1,-1,0
1523619899536,-720896,-128,-56,-1,-1,0
1523619899536,2555904,-128,-56,-1,-1,0
1523619899536,2752512,-128,-56,-1,-1,0
1523619899536,-1638400,-128,-56,-1,-1,0
1523619899572,-6488064,-128,-56,-1,-1,0
1523619899572,-7733248,-128,-56,-1,-1,0
1523619899572,-6029312,-128,-56,-1,-1,0
1523619899572,-4587520,-128,-56,-1,-1,0
1523619899572,-3997696,-128,-56,-1,-1,0
1523619899610,-3604480,-128,-56,-1,-1,0
1523619899610,-3538944,-128,-56,-1,-1,0
1523619899610,-3538944,-128,-56,-1,-1,0
1523619899610,-3473408,-128,-56,-1,-1,0
1523619899610,-2818048,-128,-56,-1,-1,0
1523619899650,-2293760,-128,-56,-1,-1,0
1523619899650,-1900544,-128,-56,-1,-1,0
1523619899650,-1376256,-128,-56,-1,-1,0
1523619899650,-524288,-128,-56,-1,-1,0
1523619899650,393216,-128,-56,-1,-1,0
1523619899690,1572864,-128,-56,-1,-1,0
1523619899690,2686976,-128,-56,-1,-1,0
1523619899690,3670016,-128,-56,-1,-1,0
1523619899690,4390912,-128,-56,-1,-1,0
1523619899690,4915200,-128,-56,-1,-1,0
1523619899731,5373952,-128,-56,-1,-1,0
1523619899731,5439488,-128,-56,-1,-1,0
1523619899731,5242880,-128,-56,-1,-1,0
1523619899731,4849664,-128,-56,-1,-1,0
1523619899731,4456448,-128,-56,-1,-1,0
1523619899772,4063232,-128,-56,-1,-1,0
1523619899772,4063232,-128,-56,-1,-1,0
1523619899772,3997696,-128,-56,-1,-1,0
1523619899772,3735552,-128,-56,-1,-1,0
1523619899772,3342336,-128,-56,-1,-1,0
1523619899810,3080192,-128,-56,-1,-1,0
1523619899810,2883584,-128,-56,-1,-1,0
1523619899810,2752512,-128,-56,-1,-1,0
1523619899810,2490368,-128,-56,-1,-1,0
1523619899810,2293760,-128,-56,-1,-1,0
1523619899850,2162688,-128,-56,-1,-1,0
1523619899850,2097152,-128,-56,-1,-1,0
1523619899850,1900544,-128,-56,-1,-1,0
1523619899850,1769472,-128,-56,-1,-1,0
1523619899850,1703936,-128,-56,-1,-1,0
1523619899890,1703936,-128,-56,-1,-1,0
1523619899890,1835008,-128,-56,-1,-1,0
1523619899890,2097152,-128,-56,-1,-1,0
1523619899890,2162688,-128,-56,-1,-1,0
1523619899890,2097152,-128,-56,-1,-1,0
1523619899930,2097152,-128,-56,-1,-1,0
1523619899930,2228224,-128,-56,-1,-1,0
1523619899930,1966080,-128,-56,-1,-1,0
1523619899930,1441792,-128,-56,-1,-1,0
1523619899930,1245184,-128,-56,-1,-1,0
1523619899970,1376256,-128,-56,-1,-1,0
1523619899970,1703936,-128,-56,-1,-1,0
1523619899970,1703936,-128,-56,-1,-1,0
1523619899970,1245184,-128,-56,-1,-1,0
1523619899970,655360,-128,-56,-1,-1,0
1523619900010,1441792,-128,-56,-1,-1,0
1523619900010,3735552,-128,-56,-1,-1,0
1523619900010,5242880,-128,-56,-1,-1,0
1523619900010,3473408,-128,-56,-1,-1,0
1523619900010,-131072,-128,-56,-1,-1,0
1523619900050,-2621440,-128,-56,-1,-1,0
1523619900050,-2555904,-128,-56,-1,-1,0
1523619900050,-1048576,-128,-56,-1,-1,0
1523619900050,458752,-128,-56,-1,-1,0
1523619900050,1572864,-128,-56,-1,-1,0
1523619900090,2228224,-128,-56,-1,-1,0
1523619900090,2752512,-128,-56,-1,-1,0
1523619900090,3080192,-128,-56,-1,-1,0
1523619900090,3276800,-128,-56,-1,-1,0
1523619900090,3473408,-128,-56,-1,-1,0
1523619900130,3932160,-128,-56,-1,-1,0
1523619900130,4521984,-128,-56,-1,-1,0
1523619900130,5046272,-128,-56,-1,-1,0
1523619900130,5439488,-128,-56,-1,-1,0
1523619900130,6160384,-128,-56,-1,-1,0
1523619900170,7274496,-128,-56,-1,-1,0
1523619900170,8126464,-128,-56,-1,-1,0
1523619900170,8847360,-128,-56,-1,-1,0
1523619900170,9437184,-128,-56,-1,-1,0
1523619900170,9764864,-128,-56,-1,-1,0
1523619900210,10027008,-128,-56,-1,-1,0
1523619900210,9961472,-128,-56,-1,-1,0
1523619900210,9371648,-128,-56,-1,-1,0
1523619900210,8650752,-128,-56,-1,-1,0
1523619900210,7733248,-128,-56,-1,-1,0
1523619900250,6094848,-128,-56,-1,-1,0
1523619900250,4063232,-128,-56,-1,-1,0
1523619900250,2293760,-128,-56,-1,-1,0
1523619900250,851968,-128,-56,-1,-1,0
1523619900250,-262144,-128,-56,-1,-1,0
1523619900290,-1179648,-128,-56,-1,-1,0
1523619900290,-1900544,-128,-56,-1,-1,0
1523619900290,-2555904,-128,-56,-1,-1,0
1523619900290,-2883584,-128,-56,-1,-1,0
1523619900290,-3145728,-128,-56,-1,-1,0
1523619900330,-3342336,-128,-56,-1,-1,0
1523619900330,-3670016,-128,-56,-1,-1,0
1523619900330,-3801088,-128,-56,-1,-1,0
1523619900330,-3735552,-128,-56,-1,-1,0
1523619900330,-3670016,-128,-56,-1,-1,0
1523619900370,-3801088,-128,-56,-1,-1,0
1523619900370,-3932160,-128,-56,-1,-1,0
1523619900370,-4063232,-128,-56,-1,-1,0
1523619900370,-4325376,-128,-56,-1,-1,0
1523619900370,-4784128,-128,-56,-1,-1,0
1523619900411,-5308416,-128,-56,-1,-1,0
1523619900411,-5767168,-128,-56,-1,-1,0
1523619900411,-5963776,-128,-56,-1,-1,0
1523619900411,-5832704,-128,-56,-1,-1,0
1523619900411,-5898240,-128,-56,-1,-1,0
1523619900450,-6160384,-128,-56,-1,-1,0
1523619900450,-6553600,-128,-56,-1,-1,0
1523619900450,-6029312,-128,-56,-1,-1,0
1523619900450,-3604480,-128,-56,-1,-1,0
1523619900450,-393216,-128,-56,-1,-1,0
1523619900490,262144,-128,-56,-1,-1,0
1523619900490,-3145728,-128,-56,-1,-1,0
1523619900490,-7864320,-128,-56,-1,-1,0
1523619900490,-9961472,-128,-56,-1,-1,0
1523619900490,-8912896,-128,-56,-1,-1,0
1523619900530,-6815744,-128,-56,-1,-1,0
1523619900530,-5177344,-128,-56,-1,-1,0
1523619900530,-4521984,-128,-56,-1,-1,0
1523619900530,-4128768,-128,-56,-1,-1,0
1523619900530,-3670016,-128,-56,-1,-1,0
1523619900570,-3211264,-128,-56,-1,-1,0
1523619900570,-2752512,-128,-56,-1,-1,0
1523619900570,-2097152,-128,-56,-1,-1,0
1523619900570,-1441792,-128,-56,-1,-1,0
1523619900570,-851968,-128,-56,-1,-1,0
1523619900610,-524288,-128,-56,-1,-1,0
1523619900610,0,-128,-56,-1,-1,0
1523619900610,851968,-128,-56,-1,-1,0
1523619900610,2031616,-128,-56,-1,-1,0
1523619900610,3080192,-128,-56,-1,-1,0
1523619900650,3997696,-128,-56,-1,-1,0
1523619900650,4653056,-128,-56,-1,-1,0
1523619900650,4784128,-128,-56,-1,-1,0
1523619900650,4259840,-128,-56,-1,-1,0
1523619900650,3407872,-128,-56,-1,-1,0
1523619900690,2555904,-128,-56,-1,-1,0
1523619900690,1769472,-128,-56,-1,-1,0
1523619900690,655360,-128,-56,-1,-1,0
1523619900690,-786432,-128,-56,-1,-1,0
1523619900690,-2359296,-128,-56,-1,-1,0
1523619900730,-3211264,-128,-56,-1,-1,0
1523619900730,-3670016,-128,-56,-1,-1,0
1523619900730,-3801088,-128,-56,-1,-1,0
1523619900730,-3866624,-128,-56,-1,-1,0
1523619900730,-3735552,-128,-56,-1,-1,0
1523619900770,-3538944,-128,-56,-1,-1,0
1523619900770,-3473408,-128,-56,-1,-1,0
1523619900770,-3342336,-128,-56,-1,-1,0
1523619900770,-3014656,-128,-56,-1,-1,0
1523619900770,-2949120,-128,-56,-1,-1,0
1523619900810,-3014656,-128,-56,-1,-1,0
1523619900810,-3080192,-128,-56,-1,-1,0
1523619900810,-3407872,-128,-56,-1,-1,0
1523619900810,-3801088,-128,-56,-1,-1,0
1523619900810,-4063232,-128,-56,-1,-1,0
1523619900850,-4259840,-128,-56,-1,-1,0
1523619900850,-4194304,-128,-56,-1,-1,0
1523619900850,-4259840,-128,-56,-1,-1,0
1523619900850,-4849664,-128,-56,-1,-1,0
1523619900850,-5308416,-128,-56,-1,-1,0
1523619900890,-5046272,-128,-56,-1,-1,0
1523619900890,-4587520,-128,-56,-1,-1,0
1523619900890,-4784128,-128,-56,-1,-1,0
1523619900890,-5308416,-128,-56,-1,-1,0
1523619900890,-5111808,-128,-56,-1,-1,0
1523619900933,-2555904,-128,-56,-1,-1,0
1523619900933,1572864,-128,-56,-1,-1,0
1523619900933,3145728,-128,-56,-1,-1,0
1523619900933,-196608,-128,-56,-1,-1,0
1523619900933,-5832704,-128,-56,-1,-1,0
1523619900970,-9043968,-128,-56,-1,-1,0
1523619900970,-9043968,-128,-56,-1,-1,0
1523619900970,-7471104,-128,-56,-1,-1,0
1523619900970,-5767168,-128,-56,-1,-1,0
1523619900970,-4653056,-128,-56,-1,-1,0
1523619901010,-3997696,-128,-56,-1,-1,0
1523619901010,-3932160,-128,-56,-1,-1,0
1523619901010,-3801088,-128,-56,-1,-1,0
1523619901010,-3407872,-128,-56,-1,-1,0
1523619901010,-2818048,-128,-56,-1,-1,0
1523619901052,-2293760,-128,-56,-1,-1,0
1523619901052,-1572864,-128,-56,-1,-1,0
1523619901052,-720896,-128,-56,-1,-1,0
1523619901052,-131072,-128,-56,-1,-1,0
1523619901052,196608,-128,-56,-1,-1,0
1523619901090,917504,-128,-56,-1,-1,0
1523619901090,1966080,-128,-56,-1,-1,0
1523619901090,2818048,-128,-56,-1,-1,0
1523619901090,3211264,-128,-56,-1,-1,0
1523619901090,3145728,-128,-56,-1,-1,0
1523619901136,2818048,-128,-56,-1,-1,0
1523619901136,2162688,-128,-56,-1,-1,0
1523619901136,1376256,-128,-56,-1,-1,0
1523619901136,458752,-128,-56,-1,-1,0
1523619901136,-196608,-128,-56,-1,-1,0
1523619901170,-655360,-128,-56,-1,-1,0
1523619901170,-720896,-128,-56,-1,-1,0
1523619901170,-589824,-128,-56,-1,-1,0
1523619901170,-786432,-128,-56,-1,-1,0
1523619901170,-917504,-128,-56,-1,-1,0
1523619901210,-655360,-128,-56,-1,-1,0
1523619901210,-655360,-128,-56,-1,-1,0
1523619901210,-1048576,-128,-56,-1,-1,0
1523619901210,-1310720,-128,-56,-1,-1,0
1523619901210,-1507328,-128,-56,-1,-1,0
1523619901250,-1900544,-128,-56,-1,-1,0
1523619901250,-2228224,-128,-56,-1,-1,0
1523619901250,-2359296,-128,-56,-1,-1,0
1523619901250,-2293760,-128,-56,-1,-1,0
1523619901250,-2097152,-128,-56,-1,-1,0
1523619901290,-2031616,-128,-56,-1,-1,0
1523619901290,-1835008,-128,-56,-1,-1,0
1523619901290,-1638400,-128,-56,-1,-1,0
1523619901290,-1572864,-128,-56,-1,-1,0
1523619901290,-1441792,-128,-56,-1,-1,0
1523619901334,-1245184,-128,-56,-1,-1,0
1523619901334,-983040,-128,-56,-1,-1,0
1523619901334,-786432,-128,-56,-1,-1,0
1523619901334,-393216,-128,-56,-1,-1,0
1523619901334,-262144,-128,-56,-1,-1,0
1523619901370,-262144,-128,-56,-1,-1,0
1523619901370,-327680,-128,-56,-1,-1,0
1523619901370,327680,-128,-56,-1,-1,0
1523619901370,2359296,-128,-56,-1,-1,0
1523619901370,4915200,-128,-56,-1,-1,0
1523619901410,5242880,-128,-56,-1,-1,0
1523619901410,2228224,-128,-56,-1,-1,0
1523619901410,-1769472,-128,-56,-1,-1,0
1523619901410,-3735552,-128,-56,-1,-1,0
1523619901410,-3145728,-128,-56,-1,-1,0
1523619901450,-1900544,-128,-56,-1,-1,0
1523619901450,-983040,-128,-56,-1,-1,0
1523619901450,-458752,-128,-56,-1,-1,0
1523619901450,-131072,-128,-56,-1,-1,0
1523619901450,131072,-128,-56,-1,-1,0
1523619901490,524288,-128,-56,-1,-1,0
1523619901490,917504,-128,-56,-1,-1,0
1523619901490,1179648,-128,-56,-1,-1,0
1523619901490,1507328,-128,-56,-1,-1,0
1523619901490,2031616,-128,-56,-1,-1,0
1523619901530,2686976,-128,-56,-1,-1,0
1523619901530,3342336,-128,-56,-1,-1,0
1523619901530,3932160,-128,-56,-1,-1,0
1523619901530,4194304,-128,-56,-1,-1,0
1523619901530,4194304,-128,-56,-1,-1,0
1523619901570,3866624,-128,-56,-1,-1,0
1523619901570,3211264,-128,-56,-1,-1,0
1523619901570,2162688,-128,-56,-1,-1,0
1523619901570,786432,-128,-56,-1,-1,0
1523619901570,-720896,-128,-56,-1,-1,0
1523619901610,-2162688,-128,-56,-1,-1,0
1523619901610,-3473408,-128,-56,-1,-1,0
1523619901610,-4784128,-128,-56,-1,-1,0
1523619901610,-6029312,-128,-56,-1,-1,0
1523619901610,-7077888,-128,-56,-1,-1,0
1523619901650,-7733248,-128,-56,-1,-1,0
1523619901650,-8323072,-128,-56,-1,-1,0
1523619901650,-8781824,-128,-56,-1,-1,0
1523619901650,-9240576,-128,-56,-1,-1,0
1523619901650,-10092544,-128,-56,-1,-1,0
1523619901691,-10944512,-128,-56,-1,-1,0
1523619901691,-11403264,-128,-56,-1,-1,0
1523619901691,-11993088,-128,-56,-1,-1,0
1523619901691,-12582912,-128,-56,-1,-1,0
1523619901691,-12779520,-128,-56,-1,-1,0
1523619901730,-12648448,-128,-56,-1,-1,0
1523619901730,-12713984,-128,-56,-1,-1,0
1523619901730,-13041664,-128,-56,-1,-1,0
1523619901730,-13107200,-128,-56,-1,-1,0
1523619901730,-12910592,-128,-56,-1,-1,0
1523619901770,-12648448,-128,-56,-1,-1,0
1523619901770,-12320768,-128,-56,-1,-1,0
1523619901770,-11665408,-128,-56,-1,-1,0
1523619901770,-10354688,-128,-56,-1,-1,0
1523619901770,-8716288,-128,-56,-1,-1,0
1523619901810,-6881280,-128,-56,-1,-1,0
1523619901810,-4849664,-128,-56,-1,-1,0
1523619901810,-2621440,-128,-56,-1,-1,0
1523619901810,65536,-128,-56,-1,-1,0
1523619901810,4194304,-128,-56,-1,-1,0
1523619901850,9633792,-128,-56,-1,-1,0
1523619901850,13762560,-128,-56,-1,-1,0
1523619901850,13631488,-128,-56,-1,-1,0
1523619901850,9633792,-128,-56,-1,-1,0
1523619901850,6946816,-128,-56,-1,-1,0
1523619901890,8126464,-128,-56,-1,-1,0
1523619901890,11468800,-128,-56,-1,-1,0
1523619901890,14286848,-128,-56,-1,-1,0
1523619901890,16121856,-128,-56,-1,-1,0
1523619901890,17367040,-128,-56,-1,-1,0
1523619901930,18350080,-128,-56,-1,-1,0
1523619901930,19398656,-128,-56,-1,-1,0
1523619901930,20250624,-128,-56,-1,-1,0
1523619901930,21102592,-128,-56,-1,-1,0
1523619901930,21954560,-128,-56,-1,-1,0
1523619901970,22609920,-128,-56,-1,-1,0
1523619901970,23134208,-128,-56,-1,-1,0
1523619901970,23855104,-128,-56,-1,-1,0
1523619901970,24641536,-128,-56,-1,-1,0
1523619901970,25559040,-128,-56,-1,-1,0
1523619902010,26542080,-128,-56,-1,-1,0
1523619902010,27131904,-128,-56,-1,-1,0
1523619902010,27066368,-128,-56,-1,-1,0
1523619902010,26607616,-128,-56,-1,-1,0
1523619902010,25821184,-128,-56,-1,-1,0
1523619902050,24379392,-128,-56,-1,-1,0
1523619902050,22740992,-128,-56,-1,-1,0
1523619902050,20971520,-128,-56,-1,-1,0
1523619902050,19202048,-128,-56,-1,-1,0
1523619902050,17498112,-128,-56,-1,-1,0
1523619902090,15925248,-128,-56,-1,-1,0
1523619902090,14483456,-128,-56,-1,-1,0
1523619902090,13238272,-128,-56,-1,-1,0
1523619902090,12124160,-128,-56,-1,-1,0
1523619902090,11075584,-128,-56,-1,-1,0
1523619902130,9764864,-128,-56,-1,-1,0
1523619902130,8126464,-128,-56,-1,-1,0
1523619902130,6422528,-128,-56,-1,-1,0
1523619902130,4915200,-128,-56,-1,-1,0
1523619902130,3735552,-128,-56,-1,-1,0
1523619902170,2424832,-128,-56,-1,-1,0
1523619902170,1245184,-128,-56,-1,-1,0
1523619902170,327680,-128,-56,-1,-1,0
1523619902170,-262144,-128,-56,-1,-1,0
1523619902170,-1114112,-128,-56,-1,-1,0
1523619902210,-1900544,-128,-56,-1,-1,0
1523619902210,-2555904,-128,-56,-1,-1,0
1523619902210,-3211264,-128,-56,-1,-1,0
1523619902210,-3735552,-128,-56,-1,-1,0
1523619902210,-4194304,-128,-56,-1,-1,0
1523619902250,-4325376,-128,-56,-1,-1,0
1523619902250,-4456448,-128,-56,-1,-1,0
1523619902250,-4784128,-128,-56,-1,-1,0
1523619902250,-5046272,-128,-56,-1,-1,0
1523619902250,-4980736,-128,-56,-1,-1,0
1523619902290,-3473408,-128,-56,-1,-1,0
1523619902290,-131072,-128,-56,-1,-1,0
1523619902290,3276800,-128,-56,-1,-1,0
1523619902290,3670016,-128,-56,-1,-1,0
1523619902290,-131072,-128,-56,-1,-1,0
1523619902331,-4784128,-128,-56,-1,-1,0
1523619902331,-6684672,-128,-56,-1,-1,0
1523619902331,-5963776,-128,-56,-1,-1,0
1523619902331,-5242880,-128,-56,-1,-1,0
1523619902331,-5439488,-128,-56,-1,-1,0
1523619902370,-6356992,-128,-56,-1,-1,0
1523619902370,-7208960,-128,-56,-1,-1,0
1523619902370,-7798784,-128,-56,-1,-1,0
1523619902370,-8192000,-128,-56,-1,-1,0
1523619902370,-8257536,-128,-56,-1,-1,0
1523619902411,-7995392,-128,-56,-1,-1,0
1523619902411,-7471104,-128,-56,-1,-1,0
1523619902411,-7077888,-128,-56,-1,-1,0
1523619902411,-6750208,-128,-56,-1,-1,0
1523619902411,-6094848,-128,-56,-1,-1,0
1523619902450,-4980736,-128,-56,-1,-1,0
1523619902450,-3932160,-128,-56,-1,-1,0
1523619902450,-3145728,-128,-56,-1,-1,0
1523619902450,-2752512,-128,-56,-1,-1,0
1523619902450,-2686976,-128,-56,-1,-1,0
1523619902491,-2883584,-128,-56,-1,-1,0
1523619902491,-3211264,-128,-56,-1,-1,0
1523619902491,-3538944,-128,-56,-1,-1,0
1523619902491,-3932160,-128,-56,-1,-1,0
1523619902491,-4128768,-128,-56,-1,-1,0
1523619902549,-4259840,-128,-56,-1,-1,0
1523619902549,-4456448,-128,-56,-1,-1,0
1523619902549,-4521984,-128,-56,-1,-1,0
1523619902549,-4390912,-128,-56,-1,-1,0
1523619902549,-4390912,-128,-56,-1,-1,0
1523619902572,-4390912,-128,-56,-1,-1,0
1523619902572,-4259840,-128,-56,-1,-1,0
1523619902572,-4390912,-128,-56,-1,-1,0
1523619902572,-4587520,-128,-56,-1,-1,0
1523619902572,-4390912,-128,-56,-1,-1,0
1523619902622,-4259840,-128,-56,-1,-1,0
1523619902622,-4456448,-128,-56,-1,-1,0
1523619902622,-4325376,-128,-56,-1,-1,0
1523619902622,-4194304,-128,-56,-1,-1,0
1523619902622,-4194304,-128,-56,-1,-1,0
1523619902650,-4194304,-128,-56,-1,-1,0
1523619902650,-4259840,-128,-56,-1,-1,0
1523619902650,-4521984,-128,-56,-1,-1,0
1523619902650,-4653056,-128,-56,-1,-1,0
1523619902650,-5373952,-128,-56,-1,-1,0
1523619902691,-6029312,-128,-56,-1,-1,0
1523619902691,-5767168,-128,-56,-1,-1,0
1523619902691,-5111808,-128,-56,-1,-1,0
1523619902691,-5373952,-128,-56,-1,-1,0
1523619902691,-5636096,-128,-56,-1,-1,0
1523619902734,-5767168,-128,-56,-1,-1,0
1523619902734,-5570560,-128,-56,-1,-1,0
1523619902734,-4128768,-128,-56,-1,-1,0
1523619902734,-589824,-128,-56,-1,-1,0
1523619902734,2228224,-128,-56,-1,-1,0
1523619902770,1179648,-128,-56,-1,-1,0
1523619902770,-3473408,-128,-56,-1,-1,0
1523619902770,-7405568,-128,-56,-1,-1,0
1523619902770,-7995392,-128,-56,-1,-1,0
1523619902770,-6422528,-128,-56,-1,-1,0
1523619902810,-5111808,-128,-56,-1,-1,0
1523619902810,-4456448,-128,-56,-1,-1,0
1523619902810,-4063232,-128,-56,-1,-1,0
1523619902810,-3604480,-128,-56,-1,-1,0
1523619902810,-3145728,-128,-56,-1,-1,0
1523619902850,-2686976,-128,-56,-1,-1,0
1523619902850,-2162688,-128,-56,-1,-1,0
1523619902850,-1835008,-128,-56,-1,-1,0
1523619902850,-1245184,-128,-56,-1,-1,0
1523619902850,-458752,-128,-56,-1,-1,0
1523619902890,262144,-128,-56,-1,-1,0
1523619902890,917504,-128,-56,-1,-1,0
1523619902890,1769472,-128,-56,-1,-1,0
1523619902890,2949120,-128,-56,-1,-1,0
1523619902890,3932160,-128,-56,-1,-1,0
1523619902930,4521984,-128,-56,-1,-1,0
1523619902930,4784128,-128,-56,-1,-1,0
1523619902930,4653056,-128,-56,-1,-1,0
1523619902930,4194304,-128,-56,-1,-1,0
1523619902930,3801088,-128,-56,-1,-1,0
1523619902971,3473408,-128,-56,-1,-1,0
1523619902971,2883584,-128,-56,-1,-1,0
1523619902971,2359296,-128,-56,-1,-1,0
1523619902971,1966080,-128,-56,-1,-1,0
1523619902971,1966080,-128,-56,-1,-1,0
1523619903010,1900544,-128,-56,-1,-1,0
1523619903010,1835008,-128,-56,-1,-1,0
1523619903010,1769472,-128,-56,-1,-1,0
1523619903010,1703936,-128,-56,-1,-1,0
1523619903010,1310720,-128,-56,-1,-1,0
1523619903050,786432,-128,-56,-1,-1,0
1523619903050,458752,-128,-56,-1,-1,0
1523619903050,524288,-128,-56,-1,-1,0
1523619903050,917504,-128,-56,-1,-1,0
1523619903050,1179648,-128,-56,-1,-1,0
1523619903090,1376256,-128,-56,-1,-1,0
1523619903090,1376256,-128,-56,-1,-1,0
1523619903090,1376256,-128,-56,-1,-1,0
1523619903090,1507328,-128,-56,-1,-1,0
1523619903090,1572864,-128,-56,-1,-1,0
1523619903130,1441792,-128,-56,-1,-1,0
1523619903130,1179648,-128,-56,-1,-1,0
1523619903130,1048576,-128,-56,-1,-1,0
1523619903130,983040,-128,-56,-1,-1,0
1523619903130,917504,-128,-56,-1,-1,0
1523619903170,524288,-128,-56,-1,-1,0
1523619903170,262144,-128,-56,-1,-1,0
1523619903170,1441792,-128,-56,-1,-1,0
1523619903170,4718592,-128,-56,-1,-1,0
1523619903170,8585216,-128,-56,-1,-1,0
1523619903210,10092544,-128,-56,-1,-1,0
1523619903210,6488064,-128,-56,-1,-1,0
1523619903210,393216,-128,-56,-1,-1,0
1523619903210,-3145728,-128,-56,-1,-1,0
1523619903210,-2686976,-128,-56,-1,-1,0
1523619903250,-983040,-128,-56,-1,-1,0
1523619903250,-65536,-128,-56,-1,-1,0
1523619903250,65536,-128,-56,-1,-1,0
1523619903250,196608,-128,-56,-1,-1,0
1523619903250,524288,-128,-56,-1,-1,0
1523619903290,851968,-128,-56,-1,-1,0
1523619903290,786432,-128,-56,-1,-1,0
1523619903290,393216,-128,-56,-1,-1,0
1523619903290,-458752,-128,-56,-1,-1,0
1523619903290,-1048576,-128,-56,-1,-1,0
1523619903330,-1245184,-128,-56,-1,-1,0
1523619903330,-917504,-128,-56,-1,-1,0
1523619903330,-196608,-128,-56,-1,-1,0
1523619903330,720896,-128,-56,-1,-1,0
1523619903330,1441792,-128,-56,-1,-1,0
1523619903370,1638400,-128,-56,-1,-1,0
1523619903370,1376256,-128,-56,-1,-1,0
1523619903370,851968,-128,-56,-1,-1,0
1523619903370,131072,-128,-56,-1,-1,0
1523619903370,-589824,-128,-56,-1,-1,0
1523619903410,-1441792,-128,-56,-1,-1,0
1523619903410,-1966080,-128,-56,-1,-1,0
1523619903410,-2490368,-128,-56,-1,-1,0
1523619903410,-3014656,-128,-56,-1,-1,0
1523619903410,-3407872,-128,-56,-1,-1,0
1523619903450,-3604480,-128,-56,-1,-1,0
1523619903450,-3670016,-128,-56,-1,-1,0
1523619903450,-3604480,-128,-56,-1,-1,0
1523619903450,-3342336,-128,-56,-1,-1,0
1523619903450,-3080192,-128,-56,-1,-1,0
1523619903491,-2949120,-128,-56,-1,-1,0
1523619903491,-2752512,-128,-56,-1,-1,0
1523619903491,-2621440,-128,-56,-1,-1,0
1523619903491,-2621440,-128,-56,-1,-1,0
1523619903491,-2490368,-128,-56,-1,-1,0
1523619903530,-2031616,-128,-56,-1,-1,0
1523619903530,-1572864,-128,-56,-1,-1,0
1523619903530,-1376256,-128,-56,-1,-1,0
1523619903530,-1179648,-128,-56,-1,-1,0
1523619903530,-1114112,-128,-56,-1,-1,0
1523619903570,-1245184,-128,-56,-1,-1,0
1523619903570,-1376256,-128,-56,-1,-1,0
1523619903570,-1376256,-128,-56,-1,-1,0
1523619903570,-1376256,-128,-56,-1,-1,0
1523619903570,-1310720,-128,-56,-1,-1,0
1523619903611,-1048576,-128,-56,-1,-1,0
1523619903611,-983040,-128,-56,-1,-1,0
1523619903611,-1179648,-128,-56,-1,-1,0
1523619903611,-655360,-128,-56,-1,-1,0
1523619903611,1310720,-128,-56,-1,-1,0
1523619903650,3997696,-128,-56,-1,-1,0
1523619903650,4653056,-128,-56,-1,-1,0
1523619903650,2097152,-128,-56,-1,-1,0
1523619903650,-1900544,-128,-56,-1,-1,0
1523619903650,-4063232,-128,-56,-1,-1,0
1523619903690,-3473408,-128,-56,-1,-1,0
1523619903690,-1769472,-128,-56,-1,-1,0
1523619903690,-393216,-128,-56,-1,-1,0
1523619903690,196608,-128,-56,-1,-1,0
1523619903690,458752,-128,-56,-1,-1,0
1523619903730,655360,-128,-56,-1,-1,0
1523619903730,1048576,-128,-56,-1,-1,0
1523619903730,1507328,-128,-56,-1,-1,0
1523619903730,1703936,-128,-56,-1,-1,0
1523619903730,1835008,-128,-56,-1,-1,0
1523619903770,2359296,-128,-56,-1,-1,0
1523619903770,3014656,-128,-56,-1,-1,0
1523619903770,3604480,-128,-56,-1,-1,0
1523619903770,4325376,-128,-56,-1,-1,0
1523619903770,5439488,-128,-56,-1,-1,0
1523619903810,6553600,-128,-56,-1,-1,0
1523619903810,7471104,-128,-56,-1,-1,0
1523619903810,7864320,-128,-56,-1,-1,0
1523619903810,7536640,-128,-56,-1,-1,0
1523619903810,7143424,-128,-56,-1,-1,0
1523619903850,6946816,-128,-56,-1,-1,0
1523619903850,6619136,-128,-56,-1,-1,0
1523619903850,5963776,-128,-56,-1,-1,0
1523619903850,5505024,-128,-56,-1,-1,0
1523619903850,5177344,-128,-56,-1,-1,0
1523619903891,5046272,-128,-56,-1,-1,0
1523619903891,4915200,-128,-56,-1,-1,0
1523619903891,4653056,-128,-56,-1,-1,0
1523619903891,4390912,-128,-56,-1,-1,0
1523619903891,3801088,-128,-56,-1,-1,0
1523619903934,2686976,-128,-56,-1,-1,0
1523619903934,1245184,-128,-56,-1,-1,0
1523619903934,-262144,-128,-56,-1,-1,0
1523619903934,-2162688,-128,-56,-1,-1,0
1523619903934,-3735552,-128,-56,-1,-1,0
1523619903970,-4063232,-128,-56,-1,-1,0
1523619903970,-3735552,-128,-56,-1,-1,0
1523619903970,-3670016,-128,-56,-1,-1,0
1523619903970,-3801088,-128,-56,-1,-1,0
1523619903970,-3866624,-128,-56,-1,-1,0
1523619904015,-3866624,-128,-56,-1,-1,0
1523619904015,-3866624,-128,-56,-1,-1,0
1523619904015,-4128768,-128,-56,-1,-1,0
1523619904015,-4390912,-128,-56,-1,-1,0
1523619904015,-4849664,-128,-56,-1,-1,0
1523619904250,-5308416,-128,-56,-1,-1,0
1523619904250,-5767168,-128,-56,-1,-1,0
1523619904250,-6291456,-128,-56,-1,-1,0
1523619904250,-6619136,-128,-56,-1,-1,0
1523619904250,-5701632,-128,-56,-1,-1,0
1523619904260,-3014656,-128,-56,-1,-1,0
1523619904260,-655360,-128,-56,-1,-1,0
1523619904260,-1048576,-128,-56,-1,-1,0
1523619904260,-4980736,-128,-56,-1,-1,0
1523619904260,-9109504,-128,-56,-1,-1,0
1523619904265,-10682368,-128,-56,-1,-1,0
1523619904265,-9633792,-128,-56,-1,-1,0
1523619904265,-7929856,-128,-56,-1,-1,0
1523619904265,-6946816,-128,-56,-1,-1,0
1523619904265,-6946816,-128,-56,-1,-1,0
1523619904274,-6815744,-128,-56,-1,-1,0
1523619904274,-6225920,-128,-56,-1,-1,0
1523619904274,-5767168,-128,-56,-1,-1,0
1523619904274,-5898240,-128,-56,-1,-1,0
1523619904274,-5570560,-128,-56,-1,-1,0
1523619904310,-4980736,-128,-56,-1,-1,0
1523619904310,-4128768,-128,-56,-1,-1,0
1523619904310,-3211264,-128,-56,-1,-1,0
1523619904310,-1966080,-128,-56,-1,-1,0
1523619904310,-720896,-128,-56,-1,-1,0
1523619904312,589824,-127,-56,-1,-1,0
1523619904312,1441792,-127,-56,-1,-1,0
1523619904312,1835008,-127,-56,-1,-1,0
1523619904312,1966080,-127,-56,-1,-1,0
1523619904312,1966080,-127,-56,-1,-1,0
1523619904320,1769472,-127,-56,-1,-1,0
1523619904320,1310720,-127,-56,-1,-1,0
1523619904320,655360,-127,-56,-1,-1,0
1523619904320,131072,-127,-56,-1,-1,0
1523619904320,-131072,-127,-56,-1,-1,0
1523619904330,-327680,-127,-56,-1,-1,0
1523619904330,-589824,-127,-56,-1,-1,0
1523619904330,-786432,-127,-56,-1,-1,0
1523619904330,-786432,-127,-56,-1,-1,0
1523619904330,-589824,-127,-56,-1,-1,0
1523619904370,-458752,-127,-56,-1,-1,0
1523619904370,-262144,-127,-56,-1,-1,0
1523619904370,-458752,-127,-56,-1,-1,0
1523619904370,-917504,-127,-56,-1,-1,0
1523619904370,-1179648,-127,-56,-1,-1,0
1523619904410,-983040,-127,-56,-1,-1,0
1523619904410,-720896,-127,-56,-1,-1,0
1523619904410,-393216,-127,-56,-1,-1,0
1523619904410,-458752,-127,-56,-1,-1,0
1523619904410,-655360,-127,-56,-1,-1,0
1523619904451,-917504,-127,-56,-1,-1,0
1523619904451,-1114112,-127,-56,-1,-1,0
1523619904451,-1048576,-127,-56,-1,-1,0
1523619904451,-720896,-127,-56,-1,-1,0
1523619904451,-393216,-127,-56,-1,-1,0
1523619904490,-196608,-127,-56,-1,-1,0
1523619904490,-65536,-127,-56,-1,-1,0
1523619904490,-262144,-127,-56,-1,-1,0
1523619904490,327680,-127,-56,-1,-1,0
1523619904490,3145728,-127,-56,-1,-1,0
1523619904530,7471104,-127,-56,-1,-1,0
1523619904530,10223616,-127,-56,-1,-1,0
1523619904530,8650752,-127,-56,-1,-1,0
1523619904530,3211264,-127,-56,-1,-1,0
1523619904530,-1048576,-127,-56,-1,-1,0
1523619904570,-1310720,-127,-56,-1,-1,0
1523619904570,196608,-127,-56,-1,-1,0
1523619904570,1114112,-127,-56,-1,-1,0
1523619904570,1310720,-127,-56,-1,-1,0
1523619904570,1572864,-127,-56,-1,-1,0
1523619904611,1835008,-127,-56,-1,-1,0
1523619904611,1900544,-127,-56,-1,-1,0
1523619904611,1835008,-127,-56,-1,-1,0
1523619904611,2031616,-127,-56,-1,-1,0
1523619904611,2424832,-127,-56,-1,-1,0
1523619904650,2883584,-127,-56,-1,-1,0
1523619904650,3670016,-127,-56,-1,-1,0
1523619904650,4521984,-127,-56,-1,-1,0
1523619904650,4980736,-127,-56,-1,-1,0
1523619904650,5767168,-127,-56,-1,-1,0
1523619904690,6684672,-127,-56,-1,-1,0
1523619904690,7471104,-127,-56,-1,-1,0
1523619904690,7667712,-127,-56,-1,-1,0
1523619904690,7667712,-127,-56,-1,-1,0
1523619904690,7405568,-127,-56,-1,-1,0
1523619904730,6881280,-127,-56,-1,-1,0
1523619904730,6225920,-127,-56,-1,-1,0
1523619904730,5505024,-127,-56,-1,-1,0
1523619904730,4980736,-127,-56,-1,-1,0
1523619904730,4718592,-127,-56,-1,-1,0
1523619904770,4521984,-127,-56,-1,-1,0
1523619904770,4521984,-127,-56,-1,-1,0
1523619904770,4390912,-127,-56,-1,-1,0
1523619904770,4063232,-127,-56,-1,-1,0
1523619904770,4063232,-127,-56,-1,-1,0
1523619904810,4063232,-127,-56,-1,-1,0
1523619904810,3932160,-127,-56,-1,-1,0
1523619904810,3670016,-127,-56,-1,-1,0
1523619904810,3670016,-127,-56,-1,-1,0
1523619904810,3801088,-127,-56,-1,-1,0
1523619904850,3670016,-127,-56,-1,-1,0
1523619904850,3801088,-127,-56,-1,-1,0
1523619904850,4063232,-127,-56,-1,-1,0
1523619904850,4194304,-127,-56,-1,-1,0
1523619904850,3997696,-127,-56,-1,-1,0
1523619904891,3997696,-127,-56,-1,-1,0
1523619904891,4128768,-127,-56,-1,-1,0
1523619904891,4390912,-127,-56,-1,-1,0
1523619904891,4456448,-127,-56,-1,-1,0
1523619904891,4259840,-127,-56,-1,-1,0
1523619904930,3866624,-127,-56,-1,-1,0
1523619904930,3538944,-127,-56,-1,-1,0
1523619904930,3080192,-127,-56,-1,-1,0
1523619904930,1638400,-127,-56,-1,-1,0
1523619904930,262144,-127,-56,-1,-1,0
1523619904970,720896,-127,-56,-1,-1,0
1523619904970,2621440,-127,-56,-1,-1,0
1523619904970,2949120,-127,-56,-1,-1,0
1523619904970,-65536,-127,-56,-1,-1,0
1523619904970,-4784128,-127,-56,-1,-1,0
1523619905010,-7340032,-127,-56,-1,-1,0
1523619905010,-6815744,-127,-56,-1,-1,0
1523619905010,-5505024,-127,-56,-1,-1,0
1523619905010,-4718592,-127,-56,-1,-1,0
1523619905010,-4521984,-127,-56,-1,-1,0
1523619905050,-4390912,-127,-56,-1,-1,0
1523619905050,-4259840,-127,-56,-1,-1,0
1523619905050,-4128768,-127,-56,-1,-1,0
1523619905050,-3997696,-127,-56,-1,-1,0
1523619905050,-3801088,-127,-56,-1,-1,0
1523619905090,-3473408,-127,-56,-1,-1,0
1523619905090,-3211264,-127,-56,-1,-1,0
1523619905090,-2883584,-127,-56,-1,-1,0
1523619905090,-2359296,-127,-56,-1,-1,0
1523619905090,-1572864,-127,-56,-1,-1,0
1523619905130,-851968,-126,-56,-1,-1,0
1523619905130,-262144,-126,-56,-1,-1,0
1523619905130,65536,-126,-56,-1,-1,0
1523619905130,262144,-126,-56,-1,-1,0
1523619905130,262144,-126,-56,-1,-1,0
1523619905170,131072,-126,-56,-1,-1,0
1523619905170,-196608,-126,-56,-1,-1,0
1523619905170,-720896,-126,-56,-1,-1,0
1523619905170,-1376256,-126,-56,-1,-1,0
1523619905170,-1966080,-126,-56,-1,-1,0
1523619905210,-2293760,-126,-56,-1,-1,0
1523619905210,-2359296,-126,-56,-1,-1,0
1523619905210,-2228224,-126,-56,-1,-1,0
1523619905210,-2162688,-126,-56,-1,-1,0
1523619905210,-2228224,-126,-56,-1,-1,0
1523619905250,-2424832,-126,-56,-1,-1,0
1523619905250,-2621440,-126,-56,-1,-1,0
1523619905250,-2818048,-126,-56,-1,-1,0
1523619905250,-3014656,-126,-56,-1,-1,0
1523619905250,-3145728,-126,-56,-1,-1,0
1523619905290,-3014656,-126,-56,-1,-1,0
1523619905290,-2752512,-126,-56,-1,-1,0
1523619905290,-2490368,-126,-56,-1,-1,0
1523619905290,-2555904,-126,-56,-1,-1,0
1523619905290,-2621440,-126,-56,-1,-1,0
1523619905330,-2818048,-126,-56,-1,-1,0
1523619905330,-2949120,-126,-56,-1,-1,0
1523619905330,-3014656,-126,-56,-1,-1,0
1523619905330,-2818048,-126,-56,-1,-1,0
1523619905330,-2818048,-126,-56,-1,-1,0
1523619905370,-2818048,-126,-56,-1,-1,0
1523619905370,-2883584,-126,-56,-1,-1,0
1523619905370,-3080192,-126,-56,-1,-1,0
1523619905370,-3211264,-126,-56,-1,-1,0
1523619905370,-2228224,-126,-56,-1,-1,0
1523619905410,1114112,-126,-56,-1,-1,0
1523619905410,5439488,-126,-56,-1,-1,0
1523619905410,6619136,-126,-56,-1,-1,0
1523619905410,2555904,-126,-56,-1,-1,0
1523619905410,-2555904,-126,-56,-1,-1,0
1523619905451,-4653056,-126,-56,-1,-1,0
1523619905451,-3801088,-126,-56,-1,-1,0
1523619905451,-2490368,-126,-56,-1,-1,0
1523619905451,-1703936,-126,-56,-1,-1,0
1523619905451,-1769472,-126,-56,-1,-1,0
1523619905505,-2424832,-126,-56,-1,-1,0
1523619905505,-3211264,-126,-56,-1,-1,0
1523619905505,-3735552,-126,-56,-1,-1,0
1523619905505,-3342336,-126,-56,-1,-1,0
1523619905505,-2686976,-126,-56,-1,-1,0
1523619905553,-2293760,-126,-56,-1,-1,0
1523619905553,-2031616,-126,-56,-1,-1,0
1523619905553,-1310720,-126,-56,-1,-1,0
1523619905553,-196608,-126,-56,-1,-1,0
1523619905553,983040,-126,-56,-1,-1,0
1523619905573,1638400,-126,-56,-1,-1,0
1523619905573,1835008,-126,-56,-1,-1,0
1523619905573,2228224,-126,-56,-1,-1,0
1523619905573,2228224,-126,-56,-1,-1,0
1523619905573,1835008,-126,-56,-1,-1,0
1523619905610,1114112,-126,-56,-1,-1,0
1523619905610,131072,-126,-56,-1,-1,0
1523619905610,-917504,-126,-56,-1,-1,0
1523619905610,-1769472,-126,-56,-1,-1,0
1523619905610,-2490368,-126,-56,-1,-1,0
1523619905653,-2949120,-126,-56,-1,-1,0
1523619905653,-3604480,-126,-56,-1,-1,0
1523619905653,-4325376,-126,-56,-1,-1,0
1523619905653,-4456448,-126,-56,-1,-1,0
1523619905653,-3997696,-126,-56,-1,-1,0
1523619905692,-3670016,-126,-56,-1,-1,0
1523619905692,-3604480,-126,-56,-1,-1,0
1523619905692,-3866624,-126,-56,-1,-1,0
1523619905692,-4128768,-126,-56,-1,-1,0
1523619905692,-4456448,-126,-56,-1,-1,0
1523619905730,-4456448,-126,-56,-1,-1,0
1523619905730,-4456448,-126,-56,-1,-1,0
1523619905730,-4521984,-126,-56,-1,-1,0
1523619905730,-5111808,-126,-56,-1,-1,0
1523619905730,-4849664,-126,-56,-1,-1,0
1523619905773,-4849664,-126,-56,-1,-1,0
1523619905773,-5046272,-126,-56,-1,-1,0
1523619905773,-5505024,-126,-56,-1,-1,0
1523619905773,-5832704,-126,-56,-1,-1,0
1523619905773,-5439488,-126,-56,-1,-1,0
1523619905812,-4653056,-126,-56,-1,-1,0
1523619905812,-4784128,-126,-56,-1,-1,0
1523619905812,-5308416,-126,-56,-1,-1,0
1523619905812,-4980736,-126,-56,-1,-1,0
1523619905812,-2555904,-126,-56,-1,-1,0
1523619905853,786432,-126,-56,-1,-1,0
1523619905853,2162688,-126,-56,-1,-1,0
1523619905853,-1048576,-126,-56,-1,-1,0
1523619905853,-6619136,-126,-56,-1,-1,0
1523619905853,-9699328,-126,-56,-1,-1,0
1523619905893,-8978432,-126,-56,-1,-1,0
1523619905893,-7208960,-126,-56,-1,-1,0
1523619905893,-6160384,-126,-56,-1,-1,0
1523619905893,-6029312,-126,-56,-1,-1,0
1523619905893,-6094848,-126,-56,-1,-1,0
1523619905932,-5636096,-126,-56,-1,-1,0
1523619905932,-5046272,-126,-56,-1,-1,0
1523619905932,-4718592,-126,-56,-1,-1,0
1523619905932,-4718592,-126,-56,-1,-1,0
1523619905932,-4849664,-126,-56,-1,-1,0
1523619905971,-4784128,-126,-56,-1,-1,0
1523619905971,-4128768,-126,-56,-1,-1,0
1523619905971,-3473408,-126,-56,-1,-1,0
1523619905971,-2818048,-126,-56,-1,-1,0
1523619905971,-2097152,-126,-56,-1,-1,0
1523619906010,-1179648,-125,-56,-1,-1,0
1523619906010,-524288,-125,-56,-1,-1,0
1523619906010,-262144,-125,-56,-1,-1,0
1523619906010,-196608,-125,-56,-1,-1,0
1523619906010,-65536,-125,-56,-1,-1,0
1523619906050,-131072,-125,-56,-1,-1,0
1523619906050,-393216,-125,-56,-1,-1,0
1523619906050,-524288,-125,-56,-1,-1,0
1523619906050,-655360,-125,-56,-1,-1,0
1523619906050,-851968,-125,-56,-1,-1,0
1523619906090,-917504,-125,-56,-1,-1,0
1523619906090,-1310720,-125,-56,-1,-1,0
1523619906090,-1769472,-125,-56,-1,-1,0
1523619906090,-1900544,-125,-56,-1,-1,0
1523619906090,-2031616,-125,-56,-1,-1,0
1523619906131,-2424832,-125,-56,-1,-1,0
1523619906131,-3014656,-125,-56,-1,-1,0
1523619906131,-3407872,-125,-56,-1,-1,0
1523619906131,-3801088,-125,-56,-1,-1,0
1523619906131,-3932160,-125,-56,-1,-1,0
1523619906172,-3932160,-125,-56,-1,-1,0
1523619906172,-3932160,-125,-56,-1,-1,0
1523619906172,-4063232,-125,-56,-1,-1,0
1523619906172,-4390912,-125,-56,-1,-1,0
1523619906172,-4980736,-125,-56,-1,-1,0
1523619906210,-5701632,-125,-56,-1,-1,0
1523619906210,-6684672,-125,-56,-1,-1,0
1523619906210,-7995392,-125,-56,-1,-1,0
1523619906210,-9306112,-125,-56,-1,-1,0
1523619906210,-10289152,-125,-56,-1,-1,0
1523619906250,-10878976,-125,-56,-1,-1,0
1523619906250,-11599872,-125,-56,-1,-1,0
1523619906250,-12189696,-125,-56,-1,-1,0
1523619906250,-11993088,-125,-56,-1,-1,0
1523619906250,-10616832,-125,-56,-1,-1,0
1523619906290,-9437184,-124,-56,-1,-1,0
1523619906290,-11272192,-124,-56,-1,-1,0
1523619906290,-16121856,-124,-56,-1,-1,0
1523619906290,-20840448,-124,-56,-1,-1,0
1523619906290,-22937600,-124,-56,-1,-1,0
1523619906330,-22740992,-124,-56,-1,-1,0
1523619906330,-21889024,-124,-56,-1,-1,0
1523619906330,-21364736,-124,-56,-1,-1,0
1523619906330,-21430272,-124,-56,-1,-1,0
1523619906330,-21954560,-124,-56,-1,-1,0
1523619906370,-22282240,-124,-56,-1,-1,0
1523619906370,-22413312,-124,-56,-1,-1,0
1523619906370,-22085632,-124,-56,-1,-1,0
1523619906370,-21692416,-124,-56,-1,-1,0
1523619906370,-21037056,-124,-56,-1,-1,0
1523619906410,-20119552,-124,-56,-1,-1,0
1523619906410,-18677760,-124,-56,-1,-1,0
1523619906410,-16908288,-124,-56,-1,-1,0
1523619906410,-14876672,-124,-56,-1,-1,0
1523619906410,-12517376,-124,-56,-1,-1,0
1523619906450,-10027008,-124,-56,-1,-1,0
1523619906450,-7274496,-124,-56,-1,-1,0
1523619906450,-4521984,-124,-56,-1,-1,0
1523619906450,-1900544,-124,-56,-1,-1,0
1523619906450,196608,-124,-56,-1,-1,0
1523619906490,2293760,-124,-56,-1,-1,0
1523619906490,4194304,-124,-56,-1,-1,0
1523619906490,6160384,-124,-56,-1,-1,0
1523619906490,8060928,-124,-56,-1,-1,0
1523619906490,9961472,-124,-56,-1,-1,0
1523619906530,11730944,-124,-56,-1,-1,0
1523619906530,13238272,-124,-56,-1,-1,0
1523619906530,14483456,-124,-56,-1,-1,0
1523619906530,15663104,-124,-56,-1,-1,0
1523619906530,16646144,-124,-56,-1,-1,0
1523619906570,17367040,-124,-56,-1,-1,0
1523619906570,18087936,-124,-56,-1,-1,0
1523619906570,18939904,-124,-56,-1,-1,0
1523619906570,19922944,-124,-56,-1,-1,0
1523619906570,20840448,-124,-56,-1,-1,0
1523619906610,21692416,-124,-56,-1,-1,0
1523619906610,22675456,-124,-56,-1,-1,0
1523619906610,23658496,-124,-56,-1,-1,0
1523619906610,24182784,-124,-56,-1,-1,0
1523619906610,24510464,-124,-56,-1,-1,0
1523619906650,24772608,-124,-56,-1,-1,0
1523619906650,25165824,-124,-56,-1,-1,0
1523619906650,25755648,-124,-56,-1,-1,0
1523619906650,26279936,-124,-56,-1,-1,0
1523619906650,26542080,-124,-56,-1,-1,0
1523619906690,26673152,-124,-56,-1,-1,0
1523619906690,27721728,-124,-56,-1,-1,0
1523619906690,30670848,-124,-56,-1,-1,0
1523619906690,34471936,-124,-56,-1,-1,0
1523619906690,35913728,-124,-56,-1,-1,0
1523619906730,32964608,-124,-56,-1,-1,0
1523619906730,27262976,-124,-56,-1,-1,0
1523619906730,23527424,-124,-56,-1,-1,0
1523619906730,23724032,-124,-56,-1,-1,0
1523619906730,25165824,-124,-56,-1,-1,0
1523619906776,26017792,-124,-56,-1,-1,0
1523619906776,26345472,-124,-56,-1,-1,0
1523619906776,26411008,-124,-56,-1,-1,0
1523619906776,26345472,-124,-56,-1,-1,0
1523619906776,26476544,-124,-56,-1,-1,0
1523619906810,26673152,-124,-56,-1,-1,0
1523619906810,26935296,-124,-56,-1,-1,0
1523619906810,27000832,-124,-56,-1,-1,0
1523619906810,27066368,-124,-56,-1,-1,0
1523619906810,27066368,-124,-56,-1,-1,0
1523619906850,27066368,-124,-56,-1,-1,0
1523619906850,26804224,-124,-56,-1,-1,0
1523619906850,26476544,-124,-56,-1,-1,0
1523619906850,26148864,-124,-56,-1,-1,0
1523619906850,25362432,-124,-56,-1,-1,0
1523619906906,23789568,-124,-56,-1,-1,0
1523619906906,21692416,-124,-56,-1,-1,0
1523619906906,19464192,-124,-56,-1,-1,0
1523619906906,16777216,-124,-56,-1,-1,0
1523619906906,14155776,-124,-56,-1,-1,0
1523619906930,11796480,-124,-56,-1,-1,0
1523619906930,9437184,-124,-56,-1,-1,0
1523619906930,7340032,-124,-56,-1,-1,0
1523619906930,5963776,-124,-56,-1,-1,0
1523619906930,4653056,-124,-56,-1,-1,0
1523619906970,2883584,-124,-56,-1,-1,0
1523619906970,1376256,-124,-56,-1,-1,0
1523619906970,1376256,-124,-56,-1,-1,0
1523619906970,2424832,-124,-56,-1,-1,0
1523619906970,2752512,-124,-56,-1,-1,0
1523619907013,0,-124,-56,-1,-1,0
1523619907013,-6488064,-124,-56,-1,-1,0
1523619907013,-12255232,-124,-56,-1,-1,0
1523619907013,-14090240,-124,-56,-1,-1,0
1523619907013,-13762560,-124,-56,-1,-1,0
1523619907050,-13041664,-124,-56,-1,-1,0
1523619907050,-11599872,-124,-56,-1,-1,0
1523619907050,-9437184,-124,-56,-1,-1,0
1523619907050,-6750208,-124,-56,-1,-1,0
1523619907050,-4063232,-124,-56,-1,-1,0
1523619907096,-2097152,-124,-56,-1,-1,0
1523619907096,-983040,-124,-56,-1,-1,0
1523619907096,-393216,-124,-56,-1,-1,0
1523619907096,0,-124,-56,-1,-1,0
1523619907096,327680,-124,-56,-1,-1,0
1523619907132,851968,-124,-56,-1,-1,0
1523619907132,1179648,-124,-56,-1,-1,0
1523619907132,1835008,-124,-56,-1,-1,0
1523619907132,2293760,-124,-56,-1,-1,0
1523619907132,2490368,-124,-56,-1,-1,0
1523619907186,2293760,-124,-56,-1,-1,0
1523619907186,2162688,-124,-56,-1,-1,0
1523619907186,1638400,-124,-56,-1,-1,0
1523619907186,917504,-124,-56,-1,-1,0
1523619907186,-131072,-124,-56,-1,-1,0
1523619907211,-1769472,-124,-56,-1,-1,0
1523619907211,-3276800,-124,-56,-1,-1,0
1523619907211,-4128768,-124,-56,-1,-1,0
1523619907211,-4718592,-124,-56,-1,-1,0
1523619907211,-5636096,-124,-56,-1,-1,0
1523619907256,-6815744,-124,-56,-1,-1,0
1523619907256,-7733248,-124,-56,-1,-1,0
1523619907256,-8454144,-124,-56,-1,-1,0
1523619907256,-9240576,-124,-56,-1,-1,0
1523619907256,-9764864,-124,-56,-1,-1,0
1523619907290,-9830400,-124,-56,-1,-1,0
1523619907290,-9633792,-124,-56,-1,-1,0
1523619907290,-9830400,-124,-56,-1,-1,0
1523619907290,-9895936,-124,-56,-1,-1,0
1523619907290,-9699328,-124,-56,-1,-1,0
1523619907330,-9895936,-124,-56,-1,-1,0
1523619907330,-10420224,-124,-56,-1,-1,0
1523619907330,-11010048,-124,-56,-1,-1,0
1523619907330,-11141120,-124,-56,-1,-1,0
1523619907330,-10944512,-124,-56,-1,-1,0
1523619907370,-10747904,-124,-56,-1,-1,0
1523619907370,-10813440,-124,-56,-1,-1,0
1523619907370,-10813440,-124,-56,-1,-1,0
1523619907370,-11010048,-124,-56,-1,-1,0
1523619907370,-11272192,-124,-56,-1,-1,0
1523619907410,-11403264,-124,-56,-1,-1,0
1523619907410,-10682368,-124,-56,-1,-1,0
1523619907410,-10354688,-124,-56,-1,-1,0
1523619907410,-10485760,-124,-56,-1,-1,0
1523619907410,-10682368,-124,-56,-1,-1,0
1523619907452,-10289152,-124,-56,-1,-1,0
1523619907452,-9699328,-124,-56,-1,-1,0
1523619907452,-9437184,-124,-56,-1,-1,0
1523619907452,-9371648,-124,-56,-1,-1,0
1523619907452,-9240576,-124,-56,-1,-1,0
1523619907490,-9109504,-124,-56,-1,-1,0
1523619907490,-9109504,-124,-56,-1,-1,0
1523619907490,-9109504,-124,-56,-1,-1,0
1523619907490,-9109504,-124,-56,-1,-1,0
1523619907490,-8978432,-124,-56,-1,-1,0
1523619907530,-8650752,-124,-56,-1,-1,0
1523619907530,-8323072,-124,-56,-1,-1,0
1523619907530,-7995392,-124,-56,-1,-1,0
1523619907530,-6815744,-124,-56,-1,-1,0
1523619907530,-3604480,-124,-56,-1,-1,0
1523619907570,1245184,-124,-56,-1,-1,0
1523619907570,4587520,-124,-56,-1,-1,0
1523619907570,2949120,-124,-56,-1,-1,0
1523619907570,-2818048,-124,-56,-1,-1,0
1523619907570,-7405568,-124,-56,-1,-1,0
1523619907610,-7602176,-124,-56,-1,-1,0
1523619907610,-5832704,-124,-56,-1,-1,0
1523619907610,-4587520,-124,-56,-1,-1,0
1523619907610,-3997696,-124,-56,-1,-1,0
1523619907610,-3473408,-124,-56,-1,-1,0
1523619907650,-2949120,-124,-56,-1,-1,0
1523619907650,-2424832,-124,-56,-1,-1,0
1523619907650,-2031616,-124,-56,-1,-1,0
1523619907650,-1703936,-124,-56,-1,-1,0
1523619907650,-1376256,-124,-56,-1,-1,0
1523619907690,-851968,-124,-56,-1,-1,0
1523619907690,-589824,-124,-56,-1,-1,0
1523619907690,-262144,-124,-56,-1,-1,0
1523619907690,262144,-124,-56,-1,-1,0
1523619907690,1245184,-124,-56,-1,-1,0
1523619907730,2228224,-123,-56,-1,-1,0
1523619907730,3276800,-123,-56,-1,-1,0
1523619907730,3997696,-123,-56,-1,-1,0
1523619907730,4521984,-123,-56,-1,-1,0
1523619907730,4784128,-123,-56,-1,-1,0
1523619907770,4915200,-123,-56,-1,-1,0
1523619907770,4653056,-123,-56,-1,-1,0
1523619907770,4390912,-123,-56,-1,-1,0
1523619907770,3997696,-123,-56,-1,-1,0
1523619907770,3670016,-123,-56,-1,-1,0
1523619907810,3342336,-123,-56,-1,-1,0
1523619907810,3080192,-123,-56,-1,-1,0
1523619907810,2949120,-123,-56,-1,-1,0
1523619907810,3014656,-123,-56,-1,-1,0
1523619907810,3014656,-123,-56,-1,-1,0
1523619907850,2686976,-123,-56,-1,-1,0
1523619907850,2490368,-123,-56,-1,-1,0
1523619907850,2031616,-123,-56,-1,-1,0
1523619907850,1638400,-123,-56,-1,-1,0
1523619907850,1114112,-123,-56,-1,-1,0
1523619907890,1179648,-123,-56,-1,-1,0
1523619907890,1310720,-123,-56,-1,-1,0
1523619907890,1441792,-123,-56,-1,-1,0
1523619907890,1441792,-123,-56,-1,-1,0
1523619907890,1441792,-123,-56,-1,-1,0
1523619907930,1507328,-123,-56,-1,-1,0
1523619907930,1376256,-123,-56,-1,-1,0
1523619907930,1310720,-123,-56,-1,-1,0
1523619907930,1310720,-123,-56,-1,-1,0
1523619907930,1376256,-123,-56,-1,-1,0
1523619907970,1441792,-123,-56,-1,-1,0
1523619907970,1310720,-123,-56,-1,-1,0
1523619907970,786432,-123,-56,-1,-1,0
1523619907970,393216,-123,-56,-1,-1,0
1523619907970,1245184,-123,-56,-1,-1,0
1523619908010,3342336,-123,-56,-1,-1,0
1523619908010,4718592,-123,-56,-1,-1,0
1523619908010,3276800,-123,-56,-1,-1,0
1523619908010,-458752,-123,-56,-1,-1,0
1523619908010,-3407872,-123,-56,-1,-1,0
1523619908050,-3932160,-123,-56,-1,-1,0
1523619908050,-2949120,-123,-56,-1,-1,0
1523619908050,-2097152,-123,-56,-1,-1,0
1523619908050,-1769472,-123,-56,-1,-1,0
1523619908050,-1769472,-123,-56,-1,-1,0
1523619908091,-1835008,-123,-56,-1,-1,0
1523619908091,-1572864,-123,-56,-1,-1,0
1523619908091,-1245184,-123,-56,-1,-1,0
1523619908091,-720896,-123,-56,-1,-1,0
1523619908091,-393216,-123,-56,-1,-1,0
1523619908130,-196608,-123,-56,-1,-1,0
1523619908130,0,-123,-56,-1,-1,0
1523619908130,655360,-123,-56,-1,-1,0
1523619908130,1310720,-123,-56,-1,-1,0
1523619908130,1966080,-123,-56,-1,-1,0
1523619908170,2621440,-123,-56,-1,-1,0
1523619908170,3276800,-123,-56,-1,-1,0
1523619908170,3604480,-123,-56,-1,-1,0
1523619908170,3866624,-123,-56,-1,-1,0
1523619908170,3801088,-123,-56,-1,-1,0
1523619908210,3407872,-123,-56,-1,-1,0
1523619908210,2621440,-123,-56,-1,-1,0
1523619908210,1835008,-123,-56,-1,-1,0
1523619908210,1179648,-123,-56,-1,-1,0
1523619908210,720896,-123,-56,-1,-1,0
1523619908250,327680,-123,-56,-1,-1,0
1523619908250,0,-123,-56,-1,-1,0
1523619908250,-327680,-123,-56,-1,-1,0
1523619908250,-655360,-123,-56,-1,-1,0
1523619908250,-983040,-123,-56,-1,-1,0
1523619908290,-1179648,-123,-56,-1,-1,0
1523619908290,-1310720,-123,-56,-1,-1,0
1523619908290,-1441792,-123,-56,-1,-1,0
1523619908290,-1376256,-123,-56,-1,-1,0
1523619908290,-1179648,-123,-56,-1,-1,0
1523619908330,-983040,-123,-56,-1,-1,0
1523619908330,-1048576,-123,-56,-1,-1,0
1523619908330,-1245184,-123,-56,-1,-1,0
1523619908330,-1441792,-123,-56,-1,-1,0
1523619908330,-1507328,-123,-56,-1,-1,0
1523619908371,-1507328,-123,-56,-1,-1,0
1523619908371,-1376256,-123,-56,-1,-1,0
1523619908371,-1245184,-123,-56,-1,-1,0
1523619908371,-1179648,-123,-56,-1,-1,0
1523619908371,-1114112,-123,-56,-1,-1,0
1523619908410,-1114112,-123,-56,-1,-1,0
1523619908410,-720896,-123,-56,-1,-1,0
1523619908410,786432,-123,-56,-1,-1,0
1523619908410,3670016,-123,-56,-1,-1,0
1523619908410,5373952,-123,-56,-1,-1,0
1523619908451,3735552,-123,-56,-1,-1,0
1523619908451,-458752,-123,-56,-1,-1,0
1523619908451,-3735552,-123,-56,-1,-1,0
1523619908451,-3932160,-123,-56,-1,-1,0
1523619908451,-2490368,-123,-56,-1,-1,0
1523619908491,-1376256,-123,-56,-1,-1,0
1523619908491,-917504,-123,-56,-1,-1,0
1523619908491,-786432,-123,-56,-1,-1,0
1523619908491,-983040,-123,-56,-1,-1,0
1523619908491,-1310720,-123,-56,-1,-1,0
1523619908529,-1638400,-123,-56,-1,-1,0
1523619908529,-1835008,-123,-56,-1,-1,0
1523619908529,-1835008,-123,-56,-1,-1,0
1523619908529,-1703936,-123,-56,-1,-1,0
1523619908529,-1441792,-123,-56,-1,-1,0
1523619908569,-983040,-121,-56,-1,-1,0
1523619908569,-327680,-121,-56,-1,-1,0
1523619908569,458752,-121,-56,-1,-1,0
1523619908569,1441792,-121,-56,-1,-1,0
1523619908569,2424832,-121,-56,-1,-1,0
1523619908612,2949120,-121,-56,-1,-1,0
1523619908612,2883584,-121,-56,-1,-1,0
1523619908612,2490368,-121,-56,-1,-1,0
1523619908612,1507328,-121,-56,-1,-1,0
1523619908612,458752,-121,-56,-1,-1,0
1523619908650,-524288,-121,-56,-1,-1,0
1523619908650,-1507328,-121,-56,-1,-1,0
1523619908650,-2031616,-121,-56,-1,-1,0
1523619908650,-2162688,-121,-56,-1,-1,0
1523619908650,-2424832,-121,-56,-1,-1,0
1523619908692,-2752512,-121,-56,-1,-1,0
1523619908692,-3145728,-121,-56,-1,-1,0
1523619908692,-3735552,-121,-56,-1,-1,0
1523619908692,-4390912,-121,-56,-1,-1,0
1523619908692,-4194304,-121,-56,-1,-1,0
1523619908736,-3866624,-121,-56,-1,-1,0
1523619908736,-3932160,-121,-56,-1,-1,0
1523619908736,-4259840,-121,-56,-1,-1,0
1523619908736,-4325376,-121,-56,-1,-1,0
1523619908736,-4259840,-121,-56,-1,-1,0
1523619908769,-4063232,-121,-56,-1,-1,0
1523619908769,-3932160,-121,-56,-1,-1,0
1523619908769,-4128768,-121,-56,-1,-1,0
1523619908769,-3997696,-121,-56,-1,-1,0
1523619908769,-3670016,-121,-56,-1,-1,0
1523619908809,-3604480,-121,-56,-1,-1,0
1523619908809,-3670016,-121,-56,-1,-1,0
1523619908809,-3735552,-121,-56,-1,-1,0
1523619908809,-3670016,-121,-56,-1,-1,0
1523619908809,-2621440,-121,-56,-1,-1,0
1523619908849,196608,-121,-56,-1,-1,0
1523619908849,2949120,-121,-56,-1,-1,0
1523619908849,1966080,-121,-56,-1,-1,0
1523619908849,-3342336,-121,-56,-1,-1,0
1523619908849,-7798784,-121,-56,-1,-1,0
1523619908889,-8519680,-121,-56,-1,-1,0
1523619908889,-7143424,-121,-56,-1,-1,0
1523619908889,-6225920,-121,-56,-1,-1,0
1523619908889,-5701632,-121,-56,-1,-1,0
1523619908889,-5242880,-121,-56,-1,-1,0
1523619908929,-4915200,-121,-56,-1,-1,0
1523619908929,-5111808,-121,-56,-1,-1,0
1523619908929,-5308416,-121,-56,-1,-1,0
1523619908929,-5505024,-121,-56,-1,-1,0
1523619908929,-5111808,-121,-56,-1,-1,0
1523619908969,-4521984,-120,-56,-1,-1,0
1523619908969,-4194304,-120,-56,-1,-1,0
1523619908969,-3932160,-120,-56,-1,-1,0
1523619908969,-3407872,-120,-56,-1,-1,0
1523619908969,-2490368,-120,-56,-1,-1,0
1523619909009,-1376256,-120,-56,-1,-1,0
1523619909009,-786432,-120,-56,-1,-1,0
1523619909009,-655360,-120,-56,-1,-1,0
1523619909009,-393216,-120,-56,-1,-1,0
1523619909009,-524288,-120,-56,-1,-1,0
1523619909049,-1507328,-120,-56,-1,-1,0
1523619909049,-2818048,-120,-56,-1,-1,0
1523619909049,-3670016,-120,-56,-1,-1,0
1523619909049,-4194304,-120,-56,-1,-1,0
1523619909049,-4521984,-120,-56,-1,-1,0
1523619909090,-4849664,-120,-56,-1,-1,0
1523619909090,-5046272,-120,-56,-1,-1,0
1523619909090,-5177344,-120,-56,-1,-1,0
1523619909090,-5505024,-120,-56,-1,-1,0
1523619909090,-5636096,-120,-56,-1,-1,0
1523619909130,-5636096,-120,-56,-1,-1,0
1523619909130,-5373952,-120,-56,-1,-1,0
1523619909130,-5177344,-120,-56,-1,-1,0
1523619909130,-4849664,-120,-56,-1,-1,0
1523619909130,-4259840,-120,-56,-1,-1,0
1523619909171,-3538944,-120,-56,-1,-1,0
1523619909171,-2883584,-120,-56,-1,-1,0
1523619909171,-2752512,-120,-56,-1,-1,0
1523619909171,-3145728,-120,-56,-1,-1,0
1523619909171,-3407872,-120,-56,-1,-1,0
1523619909209,-3473408,-120,-56,-1,-1,0
1523619909209,-3735552,-120,-56,-1,-1,0
1523619909209,-4259840,-120,-56,-1,-1,0
1523619909209,-4587520,-120,-56,-1,-1,0
1523619909209,-4784128,-120,-56,-1,-1,0
1523619909249,-5242880,-120,-56,-1,-1,0
1523619909249,-5898240,-120,-56,-1,-1,0
1523619909249,-6029312,-120,-56,-1,-1,0
1523619909249,-4653056,-120,-56,-1,-1,0
1523619909249,-2097152,-120,-56,-1,-1,0
1523619909289,-851968,-120,-56,-1,-1,0
1523619909289,-2752512,-120,-56,-1,-1,0
1523619909289,-7012352,-120,-56,-1,-1,0
1523619909289,-10027008,-120,-56,-1,-1,0
1523619909289,-10092544,-120,-56,-1,-1,0
1523619909329,-8650752,-120,-56,-1,-1,0
1523619909329,-7274496,-120,-56,-1,-1,0
1523619909329,-6488064,-120,-56,-1,-1,0
1523619909329,-6684672,-120,-56,-1,-1,0
1523619909329,-7536640,-120,-56,-1,-1,0
1523619909371,-8519680,-120,-56,-1,-1,0
1523619909371,-9109504,-120,-56,-1,-1,0
1523619909371,-9043968,-120,-56,-1,-1,0
1523619909371,-8716288,-120,-56,-1,-1,0
1523619909371,-8257536,-120,-56,-1,-1,0
1523619909409,-7864320,-120,-56,-1,-1,0
1523619909409,-7667712,-120,-56,-1,-1,0
1523619909409,-7208960,-120,-56,-1,-1,0
1523619909409,-6291456,-120,-56,-1,-1,0
1523619909409,-5308416,-120,-56,-1,-1,0
1523619909449,-4849664,-120,-56,-1,-1,0
1523619909449,-4980736,-120,-56,-1,-1,0
1523619909449,-5570560,-120,-56,-1,-1,0
1523619909449,-6553600,-120,-56,-1,-1,0
1523619909449,-7667712,-120,-56,-1,-1,0
1523619909490,-8978432,-120,-56,-1,-1,0
1523619909490,-10616832,-120,-56,-1,-1,0
1523619909490,-12124160,-120,-56,-1,-1,0
1523619909490,-13369344,-120,-56,-1,-1,0
1523619909490,-14680064,-120,-56,-1,-1,0
1523619909530,-15925248,-120,-56,-1,-1,0
1523619909530,-16646144,-120,-56,-1,-1,0
1523619909530,-16973824,-120,-56,-1,-1,0
1523619909530,-17301504,-120,-56,-1,-1,0
1523619909530,-17498112,-120,-56,-1,-1,0
1523619909570,-17170432,-120,-56,-1,-1,0
1523619909570,-16318464,-120,-56,-1,-1,0
1523619909570,-15138816,-120,-56,-1,-1,0
1523619909570,-13107200,-120,-56,-1,-1,0
1523619909570,-10354688,-120,-56,-1,-1,0
1523619909610,-7077888,-120,-56,-1,-1,0
1523619909610,-3801088,-120,-56,-1,-1,0
1523619909610,-589824,-120,-56,-1,-1,0
1523619909610,2228224,-120,-56,-1,-1,0
1523619909610,4784128,-120,-56,-1,-1,0
1523619909650,7143424,-120,-56,-1,-1,0
1523619909650,9437184,-120,-56,-1,-1,0
1523619909650,11534336,-120,-56,-1,-1,0
1523619909650,13172736,-120,-56,-1,-1,0
1523619909650,15138816,-120,-56,-1,-1,0
1523619909689,19005440,-120,-56,-1,-1,0
1523619909689,24117248,-120,-56,-1,-1,0
1523619909689,27131904,-120,-56,-1,-1,0
1523619909689,25427968,-120,-56,-1,-1,0
1523619909689,21102592,-120,-56,-1,-1,0
1523619909730,18743296,-120,-56,-1,-1,0
1523619909730,19988480,-120,-56,-1,-1,0
1523619909730,22544384,-120,-56,-1,-1,0
1523619909730,24641536,-120,-56,-1,-1,0
1523619909730,25886720,-120,-56,-1,-1,0
1523619909770,26607616,-120,-56,-1,-1,0
1523619909770,27131904,-120,-56,-1,-1,0
1523619909770,27459584,-120,-56,-1,-1,0
1523619909770,27721728,-120,-56,-1,-1,0
1523619909770,27918336,-120,-56,-1,-1,0
1523619909809,28180480,-119,-56,-1,-1,0
1523619909809,28639232,-119,-56,-1,-1,0
1523619909809,28901376,-119,-56,-1,-1,0
1523619909809,29294592,-119,-56,-1,-1,0
1523619909809,29884416,-119,-56,-1,-1,0
1523619909849,30605312,-119,-56,-1,-1,0
1523619909849,31195136,-119,-56,-1,-1,0
1523619909849,31719424,-119,-56,-1,-1,0
1523619909849,31784960,-119,-56,-1,-1,0
1523619909849,31457280,-119,-56,-1,-1,0
1523619909889,30670848,-119,-56,-1,-1,0
1523619909889,29622272,-119,-56,-1,-1,0
1523619909889,28442624,-119,-56,-1,-1,0
1523619909889,27066368,-119,-56,-1,-1,0
1523619909889,25624576,-119,-56,-1,-1,0
1523619909930,24117248,-119,-56,-1,-1,0
1523619909930,22806528,-119,-56,-1,-1,0
1523619909930,21561344,-119,-56,-1,-1,0
1523619909930,20381696,-119,-56,-1,-1,0
1523619909930,19070976,-119,-56,-1,-1,0
1523619909971,17760256,-119,-56,-1,-1,0
1523619909971,16384000,-119,-56,-1,-1,0
1523619909971,15204352,-119,-56,-1,-1,0
1523619909971,14024704,-119,-56,-1,-1,0
1523619909971,12713984,-119,-56,-1,-1,0
1523619910012,11272192,-119,-56,-1,-1,0
1523619910012,10027008,-119,-56,-1,-1,0
1523619910012,8716288,-119,-56,-1,-1,0
1523619910012,7143424,-119,-56,-1,-1,0
1523619910012,5505024,-119,-56,-1,-1,0
1523619910049,4063232,-119,-56,-1,-1,0
1523619910049,2686976,-119,-56,-1,-1,0
1523619910049,1245184,-119,-56,-1,-1,0
1523619910049,-65536,-119,-56,-1,-1,0
1523619910049,-1245184,-119,-56,-1,-1,0
1523619910089,-2555904,-119,-56,-1,-1,0
1523619910089,-2818048,-119,-56,-1,-1,0
1523619910089,-720896,-119,-56,-1,-1,0
1523619910089,2818048,-119,-56,-1,-1,0
1523619910089,4259840,-119,-56,-1,-1,0
1523619910131,327680,-119,-56,-1,-1,0
1523619910131,-5963776,-119,-56,-1,-1,0
1523619910131,-9306112,-119,-56,-1,-1,0
1523619910131,-8323072,-119,-56,-1,-1,0
1523619910131,-6750208,-119,-56,-1,-1,0
1523619910176,-6094848,-119,-56,-1,-1,0
1523619910176,-6160384,-119,-56,-1,-1,0
1523619910176,-6750208,-119,-56,-1,-1,0
1523619910176,-6815744,-119,-56,-1,-1,0
1523619910176,-6684672,-119,-56,-1,-1,0
1523619910219,-6881280,-119,-56,-1,-1,0
1523619910219,-6881280,-119,-56,-1,-1,0
1523619910219,-6684672,-119,-56,-1,-1,0
1523619910219,-6422528,-119,-56,-1,-1,0
1523619910219,-6291456,-119,-56,-1,-1,0
1523619910250,-5767168,-119,-56,-1,-1,0
1523619910250,-5177344,-119,-56,-1,-1,0
1523619910250,-4194304,-119,-56,-1,-1,0
1523619910250,-3276800,-119,-56,-1,-1,0
1523619910250,-2818048,-119,-56,-1,-1,0
1523619910296,-2949120,-119,-56,-1,-1,0
1523619910296,-3211264,-119,-56,-1,-1,0
1523619910296,-3538944,-119,-56,-1,-1,0
1523619910296,-4194304,-119,-56,-1,-1,0
1523619910296,-4718592,-119,-56,-1,-1,0
1523619910334,-5177344,-119,-56,-1,-1,0
1523619910334,-5898240,-119,-56,-1,-1,0
1523619910334,-6881280,-119,-56,-1,-1,0
1523619910334,-7602176,-119,-56,-1,-1,0
1523619910334,-7667712,-119,-56,-1,-1,0
1523619910370,-7602176,-119,-56,-1,-1,0
1523619910370,-7864320,-119,-56,-1,-1,0
1523619910370,-8060928,-119,-56,-1,-1,0
1523619910370,-8323072,-119,-56,-1,-1,0
1523619910370,-9043968,-119,-56,-1,-1,0
1523619910421,-9699328,-119,-56,-1,-1,0
1523619910421,-9764864,-119,-56,-1,-1,0
1523619910421,-9240576,-119,-56,-1,-1,0
1523619910421,-9175040,-119,-56,-1,-1,0
1523619910421,-9764864,-119,-56,-1,-1,0
1523619910450,-10223616,-119,-56,-1,-1,0
1523619910450,-10289152,-119,-56,-1,-1,0
1523619910450,-10485760,-119,-56,-1,-1,0
1523619910450,-10813440,-119,-56,-1,-1,0
1523619910450,-11010048,-119,-56,-1,-1,0
1523619910515,-10747904,-119,-56,-1,-1,0
1523619910515,-10551296,-119,-56,-1,-1,0
1523619910515,-10485760,-119,-56,-1,-1,0
1523619910515,-10420224,-119,-56,-1,-1,0
1523619910515,-8716288,-119,-56,-1,-1,0
1523619910537,-4521984,-119,-56,-1,-1,0
1523619910537,327680,-119,-56,-1,-1,0
1523619910537,1310720,-119,-56,-1,-1,0
1523619910537,-3670016,-119,-56,-1,-1,0
1523619910537,-9830400,-119,-56,-1,-1,0
1523619910570,-11665408,-119,-56,-1,-1,0
1523619910570,-10027008,-119,-56,-1,-1,0
1523619910570,-8912896,-119,-56,-1,-1,0
1523619910570,-8781824,-119,-56,-1,-1,0
1523619910570,-8585216,-119,-56,-1,-1,0
1523619910610,-8257536,-119,-56,-1,-1,0
1523619910610,-7798784,-119,-56,-1,-1,0
1523619910610,-7077888,-119,-56,-1,-1,0
1523619910610,-6488064,-119,-56,-1,-1,0
1523619910610,-6029312,-119,-56,-1,-1,0
1523619910651,-5373952,-119,-56,-1,-1,0
1523619910651,-4521984,-119,-56,-1,-1,0
1523619910651,-3538944,-119,-56,-1,-1,0
1523619910651,-2359296,-119,-56,-1,-1,0
1523619910651,-1114112,-119,-56,-1,-1,0
1523619910690,131072,-119,-56,-1,-1,0
1523619910690,1114112,-119,-56,-1,-1,0
1523619910690,1703936,-119,-56,-1,-1,0
1523619910690,2097152,-119,-56,-1,-1,0
1523619910690,2293760,-119,-56,-1,-1,0
1523619910730,2359296,-119,-56,-1,-1,0
1523619910730,2162688,-119,-56,-1,-1,0
1523619910730,1703936,-119,-56,-1,-1,0
1523619910730,1114112,-119,-56,-1,-1,0
1523619910730,720896,-119,-56,-1,-1,0
1523619910771,589824,-119,-56,-1,-1,0
1523619910771,393216,-119,-56,-1,-1,0
1523619910771,196608,-119,-56,-1,-1,0
1523619910771,131072,-119,-56,-1,-1,0
1523619910771,0,-119,-56,-1,-1,0
1523619910810,-327680,-119,-56,-1,-1,0
1523619910810,-393216,-119,-56,-1,-1,0
1523619910810,-327680,-119,-56,-1,-1,0
1523619910810,-327680,-119,-56,-1,-1,0
1523619910810,-65536,-119,-56,-1,-1,0
1523619910851,-131072,-119,-56,-1,-1,0
1523619910851,-196608,-119,-56,-1,-1,0
1523619910851,-262144,-119,-56,-1,-1,0
1523619910851,-196608,-119,-56,-1,-1,0
1523619910851,-327680,-119,-56,-1,-1,0
1523619910890,-589824,-119,-56,-1,-1,0
1523619910890,-655360,-119,-56,-1,-1,0
1523619910890,-655360,-119,-56,-1,-1,0
1523619910890,-655360,-119,-56,-1,-1,0
1523619910890,-655360,-119,-56,-1,-1,0
1523619910930,-917504,-119,-56,-1,-1,0
1523619910930,-1376256,-119,-56,-1,-1,0
1523619910930,-786432,-119,-56,-1,-1,0
1523619910930,1638400,-119,-56,-1,-1,0
1523619910930,4521984,-119,-56,-1,-1,0
1523619910970,4390912,-119,-56,-1,-1,0
1523619910970,524288,-119,-56,-1,-1,0
1523619910970,-3538944,-119,-56,-1,-1,0
1523619910970,-4718592,-119,-56,-1,-1,0
1523619910970,-3145728,-119,-56,-1,-1,0
1523619911010,-1441792,-119,-56,-1,-1,0
1523619911010,-720896,-119,-56,-1,-1,0
1523619911010,-655360,-119,-56,-1,-1,0
1523619911010,-327680,-119,-56,-1,-1,0
1523619911010,262144,-119,-56,-1,-1,0
1523619911050,589824,-118,-56,-1,-1,0
1523619911050,786432,-118,-56,-1,-1,0
1523619911050,1048576,-118,-56,-1,-1,0
1523619911050,1507328,-118,-56,-1,-1,0
1523619911050,2228224,-118,-56,-1,-1,0
1523619911090,3145728,-118,-56,-1,-1,0
1523619911090,3801088,-118,-56,-1,-1,0
1523619911090,3801088,-118,-56,-1,-1,0
1523619911090,3735552,-118,-56,-1,-1,0
1523619911090,3997696,-118,-56,-1,-1,0
1523619911130,4456448,-118,-56,-1,-1,0
1523619911130,4718592,-118,-56,-1,-1,0
1523619911130,4718592,-118,-56,-1,-1,0
1523619911130,4521984,-118,-56,-1,-1,0
1523619911130,4194304,-118,-56,-1,-1,0
1523619911170,3801088,-118,-56,-1,-1,0
1523619911170,3407872,-118,-56,-1,-1,0
1523619911170,3145728,-118,-56,-1,-1,0
1523619911170,3014656,-118,-56,-1,-1,0
1523619911170,2818048,-118,-56,-1,-1,0
1523619911210,2228224,-118,-56,-1,-1,0
1523619911210,1310720,-118,-56,-1,-1,0
1523619911210,458752,-118,-56,-1,-1,0
1523619911210,-131072,-118,-56,-1,-1,0
1523619911210,-851968,-118,-56,-1,-1,0
1523619911250,-1507328,-118,-56,-1,-1,0
1523619911250,-1835008,-118,-56,-1,-1,0
1523619911250,-1835008,-118,-56,-1,-1,0
1523619911250,-2031616,-118,-56,-1,-1,0
1523619911250,-2359296,-118,-56,-1,-1,0
1523619911291,-2555904,-118,-56,-1,-1,0
1523619911291,-2686976,-118,-56,-1,-1,0
1523619911291,-3080192,-118,-56,-1,-1,0
1523619911291,-3342336,-118,-56,-1,-1,0
1523619911291,-3473408,-118,-56,-1,-1,0
1523619911330,-3670016,-118,-56,-1,-1,0
1523619911330,-3735552,-118,-56,-1,-1,0
1523619911330,-3670016,-118,-56,-1,-1,0
1523619911330,-3604480,-118,-56,-1,-1,0
1523619911330,-2883584,-118,-56,-1,-1,0
1523619911370,-589824,-118,-56,-1,-1,0
1523619911370,1900544,-118,-56,-1,-1,0
1523619911370,2031616,-118,-56,-1,-1,0
1523619911370,-983040,-118,-56,-1,-1,0
1523619911370,-4390912,-118,-56,-1,-1,0
1523619911410,-5570560,-118,-56,-1,-1,0
1523619911410,-4521984,-118,-56,-1,-1,0
1523619911410,-3014656,-118,-56,-1,-1,0
1523619911410,-1966080,-118,-56,-1,-1,0
1523619911410,-1507328,-118,-56,-1,-1,0
1523619911450,-1179648,-118,-56,-1,-1,0
1523619911450,-786432,-118,-56,-1,-1,0
1523619911450,-327680,-118,-56,-1,-1,0
1523619911450,65536,-118,-56,-1,-1,0
1523619911450,589824,-118,-56,-1,-1,0
1523619911490,1245184,-116,-56,-1,-1,0
1523619911490,1966080,-116,-56,-1,-1,0
1523619911490,2555904,-116,-56,-1,-1,0
1523619911490,3342336,-116,-56,-1,-1,0
1523619911490,4325376,-116,-56,-1,-1,0
1523619911531,5636096,-116,-56,-1,-1,0
1523619911531,6946816,-116,-56,-1,-1,0
1523619911531,7864320,-116,-56,-1,-1,0
1523619911531,8060928,-116,-56,-1,-1,0
1523619911531,7995392,-116,-56,-1,-1,0
1523619911570,7864320,-116,-56,-1,-1,0
1523619911570,7405568,-116,-56,-1,-1,0
1523619911570,6488064,-116,-56,-1,-1,0
1523619911570,5636096,-116,-56,-1,-1,0
1523619911570,5046272,-116,-56,-1,-1,0
1523619911610,4521984,-116,-56,-1,-1,0
1523619911610,3997696,-116,-56,-1,-1,0
1523619911610,3866624,-116,-56,-1,-1,0
1523619911610,3932160,-116,-56,-1,-1,0
1523619911610,3670016,-116,-56,-1,-1,0
1523619911651,3211264,-116,-56,-1,-1,0
1523619911651,3080192,-116,-56,-1,-1,0
1523619911651,3276800,-116,-56,-1,-1,0
1523619911651,3342336,-116,-56,-1,-1,0
1523619911651,2949120,-116,-56,-1,-1,0
1523619911692,2228224,-116,-56,-1,-1,0
1523619911692,1048576,-116,-56,-1,-1,0
1523619911692,-327680,-116,-56,-1,-1,0
1523619911692,-1572864,-116,-56,-1,-1,0
1523619911692,-2293760,-116,-56,-1,-1,0
1523619911746,-2883584,-116,-56,-1,-1,0
1523619911746,-3342336,-116,-56,-1,-1,0
1523619911746,-3670016,-116,-56,-1,-1,0
1523619911746,-3801088,-116,-56,-1,-1,0
1523619911746,-3801088,-116,-56,-1,-1,0
1523619911770,-2162688,-116,-56,-1,-1,0
1523619911770,1703936,-116,-56,-1,-1,0
1523619911770,4784128,-116,-56,-1,-1,0
1523619911770,3145728,-116,-56,-1,-1,0
1523619911770,-2424832,-116,-56,-1,-1,0
1523619911830,-7077888,-116,-56,-1,-1,0
1523619911830,-8388608,-116,-56,-1,-1,0
1523619911830,-7405568,-116,-56,-1,-1,0
1523619911830,-6619136,-116,-56,-1,-1,0
1523619911830,-6488064,-116,-56,-1,-1,0
1523619911850,-6356992,-116,-56,-1,-1,0
1523619911850,-5898240,-116,-56,-1,-1,0
1523619911850,-5701632,-116,-56,-1,-1,0
1523619911850,-6160384,-116,-56,-1,-1,0
1523619911850,-6422528,-116,-56,-1,-1,0
1523619911895,-5963776,-116,-56,-1,-1,0
1523619911895,-5177344,-116,-56,-1,-1,0
1523619911895,-4521984,-116,-56,-1,-1,0
1523619911895,-4718592,-116,-56,-1,-1,0
1523619911895,-4653056,-116,-56,-1,-1,0
1523619911930,-3735552,-116,-56,-1,-1,0
1523619911930,-2686976,-116,-56,-1,-1,0
1523619911930,-2293760,-116,-56,-1,-1,0
1523619911930,-2555904,-116,-56,-1,-1,0
1523619911930,-2686976,-116,-56,-1,-1,0
1523619911970,-2883584,-116,-56,-1,-1,0
1523619911970,-3276800,-116,-56,-1,-1,0
1523619911970,-3932160,-116,-56,-1,-1,0
1523619911970,-4259840,-116,-56,-1,-1,0
1523619911970,-4915200,-116,-56,-1,-1,0
1523619912010,-5767168,-116,-56,-1,-1,0
1523619912010,-6488064,-116,-56,-1,-1,0
1523619912010,-6684672,-116,-56,-1,-1,0
1523619912010,-6684672,-116,-56,-1,-1,0
1523619912010,-7077888,-116,-56,-1,-1,0
1523619912050,-7340032,-116,-56,-1,-1,0
1523619912050,-7143424,-116,-56,-1,-1,0
1523619912050,-7340032,-116,-56,-1,-1,0
1523619912050,-7536640,-116,-56,-1,-1,0
1523619912050,-7471104,-116,-56,-1,-1,0
1523619912090,-7143424,-116,-56,-1,-1,0
1523619912090,-6815744,-116,-56,-1,-1,0
1523619912090,-6750208,-116,-56,-1,-1,0
1523619912090,-7340032,-116,-56,-1,-1,0
1523619912090,-8126464,-116,-56,-1,-1,0
1523619912130,-8585216,-116,-56,-1,-1,0
1523619912130,-8781824,-116,-56,-1,-1,0
1523619912130,-8978432,-116,-56,-1,-1,0
1523619912130,-9043968,-116,-56,-1,-1,0
1523619912130,-9043968,-116,-56,-1,-1,0
1523619912170,-9437184,-116,-56,-1,-1,0
1523619912170,-10027008,-116,-56,-1,-1,0
1523619912170,-9306112,-116,-56,-1,-1,0
1523619912170,-6488064,-116,-56,-1,-1,0
1523619912170,-3932160,-116,-56,-1,-1,0
1523619912210,-4390912,-116,-56,-1,-1,0
1523619912210,-8126464,-116,-56,-1,-1,0
1523619912210,-11599872,-116,-56,-1,-1,0
1523619912210,-12189696,-116,-56,-1,-1,0
1523619912210,-10485760,-116,-56,-1,-1,0
1523619912250,-8978432,-116,-56,-1,-1,0
1523619912250,-8257536,-116,-56,-1,-1,0
1523619912250,-8126464,-116,-56,-1,-1,0
1523619912250,-8192000,-116,-56,-1,-1,0
1523619912250,-7995392,-116,-56,-1,-1,0
1523619912290,-7602176,-115,-56,-1,-1,0
1523619912290,-7274496,-115,-56,-1,-1,0
1523619912290,-6946816,-115,-56,-1,-1,0
1523619912290,-6684672,-115,-56,-1,-1,0
1523619912290,-6619136,-115,-56,-1,-1,0
1523619912330,-6422528,-115,-56,-1,-1,0
1523619912330,-6029312,-115,-56,-1,-1,0
1523619912330,-5439488,-115,-56,-1,-1,0
1523619912330,-4980736,-115,-56,-1,-1,0
1523619912330,-4587520,-115,-56,-1,-1,0
1523619912370,-4521984,-115,-56,-1,-1,0
1523619912370,-4915200,-115,-56,-1,-1,0
1523619912370,-5636096,-115,-56,-1,-1,0
1523619912370,-6422528,-115,-56,-1,-1,0
1523619912370,-7340032,-115,-56,-1,-1,0
1523619912410,-8257536,-115,-56,-1,-1,0
1523619912410,-9043968,-115,-56,-1,-1,0
1523619912410,-9568256,-115,-56,-1,-1,0
1523619912410,-9830400,-115,-56,-1,-1,0
1523619912410,-10027008,-115,-56,-1,-1,0
1523619912450,-10485760,-115,-56,-1,-1,0
1523619912450,-10878976,-115,-56,-1,-1,0
1523619912450,-11403264,-115,-56,-1,-1,0
1523619912450,-12058624,-115,-56,-1,-1,0
1523619912450,-12845056,-115,-56,-1,-1,0
1523619912491,-13631488,-115,-56,-1,-1,0
1523619912491,-14483456,-115,-56,-1,-1,0
1523619912491,-15204352,-115,-56,-1,-1,0
1523619912491,-15925248,-115,-56,-1,-1,0
1523619912491,-16777216,-115,-56,-1,-1,0
1523619912530,-17432576,-115,-56,-1,-1,0
1523619912530,-18087936,-115,-56,-1,-1,0
1523619912530,-18415616,-115,-56,-1,-1,0
1523619912530,-17760256,-115,-56,-1,-1,0
1523619912530,-16580608,-115,-56,-1,-1,0
1523619912571,-15073280,-115,-56,-1,-1,0
1523619912571,-13238272,-115,-56,-1,-1,0
1523619912571,-10092544,-115,-56,-1,-1,0
1523619912571,-4653056,-115,-56,-1,-1,0
1523619912571,2293760,-115,-56,-1,-1,0
1523619912610,7733248,-115,-56,-1,-1,0
1523619912610,8519680,-115,-56,-1,-1,0
1523619912610,5767168,-115,-56,-1,-1,0
1523619912610,4390912,-115,-56,-1,-1,0
1523619912610,6619136,-115,-56,-1,-1,0
1523619912650,10092544,-115,-56,-1,-1,0
1523619912650,12976128,-115,-56,-1,-1,0
1523619912650,15400960,-115,-56,-1,-1,0
1523619912650,17629184,-115,-56,-1,-1,0
1523619912650,19464192,-115,-56,-1,-1,0
1523619912690,20512768,-115,-56,-1,-1,0
1523619912690,21102592,-115,-56,-1,-1,0
1523619912690,21757952,-115,-56,-1,-1,0
1523619912690,22675456,-115,-56,-1,-1,0
1523619912690,23789568,-115,-56,-1,-1,0
1523619912730,24707072,-115,-56,-1,-1,0
1523619912730,25624576,-115,-56,-1,-1,0
1523619912730,26804224,-115,-56,-1,-1,0
1523619912730,28311552,-115,-56,-1,-1,0
1523619912730,29753344,-115,-56,-1,-1,0
1523619912770,30998528,-115,-56,-1,-1,0
1523619912770,31653888,-115,-56,-1,-1,0
1523619912770,31916032,-115,-56,-1,-1,0
1523619912770,31653888,-115,-56,-1,-1,0
1523619912770,31326208,-115,-56,-1,-1,0
1523619912810,30605312,-115,-56,-1,-1,0
1523619912810,29818880,-115,-56,-1,-1,0
1523619912810,29294592,-115,-56,-1,-1,0
1523619912810,28835840,-115,-56,-1,-1,0
