milliseconds, ECG, ECG HR, PPG, PPG HR, SpO2, PI
0,-1114112,121,-56,-1,-1,0
33,-851968,121,-56,-1,-1,0
66,0,121,-56,-1,-1,0
100,983040,121,-56,-1,-1,0
133,-327680,121,-56,-1,-1,0
166,-786432,121,-56,-1,-1,0
200,-720896,121,-56,-1,-1,0
233,-655360,121,-56,-1,-1,0
266,-655360,121,-56,-1,-1,0
300,-720896,121,-56,-1,-1,0
333,2949120,121,-56,-1,-1,0
366,-1638400,121,-56,-1,-1,0
400,-851968,121,-56,-1,-1,0
433,-655360,121,-56,-1,-1,0
466,65536,121,-56,-1,-1,0
500,1245184,121,-56,-1,-1,0
533,65536,121,-56,-1,-1,0
566,-524288,121,-56,-1,-1,0
600,-458752,121,-56,-1,-1,0
633,-327680,121,-56,-1,-1,0
666,-327680,121,-56,-1,-1,0
700,-524288,121,-56,-1,-1,0
733,655360,121,-56,-1,-1,0
766,-1376256,121,-56,-1,-1,0
800,-589824,121,-56,-1,-1,0
833,-393216,121,-56,-1,-1,0
866,0,121,-56,-1,-1,0
900,1376256,121,-56,-1,-1,0
933,393216,121,-56,-1,-1,0
966,-262144,121,-56,-1,-1,0
1000,-327680,121,-56,-1,-1,0
1033,-327680,121,-56,-1,-1,0
1066,-196608,121,-56,-1,-1,0
1100,-327680,121,-56,-1,-1,0
1133,-917504,121,-56,-1,-1,0
1166,262144,121,-56,-1,-1,0
1200,-524288,121,-56,-1,-1,0
1233,-458752,121,-56,-1,-1,0
1266,0,121,-56,-1,-1,0
1300,983040,121,-56,-1,-1,0
1333,786432,121,-56,-1,-1,0
1366,-262144,121,-56,-1,-1,0
1400,-131072,121,-56,-1,-1,0
1433,-196608,121,-56,-1,-1,0
1466,-65536,121,-56,-1,-1,0
1500,-65536,121,-56,-1,-1,0
1533,-1048576,121,-56,-1,-1,0
1566,2883584,121,-56,-1,-1,0
1600,-262144,121,-56,-1,-1,0
1633,-196608,121,-56,-1,-1,0
1666,65536,121,-56,-1,-1,0
1700,917504,121,-56,-1,-1,0
1733,917504,121,-56,-1,-1,0
1766,-131072,121,-56,-1,-1,0
1800,-327680,121,-56,-1,-1,0
1833,-393216,121,-56,-1,-1,0
1866,-458752,121,-56,-1,-1,0
1900,-589824,121,-56,-1,-1,0
1933,-720896,121,-56,-1,-1,0
1966,3866624,121,-56,-1,-1,0
2000,-1310720,121,-56,-1,-1,0
2033,-720896,121,-56,-1,-1,0
2066,-589824,121,-56,-1,-1,0
2100,0,121,-56,-1,-1,0
2133,917504,121,-56,-1,-1,0
2166,-196608,121,-56,-1,-1,0
2200,-655360,121,-56,-1,-1,0
2233,-589824,121,-56,-1,-1,0
2266,-458752,121,-56,-1,-1,0
2300,-458752,121,-56,-1,-1,0
2333,-458752,121,-56,-1,-1,0
2366,2228224,121,-56,-1,-1,0
2400,-1507328,121,-56,-1,-1,0
2433,-589824,121,-56,-1,-1,0
2466,-196608,121,-56,-1,-1,0
2500,589824,121,-56,-1,-1,0
2533,1638400,121,-56,-1,-1,0
2566,524288,121,-56,-1,-1,0
2600,-196608,121,-56,-1,-1,0
2633,-131072,121,-56,-1,-1,0
2666,-65536,121,-56,-1,-1,0
2700,-196608,121,-56,-1,-1,0
2733,-327680,121,-56,-1,-1,0
2766,-393216,121,-56,-1,-1,0
2800,-1114112,121,-56,-1,-1,0
2833,-524288,121,-56,-1,-1,0
2866,-393216,121,-56,-1,-1,0
2900,0,121,-56,-1,-1,0
2933,1376256,121,-56,-1,-1,0
2966,589824,121,-56,-1,-1,0
3000,-393216,121,-56,-1,-1,0
3033,-393216,121,-56,-1,-1,0
3066,-524288,121,-56,-1,-1,0
3100,-589824,121,-56,-1,-1,0
3133,-589824,121,-56,-1,-1,0
3166,-1310720,121,-56,-1,-1,0
3200,2949120,121,-56,-1,-1,0
3233,-655360,121,-56,-1,-1,0
3266,-524288,121,-56,-1,-1,0
3300,-131072,121,-56,-1,-1,0
3333,983040,121,-56,-1,-1,0
3366,1179648,121,-56,-1,-1,0
3400,0,121,-56,-1,-1,0
3433,-131072,122,-56,-1,-1,0
3466,0,122,-56,-1,-1,0
3500,65536,122,-56,-1,-1,0
3533,131072,122,-56,-1,-1,0
3566,196608,122,-56,-1,-1,0
3600,4325376,122,-56,-1,-1,0
3633,-65536,122,-56,-1,-1,0
3666,196608,122,-56,-1,-1,0
3699,393216,122,-56,-1,-1,0
3733,917504,122,-56,-1,-1,0
3766,1835008,122,-56,-1,-1,0
3800,851968,122,-56,-1,-1,0
3833,262144,122,-56,-1,-1,0
3866,327680,122,-56,-1,-1,0
3900,196608,122,-56,-1,-1,0
3933,65536,122,-56,-1,-1,0
3966,-65536,122,-56,-1,-1,0
4000,-262144,122,-56,-1,-1,0
4033,4653056,122,-56,-1,-1,0
4066,-589824,122,-56,-1,-1,0
4100,-458752,122,-56,-1,-1,0
4133,-262144,122,-56,-1,-1,0
4166,393216,122,-56,-1,-1,0
4200,1048576,122,-56,-1,-1,0
4233,-196608,122,-56,-1,-1,0
4266,-786432,122,-56,-1,-1,0
4300,-720896,122,-56,-1,-1,0
4333,-720896,122,-56,-1,-1,0
4366,-786432,122,-56,-1,-1,0
4400,-917504,122,-56,-1,-1,0
4433,-1507328,122,-56,-1,-1,0
4466,-131072,122,-56,-1,-1,0
4500,-1048576,122,-56,-1,-1,0
4533,-983040,122,-56,-1,-1,0
4566,-524288,122,-56,-1,-1,0
4600,720896,122,-56,-1,-1,0
4633,589824,122,-56,-1,-1,0
4666,-655360,122,-56,-1,-1,0
4700,-786432,122,-56,-1,-1,0
4733,-589824,122,-56,-1,-1,0
4766,-655360,122,-56,-1,-1,0
4800,-786432,122,-56,-1,-1,0
4833,-786432,122,-56,-1,-1,0
4866,2424832,122,-56,-1,-1,0
4900,-1703936,122,-56,-1,-1,0
4933,-851968,122,-56,-1,-1,0
4966,-720896,122,-56,-1,-1,0
5000,0,122,-56,-1,-1,0
5033,1114112,122,-56,-1,-1,0
5066,-65536,122,-56,-1,-1,0
5100,-786432,122,-56,-1,-1,0
5133,-655360,122,-56,-1,-1,0
5166,-458752,122,-56,-1,-1,0
5200,-524288,122,-56,-1,-1,0
5233,-524288,122,-56,-1,-1,0
5266,-917504,122,-56,-1,-1,0
5300,4587520,122,-56,-1,-1,0
5333,-851968,122,-56,-1,-1,0
5366,-655360,122,-56,-1,-1,0
5400,-393216,122,-56,-1,-1,0
5433,655360,122,-56,-1,-1,0
5466,1179648,122,-56,-1,-1,0
5500,-65536,122,-56,-1,-1,0
5533,-262144,122,-56,-1,-1,0
5566,-131072,122,-56,-1,-1,0
5600,-131072,122,-56,-1,-1,0
5633,-327680,122,-56,-1,-1,0
5666,-327680,122,-56,-1,-1,0
5700,-983040,122,-56,-1,-1,0
5733,1048576,122,-56,-1,-1,0
5766,-458752,122,-56,-1,-1,0
5800,-327680,122,-56,-1,-1,0
5833,-65536,122,-56,-1,-1,0
5866,983040,122,-56,-1,-1,0
5900,851968,122,-56,-1,-1,0
5933,-262144,122,-56,-1,-1,0
5966,-327680,122,-56,-1,-1,0
6000,-262144,122,-56,-1,-1,0
6033,-262144,122,-56,-1,-1,0
6066,-327680,122,-56,-1,-1,0
6100,-458752,122,-56,-1,-1,0
6133,2490368,122,-56,-1,-1,0
6166,-1376256,122,-56,-1,-1,0
6200,-524288,122,-56,-1,-1,0
6233,-524288,122,-56,-1,-1,0
6266,65536,122,-56,-1,-1,0
6300,1310720,122,-56,-1,-1,0
6333,131072,122,-56,-1,-1,0
6366,-458752,122,-56,-1,-1,0
6400,-262144,122,-56,-1,-1,0
6433,-262144,122,-56,-1,-1,0
6466,-262144,122,-56,-1,-1,0
6500,-393216,122,-56,-1,-1,0
6533,-720896,122,-56,-1,-1,0
6566,-524288,122,-56,-1,-1,0
6600,-524288,122,-56,-1,-1,0
6633,-327680,122,-56,-1,-1,0
6666,262144,122,-56,-1,-1,0
6700,1835008,122,-56,-1,-1,0
6733,1048576,122,-56,-1,-1,0
6766,-196608,122,-56,-1,-1,0
6800,-131072,122,-56,-1,-1,0
6833,0,122,-56,-1,-1,0
6866,-65536,122,-56,-1,-1,0
6899,-327680,122,-56,-1,-1,0
6933,-1245184,122,-56,-1,-1,0
6966,2686976,122,-56,-1,-1,0
7000,-720896,122,-56,-1,-1,0
7033,-655360,122,-56,-1,-1,0
7066,-196608,122,-56,-1,-1,0
7100,1179648,122,-56,-1,-1,0
7133,1114112,122,-56,-1,-1,0
7166,-131072,122,-56,-1,-1,0
7200,-131072,122,-56,-1,-1,0
7233,131072,122,-56,-1,-1,0
7266,196608,122,-56,-1,-1,0
7300,65536,122,-56,-1,-1,0
7333,-393216,122,-56,-1,-1,0
7366,6094848,122,-56,-1,-1,0
7399,-196608,122,-56,-1,-1,0
7433,65536,122,-56,-1,-1,0
7466,327680,122,-56,-1,-1,0
7500,1376256,122,-56,-1,-1,0
7533,1835008,122,-56,-1,-1,0
7566,327680,122,-56,-1,-1,0
7600,0,122,-56,-1,-1,0
7633,0,122,-56,-1,-1,0
7666,0,122,-56,-1,-1,0
7700,-262144,122,-56,-1,-1,0
7733,-786432,122,-56,-1,-1,0
7766,5570560,122,-56,-1,-1,0
7800,-983040,122,-56,-1,-1,0
7833,-851968,122,-56,-1,-1,0
7866,-786432,122,-56,-1,-1,0
7899,65536,122,-56,-1,-1,0
7933,589824,122,-56,-1,-1,0
7966,-983040,122,-56,-1,-1,0
8000,-1245184,122,-56,-1,-1,0
8033,-983040,122,-56,-1,-1,0
8066,-851968,122,-56,-1,-1,0
8100,-983040,122,-56,-1,-1,0
8133,-1638400,122,-56,-1,-1,0
8166,3538944,122,-56,-1,-1,0
8200,-1114112,122,-56,-1,-1,0
8233,-851968,122,-56,-1,-1,0
8266,-524288,122,-56,-1,-1,0
8300,458752,122,-56,-1,-1,0
8333,786432,122,-56,-1,-1,0
8366,-393216,122,-56,-1,-1,0
8400,-589824,122,-56,-1,-1,0
8433,-393216,122,-56,-1,-1,0
8466,-524288,122,-56,-1,-1,0
8500,-393216,122,-56,-1,-1,0
8533,-917504,122,-56,-1,-1,0
8566,4980736,122,-56,-1,-1,0
8600,-851968,122,-56,-1,-1,0
8633,-720896,122,-56,-1,-1,0
8666,-655360,122,-56,-1,-1,0
8700,196608,122,-56,-1,-1,0
8733,851968,122,-56,-1,-1,0
8766,-393216,122,-56,-1,-1,0
8800,-458752,122,-56,-1,-1,0
8833,-458752,122,-56,-1,-1,0
8866,-327680,122,-56,-1,-1,0
8900,-262144,122,-56,-1,-1,0
8933,-458752,122,-56,-1,-1,0
8966,4718592,122,-56,-1,-1,0
9000,-786432,122,-56,-1,-1,0
9033,-393216,122,-56,-1,-1,0
9066,-327680,122,-56,-1,-1,0
9100,393216,122,-56,-1,-1,0
9133,1376256,122,-56,-1,-1,0
9166,131072,122,-56,-1,-1,0
9200,-393216,122,-56,-1,-1,0
9233,-196608,122,-56,-1,-1,0
9266,-196608,122,-56,-1,-1,0
9300,-262144,122,-56,-1,-1,0
9333,-327680,122,-56,-1,-1,0
9366,2490368,122,-56,-1,-1,0
9400,-1441792,122,-56,-1,-1,0
9433,-589824,122,-56,-1,-1,0
9466,-196608,122,-56,-1,-1,0
9500,262144,122,-56,-1,-1,0
9533,1638400,122,-56,-1,-1,0
9566,327680,122,-56,-1,-1,0
9600,-327680,122,-56,-1,-1,0
9633,-327680,122,-56,-1,-1,0
9666,-196608,122,-56,-1,-1,0
9700,-262144,122,-56,-1,-1,0
9733,-458752,122,-56,-1,-1,0
9766,1441792,122,-56,-1,-1,0
9800,-1638400,122,-56,-1,-1,0
9833,-786432,122,-56,-1,-1,0
9866,-589824,122,-56,-1,-1,0
9900,65536,122,-56,-1,-1,0
9933,1507328,122,-56,-1,-1,0
9966,327680,122,-56,-1,-1,0
10000,-393216,122,-56,-1,-1,0
10033,-524288,122,-56,-1,-1,0
10066,-131072,122,-56,-1,-1,0
10100,-131072,122,-56,-1,-1,0
10133,-327680,122,-56,-1,-1,0
10166,2293760,122,-56,-1,-1,0
10200,-1572864,122,-56,-1,-1,0
10233,-655360,122,-56,-1,-1,0
10266,-458752,122,-56,-1,-1,0
10300,131072,122,-56,-1,-1,0
10333,1572864,122,-56,-1,-1,0
10366,65536,122,-56,-1,-1,0
10400,-524288,122,-56,-1,-1,0
10433,-458752,122,-56,-1,-1,0
10466,-393216,122,-56,-1,-1,0
10500,-262144,122,-56,-1,-1,0
10533,-589824,122,-56,-1,-1,0
10566,458752,122,-56,-1,-1,0
10600,-1507328,122,-56,-1,-1,0
10633,-786432,122,-56,-1,-1,0
10666,-524288,122,-56,-1,-1,0
10700,-65536,122,-56,-1,-1,0
10733,1441792,122,-56,-1,-1,0
10766,327680,122,-56,-1,-1,0
10800,-589824,122,-56,-1,-1,0
10833,-720896,122,-56,-1,-1,0
10866,-524288,122,-56,-1,-1,0
10900,-524288,122,-56,-1,-1,0
10933,-720896,122,-56,-1,-1,0
10966,-458752,122,-56,-1,-1,0
11000,-1376256,122,-56,-1,-1,0
11033,-983040,122,-56,-1,-1,0
11066,-720896,122,-56,-1,-1,0
11100,-196608,122,-56,-1,-1,0
11133,1114112,122,-56,-1,-1,0
11166,393216,122,-56,-1,-1,0
11200,-589824,122,-56,-1,-1,0
11233,-720896,122,-56,-1,-1,0
11266,-524288,122,-56,-1,-1,0
11300,-327680,122,-56,-1,-1,0
11333,-524288,122,-56,-1,-1,0
11366,-1179648,122,-56,-1,-1,0
11400,1245184,122,-56,-1,-1,0
11433,-589824,122,-56,-1,-1,0
11466,-262144,122,-56,-1,-1,0
11500,131072,122,-56,-1,-1,0
11533,1507328,122,-56,-1,-1,0
11566,1376256,122,-56,-1,-1,0
11600,65536,122,-56,-1,-1,0
11633,0,122,-56,-1,-1,0
11666,65536,122,-56,-1,-1,0
11700,0,122,-56,-1,-1,0
11733,0,122,-56,-1,-1,0
11766,0,122,-56,-1,-1,0
11800,3211264,122,-56,-1,-1,0
11833,-720896,122,-56,-1,-1,0
11866,-262144,122,-56,-1,-1,0
11900,-196608,122,-56,-1,-1,0
11933,262144,122,-56,-1,-1,0
11966,1507328,122,-56,-1,-1,0
12000,524288,122,-56,-1,-1,0
12033,-262144,122,-56,-1,-1,0
12066,-393216,122,-56,-1,-1,0
12100,-262144,122,-56,-1,-1,0
12133,-393216,122,-56,-1,-1,0
12166,-393216,122,-56,-1,-1,0
12200,-589824,122,-56,-1,-1,0
12233,3538944,122,-56,-1,-1,0
12266,-1376256,122,-56,-1,-1,0
12300,-983040,122,-56,-1,-1,0
12333,-720896,122,-56,-1,-1,0
12366,0,122,-56,-1,-1,0
12400,1048576,122,-56,-1,-1,0
12433,-131072,122,-56,-1,-1,0
12466,-917504,122,-56,-1,-1,0
12500,-851968,122,-56,-1,-1,0
12533,-655360,122,-56,-1,-1,0
12566,-524288,122,-56,-1,-1,0
12600,-655360,122,-56,-1,-1,0
12633,-1179648,122,-56,-1,-1,0
12666,1703936,122,-56,-1,-1,0
12700,-917504,122,-56,-1,-1,0
12733,-720896,122,-56,-1,-1,0
12766,-196608,122,-56,-1,-1,0
12800,1114112,122,-56,-1,-1,0
12833,1114112,122,-56,-1,-1,0
12866,-262144,122,-56,-1,-1,0
12900,-458752,122,-56,-1,-1,0
12933,-327680,122,-56,-1,-1,0
12966,-327680,122,-56,-1,-1,0
13000,-458752,122,-56,-1,-1,0
13033,-524288,122,-56,-1,-1,0
13066,1572864,122,-56,-1,-1,0
13100,-1507328,122,-56,-1,-1,0
13133,-589824,122,-56,-1,-1,0
13166,-393216,122,-56,-1,-1,0
13200,262144,122,-56,-1,-1,0
13233,1638400,122,-56,-1,-1,0
13266,327680,122,-56,-1,-1,0
13299,-327680,122,-56,-1,-1,0
13333,-327680,122,-56,-1,-1,0
13366,-196608,122,-56,-1,-1,0
13400,-327680,122,-56,-1,-1,0
13433,-196608,122,-56,-1,-1,0
13466,-393216,122,-56,-1,-1,0
13500,5177344,122,-56,-1,-1,0
13533,-655360,122,-56,-1,-1,0
13566,-196608,122,-56,-1,-1,0
13600,-131072,122,-56,-1,-1,0
13633,720896,122,-56,-1,-1,0
13666,1572864,122,-56,-1,-1,0
13700,393216,122,-56,-1,-1,0
13733,-196608,122,-56,-1,-1,0
13766,-196608,122,-56,-1,-1,0
13799,-131072,122,-56,-1,-1,0
13833,-327680,122,-56,-1,-1,0
13866,-327680,122,-56,-1,-1,0
13900,-589824,122,-56,-1,-1,0
13933,4456448,122,-56,-1,-1,0
13966,-1048576,122,-56,-1,-1,0
14000,-524288,122,-56,-1,-1,0
14033,-327680,122,-56,-1,-1,0
14066,524288,122,-56,-1,-1,0
14100,1441792,122,-56,-1,-1,0
14133,0,122,-56,-1,-1,0
14166,-589824,122,-56,-1,-1,0
14200,-458752,122,-56,-1,-1,0
14233,-393216,122,-56,-1,-1,0
14266,-524288,122,-56,-1,-1,0
14299,-589824,122,-56,-1,-1,0
14333,-1245184,122,-56,-1,-1,0
14366,2424832,122,-56,-1,-1,0
14400,-786432,122,-56,-1,-1,0
14433,-524288,122,-56,-1,-1,0
14466,0,122,-56,-1,-1,0
14500,1441792,122,-56,-1,-1,0
14533,1572864,122,-56,-1,-1,0
14566,65536,122,-56,-1,-1,0
14600,-65536,122,-56,-1,-1,0
14633,262144,122,-56,-1,-1,0
14666,196608,122,-56,-1,-1,0
14700,196608,122,-56,-1,-1,0
14733,65536,122,-56,-1,-1,0
14766,524288,122,-56,-1,-1,0
14799,-524288,122,-56,-1,-1,0
14833,196608,122,-56,-1,-1,0
14866,393216,122,-56,-1,-1,0
14900,1048576,122,-56,-1,-1,0
14933,2555904,122,-56,-1,-1,0
14966,1572864,122,-56,-1,-1,0
15000,458752,122,-56,-1,-1,0
15033,393216,121,-56,-1,-1,0
15066,589824,121,-56,-1,-1,0
15100,458752,121,-56,-1,-1,0
15133,327680,121,-56,-1,-1,0
15166,65536,121,-56,-1,-1,0
15200,1310720,121,-56,-1,-1,0
15233,-393216,121,-56,-1,-1,0
15266,-131072,121,-56,-1,-1,0
15299,-65536,121,-56,-1,-1,0
15333,131072,121,-56,-1,-1,0
15366,1376256,121,-56,-1,-1,0
15400,262144,121,-56,-1,-1,0
15433,-786432,121,-56,-1,-1,0
15466,-917504,121,-56,-1,-1,0
15500,-917504,121,-56,-1,-1,0
15533,-1310720,121,-56,-1,-1,0
15566,-1441792,121,-56,-1,-1,0
15600,-1769472,121,-56,-1,-1,0
15633,-2228224,121,-56,-1,-1,0
15666,-1507328,121,-56,-1,-1,0
15700,-1769472,121,-56,-1,-1,0
15733,-1507328,121,-56,-1,-1,0
15766,-1048576,121,-56,-1,-1,0
15799,393216,121,-56,-1,-1,0
15833,0,121,-56,-1,-1,0
15866,-1179648,121,-56,-1,-1,0
15900,-1048576,120,-56,-1,-1,0
15933,-720896,120,-56,-1,-1,0
15966,-393216,120,-56,-1,-1,0
16000,-589824,120,-56,-1,-1,0
16033,-458752,120,-56,-1,-1,0
16066,4456448,120,-56,-1,-1,0
16100,-983040,120,-56,-1,-1,0
16133,65536,120,-56,-1,-1,0
16166,393216,120,-56,-1,-1,0
16200,1638400,120,-56,-1,-1,0
16233,2949120,120,-56,-1,-1,0
16266,1441792,120,-56,-1,-1,0
16300,1048576,120,-56,-1,-1,0
16333,1507328,120,-56,-1,-1,0
16366,1703936,120,-56,-1,-1,0
16400,1638400,120,-56,-1,-1,0
16433,1703936,120,-56,-1,-1,0
16466,1572864,120,-56,-1,-1,0
16500,7995392,120,-56,-1,-1,0
16533,1376256,120,-56,-1,-1,0
16566,1769472,120,-56,-1,-1,0
16600,1966080,120,-56,-1,-1,0
16633,2883584,120,-56,-1,-1,0
16666,3473408,120,-56,-1,-1,0
16700,1441792,120,-56,-1,-1,0
16733,524288,119,-56,-1,-1,0
16766,196608,119,-56,-1,-1,0
16800,-131072,119,-56,-1,-1,0
16833,-720896,119,-56,-1,-1,0
16866,-1245184,119,-56,-1,-1,0
16900,-2359296,119,-56,-1,-1,0
16933,1572864,119,-56,-1,-1,0
16966,-2359296,119,-56,-1,-1,0
17000,-2228224,119,-56,-1,-1,0
17033,-2162688,119,-56,-1,-1,0
17066,-851968,119,-56,-1,-1,0
17100,-1048576,119,-56,-1,-1,0
17133,-2424832,119,-56,-1,-1,0
17166,-2490368,119,-56,-1,-1,0
17200,-2228224,119,-56,-1,-1,0
17233,-2162688,119,-56,-1,-1,0
17266,-2097152,119,-56,-1,-1,0
17300,-2097152,119,-56,-1,-1,0
17333,-983040,119,-56,-1,-1,0
17366,-2424832,119,-56,-1,-1,0
17400,-1769472,119,-56,-1,-1,0
17433,-1441792,119,-56,-1,-1,0
17466,-786432,119,-56,-1,-1,0
17500,524288,119,-56,-1,-1,0
17533,-458752,119,-56,-1,-1,0
17566,-1179648,119,-56,-1,-1,0
17600,-1179648,119,-56,-1,-1,0
17633,-1179648,119,-56,-1,-1,0
17666,-1048576,119,-56,-1,-1,0
17700,-1179648,119,-56,-1,-1,0
17733,-1310720,119,-56,-1,-1,0
17766,4194304,119,-56,-1,-1,0
17800,-1638400,119,-56,-1,-1,0
17833,-1310720,119,-56,-1,-1,0
17866,-917504,119,-56,-1,-1,0
17900,0,119,-56,-1,-1,0
17933,786432,119,-56,-1,-1,0
17966,-524288,119,-56,-1,-1,0
18000,-1048576,119,-56,-1,-1,0
18033,-983040,119,-56,-1,-1,0
18066,-917504,119,-56,-1,-1,0
18100,-1048576,119,-56,-1,-1,0
18133,-1048576,119,-56,-1,-1,0
18166,-1900544,119,-56,-1,-1,0
18200,589824,119,-56,-1,-1,0
18233,-1179648,119,-56,-1,-1,0
18266,-851968,119,-56,-1,-1,0
18300,-262144,119,-56,-1,-1,0
18333,983040,119,-56,-1,-1,0
18366,720896,119,-56,-1,-1,0
18400,-131072,119,-56,-1,-1,0
18433,-131072,119,-56,-1,-1,0
18466,0,119,-56,-1,-1,0
18500,0,119,-56,-1,-1,0
18533,65536,119,-56,-1,-1,0
18566,0,119,-56,-1,-1,0
18600,2162688,119,-56,-1,-1,0
18633,-786432,119,-56,-1,-1,0
18666,0,119,-56,-1,-1,0
18700,262144,119,-56,-1,-1,0
18733,917504,119,-56,-1,-1,0
18766,2162688,119,-56,-1,-1,0
18800,983040,119,-56,-1,-1,0
18833,327680,119,-56,-1,-1,0
18866,327680,119,-56,-1,-1,0
18900,524288,119,-56,-1,-1,0
18933,327680,119,-56,-1,-1,0
18966,262144,119,-56,-1,-1,0
19000,-196608,119,-56,-1,-1,0
19033,4063232,119,-56,-1,-1,0
19066,0,119,-56,-1,-1,0
19100,196608,119,-56,-1,-1,0
19133,393216,119,-56,-1,-1,0
19166,1572864,119,-56,-1,-1,0
19200,1572864,119,-56,-1,-1,0
19233,196608,119,-56,-1,-1,0
19266,131072,119,-56,-1,-1,0
19300,0,119,-56,-1,-1,0
19333,0,119,-56,-1,-1,0
19366,-196608,119,-56,-1,-1,0
19400,-458752,119,-56,-1,-1,0
19433,524288,119,-56,-1,-1,0
19466,-1572864,119,-56,-1,-1,0
19500,-917504,119,-56,-1,-1,0
19533,-786432,119,-56,-1,-1,0
19566,-262144,119,-56,-1,-1,0
19600,786432,119,-56,-1,-1,0
19633,-131072,119,-56,-1,-1,0
19666,-917504,119,-56,-1,-1,0
19700,-786432,119,-56,-1,-1,0
19733,-786432,119,-56,-1,-1,0
19766,-983040,119,-56,-1,-1,0
19800,-917504,119,-56,-1,-1,0
19833,-1114112,119,-56,-1,-1,0
19866,4521984,119,-56,-1,-1,0
19900,-1310720,119,-56,-1,-1,0
19933,-1114112,119,-56,-1,-1,0
19966,-720896,119,-56,-1,-1,0
20000,65536,119,-56,-1,-1,0
20033,851968,119,-56,-1,-1,0
20066,-327680,119,-56,-1,-1,0
20100,-655360,119,-56,-1,-1,0
20133,-589824,119,-56,-1,-1,0
20166,-655360,119,-56,-1,-1,0
20200,-786432,119,-56,-1,-1,0
20233,-983040,119,-56,-1,-1,0
20266,-1769472,119,-56,-1,-1,0
20300,720896,119,-56,-1,-1,0
20333,-1179648,119,-56,-1,-1,0
20366,-1048576,119,-56,-1,-1,0
20400,-720896,119,-56,-1,-1,0
20433,589824,119,-56,-1,-1,0
20466,262144,119,-56,-1,-1,0
20500,-655360,119,-56,-1,-1,0
20533,-720896,119,-56,-1,-1,0
20566,-458752,119,-56,-1,-1,0
20600,-458752,119,-56,-1,-1,0
20633,-524288,119,-56,-1,-1,0
20666,-524288,119,-56,-1,-1,0
20700,4456448,119,-56,-1,-1,0
20733,-983040,119,-56,-1,-1,0
20766,-589824,119,-56,-1,-1,0
20800,-65536,119,-56,-1,-1,0
20833,917504,119,-56,-1,-1,0
20866,1507328,119,-56,-1,-1,0
20900,0,119,-56,-1,-1,0
20933,-196608,119,-56,-1,-1,0
20966,0,119,-56,-1,-1,0
21000,-131072,119,-56,-1,-1,0
21033,-262144,119,-56,-1,-1,0
21066,-393216,119,-56,-1,-1,0
21100,-917504,119,-56,-1,-1,0
21133,131072,119,-56,-1,-1,0
21166,-458752,119,-56,-1,-1,0
21200,-393216,119,-56,-1,-1,0
21233,196608,119,-56,-1,-1,0
21266,1507328,119,-56,-1,-1,0
21300,851968,119,-56,-1,-1,0
21333,-131072,119,-56,-1,-1,0
21366,-196608,119,-56,-1,-1,0
21400,0,119,-56,-1,-1,0
21433,-65536,119,-56,-1,-1,0
21466,-65536,119,-56,-1,-1,0
21500,-393216,119,-56,-1,-1,0
21533,5767168,119,-56,-1,-1,0
21566,-655360,119,-56,-1,-1,0
21600,-327680,119,-56,-1,-1,0
21633,0,119,-56,-1,-1,0
21666,917504,119,-56,-1,-1,0
21700,1507328,119,-56,-1,-1,0
21733,0,119,-56,-1,-1,0
21766,-196608,119,-56,-1,-1,0
21800,-65536,119,-56,-1,-1,0
21833,-131072,119,-56,-1,-1,0
21866,-131072,119,-56,-1,-1,0
21900,-262144,119,-56,-1,-1,0
21933,458752,119,-56,-1,-1,0
21966,-1114112,119,-56,-1,-1,0
22000,-393216,119,-56,-1,-1,0
22033,-262144,119,-56,-1,-1,0
22066,327680,119,-56,-1,-1,0
22100,1703936,119,-56,-1,-1,0
22133,589824,119,-56,-1,-1,0
22166,-262144,119,-56,-1,-1,0
22200,-65536,119,-56,-1,-1,0
22233,-65536,119,-56,-1,-1,0
22266,-196608,119,-56,-1,-1,0
22300,-327680,119,-56,-1,-1,0
22333,-1114112,119,-56,-1,-1,0
22366,3014656,119,-56,-1,-1,0
22400,-851968,119,-56,-1,-1,0
22433,-589824,119,-56,-1,-1,0
22466,-327680,119,-56,-1,-1,0
22500,983040,119,-56,-1,-1,0
22533,917504,119,-56,-1,-1,0
22566,-393216,119,-56,-1,-1,0
22600,-589824,119,-56,-1,-1,0
22633,-327680,119,-56,-1,-1,0
22666,-327680,119,-56,-1,-1,0
22700,-458752,119,-56,-1,-1,0
22733,-524288,119,-56,-1,-1,0
22766,2424832,119,-56,-1,-1,0
22800,-1310720,119,-56,-1,-1,0
22833,-720896,119,-56,-1,-1,0
22866,-393216,119,-56,-1,-1,0
22900,262144,119,-56,-1,-1,0
22933,1441792,119,-56,-1,-1,0
22966,131072,119,-56,-1,-1,0
23000,-393216,120,-56,-1,-1,0
23033,-393216,120,-56,-1,-1,0
23066,-327680,120,-56,-1,-1,0
23100,-327680,120,-56,-1,-1,0
23133,-327680,120,-56,-1,-1,0
23166,-1048576,120,-56,-1,-1,0
23200,3342336,120,-56,-1,-1,0
23233,-393216,120,-56,-1,-1,0
23266,-196608,120,-56,-1,-1,0
23300,131072,120,-56,-1,-1,0
23333,1441792,120,-56,-1,-1,0
23366,1507328,120,-56,-1,-1,0
23400,327680,120,-56,-1,-1,0
23433,327680,120,-56,-1,-1,0
23466,589824,120,-56,-1,-1,0
23500,458752,120,-56,-1,-1,0
23533,655360,120,-56,-1,-1,0
23566,524288,120,-56,-1,-1,0
23600,2097152,120,-56,-1,-1,0
23633,-458752,120,-56,-1,-1,0
23666,589824,120,-56,-1,-1,0
23700,1048576,120,-56,-1,-1,0
23733,1900544,120,-56,-1,-1,0
23766,3211264,120,-56,-1,-1,0
23800,1900544,120,-56,-1,-1,0
23833,1048576,120,-56,-1,-1,0
23866,983040,120,-56,-1,-1,0
23900,1048576,120,-56,-1,-1,0
23933,917504,120,-56,-1,-1,0
23966,393216,120,-56,-1,-1,0
24000,0,120,-56,-1,-1,0
24033,-720896,120,-56,-1,-1,0
24066,-393216,120,-56,-1,-1,0
24100,-327680,120,-56,-1,-1,0
24133,0,120,-56,-1,-1,0
24166,1507328,120,-56,-1,-1,0
24200,131072,120,-56,-1,-1,0
24233,-983040,120,-56,-1,-1,0
24266,-1114112,120,-56,-1,-1,0
24300,-1179648,120,-56,-1,-1,0
24333,-1310720,120,-56,-1,-1,0
24366,-1572864,120,-56,-1,-1,0
24400,-2031616,120,-56,-1,-1,0
24433,4390912,120,-56,-1,-1,0
24466,-2228224,120,-56,-1,-1,0
24500,-1900544,120,-56,-1,-1,0
24533,-1441792,120,-56,-1,-1,0
24566,-393216,120,-56,-1,-1,0
24600,65536,120,-56,-1,-1,0
24633,-1441792,120,-56,-1,-1,0
24666,-1835008,120,-56,-1,-1,0
24700,-1769472,120,-56,-1,-1,0
24733,-1507328,120,-56,-1,-1,0
24766,-1507328,120,-56,-1,-1,0
24800,-1507328,120,-56,-1,-1,0
24833,1245184,120,-56,-1,-1,0
24866,-2555904,120,-56,-1,-1,0
24900,-1572864,120,-56,-1,-1,0
24933,-1179648,120,-56,-1,-1,0
24966,-327680,120,-56,-1,-1,0
25000,1048576,120,-56,-1,-1,0
25033,-262144,120,-56,-1,-1,0
25066,-851968,120,-56,-1,-1,0
25100,-786432,120,-56,-1,-1,0
25133,-524288,120,-56,-1,-1,0
25166,-458752,120,-56,-1,-1,0
25200,-655360,120,-56,-1,-1,0
25233,-327680,120,-56,-1,-1,0
25266,-851968,120,-56,-1,-1,0
25300,-589824,120,-56,-1,-1,0
25333,-786432,120,-56,-1,-1,0
25366,196608,120,-56,-1,-1,0
25400,1179648,120,-56,-1,-1,0
25433,327680,120,-56,-1,-1,0
25466,-917504,120,-56,-1,-1,0
25500,-589824,120,-56,-1,-1,0
25533,-262144,120,-56,-1,-1,0
25566,-393216,120,-56,-1,-1,0
25600,-458752,120,-56,-1,-1,0
25633,-851968,120,-56,-1,-1,0
25666,4587520,120,-56,-1,-1,0
25700,-589824,120,-56,-1,-1,0
25733,-458752,120,-56,-1,-1,0
25766,0,120,-56,-1,-1,0
25800,1245184,120,-56,-1,-1,0
25833,1835008,120,-56,-1,-1,0
25866,589824,120,-56,-1,-1,0
25900,-131072,120,-56,-1,-1,0
25933,393216,120,-56,-1,-1,0
25966,524288,120,-56,-1,-1,0
26000,393216,120,-56,-1,-1,0
26033,196608,120,-56,-1,-1,0
26066,4063232,120,-56,-1,-1,0
26099,-1114112,120,-56,-1,-1,0
26133,0,120,-56,-1,-1,0
26166,131072,120,-56,-1,-1,0
26200,1114112,120,-56,-1,-1,0
26233,2097152,120,-56,-1,-1,0
26266,655360,120,-56,-1,-1,0
26300,0,120,-56,-1,-1,0
26333,65536,120,-56,-1,-1,0
26366,196608,120,-56,-1,-1,0
26400,196608,120,-56,-1,-1,0
26433,0,120,-56,-1,-1,0
26466,-262144,120,-56,-1,-1,0
26500,-327680,120,-56,-1,-1,0
26533,-917504,120,-56,-1,-1,0
26566,-458752,120,-56,-1,-1,0
26599,327680,120,-56,-1,-1,0
26633,786432,120,-56,-1,-1,0
26666,458752,120,-56,-1,-1,0
26700,-393216,120,-56,-1,-1,0
26733,-1179648,120,-56,-1,-1,0
26766,-589824,120,-56,-1,-1,0
26800,-393216,120,-56,-1,-1,0
26833,-458752,120,-56,-1,-1,0
26866,-1441792,120,-56,-1,-1,0
26900,1703936,120,-56,-1,-1,0
26933,-983040,120,-56,-1,-1,0
26966,-983040,120,-56,-1,-1,0
27000,-655360,120,-56,-1,-1,0
27033,589824,120,-56,-1,-1,0
27066,196608,121,-56,-1,-1,0
27099,-720896,121,-56,-1,-1,0
27133,-720896,121,-56,-1,-1,0
27166,-393216,121,-56,-1,-1,0
27200,-65536,121,-56,-1,-1,0
27233,-458752,121,-56,-1,-1,0
27266,-1179648,121,-56,-1,-1,0
27300,983040,121,-56,-1,-1,0
27333,-1114112,121,-56,-1,-1,0
27366,-786432,121,-56,-1,-1,0
27400,-65536,121,-56,-1,-1,0
27433,917504,121,-56,-1,-1,0
27466,1048576,121,-56,-1,-1,0
27500,-917504,121,-56,-1,-1,0
27533,-1114112,121,-56,-1,-1,0
27566,-589824,121,-56,-1,-1,0
27599,-786432,121,-56,-1,-1,0
27633,-983040,121,-56,-1,-1,0
27666,-1900544,121,-56,-1,-1,0
27700,2752512,121,-56,-1,-1,0
27733,-1179648,121,-56,-1,-1,0
27766,-851968,121,-56,-1,-1,0
27800,-589824,121,-56,-1,-1,0
27833,851968,121,-56,-1,-1,0
27866,786432,121,-56,-1,-1,0
27900,-983040,121,-56,-1,-1,0
27933,-458752,121,-56,-1,-1,0
27966,-393216,121,-56,-1,-1,0
28000,196608,121,-56,-1,-1,0
28033,-131072,121,-56,-1,-1,0
28066,-1114112,121,-56,-1,-1,0
28099,3145728,121,-56,-1,-1,0
28133,0,121,-56,-1,-1,0
28166,131072,121,-56,-1,-1,0
28200,327680,121,-56,-1,-1,0
28233,1507328,121,-56,-1,-1,0
28266,720896,121,-56,-1,-1,0
28300,-458752,121,-56,-1,-1,0
28333,-393216,121,-56,-1,-1,0
28366,-786432,121,-56,-1,-1,0
28400,65536,121,-56,-1,-1,0
28433,-262144,121,-56,-1,-1,0
28466,-1441792,121,-56,-1,-1,0
28500,1048576,121,-56,-1,-1,0
28533,-917504,121,-56,-1,-1,0
28566,-655360,121,-56,-1,-1,0
28599,-196608,121,-56,-1,-1,0
28633,1507328,121,-56,-1,-1,0
28666,786432,121,-56,-1,-1,0
28700,-524288,121,-56,-1,-1,0
28733,-720896,121,-56,-1,-1,0
28766,-655360,121,-56,-1,-1,0
28800,-327680,121,-56,-1,-1,0
28833,-720896,121,-56,-1,-1,0
28866,-327680,121,-56,-1,-1,0
28900,-851968,121,-56,-1,-1,0
28933,-786432,121,-56,-1,-1,0
28966,-720896,121,-56,-1,-1,0
29000,-327680,121,-56,-1,-1,0
29033,65536,122,-56,-1,-1,0
29066,-393216,122,-56,-1,-1,0
29099,-589824,122,-56,-1,-1,0
29133,-65536,122,-56,-1,-1,0
29166,65536,122,-56,-1,-1,0
29200,0,122,-56,-1,-1,0
29233,196608,122,-56,-1,-1,0
29266,4063232,122,-56,-1,-1,0
29300,131072,122,-56,-1,-1,0
29333,131072,122,-56,-1,-1,0
29366,131072,122,-56,-1,-1,0
29400,1245184,122,-56,-1,-1,0
29433,1703936,122,-56,-1,-1,0
29466,786432,122,-56,-1,-1,0
29500,458752,122,-56,-1,-1,0
29533,786432,122,-56,-1,-1,0
29566,786432,122,-56,-1,-1,0
29599,1441792,122,-56,-1,-1,0
29633,720896,122,-56,-1,-1,0
29666,1245184,122,-56,-1,-1,0
29700,655360,122,-56,-1,-1,0
29733,786432,122,-56,-1,-1,0
29766,1376256,122,-56,-1,-1,0
29800,2097152,122,-56,-1,-1,0
29833,1507328,122,-56,-1,-1,0
29866,524288,122,-56,-1,-1,0
29900,327680,122,-56,-1,-1,0
29933,131072,122,-56,-1,-1,0
29966,-65536,122,-56,-1,-1,0
30000,-262144,122,-56,-1,-1,0
30033,3342336,122,-56,-1,-1,0
30066,-1179648,122,-56,-1,-1,0
30099,-1048576,122,-56,-1,-1,0
30133,-917504,122,-56,-1,-1,0
30166,-262144,122,-56,-1,-1,0
30200,196608,123,-56,-1,-1,0
30233,-1310720,123,-56,-1,-1,0
30266,-1441792,123,-56,-1,-1,0
30300,-1048576,123,-56,-1,-1,0
30333,-1245184,123,-56,-1,-1,0
30366,-1048576,123,-56,-1,-1,0
30400,-1638400,123,-56,-1,-1,0
30433,-327680,123,-56,-1,-1,0
30466,-1245184,123,-56,-1,-1,0
30500,-1245184,123,-56,-1,-1,0
30533,-655360,123,-56,-1,-1,0
30566,196608,123,-56,-1,-1,0
30599,-393216,123,-56,-1,-1,0
30633,-1114112,123,-56,-1,-1,0
30666,-1179648,123,-56,-1,-1,0
30700,-917504,123,-56,-1,-1,0
30733,-1114112,123,-56,-1,-1,0
30766,-1507328,123,-56,-1,-1,0
30800,3145728,123,-56,-1,-1,0
30833,-1703936,123,-56,-1,-1,0
30866,-1572864,123,-56,-1,-1,0
30900,-1114112,123,-56,-1,-1,0
30933,-131072,125,-56,-1,-1,0
30966,131072,125,-56,-1,-1,0
31000,-1179648,125,-56,-1,-1,0
31033,-1310720,125,-56,-1,-1,0
31066,-851968,125,-56,-1,-1,0
31099,-589824,125,-56,-1,-1,0
31133,-851968,125,-56,-1,-1,0
31166,2752512,125,-56,-1,-1,0
31200,-2162688,125,-56,-1,-1,0
31233,-1048576,125,-56,-1,-1,0
31266,-851968,125,-56,-1,-1,0
31300,131072,125,-56,-1,-1,0
31333,786432,125,-56,-1,-1,0
31366,-524288,125,-56,-1,-1,0
31400,-786432,125,-56,-1,-1,0
31433,-655360,125,-56,-1,-1,0
31466,-458752,125,-56,-1,-1,0
31500,-655360,125,-56,-1,-1,0
31533,-1441792,125,-56,-1,-1,0
31566,655360,125,-56,-1,-1,0
31599,-786432,125,-56,-1,-1,0
31633,-589824,125,-56,-1,-1,0
31666,0,125,-56,-1,-1,0
31700,1441792,126,-56,-1,-1,0
31733,917504,126,-56,-1,-1,0
31766,0,126,-56,-1,-1,0
31800,-65536,126,-56,-1,-1,0
31833,262144,126,-56,-1,-1,0
31866,458752,126,-56,-1,-1,0
31900,0,126,-56,-1,-1,0
31933,6684672,126,-56,-1,-1,0
31966,-65536,126,-56,-1,-1,0
32000,327680,126,-56,-1,-1,0
32033,786432,126,-56,-1,-1,0
32066,2162688,126,-56,-1,-1,0
32100,2424832,126,-56,-1,-1,0
32133,1114112,126,-56,-1,-1,0
32166,917504,126,-56,-1,-1,0
32200,1114112,126,-56,-1,-1,0
32233,1245184,126,-56,-1,-1,0
32266,1114112,126,-56,-1,-1,0
32299,196608,126,-56,-1,-1,0
32333,2424832,126,-56,-1,-1,0
32366,589824,126,-56,-1,-1,0
32400,524288,126,-56,-1,-1,0
32433,851968,126,-56,-1,-1,0
32466,1966080,126,-56,-1,-1,0
32500,1179648,127,-56,-1,-1,0
32533,0,127,-56,-1,-1,0
32566,-196608,127,-56,-1,-1,0
32600,-196608,127,-56,-1,-1,0
32633,-262144,127,-56,-1,-1,0
32666,-655360,127,-56,-1,-1,0
32700,2162688,127,-56,-1,-1,0
32733,-2031616,127,-56,-1,-1,0
32766,-1245184,127,-56,-1,-1,0
32800,-1179648,127,-56,-1,-1,0
32833,-393216,127,-56,-1,-1,0
32866,524288,127,-56,-1,-1,0
32900,-851968,127,-56,-1,-1,0
32933,-1441792,127,-56,-1,-1,0
32966,-1507328,127,-56,-1,-1,0
33000,-1245184,127,-56,-1,-1,0
33033,-1310720,127,-56,-1,-1,0
33066,-1507328,127,-56,-1,-1,0
33100,1966080,127,-56,-1,-1,0
33133,-2490368,127,-56,-1,-1,0
33166,-1638400,127,-56,-1,-1,0
33200,-1441792,127,-56,-1,-1,0
33233,-589824,127,-56,-1,-1,0
33266,458752,127,-56,-1,-1,0
33300,-720896,127,-56,-1,-1,0
33333,-1310720,127,-56,-1,-1,0
33366,-1376256,127,-56,-1,-1,0
33400,-1310720,127,-56,-1,-1,0
33433,-1179648,127,-56,-1,-1,0
33466,-1310720,127,-56,-1,-1,0
33500,-1966080,127,-56,-1,-1,0
33533,2293760,127,-56,-1,-1,0
33566,-1376256,127,-56,-1,-1,0
33600,-1114112,127,-56,-1,-1,0
33633,-786432,127,-56,-1,-1,0
33666,524288,127,-56,-1,-1,0
33700,524288,127,-56,-1,-1,0
33733,-589824,127,-56,-1,-1,0
33766,-983040,127,-56,-1,-1,0
33800,-851968,127,-56,-1,-1,0
36333,-851968,127,-56,-1,-1,0
36366,-720896,127,-56,-1,-1,0
36400,-917504,127,-56,-1,-1,0
36433,5111808,127,-56,-1,-1,0
36466,-1114112,127,-56,-1,-1,0
36500,-720896,127,-56,-1,-1,0
36533,-327680,127,-56,-1,-1,0
36566,589824,127,-56,-1,-1,0
36600,1703936,127,-56,-1,-1,0
36633,65536,127,-56,-1,-1,0
36666,-655360,127,-56,-1,-1,0
36700,-786432,127,-56,-1,-1,0
36733,-524288,127,-56,-1,-1,0
36766,-655360,127,-56,-1,-1,0
36800,-917504,127,-56,-1,-1,0
36833,-1048576,127,-56,-1,-1,0
36866,-1048576,125,-56,-1,-1,0
36900,-1048576,125,-56,-1,-1,0
36933,-1572864,125,-56,-1,-1,0
36966,-393216,125,-56,-1,-1,0
37000,-1310720,125,-56,-1,-1,0
37033,-1310720,125,-56,-1,-1,0
37066,-720896,125,-56,-1,-1,0
37100,458752,125,-56,-1,-1,0
37133,196608,125,-56,-1,-1,0
37166,-1769472,125,-56,-1,-1,0
37200,-2293760,125,-56,-1,-1,0
37233,-2293760,125,-56,-1,-1,0
37266,-2097152,125,-56,-1,-1,0
37300,-2162688,125,-56,-1,-1,0
37333,-2162688,125,-56,-1,-1,0
37366,-2162688,120,-56,-1,-1,0
37400,-1900544,120,-56,-1,-1,0
37433,-1638400,120,-56,-1,-1,0
37466,3276800,120,-56,-1,-1,0
37500,-1703936,120,-56,-1,-1,0
37533,-1114112,120,-56,-1,-1,0
37566,-655360,120,-56,-1,-1,0
37600,327680,120,-56,-1,-1,0
37633,2031616,120,-56,-1,-1,0
37666,983040,120,-56,-1,-1,0
37700,524288,120,-56,-1,-1,0
37733,589824,120,-56,-1,-1,0
37766,786432,120,-56,-1,-1,0
37800,917504,120,-56,-1,-1,0
37833,851968,113,-56,-1,-1,0
37866,786432,113,-56,-1,-1,0
37900,589824,113,-56,-1,-1,0
37933,262144,113,-56,-1,-1,0
37966,4653056,113,-56,-1,-1,0
38000,-524288,113,-56,-1,-1,0
38033,-131072,113,-56,-1,-1,0
38066,0,113,-56,-1,-1,0
38100,1114112,113,-56,-1,-1,0
38133,2031616,113,-56,-1,-1,0
38166,196608,113,-56,-1,-1,0
38200,-262144,113,-56,-1,-1,0
38233,-196608,113,-56,-1,-1,0
38266,-131072,113,-56,-1,-1,0
38300,-458752,109,-56,-1,-1,0
38333,-720896,109,-56,-1,-1,0
38366,-786432,109,-56,-1,-1,0
38400,-851968,109,-56,-1,-1,0
38433,-1114112,109,-56,-1,-1,0
38466,-851968,109,-56,-1,-1,0
38500,-1114112,109,-56,-1,-1,0
38533,-1179648,109,-56,-1,-1,0
38566,-720896,109,-56,-1,-1,0
38600,786432,109,-56,-1,-1,0
38633,131072,109,-56,-1,-1,0
38666,-1114112,109,-56,-1,-1,0
38700,-917504,109,-56,-1,-1,0
38733,-720896,109,-56,-1,-1,0
38766,-720896,107,-56,-1,-1,0
38800,-786432,107,-56,-1,-1,0
38833,-851968,107,-56,-1,-1,0
38866,-720896,107,-56,-1,-1,0
38900,-655360,107,-56,-1,-1,0
38933,-1114112,107,-56,-1,-1,0
38966,-917504,107,-56,-1,-1,0
39000,-786432,107,-56,-1,-1,0
39033,-65536,107,-56,-1,-1,0
39066,1048576,107,-56,-1,-1,0
39100,327680,107,-56,-1,-1,0
39133,-786432,107,-56,-1,-1,0
39166,-983040,107,-56,-1,-1,0
39200,-720896,107,-56,-1,-1,0
39233,-917504,106,-56,-1,-1,0
39266,-786432,106,-56,-1,-1,0
39300,-851968,106,-56,-1,-1,0
39333,-917504,106,-56,-1,-1,0
39366,2621440,106,-56,-1,-1,0
39400,-1638400,106,-56,-1,-1,0
39433,-983040,106,-56,-1,-1,0
39466,-458752,106,-56,-1,-1,0
39500,131072,106,-56,-1,-1,0
39533,1441792,106,-56,-1,-1,0
39566,0,106,-56,-1,-1,0
39600,-393216,106,-56,-1,-1,0
39633,-327680,106,-56,-1,-1,0
39666,-131072,106,-56,-1,-1,0
39700,-196608,106,-56,-1,-1,0
39733,-458752,106,-56,-1,-1,0
39766,-458752,106,-56,-1,-1,0
39800,-917504,106,-56,-1,-1,0
39833,4325376,106,-56,-1,-1,0
39866,-983040,106,-56,-1,-1,0
39900,-720896,106,-56,-1,-1,0
39933,-327680,106,-56,-1,-1,0
39966,458752,106,-56,-1,-1,0
40000,1441792,106,-56,-1,-1,0
40033,-65536,106,-56,-1,-1,0
40066,-393216,106,-56,-1,-1,0
40100,-393216,106,-56,-1,-1,0
40133,-262144,106,-56,-1,-1,0
40166,-262144,106,-56,-1,-1,0
40200,-393216,106,-56,-1,-1,0
40233,-458752,106,-56,-1,-1,0
40266,3866624,106,-56,-1,-1,0
40300,-1245184,106,-56,-1,-1,0
40333,-327680,106,-56,-1,-1,0
40366,-131072,106,-56,-1,-1,0
40400,786432,106,-56,-1,-1,0
40433,1900544,106,-56,-1,-1,0
40466,262144,106,-56,-1,-1,0
40500,-262144,106,-56,-1,-1,0
40533,-131072,106,-56,-1,-1,0
40566,0,106,-56,-1,-1,0
40600,-65536,106,-56,-1,-1,0
40633,-196608,106,-56,-1,-1,0
40666,-327680,106,-56,-1,-1,0
40700,589824,106,-56,-1,-1,0
40733,-1048576,106,-56,-1,-1,0
40766,-458752,106,-56,-1,-1,0
40800,-196608,106,-56,-1,-1,0
40833,262144,106,-56,-1,-1,0
40866,1769472,106,-56,-1,-1,0
40900,786432,106,-56,-1,-1,0
40933,-196608,106,-56,-1,-1,0
40966,-262144,106,-56,-1,-1,0
41000,-196608,106,-56,-1,-1,0
41033,-262144,106,-56,-1,-1,0
41066,-262144,106,-56,-1,-1,0
41100,-327680,106,-56,-1,-1,0
41133,-720896,106,-56,-1,-1,0
41166,-458752,106,-56,-1,-1,0
41200,-589824,106,-56,-1,-1,0
41233,-524288,106,-56,-1,-1,0
41266,0,106,-56,-1,-1,0
41300,1441792,106,-56,-1,-1,0
41333,786432,106,-56,-1,-1,0
41366,-327680,106,-56,-1,-1,0
41400,-589824,106,-56,-1,-1,0
41433,-327680,106,-56,-1,-1,0
41466,-196608,106,-56,-1,-1,0
41500,-458752,106,-56,-1,-1,0
41533,-458752,106,-56,-1,-1,0
41566,-720896,106,-56,-1,-1,0
41600,5111808,106,-56,-1,-1,0
41633,-589824,106,-56,-1,-1,0
41666,-393216,106,-56,-1,-1,0
41700,-65536,106,-56,-1,-1,0
41733,1048576,106,-56,-1,-1,0
41766,1835008,106,-56,-1,-1,0
41800,327680,106,-56,-1,-1,0
41833,0,106,-56,-1,-1,0
41866,196608,106,-56,-1,-1,0
41900,458752,106,-56,-1,-1,0
41933,524288,105,-56,-1,-1,0
41966,589824,105,-56,-1,-1,0
42000,917504,105,-56,-1,-1,0
42033,851968,105,-56,-1,-1,0
42066,5767168,105,-56,-1,-1,0
42100,786432,105,-56,-1,-1,0
42133,1572864,105,-56,-1,-1,0
42166,1966080,105,-56,-1,-1,0
42200,3014656,105,-56,-1,-1,0
42233,4325376,105,-56,-1,-1,0
42266,3145728,105,-56,-1,-1,0
42300,2424832,105,-56,-1,-1,0
42333,2359296,105,-56,-1,-1,0
42366,2555904,105,-56,-1,-1,0
42400,2490368,105,-56,-1,-1,0
42433,2097152,105,-56,-1,-1,0
42466,1966080,105,-56,-1,-1,0
42500,1703936,105,-56,-1,-1,0
42533,2097152,105,-56,-1,-1,0
42566,0,105,-56,-1,-1,0
42600,655360,105,-56,-1,-1,0
42633,327680,105,-56,-1,-1,0
42666,655360,105,-56,-1,-1,0
42700,2097152,105,-56,-1,-1,0
42733,786432,105,-56,-1,-1,0
42766,-720896,105,-56,-1,-1,0
42800,-1310720,105,-56,-1,-1,0
42833,-1245184,105,-56,-1,-1,0
42866,-1507328,105,-56,-1,-1,0
42900,-2097152,105,-56,-1,-1,0
42933,-2293760,105,-56,-1,-1,0
42966,-2555904,105,-56,-1,-1,0
43000,-2949120,105,-56,-1,-1,0
43033,-2424832,105,-56,-1,-1,0
43066,-2818048,105,-56,-1,-1,0
43100,-2490368,105,-56,-1,-1,0
43133,-1900544,105,-56,-1,-1,0
43166,-131072,105,-56,-1,-1,0
43200,-786432,105,-56,-1,-1,0
43233,-2031616,105,-56,-1,-1,0
43266,-2228224,105,-56,-1,-1,0
43300,-2031616,105,-56,-1,-1,0
43333,-1769472,105,-56,-1,-1,0
43366,-1835008,105,-56,-1,-1,0
43400,-2097152,105,-56,-1,-1,0
43433,-2031616,105,-56,-1,-1,0
43466,-2031616,105,-56,-1,-1,0
43500,2228224,105,-56,-1,-1,0
43533,-2424832,105,-56,-1,-1,0
43566,-1835008,105,-56,-1,-1,0
43600,-1441792,105,-56,-1,-1,0
43633,-655360,105,-56,-1,-1,0
43666,917504,105,-56,-1,-1,0
43700,-262144,105,-56,-1,-1,0
43733,-917504,105,-56,-1,-1,0
43766,-1048576,105,-56,-1,-1,0
43800,-851968,105,-56,-1,-1,0
43833,-655360,105,-56,-1,-1,0
43866,-589824,105,-56,-1,-1,0
43900,-786432,105,-56,-1,-1,0
43933,-655360,105,-56,-1,-1,0
43966,-589824,105,-56,-1,-1,0
44000,2883584,105,-56,-1,-1,0
44033,-1572864,105,-56,-1,-1,0
44066,-327680,105,-56,-1,-1,0
44100,0,105,-56,-1,-1,0
44133,983040,105,-56,-1,-1,0
44166,2949120,105,-56,-1,-1,0
44200,1310720,105,-56,-1,-1,0
44233,196608,105,-56,-1,-1,0
44266,65536,105,-56,-1,-1,0
44300,393216,105,-56,-1,-1,0
44333,327680,106,-56,-1,-1,0
44366,65536,106,-56,-1,-1,0
44400,-65536,106,-56,-1,-1,0
44433,-327680,106,-56,-1,-1,0
44466,4653056,106,-56,-1,-1,0
44500,-1572864,106,-56,-1,-1,0
44533,-786432,106,-56,-1,-1,0
44566,-524288,106,-56,-1,-1,0
44600,458752,106,-56,-1,-1,0
44633,2097152,106,-56,-1,-1,0
44666,-131072,106,-56,-1,-1,0
44700,-851968,106,-56,-1,-1,0
44733,-983040,106,-56,-1,-1,0
44766,-655360,106,-56,-1,-1,0
44800,-458752,107,-56,-1,-1,0
44833,-655360,107,-56,-1,-1,0
44866,-458752,107,-56,-1,-1,0
44900,-524288,107,-56,-1,-1,0
44933,-1048576,107,-56,-1,-1,0
44966,720896,107,-56,-1,-1,0
45000,-131072,107,-56,-1,-1,0
45033,65536,107,-56,-1,-1,0
45066,720896,107,-56,-1,-1,0
45100,2490368,107,-56,-1,-1,0
45133,2162688,107,-56,-1,-1,0
45166,786432,107,-56,-1,-1,0
45200,589824,107,-56,-1,-1,0
45233,786432,107,-56,-1,-1,0
45266,851968,107,-56,-1,-1,0
45300,720896,107,-56,-1,-1,0
45333,524288,107,-56,-1,-1,0
45366,589824,107,-56,-1,-1,0
45400,196608,107,-56,-1,-1,0
45433,6750208,107,-56,-1,-1,0
45466,-65536,107,-56,-1,-1,0
45500,0,107,-56,-1,-1,0
45533,65536,107,-56,-1,-1,0
45566,917504,107,-56,-1,-1,0
45600,1900544,107,-56,-1,-1,0
45633,131072,107,-56,-1,-1,0
45666,-524288,107,-56,-1,-1,0
45700,-720896,107,-56,-1,-1,0
45733,-720896,107,-56,-1,-1,0
45766,-851968,107,-56,-1,-1,0
45800,-1114112,107,-56,-1,-1,0
45833,-1245184,107,-56,-1,-1,0
45866,-1376256,107,-56,-1,-1,0
45900,-2228224,107,-56,-1,-1,0
45933,262144,107,-56,-1,-1,0
45966,-1638400,107,-56,-1,-1,0
46000,-1572864,107,-56,-1,-1,0
46033,-1179648,107,-56,-1,-1,0
46066,458752,107,-56,-1,-1,0
46100,196608,107,-56,-1,-1,0
46133,-1179648,107,-56,-1,-1,0
46166,-1507328,107,-56,-1,-1,0
46200,-1376256,107,-56,-1,-1,0
46233,-1376256,107,-56,-1,-1,0
46266,-1572864,107,-56,-1,-1,0
46300,-1835008,107,-56,-1,-1,0
46333,-1638400,107,-56,-1,-1,0
46366,-1769472,107,-56,-1,-1,0
46400,2031616,107,-56,-1,-1,0
46433,-2621440,107,-56,-1,-1,0
46466,-1835008,107,-56,-1,-1,0
46500,-1638400,107,-56,-1,-1,0
46533,-720896,107,-56,-1,-1,0
46566,917504,107,-56,-1,-1,0
46600,-524288,107,-56,-1,-1,0
46633,-1179648,107,-56,-1,-1,0
46666,-1114112,107,-56,-1,-1,0
46700,-786432,107,-56,-1,-1,0
46733,-851968,107,-56,-1,-1,0
46766,-851968,107,-56,-1,-1,0
46800,-983040,107,-56,-1,-1,0
46833,-786432,106,-56,-1,-1,0
46866,-720896,106,-56,-1,-1,0
46900,-262144,106,-56,-1,-1,0
46933,-851968,106,-56,-1,-1,0
46966,-655360,106,-56,-1,-1,0
47000,-589824,106,-56,-1,-1,0
47033,0,106,-56,-1,-1,0
47066,1638400,106,-56,-1,-1,0
47100,1114112,106,-56,-1,-1,0
47133,0,106,-56,-1,-1,0
47166,-196608,106,-56,-1,-1,0
47200,0,106,-56,-1,-1,0
47233,131072,106,-56,-1,-1,0
47266,131072,106,-56,-1,-1,0
47300,131072,106,-56,-1,-1,0
47333,65536,105,-56,-1,-1,0
47366,196608,105,-56,-1,-1,0
47400,131072,105,-56,-1,-1,0
47433,3538944,105,-56,-1,-1,0
47466,-589824,105,-56,-1,-1,0
47500,65536,105,-56,-1,-1,0
47533,327680,105,-56,-1,-1,0
47566,917504,105,-56,-1,-1,0
47600,2621440,105,-56,-1,-1,0
47633,1376256,105,-56,-1,-1,0
47666,458752,105,-56,-1,-1,0
47700,393216,105,-56,-1,-1,0
47733,458752,105,-56,-1,-1,0
47766,524288,105,-56,-1,-1,0
47800,458752,105,-56,-1,-1,0
47833,327680,104,-56,-1,-1,0
47866,327680,104,-56,-1,-1,0
47900,196608,104,-56,-1,-1,0
47933,4587520,104,-56,-1,-1,0
47966,-720896,104,-56,-1,-1,0
48000,131072,104,-56,-1,-1,0
48033,327680,104,-56,-1,-1,0
48066,1114112,104,-56,-1,-1,0
48100,2555904,104,-56,-1,-1,0
48133,851968,104,-56,-1,-1,0
48166,0,104,-56,-1,-1,0
48200,0,104,-56,-1,-1,0
48233,0,104,-56,-1,-1,0
48266,-196608,104,-56,-1,-1,0
48300,-393216,104,-56,-1,-1,0
48333,-720896,104,-56,-1,-1,0
48366,-655360,104,-56,-1,-1,0
48400,-851968,104,-56,-1,-1,0
48433,2490368,104,-56,-1,-1,0
48466,-1572864,104,-56,-1,-1,0
48500,-983040,104,-56,-1,-1,0
48533,-917504,104,-56,-1,-1,0
48566,-196608,104,-56,-1,-1,0
48600,1376256,104,-56,-1,-1,0
48633,65536,104,-56,-1,-1,0
48666,-917504,104,-56,-1,-1,0
48700,-1114112,104,-56,-1,-1,0
48733,-851968,104,-56,-1,-1,0
48766,-786432,104,-56,-1,-1,0
48800,-1048576,104,-56,-1,-1,0
48833,-1114112,104,-56,-1,-1,0
48866,-1179648,103,-56,-1,-1,0
48900,-1048576,103,-56,-1,-1,0
48933,1572864,103,-56,-1,-1,0
48966,-1703936,103,-56,-1,-1,0
49000,-1114112,103,-56,-1,-1,0
49033,-983040,103,-56,-1,-1,0
49066,-393216,103,-56,-1,-1,0
49100,1245184,103,-56,-1,-1,0
49133,196608,103,-56,-1,-1,0
49166,-720896,103,-56,-1,-1,0
49200,-851968,103,-56,-1,-1,0
49233,-655360,103,-56,-1,-1,0
49266,-524288,103,-56,-1,-1,0
49300,-458752,103,-56,-1,-1,0
49333,-524288,103,-56,-1,-1,0
49366,-655360,103,-56,-1,-1,0
49400,-458752,102,-56,-1,-1,0
49433,-393216,102,-56,-1,-1,0
49466,2949120,102,-56,-1,-1,0
49500,-1048576,102,-56,-1,-1,0
49533,-458752,102,-56,-1,-1,0
49566,-262144,102,-56,-1,-1,0
49600,327680,102,-56,-1,-1,0
49633,1900544,102,-56,-1,-1,0
49666,851968,102,-56,-1,-1,0
49700,65536,102,-56,-1,-1,0
49733,0,102,-56,-1,-1,0
49766,0,102,-56,-1,-1,0
49800,0,102,-56,-1,-1,0
49833,0,102,-56,-1,-1,0
49866,-131072,102,-56,-1,-1,0
49900,-196608,101,-56,-1,-1,0
49933,65536,101,-56,-1,-1,0
49966,0,101,-56,-1,-1,0
50000,2621440,101,-56,-1,-1,0
