milliseconds, ECG, ECG HR, PPG, PPG HR, SpO2, PI
1523627284166,-1114112,121,-56,-1,-1,0
1523627284166,-1114112,121,-56,-1,-1,0
1523627284166,-983040,121,-56,-1,-1,0
1523627284166,-917504,121,-56,-1,-1,0
1523627284166,-917504,121,-56,-1,-1,0
1523627284207,-851968,121,-56,-1,-1,0
1523627284207,-720896,121,-56,-1,-1,0
1523627284207,-589824,121,-56,-1,-1,0
1523627284207,-393216,121,-56,-1,-1,0
1523627284207,-262144,121,-56,-1,-1,0
1523627284246,0,121,-56,-1,-1,0
1523627284246,393216,121,-56,-1,-1,0
1523627284246,720896,121,-56,-1,-1,0
1523627284246,917504,121,-56,-1,-1,0
1523627284246,1048576,121,-56,-1,-1,0
1523627284286,983040,121,-56,-1,-1,0
1523627284286,917504,121,-56,-1,-1,0
1523627284286,655360,121,-56,-1,-1,0
1523627284286,262144,121,-56,-1,-1,0
1523627284286,-65536,121,-56,-1,-1,0
1523627284329,-327680,121,-56,-1,-1,0
1523627284329,-524288,121,-56,-1,-1,0
1523627284329,-655360,121,-56,-1,-1,0
1523627284329,-720896,121,-56,-1,-1,0
1523627284329,-720896,121,-56,-1,-1,0
1523627284366,-786432,121,-56,-1,-1,0
1523627284366,-720896,121,-56,-1,-1,0
1523627284366,-720896,121,-56,-1,-1,0
1523627284366,-655360,121,-56,-1,-1,0
1523627284366,-655360,121,-56,-1,-1,0
1523627284406,-720896,121,-56,-1,-1,0
1523627284406,-655360,121,-56,-1,-1,0
1523627284406,-589824,121,-56,-1,-1,0
1523627284406,-589824,121,-56,-1,-1,0
1523627284406,-589824,121,-56,-1,-1,0
1523627284451,-655360,121,-56,-1,-1,0
1523627284451,-589824,121,-56,-1,-1,0
1523627284451,-589824,121,-56,-1,-1,0
1523627284451,-589824,121,-56,-1,-1,0
1523627284451,-655360,121,-56,-1,-1,0
1523627284486,-655360,121,-56,-1,-1,0
1523627284486,-720896,121,-56,-1,-1,0
1523627284486,-786432,121,-56,-1,-1,0
1523627284486,-720896,121,-56,-1,-1,0
1523627284486,-655360,121,-56,-1,-1,0
1523627284529,-720896,121,-56,-1,-1,0
1523627284529,-917504,121,-56,-1,-1,0
1523627284529,-1310720,121,-56,-1,-1,0
1523627284529,-1310720,121,-56,-1,-1,0
1523627284529,0,121,-56,-1,-1,0
1523627284566,2949120,121,-56,-1,-1,0
1523627284566,5046272,121,-56,-1,-1,0
1523627284566,3473408,121,-56,-1,-1,0
1523627284566,131072,121,-56,-1,-1,0
1523627284566,-1638400,121,-56,-1,-1,0
1523627284606,-1638400,121,-56,-1,-1,0
1523627284606,-1245184,121,-56,-1,-1,0
1523627284606,-1048576,121,-56,-1,-1,0
1523627284606,-917504,121,-56,-1,-1,0
1523627284606,-917504,121,-56,-1,-1,0
1523627284646,-851968,121,-56,-1,-1,0
1523627284646,-786432,121,-56,-1,-1,0
1523627284646,-720896,121,-56,-1,-1,0
1523627284646,-720896,121,-56,-1,-1,0
1523627284646,-655360,121,-56,-1,-1,0
1523627284686,-655360,121,-56,-1,-1,0
1523627284686,-524288,121,-56,-1,-1,0
1523627284686,-458752,121,-56,-1,-1,0
1523627284686,-393216,121,-56,-1,-1,0
1523627284686,-196608,121,-56,-1,-1,0
1523627284728,65536,121,-56,-1,-1,0
1523627284728,327680,121,-56,-1,-1,0
1523627284728,655360,121,-56,-1,-1,0
1523627284728,917504,121,-56,-1,-1,0
1523627284728,1179648,121,-56,-1,-1,0
1523627284767,1245184,121,-56,-1,-1,0
1523627284767,1179648,121,-56,-1,-1,0
1523627284767,983040,121,-56,-1,-1,0
1523627284767,720896,121,-56,-1,-1,0
1523627284767,393216,121,-56,-1,-1,0
1523627284806,65536,121,-56,-1,-1,0
1523627284806,-131072,121,-56,-1,-1,0
1523627284806,-327680,121,-56,-1,-1,0
1523627284806,-458752,121,-56,-1,-1,0
1523627284806,-589824,121,-56,-1,-1,0
1523627284846,-524288,121,-56,-1,-1,0
1523627284846,-393216,121,-56,-1,-1,0
1523627284846,-393216,121,-56,-1,-1,0
1523627284846,-524288,121,-56,-1,-1,0
1523627284846,-524288,121,-56,-1,-1,0
1523627284886,-458752,121,-56,-1,-1,0
1523627284886,-393216,121,-56,-1,-1,0
1523627284886,-327680,121,-56,-1,-1,0
1523627284886,-327680,121,-56,-1,-1,0
1523627284886,-262144,121,-56,-1,-1,0
1523627284926,-327680,121,-56,-1,-1,0
1523627284926,-262144,121,-56,-1,-1,0
1523627284926,-196608,121,-56,-1,-1,0
1523627284926,-196608,121,-56,-1,-1,0
1523627284926,-262144,121,-56,-1,-1,0
1523627284968,-327680,121,-56,-1,-1,0
1523627284968,-393216,121,-56,-1,-1,0
1523627284968,-393216,121,-56,-1,-1,0
1523627284968,-393216,121,-56,-1,-1,0
1523627284968,-458752,121,-56,-1,-1,0
1523627285006,-524288,121,-56,-1,-1,0
1523627285006,-524288,121,-56,-1,-1,0
1523627285006,-720896,121,-56,-1,-1,0
1523627285006,-1048576,121,-56,-1,-1,0
1523627285006,-917504,121,-56,-1,-1,0
1523627285046,655360,121,-56,-1,-1,0
1523627285046,3670016,121,-56,-1,-1,0
1523627285046,5242880,121,-56,-1,-1,0
1523627285046,3211264,121,-56,-1,-1,0
1523627285046,0,121,-56,-1,-1,0
1523627285091,-1376256,121,-56,-1,-1,0
1523627285091,-1310720,121,-56,-1,-1,0
1523627285091,-983040,121,-56,-1,-1,0
1523627285091,-786432,121,-56,-1,-1,0
1523627285091,-655360,121,-56,-1,-1,0
1523627285126,-589824,121,-56,-1,-1,0
1523627285126,-589824,121,-56,-1,-1,0
1523627285126,-655360,121,-56,-1,-1,0
1523627285126,-524288,121,-56,-1,-1,0
1523627285126,-458752,121,-56,-1,-1,0
1523627285168,-393216,121,-56,-1,-1,0
1523627285168,-393216,121,-56,-1,-1,0
1523627285168,-262144,121,-56,-1,-1,0
1523627285168,-262144,121,-56,-1,-1,0
1523627285168,-131072,121,-56,-1,-1,0
1523627285207,0,121,-56,-1,-1,0
1523627285207,196608,121,-56,-1,-1,0
1523627285207,458752,121,-56,-1,-1,0
1523627285207,786432,121,-56,-1,-1,0
1523627285207,1179648,121,-56,-1,-1,0
1523627285246,1376256,121,-56,-1,-1,0
1523627285246,1441792,121,-56,-1,-1,0
1523627285246,1310720,121,-56,-1,-1,0
1523627285246,1114112,121,-56,-1,-1,0
1523627285246,786432,121,-56,-1,-1,0
1523627285286,393216,121,-56,-1,-1,0
1523627285286,131072,121,-56,-1,-1,0
1523627285286,0,121,-56,-1,-1,0
1523627285286,-65536,121,-56,-1,-1,0
1523627285286,-196608,121,-56,-1,-1,0
1523627285326,-262144,121,-56,-1,-1,0
1523627285326,-327680,121,-56,-1,-1,0
1523627285326,-393216,121,-56,-1,-1,0
1523627285326,-393216,121,-56,-1,-1,0
1523627285326,-393216,121,-56,-1,-1,0
1523627285366,-327680,121,-56,-1,-1,0
1523627285366,-262144,121,-56,-1,-1,0
1523627285366,-262144,121,-56,-1,-1,0
1523627285366,-327680,121,-56,-1,-1,0
1523627285366,-327680,121,-56,-1,-1,0
1523627285406,-327680,121,-56,-1,-1,0
1523627285406,-262144,121,-56,-1,-1,0
1523627285406,-196608,121,-56,-1,-1,0
1523627285406,-196608,121,-56,-1,-1,0
1523627285406,-196608,121,-56,-1,-1,0
1523627285448,-196608,121,-56,-1,-1,0
1523627285448,-196608,121,-56,-1,-1,0
1523627285448,-262144,121,-56,-1,-1,0
1523627285448,-327680,121,-56,-1,-1,0
1523627285448,-327680,121,-56,-1,-1,0
1523627285486,-327680,121,-56,-1,-1,0
1523627285486,-393216,121,-56,-1,-1,0
1523627285486,-458752,121,-56,-1,-1,0
1523627285486,-655360,121,-56,-1,-1,0
1523627285486,-1048576,121,-56,-1,-1,0
1523627285526,-917504,121,-56,-1,-1,0
1523627285526,720896,121,-56,-1,-1,0
1523627285526,3866624,121,-56,-1,-1,0
1523627285526,5505024,121,-56,-1,-1,0
1523627285526,3473408,121,-56,-1,-1,0
1523627285566,262144,121,-56,-1,-1,0
1523627285566,-983040,121,-56,-1,-1,0
1523627285566,-983040,121,-56,-1,-1,0
1523627285566,-720896,121,-56,-1,-1,0
1523627285566,-589824,121,-56,-1,-1,0
1523627285606,-524288,121,-56,-1,-1,0
1523627285606,-524288,121,-56,-1,-1,0
1523627285606,-458752,121,-56,-1,-1,0
1523627285606,-524288,121,-56,-1,-1,0
1523627285606,-524288,121,-56,-1,-1,0
1523627285646,-458752,121,-56,-1,-1,0
1523627285646,-393216,121,-56,-1,-1,0
1523627285646,-327680,121,-56,-1,-1,0
1523627285646,-262144,121,-56,-1,-1,0
1523627285646,-131072,121,-56,-1,-1,0
1523627285686,0,121,-56,-1,-1,0
1523627285686,65536,121,-56,-1,-1,0
1523627285686,262144,121,-56,-1,-1,0
1523627285686,458752,121,-56,-1,-1,0
1523627285686,720896,121,-56,-1,-1,0
1523627285731,983040,121,-56,-1,-1,0
1523627285731,1179648,121,-56,-1,-1,0
1523627285731,1310720,121,-56,-1,-1,0
1523627285731,1245184,121,-56,-1,-1,0
1523627285731,1048576,121,-56,-1,-1,0
1523627285766,786432,121,-56,-1,-1,0
1523627285766,524288,121,-56,-1,-1,0
1523627285766,262144,121,-56,-1,-1,0
1523627285766,0,121,-56,-1,-1,0
1523627285766,-196608,121,-56,-1,-1,0
1523627285806,-262144,121,-56,-1,-1,0
1523627285806,-262144,121,-56,-1,-1,0
1523627285806,-262144,121,-56,-1,-1,0
1523627285806,-327680,121,-56,-1,-1,0
1523627285806,-196608,121,-56,-1,-1,0
1523627285846,-131072,121,-56,-1,-1,0
1523627285846,-65536,121,-56,-1,-1,0
1523627285846,-65536,121,-56,-1,-1,0
1523627285846,-65536,121,-56,-1,-1,0
1523627285846,-131072,121,-56,-1,-1,0
1523627285886,-196608,121,-56,-1,-1,0
1523627285886,-262144,121,-56,-1,-1,0
1523627285886,-131072,121,-56,-1,-1,0
1523627285886,-65536,121,-56,-1,-1,0
1523627285886,-65536,121,-56,-1,-1,0
1523627285926,-65536,121,-56,-1,-1,0
1523627285926,-131072,121,-56,-1,-1,0
1523627285926,-131072,121,-56,-1,-1,0
1523627285926,-196608,121,-56,-1,-1,0
1523627285926,-131072,121,-56,-1,-1,0
1523627285966,-65536,121,-56,-1,-1,0
1523627285966,0,121,-56,-1,-1,0
1523627285966,0,121,-56,-1,-1,0
1523627285966,-65536,121,-56,-1,-1,0
1523627285966,-589824,121,-56,-1,-1,0
1523627286007,-1048576,121,-56,-1,-1,0
1523627286007,-589824,121,-56,-1,-1,0
1523627286007,1572864,121,-56,-1,-1,0
1523627286007,4587520,121,-56,-1,-1,0
1523627286007,5308416,121,-56,-1,-1,0
1523627286048,2883584,121,-56,-1,-1,0
1523627286048,65536,121,-56,-1,-1,0
1523627286048,-655360,121,-56,-1,-1,0
1523627286048,-524288,121,-56,-1,-1,0
1523627286048,-327680,121,-56,-1,-1,0
1523627286086,-262144,121,-56,-1,-1,0
1523627286086,-327680,121,-56,-1,-1,0
1523627286086,-262144,121,-56,-1,-1,0
1523627286086,-196608,121,-56,-1,-1,0
1523627286086,-196608,121,-56,-1,-1,0
1523627286126,-196608,121,-56,-1,-1,0
1523627286126,-131072,121,-56,-1,-1,0
1523627286126,-65536,121,-56,-1,-1,0
1523627286126,-65536,121,-56,-1,-1,0
1523627286126,0,121,-56,-1,-1,0
1523627286166,65536,121,-56,-1,-1,0
1523627286166,196608,121,-56,-1,-1,0
1523627286166,262144,121,-56,-1,-1,0
1523627286166,458752,121,-56,-1,-1,0
1523627286166,655360,121,-56,-1,-1,0
1523627286206,917504,121,-56,-1,-1,0
1523627286206,1114112,121,-56,-1,-1,0
1523627286206,1245184,121,-56,-1,-1,0
1523627286206,1179648,121,-56,-1,-1,0
1523627286206,1114112,121,-56,-1,-1,0
1523627286248,917504,121,-56,-1,-1,0
1523627286248,655360,121,-56,-1,-1,0
1523627286248,393216,121,-56,-1,-1,0
1523627286248,131072,121,-56,-1,-1,0
1523627286248,0,121,-56,-1,-1,0
1523627286286,-131072,121,-56,-1,-1,0
1523627286286,-196608,121,-56,-1,-1,0
1523627286286,-327680,121,-56,-1,-1,0
1523627286286,-393216,121,-56,-1,-1,0
1523627286286,-393216,121,-56,-1,-1,0
1523627286327,-327680,121,-56,-1,-1,0
1523627286327,-327680,121,-56,-1,-1,0
1523627286327,-393216,121,-56,-1,-1,0
1523627286327,-458752,121,-56,-1,-1,0
1523627286327,-393216,121,-56,-1,-1,0
1523627286371,-393216,121,-56,-1,-1,0
1523627286371,-393216,121,-56,-1,-1,0
1523627286371,-458752,121,-56,-1,-1,0
1523627286371,-524288,121,-56,-1,-1,0
1523627286371,-458752,121,-56,-1,-1,0
1523627286406,-458752,121,-56,-1,-1,0
1523627286406,-524288,121,-56,-1,-1,0
1523627286406,-589824,121,-56,-1,-1,0
1523627286406,-589824,121,-56,-1,-1,0
1523627286406,-589824,121,-56,-1,-1,0
1523627286446,-589824,121,-56,-1,-1,0
1523627286446,-589824,121,-56,-1,-1,0
1523627286446,-589824,121,-56,-1,-1,0
1523627286446,-655360,121,-56,-1,-1,0
1523627286446,-655360,121,-56,-1,-1,0
1523627286486,-720896,121,-56,-1,-1,0
1523627286486,-1048576,121,-56,-1,-1,0
1523627286486,-1310720,121,-56,-1,-1,0
1523627286486,-524288,121,-56,-1,-1,0
1523627286486,1638400,121,-56,-1,-1,0
1523627286527,3866624,121,-56,-1,-1,0
1523627286527,3407872,121,-56,-1,-1,0
1523627286527,786432,121,-56,-1,-1,0
1523627286527,-1245184,121,-56,-1,-1,0
1523627286527,-1572864,121,-56,-1,-1,0
1523627286568,-1310720,121,-56,-1,-1,0
1523627286568,-1048576,121,-56,-1,-1,0
1523627286568,-917504,121,-56,-1,-1,0
1523627286568,-851968,121,-56,-1,-1,0
1523627286568,-786432,121,-56,-1,-1,0
1523627286606,-720896,121,-56,-1,-1,0
1523627286606,-720896,121,-56,-1,-1,0
1523627286606,-786432,121,-56,-1,-1,0
1523627286606,-720896,121,-56,-1,-1,0
1523627286606,-655360,121,-56,-1,-1,0
1523627286646,-589824,121,-56,-1,-1,0
1523627286646,-524288,121,-56,-1,-1,0
1523627286646,-393216,121,-56,-1,-1,0
1523627286646,-262144,121,-56,-1,-1,0
1523627286646,-131072,121,-56,-1,-1,0
1523627286686,0,121,-56,-1,-1,0
1523627286686,327680,121,-56,-1,-1,0
1523627286686,655360,121,-56,-1,-1,0
1523627286686,851968,121,-56,-1,-1,0
1523627286686,917504,121,-56,-1,-1,0
1523627286727,917504,121,-56,-1,-1,0
1523627286727,786432,121,-56,-1,-1,0
1523627286727,524288,121,-56,-1,-1,0
1523627286727,262144,121,-56,-1,-1,0
1523627286727,0,121,-56,-1,-1,0
1523627286766,-196608,121,-56,-1,-1,0
1523627286766,-393216,121,-56,-1,-1,0
1523627286766,-524288,121,-56,-1,-1,0
1523627286766,-655360,121,-56,-1,-1,0
1523627286766,-655360,121,-56,-1,-1,0
1523627286806,-655360,121,-56,-1,-1,0
1523627286806,-589824,121,-56,-1,-1,0
1523627286806,-589824,121,-56,-1,-1,0
1523627286806,-589824,121,-56,-1,-1,0
1523627286806,-589824,121,-56,-1,-1,0
1523627286847,-589824,121,-56,-1,-1,0
1523627286847,-589824,121,-56,-1,-1,0
1523627286847,-589824,121,-56,-1,-1,0
1523627286847,-589824,121,-56,-1,-1,0
1523627286847,-524288,121,-56,-1,-1,0
1523627286886,-458752,121,-56,-1,-1,0
1523627286886,-458752,121,-56,-1,-1,0
1523627286886,-458752,121,-56,-1,-1,0
1523627286886,-393216,121,-56,-1,-1,0
1523627286886,-458752,121,-56,-1,-1,0
1523627286926,-458752,121,-56,-1,-1,0
1523627286926,-458752,121,-56,-1,-1,0
1523627286926,-524288,121,-56,-1,-1,0
1523627286926,-524288,121,-56,-1,-1,0
1523627286926,-458752,121,-56,-1,-1,0
1523627286966,-458752,121,-56,-1,-1,0
1523627286966,-589824,121,-56,-1,-1,0
1523627286966,-917504,121,-56,-1,-1,0
1523627286966,-1114112,121,-56,-1,-1,0
1523627286966,-131072,121,-56,-1,-1,0
1523627287011,2228224,121,-56,-1,-1,0
1523627287011,4521984,121,-56,-1,-1,0
1523627287011,3604480,121,-56,-1,-1,0
1523627287011,589824,121,-56,-1,-1,0
1523627287011,-1441792,121,-56,-1,-1,0
1523627287047,-1507328,121,-56,-1,-1,0
1523627287047,-1114112,121,-56,-1,-1,0
1523627287047,-786432,121,-56,-1,-1,0
1523627287047,-655360,121,-56,-1,-1,0
1523627287047,-589824,121,-56,-1,-1,0
1523627287087,-589824,121,-56,-1,-1,0
1523627287087,-589824,121,-56,-1,-1,0
1523627287087,-393216,121,-56,-1,-1,0
1523627287087,-327680,121,-56,-1,-1,0
1523627287087,-262144,121,-56,-1,-1,0
1523627287127,-196608,121,-56,-1,-1,0
1523627287127,-65536,121,-56,-1,-1,0
1523627287127,0,121,-56,-1,-1,0
1523627287127,131072,121,-56,-1,-1,0
1523627287127,327680,121,-56,-1,-1,0
1523627287167,589824,121,-56,-1,-1,0
1523627287167,786432,121,-56,-1,-1,0
1523627287167,1114112,121,-56,-1,-1,0
1523627287167,1376256,121,-56,-1,-1,0
1523627287167,1572864,121,-56,-1,-1,0
1523627287208,1638400,121,-56,-1,-1,0
1523627287208,1572864,121,-56,-1,-1,0
1523627287208,1310720,121,-56,-1,-1,0
1523627287208,1048576,121,-56,-1,-1,0
1523627287208,786432,121,-56,-1,-1,0
1523627287247,524288,121,-56,-1,-1,0
1523627287247,262144,121,-56,-1,-1,0
1523627287247,65536,121,-56,-1,-1,0
1523627287247,0,121,-56,-1,-1,0
1523627287247,-131072,121,-56,-1,-1,0
1523627287287,-196608,121,-56,-1,-1,0
1523627287287,-196608,121,-56,-1,-1,0
1523627287287,-131072,121,-56,-1,-1,0
1523627287287,-131072,121,-56,-1,-1,0
1523627287287,-196608,121,-56,-1,-1,0
1523627287327,-131072,121,-56,-1,-1,0
1523627287327,-65536,121,-56,-1,-1,0
1523627287327,0,121,-56,-1,-1,0
1523627287327,0,121,-56,-1,-1,0
1523627287327,0,121,-56,-1,-1,0
1523627287367,-65536,121,-56,-1,-1,0
1523627287367,-131072,121,-56,-1,-1,0
1523627287367,-131072,121,-56,-1,-1,0
1523627287367,-131072,121,-56,-1,-1,0
1523627287367,-196608,121,-56,-1,-1,0
1523627287408,-196608,121,-56,-1,-1,0
1523627287408,-196608,121,-56,-1,-1,0
1523627287408,-327680,121,-56,-1,-1,0
1523627287408,-393216,121,-56,-1,-1,0
1523627287408,-393216,121,-56,-1,-1,0
1523627287447,-327680,121,-56,-1,-1,0
1523627287447,-327680,121,-56,-1,-1,0
1523627287447,-393216,121,-56,-1,-1,0
1523627287447,-786432,121,-56,-1,-1,0
1523627287447,-1114112,121,-56,-1,-1,0
1523627287487,-393216,121,-56,-1,-1,0
1523627287487,1966080,121,-56,-1,-1,0
1523627287487,4784128,121,-56,-1,-1,0
1523627287487,4587520,121,-56,-1,-1,0
1523627287487,1507328,121,-56,-1,-1,0
1523627287528,-1114112,121,-56,-1,-1,0
1523627287528,-1376256,121,-56,-1,-1,0
1523627287528,-1048576,121,-56,-1,-1,0
1523627287528,-720896,121,-56,-1,-1,0
1523627287528,-589824,121,-56,-1,-1,0
1523627287567,-524288,121,-56,-1,-1,0
1523627287567,-524288,121,-56,-1,-1,0
1523627287567,-524288,121,-56,-1,-1,0
1523627287567,-524288,121,-56,-1,-1,0
1523627287567,-458752,121,-56,-1,-1,0
1523627287607,-393216,121,-56,-1,-1,0
1523627287607,-327680,121,-56,-1,-1,0
1523627287607,-327680,121,-56,-1,-1,0
1523627287607,-196608,121,-56,-1,-1,0
1523627287607,-65536,121,-56,-1,-1,0
1523627287651,0,121,-56,-1,-1,0
1523627287651,196608,121,-56,-1,-1,0
1523627287651,524288,121,-56,-1,-1,0
1523627287651,786432,121,-56,-1,-1,0
1523627287651,1114112,121,-56,-1,-1,0
1523627287686,1376256,121,-56,-1,-1,0
1523627287686,1507328,121,-56,-1,-1,0
1523627287686,1441792,121,-56,-1,-1,0
1523627287686,1310720,121,-56,-1,-1,0
1523627287686,983040,121,-56,-1,-1,0
1523627287728,589824,121,-56,-1,-1,0
1523627287728,196608,121,-56,-1,-1,0
1523627287728,0,121,-56,-1,-1,0
1523627287728,-196608,121,-56,-1,-1,0
1523627287728,-327680,121,-56,-1,-1,0
1523627287767,-393216,121,-56,-1,-1,0
1523627287767,-458752,121,-56,-1,-1,0
1523627287767,-524288,121,-56,-1,-1,0
1523627287767,-524288,121,-56,-1,-1,0
1523627287767,-458752,121,-56,-1,-1,0
1523627287808,-393216,121,-56,-1,-1,0
1523627287808,-393216,121,-56,-1,-1,0
1523627287808,-458752,121,-56,-1,-1,0
1523627287808,-458752,121,-56,-1,-1,0
1523627287808,-458752,121,-56,-1,-1,0
1523627287847,-524288,121,-56,-1,-1,0
1523627287847,-524288,121,-56,-1,-1,0
1523627287847,-458752,121,-56,-1,-1,0
1523627287847,-458752,121,-56,-1,-1,0
1523627287847,-524288,121,-56,-1,-1,0
1523627287887,-589824,121,-56,-1,-1,0
1523627287887,-589824,121,-56,-1,-1,0
1523627287887,-524288,121,-56,-1,-1,0
1523627287887,-524288,121,-56,-1,-1,0
1523627287887,-524288,121,-56,-1,-1,0
1523627287927,-589824,121,-56,-1,-1,0
1523627287927,-655360,121,-56,-1,-1,0
1523627287927,-655360,121,-56,-1,-1,0
1523627287927,-655360,121,-56,-1,-1,0
1523627287927,-917504,121,-56,-1,-1,0
1523627287967,-1310720,121,-56,-1,-1,0
1523627287967,-1048576,121,-56,-1,-1,0
1523627287967,786432,121,-56,-1,-1,0
1523627287967,3932160,121,-56,-1,-1,0
1523627287967,5177344,121,-56,-1,-1,0
1523627288009,2949120,121,-56,-1,-1,0
1523627288009,-65536,121,-56,-1,-1,0
1523627288009,-1179648,121,-56,-1,-1,0
1523627288009,-983040,121,-56,-1,-1,0
1523627288009,-786432,121,-56,-1,-1,0
1523627288047,-655360,121,-56,-1,-1,0
1523627288047,-589824,121,-56,-1,-1,0
1523627288047,-524288,121,-56,-1,-1,0
1523627288047,-524288,121,-56,-1,-1,0
1523627288047,-524288,121,-56,-1,-1,0
1523627288087,-524288,121,-56,-1,-1,0
1523627288087,-458752,121,-56,-1,-1,0
1523627288087,-327680,121,-56,-1,-1,0
1523627288087,-327680,121,-56,-1,-1,0
1523627288087,-196608,121,-56,-1,-1,0
1523627288127,-131072,121,-56,-1,-1,0
1523627288127,0,121,-56,-1,-1,0
1523627288127,196608,121,-56,-1,-1,0
1523627288127,458752,121,-56,-1,-1,0
1523627288127,655360,121,-56,-1,-1,0
1523627288167,983040,121,-56,-1,-1,0
1523627288167,1179648,121,-56,-1,-1,0
1523627288167,1376256,121,-56,-1,-1,0
1523627288167,1441792,121,-56,-1,-1,0
1523627288167,1376256,121,-56,-1,-1,0
1523627288207,1179648,121,-56,-1,-1,0
1523627288207,851968,121,-56,-1,-1,0
1523627288207,589824,121,-56,-1,-1,0
1523627288207,327680,121,-56,-1,-1,0
1523627288207,131072,121,-56,-1,-1,0
1523627288247,0,121,-56,-1,-1,0
1523627288247,0,121,-56,-1,-1,0
1523627288247,-65536,121,-56,-1,-1,0
1523627288247,-65536,121,-56,-1,-1,0
1523627288247,-131072,121,-56,-1,-1,0
1523627288291,-131072,122,-56,-1,-1,0
1523627288291,-65536,122,-56,-1,-1,0
1523627288291,0,122,-56,-1,-1,0
1523627288291,0,122,-56,-1,-1,0
1523627288291,0,122,-56,-1,-1,0
1523627288327,0,122,-56,-1,-1,0
1523627288327,0,122,-56,-1,-1,0
1523627288327,0,122,-56,-1,-1,0
1523627288327,0,122,-56,-1,-1,0
1523627288327,0,122,-56,-1,-1,0
1523627288367,65536,122,-56,-1,-1,0
1523627288367,65536,122,-56,-1,-1,0
1523627288367,65536,122,-56,-1,-1,0
1523627288367,131072,122,-56,-1,-1,0
1523627288367,196608,122,-56,-1,-1,0
1523627288407,131072,122,-56,-1,-1,0
1523627288407,131072,122,-56,-1,-1,0
1523627288407,196608,122,-56,-1,-1,0
1523627288407,262144,122,-56,-1,-1,0
1523627288407,262144,122,-56,-1,-1,0
1523627288447,196608,122,-56,-1,-1,0
1523627288447,0,122,-56,-1,-1,0
1523627288447,-458752,122,-56,-1,-1,0
1523627288447,-327680,122,-56,-1,-1,0
1523627288447,1310720,122,-56,-1,-1,0
1523627288487,4325376,122,-56,-1,-1,0
1523627288487,5898240,122,-56,-1,-1,0
1523627288487,4063232,122,-56,-1,-1,0
1523627288487,1114112,122,-56,-1,-1,0
1523627288487,-65536,122,-56,-1,-1,0
1523627288527,-65536,122,-56,-1,-1,0
1523627288527,0,122,-56,-1,-1,0
1523627288527,0,122,-56,-1,-1,0
1523627288527,0,122,-56,-1,-1,0
1523627288527,131072,122,-56,-1,-1,0
1523627288567,196608,122,-56,-1,-1,0
1523627288567,196608,122,-56,-1,-1,0
1523627288567,262144,122,-56,-1,-1,0
1523627288567,262144,122,-56,-1,-1,0
1523627288567,327680,122,-56,-1,-1,0
1523627288609,393216,122,-56,-1,-1,0
1523627288609,393216,122,-56,-1,-1,0
1523627288609,393216,122,-56,-1,-1,0
1523627288609,524288,122,-56,-1,-1,0
1523627288609,720896,122,-56,-1,-1,0
1523627288647,917504,122,-56,-1,-1,0
1523627288647,1179648,122,-56,-1,-1,0
1523627288647,1441792,122,-56,-1,-1,0
1523627288647,1638400,122,-56,-1,-1,0
1523627288647,1769472,122,-56,-1,-1,0
1523627288687,1835008,122,-56,-1,-1,0
1523627288687,1835008,122,-56,-1,-1,0
1523627288687,1703936,122,-56,-1,-1,0
1523627288687,1441792,122,-56,-1,-1,0
1523627288687,1114112,122,-56,-1,-1,0
1523627288727,851968,122,-56,-1,-1,0
1523627288727,720896,122,-56,-1,-1,0
1523627288727,589824,122,-56,-1,-1,0
1523627288727,458752,122,-56,-1,-1,0
1523627288727,327680,122,-56,-1,-1,0
1523627288767,262144,122,-56,-1,-1,0
1523627288767,327680,122,-56,-1,-1,0
1523627288767,327680,122,-56,-1,-1,0
1523627288767,327680,122,-56,-1,-1,0
1523627288767,327680,122,-56,-1,-1,0
1523627288807,327680,122,-56,-1,-1,0
1523627288807,327680,122,-56,-1,-1,0
1523627288807,262144,122,-56,-1,-1,0
1523627288807,262144,122,-56,-1,-1,0
1523627288807,262144,122,-56,-1,-1,0
1523627288847,196608,122,-56,-1,-1,0
1523627288847,131072,122,-56,-1,-1,0
1523627288847,65536,122,-56,-1,-1,0
1523627288847,65536,122,-56,-1,-1,0
1523627288847,65536,122,-56,-1,-1,0
1523627288887,65536,122,-56,-1,-1,0
1523627288887,0,122,-56,-1,-1,0
1523627288887,0,122,-56,-1,-1,0
1523627288887,0,122,-56,-1,-1,0
1523627288887,0,122,-56,-1,-1,0
1523627288932,-65536,122,-56,-1,-1,0
1523627288932,-65536,122,-56,-1,-1,0
1523627288932,-131072,122,-56,-1,-1,0
1523627288932,-131072,122,-56,-1,-1,0
1523627288932,-131072,122,-56,-1,-1,0
1523627288967,-262144,122,-56,-1,-1,0
1523627288967,-655360,122,-56,-1,-1,0
1523627288967,-655360,122,-56,-1,-1,0
1523627288967,655360,122,-56,-1,-1,0
1523627288967,3211264,122,-56,-1,-1,0
1523627289007,4653056,122,-56,-1,-1,0
1523627289007,3014656,122,-56,-1,-1,0
1523627289007,196608,122,-56,-1,-1,0
1523627289007,-983040,122,-56,-1,-1,0
1523627289007,-851968,122,-56,-1,-1,0
1523627289047,-589824,122,-56,-1,-1,0
1523627289047,-524288,122,-56,-1,-1,0
1523627289047,-524288,122,-56,-1,-1,0
1523627289047,-524288,122,-56,-1,-1,0
1523627289047,-524288,122,-56,-1,-1,0
1523627289087,-458752,122,-56,-1,-1,0
1523627289087,-458752,122,-56,-1,-1,0
1523627289087,-458752,122,-56,-1,-1,0
1523627289087,-458752,122,-56,-1,-1,0
1523627289087,-393216,122,-56,-1,-1,0
1523627289127,-262144,122,-56,-1,-1,0
1523627289127,-262144,122,-56,-1,-1,0
1523627289127,-131072,122,-56,-1,-1,0
1523627289127,0,122,-56,-1,-1,0
1523627289127,65536,122,-56,-1,-1,0
1523627289167,393216,122,-56,-1,-1,0
1523627289167,720896,122,-56,-1,-1,0
1523627289167,917504,122,-56,-1,-1,0
1523627289167,1048576,122,-56,-1,-1,0
1523627289167,1114112,122,-56,-1,-1,0
1523627289207,1048576,122,-56,-1,-1,0
1523627289207,851968,122,-56,-1,-1,0
1523627289207,589824,122,-56,-1,-1,0
1523627289207,327680,122,-56,-1,-1,0
1523627289207,65536,122,-56,-1,-1,0
1523627289247,-196608,122,-56,-1,-1,0
1523627289247,-458752,122,-56,-1,-1,0
1523627289247,-589824,122,-56,-1,-1,0
1523627289247,-655360,122,-56,-1,-1,0
1523627289247,-720896,122,-56,-1,-1,0
1523627289287,-786432,122,-56,-1,-1,0
1523627289287,-720896,122,-56,-1,-1,0
1523627289287,-720896,122,-56,-1,-1,0
1523627289287,-720896,122,-56,-1,-1,0
1523627289287,-720896,122,-56,-1,-1,0
1523627289328,-720896,122,-56,-1,-1,0
1523627289328,-720896,122,-56,-1,-1,0
1523627289328,-655360,122,-56,-1,-1,0
1523627289328,-589824,122,-56,-1,-1,0
1523627289328,-589824,122,-56,-1,-1,0
1523627289367,-720896,122,-56,-1,-1,0
1523627289367,-786432,122,-56,-1,-1,0
1523627289367,-786432,122,-56,-1,-1,0
1523627289367,-720896,122,-56,-1,-1,0
1523627289367,-720896,122,-56,-1,-1,0
1523627289407,-786432,122,-56,-1,-1,0
1523627289407,-851968,122,-56,-1,-1,0
1523627289407,-851968,122,-56,-1,-1,0
1523627289407,-851968,122,-56,-1,-1,0
1523627289407,-917504,122,-56,-1,-1,0
1523627289447,-917504,122,-56,-1,-1,0
1523627289447,-917504,122,-56,-1,-1,0
1523627289447,-917504,122,-56,-1,-1,0
1523627289447,-1048576,122,-56,-1,-1,0
1523627289447,-1441792,122,-56,-1,-1,0
1523627289487,-1507328,122,-56,-1,-1,0
1523627289487,-393216,122,-56,-1,-1,0
1523627289487,2097152,122,-56,-1,-1,0
1523627289487,4063232,122,-56,-1,-1,0
1523627289487,2818048,122,-56,-1,-1,0
1523627289527,-131072,122,-56,-1,-1,0
1523627289527,-1900544,122,-56,-1,-1,0
1523627289527,-1835008,122,-56,-1,-1,0
1523627289527,-1507328,122,-56,-1,-1,0
1523627289527,-1245184,122,-56,-1,-1,0
1523627289572,-1048576,122,-56,-1,-1,0
1523627289572,-1048576,122,-56,-1,-1,0
1523627289572,-1048576,122,-56,-1,-1,0
1523627289572,-1048576,122,-56,-1,-1,0
1523627289572,-1048576,122,-56,-1,-1,0
1523627289607,-983040,122,-56,-1,-1,0
1523627289607,-917504,122,-56,-1,-1,0
1523627289607,-786432,122,-56,-1,-1,0
1523627289607,-589824,122,-56,-1,-1,0
1523627289607,-524288,122,-56,-1,-1,0
1523627289647,-524288,122,-56,-1,-1,0
1523627289647,-393216,122,-56,-1,-1,0
1523627289647,-131072,122,-56,-1,-1,0
1523627289647,131072,122,-56,-1,-1,0
1523627289647,458752,122,-56,-1,-1,0
1523627289688,720896,122,-56,-1,-1,0
1523627289688,917504,122,-56,-1,-1,0
1523627289688,917504,122,-56,-1,-1,0
1523627289688,851968,122,-56,-1,-1,0
1523627289688,720896,122,-56,-1,-1,0
1523627289727,589824,122,-56,-1,-1,0
1523627289727,262144,122,-56,-1,-1,0
1523627289727,-65536,122,-56,-1,-1,0
1523627289727,-327680,122,-56,-1,-1,0
1523627289727,-524288,122,-56,-1,-1,0
1523627289767,-655360,122,-56,-1,-1,0
1523627289767,-720896,122,-56,-1,-1,0
1523627289767,-720896,122,-56,-1,-1,0
1523627289767,-720896,122,-56,-1,-1,0
1523627289767,-720896,122,-56,-1,-1,0
1523627289807,-786432,122,-56,-1,-1,0
1523627289807,-720896,122,-56,-1,-1,0
1523627289807,-720896,122,-56,-1,-1,0
1523627289807,-655360,122,-56,-1,-1,0
1523627289807,-655360,122,-56,-1,-1,0
1523627289847,-589824,122,-56,-1,-1,0
1523627289847,-524288,122,-56,-1,-1,0
1523627289847,-589824,122,-56,-1,-1,0
1523627289847,-655360,122,-56,-1,-1,0
1523627289847,-655360,122,-56,-1,-1,0
1523627289887,-655360,122,-56,-1,-1,0
1523627289887,-720896,122,-56,-1,-1,0
1523627289887,-786432,122,-56,-1,-1,0
1523627289887,-786432,122,-56,-1,-1,0
1523627289887,-720896,122,-56,-1,-1,0
1523627289927,-786432,122,-56,-1,-1,0
1523627289927,-851968,122,-56,-1,-1,0
1523627289927,-851968,122,-56,-1,-1,0
1523627289927,-786432,122,-56,-1,-1,0
1523627289927,-786432,122,-56,-1,-1,0
1523627289967,-786432,122,-56,-1,-1,0
1523627289967,-851968,122,-56,-1,-1,0
1523627289967,-1245184,122,-56,-1,-1,0
1523627289967,-1376256,122,-56,-1,-1,0
1523627289967,-196608,122,-56,-1,-1,0
1523627290007,2424832,122,-56,-1,-1,0
1523627290007,4521984,122,-56,-1,-1,0
1523627290007,3211264,122,-56,-1,-1,0
1523627290007,0,122,-56,-1,-1,0
1523627290007,-1703936,122,-56,-1,-1,0
1523627290047,-1703936,122,-56,-1,-1,0
1523627290047,-1310720,122,-56,-1,-1,0
1523627290047,-1048576,122,-56,-1,-1,0
1523627290047,-983040,122,-56,-1,-1,0
1523627290047,-917504,122,-56,-1,-1,0
1523627290087,-851968,122,-56,-1,-1,0
1523627290087,-851968,122,-56,-1,-1,0
1523627290087,-786432,122,-56,-1,-1,0
1523627290087,-786432,122,-56,-1,-1,0
1523627290087,-720896,122,-56,-1,-1,0
1523627290127,-720896,122,-56,-1,-1,0
1523627290127,-524288,122,-56,-1,-1,0
1523627290127,-458752,122,-56,-1,-1,0
1523627290127,-393216,122,-56,-1,-1,0
1523627290127,-196608,122,-56,-1,-1,0
1523627290167,0,122,-56,-1,-1,0
1523627290167,262144,122,-56,-1,-1,0
1523627290167,589824,122,-56,-1,-1,0
1523627290167,851968,122,-56,-1,-1,0
1523627290167,1048576,122,-56,-1,-1,0
1523627290212,1114112,122,-56,-1,-1,0
1523627290212,1048576,122,-56,-1,-1,0
1523627290212,786432,122,-56,-1,-1,0
1523627290212,458752,122,-56,-1,-1,0
1523627290212,196608,122,-56,-1,-1,0
1523627290246,-65536,122,-56,-1,-1,0
1523627290246,-327680,122,-56,-1,-1,0
1523627290246,-458752,122,-56,-1,-1,0
1523627290246,-589824,122,-56,-1,-1,0
1523627290246,-720896,122,-56,-1,-1,0
1523627290288,-786432,122,-56,-1,-1,0
1523627290288,-786432,122,-56,-1,-1,0
1523627290288,-720896,122,-56,-1,-1,0
1523627290288,-720896,122,-56,-1,-1,0
1523627290288,-655360,122,-56,-1,-1,0
1523627290326,-655360,122,-56,-1,-1,0
1523627290326,-589824,122,-56,-1,-1,0
1523627290326,-524288,122,-56,-1,-1,0
1523627290326,-524288,122,-56,-1,-1,0
1523627290326,-458752,122,-56,-1,-1,0
1523627290366,-458752,122,-56,-1,-1,0
1523627290366,-524288,122,-56,-1,-1,0
1523627290366,-589824,122,-56,-1,-1,0
1523627290366,-589824,122,-56,-1,-1,0
1523627290366,-524288,122,-56,-1,-1,0
1523627290406,-524288,122,-56,-1,-1,0
1523627290406,-589824,122,-56,-1,-1,0
1523627290406,-524288,122,-56,-1,-1,0
1523627290406,-524288,122,-56,-1,-1,0
1523627290406,-524288,122,-56,-1,-1,0
1523627290446,-524288,122,-56,-1,-1,0
1523627290446,-524288,122,-56,-1,-1,0
1523627290446,-524288,122,-56,-1,-1,0
1523627290446,-458752,122,-56,-1,-1,0
1523627290446,-524288,122,-56,-1,-1,0
1523627290488,-917504,122,-56,-1,-1,0
1523627290488,-1245184,122,-56,-1,-1,0
1523627290488,-589824,122,-56,-1,-1,0
1523627290488,1703936,122,-56,-1,-1,0
1523627290488,4521984,122,-56,-1,-1,0
1523627290526,4587520,122,-56,-1,-1,0
1523627290526,1769472,122,-56,-1,-1,0
1523627290526,-720896,122,-56,-1,-1,0
1523627290526,-1245184,122,-56,-1,-1,0
1523627290526,-1114112,122,-56,-1,-1,0
1523627290566,-851968,122,-56,-1,-1,0
1523627290566,-786432,122,-56,-1,-1,0
1523627290566,-720896,122,-56,-1,-1,0
1523627290566,-655360,122,-56,-1,-1,0
1523627290566,-655360,122,-56,-1,-1,0
1523627290606,-655360,122,-56,-1,-1,0
1523627290606,-589824,122,-56,-1,-1,0
1523627290606,-524288,122,-56,-1,-1,0
1523627290606,-524288,122,-56,-1,-1,0
1523627290606,-393216,122,-56,-1,-1,0
1523627290646,-393216,122,-56,-1,-1,0
1523627290646,-327680,122,-56,-1,-1,0
1523627290646,-196608,122,-56,-1,-1,0
1523627290646,65536,122,-56,-1,-1,0
1523627290646,393216,122,-56,-1,-1,0
1523627290686,655360,122,-56,-1,-1,0
1523627290686,917504,122,-56,-1,-1,0
1523627290686,1114112,122,-56,-1,-1,0
1523627290686,1245184,122,-56,-1,-1,0
1523627290686,1245184,122,-56,-1,-1,0
1523627290726,1179648,122,-56,-1,-1,0
1523627290726,917504,122,-56,-1,-1,0
1523627290726,589824,122,-56,-1,-1,0
1523627290726,327680,122,-56,-1,-1,0
1523627290726,65536,122,-56,-1,-1,0
1523627290773,-65536,122,-56,-1,-1,0
1523627290773,-196608,122,-56,-1,-1,0
1523627290773,-327680,122,-56,-1,-1,0
1523627290773,-327680,122,-56,-1,-1,0
1523627290773,-327680,122,-56,-1,-1,0
1523627290806,-262144,122,-56,-1,-1,0
1523627290806,-262144,122,-56,-1,-1,0
1523627290806,-262144,122,-56,-1,-1,0
1523627290806,-262144,122,-56,-1,-1,0
1523627290806,-196608,122,-56,-1,-1,0
1523627290851,-131072,122,-56,-1,-1,0
1523627290851,-196608,122,-56,-1,-1,0
1523627290851,-196608,122,-56,-1,-1,0
1523627290851,-196608,122,-56,-1,-1,0
1523627290851,-131072,122,-56,-1,-1,0
1523627290886,-131072,122,-56,-1,-1,0
1523627290886,-131072,122,-56,-1,-1,0
1523627290886,-131072,122,-56,-1,-1,0
1523627290886,-262144,122,-56,-1,-1,0
1523627290886,-393216,122,-56,-1,-1,0
1523627290926,-327680,122,-56,-1,-1,0
1523627290926,-196608,122,-56,-1,-1,0
1523627290926,-131072,122,-56,-1,-1,0
1523627290926,-196608,122,-56,-1,-1,0
1523627290926,-327680,122,-56,-1,-1,0
1523627290968,-327680,122,-56,-1,-1,0
1523627290968,-262144,122,-56,-1,-1,0
1523627290968,-262144,122,-56,-1,-1,0
1523627290968,-524288,122,-56,-1,-1,0
1523627290968,-983040,122,-56,-1,-1,0
1523627291006,-983040,122,-56,-1,-1,0
1523627291006,196608,122,-56,-1,-1,0
1523627291006,3014656,122,-56,-1,-1,0
1523627291006,5177344,122,-56,-1,-1,0
1523627291006,4063232,122,-56,-1,-1,0
1523627291046,1048576,122,-56,-1,-1,0
1523627291046,-655360,122,-56,-1,-1,0
1523627291046,-786432,122,-56,-1,-1,0
1523627291046,-524288,122,-56,-1,-1,0
1523627291046,-458752,122,-56,-1,-1,0
1523627291091,-458752,122,-56,-1,-1,0
1523627291091,-458752,122,-56,-1,-1,0
1523627291091,-458752,122,-56,-1,-1,0
1523627291091,-327680,122,-56,-1,-1,0
1523627291091,-262144,122,-56,-1,-1,0
1523627291126,-327680,122,-56,-1,-1,0
1523627291126,-262144,122,-56,-1,-1,0
1523627291126,-262144,122,-56,-1,-1,0
1523627291126,-196608,122,-56,-1,-1,0
1523627291126,-131072,122,-56,-1,-1,0
1523627291166,-65536,122,-56,-1,-1,0
1523627291166,0,122,-56,-1,-1,0
1523627291166,131072,122,-56,-1,-1,0
1523627291166,393216,122,-56,-1,-1,0
1523627291166,655360,122,-56,-1,-1,0
1523627291208,983040,122,-56,-1,-1,0
1523627291208,1179648,122,-56,-1,-1,0
1523627291208,1245184,122,-56,-1,-1,0
1523627291208,1179648,122,-56,-1,-1,0
1523627291208,1048576,122,-56,-1,-1,0
1523627291246,851968,122,-56,-1,-1,0
1523627291246,524288,122,-56,-1,-1,0
1523627291246,262144,122,-56,-1,-1,0
1523627291246,0,122,-56,-1,-1,0
1523627291246,-131072,122,-56,-1,-1,0
1523627291288,-262144,122,-56,-1,-1,0
1523627291288,-327680,122,-56,-1,-1,0
1523627291288,-327680,122,-56,-1,-1,0
1523627291288,-327680,122,-56,-1,-1,0
1523627291288,-262144,122,-56,-1,-1,0
1523627291326,-327680,122,-56,-1,-1,0
1523627291326,-327680,122,-56,-1,-1,0
1523627291326,-327680,122,-56,-1,-1,0
1523627291326,-327680,122,-56,-1,-1,0
1523627291326,-262144,122,-56,-1,-1,0
1523627291366,-262144,122,-56,-1,-1,0
1523627291366,-196608,122,-56,-1,-1,0
1523627291366,-262144,122,-56,-1,-1,0
1523627291366,-327680,122,-56,-1,-1,0
1523627291366,-327680,122,-56,-1,-1,0
1523627291406,-262144,122,-56,-1,-1,0
1523627291406,-327680,122,-56,-1,-1,0
1523627291406,-327680,122,-56,-1,-1,0
1523627291406,-393216,122,-56,-1,-1,0
1523627291406,-327680,122,-56,-1,-1,0
1523627291446,-327680,122,-56,-1,-1,0
1523627291446,-327680,122,-56,-1,-1,0
1523627291446,-393216,122,-56,-1,-1,0
1523627291446,-393216,122,-56,-1,-1,0
1523627291446,-393216,122,-56,-1,-1,0
1523627291491,-458752,122,-56,-1,-1,0
1523627291491,-589824,122,-56,-1,-1,0
1523627291491,-983040,122,-56,-1,-1,0
1523627291491,-1048576,122,-56,-1,-1,0
1523627291491,65536,122,-56,-1,-1,0
1523627291526,2490368,122,-56,-1,-1,0
1523627291526,4259840,122,-56,-1,-1,0
1523627291526,3014656,122,-56,-1,-1,0
1523627291526,131072,122,-56,-1,-1,0
1523627291526,-1376256,122,-56,-1,-1,0
1523627291568,-1376256,122,-56,-1,-1,0
1523627291568,-983040,122,-56,-1,-1,0
1523627291568,-786432,122,-56,-1,-1,0
1523627291568,-720896,122,-56,-1,-1,0
1523627291568,-589824,122,-56,-1,-1,0
1523627291606,-524288,122,-56,-1,-1,0
1523627291606,-524288,122,-56,-1,-1,0
1523627291606,-458752,122,-56,-1,-1,0
1523627291606,-524288,122,-56,-1,-1,0
1523627291606,-524288,122,-56,-1,-1,0
1523627291646,-524288,122,-56,-1,-1,0
1523627291646,-393216,122,-56,-1,-1,0
1523627291646,-196608,122,-56,-1,-1,0
1523627291646,-65536,122,-56,-1,-1,0
1523627291646,-65536,122,-56,-1,-1,0
1523627291686,65536,122,-56,-1,-1,0
1523627291686,458752,122,-56,-1,-1,0
1523627291686,786432,122,-56,-1,-1,0
1523627291686,1048576,122,-56,-1,-1,0
1523627291686,1245184,122,-56,-1,-1,0
1523627291726,1310720,122,-56,-1,-1,0
1523627291726,1245184,122,-56,-1,-1,0
1523627291726,1048576,122,-56,-1,-1,0
1523627291726,720896,122,-56,-1,-1,0
1523627291726,458752,122,-56,-1,-1,0
1523627291769,131072,122,-56,-1,-1,0
1523627291769,0,122,-56,-1,-1,0
1523627291769,-262144,122,-56,-1,-1,0
1523627291769,-393216,122,-56,-1,-1,0
1523627291769,-458752,122,-56,-1,-1,0
1523627291806,-458752,122,-56,-1,-1,0
1523627291806,-458752,122,-56,-1,-1,0
1523627291806,-524288,122,-56,-1,-1,0
1523627291806,-458752,122,-56,-1,-1,0
1523627291806,-327680,122,-56,-1,-1,0
1523627291846,-262144,122,-56,-1,-1,0
1523627291846,-327680,122,-56,-1,-1,0
1523627291846,-262144,122,-56,-1,-1,0
1523627291846,-196608,122,-56,-1,-1,0
1523627291846,-196608,122,-56,-1,-1,0
1523627291886,-262144,122,-56,-1,-1,0
1523627291886,-327680,122,-56,-1,-1,0
1523627291886,-262144,122,-56,-1,-1,0
1523627291886,-196608,122,-56,-1,-1,0
1523627291886,-196608,122,-56,-1,-1,0
1523627291926,-262144,122,-56,-1,-1,0
1523627291926,-327680,122,-56,-1,-1,0
1523627291926,-393216,122,-56,-1,-1,0
1523627291926,-393216,122,-56,-1,-1,0
1523627291926,-327680,122,-56,-1,-1,0
1523627291966,-393216,122,-56,-1,-1,0
1523627291966,-393216,122,-56,-1,-1,0
1523627291966,-458752,122,-56,-1,-1,0
1523627291966,-655360,122,-56,-1,-1,0
1523627291966,-917504,122,-56,-1,-1,0
1523627292006,-720896,122,-56,-1,-1,0
1523627292006,786432,122,-56,-1,-1,0
1523627292006,3604480,122,-56,-1,-1,0
1523627292006,4784128,122,-56,-1,-1,0
1523627292006,2555904,122,-56,-1,-1,0
1523627292046,-524288,122,-56,-1,-1,0
1523627292046,-1703936,122,-56,-1,-1,0
1523627292046,-1376256,122,-56,-1,-1,0
1523627292046,-917504,122,-56,-1,-1,0
1523627292046,-589824,122,-56,-1,-1,0
1523627292086,-524288,122,-56,-1,-1,0
1523627292086,-524288,122,-56,-1,-1,0
1523627292086,-589824,122,-56,-1,-1,0
1523627292086,-524288,122,-56,-1,-1,0
1523627292086,-458752,122,-56,-1,-1,0
1523627292131,-327680,122,-56,-1,-1,0
1523627292131,-327680,122,-56,-1,-1,0
1523627292131,-327680,122,-56,-1,-1,0
1523627292131,-131072,122,-56,-1,-1,0
1523627292131,65536,122,-56,-1,-1,0
1523627292166,262144,122,-56,-1,-1,0
1523627292166,327680,122,-56,-1,-1,0
1523627292166,720896,122,-56,-1,-1,0
1523627292166,1048576,122,-56,-1,-1,0
1523627292166,1441792,122,-56,-1,-1,0
1523627292206,1835008,122,-56,-1,-1,0
1523627292206,2031616,122,-56,-1,-1,0
1523627292206,1900544,122,-56,-1,-1,0
1523627292206,1703936,122,-56,-1,-1,0
1523627292206,1441792,122,-56,-1,-1,0
1523627292246,1048576,122,-56,-1,-1,0
1523627292246,589824,122,-56,-1,-1,0
1523627292246,262144,122,-56,-1,-1,0
1523627292246,65536,122,-56,-1,-1,0
1523627292246,-65536,122,-56,-1,-1,0
1523627292286,-196608,122,-56,-1,-1,0
1523627292286,-262144,122,-56,-1,-1,0
1523627292286,-196608,122,-56,-1,-1,0
1523627292286,-196608,122,-56,-1,-1,0
1523627292286,-262144,122,-56,-1,-1,0
1523627292326,-131072,122,-56,-1,-1,0
1523627292326,-65536,122,-56,-1,-1,0
1523627292326,0,122,-56,-1,-1,0
1523627292326,0,122,-56,-1,-1,0
1523627292326,0,122,-56,-1,-1,0
1523627292366,0,122,-56,-1,-1,0
1523627292366,0,122,-56,-1,-1,0
1523627292366,0,122,-56,-1,-1,0
1523627292366,0,122,-56,-1,-1,0
1523627292366,0,122,-56,-1,-1,0
1523627292406,-65536,122,-56,-1,-1,0
1523627292406,-65536,122,-56,-1,-1,0
1523627292406,-65536,122,-56,-1,-1,0
1523627292406,-131072,122,-56,-1,-1,0
1523627292406,-196608,122,-56,-1,-1,0
1523627292446,-327680,122,-56,-1,-1,0
1523627292446,-393216,122,-56,-1,-1,0
1523627292446,-458752,122,-56,-1,-1,0
1523627292446,-458752,122,-56,-1,-1,0
1523627292446,-786432,122,-56,-1,-1,0
1523627292488,-1245184,122,-56,-1,-1,0
1523627292488,-983040,122,-56,-1,-1,0
1523627292488,1114112,122,-56,-1,-1,0
1523627292488,4587520,122,-56,-1,-1,0
1523627292488,5636096,122,-56,-1,-1,0
1523627292526,2686976,122,-56,-1,-1,0
1523627292526,-786432,122,-56,-1,-1,0
1523627292526,-1769472,122,-56,-1,-1,0
1523627292526,-1441792,122,-56,-1,-1,0
1523627292526,-917504,122,-56,-1,-1,0
1523627292568,-720896,122,-56,-1,-1,0
1523627292568,-720896,122,-56,-1,-1,0
1523627292568,-720896,122,-56,-1,-1,0
1523627292568,-786432,122,-56,-1,-1,0
1523627292568,-720896,122,-56,-1,-1,0
1523627292606,-655360,122,-56,-1,-1,0
1523627292606,-589824,122,-56,-1,-1,0
1523627292606,-524288,122,-56,-1,-1,0
1523627292606,-393216,122,-56,-1,-1,0
1523627292606,-262144,122,-56,-1,-1,0
1523627292646,-196608,122,-56,-1,-1,0
1523627292646,-65536,122,-56,-1,-1,0
1523627292646,65536,122,-56,-1,-1,0
1523627292646,458752,122,-56,-1,-1,0
1523627292646,851968,122,-56,-1,-1,0
1523627292686,1179648,122,-56,-1,-1,0
1523627292686,1441792,122,-56,-1,-1,0
1523627292686,1703936,122,-56,-1,-1,0
1523627292686,1703936,122,-56,-1,-1,0
1523627292686,1507328,122,-56,-1,-1,0
1523627292726,1114112,122,-56,-1,-1,0
1523627292726,720896,122,-56,-1,-1,0
1523627292726,393216,122,-56,-1,-1,0
1523627292726,65536,122,-56,-1,-1,0
1523627292726,-65536,122,-56,-1,-1,0
1523627292771,-131072,122,-56,-1,-1,0
1523627292771,-196608,122,-56,-1,-1,0
1523627292771,-196608,122,-56,-1,-1,0
1523627292771,-262144,122,-56,-1,-1,0
1523627292771,-196608,122,-56,-1,-1,0
1523627292806,-131072,122,-56,-1,-1,0
1523627292806,-65536,122,-56,-1,-1,0
1523627292806,-65536,122,-56,-1,-1,0
1523627292806,0,122,-56,-1,-1,0
1523627292806,0,122,-56,-1,-1,0
1523627292846,131072,122,-56,-1,-1,0
1523627292846,131072,122,-56,-1,-1,0
1523627292846,131072,122,-56,-1,-1,0
1523627292846,196608,122,-56,-1,-1,0
1523627292846,196608,122,-56,-1,-1,0
1523627292886,196608,122,-56,-1,-1,0
1523627292886,131072,122,-56,-1,-1,0
1523627292886,131072,122,-56,-1,-1,0
1523627292886,65536,122,-56,-1,-1,0
1523627292886,65536,122,-56,-1,-1,0
1523627292926,65536,122,-56,-1,-1,0
1523627292926,131072,122,-56,-1,-1,0
1523627292926,65536,122,-56,-1,-1,0
1523627292926,65536,122,-56,-1,-1,0
1523627292926,0,122,-56,-1,-1,0
1523627292966,-393216,122,-56,-1,-1,0
1523627292966,-851968,122,-56,-1,-1,0
1523627292966,-262144,122,-56,-1,-1,0
1523627292966,2424832,122,-56,-1,-1,0
1523627292966,5832704,122,-56,-1,-1,0
1523627293006,6094848,122,-56,-1,-1,0
1523627293006,2883584,122,-56,-1,-1,0
1523627293006,-196608,122,-56,-1,-1,0
1523627293006,-720896,122,-56,-1,-1,0
1523627293006,-458752,122,-56,-1,-1,0
1523627293046,-196608,122,-56,-1,-1,0
1523627293046,-65536,122,-56,-1,-1,0
1523627293046,0,122,-56,-1,-1,0
1523627293046,0,122,-56,-1,-1,0
1523627293046,65536,122,-56,-1,-1,0
1523627293086,65536,122,-56,-1,-1,0
1523627293086,0,122,-56,-1,-1,0
1523627293086,65536,122,-56,-1,-1,0
1523627293086,262144,122,-56,-1,-1,0
1523627293086,327680,122,-56,-1,-1,0
1523627293126,327680,122,-56,-1,-1,0
1523627293126,393216,122,-56,-1,-1,0
1523627293126,524288,122,-56,-1,-1,0
1523627293126,786432,122,-56,-1,-1,0
1523627293126,1048576,122,-56,-1,-1,0
1523627293166,1376256,122,-56,-1,-1,0
1523627293166,1769472,122,-56,-1,-1,0
1523627293166,1900544,122,-56,-1,-1,0
1523627293166,2031616,122,-56,-1,-1,0
1523627293166,1966080,122,-56,-1,-1,0
1523627293206,1835008,122,-56,-1,-1,0
1523627293206,1572864,122,-56,-1,-1,0
1523627293206,1114112,122,-56,-1,-1,0
1523627293206,720896,122,-56,-1,-1,0
1523627293206,458752,122,-56,-1,-1,0
1523627293246,327680,122,-56,-1,-1,0
1523627293246,131072,122,-56,-1,-1,0
1523627293246,0,122,-56,-1,-1,0
1523627293246,0,122,-56,-1,-1,0
1523627293246,0,122,-56,-1,-1,0
1523627293286,0,122,-56,-1,-1,0
1523627293286,-65536,122,-56,-1,-1,0
1523627293286,-131072,122,-56,-1,-1,0
1523627293286,-131072,122,-56,-1,-1,0
1523627293286,0,122,-56,-1,-1,0
1523627293327,0,122,-56,-1,-1,0
1523627293327,0,122,-56,-1,-1,0
1523627293327,0,122,-56,-1,-1,0
1523627293327,65536,122,-56,-1,-1,0
1523627293327,65536,122,-56,-1,-1,0
1523627293366,0,122,-56,-1,-1,0
1523627293366,0,122,-56,-1,-1,0
1523627293366,0,122,-56,-1,-1,0
1523627293366,-65536,122,-56,-1,-1,0
1523627293366,-196608,122,-56,-1,-1,0
1523627293411,-262144,122,-56,-1,-1,0
1523627293411,-262144,122,-56,-1,-1,0
1523627293411,-327680,122,-56,-1,-1,0
1523627293411,-327680,122,-56,-1,-1,0
1523627293411,-327680,122,-56,-1,-1,0
1523627293446,-786432,122,-56,-1,-1,0
1523627293446,-1310720,122,-56,-1,-1,0
1523627293446,-720896,122,-56,-1,-1,0
1523627293446,1769472,122,-56,-1,-1,0
1523627293446,5177344,122,-56,-1,-1,0
1523627293487,5570560,122,-56,-1,-1,0
1523627293487,2359296,122,-56,-1,-1,0
1523627293487,-917504,122,-56,-1,-1,0
1523627293487,-1572864,122,-56,-1,-1,0
1523627293487,-1245184,122,-56,-1,-1,0
1523627293526,-983040,122,-56,-1,-1,0
1523627293526,-917504,122,-56,-1,-1,0
1523627293526,-917504,122,-56,-1,-1,0
1523627293526,-917504,122,-56,-1,-1,0
1523627293526,-917504,122,-56,-1,-1,0
1523627293566,-851968,122,-56,-1,-1,0
1523627293566,-851968,122,-56,-1,-1,0
1523627293566,-851968,122,-56,-1,-1,0
1523627293566,-851968,122,-56,-1,-1,0
1523627293566,-851968,122,-56,-1,-1,0
1523627293606,-786432,122,-56,-1,-1,0
1523627293606,-720896,122,-56,-1,-1,0
1523627293606,-524288,122,-56,-1,-1,0
1523627293606,-327680,122,-56,-1,-1,0
1523627293606,-131072,122,-56,-1,-1,0
1523627293646,65536,122,-56,-1,-1,0
1523627293646,458752,122,-56,-1,-1,0
1523627293646,655360,122,-56,-1,-1,0
1523627293646,851968,122,-56,-1,-1,0
1523627293646,786432,122,-56,-1,-1,0
1523627293686,589824,122,-56,-1,-1,0
1523627293686,196608,122,-56,-1,-1,0
1523627293686,-65536,122,-56,-1,-1,0
1523627293686,-393216,122,-56,-1,-1,0
1523627293686,-655360,122,-56,-1,-1,0
1523627293726,-983040,122,-56,-1,-1,0
1523627293726,-1114112,122,-56,-1,-1,0
1523627293726,-1179648,122,-56,-1,-1,0
1523627293726,-1245184,122,-56,-1,-1,0
1523627293726,-1245184,122,-56,-1,-1,0
1523627293767,-1245184,122,-56,-1,-1,0
1523627293767,-1245184,122,-56,-1,-1,0
1523627293767,-1245184,122,-56,-1,-1,0
1523627293767,-1179648,122,-56,-1,-1,0
1523627293767,-1048576,122,-56,-1,-1,0
1523627293807,-983040,122,-56,-1,-1,0
1523627293807,-983040,122,-56,-1,-1,0
1523627293807,-1048576,122,-56,-1,-1,0
1523627293807,-983040,122,-56,-1,-1,0
1523627293807,-851968,122,-56,-1,-1,0
1523627293846,-851968,122,-56,-1,-1,0
1523627293846,-851968,122,-56,-1,-1,0
1523627293846,-851968,122,-56,-1,-1,0
1523627293846,-917504,122,-56,-1,-1,0
1523627293846,-983040,122,-56,-1,-1,0
1523627293887,-983040,122,-56,-1,-1,0
1523627293887,-983040,122,-56,-1,-1,0
1523627293887,-983040,122,-56,-1,-1,0
1523627293887,-983040,122,-56,-1,-1,0
1523627293887,-1179648,122,-56,-1,-1,0
1523627293927,-1638400,122,-56,-1,-1,0
1523627293927,-1703936,122,-56,-1,-1,0
1523627293927,-393216,122,-56,-1,-1,0
1523627293927,2490368,122,-56,-1,-1,0
1523627293927,4849664,122,-56,-1,-1,0
1523627293967,3538944,122,-56,-1,-1,0
1523627293967,131072,122,-56,-1,-1,0
1523627293967,-1835008,122,-56,-1,-1,0
1523627293967,-1835008,122,-56,-1,-1,0
1523627293967,-1376256,122,-56,-1,-1,0
1523627294006,-1114112,122,-56,-1,-1,0
1523627294006,-1048576,122,-56,-1,-1,0
1523627294006,-1048576,122,-56,-1,-1,0
1523627294006,-983040,122,-56,-1,-1,0
1523627294006,-917504,122,-56,-1,-1,0
1523627294051,-851968,122,-56,-1,-1,0
1523627294051,-851968,122,-56,-1,-1,0
1523627294051,-851968,122,-56,-1,-1,0
1523627294051,-786432,122,-56,-1,-1,0
1523627294051,-589824,122,-56,-1,-1,0
1523627294087,-524288,122,-56,-1,-1,0
1523627294087,-458752,122,-56,-1,-1,0
1523627294087,-327680,122,-56,-1,-1,0
1523627294087,-196608,122,-56,-1,-1,0
1523627294087,65536,122,-56,-1,-1,0
1523627294127,458752,122,-56,-1,-1,0
1523627294127,786432,122,-56,-1,-1,0
1523627294127,983040,122,-56,-1,-1,0
1523627294127,1048576,122,-56,-1,-1,0
1523627294127,983040,122,-56,-1,-1,0
1523627294166,786432,122,-56,-1,-1,0
1523627294166,458752,122,-56,-1,-1,0
1523627294166,131072,122,-56,-1,-1,0
1523627294166,-65536,122,-56,-1,-1,0
1523627294166,-262144,122,-56,-1,-1,0
1523627294207,-393216,122,-56,-1,-1,0
1523627294207,-458752,122,-56,-1,-1,0
1523627294207,-524288,122,-56,-1,-1,0
1523627294207,-589824,122,-56,-1,-1,0
1523627294207,-589824,122,-56,-1,-1,0
1523627294247,-589824,122,-56,-1,-1,0
1523627294247,-589824,122,-56,-1,-1,0
1523627294247,-524288,122,-56,-1,-1,0
1523627294247,-524288,122,-56,-1,-1,0
1523627294247,-458752,122,-56,-1,-1,0
1523627294286,-393216,122,-56,-1,-1,0
1523627294286,-393216,122,-56,-1,-1,0
1523627294286,-458752,122,-56,-1,-1,0
1523627294286,-458752,122,-56,-1,-1,0
1523627294286,-458752,122,-56,-1,-1,0
1523627294326,-524288,122,-56,-1,-1,0
1523627294326,-589824,122,-56,-1,-1,0
1523627294326,-524288,122,-56,-1,-1,0
1523627294326,-524288,122,-56,-1,-1,0
1523627294326,-458752,122,-56,-1,-1,0
1523627294367,-393216,122,-56,-1,-1,0
1523627294367,-393216,122,-56,-1,-1,0
1523627294367,-393216,122,-56,-1,-1,0
1523627294367,-458752,122,-56,-1,-1,0
1523627294367,-589824,122,-56,-1,-1,0
1523627294406,-917504,122,-56,-1,-1,0
1523627294406,-1245184,122,-56,-1,-1,0
1523627294406,-589824,122,-56,-1,-1,0
1523627294406,1769472,122,-56,-1,-1,0
1523627294406,4718592,122,-56,-1,-1,0
1523627294447,4980736,122,-56,-1,-1,0
1523627294447,2228224,122,-56,-1,-1,0
1523627294447,-458752,122,-56,-1,-1,0
1523627294447,-1179648,122,-56,-1,-1,0
1523627294447,-983040,122,-56,-1,-1,0
1523627294486,-851968,122,-56,-1,-1,0
1523627294486,-786432,122,-56,-1,-1,0
1523627294486,-786432,122,-56,-1,-1,0
1523627294486,-720896,122,-56,-1,-1,0
1523627294486,-720896,122,-56,-1,-1,0
1523627294526,-720896,122,-56,-1,-1,0
1523627294526,-720896,122,-56,-1,-1,0
1523627294526,-720896,122,-56,-1,-1,0
1523627294526,-786432,122,-56,-1,-1,0
1523627294526,-720896,122,-56,-1,-1,0
1523627294567,-655360,122,-56,-1,-1,0
1523627294567,-458752,122,-56,-1,-1,0
1523627294567,-393216,122,-56,-1,-1,0
1523627294567,-327680,122,-56,-1,-1,0
1523627294567,-65536,122,-56,-1,-1,0
1523627294607,196608,122,-56,-1,-1,0
1523627294607,524288,122,-56,-1,-1,0
1523627294607,720896,122,-56,-1,-1,0
1523627294607,851968,122,-56,-1,-1,0
1523627294607,851968,122,-56,-1,-1,0
1523627294646,851968,122,-56,-1,-1,0
1523627294646,720896,122,-56,-1,-1,0
1523627294646,393216,122,-56,-1,-1,0
1523627294646,65536,122,-56,-1,-1,0
1523627294646,-196608,122,-56,-1,-1,0
1523627294691,-393216,122,-56,-1,-1,0
1523627294691,-458752,122,-56,-1,-1,0
1523627294691,-524288,122,-56,-1,-1,0
1523627294691,-589824,122,-56,-1,-1,0
1523627294691,-589824,122,-56,-1,-1,0
1523627294726,-458752,122,-56,-1,-1,0
1523627294726,-524288,122,-56,-1,-1,0
1523627294726,-655360,122,-56,-1,-1,0
1523627294726,-589824,122,-56,-1,-1,0
1523627294726,-524288,122,-56,-1,-1,0
1523627294766,-458752,122,-56,-1,-1,0
1523627294766,-458752,122,-56,-1,-1,0
1523627294766,-393216,122,-56,-1,-1,0
1523627294766,-393216,122,-56,-1,-1,0
1523627294766,-393216,122,-56,-1,-1,0
1523627294806,-327680,122,-56,-1,-1,0
1523627294806,-262144,122,-56,-1,-1,0
1523627294806,-262144,122,-56,-1,-1,0
1523627294806,-196608,122,-56,-1,-1,0
1523627294806,-196608,122,-56,-1,-1,0
1523627294847,-262144,122,-56,-1,-1,0
1523627294847,-327680,122,-56,-1,-1,0
1523627294847,-262144,122,-56,-1,-1,0
1523627294847,-262144,122,-56,-1,-1,0
1523627294847,-327680,122,-56,-1,-1,0
1523627294886,-458752,122,-56,-1,-1,0
1523627294886,-786432,122,-56,-1,-1,0
1523627294886,-1048576,122,-56,-1,-1,0
1523627294886,-327680,122,-56,-1,-1,0
1523627294886,2031616,122,-56,-1,-1,0
1523627294927,4718592,122,-56,-1,-1,0
1523627294927,4521984,122,-56,-1,-1,0
1523627294927,1703936,122,-56,-1,-1,0
1523627294927,-655360,122,-56,-1,-1,0
1523627294927,-1048576,122,-56,-1,-1,0
1523627294967,-786432,122,-56,-1,-1,0
1523627294967,-524288,122,-56,-1,-1,0
1523627294967,-393216,122,-56,-1,-1,0
1523627294967,-393216,122,-56,-1,-1,0
1523627294967,-393216,122,-56,-1,-1,0
1523627295007,-393216,122,-56,-1,-1,0
1523627295007,-327680,122,-56,-1,-1,0
1523627295007,-327680,122,-56,-1,-1,0
1523627295007,-327680,122,-56,-1,-1,0
1523627295007,-327680,122,-56,-1,-1,0
1523627295046,-327680,122,-56,-1,-1,0
1523627295046,-196608,122,-56,-1,-1,0
1523627295046,-65536,122,-56,-1,-1,0
1523627295046,0,122,-56,-1,-1,0
1523627295046,196608,122,-56,-1,-1,0
1523627295086,393216,122,-56,-1,-1,0
1523627295086,655360,122,-56,-1,-1,0
1523627295086,983040,122,-56,-1,-1,0
1523627295086,1179648,122,-56,-1,-1,0
1523627295086,1376256,122,-56,-1,-1,0
1523627295127,1376256,122,-56,-1,-1,0
1523627295127,1245184,122,-56,-1,-1,0
1523627295127,1048576,122,-56,-1,-1,0
1523627295127,786432,122,-56,-1,-1,0
1523627295127,393216,122,-56,-1,-1,0
1523627295167,131072,122,-56,-1,-1,0
1523627295167,0,122,-56,-1,-1,0
1523627295167,-131072,122,-56,-1,-1,0
1523627295167,-196608,122,-56,-1,-1,0
1523627295167,-262144,122,-56,-1,-1,0
1523627295207,-393216,122,-56,-1,-1,0
1523627295207,-393216,122,-56,-1,-1,0
1523627295207,-327680,122,-56,-1,-1,0
1523627295207,-262144,122,-56,-1,-1,0
1523627295207,-196608,122,-56,-1,-1,0
1523627295247,-196608,122,-56,-1,-1,0
1523627295247,-196608,122,-56,-1,-1,0
1523627295247,-196608,122,-56,-1,-1,0
1523627295247,-196608,122,-56,-1,-1,0
1523627295247,-262144,122,-56,-1,-1,0
1523627295287,-196608,122,-56,-1,-1,0
1523627295287,-131072,122,-56,-1,-1,0
1523627295287,-131072,122,-56,-1,-1,0
1523627295287,-131072,122,-56,-1,-1,0
1523627295287,-196608,122,-56,-1,-1,0
1523627295331,-262144,122,-56,-1,-1,0
1523627295331,-262144,122,-56,-1,-1,0
1523627295331,-262144,122,-56,-1,-1,0
1523627295331,-262144,122,-56,-1,-1,0
1523627295331,-262144,122,-56,-1,-1,0
1523627295366,-327680,122,-56,-1,-1,0
1523627295366,-458752,122,-56,-1,-1,0
1523627295366,-851968,122,-56,-1,-1,0
1523627295366,-1048576,122,-56,-1,-1,0
1523627295366,-65536,122,-56,-1,-1,0
1523627295407,2490368,122,-56,-1,-1,0
1523627295407,4915200,122,-56,-1,-1,0
1523627295407,4063232,122,-56,-1,-1,0
1523627295407,786432,122,-56,-1,-1,0
1523627295407,-1376256,122,-56,-1,-1,0
1523627295446,-1441792,122,-56,-1,-1,0
1523627295446,-983040,122,-56,-1,-1,0
1523627295446,-655360,122,-56,-1,-1,0
1523627295446,-524288,122,-56,-1,-1,0
1523627295446,-589824,122,-56,-1,-1,0
1523627295486,-589824,122,-56,-1,-1,0
1523627295486,-589824,122,-56,-1,-1,0
1523627295486,-458752,122,-56,-1,-1,0
1523627295486,-327680,122,-56,-1,-1,0
1523627295486,-196608,122,-56,-1,-1,0
1523627295527,-196608,122,-56,-1,-1,0
1523627295527,-262144,122,-56,-1,-1,0
1523627295527,-196608,122,-56,-1,-1,0
1523627295527,0,122,-56,-1,-1,0
1523627295527,65536,122,-56,-1,-1,0
1523627295567,262144,122,-56,-1,-1,0
1523627295567,524288,122,-56,-1,-1,0
1523627295567,917504,122,-56,-1,-1,0
1523627295567,1245184,122,-56,-1,-1,0
1523627295567,1572864,122,-56,-1,-1,0
1523627295607,1638400,122,-56,-1,-1,0
1523627295607,1507328,122,-56,-1,-1,0
1523627295607,1376256,122,-56,-1,-1,0
1523627295607,1114112,122,-56,-1,-1,0
1523627295607,720896,122,-56,-1,-1,0
1523627295647,327680,122,-56,-1,-1,0
1523627295647,65536,122,-56,-1,-1,0
1523627295647,0,122,-56,-1,-1,0
1523627295647,-131072,122,-56,-1,-1,0
1523627295647,-262144,122,-56,-1,-1,0
1523627295687,-327680,122,-56,-1,-1,0
1523627295687,-393216,122,-56,-1,-1,0
1523627295687,-458752,122,-56,-1,-1,0
1523627295687,-393216,122,-56,-1,-1,0
1523627295687,-327680,122,-56,-1,-1,0
1523627295727,-327680,122,-56,-1,-1,0
1523627295727,-327680,122,-56,-1,-1,0
1523627295727,-262144,122,-56,-1,-1,0
1523627295727,-262144,122,-56,-1,-1,0
1523627295727,-262144,122,-56,-1,-1,0
1523627295767,-196608,122,-56,-1,-1,0
1523627295767,-196608,122,-56,-1,-1,0
1523627295767,-131072,122,-56,-1,-1,0
1523627295767,-196608,122,-56,-1,-1,0
1523627295767,-262144,122,-56,-1,-1,0
1523627295807,-262144,122,-56,-1,-1,0
1523627295807,-262144,122,-56,-1,-1,0
1523627295807,-196608,122,-56,-1,-1,0
1523627295807,-327680,122,-56,-1,-1,0
1523627295807,-458752,122,-56,-1,-1,0
1523627295847,-458752,122,-56,-1,-1,0
1523627295847,-524288,122,-56,-1,-1,0
1523627295847,-786432,122,-56,-1,-1,0
1523627295847,-1179648,122,-56,-1,-1,0
1523627295847,-786432,122,-56,-1,-1,0
1523627295887,1441792,122,-56,-1,-1,0
1523627295887,4521984,122,-56,-1,-1,0
1523627295887,5046272,122,-56,-1,-1,0
1523627295887,2097152,122,-56,-1,-1,0
1523627295887,-983040,122,-56,-1,-1,0
1523627295926,-1638400,122,-56,-1,-1,0
1523627295926,-1310720,122,-56,-1,-1,0
1523627295926,-983040,122,-56,-1,-1,0
1523627295926,-786432,122,-56,-1,-1,0
1523627295926,-655360,122,-56,-1,-1,0
1523627295972,-786432,122,-56,-1,-1,0
1523627295972,-851968,122,-56,-1,-1,0
1523627295972,-720896,122,-56,-1,-1,0
1523627295972,-589824,122,-56,-1,-1,0
1523627295972,-655360,122,-56,-1,-1,0
1523627296007,-589824,122,-56,-1,-1,0
1523627296007,-458752,122,-56,-1,-1,0
1523627296007,-393216,122,-56,-1,-1,0
1523627296007,-327680,122,-56,-1,-1,0
1523627296007,-131072,122,-56,-1,-1,0
1523627296047,65536,122,-56,-1,-1,0
1523627296047,327680,122,-56,-1,-1,0
1523627296047,655360,122,-56,-1,-1,0
1523627296047,1048576,122,-56,-1,-1,0
1523627296047,1376256,122,-56,-1,-1,0
1523627296087,1507328,122,-56,-1,-1,0
1523627296087,1507328,122,-56,-1,-1,0
1523627296087,1376256,122,-56,-1,-1,0
1523627296087,1048576,122,-56,-1,-1,0
1523627296087,720896,122,-56,-1,-1,0
1523627296127,327680,122,-56,-1,-1,0
1523627296127,0,122,-56,-1,-1,0
1523627296127,-131072,122,-56,-1,-1,0
1523627296127,-327680,122,-56,-1,-1,0
1523627296127,-393216,122,-56,-1,-1,0
1523627296167,-393216,122,-56,-1,-1,0
1523627296167,-393216,122,-56,-1,-1,0
1523627296167,-524288,122,-56,-1,-1,0
1523627296167,-524288,122,-56,-1,-1,0
1523627296167,-524288,122,-56,-1,-1,0
1523627296207,-524288,122,-56,-1,-1,0
1523627296207,-458752,122,-56,-1,-1,0
1523627296207,-262144,122,-56,-1,-1,0
1523627296207,-262144,122,-56,-1,-1,0
1523627296207,-262144,122,-56,-1,-1,0
1523627296247,-131072,122,-56,-1,-1,0
1523627296247,0,122,-56,-1,-1,0
1523627296247,0,122,-56,-1,-1,0
1523627296247,-65536,122,-56,-1,-1,0
1523627296247,-131072,122,-56,-1,-1,0
1523627296287,-131072,122,-56,-1,-1,0
1523627296287,-196608,122,-56,-1,-1,0
1523627296287,-196608,122,-56,-1,-1,0
1523627296287,-262144,122,-56,-1,-1,0
1523627296287,-327680,122,-56,-1,-1,0
1523627296326,-327680,122,-56,-1,-1,0
1523627296326,-458752,122,-56,-1,-1,0
1523627296326,-851968,122,-56,-1,-1,0
1523627296326,-1179648,122,-56,-1,-1,0
1523627296326,-393216,122,-56,-1,-1,0
1523627296367,2293760,122,-56,-1,-1,0
1523627296367,5505024,122,-56,-1,-1,0
1523627296367,5373952,122,-56,-1,-1,0
1523627296367,1900544,122,-56,-1,-1,0
1523627296367,-1114112,122,-56,-1,-1,0
1523627296407,-1572864,122,-56,-1,-1,0
1523627296407,-1179648,122,-56,-1,-1,0
1523627296407,-851968,122,-56,-1,-1,0
1523627296407,-720896,122,-56,-1,-1,0
1523627296407,-720896,122,-56,-1,-1,0
1523627296447,-655360,122,-56,-1,-1,0
1523627296447,-655360,122,-56,-1,-1,0
1523627296447,-589824,122,-56,-1,-1,0
1523627296447,-524288,122,-56,-1,-1,0
1523627296447,-458752,122,-56,-1,-1,0
1523627296487,-458752,122,-56,-1,-1,0
1523627296487,-327680,122,-56,-1,-1,0
1523627296487,-262144,122,-56,-1,-1,0
1523627296487,-196608,122,-56,-1,-1,0
1523627296487,0,122,-56,-1,-1,0
1523627296527,131072,122,-56,-1,-1,0
1523627296527,524288,122,-56,-1,-1,0
1523627296527,851968,122,-56,-1,-1,0
1523627296527,1245184,122,-56,-1,-1,0
1523627296527,1507328,122,-56,-1,-1,0
1523627296567,1572864,122,-56,-1,-1,0
1523627296567,1572864,122,-56,-1,-1,0
1523627296567,1376256,122,-56,-1,-1,0
1523627296567,983040,122,-56,-1,-1,0
1523627296567,524288,122,-56,-1,-1,0
1523627296612,65536,122,-56,-1,-1,0
1523627296612,-65536,122,-56,-1,-1,0
1523627296612,-196608,122,-56,-1,-1,0
1523627296612,-393216,122,-56,-1,-1,0
1523627296612,-524288,122,-56,-1,-1,0
1523627296647,-524288,122,-56,-1,-1,0
1523627296647,-524288,122,-56,-1,-1,0
1523627296647,-458752,122,-56,-1,-1,0
1523627296647,-458752,122,-56,-1,-1,0
1523627296647,-458752,122,-56,-1,-1,0
1523627296687,-458752,122,-56,-1,-1,0
1523627296687,-458752,122,-56,-1,-1,0
1523627296687,-393216,122,-56,-1,-1,0
1523627296687,-327680,122,-56,-1,-1,0
1523627296687,-393216,122,-56,-1,-1,0
1523627296727,-393216,122,-56,-1,-1,0
1523627296727,-262144,122,-56,-1,-1,0
1523627296727,-262144,122,-56,-1,-1,0
1523627296727,-327680,122,-56,-1,-1,0
1523627296727,-327680,122,-56,-1,-1,0
1523627296767,-262144,122,-56,-1,-1,0
1523627296767,-327680,122,-56,-1,-1,0
1523627296767,-327680,122,-56,-1,-1,0
1523627296767,-393216,122,-56,-1,-1,0
1523627296767,-458752,122,-56,-1,-1,0
1523627296808,-589824,122,-56,-1,-1,0
1523627296808,-655360,122,-56,-1,-1,0
1523627296808,-851968,122,-56,-1,-1,0
1523627296808,-1310720,122,-56,-1,-1,0
1523627296808,-1310720,122,-56,-1,-1,0
1523627296846,458752,122,-56,-1,-1,0
1523627296846,3932160,122,-56,-1,-1,0
1523627296846,6094848,122,-56,-1,-1,0
1523627296846,3932160,122,-56,-1,-1,0
1523627296846,131072,122,-56,-1,-1,0
1523627296886,-1507328,122,-56,-1,-1,0
1523627296886,-1376256,122,-56,-1,-1,0
1523627296886,-1048576,122,-56,-1,-1,0
1523627296886,-917504,122,-56,-1,-1,0
1523627296886,-786432,122,-56,-1,-1,0
1523627296926,-786432,122,-56,-1,-1,0
1523627296926,-720896,122,-56,-1,-1,0
1523627296926,-720896,122,-56,-1,-1,0
1523627296926,-720896,122,-56,-1,-1,0
1523627296926,-720896,122,-56,-1,-1,0
1523627296966,-524288,122,-56,-1,-1,0
1523627296966,-458752,122,-56,-1,-1,0
1523627296966,-393216,122,-56,-1,-1,0
1523627296966,-393216,122,-56,-1,-1,0
1523627296966,-196608,122,-56,-1,-1,0
1523627297006,-65536,122,-56,-1,-1,0
1523627297006,131072,122,-56,-1,-1,0
1523627297006,458752,122,-56,-1,-1,0
1523627297006,917504,122,-56,-1,-1,0
1523627297006,1245184,122,-56,-1,-1,0
1523627297046,1441792,122,-56,-1,-1,0
1523627297046,1441792,122,-56,-1,-1,0
1523627297046,1376256,122,-56,-1,-1,0
1523627297046,1114112,122,-56,-1,-1,0
1523627297046,720896,122,-56,-1,-1,0
1523627297086,327680,122,-56,-1,-1,0
1523627297086,0,122,-56,-1,-1,0
1523627297086,-262144,122,-56,-1,-1,0
1523627297086,-458752,122,-56,-1,-1,0
1523627297086,-524288,122,-56,-1,-1,0
1523627297126,-589824,122,-56,-1,-1,0
1523627297126,-655360,122,-56,-1,-1,0
1523627297126,-720896,122,-56,-1,-1,0
1523627297126,-786432,122,-56,-1,-1,0
1523627297126,-786432,122,-56,-1,-1,0
1523627297166,-720896,122,-56,-1,-1,0
1523627297166,-720896,122,-56,-1,-1,0
1523627297166,-655360,122,-56,-1,-1,0
1523627297166,-589824,122,-56,-1,-1,0
1523627297166,-524288,122,-56,-1,-1,0
1523627297206,-524288,122,-56,-1,-1,0
1523627297206,-524288,122,-56,-1,-1,0
1523627297206,-393216,122,-56,-1,-1,0
1523627297206,-458752,122,-56,-1,-1,0
1523627297206,-524288,122,-56,-1,-1,0
1523627297251,-524288,122,-56,-1,-1,0
1523627297251,-524288,122,-56,-1,-1,0
1523627297251,-524288,122,-56,-1,-1,0
1523627297251,-589824,122,-56,-1,-1,0
1523627297251,-655360,122,-56,-1,-1,0
1523627297288,-720896,122,-56,-1,-1,0
1523627297288,-720896,122,-56,-1,-1,0
1523627297288,-851968,122,-56,-1,-1,0
1523627297288,-1310720,122,-56,-1,-1,0
1523627297288,-1507328,122,-56,-1,-1,0
1523627297326,-458752,122,-56,-1,-1,0
1523627297326,2424832,122,-56,-1,-1,0
1523627297326,5373952,122,-56,-1,-1,0
1523627297326,4718592,122,-56,-1,-1,0
1523627297326,1245184,122,-56,-1,-1,0
1523627297366,-1376256,122,-56,-1,-1,0
1523627297366,-1638400,122,-56,-1,-1,0
1523627297366,-1310720,122,-56,-1,-1,0
1523627297366,-1114112,122,-56,-1,-1,0
1523627297366,-983040,122,-56,-1,-1,0
1523627297406,-983040,122,-56,-1,-1,0
1523627297406,-917504,122,-56,-1,-1,0
1523627297406,-851968,122,-56,-1,-1,0
1523627297406,-851968,122,-56,-1,-1,0
1523627297406,-786432,122,-56,-1,-1,0
1523627297446,-720896,122,-56,-1,-1,0
1523627297446,-720896,122,-56,-1,-1,0
1523627297446,-589824,122,-56,-1,-1,0
1523627297446,-524288,122,-56,-1,-1,0
1523627297446,-393216,122,-56,-1,-1,0
1523627297486,-196608,122,-56,-1,-1,0
1523627297486,0,122,-56,-1,-1,0
1523627297486,262144,122,-56,-1,-1,0
1523627297486,589824,122,-56,-1,-1,0
1523627297486,917504,122,-56,-1,-1,0
1523627297526,1114112,122,-56,-1,-1,0
1523627297526,1245184,122,-56,-1,-1,0
1523627297526,1245184,122,-56,-1,-1,0
1523627297526,1048576,122,-56,-1,-1,0
1523627297526,720896,122,-56,-1,-1,0
1523627297566,393216,122,-56,-1,-1,0
1523627297566,65536,122,-56,-1,-1,0
1523627297566,-131072,122,-56,-1,-1,0
1523627297566,-393216,122,-56,-1,-1,0
1523627297566,-524288,122,-56,-1,-1,0
1523627297606,-589824,122,-56,-1,-1,0
1523627297606,-655360,122,-56,-1,-1,0
1523627297606,-720896,122,-56,-1,-1,0
1523627297606,-786432,122,-56,-1,-1,0
1523627297606,-786432,122,-56,-1,-1,0
1523627297646,-720896,122,-56,-1,-1,0
1523627297646,-589824,122,-56,-1,-1,0
1523627297646,-589824,122,-56,-1,-1,0
1523627297646,-655360,122,-56,-1,-1,0
1523627297646,-589824,122,-56,-1,-1,0
1523627297686,-524288,122,-56,-1,-1,0
1523627297686,-524288,122,-56,-1,-1,0
1523627297686,-524288,122,-56,-1,-1,0
1523627297686,-524288,122,-56,-1,-1,0
1523627297686,-458752,122,-56,-1,-1,0
1523627297726,-327680,122,-56,-1,-1,0
1523627297726,-327680,122,-56,-1,-1,0
1523627297726,-393216,122,-56,-1,-1,0
1523627297726,-458752,122,-56,-1,-1,0
1523627297726,-524288,122,-56,-1,-1,0
1523627297766,-524288,122,-56,-1,-1,0
1523627297766,-524288,122,-56,-1,-1,0
1523627297766,-524288,122,-56,-1,-1,0
1523627297766,-589824,122,-56,-1,-1,0
1523627297766,-983040,122,-56,-1,-1,0
1523627297806,-1179648,122,-56,-1,-1,0
1523627297806,-196608,122,-56,-1,-1,0
1523627297806,2490368,122,-56,-1,-1,0
1523627297806,5308416,122,-56,-1,-1,0
1523627297806,4587520,122,-56,-1,-1,0
1523627297846,1245184,122,-56,-1,-1,0
1523627297846,-1179648,122,-56,-1,-1,0
1523627297846,-1376256,122,-56,-1,-1,0
1523627297846,-917504,122,-56,-1,-1,0
1523627297846,-720896,122,-56,-1,-1,0
1523627297891,-589824,122,-56,-1,-1,0
1523627297891,-524288,122,-56,-1,-1,0
1523627297891,-458752,122,-56,-1,-1,0
1523627297891,-393216,122,-56,-1,-1,0
1523627297891,-327680,122,-56,-1,-1,0
1523627297926,-262144,122,-56,-1,-1,0
1523627297926,-196608,122,-56,-1,-1,0
1523627297926,-131072,122,-56,-1,-1,0
1523627297926,0,122,-56,-1,-1,0
1523627297926,0,122,-56,-1,-1,0
1523627297966,131072,122,-56,-1,-1,0
1523627297966,196608,122,-56,-1,-1,0
1523627297966,458752,122,-56,-1,-1,0
1523627297966,851968,122,-56,-1,-1,0
1523627297966,1179648,122,-56,-1,-1,0
1523627298006,1507328,122,-56,-1,-1,0
1523627298006,1703936,122,-56,-1,-1,0
1523627298006,1900544,122,-56,-1,-1,0
1523627298006,1900544,122,-56,-1,-1,0
1523627298006,1703936,122,-56,-1,-1,0
1523627298046,1376256,122,-56,-1,-1,0
1523627298046,1048576,122,-56,-1,-1,0
1523627298046,720896,122,-56,-1,-1,0
1523627298046,393216,122,-56,-1,-1,0
1523627298046,131072,122,-56,-1,-1,0
1523627298086,65536,122,-56,-1,-1,0
1523627298086,0,122,-56,-1,-1,0
1523627298086,0,122,-56,-1,-1,0
1523627298086,-65536,122,-56,-1,-1,0
1523627298086,-65536,122,-56,-1,-1,0
1523627298126,0,122,-56,-1,-1,0
1523627298126,0,122,-56,-1,-1,0
1523627298126,0,122,-56,-1,-1,0
1523627298126,0,122,-56,-1,-1,0
1523627298126,0,122,-56,-1,-1,0
1523627298166,65536,122,-56,-1,-1,0
1523627298166,65536,122,-56,-1,-1,0
1523627298166,65536,122,-56,-1,-1,0
1523627298166,65536,122,-56,-1,-1,0
1523627298166,0,122,-56,-1,-1,0
1523627298206,0,122,-56,-1,-1,0
1523627298206,0,122,-56,-1,-1,0
1523627298206,0,122,-56,-1,-1,0
1523627298206,0,122,-56,-1,-1,0
1523627298206,0,122,-56,-1,-1,0
1523627298246,0,122,-56,-1,-1,0
1523627298246,0,122,-56,-1,-1,0
1523627298246,0,122,-56,-1,-1,0
1523627298246,0,122,-56,-1,-1,0
1523627298246,0,122,-56,-1,-1,0
1523627298286,0,122,-56,-1,-1,0
1523627298286,-131072,122,-56,-1,-1,0
1523627298286,-589824,122,-56,-1,-1,0
1523627298286,-786432,122,-56,-1,-1,0
1523627298286,327680,122,-56,-1,-1,0
1523627298326,3211264,122,-56,-1,-1,0
1523627298326,5767168,122,-56,-1,-1,0
1523627298326,4915200,122,-56,-1,-1,0
1523627298326,1769472,122,-56,-1,-1,0
1523627298326,-327680,122,-56,-1,-1,0
1523627298366,-720896,122,-56,-1,-1,0
1523627298366,-524288,122,-56,-1,-1,0
1523627298366,-327680,122,-56,-1,-1,0
1523627298366,-262144,122,-56,-1,-1,0
1523627298366,-262144,122,-56,-1,-1,0
1523627298408,-262144,122,-56,-1,-1,0
1523627298408,-327680,122,-56,-1,-1,0
1523627298408,-196608,122,-56,-1,-1,0
1523627298408,-196608,122,-56,-1,-1,0
1523627298408,-196608,122,-56,-1,-1,0
1523627298446,-196608,122,-56,-1,-1,0
1523627298446,-131072,122,-56,-1,-1,0
1523627298446,-65536,122,-56,-1,-1,0
1523627298446,0,122,-56,-1,-1,0
1523627298446,65536,122,-56,-1,-1,0
1523627298486,262144,122,-56,-1,-1,0
1523627298486,524288,122,-56,-1,-1,0
1523627298486,786432,122,-56,-1,-1,0
1523627298486,1114112,122,-56,-1,-1,0
1523627298486,1441792,122,-56,-1,-1,0
1523627298531,1507328,122,-56,-1,-1,0
1523627298531,1507328,122,-56,-1,-1,0
1523627298531,1376256,122,-56,-1,-1,0
1523627298531,1179648,122,-56,-1,-1,0
1523627298531,917504,122,-56,-1,-1,0
1523627298566,524288,122,-56,-1,-1,0
1523627298566,65536,122,-56,-1,-1,0
1523627298566,-131072,122,-56,-1,-1,0
1523627298566,-131072,122,-56,-1,-1,0
1523627298566,-196608,122,-56,-1,-1,0
1523627298606,-262144,122,-56,-1,-1,0
1523627298606,-327680,122,-56,-1,-1,0
1523627298606,-393216,122,-56,-1,-1,0
1523627298606,-393216,122,-56,-1,-1,0
1523627298606,-393216,122,-56,-1,-1,0
1523627298646,-393216,122,-56,-1,-1,0
1523627298646,-327680,122,-56,-1,-1,0
1523627298646,-327680,122,-56,-1,-1,0
1523627298646,-327680,122,-56,-1,-1,0
1523627298646,-327680,122,-56,-1,-1,0
1523627298686,-262144,122,-56,-1,-1,0
1523627298686,-262144,122,-56,-1,-1,0
1523627298686,-327680,122,-56,-1,-1,0
1523627298686,-393216,122,-56,-1,-1,0
1523627298686,-393216,122,-56,-1,-1,0
1523627298726,-393216,122,-56,-1,-1,0
1523627298726,-393216,122,-56,-1,-1,0
1523627298726,-393216,122,-56,-1,-1,0
1523627298726,-393216,122,-56,-1,-1,0
1523627298726,-393216,122,-56,-1,-1,0
1523627298766,-393216,122,-56,-1,-1,0
1523627298766,-458752,122,-56,-1,-1,0
1523627298766,-458752,122,-56,-1,-1,0
1523627298766,-458752,122,-56,-1,-1,0
1523627298766,-458752,122,-56,-1,-1,0
1523627298806,-589824,122,-56,-1,-1,0
1523627298806,-851968,122,-56,-1,-1,0
1523627298806,-1245184,122,-56,-1,-1,0
1523627298806,-917504,122,-56,-1,-1,0
1523627298806,786432,122,-56,-1,-1,0
1523627298846,3538944,122,-56,-1,-1,0
1523627298846,4325376,122,-56,-1,-1,0
1523627298846,2097152,122,-56,-1,-1,0
1523627298846,-655360,122,-56,-1,-1,0
1523627298846,-1507328,122,-56,-1,-1,0
1523627298886,-1376256,122,-56,-1,-1,0
1523627298886,-1048576,122,-56,-1,-1,0
1523627298886,-851968,122,-56,-1,-1,0
1523627298886,-851968,122,-56,-1,-1,0
1523627298886,-917504,122,-56,-1,-1,0
1523627298926,-983040,122,-56,-1,-1,0
1523627298926,-983040,122,-56,-1,-1,0
1523627298926,-917504,122,-56,-1,-1,0
1523627298926,-786432,122,-56,-1,-1,0
1523627298926,-720896,122,-56,-1,-1,0
1523627298966,-720896,122,-56,-1,-1,0
1523627298966,-720896,122,-56,-1,-1,0
1523627298966,-655360,122,-56,-1,-1,0
1523627298966,-458752,122,-56,-1,-1,0
1523627298966,-262144,122,-56,-1,-1,0
1523627299006,0,122,-56,-1,-1,0
1523627299006,196608,122,-56,-1,-1,0
1523627299006,589824,122,-56,-1,-1,0
1523627299006,851968,122,-56,-1,-1,0
1523627299006,1048576,122,-56,-1,-1,0
1523627299046,1048576,122,-56,-1,-1,0
1523627299046,983040,122,-56,-1,-1,0
1523627299046,720896,122,-56,-1,-1,0
1523627299046,393216,122,-56,-1,-1,0
1523627299046,65536,122,-56,-1,-1,0
1523627299086,-131072,122,-56,-1,-1,0
1523627299086,-393216,122,-56,-1,-1,0
1523627299086,-524288,122,-56,-1,-1,0
1523627299086,-655360,122,-56,-1,-1,0
1523627299086,-851968,122,-56,-1,-1,0
1523627299126,-917504,122,-56,-1,-1,0
1523627299126,-917504,122,-56,-1,-1,0
1523627299126,-917504,122,-56,-1,-1,0
1523627299126,-917504,122,-56,-1,-1,0
1523627299126,-917504,122,-56,-1,-1,0
1523627299171,-851968,122,-56,-1,-1,0
1523627299171,-786432,122,-56,-1,-1,0
1523627299171,-851968,122,-56,-1,-1,0
1523627299171,-786432,122,-56,-1,-1,0
1523627299171,-720896,122,-56,-1,-1,0
1523627299206,-655360,122,-56,-1,-1,0
1523627299206,-589824,122,-56,-1,-1,0
1523627299206,-524288,122,-56,-1,-1,0
1523627299206,-524288,122,-56,-1,-1,0
1523627299206,-524288,122,-56,-1,-1,0
1523627299246,-524288,122,-56,-1,-1,0
1523627299246,-589824,122,-56,-1,-1,0
1523627299246,-589824,122,-56,-1,-1,0
1523627299246,-589824,122,-56,-1,-1,0
1523627299246,-655360,122,-56,-1,-1,0
1523627299286,-655360,122,-56,-1,-1,0
1523627299286,-655360,122,-56,-1,-1,0
1523627299286,-655360,122,-56,-1,-1,0
1523627299286,-655360,122,-56,-1,-1,0
1523627299286,-851968,122,-56,-1,-1,0
1523627299326,-1179648,122,-56,-1,-1,0
1523627299326,-786432,122,-56,-1,-1,0
1523627299326,1048576,122,-56,-1,-1,0
1523627299326,3866624,122,-56,-1,-1,0
1523627299326,4390912,122,-56,-1,-1,0
1523627299366,1703936,122,-56,-1,-1,0
1523627299366,-1048576,122,-56,-1,-1,0
1523627299366,-1769472,122,-56,-1,-1,0
1523627299366,-1441792,122,-56,-1,-1,0
1523627299366,-1114112,122,-56,-1,-1,0
1523627299406,-917504,122,-56,-1,-1,0
1523627299406,-786432,122,-56,-1,-1,0
1523627299406,-655360,122,-56,-1,-1,0
1523627299406,-720896,122,-56,-1,-1,0
1523627299406,-720896,122,-56,-1,-1,0
1523627299446,-720896,122,-56,-1,-1,0
1523627299446,-589824,122,-56,-1,-1,0
1523627299446,-524288,122,-56,-1,-1,0
1523627299446,-393216,122,-56,-1,-1,0
1523627299446,-327680,122,-56,-1,-1,0
1523627299486,-196608,122,-56,-1,-1,0
1523627299486,0,122,-56,-1,-1,0
1523627299486,196608,122,-56,-1,-1,0
1523627299486,458752,122,-56,-1,-1,0
1523627299486,786432,122,-56,-1,-1,0
1523627299526,1114112,122,-56,-1,-1,0
1523627299526,1376256,122,-56,-1,-1,0
1523627299526,1572864,122,-56,-1,-1,0
1523627299526,1507328,122,-56,-1,-1,0
1523627299526,1376256,122,-56,-1,-1,0
1523627299566,1114112,122,-56,-1,-1,0
1523627299566,786432,122,-56,-1,-1,0
1523627299566,393216,122,-56,-1,-1,0
1523627299566,65536,122,-56,-1,-1,0
1523627299566,-131072,122,-56,-1,-1,0
1523627299606,-262144,122,-56,-1,-1,0
1523627299606,-393216,122,-56,-1,-1,0
1523627299606,-458752,122,-56,-1,-1,0
1523627299606,-524288,122,-56,-1,-1,0
1523627299606,-524288,122,-56,-1,-1,0
1523627299648,-458752,122,-56,-1,-1,0
1523627299648,-458752,122,-56,-1,-1,0
1523627299648,-458752,122,-56,-1,-1,0
1523627299648,-458752,122,-56,-1,-1,0
1523627299648,-393216,122,-56,-1,-1,0
1523627299686,-327680,122,-56,-1,-1,0
1523627299686,-327680,122,-56,-1,-1,0
1523627299686,-327680,122,-56,-1,-1,0
1523627299686,-327680,122,-56,-1,-1,0
1523627299686,-327680,122,-56,-1,-1,0
1523627299726,-327680,122,-56,-1,-1,0
1523627299726,-327680,122,-56,-1,-1,0
1523627299726,-327680,122,-56,-1,-1,0
1523627299726,-393216,122,-56,-1,-1,0
1523627299726,-458752,122,-56,-1,-1,0
1523627299766,-458752,122,-56,-1,-1,0
1523627299766,-458752,122,-56,-1,-1,0
1523627299766,-458752,122,-56,-1,-1,0
1523627299766,-524288,122,-56,-1,-1,0
1523627299766,-589824,122,-56,-1,-1,0
1523627299811,-524288,122,-56,-1,-1,0
1523627299811,-524288,122,-56,-1,-1,0
1523627299811,-851968,122,-56,-1,-1,0
1523627299811,-1179648,122,-56,-1,-1,0
1523627299811,-655360,122,-56,-1,-1,0
1523627299846,1572864,122,-56,-1,-1,0
1523627299846,4390912,122,-56,-1,-1,0
1523627299846,4456448,122,-56,-1,-1,0
1523627299846,1572864,122,-56,-1,-1,0
1523627299846,-1048576,122,-56,-1,-1,0
1523627299886,-1507328,122,-56,-1,-1,0
1523627299886,-1179648,122,-56,-1,-1,0
1523627299886,-851968,122,-56,-1,-1,0
1523627299886,-720896,122,-56,-1,-1,0
1523627299886,-720896,122,-56,-1,-1,0
1523627299926,-589824,122,-56,-1,-1,0
1523627299926,-589824,122,-56,-1,-1,0
1523627299926,-589824,122,-56,-1,-1,0
1523627299926,-589824,122,-56,-1,-1,0
1523627299926,-458752,122,-56,-1,-1,0
1523627299966,-393216,122,-56,-1,-1,0
1523627299966,-393216,122,-56,-1,-1,0
1523627299966,-262144,122,-56,-1,-1,0
1523627299966,-65536,122,-56,-1,-1,0
1523627299966,131072,122,-56,-1,-1,0
1523627300006,262144,122,-56,-1,-1,0
1523627300006,458752,122,-56,-1,-1,0
1523627300006,720896,122,-56,-1,-1,0
1523627300006,1114112,122,-56,-1,-1,0
1523627300006,1376256,122,-56,-1,-1,0
1523627300046,1638400,122,-56,-1,-1,0
1523627300046,1572864,122,-56,-1,-1,0
1523627300046,1376256,122,-56,-1,-1,0
1523627300046,1048576,122,-56,-1,-1,0
1523627300046,655360,122,-56,-1,-1,0
1523627300086,327680,122,-56,-1,-1,0
1523627300086,65536,122,-56,-1,-1,0
1523627300086,-131072,122,-56,-1,-1,0
1523627300086,-262144,122,-56,-1,-1,0
1523627300086,-327680,122,-56,-1,-1,0
1523627300126,-327680,122,-56,-1,-1,0
1523627300126,-327680,122,-56,-1,-1,0
1523627300126,-393216,122,-56,-1,-1,0
1523627300126,-327680,122,-56,-1,-1,0
1523627300126,-327680,122,-56,-1,-1,0
1523627300166,-327680,122,-56,-1,-1,0
1523627300166,-327680,122,-56,-1,-1,0
1523627300166,-327680,122,-56,-1,-1,0
1523627300166,-327680,122,-56,-1,-1,0
1523627300166,-327680,122,-56,-1,-1,0
1523627300206,-196608,122,-56,-1,-1,0
1523627300206,-196608,122,-56,-1,-1,0
1523627300206,-262144,122,-56,-1,-1,0
1523627300206,-393216,122,-56,-1,-1,0
1523627300206,-327680,122,-56,-1,-1,0
1523627300246,-327680,122,-56,-1,-1,0
1523627300246,-327680,122,-56,-1,-1,0
1523627300246,-327680,122,-56,-1,-1,0
1523627300246,-196608,122,-56,-1,-1,0
1523627300246,-131072,122,-56,-1,-1,0
1523627300286,-196608,122,-56,-1,-1,0
1523627300286,-327680,122,-56,-1,-1,0
1523627300286,-393216,122,-56,-1,-1,0
1523627300286,-327680,122,-56,-1,-1,0
1523627300286,-327680,122,-56,-1,-1,0
1523627300326,-393216,122,-56,-1,-1,0
1523627300326,-786432,122,-56,-1,-1,0
1523627300326,-1048576,122,-56,-1,-1,0
1523627300326,-131072,122,-56,-1,-1,0
1523627300326,2490368,122,-56,-1,-1,0
1523627300366,5177344,122,-56,-1,-1,0
1523627300366,4784128,122,-56,-1,-1,0
1523627300366,1835008,122,-56,-1,-1,0
1523627300366,-458752,122,-56,-1,-1,0
1523627300366,-851968,122,-56,-1,-1,0
1523627300406,-655360,122,-56,-1,-1,0
1523627300406,-458752,122,-56,-1,-1,0
1523627300406,-458752,122,-56,-1,-1,0
1523627300406,-458752,122,-56,-1,-1,0
1523627300406,-327680,122,-56,-1,-1,0
1523627300451,-196608,122,-56,-1,-1,0
1523627300451,-131072,122,-56,-1,-1,0
1523627300451,-196608,122,-56,-1,-1,0
1523627300451,-262144,122,-56,-1,-1,0
1523627300451,-262144,122,-56,-1,-1,0
1523627300486,-131072,122,-56,-1,-1,0
1523627300486,-65536,122,-56,-1,-1,0
1523627300486,0,122,-56,-1,-1,0
1523627300486,196608,122,-56,-1,-1,0
1523627300486,458752,122,-56,-1,-1,0
1523627300528,720896,122,-56,-1,-1,0
1523627300528,1048576,122,-56,-1,-1,0
1523627300528,1310720,122,-56,-1,-1,0
1523627300528,1441792,122,-56,-1,-1,0
1523627300528,1507328,122,-56,-1,-1,0
1523627300566,1572864,122,-56,-1,-1,0
1523627300566,1441792,122,-56,-1,-1,0
1523627300566,1179648,122,-56,-1,-1,0
1523627300566,917504,122,-56,-1,-1,0
1523627300566,589824,122,-56,-1,-1,0
1523627300606,393216,122,-56,-1,-1,0
1523627300606,196608,122,-56,-1,-1,0
1523627300606,65536,122,-56,-1,-1,0
1523627300606,0,122,-56,-1,-1,0
1523627300606,-65536,122,-56,-1,-1,0
1523627300646,-196608,122,-56,-1,-1,0
1523627300646,-196608,122,-56,-1,-1,0
1523627300646,-196608,122,-56,-1,-1,0
1523627300646,-131072,122,-56,-1,-1,0
1523627300646,-196608,122,-56,-1,-1,0
1523627300686,-196608,122,-56,-1,-1,0
1523627300686,-262144,122,-56,-1,-1,0
1523627300686,-196608,122,-56,-1,-1,0
1523627300686,-131072,122,-56,-1,-1,0
1523627300686,-131072,122,-56,-1,-1,0
1523627300726,-131072,122,-56,-1,-1,0
1523627300726,-196608,122,-56,-1,-1,0
1523627300726,-262144,122,-56,-1,-1,0
1523627300726,-262144,122,-56,-1,-1,0
1523627300726,-327680,122,-56,-1,-1,0
1523627300766,-327680,122,-56,-1,-1,0
1523627300766,-327680,122,-56,-1,-1,0
1523627300766,-327680,122,-56,-1,-1,0
1523627300766,-262144,122,-56,-1,-1,0
1523627300766,-327680,122,-56,-1,-1,0
1523627300806,-327680,122,-56,-1,-1,0
1523627300806,-393216,122,-56,-1,-1,0
1523627300806,-458752,122,-56,-1,-1,0
1523627300806,-458752,122,-56,-1,-1,0
1523627300806,-458752,122,-56,-1,-1,0
1523627300847,-589824,122,-56,-1,-1,0
1523627300847,-983040,122,-56,-1,-1,0
1523627300847,-1114112,122,-56,-1,-1,0
1523627300847,0,122,-56,-1,-1,0
1523627300847,2424832,122,-56,-1,-1,0
1523627300886,4456448,122,-56,-1,-1,0
1523627300886,3342336,122,-56,-1,-1,0
1523627300886,458752,122,-56,-1,-1,0
1523627300886,-1310720,122,-56,-1,-1,0
1523627300886,-1376256,122,-56,-1,-1,0
1523627300927,-1048576,122,-56,-1,-1,0
1523627300927,-786432,122,-56,-1,-1,0
1523627300927,-720896,122,-56,-1,-1,0
1523627300927,-655360,122,-56,-1,-1,0
1523627300927,-524288,122,-56,-1,-1,0
1523627300966,-524288,122,-56,-1,-1,0
1523627300966,-524288,122,-56,-1,-1,0
1523627300966,-524288,122,-56,-1,-1,0
1523627300966,-524288,122,-56,-1,-1,0
1523627300966,-458752,122,-56,-1,-1,0
1523627301006,-327680,122,-56,-1,-1,0
1523627301006,-196608,122,-56,-1,-1,0
1523627301006,0,122,-56,-1,-1,0
1523627301006,65536,122,-56,-1,-1,0
1523627301006,262144,122,-56,-1,-1,0
1523627301047,524288,122,-56,-1,-1,0
1523627301047,917504,122,-56,-1,-1,0
1523627301047,1245184,122,-56,-1,-1,0
1523627301047,1441792,122,-56,-1,-1,0
1523627301047,1507328,122,-56,-1,-1,0
1523627301092,1441792,122,-56,-1,-1,0
1523627301092,1310720,122,-56,-1,-1,0
1523627301092,1048576,122,-56,-1,-1,0
1523627301092,589824,122,-56,-1,-1,0
1523627301092,196608,122,-56,-1,-1,0
1523627301126,0,122,-56,-1,-1,0
1523627301126,-131072,122,-56,-1,-1,0
1523627301126,-327680,122,-56,-1,-1,0
1523627301126,-524288,122,-56,-1,-1,0
1523627301126,-524288,122,-56,-1,-1,0
1523627301166,-589824,122,-56,-1,-1,0
1523627301166,-589824,122,-56,-1,-1,0
1523627301166,-589824,122,-56,-1,-1,0
1523627301166,-524288,122,-56,-1,-1,0
1523627301166,-458752,122,-56,-1,-1,0
1523627301206,-458752,122,-56,-1,-1,0
1523627301206,-524288,122,-56,-1,-1,0
1523627301206,-524288,122,-56,-1,-1,0
1523627301206,-458752,122,-56,-1,-1,0
1523627301206,-393216,122,-56,-1,-1,0
1523627301246,-393216,122,-56,-1,-1,0
1523627301246,-458752,122,-56,-1,-1,0
1523627301246,-524288,122,-56,-1,-1,0
1523627301246,-458752,122,-56,-1,-1,0
1523627301246,-524288,122,-56,-1,-1,0
1523627301286,-524288,122,-56,-1,-1,0
1523627301286,-524288,122,-56,-1,-1,0
1523627301286,-458752,122,-56,-1,-1,0
1523627301286,-524288,122,-56,-1,-1,0
1523627301286,-589824,122,-56,-1,-1,0
1523627301326,-589824,122,-56,-1,-1,0
1523627301326,-655360,122,-56,-1,-1,0
1523627301326,-655360,122,-56,-1,-1,0
1523627301326,-655360,122,-56,-1,-1,0
1523627301326,-851968,122,-56,-1,-1,0
1523627301366,-1245184,122,-56,-1,-1,0
1523627301366,-1048576,122,-56,-1,-1,0
1523627301366,524288,122,-56,-1,-1,0
1523627301366,3342336,122,-56,-1,-1,0
1523627301366,4521984,122,-56,-1,-1,0
1523627301406,2424832,122,-56,-1,-1,0
1523627301406,-720896,122,-56,-1,-1,0
1523627301406,-1835008,122,-56,-1,-1,0
1523627301406,-1507328,122,-56,-1,-1,0
1523627301406,-1048576,122,-56,-1,-1,0
1523627301446,-786432,122,-56,-1,-1,0
1523627301446,-720896,122,-56,-1,-1,0
1523627301446,-655360,122,-56,-1,-1,0
1523627301446,-589824,122,-56,-1,-1,0
1523627301446,-524288,122,-56,-1,-1,0
1523627301486,-524288,122,-56,-1,-1,0
1523627301486,-458752,122,-56,-1,-1,0
1523627301486,-262144,122,-56,-1,-1,0
1523627301486,-131072,122,-56,-1,-1,0
1523627301486,-131072,122,-56,-1,-1,0
1523627301526,0,122,-56,-1,-1,0
1523627301526,131072,122,-56,-1,-1,0
1523627301526,458752,122,-56,-1,-1,0
1523627301526,786432,122,-56,-1,-1,0
1523627301526,1048576,122,-56,-1,-1,0
1523627301566,1441792,122,-56,-1,-1,0
1523627301566,1703936,122,-56,-1,-1,0
1523627301566,1835008,122,-56,-1,-1,0
1523627301566,1835008,122,-56,-1,-1,0
1523627301566,1769472,122,-56,-1,-1,0
1523627301606,1572864,122,-56,-1,-1,0
1523627301606,1179648,122,-56,-1,-1,0
1523627301606,720896,122,-56,-1,-1,0
1523627301606,393216,122,-56,-1,-1,0
1523627301606,196608,122,-56,-1,-1,0
1523627301646,65536,122,-56,-1,-1,0
1523627301646,0,122,-56,-1,-1,0
1523627301646,-131072,122,-56,-1,-1,0
1523627301646,-131072,122,-56,-1,-1,0
1523627301646,-131072,122,-56,-1,-1,0
1523627301686,-65536,122,-56,-1,-1,0
1523627301686,0,122,-56,-1,-1,0
1523627301686,0,122,-56,-1,-1,0
1523627301686,65536,122,-56,-1,-1,0
1523627301686,131072,122,-56,-1,-1,0
1523627301731,262144,122,-56,-1,-1,0
1523627301731,262144,122,-56,-1,-1,0
1523627301731,262144,122,-56,-1,-1,0
1523627301731,262144,122,-56,-1,-1,0
1523627301731,262144,122,-56,-1,-1,0
1523627301766,196608,122,-56,-1,-1,0
1523627301766,131072,122,-56,-1,-1,0
1523627301766,131072,122,-56,-1,-1,0
1523627301766,65536,122,-56,-1,-1,0
1523627301766,131072,122,-56,-1,-1,0
1523627301806,196608,122,-56,-1,-1,0
1523627301806,196608,122,-56,-1,-1,0
1523627301806,131072,122,-56,-1,-1,0
1523627301806,131072,122,-56,-1,-1,0
1523627301806,65536,122,-56,-1,-1,0
1523627301846,65536,122,-56,-1,-1,0
1523627301846,131072,122,-56,-1,-1,0
1523627301846,0,122,-56,-1,-1,0
1523627301846,-327680,122,-56,-1,-1,0
1523627301846,-458752,122,-56,-1,-1,0
1523627301886,524288,122,-56,-1,-1,0
1523627301886,3145728,122,-56,-1,-1,0
1523627301886,5636096,122,-56,-1,-1,0
1523627301886,4849664,122,-56,-1,-1,0
1523627301886,1638400,122,-56,-1,-1,0
1523627301926,-524288,122,-56,-1,-1,0
1523627301926,-720896,122,-56,-1,-1,0
1523627301926,-327680,122,-56,-1,-1,0
1523627301926,0,122,-56,-1,-1,0
1523627301926,131072,122,-56,-1,-1,0
1523627301966,196608,122,-56,-1,-1,0
1523627301966,196608,122,-56,-1,-1,0
1523627301966,196608,122,-56,-1,-1,0
1523627301966,262144,122,-56,-1,-1,0
1523627301966,327680,122,-56,-1,-1,0
1523627302006,393216,122,-56,-1,-1,0
1523627302006,458752,122,-56,-1,-1,0
1523627302006,524288,122,-56,-1,-1,0
1523627302006,655360,122,-56,-1,-1,0
1523627302006,851968,122,-56,-1,-1,0
1523627302046,1048576,122,-56,-1,-1,0
1523627302046,1245184,122,-56,-1,-1,0
1523627302046,1572864,122,-56,-1,-1,0
1523627302046,1966080,122,-56,-1,-1,0
1523627302046,2293760,122,-56,-1,-1,0
1523627302086,2555904,122,-56,-1,-1,0
1523627302086,2621440,122,-56,-1,-1,0
1523627302086,2621440,122,-56,-1,-1,0
1523627302086,2359296,122,-56,-1,-1,0
1523627302086,1966080,122,-56,-1,-1,0
1523627302126,1572864,122,-56,-1,-1,0
1523627302126,1245184,122,-56,-1,-1,0
1523627302126,983040,122,-56,-1,-1,0
1523627302126,655360,122,-56,-1,-1,0
1523627302126,524288,122,-56,-1,-1,0
1523627302166,458752,122,-56,-1,-1,0
1523627302166,458752,122,-56,-1,-1,0
1523627302166,458752,122,-56,-1,-1,0
1523627302166,458752,122,-56,-1,-1,0
1523627302166,458752,122,-56,-1,-1,0
1523627302206,393216,121,-56,-1,-1,0
1523627302206,458752,121,-56,-1,-1,0
1523627302206,589824,121,-56,-1,-1,0
1523627302206,655360,121,-56,-1,-1,0
1523627302206,589824,121,-56,-1,-1,0
1523627302246,589824,121,-56,-1,-1,0
1523627302246,589824,121,-56,-1,-1,0
1523627302246,589824,121,-56,-1,-1,0
1523627302246,589824,121,-56,-1,-1,0
1523627302246,524288,121,-56,-1,-1,0
1523627302286,458752,121,-56,-1,-1,0
1523627302286,393216,121,-56,-1,-1,0
1523627302286,327680,121,-56,-1,-1,0
1523627302286,327680,121,-56,-1,-1,0
1523627302286,327680,121,-56,-1,-1,0
1523627302326,327680,121,-56,-1,-1,0
1523627302326,262144,121,-56,-1,-1,0
1523627302326,196608,121,-56,-1,-1,0
1523627302326,131072,121,-56,-1,-1,0
1523627302326,65536,121,-56,-1,-1,0
1523627302372,65536,121,-56,-1,-1,0
1523627302372,131072,121,-56,-1,-1,0
1523627302372,-65536,121,-56,-1,-1,0
1523627302372,-458752,121,-56,-1,-1,0
1523627302372,-327680,121,-56,-1,-1,0
1523627302406,1310720,121,-56,-1,-1,0
1523627302406,4325376,121,-56,-1,-1,0
1523627302406,5832704,121,-56,-1,-1,0
1523627302406,3932160,121,-56,-1,-1,0
1523627302406,786432,121,-56,-1,-1,0
1523627302446,-393216,121,-56,-1,-1,0
1523627302446,-458752,121,-56,-1,-1,0
1523627302446,-327680,121,-56,-1,-1,0
1523627302446,-196608,121,-56,-1,-1,0
1523627302446,-131072,121,-56,-1,-1,0
1523627302486,-131072,121,-56,-1,-1,0
1523627302486,-196608,121,-56,-1,-1,0
1523627302486,-327680,121,-56,-1,-1,0
1523627302486,-262144,121,-56,-1,-1,0
1523627302486,-196608,121,-56,-1,-1,0
1523627302528,-65536,121,-56,-1,-1,0
1523627302528,-131072,121,-56,-1,-1,0
1523627302528,-65536,121,-56,-1,-1,0
1523627302528,-65536,121,-56,-1,-1,0
1523627302528,0,121,-56,-1,-1,0
1523627302566,131072,121,-56,-1,-1,0
1523627302566,393216,121,-56,-1,-1,0
1523627302566,655360,121,-56,-1,-1,0
1523627302566,983040,121,-56,-1,-1,0
1523627302566,1245184,121,-56,-1,-1,0
1523627302606,1376256,121,-56,-1,-1,0
1523627302606,1441792,121,-56,-1,-1,0
1523627302606,1310720,121,-56,-1,-1,0
1523627302606,983040,121,-56,-1,-1,0
1523627302606,589824,121,-56,-1,-1,0
1523627302646,262144,121,-56,-1,-1,0
1523627302646,0,121,-56,-1,-1,0
1523627302646,-262144,121,-56,-1,-1,0
1523627302646,-524288,121,-56,-1,-1,0
1523627302646,-720896,121,-56,-1,-1,0
1523627302686,-786432,121,-56,-1,-1,0
1523627302686,-786432,121,-56,-1,-1,0
1523627302686,-786432,121,-56,-1,-1,0
1523627302686,-851968,121,-56,-1,-1,0
1523627302686,-917504,121,-56,-1,-1,0
1523627302728,-917504,121,-56,-1,-1,0
1523627302728,-917504,121,-56,-1,-1,0
1523627302728,-917504,121,-56,-1,-1,0
1523627302728,-851968,121,-56,-1,-1,0
1523627302728,-851968,121,-56,-1,-1,0
1523627302766,-917504,121,-56,-1,-1,0
1523627302766,-1048576,121,-56,-1,-1,0
1523627302766,-1048576,121,-56,-1,-1,0
1523627302766,-1114112,121,-56,-1,-1,0
1523627302766,-1179648,121,-56,-1,-1,0
1523627302806,-1310720,121,-56,-1,-1,0
1523627302806,-1376256,121,-56,-1,-1,0
1523627302806,-1376256,121,-56,-1,-1,0
1523627302806,-1376256,121,-56,-1,-1,0
1523627302806,-1376256,121,-56,-1,-1,0
1523627302849,-1441792,121,-56,-1,-1,0
1523627302849,-1507328,121,-56,-1,-1,0
1523627302849,-1572864,121,-56,-1,-1,0
1523627302849,-1638400,121,-56,-1,-1,0
1523627302849,-1703936,121,-56,-1,-1,0
1523627302886,-1769472,121,-56,-1,-1,0
1523627302886,-1769472,121,-56,-1,-1,0
1523627302886,-1835008,121,-56,-1,-1,0
1523627302886,-2162688,121,-56,-1,-1,0
1523627302886,-2490368,121,-56,-1,-1,0
1523627302929,-2228224,121,-56,-1,-1,0
1523627302929,-327680,121,-56,-1,-1,0
1523627302929,2490368,121,-56,-1,-1,0
1523627302929,3473408,121,-56,-1,-1,0
1523627302929,1310720,121,-56,-1,-1,0
1523627302967,-1507328,121,-56,-1,-1,0
1523627302967,-2490368,121,-56,-1,-1,0
1523627302967,-2359296,121,-56,-1,-1,0
1523627302967,-2097152,121,-56,-1,-1,0
1523627302967,-1835008,121,-56,-1,-1,0
1523627303012,-1769472,121,-56,-1,-1,0
1523627303012,-1769472,121,-56,-1,-1,0
1523627303012,-1703936,121,-56,-1,-1,0
1523627303012,-1572864,121,-56,-1,-1,0
1523627303012,-1507328,121,-56,-1,-1,0
1523627303046,-1507328,121,-56,-1,-1,0
1523627303046,-1507328,121,-56,-1,-1,0
1523627303046,-1441792,121,-56,-1,-1,0
1523627303046,-1310720,121,-56,-1,-1,0
1523627303046,-1245184,121,-56,-1,-1,0
1523627303089,-1048576,121,-56,-1,-1,0
1523627303089,-851968,121,-56,-1,-1,0
1523627303089,-589824,121,-56,-1,-1,0
1523627303089,-262144,121,-56,-1,-1,0
1523627303089,131072,121,-56,-1,-1,0
1523627303129,393216,121,-56,-1,-1,0
1523627303129,524288,121,-56,-1,-1,0
1523627303129,589824,121,-56,-1,-1,0
1523627303129,655360,121,-56,-1,-1,0
1523627303129,458752,121,-56,-1,-1,0
1523627303166,0,121,-56,-1,-1,0
1523627303166,-393216,121,-56,-1,-1,0
1523627303166,-655360,121,-56,-1,-1,0
1523627303166,-917504,121,-56,-1,-1,0
1523627303166,-1048576,121,-56,-1,-1,0
1523627303206,-1179648,121,-56,-1,-1,0
1523627303206,-1310720,121,-56,-1,-1,0
1523627303206,-1310720,121,-56,-1,-1,0
1523627303206,-1245184,121,-56,-1,-1,0
1523627303206,-1114112,121,-56,-1,-1,0
1523627303246,-1048576,120,-56,-1,-1,0
1523627303246,-1048576,120,-56,-1,-1,0
1523627303246,-1048576,120,-56,-1,-1,0
1523627303246,-917504,120,-56,-1,-1,0
1523627303246,-851968,120,-56,-1,-1,0
1523627303286,-720896,120,-56,-1,-1,0
1523627303286,-786432,120,-56,-1,-1,0
1523627303286,-720896,120,-56,-1,-1,0
1523627303286,-655360,120,-56,-1,-1,0
1523627303286,-458752,120,-56,-1,-1,0
1523627303326,-393216,120,-56,-1,-1,0
1523627303326,-458752,120,-56,-1,-1,0
1523627303326,-589824,120,-56,-1,-1,0
1523627303326,-655360,120,-56,-1,-1,0
1523627303326,-589824,120,-56,-1,-1,0
1523627303366,-589824,120,-56,-1,-1,0
1523627303366,-524288,120,-56,-1,-1,0
1523627303366,-524288,120,-56,-1,-1,0
1523627303366,-589824,120,-56,-1,-1,0
1523627303366,-524288,120,-56,-1,-1,0
1523627303406,-458752,120,-56,-1,-1,0
1523627303406,-589824,120,-56,-1,-1,0
1523627303406,-983040,120,-56,-1,-1,0
1523627303406,-720896,120,-56,-1,-1,0
1523627303406,1245184,120,-56,-1,-1,0
1523627303446,4456448,120,-56,-1,-1,0
1523627303446,5242880,120,-56,-1,-1,0
1523627303446,2490368,120,-56,-1,-1,0
1523627303446,-655360,120,-56,-1,-1,0
1523627303446,-1441792,120,-56,-1,-1,0
1523627303486,-983040,120,-56,-1,-1,0
1523627303486,-524288,120,-56,-1,-1,0
1523627303486,-262144,120,-56,-1,-1,0
1523627303486,-131072,120,-56,-1,-1,0
1523627303486,0,120,-56,-1,-1,0
1523627303527,65536,120,-56,-1,-1,0
1523627303527,131072,120,-56,-1,-1,0
1523627303527,131072,120,-56,-1,-1,0
1523627303527,196608,120,-56,-1,-1,0
1523627303527,327680,120,-56,-1,-1,0
1523627303566,393216,120,-56,-1,-1,0
1523627303566,589824,120,-56,-1,-1,0
1523627303566,786432,120,-56,-1,-1,0
1523627303566,1048576,120,-56,-1,-1,0
1523627303566,1310720,120,-56,-1,-1,0
1523627303606,1638400,120,-56,-1,-1,0
1523627303606,2031616,120,-56,-1,-1,0
1523627303606,2490368,120,-56,-1,-1,0
1523627303606,2818048,120,-56,-1,-1,0
1523627303606,2949120,120,-56,-1,-1,0
1523627303651,2949120,120,-56,-1,-1,0
1523627303651,2686976,120,-56,-1,-1,0
1523627303651,2293760,120,-56,-1,-1,0
1523627303651,1966080,120,-56,-1,-1,0
1523627303651,1638400,120,-56,-1,-1,0
1523627303686,1441792,120,-56,-1,-1,0
1523627303686,1245184,120,-56,-1,-1,0
1523627303686,1048576,120,-56,-1,-1,0
1523627303686,983040,120,-56,-1,-1,0
1523627303686,1048576,120,-56,-1,-1,0
1523627303726,1048576,120,-56,-1,-1,0
1523627303726,1048576,120,-56,-1,-1,0
1523627303726,1179648,120,-56,-1,-1,0
1523627303726,1310720,120,-56,-1,-1,0
1523627303726,1507328,120,-56,-1,-1,0
1523627303766,1507328,120,-56,-1,-1,0
1523627303766,1572864,120,-56,-1,-1,0
1523627303766,1703936,120,-56,-1,-1,0
1523627303766,1769472,120,-56,-1,-1,0
1523627303766,1769472,120,-56,-1,-1,0
1523627303806,1703936,120,-56,-1,-1,0
1523627303806,1638400,120,-56,-1,-1,0
1523627303806,1638400,120,-56,-1,-1,0
1523627303806,1638400,120,-56,-1,-1,0
1523627303806,1638400,120,-56,-1,-1,0
1523627303846,1638400,120,-56,-1,-1,0
1523627303846,1572864,120,-56,-1,-1,0
1523627303846,1638400,120,-56,-1,-1,0
1523627303846,1703936,120,-56,-1,-1,0
1523627303846,1703936,120,-56,-1,-1,0
1523627303886,1703936,120,-56,-1,-1,0
1523627303886,1769472,120,-56,-1,-1,0
1523627303886,1769472,120,-56,-1,-1,0
1523627303886,1703936,120,-56,-1,-1,0
1523627303886,1703936,120,-56,-1,-1,0
1523627303926,1572864,120,-56,-1,-1,0
1523627303926,1179648,120,-56,-1,-1,0
1523627303926,917504,120,-56,-1,-1,0
1523627303926,2031616,120,-56,-1,-1,0
1523627303926,5046272,120,-56,-1,-1,0
1523627303966,7995392,120,-56,-1,-1,0
1523627303966,7340032,120,-56,-1,-1,0
1523627303966,3801088,120,-56,-1,-1,0
1523627303966,1179648,120,-56,-1,-1,0
1523627303966,983040,120,-56,-1,-1,0
1523627304007,1376256,120,-56,-1,-1,0
1523627304007,1638400,120,-56,-1,-1,0
1523627304007,1638400,120,-56,-1,-1,0
1523627304007,1638400,120,-56,-1,-1,0
1523627304007,1703936,120,-56,-1,-1,0
1523627304046,1769472,120,-56,-1,-1,0
1523627304046,1835008,120,-56,-1,-1,0
1523627304046,1900544,120,-56,-1,-1,0
1523627304046,1900544,120,-56,-1,-1,0
1523627304046,1900544,120,-56,-1,-1,0
1523627304086,1966080,120,-56,-1,-1,0
1523627304086,2031616,120,-56,-1,-1,0
1523627304086,2097152,120,-56,-1,-1,0
1523627304086,2293760,120,-56,-1,-1,0
1523627304086,2555904,120,-56,-1,-1,0
1523627304126,2883584,120,-56,-1,-1,0
1523627304126,3145728,120,-56,-1,-1,0
1523627304126,3473408,120,-56,-1,-1,0
1523627304126,3670016,120,-56,-1,-1,0
1523627304126,3604480,120,-56,-1,-1,0
1523627304166,3473408,120,-56,-1,-1,0
1523627304166,3145728,120,-56,-1,-1,0
1523627304166,2752512,120,-56,-1,-1,0
1523627304166,2228224,120,-56,-1,-1,0
1523627304166,1703936,120,-56,-1,-1,0
1523627304207,1441792,120,-56,-1,-1,0
1523627304207,1179648,120,-56,-1,-1,0
1523627304207,983040,120,-56,-1,-1,0
1523627304207,786432,120,-56,-1,-1,0
1523627304207,655360,120,-56,-1,-1,0
1523627304246,524288,119,-56,-1,-1,0
1523627304246,458752,119,-56,-1,-1,0
1523627304246,327680,119,-56,-1,-1,0
1523627304246,262144,119,-56,-1,-1,0
1523627304246,196608,119,-56,-1,-1,0
1523627304291,196608,119,-56,-1,-1,0
1523627304291,131072,119,-56,-1,-1,0
1523627304291,65536,119,-56,-1,-1,0
1523627304291,0,119,-56,-1,-1,0
1523627304291,0,119,-56,-1,-1,0
1523627304326,-131072,119,-56,-1,-1,0
1523627304326,-262144,119,-56,-1,-1,0
1523627304326,-393216,119,-56,-1,-1,0
1523627304326,-524288,119,-56,-1,-1,0
1523627304326,-655360,119,-56,-1,-1,0
1523627304366,-720896,119,-56,-1,-1,0
1523627304366,-720896,119,-56,-1,-1,0
1523627304366,-851968,119,-56,-1,-1,0
1523627304366,-1048576,119,-56,-1,-1,0
1523627304366,-1179648,119,-56,-1,-1,0
1523627304406,-1245184,119,-56,-1,-1,0
1523627304406,-1310720,119,-56,-1,-1,0
1523627304406,-1376256,119,-56,-1,-1,0
1523627304406,-1441792,119,-56,-1,-1,0
1523627304406,-1835008,119,-56,-1,-1,0
1523627304447,-2359296,119,-56,-1,-1,0
1523627304447,-2097152,119,-56,-1,-1,0
1523627304447,-131072,119,-56,-1,-1,0
1523627304447,2949120,119,-56,-1,-1,0
1523627304447,4128768,119,-56,-1,-1,0
1523627304486,1572864,119,-56,-1,-1,0
1523627304486,-1769472,119,-56,-1,-1,0
1523627304486,-2883584,119,-56,-1,-1,0
1523627304486,-2818048,119,-56,-1,-1,0
1523627304486,-2490368,119,-56,-1,-1,0
1523627304526,-2359296,119,-56,-1,-1,0
1523627304526,-2359296,119,-56,-1,-1,0
1523627304526,-2293760,119,-56,-1,-1,0
1523627304526,-2228224,119,-56,-1,-1,0
1523627304526,-2228224,119,-56,-1,-1,0
1523627304566,-2228224,119,-56,-1,-1,0
1523627304566,-2293760,119,-56,-1,-1,0
1523627304566,-2293760,119,-56,-1,-1,0
1523627304566,-2228224,119,-56,-1,-1,0
1523627304566,-2228224,119,-56,-1,-1,0
1523627304606,-2162688,119,-56,-1,-1,0
1523627304606,-2031616,119,-56,-1,-1,0
1523627304606,-1769472,119,-56,-1,-1,0
1523627304606,-1441792,119,-56,-1,-1,0
1523627304606,-1179648,119,-56,-1,-1,0
1523627304646,-851968,119,-56,-1,-1,0
1523627304646,-655360,119,-56,-1,-1,0
1523627304646,-458752,119,-56,-1,-1,0
1523627304646,-524288,119,-56,-1,-1,0
1523627304646,-720896,119,-56,-1,-1,0
1523627304686,-1048576,119,-56,-1,-1,0
1523627304686,-1441792,119,-56,-1,-1,0
1523627304686,-1769472,119,-56,-1,-1,0
1523627304686,-2031616,119,-56,-1,-1,0
1523627304686,-2293760,119,-56,-1,-1,0
1523627304727,-2424832,119,-56,-1,-1,0
1523627304727,-2490368,119,-56,-1,-1,0
1523627304727,-2555904,119,-56,-1,-1,0
1523627304727,-2555904,119,-56,-1,-1,0
1523627304727,-2555904,119,-56,-1,-1,0
1523627304766,-2490368,119,-56,-1,-1,0
1523627304766,-2424832,119,-56,-1,-1,0
1523627304766,-2424832,119,-56,-1,-1,0
1523627304766,-2424832,119,-56,-1,-1,0
1523627304766,-2359296,119,-56,-1,-1,0
1523627304807,-2228224,119,-56,-1,-1,0
1523627304807,-2162688,119,-56,-1,-1,0
1523627304807,-2097152,119,-56,-1,-1,0
1523627304807,-2031616,119,-56,-1,-1,0
1523627304807,-2097152,119,-56,-1,-1,0
1523627304846,-2162688,119,-56,-1,-1,0
1523627304846,-2162688,119,-56,-1,-1,0
1523627304846,-2097152,119,-56,-1,-1,0
1523627304846,-2097152,119,-56,-1,-1,0
1523627304846,-2097152,119,-56,-1,-1,0
1523627304886,-2097152,119,-56,-1,-1,0
1523627304886,-2031616,119,-56,-1,-1,0
1523627304886,-1966080,119,-56,-1,-1,0
1523627304886,-2031616,119,-56,-1,-1,0
1523627304886,-2097152,119,-56,-1,-1,0
1523627304931,-2097152,119,-56,-1,-1,0
1523627304931,-2031616,119,-56,-1,-1,0
1523627304931,-2162688,119,-56,-1,-1,0
1523627304931,-2621440,119,-56,-1,-1,0
1523627304931,-2621440,119,-56,-1,-1,0
1523627304966,-983040,119,-56,-1,-1,0
1523627304966,2228224,119,-56,-1,-1,0
1523627304966,4390912,119,-56,-1,-1,0
1523627304966,2686976,119,-56,-1,-1,0
1523627304966,-720896,119,-56,-1,-1,0
1523627305006,-2424832,119,-56,-1,-1,0
1523627305006,-2359296,119,-56,-1,-1,0
1523627305006,-1966080,119,-56,-1,-1,0
1523627305006,-1835008,119,-56,-1,-1,0
1523627305006,-1835008,119,-56,-1,-1,0
1523627305046,-1769472,119,-56,-1,-1,0
1523627305046,-1769472,119,-56,-1,-1,0
1523627305046,-1769472,119,-56,-1,-1,0
1523627305046,-1703936,119,-56,-1,-1,0
1523627305046,-1572864,119,-56,-1,-1,0
1523627305089,-1441792,119,-56,-1,-1,0
1523627305089,-1441792,119,-56,-1,-1,0
1523627305089,-1310720,119,-56,-1,-1,0
1523627305089,-1114112,119,-56,-1,-1,0
1523627305089,-917504,119,-56,-1,-1,0
1523627305126,-786432,119,-56,-1,-1,0
1523627305126,-589824,119,-56,-1,-1,0
1523627305126,-262144,119,-56,-1,-1,0
1523627305126,0,119,-56,-1,-1,0
1523627305126,327680,119,-56,-1,-1,0
1523627305166,524288,119,-56,-1,-1,0
1523627305166,589824,119,-56,-1,-1,0
1523627305166,524288,119,-56,-1,-1,0
1523627305166,262144,119,-56,-1,-1,0
1523627305166,-65536,119,-56,-1,-1,0
1523627305206,-458752,119,-56,-1,-1,0
1523627305206,-720896,119,-56,-1,-1,0
1523627305206,-983040,119,-56,-1,-1,0
1523627305206,-1114112,119,-56,-1,-1,0
1523627305206,-1179648,119,-56,-1,-1,0
1523627305246,-1179648,119,-56,-1,-1,0
1523627305246,-1245184,119,-56,-1,-1,0
1523627305246,-1245184,119,-56,-1,-1,0
1523627305246,-1179648,119,-56,-1,-1,0
1523627305246,-1179648,119,-56,-1,-1,0
1523627305286,-1179648,119,-56,-1,-1,0
1523627305286,-1114112,119,-56,-1,-1,0
1523627305286,-1048576,119,-56,-1,-1,0
1523627305286,-1048576,119,-56,-1,-1,0
1523627305286,-1114112,119,-56,-1,-1,0
1523627305327,-1179648,119,-56,-1,-1,0
1523627305327,-1179648,119,-56,-1,-1,0
1523627305327,-1179648,119,-56,-1,-1,0
1523627305327,-1179648,119,-56,-1,-1,0
1523627305327,-1114112,119,-56,-1,-1,0
1523627305366,-1048576,119,-56,-1,-1,0
1523627305366,-983040,119,-56,-1,-1,0
1523627305366,-1048576,119,-56,-1,-1,0
1523627305366,-1114112,119,-56,-1,-1,0
1523627305366,-1179648,119,-56,-1,-1,0
1523627305406,-1179648,119,-56,-1,-1,0
1523627305406,-1179648,119,-56,-1,-1,0
1523627305406,-1245184,119,-56,-1,-1,0
1523627305406,-1245184,119,-56,-1,-1,0
1523627305406,-1245184,119,-56,-1,-1,0
1523627305447,-1310720,119,-56,-1,-1,0
1523627305447,-1638400,119,-56,-1,-1,0
1523627305447,-2031616,119,-56,-1,-1,0
1523627305447,-1310720,119,-56,-1,-1,0
1523627305447,1245184,119,-56,-1,-1,0
1523627305486,4194304,119,-56,-1,-1,0
1523627305486,3932160,119,-56,-1,-1,0
1523627305486,786432,119,-56,-1,-1,0
1523627305486,-1703936,119,-56,-1,-1,0
1523627305486,-1966080,119,-56,-1,-1,0
1523627305527,-1638400,119,-56,-1,-1,0
1523627305527,-1441792,119,-56,-1,-1,0
1523627305527,-1310720,119,-56,-1,-1,0
1523627305527,-1310720,119,-56,-1,-1,0
1523627305527,-1310720,119,-56,-1,-1,0
1523627305572,-1310720,119,-56,-1,-1,0
1523627305572,-1245184,119,-56,-1,-1,0
1523627305572,-1245184,119,-56,-1,-1,0
1523627305572,-1179648,119,-56,-1,-1,0
1523627305572,-1048576,119,-56,-1,-1,0
1523627305607,-917504,119,-56,-1,-1,0
1523627305607,-851968,119,-56,-1,-1,0
1523627305607,-786432,119,-56,-1,-1,0
1523627305607,-655360,119,-56,-1,-1,0
1523627305607,-327680,119,-56,-1,-1,0
1523627305646,0,119,-56,-1,-1,0
1523627305646,196608,119,-56,-1,-1,0
1523627305646,524288,119,-56,-1,-1,0
1523627305646,786432,119,-56,-1,-1,0
1523627305646,917504,119,-56,-1,-1,0
1523627305688,786432,119,-56,-1,-1,0
1523627305688,589824,119,-56,-1,-1,0
1523627305688,262144,119,-56,-1,-1,0
1523627305688,0,119,-56,-1,-1,0
1523627305688,-262144,119,-56,-1,-1,0
1523627305726,-524288,119,-56,-1,-1,0
1523627305726,-786432,119,-56,-1,-1,0
1523627305726,-983040,119,-56,-1,-1,0
1523627305726,-1048576,119,-56,-1,-1,0
1523627305726,-1048576,119,-56,-1,-1,0
1523627305766,-1048576,119,-56,-1,-1,0
1523627305766,-1114112,119,-56,-1,-1,0
1523627305766,-1114112,119,-56,-1,-1,0
1523627305766,-1048576,119,-56,-1,-1,0
1523627305766,-983040,119,-56,-1,-1,0
1523627305806,-983040,119,-56,-1,-1,0
1523627305806,-983040,119,-56,-1,-1,0
1523627305806,-983040,119,-56,-1,-1,0
1523627305806,-917504,119,-56,-1,-1,0
1523627305806,-917504,119,-56,-1,-1,0
1523627305846,-917504,119,-56,-1,-1,0
1523627305846,-917504,119,-56,-1,-1,0
1523627305846,-917504,119,-56,-1,-1,0
1523627305846,-983040,119,-56,-1,-1,0
1523627305846,-1048576,119,-56,-1,-1,0
1523627305886,-1048576,119,-56,-1,-1,0
1523627305886,-1048576,119,-56,-1,-1,0
1523627305886,-1048576,119,-56,-1,-1,0
1523627305886,-1048576,119,-56,-1,-1,0
1523627305886,-1048576,119,-56,-1,-1,0
1523627305926,-1048576,119,-56,-1,-1,0
1523627305926,-1114112,119,-56,-1,-1,0
1523627305926,-1179648,119,-56,-1,-1,0
1523627305926,-1310720,119,-56,-1,-1,0
1523627305926,-1638400,119,-56,-1,-1,0
1523627305966,-1900544,119,-56,-1,-1,0
1523627305966,-917504,119,-56,-1,-1,0
1523627305966,1769472,119,-56,-1,-1,0
1523627305966,4587520,119,-56,-1,-1,0
1523627305966,3866624,119,-56,-1,-1,0
1523627306006,589824,119,-56,-1,-1,0
1523627306006,-1703936,119,-56,-1,-1,0
1523627306006,-1835008,119,-56,-1,-1,0
1523627306006,-1441792,119,-56,-1,-1,0
1523627306006,-1245184,119,-56,-1,-1,0
1523627306046,-1179648,119,-56,-1,-1,0
1523627306046,-1179648,119,-56,-1,-1,0
1523627306046,-1048576,119,-56,-1,-1,0
1523627306046,-983040,119,-56,-1,-1,0
1523627306046,-917504,119,-56,-1,-1,0
1523627306086,-851968,119,-56,-1,-1,0
1523627306086,-851968,119,-56,-1,-1,0
1523627306086,-786432,119,-56,-1,-1,0
1523627306086,-720896,119,-56,-1,-1,0
1523627306086,-458752,119,-56,-1,-1,0
1523627306126,-262144,119,-56,-1,-1,0
1523627306126,-131072,119,-56,-1,-1,0
1523627306126,0,119,-56,-1,-1,0
1523627306126,393216,119,-56,-1,-1,0
1523627306126,720896,119,-56,-1,-1,0
1523627306166,983040,119,-56,-1,-1,0
1523627306166,1179648,119,-56,-1,-1,0
1523627306166,1310720,119,-56,-1,-1,0
1523627306166,1245184,119,-56,-1,-1,0
1523627306166,1048576,119,-56,-1,-1,0
1523627306211,720896,119,-56,-1,-1,0
1523627306211,458752,119,-56,-1,-1,0
1523627306211,196608,119,-56,-1,-1,0
1523627306211,0,119,-56,-1,-1,0
1523627306211,-65536,119,-56,-1,-1,0
1523627306246,-131072,119,-56,-1,-1,0
1523627306246,-196608,119,-56,-1,-1,0
1523627306246,-262144,119,-56,-1,-1,0
1523627306246,-262144,119,-56,-1,-1,0
1523627306246,-262144,119,-56,-1,-1,0
1523627306286,-131072,119,-56,-1,-1,0
1523627306286,-65536,119,-56,-1,-1,0
1523627306286,0,119,-56,-1,-1,0
1523627306286,-65536,119,-56,-1,-1,0
1523627306286,-65536,119,-56,-1,-1,0
1523627306326,0,119,-56,-1,-1,0
1523627306326,65536,119,-56,-1,-1,0
1523627306326,65536,119,-56,-1,-1,0
1523627306326,0,119,-56,-1,-1,0
1523627306326,0,119,-56,-1,-1,0
1523627306366,0,119,-56,-1,-1,0
1523627306366,0,119,-56,-1,-1,0
1523627306366,0,119,-56,-1,-1,0
1523627306366,0,119,-56,-1,-1,0
1523627306366,0,119,-56,-1,-1,0
1523627306406,65536,119,-56,-1,-1,0
1523627306406,65536,119,-56,-1,-1,0
1523627306406,0,119,-56,-1,-1,0
1523627306406,0,119,-56,-1,-1,0
1523627306406,-65536,119,-56,-1,-1,0
1523627306446,0,119,-56,-1,-1,0
1523627306446,0,119,-56,-1,-1,0
1523627306446,-327680,119,-56,-1,-1,0
1523627306446,-786432,119,-56,-1,-1,0
1523627306446,-262144,119,-56,-1,-1,0
1523627306486,2162688,119,-56,-1,-1,0
1523627306486,5242880,119,-56,-1,-1,0
1523627306486,5373952,119,-56,-1,-1,0
1523627306486,2490368,119,-56,-1,-1,0
1523627306486,-262144,119,-56,-1,-1,0
1523627306526,-786432,119,-56,-1,-1,0
1523627306526,-458752,119,-56,-1,-1,0
1523627306526,-196608,119,-56,-1,-1,0
1523627306526,-65536,119,-56,-1,-1,0
1523627306526,-65536,119,-56,-1,-1,0
1523627306566,0,119,-56,-1,-1,0
1523627306566,0,119,-56,-1,-1,0
1523627306566,0,119,-56,-1,-1,0
1523627306566,0,119,-56,-1,-1,0
1523627306566,131072,119,-56,-1,-1,0
1523627306608,262144,119,-56,-1,-1,0
1523627306608,327680,119,-56,-1,-1,0
1523627306608,393216,119,-56,-1,-1,0
1523627306608,524288,119,-56,-1,-1,0
1523627306608,720896,119,-56,-1,-1,0
1523627306646,917504,119,-56,-1,-1,0
1523627306646,1179648,119,-56,-1,-1,0
1523627306646,1507328,119,-56,-1,-1,0
1523627306646,1769472,119,-56,-1,-1,0
1523627306646,1966080,119,-56,-1,-1,0
1523627306686,2162688,119,-56,-1,-1,0
1523627306686,2162688,119,-56,-1,-1,0
1523627306686,2031616,119,-56,-1,-1,0
1523627306686,1703936,119,-56,-1,-1,0
1523627306686,1376256,119,-56,-1,-1,0
1523627306726,983040,119,-56,-1,-1,0
1523627306726,720896,119,-56,-1,-1,0
1523627306726,524288,119,-56,-1,-1,0
1523627306726,458752,119,-56,-1,-1,0
1523627306726,393216,119,-56,-1,-1,0
1523627306766,327680,119,-56,-1,-1,0
1523627306766,262144,119,-56,-1,-1,0
1523627306766,262144,119,-56,-1,-1,0
1523627306766,327680,119,-56,-1,-1,0
1523627306766,327680,119,-56,-1,-1,0
1523627306806,327680,119,-56,-1,-1,0
1523627306806,393216,119,-56,-1,-1,0
1523627306806,393216,119,-56,-1,-1,0
1523627306806,393216,119,-56,-1,-1,0
1523627306806,458752,119,-56,-1,-1,0
1523627306851,524288,119,-56,-1,-1,0
1523627306851,458752,119,-56,-1,-1,0
1523627306851,393216,119,-56,-1,-1,0
1523627306851,393216,119,-56,-1,-1,0
1523627306851,393216,119,-56,-1,-1,0
1523627306886,327680,119,-56,-1,-1,0
1523627306886,327680,119,-56,-1,-1,0
1523627306886,393216,119,-56,-1,-1,0
1523627306886,327680,119,-56,-1,-1,0
1523627306886,327680,119,-56,-1,-1,0
1523627306926,262144,119,-56,-1,-1,0
1523627306926,262144,119,-56,-1,-1,0
1523627306926,262144,119,-56,-1,-1,0
1523627306926,262144,119,-56,-1,-1,0
1523627306926,131072,119,-56,-1,-1,0
1523627306966,-196608,119,-56,-1,-1,0
1523627306966,-262144,119,-56,-1,-1,0
1523627306966,851968,119,-56,-1,-1,0
1523627306966,3473408,119,-56,-1,-1,0
1523627306966,5373952,119,-56,-1,-1,0
1523627307006,4063232,119,-56,-1,-1,0
1523627307006,1048576,119,-56,-1,-1,0
1523627307006,-589824,119,-56,-1,-1,0
1523627307006,-589824,119,-56,-1,-1,0
1523627307006,-196608,119,-56,-1,-1,0
1523627307046,0,119,-56,-1,-1,0
1523627307046,0,119,-56,-1,-1,0
1523627307046,65536,119,-56,-1,-1,0
1523627307046,131072,119,-56,-1,-1,0
1523627307046,131072,119,-56,-1,-1,0
1523627307086,196608,119,-56,-1,-1,0
1523627307086,196608,119,-56,-1,-1,0
1523627307086,196608,119,-56,-1,-1,0
1523627307086,196608,119,-56,-1,-1,0
1523627307086,327680,119,-56,-1,-1,0
1523627307126,393216,119,-56,-1,-1,0
1523627307126,524288,119,-56,-1,-1,0
1523627307126,720896,119,-56,-1,-1,0
1523627307126,983040,119,-56,-1,-1,0
1523627307126,1245184,119,-56,-1,-1,0
1523627307166,1572864,119,-56,-1,-1,0
1523627307166,1900544,119,-56,-1,-1,0
1523627307166,2031616,119,-56,-1,-1,0
1523627307166,2031616,119,-56,-1,-1,0
1523627307166,1835008,119,-56,-1,-1,0
1523627307206,1572864,119,-56,-1,-1,0
1523627307206,1245184,119,-56,-1,-1,0
1523627307206,917504,119,-56,-1,-1,0
1523627307206,655360,119,-56,-1,-1,0
1523627307206,458752,119,-56,-1,-1,0
1523627307246,196608,119,-56,-1,-1,0
1523627307246,65536,119,-56,-1,-1,0
1523627307246,0,119,-56,-1,-1,0
1523627307246,0,119,-56,-1,-1,0
1523627307246,65536,119,-56,-1,-1,0
1523627307286,131072,119,-56,-1,-1,0
1523627307286,131072,119,-56,-1,-1,0
1523627307286,131072,119,-56,-1,-1,0
1523627307286,65536,119,-56,-1,-1,0
1523627307286,65536,119,-56,-1,-1,0
1523627307326,0,119,-56,-1,-1,0
1523627307326,65536,119,-56,-1,-1,0
1523627307326,0,119,-56,-1,-1,0
1523627307326,0,119,-56,-1,-1,0
1523627307326,0,119,-56,-1,-1,0
1523627307366,0,119,-56,-1,-1,0
1523627307366,-65536,119,-56,-1,-1,0
1523627307366,-65536,119,-56,-1,-1,0
1523627307366,-131072,119,-56,-1,-1,0
1523627307366,-196608,119,-56,-1,-1,0
1523627307406,-196608,119,-56,-1,-1,0
1523627307406,-262144,119,-56,-1,-1,0
1523627307406,-327680,119,-56,-1,-1,0
1523627307406,-393216,119,-56,-1,-1,0
1523627307406,-458752,119,-56,-1,-1,0
1523627307446,-458752,119,-56,-1,-1,0
1523627307446,-458752,119,-56,-1,-1,0
1523627307446,-720896,119,-56,-1,-1,0
1523627307446,-1245184,119,-56,-1,-1,0
1523627307446,-1114112,119,-56,-1,-1,0
1523627307491,524288,119,-56,-1,-1,0
1523627307491,3473408,119,-56,-1,-1,0
1523627307491,4784128,119,-56,-1,-1,0
1523627307491,2621440,119,-56,-1,-1,0
1523627307491,-393216,119,-56,-1,-1,0
1523627307526,-1572864,119,-56,-1,-1,0
1523627307526,-1441792,119,-56,-1,-1,0
1523627307526,-1114112,119,-56,-1,-1,0
1523627307526,-983040,119,-56,-1,-1,0
1523627307526,-917504,119,-56,-1,-1,0
1523627307566,-917504,119,-56,-1,-1,0
1523627307566,-917504,119,-56,-1,-1,0
1523627307566,-917504,119,-56,-1,-1,0
1523627307566,-851968,119,-56,-1,-1,0
1523627307566,-851968,119,-56,-1,-1,0
1523627307606,-786432,119,-56,-1,-1,0
1523627307606,-786432,119,-56,-1,-1,0
1523627307606,-720896,119,-56,-1,-1,0
1523627307606,-655360,119,-56,-1,-1,0
1523627307606,-458752,119,-56,-1,-1,0
1523627307646,-262144,119,-56,-1,-1,0
1523627307646,-65536,119,-56,-1,-1,0
1523627307646,131072,119,-56,-1,-1,0
1523627307646,393216,119,-56,-1,-1,0
1523627307646,655360,119,-56,-1,-1,0
1523627307686,786432,119,-56,-1,-1,0
1523627307686,786432,119,-56,-1,-1,0
1523627307686,655360,119,-56,-1,-1,0
1523627307686,458752,119,-56,-1,-1,0
1523627307686,196608,119,-56,-1,-1,0
1523627307726,-131072,119,-56,-1,-1,0
1523627307726,-458752,119,-56,-1,-1,0
1523627307726,-589824,119,-56,-1,-1,0
1523627307726,-720896,119,-56,-1,-1,0
1523627307726,-851968,119,-56,-1,-1,0
1523627307766,-917504,119,-56,-1,-1,0
1523627307766,-917504,119,-56,-1,-1,0
1523627307766,-917504,119,-56,-1,-1,0
1523627307766,-851968,119,-56,-1,-1,0
1523627307766,-851968,119,-56,-1,-1,0
1523627307806,-786432,119,-56,-1,-1,0
1523627307806,-851968,119,-56,-1,-1,0
1523627307806,-786432,119,-56,-1,-1,0
1523627307806,-786432,119,-56,-1,-1,0
1523627307806,-786432,119,-56,-1,-1,0
1523627307846,-786432,119,-56,-1,-1,0
1523627307846,-851968,119,-56,-1,-1,0
1523627307846,-917504,119,-56,-1,-1,0
1523627307846,-917504,119,-56,-1,-1,0
1523627307846,-917504,119,-56,-1,-1,0
1523627307886,-983040,119,-56,-1,-1,0
1523627307886,-1048576,119,-56,-1,-1,0
1523627307886,-1114112,119,-56,-1,-1,0
1523627307886,-1048576,119,-56,-1,-1,0
1523627307886,-917504,119,-56,-1,-1,0
1523627307926,-917504,119,-56,-1,-1,0
1523627307926,-917504,119,-56,-1,-1,0
1523627307926,-983040,119,-56,-1,-1,0
1523627307926,-983040,119,-56,-1,-1,0
1523627307926,-983040,119,-56,-1,-1,0
1523627307966,-1114112,119,-56,-1,-1,0
1523627307966,-1572864,119,-56,-1,-1,0
1523627307966,-1769472,119,-56,-1,-1,0
1523627307966,-524288,119,-56,-1,-1,0
1523627307966,2293760,119,-56,-1,-1,0
1523627308006,4521984,119,-56,-1,-1,0
1523627308006,3342336,119,-56,-1,-1,0
1523627308006,262144,119,-56,-1,-1,0
1523627308006,-1572864,119,-56,-1,-1,0
1523627308006,-1638400,119,-56,-1,-1,0
1523627308051,-1310720,119,-56,-1,-1,0
1523627308051,-1179648,119,-56,-1,-1,0
1523627308051,-1114112,119,-56,-1,-1,0
1523627308051,-1114112,119,-56,-1,-1,0
1523627308051,-1114112,119,-56,-1,-1,0
1523627308086,-1114112,119,-56,-1,-1,0
1523627308086,-1048576,119,-56,-1,-1,0
1523627308086,-1048576,119,-56,-1,-1,0
1523627308086,-983040,119,-56,-1,-1,0
1523627308086,-851968,119,-56,-1,-1,0
1523627308131,-720896,119,-56,-1,-1,0
1523627308131,-655360,119,-56,-1,-1,0
1523627308131,-524288,119,-56,-1,-1,0
1523627308131,-327680,119,-56,-1,-1,0
1523627308131,-65536,119,-56,-1,-1,0
1523627308167,65536,119,-56,-1,-1,0
1523627308167,327680,119,-56,-1,-1,0
1523627308167,589824,119,-56,-1,-1,0
1523627308167,786432,119,-56,-1,-1,0
1523627308167,851968,119,-56,-1,-1,0
1523627308206,851968,119,-56,-1,-1,0
1523627308206,655360,119,-56,-1,-1,0
1523627308206,327680,119,-56,-1,-1,0
1523627308206,65536,119,-56,-1,-1,0
1523627308206,-131072,119,-56,-1,-1,0
1523627308246,-327680,119,-56,-1,-1,0
1523627308246,-458752,119,-56,-1,-1,0
1523627308246,-589824,119,-56,-1,-1,0
1523627308246,-655360,119,-56,-1,-1,0
1523627308246,-655360,119,-56,-1,-1,0
1523627308286,-655360,119,-56,-1,-1,0
1523627308286,-720896,119,-56,-1,-1,0
1523627308286,-786432,119,-56,-1,-1,0
1523627308286,-655360,119,-56,-1,-1,0
1523627308286,-589824,119,-56,-1,-1,0
1523627308328,-589824,119,-56,-1,-1,0
1523627308328,-589824,119,-56,-1,-1,0
1523627308328,-589824,119,-56,-1,-1,0
1523627308328,-589824,119,-56,-1,-1,0
1523627308328,-655360,119,-56,-1,-1,0
1523627308366,-655360,119,-56,-1,-1,0
1523627308366,-720896,119,-56,-1,-1,0
1523627308366,-720896,119,-56,-1,-1,0
1523627308366,-720896,119,-56,-1,-1,0
1523627308366,-786432,119,-56,-1,-1,0
1523627308406,-786432,119,-56,-1,-1,0
1523627308406,-655360,119,-56,-1,-1,0
1523627308406,-655360,119,-56,-1,-1,0
1523627308406,-786432,119,-56,-1,-1,0
1523627308406,-851968,119,-56,-1,-1,0
1523627308446,-983040,119,-56,-1,-1,0
1523627308446,-983040,119,-56,-1,-1,0
1523627308446,-917504,119,-56,-1,-1,0
1523627308446,-1048576,119,-56,-1,-1,0
1523627308446,-1507328,119,-56,-1,-1,0
1523627308486,-1769472,119,-56,-1,-1,0
1523627308486,-983040,119,-56,-1,-1,0
1523627308486,1310720,119,-56,-1,-1,0
1523627308486,3866624,119,-56,-1,-1,0
1523627308486,3473408,119,-56,-1,-1,0
1523627308526,720896,119,-56,-1,-1,0
1523627308526,-1507328,119,-56,-1,-1,0
1523627308526,-1835008,119,-56,-1,-1,0
1523627308526,-1572864,119,-56,-1,-1,0
1523627308526,-1310720,119,-56,-1,-1,0
1523627308566,-1179648,119,-56,-1,-1,0
1523627308566,-1179648,119,-56,-1,-1,0
1523627308566,-1179648,119,-56,-1,-1,0
1523627308566,-1114112,119,-56,-1,-1,0
1523627308566,-1048576,119,-56,-1,-1,0
1523627308606,-1048576,119,-56,-1,-1,0
1523627308606,-983040,119,-56,-1,-1,0
1523627308606,-917504,119,-56,-1,-1,0
1523627308606,-917504,119,-56,-1,-1,0
1523627308606,-851968,119,-56,-1,-1,0
1523627308646,-720896,119,-56,-1,-1,0
1523627308646,-458752,119,-56,-1,-1,0
1523627308646,-196608,119,-56,-1,-1,0
1523627308646,131072,119,-56,-1,-1,0
1523627308646,393216,119,-56,-1,-1,0
1523627308686,589824,119,-56,-1,-1,0
1523627308686,720896,119,-56,-1,-1,0
1523627308686,851968,119,-56,-1,-1,0
1523627308686,851968,119,-56,-1,-1,0
1523627308686,655360,119,-56,-1,-1,0
1523627308726,262144,119,-56,-1,-1,0
1523627308726,65536,119,-56,-1,-1,0
1523627308726,-131072,119,-56,-1,-1,0
1523627308726,-327680,119,-56,-1,-1,0
1523627308726,-589824,119,-56,-1,-1,0
1523627308772,-655360,119,-56,-1,-1,0
1523627308772,-720896,119,-56,-1,-1,0
1523627308772,-720896,119,-56,-1,-1,0
1523627308772,-720896,119,-56,-1,-1,0
1523627308772,-655360,119,-56,-1,-1,0
1523627308806,-720896,119,-56,-1,-1,0
1523627308806,-655360,119,-56,-1,-1,0
1523627308806,-589824,119,-56,-1,-1,0
1523627308806,-589824,119,-56,-1,-1,0
1523627308806,-524288,119,-56,-1,-1,0
1523627308846,-458752,119,-56,-1,-1,0
1523627308846,-393216,119,-56,-1,-1,0
1523627308846,-393216,119,-56,-1,-1,0
1523627308846,-458752,119,-56,-1,-1,0
1523627308846,-458752,119,-56,-1,-1,0
1523627308886,-458752,119,-56,-1,-1,0
1523627308886,-458752,119,-56,-1,-1,0
1523627308886,-393216,119,-56,-1,-1,0
1523627308886,-458752,119,-56,-1,-1,0
1523627308886,-458752,119,-56,-1,-1,0
1523627308926,-524288,119,-56,-1,-1,0
1523627308926,-458752,119,-56,-1,-1,0
1523627308926,-458752,119,-56,-1,-1,0
1523627308926,-458752,119,-56,-1,-1,0
1523627308926,-458752,119,-56,-1,-1,0
1523627308966,-524288,119,-56,-1,-1,0
1523627308966,-786432,119,-56,-1,-1,0
1523627308966,-786432,119,-56,-1,-1,0
1523627308966,196608,119,-56,-1,-1,0
1523627308966,2752512,119,-56,-1,-1,0
1523627309006,4456448,119,-56,-1,-1,0
1523627309006,3014656,119,-56,-1,-1,0
1523627309006,-131072,119,-56,-1,-1,0
1523627309006,-1769472,119,-56,-1,-1,0
1523627309006,-1638400,119,-56,-1,-1,0
1523627309046,-983040,119,-56,-1,-1,0
1523627309046,-589824,119,-56,-1,-1,0
1523627309046,-458752,119,-56,-1,-1,0
1523627309046,-524288,119,-56,-1,-1,0
1523627309046,-589824,119,-56,-1,-1,0
1523627309086,-589824,119,-56,-1,-1,0
1523627309086,-458752,119,-56,-1,-1,0
1523627309086,-327680,119,-56,-1,-1,0
1523627309086,-196608,119,-56,-1,-1,0
1523627309086,-131072,119,-56,-1,-1,0
1523627309126,-65536,119,-56,-1,-1,0
1523627309126,-65536,119,-56,-1,-1,0
1523627309126,0,119,-56,-1,-1,0
1523627309126,262144,119,-56,-1,-1,0
1523627309126,524288,119,-56,-1,-1,0
1523627309166,917504,119,-56,-1,-1,0
1523627309166,1245184,119,-56,-1,-1,0
1523627309166,1507328,119,-56,-1,-1,0
1523627309166,1638400,119,-56,-1,-1,0
1523627309166,1638400,119,-56,-1,-1,0
1523627309206,1507328,119,-56,-1,-1,0
1523627309206,1245184,119,-56,-1,-1,0
1523627309206,851968,119,-56,-1,-1,0
1523627309206,458752,119,-56,-1,-1,0
1523627309206,196608,119,-56,-1,-1,0
1523627309246,0,119,-56,-1,-1,0
1523627309246,-131072,119,-56,-1,-1,0
1523627309246,-196608,119,-56,-1,-1,0
1523627309246,-196608,119,-56,-1,-1,0
1523627309246,-196608,119,-56,-1,-1,0
1523627309286,-196608,119,-56,-1,-1,0
1523627309286,-196608,119,-56,-1,-1,0
1523627309286,-196608,119,-56,-1,-1,0
1523627309286,-131072,119,-56,-1,-1,0
1523627309286,-65536,119,-56,-1,-1,0
1523627309326,0,119,-56,-1,-1,0
1523627309326,65536,119,-56,-1,-1,0
1523627309326,0,119,-56,-1,-1,0
1523627309326,0,119,-56,-1,-1,0
1523627309326,-65536,119,-56,-1,-1,0
1523627309366,-131072,119,-56,-1,-1,0
1523627309366,-196608,119,-56,-1,-1,0
1523627309366,-196608,119,-56,-1,-1,0
1523627309366,-262144,119,-56,-1,-1,0
1523627309366,-262144,119,-56,-1,-1,0
1523627309411,-262144,119,-56,-1,-1,0
1523627309411,-262144,119,-56,-1,-1,0
1523627309411,-327680,119,-56,-1,-1,0
1523627309411,-327680,119,-56,-1,-1,0
1523627309411,-393216,119,-56,-1,-1,0
1523627309446,-393216,119,-56,-1,-1,0
1523627309446,-327680,119,-56,-1,-1,0
1523627309446,-327680,119,-56,-1,-1,0
1523627309446,-589824,119,-56,-1,-1,0
1523627309446,-1048576,119,-56,-1,-1,0
1523627309486,-917504,119,-56,-1,-1,0
1523627309486,786432,119,-56,-1,-1,0
1523627309486,3866624,119,-56,-1,-1,0
1523627309486,5439488,119,-56,-1,-1,0
1523627309486,3407872,119,-56,-1,-1,0
1523627309526,131072,119,-56,-1,-1,0
1523627309526,-1114112,119,-56,-1,-1,0
1523627309526,-983040,119,-56,-1,-1,0
1523627309526,-720896,119,-56,-1,-1,0
1523627309526,-524288,119,-56,-1,-1,0
1523627309568,-458752,119,-56,-1,-1,0
1523627309568,-393216,119,-56,-1,-1,0
1523627309568,-393216,119,-56,-1,-1,0
1523627309568,-393216,119,-56,-1,-1,0
1523627309568,-393216,119,-56,-1,-1,0
1523627309608,-393216,119,-56,-1,-1,0
1523627309608,-327680,119,-56,-1,-1,0
1523627309608,-196608,119,-56,-1,-1,0
1523627309608,0,119,-56,-1,-1,0
1523627309608,65536,119,-56,-1,-1,0
1523627309646,196608,119,-56,-1,-1,0
1523627309646,393216,119,-56,-1,-1,0
1523627309646,655360,119,-56,-1,-1,0
1523627309646,983040,119,-56,-1,-1,0
1523627309646,1310720,119,-56,-1,-1,0
1523627309686,1507328,119,-56,-1,-1,0
