milliseconds, ECG, ECG HR, PPG, PPG HR, SpO2, PI
1523615548341,2686976,81,-56,-1,-1,0
1523615548341,2621440,81,-56,-1,-1,0
1523615548341,2359296,81,-56,-1,-1,0
1523615548341,1835008,81,-56,-1,-1,0
1523615548341,1245184,81,-56,-1,-1,0
1523615548381,655360,81,-56,-1,-1,0
1523615548381,262144,81,-56,-1,-1,0
1523615548381,-65536,81,-56,-1,-1,0
1523615548381,-262144,81,-56,-1,-1,0
1523615548381,-393216,81,-56,-1,-1,0
1523615548421,-458752,81,-56,-1,-1,0
1523615548421,-524288,81,-56,-1,-1,0
1523615548421,-589824,81,-56,-1,-1,0
1523615548421,-589824,81,-56,-1,-1,0
1523615548421,-655360,81,-56,-1,-1,0
1523615548470,-655360,81,-56,-1,-1,0
1523615548470,-655360,81,-56,-1,-1,0
1523615548470,-655360,81,-56,-1,-1,0
1523615548470,-655360,81,-56,-1,-1,0
1523615548470,-589824,81,-56,-1,-1,0
1523615548501,-589824,81,-56,-1,-1,0
1523615548501,-589824,81,-56,-1,-1,0
1523615548501,-524288,81,-56,-1,-1,0
1523615548501,-524288,81,-56,-1,-1,0
1523615548501,-524288,81,-56,-1,-1,0
1523615548541,-524288,81,-56,-1,-1,0
1523615548541,-524288,81,-56,-1,-1,0
1523615548541,-524288,81,-56,-1,-1,0
1523615548541,-524288,81,-56,-1,-1,0
1523615548541,-524288,81,-56,-1,-1,0
1523615548581,-524288,81,-56,-1,-1,0
1523615548581,-524288,81,-56,-1,-1,0
1523615548581,-589824,81,-56,-1,-1,0
1523615548581,-589824,81,-56,-1,-1,0
1523615548581,-589824,81,-56,-1,-1,0
1523615548621,-589824,81,-56,-1,-1,0
1523615548621,-655360,81,-56,-1,-1,0
1523615548621,-655360,81,-56,-1,-1,0
1523615548621,-655360,81,-56,-1,-1,0
1523615548621,-655360,81,-56,-1,-1,0
1523615548661,-655360,81,-56,-1,-1,0
1523615548661,-655360,81,-56,-1,-1,0
1523615548661,-655360,81,-56,-1,-1,0
1523615548661,-720896,81,-56,-1,-1,0
1523615548661,-786432,81,-56,-1,-1,0
1523615548702,-786432,81,-56,-1,-1,0
1523615548702,-786432,81,-56,-1,-1,0
1523615548702,-720896,81,-56,-1,-1,0
1523615548702,-655360,81,-56,-1,-1,0
1523615548702,-589824,81,-56,-1,-1,0
1523615548741,-524288,81,-56,-1,-1,0
1523615548741,-458752,81,-56,-1,-1,0
1523615548741,-524288,81,-56,-1,-1,0
1523615548741,-655360,81,-56,-1,-1,0
1523615548741,-720896,81,-56,-1,-1,0
1523615548781,-786432,81,-56,-1,-1,0
1523615548781,-786432,81,-56,-1,-1,0
1523615548781,-786432,81,-56,-1,-1,0
1523615548781,-786432,81,-56,-1,-1,0
1523615548781,-720896,81,-56,-1,-1,0
1523615548821,-786432,81,-56,-1,-1,0
1523615548821,-720896,81,-56,-1,-1,0
1523615548821,393216,81,-56,-1,-1,0
1523615548821,3604480,81,-56,-1,-1,0
1523615548821,7012352,81,-56,-1,-1,0
1523615548861,7471104,81,-56,-1,-1,0
1523615548861,4521984,81,-56,-1,-1,0
1523615548861,1179648,81,-56,-1,-1,0
1523615548861,-327680,81,-56,-1,-1,0
1523615548861,-655360,81,-56,-1,-1,0
1523615548902,-589824,81,-56,-1,-1,0
1523615548902,-655360,81,-56,-1,-1,0
1523615548902,-786432,81,-56,-1,-1,0
1523615548902,-786432,81,-56,-1,-1,0
1523615548902,-720896,81,-56,-1,-1,0
1523615548944,-524288,81,-56,-1,-1,0
1523615548944,-327680,81,-56,-1,-1,0
1523615548944,-327680,81,-56,-1,-1,0
1523615548944,-262144,81,-56,-1,-1,0
1523615548944,-131072,81,-56,-1,-1,0
1523615548981,-65536,81,-56,-1,-1,0
1523615548981,0,81,-56,-1,-1,0
1523615548981,65536,81,-56,-1,-1,0
1523615548981,262144,81,-56,-1,-1,0
1523615548981,720896,81,-56,-1,-1,0
1523615549021,1179648,81,-56,-1,-1,0
1523615549021,1572864,81,-56,-1,-1,0
1523615549021,1835008,81,-56,-1,-1,0
1523615549021,2228224,81,-56,-1,-1,0
1523615549021,2490368,81,-56,-1,-1,0
1523615549061,2686976,81,-56,-1,-1,0
1523615549061,2621440,81,-56,-1,-1,0
1523615549061,2228224,81,-56,-1,-1,0
1523615549061,1703936,81,-56,-1,-1,0
1523615549061,917504,81,-56,-1,-1,0
1523615549112,458752,81,-56,-1,-1,0
1523615549112,262144,81,-56,-1,-1,0
1523615549112,65536,81,-56,-1,-1,0
1523615549112,-196608,81,-56,-1,-1,0
1523615549112,-262144,81,-56,-1,-1,0
1523615549139,-327680,81,-56,-1,-1,0
1523615549139,-393216,81,-56,-1,-1,0
1523615549139,-524288,81,-56,-1,-1,0
1523615549139,-851968,81,-56,-1,-1,0
1523615549139,-1048576,81,-56,-1,-1,0
1523615549181,-851968,81,-56,-1,-1,0
1523615549181,-262144,81,-56,-1,-1,0
1523615549181,-262144,81,-56,-1,-1,0
1523615549181,-458752,81,-56,-1,-1,0
1523615549181,-327680,81,-56,-1,-1,0
1523615549221,-196608,81,-56,-1,-1,0
1523615549221,-524288,81,-56,-1,-1,0
1523615549221,-851968,81,-56,-1,-1,0
1523615549221,-655360,81,-56,-1,-1,0
1523615549221,-262144,81,-56,-1,-1,0
1523615549261,-393216,81,-56,-1,-1,0
1523615549261,-655360,81,-56,-1,-1,0
1523615549261,-720896,81,-56,-1,-1,0
1523615549261,-655360,81,-56,-1,-1,0
1523615549261,-524288,81,-56,-1,-1,0
1523615549304,-524288,81,-56,-1,-1,0
1523615549304,-589824,81,-56,-1,-1,0
1523615549304,-589824,81,-56,-1,-1,0
1523615549304,-524288,81,-56,-1,-1,0
1523615549304,-720896,81,-56,-1,-1,0
1523615549341,-917504,81,-56,-1,-1,0
1523615549341,-917504,81,-56,-1,-1,0
1523615549341,-851968,81,-56,-1,-1,0
1523615549341,-983040,81,-56,-1,-1,0
1523615549341,-917504,81,-56,-1,-1,0
1523615549381,-917504,81,-56,-1,-1,0
1523615549381,-851968,81,-56,-1,-1,0
1523615549381,-851968,81,-56,-1,-1,0
1523615549381,-917504,81,-56,-1,-1,0
1523615549381,-786432,81,-56,-1,-1,0
1523615549422,-655360,81,-56,-1,-1,0
1523615549422,-720896,81,-56,-1,-1,0
1523615549422,-786432,81,-56,-1,-1,0
1523615549422,-983040,81,-56,-1,-1,0
1523615549422,-1179648,81,-56,-1,-1,0
1523615549461,-1048576,81,-56,-1,-1,0
1523615549461,-851968,81,-56,-1,-1,0
1523615549461,-851968,81,-56,-1,-1,0
1523615549461,-917504,81,-56,-1,-1,0
1523615549461,-1048576,81,-56,-1,-1,0
1523615549501,-1245184,81,-56,-1,-1,0
1523615549501,-589824,81,-56,-1,-1,0
1523615549501,1638400,81,-56,-1,-1,0
1523615549501,5046272,81,-56,-1,-1,0
1523615549501,7143424,81,-56,-1,-1,0
1523615549542,5439488,81,-56,-1,-1,0
1523615549542,2031616,81,-56,-1,-1,0
1523615549542,-393216,81,-56,-1,-1,0
1523615549542,-917504,81,-56,-1,-1,0
1523615549542,-983040,81,-56,-1,-1,0
1523615549581,-983040,81,-56,-1,-1,0
1523615549581,-917504,81,-56,-1,-1,0
1523615549581,-851968,81,-56,-1,-1,0
1523615549581,-851968,81,-56,-1,-1,0
1523615549581,-917504,81,-56,-1,-1,0
1523615549621,-983040,81,-56,-1,-1,0
1523615549621,-851968,81,-56,-1,-1,0
1523615549621,-458752,81,-56,-1,-1,0
1523615549621,-196608,81,-56,-1,-1,0
1523615549621,-196608,81,-56,-1,-1,0
1523615549661,-131072,81,-56,-1,-1,0
1523615549661,0,81,-56,-1,-1,0
1523615549661,131072,81,-56,-1,-1,0
1523615549661,393216,81,-56,-1,-1,0
1523615549661,720896,81,-56,-1,-1,0
1523615549702,1245184,81,-56,-1,-1,0
1523615549702,1835008,81,-56,-1,-1,0
1523615549702,2162688,81,-56,-1,-1,0
1523615549702,2424832,81,-56,-1,-1,0
1523615549702,2424832,81,-56,-1,-1,0
1523615549756,2359296,81,-56,-1,-1,0
1523615549756,2097152,81,-56,-1,-1,0
1523615549756,1703936,81,-56,-1,-1,0
1523615549756,1114112,81,-56,-1,-1,0
1523615549756,589824,81,-56,-1,-1,0
1523615549781,131072,81,-56,-1,-1,0
1523615549781,-327680,81,-56,-1,-1,0
1523615549781,-524288,81,-56,-1,-1,0
1523615549781,-524288,81,-56,-1,-1,0
1523615549781,-524288,81,-56,-1,-1,0
1523615549822,-655360,81,-56,-1,-1,0
1523615549822,-720896,81,-56,-1,-1,0
1523615549822,-786432,81,-56,-1,-1,0
1523615549822,-720896,81,-56,-1,-1,0
1523615549822,-786432,81,-56,-1,-1,0
1523615549861,-851968,81,-56,-1,-1,0
1523615549861,-851968,81,-56,-1,-1,0
1523615549861,-786432,81,-56,-1,-1,0
1523615549861,-786432,81,-56,-1,-1,0
1523615549861,-786432,81,-56,-1,-1,0
1523615549902,-655360,81,-56,-1,-1,0
1523615549902,-655360,81,-56,-1,-1,0
1523615549902,-655360,81,-56,-1,-1,0
1523615549902,-655360,81,-56,-1,-1,0
1523615549902,-655360,81,-56,-1,-1,0
1523615549941,-720896,81,-56,-1,-1,0
1523615549941,-786432,81,-56,-1,-1,0
1523615549941,-720896,81,-56,-1,-1,0
1523615549941,-720896,81,-56,-1,-1,0
1523615549941,-786432,81,-56,-1,-1,0
1523615549981,-851968,81,-56,-1,-1,0
1523615549981,-851968,81,-56,-1,-1,0
1523615549981,-851968,81,-56,-1,-1,0
1523615549981,-851968,81,-56,-1,-1,0
1523615549981,-917504,81,-56,-1,-1,0
1523615550021,-917504,81,-56,-1,-1,0
1523615550021,-851968,81,-56,-1,-1,0
1523615550021,-720896,81,-56,-1,-1,0
1523615550021,-720896,81,-56,-1,-1,0
1523615550021,-720896,81,-56,-1,-1,0
1523615550061,-655360,81,-56,-1,-1,0
1523615550061,-720896,81,-56,-1,-1,0
1523615550061,-786432,81,-56,-1,-1,0
1523615550061,-851968,81,-56,-1,-1,0
1523615550061,-917504,81,-56,-1,-1,0
1523615550101,-917504,81,-56,-1,-1,0
1523615550101,-917504,81,-56,-1,-1,0
1523615550101,-917504,81,-56,-1,-1,0
1523615550101,-917504,81,-56,-1,-1,0
1523615550101,-983040,81,-56,-1,-1,0
1523615550139,-917504,81,-56,-1,-1,0
1523615550139,65536,81,-56,-1,-1,0
1523615550139,2818048,81,-56,-1,-1,0
1523615550139,6029312,81,-56,-1,-1,0
1523615550139,6750208,81,-56,-1,-1,0
1523615550181,3997696,81,-56,-1,-1,0
1523615550181,720896,81,-56,-1,-1,0
1523615550181,-720896,81,-56,-1,-1,0
1523615550181,-917504,81,-56,-1,-1,0
1523615550181,-851968,81,-56,-1,-1,0
1523615550219,-786432,81,-56,-1,-1,0
1523615550219,-720896,81,-56,-1,-1,0
1523615550219,-720896,81,-56,-1,-1,0
1523615550219,-589824,81,-56,-1,-1,0
1523615550219,-458752,81,-56,-1,-1,0
1523615550261,-393216,81,-56,-1,-1,0
1523615550261,-262144,81,-56,-1,-1,0
1523615550261,-262144,81,-56,-1,-1,0
1523615550261,-262144,81,-56,-1,-1,0
1523615550261,-262144,81,-56,-1,-1,0
1523615550299,-65536,81,-56,-1,-1,0
1523615550299,131072,81,-56,-1,-1,0
1523615550299,458752,81,-56,-1,-1,0
1523615550299,786432,81,-56,-1,-1,0
1523615550299,1179648,81,-56,-1,-1,0
1523615550341,1638400,81,-56,-1,-1,0
1523615550341,2031616,81,-56,-1,-1,0
1523615550341,2359296,81,-56,-1,-1,0
1523615550341,2555904,81,-56,-1,-1,0
1523615550341,2621440,81,-56,-1,-1,0
1523615550389,2424832,81,-56,-1,-1,0
1523615550389,2031616,81,-56,-1,-1,0
1523615550389,1507328,81,-56,-1,-1,0
1523615550389,917504,81,-56,-1,-1,0
1523615550389,393216,81,-56,-1,-1,0
1523615550421,0,81,-56,-1,-1,0
1523615550421,-262144,81,-56,-1,-1,0
1523615550421,-327680,81,-56,-1,-1,0
1523615550421,-458752,81,-56,-1,-1,0
1523615550421,-524288,81,-56,-1,-1,0
1523615550461,-589824,81,-56,-1,-1,0
1523615550461,-655360,81,-56,-1,-1,0
1523615550461,-720896,81,-56,-1,-1,0
1523615550461,-720896,81,-56,-1,-1,0
1523615550461,-589824,81,-56,-1,-1,0
1523615550501,-589824,81,-56,-1,-1,0
1523615550501,-655360,81,-56,-1,-1,0
1523615550501,-589824,81,-56,-1,-1,0
1523615550501,-589824,81,-56,-1,-1,0
1523615550501,-589824,81,-56,-1,-1,0
1523615550539,-589824,81,-56,-1,-1,0
1523615550539,-589824,81,-56,-1,-1,0
1523615550539,-589824,81,-56,-1,-1,0
1523615550539,-589824,81,-56,-1,-1,0
1523615550539,-589824,81,-56,-1,-1,0
1523615550580,-655360,81,-56,-1,-1,0
1523615550580,-655360,81,-56,-1,-1,0
1523615550580,-720896,81,-56,-1,-1,0
1523615550580,-720896,81,-56,-1,-1,0
1523615550580,-720896,81,-56,-1,-1,0
1523615550619,-851968,81,-56,-1,-1,0
1523615550619,-983040,81,-56,-1,-1,0
1523615550619,-983040,81,-56,-1,-1,0
1523615550619,-851968,81,-56,-1,-1,0
1523615550619,-786432,81,-56,-1,-1,0
1523615550660,-786432,81,-56,-1,-1,0
1523615550660,-786432,81,-56,-1,-1,0
1523615550660,-720896,81,-56,-1,-1,0
1523615550660,-786432,81,-56,-1,-1,0
1523615550660,-917504,81,-56,-1,-1,0
1523615550699,-1048576,81,-56,-1,-1,0
1523615550699,-1179648,81,-56,-1,-1,0
1523615550699,-1245184,81,-56,-1,-1,0
1523615550699,-1179648,81,-56,-1,-1,0
1523615550699,-1048576,81,-56,-1,-1,0
1523615550739,-1048576,81,-56,-1,-1,0
1523615550739,-1048576,81,-56,-1,-1,0
1523615550739,-1114112,81,-56,-1,-1,0
1523615550739,-458752,81,-56,-1,-1,0
1523615550739,1966080,81,-56,-1,-1,0
1523615550779,5439488,81,-56,-1,-1,0
1523615550779,6815744,81,-56,-1,-1,0
1523615550779,4521984,81,-56,-1,-1,0
1523615550779,1048576,81,-56,-1,-1,0
1523615550779,-917504,81,-56,-1,-1,0
1523615550820,-1376256,81,-56,-1,-1,0
1523615550820,-1310720,81,-56,-1,-1,0
1523615550820,-1245184,81,-56,-1,-1,0
1523615550820,-1179648,81,-56,-1,-1,0
1523615550820,-1179648,81,-56,-1,-1,0
1523615550859,-1114112,81,-56,-1,-1,0
1523615550859,-1048576,81,-56,-1,-1,0
1523615550859,-1048576,81,-56,-1,-1,0
1523615550859,-983040,81,-56,-1,-1,0
1523615550859,-917504,81,-56,-1,-1,0
1523615550900,-851968,81,-56,-1,-1,0
1523615550900,-655360,81,-56,-1,-1,0
1523615550900,-458752,81,-56,-1,-1,0
1523615550900,-262144,81,-56,-1,-1,0
1523615550900,-65536,81,-56,-1,-1,0
1523615550939,196608,81,-56,-1,-1,0
1523615550939,655360,81,-56,-1,-1,0
1523615550939,1048576,81,-56,-1,-1,0
1523615550939,1507328,81,-56,-1,-1,0
1523615550939,1900544,81,-56,-1,-1,0
1523615550981,2162688,81,-56,-1,-1,0
1523615550981,2162688,81,-56,-1,-1,0
1523615550981,1966080,81,-56,-1,-1,0
1523615550981,1572864,81,-56,-1,-1,0
1523615550981,1048576,81,-56,-1,-1,0
1523615551029,524288,81,-56,-1,-1,0
1523615551029,131072,81,-56,-1,-1,0
1523615551029,-262144,81,-56,-1,-1,0
1523615551029,-589824,81,-56,-1,-1,0
1523615551029,-851968,81,-56,-1,-1,0
1523615551061,-983040,81,-56,-1,-1,0
1523615551061,-1114112,81,-56,-1,-1,0
1523615551061,-1179648,81,-56,-1,-1,0
1523615551061,-1114112,81,-56,-1,-1,0
1523615551061,-983040,81,-56,-1,-1,0
1523615551099,-1048576,81,-56,-1,-1,0
1523615551099,-1048576,81,-56,-1,-1,0
1523615551099,-1048576,81,-56,-1,-1,0
1523615551099,-983040,81,-56,-1,-1,0
1523615551099,-917504,81,-56,-1,-1,0
1523615551140,-983040,81,-56,-1,-1,0
1523615551140,-1048576,81,-56,-1,-1,0
1523615551140,-983040,81,-56,-1,-1,0
1523615551140,-851968,81,-56,-1,-1,0
1523615551140,-720896,81,-56,-1,-1,0
1523615551179,-786432,81,-56,-1,-1,0
1523615551179,-851968,81,-56,-1,-1,0
1523615551179,-786432,81,-56,-1,-1,0
1523615551179,-655360,81,-56,-1,-1,0
1523615551179,-851968,81,-56,-1,-1,0
1523615551219,-1048576,81,-56,-1,-1,0
1523615551219,-1114112,81,-56,-1,-1,0
1523615551219,-1114112,81,-56,-1,-1,0
1523615551219,-917504,81,-56,-1,-1,0
1523615551219,-720896,81,-56,-1,-1,0
1523615551259,-589824,81,-56,-1,-1,0
1523615551259,-589824,81,-56,-1,-1,0
1523615551259,-655360,81,-56,-1,-1,0
1523615551259,-851968,81,-56,-1,-1,0
1523615551259,-983040,81,-56,-1,-1,0
1523615551299,-983040,81,-56,-1,-1,0
1523615551299,-917504,81,-56,-1,-1,0
1523615551299,-851968,81,-56,-1,-1,0
1523615551299,-786432,81,-56,-1,-1,0
1523615551299,-720896,81,-56,-1,-1,0
1523615551339,-655360,81,-56,-1,-1,0
1523615551339,-589824,81,-56,-1,-1,0
1523615551339,0,81,-56,-1,-1,0
1523615551339,2424832,81,-56,-1,-1,0
1523615551339,6291456,81,-56,-1,-1,0
1523615551379,8060928,81,-56,-1,-1,0
1523615551379,5636096,81,-56,-1,-1,0
1523615551379,1572864,81,-56,-1,-1,0
1523615551379,-589824,81,-56,-1,-1,0
1523615551379,-655360,81,-56,-1,-1,0
1523615551419,-262144,81,-56,-1,-1,0
1523615551419,-131072,81,-56,-1,-1,0
1523615551419,-327680,81,-56,-1,-1,0
1523615551419,-458752,81,-56,-1,-1,0
1523615551419,-393216,81,-56,-1,-1,0
1523615551459,-196608,81,-56,-1,-1,0
1523615551459,-131072,81,-56,-1,-1,0
1523615551459,-196608,81,-56,-1,-1,0
1523615551459,0,81,-56,-1,-1,0
1523615551459,131072,81,-56,-1,-1,0
1523615551499,262144,81,-56,-1,-1,0
1523615551499,327680,81,-56,-1,-1,0
1523615551499,524288,81,-56,-1,-1,0
1523615551499,851968,81,-56,-1,-1,0
1523615551499,1310720,81,-56,-1,-1,0
1523615551541,1769472,81,-56,-1,-1,0
1523615551541,2228224,81,-56,-1,-1,0
1523615551541,2949120,81,-56,-1,-1,0
1523615551541,3538944,81,-56,-1,-1,0
1523615551541,3801088,81,-56,-1,-1,0
1523615551579,3801088,81,-56,-1,-1,0
1523615551579,3670016,81,-56,-1,-1,0
1523615551579,3080192,81,-56,-1,-1,0
1523615551579,2162688,81,-56,-1,-1,0
1523615551579,1441792,81,-56,-1,-1,0
1523615551621,983040,81,-56,-1,-1,0
1523615551621,524288,81,-56,-1,-1,0
1523615551621,131072,81,-56,-1,-1,0
1523615551621,65536,81,-56,-1,-1,0
1523615551621,0,81,-56,-1,-1,0
1523615551669,-196608,81,-56,-1,-1,0
1523615551669,-327680,81,-56,-1,-1,0
1523615551669,-262144,81,-56,-1,-1,0
1523615551669,-327680,81,-56,-1,-1,0
1523615551669,-458752,81,-56,-1,-1,0
1523615551699,-458752,81,-56,-1,-1,0
1523615551699,-393216,81,-56,-1,-1,0
1523615551699,-393216,81,-56,-1,-1,0
1523615551699,-262144,81,-56,-1,-1,0
1523615551699,-131072,81,-56,-1,-1,0
1523615551739,-196608,81,-56,-1,-1,0
1523615551739,-393216,81,-56,-1,-1,0
1523615551739,-393216,81,-56,-1,-1,0
1523615551739,-393216,81,-56,-1,-1,0
1523615551739,-458752,81,-56,-1,-1,0
1523615551781,-524288,82,-56,-1,-1,0
1523615551781,-458752,82,-56,-1,-1,0
1523615551781,-524288,82,-56,-1,-1,0
1523615551781,-327680,82,-56,-1,-1,0
1523615551781,-327680,82,-56,-1,-1,0
1523615551819,-524288,82,-56,-1,-1,0
1523615551819,-720896,82,-56,-1,-1,0
1523615551819,-458752,82,-56,-1,-1,0
1523615551819,-262144,82,-56,-1,-1,0
1523615551819,-393216,82,-56,-1,-1,0
1523615551862,-589824,82,-56,-1,-1,0
1523615551862,-786432,82,-56,-1,-1,0
1523615551862,-786432,82,-56,-1,-1,0
1523615551862,-786432,82,-56,-1,-1,0
1523615551862,-786432,82,-56,-1,-1,0
1523615551899,-720896,82,-56,-1,-1,0
1523615551899,-524288,82,-56,-1,-1,0
1523615551899,-524288,82,-56,-1,-1,0
1523615551899,-786432,82,-56,-1,-1,0
1523615551899,0,82,-56,-1,-1,0
1523615551939,3080192,82,-56,-1,-1,0
1523615551939,7143424,82,-56,-1,-1,0
1523615551939,8519680,82,-56,-1,-1,0
1523615551939,5308416,82,-56,-1,-1,0
1523615551939,917504,82,-56,-1,-1,0
1523615551979,-1441792,82,-56,-1,-1,0
1523615551979,-1572864,82,-56,-1,-1,0
1523615551979,-1114112,82,-56,-1,-1,0
1523615551979,-720896,82,-56,-1,-1,0
1523615551979,-524288,82,-56,-1,-1,0
1523615552019,-589824,82,-56,-1,-1,0
1523615552019,-458752,82,-56,-1,-1,0
1523615552019,-458752,82,-56,-1,-1,0
1523615552019,-524288,82,-56,-1,-1,0
1523615552019,-393216,82,-56,-1,-1,0
1523615552059,-196608,82,-56,-1,-1,0
1523615552059,-65536,82,-56,-1,-1,0
1523615552059,131072,82,-56,-1,-1,0
1523615552059,458752,82,-56,-1,-1,0
1523615552059,720896,82,-56,-1,-1,0
1523615552099,983040,82,-56,-1,-1,0
1523615552099,1376256,82,-56,-1,-1,0
1523615552099,1966080,82,-56,-1,-1,0
1523615552099,2555904,82,-56,-1,-1,0
1523615552099,3014656,82,-56,-1,-1,0
1523615552140,3473408,82,-56,-1,-1,0
1523615552140,3801088,82,-56,-1,-1,0
1523615552140,3604480,82,-56,-1,-1,0
1523615552140,3080192,82,-56,-1,-1,0
1523615552140,2555904,82,-56,-1,-1,0
1523615552180,1769472,82,-56,-1,-1,0
1523615552180,917504,82,-56,-1,-1,0
1523615552180,327680,82,-56,-1,-1,0
1523615552180,-65536,82,-56,-1,-1,0
1523615552180,-524288,82,-56,-1,-1,0
1523615552219,-851968,82,-56,-1,-1,0
1523615552219,-851968,82,-56,-1,-1,0
1523615552219,-851968,82,-56,-1,-1,0
1523615552219,-720896,82,-56,-1,-1,0
1523615552219,-851968,82,-56,-1,-1,0
1523615552259,-1048576,82,-56,-1,-1,0
1523615552259,-1245184,82,-56,-1,-1,0
1523615552259,-983040,82,-56,-1,-1,0
1523615552259,-851968,82,-56,-1,-1,0
1523615552259,-983040,82,-56,-1,-1,0
1523615552308,-1245184,82,-56,-1,-1,0
1523615552308,-1179648,82,-56,-1,-1,0
1523615552308,-983040,82,-56,-1,-1,0
1523615552308,-983040,82,-56,-1,-1,0
1523615552308,-1179648,82,-56,-1,-1,0
1523615552339,-1441792,84,-56,-1,-1,0
1523615552339,-1572864,84,-56,-1,-1,0
1523615552339,-1572864,84,-56,-1,-1,0
1523615552339,-1310720,84,-56,-1,-1,0
1523615552339,-1245184,84,-56,-1,-1,0
1523615552379,-1572864,84,-56,-1,-1,0
1523615552379,-1638400,84,-56,-1,-1,0
1523615552379,-1507328,84,-56,-1,-1,0
1523615552379,-1310720,84,-56,-1,-1,0
1523615552379,-1376256,84,-56,-1,-1,0
1523615552419,-1572864,84,-56,-1,-1,0
1523615552419,-1769472,84,-56,-1,-1,0
1523615552419,-2031616,84,-56,-1,-1,0
1523615552419,-1900544,84,-56,-1,-1,0
1523615552419,-2162688,84,-56,-1,-1,0
1523615552459,-2228224,84,-56,-1,-1,0
1523615552459,-1900544,84,-56,-1,-1,0
1523615552459,-1507328,84,-56,-1,-1,0
1523615552459,-1638400,84,-56,-1,-1,0
1523615552459,-1769472,84,-56,-1,-1,0
1523615552499,-589824,84,-56,-1,-1,0
1523615552499,2424832,84,-56,-1,-1,0
1523615552499,6094848,84,-56,-1,-1,0
1523615552499,7274496,84,-56,-1,-1,0
1523615552499,4521984,84,-56,-1,-1,0
1523615552539,327680,84,-56,-1,-1,0
1523615552539,-1572864,84,-56,-1,-1,0
1523615552539,-1638400,84,-56,-1,-1,0
1523615552539,-1441792,84,-56,-1,-1,0
1523615552539,-1376256,84,-56,-1,-1,0
1523615552579,-1245184,84,-56,-1,-1,0
1523615552579,-1245184,84,-56,-1,-1,0
1523615552579,-1310720,84,-56,-1,-1,0
1523615552579,-1245184,84,-56,-1,-1,0
1523615552579,-917504,84,-56,-1,-1,0
1523615552619,-983040,84,-56,-1,-1,0
1523615552619,-1114112,84,-56,-1,-1,0
1523615552619,-917504,84,-56,-1,-1,0
1523615552619,-458752,84,-56,-1,-1,0
1523615552619,-196608,84,-56,-1,-1,0
1523615552659,0,84,-56,-1,-1,0
1523615552659,262144,84,-56,-1,-1,0
1523615552659,720896,84,-56,-1,-1,0
1523615552659,1179648,84,-56,-1,-1,0
1523615552659,1572864,84,-56,-1,-1,0
1523615552699,1769472,84,-56,-1,-1,0
1523615552699,2097152,84,-56,-1,-1,0
1523615552699,2293760,84,-56,-1,-1,0
1523615552699,2359296,84,-56,-1,-1,0
1523615552699,2293760,84,-56,-1,-1,0
1523615552739,1900544,84,-56,-1,-1,0
1523615552739,1245184,84,-56,-1,-1,0
1523615552739,655360,84,-56,-1,-1,0
1523615552739,262144,84,-56,-1,-1,0
1523615552739,-131072,84,-56,-1,-1,0
1523615552779,-458752,84,-56,-1,-1,0
1523615552779,-786432,84,-56,-1,-1,0
1523615552779,-917504,84,-56,-1,-1,0
1523615552779,-917504,84,-56,-1,-1,0
1523615552779,-786432,84,-56,-1,-1,0
1523615552819,-851968,84,-56,-1,-1,0
1523615552819,-851968,84,-56,-1,-1,0
1523615552819,-786432,84,-56,-1,-1,0
1523615552819,-589824,84,-56,-1,-1,0
1523615552819,-655360,84,-56,-1,-1,0
1523615552859,-1048576,84,-56,-1,-1,0
1523615552859,-1179648,84,-56,-1,-1,0
1523615552859,-917504,84,-56,-1,-1,0
1523615552859,-851968,84,-56,-1,-1,0
1523615552859,-917504,84,-56,-1,-1,0
1523615552899,-851968,84,-56,-1,-1,0
1523615552899,-720896,84,-56,-1,-1,0
1523615552899,-917504,84,-56,-1,-1,0
1523615552899,-1048576,84,-56,-1,-1,0
1523615552899,-983040,84,-56,-1,-1,0
1523615552948,-851968,87,-56,-1,-1,0
1523615552948,-917504,87,-56,-1,-1,0
1523615552948,-786432,87,-56,-1,-1,0
1523615552948,-786432,87,-56,-1,-1,0
1523615552948,-786432,87,-56,-1,-1,0
1523615552979,-720896,87,-56,-1,-1,0
1523615552979,-720896,87,-56,-1,-1,0
1523615552979,-851968,87,-56,-1,-1,0
1523615552979,-983040,87,-56,-1,-1,0
1523615552979,-983040,87,-56,-1,-1,0
1523615553020,-917504,87,-56,-1,-1,0
1523615553020,-983040,87,-56,-1,-1,0
1523615553020,-1048576,87,-56,-1,-1,0
1523615553020,-983040,87,-56,-1,-1,0
1523615553020,-917504,87,-56,-1,-1,0
1523615553059,-1114112,87,-56,-1,-1,0
1523615553059,-720896,87,-56,-1,-1,0
1523615553059,1703936,87,-56,-1,-1,0
1523615553059,5636096,87,-56,-1,-1,0
1523615553059,7929856,87,-56,-1,-1,0
1523615553099,6225920,87,-56,-1,-1,0
1523615553099,2359296,87,-56,-1,-1,0
1523615553099,-196608,87,-56,-1,-1,0
1523615553099,-786432,87,-56,-1,-1,0
1523615553099,-655360,87,-56,-1,-1,0
1523615553139,-720896,87,-56,-1,-1,0
1523615553139,-786432,87,-56,-1,-1,0
1523615553139,-851968,87,-56,-1,-1,0
1523615553139,-786432,87,-56,-1,-1,0
1523615553139,-655360,87,-56,-1,-1,0
1523615553179,-524288,87,-56,-1,-1,0
1523615553179,-458752,87,-56,-1,-1,0
1523615553179,-458752,87,-56,-1,-1,0
1523615553179,-327680,87,-56,-1,-1,0
1523615553179,-131072,87,-56,-1,-1,0
1523615553219,-131072,87,-56,-1,-1,0
1523615553219,-131072,87,-56,-1,-1,0
1523615553219,196608,87,-56,-1,-1,0
1523615553219,720896,87,-56,-1,-1,0
1523615553219,1048576,87,-56,-1,-1,0
1523615553259,1245184,87,-56,-1,-1,0
1523615553259,1638400,87,-56,-1,-1,0
1523615553259,2097152,87,-56,-1,-1,0
1523615553259,2359296,87,-56,-1,-1,0
1523615553259,2228224,87,-56,-1,-1,0
1523615553299,2162688,87,-56,-1,-1,0
1523615553299,1966080,87,-56,-1,-1,0
1523615553299,1507328,87,-56,-1,-1,0
1523615553299,917504,87,-56,-1,-1,0
1523615553299,458752,87,-56,-1,-1,0
1523615553339,131072,87,-56,-1,-1,0
1523615553339,-65536,87,-56,-1,-1,0
1523615553339,-327680,87,-56,-1,-1,0
1523615553339,-458752,87,-56,-1,-1,0
1523615553339,-458752,87,-56,-1,-1,0
1523615553380,-655360,87,-56,-1,-1,0
1523615553380,-720896,87,-56,-1,-1,0
1523615553380,-589824,87,-56,-1,-1,0
1523615553380,-393216,87,-56,-1,-1,0
1523615553380,-393216,87,-56,-1,-1,0
1523615553419,-655360,87,-56,-1,-1,0
1523615553419,-720896,87,-56,-1,-1,0
1523615553419,-720896,87,-56,-1,-1,0
1523615553419,-589824,87,-56,-1,-1,0
1523615553419,-589824,87,-56,-1,-1,0
1523615553459,-589824,87,-56,-1,-1,0
1523615553459,-655360,87,-56,-1,-1,0
1523615553459,-851968,87,-56,-1,-1,0
1523615553459,-851968,87,-56,-1,-1,0
1523615553459,-655360,87,-56,-1,-1,0
1523615553499,-655360,87,-56,-1,-1,0
1523615553499,-917504,87,-56,-1,-1,0
1523615553499,-917504,87,-56,-1,-1,0
1523615553499,-851968,87,-56,-1,-1,0
1523615553499,-983040,87,-56,-1,-1,0
1523615553539,-1114112,90,-56,-1,-1,0
1523615553539,-1179648,90,-56,-1,-1,0
1523615553539,-1048576,90,-56,-1,-1,0
1523615553539,-917504,90,-56,-1,-1,0
1523615553539,-786432,90,-56,-1,-1,0
1523615553588,-917504,90,-56,-1,-1,0
1523615553588,-1114112,90,-56,-1,-1,0
1523615553588,-1376256,90,-56,-1,-1,0
1523615553588,-1310720,90,-56,-1,-1,0
1523615553588,-1114112,90,-56,-1,-1,0
1523615553620,-1114112,90,-56,-1,-1,0
1523615553620,-1114112,90,-56,-1,-1,0
1523615553620,-1114112,90,-56,-1,-1,0
1523615553620,-1179648,90,-56,-1,-1,0
1523615553620,-1310720,90,-56,-1,-1,0
1523615553659,-851968,90,-56,-1,-1,0
1523615553659,1310720,90,-56,-1,-1,0
1523615553659,5046272,90,-56,-1,-1,0
1523615553659,7340032,90,-56,-1,-1,0
1523615553659,5767168,90,-56,-1,-1,0
1523615553700,2031616,90,-56,-1,-1,0
1523615553700,-655360,90,-56,-1,-1,0
1523615553700,-1376256,90,-56,-1,-1,0
1523615553700,-1638400,90,-56,-1,-1,0
1523615553700,-1703936,90,-56,-1,-1,0
1523615553740,-1114112,90,-56,-1,-1,0
1523615553740,-720896,90,-56,-1,-1,0
1523615553740,-720896,90,-56,-1,-1,0
1523615553740,-786432,90,-56,-1,-1,0
1523615553740,-851968,90,-56,-1,-1,0
1523615553780,-1048576,90,-56,-1,-1,0
1523615553780,-917504,90,-56,-1,-1,0
1523615553780,-524288,90,-56,-1,-1,0
1523615553780,-458752,90,-56,-1,-1,0
1523615553780,-327680,90,-56,-1,-1,0
1523615553819,-262144,90,-56,-1,-1,0
1523615553819,0,90,-56,-1,-1,0
1523615553819,196608,90,-56,-1,-1,0
1523615553819,786432,90,-56,-1,-1,0
1523615553819,1376256,90,-56,-1,-1,0
1523615553859,1769472,90,-56,-1,-1,0
1523615553859,2097152,90,-56,-1,-1,0
1523615553859,2555904,90,-56,-1,-1,0
1523615553859,2818048,90,-56,-1,-1,0
1523615553859,2686976,90,-56,-1,-1,0
1523615553899,2228224,90,-56,-1,-1,0
1523615553899,1572864,90,-56,-1,-1,0
1523615553899,917504,90,-56,-1,-1,0
1523615553899,393216,90,-56,-1,-1,0
1523615553899,0,90,-56,-1,-1,0
1523615553939,-327680,90,-56,-1,-1,0
1523615553939,-524288,90,-56,-1,-1,0
1523615553939,-720896,90,-56,-1,-1,0
1523615553939,-851968,90,-56,-1,-1,0
1523615553939,-917504,90,-56,-1,-1,0
1523615553979,-917504,90,-56,-1,-1,0
1523615553979,-917504,90,-56,-1,-1,0
1523615553979,-983040,90,-56,-1,-1,0
1523615553979,-851968,90,-56,-1,-1,0
1523615553979,-720896,90,-56,-1,-1,0
1523615554019,-786432,90,-56,-1,-1,0
1523615554019,-917504,90,-56,-1,-1,0
1523615554019,-983040,90,-56,-1,-1,0
1523615554019,-983040,90,-56,-1,-1,0
1523615554019,-1048576,90,-56,-1,-1,0
1523615554059,-1114112,90,-56,-1,-1,0
1523615554059,-983040,90,-56,-1,-1,0
1523615554059,-786432,90,-56,-1,-1,0
1523615554059,-720896,90,-56,-1,-1,0
1523615554059,-786432,90,-56,-1,-1,0
1523615554100,-720896,90,-56,-1,-1,0
1523615554100,-655360,90,-56,-1,-1,0
1523615554100,-1048576,90,-56,-1,-1,0
1523615554100,-1441792,90,-56,-1,-1,0
1523615554100,-1507328,90,-56,-1,-1,0
1523615554139,-1376256,90,-56,-1,-1,0
1523615554139,-1310720,90,-56,-1,-1,0
1523615554139,-1245184,90,-56,-1,-1,0
1523615554139,-1245184,90,-56,-1,-1,0
1523615554139,-1179648,90,-56,-1,-1,0
1523615554179,-1114112,90,-56,-1,-1,0
1523615554179,-1048576,90,-56,-1,-1,0
1523615554179,-1179648,90,-56,-1,-1,0
1523615554179,-1376256,90,-56,-1,-1,0
1523615554179,-1310720,90,-56,-1,-1,0
1523615554228,-983040,90,-56,-1,-1,0
1523615554228,-786432,90,-56,-1,-1,0
1523615554228,-917504,90,-56,-1,-1,0
1523615554228,-1179648,90,-56,-1,-1,0
1523615554228,-131072,90,-56,-1,-1,0
1523615554260,3145728,90,-56,-1,-1,0
1523615554260,6881280,90,-56,-1,-1,0
1523615554260,7864320,90,-56,-1,-1,0
1523615554260,4718592,90,-56,-1,-1,0
1523615554260,851968,90,-56,-1,-1,0
1523615554301,-1114112,90,-56,-1,-1,0
1523615554301,-1441792,90,-56,-1,-1,0
1523615554301,-1310720,90,-56,-1,-1,0
1523615554301,-1048576,90,-56,-1,-1,0
1523615554301,-851968,90,-56,-1,-1,0
1523615554340,-655360,90,-56,-1,-1,0
1523615554340,-393216,90,-56,-1,-1,0
1523615554340,-458752,90,-56,-1,-1,0
1523615554340,-720896,90,-56,-1,-1,0
1523615554340,-720896,90,-56,-1,-1,0
1523615554380,-327680,90,-56,-1,-1,0
1523615554380,-65536,90,-56,-1,-1,0
1523615554380,0,90,-56,-1,-1,0
1523615554380,-131072,90,-56,-1,-1,0
1523615554380,65536,90,-56,-1,-1,0
1523615554419,589824,90,-56,-1,-1,0
1523615554419,1114112,90,-56,-1,-1,0
1523615554419,1441792,90,-56,-1,-1,0
1523615554419,1900544,90,-56,-1,-1,0
1523615554419,2555904,90,-56,-1,-1,0
1523615554460,2949120,90,-56,-1,-1,0
1523615554460,3014656,90,-56,-1,-1,0
1523615554460,2818048,90,-56,-1,-1,0
1523615554460,2490368,90,-56,-1,-1,0
1523615554460,2031616,90,-56,-1,-1,0
1523615554500,1507328,90,-56,-1,-1,0
1523615554500,851968,90,-56,-1,-1,0
1523615554500,327680,90,-56,-1,-1,0
1523615554500,65536,90,-56,-1,-1,0
1523615554500,-131072,90,-56,-1,-1,0
1523615554540,-524288,90,-56,-1,-1,0
1523615554540,-786432,90,-56,-1,-1,0
1523615554540,-851968,90,-56,-1,-1,0
1523615554540,-786432,90,-56,-1,-1,0
1523615554540,-720896,90,-56,-1,-1,0
1523615554580,-720896,90,-56,-1,-1,0
1523615554580,-589824,90,-56,-1,-1,0
1523615554580,-589824,90,-56,-1,-1,0
1523615554580,-655360,90,-56,-1,-1,0
1523615554580,-720896,90,-56,-1,-1,0
1523615554620,-720896,90,-56,-1,-1,0
1523615554620,-720896,90,-56,-1,-1,0
1523615554620,-720896,90,-56,-1,-1,0
1523615554620,-720896,90,-56,-1,-1,0
1523615554620,-720896,90,-56,-1,-1,0
1523615554660,-589824,90,-56,-1,-1,0
1523615554660,-524288,90,-56,-1,-1,0
1523615554660,-589824,90,-56,-1,-1,0
1523615554660,-655360,90,-56,-1,-1,0
1523615554660,-655360,90,-56,-1,-1,0
1523615554700,-655360,94,-56,-1,-1,0
1523615554700,-786432,94,-56,-1,-1,0
1523615554700,-851968,94,-56,-1,-1,0
1523615554700,-983040,94,-56,-1,-1,0
1523615554700,-851968,94,-56,-1,-1,0
1523615554740,-655360,94,-56,-1,-1,0
1523615554740,-524288,94,-56,-1,-1,0
1523615554740,-786432,94,-56,-1,-1,0
1523615554740,-1048576,94,-56,-1,-1,0
1523615554740,-1114112,94,-56,-1,-1,0
1523615554780,-1245184,94,-56,-1,-1,0
1523615554780,-1179648,94,-56,-1,-1,0
1523615554780,-1114112,94,-56,-1,-1,0
1523615554780,-1048576,94,-56,-1,-1,0
1523615554780,-1114112,94,-56,-1,-1,0
1523615554820,-1376256,94,-56,-1,-1,0
1523615554820,-1441792,94,-56,-1,-1,0
1523615554820,-1048576,94,-56,-1,-1,0
1523615554820,655360,94,-56,-1,-1,0
1523615554820,4128768,94,-56,-1,-1,0
1523615554868,7340032,94,-56,-1,-1,0
1523615554868,7077888,94,-56,-1,-1,0
1523615554868,3670016,94,-56,-1,-1,0
1523615554868,393216,94,-56,-1,-1,0
1523615554868,-720896,94,-56,-1,-1,0
1523615554900,-851968,94,-56,-1,-1,0
1523615554900,-720896,94,-56,-1,-1,0
1523615554900,-655360,94,-56,-1,-1,0
1523615554900,-720896,94,-56,-1,-1,0
1523615554900,-589824,94,-56,-1,-1,0
1523615554940,-393216,94,-56,-1,-1,0
1523615554940,-262144,94,-56,-1,-1,0
1523615554940,-327680,94,-56,-1,-1,0
1523615554940,-393216,94,-56,-1,-1,0
1523615554940,-196608,94,-56,-1,-1,0
1523615554980,0,94,-56,-1,-1,0
1523615554980,65536,94,-56,-1,-1,0
1523615554980,65536,94,-56,-1,-1,0
1523615554980,196608,94,-56,-1,-1,0
1523615554980,458752,94,-56,-1,-1,0
1523615555020,983040,94,-56,-1,-1,0
1523615555020,1376256,94,-56,-1,-1,0
1523615555020,1769472,94,-56,-1,-1,0
1523615555020,2097152,94,-56,-1,-1,0
1523615555020,2490368,94,-56,-1,-1,0
1523615555060,2490368,94,-56,-1,-1,0
1523615555060,2359296,94,-56,-1,-1,0
1523615555060,2228224,94,-56,-1,-1,0
1523615555060,1900544,94,-56,-1,-1,0
1523615555060,1310720,94,-56,-1,-1,0
1523615555100,786432,94,-56,-1,-1,0
1523615555100,393216,94,-56,-1,-1,0
1523615555100,131072,94,-56,-1,-1,0
1523615555100,0,94,-56,-1,-1,0
1523615555100,-196608,94,-56,-1,-1,0
1523615555140,-262144,94,-56,-1,-1,0
1523615555140,-196608,94,-56,-1,-1,0
1523615555140,-262144,94,-56,-1,-1,0
1523615555140,-262144,94,-56,-1,-1,0
1523615555140,-262144,94,-56,-1,-1,0
1523615555180,-393216,94,-56,-1,-1,0
1523615555180,-458752,94,-56,-1,-1,0
1523615555180,-393216,94,-56,-1,-1,0
1523615555180,-262144,94,-56,-1,-1,0
1523615555180,-196608,94,-56,-1,-1,0
1523615555220,-196608,94,-56,-1,-1,0
1523615555220,-196608,94,-56,-1,-1,0
1523615555220,-65536,94,-56,-1,-1,0
1523615555220,-196608,94,-56,-1,-1,0
1523615555220,-524288,94,-56,-1,-1,0
1523615555260,-655360,94,-56,-1,-1,0
1523615555260,-589824,94,-56,-1,-1,0
1523615555260,-524288,94,-56,-1,-1,0
1523615555260,-524288,94,-56,-1,-1,0
1523615555260,-524288,94,-56,-1,-1,0
1523615555300,-458752,97,-56,-1,-1,0
1523615555300,-458752,97,-56,-1,-1,0
1523615555300,-458752,97,-56,-1,-1,0
1523615555300,-393216,97,-56,-1,-1,0
1523615555300,-393216,97,-56,-1,-1,0
1523615555340,-458752,97,-56,-1,-1,0
1523615555340,-524288,97,-56,-1,-1,0
1523615555340,-720896,97,-56,-1,-1,0
1523615555340,-786432,97,-56,-1,-1,0
1523615555340,-786432,97,-56,-1,-1,0
1523615555380,-589824,97,-56,-1,-1,0
1523615555380,-589824,97,-56,-1,-1,0
1523615555380,-589824,97,-56,-1,-1,0
1523615555380,-655360,97,-56,-1,-1,0
1523615555380,-720896,97,-56,-1,-1,0
1523615555420,-851968,97,-56,-1,-1,0
1523615555420,-393216,97,-56,-1,-1,0
1523615555420,1769472,97,-56,-1,-1,0
1523615555420,5439488,97,-56,-1,-1,0
1523615555420,7602176,97,-56,-1,-1,0
1523615555461,6094848,97,-56,-1,-1,0
1523615555461,2555904,97,-56,-1,-1,0
1523615555461,0,97,-56,-1,-1,0
1523615555461,-720896,97,-56,-1,-1,0
1523615555461,-655360,97,-56,-1,-1,0
1523615555510,-589824,97,-56,-1,-1,0
1523615555510,-655360,97,-56,-1,-1,0
1523615555510,-720896,97,-56,-1,-1,0
1523615555510,-589824,97,-56,-1,-1,0
1523615555510,-589824,97,-56,-1,-1,0
1523615555540,-655360,97,-56,-1,-1,0
1523615555540,-589824,97,-56,-1,-1,0
1523615555540,-393216,97,-56,-1,-1,0
1523615555540,-196608,97,-56,-1,-1,0
1523615555540,-65536,97,-56,-1,-1,0
1523615555580,-65536,97,-56,-1,-1,0
1523615555580,0,97,-56,-1,-1,0
1523615555580,262144,97,-56,-1,-1,0
1523615555580,524288,97,-56,-1,-1,0
1523615555580,720896,97,-56,-1,-1,0
1523615555620,1114112,97,-56,-1,-1,0
1523615555620,1572864,97,-56,-1,-1,0
1523615555620,1966080,97,-56,-1,-1,0
1523615555620,2228224,97,-56,-1,-1,0
1523615555620,2359296,97,-56,-1,-1,0
1523615555660,2228224,97,-56,-1,-1,0
1523615555660,1835008,97,-56,-1,-1,0
1523615555660,1376256,97,-56,-1,-1,0
1523615555660,917504,97,-56,-1,-1,0
1523615555660,327680,97,-56,-1,-1,0
1523615555699,-65536,97,-56,-1,-1,0
1523615555699,-327680,97,-56,-1,-1,0
1523615555699,-393216,97,-56,-1,-1,0
1523615555699,-458752,97,-56,-1,-1,0
1523615555699,-655360,97,-56,-1,-1,0
1523615555739,-786432,97,-56,-1,-1,0
1523615555739,-851968,97,-56,-1,-1,0
1523615555739,-786432,97,-56,-1,-1,0
1523615555739,-720896,97,-56,-1,-1,0
1523615555739,-589824,97,-56,-1,-1,0
1523615555779,-786432,97,-56,-1,-1,0
1523615555779,-786432,97,-56,-1,-1,0
1523615555779,-720896,97,-56,-1,-1,0
1523615555779,-655360,97,-56,-1,-1,0
1523615555779,-917504,97,-56,-1,-1,0
1523615555819,-917504,97,-56,-1,-1,0
1523615555819,-851968,97,-56,-1,-1,0
1523615555819,-851968,97,-56,-1,-1,0
1523615555819,-917504,97,-56,-1,-1,0
1523615555819,-983040,97,-56,-1,-1,0
1523615555859,-1048576,97,-56,-1,-1,0
1523615555859,-1179648,97,-56,-1,-1,0
1523615555859,-1245184,97,-56,-1,-1,0
1523615555859,-1245184,97,-56,-1,-1,0
1523615555859,-1245184,97,-56,-1,-1,0
1523615555899,-1179648,99,-56,-1,-1,0
1523615555899,-1114112,99,-56,-1,-1,0
1523615555899,-1245184,99,-56,-1,-1,0
1523615555899,-1114112,99,-56,-1,-1,0
1523615555899,-983040,99,-56,-1,-1,0
1523615555939,-1179648,99,-56,-1,-1,0
1523615555939,-1441792,99,-56,-1,-1,0
1523615555939,-1441792,99,-56,-1,-1,0
1523615555939,-1310720,99,-56,-1,-1,0
1523615555939,-1376256,99,-56,-1,-1,0
1523615555979,-1572864,99,-56,-1,-1,0
1523615555979,-1572864,99,-56,-1,-1,0
1523615555979,-1376256,99,-56,-1,-1,0
1523615555979,-1310720,99,-56,-1,-1,0
1523615555979,-1638400,99,-56,-1,-1,0
1523615556019,-1507328,99,-56,-1,-1,0
1523615556019,393216,99,-56,-1,-1,0
1523615556019,3932160,99,-56,-1,-1,0
1523615556019,6815744,99,-56,-1,-1,0
1523615556019,6356992,99,-56,-1,-1,0
1523615556059,3080192,99,-56,-1,-1,0
1523615556059,-196608,99,-56,-1,-1,0
1523615556059,-1441792,99,-56,-1,-1,0
1523615556059,-1376256,99,-56,-1,-1,0
1523615556059,-1114112,99,-56,-1,-1,0
1523615556099,-1179648,99,-56,-1,-1,0
1523615556099,-1441792,99,-56,-1,-1,0
1523615556099,-1507328,99,-56,-1,-1,0
1523615556099,-1310720,99,-56,-1,-1,0
1523615556099,-1179648,99,-56,-1,-1,0
1523615556148,-983040,99,-56,-1,-1,0
1523615556148,-917504,99,-56,-1,-1,0
1523615556148,-786432,99,-56,-1,-1,0
1523615556148,-524288,99,-56,-1,-1,0
1523615556148,-393216,99,-56,-1,-1,0
1523615556179,-327680,99,-56,-1,-1,0
1523615556179,-262144,99,-56,-1,-1,0
1523615556179,65536,99,-56,-1,-1,0
1523615556179,589824,99,-56,-1,-1,0
1523615556179,1048576,99,-56,-1,-1,0
1523615556219,1507328,99,-56,-1,-1,0
1523615556219,1966080,99,-56,-1,-1,0
1523615556219,2228224,99,-56,-1,-1,0
1523615556219,2228224,99,-56,-1,-1,0
1523615556219,2031616,99,-56,-1,-1,0
1523615556259,1703936,99,-56,-1,-1,0
1523615556259,1310720,99,-56,-1,-1,0
1523615556259,720896,99,-56,-1,-1,0
1523615556259,196608,99,-56,-1,-1,0
1523615556259,-262144,99,-56,-1,-1,0
1523615556299,-655360,99,-56,-1,-1,0
1523615556299,-917504,99,-56,-1,-1,0
1523615556299,-983040,99,-56,-1,-1,0
1523615556299,-1114112,99,-56,-1,-1,0
1523615556299,-1179648,99,-56,-1,-1,0
1523615556339,-1245184,99,-56,-1,-1,0
1523615556339,-1245184,99,-56,-1,-1,0
1523615556339,-1114112,99,-56,-1,-1,0
1523615556339,-917504,99,-56,-1,-1,0
1523615556339,-917504,99,-56,-1,-1,0
1523615556379,-1048576,99,-56,-1,-1,0
1523615556379,-1245184,99,-56,-1,-1,0
1523615556379,-1310720,99,-56,-1,-1,0
1523615556379,-1245184,99,-56,-1,-1,0
1523615556379,-1179648,99,-56,-1,-1,0
1523615556419,-1179648,99,-56,-1,-1,0
1523615556419,-1114112,99,-56,-1,-1,0
1523615556419,-1114112,99,-56,-1,-1,0
1523615556419,-1179648,99,-56,-1,-1,0
1523615556419,-1179648,99,-56,-1,-1,0
1523615556459,-1179648,100,-56,-1,-1,0
1523615556459,-1114112,100,-56,-1,-1,0
1523615556459,-1114112,100,-56,-1,-1,0
1523615556459,-1114112,100,-56,-1,-1,0
1523615556459,-983040,100,-56,-1,-1,0
1523615556499,-917504,100,-56,-1,-1,0
1523615556499,-983040,100,-56,-1,-1,0
1523615556499,-1114112,100,-56,-1,-1,0
1523615556499,-1245184,100,-56,-1,-1,0
1523615556499,-1245184,100,-56,-1,-1,0
1523615556539,-1179648,100,-56,-1,-1,0
1523615556539,-1179648,100,-56,-1,-1,0
1523615556539,-1245184,100,-56,-1,-1,0
1523615556539,-1245184,100,-56,-1,-1,0
1523615556539,-1114112,100,-56,-1,-1,0
1523615556579,-917504,100,-56,-1,-1,0
1523615556579,-917504,100,-56,-1,-1,0
1523615556579,-1114112,100,-56,-1,-1,0
1523615556579,-1179648,100,-56,-1,-1,0
1523615556579,327680,100,-56,-1,-1,0
1523615556619,4063232,100,-56,-1,-1,0
1523615556619,7340032,100,-56,-1,-1,0
1523615556619,6946816,100,-56,-1,-1,0
1523615556619,3211264,100,-56,-1,-1,0
1523615556619,-196608,100,-56,-1,-1,0
1523615556662,-1310720,100,-56,-1,-1,0
1523615556662,-1245184,100,-56,-1,-1,0
1523615556662,-1048576,100,-56,-1,-1,0
1523615556662,-917504,100,-56,-1,-1,0
1523615556662,-983040,100,-56,-1,-1,0
1523615556699,-1048576,100,-56,-1,-1,0
1523615556699,-786432,100,-56,-1,-1,0
1523615556699,-589824,100,-56,-1,-1,0
1523615556699,-393216,100,-56,-1,-1,0
1523615556699,-262144,100,-56,-1,-1,0
1523615556739,-196608,100,-56,-1,-1,0
1523615556739,-196608,100,-56,-1,-1,0
1523615556739,0,100,-56,-1,-1,0
1523615556739,196608,100,-56,-1,-1,0
1523615556739,393216,100,-56,-1,-1,0
1523615556788,524288,100,-56,-1,-1,0
1523615556788,917504,100,-56,-1,-1,0
1523615556788,1441792,100,-56,-1,-1,0
1523615556788,2031616,100,-56,-1,-1,0
1523615556788,2621440,100,-56,-1,-1,0
1523615556819,2949120,100,-56,-1,-1,0
1523615556819,3014656,100,-56,-1,-1,0
1523615556819,2752512,100,-56,-1,-1,0
1523615556819,2555904,100,-56,-1,-1,0
1523615556819,1966080,100,-56,-1,-1,0
1523615556859,1245184,100,-56,-1,-1,0
1523615556859,655360,100,-56,-1,-1,0
1523615556859,262144,100,-56,-1,-1,0
1523615556859,-131072,100,-56,-1,-1,0
1523615556859,-393216,100,-56,-1,-1,0
1523615556899,-524288,100,-56,-1,-1,0
1523615556899,-524288,100,-56,-1,-1,0
1523615556899,-524288,100,-56,-1,-1,0
1523615556899,-589824,100,-56,-1,-1,0
1523615556899,-589824,100,-56,-1,-1,0
1523615556939,-655360,100,-56,-1,-1,0
1523615556939,-589824,100,-56,-1,-1,0
1523615556939,-655360,100,-56,-1,-1,0
1523615556939,-720896,100,-56,-1,-1,0
1523615556939,-786432,100,-56,-1,-1,0
1523615556979,-720896,100,-56,-1,-1,0
1523615556979,-589824,100,-56,-1,-1,0
1523615556979,-655360,100,-56,-1,-1,0
1523615556979,-720896,100,-56,-1,-1,0
1523615556979,-786432,100,-56,-1,-1,0
1523615557019,-720896,100,-56,-1,-1,0
1523615557019,-589824,100,-56,-1,-1,0
1523615557019,-589824,100,-56,-1,-1,0
1523615557019,-720896,100,-56,-1,-1,0
1523615557019,-851968,100,-56,-1,-1,0
1523615557059,-851968,102,-56,-1,-1,0
1523615557059,-1048576,102,-56,-1,-1,0
1523615557059,-1114112,102,-56,-1,-1,0
1523615557059,-720896,102,-56,-1,-1,0
1523615557059,-262144,102,-56,-1,-1,0
1523615557099,-393216,102,-56,-1,-1,0
1523615557099,-851968,102,-56,-1,-1,0
1523615557099,-1048576,102,-56,-1,-1,0
1523615557099,-1048576,102,-56,-1,-1,0
1523615557099,-983040,102,-56,-1,-1,0
1523615557139,-983040,102,-56,-1,-1,0
1523615557139,-1114112,102,-56,-1,-1,0
1523615557139,-983040,102,-56,-1,-1,0
1523615557139,-655360,102,-56,-1,-1,0
1523615557139,-524288,102,-56,-1,-1,0
1523615557179,-655360,102,-56,-1,-1,0
1523615557179,196608,102,-56,-1,-1,0
1523615557179,2949120,102,-56,-1,-1,0
1523615557179,6422528,102,-56,-1,-1,0
1523615557179,7602176,102,-56,-1,-1,0
1523615557219,5242880,102,-56,-1,-1,0
1523615557219,1835008,102,-56,-1,-1,0
1523615557219,0,102,-56,-1,-1,0
1523615557219,-655360,102,-56,-1,-1,0
1523615557219,-589824,102,-56,-1,-1,0
1523615557261,-327680,102,-56,-1,-1,0
1523615557261,-65536,102,-56,-1,-1,0
1523615557261,-131072,102,-56,-1,-1,0
1523615557261,-327680,102,-56,-1,-1,0
1523615557261,-458752,102,-56,-1,-1,0
1523615557299,-393216,102,-56,-1,-1,0
1523615557299,-327680,102,-56,-1,-1,0
1523615557299,-196608,102,-56,-1,-1,0
1523615557299,-196608,102,-56,-1,-1,0
1523615557299,-131072,102,-56,-1,-1,0
1523615557339,65536,102,-56,-1,-1,0
1523615557339,393216,102,-56,-1,-1,0
1523615557339,720896,102,-56,-1,-1,0
1523615557339,983040,102,-56,-1,-1,0
1523615557339,1179648,102,-56,-1,-1,0
1523615557379,1441792,102,-56,-1,-1,0
1523615557379,1900544,102,-56,-1,-1,0
1523615557379,2162688,102,-56,-1,-1,0
1523615557379,2293760,102,-56,-1,-1,0
1523615557379,2359296,102,-56,-1,-1,0
1523615557428,2228224,102,-56,-1,-1,0
1523615557428,1835008,102,-56,-1,-1,0
1523615557428,1376256,102,-56,-1,-1,0
1523615557428,851968,102,-56,-1,-1,0
1523615557428,393216,102,-56,-1,-1,0
1523615557459,131072,102,-56,-1,-1,0
1523615557459,0,102,-56,-1,-1,0
1523615557459,-262144,102,-56,-1,-1,0
1523615557459,-458752,102,-56,-1,-1,0
1523615557459,-524288,102,-56,-1,-1,0
1523615557499,-524288,102,-56,-1,-1,0
1523615557499,-655360,102,-56,-1,-1,0
1523615557499,-655360,102,-56,-1,-1,0
1523615557499,-524288,102,-56,-1,-1,0
1523615557499,-524288,102,-56,-1,-1,0
1523615557539,-524288,102,-56,-1,-1,0
1523615557539,-589824,102,-56,-1,-1,0
1523615557539,-524288,102,-56,-1,-1,0
1523615557539,-655360,102,-56,-1,-1,0
1523615557539,-720896,102,-56,-1,-1,0
1523615557579,-524288,102,-56,-1,-1,0
1523615557579,-524288,102,-56,-1,-1,0
1523615557579,-655360,102,-56,-1,-1,0
1523615557579,-720896,102,-56,-1,-1,0
1523615557579,-655360,102,-56,-1,-1,0
1523615557619,-655360,102,-56,-1,-1,0
1523615557619,-720896,102,-56,-1,-1,0
1523615557619,-720896,102,-56,-1,-1,0
1523615557619,-720896,102,-56,-1,-1,0
1523615557619,-720896,102,-56,-1,-1,0
1523615557659,-786432,102,-56,-1,-1,0
1523615557659,-786432,102,-56,-1,-1,0
1523615557659,-589824,102,-56,-1,-1,0
1523615557659,-589824,102,-56,-1,-1,0
1523615557659,-589824,102,-56,-1,-1,0
1523615557699,-655360,102,-56,-1,-1,0
1523615557699,-655360,102,-56,-1,-1,0
1523615557699,-786432,102,-56,-1,-1,0
1523615557699,-851968,102,-56,-1,-1,0
1523615557699,-786432,102,-56,-1,-1,0
1523615557739,-786432,102,-56,-1,-1,0
1523615557739,-851968,102,-56,-1,-1,0
1523615557739,-786432,102,-56,-1,-1,0
1523615557739,196608,102,-56,-1,-1,0
1523615557739,2883584,102,-56,-1,-1,0
1523615557779,6160384,102,-56,-1,-1,0
1523615557779,7274496,102,-56,-1,-1,0
1523615557779,4915200,102,-56,-1,-1,0
1523615557779,1507328,102,-56,-1,-1,0
1523615557779,-327680,102,-56,-1,-1,0
1523615557819,-655360,102,-56,-1,-1,0
1523615557819,-458752,102,-56,-1,-1,0
1523615557819,-393216,102,-56,-1,-1,0
1523615557819,-524288,102,-56,-1,-1,0
1523615557819,-655360,102,-56,-1,-1,0
1523615557859,-524288,102,-56,-1,-1,0
1523615557859,-327680,102,-56,-1,-1,0
1523615557859,-327680,102,-56,-1,-1,0
1523615557859,-458752,102,-56,-1,-1,0
1523615557859,-327680,102,-56,-1,-1,0
1523615557899,-327680,102,-56,-1,-1,0
1523615557899,-327680,102,-56,-1,-1,0
1523615557899,-196608,102,-56,-1,-1,0
1523615557899,65536,102,-56,-1,-1,0
1523615557899,458752,102,-56,-1,-1,0
1523615557941,655360,102,-56,-1,-1,0
1523615557941,1114112,102,-56,-1,-1,0
1523615557941,1703936,102,-56,-1,-1,0
1523615557941,1900544,102,-56,-1,-1,0
1523615557941,1900544,102,-56,-1,-1,0
1523615557979,1966080,102,-56,-1,-1,0
1523615557979,1966080,102,-56,-1,-1,0
1523615557979,1769472,102,-56,-1,-1,0
1523615557979,1376256,102,-56,-1,-1,0
1523615557979,851968,102,-56,-1,-1,0
1523615558019,524288,102,-56,-1,-1,0
1523615558019,131072,102,-56,-1,-1,0
1523615558019,-131072,102,-56,-1,-1,0
1523615558019,-524288,102,-56,-1,-1,0
1523615558019,-786432,102,-56,-1,-1,0
1523615558068,-983040,102,-56,-1,-1,0
1523615558068,-851968,102,-56,-1,-1,0
1523615558068,-720896,102,-56,-1,-1,0
1523615558068,-720896,102,-56,-1,-1,0
1523615558068,-983040,102,-56,-1,-1,0
1523615558099,-983040,102,-56,-1,-1,0
1523615558099,-851968,102,-56,-1,-1,0
1523615558099,-720896,102,-56,-1,-1,0
1523615558099,-786432,102,-56,-1,-1,0
1523615558099,-917504,102,-56,-1,-1,0
1523615558139,-1048576,102,-56,-1,-1,0
1523615558139,-1179648,102,-56,-1,-1,0
1523615558139,-1179648,102,-56,-1,-1,0
1523615558139,-1114112,102,-56,-1,-1,0
1523615558139,-1114112,102,-56,-1,-1,0
1523615558179,-1245184,102,-56,-1,-1,0
1523615558179,-1245184,102,-56,-1,-1,0
1523615558179,-1114112,102,-56,-1,-1,0
1523615558179,-1310720,102,-56,-1,-1,0
1523615558179,-1441792,102,-56,-1,-1,0
1523615558219,-1507328,102,-56,-1,-1,0
1523615558219,-1572864,102,-56,-1,-1,0
1523615558219,-1441792,102,-56,-1,-1,0
1523615558219,-1179648,102,-56,-1,-1,0
1523615558219,-851968,102,-56,-1,-1,0
1523615558259,-1114112,102,-56,-1,-1,0
1523615558259,-1310720,102,-56,-1,-1,0
1523615558259,-1572864,102,-56,-1,-1,0
1523615558259,-1638400,102,-56,-1,-1,0
1523615558259,-1507328,102,-56,-1,-1,0
1523615558301,-1376256,102,-56,-1,-1,0
1523615558301,-1441792,102,-56,-1,-1,0
1523615558301,-1376256,102,-56,-1,-1,0
1523615558301,-1179648,102,-56,-1,-1,0
1523615558301,-1310720,102,-56,-1,-1,0
1523615558339,-1048576,102,-56,-1,-1,0
1523615558339,917504,102,-56,-1,-1,0
1523615558339,4653056,102,-56,-1,-1,0
1523615558339,7405568,102,-56,-1,-1,0
1523615558339,6291456,102,-56,-1,-1,0
1523615558379,2424832,102,-56,-1,-1,0
1523615558379,-655360,102,-56,-1,-1,0
1523615558379,-1572864,102,-56,-1,-1,0
1523615558379,-1441792,102,-56,-1,-1,0
1523615558379,-1179648,102,-56,-1,-1,0
1523615558419,-1114112,102,-56,-1,-1,0
1523615558419,-1114112,102,-56,-1,-1,0
1523615558419,-1048576,102,-56,-1,-1,0
1523615558419,-851968,102,-56,-1,-1,0
1523615558419,-786432,102,-56,-1,-1,0
1523615558459,-851968,102,-56,-1,-1,0
1523615558459,-851968,102,-56,-1,-1,0
1523615558459,-720896,102,-56,-1,-1,0
1523615558459,-589824,102,-56,-1,-1,0
1523615558459,-327680,102,-56,-1,-1,0
1523615558499,-262144,102,-56,-1,-1,0
1523615558499,0,102,-56,-1,-1,0
1523615558499,262144,102,-56,-1,-1,0
1523615558499,786432,102,-56,-1,-1,0
1523615558499,1179648,102,-56,-1,-1,0
1523615558539,1638400,102,-56,-1,-1,0
1523615558539,2097152,102,-56,-1,-1,0
1523615558539,2490368,102,-56,-1,-1,0
1523615558539,2621440,102,-56,-1,-1,0
1523615558539,2424832,102,-56,-1,-1,0
1523615558579,1835008,102,-56,-1,-1,0
1523615558579,1245184,102,-56,-1,-1,0
1523615558579,589824,102,-56,-1,-1,0
1523615558579,131072,102,-56,-1,-1,0
1523615558579,-131072,102,-56,-1,-1,0
1523615558619,-327680,102,-56,-1,-1,0
1523615558619,-589824,102,-56,-1,-1,0
1523615558619,-786432,102,-56,-1,-1,0
1523615558619,-786432,102,-56,-1,-1,0
1523615558619,-851968,102,-56,-1,-1,0
1523615558659,-851968,102,-56,-1,-1,0
1523615558659,-786432,102,-56,-1,-1,0
1523615558659,-786432,102,-56,-1,-1,0
1523615558659,-851968,102,-56,-1,-1,0
1523615558659,-851968,102,-56,-1,-1,0
1523615558708,-851968,102,-56,-1,-1,0
1523615558708,-786432,102,-56,-1,-1,0
1523615558708,-720896,102,-56,-1,-1,0
1523615558708,-655360,102,-56,-1,-1,0
1523615558708,-589824,102,-56,-1,-1,0
1523615558739,-524288,102,-56,-1,-1,0
1523615558739,-720896,102,-56,-1,-1,0
1523615558739,-851968,102,-56,-1,-1,0
1523615558739,-786432,102,-56,-1,-1,0
1523615558739,-524288,102,-56,-1,-1,0
1523615558779,-524288,102,-56,-1,-1,0
1523615558779,-589824,102,-56,-1,-1,0
1523615558779,-589824,102,-56,-1,-1,0
1523615558779,-589824,102,-56,-1,-1,0
1523615558779,-655360,102,-56,-1,-1,0
1523615558819,-720896,102,-56,-1,-1,0
1523615558819,-720896,102,-56,-1,-1,0
1523615558819,-720896,102,-56,-1,-1,0
1523615558819,-917504,102,-56,-1,-1,0
1523615558819,-1048576,102,-56,-1,-1,0
1523615558859,-1048576,102,-56,-1,-1,0
1523615558859,-917504,102,-56,-1,-1,0
1523615558859,-917504,102,-56,-1,-1,0
1523615558859,-851968,102,-56,-1,-1,0
1523615558859,-851968,102,-56,-1,-1,0
1523615558899,-983040,102,-56,-1,-1,0
1523615558899,-327680,102,-56,-1,-1,0
1523615558899,2228224,102,-56,-1,-1,0
1523615558899,6094848,102,-56,-1,-1,0
1523615558899,7929856,102,-56,-1,-1,0
1523615558939,5505024,102,-56,-1,-1,0
1523615558939,1572864,102,-56,-1,-1,0
1523615558939,-589824,102,-56,-1,-1,0
1523615558939,-786432,102,-56,-1,-1,0
1523615558939,-786432,102,-56,-1,-1,0
1523615558979,-720896,102,-56,-1,-1,0
1523615558979,-393216,102,-56,-1,-1,0
1523615558979,-393216,102,-56,-1,-1,0
1523615558979,-589824,102,-56,-1,-1,0
1523615558979,-589824,102,-56,-1,-1,0
1523615559019,-524288,102,-56,-1,-1,0
1523615559019,-655360,102,-56,-1,-1,0
1523615559019,-720896,102,-56,-1,-1,0
1523615559019,-393216,102,-56,-1,-1,0
1523615559019,-196608,102,-56,-1,-1,0
1523615559059,0,102,-56,-1,-1,0
1523615559059,524288,102,-56,-1,-1,0
1523615559059,786432,102,-56,-1,-1,0
1523615559059,720896,102,-56,-1,-1,0
1523615559059,917504,102,-56,-1,-1,0
1523615559099,1376256,102,-56,-1,-1,0
1523615559099,2097152,102,-56,-1,-1,0
1523615559099,2555904,102,-56,-1,-1,0
1523615559099,2752512,102,-56,-1,-1,0
1523615559099,2752512,102,-56,-1,-1,0
1523615559139,2490368,102,-56,-1,-1,0
1523615559139,2031616,102,-56,-1,-1,0
1523615559139,1572864,102,-56,-1,-1,0
1523615559139,917504,102,-56,-1,-1,0
1523615559139,262144,102,-56,-1,-1,0
1523615559179,-65536,102,-56,-1,-1,0
1523615559179,-327680,102,-56,-1,-1,0
1523615559179,-524288,102,-56,-1,-1,0
1523615559179,-393216,102,-56,-1,-1,0
1523615559179,-327680,102,-56,-1,-1,0
1523615559219,-589824,102,-56,-1,-1,0
1523615559219,-786432,102,-56,-1,-1,0
1523615559219,-720896,102,-56,-1,-1,0
1523615559219,-524288,102,-56,-1,-1,0
1523615559219,-655360,102,-56,-1,-1,0
1523615559259,-655360,102,-56,-1,-1,0
1523615559259,-655360,102,-56,-1,-1,0
1523615559259,-720896,102,-56,-1,-1,0
1523615559259,-851968,102,-56,-1,-1,0
1523615559259,-720896,102,-56,-1,-1,0
1523615559299,-655360,102,-56,-1,-1,0
1523615559299,-720896,102,-56,-1,-1,0
1523615559299,-720896,102,-56,-1,-1,0
1523615559299,-720896,102,-56,-1,-1,0
1523615559299,-786432,102,-56,-1,-1,0
1523615559348,-786432,102,-56,-1,-1,0
1523615559348,-720896,102,-56,-1,-1,0
1523615559348,-851968,102,-56,-1,-1,0
1523615559348,-1048576,102,-56,-1,-1,0
1523615559348,-1048576,102,-56,-1,-1,0
1523615559379,-1048576,102,-56,-1,-1,0
1523615559379,-1114112,102,-56,-1,-1,0
1523615559379,-851968,102,-56,-1,-1,0
1523615559379,-786432,102,-56,-1,-1,0
1523615559379,-983040,102,-56,-1,-1,0
1523615559419,-1179648,102,-56,-1,-1,0
1523615559419,-1245184,102,-56,-1,-1,0
1523615559419,-1376256,102,-56,-1,-1,0
1523615559419,-1179648,102,-56,-1,-1,0
1523615559419,-983040,102,-56,-1,-1,0
1523615559459,-1179648,102,-56,-1,-1,0
1523615559459,-851968,102,-56,-1,-1,0
1523615559459,1572864,102,-56,-1,-1,0
1523615559459,5439488,102,-56,-1,-1,0
1523615559459,7405568,102,-56,-1,-1,0
1523615559499,5373952,102,-56,-1,-1,0
1523615559499,1638400,102,-56,-1,-1,0
1523615559499,-589824,102,-56,-1,-1,0
1523615559499,-1179648,102,-56,-1,-1,0
1523615559499,-1310720,102,-56,-1,-1,0
1523615559539,-1376256,102,-56,-1,-1,0
1523615559539,-983040,102,-56,-1,-1,0
1523615559539,-524288,102,-56,-1,-1,0
1523615559539,-327680,102,-56,-1,-1,0
1523615559539,-720896,102,-56,-1,-1,0
1523615559579,-786432,102,-56,-1,-1,0
1523615559579,-655360,102,-56,-1,-1,0
1523615559579,-393216,102,-56,-1,-1,0
1523615559579,-393216,102,-56,-1,-1,0
1523615559579,-393216,102,-56,-1,-1,0
1523615559619,-327680,102,-56,-1,-1,0
1523615559619,0,102,-56,-1,-1,0
1523615559619,524288,102,-56,-1,-1,0
1523615559619,851968,102,-56,-1,-1,0
1523615559619,1114112,102,-56,-1,-1,0
1523615559659,1376256,102,-56,-1,-1,0
1523615559659,1638400,102,-56,-1,-1,0
1523615559659,1900544,102,-56,-1,-1,0
1523615559659,2162688,102,-56,-1,-1,0
1523615559659,2228224,102,-56,-1,-1,0
1523615559699,2097152,102,-56,-1,-1,0
1523615559699,1638400,102,-56,-1,-1,0
1523615559699,1310720,102,-56,-1,-1,0
1523615559699,851968,102,-56,-1,-1,0
1523615559699,393216,102,-56,-1,-1,0
1523615559739,0,102,-56,-1,-1,0
1523615559739,-131072,102,-56,-1,-1,0
1523615559739,-327680,102,-56,-1,-1,0
1523615559739,-524288,102,-56,-1,-1,0
1523615559739,-655360,102,-56,-1,-1,0
1523615559779,-589824,102,-56,-1,-1,0
1523615559779,-458752,102,-56,-1,-1,0
1523615559779,-393216,102,-56,-1,-1,0
1523615559779,-327680,102,-56,-1,-1,0
1523615559779,-327680,102,-56,-1,-1,0
1523615559819,-458752,102,-56,-1,-1,0
1523615559819,-524288,102,-56,-1,-1,0
1523615559819,-589824,102,-56,-1,-1,0
1523615559819,-524288,102,-56,-1,-1,0
1523615559819,-458752,102,-56,-1,-1,0
1523615559859,-393216,103,-56,-1,-1,0
1523615559859,-458752,103,-56,-1,-1,0
1523615559859,-589824,103,-56,-1,-1,0
1523615559859,-524288,103,-56,-1,-1,0
1523615559859,-458752,103,-56,-1,-1,0
1523615559899,-655360,103,-56,-1,-1,0
1523615559899,-786432,103,-56,-1,-1,0
1523615559899,-720896,103,-56,-1,-1,0
1523615559899,-524288,103,-56,-1,-1,0
1523615559899,-458752,103,-56,-1,-1,0
1523615559939,-524288,103,-56,-1,-1,0
1523615559939,-655360,103,-56,-1,-1,0
1523615559939,-655360,103,-56,-1,-1,0
1523615559939,-589824,103,-56,-1,-1,0
1523615559939,-655360,103,-56,-1,-1,0
1523615559988,-786432,103,-56,-1,-1,0
1523615559988,-720896,103,-56,-1,-1,0
1523615559988,-786432,103,-56,-1,-1,0
1523615559988,-786432,103,-56,-1,-1,0
1523615559988,-720896,103,-56,-1,-1,0
1523615560019,196608,103,-56,-1,-1,0
1523615560019,2752512,103,-56,-1,-1,0
1523615560019,6094848,103,-56,-1,-1,0
1523615560019,7208960,103,-56,-1,-1,0
1523615560019,4653056,103,-56,-1,-1,0
1523615560059,1441792,103,-56,-1,-1,0
1523615560059,0,103,-56,-1,-1,0
1523615560059,-327680,103,-56,-1,-1,0
1523615560059,-524288,103,-56,-1,-1,0
1523615560059,-589824,103,-56,-1,-1,0
1523615560099,-655360,103,-56,-1,-1,0
1523615560099,-655360,103,-56,-1,-1,0
1523615560099,-589824,103,-56,-1,-1,0
1523615560099,-589824,103,-56,-1,-1,0
1523615560099,-589824,103,-56,-1,-1,0
1523615560139,-393216,103,-56,-1,-1,0
1523615560139,-262144,103,-56,-1,-1,0
1523615560139,-262144,103,-56,-1,-1,0
1523615560139,-196608,103,-56,-1,-1,0
1523615560139,65536,103,-56,-1,-1,0
1523615560179,327680,103,-56,-1,-1,0
1523615560179,524288,103,-56,-1,-1,0
1523615560179,655360,103,-56,-1,-1,0
1523615560179,786432,103,-56,-1,-1,0
1523615560179,1114112,103,-56,-1,-1,0
1523615560219,1638400,103,-56,-1,-1,0
1523615560219,2031616,103,-56,-1,-1,0
1523615560219,2162688,103,-56,-1,-1,0
1523615560219,2031616,103,-56,-1,-1,0
1523615560219,1769472,103,-56,-1,-1,0
1523615560259,1245184,103,-56,-1,-1,0
1523615560259,720896,103,-56,-1,-1,0
1523615560259,393216,103,-56,-1,-1,0
1523615560259,196608,103,-56,-1,-1,0
1523615560259,-131072,103,-56,-1,-1,0
1523615560299,-524288,103,-56,-1,-1,0
1523615560299,-589824,103,-56,-1,-1,0
1523615560299,-720896,103,-56,-1,-1,0
1523615560299,-917504,103,-56,-1,-1,0
1523615560299,-917504,103,-56,-1,-1,0
1523615560339,-720896,103,-56,-1,-1,0
1523615560339,-524288,103,-56,-1,-1,0
1523615560339,-720896,103,-56,-1,-1,0
1523615560339,-851968,103,-56,-1,-1,0
1523615560339,-786432,103,-56,-1,-1,0
1523615560379,-720896,104,-56,-1,-1,0
1523615560379,-851968,104,-56,-1,-1,0
1523615560379,-917504,104,-56,-1,-1,0
1523615560379,-917504,104,-56,-1,-1,0
1523615560379,-851968,104,-56,-1,-1,0
1523615560419,-1114112,104,-56,-1,-1,0
1523615560419,-1245184,104,-56,-1,-1,0
1523615560419,-1179648,104,-56,-1,-1,0
1523615560419,-983040,104,-56,-1,-1,0
1523615560419,-983040,104,-56,-1,-1,0
1523615560459,-851968,104,-56,-1,-1,0
1523615560459,-917504,104,-56,-1,-1,0
1523615560459,-983040,104,-56,-1,-1,0
1523615560459,-1179648,104,-56,-1,-1,0
1523615560459,-1310720,104,-56,-1,-1,0
1523615560499,-1376256,104,-56,-1,-1,0
1523615560499,-1310720,104,-56,-1,-1,0
1523615560499,-1376256,104,-56,-1,-1,0
1523615560499,-1114112,104,-56,-1,-1,0
1523615560499,-1114112,104,-56,-1,-1,0
1523615560539,-1507328,104,-56,-1,-1,0
1523615560539,-1572864,104,-56,-1,-1,0
1523615560539,-1376256,104,-56,-1,-1,0
1523615560539,-1114112,104,-56,-1,-1,0
1523615560539,-131072,104,-56,-1,-1,0
1523615560579,2949120,104,-56,-1,-1,0
1523615560579,6684672,104,-56,-1,-1,0
1523615560579,7274496,104,-56,-1,-1,0
1523615560579,3932160,104,-56,-1,-1,0
1523615560579,196608,104,-56,-1,-1,0
1523615560628,-1441792,104,-56,-1,-1,0
1523615560628,-1507328,104,-56,-1,-1,0
1523615560628,-1179648,104,-56,-1,-1,0
1523615560628,-1114112,104,-56,-1,-1,0
1523615560628,-1376256,104,-56,-1,-1,0
1523615560659,-1441792,104,-56,-1,-1,0
1523615560659,-1114112,104,-56,-1,-1,0
1523615560659,-786432,104,-56,-1,-1,0
1523615560659,-851968,104,-56,-1,-1,0
1523615560659,-983040,104,-56,-1,-1,0
1523615560699,-917504,104,-56,-1,-1,0
1523615560699,-720896,104,-56,-1,-1,0
1523615560699,-458752,104,-56,-1,-1,0
1523615560699,-524288,104,-56,-1,-1,0
1523615560699,-393216,104,-56,-1,-1,0
1523615560739,131072,104,-56,-1,-1,0
1523615560739,786432,104,-56,-1,-1,0
1523615560739,1114112,104,-56,-1,-1,0
1523615560739,1441792,104,-56,-1,-1,0
1523615560739,1835008,104,-56,-1,-1,0
1523615560779,2097152,104,-56,-1,-1,0
1523615560779,2293760,104,-56,-1,-1,0
1523615560779,2031616,104,-56,-1,-1,0
1523615560779,1507328,104,-56,-1,-1,0
1523615560779,851968,104,-56,-1,-1,0
1523615560819,458752,104,-56,-1,-1,0
1523615560819,196608,104,-56,-1,-1,0
1523615560819,-131072,104,-56,-1,-1,0
1523615560819,-589824,104,-56,-1,-1,0
1523615560819,-786432,104,-56,-1,-1,0
1523615560859,-851968,104,-56,-1,-1,0
1523615560859,-917504,104,-56,-1,-1,0
1523615560859,-1048576,104,-56,-1,-1,0
1523615560859,-1179648,104,-56,-1,-1,0
1523615560859,-1179648,104,-56,-1,-1,0
1523615560899,-1245184,104,-56,-1,-1,0
1523615560899,-1245184,104,-56,-1,-1,0
1523615560899,-1179648,104,-56,-1,-1,0
1523615560899,-1376256,104,-56,-1,-1,0
1523615560899,-1507328,104,-56,-1,-1,0
1523615560939,-1310720,104,-56,-1,-1,0
1523615560939,-917504,104,-56,-1,-1,0
1523615560939,-917504,104,-56,-1,-1,0
1523615560939,-1179648,104,-56,-1,-1,0
1523615560939,-1048576,104,-56,-1,-1,0
1523615560979,-851968,104,-56,-1,-1,0
1523615560979,-917504,104,-56,-1,-1,0
1523615560979,-1114112,104,-56,-1,-1,0
1523615560979,-1048576,104,-56,-1,-1,0
1523615560979,-983040,104,-56,-1,-1,0
1523615561019,-1048576,104,-56,-1,-1,0
1523615561019,-1048576,104,-56,-1,-1,0
1523615561019,-1048576,104,-56,-1,-1,0
1523615561019,-1048576,104,-56,-1,-1,0
1523615561019,-1114112,104,-56,-1,-1,0
1523615561059,-983040,104,-56,-1,-1,0
1523615561059,-917504,104,-56,-1,-1,0
1523615561059,-983040,104,-56,-1,-1,0
1523615561059,-1179648,104,-56,-1,-1,0
1523615561059,-1179648,104,-56,-1,-1,0
1523615561100,-1179648,104,-56,-1,-1,0
1523615561100,-1048576,104,-56,-1,-1,0
1523615561100,-458752,104,-56,-1,-1,0
1523615561100,1703936,104,-56,-1,-1,0
1523615561100,5373952,104,-56,-1,-1,0
1523615561139,7733248,104,-56,-1,-1,0
1523615561139,6029312,104,-56,-1,-1,0
1523615561139,2162688,104,-56,-1,-1,0
1523615561139,-393216,104,-56,-1,-1,0
1523615561139,-983040,104,-56,-1,-1,0
1523615561179,-851968,104,-56,-1,-1,0
1523615561179,-786432,104,-56,-1,-1,0
1523615561179,-655360,104,-56,-1,-1,0
1523615561179,-393216,104,-56,-1,-1,0
1523615561179,-458752,104,-56,-1,-1,0
1523615561219,-524288,104,-56,-1,-1,0
1523615561219,-262144,104,-56,-1,-1,0
1523615561219,-131072,104,-56,-1,-1,0
1523615561219,-131072,104,-56,-1,-1,0
1523615561219,0,104,-56,-1,-1,0
1523615561268,0,104,-56,-1,-1,0
1523615561268,131072,104,-56,-1,-1,0
1523615561268,458752,104,-56,-1,-1,0
1523615561268,720896,104,-56,-1,-1,0
1523615561268,1048576,104,-56,-1,-1,0
1523615561299,1638400,104,-56,-1,-1,0
1523615561299,2162688,104,-56,-1,-1,0
1523615561299,2359296,104,-56,-1,-1,0
1523615561299,2621440,104,-56,-1,-1,0
1523615561299,2752512,104,-56,-1,-1,0
1523615561339,2621440,104,-56,-1,-1,0
1523615561339,2555904,104,-56,-1,-1,0
1523615561339,2293760,104,-56,-1,-1,0
1523615561339,1835008,104,-56,-1,-1,0
1523615561339,1179648,104,-56,-1,-1,0
1523615561379,589824,104,-56,-1,-1,0
1523615561379,0,104,-56,-1,-1,0
1523615561379,-131072,104,-56,-1,-1,0
1523615561379,-196608,104,-56,-1,-1,0
1523615561379,-327680,104,-56,-1,-1,0
1523615561419,-524288,104,-56,-1,-1,0
1523615561419,-458752,104,-56,-1,-1,0
1523615561419,-524288,104,-56,-1,-1,0
1523615561419,-655360,104,-56,-1,-1,0
1523615561419,-589824,104,-56,-1,-1,0
1523615561459,-524288,104,-56,-1,-1,0
1523615561459,-524288,104,-56,-1,-1,0
1523615561459,-589824,104,-56,-1,-1,0
1523615561459,-589824,104,-56,-1,-1,0
1523615561459,-589824,104,-56,-1,-1,0
1523615561499,-720896,104,-56,-1,-1,0
1523615561499,-786432,104,-56,-1,-1,0
1523615561499,-720896,104,-56,-1,-1,0
1523615561499,-786432,104,-56,-1,-1,0
1523615561499,-851968,104,-56,-1,-1,0
1523615561539,-851968,104,-56,-1,-1,0
1523615561539,-851968,104,-56,-1,-1,0
1523615561539,-917504,104,-56,-1,-1,0
1523615561539,-983040,104,-56,-1,-1,0
1523615561539,-1048576,104,-56,-1,-1,0
1523615561579,-1114112,104,-56,-1,-1,0
1523615561579,-1310720,104,-56,-1,-1,0
1523615561579,-1376256,104,-56,-1,-1,0
1523615561579,-1245184,104,-56,-1,-1,0
1523615561579,-1114112,104,-56,-1,-1,0
1523615561619,-1179648,104,-56,-1,-1,0
1523615561619,-1245184,104,-56,-1,-1,0
1523615561619,-1441792,104,-56,-1,-1,0
1523615561619,-1703936,104,-56,-1,-1,0
1523615561619,-1638400,104,-56,-1,-1,0
1523615561659,-720896,104,-56,-1,-1,0
1523615561659,1507328,104,-56,-1,-1,0
1523615561659,4849664,104,-56,-1,-1,0
1523615561659,6815744,104,-56,-1,-1,0
1523615561659,5308416,104,-56,-1,-1,0
1523615561699,2097152,104,-56,-1,-1,0
1523615561699,-196608,104,-56,-1,-1,0
1523615561699,-1114112,104,-56,-1,-1,0
1523615561699,-1179648,104,-56,-1,-1,0
1523615561699,-917504,104,-56,-1,-1,0
1523615561739,-720896,104,-56,-1,-1,0
1523615561739,-851968,104,-56,-1,-1,0
1523615561739,-786432,104,-56,-1,-1,0
1523615561739,-720896,104,-56,-1,-1,0
1523615561739,-720896,104,-56,-1,-1,0
1523615561779,-851968,104,-56,-1,-1,0
1523615561779,-851968,104,-56,-1,-1,0
1523615561779,-524288,104,-56,-1,-1,0
1523615561779,-196608,104,-56,-1,-1,0
1523615561779,-131072,104,-56,-1,-1,0
1523615561819,-65536,104,-56,-1,-1,0
1523615561819,196608,104,-56,-1,-1,0
1523615561819,720896,104,-56,-1,-1,0
1523615561819,917504,104,-56,-1,-1,0
1523615561819,1179648,104,-56,-1,-1,0
1523615561859,1507328,104,-56,-1,-1,0
1523615561859,1507328,104,-56,-1,-1,0
1523615561859,1507328,104,-56,-1,-1,0
1523615561859,1900544,104,-56,-1,-1,0
1523615561859,2162688,104,-56,-1,-1,0
1523615561908,1835008,104,-56,-1,-1,0
1523615561908,1245184,104,-56,-1,-1,0
1523615561908,720896,104,-56,-1,-1,0
1523615561908,262144,104,-56,-1,-1,0
1523615561908,-65536,104,-56,-1,-1,0
1523615561939,-196608,104,-56,-1,-1,0
1523615561939,-196608,104,-56,-1,-1,0
1523615561939,-458752,104,-56,-1,-1,0
1523615561939,-655360,104,-56,-1,-1,0
1523615561939,-589824,104,-56,-1,-1,0
1523615561979,-327680,104,-56,-1,-1,0
1523615561979,-458752,104,-56,-1,-1,0
1523615561979,-589824,104,-56,-1,-1,0
1523615561979,-589824,104,-56,-1,-1,0
1523615561979,-458752,104,-56,-1,-1,0
1523615562019,-458752,104,-56,-1,-1,0
1523615562019,-458752,104,-56,-1,-1,0
1523615562019,-262144,104,-56,-1,-1,0
1523615562019,-262144,104,-56,-1,-1,0
1523615562019,-458752,104,-56,-1,-1,0
1523615562059,-589824,104,-56,-1,-1,0
1523615562059,-524288,104,-56,-1,-1,0
1523615562059,-393216,104,-56,-1,-1,0
1523615562059,-393216,104,-56,-1,-1,0
1523615562059,-524288,104,-56,-1,-1,0
1523615562099,-524288,104,-56,-1,-1,0
1523615562099,-524288,104,-56,-1,-1,0
1523615562099,-589824,104,-56,-1,-1,0
1523615562099,-786432,104,-56,-1,-1,0
1523615562099,-786432,104,-56,-1,-1,0
1523615562139,-720896,104,-56,-1,-1,0
1523615562139,-589824,104,-56,-1,-1,0
1523615562139,-524288,104,-56,-1,-1,0
1523615562139,-655360,104,-56,-1,-1,0
1523615562139,-851968,104,-56,-1,-1,0
1523615562179,-786432,104,-56,-1,-1,0
1523615562179,-589824,104,-56,-1,-1,0
1523615562179,-589824,104,-56,-1,-1,0
1523615562179,-262144,104,-56,-1,-1,0
1523615562179,1638400,104,-56,-1,-1,0
1523615562219,5111808,104,-56,-1,-1,0
1523615562219,7143424,104,-56,-1,-1,0
1523615562219,5570560,104,-56,-1,-1,0
1523615562219,2097152,104,-56,-1,-1,0
1523615562219,-196608,104,-56,-1,-1,0
1523615562259,-786432,104,-56,-1,-1,0
1523615562259,-655360,104,-56,-1,-1,0
1523615562259,-655360,104,-56,-1,-1,0
1523615562259,-851968,104,-56,-1,-1,0
1523615562259,-720896,104,-56,-1,-1,0
1523615562299,-458752,104,-56,-1,-1,0
1523615562299,-589824,104,-56,-1,-1,0
1523615562299,-786432,104,-56,-1,-1,0
1523615562299,-589824,104,-56,-1,-1,0
1523615562299,-131072,104,-56,-1,-1,0
1523615562339,-65536,104,-56,-1,-1,0
1523615562339,-196608,104,-56,-1,-1,0
1523615562339,-327680,104,-56,-1,-1,0
1523615562339,-131072,104,-56,-1,-1,0
1523615562339,393216,104,-56,-1,-1,0
1523615562379,917504,104,-56,-1,-1,0
1523615562379,1179648,104,-56,-1,-1,0
1523615562379,1310720,104,-56,-1,-1,0
1523615562379,1507328,104,-56,-1,-1,0
1523615562379,1638400,104,-56,-1,-1,0
1523615562419,1703936,104,-56,-1,-1,0
1523615562419,1769472,104,-56,-1,-1,0
1523615562419,1966080,104,-56,-1,-1,0
1523615562419,1703936,104,-56,-1,-1,0
1523615562419,1048576,104,-56,-1,-1,0
1523615562459,327680,104,-56,-1,-1,0
1523615562459,0,104,-56,-1,-1,0
1523615562459,-262144,104,-56,-1,-1,0
1523615562459,-458752,104,-56,-1,-1,0
1523615562459,-917504,104,-56,-1,-1,0
1523615562499,-983040,104,-56,-1,-1,0
1523615562499,-786432,104,-56,-1,-1,0
1523615562499,-589824,104,-56,-1,-1,0
1523615562499,-786432,104,-56,-1,-1,0
1523615562499,-983040,104,-56,-1,-1,0
1523615562548,-1179648,104,-56,-1,-1,0
1523615562548,-1114112,104,-56,-1,-1,0
1523615562548,-1048576,104,-56,-1,-1,0
1523615562548,-917504,104,-56,-1,-1,0
1523615562548,-786432,104,-56,-1,-1,0
1523615562579,-786432,105,-56,-1,-1,0
1523615562579,-1048576,105,-56,-1,-1,0
1523615562579,-1179648,105,-56,-1,-1,0
1523615562579,-1245184,105,-56,-1,-1,0
1523615562579,-1245184,105,-56,-1,-1,0
1523615562619,-1245184,105,-56,-1,-1,0
1523615562619,-1245184,105,-56,-1,-1,0
1523615562619,-1245184,105,-56,-1,-1,0
1523615562619,-1179648,105,-56,-1,-1,0
1523615562619,-1245184,105,-56,-1,-1,0
1523615562659,-1376256,105,-56,-1,-1,0
1523615562659,-1441792,105,-56,-1,-1,0
1523615562659,-1376256,105,-56,-1,-1,0
1523615562659,-1376256,105,-56,-1,-1,0
1523615562659,-1376256,105,-56,-1,-1,0
1523615562699,-1572864,105,-56,-1,-1,0
1523615562699,-1638400,105,-56,-1,-1,0
1523615562699,-1703936,105,-56,-1,-1,0
1523615562699,-1638400,105,-56,-1,-1,0
1523615562699,-1507328,105,-56,-1,-1,0
1523615562739,-1376256,105,-56,-1,-1,0
1523615562739,-851968,105,-56,-1,-1,0
1523615562739,1245184,105,-56,-1,-1,0
1523615562739,4980736,105,-56,-1,-1,0
1523615562739,7143424,105,-56,-1,-1,0
1523615562779,5373952,105,-56,-1,-1,0
1523615562779,1835008,105,-56,-1,-1,0
1523615562779,-655360,105,-56,-1,-1,0
1523615562779,-1441792,105,-56,-1,-1,0
1523615562779,-1310720,105,-56,-1,-1,0
1523615562819,-1114112,105,-56,-1,-1,0
1523615562819,-1310720,105,-56,-1,-1,0
1523615562819,-1441792,105,-56,-1,-1,0
1523615562819,-1310720,105,-56,-1,-1,0
1523615562819,-1245184,105,-56,-1,-1,0
1523615562859,-1179648,105,-56,-1,-1,0
1523615562859,-1048576,105,-56,-1,-1,0
1523615562859,-851968,105,-56,-1,-1,0
1523615562859,-786432,105,-56,-1,-1,0
1523615562859,-655360,105,-56,-1,-1,0
1523615562899,-524288,105,-56,-1,-1,0
1523615562899,-262144,105,-56,-1,-1,0
1523615562899,0,105,-56,-1,-1,0
1523615562899,131072,105,-56,-1,-1,0
1523615562899,458752,105,-56,-1,-1,0
1523615562939,1048576,105,-56,-1,-1,0
1523615562939,1441792,105,-56,-1,-1,0
1523615562939,1835008,105,-56,-1,-1,0
1523615562939,2031616,105,-56,-1,-1,0
1523615562939,1966080,105,-56,-1,-1,0
1523615562979,1769472,105,-56,-1,-1,0
1523615562979,1310720,105,-56,-1,-1,0
1523615562979,786432,105,-56,-1,-1,0
1523615562979,327680,105,-56,-1,-1,0
1523615562979,-131072,105,-56,-1,-1,0
1523615563019,-524288,105,-56,-1,-1,0
1523615563019,-851968,105,-56,-1,-1,0
1523615563019,-983040,105,-56,-1,-1,0
1523615563019,-917504,105,-56,-1,-1,0
1523615563019,-917504,105,-56,-1,-1,0
1523615563059,-983040,105,-56,-1,-1,0
1523615563059,-1048576,105,-56,-1,-1,0
1523615563059,-1114112,105,-56,-1,-1,0
1523615563059,-1114112,105,-56,-1,-1,0
1523615563059,-983040,105,-56,-1,-1,0
1523615563099,-917504,106,-56,-1,-1,0
1523615563099,-983040,106,-56,-1,-1,0
1523615563099,-983040,106,-56,-1,-1,0
1523615563099,-983040,106,-56,-1,-1,0
1523615563099,-983040,106,-56,-1,-1,0
1523615563139,-983040,106,-56,-1,-1,0
1523615563139,-917504,106,-56,-1,-1,0
1523615563139,-917504,106,-56,-1,-1,0
1523615563139,-851968,106,-56,-1,-1,0
1523615563139,-720896,106,-56,-1,-1,0
1523615563188,-786432,106,-56,-1,-1,0
1523615563188,-851968,106,-56,-1,-1,0
1523615563188,-851968,106,-56,-1,-1,0
1523615563188,-786432,106,-56,-1,-1,0
1523615563188,-786432,106,-56,-1,-1,0
1523615563219,-655360,106,-56,-1,-1,0
1523615563219,-655360,106,-56,-1,-1,0
1523615563219,-655360,106,-56,-1,-1,0
1523615563219,-720896,106,-56,-1,-1,0
1523615563219,-1048576,106,-56,-1,-1,0
1523615563259,-1376256,106,-56,-1,-1,0
1523615563259,-1245184,106,-56,-1,-1,0
1523615563259,-1048576,106,-56,-1,-1,0
1523615563259,-917504,106,-56,-1,-1,0
1523615563259,262144,106,-56,-1,-1,0
1523615563299,3866624,106,-56,-1,-1,0
1523615563299,7667712,106,-56,-1,-1,0
1523615563299,7995392,106,-56,-1,-1,0
1523615563299,4653056,106,-56,-1,-1,0
1523615563299,851968,106,-56,-1,-1,0
1523615563339,-851968,106,-56,-1,-1,0
1523615563339,-1114112,106,-56,-1,-1,0
1523615563339,-851968,106,-56,-1,-1,0
1523615563339,-720896,106,-56,-1,-1,0
1523615563339,-786432,106,-56,-1,-1,0
1523615563379,-720896,106,-56,-1,-1,0
1523615563379,-589824,106,-56,-1,-1,0
1523615563379,-524288,106,-56,-1,-1,0
1523615563379,-327680,106,-56,-1,-1,0
1523615563379,-196608,106,-56,-1,-1,0
1523615563419,-327680,106,-56,-1,-1,0
1523615563419,-458752,106,-56,-1,-1,0
1523615563419,-131072,106,-56,-1,-1,0
1523615563419,262144,106,-56,-1,-1,0
1523615563419,524288,106,-56,-1,-1,0
1523615563459,720896,106,-56,-1,-1,0
1523615563459,786432,106,-56,-1,-1,0
1523615563459,1179648,106,-56,-1,-1,0
1523615563459,1900544,106,-56,-1,-1,0
1523615563459,2490368,106,-56,-1,-1,0
1523615563499,2686976,106,-56,-1,-1,0
1523615563499,2752512,106,-56,-1,-1,0
1523615563499,2686976,106,-56,-1,-1,0
1523615563499,2031616,106,-56,-1,-1,0
1523615563499,1376256,106,-56,-1,-1,0
1523615563539,1114112,106,-56,-1,-1,0
1523615563539,851968,106,-56,-1,-1,0
1523615563539,393216,106,-56,-1,-1,0
1523615563539,131072,106,-56,-1,-1,0
1523615563539,-196608,106,-56,-1,-1,0
1523615563579,-524288,106,-56,-1,-1,0
1523615563579,-589824,106,-56,-1,-1,0
1523615563579,-589824,106,-56,-1,-1,0
1523615563579,-720896,106,-56,-1,-1,0
1523615563579,-720896,106,-56,-1,-1,0
1523615563619,-720896,106,-56,-1,-1,0
1523615563619,-589824,106,-56,-1,-1,0
1523615563619,-393216,106,-56,-1,-1,0
1523615563619,-327680,106,-56,-1,-1,0
1523615563619,-589824,106,-56,-1,-1,0
1523615563659,-655360,107,-56,-1,-1,0
1523615563659,-589824,107,-56,-1,-1,0
1523615563659,-655360,107,-56,-1,-1,0
1523615563659,-655360,107,-56,-1,-1,0
1523615563659,-655360,107,-56,-1,-1,0
1523615563699,-458752,107,-56,-1,-1,0
1523615563699,-524288,107,-56,-1,-1,0
1523615563699,-851968,107,-56,-1,-1,0
1523615563699,-851968,107,-56,-1,-1,0
1523615563699,-589824,107,-56,-1,-1,0
1523615563739,-720896,107,-56,-1,-1,0
1523615563739,-1048576,107,-56,-1,-1,0
1523615563739,-1048576,107,-56,-1,-1,0
1523615563739,-851968,107,-56,-1,-1,0
1523615563739,-851968,107,-56,-1,-1,0
1523615563779,-983040,107,-56,-1,-1,0
1523615563779,-1179648,107,-56,-1,-1,0
1523615563779,-1245184,107,-56,-1,-1,0
1523615563779,-1245184,107,-56,-1,-1,0
1523615563779,-1179648,107,-56,-1,-1,0
1523615563828,-1114112,107,-56,-1,-1,0
1523615563828,-917504,107,-56,-1,-1,0
1523615563828,393216,107,-56,-1,-1,0
1523615563828,3997696,107,-56,-1,-1,0
1523615563828,7208960,107,-56,-1,-1,0
1523615563859,6160384,107,-56,-1,-1,0
1523615563859,2293760,107,-56,-1,-1,0
1523615563859,-196608,107,-56,-1,-1,0
1523615563859,-655360,107,-56,-1,-1,0
1523615563859,-786432,107,-56,-1,-1,0
1523615563899,-983040,107,-56,-1,-1,0
1523615563899,-983040,107,-56,-1,-1,0
1523615563899,-917504,107,-56,-1,-1,0
1523615563899,-917504,107,-56,-1,-1,0
1523615563899,-851968,107,-56,-1,-1,0
1523615563939,-786432,107,-56,-1,-1,0
1523615563939,-786432,107,-56,-1,-1,0
1523615563939,-786432,107,-56,-1,-1,0
1523615563939,-589824,107,-56,-1,-1,0
1523615563939,-262144,107,-56,-1,-1,0
1523615563979,-65536,107,-56,-1,-1,0
1523615563979,131072,107,-56,-1,-1,0
1523615563979,262144,107,-56,-1,-1,0
1523615563979,196608,107,-56,-1,-1,0
1523615563979,524288,107,-56,-1,-1,0
1523615564019,1048576,107,-56,-1,-1,0
1523615564019,1769472,107,-56,-1,-1,0
1523615564019,2359296,107,-56,-1,-1,0
1523615564019,2555904,107,-56,-1,-1,0
1523615564019,2293760,107,-56,-1,-1,0
1523615564059,1966080,107,-56,-1,-1,0
1523615564059,1703936,107,-56,-1,-1,0
1523615564059,1179648,107,-56,-1,-1,0
1523615564059,720896,107,-56,-1,-1,0
1523615564059,655360,107,-56,-1,-1,0
1523615564099,327680,107,-56,-1,-1,0
1523615564099,-65536,107,-56,-1,-1,0
1523615564099,-458752,107,-56,-1,-1,0
1523615564099,-458752,107,-56,-1,-1,0
1523615564099,-393216,107,-56,-1,-1,0
1523615564139,-524288,107,-56,-1,-1,0
1523615564139,-524288,107,-56,-1,-1,0
1523615564139,-393216,107,-56,-1,-1,0
1523615564139,-327680,107,-56,-1,-1,0
1523615564139,-458752,107,-56,-1,-1,0
1523615564179,-458752,107,-56,-1,-1,0
1523615564179,-524288,107,-56,-1,-1,0
1523615564179,-524288,107,-56,-1,-1,0
1523615564179,-458752,107,-56,-1,-1,0
1523615564179,-393216,107,-56,-1,-1,0
1523615564219,-327680,107,-56,-1,-1,0
1523615564219,-458752,107,-56,-1,-1,0
1523615564219,-524288,107,-56,-1,-1,0
1523615564219,-589824,107,-56,-1,-1,0
1523615564219,-720896,107,-56,-1,-1,0
1523615564259,-720896,107,-56,-1,-1,0
1523615564259,-589824,107,-56,-1,-1,0
1523615564259,-458752,107,-56,-1,-1,0
1523615564259,-458752,107,-56,-1,-1,0
1523615564259,-589824,107,-56,-1,-1,0
1523615564299,-589824,107,-56,-1,-1,0
1523615564299,-786432,107,-56,-1,-1,0
1523615564299,-1048576,107,-56,-1,-1,0
1523615564299,-851968,107,-56,-1,-1,0
1523615564299,-524288,107,-56,-1,-1,0
1523615564339,-655360,107,-56,-1,-1,0
1523615564339,-917504,107,-56,-1,-1,0
1523615564339,-983040,107,-56,-1,-1,0
1523615564339,-458752,107,-56,-1,-1,0
1523615564339,1376256,107,-56,-1,-1,0
1523615564379,4849664,107,-56,-1,-1,0
1523615564379,7340032,107,-56,-1,-1,0
1523615564379,6029312,107,-56,-1,-1,0
1523615564379,2424832,107,-56,-1,-1,0
1523615564379,0,107,-56,-1,-1,0
1523615564419,-589824,107,-56,-1,-1,0
1523615564419,-589824,107,-56,-1,-1,0
1523615564419,-655360,107,-56,-1,-1,0
1523615564419,-655360,107,-56,-1,-1,0
1523615564419,-655360,107,-56,-1,-1,0
1523615564468,-524288,107,-56,-1,-1,0
1523615564468,-327680,107,-56,-1,-1,0
1523615564468,-262144,107,-56,-1,-1,0
1523615564468,-327680,107,-56,-1,-1,0
1523615564468,-196608,107,-56,-1,-1,0
1523615564499,0,107,-56,-1,-1,0
1523615564499,131072,107,-56,-1,-1,0
1523615564499,65536,107,-56,-1,-1,0
1523615564499,131072,107,-56,-1,-1,0
1523615564499,393216,107,-56,-1,-1,0
1523615564539,655360,107,-56,-1,-1,0
1523615564539,917504,107,-56,-1,-1,0
1523615564539,1310720,107,-56,-1,-1,0
1523615564539,1638400,107,-56,-1,-1,0
1523615564539,2031616,107,-56,-1,-1,0
1523615564581,2228224,107,-56,-1,-1,0
1523615564581,2228224,107,-56,-1,-1,0
1523615564581,2031616,107,-56,-1,-1,0
1523615564581,1703936,107,-56,-1,-1,0
1523615564581,1245184,107,-56,-1,-1,0
1523615564619,589824,107,-56,-1,-1,0
1523615564619,131072,107,-56,-1,-1,0
1523615564619,0,107,-56,-1,-1,0
1523615564619,-65536,107,-56,-1,-1,0
1523615564619,-327680,107,-56,-1,-1,0
1523615564659,-589824,107,-56,-1,-1,0
1523615564659,-589824,107,-56,-1,-1,0
1523615564659,-458752,107,-56,-1,-1,0
1523615564659,-589824,107,-56,-1,-1,0
1523615564659,-524288,107,-56,-1,-1,0
1523615564699,-458752,109,-56,-1,-1,0
1523615564699,-720896,109,-56,-1,-1,0
1523615564699,-917504,109,-56,-1,-1,0
1523615564699,-786432,109,-56,-1,-1,0
1523615564699,-720896,109,-56,-1,-1,0
1523615564739,-786432,109,-56,-1,-1,0
1523615564739,-720896,109,-56,-1,-1,0
1523615564739,-655360,109,-56,-1,-1,0
1523615564739,-720896,109,-56,-1,-1,0
1523615564739,-786432,109,-56,-1,-1,0
1523615564779,-917504,109,-56,-1,-1,0
1523615564779,-983040,109,-56,-1,-1,0
1523615564779,-917504,109,-56,-1,-1,0
1523615564779,-851968,109,-56,-1,-1,0
1523615564779,-983040,109,-56,-1,-1,0
1523615564819,-983040,109,-56,-1,-1,0
1523615564819,-983040,109,-56,-1,-1,0
1523615564819,-983040,109,-56,-1,-1,0
1523615564819,-1179648,109,-56,-1,-1,0
1523615564819,-1441792,109,-56,-1,-1,0
1523615564859,-1376256,109,-56,-1,-1,0
1523615564859,-1179648,109,-56,-1,-1,0
1523615564859,-1114112,109,-56,-1,-1,0
1523615564859,-1245184,109,-56,-1,-1,0
1523615564859,-1245184,109,-56,-1,-1,0
1523615564899,-589824,109,-56,-1,-1,0
1523615564899,1966080,109,-56,-1,-1,0
1523615564899,5701632,109,-56,-1,-1,0
1523615564899,7471104,109,-56,-1,-1,0
1523615564899,5046272,109,-56,-1,-1,0
1523615564939,1179648,109,-56,-1,-1,0
1523615564939,-917504,109,-56,-1,-1,0
1523615564939,-1310720,109,-56,-1,-1,0
1523615564939,-1310720,109,-56,-1,-1,0
1523615564939,-1310720,109,-56,-1,-1,0
1523615564979,-1310720,109,-56,-1,-1,0
1523615564979,-1310720,109,-56,-1,-1,0
1523615564979,-1245184,109,-56,-1,-1,0
1523615564979,-1245184,109,-56,-1,-1,0
1523615564979,-1310720,109,-56,-1,-1,0
1523615565019,-1114112,109,-56,-1,-1,0
1523615565019,-851968,109,-56,-1,-1,0
1523615565019,-917504,109,-56,-1,-1,0
1523615565019,-851968,109,-56,-1,-1,0
1523615565019,-720896,109,-56,-1,-1,0
1523615565059,-458752,109,-56,-1,-1,0
1523615565059,-196608,109,-56,-1,-1,0
1523615565059,262144,109,-56,-1,-1,0
1523615565059,655360,109,-56,-1,-1,0
1523615565059,851968,109,-56,-1,-1,0
1523615565108,1179648,109,-56,-1,-1,0
1523615565108,1572864,109,-56,-1,-1,0
1523615565108,1769472,109,-56,-1,-1,0
1523615565108,1703936,109,-56,-1,-1,0
1523615565108,1376256,109,-56,-1,-1,0
1523615565139,917504,109,-56,-1,-1,0
1523615565139,327680,109,-56,-1,-1,0
1523615565139,-65536,109,-56,-1,-1,0
1523615565139,-393216,109,-56,-1,-1,0
1523615565139,-655360,109,-56,-1,-1,0
1523615565179,-917504,109,-56,-1,-1,0
1523615565179,-983040,109,-56,-1,-1,0
1523615565179,-1114112,109,-56,-1,-1,0
1523615565179,-1310720,109,-56,-1,-1,0
1523615565179,-1376256,109,-56,-1,-1,0
1523615565219,-1310720,109,-56,-1,-1,0
1523615565219,-1245184,109,-56,-1,-1,0
1523615565219,-1179648,109,-56,-1,-1,0
1523615565219,-1179648,109,-56,-1,-1,0
1523615565219,-1376256,109,-56,-1,-1,0
1523615565259,-1441792,109,-56,-1,-1,0
1523615565259,-1245184,109,-56,-1,-1,0
1523615565259,-1114112,109,-56,-1,-1,0
1523615565259,-1245184,109,-56,-1,-1,0
1523615565259,-1245184,109,-56,-1,-1,0
1523615565299,-1179648,109,-56,-1,-1,0
1523615565299,-1048576,109,-56,-1,-1,0
1523615565299,-1048576,109,-56,-1,-1,0
1523615565299,-1245184,109,-56,-1,-1,0
1523615565299,-1245184,109,-56,-1,-1,0
1523615565339,-1114112,109,-56,-1,-1,0
1523615565339,-983040,109,-56,-1,-1,0
1523615565339,-1114112,109,-56,-1,-1,0
1523615565339,-1179648,109,-56,-1,-1,0
1523615565339,-1048576,109,-56,-1,-1,0
1523615565379,-1048576,109,-56,-1,-1,0
1523615565379,-1048576,109,-56,-1,-1,0
1523615565379,-1048576,109,-56,-1,-1,0
1523615565379,-786432,109,-56,-1,-1,0
1523615565379,-917504,109,-56,-1,-1,0
1523615565419,-1376256,109,-56,-1,-1,0
1523615565419,-1507328,109,-56,-1,-1,0
1523615565419,-196608,109,-56,-1,-1,0
1523615565419,2949120,109,-56,-1,-1,0
1523615565419,6815744,109,-56,-1,-1,0
1523615565459,8126464,109,-56,-1,-1,0
1523615565459,5177344,109,-56,-1,-1,0
1523615565459,1179648,109,-56,-1,-1,0
1523615565459,-589824,109,-56,-1,-1,0
1523615565459,-983040,109,-56,-1,-1,0
1523615565499,-1245184,109,-56,-1,-1,0
1523615565499,-1048576,109,-56,-1,-1,0
1523615565499,-851968,109,-56,-1,-1,0
1523615565499,-917504,109,-56,-1,-1,0
1523615565499,-851968,109,-56,-1,-1,0
1523615565539,-458752,109,-56,-1,-1,0
1523615565539,-327680,109,-56,-1,-1,0
1523615565539,-458752,109,-56,-1,-1,0
1523615565539,-196608,109,-56,-1,-1,0
1523615565539,-131072,109,-56,-1,-1,0
1523615565579,-65536,109,-56,-1,-1,0
1523615565579,0,109,-56,-1,-1,0
1523615565579,393216,109,-56,-1,-1,0
1523615565579,851968,109,-56,-1,-1,0
1523615565579,983040,109,-56,-1,-1,0
1523615565621,1114112,109,-56,-1,-1,0
1523615565621,1703936,109,-56,-1,-1,0
1523615565621,1900544,109,-56,-1,-1,0
1523615565621,2031616,109,-56,-1,-1,0
1523615565621,2228224,109,-56,-1,-1,0
1523615565659,2359296,109,-56,-1,-1,0
1523615565659,1835008,109,-56,-1,-1,0
1523615565659,1310720,109,-56,-1,-1,0
1523615565659,917504,109,-56,-1,-1,0
1523615565659,851968,109,-56,-1,-1,0
1523615565699,524288,109,-56,-1,-1,0
1523615565699,196608,109,-56,-1,-1,0
1523615565699,-196608,109,-56,-1,-1,0
1523615565699,-655360,109,-56,-1,-1,0
1523615565699,-786432,109,-56,-1,-1,0
1523615565748,-655360,109,-56,-1,-1,0
1523615565748,-524288,109,-56,-1,-1,0
1523615565748,-524288,109,-56,-1,-1,0
1523615565748,-458752,109,-56,-1,-1,0
1523615565748,-524288,109,-56,-1,-1,0
1523615565779,-655360,109,-56,-1,-1,0
1523615565779,-458752,109,-56,-1,-1,0
1523615565779,-393216,109,-56,-1,-1,0
1523615565779,-655360,109,-56,-1,-1,0
1523615565779,-786432,109,-56,-1,-1,0
1523615565819,-720896,109,-56,-1,-1,0
1523615565819,-655360,109,-56,-1,-1,0
1523615565819,-655360,109,-56,-1,-1,0
1523615565819,-786432,109,-56,-1,-1,0
1523615565819,-851968,109,-56,-1,-1,0
1523615565859,-720896,109,-56,-1,-1,0
1523615565859,-524288,109,-56,-1,-1,0
1523615565859,-524288,109,-56,-1,-1,0
1523615565859,-655360,109,-56,-1,-1,0
1523615565859,-851968,109,-56,-1,-1,0
1523615565899,-851968,109,-56,-1,-1,0
1523615565899,-851968,109,-56,-1,-1,0
1523615565899,-917504,109,-56,-1,-1,0
1523615565899,-1114112,109,-56,-1,-1,0
1523615565899,-1179648,109,-56,-1,-1,0
1523615565939,-1245184,109,-56,-1,-1,0
1523615565939,-1376256,109,-56,-1,-1,0
1523615565939,-1179648,109,-56,-1,-1,0
1523615565939,-524288,109,-56,-1,-1,0
1523615565939,983040,109,-56,-1,-1,0
1523615565979,4063232,109,-56,-1,-1,0
1523615565979,6815744,109,-56,-1,-1,0
1523615565979,6291456,109,-56,-1,-1,0
1523615565979,2883584,109,-56,-1,-1,0
1523615565979,-327680,109,-56,-1,-1,0
1523615566019,-1638400,109,-56,-1,-1,0
1523615566019,-1572864,109,-56,-1,-1,0
1523615566019,-720896,109,-56,-1,-1,0
1523615566019,-393216,109,-56,-1,-1,0
1523615566019,-720896,109,-56,-1,-1,0
1523615566059,-917504,109,-56,-1,-1,0
1523615566059,-720896,109,-56,-1,-1,0
1523615566059,-393216,109,-56,-1,-1,0
1523615566059,-262144,109,-56,-1,-1,0
1523615566059,-524288,109,-56,-1,-1,0
1523615566099,-851968,109,-56,-1,-1,0
1523615566099,-720896,109,-56,-1,-1,0
1523615566099,-589824,109,-56,-1,-1,0
1523615566099,-458752,109,-56,-1,-1,0
1523615566099,0,109,-56,-1,-1,0
1523615566139,524288,109,-56,-1,-1,0
1523615566139,1048576,109,-56,-1,-1,0
1523615566139,1572864,109,-56,-1,-1,0
1523615566139,1900544,109,-56,-1,-1,0
1523615566139,1966080,109,-56,-1,-1,0
1523615566179,2031616,109,-56,-1,-1,0
1523615566179,2031616,109,-56,-1,-1,0
1523615566179,1638400,109,-56,-1,-1,0
1523615566179,1310720,109,-56,-1,-1,0
1523615566179,1048576,109,-56,-1,-1,0
1523615566219,720896,109,-56,-1,-1,0
1523615566219,458752,109,-56,-1,-1,0
1523615566219,262144,109,-56,-1,-1,0
1523615566219,65536,109,-56,-1,-1,0
1523615566219,-131072,109,-56,-1,-1,0
1523615566259,-393216,109,-56,-1,-1,0
1523615566259,-589824,109,-56,-1,-1,0
1523615566259,-524288,109,-56,-1,-1,0
1523615566259,-458752,109,-56,-1,-1,0
1523615566259,-589824,109,-56,-1,-1,0
1523615566299,-851968,110,-56,-1,-1,0
1523615566299,-786432,110,-56,-1,-1,0
1523615566299,-458752,110,-56,-1,-1,0
1523615566299,-262144,110,-56,-1,-1,0
1523615566299,-262144,110,-56,-1,-1,0
1523615566339,-327680,110,-56,-1,-1,0
1523615566339,-524288,110,-56,-1,-1,0
1523615566339,-655360,110,-56,-1,-1,0
1523615566339,-655360,110,-56,-1,-1,0
1523615566339,-458752,110,-56,-1,-1,0
1523615566388,-327680,110,-56,-1,-1,0
1523615566388,-327680,110,-56,-1,-1,0
1523615566388,-524288,110,-56,-1,-1,0
1523615566388,-589824,110,-56,-1,-1,0
1523615566388,-720896,110,-56,-1,-1,0
1523615566419,-655360,110,-56,-1,-1,0
1523615566419,-786432,110,-56,-1,-1,0
1523615566419,-917504,110,-56,-1,-1,0
1523615566419,-786432,110,-56,-1,-1,0
1523615566419,-524288,110,-56,-1,-1,0
1523615566459,-589824,110,-56,-1,-1,0
1523615566459,-786432,110,-56,-1,-1,0
1523615566459,-983040,110,-56,-1,-1,0
1523615566459,-1048576,110,-56,-1,-1,0
1523615566459,-655360,110,-56,-1,-1,0
1523615566499,1179648,110,-56,-1,-1,0
1523615566499,4784128,110,-56,-1,-1,0
1523615566499,7208960,110,-56,-1,-1,0
1523615566499,5898240,110,-56,-1,-1,0
1523615566499,2359296,110,-56,-1,-1,0
1523615566539,-131072,110,-56,-1,-1,0
1523615566539,-917504,110,-56,-1,-1,0
1523615566539,-1048576,110,-56,-1,-1,0
1523615566539,-786432,110,-56,-1,-1,0
1523615566539,-589824,110,-56,-1,-1,0
1523615566579,-720896,110,-56,-1,-1,0
1523615566579,-786432,110,-56,-1,-1,0
1523615566579,-655360,110,-56,-1,-1,0
1523615566579,-458752,110,-56,-1,-1,0
1523615566579,-458752,110,-56,-1,-1,0
1523615566619,-524288,110,-56,-1,-1,0
1523615566619,-393216,110,-56,-1,-1,0
1523615566619,-196608,110,-56,-1,-1,0
1523615566619,-65536,110,-56,-1,-1,0
1523615566619,0,110,-56,-1,-1,0
1523615566659,65536,110,-56,-1,-1,0
1523615566659,393216,110,-56,-1,-1,0
1523615566659,851968,110,-56,-1,-1,0
1523615566659,1179648,110,-56,-1,-1,0
1523615566659,1376256,110,-56,-1,-1,0
1523615566699,1572864,110,-56,-1,-1,0
1523615566699,1835008,110,-56,-1,-1,0
1523615566699,2031616,110,-56,-1,-1,0
1523615566699,1835008,110,-56,-1,-1,0
1523615566699,1376256,110,-56,-1,-1,0
1523615566739,786432,110,-56,-1,-1,0
1523615566739,393216,110,-56,-1,-1,0
1523615566739,0,110,-56,-1,-1,0
1523615566739,-262144,110,-56,-1,-1,0
1523615566739,-589824,110,-56,-1,-1,0
1523615566779,-786432,110,-56,-1,-1,0
1523615566779,-917504,110,-56,-1,-1,0
1523615566779,-983040,110,-56,-1,-1,0
1523615566779,-1048576,110,-56,-1,-1,0
1523615566779,-917504,110,-56,-1,-1,0
1523615566819,-851968,110,-56,-1,-1,0
1523615566819,-786432,110,-56,-1,-1,0
1523615566819,-1048576,110,-56,-1,-1,0
1523615566819,-1048576,110,-56,-1,-1,0
1523615566819,-917504,110,-56,-1,-1,0
1523615566859,-851968,110,-56,-1,-1,0
1523615566859,-1048576,110,-56,-1,-1,0
1523615566859,-1179648,110,-56,-1,-1,0
1523615566859,-1114112,110,-56,-1,-1,0
1523615566859,-1179648,110,-56,-1,-1,0
1523615566899,-1245184,110,-56,-1,-1,0
1523615566899,-1114112,110,-56,-1,-1,0
1523615566899,-917504,110,-56,-1,-1,0
1523615566899,-1048576,110,-56,-1,-1,0
1523615566899,-1310720,110,-56,-1,-1,0
1523615566939,-1245184,110,-56,-1,-1,0
1523615566939,-1245184,110,-56,-1,-1,0
1523615566939,-1376256,110,-56,-1,-1,0
1523615566939,-1441792,110,-56,-1,-1,0
1523615566939,-1245184,110,-56,-1,-1,0
1523615566979,-1441792,110,-56,-1,-1,0
1523615566979,-1703936,110,-56,-1,-1,0
1523615566979,-1638400,110,-56,-1,-1,0
1523615566979,-1507328,110,-56,-1,-1,0
1523615566979,-1441792,110,-56,-1,-1,0
1523615567028,-327680,110,-56,-1,-1,0
1523615567028,2949120,110,-56,-1,-1,0
1523615567028,6553600,110,-56,-1,-1,0
1523615567028,7012352,110,-56,-1,-1,0
1523615567028,3997696,110,-56,-1,-1,0
1523615567059,458752,110,-56,-1,-1,0
1523615567059,-1179648,110,-56,-1,-1,0
1523615567059,-1507328,110,-56,-1,-1,0
1523615567059,-1441792,110,-56,-1,-1,0
1523615567059,-1441792,110,-56,-1,-1,0
1523615567099,-1310720,110,-56,-1,-1,0
1523615567099,-1245184,110,-56,-1,-1,0
1523615567099,-1114112,110,-56,-1,-1,0
1523615567099,-917504,110,-56,-1,-1,0
1523615567099,-983040,110,-56,-1,-1,0
1523615567139,-917504,110,-56,-1,-1,0
1523615567139,-720896,110,-56,-1,-1,0
1523615567139,-786432,110,-56,-1,-1,0
1523615567139,-851968,110,-56,-1,-1,0
1523615567139,-655360,110,-56,-1,-1,0
1523615567179,-458752,110,-56,-1,-1,0
1523615567179,-131072,110,-56,-1,-1,0
1523615567179,327680,110,-56,-1,-1,0
1523615567179,851968,110,-56,-1,-1,0
1523615567179,1179648,110,-56,-1,-1,0
1523615567219,1507328,110,-56,-1,-1,0
1523615567219,1703936,110,-56,-1,-1,0
1523615567219,1769472,110,-56,-1,-1,0
1523615567219,1572864,110,-56,-1,-1,0
1523615567219,1245184,110,-56,-1,-1,0
1523615567259,851968,110,-56,-1,-1,0
1523615567259,393216,110,-56,-1,-1,0
1523615567259,0,110,-56,-1,-1,0
1523615567259,-327680,110,-56,-1,-1,0
1523615567259,-589824,110,-56,-1,-1,0
1523615567299,-720896,110,-56,-1,-1,0
1523615567299,-917504,110,-56,-1,-1,0
1523615567299,-1114112,110,-56,-1,-1,0
1523615567299,-1114112,110,-56,-1,-1,0
1523615567299,-1048576,110,-56,-1,-1,0
1523615567339,-1114112,111,-56,-1,-1,0
1523615567339,-1179648,111,-56,-1,-1,0
1523615567339,-1114112,111,-56,-1,-1,0
1523615567339,-917504,111,-56,-1,-1,0
1523615567339,-851968,111,-56,-1,-1,0
1523615567379,-917504,111,-56,-1,-1,0
1523615567379,-983040,111,-56,-1,-1,0
1523615567379,-917504,111,-56,-1,-1,0
1523615567379,-983040,111,-56,-1,-1,0
1523615567379,-1048576,111,-56,-1,-1,0
1523615567419,-983040,111,-56,-1,-1,0
1523615567419,-720896,111,-56,-1,-1,0
1523615567419,-524288,111,-56,-1,-1,0
1523615567419,-458752,111,-56,-1,-1,0
1523615567419,-524288,111,-56,-1,-1,0
1523615567459,-655360,111,-56,-1,-1,0
1523615567459,-1048576,111,-56,-1,-1,0
1523615567459,-1245184,111,-56,-1,-1,0
1523615567459,-983040,111,-56,-1,-1,0
1523615567459,-786432,111,-56,-1,-1,0
1523615567499,-1048576,111,-56,-1,-1,0
1523615567499,-1179648,111,-56,-1,-1,0
1523615567499,-851968,111,-56,-1,-1,0
1523615567499,-589824,111,-56,-1,-1,0
1523615567499,-720896,111,-56,-1,-1,0
1523615567539,65536,111,-56,-1,-1,0
1523615567539,3014656,111,-56,-1,-1,0
1523615567539,7012352,111,-56,-1,-1,0
1523615567539,8454144,111,-56,-1,-1,0
1523615567539,5636096,111,-56,-1,-1,0
1523615567579,1638400,111,-56,-1,-1,0
1523615567579,-196608,111,-56,-1,-1,0
1523615567579,-589824,111,-56,-1,-1,0
1523615567579,-851968,111,-56,-1,-1,0
1523615567579,-1048576,111,-56,-1,-1,0
1523615567619,-851968,111,-56,-1,-1,0
1523615567619,-393216,111,-56,-1,-1,0
1523615567619,-131072,111,-56,-1,-1,0
1523615567619,-262144,111,-56,-1,-1,0
1523615567619,-393216,111,-56,-1,-1,0
1523615567668,-524288,111,-56,-1,-1,0
1523615567668,-524288,111,-56,-1,-1,0
1523615567668,-262144,111,-56,-1,-1,0
1523615567668,-131072,111,-56,-1,-1,0
1523615567668,65536,111,-56,-1,-1,0
1523615567699,524288,111,-56,-1,-1,0
1523615567699,917504,111,-56,-1,-1,0
1523615567699,1179648,111,-56,-1,-1,0
1523615567699,1441792,111,-56,-1,-1,0
1523615567699,1769472,111,-56,-1,-1,0
1523615567739,1966080,111,-56,-1,-1,0
1523615567739,2228224,111,-56,-1,-1,0
1523615567739,2228224,111,-56,-1,-1,0
1523615567739,2359296,111,-56,-1,-1,0
1523615567739,2293760,111,-56,-1,-1,0
1523615567779,1900544,111,-56,-1,-1,0
1523615567779,1048576,111,-56,-1,-1,0
1523615567779,655360,111,-56,-1,-1,0
1523615567779,393216,111,-56,-1,-1,0
1523615567779,0,111,-56,-1,-1,0
1523615567819,-458752,111,-56,-1,-1,0
1523615567819,-720896,111,-56,-1,-1,0
1523615567819,-655360,111,-56,-1,-1,0
1523615567819,-524288,111,-56,-1,-1,0
1523615567819,-655360,111,-56,-1,-1,0
1523615567859,-720896,111,-56,-1,-1,0
1523615567859,-720896,111,-56,-1,-1,0
1523615567859,-786432,111,-56,-1,-1,0
1523615567859,-917504,111,-56,-1,-1,0
1523615567859,-851968,111,-56,-1,-1,0
1523615567899,-655360,111,-56,-1,-1,0
1523615567899,-524288,111,-56,-1,-1,0
1523615567899,-524288,111,-56,-1,-1,0
1523615567899,-524288,111,-56,-1,-1,0
1523615567899,-851968,111,-56,-1,-1,0
1523615567939,-1114112,111,-56,-1,-1,0
1523615567939,-1048576,111,-56,-1,-1,0
1523615567939,-655360,111,-56,-1,-1,0
1523615567939,-589824,111,-56,-1,-1,0
1523615567939,-786432,111,-56,-1,-1,0
1523615567979,-917504,111,-56,-1,-1,0
1523615567979,-720896,111,-56,-1,-1,0
1523615567979,-655360,111,-56,-1,-1,0
1523615567979,-720896,111,-56,-1,-1,0
1523615567979,-786432,111,-56,-1,-1,0
1523615568019,-983040,111,-56,-1,-1,0
1523615568019,-1114112,111,-56,-1,-1,0
1523615568019,-1114112,111,-56,-1,-1,0
1523615568019,-1048576,111,-56,-1,-1,0
1523615568019,-1114112,111,-56,-1,-1,0
1523615568059,-786432,111,-56,-1,-1,0
1523615568059,851968,111,-56,-1,-1,0
1523615568059,4521984,111,-56,-1,-1,0
1523615568059,7929856,111,-56,-1,-1,0
1523615568059,7340032,111,-56,-1,-1,0
1523615568099,3407872,111,-56,-1,-1,0
1523615568099,0,111,-56,-1,-1,0
1523615568099,-1179648,111,-56,-1,-1,0
1523615568099,-1572864,111,-56,-1,-1,0
1523615568099,-1507328,111,-56,-1,-1,0
1523615568139,-1048576,111,-56,-1,-1,0
1523615568139,-786432,111,-56,-1,-1,0
1523615568139,-917504,111,-56,-1,-1,0
1523615568139,-851968,111,-56,-1,-1,0
1523615568139,-655360,111,-56,-1,-1,0
1523615568179,-524288,111,-56,-1,-1,0
1523615568179,-589824,111,-56,-1,-1,0
1523615568179,-393216,111,-56,-1,-1,0
1523615568179,-65536,111,-56,-1,-1,0
1523615568179,-65536,111,-56,-1,-1,0
1523615568219,0,111,-56,-1,-1,0
1523615568219,65536,111,-56,-1,-1,0
1523615568219,262144,111,-56,-1,-1,0
1523615568219,720896,111,-56,-1,-1,0
1523615568219,1179648,111,-56,-1,-1,0
1523615568259,1507328,111,-56,-1,-1,0
1523615568259,1835008,111,-56,-1,-1,0
1523615568259,2097152,111,-56,-1,-1,0
1523615568259,2228224,111,-56,-1,-1,0
1523615568259,2293760,111,-56,-1,-1,0
1523615568308,1966080,111,-56,-1,-1,0
1523615568308,1441792,111,-56,-1,-1,0
1523615568308,851968,111,-56,-1,-1,0
1523615568308,393216,111,-56,-1,-1,0
1523615568308,0,111,-56,-1,-1,0
1523615568339,-327680,111,-56,-1,-1,0
1523615568339,-589824,111,-56,-1,-1,0
1523615568339,-655360,111,-56,-1,-1,0
1523615568339,-786432,111,-56,-1,-1,0
1523615568339,-589824,111,-56,-1,-1,0
1523615568379,-524288,111,-56,-1,-1,0
1523615568379,-524288,111,-56,-1,-1,0
1523615568379,-589824,111,-56,-1,-1,0
1523615568379,-524288,111,-56,-1,-1,0
1523615568379,-720896,111,-56,-1,-1,0
1523615568419,-720896,111,-56,-1,-1,0
1523615568419,-589824,111,-56,-1,-1,0
1523615568419,-524288,111,-56,-1,-1,0
1523615568419,-589824,111,-56,-1,-1,0
1523615568419,-720896,111,-56,-1,-1,0
1523615568459,-655360,111,-56,-1,-1,0
1523615568459,-524288,111,-56,-1,-1,0
1523615568459,-524288,111,-56,-1,-1,0
1523615568459,-458752,111,-56,-1,-1,0
1523615568459,-589824,111,-56,-1,-1,0
1523615568499,-786432,111,-56,-1,-1,0
1523615568499,-851968,111,-56,-1,-1,0
1523615568499,-720896,111,-56,-1,-1,0
1523615568499,-655360,111,-56,-1,-1,0
1523615568499,-786432,111,-56,-1,-1,0
1523615568539,-983040,111,-56,-1,-1,0
1523615568539,-1048576,111,-56,-1,-1,0
1523615568539,-917504,111,-56,-1,-1,0
1523615568539,-786432,111,-56,-1,-1,0
1523615568539,-917504,111,-56,-1,-1,0
1523615568579,-917504,111,-56,-1,-1,0
1523615568579,131072,111,-56,-1,-1,0
1523615568579,3080192,111,-56,-1,-1,0
1523615568579,6422528,111,-56,-1,-1,0
1523615568579,7340032,111,-56,-1,-1,0
1523615568619,4390912,111,-56,-1,-1,0
1523615568619,720896,111,-56,-1,-1,0
1523615568619,-720896,111,-56,-1,-1,0
1523615568619,-917504,111,-56,-1,-1,0
1523615568619,-851968,111,-56,-1,-1,0
1523615568659,-851968,111,-56,-1,-1,0
1523615568659,-720896,111,-56,-1,-1,0
1523615568659,-589824,111,-56,-1,-1,0
1523615568659,-655360,111,-56,-1,-1,0
1523615568659,-851968,111,-56,-1,-1,0
1523615568699,-917504,111,-56,-1,-1,0
1523615568699,-720896,111,-56,-1,-1,0
1523615568699,-327680,111,-56,-1,-1,0
1523615568699,-327680,111,-56,-1,-1,0
1523615568699,-393216,111,-56,-1,-1,0
1523615568739,-65536,111,-56,-1,-1,0
1523615568739,327680,111,-56,-1,-1,0
1523615568739,458752,111,-56,-1,-1,0
1523615568739,589824,111,-56,-1,-1,0
1523615568739,720896,111,-56,-1,-1,0
1523615568779,1179648,111,-56,-1,-1,0
1523615568779,1703936,111,-56,-1,-1,0
1523615568779,1769472,111,-56,-1,-1,0
1523615568779,1638400,111,-56,-1,-1,0
1523615568779,1769472,111,-56,-1,-1,0
1523615568819,1638400,111,-56,-1,-1,0
1523615568819,1179648,111,-56,-1,-1,0
1523615568819,720896,111,-56,-1,-1,0
1523615568819,458752,111,-56,-1,-1,0
1523615568819,-65536,111,-56,-1,-1,0
1523615568859,-589824,111,-56,-1,-1,0
1523615568859,-720896,111,-56,-1,-1,0
1523615568859,-524288,111,-56,-1,-1,0
1523615568859,-524288,111,-56,-1,-1,0
1523615568859,-720896,111,-56,-1,-1,0
1523615568900,-983040,111,-56,-1,-1,0
1523615568900,-1114112,111,-56,-1,-1,0
1523615568900,-983040,111,-56,-1,-1,0
1523615568900,-720896,111,-56,-1,-1,0
1523615568900,-589824,111,-56,-1,-1,0
1523615568949,-655360,111,-56,-1,-1,0
1523615568949,-589824,111,-56,-1,-1,0
1523615568949,-786432,111,-56,-1,-1,0
1523615568949,-983040,111,-56,-1,-1,0
1523615568949,-1310720,111,-56,-1,-1,0
1523615568980,-1114112,111,-56,-1,-1,0
1523615568980,-786432,111,-56,-1,-1,0
1523615568980,-720896,111,-56,-1,-1,0
1523615568980,-917504,111,-56,-1,-1,0
1523615568980,-1114112,111,-56,-1,-1,0
1523615569019,-1376256,111,-56,-1,-1,0
1523615569019,-1376256,111,-56,-1,-1,0
1523615569019,-1114112,111,-56,-1,-1,0
1523615569019,-1114112,111,-56,-1,-1,0
1523615569019,-1245184,111,-56,-1,-1,0
1523615569059,-1179648,111,-56,-1,-1,0
1523615569059,-1179648,111,-56,-1,-1,0
1523615569059,-1245184,111,-56,-1,-1,0
1523615569059,-1310720,111,-56,-1,-1,0
1523615569059,-1441792,111,-56,-1,-1,0
1523615569099,-1376256,111,-56,-1,-1,0
1523615569099,-196608,111,-56,-1,-1,0
1523615569099,2949120,111,-56,-1,-1,0
1523615569099,6619136,111,-56,-1,-1,0
1523615569099,7536640,111,-56,-1,-1,0
1523615569139,4849664,111,-56,-1,-1,0
1523615569139,1245184,111,-56,-1,-1,0
1523615569139,-720896,111,-56,-1,-1,0
1523615569139,-1179648,111,-56,-1,-1,0
1523615569139,-1245184,111,-56,-1,-1,0
1523615569179,-1376256,111,-56,-1,-1,0
1523615569179,-1310720,111,-56,-1,-1,0
1523615569179,-1310720,111,-56,-1,-1,0
1523615569179,-1245184,111,-56,-1,-1,0
1523615569179,-1245184,111,-56,-1,-1,0
1523615569219,-1179648,111,-56,-1,-1,0
1523615569219,-917504,111,-56,-1,-1,0
1523615569219,-655360,111,-56,-1,-1,0
1523615569219,-589824,111,-56,-1,-1,0
1523615569219,-458752,111,-56,-1,-1,0
1523615569259,-327680,111,-56,-1,-1,0
1523615569259,-131072,111,-56,-1,-1,0
1523615569259,0,111,-56,-1,-1,0
1523615569259,262144,111,-56,-1,-1,0
1523615569259,589824,111,-56,-1,-1,0
1523615569299,1048576,111,-56,-1,-1,0
1523615569299,1441792,111,-56,-1,-1,0
1523615569299,1703936,111,-56,-1,-1,0
1523615569299,1835008,111,-56,-1,-1,0
1523615569299,1769472,111,-56,-1,-1,0
1523615569339,1441792,111,-56,-1,-1,0
1523615569339,983040,111,-56,-1,-1,0
1523615569339,655360,111,-56,-1,-1,0
1523615569339,131072,111,-56,-1,-1,0
1523615569339,-589824,111,-56,-1,-1,0
1523615569379,-917504,111,-56,-1,-1,0
1523615569379,-720896,111,-56,-1,-1,0
1523615569379,-524288,111,-56,-1,-1,0
1523615569379,-851968,111,-56,-1,-1,0
1523615569379,-1048576,111,-56,-1,-1,0
1523615569419,-1048576,112,-56,-1,-1,0
1523615569419,-983040,112,-56,-1,-1,0
1523615569419,-983040,112,-56,-1,-1,0
1523615569419,-983040,112,-56,-1,-1,0
1523615569419,-1048576,112,-56,-1,-1,0
1523615569459,-1114112,112,-56,-1,-1,0
1523615569459,-1114112,112,-56,-1,-1,0
1523615569459,-1114112,112,-56,-1,-1,0
1523615569459,-983040,112,-56,-1,-1,0
1523615569459,-917504,112,-56,-1,-1,0
1523615569499,-983040,112,-56,-1,-1,0
1523615569499,-851968,112,-56,-1,-1,0
1523615569499,-655360,112,-56,-1,-1,0
1523615569499,-589824,112,-56,-1,-1,0
1523615569499,-655360,112,-56,-1,-1,0
1523615569539,-524288,112,-56,-1,-1,0
1523615569539,-589824,112,-56,-1,-1,0
1523615569539,-1048576,112,-56,-1,-1,0
1523615569539,-1638400,112,-56,-1,-1,0
1523615569539,-1310720,112,-56,-1,-1,0
1523615569588,-983040,112,-56,-1,-1,0
1523615569588,-983040,112,-56,-1,-1,0
1523615569588,-983040,112,-56,-1,-1,0
1523615569588,-655360,112,-56,-1,-1,0
1523615569588,-655360,112,-56,-1,-1,0
1523615569619,-786432,112,-56,-1,-1,0
1523615569619,327680,112,-56,-1,-1,0
1523615569619,3866624,112,-56,-1,-1,0
1523615569619,7733248,112,-56,-1,-1,0
1523615569619,8388608,112,-56,-1,-1,0
1523615569659,4980736,112,-56,-1,-1,0
1523615569659,917504,112,-56,-1,-1,0
1523615569659,-655360,112,-56,-1,-1,0
1523615569659,-655360,112,-56,-1,-1,0
1523615569659,-393216,112,-56,-1,-1,0
1523615569699,-720896,112,-56,-1,-1,0
1523615569699,-917504,112,-56,-1,-1,0
1523615569699,-720896,112,-56,-1,-1,0
1523615569699,-655360,112,-56,-1,-1,0
1523615569699,-851968,112,-56,-1,-1,0
1523615569739,-851968,112,-56,-1,-1,0
1523615569739,-524288,112,-56,-1,-1,0
1523615569739,-327680,112,-56,-1,-1,0
1523615569739,-262144,112,-56,-1,-1,0
1523615569739,-196608,112,-56,-1,-1,0
1523615569779,-196608,112,-56,-1,-1,0
1523615569779,0,112,-56,-1,-1,0
1523615569779,393216,112,-56,-1,-1,0
1523615569779,917504,112,-56,-1,-1,0
1523615569779,1441792,112,-56,-1,-1,0
1523615569819,1638400,112,-56,-1,-1,0
1523615569819,1638400,112,-56,-1,-1,0
1523615569819,1900544,112,-56,-1,-1,0
1523615569819,2228224,112,-56,-1,-1,0
1523615569819,2293760,112,-56,-1,-1,0
1523615569859,1900544,112,-56,-1,-1,0
1523615569859,1441792,112,-56,-1,-1,0
1523615569859,983040,112,-56,-1,-1,0
1523615569859,458752,112,-56,-1,-1,0
1523615569859,-65536,112,-56,-1,-1,0
1523615569899,-393216,112,-56,-1,-1,0
1523615569899,-327680,112,-56,-1,-1,0
1523615569899,-262144,112,-56,-1,-1,0
1523615569899,-393216,112,-56,-1,-1,0
1523615569899,-524288,112,-56,-1,-1,0
1523615569939,-458752,112,-56,-1,-1,0
1523615569939,-393216,112,-56,-1,-1,0
1523615569939,-458752,112,-56,-1,-1,0
1523615569939,-786432,112,-56,-1,-1,0
1523615569939,-655360,112,-56,-1,-1,0
1523615569979,-196608,112,-56,-1,-1,0
1523615569979,-131072,112,-56,-1,-1,0
1523615569979,-524288,112,-56,-1,-1,0
1523615569979,-655360,112,-56,-1,-1,0
1523615569979,-720896,112,-56,-1,-1,0
1523615570019,-720896,112,-56,-1,-1,0
1523615570019,-655360,112,-56,-1,-1,0
1523615570019,-917504,112,-56,-1,-1,0
1523615570019,-1245184,112,-56,-1,-1,0
1523615570019,-917504,112,-56,-1,-1,0
1523615570059,-458752,112,-56,-1,-1,0
1523615570059,-524288,112,-56,-1,-1,0
1523615570059,-983040,112,-56,-1,-1,0
1523615570059,-1179648,112,-56,-1,-1,0
1523615570059,-1114112,112,-56,-1,-1,0
1523615570099,-983040,112,-56,-1,-1,0
1523615570099,-851968,112,-56,-1,-1,0
1523615570099,-917504,112,-56,-1,-1,0
1523615570099,-1179648,112,-56,-1,-1,0
1523615570099,-1376256,112,-56,-1,-1,0
1523615570139,-1376256,112,-56,-1,-1,0
1523615570139,-262144,112,-56,-1,-1,0
1523615570139,2424832,112,-56,-1,-1,0
1523615570139,5767168,112,-56,-1,-1,0
1523615570139,7012352,112,-56,-1,-1,0
1523615570179,4784128,112,-56,-1,-1,0
1523615570179,1441792,112,-56,-1,-1,0
1523615570179,-589824,112,-56,-1,-1,0
1523615570179,-1179648,112,-56,-1,-1,0
1523615570179,-1245184,112,-56,-1,-1,0
1523615570228,-1376256,112,-56,-1,-1,0
1523615570228,-1441792,112,-56,-1,-1,0
1523615570228,-1572864,112,-56,-1,-1,0
1523615570228,-1703936,112,-56,-1,-1,0
1523615570228,-1245184,112,-56,-1,-1,0
1523615570259,-524288,112,-56,-1,-1,0
1523615570259,-393216,112,-56,-1,-1,0
1523615570259,-458752,112,-56,-1,-1,0
1523615570259,-393216,112,-56,-1,-1,0
1523615570259,-131072,112,-56,-1,-1,0
1523615570299,-196608,112,-56,-1,-1,0
1523615570299,-196608,112,-56,-1,-1,0
1523615570299,65536,112,-56,-1,-1,0
1523615570299,589824,112,-56,-1,-1,0
1523615570299,1114112,112,-56,-1,-1,0
1523615570339,1310720,112,-56,-1,-1,0
1523615570339,1572864,112,-56,-1,-1,0
1523615570339,1900544,112,-56,-1,-1,0
1523615570339,1966080,112,-56,-1,-1,0
1523615570339,1900544,112,-56,-1,-1,0
1523615570379,1769472,112,-56,-1,-1,0
1523615570379,1507328,112,-56,-1,-1,0
1523615570379,983040,112,-56,-1,-1,0
1523615570379,393216,112,-56,-1,-1,0
1523615570379,131072,112,-56,-1,-1,0
1523615570419,131072,112,-56,-1,-1,0
1523615570419,0,112,-56,-1,-1,0
1523615570419,-458752,112,-56,-1,-1,0
1523615570419,-720896,112,-56,-1,-1,0
1523615570419,-720896,112,-56,-1,-1,0
1523615570459,-458752,113,-56,-1,-1,0
1523615570459,-327680,113,-56,-1,-1,0
1523615570459,-393216,113,-56,-1,-1,0
1523615570459,-524288,113,-56,-1,-1,0
1523615570459,-327680,113,-56,-1,-1,0
1523615570499,-131072,113,-56,-1,-1,0
1523615570499,-262144,113,-56,-1,-1,0
1523615570499,-458752,113,-56,-1,-1,0
1523615570499,-327680,113,-56,-1,-1,0
1523615570499,-458752,113,-56,-1,-1,0
1523615570539,-589824,113,-56,-1,-1,0
1523615570539,-720896,113,-56,-1,-1,0
1523615570539,-655360,113,-56,-1,-1,0
1523615570539,-655360,113,-56,-1,-1,0
1523615570539,-524288,113,-56,-1,-1,0
1523615570579,-393216,113,-56,-1,-1,0
1523615570579,-393216,113,-56,-1,-1,0
1523615570579,-524288,113,-56,-1,-1,0
1523615570579,-720896,113,-56,-1,-1,0
1523615570579,-917504,113,-56,-1,-1,0
1523615570619,-983040,113,-56,-1,-1,0
1523615570619,-983040,113,-56,-1,-1,0
1523615570619,-983040,113,-56,-1,-1,0
1523615570619,-983040,113,-56,-1,-1,0
1523615570619,-983040,113,-56,-1,-1,0
1523615570659,-393216,113,-56,-1,-1,0
1523615570659,1572864,113,-56,-1,-1,0
1523615570659,5177344,113,-56,-1,-1,0
1523615570659,7405568,113,-56,-1,-1,0
1523615570659,5767168,113,-56,-1,-1,0
1523615570699,2031616,113,-56,-1,-1,0
1523615570699,-458752,113,-56,-1,-1,0
1523615570699,-1048576,113,-56,-1,-1,0
1523615570699,-1048576,113,-56,-1,-1,0
1523615570699,-1179648,113,-56,-1,-1,0
1523615570739,-1114112,113,-56,-1,-1,0
1523615570739,-917504,113,-56,-1,-1,0
1523615570739,-786432,113,-56,-1,-1,0
1523615570739,-655360,113,-56,-1,-1,0
1523615570739,-524288,113,-56,-1,-1,0
1523615570779,-524288,113,-56,-1,-1,0
1523615570779,-655360,113,-56,-1,-1,0
1523615570779,-655360,113,-56,-1,-1,0
1523615570779,-327680,113,-56,-1,-1,0
1523615570779,-65536,113,-56,-1,-1,0
1523615570819,-131072,113,-56,-1,-1,0
1523615570819,0,113,-56,-1,-1,0
1523615570819,262144,113,-56,-1,-1,0
1523615570819,720896,113,-56,-1,-1,0
1523615570819,1114112,113,-56,-1,-1,0
1523615570868,1376256,113,-56,-1,-1,0
1523615570868,1441792,113,-56,-1,-1,0
1523615570868,1441792,113,-56,-1,-1,0
1523615570868,1310720,113,-56,-1,-1,0
1523615570868,1376256,113,-56,-1,-1,0
1523615570899,1441792,113,-56,-1,-1,0
1523615570899,1179648,113,-56,-1,-1,0
1523615570899,524288,113,-56,-1,-1,0
1523615570899,0,113,-56,-1,-1,0
1523615570899,-393216,113,-56,-1,-1,0
1523615570939,-655360,113,-56,-1,-1,0
1523615570939,-851968,113,-56,-1,-1,0
1523615570939,-917504,113,-56,-1,-1,0
1523615570939,-851968,113,-56,-1,-1,0
1523615570939,-983040,113,-56,-1,-1,0
1523615570979,-1179648,113,-56,-1,-1,0
1523615570979,-983040,113,-56,-1,-1,0
1523615570979,-786432,113,-56,-1,-1,0
1523615570979,-851968,113,-56,-1,-1,0
1523615570979,-917504,113,-56,-1,-1,0
1523615571019,-917504,113,-56,-1,-1,0
1523615571019,-1048576,113,-56,-1,-1,0
1523615571019,-1114112,113,-56,-1,-1,0
1523615571019,-1048576,113,-56,-1,-1,0
1523615571019,-1114112,113,-56,-1,-1,0
1523615571059,-1376256,113,-56,-1,-1,0
1523615571059,-1441792,113,-56,-1,-1,0
1523615571059,-1048576,113,-56,-1,-1,0
1523615571059,-851968,113,-56,-1,-1,0
1523615571059,-1048576,113,-56,-1,-1,0
1523615571099,-1179648,113,-56,-1,-1,0
1523615571099,-1441792,113,-56,-1,-1,0
1523615571099,-1507328,113,-56,-1,-1,0
1523615571099,-1245184,113,-56,-1,-1,0
1523615571099,-851968,113,-56,-1,-1,0
1523615571139,-1179648,113,-56,-1,-1,0
1523615571139,-1507328,113,-56,-1,-1,0
1523615571139,-1572864,113,-56,-1,-1,0
1523615571139,-1376256,113,-56,-1,-1,0
1523615571139,-655360,113,-56,-1,-1,0
1523615571179,1572864,113,-56,-1,-1,0
1523615571179,5308416,113,-56,-1,-1,0
1523615571179,7667712,113,-56,-1,-1,0
1523615571179,5832704,113,-56,-1,-1,0
1523615571179,1900544,113,-56,-1,-1,0
1523615571219,-589824,113,-56,-1,-1,0
1523615571219,-1245184,113,-56,-1,-1,0
1523615571219,-1179648,113,-56,-1,-1,0
1523615571219,-1179648,113,-56,-1,-1,0
1523615571219,-1310720,113,-56,-1,-1,0
1523615571259,-1376256,113,-56,-1,-1,0
1523615571259,-1310720,113,-56,-1,-1,0
1523615571259,-1179648,113,-56,-1,-1,0
1523615571259,-1048576,113,-56,-1,-1,0
1523615571259,-983040,113,-56,-1,-1,0
1523615571299,-983040,113,-56,-1,-1,0
1523615571299,-1048576,113,-56,-1,-1,0
1523615571299,-851968,113,-56,-1,-1,0
1523615571299,-524288,113,-56,-1,-1,0
1523615571299,-262144,113,-56,-1,-1,0
1523615571339,0,113,-56,-1,-1,0
1523615571339,131072,113,-56,-1,-1,0
1523615571339,524288,113,-56,-1,-1,0
1523615571339,983040,113,-56,-1,-1,0
1523615571339,1507328,113,-56,-1,-1,0
1523615571379,1638400,113,-56,-1,-1,0
1523615571379,1638400,113,-56,-1,-1,0
1523615571379,1638400,113,-56,-1,-1,0
1523615571379,1507328,113,-56,-1,-1,0
1523615571379,1179648,113,-56,-1,-1,0
1523615571419,655360,113,-56,-1,-1,0
1523615571419,262144,113,-56,-1,-1,0
1523615571419,0,113,-56,-1,-1,0
1523615571419,-393216,113,-56,-1,-1,0
1523615571419,-655360,113,-56,-1,-1,0
1523615571459,-786432,113,-56,-1,-1,0
1523615571459,-917504,113,-56,-1,-1,0
1523615571459,-917504,113,-56,-1,-1,0
1523615571459,-786432,113,-56,-1,-1,0
1523615571459,-589824,113,-56,-1,-1,0
1523615571508,-524288,114,-56,-1,-1,0
1523615571508,-589824,114,-56,-1,-1,0
1523615571508,-655360,114,-56,-1,-1,0
1523615571508,-1048576,114,-56,-1,-1,0
1523615571508,-1245184,114,-56,-1,-1,0
1523615571539,-983040,114,-56,-1,-1,0
1523615571539,-786432,114,-56,-1,-1,0
1523615571539,-720896,114,-56,-1,-1,0
1523615571539,-589824,114,-56,-1,-1,0
1523615571539,-589824,114,-56,-1,-1,0
1523615571579,-786432,114,-56,-1,-1,0
1523615571579,-851968,114,-56,-1,-1,0
1523615571579,-786432,114,-56,-1,-1,0
1523615571579,-655360,114,-56,-1,-1,0
1523615571579,-589824,114,-56,-1,-1,0
1523615571619,-851968,114,-56,-1,-1,0
1523615571619,-1048576,114,-56,-1,-1,0
1523615571619,-917504,114,-56,-1,-1,0
1523615571619,-851968,114,-56,-1,-1,0
1523615571619,-786432,114,-56,-1,-1,0
1523615571659,-655360,114,-56,-1,-1,0
1523615571659,-720896,114,-56,-1,-1,0
1523615571659,-786432,114,-56,-1,-1,0
1523615571659,131072,114,-56,-1,-1,0
1523615571659,3342336,114,-56,-1,-1,0
1523615571699,7143424,114,-56,-1,-1,0
1523615571699,7864320,114,-56,-1,-1,0
1523615571699,4587520,114,-56,-1,-1,0
1523615571699,1048576,114,-56,-1,-1,0
1523615571699,-589824,114,-56,-1,-1,0
1523615571739,-851968,114,-56,-1,-1,0
1523615571739,-720896,114,-56,-1,-1,0
1523615571739,-524288,114,-56,-1,-1,0
1523615571739,-917504,114,-56,-1,-1,0
1523615571739,-1245184,114,-56,-1,-1,0
1523615571779,-1376256,114,-56,-1,-1,0
1523615571779,-1179648,114,-56,-1,-1,0
1523615571779,-1048576,114,-56,-1,-1,0
1523615571779,-786432,114,-56,-1,-1,0
1523615571779,-720896,114,-56,-1,-1,0
1523615571819,-524288,114,-56,-1,-1,0
1523615571819,-393216,114,-56,-1,-1,0
1523615571819,-393216,114,-56,-1,-1,0
1523615571819,-393216,114,-56,-1,-1,0
1523615571819,-196608,114,-56,-1,-1,0
1523615571860,196608,114,-56,-1,-1,0
1523615571860,524288,114,-56,-1,-1,0
1523615571860,851968,114,-56,-1,-1,0
1523615571860,1245184,114,-56,-1,-1,0
1523615571860,1572864,114,-56,-1,-1,0
1523615571899,1900544,114,-56,-1,-1,0
1523615571899,1966080,114,-56,-1,-1,0
1523615571899,1507328,114,-56,-1,-1,0
1523615571899,851968,114,-56,-1,-1,0
1523615571899,327680,114,-56,-1,-1,0
1523615571939,0,114,-56,-1,-1,0
1523615571939,-196608,114,-56,-1,-1,0
1523615571939,-458752,114,-56,-1,-1,0
1523615571939,-786432,114,-56,-1,-1,0
1523615571939,-589824,114,-56,-1,-1,0
1523615571979,0,114,-56,-1,-1,0
1523615571979,-327680,114,-56,-1,-1,0
1523615571979,-917504,114,-56,-1,-1,0
1523615571979,-917504,114,-56,-1,-1,0
1523615571979,-458752,114,-56,-1,-1,0
1523615572019,-720896,114,-56,-1,-1,0
1523615572019,-983040,114,-56,-1,-1,0
1523615572019,-1179648,114,-56,-1,-1,0
1523615572019,-720896,114,-56,-1,-1,0
1523615572019,-262144,114,-56,-1,-1,0
1523615572059,-196608,114,-56,-1,-1,0
1523615572059,-589824,114,-56,-1,-1,0
1523615572059,-917504,114,-56,-1,-1,0
1523615572059,-786432,114,-56,-1,-1,0
1523615572059,-655360,114,-56,-1,-1,0
1523615572099,-655360,114,-56,-1,-1,0
1523615572099,-393216,114,-56,-1,-1,0
1523615572099,-196608,114,-56,-1,-1,0
1523615572099,-393216,114,-56,-1,-1,0
1523615572099,-786432,114,-56,-1,-1,0
1523615572148,-655360,114,-56,-1,-1,0
1523615572148,-524288,114,-56,-1,-1,0
1523615572148,-458752,114,-56,-1,-1,0
1523615572148,-655360,114,-56,-1,-1,0
1523615572148,-786432,114,-56,-1,-1,0
1523615572179,-917504,114,-56,-1,-1,0
1523615572179,-524288,114,-56,-1,-1,0
1523615572179,1441792,114,-56,-1,-1,0
1523615572179,5439488,114,-56,-1,-1,0
1523615572179,8388608,114,-56,-1,-1,0
1523615572219,7012352,114,-56,-1,-1,0
1523615572219,3080192,114,-56,-1,-1,0
1523615572219,0,114,-56,-1,-1,0
1523615572219,-851968,114,-56,-1,-1,0
1523615572219,-851968,114,-56,-1,-1,0
1523615572259,-589824,114,-56,-1,-1,0
1523615572259,-524288,114,-56,-1,-1,0
1523615572259,-786432,114,-56,-1,-1,0
1523615572259,-983040,114,-56,-1,-1,0
1523615572259,-917504,114,-56,-1,-1,0
1523615572299,-851968,114,-56,-1,-1,0
1523615572299,-655360,114,-56,-1,-1,0
1523615572299,0,114,-56,-1,-1,0
1523615572299,589824,114,-56,-1,-1,0
1523615572299,196608,114,-56,-1,-1,0
1523615572339,-262144,114,-56,-1,-1,0
1523615572339,0,114,-56,-1,-1,0
1523615572339,589824,114,-56,-1,-1,0
1523615572339,851968,114,-56,-1,-1,0
1523615572339,720896,114,-56,-1,-1,0
1523615572379,655360,114,-56,-1,-1,0
1523615572379,1441792,114,-56,-1,-1,0
1523615572379,2162688,114,-56,-1,-1,0
1523615572379,2490368,114,-56,-1,-1,0
1523615572379,2359296,114,-56,-1,-1,0
1523615572419,2228224,114,-56,-1,-1,0
1523615572419,1835008,114,-56,-1,-1,0
1523615572419,1179648,114,-56,-1,-1,0
1523615572419,720896,114,-56,-1,-1,0
1523615572419,196608,114,-56,-1,-1,0
1523615572459,0,114,-56,-1,-1,0
1523615572459,-131072,114,-56,-1,-1,0
1523615572459,65536,114,-56,-1,-1,0
1523615572459,131072,114,-56,-1,-1,0
1523615572459,0,114,-56,-1,-1,0
1523615572499,-327680,115,-56,-1,-1,0
1523615572499,-458752,115,-56,-1,-1,0
1523615572499,-458752,115,-56,-1,-1,0
1523615572499,-327680,115,-56,-1,-1,0
1523615572499,-196608,115,-56,-1,-1,0
1523615572539,-327680,115,-56,-1,-1,0
1523615572539,-589824,115,-56,-1,-1,0
1523615572539,-655360,115,-56,-1,-1,0
1523615572539,-655360,115,-56,-1,-1,0
1523615572539,-720896,115,-56,-1,-1,0
1523615572579,-655360,115,-56,-1,-1,0
1523615572579,-524288,115,-56,-1,-1,0
1523615572579,-524288,115,-56,-1,-1,0
1523615572579,-458752,115,-56,-1,-1,0
1523615572579,-393216,115,-56,-1,-1,0
1523615572619,-720896,115,-56,-1,-1,0
1523615572619,-786432,115,-56,-1,-1,0
1523615572619,-720896,115,-56,-1,-1,0
1523615572619,-655360,115,-56,-1,-1,0
1523615572619,-851968,115,-56,-1,-1,0
1523615572659,-1048576,115,-56,-1,-1,0
1523615572659,-1179648,115,-56,-1,-1,0
1523615572659,-1048576,115,-56,-1,-1,0
1523615572659,-1048576,115,-56,-1,-1,0
1523615572659,-917504,115,-56,-1,-1,0
1523615572699,851968,115,-56,-1,-1,0
1523615572699,4653056,115,-56,-1,-1,0
1523615572699,7536640,115,-56,-1,-1,0
1523615572699,6553600,115,-56,-1,-1,0
1523615572699,2883584,115,-56,-1,-1,0
1523615572739,-262144,115,-56,-1,-1,0
1523615572739,-1310720,115,-56,-1,-1,0
1523615572739,-1048576,115,-56,-1,-1,0
1523615572739,-786432,115,-56,-1,-1,0
1523615572739,-655360,115,-56,-1,-1,0
1523615572788,-786432,115,-56,-1,-1,0
1523615572788,-917504,115,-56,-1,-1,0
1523615572788,-1179648,115,-56,-1,-1,0
1523615572788,-1179648,115,-56,-1,-1,0
1523615572788,-851968,115,-56,-1,-1,0
1523615572819,-589824,115,-56,-1,-1,0
1523615572819,-589824,115,-56,-1,-1,0
1523615572819,-655360,115,-56,-1,-1,0
1523615572819,-655360,115,-56,-1,-1,0
1523615572819,-393216,115,-56,-1,-1,0
1523615572859,-262144,115,-56,-1,-1,0
1523615572859,-65536,115,-56,-1,-1,0
1523615572859,262144,115,-56,-1,-1,0
1523615572859,917504,115,-56,-1,-1,0
1523615572859,1179648,115,-56,-1,-1,0
1523615572899,1245184,115,-56,-1,-1,0
1523615572899,1245184,115,-56,-1,-1,0
1523615572899,1310720,115,-56,-1,-1,0
1523615572899,1114112,115,-56,-1,-1,0
1523615572899,917504,115,-56,-1,-1,0
1523615572939,720896,115,-56,-1,-1,0
1523615572939,262144,115,-56,-1,-1,0
1523615572939,-131072,115,-56,-1,-1,0
1523615572939,-458752,115,-56,-1,-1,0
1523615572939,-589824,115,-56,-1,-1,0
1523615572979,-720896,115,-56,-1,-1,0
1523615572979,-851968,115,-56,-1,-1,0
1523615572979,-983040,115,-56,-1,-1,0
1523615572979,-1114112,115,-56,-1,-1,0
1523615572979,-1179648,115,-56,-1,-1,0
1523615573019,-1376256,115,-56,-1,-1,0
1523615573019,-1245184,115,-56,-1,-1,0
1523615573019,-851968,115,-56,-1,-1,0
1523615573019,-655360,115,-56,-1,-1,0
1523615573019,-983040,115,-56,-1,-1,0
1523615573059,-1114112,115,-56,-1,-1,0
1523615573059,-1179648,115,-56,-1,-1,0
1523615573059,-1245184,115,-56,-1,-1,0
1523615573059,-1245184,115,-56,-1,-1,0
1523615573059,-1245184,115,-56,-1,-1,0
1523615573099,-1179648,115,-56,-1,-1,0
1523615573099,-983040,115,-56,-1,-1,0
1523615573099,-983040,115,-56,-1,-1,0
1523615573099,-1245184,115,-56,-1,-1,0
1523615573099,-1441792,115,-56,-1,-1,0
1523615573139,-1310720,115,-56,-1,-1,0
1523615573139,-1376256,115,-56,-1,-1,0
1523615573139,-1507328,115,-56,-1,-1,0
1523615573139,-1376256,115,-56,-1,-1,0
1523615573139,-1048576,115,-56,-1,-1,0
1523615573179,-1048576,115,-56,-1,-1,0
1523615573179,-1376256,115,-56,-1,-1,0
1523615573179,-786432,115,-56,-1,-1,0
1523615573179,2097152,115,-56,-1,-1,0
1523615573179,6356992,115,-56,-1,-1,0
1523615573219,8126464,115,-56,-1,-1,0
1523615573219,5439488,115,-56,-1,-1,0
1523615573219,1376256,115,-56,-1,-1,0
1523615573219,-786432,115,-56,-1,-1,0
1523615573219,-1245184,115,-56,-1,-1,0
1523615573259,-1114112,115,-56,-1,-1,0
1523615573259,-983040,115,-56,-1,-1,0
1523615573259,-983040,115,-56,-1,-1,0
1523615573259,-1179648,115,-56,-1,-1,0
1523615573259,-1310720,115,-56,-1,-1,0
1523615573299,-1310720,115,-56,-1,-1,0
1523615573299,-1048576,115,-56,-1,-1,0
1523615573299,-917504,115,-56,-1,-1,0
1523615573299,-786432,115,-56,-1,-1,0
1523615573299,-655360,115,-56,-1,-1,0
1523615573339,-458752,115,-56,-1,-1,0
1523615573339,-458752,115,-56,-1,-1,0
1523615573339,-393216,115,-56,-1,-1,0
1523615573339,-196608,115,-56,-1,-1,0
1523615573339,131072,115,-56,-1,-1,0
1523615573379,655360,115,-56,-1,-1,0
1523615573379,983040,115,-56,-1,-1,0
1523615573379,1179648,115,-56,-1,-1,0
1523615573379,1245184,115,-56,-1,-1,0
1523615573379,1245184,115,-56,-1,-1,0
1523615573428,1179648,115,-56,-1,-1,0
1523615573428,786432,115,-56,-1,-1,0
1523615573428,524288,115,-56,-1,-1,0
1523615573428,327680,115,-56,-1,-1,0
1523615573428,65536,115,-56,-1,-1,0
1523615573459,-262144,115,-56,-1,-1,0
1523615573459,-786432,115,-56,-1,-1,0
1523615573459,-1179648,115,-56,-1,-1,0
1523615573459,-1441792,115,-56,-1,-1,0
1523615573459,-1441792,115,-56,-1,-1,0
1523615573499,-1310720,115,-56,-1,-1,0
1523615573499,-1376256,115,-56,-1,-1,0
1523615573499,-1376256,115,-56,-1,-1,0
1523615573499,-1310720,115,-56,-1,-1,0
1523615573499,-1179648,115,-56,-1,-1,0
1523615573539,-1310720,115,-56,-1,-1,0
1523615573539,-1245184,115,-56,-1,-1,0
1523615573539,-983040,115,-56,-1,-1,0
1523615573539,-720896,115,-56,-1,-1,0
1523615573539,-786432,115,-56,-1,-1,0
1523615573579,-983040,115,-56,-1,-1,0
1523615573579,-1048576,115,-56,-1,-1,0
1523615573579,-917504,115,-56,-1,-1,0
1523615573579,-720896,115,-56,-1,-1,0
1523615573579,-983040,115,-56,-1,-1,0
1523615573619,-1441792,115,-56,-1,-1,0
1523615573619,-1441792,115,-56,-1,-1,0
1523615573619,-1114112,115,-56,-1,-1,0
1523615573619,-786432,115,-56,-1,-1,0
1523615573619,-720896,115,-56,-1,-1,0
1523615573659,-1048576,115,-56,-1,-1,0
1523615573659,-1310720,115,-56,-1,-1,0
1523615573659,-1245184,115,-56,-1,-1,0
1523615573659,-1310720,115,-56,-1,-1,0
1523615573659,-655360,115,-56,-1,-1,0
1523615573699,2097152,115,-56,-1,-1,0
1523615573699,6422528,115,-56,-1,-1,0
1523615573699,8585216,115,-56,-1,-1,0
1523615573699,6422528,115,-56,-1,-1,0
1523615573699,2359296,115,-56,-1,-1,0
1523615573739,-131072,115,-56,-1,-1,0
1523615573739,-720896,115,-56,-1,-1,0
1523615573739,-655360,115,-56,-1,-1,0
1523615573739,-786432,115,-56,-1,-1,0
1523615573739,-1245184,115,-56,-1,-1,0
1523615573779,-1179648,115,-56,-1,-1,0
1523615573779,-786432,115,-56,-1,-1,0
1523615573779,-655360,115,-56,-1,-1,0
1523615573779,-589824,115,-56,-1,-1,0
1523615573779,-327680,115,-56,-1,-1,0
