milliseconds, ECG, ECG HR, PPG, PPG HR, SpO2, PI
0,-1114112,88,-56,-1,-1,0
33,-1179648,88,-56,-1,-1,0
66,-983040,88,-56,-1,-1,0
100,-1114112,88,-56,-1,-1,0
133,-1245184,87,-56,-1,-1,0
166,-1179648,87,-56,-1,-1,0
200,8781824,87,-56,-1,-1,0
233,-327680,87,-56,-1,-1,0
266,-655360,87,-56,-1,-1,0
300,-196608,87,-56,-1,-1,0
333,655360,87,-56,-1,-1,0
366,1769472,87,-56,-1,-1,0
400,1507328,87,-56,-1,-1,0
433,-262144,87,-56,-1,-1,0
466,-917504,87,-56,-1,-1,0
500,-786432,87,-56,-1,-1,0
533,-851968,87,-56,-1,-1,0
566,-1048576,87,-56,-1,-1,0
600,-1179648,87,-56,-1,-1,0
633,-786432,87,-56,-1,-1,0
666,-1245184,87,-56,-1,-1,0
700,-1376256,87,-56,-1,-1,0
733,-589824,87,-56,-1,-1,0
766,5701632,87,-56,-1,-1,0
800,-524288,87,-56,-1,-1,0
833,-524288,87,-56,-1,-1,0
866,0,87,-56,-1,-1,0
900,983040,87,-56,-1,-1,0
933,2031616,87,-56,-1,-1,0
966,983040,87,-56,-1,-1,0
1000,-655360,87,-56,-1,-1,0
1033,-786432,87,-56,-1,-1,0
1066,-720896,87,-56,-1,-1,0
1100,-720896,87,-56,-1,-1,0
1133,-983040,87,-56,-1,-1,0
1166,-917504,87,-56,-1,-1,0
1200,-851968,87,-56,-1,-1,0
1233,-1048576,87,-56,-1,-1,0
1266,-1179648,87,-56,-1,-1,0
1300,7995392,87,-56,-1,-1,0
1333,-65536,87,-56,-1,-1,0
1366,-655360,87,-56,-1,-1,0
1400,-262144,87,-56,-1,-1,0
1433,524288,87,-56,-1,-1,0
1466,1769472,87,-56,-1,-1,0
1500,1966080,87,-56,-1,-1,0
1533,-262144,87,-56,-1,-1,0
1566,-983040,87,-56,-1,-1,0
1600,-917504,87,-56,-1,-1,0
1633,-983040,87,-56,-1,-1,0
1666,-1179648,87,-56,-1,-1,0
1700,-1310720,87,-56,-1,-1,0
1733,-917504,87,-56,-1,-1,0
1766,-1179648,87,-56,-1,-1,0
1800,-1245184,87,-56,-1,-1,0
1833,2818048,87,-56,-1,-1,0
1866,393216,87,-56,-1,-1,0
1900,-720896,87,-56,-1,-1,0
1933,-327680,87,-56,-1,-1,0
1966,196608,87,-56,-1,-1,0
2000,1376256,87,-56,-1,-1,0
2033,1900544,87,-56,-1,-1,0
2066,131072,87,-56,-1,-1,0
2100,-786432,87,-56,-1,-1,0
2133,-851968,87,-56,-1,-1,0
2166,-786432,87,-56,-1,-1,0
2200,-851968,87,-56,-1,-1,0
2233,-983040,87,-56,-1,-1,0
2266,-917504,87,-56,-1,-1,0
2300,-1376256,87,-56,-1,-1,0
2333,-983040,87,-56,-1,-1,0
2366,524288,87,-56,-1,-1,0
2400,2621440,87,-56,-1,-1,0
2433,-917504,87,-56,-1,-1,0
2466,-851968,87,-56,-1,-1,0
2500,0,87,-56,-1,-1,0
2533,1048576,87,-56,-1,-1,0
2566,1966080,87,-56,-1,-1,0
2600,393216,87,-56,-1,-1,0
2633,-786432,87,-56,-1,-1,0
2666,-917504,87,-56,-1,-1,0
2700,-786432,87,-56,-1,-1,0
2733,-917504,87,-56,-1,-1,0
2766,-1114112,87,-56,-1,-1,0
2800,-786432,87,-56,-1,-1,0
2833,-1507328,87,-56,-1,-1,0
2866,-1179648,87,-56,-1,-1,0
2900,-1179648,87,-56,-1,-1,0
2933,7667712,87,-56,-1,-1,0
2966,-524288,87,-56,-1,-1,0
3000,-524288,87,-56,-1,-1,0
3033,196608,87,-56,-1,-1,0
3066,1048576,87,-56,-1,-1,0
3100,2097152,87,-56,-1,-1,0
3133,1179648,87,-56,-1,-1,0
3166,-655360,87,-56,-1,-1,0
3200,-786432,87,-56,-1,-1,0
3233,-917504,87,-56,-1,-1,0
3266,-720896,87,-56,-1,-1,0
3300,-851968,87,-56,-1,-1,0
3333,-655360,87,-56,-1,-1,0
3366,-1048576,87,-56,-1,-1,0
3400,-1114112,87,-56,-1,-1,0
3433,-524288,87,-56,-1,-1,0
3466,7667712,87,-56,-1,-1,0
3500,-196608,87,-56,-1,-1,0
3533,-196608,87,-56,-1,-1,0
3566,393216,87,-56,-1,-1,0
3600,1310720,87,-56,-1,-1,0
3633,2293760,87,-56,-1,-1,0
3666,1441792,87,-56,-1,-1,0
3699,-458752,87,-56,-1,-1,0
3733,-917504,87,-56,-1,-1,0
3766,-327680,87,-56,-1,-1,0
3800,-524288,87,-56,-1,-1,0
3833,-1048576,87,-56,-1,-1,0
3866,-720896,87,-56,-1,-1,0
3900,-917504,88,-56,-1,-1,0
3933,-1310720,88,-56,-1,-1,0
3966,196608,88,-56,-1,-1,0
4000,3801088,88,-56,-1,-1,0
4033,-655360,88,-56,-1,-1,0
4066,-589824,88,-56,-1,-1,0
4100,196608,88,-56,-1,-1,0
4133,983040,88,-56,-1,-1,0
4166,1703936,88,-56,-1,-1,0
4200,524288,88,-56,-1,-1,0
4233,-983040,88,-56,-1,-1,0
4266,-851968,88,-56,-1,-1,0
4300,-851968,88,-56,-1,-1,0
4333,-917504,88,-56,-1,-1,0
4366,-1048576,88,-56,-1,-1,0
4400,-786432,88,-56,-1,-1,0
4433,-1114112,89,-56,-1,-1,0
4466,-1310720,89,-56,-1,-1,0
4500,3473408,89,-56,-1,-1,0
4533,-131072,89,-56,-1,-1,0
4566,-1310720,89,-56,-1,-1,0
4600,-655360,89,-56,-1,-1,0
4633,65536,89,-56,-1,-1,0
4666,1048576,89,-56,-1,-1,0
4700,1441792,89,-56,-1,-1,0
4733,-262144,89,-56,-1,-1,0
4766,-1048576,89,-56,-1,-1,0
4800,-1048576,89,-56,-1,-1,0
4833,-917504,89,-56,-1,-1,0
4866,-917504,89,-56,-1,-1,0
4900,-1376256,89,-56,-1,-1,0
4933,-983040,89,-56,-1,-1,0
4966,-1245184,89,-56,-1,-1,0
5000,-1245184,89,-56,-1,-1,0
5033,1507328,89,-56,-1,-1,0
5066,1114112,89,-56,-1,-1,0
5100,-786432,89,-56,-1,-1,0
5133,-589824,89,-56,-1,-1,0
5166,0,89,-56,-1,-1,0
5200,1179648,89,-56,-1,-1,0
5233,1769472,89,-56,-1,-1,0
5266,131072,89,-56,-1,-1,0
5300,-851968,89,-56,-1,-1,0
5333,-786432,89,-56,-1,-1,0
5366,-851968,89,-56,-1,-1,0
5400,-983040,89,-56,-1,-1,0
5433,-1245184,89,-56,-1,-1,0
5466,-1114112,89,-56,-1,-1,0
5500,-1114112,89,-56,-1,-1,0
5533,-1245184,90,-56,-1,-1,0
5566,-1376256,90,-56,-1,-1,0
5600,8323072,90,-56,-1,-1,0
5633,-393216,90,-56,-1,-1,0
5666,-720896,90,-56,-1,-1,0
5700,-393216,90,-56,-1,-1,0
5733,458752,90,-56,-1,-1,0
5766,1703936,90,-56,-1,-1,0
5800,1507328,90,-56,-1,-1,0
5833,-393216,90,-56,-1,-1,0
5866,-851968,90,-56,-1,-1,0
5900,-786432,90,-56,-1,-1,0
5933,-655360,90,-56,-1,-1,0
5966,-851968,90,-56,-1,-1,0
6000,-983040,90,-56,-1,-1,0
6033,-720896,90,-56,-1,-1,0
6066,-1114112,91,-56,-1,-1,0
6100,-1179648,91,-56,-1,-1,0
6133,4915200,91,-56,-1,-1,0
6166,0,91,-56,-1,-1,0
6200,-589824,91,-56,-1,-1,0
6233,-262144,91,-56,-1,-1,0
6266,458752,91,-56,-1,-1,0
6300,1769472,91,-56,-1,-1,0
6333,2031616,91,-56,-1,-1,0
6366,0,91,-56,-1,-1,0
6400,-786432,91,-56,-1,-1,0
6433,-851968,91,-56,-1,-1,0
6466,-720896,91,-56,-1,-1,0
6500,-917504,91,-56,-1,-1,0
6533,-1048576,91,-56,-1,-1,0
6566,-851968,91,-56,-1,-1,0
6600,-1245184,92,-56,-1,-1,0
6633,-1179648,92,-56,-1,-1,0
6666,1638400,92,-56,-1,-1,0
6700,1441792,92,-56,-1,-1,0
6733,-720896,92,-56,-1,-1,0
6766,-458752,92,-56,-1,-1,0
6800,65536,92,-56,-1,-1,0
6833,1114112,92,-56,-1,-1,0
6866,1638400,92,-56,-1,-1,0
6899,131072,92,-56,-1,-1,0
6933,-917504,92,-56,-1,-1,0
6966,-786432,92,-56,-1,-1,0
7000,-589824,92,-56,-1,-1,0
7033,-917504,92,-56,-1,-1,0
7066,-1114112,92,-56,-1,-1,0
7100,-1048576,92,-56,-1,-1,0
7133,-851968,92,-56,-1,-1,0
7166,-917504,92,-56,-1,-1,0
7200,-1376256,92,-56,-1,-1,0
7233,8781824,92,-56,-1,-1,0
7266,-524288,92,-56,-1,-1,0
7300,-720896,92,-56,-1,-1,0
7333,-131072,92,-56,-1,-1,0
7366,720896,92,-56,-1,-1,0
7399,1769472,92,-56,-1,-1,0
7433,1114112,92,-56,-1,-1,0
7466,-393216,92,-56,-1,-1,0
7500,-786432,92,-56,-1,-1,0
7533,-589824,92,-56,-1,-1,0
7566,-589824,92,-56,-1,-1,0
7600,-983040,92,-56,-1,-1,0
7633,-786432,92,-56,-1,-1,0
7666,-917504,92,-56,-1,-1,0
7700,-1048576,92,-56,-1,-1,0
7733,-1179648,92,-56,-1,-1,0
7766,9306112,92,-56,-1,-1,0
7800,-262144,92,-56,-1,-1,0
7833,-720896,92,-56,-1,-1,0
7866,-327680,92,-56,-1,-1,0
7899,458752,92,-56,-1,-1,0
7933,1572864,92,-56,-1,-1,0
7966,1179648,92,-56,-1,-1,0
8000,-917504,92,-56,-1,-1,0
8033,-1441792,92,-56,-1,-1,0
8066,-1245184,92,-56,-1,-1,0
8100,-1376256,92,-56,-1,-1,0
8133,-1572864,92,-56,-1,-1,0
8166,-1245184,92,-56,-1,-1,0
8200,-1572864,92,-56,-1,-1,0
8233,-1572864,92,-56,-1,-1,0
8266,0,92,-56,-1,-1,0
8300,4259840,92,-56,-1,-1,0
8333,-655360,92,-56,-1,-1,0
8366,-524288,92,-56,-1,-1,0
8400,196608,92,-56,-1,-1,0
8433,1572864,92,-56,-1,-1,0
8466,2424832,92,-56,-1,-1,0
8500,851968,92,-56,-1,-1,0
8533,-524288,92,-56,-1,-1,0
8566,-655360,92,-56,-1,-1,0
8600,-327680,92,-56,-1,-1,0
8633,-458752,92,-56,-1,-1,0
8666,-458752,92,-56,-1,-1,0
8700,-720896,93,-56,-1,-1,0
8733,-917504,93,-56,-1,-1,0
8766,-917504,93,-56,-1,-1,0
8800,10158080,93,-56,-1,-1,0
8833,-327680,93,-56,-1,-1,0
8866,-655360,93,-56,-1,-1,0
8900,-196608,93,-56,-1,-1,0
8933,589824,93,-56,-1,-1,0
8966,1835008,93,-56,-1,-1,0
9000,851968,93,-56,-1,-1,0
9033,-983040,93,-56,-1,-1,0
9066,-1245184,93,-56,-1,-1,0
9100,-1048576,93,-56,-1,-1,0
9133,-1179648,93,-56,-1,-1,0
9166,-983040,93,-56,-1,-1,0
9200,-1310720,93,-56,-1,-1,0
9233,-1441792,93,-56,-1,-1,0
9266,-1376256,93,-56,-1,-1,0
9300,10092544,93,-56,-1,-1,0
9333,-589824,93,-56,-1,-1,0
9366,-983040,93,-56,-1,-1,0
9400,-393216,93,-56,-1,-1,0
9433,655360,93,-56,-1,-1,0
9466,1966080,93,-56,-1,-1,0
9500,1114112,93,-56,-1,-1,0
9533,-917504,93,-56,-1,-1,0
9566,-1245184,93,-56,-1,-1,0
9600,-1048576,93,-56,-1,-1,0
9633,-1114112,93,-56,-1,-1,0
9666,-917504,93,-56,-1,-1,0
9700,-1114112,93,-56,-1,-1,0
9733,-1310720,93,-56,-1,-1,0
9766,-1179648,93,-56,-1,-1,0
9800,10158080,93,-56,-1,-1,0
9833,-327680,93,-56,-1,-1,0
9866,-655360,93,-56,-1,-1,0
9900,-131072,93,-56,-1,-1,0
9933,851968,93,-56,-1,-1,0
9966,2228224,93,-56,-1,-1,0
10000,1441792,93,-56,-1,-1,0
10033,-655360,93,-56,-1,-1,0
10066,-1114112,93,-56,-1,-1,0
10100,-720896,93,-56,-1,-1,0
10133,-917504,93,-56,-1,-1,0
10166,-983040,93,-56,-1,-1,0
10200,-851968,93,-56,-1,-1,0
10233,-1179648,93,-56,-1,-1,0
10266,-1245184,93,-56,-1,-1,0
10300,3866624,93,-56,-1,-1,0
10333,0,93,-56,-1,-1,0
10366,-786432,93,-56,-1,-1,0
10400,-458752,93,-56,-1,-1,0
10433,196608,93,-56,-1,-1,0
10466,1703936,93,-56,-1,-1,0
10500,1966080,93,-56,-1,-1,0
10533,-262144,93,-56,-1,-1,0
10566,-1114112,93,-56,-1,-1,0
10600,-983040,93,-56,-1,-1,0
10633,-851968,93,-56,-1,-1,0
10666,-1048576,93,-56,-1,-1,0
10700,-1048576,93,-56,-1,-1,0
10733,-1048576,93,-56,-1,-1,0
10766,-1245184,94,-56,-1,-1,0
10800,-1245184,94,-56,-1,-1,0
10833,8585216,94,-56,-1,-1,0
10866,-196608,94,-56,-1,-1,0
10900,-720896,94,-56,-1,-1,0
10933,-327680,94,-56,-1,-1,0
10966,589824,94,-56,-1,-1,0
11000,2031616,94,-56,-1,-1,0
11033,1703936,94,-56,-1,-1,0
11066,-589824,94,-56,-1,-1,0
11100,-1179648,94,-56,-1,-1,0
11133,-983040,94,-56,-1,-1,0
11166,-917504,94,-56,-1,-1,0
11200,-983040,94,-56,-1,-1,0
11233,-1310720,94,-56,-1,-1,0
11266,-983040,94,-56,-1,-1,0
11300,-1245184,94,-56,-1,-1,0
11333,-1376256,94,-56,-1,-1,0
11366,655360,94,-56,-1,-1,0
11400,3473408,94,-56,-1,-1,0
11433,-786432,94,-56,-1,-1,0
11466,-851968,94,-56,-1,-1,0
11500,-65536,94,-56,-1,-1,0
11533,1048576,94,-56,-1,-1,0
11566,2031616,94,-56,-1,-1,0
11600,65536,94,-56,-1,-1,0
11633,-1245184,94,-56,-1,-1,0
11666,-1376256,94,-56,-1,-1,0
11700,-1114112,94,-56,-1,-1,0
11733,-1245184,94,-56,-1,-1,0
11766,-1310720,94,-56,-1,-1,0
11800,-1441792,94,-56,-1,-1,0
11833,-1507328,94,-56,-1,-1,0
11866,-917504,94,-56,-1,-1,0
11900,-1245184,94,-56,-1,-1,0
11933,-1048576,94,-56,-1,-1,0
11966,720896,93,-56,-1,-1,0
12000,4390912,93,-56,-1,-1,0
12033,-393216,93,-56,-1,-1,0
12066,-327680,93,-56,-1,-1,0
12100,262144,93,-56,-1,-1,0
12133,1638400,93,-56,-1,-1,0
12166,2490368,93,-56,-1,-1,0
12200,851968,93,-56,-1,-1,0
12233,-655360,93,-56,-1,-1,0
12266,-720896,93,-56,-1,-1,0
12300,-655360,93,-56,-1,-1,0
12333,-720896,93,-56,-1,-1,0
12366,-917504,93,-56,-1,-1,0
12400,-917504,93,-56,-1,-1,0
12433,-1114112,93,-56,-1,-1,0
12466,-786432,93,-56,-1,-1,0
12500,-917504,93,-56,-1,-1,0
12533,-983040,93,-56,-1,-1,0
12566,-458752,93,-56,-1,-1,0
12600,8388608,93,-56,-1,-1,0
12633,-327680,93,-56,-1,-1,0
12666,-393216,93,-56,-1,-1,0
12700,196608,93,-56,-1,-1,0
12733,1179648,93,-56,-1,-1,0
12766,2424832,93,-56,-1,-1,0
12800,1179648,93,-56,-1,-1,0
12833,-327680,93,-56,-1,-1,0
12866,-655360,93,-56,-1,-1,0
12900,-655360,93,-56,-1,-1,0
12933,-720896,93,-56,-1,-1,0
12966,-917504,93,-56,-1,-1,0
13000,-1048576,93,-56,-1,-1,0
13033,-983040,93,-56,-1,-1,0
13066,-1245184,93,-56,-1,-1,0
13100,-917504,93,-56,-1,-1,0
13133,-1179648,93,-56,-1,-1,0
13166,-1114112,93,-56,-1,-1,0
13200,6356992,93,-56,-1,-1,0
13233,0,93,-56,-1,-1,0
13266,-327680,93,-56,-1,-1,0
13299,-196608,93,-56,-1,-1,0
13333,458752,93,-56,-1,-1,0
13366,1966080,93,-56,-1,-1,0
13400,2031616,93,-56,-1,-1,0
13433,0,93,-56,-1,-1,0
13466,-917504,93,-56,-1,-1,0
13500,-851968,93,-56,-1,-1,0
13533,-786432,93,-56,-1,-1,0
13566,-851968,93,-56,-1,-1,0
13600,-1114112,93,-56,-1,-1,0
13633,-1114112,93,-56,-1,-1,0
13666,-1114112,93,-56,-1,-1,0
13700,-1048576,93,-56,-1,-1,0
13733,-1179648,93,-56,-1,-1,0
13766,-1245184,93,-56,-1,-1,0
13799,8126464,93,-56,-1,-1,0
13833,-196608,93,-56,-1,-1,0
13866,-655360,93,-56,-1,-1,0
13900,-262144,93,-56,-1,-1,0
13933,524288,93,-56,-1,-1,0
13966,1703936,93,-56,-1,-1,0
14000,1572864,93,-56,-1,-1,0
14033,-524288,93,-56,-1,-1,0
14066,-1048576,93,-56,-1,-1,0
14100,-851968,93,-56,-1,-1,0
14133,-720896,93,-56,-1,-1,0
14166,-851968,93,-56,-1,-1,0
14200,-917504,93,-56,-1,-1,0
14233,-1048576,93,-56,-1,-1,0
14266,-851968,93,-56,-1,-1,0
14299,-917504,93,-56,-1,-1,0
14333,-1048576,93,-56,-1,-1,0
14366,-851968,91,-56,-1,-1,0
14400,9240576,91,-56,-1,-1,0
14433,-131072,91,-56,-1,-1,0
14466,-327680,91,-56,-1,-1,0
14500,0,91,-56,-1,-1,0
14533,917504,91,-56,-1,-1,0
14566,1900544,91,-56,-1,-1,0
14600,1179648,91,-56,-1,-1,0
14633,-524288,91,-56,-1,-1,0
14666,-917504,91,-56,-1,-1,0
14700,-851968,91,-56,-1,-1,0
14733,-917504,91,-56,-1,-1,0
14766,-1114112,91,-56,-1,-1,0
14799,-1245184,91,-56,-1,-1,0
14833,-1376256,91,-56,-1,-1,0
14866,-983040,91,-56,-1,-1,0
14900,-1376256,90,-56,-1,-1,0
14933,-1376256,90,-56,-1,-1,0
14966,4259840,90,-56,-1,-1,0
15000,-196608,90,-56,-1,-1,0
15033,-720896,90,-56,-1,-1,0
15066,-458752,90,-56,-1,-1,0
15100,262144,90,-56,-1,-1,0
15133,1572864,90,-56,-1,-1,0
15166,1900544,90,-56,-1,-1,0
15200,-131072,90,-56,-1,-1,0
15233,-1114112,90,-56,-1,-1,0
15266,-917504,90,-56,-1,-1,0
15299,-851968,90,-56,-1,-1,0
15333,-983040,90,-56,-1,-1,0
15366,-1179648,90,-56,-1,-1,0
15400,-1048576,90,-56,-1,-1,0
15433,-1114112,90,-56,-1,-1,0
15466,-1179648,90,-56,-1,-1,0
15500,-917504,90,-56,-1,-1,0
15533,7864320,90,-56,-1,-1,0
15566,-458752,90,-56,-1,-1,0
15600,-393216,90,-56,-1,-1,0
15633,131072,90,-56,-1,-1,0
15666,1245184,90,-56,-1,-1,0
15700,2424832,90,-56,-1,-1,0
15733,1048576,90,-56,-1,-1,0
15766,-720896,90,-56,-1,-1,0
15799,-983040,90,-56,-1,-1,0
15833,-720896,90,-56,-1,-1,0
15866,-720896,90,-56,-1,-1,0
15900,-983040,90,-56,-1,-1,0
15933,-983040,90,-56,-1,-1,0
15966,-1114112,90,-56,-1,-1,0
16000,-1245184,90,-56,-1,-1,0
16033,-917504,90,-56,-1,-1,0
16066,8978432,90,-56,-1,-1,0
16100,-458752,90,-56,-1,-1,0
16133,-589824,90,-56,-1,-1,0
16166,0,90,-56,-1,-1,0
16200,1048576,90,-56,-1,-1,0
16233,2359296,90,-56,-1,-1,0
16266,1114112,90,-56,-1,-1,0
16300,-851968,90,-56,-1,-1,0
16333,-983040,90,-56,-1,-1,0
16366,-917504,90,-56,-1,-1,0
16400,-917504,90,-56,-1,-1,0
16433,-1114112,90,-56,-1,-1,0
16466,-851968,90,-56,-1,-1,0
16500,-1245184,90,-56,-1,-1,0
16533,-1245184,90,-56,-1,-1,0
16566,4587520,90,-56,-1,-1,0
16600,-65536,90,-56,-1,-1,0
16633,-786432,90,-56,-1,-1,0
16666,-524288,90,-56,-1,-1,0
16700,262144,90,-56,-1,-1,0
16733,1769472,90,-56,-1,-1,0
16766,2097152,90,-56,-1,-1,0
16800,-393216,90,-56,-1,-1,0
16833,-1310720,90,-56,-1,-1,0
16866,-1179648,90,-56,-1,-1,0
16900,-1179648,90,-56,-1,-1,0
16933,-1310720,90,-56,-1,-1,0
16966,-1048576,90,-56,-1,-1,0
17000,-1441792,90,-56,-1,-1,0
17033,-1441792,90,-56,-1,-1,0
17066,3538944,90,-56,-1,-1,0
17100,0,90,-56,-1,-1,0
17133,-917504,90,-56,-1,-1,0
17166,-589824,90,-56,-1,-1,0
17200,131072,90,-56,-1,-1,0
17233,1703936,90,-56,-1,-1,0
17266,2162688,90,-56,-1,-1,0
17300,-262144,90,-56,-1,-1,0
17333,-1245184,90,-56,-1,-1,0
17366,-1114112,90,-56,-1,-1,0
17400,-983040,90,-56,-1,-1,0
17433,-1179648,90,-56,-1,-1,0
17466,-983040,90,-56,-1,-1,0
17500,-1376256,90,-56,-1,-1,0
17533,-1441792,90,-56,-1,-1,0
17566,2621440,90,-56,-1,-1,0
17600,458752,90,-56,-1,-1,0
17633,-851968,90,-56,-1,-1,0
17666,-524288,90,-56,-1,-1,0
17700,131072,90,-56,-1,-1,0
17733,1507328,90,-56,-1,-1,0
17766,1966080,90,-56,-1,-1,0
17800,-327680,90,-56,-1,-1,0
17833,-1310720,90,-56,-1,-1,0
17866,-1310720,90,-56,-1,-1,0
17900,-1114112,90,-56,-1,-1,0
17933,-1310720,90,-56,-1,-1,0
17966,-1114112,90,-56,-1,-1,0
18000,-1376256,90,-56,-1,-1,0
18033,-1376256,90,-56,-1,-1,0
18066,-1114112,90,-56,-1,-1,0
18100,9240576,90,-56,-1,-1,0
18133,-720896,90,-56,-1,-1,0
18166,-786432,90,-56,-1,-1,0
18200,-196608,90,-56,-1,-1,0
18233,917504,90,-56,-1,-1,0
18266,2228224,90,-56,-1,-1,0
18300,786432,90,-56,-1,-1,0
18333,-851968,90,-56,-1,-1,0
18366,-1048576,90,-56,-1,-1,0
18400,-917504,90,-56,-1,-1,0
18433,-917504,90,-56,-1,-1,0
18466,-983040,90,-56,-1,-1,0
18500,-1245184,90,-56,-1,-1,0
18533,-786432,90,-56,-1,-1,0
18566,-1114112,90,-56,-1,-1,0
18600,-1179648,90,-56,-1,-1,0
18633,524288,90,-56,-1,-1,0
18666,4390912,89,-56,-1,-1,0
18700,-458752,89,-56,-1,-1,0
18733,-327680,89,-56,-1,-1,0
18766,262144,89,-56,-1,-1,0
18800,1507328,89,-56,-1,-1,0
18833,2490368,89,-56,-1,-1,0
18866,655360,89,-56,-1,-1,0
18900,-720896,89,-56,-1,-1,0
18933,-786432,89,-56,-1,-1,0
18966,-655360,89,-56,-1,-1,0
19000,-720896,89,-56,-1,-1,0
19033,-851968,89,-56,-1,-1,0
19066,-983040,89,-56,-1,-1,0
19100,-1114112,89,-56,-1,-1,0
19133,-1114112,89,-56,-1,-1,0
19166,-720896,89,-56,-1,-1,0
19200,-983040,89,-56,-1,-1,0
19233,-1048576,89,-56,-1,-1,0
19266,-393216,89,-56,-1,-1,0
19300,8650752,89,-56,-1,-1,0
19333,-262144,89,-56,-1,-1,0
19366,-327680,88,-56,-1,-1,0
19400,196608,88,-56,-1,-1,0
19433,1245184,88,-56,-1,-1,0
19466,2490368,88,-56,-1,-1,0
19500,1376256,88,-56,-1,-1,0
19533,-524288,88,-56,-1,-1,0
19566,-720896,88,-56,-1,-1,0
19600,-655360,88,-56,-1,-1,0
19633,-720896,88,-56,-1,-1,0
19666,-917504,88,-56,-1,-1,0
19700,-1048576,88,-56,-1,-1,0
19733,-1114112,88,-56,-1,-1,0
19766,-1179648,88,-56,-1,-1,0
19800,-1114112,88,-56,-1,-1,0
19833,-917504,88,-56,-1,-1,0
19866,-983040,88,-56,-1,-1,0
19900,-1179648,88,-56,-1,-1,0
19933,-851968,88,-56,-1,-1,0
19966,10092544,88,-56,-1,-1,0
20000,-262144,88,-56,-1,-1,0
20033,-393216,88,-56,-1,-1,0
20066,65536,88,-56,-1,-1,0
20100,1048576,88,-56,-1,-1,0
20133,2424832,88,-56,-1,-1,0
20166,1638400,88,-56,-1,-1,0
20200,-327680,88,-56,-1,-1,0
20233,-786432,88,-56,-1,-1,0
20266,-655360,88,-56,-1,-1,0
20300,-655360,88,-56,-1,-1,0
20333,-786432,88,-56,-1,-1,0
20366,-851968,88,-56,-1,-1,0
20400,-917504,88,-56,-1,-1,0
20433,-917504,88,-56,-1,-1,0
20466,-1048576,88,-56,-1,-1,0
20500,-589824,88,-56,-1,-1,0
20533,-851968,88,-56,-1,-1,0
20566,-1114112,88,-56,-1,-1,0
20600,-589824,88,-56,-1,-1,0
20633,8388608,88,-56,-1,-1,0
20666,-393216,88,-56,-1,-1,0
20700,-458752,88,-56,-1,-1,0
20733,0,88,-56,-1,-1,0
20766,983040,88,-56,-1,-1,0
20800,2293760,88,-56,-1,-1,0
20833,1245184,88,-56,-1,-1,0
20866,-720896,88,-56,-1,-1,0
20900,-1048576,88,-56,-1,-1,0
20933,-983040,88,-56,-1,-1,0
20966,-851968,88,-56,-1,-1,0
21000,-1048576,88,-56,-1,-1,0
21033,-1114112,88,-56,-1,-1,0
21066,-1245184,88,-56,-1,-1,0
21100,-1245184,88,-56,-1,-1,0
21133,-1245184,88,-56,-1,-1,0
21166,-786432,88,-56,-1,-1,0
21200,-1048576,88,-56,-1,-1,0
21233,-1245184,88,-56,-1,-1,0
21266,-786432,88,-56,-1,-1,0
21300,8192000,88,-56,-1,-1,0
21333,-393216,88,-56,-1,-1,0
21366,-393216,88,-56,-1,-1,0
21400,0,88,-56,-1,-1,0
21433,1048576,88,-56,-1,-1,0
21466,2293760,88,-56,-1,-1,0
21500,1441792,88,-56,-1,-1,0
21533,-327680,88,-56,-1,-1,0
21566,-720896,88,-56,-1,-1,0
21600,-524288,88,-56,-1,-1,0
21633,-524288,88,-56,-1,-1,0
21666,-589824,88,-56,-1,-1,0
21700,-720896,88,-56,-1,-1,0
21733,-786432,88,-56,-1,-1,0
21766,-851968,88,-56,-1,-1,0
21800,-917504,88,-56,-1,-1,0
21833,-458752,88,-56,-1,-1,0
21866,-720896,88,-56,-1,-1,0
21900,-983040,88,-56,-1,-1,0
21933,-589824,88,-56,-1,-1,0
21966,8781824,88,-56,-1,-1,0
22000,-196608,88,-56,-1,-1,0
22033,-262144,87,-56,-1,-1,0
22066,131072,87,-56,-1,-1,0
22100,1114112,87,-56,-1,-1,0
22133,2293760,87,-56,-1,-1,0
22166,1441792,87,-56,-1,-1,0
22200,-393216,87,-56,-1,-1,0
22233,-720896,87,-56,-1,-1,0
22266,-589824,87,-56,-1,-1,0
22300,-524288,87,-56,-1,-1,0
22333,-720896,87,-56,-1,-1,0
22366,-786432,87,-56,-1,-1,0
22400,-851968,87,-56,-1,-1,0
22433,-917504,87,-56,-1,-1,0
22466,-983040,87,-56,-1,-1,0
22500,-524288,87,-56,-1,-1,0
22533,-851968,87,-56,-1,-1,0
22566,-1048576,87,-56,-1,-1,0
22600,-983040,87,-56,-1,-1,0
22633,8978432,87,-56,-1,-1,0
22666,-196608,85,-56,-1,-1,0
22700,-458752,85,-56,-1,-1,0
22733,0,85,-56,-1,-1,0
22766,786432,85,-56,-1,-1,0
22800,2031616,85,-56,-1,-1,0
22833,1507328,85,-56,-1,-1,0
22866,-327680,85,-56,-1,-1,0
22900,-786432,85,-56,-1,-1,0
22933,-589824,85,-56,-1,-1,0
22966,-655360,85,-56,-1,-1,0
23000,-655360,85,-56,-1,-1,0
23033,-851968,85,-56,-1,-1,0
23066,-983040,85,-56,-1,-1,0
23100,-1048576,85,-56,-1,-1,0
23133,-917504,85,-56,-1,-1,0
23166,-851968,85,-56,-1,-1,0
23200,-983040,85,-56,-1,-1,0
23233,-1048576,83,-56,-1,-1,0
23266,8519680,83,-56,-1,-1,0
23300,-131072,83,-56,-1,-1,0
23333,-524288,83,-56,-1,-1,0
23366,-131072,83,-56,-1,-1,0
23400,589824,83,-56,-1,-1,0
23433,1769472,83,-56,-1,-1,0
23466,1376256,83,-56,-1,-1,0
23500,-327680,83,-56,-1,-1,0
23533,-851968,83,-56,-1,-1,0
23566,-720896,83,-56,-1,-1,0
23600,-720896,83,-56,-1,-1,0
23633,-851968,83,-56,-1,-1,0
23666,-983040,83,-56,-1,-1,0
23700,-1114112,83,-56,-1,-1,0
23733,-720896,83,-56,-1,-1,0
23766,-1048576,83,-56,-1,-1,0
23800,-1048576,81,-56,-1,-1,0
23833,196608,81,-56,-1,-1,0
23866,4456448,81,-56,-1,-1,0
23900,-458752,81,-56,-1,-1,0
23933,-393216,81,-56,-1,-1,0
23966,0,81,-56,-1,-1,0
24000,983040,81,-56,-1,-1,0
24033,1769472,81,-56,-1,-1,0
24066,524288,81,-56,-1,-1,0
24100,-851968,81,-56,-1,-1,0
24133,-1048576,81,-56,-1,-1,0
24166,-983040,81,-56,-1,-1,0
24200,-983040,81,-56,-1,-1,0
24233,-1114112,81,-56,-1,-1,0
24266,-1310720,81,-56,-1,-1,0
24300,-1048576,81,-56,-1,-1,0
24333,-1310720,81,-56,-1,-1,0
24366,-1310720,81,-56,-1,-1,0
24400,-851968,81,-56,-1,-1,0
24433,6946816,81,-56,-1,-1,0
24466,-655360,81,-56,-1,-1,0
24500,-720896,81,-56,-1,-1,0
24533,-131072,81,-56,-1,-1,0
24566,983040,81,-56,-1,-1,0
24600,2228224,81,-56,-1,-1,0
24633,1048576,81,-56,-1,-1,0
24666,-786432,81,-56,-1,-1,0
24700,-983040,81,-56,-1,-1,0
24733,-786432,81,-56,-1,-1,0
24766,-589824,81,-56,-1,-1,0
24800,-851968,81,-56,-1,-1,0
24833,-851968,81,-56,-1,-1,0
24866,-1048576,81,-56,-1,-1,0
24900,-1179648,81,-56,-1,-1,0
24933,-917504,81,-56,-1,-1,0
24966,7929856,81,-56,-1,-1,0
25000,-524288,81,-56,-1,-1,0
25033,-524288,81,-56,-1,-1,0
25066,0,81,-56,-1,-1,0
25100,1114112,81,-56,-1,-1,0
25133,2555904,81,-56,-1,-1,0
25166,1114112,81,-56,-1,-1,0
25200,-983040,81,-56,-1,-1,0
25233,-1245184,81,-56,-1,-1,0
25266,-1048576,81,-56,-1,-1,0
25300,-983040,81,-56,-1,-1,0
25333,-1179648,81,-56,-1,-1,0
25366,-917504,81,-56,-1,-1,0
25400,-1310720,81,-56,-1,-1,0
25433,-1376256,81,-56,-1,-1,0
25466,3866624,81,-56,-1,-1,0
25500,0,81,-56,-1,-1,0
25533,-786432,81,-56,-1,-1,0
25566,-524288,81,-56,-1,-1,0
25600,262144,81,-56,-1,-1,0
25633,1900544,81,-56,-1,-1,0
25666,2359296,81,-56,-1,-1,0
25700,-196608,81,-56,-1,-1,0
25733,-1376256,81,-56,-1,-1,0
25766,-1310720,81,-56,-1,-1,0
25800,-1245184,81,-56,-1,-1,0
25833,-1310720,81,-56,-1,-1,0
25866,-1048576,81,-56,-1,-1,0
25900,-1507328,81,-56,-1,-1,0
25933,-1507328,81,-56,-1,-1,0
25966,4718592,81,-56,-1,-1,0
26000,-196608,81,-56,-1,-1,0
26033,-983040,81,-56,-1,-1,0
26066,-589824,81,-56,-1,-1,0
26099,196608,81,-56,-1,-1,0
26133,1900544,81,-56,-1,-1,0
26166,2162688,81,-56,-1,-1,0
26200,-393216,81,-56,-1,-1,0
26233,-1179648,81,-56,-1,-1,0
26266,-1179648,81,-56,-1,-1,0
26300,-1048576,81,-56,-1,-1,0
26333,-1048576,81,-56,-1,-1,0
26366,-917504,81,-56,-1,-1,0
26400,-1048576,81,-56,-1,-1,0
26433,-1245184,81,-56,-1,-1,0
26466,-1245184,81,-56,-1,-1,0
26500,10289152,81,-56,-1,-1,0
26533,-327680,81,-56,-1,-1,0
26566,-786432,81,-56,-1,-1,0
26599,-262144,81,-56,-1,-1,0
26633,655360,81,-56,-1,-1,0
26666,2162688,81,-56,-1,-1,0
26700,1572864,81,-56,-1,-1,0
26733,-851968,81,-56,-1,-1,0
26766,-1245184,81,-56,-1,-1,0
26800,-1114112,81,-56,-1,-1,0
26833,-1048576,81,-56,-1,-1,0
26866,-1114112,81,-56,-1,-1,0
26900,-1114112,81,-56,-1,-1,0
26933,-1310720,81,-56,-1,-1,0
26966,-851968,81,-56,-1,-1,0
27000,-1179648,81,-56,-1,-1,0
27033,-1048576,81,-56,-1,-1,0
27066,2359296,81,-56,-1,-1,0
27099,1376256,81,-56,-1,-1,0
27133,-524288,81,-56,-1,-1,0
27166,-262144,82,-56,-1,-1,0
27200,393216,82,-56,-1,-1,0
27233,1703936,82,-56,-1,-1,0
27266,2752512,82,-56,-1,-1,0
27300,458752,82,-56,-1,-1,0
27333,-786432,82,-56,-1,-1,0
27366,-720896,82,-56,-1,-1,0
27400,-720896,82,-56,-1,-1,0
27433,-655360,82,-56,-1,-1,0
27466,-720896,82,-56,-1,-1,0
27500,-851968,82,-56,-1,-1,0
27533,-851968,82,-56,-1,-1,0
27566,-917504,82,-56,-1,-1,0
27599,-786432,82,-56,-1,-1,0
27633,-917504,82,-56,-1,-1,0
27666,-720896,82,-56,-1,-1,0
27700,-786432,82,-56,-1,-1,0
27733,-851968,82,-56,-1,-1,0
27766,-524288,82,-56,-1,-1,0
27800,10223616,82,-56,-1,-1,0
27833,0,82,-56,-1,-1,0
27866,-196608,82,-56,-1,-1,0
27900,196608,82,-56,-1,-1,0
27933,1179648,82,-56,-1,-1,0
27966,2686976,82,-56,-1,-1,0
28000,2031616,82,-56,-1,-1,0
28033,-131072,82,-56,-1,-1,0
28066,-786432,82,-56,-1,-1,0
28099,-720896,82,-56,-1,-1,0
28133,-655360,82,-56,-1,-1,0
28166,-720896,82,-56,-1,-1,0
28200,-917504,82,-56,-1,-1,0
28233,-983040,82,-56,-1,-1,0
28266,-983040,82,-56,-1,-1,0
28300,-983040,82,-56,-1,-1,0
28333,-917504,82,-56,-1,-1,0
28366,-786432,82,-56,-1,-1,0
28400,-1048576,82,-56,-1,-1,0
28433,-1048576,82,-56,-1,-1,0
28466,4521984,82,-56,-1,-1,0
28500,131072,82,-56,-1,-1,0
28533,-524288,82,-56,-1,-1,0
28566,-131072,82,-56,-1,-1,0
28599,524288,82,-56,-1,-1,0
28633,2031616,82,-56,-1,-1,0
28666,2686976,82,-56,-1,-1,0
28700,393216,82,-56,-1,-1,0
28733,-851968,82,-56,-1,-1,0
28766,-917504,82,-56,-1,-1,0
28800,-720896,82,-56,-1,-1,0
28833,-589824,82,-56,-1,-1,0
28866,-851968,82,-56,-1,-1,0
28900,-983040,82,-56,-1,-1,0
28933,-1048576,82,-56,-1,-1,0
28966,-1179648,82,-56,-1,-1,0
29000,-1179648,82,-56,-1,-1,0
29033,-917504,82,-56,-1,-1,0
29066,-1245184,82,-56,-1,-1,0
29099,-1310720,82,-56,-1,-1,0
29133,2228224,82,-56,-1,-1,0
29166,1114112,82,-56,-1,-1,0
29200,-720896,82,-56,-1,-1,0
29233,-524288,82,-56,-1,-1,0
29266,65536,82,-56,-1,-1,0
29300,1441792,82,-56,-1,-1,0
29333,2424832,82,-56,-1,-1,0
29366,458752,82,-56,-1,-1,0
29400,-917504,82,-56,-1,-1,0
29433,-1048576,82,-56,-1,-1,0
29466,-851968,82,-56,-1,-1,0
29500,-720896,82,-56,-1,-1,0
29533,-786432,82,-56,-1,-1,0
29566,-917504,82,-56,-1,-1,0
29599,-851968,82,-56,-1,-1,0
29633,-917504,82,-56,-1,-1,0
29666,-851968,82,-56,-1,-1,0
29700,-458752,82,-56,-1,-1,0
29733,-720896,82,-56,-1,-1,0
29766,-917504,82,-56,-1,-1,0
29800,-720896,82,-56,-1,-1,0
29833,9764864,82,-56,-1,-1,0
29866,0,82,-56,-1,-1,0
29900,-262144,82,-56,-1,-1,0
29933,131072,82,-56,-1,-1,0
29966,983040,82,-56,-1,-1,0
30000,2424832,82,-56,-1,-1,0
30033,1966080,82,-56,-1,-1,0
30066,-196608,82,-56,-1,-1,0
30099,-720896,82,-56,-1,-1,0
30133,-786432,82,-56,-1,-1,0
30166,-720896,82,-56,-1,-1,0
30200,-589824,82,-56,-1,-1,0
30233,-720896,82,-56,-1,-1,0
30266,-917504,82,-56,-1,-1,0
30300,-1048576,82,-56,-1,-1,0
30333,-1179648,82,-56,-1,-1,0
30366,-917504,82,-56,-1,-1,0
30400,-983040,82,-56,-1,-1,0
30433,-1179648,82,-56,-1,-1,0
30466,-1310720,82,-56,-1,-1,0
30500,7929856,82,-56,-1,-1,0
30533,-458752,81,-56,-1,-1,0
30566,-917504,81,-56,-1,-1,0
30599,-589824,81,-56,-1,-1,0
30633,196608,81,-56,-1,-1,0
30666,1507328,81,-56,-1,-1,0
30700,1572864,81,-56,-1,-1,0
30733,-524288,81,-56,-1,-1,0
30766,-1179648,81,-56,-1,-1,0
30800,-1048576,81,-56,-1,-1,0
30833,-851968,81,-56,-1,-1,0
30866,-851968,81,-56,-1,-1,0
30900,-851968,81,-56,-1,-1,0
30933,-851968,81,-56,-1,-1,0
30966,-983040,81,-56,-1,-1,0
31000,-720896,81,-56,-1,-1,0
31033,-655360,81,-56,-1,-1,0
31066,-786432,81,-56,-1,-1,0
31099,-720896,82,-56,-1,-1,0
31133,9306112,82,-56,-1,-1,0
31166,0,82,-56,-1,-1,0
31200,-262144,82,-56,-1,-1,0
31233,131072,82,-56,-1,-1,0
31266,917504,82,-56,-1,-1,0
31300,2293760,82,-56,-1,-1,0
31333,1966080,82,-56,-1,-1,0
31366,-131072,82,-56,-1,-1,0
31400,-655360,82,-56,-1,-1,0
31433,-524288,82,-56,-1,-1,0
31466,-458752,82,-56,-1,-1,0
31500,-458752,82,-56,-1,-1,0
31533,-655360,82,-56,-1,-1,0
31566,-786432,82,-56,-1,-1,0
31599,-458752,82,-56,-1,-1,0
31633,-720896,82,-56,-1,-1,0
31666,-851968,82,-56,-1,-1,0
31700,-524288,81,-56,-1,-1,0
31733,7995392,81,-56,-1,-1,0
31766,-262144,81,-56,-1,-1,0
31800,-327680,81,-56,-1,-1,0
31833,0,81,-56,-1,-1,0
31866,917504,81,-56,-1,-1,0
31900,2031616,81,-56,-1,-1,0
31933,1376256,81,-56,-1,-1,0
31966,-655360,81,-56,-1,-1,0
32000,-1048576,81,-56,-1,-1,0
32033,-851968,81,-56,-1,-1,0
32066,-851968,81,-56,-1,-1,0
32100,-983040,81,-56,-1,-1,0
32133,-1245184,81,-56,-1,-1,0
32166,-1245184,81,-56,-1,-1,0
32200,-917504,81,-56,-1,-1,0
32233,-1245184,81,-56,-1,-1,0
32266,-1310720,81,-56,-1,-1,0
32299,2162688,81,-56,-1,-1,0
32333,720896,81,-56,-1,-1,0
32366,-720896,81,-56,-1,-1,0
32400,-524288,81,-56,-1,-1,0
32433,65536,81,-56,-1,-1,0
32466,1310720,81,-56,-1,-1,0
32500,2228224,81,-56,-1,-1,0
32533,458752,81,-56,-1,-1,0
32566,-983040,81,-56,-1,-1,0
32600,-983040,81,-56,-1,-1,0
32633,-851968,81,-56,-1,-1,0
32666,-983040,81,-56,-1,-1,0
32700,-1179648,81,-56,-1,-1,0
32733,-1376256,81,-56,-1,-1,0
32766,-1048576,81,-56,-1,-1,0
32800,-1376256,81,-56,-1,-1,0
32833,-1310720,81,-56,-1,-1,0
32866,-262144,81,-56,-1,-1,0
32900,5505024,81,-56,-1,-1,0
32933,-786432,81,-56,-1,-1,0
32966,-720896,81,-56,-1,-1,0
33000,-131072,81,-56,-1,-1,0
33033,1114112,81,-56,-1,-1,0
33066,2555904,81,-56,-1,-1,0
33100,1048576,81,-56,-1,-1,0
33133,-917504,81,-56,-1,-1,0
33166,-1245184,81,-56,-1,-1,0
33200,-917504,81,-56,-1,-1,0
33233,-851968,81,-56,-1,-1,0
33266,-917504,81,-56,-1,-1,0
33300,-1048576,81,-56,-1,-1,0
33333,-851968,81,-56,-1,-1,0
33366,-1114112,81,-56,-1,-1,0
33400,-1245184,81,-56,-1,-1,0
33433,7405568,81,-56,-1,-1,0
33466,-131072,81,-56,-1,-1,0
33500,-655360,81,-56,-1,-1,0
33533,-393216,81,-56,-1,-1,0
33566,393216,81,-56,-1,-1,0
33600,1966080,81,-56,-1,-1,0
33633,2162688,81,-56,-1,-1,0
33666,-393216,81,-56,-1,-1,0
33700,-1245184,81,-56,-1,-1,0
33733,-1179648,81,-56,-1,-1,0
33766,-983040,81,-56,-1,-1,0
33800,-1114112,81,-56,-1,-1,0
33833,-1245184,81,-56,-1,-1,0
33866,-917504,81,-56,-1,-1,0
33900,-1310720,81,-56,-1,-1,0
33933,-1376256,81,-56,-1,-1,0
33966,589824,81,-56,-1,-1,0
34000,3670016,81,-56,-1,-1,0
34033,-720896,81,-56,-1,-1,0
34066,-589824,81,-56,-1,-1,0
34100,0,81,-56,-1,-1,0
34133,1507328,81,-56,-1,-1,0
34166,2686976,81,-56,-1,-1,0
34200,851968,81,-56,-1,-1,0
34233,-983040,81,-56,-1,-1,0
34266,-1179648,81,-56,-1,-1,0
34300,-917504,81,-56,-1,-1,0
34333,-983040,81,-56,-1,-1,0
34366,-1179648,81,-56,-1,-1,0
34400,-851968,81,-56,-1,-1,0
34433,-1048576,81,-56,-1,-1,0
34466,-1179648,81,-56,-1,-1,0
34500,-917504,81,-56,-1,-1,0
34533,9568256,81,-56,-1,-1,0
34566,-262144,81,-56,-1,-1,0
34600,-393216,81,-56,-1,-1,0
34633,0,81,-56,-1,-1,0
34666,1179648,81,-56,-1,-1,0
34700,2686976,81,-56,-1,-1,0
34733,1507328,81,-56,-1,-1,0
34766,-786432,81,-56,-1,-1,0
34800,-1310720,81,-56,-1,-1,0
34833,-1048576,81,-56,-1,-1,0
34866,-851968,81,-56,-1,-1,0
34900,-1048576,81,-56,-1,-1,0
34933,-1114112,81,-56,-1,-1,0
34966,-1048576,81,-56,-1,-1,0
35000,-1376256,81,-56,-1,-1,0
35033,-1376256,81,-56,-1,-1,0
35066,9633792,81,-56,-1,-1,0
35100,-262144,81,-56,-1,-1,0
35133,-851968,81,-56,-1,-1,0
35166,-393216,81,-56,-1,-1,0
35200,589824,81,-56,-1,-1,0
35233,2228224,81,-56,-1,-1,0
35266,1900544,81,-56,-1,-1,0
35300,-720896,81,-56,-1,-1,0
35333,-1310720,81,-56,-1,-1,0
35366,-1179648,81,-56,-1,-1,0
35400,-1048576,81,-56,-1,-1,0
35433,-1048576,81,-56,-1,-1,0
35466,-1376256,81,-56,-1,-1,0
35500,-1048576,81,-56,-1,-1,0
35533,-1310720,81,-56,-1,-1,0
35566,-1376256,85,-56,-1,-1,0
35600,1769472,85,-56,-1,-1,0
35633,1441792,85,-56,-1,-1,0
35666,-720896,85,-56,-1,-1,0
35700,-524288,85,-56,-1,-1,0
35733,196608,85,-56,-1,-1,0
35766,1572864,85,-56,-1,-1,0
35800,2555904,85,-56,-1,-1,0
35833,262144,85,-56,-1,-1,0
35866,-983040,85,-56,-1,-1,0
35900,-1114112,85,-56,-1,-1,0
35933,-917504,85,-56,-1,-1,0
35966,-917504,85,-56,-1,-1,0
36000,-1114112,85,-56,-1,-1,0
36033,-1310720,85,-56,-1,-1,0
36066,-917504,85,-56,-1,-1,0
36100,-1245184,85,-56,-1,-1,0
36133,-1310720,85,-56,-1,-1,0
36166,2555904,85,-56,-1,-1,0
36200,917504,85,-56,-1,-1,0
36233,-720896,85,-56,-1,-1,0
36266,-524288,85,-56,-1,-1,0
36300,262144,85,-56,-1,-1,0
36333,1703936,85,-56,-1,-1,0
36366,2555904,85,-56,-1,-1,0
36400,262144,85,-56,-1,-1,0
36433,-1048576,85,-56,-1,-1,0
36466,-1048576,85,-56,-1,-1,0
36500,-851968,85,-56,-1,-1,0
36533,-851968,85,-56,-1,-1,0
36566,-1048576,85,-56,-1,-1,0
36600,-1114112,85,-56,-1,-1,0
36633,-1310720,85,-56,-1,-1,0
36666,-1048576,85,-56,-1,-1,0
36700,-1245184,85,-56,-1,-1,0
36733,-1310720,85,-56,-1,-1,0
36766,-720896,85,-56,-1,-1,0
36800,9175040,86,-56,-1,-1,0
36833,-524288,86,-56,-1,-1,0
36866,-589824,86,-56,-1,-1,0
36900,0,86,-56,-1,-1,0
36933,1179648,86,-56,-1,-1,0
36966,2686976,86,-56,-1,-1,0
37000,1572864,86,-56,-1,-1,0
37033,-655360,86,-56,-1,-1,0
37066,-983040,86,-56,-1,-1,0
37100,-786432,86,-56,-1,-1,0
37133,-851968,86,-56,-1,-1,0
37166,-983040,86,-56,-1,-1,0
37200,-1114112,86,-56,-1,-1,0
37233,-1179648,86,-56,-1,-1,0
37266,-1179648,86,-56,-1,-1,0
37300,-917504,86,-56,-1,-1,0
37333,-1245184,86,-56,-1,-1,0
37366,-1245184,86,-56,-1,-1,0
37400,5373952,86,-56,-1,-1,0
37433,131072,86,-56,-1,-1,0
37466,-589824,86,-56,-1,-1,0
37500,-262144,86,-56,-1,-1,0
37533,524288,86,-56,-1,-1,0
37566,2097152,86,-56,-1,-1,0
37600,2686976,86,-56,-1,-1,0
37633,131072,86,-56,-1,-1,0
37666,-917504,86,-56,-1,-1,0
37700,-917504,86,-56,-1,-1,0
37733,-720896,86,-56,-1,-1,0
37766,-917504,86,-56,-1,-1,0
37800,-1048576,86,-56,-1,-1,0
37833,-1179648,86,-56,-1,-1,0
37866,-1310720,86,-56,-1,-1,0
37900,-1179648,86,-56,-1,-1,0
37933,-1048576,86,-56,-1,-1,0
37966,-1310720,86,-56,-1,-1,0
38000,-1245184,86,-56,-1,-1,0
38033,8388608,86,-56,-1,-1,0
38066,0,86,-56,-1,-1,0
38100,-589824,86,-56,-1,-1,0
38133,-196608,86,-56,-1,-1,0
38166,720896,86,-56,-1,-1,0
38200,2228224,86,-56,-1,-1,0
38233,2424832,86,-56,-1,-1,0
38266,-65536,86,-56,-1,-1,0
38300,-983040,86,-56,-1,-1,0
38333,-786432,86,-56,-1,-1,0
38366,-655360,86,-56,-1,-1,0
38400,-720896,86,-56,-1,-1,0
38433,-917504,86,-56,-1,-1,0
38466,-1048576,86,-56,-1,-1,0
38500,-1179648,86,-56,-1,-1,0
38533,-917504,86,-56,-1,-1,0
38566,-1048576,86,-56,-1,-1,0
38600,-1245184,86,-56,-1,-1,0
38633,-983040,86,-56,-1,-1,0
38666,10485760,86,-56,-1,-1,0
38700,-196608,86,-56,-1,-1,0
38733,-524288,86,-56,-1,-1,0
38766,-65536,86,-56,-1,-1,0
38800,851968,86,-56,-1,-1,0
38833,2359296,86,-56,-1,-1,0
38866,1835008,86,-56,-1,-1,0
38900,-524288,86,-56,-1,-1,0
38933,-983040,86,-56,-1,-1,0
38966,-851968,86,-56,-1,-1,0
39000,-720896,86,-56,-1,-1,0
39033,-917504,86,-56,-1,-1,0
39066,-1048576,86,-56,-1,-1,0
39100,-1048576,86,-56,-1,-1,0
39133,-1179648,86,-56,-1,-1,0
39166,-851968,86,-56,-1,-1,0
39200,-1114112,86,-56,-1,-1,0
39233,-1114112,86,-56,-1,-1,0
39266,4063232,86,-56,-1,-1,0
39300,262144,86,-56,-1,-1,0
39333,-524288,86,-56,-1,-1,0
39366,-196608,86,-56,-1,-1,0
39400,393216,86,-56,-1,-1,0
39433,1769472,86,-56,-1,-1,0
39466,2359296,86,-56,-1,-1,0
39500,131072,86,-56,-1,-1,0
39533,-917504,86,-56,-1,-1,0
39566,-983040,86,-56,-1,-1,0
39600,-851968,86,-56,-1,-1,0
39633,-917504,86,-56,-1,-1,0
39666,-1179648,86,-56,-1,-1,0
39700,-1245184,86,-56,-1,-1,0
39733,-1441792,86,-56,-1,-1,0
39766,-1048576,86,-56,-1,-1,0
39800,-1376256,86,-56,-1,-1,0
39833,-1310720,86,-56,-1,-1,0
39866,2883584,86,-56,-1,-1,0
39900,262144,86,-56,-1,-1,0
39933,-851968,86,-56,-1,-1,0
39966,-524288,86,-56,-1,-1,0
40000,131072,86,-56,-1,-1,0
40033,1507328,86,-56,-1,-1,0
40066,2162688,86,-56,-1,-1,0
40100,65536,86,-56,-1,-1,0
40133,-1114112,86,-56,-1,-1,0
40166,-1048576,86,-56,-1,-1,0
40200,-917504,86,-56,-1,-1,0
40233,-983040,86,-56,-1,-1,0
40266,-1245184,86,-56,-1,-1,0
40300,-1245184,86,-56,-1,-1,0
40333,-1441792,86,-56,-1,-1,0
40366,-1048576,86,-56,-1,-1,0
40400,-1376256,86,-56,-1,-1,0
40433,-1376256,85,-56,-1,-1,0
40466,3604480,85,-56,-1,-1,0
40500,0,85,-56,-1,-1,0
40533,-786432,85,-56,-1,-1,0
40566,-524288,85,-56,-1,-1,0
40600,196608,85,-56,-1,-1,0
40633,1638400,85,-56,-1,-1,0
40666,2293760,85,-56,-1,-1,0
40700,262144,85,-56,-1,-1,0
40733,-917504,85,-56,-1,-1,0
40766,-786432,85,-56,-1,-1,0
40800,-655360,85,-56,-1,-1,0
40833,-655360,85,-56,-1,-1,0
40866,-851968,85,-56,-1,-1,0
40900,-983040,85,-56,-1,-1,0
40933,-589824,85,-56,-1,-1,0
40966,-851968,85,-56,-1,-1,0
41000,-851968,85,-56,-1,-1,0
41033,917504,85,-56,-1,-1,0
41066,4128768,85,-56,-1,-1,0
41100,-262144,85,-56,-1,-1,0
41133,-196608,85,-56,-1,-1,0
41166,393216,85,-56,-1,-1,0
41200,1638400,85,-56,-1,-1,0
41233,2686976,85,-56,-1,-1,0
41266,851968,85,-56,-1,-1,0
41300,-720896,85,-56,-1,-1,0
41333,-917504,85,-56,-1,-1,0
41366,-720896,85,-56,-1,-1,0
41400,-720896,85,-56,-1,-1,0
41433,-983040,85,-56,-1,-1,0
41466,-1245184,85,-56,-1,-1,0
41500,-917504,85,-56,-1,-1,0
41533,-1310720,85,-56,-1,-1,0
41566,-1376256,85,-56,-1,-1,0
41600,4128768,85,-56,-1,-1,0
41633,0,85,-56,-1,-1,0
41666,-786432,85,-56,-1,-1,0
41700,-524288,85,-56,-1,-1,0
41733,196608,85,-56,-1,-1,0
41766,1703936,85,-56,-1,-1,0
41800,2359296,85,-56,-1,-1,0
41833,-196608,85,-56,-1,-1,0
41866,-1310720,85,-56,-1,-1,0
41900,-1245184,85,-56,-1,-1,0
41933,-1048576,85,-56,-1,-1,0
41966,-1179648,85,-56,-1,-1,0
42000,-1376256,85,-56,-1,-1,0
42033,-1048576,85,-56,-1,-1,0
42066,-1507328,85,-56,-1,-1,0
42100,-1441792,85,-56,-1,-1,0
42133,786432,85,-56,-1,-1,0
42166,3014656,85,-56,-1,-1,0
42200,-786432,85,-56,-1,-1,0
42233,-655360,85,-56,-1,-1,0
42266,0,85,-56,-1,-1,0
42300,1376256,85,-56,-1,-1,0
42333,2490368,85,-56,-1,-1,0
42366,458752,85,-56,-1,-1,0
42400,-1048576,85,-56,-1,-1,0
42433,-1114112,85,-56,-1,-1,0
42466,-917504,85,-56,-1,-1,0
42500,-917504,85,-56,-1,-1,0
42533,-1179648,85,-56,-1,-1,0
42566,-917504,85,-56,-1,-1,0
42600,-1179648,85,-56,-1,-1,0
42633,-1179648,85,-56,-1,-1,0
42666,-65536,85,-56,-1,-1,0
42700,6619136,85,-56,-1,-1,0
42733,-589824,85,-56,-1,-1,0
42766,-524288,85,-56,-1,-1,0
42800,0,85,-56,-1,-1,0
42833,1310720,85,-56,-1,-1,0
42866,2621440,85,-56,-1,-1,0
42900,851968,85,-56,-1,-1,0
42933,-917504,85,-56,-1,-1,0
42966,-1114112,85,-56,-1,-1,0
43000,-851968,85,-56,-1,-1,0
43033,-917504,85,-56,-1,-1,0
43066,-983040,85,-56,-1,-1,0
43100,-1310720,85,-56,-1,-1,0
43133,-851968,85,-56,-1,-1,0
43166,-1179648,85,-56,-1,-1,0
43200,-1179648,85,-56,-1,-1,0
43233,2752512,85,-56,-1,-1,0
43266,851968,85,-56,-1,-1,0
43300,-589824,85,-56,-1,-1,0
43333,-327680,85,-56,-1,-1,0
43366,327680,85,-56,-1,-1,0
43400,1900544,85,-56,-1,-1,0
43433,2621440,85,-56,-1,-1,0
43466,196608,85,-56,-1,-1,0
43500,-917504,85,-56,-1,-1,0
43533,-983040,85,-56,-1,-1,0
43566,-851968,85,-56,-1,-1,0
43600,-851968,85,-56,-1,-1,0
43633,-1048576,85,-56,-1,-1,0
43666,-1114112,85,-56,-1,-1,0
43700,-1310720,85,-56,-1,-1,0
43733,-1048576,85,-56,-1,-1,0
43766,-1310720,85,-56,-1,-1,0
43800,-1376256,85,-56,-1,-1,0
43833,-720896,85,-56,-1,-1,0
43866,8585216,85,-56,-1,-1,0
43900,-589824,84,-56,-1,-1,0
43933,-720896,84,-56,-1,-1,0
43966,-196608,84,-56,-1,-1,0
44000,917504,84,-56,-1,-1,0
44033,2359296,84,-56,-1,-1,0
44066,1179648,84,-56,-1,-1,0
44100,-786432,84,-56,-1,-1,0
44133,-1048576,84,-56,-1,-1,0
44166,-851968,84,-56,-1,-1,0
44200,-917504,84,-56,-1,-1,0
44233,-917504,84,-56,-1,-1,0
44266,-983040,84,-56,-1,-1,0
44300,-1048576,84,-56,-1,-1,0
44333,-1114112,84,-56,-1,-1,0
44366,-1114112,84,-56,-1,-1,0
44400,-851968,84,-56,-1,-1,0
44433,-1048576,84,-56,-1,-1,0
44466,-1114112,84,-56,-1,-1,0
44500,6488064,84,-56,-1,-1,0
44533,131072,84,-56,-1,-1,0
44566,-458752,83,-56,-1,-1,0
44600,-131072,83,-56,-1,-1,0
44633,720896,83,-56,-1,-1,0
44666,2228224,83,-56,-1,-1,0
44700,2424832,83,-56,-1,-1,0
44733,262144,83,-56,-1,-1,0
44766,-917504,83,-56,-1,-1,0
44800,-720896,83,-56,-1,-1,0
44833,-524288,83,-56,-1,-1,0
44866,-589824,83,-56,-1,-1,0
44900,-786432,83,-56,-1,-1,0
44933,-983040,83,-56,-1,-1,0
44966,-983040,83,-56,-1,-1,0
45000,-1114112,83,-56,-1,-1,0
45033,-1048576,83,-56,-1,-1,0
45066,-983040,83,-56,-1,-1,0
45100,-983040,83,-56,-1,-1,0
45133,-917504,83,-56,-1,-1,0
45166,10158080,83,-56,-1,-1,0
45200,65536,83,-56,-1,-1,0
45233,-327680,83,-56,-1,-1,0
45266,-196608,83,-56,-1,-1,0
45300,917504,83,-56,-1,-1,0
45333,2621440,83,-56,-1,-1,0
45366,2359296,83,-56,-1,-1,0
45400,-196608,83,-56,-1,-1,0
45433,-851968,83,-56,-1,-1,0
45466,-851968,83,-56,-1,-1,0
45500,-720896,83,-56,-1,-1,0
45533,-851968,83,-56,-1,-1,0
45566,-1048576,83,-56,-1,-1,0
45600,-1048576,83,-56,-1,-1,0
45633,-1114112,83,-56,-1,-1,0
45666,-1245184,83,-56,-1,-1,0
45700,-1114112,83,-56,-1,-1,0
45733,-983040,83,-56,-1,-1,0
45766,-1179648,83,-56,-1,-1,0
45800,-1048576,83,-56,-1,-1,0
45833,9961472,83,-56,-1,-1,0
45866,-262144,83,-56,-1,-1,0
45900,-589824,83,-56,-1,-1,0
45933,-131072,83,-56,-1,-1,0
45966,720896,83,-56,-1,-1,0
46000,2228224,83,-56,-1,-1,0
46033,1835008,83,-56,-1,-1,0
46066,-458752,83,-56,-1,-1,0
46100,-917504,83,-56,-1,-1,0
46133,-720896,83,-56,-1,-1,0
46166,-786432,83,-56,-1,-1,0
46200,-983040,83,-56,-1,-1,0
46233,-851968,83,-56,-1,-1,0
46266,-851968,83,-56,-1,-1,0
46300,-1179648,83,-56,-1,-1,0
46333,-1048576,83,-56,-1,-1,0
46366,-655360,83,-56,-1,-1,0
46400,-1048576,83,-56,-1,-1,0
46433,-1048576,83,-56,-1,-1,0
46466,9502720,83,-56,-1,-1,0
46500,131072,83,-56,-1,-1,0
46533,-327680,83,-56,-1,-1,0
46566,0,83,-56,-1,-1,0
46600,786432,83,-56,-1,-1,0
46633,2359296,83,-56,-1,-1,0
46666,2293760,83,-56,-1,-1,0
46700,-262144,83,-56,-1,-1,0
46733,-983040,83,-56,-1,-1,0
46766,-917504,83,-56,-1,-1,0
46800,-720896,83,-56,-1,-1,0
46833,-786432,83,-56,-1,-1,0
46866,-851968,83,-56,-1,-1,0
46900,-983040,83,-56,-1,-1,0
46933,-983040,83,-56,-1,-1,0
46966,-983040,83,-56,-1,-1,0
47000,-786432,83,-56,-1,-1,0
47033,-1048576,83,-56,-1,-1,0
47066,-1114112,83,-56,-1,-1,0
47100,8716288,82,-56,-1,-1,0
47133,-65536,82,-56,-1,-1,0
47166,-589824,82,-56,-1,-1,0
47200,-393216,82,-56,-1,-1,0
47233,262144,82,-56,-1,-1,0
47266,2097152,82,-56,-1,-1,0
47300,1966080,82,-56,-1,-1,0
47333,-327680,82,-56,-1,-1,0
47366,-1048576,82,-56,-1,-1,0
47400,-917504,82,-56,-1,-1,0
47433,-786432,82,-56,-1,-1,0
47466,-851968,82,-56,-1,-1,0
47500,-983040,82,-56,-1,-1,0
47533,-1114112,82,-56,-1,-1,0
47566,-1245184,82,-56,-1,-1,0
47600,-917504,82,-56,-1,-1,0
47633,-1245184,82,-56,-1,-1,0
47666,-1376256,82,-56,-1,-1,0
47700,-589824,82,-56,-1,-1,0
47733,6225920,82,-56,-1,-1,0
47766,-851968,82,-56,-1,-1,0
47800,-851968,82,-56,-1,-1,0
47833,-262144,82,-56,-1,-1,0
47866,851968,82,-56,-1,-1,0
47900,2162688,82,-56,-1,-1,0
47933,1179648,82,-56,-1,-1,0
47966,-786432,82,-56,-1,-1,0
48000,-1048576,82,-56,-1,-1,0
48033,-917504,82,-56,-1,-1,0
48066,-917504,82,-56,-1,-1,0
48100,-1048576,82,-56,-1,-1,0
48133,-1179648,82,-56,-1,-1,0
48166,-1310720,82,-56,-1,-1,0
48200,-917504,82,-56,-1,-1,0
48233,-1310720,82,-56,-1,-1,0
48266,-1245184,82,-56,-1,-1,0
48300,917504,82,-56,-1,-1,0
48333,3014656,82,-56,-1,-1,0
48366,-655360,82,-56,-1,-1,0
48400,-524288,82,-56,-1,-1,0
48433,131072,82,-56,-1,-1,0
48466,1507328,82,-56,-1,-1,0
48500,2621440,82,-56,-1,-1,0
48533,720896,82,-56,-1,-1,0
48566,-983040,82,-56,-1,-1,0
48600,-1114112,82,-56,-1,-1,0
48633,-917504,82,-56,-1,-1,0
48666,-786432,82,-56,-1,-1,0
48700,-983040,82,-56,-1,-1,0
48733,-1179648,82,-56,-1,-1,0
48766,-983040,82,-56,-1,-1,0
48800,-1245184,82,-56,-1,-1,0
48833,-1179648,82,-56,-1,-1,0
48866,4063232,82,-56,-1,-1,0
48900,-196608,82,-56,-1,-1,0
48933,-589824,82,-56,-1,-1,0
48966,-196608,82,-56,-1,-1,0
49000,720896,82,-56,-1,-1,0
49033,2490368,82,-56,-1,-1,0
49066,3342336,82,-56,-1,-1,0
49100,393216,82,-56,-1,-1,0
49133,-917504,82,-56,-1,-1,0
49166,-1048576,82,-56,-1,-1,0
49200,-589824,82,-56,-1,-1,0
49233,-589824,82,-56,-1,-1,0
49266,-720896,82,-56,-1,-1,0
49300,-655360,82,-56,-1,-1,0
49333,-1114112,83,-56,-1,-1,0
49366,-1179648,83,-56,-1,-1,0
49400,2949120,83,-56,-1,-1,0
49433,196608,83,-56,-1,-1,0
49466,-655360,83,-56,-1,-1,0
49500,-393216,83,-56,-1,-1,0
49533,327680,83,-56,-1,-1,0
49566,1966080,83,-56,-1,-1,0
49600,2818048,83,-56,-1,-1,0
49633,0,83,-56,-1,-1,0
49666,-1441792,83,-56,-1,-1,0
49700,-1572864,83,-56,-1,-1,0
49733,-1310720,83,-56,-1,-1,0
49766,-1179648,83,-56,-1,-1,0
49800,-1310720,83,-56,-1,-1,0
49833,-1245184,83,-56,-1,-1,0
49866,-1572864,83,-56,-1,-1,0
49900,-1638400,83,-56,-1,-1,0
49933,5505024,83,-56,-1,-1,0
49966,-327680,83,-56,-1,-1,0
50000,-983040,83,-56,-1,-1,0
