milliseconds, ECG, ECG HR, PPG, PPG HR, SpO2, PI
1523618836363,-131072,104,-56,-1,-1,0
1523618836363,-196608,104,-56,-1,-1,0
1523618836363,-327680,104,-56,-1,-1,0
1523618836363,-458752,104,-56,-1,-1,0
1523618836363,-458752,104,-56,-1,-1,0
1523618836403,-524288,104,-56,-1,-1,0
1523618836403,-589824,104,-56,-1,-1,0
1523618836403,-655360,104,-56,-1,-1,0
1523618836403,-655360,104,-56,-1,-1,0
1523618836403,-589824,104,-56,-1,-1,0
1523618836444,-524288,104,-56,-1,-1,0
1523618836444,-458752,104,-56,-1,-1,0
1523618836444,-327680,104,-56,-1,-1,0
1523618836444,-196608,104,-56,-1,-1,0
1523618836444,-196608,104,-56,-1,-1,0
1523618836483,-262144,104,-56,-1,-1,0
1523618836483,-458752,104,-56,-1,-1,0
1523618836483,-589824,104,-56,-1,-1,0
1523618836483,-786432,104,-56,-1,-1,0
1523618836483,-917504,104,-56,-1,-1,0
1523618836523,-1048576,104,-56,-1,-1,0
1523618836523,-1114112,104,-56,-1,-1,0
1523618836523,-1179648,104,-56,-1,-1,0
1523618836523,-1179648,104,-56,-1,-1,0
1523618836523,-1245184,104,-56,-1,-1,0
1523618836563,-1310720,104,-56,-1,-1,0
1523618836563,-1179648,104,-56,-1,-1,0
1523618836563,0,104,-56,-1,-1,0
1523618836563,2097152,104,-56,-1,-1,0
1523618836563,3276800,104,-56,-1,-1,0
1523618836603,1769472,104,-56,-1,-1,0
1523618836603,-1900544,104,-56,-1,-1,0
1523618836603,-4456448,104,-56,-1,-1,0
1523618836603,-4259840,104,-56,-1,-1,0
1523618836603,-2621440,104,-56,-1,-1,0
1523618836643,-1507328,104,-56,-1,-1,0
1523618836643,-1114112,104,-56,-1,-1,0
1523618836643,-983040,104,-56,-1,-1,0
1523618836643,-917504,104,-56,-1,-1,0
1523618836643,-786432,104,-56,-1,-1,0
1523618836683,-786432,104,-56,-1,-1,0
1523618836683,-720896,104,-56,-1,-1,0
1523618836683,-589824,104,-56,-1,-1,0
1523618836683,-524288,104,-56,-1,-1,0
1523618836683,-327680,104,-56,-1,-1,0
1523618836725,-131072,104,-56,-1,-1,0
1523618836725,65536,104,-56,-1,-1,0
1523618836725,327680,104,-56,-1,-1,0
1523618836725,589824,104,-56,-1,-1,0
1523618836725,917504,104,-56,-1,-1,0
1523618836763,1310720,104,-56,-1,-1,0
1523618836763,1638400,104,-56,-1,-1,0
1523618836763,1966080,104,-56,-1,-1,0
1523618836763,2293760,104,-56,-1,-1,0
1523618836763,2555904,104,-56,-1,-1,0
1523618836803,2686976,104,-56,-1,-1,0
1523618836803,2752512,104,-56,-1,-1,0
1523618836803,2752512,104,-56,-1,-1,0
1523618836803,2555904,104,-56,-1,-1,0
1523618836803,2162688,104,-56,-1,-1,0
1523618836843,1703936,104,-56,-1,-1,0
1523618836843,1179648,104,-56,-1,-1,0
1523618836843,655360,104,-56,-1,-1,0
1523618836843,196608,104,-56,-1,-1,0
1523618836843,-65536,104,-56,-1,-1,0
1523618836883,-262144,104,-56,-1,-1,0
1523618836883,-458752,104,-56,-1,-1,0
1523618836883,-393216,104,-56,-1,-1,0
1523618836883,-393216,104,-56,-1,-1,0
1523618836883,-393216,104,-56,-1,-1,0
1523618836923,-458752,104,-56,-1,-1,0
1523618836923,-393216,104,-56,-1,-1,0
1523618836923,-393216,104,-56,-1,-1,0
1523618836923,-393216,104,-56,-1,-1,0
1523618836923,-458752,104,-56,-1,-1,0
1523618836963,-524288,104,-56,-1,-1,0
1523618836963,-589824,104,-56,-1,-1,0
1523618836963,-655360,104,-56,-1,-1,0
1523618836963,-720896,104,-56,-1,-1,0
1523618836963,-786432,104,-56,-1,-1,0
1523618837004,-786432,104,-56,-1,-1,0
1523618837004,-786432,104,-56,-1,-1,0
1523618837004,-851968,104,-56,-1,-1,0
1523618837004,-917504,104,-56,-1,-1,0
1523618837004,-917504,104,-56,-1,-1,0
1523618837043,-983040,104,-56,-1,-1,0
1523618837043,-983040,104,-56,-1,-1,0
1523618837043,-917504,104,-56,-1,-1,0
1523618837043,-851968,104,-56,-1,-1,0
1523618837043,-720896,104,-56,-1,-1,0
1523618837084,-524288,104,-56,-1,-1,0
1523618837084,-393216,104,-56,-1,-1,0
1523618837084,-458752,104,-56,-1,-1,0
1523618837084,-524288,104,-56,-1,-1,0
1523618837084,-655360,104,-56,-1,-1,0
1523618837123,-851968,104,-56,-1,-1,0
1523618837123,-983040,104,-56,-1,-1,0
1523618837123,-1048576,104,-56,-1,-1,0
1523618837123,-1048576,104,-56,-1,-1,0
1523618837123,-1179648,104,-56,-1,-1,0
1523618837163,-1179648,104,-56,-1,-1,0
1523618837163,-1179648,104,-56,-1,-1,0
1523618837163,-1245184,104,-56,-1,-1,0
1523618837163,-1245184,104,-56,-1,-1,0
1523618837163,-458752,104,-56,-1,-1,0
1523618837203,1572864,104,-56,-1,-1,0
1523618837203,3866624,104,-56,-1,-1,0
1523618837203,3604480,104,-56,-1,-1,0
1523618837203,0,104,-56,-1,-1,0
1523618837203,-3866624,104,-56,-1,-1,0
1523618837243,-5046272,104,-56,-1,-1,0
1523618837243,-3735552,104,-56,-1,-1,0
1523618837243,-2162688,104,-56,-1,-1,0
1523618837243,-1245184,104,-56,-1,-1,0
1523618837243,-917504,104,-56,-1,-1,0
1523618837283,-720896,104,-56,-1,-1,0
1523618837283,-589824,104,-56,-1,-1,0
1523618837283,-524288,104,-56,-1,-1,0
1523618837283,-458752,104,-56,-1,-1,0
1523618837283,-393216,104,-56,-1,-1,0
1523618837323,-196608,104,-56,-1,-1,0
1523618837323,-65536,104,-56,-1,-1,0
1523618837323,65536,104,-56,-1,-1,0
1523618837323,327680,104,-56,-1,-1,0
1523618837323,589824,104,-56,-1,-1,0
1523618837363,917504,104,-56,-1,-1,0
1523618837363,1179648,104,-56,-1,-1,0
1523618837363,1572864,104,-56,-1,-1,0
1523618837363,1900544,104,-56,-1,-1,0
1523618837363,2293760,104,-56,-1,-1,0
1523618837403,2686976,104,-56,-1,-1,0
1523618837403,3014656,104,-56,-1,-1,0
1523618837403,3276800,104,-56,-1,-1,0
1523618837403,3407872,104,-56,-1,-1,0
1523618837403,3473408,104,-56,-1,-1,0
1523618837443,3407872,104,-56,-1,-1,0
1523618837443,3145728,104,-56,-1,-1,0
1523618837443,2686976,104,-56,-1,-1,0
1523618837443,2097152,104,-56,-1,-1,0
1523618837443,1507328,104,-56,-1,-1,0
1523618837483,983040,104,-56,-1,-1,0
1523618837483,524288,104,-56,-1,-1,0
1523618837483,262144,104,-56,-1,-1,0
1523618837483,65536,104,-56,-1,-1,0
1523618837483,0,104,-56,-1,-1,0
1523618837524,-65536,104,-56,-1,-1,0
1523618837524,-131072,104,-56,-1,-1,0
1523618837524,-131072,104,-56,-1,-1,0
1523618837524,-196608,104,-56,-1,-1,0
1523618837524,-196608,104,-56,-1,-1,0
1523618837563,-196608,104,-56,-1,-1,0
1523618837563,-196608,104,-56,-1,-1,0
1523618837563,-196608,104,-56,-1,-1,0
1523618837563,-327680,104,-56,-1,-1,0
1523618837563,-393216,104,-56,-1,-1,0
1523618837603,-458752,104,-56,-1,-1,0
1523618837603,-524288,104,-56,-1,-1,0
1523618837603,-589824,104,-56,-1,-1,0
1523618837603,-655360,104,-56,-1,-1,0
1523618837603,-720896,104,-56,-1,-1,0
1523618837643,-786432,104,-56,-1,-1,0
1523618837643,-786432,104,-56,-1,-1,0
1523618837643,-851968,104,-56,-1,-1,0
1523618837643,-917504,104,-56,-1,-1,0
1523618837643,-851968,104,-56,-1,-1,0
1523618837683,-720896,104,-56,-1,-1,0
1523618837683,-589824,104,-56,-1,-1,0
1523618837683,-458752,104,-56,-1,-1,0
1523618837683,-327680,104,-56,-1,-1,0
1523618837683,-327680,104,-56,-1,-1,0
1523618837724,-393216,104,-56,-1,-1,0
1523618837724,-524288,104,-56,-1,-1,0
1523618837724,-589824,104,-56,-1,-1,0
1523618837724,-720896,104,-56,-1,-1,0
1523618837724,-851968,104,-56,-1,-1,0
1523618837763,-983040,104,-56,-1,-1,0
1523618837763,-1114112,104,-56,-1,-1,0
1523618837763,-1114112,104,-56,-1,-1,0
1523618837763,-1179648,104,-56,-1,-1,0
1523618837763,-1179648,104,-56,-1,-1,0
1523618837803,-1245184,104,-56,-1,-1,0
1523618837803,-786432,104,-56,-1,-1,0
1523618837803,917504,104,-56,-1,-1,0
1523618837803,3670016,104,-56,-1,-1,0
1523618837803,4784128,104,-56,-1,-1,0
1523618837843,2293760,104,-56,-1,-1,0
1523618837843,-2162688,104,-56,-1,-1,0
1523618837843,-4718592,104,-56,-1,-1,0
1523618837843,-4194304,104,-56,-1,-1,0
1523618837843,-2555904,104,-56,-1,-1,0
1523618837883,-1441792,104,-56,-1,-1,0
1523618837883,-983040,104,-56,-1,-1,0
1523618837883,-851968,104,-56,-1,-1,0
1523618837883,-720896,104,-56,-1,-1,0
1523618837883,-589824,104,-56,-1,-1,0
1523618837923,-458752,104,-56,-1,-1,0
1523618837923,-393216,104,-56,-1,-1,0
1523618837923,-327680,104,-56,-1,-1,0
1523618837923,-131072,104,-56,-1,-1,0
1523618837923,0,104,-56,-1,-1,0
1523618837963,196608,104,-56,-1,-1,0
1523618837963,393216,104,-56,-1,-1,0
1523618837963,655360,104,-56,-1,-1,0
1523618837963,917504,104,-56,-1,-1,0
1523618837963,1245184,104,-56,-1,-1,0
1523618838003,1638400,104,-56,-1,-1,0
1523618838003,2031616,104,-56,-1,-1,0
1523618838003,2359296,104,-56,-1,-1,0
1523618838003,2752512,104,-56,-1,-1,0
1523618838003,3014656,104,-56,-1,-1,0
1523618838043,3211264,104,-56,-1,-1,0
1523618838043,3211264,104,-56,-1,-1,0
1523618838043,3145728,104,-56,-1,-1,0
1523618838043,2949120,104,-56,-1,-1,0
1523618838043,2621440,104,-56,-1,-1,0
1523618838083,2097152,104,-56,-1,-1,0
1523618838083,1572864,104,-56,-1,-1,0
1523618838083,983040,104,-56,-1,-1,0
1523618838083,524288,104,-56,-1,-1,0
1523618838083,196608,104,-56,-1,-1,0
1523618838123,0,104,-56,-1,-1,0
1523618838123,-131072,104,-56,-1,-1,0
1523618838123,-196608,104,-56,-1,-1,0
1523618838123,-196608,104,-56,-1,-1,0
1523618838123,-196608,104,-56,-1,-1,0
1523618838163,-196608,104,-56,-1,-1,0
1523618838163,-196608,104,-56,-1,-1,0
1523618838163,-262144,104,-56,-1,-1,0
1523618838163,-327680,104,-56,-1,-1,0
1523618838163,-327680,104,-56,-1,-1,0
1523618838203,-393216,104,-56,-1,-1,0
1523618838203,-524288,104,-56,-1,-1,0
1523618838203,-524288,104,-56,-1,-1,0
1523618838203,-589824,104,-56,-1,-1,0
1523618838203,-589824,104,-56,-1,-1,0
1523618838243,-655360,104,-56,-1,-1,0
1523618838243,-720896,104,-56,-1,-1,0
1523618838243,-786432,104,-56,-1,-1,0
1523618838243,-851968,104,-56,-1,-1,0
1523618838243,-851968,104,-56,-1,-1,0
1523618838283,-851968,104,-56,-1,-1,0
1523618838283,-917504,104,-56,-1,-1,0
1523618838283,-917504,104,-56,-1,-1,0
1523618838283,-786432,104,-56,-1,-1,0
1523618838283,-655360,104,-56,-1,-1,0
1523618838323,-458752,104,-56,-1,-1,0
1523618838323,-327680,104,-56,-1,-1,0
1523618838323,-262144,104,-56,-1,-1,0
1523618838323,-327680,104,-56,-1,-1,0
1523618838323,-458752,104,-56,-1,-1,0
1523618838364,-589824,104,-56,-1,-1,0
1523618838364,-720896,104,-56,-1,-1,0
1523618838364,-917504,104,-56,-1,-1,0
1523618838364,-983040,104,-56,-1,-1,0
1523618838364,-983040,104,-56,-1,-1,0
1523618838403,-1048576,104,-56,-1,-1,0
1523618838403,-1114112,104,-56,-1,-1,0
1523618838403,-1114112,104,-56,-1,-1,0
1523618838403,-1179648,104,-56,-1,-1,0
1523618838403,-1114112,104,-56,-1,-1,0
1523618838443,0,104,-56,-1,-1,0
1523618838443,2293760,104,-56,-1,-1,0
1523618838443,4128768,104,-56,-1,-1,0
1523618838443,3145728,104,-56,-1,-1,0
1523618838443,-655360,104,-56,-1,-1,0
1523618838483,-4063232,104,-56,-1,-1,0
1523618838483,-4521984,104,-56,-1,-1,0
1523618838483,-2883584,104,-56,-1,-1,0
1523618838483,-1572864,104,-56,-1,-1,0
1523618838483,-983040,104,-56,-1,-1,0
1523618838523,-786432,104,-56,-1,-1,0
1523618838523,-655360,104,-56,-1,-1,0
1523618838523,-589824,104,-56,-1,-1,0
1523618838523,-524288,104,-56,-1,-1,0
1523618838523,-458752,104,-56,-1,-1,0
1523618838563,-327680,104,-56,-1,-1,0
1523618838563,-196608,104,-56,-1,-1,0
1523618838563,0,104,-56,-1,-1,0
1523618838563,131072,104,-56,-1,-1,0
1523618838563,327680,104,-56,-1,-1,0
1523618838603,589824,104,-56,-1,-1,0
1523618838603,917504,104,-56,-1,-1,0
1523618838603,1114112,104,-56,-1,-1,0
1523618838603,1507328,104,-56,-1,-1,0
1523618838603,1900544,104,-56,-1,-1,0
1523618838643,2293760,104,-56,-1,-1,0
1523618838643,2621440,104,-56,-1,-1,0
1523618838643,2949120,104,-56,-1,-1,0
1523618838643,3145728,104,-56,-1,-1,0
1523618838643,3211264,104,-56,-1,-1,0
1523618838683,3145728,104,-56,-1,-1,0
1523618838683,3014656,104,-56,-1,-1,0
1523618838683,2752512,104,-56,-1,-1,0
1523618838683,2293760,104,-56,-1,-1,0
1523618838683,1769472,104,-56,-1,-1,0
1523618838723,1245184,104,-56,-1,-1,0
1523618838723,720896,104,-56,-1,-1,0
1523618838723,327680,104,-56,-1,-1,0
1523618838723,65536,104,-56,-1,-1,0
1523618838723,-65536,104,-56,-1,-1,0
1523618838763,-131072,104,-56,-1,-1,0
1523618838763,-131072,104,-56,-1,-1,0
1523618838763,-131072,104,-56,-1,-1,0
1523618838763,-131072,104,-56,-1,-1,0
1523618838763,-131072,104,-56,-1,-1,0
1523618838803,-131072,104,-56,-1,-1,0
1523618838803,-196608,104,-56,-1,-1,0
1523618838803,-262144,104,-56,-1,-1,0
1523618838803,-327680,104,-56,-1,-1,0
1523618838803,-393216,104,-56,-1,-1,0
1523618838843,-458752,104,-56,-1,-1,0
1523618838843,-524288,104,-56,-1,-1,0
1523618838843,-589824,104,-56,-1,-1,0
1523618838843,-589824,104,-56,-1,-1,0
1523618838843,-655360,104,-56,-1,-1,0
1523618838883,-720896,104,-56,-1,-1,0
1523618838883,-786432,104,-56,-1,-1,0
1523618838883,-786432,104,-56,-1,-1,0
1523618838883,-851968,104,-56,-1,-1,0
1523618838883,-917504,104,-56,-1,-1,0
1523618838923,-917504,104,-56,-1,-1,0
1523618838923,-917504,104,-56,-1,-1,0
1523618838923,-917504,104,-56,-1,-1,0
1523618838923,-851968,104,-56,-1,-1,0
1523618838923,-851968,104,-56,-1,-1,0
1523618838963,-786432,104,-56,-1,-1,0
1523618838963,-655360,104,-56,-1,-1,0
1523618838963,-458752,104,-56,-1,-1,0
1523618838963,-327680,104,-56,-1,-1,0
1523618838963,-262144,104,-56,-1,-1,0
1523618839004,-327680,104,-56,-1,-1,0
1523618839004,-393216,104,-56,-1,-1,0
1523618839004,-524288,104,-56,-1,-1,0
1523618839004,-655360,104,-56,-1,-1,0
1523618839004,-851968,104,-56,-1,-1,0
1523618839043,-983040,104,-56,-1,-1,0
1523618839043,-1114112,104,-56,-1,-1,0
1523618839043,-1114112,104,-56,-1,-1,0
1523618839043,-1114112,104,-56,-1,-1,0
1523618839043,-1179648,104,-56,-1,-1,0
1523618839083,-1245184,104,-56,-1,-1,0
1523618839083,-1114112,104,-56,-1,-1,0
1523618839083,-65536,104,-56,-1,-1,0
1523618839083,2031616,104,-56,-1,-1,0
1523618839083,3473408,104,-56,-1,-1,0
1523618839123,2293760,104,-56,-1,-1,0
1523618839123,-1310720,104,-56,-1,-1,0
1523618839123,-4325376,104,-56,-1,-1,0
1523618839123,-4587520,104,-56,-1,-1,0
1523618839123,-3014656,104,-56,-1,-1,0
1523618839163,-1638400,104,-56,-1,-1,0
1523618839163,-1048576,104,-56,-1,-1,0
1523618839163,-851968,104,-56,-1,-1,0
1523618839163,-786432,104,-56,-1,-1,0
1523618839163,-655360,104,-56,-1,-1,0
1523618839203,-589824,104,-56,-1,-1,0
1523618839203,-524288,104,-56,-1,-1,0
1523618839203,-393216,104,-56,-1,-1,0
1523618839203,-262144,104,-56,-1,-1,0
1523618839203,-65536,104,-56,-1,-1,0
1523618839243,65536,104,-56,-1,-1,0
1523618839243,262144,104,-56,-1,-1,0
1523618839243,524288,104,-56,-1,-1,0
1523618839243,786432,104,-56,-1,-1,0
1523618839243,1114112,104,-56,-1,-1,0
1523618839283,1441792,104,-56,-1,-1,0
1523618839283,1769472,104,-56,-1,-1,0
1523618839283,2162688,104,-56,-1,-1,0
1523618839283,2490368,104,-56,-1,-1,0
1523618839283,2818048,104,-56,-1,-1,0
1523618839323,3014656,104,-56,-1,-1,0
1523618839323,3080192,104,-56,-1,-1,0
1523618839323,3080192,104,-56,-1,-1,0
1523618839323,2949120,104,-56,-1,-1,0
1523618839323,2752512,104,-56,-1,-1,0
1523618839363,2424832,104,-56,-1,-1,0
1523618839363,1900544,104,-56,-1,-1,0
1523618839363,1310720,104,-56,-1,-1,0
1523618839363,851968,104,-56,-1,-1,0
1523618839363,458752,104,-56,-1,-1,0
1523618839403,196608,104,-56,-1,-1,0
1523618839403,0,104,-56,-1,-1,0
1523618839403,0,104,-56,-1,-1,0
1523618839403,-65536,104,-56,-1,-1,0
1523618839403,-65536,104,-56,-1,-1,0
1523618839443,-65536,104,-56,-1,-1,0
1523618839443,-65536,104,-56,-1,-1,0
1523618839443,-131072,104,-56,-1,-1,0
1523618839443,-131072,104,-56,-1,-1,0
1523618839443,-196608,104,-56,-1,-1,0
1523618839483,-262144,104,-56,-1,-1,0
1523618839483,-327680,104,-56,-1,-1,0
1523618839483,-393216,104,-56,-1,-1,0
1523618839483,-458752,104,-56,-1,-1,0
1523618839483,-524288,104,-56,-1,-1,0
1523618839523,-589824,104,-56,-1,-1,0
1523618839523,-655360,104,-56,-1,-1,0
1523618839523,-655360,104,-56,-1,-1,0
1523618839523,-655360,104,-56,-1,-1,0
1523618839523,-655360,104,-56,-1,-1,0
1523618839563,-720896,104,-56,-1,-1,0
1523618839563,-720896,104,-56,-1,-1,0
1523618839563,-720896,104,-56,-1,-1,0
1523618839563,-720896,104,-56,-1,-1,0
1523618839563,-720896,104,-56,-1,-1,0
1523618839603,-720896,104,-56,-1,-1,0
1523618839603,-786432,104,-56,-1,-1,0
1523618839603,-786432,104,-56,-1,-1,0
1523618839603,-786432,104,-56,-1,-1,0
1523618839603,-786432,104,-56,-1,-1,0
1523618839644,-720896,104,-56,-1,-1,0
1523618839644,-655360,104,-56,-1,-1,0
1523618839644,-589824,104,-56,-1,-1,0
1523618839644,-393216,104,-56,-1,-1,0
1523618839644,-196608,104,-56,-1,-1,0
1523618839683,-65536,104,-56,-1,-1,0
1523618839683,-65536,104,-56,-1,-1,0
1523618839683,-131072,104,-56,-1,-1,0
1523618839683,-196608,104,-56,-1,-1,0
1523618839683,-327680,104,-56,-1,-1,0
1523618839723,-458752,104,-56,-1,-1,0
1523618839723,-655360,104,-56,-1,-1,0
1523618839723,-786432,104,-56,-1,-1,0
1523618839723,-851968,104,-56,-1,-1,0
1523618839723,-917504,104,-56,-1,-1,0
1523618839763,-917504,104,-56,-1,-1,0
1523618839763,-983040,104,-56,-1,-1,0
1523618839763,-983040,104,-56,-1,-1,0
1523618839763,-917504,104,-56,-1,-1,0
1523618839763,0,104,-56,-1,-1,0
1523618839803,2031616,103,-56,-1,-1,0
1523618839803,3276800,103,-56,-1,-1,0
1523618839803,1835008,103,-56,-1,-1,0
1523618839803,-1638400,103,-56,-1,-1,0
1523618839803,-4259840,103,-56,-1,-1,0
1523618839843,-4390912,103,-56,-1,-1,0
1523618839843,-2818048,103,-56,-1,-1,0
1523618839843,-1441792,103,-56,-1,-1,0
1523618839843,-786432,103,-56,-1,-1,0
1523618839843,-589824,103,-56,-1,-1,0
1523618839883,-524288,103,-56,-1,-1,0
1523618839883,-458752,103,-56,-1,-1,0
1523618839883,-393216,103,-56,-1,-1,0
1523618839883,-262144,103,-56,-1,-1,0
1523618839883,-131072,103,-56,-1,-1,0
1523618839923,0,103,-56,-1,-1,0
1523618839923,131072,103,-56,-1,-1,0
1523618839923,262144,103,-56,-1,-1,0
1523618839923,458752,103,-56,-1,-1,0
1523618839923,720896,103,-56,-1,-1,0
1523618839963,983040,103,-56,-1,-1,0
1523618839963,1245184,103,-56,-1,-1,0
1523618839963,1507328,103,-56,-1,-1,0
1523618839963,1835008,103,-56,-1,-1,0
1523618839963,2162688,103,-56,-1,-1,0
1523618840003,2490368,103,-56,-1,-1,0
1523618840003,2752512,103,-56,-1,-1,0
1523618840003,2949120,103,-56,-1,-1,0
1523618840003,3080192,103,-56,-1,-1,0
1523618840003,3080192,103,-56,-1,-1,0
1523618840043,3014656,103,-56,-1,-1,0
1523618840043,2818048,103,-56,-1,-1,0
1523618840043,2490368,103,-56,-1,-1,0
1523618840043,2097152,103,-56,-1,-1,0
1523618840043,1572864,103,-56,-1,-1,0
1523618840083,1114112,103,-56,-1,-1,0
1523618840083,720896,103,-56,-1,-1,0
1523618840083,458752,103,-56,-1,-1,0
1523618840083,327680,103,-56,-1,-1,0
1523618840083,196608,103,-56,-1,-1,0
1523618840123,131072,103,-56,-1,-1,0
1523618840123,65536,103,-56,-1,-1,0
1523618840123,65536,103,-56,-1,-1,0
1523618840123,0,103,-56,-1,-1,0
1523618840123,0,103,-56,-1,-1,0
1523618840163,0,103,-56,-1,-1,0
1523618840163,-65536,103,-56,-1,-1,0
1523618840163,-131072,103,-56,-1,-1,0
1523618840163,-196608,103,-56,-1,-1,0
1523618840163,-262144,103,-56,-1,-1,0
1523618840203,-327680,103,-56,-1,-1,0
1523618840203,-393216,103,-56,-1,-1,0
1523618840203,-458752,103,-56,-1,-1,0
1523618840203,-458752,103,-56,-1,-1,0
1523618840203,-524288,103,-56,-1,-1,0
1523618840243,-589824,103,-56,-1,-1,0
1523618840243,-589824,103,-56,-1,-1,0
1523618840243,-655360,103,-56,-1,-1,0
1523618840243,-655360,103,-56,-1,-1,0
1523618840243,-720896,103,-56,-1,-1,0
1523618840284,-720896,103,-56,-1,-1,0
1523618840284,-720896,103,-56,-1,-1,0
1523618840284,-720896,103,-56,-1,-1,0
1523618840284,-720896,103,-56,-1,-1,0
1523618840284,-786432,103,-56,-1,-1,0
1523618840323,-786432,103,-56,-1,-1,0
1523618840323,-786432,103,-56,-1,-1,0
1523618840323,-786432,103,-56,-1,-1,0
1523618840323,-786432,103,-56,-1,-1,0
1523618840323,-720896,103,-56,-1,-1,0
1523618840363,-655360,103,-56,-1,-1,0
1523618840363,-589824,103,-56,-1,-1,0
1523618840363,-327680,103,-56,-1,-1,0
1523618840363,-131072,103,-56,-1,-1,0
1523618840363,-131072,103,-56,-1,-1,0
1523618840403,-262144,103,-56,-1,-1,0
1523618840403,-327680,103,-56,-1,-1,0
1523618840403,-458752,103,-56,-1,-1,0
1523618840403,-589824,103,-56,-1,-1,0
1523618840403,-786432,103,-56,-1,-1,0
1523618840443,-917504,103,-56,-1,-1,0
1523618840443,-983040,103,-56,-1,-1,0
1523618840443,-1048576,103,-56,-1,-1,0
1523618840443,-1048576,103,-56,-1,-1,0
1523618840443,-1114112,103,-56,-1,-1,0
1523618840483,-1179648,102,-56,-1,-1,0
1523618840483,-1114112,102,-56,-1,-1,0
1523618840483,-458752,102,-56,-1,-1,0
1523618840483,1245184,102,-56,-1,-1,0
1523618840483,3014656,102,-56,-1,-1,0
1523618840523,2424832,102,-56,-1,-1,0
1523618840523,-655360,102,-56,-1,-1,0
1523618840523,-3801088,102,-56,-1,-1,0
1523618840523,-4718592,102,-56,-1,-1,0
1523618840523,-3407872,102,-56,-1,-1,0
1523618840563,-1900544,102,-56,-1,-1,0
1523618840563,-1114112,102,-56,-1,-1,0
1523618840563,-786432,102,-56,-1,-1,0
1523618840563,-655360,102,-56,-1,-1,0
1523618840563,-589824,102,-56,-1,-1,0
1523618840603,-524288,102,-56,-1,-1,0
1523618840603,-458752,102,-56,-1,-1,0
1523618840603,-327680,102,-56,-1,-1,0
1523618840603,-196608,102,-56,-1,-1,0
1523618840603,0,102,-56,-1,-1,0
1523618840643,131072,102,-56,-1,-1,0
1523618840643,327680,102,-56,-1,-1,0
1523618840643,589824,102,-56,-1,-1,0
1523618840643,786432,102,-56,-1,-1,0
1523618840643,1048576,102,-56,-1,-1,0
1523618840683,1310720,102,-56,-1,-1,0
1523618840683,1638400,102,-56,-1,-1,0
1523618840683,1966080,102,-56,-1,-1,0
1523618840683,2359296,102,-56,-1,-1,0
1523618840683,2686976,102,-56,-1,-1,0
1523618840723,2883584,102,-56,-1,-1,0
1523618840723,3014656,102,-56,-1,-1,0
1523618840723,3080192,102,-56,-1,-1,0
1523618840723,3080192,102,-56,-1,-1,0
1523618840723,2949120,102,-56,-1,-1,0
1523618840763,2686976,102,-56,-1,-1,0
1523618840763,2293760,102,-56,-1,-1,0
1523618840763,1769472,102,-56,-1,-1,0
1523618840763,1245184,102,-56,-1,-1,0
1523618840763,851968,102,-56,-1,-1,0
1523618840803,524288,102,-56,-1,-1,0
1523618840803,393216,102,-56,-1,-1,0
1523618840803,196608,102,-56,-1,-1,0
1523618840803,131072,102,-56,-1,-1,0
1523618840803,0,102,-56,-1,-1,0
1523618840843,0,102,-56,-1,-1,0
1523618840843,-65536,102,-56,-1,-1,0
1523618840843,-65536,102,-56,-1,-1,0
1523618840843,-131072,102,-56,-1,-1,0
1523618840843,-131072,102,-56,-1,-1,0
1523618840883,-262144,102,-56,-1,-1,0
1523618840883,-327680,102,-56,-1,-1,0
1523618840883,-327680,102,-56,-1,-1,0
1523618840883,-393216,102,-56,-1,-1,0
1523618840883,-458752,102,-56,-1,-1,0
1523618840924,-524288,102,-56,-1,-1,0
1523618840924,-524288,102,-56,-1,-1,0
1523618840924,-589824,102,-56,-1,-1,0
1523618840924,-589824,102,-56,-1,-1,0
1523618840924,-655360,102,-56,-1,-1,0
1523618840963,-720896,102,-56,-1,-1,0
1523618840963,-720896,102,-56,-1,-1,0
1523618840963,-720896,102,-56,-1,-1,0
1523618840963,-786432,102,-56,-1,-1,0
1523618840963,-786432,102,-56,-1,-1,0
1523618841003,-786432,102,-56,-1,-1,0
1523618841003,-786432,102,-56,-1,-1,0
1523618841003,-786432,102,-56,-1,-1,0
1523618841003,-786432,102,-56,-1,-1,0
1523618841003,-786432,102,-56,-1,-1,0
1523618841043,-786432,102,-56,-1,-1,0
1523618841043,-786432,102,-56,-1,-1,0
1523618841043,-720896,102,-56,-1,-1,0
1523618841043,-720896,102,-56,-1,-1,0
1523618841043,-720896,102,-56,-1,-1,0
1523618841083,-589824,102,-56,-1,-1,0
1523618841083,-327680,102,-56,-1,-1,0
1523618841083,-196608,102,-56,-1,-1,0
1523618841083,-131072,102,-56,-1,-1,0
1523618841083,-196608,102,-56,-1,-1,0
1523618841123,-262144,102,-56,-1,-1,0
1523618841123,-393216,102,-56,-1,-1,0
1523618841123,-524288,102,-56,-1,-1,0
1523618841123,-655360,102,-56,-1,-1,0
1523618841123,-851968,102,-56,-1,-1,0
1523618841163,-917504,102,-56,-1,-1,0
1523618841163,-917504,102,-56,-1,-1,0
1523618841163,-983040,102,-56,-1,-1,0
1523618841163,-983040,102,-56,-1,-1,0
1523618841163,-1048576,102,-56,-1,-1,0
1523618841203,-917504,102,-56,-1,-1,0
1523618841203,0,102,-56,-1,-1,0
1523618841203,2228224,102,-56,-1,-1,0
1523618841203,4063232,102,-56,-1,-1,0
1523618841203,3145728,102,-56,-1,-1,0
1523618841243,-458752,101,-56,-1,-1,0
1523618841243,-3735552,101,-56,-1,-1,0
1523618841243,-4325376,101,-56,-1,-1,0
1523618841243,-2949120,101,-56,-1,-1,0
1523618841243,-1572864,101,-56,-1,-1,0
1523618841283,-851968,101,-56,-1,-1,0
1523618841283,-589824,101,-56,-1,-1,0
1523618841283,-524288,101,-56,-1,-1,0
1523618841283,-458752,101,-56,-1,-1,0
1523618841283,-393216,101,-56,-1,-1,0
1523618841323,-262144,101,-56,-1,-1,0
1523618841323,-196608,101,-56,-1,-1,0
1523618841323,-65536,101,-56,-1,-1,0
1523618841323,0,101,-56,-1,-1,0
1523618841323,196608,101,-56,-1,-1,0
1523618841363,393216,101,-56,-1,-1,0
1523618841363,655360,101,-56,-1,-1,0
1523618841363,917504,101,-56,-1,-1,0
1523618841363,1179648,101,-56,-1,-1,0
1523618841363,1441792,101,-56,-1,-1,0
1523618841403,1769472,101,-56,-1,-1,0
1523618841403,2162688,101,-56,-1,-1,0
1523618841403,2490368,101,-56,-1,-1,0
1523618841403,2752512,101,-56,-1,-1,0
1523618841403,2949120,101,-56,-1,-1,0
1523618841443,3080192,101,-56,-1,-1,0
1523618841443,3145728,101,-56,-1,-1,0
1523618841443,3080192,101,-56,-1,-1,0
1523618841443,2949120,101,-56,-1,-1,0
1523618841443,2686976,101,-56,-1,-1,0
1523618841483,2293760,101,-56,-1,-1,0
1523618841483,1769472,101,-56,-1,-1,0
1523618841483,1310720,101,-56,-1,-1,0
1523618841483,851968,101,-56,-1,-1,0
1523618841483,524288,101,-56,-1,-1,0
1523618841523,327680,101,-56,-1,-1,0
1523618841523,262144,101,-56,-1,-1,0
1523618841523,131072,101,-56,-1,-1,0
1523618841523,0,101,-56,-1,-1,0
1523618841523,0,101,-56,-1,-1,0
1523618841564,0,101,-56,-1,-1,0
1523618841564,0,101,-56,-1,-1,0
1523618841564,-65536,101,-56,-1,-1,0
1523618841564,-131072,101,-56,-1,-1,0
1523618841564,-196608,101,-56,-1,-1,0
1523618841603,-262144,101,-56,-1,-1,0
1523618841603,-327680,101,-56,-1,-1,0
1523618841603,-393216,101,-56,-1,-1,0
1523618841603,-393216,101,-56,-1,-1,0
1523618841603,-458752,101,-56,-1,-1,0
1523618841643,-458752,101,-56,-1,-1,0
1523618841643,-524288,101,-56,-1,-1,0
1523618841643,-589824,101,-56,-1,-1,0
1523618841643,-655360,101,-56,-1,-1,0
1523618841643,-655360,101,-56,-1,-1,0
1523618841683,-655360,101,-56,-1,-1,0
1523618841683,-655360,101,-56,-1,-1,0
1523618841683,-720896,101,-56,-1,-1,0
1523618841683,-720896,101,-56,-1,-1,0
1523618841683,-720896,101,-56,-1,-1,0
1523618841723,-720896,101,-56,-1,-1,0
1523618841723,-720896,101,-56,-1,-1,0
1523618841723,-720896,101,-56,-1,-1,0
1523618841723,-720896,101,-56,-1,-1,0
1523618841723,-786432,101,-56,-1,-1,0
1523618841763,-720896,101,-56,-1,-1,0
1523618841763,-786432,101,-56,-1,-1,0
1523618841763,-720896,101,-56,-1,-1,0
1523618841763,-720896,101,-56,-1,-1,0
1523618841763,-655360,101,-56,-1,-1,0
1523618841803,-524288,101,-56,-1,-1,0
1523618841803,-327680,101,-56,-1,-1,0
1523618841803,-131072,101,-56,-1,-1,0
1523618841803,-65536,101,-56,-1,-1,0
1523618841803,-196608,101,-56,-1,-1,0
1523618841843,-262144,101,-56,-1,-1,0
1523618841843,-327680,101,-56,-1,-1,0
1523618841843,-458752,101,-56,-1,-1,0
1523618841843,-589824,101,-56,-1,-1,0
1523618841843,-786432,101,-56,-1,-1,0
1523618841883,-917504,101,-56,-1,-1,0
1523618841883,-983040,101,-56,-1,-1,0
1523618841883,-983040,101,-56,-1,-1,0
1523618841883,-983040,101,-56,-1,-1,0
1523618841883,-1048576,101,-56,-1,-1,0
1523618841923,-1114112,101,-56,-1,-1,0
1523618841923,-524288,101,-56,-1,-1,0
1523618841923,1179648,101,-56,-1,-1,0
1523618841923,3276800,101,-56,-1,-1,0
1523618841923,3211264,101,-56,-1,-1,0
1523618841963,327680,100,-56,-1,-1,0
1523618841963,-3211264,100,-56,-1,-1,0
1523618841963,-4587520,100,-56,-1,-1,0
1523618841963,-3473408,100,-56,-1,-1,0
1523618841963,-1835008,100,-56,-1,-1,0
1523618842003,-917504,100,-56,-1,-1,0
1523618842003,-655360,100,-56,-1,-1,0
1523618842003,-589824,100,-56,-1,-1,0
1523618842003,-524288,100,-56,-1,-1,0
1523618842003,-458752,100,-56,-1,-1,0
1523618842043,-393216,100,-56,-1,-1,0
1523618842043,-262144,100,-56,-1,-1,0
1523618842043,-131072,100,-56,-1,-1,0
1523618842043,0,100,-56,-1,-1,0
1523618842043,131072,100,-56,-1,-1,0
1523618842083,327680,100,-56,-1,-1,0
1523618842083,524288,100,-56,-1,-1,0
1523618842083,786432,100,-56,-1,-1,0
1523618842083,1048576,100,-56,-1,-1,0
1523618842083,1310720,100,-56,-1,-1,0
1523618842123,1638400,100,-56,-1,-1,0
1523618842123,1966080,100,-56,-1,-1,0
1523618842123,2293760,100,-56,-1,-1,0
1523618842123,2621440,100,-56,-1,-1,0
1523618842123,2818048,100,-56,-1,-1,0
1523618842163,2949120,100,-56,-1,-1,0
1523618842163,3014656,100,-56,-1,-1,0
1523618842163,2949120,100,-56,-1,-1,0
1523618842163,2818048,100,-56,-1,-1,0
1523618842163,2621440,100,-56,-1,-1,0
1523618842204,2293760,100,-56,-1,-1,0
1523618842204,1835008,100,-56,-1,-1,0
1523618842204,1376256,100,-56,-1,-1,0
1523618842204,917504,100,-56,-1,-1,0
1523618842204,589824,100,-56,-1,-1,0
1523618842243,327680,100,-56,-1,-1,0
1523618842243,196608,100,-56,-1,-1,0
1523618842243,131072,100,-56,-1,-1,0
1523618842243,0,100,-56,-1,-1,0
1523618842243,0,100,-56,-1,-1,0
1523618842283,0,100,-56,-1,-1,0
1523618842283,-65536,100,-56,-1,-1,0
1523618842283,-65536,100,-56,-1,-1,0
1523618842283,-131072,100,-56,-1,-1,0
1523618842283,-262144,100,-56,-1,-1,0
1523618842323,-262144,100,-56,-1,-1,0
1523618842323,-327680,100,-56,-1,-1,0
1523618842323,-393216,100,-56,-1,-1,0
1523618842323,-458752,100,-56,-1,-1,0
1523618842323,-524288,100,-56,-1,-1,0
1523618842363,-589824,100,-56,-1,-1,0
1523618842363,-589824,100,-56,-1,-1,0
1523618842363,-655360,100,-56,-1,-1,0
1523618842363,-720896,100,-56,-1,-1,0
1523618842363,-720896,100,-56,-1,-1,0
1523618842403,-720896,100,-56,-1,-1,0
1523618842403,-720896,100,-56,-1,-1,0
1523618842403,-786432,100,-56,-1,-1,0
1523618842403,-786432,100,-56,-1,-1,0
1523618842403,-786432,100,-56,-1,-1,0
1523618842443,-786432,100,-56,-1,-1,0
1523618842443,-786432,100,-56,-1,-1,0
1523618842443,-786432,100,-56,-1,-1,0
1523618842443,-786432,100,-56,-1,-1,0
1523618842443,-786432,100,-56,-1,-1,0
1523618842483,-786432,100,-56,-1,-1,0
1523618842483,-786432,100,-56,-1,-1,0
1523618842483,-786432,100,-56,-1,-1,0
1523618842483,-720896,100,-56,-1,-1,0
1523618842483,-720896,100,-56,-1,-1,0
1523618842523,-655360,100,-56,-1,-1,0
1523618842523,-524288,100,-56,-1,-1,0
1523618842523,-327680,100,-56,-1,-1,0
1523618842523,-131072,100,-56,-1,-1,0
1523618842523,-65536,100,-56,-1,-1,0
1523618842563,-131072,100,-56,-1,-1,0
1523618842563,-262144,100,-56,-1,-1,0
1523618842563,-327680,100,-56,-1,-1,0
1523618842563,-458752,100,-56,-1,-1,0
1523618842563,-655360,100,-56,-1,-1,0
1523618842603,-720896,100,-56,-1,-1,0
1523618842603,-851968,100,-56,-1,-1,0
1523618842603,-917504,100,-56,-1,-1,0
1523618842603,-917504,100,-56,-1,-1,0
1523618842603,-917504,100,-56,-1,-1,0
1523618842643,-983040,100,-56,-1,-1,0
1523618842643,-1048576,100,-56,-1,-1,0
1523618842643,-589824,100,-56,-1,-1,0
1523618842643,983040,100,-56,-1,-1,0
1523618842643,2949120,100,-56,-1,-1,0
1523618842683,2883584,94,-56,-1,-1,0
1523618842683,65536,94,-56,-1,-1,0
1523618842683,-3342336,94,-56,-1,-1,0
1523618842683,-4718592,94,-56,-1,-1,0
1523618842683,-3735552,94,-56,-1,-1,0
1523618842723,-2162688,94,-56,-1,-1,0
1523618842723,-1114112,94,-56,-1,-1,0
1523618842723,-720896,94,-56,-1,-1,0
1523618842723,-589824,94,-56,-1,-1,0
1523618842723,-524288,94,-56,-1,-1,0
1523618842763,-458752,94,-56,-1,-1,0
1523618842763,-327680,94,-56,-1,-1,0
1523618842763,-262144,94,-56,-1,-1,0
1523618842763,-131072,94,-56,-1,-1,0
1523618842763,0,94,-56,-1,-1,0
1523618842803,131072,94,-56,-1,-1,0
1523618842803,327680,94,-56,-1,-1,0
1523618842803,524288,94,-56,-1,-1,0
1523618842803,786432,94,-56,-1,-1,0
1523618842803,1048576,94,-56,-1,-1,0
1523618842844,1310720,94,-56,-1,-1,0
1523618842844,1638400,94,-56,-1,-1,0
1523618842844,1966080,94,-56,-1,-1,0
1523618842844,2228224,94,-56,-1,-1,0
1523618842844,2555904,94,-56,-1,-1,0
1523618842883,2752512,94,-56,-1,-1,0
1523618842883,2883584,94,-56,-1,-1,0
1523618842883,2949120,94,-56,-1,-1,0
1523618842883,2949120,94,-56,-1,-1,0
1523618842883,2818048,94,-56,-1,-1,0
1523618842923,2621440,94,-56,-1,-1,0
1523618842923,2293760,94,-56,-1,-1,0
1523618842923,1900544,94,-56,-1,-1,0
1523618842923,1441792,94,-56,-1,-1,0
1523618842923,1048576,94,-56,-1,-1,0
1523618842963,720896,94,-56,-1,-1,0
1523618842963,458752,94,-56,-1,-1,0
1523618842963,262144,94,-56,-1,-1,0
1523618842963,131072,94,-56,-1,-1,0
1523618842963,0,94,-56,-1,-1,0
1523618843003,0,94,-56,-1,-1,0
1523618843003,-65536,94,-56,-1,-1,0
1523618843003,-131072,94,-56,-1,-1,0
1523618843003,-131072,94,-56,-1,-1,0
1523618843003,-196608,94,-56,-1,-1,0
1523618843043,-262144,94,-56,-1,-1,0
1523618843043,-327680,94,-56,-1,-1,0
1523618843043,-327680,94,-56,-1,-1,0
1523618843043,-393216,94,-56,-1,-1,0
1523618843043,-458752,94,-56,-1,-1,0
1523618843083,-524288,94,-56,-1,-1,0
1523618843083,-589824,94,-56,-1,-1,0
1523618843083,-589824,94,-56,-1,-1,0
1523618843083,-589824,94,-56,-1,-1,0
1523618843083,-655360,94,-56,-1,-1,0
1523618843123,-655360,94,-56,-1,-1,0
1523618843123,-655360,94,-56,-1,-1,0
1523618843123,-655360,94,-56,-1,-1,0
1523618843123,-720896,94,-56,-1,-1,0
1523618843123,-720896,94,-56,-1,-1,0
1523618843163,-720896,94,-56,-1,-1,0
1523618843163,-720896,94,-56,-1,-1,0
1523618843163,-720896,94,-56,-1,-1,0
1523618843163,-720896,94,-56,-1,-1,0
1523618843163,-720896,94,-56,-1,-1,0
1523618843203,-720896,94,-56,-1,-1,0
1523618843203,-720896,94,-56,-1,-1,0
1523618843203,-720896,94,-56,-1,-1,0
1523618843203,-720896,94,-56,-1,-1,0
1523618843203,-720896,94,-56,-1,-1,0
1523618843244,-655360,94,-56,-1,-1,0
1523618843244,-589824,94,-56,-1,-1,0
1523618843244,-458752,94,-56,-1,-1,0
1523618843244,-262144,94,-56,-1,-1,0
1523618843244,-65536,94,-56,-1,-1,0
1523618843283,0,94,-56,-1,-1,0
1523618843283,-65536,94,-56,-1,-1,0
1523618843283,-196608,94,-56,-1,-1,0
1523618843283,-327680,94,-56,-1,-1,0
1523618843283,-458752,94,-56,-1,-1,0
1523618843323,-589824,94,-56,-1,-1,0
1523618843323,-720896,94,-56,-1,-1,0
1523618843323,-786432,94,-56,-1,-1,0
1523618843323,-851968,94,-56,-1,-1,0
1523618843323,-851968,94,-56,-1,-1,0
1523618843363,-917504,94,-56,-1,-1,0
1523618843363,-983040,94,-56,-1,-1,0
1523618843363,-983040,94,-56,-1,-1,0
1523618843363,-458752,94,-56,-1,-1,0
1523618843363,1114112,94,-56,-1,-1,0
1523618843403,3014656,92,-56,-1,-1,0
1523618843403,2621440,92,-56,-1,-1,0
1523618843403,-458752,92,-56,-1,-1,0
1523618843403,-3735552,92,-56,-1,-1,0
1523618843403,-4718592,92,-56,-1,-1,0
1523618843443,-3604480,92,-56,-1,-1,0
1523618843443,-2031616,92,-56,-1,-1,0
1523618843443,-1048576,92,-56,-1,-1,0
1523618843443,-655360,92,-56,-1,-1,0
1523618843443,-458752,92,-56,-1,-1,0
1523618843484,-393216,92,-56,-1,-1,0
1523618843484,-327680,92,-56,-1,-1,0
1523618843484,-327680,92,-56,-1,-1,0
1523618843484,-196608,92,-56,-1,-1,0
1523618843484,-65536,92,-56,-1,-1,0
1523618843523,0,92,-56,-1,-1,0
1523618843523,196608,92,-56,-1,-1,0
1523618843523,327680,92,-56,-1,-1,0
1523618843523,589824,92,-56,-1,-1,0
1523618843523,851968,92,-56,-1,-1,0
1523618843563,1114112,92,-56,-1,-1,0
1523618843563,1376256,92,-56,-1,-1,0
1523618843563,1638400,92,-56,-1,-1,0
1523618843563,1900544,92,-56,-1,-1,0
1523618843563,2228224,92,-56,-1,-1,0
1523618843603,2490368,92,-56,-1,-1,0
1523618843603,2752512,92,-56,-1,-1,0
1523618843603,2883584,92,-56,-1,-1,0
1523618843603,2949120,92,-56,-1,-1,0
1523618843603,2883584,92,-56,-1,-1,0
1523618843643,2818048,92,-56,-1,-1,0
1523618843643,2686976,92,-56,-1,-1,0
1523618843643,2359296,92,-56,-1,-1,0
1523618843643,1966080,92,-56,-1,-1,0
1523618843643,1507328,92,-56,-1,-1,0
1523618843683,1114112,92,-56,-1,-1,0
1523618843683,786432,92,-56,-1,-1,0
1523618843683,524288,92,-56,-1,-1,0
1523618843683,327680,92,-56,-1,-1,0
1523618843683,196608,92,-56,-1,-1,0
1523618843723,65536,92,-56,-1,-1,0
1523618843723,0,92,-56,-1,-1,0
1523618843723,0,92,-56,-1,-1,0
1523618843723,0,92,-56,-1,-1,0
1523618843723,-65536,92,-56,-1,-1,0
1523618843763,-131072,92,-56,-1,-1,0
1523618843763,-131072,92,-56,-1,-1,0
1523618843763,-196608,92,-56,-1,-1,0
1523618843763,-327680,92,-56,-1,-1,0
1523618843763,-393216,92,-56,-1,-1,0
1523618843803,-393216,92,-56,-1,-1,0
1523618843803,-458752,92,-56,-1,-1,0
1523618843803,-458752,92,-56,-1,-1,0
1523618843803,-524288,92,-56,-1,-1,0
1523618843803,-589824,92,-56,-1,-1,0
1523618843843,-589824,92,-56,-1,-1,0
1523618843843,-589824,92,-56,-1,-1,0
1523618843843,-655360,92,-56,-1,-1,0
1523618843843,-655360,92,-56,-1,-1,0
1523618843843,-720896,92,-56,-1,-1,0
1523618843883,-720896,92,-56,-1,-1,0
1523618843883,-720896,92,-56,-1,-1,0
1523618843883,-720896,92,-56,-1,-1,0
1523618843883,-786432,92,-56,-1,-1,0
1523618843883,-786432,92,-56,-1,-1,0
1523618843923,-786432,92,-56,-1,-1,0
1523618843923,-851968,92,-56,-1,-1,0
1523618843923,-786432,92,-56,-1,-1,0
1523618843923,-720896,92,-56,-1,-1,0
1523618843923,-655360,92,-56,-1,-1,0
1523618843963,-589824,92,-56,-1,-1,0
1523618843963,-393216,92,-56,-1,-1,0
1523618843963,-196608,92,-56,-1,-1,0
1523618843963,-131072,92,-56,-1,-1,0
1523618843963,-196608,92,-56,-1,-1,0
1523618844003,-327680,92,-56,-1,-1,0
1523618844003,-393216,92,-56,-1,-1,0
1523618844003,-589824,92,-56,-1,-1,0
1523618844003,-720896,92,-56,-1,-1,0
1523618844003,-851968,92,-56,-1,-1,0
1523618844043,-917504,89,-56,-1,-1,0
1523618844043,-983040,89,-56,-1,-1,0
1523618844043,-983040,89,-56,-1,-1,0
1523618844043,-1048576,89,-56,-1,-1,0
1523618844043,-1114112,89,-56,-1,-1,0
1523618844083,-1114112,89,-56,-1,-1,0
1523618844083,-589824,89,-56,-1,-1,0
1523618844083,1048576,89,-56,-1,-1,0
1523618844083,2949120,89,-56,-1,-1,0
1523618844083,2752512,89,-56,-1,-1,0
1523618844124,-262144,89,-56,-1,-1,0
1523618844124,-3735552,89,-56,-1,-1,0
1523618844124,-4980736,89,-56,-1,-1,0
1523618844124,-3866624,89,-56,-1,-1,0
1523618844124,-2228224,89,-56,-1,-1,0
1523618844163,-1179648,89,-56,-1,-1,0
1523618844163,-786432,89,-56,-1,-1,0
1523618844163,-655360,89,-56,-1,-1,0
1523618844163,-589824,89,-56,-1,-1,0
1523618844163,-524288,89,-56,-1,-1,0
1523618844203,-458752,89,-56,-1,-1,0
1523618844203,-393216,89,-56,-1,-1,0
1523618844203,-196608,89,-56,-1,-1,0
1523618844203,-65536,89,-56,-1,-1,0
1523618844203,0,89,-56,-1,-1,0
1523618844243,196608,89,-56,-1,-1,0
1523618844243,458752,89,-56,-1,-1,0
1523618844243,720896,89,-56,-1,-1,0
1523618844243,983040,89,-56,-1,-1,0
1523618844243,1179648,89,-56,-1,-1,0
1523618844284,1441792,89,-56,-1,-1,0
1523618844284,1769472,89,-56,-1,-1,0
1523618844284,2097152,89,-56,-1,-1,0
1523618844284,2490368,89,-56,-1,-1,0
1523618844284,2752512,89,-56,-1,-1,0
1523618844323,2883584,89,-56,-1,-1,0
1523618844323,2949120,89,-56,-1,-1,0
1523618844323,2949120,89,-56,-1,-1,0
1523618844323,2818048,89,-56,-1,-1,0
1523618844323,2621440,89,-56,-1,-1,0
1523618844363,2228224,89,-56,-1,-1,0
1523618844363,1769472,89,-56,-1,-1,0
1523618844363,1245184,89,-56,-1,-1,0
1523618844363,851968,89,-56,-1,-1,0
1523618844363,524288,89,-56,-1,-1,0
1523618844403,262144,89,-56,-1,-1,0
1523618844403,0,89,-56,-1,-1,0
1523618844403,-65536,89,-56,-1,-1,0
1523618844403,-196608,89,-56,-1,-1,0
1523618844403,-262144,89,-56,-1,-1,0
1523618844443,-393216,89,-56,-1,-1,0
1523618844443,-458752,89,-56,-1,-1,0
1523618844443,-458752,89,-56,-1,-1,0
1523618844443,-524288,89,-56,-1,-1,0
1523618844443,-524288,89,-56,-1,-1,0
1523618844483,-589824,89,-56,-1,-1,0
1523618844483,-720896,89,-56,-1,-1,0
1523618844483,-720896,89,-56,-1,-1,0
1523618844483,-786432,89,-56,-1,-1,0
1523618844483,-851968,89,-56,-1,-1,0
1523618844523,-917504,89,-56,-1,-1,0
1523618844523,-983040,89,-56,-1,-1,0
1523618844523,-983040,89,-56,-1,-1,0
1523618844523,-983040,89,-56,-1,-1,0
1523618844523,-1114112,89,-56,-1,-1,0
1523618844563,-1114112,89,-56,-1,-1,0
1523618844563,-1048576,89,-56,-1,-1,0
1523618844563,-1048576,89,-56,-1,-1,0
1523618844563,-1114112,89,-56,-1,-1,0
1523618844563,-1114112,89,-56,-1,-1,0
1523618844603,-1179648,89,-56,-1,-1,0
1523618844603,-1114112,89,-56,-1,-1,0
1523618844603,-1114112,89,-56,-1,-1,0
1523618844603,-1114112,89,-56,-1,-1,0
1523618844603,-1048576,89,-56,-1,-1,0
1523618844643,-851968,89,-56,-1,-1,0
1523618844643,-720896,89,-56,-1,-1,0
1523618844643,-524288,89,-56,-1,-1,0
1523618844643,-393216,89,-56,-1,-1,0
1523618844643,-524288,89,-56,-1,-1,0
1523618844683,-589824,88,-56,-1,-1,0
1523618844683,-720896,88,-56,-1,-1,0
1523618844683,-851968,88,-56,-1,-1,0
1523618844683,-983040,88,-56,-1,-1,0
1523618844683,-1114112,88,-56,-1,-1,0
1523618844723,-1245184,88,-56,-1,-1,0
1523618844723,-1310720,88,-56,-1,-1,0
1523618844723,-1245184,88,-56,-1,-1,0
1523618844723,-1245184,88,-56,-1,-1,0
1523618844723,-1310720,88,-56,-1,-1,0
1523618844764,-1179648,88,-56,-1,-1,0
1523618844764,-196608,88,-56,-1,-1,0
1523618844764,2031616,88,-56,-1,-1,0
1523618844764,3997696,88,-56,-1,-1,0
1523618844764,2883584,88,-56,-1,-1,0
1523618844803,-1048576,88,-56,-1,-1,0
1523618844803,-4456448,88,-56,-1,-1,0
1523618844803,-5111808,88,-56,-1,-1,0
1523618844803,-3604480,88,-56,-1,-1,0
1523618844803,-2031616,88,-56,-1,-1,0
1523618844843,-1179648,88,-56,-1,-1,0
1523618844843,-851968,88,-56,-1,-1,0
1523618844843,-720896,88,-56,-1,-1,0
1523618844843,-589824,88,-56,-1,-1,0
1523618844843,-524288,88,-56,-1,-1,0
1523618844883,-393216,88,-56,-1,-1,0
1523618844883,-262144,88,-56,-1,-1,0
1523618844883,-131072,88,-56,-1,-1,0
1523618844883,0,88,-56,-1,-1,0
1523618844883,131072,88,-56,-1,-1,0
1523618844923,393216,88,-56,-1,-1,0
1523618844923,655360,88,-56,-1,-1,0
1523618844923,917504,88,-56,-1,-1,0
1523618844923,1245184,88,-56,-1,-1,0
1523618844923,1572864,88,-56,-1,-1,0
1523618844963,1966080,88,-56,-1,-1,0
1523618844963,2293760,88,-56,-1,-1,0
1523618844963,2686976,88,-56,-1,-1,0
1523618844963,3014656,88,-56,-1,-1,0
1523618844963,3211264,88,-56,-1,-1,0
1523618845003,3342336,88,-56,-1,-1,0
1523618845003,3342336,88,-56,-1,-1,0
1523618845003,3276800,88,-56,-1,-1,0
1523618845003,3080192,88,-56,-1,-1,0
1523618845003,2818048,88,-56,-1,-1,0
1523618845043,2424832,88,-56,-1,-1,0
1523618845043,1900544,88,-56,-1,-1,0
1523618845043,1376256,88,-56,-1,-1,0
1523618845043,983040,88,-56,-1,-1,0
1523618845043,655360,88,-56,-1,-1,0
1523618845083,393216,88,-56,-1,-1,0
1523618845083,196608,88,-56,-1,-1,0
1523618845083,65536,88,-56,-1,-1,0
1523618845083,0,88,-56,-1,-1,0
1523618845083,0,88,-56,-1,-1,0
1523618845123,-65536,88,-56,-1,-1,0
1523618845123,-65536,88,-56,-1,-1,0
1523618845123,-131072,88,-56,-1,-1,0
1523618845123,-196608,88,-56,-1,-1,0
1523618845123,-262144,88,-56,-1,-1,0
1523618845163,-262144,88,-56,-1,-1,0
1523618845163,-262144,88,-56,-1,-1,0
1523618845163,-327680,88,-56,-1,-1,0
1523618845163,-393216,88,-56,-1,-1,0
1523618845163,-458752,88,-56,-1,-1,0
1523618845203,-524288,88,-56,-1,-1,0
1523618845203,-589824,88,-56,-1,-1,0
1523618845203,-589824,88,-56,-1,-1,0
1523618845203,-655360,88,-56,-1,-1,0
1523618845203,-655360,88,-56,-1,-1,0
1523618845243,-655360,88,-56,-1,-1,0
1523618845243,-720896,88,-56,-1,-1,0
1523618845243,-720896,88,-56,-1,-1,0
1523618845243,-720896,88,-56,-1,-1,0
1523618845243,-655360,88,-56,-1,-1,0
1523618845283,-524288,88,-56,-1,-1,0
1523618845283,-327680,88,-56,-1,-1,0
1523618845283,-262144,88,-56,-1,-1,0
1523618845283,-262144,88,-56,-1,-1,0
1523618845283,-262144,88,-56,-1,-1,0
1523618845323,-393216,88,-56,-1,-1,0
1523618845323,-524288,88,-56,-1,-1,0
1523618845323,-720896,88,-56,-1,-1,0
1523618845323,-851968,88,-56,-1,-1,0
1523618845323,-983040,88,-56,-1,-1,0
1523618845363,-1048576,88,-56,-1,-1,0
1523618845363,-1048576,88,-56,-1,-1,0
1523618845363,-1048576,88,-56,-1,-1,0
1523618845363,-1114112,88,-56,-1,-1,0
1523618845363,-1048576,88,-56,-1,-1,0
1523618845404,-327680,88,-56,-1,-1,0
1523618845404,1769472,88,-56,-1,-1,0
1523618845404,4259840,88,-56,-1,-1,0
1523618845404,4325376,88,-56,-1,-1,0
1523618845404,786432,88,-56,-1,-1,0
1523618845443,-3473408,88,-56,-1,-1,0
1523618845443,-5111808,88,-56,-1,-1,0
1523618845443,-4063232,88,-56,-1,-1,0
1523618845443,-2424832,88,-56,-1,-1,0
1523618845443,-1376256,88,-56,-1,-1,0
1523618845483,-917504,88,-56,-1,-1,0
1523618845483,-851968,88,-56,-1,-1,0
1523618845483,-720896,88,-56,-1,-1,0
1523618845483,-524288,88,-56,-1,-1,0
1523618845483,-458752,88,-56,-1,-1,0
1523618845523,-393216,88,-56,-1,-1,0
1523618845523,-262144,88,-56,-1,-1,0
1523618845523,-131072,88,-56,-1,-1,0
1523618845523,0,88,-56,-1,-1,0
1523618845523,262144,88,-56,-1,-1,0
1523618845563,524288,88,-56,-1,-1,0
1523618845563,786432,88,-56,-1,-1,0
1523618845563,983040,88,-56,-1,-1,0
1523618845563,1310720,88,-56,-1,-1,0
1523618845563,1703936,88,-56,-1,-1,0
1523618845603,2162688,88,-56,-1,-1,0
1523618845603,2555904,88,-56,-1,-1,0
1523618845603,2818048,88,-56,-1,-1,0
1523618845603,3014656,88,-56,-1,-1,0
1523618845603,3145728,88,-56,-1,-1,0
1523618845643,3211264,88,-56,-1,-1,0
1523618845643,3145728,88,-56,-1,-1,0
1523618845643,2949120,88,-56,-1,-1,0
1523618845643,2621440,88,-56,-1,-1,0
1523618845643,2162688,88,-56,-1,-1,0
1523618845683,1638400,88,-56,-1,-1,0
1523618845683,1048576,88,-56,-1,-1,0
1523618845683,524288,88,-56,-1,-1,0
1523618845683,196608,88,-56,-1,-1,0
1523618845683,0,88,-56,-1,-1,0
1523618845723,-131072,88,-56,-1,-1,0
1523618845723,-262144,88,-56,-1,-1,0
1523618845723,-262144,88,-56,-1,-1,0
1523618845723,-262144,88,-56,-1,-1,0
1523618845723,-262144,88,-56,-1,-1,0
1523618845763,-327680,88,-56,-1,-1,0
1523618845763,-393216,88,-56,-1,-1,0
1523618845763,-458752,88,-56,-1,-1,0
1523618845763,-524288,88,-56,-1,-1,0
1523618845763,-589824,88,-56,-1,-1,0
1523618845803,-655360,88,-56,-1,-1,0
1523618845803,-655360,88,-56,-1,-1,0
1523618845803,-720896,88,-56,-1,-1,0
1523618845803,-851968,88,-56,-1,-1,0
1523618845803,-917504,88,-56,-1,-1,0
1523618845843,-851968,88,-56,-1,-1,0
1523618845843,-851968,88,-56,-1,-1,0
1523618845843,-917504,88,-56,-1,-1,0
1523618845843,-983040,88,-56,-1,-1,0
1523618845843,-786432,88,-56,-1,-1,0
1523618845883,-589824,88,-56,-1,-1,0
1523618845883,-458752,88,-56,-1,-1,0
1523618845883,-393216,88,-56,-1,-1,0
1523618845883,-458752,88,-56,-1,-1,0
1523618845883,-589824,88,-56,-1,-1,0
1523618845923,-720896,88,-56,-1,-1,0
1523618845923,-851968,88,-56,-1,-1,0
1523618845923,-1048576,88,-56,-1,-1,0
1523618845923,-1114112,88,-56,-1,-1,0
1523618845923,-1245184,88,-56,-1,-1,0
1523618845963,-1245184,88,-56,-1,-1,0
1523618845963,-1245184,88,-56,-1,-1,0
1523618845963,-1310720,88,-56,-1,-1,0
1523618845963,-1441792,88,-56,-1,-1,0
1523618845963,-1179648,88,-56,-1,-1,0
1523618846003,196608,88,-56,-1,-1,0
1523618846003,2555904,88,-56,-1,-1,0
1523618846003,3670016,88,-56,-1,-1,0
1523618846003,1376256,88,-56,-1,-1,0
1523618846003,-2621440,88,-56,-1,-1,0
1523618846044,-4980736,88,-56,-1,-1,0
1523618846044,-4521984,88,-56,-1,-1,0
1523618846044,-2949120,88,-56,-1,-1,0
1523618846044,-1703936,88,-56,-1,-1,0
1523618846044,-1114112,88,-56,-1,-1,0
1523618846083,-917504,88,-56,-1,-1,0
1523618846083,-786432,88,-56,-1,-1,0
1523618846083,-655360,88,-56,-1,-1,0
1523618846083,-589824,88,-56,-1,-1,0
1523618846083,-458752,88,-56,-1,-1,0
1523618846123,-327680,88,-56,-1,-1,0
1523618846123,-196608,88,-56,-1,-1,0
1523618846123,-65536,88,-56,-1,-1,0
1523618846123,131072,88,-56,-1,-1,0
1523618846123,393216,88,-56,-1,-1,0
1523618846163,589824,88,-56,-1,-1,0
1523618846163,917504,88,-56,-1,-1,0
1523618846163,1245184,88,-56,-1,-1,0
1523618846163,1638400,88,-56,-1,-1,0
1523618846163,2031616,88,-56,-1,-1,0
1523618846203,2359296,88,-56,-1,-1,0
1523618846203,2686976,88,-56,-1,-1,0
1523618846203,3014656,88,-56,-1,-1,0
1523618846203,3145728,88,-56,-1,-1,0
1523618846203,3145728,88,-56,-1,-1,0
1523618846243,3080192,88,-56,-1,-1,0
1523618846243,2949120,88,-56,-1,-1,0
1523618846243,2555904,88,-56,-1,-1,0
1523618846243,2162688,88,-56,-1,-1,0
1523618846243,1572864,88,-56,-1,-1,0
1523618846283,983040,88,-56,-1,-1,0
1523618846283,458752,88,-56,-1,-1,0
1523618846283,131072,88,-56,-1,-1,0
1523618846283,0,88,-56,-1,-1,0
1523618846283,-196608,88,-56,-1,-1,0
1523618846323,-262144,88,-56,-1,-1,0
1523618846323,-393216,88,-56,-1,-1,0
1523618846323,-393216,88,-56,-1,-1,0
1523618846323,-458752,88,-56,-1,-1,0
1523618846323,-458752,88,-56,-1,-1,0
1523618846363,-458752,88,-56,-1,-1,0
1523618846363,-393216,88,-56,-1,-1,0
1523618846363,-458752,88,-56,-1,-1,0
1523618846363,-589824,88,-56,-1,-1,0
1523618846363,-720896,88,-56,-1,-1,0
1523618846403,-720896,88,-56,-1,-1,0
1523618846403,-786432,88,-56,-1,-1,0
1523618846403,-851968,88,-56,-1,-1,0
1523618846403,-917504,88,-56,-1,-1,0
1523618846403,-917504,88,-56,-1,-1,0
1523618846443,-917504,88,-56,-1,-1,0
1523618846443,-917504,88,-56,-1,-1,0
1523618846443,-851968,88,-56,-1,-1,0
1523618846443,-786432,88,-56,-1,-1,0
1523618846443,-589824,88,-56,-1,-1,0
1523618846483,-393216,88,-56,-1,-1,0
1523618846483,-327680,88,-56,-1,-1,0
1523618846483,-393216,88,-56,-1,-1,0
1523618846483,-589824,88,-56,-1,-1,0
1523618846483,-851968,88,-56,-1,-1,0
1523618846523,-917504,88,-56,-1,-1,0
1523618846523,-983040,88,-56,-1,-1,0
1523618846523,-1048576,88,-56,-1,-1,0
1523618846523,-1048576,88,-56,-1,-1,0
1523618846523,-1048576,88,-56,-1,-1,0
1523618846563,-1114112,88,-56,-1,-1,0
1523618846563,-1114112,88,-56,-1,-1,0
1523618846563,-1179648,88,-56,-1,-1,0
1523618846563,-524288,88,-56,-1,-1,0
1523618846563,1310720,88,-56,-1,-1,0
1523618846603,3276800,88,-56,-1,-1,0
1523618846603,2818048,88,-56,-1,-1,0
1523618846603,-327680,88,-56,-1,-1,0
1523618846603,-3670016,88,-56,-1,-1,0
1523618846603,-4521984,88,-56,-1,-1,0
1523618846643,-3211264,88,-56,-1,-1,0
1523618846643,-1769472,88,-56,-1,-1,0
1523618846643,-917504,88,-56,-1,-1,0
1523618846643,-655360,88,-56,-1,-1,0
1523618846643,-589824,88,-56,-1,-1,0
1523618846684,-524288,88,-56,-1,-1,0
1523618846684,-393216,88,-56,-1,-1,0
1523618846684,-327680,88,-56,-1,-1,0
1523618846684,-196608,88,-56,-1,-1,0
1523618846684,-65536,88,-56,-1,-1,0
1523618846723,65536,88,-56,-1,-1,0
1523618846723,262144,88,-56,-1,-1,0
1523618846723,458752,88,-56,-1,-1,0
1523618846723,655360,88,-56,-1,-1,0
1523618846723,917504,88,-56,-1,-1,0
1523618846763,1245184,88,-56,-1,-1,0
1523618846763,1572864,88,-56,-1,-1,0
1523618846763,1900544,88,-56,-1,-1,0
1523618846763,2359296,88,-56,-1,-1,0
1523618846763,2686976,88,-56,-1,-1,0
1523618846803,2949120,88,-56,-1,-1,0
1523618846803,3080192,88,-56,-1,-1,0
1523618846803,3145728,88,-56,-1,-1,0
1523618846803,3080192,88,-56,-1,-1,0
1523618846803,3014656,88,-56,-1,-1,0
1523618846843,2752512,88,-56,-1,-1,0
1523618846843,2359296,88,-56,-1,-1,0
1523618846843,1835008,88,-56,-1,-1,0
1523618846843,1245184,88,-56,-1,-1,0
1523618846843,720896,88,-56,-1,-1,0
1523618846883,262144,88,-56,-1,-1,0
1523618846883,0,88,-56,-1,-1,0
1523618846883,-196608,88,-56,-1,-1,0
1523618846883,-262144,88,-56,-1,-1,0
1523618846883,-262144,88,-56,-1,-1,0
1523618846923,-262144,88,-56,-1,-1,0
1523618846923,-262144,88,-56,-1,-1,0
1523618846923,-262144,88,-56,-1,-1,0
1523618846923,-327680,88,-56,-1,-1,0
1523618846923,-327680,88,-56,-1,-1,0
1523618846963,-327680,88,-56,-1,-1,0
1523618846963,-327680,88,-56,-1,-1,0
1523618846963,-393216,88,-56,-1,-1,0
1523618846963,-524288,88,-56,-1,-1,0
1523618846963,-589824,88,-56,-1,-1,0
1523618847003,-655360,88,-56,-1,-1,0
1523618847003,-720896,88,-56,-1,-1,0
1523618847003,-786432,88,-56,-1,-1,0
1523618847003,-786432,88,-56,-1,-1,0
1523618847003,-786432,88,-56,-1,-1,0
1523618847043,-786432,88,-56,-1,-1,0
1523618847043,-655360,88,-56,-1,-1,0
1523618847043,-393216,88,-56,-1,-1,0
1523618847043,-327680,88,-56,-1,-1,0
1523618847043,-262144,88,-56,-1,-1,0
1523618847083,-393216,88,-56,-1,-1,0
1523618847083,-589824,88,-56,-1,-1,0
1523618847083,-720896,88,-56,-1,-1,0
1523618847083,-786432,88,-56,-1,-1,0
1523618847083,-917504,88,-56,-1,-1,0
1523618847123,-983040,88,-56,-1,-1,0
1523618847123,-983040,88,-56,-1,-1,0
1523618847123,-983040,88,-56,-1,-1,0
1523618847123,-1048576,88,-56,-1,-1,0
1523618847123,-1179648,88,-56,-1,-1,0
1523618847163,-983040,88,-56,-1,-1,0
1523618847163,196608,88,-56,-1,-1,0
1523618847163,2228224,88,-56,-1,-1,0
1523618847163,3080192,88,-56,-1,-1,0
1523618847163,1310720,88,-56,-1,-1,0
1523618847203,-2031616,88,-56,-1,-1,0
1523618847203,-4063232,88,-56,-1,-1,0
1523618847203,-3735552,88,-56,-1,-1,0
1523618847203,-2293760,88,-56,-1,-1,0
1523618847203,-1310720,88,-56,-1,-1,0
1523618847243,-851968,88,-56,-1,-1,0
1523618847243,-720896,88,-56,-1,-1,0
1523618847243,-655360,88,-56,-1,-1,0
1523618847243,-524288,88,-56,-1,-1,0
1523618847243,-393216,88,-56,-1,-1,0
1523618847283,-262144,88,-56,-1,-1,0
1523618847283,-196608,88,-56,-1,-1,0
1523618847283,-131072,88,-56,-1,-1,0
1523618847283,0,88,-56,-1,-1,0
1523618847283,196608,88,-56,-1,-1,0
1523618847324,327680,88,-56,-1,-1,0
1523618847324,589824,88,-56,-1,-1,0
1523618847324,917504,88,-56,-1,-1,0
1523618847324,1245184,88,-56,-1,-1,0
1523618847324,1572864,88,-56,-1,-1,0
1523618847363,1966080,88,-56,-1,-1,0
1523618847363,2293760,88,-56,-1,-1,0
1523618847363,2555904,88,-56,-1,-1,0
1523618847363,2818048,88,-56,-1,-1,0
1523618847363,2949120,88,-56,-1,-1,0
1523618847403,2949120,88,-56,-1,-1,0
1523618847403,2818048,88,-56,-1,-1,0
1523618847403,2686976,88,-56,-1,-1,0
1523618847403,2359296,88,-56,-1,-1,0
1523618847403,1900544,88,-56,-1,-1,0
1523618847443,1310720,88,-56,-1,-1,0
1523618847443,786432,88,-56,-1,-1,0
1523618847443,327680,88,-56,-1,-1,0
1523618847443,0,88,-56,-1,-1,0
1523618847443,-131072,88,-56,-1,-1,0
1523618847483,-262144,88,-56,-1,-1,0
1523618847483,-327680,88,-56,-1,-1,0
1523618847483,-262144,88,-56,-1,-1,0
1523618847483,-262144,88,-56,-1,-1,0
1523618847483,-327680,88,-56,-1,-1,0
1523618847523,-327680,88,-56,-1,-1,0
1523618847523,-393216,88,-56,-1,-1,0
1523618847523,-393216,88,-56,-1,-1,0
1523618847523,-458752,88,-56,-1,-1,0
1523618847523,-458752,88,-56,-1,-1,0
1523618847563,-458752,88,-56,-1,-1,0
1523618847563,-524288,88,-56,-1,-1,0
1523618847563,-589824,88,-56,-1,-1,0
1523618847563,-720896,88,-56,-1,-1,0
1523618847563,-786432,88,-56,-1,-1,0
1523618847603,-786432,88,-56,-1,-1,0
1523618847603,-851968,88,-56,-1,-1,0
1523618847603,-851968,88,-56,-1,-1,0
1523618847603,-851968,88,-56,-1,-1,0
1523618847603,-851968,88,-56,-1,-1,0
1523618847643,-786432,88,-56,-1,-1,0
1523618847643,-589824,88,-56,-1,-1,0
1523618847643,-458752,88,-56,-1,-1,0
1523618847643,-458752,88,-56,-1,-1,0
1523618847643,-524288,88,-56,-1,-1,0
1523618847683,-655360,88,-56,-1,-1,0
1523618847683,-786432,88,-56,-1,-1,0
1523618847683,-851968,88,-56,-1,-1,0
1523618847683,-983040,88,-56,-1,-1,0
1523618847683,-1048576,88,-56,-1,-1,0
1523618847723,-1179648,88,-56,-1,-1,0
1523618847723,-1179648,88,-56,-1,-1,0
1523618847723,-1245184,88,-56,-1,-1,0
1523618847723,-1310720,88,-56,-1,-1,0
1523618847723,-983040,88,-56,-1,-1,0
1523618847763,393216,88,-56,-1,-1,0
1523618847763,2686976,88,-56,-1,-1,0
1523618847763,3604480,88,-56,-1,-1,0
1523618847763,1638400,88,-56,-1,-1,0
1523618847763,-2097152,88,-56,-1,-1,0
1523618847803,-4325376,88,-56,-1,-1,0
1523618847803,-3932160,88,-56,-1,-1,0
1523618847803,-2359296,88,-56,-1,-1,0
1523618847803,-1310720,88,-56,-1,-1,0
1523618847803,-917504,88,-56,-1,-1,0
1523618847843,-851968,88,-56,-1,-1,0
1523618847843,-720896,88,-56,-1,-1,0
1523618847843,-589824,88,-56,-1,-1,0
1523618847843,-458752,88,-56,-1,-1,0
1523618847843,-327680,88,-56,-1,-1,0
1523618847883,-262144,88,-56,-1,-1,0
1523618847883,-131072,88,-56,-1,-1,0
1523618847883,0,88,-56,-1,-1,0
1523618847883,196608,88,-56,-1,-1,0
1523618847883,458752,88,-56,-1,-1,0
1523618847923,720896,88,-56,-1,-1,0
1523618847923,1048576,88,-56,-1,-1,0
1523618847923,1310720,88,-56,-1,-1,0
1523618847923,1703936,88,-56,-1,-1,0
1523618847923,2162688,88,-56,-1,-1,0
1523618847964,2490368,88,-56,-1,-1,0
1523618847964,2818048,88,-56,-1,-1,0
1523618847964,3145728,88,-56,-1,-1,0
1523618847964,3276800,88,-56,-1,-1,0
1523618847964,3276800,88,-56,-1,-1,0
1523618848003,3145728,88,-56,-1,-1,0
1523618848003,3014656,88,-56,-1,-1,0
1523618848003,2621440,88,-56,-1,-1,0
1523618848003,2097152,88,-56,-1,-1,0
1523618848003,1441792,88,-56,-1,-1,0
1523618848043,917504,88,-56,-1,-1,0
1523618848043,458752,88,-56,-1,-1,0
1523618848043,131072,88,-56,-1,-1,0
1523618848043,-131072,88,-56,-1,-1,0
1523618848043,-262144,88,-56,-1,-1,0
1523618848083,-327680,88,-56,-1,-1,0
1523618848083,-327680,88,-56,-1,-1,0
1523618848083,-327680,88,-56,-1,-1,0
1523618848083,-262144,88,-56,-1,-1,0
1523618848083,-327680,88,-56,-1,-1,0
1523618848123,-393216,88,-56,-1,-1,0
1523618848123,-327680,88,-56,-1,-1,0
1523618848123,-262144,88,-56,-1,-1,0
1523618848123,-327680,88,-56,-1,-1,0
1523618848123,-393216,88,-56,-1,-1,0
1523618848163,-458752,88,-56,-1,-1,0
1523618848163,-524288,88,-56,-1,-1,0
1523618848163,-655360,88,-56,-1,-1,0
1523618848163,-655360,88,-56,-1,-1,0
1523618848163,-655360,88,-56,-1,-1,0
1523618848203,-655360,88,-56,-1,-1,0
1523618848203,-786432,88,-56,-1,-1,0
1523618848203,-851968,88,-56,-1,-1,0
1523618848203,-917504,88,-56,-1,-1,0
1523618848203,-917504,88,-56,-1,-1,0
1523618848243,-917504,88,-56,-1,-1,0
1523618848243,-917504,88,-56,-1,-1,0
1523618848243,-786432,88,-56,-1,-1,0
1523618848243,-524288,88,-56,-1,-1,0
1523618848243,-393216,88,-56,-1,-1,0
1523618848283,-327680,88,-56,-1,-1,0
1523618848283,-458752,88,-56,-1,-1,0
1523618848283,-589824,88,-56,-1,-1,0
1523618848283,-720896,88,-56,-1,-1,0
1523618848283,-851968,88,-56,-1,-1,0
1523618848323,-983040,88,-56,-1,-1,0
1523618848323,-1048576,88,-56,-1,-1,0
1523618848323,-1114112,88,-56,-1,-1,0
1523618848323,-1048576,88,-56,-1,-1,0
1523618848323,-1114112,88,-56,-1,-1,0
1523618848363,-1179648,88,-56,-1,-1,0
1523618848363,-786432,88,-56,-1,-1,0
1523618848363,786432,88,-56,-1,-1,0
1523618848363,3342336,88,-56,-1,-1,0
1523618848363,4390912,88,-56,-1,-1,0
1523618848403,2097152,88,-56,-1,-1,0
1523618848403,-2162688,88,-56,-1,-1,0
1523618848403,-4718592,88,-56,-1,-1,0
1523618848403,-4259840,88,-56,-1,-1,0
1523618848403,-2621440,88,-56,-1,-1,0
1523618848443,-1441792,88,-56,-1,-1,0
1523618848443,-983040,88,-56,-1,-1,0
1523618848443,-786432,88,-56,-1,-1,0
1523618848443,-720896,88,-56,-1,-1,0
1523618848443,-589824,88,-56,-1,-1,0
1523618848483,-524288,88,-56,-1,-1,0
1523618848483,-393216,88,-56,-1,-1,0
1523618848483,-262144,88,-56,-1,-1,0
1523618848483,-131072,88,-56,-1,-1,0
1523618848483,0,88,-56,-1,-1,0
1523618848523,196608,88,-56,-1,-1,0
1523618848523,458752,88,-56,-1,-1,0
1523618848523,720896,88,-56,-1,-1,0
1523618848523,1048576,88,-56,-1,-1,0
1523618848523,1376256,88,-56,-1,-1,0
1523618848563,1703936,88,-56,-1,-1,0
1523618848563,2031616,88,-56,-1,-1,0
1523618848563,2424832,88,-56,-1,-1,0
1523618848563,2818048,88,-56,-1,-1,0
1523618848563,3211264,88,-56,-1,-1,0
1523618848604,3407872,88,-56,-1,-1,0
1523618848604,3407872,88,-56,-1,-1,0
1523618848604,3342336,88,-56,-1,-1,0
1523618848604,3145728,88,-56,-1,-1,0
1523618848604,2686976,88,-56,-1,-1,0
1523618848643,2097152,88,-56,-1,-1,0
1523618848643,1572864,88,-56,-1,-1,0
1523618848643,1048576,88,-56,-1,-1,0
1523618848643,524288,88,-56,-1,-1,0
1523618848643,131072,88,-56,-1,-1,0
1523618848683,-65536,88,-56,-1,-1,0
1523618848683,-262144,88,-56,-1,-1,0
1523618848683,-327680,88,-56,-1,-1,0
1523618848683,-393216,88,-56,-1,-1,0
1523618848683,-393216,88,-56,-1,-1,0
1523618848723,-327680,88,-56,-1,-1,0
1523618848723,-327680,88,-56,-1,-1,0
1523618848723,-327680,88,-56,-1,-1,0
1523618848723,-327680,88,-56,-1,-1,0
1523618848723,-327680,88,-56,-1,-1,0
1523618848763,-393216,88,-56,-1,-1,0
1523618848763,-458752,88,-56,-1,-1,0
1523618848763,-524288,88,-56,-1,-1,0
1523618848763,-589824,88,-56,-1,-1,0
1523618848763,-655360,88,-56,-1,-1,0
1523618848803,-655360,88,-56,-1,-1,0
1523618848803,-720896,88,-56,-1,-1,0
1523618848803,-720896,88,-56,-1,-1,0
1523618848803,-786432,88,-56,-1,-1,0
1523618848803,-851968,88,-56,-1,-1,0
1523618848843,-917504,88,-56,-1,-1,0
1523618848843,-917504,88,-56,-1,-1,0
1523618848843,-917504,88,-56,-1,-1,0
1523618848843,-917504,88,-56,-1,-1,0
1523618848843,-983040,88,-56,-1,-1,0
1523618848883,-1048576,88,-56,-1,-1,0
1523618848883,-1048576,88,-56,-1,-1,0
1523618848883,-917504,88,-56,-1,-1,0
1523618848883,-786432,88,-56,-1,-1,0
1523618848883,-589824,88,-56,-1,-1,0
1523618848923,-393216,88,-56,-1,-1,0
1523618848923,-262144,88,-56,-1,-1,0
1523618848923,-327680,88,-56,-1,-1,0
1523618848923,-458752,88,-56,-1,-1,0
1523618848923,-589824,88,-56,-1,-1,0
1523618848963,-720896,88,-56,-1,-1,0
1523618848963,-851968,88,-56,-1,-1,0
1523618848963,-983040,88,-56,-1,-1,0
1523618848963,-1048576,88,-56,-1,-1,0
1523618848963,-1114112,88,-56,-1,-1,0
1523618849003,-1114112,88,-56,-1,-1,0
1523618849003,-1114112,88,-56,-1,-1,0
1523618849003,-1179648,88,-56,-1,-1,0
1523618849003,-983040,88,-56,-1,-1,0
1523618849003,262144,88,-56,-1,-1,0
1523618849043,2818048,88,-56,-1,-1,0
1523618849043,4915200,88,-56,-1,-1,0
1523618849043,3932160,88,-56,-1,-1,0
1523618849043,-196608,88,-56,-1,-1,0
1523618849043,-3866624,88,-56,-1,-1,0
1523618849083,-4521984,88,-56,-1,-1,0
1523618849083,-2949120,88,-56,-1,-1,0
1523618849083,-1572864,88,-56,-1,-1,0
1523618849083,-983040,88,-56,-1,-1,0
1523618849083,-786432,88,-56,-1,-1,0
1523618849123,-720896,88,-56,-1,-1,0
1523618849123,-589824,88,-56,-1,-1,0
1523618849123,-524288,88,-56,-1,-1,0
1523618849123,-393216,88,-56,-1,-1,0
1523618849123,-262144,88,-56,-1,-1,0
1523618849163,-131072,88,-56,-1,-1,0
1523618849163,0,88,-56,-1,-1,0
1523618849163,196608,88,-56,-1,-1,0
1523618849163,393216,88,-56,-1,-1,0
1523618849163,589824,88,-56,-1,-1,0
1523618849203,851968,88,-56,-1,-1,0
1523618849203,1179648,88,-56,-1,-1,0
1523618849203,1572864,88,-56,-1,-1,0
1523618849203,1900544,88,-56,-1,-1,0
1523618849203,2359296,88,-56,-1,-1,0
1523618849244,2752512,88,-56,-1,-1,0
1523618849244,3080192,88,-56,-1,-1,0
1523618849244,3211264,88,-56,-1,-1,0
1523618849244,3276800,88,-56,-1,-1,0
1523618849244,3276800,88,-56,-1,-1,0
1523618849283,3145728,88,-56,-1,-1,0
1523618849283,2883584,88,-56,-1,-1,0
1523618849283,2359296,88,-56,-1,-1,0
1523618849283,1835008,88,-56,-1,-1,0
1523618849283,1245184,88,-56,-1,-1,0
1523618849323,786432,88,-56,-1,-1,0
1523618849323,327680,88,-56,-1,-1,0
1523618849323,0,88,-56,-1,-1,0
1523618849323,-131072,88,-56,-1,-1,0
1523618849323,-262144,88,-56,-1,-1,0
1523618849363,-262144,88,-56,-1,-1,0
1523618849363,-262144,88,-56,-1,-1,0
1523618849363,-196608,88,-56,-1,-1,0
1523618849363,-196608,88,-56,-1,-1,0
1523618849363,-262144,88,-56,-1,-1,0
1523618849403,-262144,88,-56,-1,-1,0
1523618849403,-196608,88,-56,-1,-1,0
1523618849403,-196608,88,-56,-1,-1,0
1523618849403,-327680,88,-56,-1,-1,0
1523618849403,-393216,88,-56,-1,-1,0
1523618849443,-458752,88,-56,-1,-1,0
1523618849443,-458752,88,-56,-1,-1,0
1523618849443,-524288,88,-56,-1,-1,0
1523618849443,-589824,88,-56,-1,-1,0
1523618849443,-655360,88,-56,-1,-1,0
1523618849483,-720896,88,-56,-1,-1,0
1523618849483,-720896,88,-56,-1,-1,0
1523618849483,-786432,88,-56,-1,-1,0
1523618849483,-786432,88,-56,-1,-1,0
1523618849483,-851968,88,-56,-1,-1,0
1523618849523,-851968,88,-56,-1,-1,0
1523618849523,-851968,88,-56,-1,-1,0
1523618849523,-917504,88,-56,-1,-1,0
1523618849523,-917504,88,-56,-1,-1,0
1523618849523,-917504,88,-56,-1,-1,0
1523618849563,-917504,88,-56,-1,-1,0
1523618849563,-983040,88,-56,-1,-1,0
1523618849563,-983040,88,-56,-1,-1,0
1523618849563,-917504,88,-56,-1,-1,0
1523618849563,-851968,88,-56,-1,-1,0
1523618849603,-786432,88,-56,-1,-1,0
1523618849603,-589824,88,-56,-1,-1,0
1523618849603,-393216,88,-56,-1,-1,0
1523618849603,-262144,88,-56,-1,-1,0
1523618849603,-327680,88,-56,-1,-1,0
1523618849643,-393216,88,-56,-1,-1,0
1523618849643,-458752,88,-56,-1,-1,0
1523618849643,-655360,88,-56,-1,-1,0
1523618849643,-786432,88,-56,-1,-1,0
1523618849643,-917504,88,-56,-1,-1,0
1523618849683,-983040,88,-56,-1,-1,0
1523618849683,-983040,88,-56,-1,-1,0
1523618849683,-1048576,88,-56,-1,-1,0
1523618849683,-1114112,88,-56,-1,-1,0
1523618849683,-1179648,88,-56,-1,-1,0
1523618849723,-1179648,88,-56,-1,-1,0
1523618849723,-524288,88,-56,-1,-1,0
1523618849723,1376256,88,-56,-1,-1,0
1523618849723,3801088,88,-56,-1,-1,0
1523618849723,4063232,88,-56,-1,-1,0
1523618849763,983040,88,-56,-1,-1,0
1523618849763,-2949120,88,-56,-1,-1,0
1523618849763,-4587520,88,-56,-1,-1,0
1523618849763,-3538944,88,-56,-1,-1,0
1523618849763,-1966080,88,-56,-1,-1,0
1523618849803,-1114112,88,-56,-1,-1,0
1523618849803,-851968,88,-56,-1,-1,0
1523618849803,-720896,88,-56,-1,-1,0
1523618849803,-589824,88,-56,-1,-1,0
1523618849803,-524288,88,-56,-1,-1,0
1523618849843,-393216,88,-56,-1,-1,0
1523618849843,-262144,88,-56,-1,-1,0
1523618849843,-196608,88,-56,-1,-1,0
1523618849843,-65536,88,-56,-1,-1,0
1523618849843,65536,88,-56,-1,-1,0
1523618849884,327680,88,-56,-1,-1,0
1523618849884,524288,88,-56,-1,-1,0
1523618849884,720896,88,-56,-1,-1,0
1523618849884,1048576,88,-56,-1,-1,0
1523618849884,1441792,88,-56,-1,-1,0
1523618849923,1769472,88,-56,-1,-1,0
1523618849923,2162688,88,-56,-1,-1,0
1523618849923,2555904,88,-56,-1,-1,0
1523618849923,2883584,88,-56,-1,-1,0
1523618849923,3145728,88,-56,-1,-1,0
1523618849963,3276800,88,-56,-1,-1,0
1523618849963,3276800,88,-56,-1,-1,0
1523618849963,3211264,88,-56,-1,-1,0
1523618849963,3014656,88,-56,-1,-1,0
1523618849963,2621440,88,-56,-1,-1,0
1523618850003,2228224,88,-56,-1,-1,0
1523618850003,1703936,88,-56,-1,-1,0
1523618850003,1114112,88,-56,-1,-1,0
1523618850003,655360,88,-56,-1,-1,0
1523618850003,262144,88,-56,-1,-1,0
1523618850043,0,88,-56,-1,-1,0
1523618850043,-131072,88,-56,-1,-1,0
1523618850043,-196608,88,-56,-1,-1,0
1523618850043,-262144,88,-56,-1,-1,0
1523618850043,-196608,88,-56,-1,-1,0
1523618850083,-131072,88,-56,-1,-1,0
1523618850083,-196608,88,-56,-1,-1,0
1523618850083,-131072,88,-56,-1,-1,0
1523618850083,-131072,88,-56,-1,-1,0
1523618850083,-196608,88,-56,-1,-1,0
1523618850123,-196608,88,-56,-1,-1,0
1523618850123,-262144,88,-56,-1,-1,0
1523618850123,-262144,88,-56,-1,-1,0
1523618850123,-327680,88,-56,-1,-1,0
1523618850123,-393216,88,-56,-1,-1,0
1523618850163,-458752,88,-56,-1,-1,0
1523618850163,-524288,88,-56,-1,-1,0
1523618850163,-589824,88,-56,-1,-1,0
1523618850163,-589824,88,-56,-1,-1,0
1523618850163,-655360,88,-56,-1,-1,0
1523618850203,-720896,88,-56,-1,-1,0
1523618850203,-720896,88,-56,-1,-1,0
1523618850203,-720896,88,-56,-1,-1,0
1523618850203,-786432,88,-56,-1,-1,0
1523618850203,-786432,88,-56,-1,-1,0
1523618850243,-786432,88,-56,-1,-1,0
1523618850243,-786432,88,-56,-1,-1,0
1523618850243,-786432,88,-56,-1,-1,0
1523618850243,-851968,88,-56,-1,-1,0
1523618850243,-851968,88,-56,-1,-1,0
1523618850283,-851968,88,-56,-1,-1,0
1523618850283,-786432,88,-56,-1,-1,0
1523618850283,-851968,88,-56,-1,-1,0
1523618850283,-851968,88,-56,-1,-1,0
1523618850283,-851968,88,-56,-1,-1,0
1523618850323,-851968,88,-56,-1,-1,0
1523618850323,-786432,88,-56,-1,-1,0
1523618850323,-655360,88,-56,-1,-1,0
1523618850323,-393216,88,-56,-1,-1,0
1523618850323,-196608,88,-56,-1,-1,0
1523618850363,-196608,88,-56,-1,-1,0
1523618850363,-262144,88,-56,-1,-1,0
1523618850363,-393216,88,-56,-1,-1,0
1523618850363,-524288,88,-56,-1,-1,0
1523618850363,-524288,88,-56,-1,-1,0
1523618850403,-655360,88,-56,-1,-1,0
1523618850403,-851968,88,-56,-1,-1,0
1523618850403,-983040,88,-56,-1,-1,0
1523618850403,-1048576,88,-56,-1,-1,0
1523618850403,-1048576,88,-56,-1,-1,0
1523618850443,-1048576,88,-56,-1,-1,0
1523618850443,-1114112,88,-56,-1,-1,0
1523618850443,-1114112,88,-56,-1,-1,0
1523618850443,-393216,88,-56,-1,-1,0
1523618850443,1376256,88,-56,-1,-1,0
1523618850483,3342336,88,-56,-1,-1,0
1523618850483,3080192,88,-56,-1,-1,0
1523618850483,0,88,-56,-1,-1,0
1523618850483,-3342336,88,-56,-1,-1,0
1523618850483,-4325376,88,-56,-1,-1,0
1523618850524,-3145728,90,-56,-1,-1,0
1523618850524,-1703936,90,-56,-1,-1,0
1523618850524,-983040,90,-56,-1,-1,0
1523618850524,-720896,90,-56,-1,-1,0
1523618850524,-655360,90,-56,-1,-1,0
1523618850564,-524288,90,-56,-1,-1,0
1523618850564,-458752,90,-56,-1,-1,0
1523618850564,-393216,90,-56,-1,-1,0
1523618850564,-196608,90,-56,-1,-1,0
1523618850564,-65536,90,-56,-1,-1,0
1523618850603,0,90,-56,-1,-1,0
1523618850603,131072,90,-56,-1,-1,0
1523618850603,393216,90,-56,-1,-1,0
1523618850603,589824,90,-56,-1,-1,0
1523618850603,851968,90,-56,-1,-1,0
1523618850643,1114112,90,-56,-1,-1,0
1523618850643,1441792,90,-56,-1,-1,0
1523618850643,1835008,90,-56,-1,-1,0
1523618850643,2228224,90,-56,-1,-1,0
1523618850643,2555904,90,-56,-1,-1,0
1523618850683,2818048,90,-56,-1,-1,0
1523618850683,3080192,90,-56,-1,-1,0
1523618850683,3211264,90,-56,-1,-1,0
1523618850683,3276800,90,-56,-1,-1,0
1523618850683,3211264,90,-56,-1,-1,0
1523618850723,3080192,90,-56,-1,-1,0
1523618850723,2752512,90,-56,-1,-1,0
1523618850723,2293760,90,-56,-1,-1,0
1523618850723,1769472,90,-56,-1,-1,0
1523618850723,1310720,90,-56,-1,-1,0
1523618850763,851968,90,-56,-1,-1,0
1523618850763,458752,90,-56,-1,-1,0
1523618850763,131072,90,-56,-1,-1,0
1523618850763,0,90,-56,-1,-1,0
1523618850763,-65536,90,-56,-1,-1,0
1523618850803,-65536,90,-56,-1,-1,0
1523618850803,0,90,-56,-1,-1,0
1523618850803,-65536,90,-56,-1,-1,0
1523618850803,-65536,90,-56,-1,-1,0
1523618850803,-65536,90,-56,-1,-1,0
1523618850843,-65536,90,-56,-1,-1,0
1523618850843,-65536,90,-56,-1,-1,0
1523618850843,-131072,90,-56,-1,-1,0
1523618850843,-131072,90,-56,-1,-1,0
1523618850843,-196608,90,-56,-1,-1,0
1523618850883,-262144,90,-56,-1,-1,0
1523618850883,-327680,90,-56,-1,-1,0
1523618850883,-393216,90,-56,-1,-1,0
1523618850883,-458752,90,-56,-1,-1,0
1523618850883,-458752,90,-56,-1,-1,0
1523618850923,-458752,90,-56,-1,-1,0
1523618850923,-524288,90,-56,-1,-1,0
1523618850923,-589824,90,-56,-1,-1,0
1523618850923,-589824,90,-56,-1,-1,0
1523618850923,-589824,90,-56,-1,-1,0
1523618850963,-589824,90,-56,-1,-1,0
1523618850963,-655360,90,-56,-1,-1,0
1523618850963,-655360,90,-56,-1,-1,0
1523618850963,-655360,90,-56,-1,-1,0
1523618850963,-589824,90,-56,-1,-1,0
1523618851003,-589824,90,-56,-1,-1,0
1523618851003,-589824,90,-56,-1,-1,0
1523618851003,-655360,90,-56,-1,-1,0
1523618851003,-655360,90,-56,-1,-1,0
1523618851003,-655360,90,-56,-1,-1,0
1523618851043,-655360,90,-56,-1,-1,0
1523618851043,-720896,90,-56,-1,-1,0
1523618851043,-720896,90,-56,-1,-1,0
1523618851043,-720896,90,-56,-1,-1,0
1523618851043,-720896,90,-56,-1,-1,0
1523618851083,-720896,90,-56,-1,-1,0
1523618851083,-720896,90,-56,-1,-1,0
1523618851083,-655360,90,-56,-1,-1,0
1523618851083,-655360,90,-56,-1,-1,0
1523618851083,-589824,90,-56,-1,-1,0
1523618851123,-458752,90,-56,-1,-1,0
1523618851123,-196608,90,-56,-1,-1,0
1523618851123,0,90,-56,-1,-1,0
1523618851123,-65536,90,-56,-1,-1,0
1523618851123,-196608,90,-56,-1,-1,0
1523618851164,-262144,90,-56,-1,-1,0
1523618851164,-393216,90,-56,-1,-1,0
1523618851164,-458752,90,-56,-1,-1,0
1523618851164,-589824,90,-56,-1,-1,0
1523618851164,-655360,90,-56,-1,-1,0
1523618851203,-720896,90,-56,-1,-1,0
1523618851203,-851968,90,-56,-1,-1,0
1523618851203,-917504,90,-56,-1,-1,0
1523618851203,-917504,90,-56,-1,-1,0
1523618851203,-983040,90,-56,-1,-1,0
1523618851243,-917504,90,-56,-1,-1,0
1523618851243,-131072,90,-56,-1,-1,0
1523618851243,1638400,90,-56,-1,-1,0
1523618851243,3342336,90,-56,-1,-1,0
1523618851243,2686976,90,-56,-1,-1,0
1523618851283,-393216,90,-56,-1,-1,0
1523618851283,-3473408,90,-56,-1,-1,0
1523618851283,-4259840,90,-56,-1,-1,0
1523618851283,-2949120,90,-56,-1,-1,0
1523618851283,-1507328,90,-56,-1,-1,0
1523618851323,-720896,90,-56,-1,-1,0
1523618851323,-458752,90,-56,-1,-1,0
1523618851323,-393216,90,-56,-1,-1,0
1523618851323,-327680,90,-56,-1,-1,0
1523618851323,-262144,90,-56,-1,-1,0
1523618851363,-196608,90,-56,-1,-1,0
1523618851363,-131072,90,-56,-1,-1,0
1523618851363,0,90,-56,-1,-1,0
1523618851363,196608,90,-56,-1,-1,0
1523618851363,327680,90,-56,-1,-1,0
1523618851403,458752,90,-56,-1,-1,0
1523618851403,720896,90,-56,-1,-1,0
1523618851403,1048576,90,-56,-1,-1,0
1523618851403,1310720,90,-56,-1,-1,0
1523618851403,1572864,90,-56,-1,-1,0
1523618851443,1900544,90,-56,-1,-1,0
1523618851443,2228224,90,-56,-1,-1,0
1523618851443,2555904,90,-56,-1,-1,0
1523618851443,2818048,90,-56,-1,-1,0
1523618851443,3080192,90,-56,-1,-1,0
1523618851483,3276800,90,-56,-1,-1,0
1523618851483,3276800,90,-56,-1,-1,0
1523618851483,3211264,90,-56,-1,-1,0
1523618851483,3080192,90,-56,-1,-1,0
1523618851483,2818048,90,-56,-1,-1,0
1523618851523,2424832,90,-56,-1,-1,0
1523618851523,1900544,90,-56,-1,-1,0
1523618851523,1441792,90,-56,-1,-1,0
1523618851523,983040,90,-56,-1,-1,0
1523618851523,655360,90,-56,-1,-1,0
1523618851564,327680,90,-56,-1,-1,0
1523618851564,65536,90,-56,-1,-1,0
1523618851564,0,90,-56,-1,-1,0
1523618851564,0,90,-56,-1,-1,0
1523618851564,0,90,-56,-1,-1,0
1523618851603,0,90,-56,-1,-1,0
1523618851603,0,90,-56,-1,-1,0
1523618851603,0,90,-56,-1,-1,0
1523618851603,-65536,90,-56,-1,-1,0
1523618851603,-65536,90,-56,-1,-1,0
1523618851643,0,90,-56,-1,-1,0
1523618851643,-65536,90,-56,-1,-1,0
1523618851643,-196608,90,-56,-1,-1,0
1523618851643,-262144,90,-56,-1,-1,0
1523618851643,-327680,90,-56,-1,-1,0
1523618851683,-393216,90,-56,-1,-1,0
1523618851683,-524288,90,-56,-1,-1,0
1523618851683,-589824,90,-56,-1,-1,0
1523618851683,-589824,90,-56,-1,-1,0
1523618851683,-524288,90,-56,-1,-1,0
1523618851723,-589824,90,-56,-1,-1,0
1523618851723,-655360,90,-56,-1,-1,0
1523618851723,-655360,90,-56,-1,-1,0
1523618851723,-655360,90,-56,-1,-1,0
1523618851723,-720896,90,-56,-1,-1,0
1523618851763,-720896,90,-56,-1,-1,0
1523618851763,-786432,90,-56,-1,-1,0
1523618851763,-720896,90,-56,-1,-1,0
1523618851763,-720896,90,-56,-1,-1,0
1523618851763,-720896,90,-56,-1,-1,0
1523618851804,-720896,90,-56,-1,-1,0
1523618851804,-786432,90,-56,-1,-1,0
1523618851804,-720896,90,-56,-1,-1,0
1523618851804,-720896,90,-56,-1,-1,0
1523618851804,-786432,90,-56,-1,-1,0
1523618851843,-851968,90,-56,-1,-1,0
1523618851843,-851968,90,-56,-1,-1,0
1523618851843,-851968,90,-56,-1,-1,0
1523618851843,-851968,90,-56,-1,-1,0
1523618851843,-851968,90,-56,-1,-1,0
1523618851883,-851968,90,-56,-1,-1,0
1523618851883,-851968,90,-56,-1,-1,0
1523618851883,-786432,90,-56,-1,-1,0
1523618851883,-720896,90,-56,-1,-1,0
1523618851883,-655360,90,-56,-1,-1,0
1523618851923,-524288,90,-56,-1,-1,0
1523618851923,-262144,90,-56,-1,-1,0
1523618851923,-196608,90,-56,-1,-1,0
1523618851923,-262144,90,-56,-1,-1,0
1523618851923,-393216,90,-56,-1,-1,0
1523618851963,-458752,90,-56,-1,-1,0
1523618851963,-524288,90,-56,-1,-1,0
1523618851963,-655360,90,-56,-1,-1,0
1523618851963,-786432,90,-56,-1,-1,0
1523618851963,-851968,90,-56,-1,-1,0
1523618852003,-983040,90,-56,-1,-1,0
1523618852003,-1048576,90,-56,-1,-1,0
1523618852003,-1048576,90,-56,-1,-1,0
1523618852003,-1114112,90,-56,-1,-1,0
1523618852003,-1114112,90,-56,-1,-1,0
1523618852043,-720896,90,-56,-1,-1,0
1523618852043,851968,90,-56,-1,-1,0
1523618852043,3014656,90,-56,-1,-1,0
1523618852043,3473408,90,-56,-1,-1,0
1523618852043,917504,90,-56,-1,-1,0
1523618852083,-2752512,90,-56,-1,-1,0
1523618852083,-4521984,90,-56,-1,-1,0
1523618852083,-3735552,90,-56,-1,-1,0
1523618852083,-2162688,90,-56,-1,-1,0
1523618852083,-1245184,90,-56,-1,-1,0
1523618852123,-851968,90,-56,-1,-1,0
1523618852123,-655360,90,-56,-1,-1,0
1523618852123,-524288,90,-56,-1,-1,0
1523618852123,-458752,90,-56,-1,-1,0
1523618852123,-393216,90,-56,-1,-1,0
1523618852163,-262144,90,-56,-1,-1,0
1523618852163,-196608,90,-56,-1,-1,0
1523618852163,0,90,-56,-1,-1,0
1523618852163,65536,90,-56,-1,-1,0
1523618852163,327680,90,-56,-1,-1,0
1523618852203,589824,90,-56,-1,-1,0
1523618852203,786432,90,-56,-1,-1,0
1523618852203,1048576,90,-56,-1,-1,0
1523618852203,1376256,90,-56,-1,-1,0
1523618852203,1703936,90,-56,-1,-1,0
1523618852243,2097152,90,-56,-1,-1,0
1523618852243,2424832,90,-56,-1,-1,0
1523618852243,2818048,90,-56,-1,-1,0
1523618852243,3145728,90,-56,-1,-1,0
1523618852243,3342336,90,-56,-1,-1,0
1523618852283,3407872,90,-56,-1,-1,0
1523618852283,3407872,90,-56,-1,-1,0
1523618852283,3276800,90,-56,-1,-1,0
1523618852283,3080192,90,-56,-1,-1,0
1523618852283,2686976,90,-56,-1,-1,0
1523618852323,2162688,90,-56,-1,-1,0
1523618852323,1638400,90,-56,-1,-1,0
1523618852323,1114112,90,-56,-1,-1,0
1523618852323,720896,90,-56,-1,-1,0
1523618852323,393216,90,-56,-1,-1,0
1523618852363,65536,90,-56,-1,-1,0
1523618852363,0,90,-56,-1,-1,0
1523618852363,0,90,-56,-1,-1,0
1523618852363,-65536,90,-56,-1,-1,0
1523618852363,-131072,90,-56,-1,-1,0
1523618852403,-131072,90,-56,-1,-1,0
1523618852403,-65536,90,-56,-1,-1,0
1523618852403,-65536,90,-56,-1,-1,0
1523618852403,-131072,90,-56,-1,-1,0
1523618852403,-131072,90,-56,-1,-1,0
1523618852444,-131072,90,-56,-1,-1,0
1523618852444,-196608,90,-56,-1,-1,0
1523618852444,-262144,90,-56,-1,-1,0
1523618852444,-327680,90,-56,-1,-1,0
1523618852444,-393216,90,-56,-1,-1,0
1523618852483,-393216,90,-56,-1,-1,0
1523618852483,-458752,90,-56,-1,-1,0
1523618852483,-524288,90,-56,-1,-1,0
1523618852483,-589824,90,-56,-1,-1,0
1523618852483,-589824,90,-56,-1,-1,0
1523618852523,-589824,90,-56,-1,-1,0
1523618852523,-655360,90,-56,-1,-1,0
1523618852523,-720896,90,-56,-1,-1,0
1523618852523,-720896,90,-56,-1,-1,0
1523618852523,-720896,90,-56,-1,-1,0
1523618852563,-720896,90,-56,-1,-1,0
1523618852563,-720896,90,-56,-1,-1,0
1523618852563,-786432,90,-56,-1,-1,0
1523618852563,-786432,90,-56,-1,-1,0
1523618852563,-786432,90,-56,-1,-1,0
1523618852603,-786432,90,-56,-1,-1,0
1523618852603,-786432,90,-56,-1,-1,0
1523618852603,-786432,90,-56,-1,-1,0
1523618852603,-786432,90,-56,-1,-1,0
1523618852603,-786432,90,-56,-1,-1,0
1523618852643,-786432,90,-56,-1,-1,0
1523618852643,-786432,90,-56,-1,-1,0
1523618852643,-786432,90,-56,-1,-1,0
1523618852643,-786432,90,-56,-1,-1,0
1523618852643,-720896,90,-56,-1,-1,0
1523618852683,-655360,90,-56,-1,-1,0
1523618852683,-458752,90,-56,-1,-1,0
1523618852683,-262144,90,-56,-1,-1,0
1523618852683,-196608,90,-56,-1,-1,0
1523618852683,-262144,90,-56,-1,-1,0
1523618852723,-327680,90,-56,-1,-1,0
1523618852723,-393216,90,-56,-1,-1,0
1523618852723,-589824,90,-56,-1,-1,0
1523618852723,-720896,90,-56,-1,-1,0
1523618852723,-851968,90,-56,-1,-1,0
1523618852763,-917504,90,-56,-1,-1,0
1523618852763,-983040,90,-56,-1,-1,0
1523618852763,-983040,90,-56,-1,-1,0
1523618852763,-983040,90,-56,-1,-1,0
1523618852763,-1048576,90,-56,-1,-1,0
1523618852803,-1048576,90,-56,-1,-1,0
1523618852803,-393216,90,-56,-1,-1,0
1523618852803,1703936,90,-56,-1,-1,0
1523618852803,4063232,90,-56,-1,-1,0
1523618852803,3932160,90,-56,-1,-1,0
1523618852843,393216,90,-56,-1,-1,0
1523618852843,-3604480,90,-56,-1,-1,0
1523618852843,-4980736,90,-56,-1,-1,0
1523618852843,-3801088,90,-56,-1,-1,0
1523618852843,-2162688,90,-56,-1,-1,0
1523618852883,-1179648,90,-56,-1,-1,0
1523618852883,-786432,90,-56,-1,-1,0
1523618852883,-655360,90,-56,-1,-1,0
1523618852883,-524288,90,-56,-1,-1,0
1523618852883,-393216,90,-56,-1,-1,0
1523618852923,-327680,90,-56,-1,-1,0
1523618852923,-196608,90,-56,-1,-1,0
1523618852923,-131072,90,-56,-1,-1,0
1523618852923,0,90,-56,-1,-1,0
1523618852923,65536,90,-56,-1,-1,0
1523618852963,262144,90,-56,-1,-1,0
1523618852963,524288,90,-56,-1,-1,0
1523618852963,786432,90,-56,-1,-1,0
1523618852963,1114112,90,-56,-1,-1,0
1523618852963,1507328,90,-56,-1,-1,0
1523618853003,1835008,90,-56,-1,-1,0
1523618853003,2162688,90,-56,-1,-1,0
1523618853003,2555904,90,-56,-1,-1,0
1523618853003,2949120,90,-56,-1,-1,0
1523618853003,3211264,90,-56,-1,-1,0
1523618853043,3473408,90,-56,-1,-1,0
1523618853043,3538944,90,-56,-1,-1,0
1523618853043,3473408,90,-56,-1,-1,0
1523618853043,3276800,90,-56,-1,-1,0
1523618853043,2949120,90,-56,-1,-1,0
1523618853084,2490368,90,-56,-1,-1,0
1523618853084,1900544,90,-56,-1,-1,0
1523618853084,1376256,90,-56,-1,-1,0
1523618853084,917504,90,-56,-1,-1,0
1523618853084,458752,90,-56,-1,-1,0
1523618853123,131072,90,-56,-1,-1,0
1523618853123,0,90,-56,-1,-1,0
1523618853123,-65536,90,-56,-1,-1,0
1523618853123,-131072,90,-56,-1,-1,0
1523618853123,-131072,90,-56,-1,-1,0
1523618853163,-196608,90,-56,-1,-1,0
1523618853163,-131072,90,-56,-1,-1,0
1523618853163,-196608,90,-56,-1,-1,0
1523618853163,-196608,90,-56,-1,-1,0
1523618853163,-196608,90,-56,-1,-1,0
1523618853203,-196608,90,-56,-1,-1,0
1523618853203,-196608,90,-56,-1,-1,0
1523618853203,-327680,90,-56,-1,-1,0
1523618853203,-393216,90,-56,-1,-1,0
1523618853203,-393216,90,-56,-1,-1,0
1523618853243,-458752,90,-56,-1,-1,0
1523618853243,-524288,90,-56,-1,-1,0
1523618853243,-589824,90,-56,-1,-1,0
1523618853243,-655360,90,-56,-1,-1,0
1523618853243,-655360,90,-56,-1,-1,0
1523618853283,-720896,90,-56,-1,-1,0
1523618853283,-720896,90,-56,-1,-1,0
1523618853283,-786432,90,-56,-1,-1,0
1523618853283,-786432,90,-56,-1,-1,0
1523618853283,-786432,90,-56,-1,-1,0
1523618853323,-786432,90,-56,-1,-1,0
1523618853323,-786432,90,-56,-1,-1,0
1523618853323,-786432,90,-56,-1,-1,0
1523618853323,-786432,90,-56,-1,-1,0
1523618853323,-786432,90,-56,-1,-1,0
1523618853363,-786432,90,-56,-1,-1,0
1523618853363,-851968,90,-56,-1,-1,0
1523618853363,-851968,90,-56,-1,-1,0
1523618853363,-851968,90,-56,-1,-1,0
1523618853363,-786432,90,-56,-1,-1,0
1523618853403,-851968,90,-56,-1,-1,0
1523618853403,-851968,90,-56,-1,-1,0
1523618853403,-851968,90,-56,-1,-1,0
1523618853403,-720896,90,-56,-1,-1,0
1523618853403,-589824,90,-56,-1,-1,0
1523618853443,-393216,90,-56,-1,-1,0
1523618853443,-262144,90,-56,-1,-1,0
1523618853443,-196608,90,-56,-1,-1,0
1523618853443,-262144,90,-56,-1,-1,0
1523618853443,-327680,90,-56,-1,-1,0
1523618853483,-393216,90,-56,-1,-1,0
1523618853483,-524288,90,-56,-1,-1,0
1523618853483,-720896,90,-56,-1,-1,0
1523618853483,-786432,90,-56,-1,-1,0
1523618853483,-917504,90,-56,-1,-1,0
1523618853523,-983040,90,-56,-1,-1,0
1523618853523,-1048576,90,-56,-1,-1,0
1523618853523,-1048576,90,-56,-1,-1,0
1523618853523,-1114112,90,-56,-1,-1,0
1523618853523,-1048576,90,-56,-1,-1,0
1523618853563,-196608,90,-56,-1,-1,0
1523618853563,1835008,90,-56,-1,-1,0
1523618853563,3932160,90,-56,-1,-1,0
1523618853563,3407872,90,-56,-1,-1,0
1523618853563,-65536,90,-56,-1,-1,0
1523618853603,-3670016,89,-56,-1,-1,0
1523618853603,-4653056,89,-56,-1,-1,0
1523618853603,-3342336,89,-56,-1,-1,0
1523618853603,-1900544,89,-56,-1,-1,0
1523618853603,-1048576,89,-56,-1,-1,0
1523618853643,-655360,89,-56,-1,-1,0
1523618853643,-589824,89,-56,-1,-1,0
1523618853643,-524288,89,-56,-1,-1,0
1523618853643,-458752,89,-56,-1,-1,0
1523618853643,-393216,89,-56,-1,-1,0
1523618853683,-262144,89,-56,-1,-1,0
1523618853683,-131072,89,-56,-1,-1,0
1523618853683,-65536,89,-56,-1,-1,0
1523618853683,65536,89,-56,-1,-1,0
1523618853683,327680,89,-56,-1,-1,0
1523618853730,524288,89,-56,-1,-1,0
1523618853730,786432,89,-56,-1,-1,0
1523618853730,1114112,89,-56,-1,-1,0
1523618853730,1441792,89,-56,-1,-1,0
1523618853730,1769472,89,-56,-1,-1,0
1523618853763,2162688,89,-56,-1,-1,0
1523618853763,2555904,89,-56,-1,-1,0
1523618853763,2883584,89,-56,-1,-1,0
1523618853763,3145728,89,-56,-1,-1,0
1523618853763,3342336,89,-56,-1,-1,0
1523618853803,3407872,89,-56,-1,-1,0
1523618853803,3407872,89,-56,-1,-1,0
1523618853803,3211264,89,-56,-1,-1,0
1523618853803,2883584,89,-56,-1,-1,0
1523618853803,2490368,89,-56,-1,-1,0
1523618853843,1900544,89,-56,-1,-1,0
1523618853843,1310720,89,-56,-1,-1,0
1523618853843,851968,89,-56,-1,-1,0
1523618853843,458752,89,-56,-1,-1,0
1523618853843,131072,89,-56,-1,-1,0
1523618853883,0,89,-56,-1,-1,0
1523618853883,-65536,89,-56,-1,-1,0
1523618853883,-131072,89,-56,-1,-1,0
1523618853883,-131072,89,-56,-1,-1,0
1523618853883,-131072,89,-56,-1,-1,0
1523618853923,-131072,89,-56,-1,-1,0
1523618853923,-65536,89,-56,-1,-1,0
1523618853923,-65536,89,-56,-1,-1,0
1523618853923,-65536,89,-56,-1,-1,0
1523618853923,-131072,89,-56,-1,-1,0
1523618853963,-196608,89,-56,-1,-1,0
1523618853963,-196608,89,-56,-1,-1,0
1523618853963,-327680,89,-56,-1,-1,0
1523618853963,-393216,89,-56,-1,-1,0
1523618853963,-393216,89,-56,-1,-1,0
1523618854003,-458752,89,-56,-1,-1,0
1523618854003,-524288,89,-56,-1,-1,0
1523618854003,-524288,89,-56,-1,-1,0
1523618854003,-589824,89,-56,-1,-1,0
1523618854003,-655360,89,-56,-1,-1,0
1523618854043,-655360,89,-56,-1,-1,0
1523618854043,-655360,89,-56,-1,-1,0
1523618854043,-655360,89,-56,-1,-1,0
1523618854043,-655360,89,-56,-1,-1,0
1523618854043,-655360,89,-56,-1,-1,0
1523618854083,-655360,89,-56,-1,-1,0
1523618854083,-655360,89,-56,-1,-1,0
1523618854083,-720896,89,-56,-1,-1,0
1523618854083,-786432,89,-56,-1,-1,0
1523618854083,-851968,89,-56,-1,-1,0
1523618854123,-786432,89,-56,-1,-1,0
1523618854123,-720896,89,-56,-1,-1,0
1523618854123,-720896,89,-56,-1,-1,0
1523618854123,-720896,89,-56,-1,-1,0
1523618854123,-720896,89,-56,-1,-1,0
1523618854163,-720896,89,-56,-1,-1,0
1523618854163,-786432,89,-56,-1,-1,0
1523618854163,-786432,89,-56,-1,-1,0
1523618854163,-720896,89,-56,-1,-1,0
1523618854163,-655360,89,-56,-1,-1,0
1523618854203,-524288,89,-56,-1,-1,0
1523618854203,-327680,89,-56,-1,-1,0
1523618854203,-131072,89,-56,-1,-1,0
1523618854203,-131072,89,-56,-1,-1,0
1523618854203,-196608,89,-56,-1,-1,0
1523618854243,-262144,89,-56,-1,-1,0
1523618854243,-393216,89,-56,-1,-1,0
1523618854243,-524288,89,-56,-1,-1,0
1523618854243,-655360,89,-56,-1,-1,0
1523618854243,-786432,89,-56,-1,-1,0
1523618854283,-851968,89,-56,-1,-1,0
1523618854283,-917504,89,-56,-1,-1,0
1523618854283,-917504,89,-56,-1,-1,0
1523618854283,-983040,89,-56,-1,-1,0
1523618854283,-1048576,89,-56,-1,-1,0
1523618854323,-983040,89,-56,-1,-1,0
1523618854323,-262144,89,-56,-1,-1,0
1523618854323,1572864,89,-56,-1,-1,0
1523618854323,3407872,89,-56,-1,-1,0
1523618854323,2883584,89,-56,-1,-1,0
1523618854364,-327680,89,-56,-1,-1,0
1523618854364,-3538944,89,-56,-1,-1,0
1523618854364,-4390912,89,-56,-1,-1,0
1523618854364,-3145728,89,-56,-1,-1,0
1523618854364,-1703936,89,-56,-1,-1,0
1523618854403,-917504,88,-56,-1,-1,0
1523618854403,-655360,88,-56,-1,-1,0
1523618854403,-589824,88,-56,-1,-1,0
1523618854403,-524288,88,-56,-1,-1,0
1523618854403,-458752,88,-56,-1,-1,0
1523618854443,-327680,88,-56,-1,-1,0
1523618854443,-196608,88,-56,-1,-1,0
1523618854443,-65536,88,-56,-1,-1,0
1523618854443,0,88,-56,-1,-1,0
1523618854443,196608,88,-56,-1,-1,0
1523618854483,393216,88,-56,-1,-1,0
1523618854483,589824,88,-56,-1,-1,0
1523618854483,786432,88,-56,-1,-1,0
1523618854483,1048576,88,-56,-1,-1,0
1523618854483,1441792,88,-56,-1,-1,0
1523618854523,1769472,88,-56,-1,-1,0
1523618854523,2097152,88,-56,-1,-1,0
1523618854523,2424832,88,-56,-1,-1,0
1523618854523,2818048,88,-56,-1,-1,0
1523618854523,3080192,88,-56,-1,-1,0
1523618854563,3276800,88,-56,-1,-1,0
1523618854563,3342336,88,-56,-1,-1,0
1523618854563,3276800,88,-56,-1,-1,0
1523618854563,3145728,88,-56,-1,-1,0
1523618854563,2818048,88,-56,-1,-1,0
1523618854603,2424832,88,-56,-1,-1,0
1523618854603,1966080,88,-56,-1,-1,0
1523618854603,1507328,88,-56,-1,-1,0
1523618854603,983040,88,-56,-1,-1,0
1523618854603,524288,88,-56,-1,-1,0
1523618854643,262144,88,-56,-1,-1,0
1523618854643,65536,88,-56,-1,-1,0
1523618854643,0,88,-56,-1,-1,0
1523618854643,-65536,88,-56,-1,-1,0
1523618854643,-65536,88,-56,-1,-1,0
1523618854683,-65536,88,-56,-1,-1,0
1523618854683,-65536,88,-56,-1,-1,0
1523618854683,0,88,-56,-1,-1,0
1523618854683,-65536,88,-56,-1,-1,0
1523618854683,-65536,88,-56,-1,-1,0
1523618854723,-65536,88,-56,-1,-1,0
1523618854723,-131072,88,-56,-1,-1,0
1523618854723,-131072,88,-56,-1,-1,0
1523618854723,-196608,88,-56,-1,-1,0
1523618854723,-262144,88,-56,-1,-1,0
1523618854763,-327680,88,-56,-1,-1,0
1523618854763,-393216,88,-56,-1,-1,0
1523618854763,-458752,88,-56,-1,-1,0
1523618854763,-458752,88,-56,-1,-1,0
1523618854763,-524288,88,-56,-1,-1,0
1523618854803,-524288,88,-56,-1,-1,0
1523618854803,-589824,88,-56,-1,-1,0
1523618854803,-589824,88,-56,-1,-1,0
1523618854803,-589824,88,-56,-1,-1,0
1523618854803,-589824,88,-56,-1,-1,0
1523618854843,-589824,88,-56,-1,-1,0
1523618854843,-655360,88,-56,-1,-1,0
1523618854843,-655360,88,-56,-1,-1,0
1523618854843,-720896,88,-56,-1,-1,0
1523618854843,-720896,88,-56,-1,-1,0
1523618854883,-720896,88,-56,-1,-1,0
1523618854883,-720896,88,-56,-1,-1,0
1523618854883,-720896,88,-56,-1,-1,0
1523618854883,-720896,88,-56,-1,-1,0
1523618854883,-720896,88,-56,-1,-1,0
1523618854923,-720896,88,-56,-1,-1,0
1523618854923,-720896,88,-56,-1,-1,0
1523618854923,-720896,88,-56,-1,-1,0
1523618854923,-720896,88,-56,-1,-1,0
1523618854923,-720896,88,-56,-1,-1,0
1523618854963,-655360,88,-56,-1,-1,0
1523618854963,-589824,88,-56,-1,-1,0
1523618854963,-393216,88,-56,-1,-1,0
1523618854963,-196608,88,-56,-1,-1,0
1523618854963,-131072,88,-56,-1,-1,0
1523618855004,-131072,88,-56,-1,-1,0
1523618855004,-196608,88,-56,-1,-1,0
1523618855004,-262144,88,-56,-1,-1,0
1523618855004,-458752,88,-56,-1,-1,0
1523618855004,-655360,88,-56,-1,-1,0
1523618855043,-720896,88,-56,-1,-1,0
1523618855043,-786432,88,-56,-1,-1,0
1523618855043,-851968,88,-56,-1,-1,0
1523618855043,-917504,88,-56,-1,-1,0
1523618855043,-983040,88,-56,-1,-1,0
1523618855083,-1048576,88,-56,-1,-1,0
1523618855083,-1114112,88,-56,-1,-1,0
1523618855083,-720896,88,-56,-1,-1,0
1523618855083,655360,88,-56,-1,-1,0
1523618855083,2752512,88,-56,-1,-1,0
1523618855123,3342336,88,-56,-1,-1,0
1523618855123,983040,88,-56,-1,-1,0
1523618855123,-2621440,88,-56,-1,-1,0
1523618855123,-4587520,88,-56,-1,-1,0
1523618855123,-3932160,88,-56,-1,-1,0
1523618855163,-2359296,85,-56,-1,-1,0
1523618855163,-1245184,85,-56,-1,-1,0
1523618855163,-786432,85,-56,-1,-1,0
1523618855163,-655360,85,-56,-1,-1,0
1523618855163,-589824,85,-56,-1,-1,0
1523618855203,-458752,85,-56,-1,-1,0
1523618855203,-393216,85,-56,-1,-1,0
1523618855203,-262144,85,-56,-1,-1,0
1523618855203,-196608,85,-56,-1,-1,0
1523618855203,-65536,85,-56,-1,-1,0
1523618855243,0,85,-56,-1,-1,0
1523618855243,196608,85,-56,-1,-1,0
1523618855243,458752,85,-56,-1,-1,0
1523618855243,655360,85,-56,-1,-1,0
1523618855243,917504,85,-56,-1,-1,0
1523618855283,1245184,85,-56,-1,-1,0
1523618855283,1572864,85,-56,-1,-1,0
1523618855283,1900544,85,-56,-1,-1,0
1523618855283,2228224,85,-56,-1,-1,0
1523618855283,2621440,85,-56,-1,-1,0
1523618855323,2949120,85,-56,-1,-1,0
1523618855323,3145728,85,-56,-1,-1,0
1523618855323,3276800,85,-56,-1,-1,0
1523618855323,3342336,85,-56,-1,-1,0
1523618855323,3211264,85,-56,-1,-1,0
1523618855363,3014656,85,-56,-1,-1,0
1523618855363,2621440,85,-56,-1,-1,0
1523618855363,2162688,85,-56,-1,-1,0
1523618855363,1638400,85,-56,-1,-1,0
1523618855363,1114112,85,-56,-1,-1,0
1523618855403,655360,85,-56,-1,-1,0
1523618855403,327680,85,-56,-1,-1,0
1523618855403,65536,85,-56,-1,-1,0
1523618855403,0,85,-56,-1,-1,0
1523618855403,-131072,85,-56,-1,-1,0
1523618855443,-131072,85,-56,-1,-1,0
1523618855443,-131072,85,-56,-1,-1,0
1523618855443,-131072,85,-56,-1,-1,0
1523618855443,-131072,85,-56,-1,-1,0
1523618855443,-131072,85,-56,-1,-1,0
1523618855483,-131072,85,-56,-1,-1,0
1523618855483,-196608,85,-56,-1,-1,0
1523618855483,-262144,85,-56,-1,-1,0
1523618855483,-262144,85,-56,-1,-1,0
1523618855483,-327680,85,-56,-1,-1,0
1523618855523,-393216,85,-56,-1,-1,0
1523618855523,-458752,85,-56,-1,-1,0
1523618855523,-458752,85,-56,-1,-1,0
1523618855523,-524288,85,-56,-1,-1,0
1523618855523,-589824,85,-56,-1,-1,0
1523618855563,-589824,85,-56,-1,-1,0
1523618855563,-589824,85,-56,-1,-1,0
1523618855563,-655360,85,-56,-1,-1,0
1523618855563,-720896,85,-56,-1,-1,0
1523618855563,-786432,85,-56,-1,-1,0
1523618855603,-786432,85,-56,-1,-1,0
1523618855603,-786432,85,-56,-1,-1,0
1523618855603,-851968,85,-56,-1,-1,0
1523618855603,-786432,85,-56,-1,-1,0
1523618855603,-786432,85,-56,-1,-1,0
1523618855644,-786432,85,-56,-1,-1,0
1523618855644,-851968,85,-56,-1,-1,0
1523618855644,-786432,85,-56,-1,-1,0
1523618855644,-851968,85,-56,-1,-1,0
1523618855644,-851968,85,-56,-1,-1,0
1523618855683,-851968,85,-56,-1,-1,0
1523618855683,-851968,85,-56,-1,-1,0
1523618855683,-851968,85,-56,-1,-1,0
1523618855683,-917504,85,-56,-1,-1,0
1523618855683,-851968,85,-56,-1,-1,0
1523618855723,-851968,85,-56,-1,-1,0
1523618855723,-786432,85,-56,-1,-1,0
1523618855723,-655360,85,-56,-1,-1,0
1523618855723,-458752,85,-56,-1,-1,0
1523618855723,-262144,85,-56,-1,-1,0
1523618855763,-196608,85,-56,-1,-1,0
1523618855763,-262144,85,-56,-1,-1,0
1523618855763,-393216,85,-56,-1,-1,0
1523618855763,-458752,85,-56,-1,-1,0
1523618855763,-589824,85,-56,-1,-1,0
1523618855803,-720896,85,-56,-1,-1,0
1523618855803,-851968,85,-56,-1,-1,0
1523618855803,-917504,85,-56,-1,-1,0
1523618855803,-983040,85,-56,-1,-1,0
1523618855803,-1048576,85,-56,-1,-1,0
1523618855843,-1048576,85,-56,-1,-1,0
1523618855843,-1114112,85,-56,-1,-1,0
1523618855843,-1048576,85,-56,-1,-1,0
1523618855843,-393216,85,-56,-1,-1,0
1523618855843,1638400,85,-56,-1,-1,0
1523618855883,3932160,81,-56,-1,-1,0
1523618855883,3801088,81,-56,-1,-1,0
1523618855883,327680,81,-56,-1,-1,0
1523618855883,-3473408,81,-56,-1,-1,0
1523618855883,-4849664,81,-56,-1,-1,0
1523618855923,-3735552,81,-56,-1,-1,0
1523618855923,-2228224,81,-56,-1,-1,0
1523618855923,-1245184,81,-56,-1,-1,0
1523618855923,-786432,81,-56,-1,-1,0
1523618855923,-589824,81,-56,-1,-1,0
1523618855963,-458752,81,-56,-1,-1,0
1523618855963,-393216,81,-56,-1,-1,0
1523618855963,-262144,81,-56,-1,-1,0
1523618855963,-196608,81,-56,-1,-1,0
1523618855963,-65536,81,-56,-1,-1,0
1523618856003,65536,81,-56,-1,-1,0
1523618856003,196608,81,-56,-1,-1,0
1523618856003,327680,81,-56,-1,-1,0
1523618856003,589824,81,-56,-1,-1,0
1523618856003,851968,81,-56,-1,-1,0
1523618856043,1179648,81,-56,-1,-1,0
1523618856043,1507328,81,-56,-1,-1,0
1523618856043,1769472,81,-56,-1,-1,0
1523618856043,2162688,81,-56,-1,-1,0
1523618856043,2555904,81,-56,-1,-1,0
1523618856083,2949120,81,-56,-1,-1,0
1523618856083,3276800,81,-56,-1,-1,0
1523618856083,3538944,81,-56,-1,-1,0
1523618856083,3604480,81,-56,-1,-1,0
1523618856083,3538944,81,-56,-1,-1,0
1523618856123,3407872,81,-56,-1,-1,0
1523618856123,3145728,81,-56,-1,-1,0
1523618856123,2686976,81,-56,-1,-1,0
1523618856123,2162688,81,-56,-1,-1,0
1523618856123,1572864,81,-56,-1,-1,0
1523618856163,1114112,81,-56,-1,-1,0
1523618856163,655360,81,-56,-1,-1,0
1523618856163,327680,81,-56,-1,-1,0
1523618856163,131072,81,-56,-1,-1,0
1523618856163,0,81,-56,-1,-1,0
1523618856203,-65536,81,-56,-1,-1,0
1523618856203,-131072,81,-56,-1,-1,0
1523618856203,-131072,81,-56,-1,-1,0
1523618856203,-131072,81,-56,-1,-1,0
1523618856203,-131072,81,-56,-1,-1,0
1523618856243,-196608,81,-56,-1,-1,0
1523618856243,-196608,81,-56,-1,-1,0
1523618856243,-196608,81,-56,-1,-1,0
1523618856243,-262144,81,-56,-1,-1,0
1523618856243,-262144,81,-56,-1,-1,0
1523618856284,-327680,81,-56,-1,-1,0
1523618856284,-327680,81,-56,-1,-1,0
1523618856284,-393216,81,-56,-1,-1,0
1523618856284,-458752,81,-56,-1,-1,0
1523618856284,-524288,81,-56,-1,-1,0
1523618856323,-524288,81,-56,-1,-1,0
1523618856323,-589824,81,-56,-1,-1,0
1523618856323,-589824,81,-56,-1,-1,0
1523618856323,-655360,81,-56,-1,-1,0
1523618856323,-720896,81,-56,-1,-1,0
1523618856364,-786432,81,-56,-1,-1,0
1523618856364,-786432,81,-56,-1,-1,0
1523618856364,-786432,81,-56,-1,-1,0
1523618856364,-786432,81,-56,-1,-1,0
1523618856364,-786432,81,-56,-1,-1,0
1523618856403,-786432,81,-56,-1,-1,0
1523618856403,-786432,81,-56,-1,-1,0
1523618856403,-786432,81,-56,-1,-1,0
1523618856403,-851968,81,-56,-1,-1,0
1523618856403,-851968,81,-56,-1,-1,0
1523618856443,-851968,81,-56,-1,-1,0
1523618856443,-851968,81,-56,-1,-1,0
1523618856443,-786432,81,-56,-1,-1,0
1523618856443,-786432,81,-56,-1,-1,0
1523618856443,-720896,81,-56,-1,-1,0
1523618856483,-524288,81,-56,-1,-1,0
1523618856483,-327680,81,-56,-1,-1,0
1523618856483,-196608,81,-56,-1,-1,0
1523618856483,-196608,81,-56,-1,-1,0
1523618856483,-262144,81,-56,-1,-1,0
1523618856523,-393216,81,-56,-1,-1,0
1523618856523,-524288,81,-56,-1,-1,0
1523618856523,-655360,81,-56,-1,-1,0
1523618856523,-786432,81,-56,-1,-1,0
1523618856523,-851968,81,-56,-1,-1,0
1523618856563,-917504,81,-56,-1,-1,0
1523618856563,-983040,81,-56,-1,-1,0
1523618856563,-983040,81,-56,-1,-1,0
1523618856563,-1048576,81,-56,-1,-1,0
1523618856563,-1048576,81,-56,-1,-1,0
1523618856603,-720896,81,-56,-1,-1,0
1523618856603,786432,81,-56,-1,-1,0
1523618856603,3342336,81,-56,-1,-1,0
1523618856603,4521984,81,-56,-1,-1,0
1523618856603,2359296,81,-56,-1,-1,0
1523618856643,-1835008,80,-56,-1,-1,0
1523618856643,-4521984,80,-56,-1,-1,0
1523618856643,-4259840,80,-56,-1,-1,0
1523618856643,-2621440,80,-56,-1,-1,0
1523618856643,-1376256,80,-56,-1,-1,0
1523618856683,-851968,80,-56,-1,-1,0
1523618856683,-720896,80,-56,-1,-1,0
1523618856683,-655360,80,-56,-1,-1,0
1523618856683,-458752,80,-56,-1,-1,0
1523618856683,-393216,80,-56,-1,-1,0
1523618856723,-262144,80,-56,-1,-1,0
1523618856723,-196608,80,-56,-1,-1,0
1523618856723,-65536,80,-56,-1,-1,0
1523618856723,65536,80,-56,-1,-1,0
1523618856723,262144,80,-56,-1,-1,0
1523618856763,458752,80,-56,-1,-1,0
1523618856763,655360,80,-56,-1,-1,0
1523618856763,917504,80,-56,-1,-1,0
1523618856763,1310720,80,-56,-1,-1,0
1523618856763,1572864,80,-56,-1,-1,0
1523618856803,1966080,80,-56,-1,-1,0
1523618856803,2359296,80,-56,-1,-1,0
1523618856803,2752512,80,-56,-1,-1,0
1523618856803,3080192,80,-56,-1,-1,0
1523618856803,3342336,80,-56,-1,-1,0
1523618856843,3473408,80,-56,-1,-1,0
1523618856843,3473408,80,-56,-1,-1,0
1523618856843,3342336,80,-56,-1,-1,0
1523618856843,3080192,80,-56,-1,-1,0
1523618856843,2686976,80,-56,-1,-1,0
1523618856883,2162688,80,-56,-1,-1,0
1523618856883,1572864,80,-56,-1,-1,0
1523618856883,1048576,80,-56,-1,-1,0
1523618856883,655360,80,-56,-1,-1,0
1523618856883,262144,80,-56,-1,-1,0
1523618856924,0,80,-56,-1,-1,0
1523618856924,-65536,80,-56,-1,-1,0
1523618856924,-131072,80,-56,-1,-1,0
1523618856924,-196608,80,-56,-1,-1,0
1523618856924,-262144,80,-56,-1,-1,0
1523618856963,-262144,80,-56,-1,-1,0
1523618856963,-262144,80,-56,-1,-1,0
1523618856963,-262144,80,-56,-1,-1,0
1523618856963,-262144,80,-56,-1,-1,0
1523618856963,-262144,80,-56,-1,-1,0
1523618857003,-327680,80,-56,-1,-1,0
1523618857003,-393216,80,-56,-1,-1,0
1523618857003,-458752,80,-56,-1,-1,0
1523618857003,-524288,80,-56,-1,-1,0
1523618857003,-524288,80,-56,-1,-1,0
1523618857043,-524288,80,-56,-1,-1,0
1523618857043,-589824,80,-56,-1,-1,0
1523618857043,-655360,80,-56,-1,-1,0
1523618857043,-786432,80,-56,-1,-1,0
1523618857043,-786432,80,-56,-1,-1,0
1523618857083,-786432,80,-56,-1,-1,0
1523618857083,-786432,80,-56,-1,-1,0
1523618857083,-851968,80,-56,-1,-1,0
1523618857083,-851968,80,-56,-1,-1,0
1523618857083,-851968,80,-56,-1,-1,0
1523618857123,-851968,80,-56,-1,-1,0
1523618857123,-851968,80,-56,-1,-1,0
1523618857123,-917504,80,-56,-1,-1,0
1523618857123,-917504,80,-56,-1,-1,0
1523618857123,-917504,80,-56,-1,-1,0
1523618857163,-983040,80,-56,-1,-1,0
1523618857163,-983040,80,-56,-1,-1,0
1523618857163,-983040,80,-56,-1,-1,0
1523618857163,-983040,80,-56,-1,-1,0
1523618857163,-983040,80,-56,-1,-1,0
1523618857203,-983040,80,-56,-1,-1,0
1523618857203,-917504,80,-56,-1,-1,0
1523618857203,-917504,80,-56,-1,-1,0
1523618857203,-786432,80,-56,-1,-1,0
1523618857203,-589824,80,-56,-1,-1,0
1523618857243,-393216,80,-56,-1,-1,0
1523618857243,-393216,80,-56,-1,-1,0
1523618857243,-458752,80,-56,-1,-1,0
1523618857243,-458752,80,-56,-1,-1,0
1523618857243,-524288,80,-56,-1,-1,0
1523618857283,-720896,80,-56,-1,-1,0
1523618857283,-851968,80,-56,-1,-1,0
1523618857283,-983040,80,-56,-1,-1,0
1523618857283,-1048576,80,-56,-1,-1,0
1523618857283,-1179648,80,-56,-1,-1,0
1523618857323,-1179648,80,-56,-1,-1,0
1523618857323,-1179648,80,-56,-1,-1,0
1523618857323,-1245184,80,-56,-1,-1,0
1523618857323,-1310720,80,-56,-1,-1,0
1523618857323,-917504,80,-56,-1,-1,0
1523618857363,786432,80,-56,-1,-1,0
1523618857363,3145728,80,-56,-1,-1,0
1523618857363,3866624,80,-56,-1,-1,0
1523618857363,1310720,80,-56,-1,-1,0
1523618857363,-2621440,80,-56,-1,-1,0
1523618857403,-4784128,79,-56,-1,-1,0
1523618857403,-4194304,79,-56,-1,-1,0
1523618857403,-2490368,79,-56,-1,-1,0
1523618857403,-1310720,79,-56,-1,-1,0
1523618857403,-851968,79,-56,-1,-1,0
1523618857443,-720896,79,-56,-1,-1,0
1523618857443,-655360,79,-56,-1,-1,0
1523618857443,-524288,79,-56,-1,-1,0
1523618857443,-458752,79,-56,-1,-1,0
1523618857443,-327680,79,-56,-1,-1,0
1523618857483,-196608,79,-56,-1,-1,0
1523618857483,-65536,79,-56,-1,-1,0
1523618857483,65536,79,-56,-1,-1,0
1523618857483,262144,79,-56,-1,-1,0
1523618857483,458752,79,-56,-1,-1,0
1523618857523,655360,79,-56,-1,-1,0
1523618857523,983040,79,-56,-1,-1,0
1523618857523,1310720,79,-56,-1,-1,0
1523618857523,1572864,79,-56,-1,-1,0
1523618857523,1966080,79,-56,-1,-1,0
1523618857564,2359296,79,-56,-1,-1,0
1523618857564,2752512,79,-56,-1,-1,0
1523618857564,3014656,79,-56,-1,-1,0
1523618857564,3276800,79,-56,-1,-1,0
1523618857564,3407872,79,-56,-1,-1,0
1523618857603,3407872,79,-56,-1,-1,0
1523618857603,3342336,79,-56,-1,-1,0
1523618857603,3080192,79,-56,-1,-1,0
1523618857603,2686976,79,-56,-1,-1,0
1523618857603,2162688,79,-56,-1,-1,0
1523618857643,1638400,79,-56,-1,-1,0
1523618857643,1245184,79,-56,-1,-1,0
1523618857643,851968,79,-56,-1,-1,0
1523618857643,524288,79,-56,-1,-1,0
1523618857643,262144,79,-56,-1,-1,0
1523618857683,65536,79,-56,-1,-1,0
1523618857683,0,79,-56,-1,-1,0
1523618857683,0,79,-56,-1,-1,0
1523618857683,65536,79,-56,-1,-1,0
1523618857683,0,79,-56,-1,-1,0
1523618857723,0,79,-56,-1,-1,0
1523618857723,65536,79,-56,-1,-1,0
1523618857723,65536,79,-56,-1,-1,0
1523618857723,0,79,-56,-1,-1,0
1523618857723,0,79,-56,-1,-1,0
1523618857763,0,79,-56,-1,-1,0
1523618857763,-65536,79,-56,-1,-1,0
1523618857763,-131072,79,-56,-1,-1,0
1523618857763,-131072,79,-56,-1,-1,0
1523618857763,-196608,79,-56,-1,-1,0
1523618857803,-196608,79,-56,-1,-1,0
1523618857803,-262144,79,-56,-1,-1,0
1523618857803,-262144,79,-56,-1,-1,0
1523618857803,-262144,79,-56,-1,-1,0
1523618857803,-262144,79,-56,-1,-1,0
1523618857843,-262144,79,-56,-1,-1,0
1523618857843,-262144,79,-56,-1,-1,0
1523618857843,-262144,79,-56,-1,-1,0
1523618857843,-327680,79,-56,-1,-1,0
1523618857843,-327680,79,-56,-1,-1,0
1523618857883,-327680,79,-56,-1,-1,0
1523618857883,-327680,79,-56,-1,-1,0
1523618857883,-327680,79,-56,-1,-1,0
1523618857883,-327680,79,-56,-1,-1,0
1523618857883,-393216,79,-56,-1,-1,0
1523618857923,-393216,79,-56,-1,-1,0
1523618857923,-393216,79,-56,-1,-1,0
1523618857923,-393216,79,-56,-1,-1,0
1523618857923,-327680,79,-56,-1,-1,0
1523618857923,-262144,79,-56,-1,-1,0
1523618857963,-196608,79,-56,-1,-1,0
1523618857963,0,79,-56,-1,-1,0
1523618857963,131072,79,-56,-1,-1,0
1523618857963,196608,79,-56,-1,-1,0
1523618857963,131072,79,-56,-1,-1,0
1523618858003,65536,79,-56,-1,-1,0
1523618858003,0,79,-56,-1,-1,0
1523618858003,0,79,-56,-1,-1,0
1523618858003,-131072,79,-56,-1,-1,0
1523618858003,-262144,79,-56,-1,-1,0
1523618858043,-458752,79,-56,-1,-1,0
1523618858043,-524288,79,-56,-1,-1,0
1523618858043,-589824,79,-56,-1,-1,0
1523618858043,-589824,79,-56,-1,-1,0
1523618858043,-655360,79,-56,-1,-1,0
1523618858083,-720896,79,-56,-1,-1,0
1523618858083,-524288,79,-56,-1,-1,0
1523618858083,655360,79,-56,-1,-1,0
1523618858083,2752512,79,-56,-1,-1,0
1523618858083,3604480,79,-56,-1,-1,0
1523618858123,1572864,79,-56,-1,-1,0
1523618858123,-1900544,79,-56,-1,-1,0
1523618858123,-4063232,79,-56,-1,-1,0
1523618858123,-3997696,79,-56,-1,-1,0
1523618858123,-2752512,79,-56,-1,-1,0
1523618858163,-1572864,79,-56,-1,-1,0
1523618858163,-917504,79,-56,-1,-1,0
1523618858163,-720896,79,-56,-1,-1,0
1523618858163,-720896,79,-56,-1,-1,0
1523618858163,-655360,79,-56,-1,-1,0
1523618858204,-524288,79,-56,-1,-1,0
1523618858204,-524288,79,-56,-1,-1,0
1523618858204,-458752,79,-56,-1,-1,0
1523618858204,-327680,79,-56,-1,-1,0
1523618858204,-131072,79,-56,-1,-1,0
1523618858243,0,79,-56,-1,-1,0
1523618858243,65536,79,-56,-1,-1,0
1523618858243,196608,79,-56,-1,-1,0
1523618858243,458752,79,-56,-1,-1,0
1523618858243,720896,79,-56,-1,-1,0
1523618858283,1048576,79,-56,-1,-1,0
1523618858283,1376256,79,-56,-1,-1,0
1523618858283,1638400,79,-56,-1,-1,0
1523618858283,1966080,79,-56,-1,-1,0
1523618858283,2293760,79,-56,-1,-1,0
1523618858323,2621440,79,-56,-1,-1,0
1523618858323,2752512,79,-56,-1,-1,0
1523618858323,2818048,79,-56,-1,-1,0
1523618858323,2752512,79,-56,-1,-1,0
1523618858323,2555904,79,-56,-1,-1,0
1523618858363,2162688,79,-56,-1,-1,0
1523618858363,1769472,79,-56,-1,-1,0
1523618858363,1310720,79,-56,-1,-1,0
1523618858363,786432,79,-56,-1,-1,0
1523618858363,262144,79,-56,-1,-1,0
1523618858403,0,79,-56,-1,-1,0
1523618858403,-262144,79,-56,-1,-1,0
1523618858403,-458752,79,-56,-1,-1,0
1523618858403,-524288,79,-56,-1,-1,0
1523618858403,-589824,79,-56,-1,-1,0
1523618858443,-589824,79,-56,-1,-1,0
1523618858443,-589824,79,-56,-1,-1,0
1523618858443,-655360,79,-56,-1,-1,0
1523618858443,-655360,79,-56,-1,-1,0
1523618858443,-589824,79,-56,-1,-1,0
1523618858483,-589824,79,-56,-1,-1,0
1523618858483,-655360,79,-56,-1,-1,0
1523618858483,-720896,79,-56,-1,-1,0
1523618858483,-720896,79,-56,-1,-1,0
1523618858483,-786432,79,-56,-1,-1,0
1523618858523,-851968,79,-56,-1,-1,0
1523618858523,-851968,79,-56,-1,-1,0
1523618858523,-851968,79,-56,-1,-1,0
1523618858523,-851968,79,-56,-1,-1,0
1523618858523,-917504,79,-56,-1,-1,0
1523618858563,-917504,79,-56,-1,-1,0
1523618858563,-917504,79,-56,-1,-1,0
1523618858563,-983040,79,-56,-1,-1,0
1523618858563,-917504,79,-56,-1,-1,0
1523618858563,-917504,79,-56,-1,-1,0
1523618858603,-917504,79,-56,-1,-1,0
1523618858603,-917504,79,-56,-1,-1,0
1523618858603,-851968,79,-56,-1,-1,0
1523618858603,-917504,79,-56,-1,-1,0
1523618858603,-851968,79,-56,-1,-1,0
1523618858643,-851968,79,-56,-1,-1,0
1523618858643,-720896,79,-56,-1,-1,0
1523618858643,-589824,79,-56,-1,-1,0
1523618858643,-393216,79,-56,-1,-1,0
1523618858643,-262144,79,-56,-1,-1,0
1523618858683,-262144,79,-56,-1,-1,0
1523618858683,-262144,79,-56,-1,-1,0
1523618858683,-393216,79,-56,-1,-1,0
1523618858683,-524288,79,-56,-1,-1,0
1523618858683,-720896,79,-56,-1,-1,0
1523618858723,-786432,79,-56,-1,-1,0
1523618858723,-851968,79,-56,-1,-1,0
1523618858723,-983040,79,-56,-1,-1,0
1523618858723,-1048576,79,-56,-1,-1,0
1523618858723,-1048576,79,-56,-1,-1,0
1523618858763,-983040,79,-56,-1,-1,0
1523618858763,-1048576,79,-56,-1,-1,0
1523618858763,-1048576,79,-56,-1,-1,0
1523618858763,-262144,79,-56,-1,-1,0
1523618858763,1835008,79,-56,-1,-1,0
1523618858803,4063232,79,-56,-1,-1,0
1523618858803,3473408,79,-56,-1,-1,0
1523618858803,-196608,79,-56,-1,-1,0
1523618858803,-3866624,79,-56,-1,-1,0
1523618858803,-4849664,79,-56,-1,-1,0
1523618858844,-3670016,79,-56,-1,-1,0
1523618858844,-2097152,79,-56,-1,-1,0
1523618858844,-1114112,79,-56,-1,-1,0
1523618858844,-720896,79,-56,-1,-1,0
1523618858844,-589824,79,-56,-1,-1,0
1523618858883,-458752,79,-56,-1,-1,0
1523618858883,-327680,79,-56,-1,-1,0
1523618858883,-196608,79,-56,-1,-1,0
1523618858883,-131072,79,-56,-1,-1,0
1523618858883,-65536,79,-56,-1,-1,0
1523618858922,65536,79,-56,-1,-1,0
1523618858922,196608,79,-56,-1,-1,0
1523618858922,393216,79,-56,-1,-1,0
1523618858922,589824,79,-56,-1,-1,0
1523618858922,851968,79,-56,-1,-1,0
1523618858962,1179648,79,-56,-1,-1,0
1523618858962,1572864,79,-56,-1,-1,0
1523618858962,1835008,79,-56,-1,-1,0
1523618858962,2228224,79,-56,-1,-1,0
1523618858962,2686976,79,-56,-1,-1,0
1523618859002,3014656,79,-56,-1,-1,0
1523618859002,3342336,79,-56,-1,-1,0
1523618859002,3670016,79,-56,-1,-1,0
1523618859002,3801088,79,-56,-1,-1,0
1523618859002,3735552,79,-56,-1,-1,0
1523618859043,3538944,79,-56,-1,-1,0
1523618859043,3211264,79,-56,-1,-1,0
1523618859043,2686976,79,-56,-1,-1,0
1523618859043,2097152,79,-56,-1,-1,0
1523618859043,1507328,79,-56,-1,-1,0
1523618859083,983040,79,-56,-1,-1,0
1523618859083,524288,79,-56,-1,-1,0
1523618859083,131072,79,-56,-1,-1,0
1523618859083,0,79,-56,-1,-1,0
1523618859083,-131072,79,-56,-1,-1,0
1523618859122,-262144,79,-56,-1,-1,0
1523618859122,-327680,79,-56,-1,-1,0
1523618859122,-327680,79,-56,-1,-1,0
1523618859122,-262144,79,-56,-1,-1,0
1523618859122,-196608,79,-56,-1,-1,0
1523618859162,-196608,79,-56,-1,-1,0
1523618859162,-262144,79,-56,-1,-1,0
1523618859162,-327680,79,-56,-1,-1,0
1523618859162,-327680,79,-56,-1,-1,0
1523618859162,-327680,79,-56,-1,-1,0
1523618859202,-458752,79,-56,-1,-1,0
1523618859202,-524288,79,-56,-1,-1,0
1523618859202,-589824,79,-56,-1,-1,0
1523618859202,-589824,79,-56,-1,-1,0
1523618859202,-655360,79,-56,-1,-1,0
1523618859243,-655360,79,-56,-1,-1,0
1523618859243,-786432,79,-56,-1,-1,0
1523618859243,-851968,79,-56,-1,-1,0
1523618859243,-851968,79,-56,-1,-1,0
1523618859243,-851968,79,-56,-1,-1,0
1523618859282,-851968,79,-56,-1,-1,0
1523618859282,-851968,79,-56,-1,-1,0
1523618859282,-720896,79,-56,-1,-1,0
1523618859282,-589824,79,-56,-1,-1,0
1523618859282,-458752,79,-56,-1,-1,0
1523618859322,-327680,79,-56,-1,-1,0
1523618859322,-327680,79,-56,-1,-1,0
1523618859322,-327680,79,-56,-1,-1,0
1523618859322,-458752,79,-56,-1,-1,0
1523618859322,-720896,79,-56,-1,-1,0
1523618859363,-917504,79,-56,-1,-1,0
1523618859363,-1048576,79,-56,-1,-1,0
1523618859363,-1114112,79,-56,-1,-1,0
1523618859363,-1048576,79,-56,-1,-1,0
1523618859363,-1048576,79,-56,-1,-1,0
1523618859402,-1114112,79,-56,-1,-1,0
1523618859402,-1245184,79,-56,-1,-1,0
1523618859402,-1114112,79,-56,-1,-1,0
1523618859402,-262144,79,-56,-1,-1,0
1523618859402,2031616,79,-56,-1,-1,0
1523618859443,4325376,79,-56,-1,-1,0
1523618859443,3670016,79,-56,-1,-1,0
1523618859443,-131072,79,-56,-1,-1,0
1523618859443,-4063232,79,-56,-1,-1,0
1523618859443,-5177344,79,-56,-1,-1,0
1523618859484,-3997696,79,-56,-1,-1,0
1523618859484,-2490368,79,-56,-1,-1,0
1523618859484,-1376256,79,-56,-1,-1,0
1523618859484,-917504,79,-56,-1,-1,0
1523618859484,-786432,79,-56,-1,-1,0
1523618859523,-655360,79,-56,-1,-1,0
1523618859523,-589824,79,-56,-1,-1,0
1523618859523,-393216,79,-56,-1,-1,0
1523618859523,-327680,79,-56,-1,-1,0
1523618859523,-196608,79,-56,-1,-1,0
1523618859563,-131072,79,-56,-1,-1,0
1523618859563,0,79,-56,-1,-1,0
1523618859563,196608,79,-56,-1,-1,0
1523618859563,458752,79,-56,-1,-1,0
1523618859563,720896,79,-56,-1,-1,0
1523618859603,983040,79,-56,-1,-1,0
1523618859603,1310720,79,-56,-1,-1,0
1523618859603,1703936,79,-56,-1,-1,0
1523618859603,2097152,79,-56,-1,-1,0
1523618859603,2490368,79,-56,-1,-1,0
1523618859642,2949120,79,-56,-1,-1,0
1523618859642,3342336,79,-56,-1,-1,0
1523618859642,3538944,79,-56,-1,-1,0
1523618859642,3538944,79,-56,-1,-1,0
1523618859642,3407872,79,-56,-1,-1,0
1523618859683,3211264,79,-56,-1,-1,0
1523618859683,2752512,79,-56,-1,-1,0
1523618859683,2162688,79,-56,-1,-1,0
1523618859683,1441792,79,-56,-1,-1,0
1523618859683,917504,79,-56,-1,-1,0
1523618859722,458752,79,-56,-1,-1,0
1523618859722,65536,79,-56,-1,-1,0
1523618859722,-196608,79,-56,-1,-1,0
1523618859722,-393216,79,-56,-1,-1,0
1523618859722,-458752,79,-56,-1,-1,0
1523618859763,-524288,79,-56,-1,-1,0
1523618859763,-458752,79,-56,-1,-1,0
1523618859763,-524288,79,-56,-1,-1,0
1523618859763,-524288,79,-56,-1,-1,0
1523618859763,-524288,79,-56,-1,-1,0
1523618859802,-458752,79,-56,-1,-1,0
1523618859802,-524288,79,-56,-1,-1,0
1523618859802,-524288,79,-56,-1,-1,0
1523618859802,-524288,79,-56,-1,-1,0
1523618859802,-524288,79,-56,-1,-1,0
1523618859843,-589824,79,-56,-1,-1,0
1523618859843,-655360,79,-56,-1,-1,0
1523618859843,-720896,79,-56,-1,-1,0
1523618859843,-786432,79,-56,-1,-1,0
1523618859843,-851968,79,-56,-1,-1,0
1523618859882,-983040,79,-56,-1,-1,0
1523618859882,-1048576,79,-56,-1,-1,0
1523618859882,-1048576,79,-56,-1,-1,0
1523618859882,-983040,79,-56,-1,-1,0
1523618859882,-851968,79,-56,-1,-1,0
1523618859923,-917504,79,-56,-1,-1,0
1523618859923,-851968,79,-56,-1,-1,0
1523618859923,-655360,79,-56,-1,-1,0
1523618859923,-524288,79,-56,-1,-1,0
1523618859923,-458752,79,-56,-1,-1,0
1523618859962,-524288,79,-56,-1,-1,0
1523618859962,-589824,79,-56,-1,-1,0
1523618859962,-720896,79,-56,-1,-1,0
1523618859962,-851968,79,-56,-1,-1,0
1523618859962,-983040,79,-56,-1,-1,0
1523618860003,-1114112,79,-56,-1,-1,0
1523618860003,-1179648,79,-56,-1,-1,0
1523618860003,-1245184,79,-56,-1,-1,0
1523618860003,-1310720,79,-56,-1,-1,0
1523618860003,-1441792,79,-56,-1,-1,0
1523618860042,-1441792,79,-56,-1,-1,0
1523618860042,-1376256,79,-56,-1,-1,0
1523618860042,-589824,79,-56,-1,-1,0
1523618860042,1441792,79,-56,-1,-1,0
1523618860042,3604480,79,-56,-1,-1,0
1523618860083,3276800,79,-56,-1,-1,0
1523618860083,-131072,79,-56,-1,-1,0
1523618860083,-3801088,79,-56,-1,-1,0
1523618860083,-5046272,79,-56,-1,-1,0
1523618860083,-3932160,79,-56,-1,-1,0
1523618860124,-2359296,79,-56,-1,-1,0
1523618860124,-1441792,79,-56,-1,-1,0
1523618860124,-1048576,79,-56,-1,-1,0
1523618860124,-983040,79,-56,-1,-1,0
1523618860124,-917504,79,-56,-1,-1,0
1523618860163,-786432,79,-56,-1,-1,0
1523618860163,-720896,79,-56,-1,-1,0
1523618860163,-655360,79,-56,-1,-1,0
1523618860163,-589824,79,-56,-1,-1,0
1523618860163,-393216,79,-56,-1,-1,0
1523618860203,-131072,79,-56,-1,-1,0
1523618860203,65536,79,-56,-1,-1,0
1523618860203,262144,79,-56,-1,-1,0
1523618860203,524288,79,-56,-1,-1,0
1523618860203,851968,79,-56,-1,-1,0
1523618860243,1114112,79,-56,-1,-1,0
1523618860243,1507328,79,-56,-1,-1,0
1523618860243,1900544,79,-56,-1,-1,0
1523618860243,2359296,79,-56,-1,-1,0
1523618860243,2752512,79,-56,-1,-1,0
1523618860283,3014656,79,-56,-1,-1,0
1523618860283,3211264,79,-56,-1,-1,0
1523618860283,3342336,79,-56,-1,-1,0
1523618860283,3276800,79,-56,-1,-1,0
1523618860283,3014656,79,-56,-1,-1,0
1523618860323,2555904,79,-56,-1,-1,0
1523618860323,1900544,79,-56,-1,-1,0
1523618860323,1310720,79,-56,-1,-1,0
1523618860323,786432,79,-56,-1,-1,0
1523618860323,393216,79,-56,-1,-1,0
1523618860362,65536,79,-56,-1,-1,0
1523618860362,-196608,79,-56,-1,-1,0
1523618860362,-327680,79,-56,-1,-1,0
1523618860362,-458752,79,-56,-1,-1,0
1523618860362,-589824,79,-56,-1,-1,0
1523618860403,-589824,79,-56,-1,-1,0
1523618860403,-524288,79,-56,-1,-1,0
1523618860403,-524288,79,-56,-1,-1,0
1523618860403,-458752,79,-56,-1,-1,0
1523618860403,-393216,79,-56,-1,-1,0
1523618860443,-327680,79,-56,-1,-1,0
1523618860443,-327680,79,-56,-1,-1,0
1523618860443,-393216,79,-56,-1,-1,0
1523618860443,-524288,79,-56,-1,-1,0
1523618860443,-589824,79,-56,-1,-1,0
1523618860483,-655360,79,-56,-1,-1,0
1523618860483,-720896,79,-56,-1,-1,0
1523618860483,-720896,79,-56,-1,-1,0
1523618860483,-720896,79,-56,-1,-1,0
1523618860483,-720896,79,-56,-1,-1,0
1523618860523,-786432,79,-56,-1,-1,0
1523618860523,-786432,79,-56,-1,-1,0
1523618860523,-786432,79,-56,-1,-1,0
1523618860523,-786432,79,-56,-1,-1,0
1523618860523,-720896,79,-56,-1,-1,0
1523618860563,-524288,79,-56,-1,-1,0
1523618860563,-327680,79,-56,-1,-1,0
1523618860563,-262144,79,-56,-1,-1,0
1523618860563,-327680,79,-56,-1,-1,0
1523618860563,-393216,79,-56,-1,-1,0
1523618860602,-458752,80,-56,-1,-1,0
1523618860602,-589824,80,-56,-1,-1,0
1523618860602,-720896,80,-56,-1,-1,0
1523618860602,-851968,80,-56,-1,-1,0
1523618860602,-917504,80,-56,-1,-1,0
1523618860643,-983040,80,-56,-1,-1,0
1523618860643,-983040,80,-56,-1,-1,0
1523618860643,-1048576,80,-56,-1,-1,0
1523618860643,-1114112,80,-56,-1,-1,0
1523618860643,-1114112,80,-56,-1,-1,0
1523618860683,-458752,80,-56,-1,-1,0
1523618860683,1441792,80,-56,-1,-1,0
1523618860683,3735552,80,-56,-1,-1,0
1523618860683,3735552,80,-56,-1,-1,0
1523618860683,589824,80,-56,-1,-1,0
1523618860723,-3145728,80,-56,-1,-1,0
1523618860723,-4718592,80,-56,-1,-1,0
1523618860723,-3801088,80,-56,-1,-1,0
1523618860723,-2228224,80,-56,-1,-1,0
1523618860723,-1179648,80,-56,-1,-1,0
1523618860764,-720896,80,-56,-1,-1,0
1523618860764,-589824,80,-56,-1,-1,0
1523618860764,-458752,80,-56,-1,-1,0
1523618860764,-327680,80,-56,-1,-1,0
1523618860764,-262144,80,-56,-1,-1,0
1523618860803,-196608,80,-56,-1,-1,0
1523618860803,-131072,80,-56,-1,-1,0
1523618860803,0,80,-56,-1,-1,0
1523618860803,65536,80,-56,-1,-1,0
1523618860803,262144,80,-56,-1,-1,0
1523618860843,524288,80,-56,-1,-1,0
1523618860843,786432,80,-56,-1,-1,0
1523618860843,1048576,80,-56,-1,-1,0
1523618860843,1376256,80,-56,-1,-1,0
1523618860843,1769472,80,-56,-1,-1,0
1523618860883,2097152,80,-56,-1,-1,0
1523618860883,2490368,80,-56,-1,-1,0
1523618860883,2883584,80,-56,-1,-1,0
1523618860883,3211264,80,-56,-1,-1,0
1523618860883,3473408,80,-56,-1,-1,0
1523618860923,3538944,80,-56,-1,-1,0
1523618860923,3473408,80,-56,-1,-1,0
1523618860923,3211264,80,-56,-1,-1,0
1523618860923,2818048,80,-56,-1,-1,0
1523618860923,2228224,80,-56,-1,-1,0
1523618860964,1638400,80,-56,-1,-1,0
1523618860964,1048576,80,-56,-1,-1,0
1523618860964,589824,80,-56,-1,-1,0
1523618860964,196608,80,-56,-1,-1,0
1523618860964,0,80,-56,-1,-1,0
1523618861003,-262144,80,-56,-1,-1,0
1523618861003,-393216,80,-56,-1,-1,0
1523618861003,-458752,80,-56,-1,-1,0
1523618861003,-458752,80,-56,-1,-1,0
1523618861003,-393216,80,-56,-1,-1,0
1523618861043,-393216,80,-56,-1,-1,0
1523618861043,-327680,80,-56,-1,-1,0
1523618861043,-262144,80,-56,-1,-1,0
1523618861043,-262144,80,-56,-1,-1,0
1523618861043,-262144,80,-56,-1,-1,0
1523618861083,-327680,80,-56,-1,-1,0
1523618861083,-262144,80,-56,-1,-1,0
1523618861083,-327680,80,-56,-1,-1,0
1523618861083,-393216,80,-56,-1,-1,0
1523618861083,-458752,80,-56,-1,-1,0
1523618861123,-524288,80,-56,-1,-1,0
1523618861123,-589824,80,-56,-1,-1,0
1523618861123,-589824,80,-56,-1,-1,0
1523618861123,-589824,80,-56,-1,-1,0
1523618861123,-589824,80,-56,-1,-1,0
1523618861163,-524288,80,-56,-1,-1,0
1523618861163,-393216,80,-56,-1,-1,0
1523618861163,-262144,80,-56,-1,-1,0
1523618861163,-196608,80,-56,-1,-1,0
1523618861163,-196608,80,-56,-1,-1,0
1523618861203,-262144,80,-56,-1,-1,0
1523618861203,-393216,80,-56,-1,-1,0
1523618861203,-524288,80,-56,-1,-1,0
1523618861203,-720896,80,-56,-1,-1,0
1523618861203,-786432,80,-56,-1,-1,0
1523618861243,-851968,81,-56,-1,-1,0
1523618861243,-983040,81,-56,-1,-1,0
1523618861243,-1048576,81,-56,-1,-1,0
1523618861243,-1114112,81,-56,-1,-1,0
1523618861243,-1114112,81,-56,-1,-1,0
1523618861282,-1114112,81,-56,-1,-1,0
1523618861282,-983040,81,-56,-1,-1,0
1523618861282,65536,81,-56,-1,-1,0
1523618861282,2228224,81,-56,-1,-1,0
1523618861282,3538944,81,-56,-1,-1,0
1523618861323,1835008,81,-56,-1,-1,0
1523618861323,-1769472,81,-56,-1,-1,0
1523618861323,-4325376,81,-56,-1,-1,0
1523618861323,-4390912,81,-56,-1,-1,0
1523618861323,-3080192,81,-56,-1,-1,0
1523618861363,-1769472,81,-56,-1,-1,0
1523618861363,-1114112,81,-56,-1,-1,0
1523618861363,-851968,81,-56,-1,-1,0
1523618861363,-720896,81,-56,-1,-1,0
1523618861363,-655360,81,-56,-1,-1,0
1523618861404,-589824,81,-56,-1,-1,0
1523618861404,-458752,81,-56,-1,-1,0
1523618861404,-327680,81,-56,-1,-1,0
1523618861404,-196608,81,-56,-1,-1,0
1523618861404,-65536,81,-56,-1,-1,0
1523618861442,0,81,-56,-1,-1,0
1523618861442,196608,81,-56,-1,-1,0
1523618861442,458752,81,-56,-1,-1,0
1523618861442,720896,81,-56,-1,-1,0
1523618861442,1048576,81,-56,-1,-1,0
1523618861483,1376256,81,-56,-1,-1,0
1523618861483,1703936,81,-56,-1,-1,0
1523618861483,2162688,81,-56,-1,-1,0
1523618861483,2555904,81,-56,-1,-1,0
1523618861483,2883584,81,-56,-1,-1,0
1523618861523,3145728,81,-56,-1,-1,0
1523618861523,3276800,81,-56,-1,-1,0
1523618861523,3276800,81,-56,-1,-1,0
1523618861523,3145728,81,-56,-1,-1,0
1523618861523,2818048,81,-56,-1,-1,0
1523618861563,2359296,81,-56,-1,-1,0
1523618861563,1835008,81,-56,-1,-1,0
1523618861563,1310720,81,-56,-1,-1,0
1523618861563,786432,81,-56,-1,-1,0
1523618861563,393216,81,-56,-1,-1,0
1523618861602,65536,81,-56,-1,-1,0
1523618861602,-65536,81,-56,-1,-1,0
1523618861602,-262144,81,-56,-1,-1,0
1523618861602,-393216,81,-56,-1,-1,0
1523618861602,-393216,81,-56,-1,-1,0
1523618861642,-458752,81,-56,-1,-1,0
1523618861642,-393216,81,-56,-1,-1,0
1523618861642,-393216,81,-56,-1,-1,0
1523618861642,-393216,81,-56,-1,-1,0
1523618861642,-393216,81,-56,-1,-1,0
1523618861682,-327680,81,-56,-1,-1,0
1523618861682,-262144,81,-56,-1,-1,0
1523618861682,-327680,81,-56,-1,-1,0
1523618861682,-393216,81,-56,-1,-1,0
1523618861682,-458752,81,-56,-1,-1,0
1523618861723,-524288,81,-56,-1,-1,0
1523618861723,-589824,81,-56,-1,-1,0
1523618861723,-655360,81,-56,-1,-1,0
1523618861723,-655360,81,-56,-1,-1,0
1523618861723,-720896,81,-56,-1,-1,0
1523618861762,-786432,81,-56,-1,-1,0
1523618861762,-851968,81,-56,-1,-1,0
1523618861762,-786432,81,-56,-1,-1,0
1523618861762,-786432,81,-56,-1,-1,0
1523618861762,-851968,81,-56,-1,-1,0
1523618861802,-851968,81,-56,-1,-1,0
1523618861802,-720896,81,-56,-1,-1,0
1523618861802,-458752,81,-56,-1,-1,0
1523618861802,-393216,81,-56,-1,-1,0
1523618861802,-327680,81,-56,-1,-1,0
1523618861842,-393216,81,-56,-1,-1,0
1523618861842,-458752,81,-56,-1,-1,0
1523618861842,-655360,81,-56,-1,-1,0
1523618861842,-786432,81,-56,-1,-1,0
1523618861842,-983040,81,-56,-1,-1,0
1523618861883,-1048576,83,-56,-1,-1,0
1523618861883,-1114112,83,-56,-1,-1,0
1523618861883,-1179648,83,-56,-1,-1,0
1523618861883,-1179648,83,-56,-1,-1,0
1523618861883,-1245184,83,-56,-1,-1,0
1523618861922,-1310720,83,-56,-1,-1,0
1523618861922,-1245184,83,-56,-1,-1,0
1523618861922,-196608,83,-56,-1,-1,0
1523618861922,2097152,83,-56,-1,-1,0
1523618861922,4128768,83,-56,-1,-1,0
1523618861963,3342336,83,-56,-1,-1,0
1523618861963,-393216,83,-56,-1,-1,0
1523618861963,-3932160,83,-56,-1,-1,0
1523618861963,-4784128,83,-56,-1,-1,0
1523618861963,-3473408,83,-56,-1,-1,0
1523618862002,-2031616,83,-56,-1,-1,0
1523618862002,-1245184,83,-56,-1,-1,0
1523618862002,-983040,83,-56,-1,-1,0
1523618862002,-851968,83,-56,-1,-1,0
1523618862002,-786432,83,-56,-1,-1,0
1523618862044,-655360,83,-56,-1,-1,0
1523618862044,-524288,83,-56,-1,-1,0
1523618862044,-458752,83,-56,-1,-1,0
1523618862044,-327680,83,-56,-1,-1,0
1523618862044,-131072,83,-56,-1,-1,0
1523618862083,0,83,-56,-1,-1,0
1523618862083,131072,83,-56,-1,-1,0
1523618862083,327680,83,-56,-1,-1,0
1523618862083,655360,83,-56,-1,-1,0
1523618862083,983040,83,-56,-1,-1,0
1523618862123,1376256,83,-56,-1,-1,0
1523618862123,1703936,83,-56,-1,-1,0
1523618862123,2097152,83,-56,-1,-1,0
1523618862123,2555904,83,-56,-1,-1,0
1523618862123,3080192,83,-56,-1,-1,0
1523618862163,3407872,83,-56,-1,-1,0
1523618862163,3538944,83,-56,-1,-1,0
1523618862163,3604480,83,-56,-1,-1,0
1523618862163,3473408,83,-56,-1,-1,0
1523618862163,3145728,83,-56,-1,-1,0
1523618862203,2621440,83,-56,-1,-1,0
1523618862203,2031616,83,-56,-1,-1,0
1523618862203,1441792,83,-56,-1,-1,0
1523618862203,851968,83,-56,-1,-1,0
1523618862203,393216,83,-56,-1,-1,0
1523618862243,0,83,-56,-1,-1,0
1523618862243,-262144,83,-56,-1,-1,0
