milliseconds, ECG, ECG HR, PPG, PPG HR, SpO2, PI
15233,1048576,127,-56,-1,-1,0
15266,1048576,127,-56,-1,-1,0
15299,917504,127,-56,-1,-1,0
15333,1048576,127,-56,-1,-1,0
15366,1376256,127,-56,-1,-1,0
15400,1703936,127,-56,-1,-1,0
15433,1245184,127,-56,-1,-1,0
15466,1769472,127,-56,-1,-1,0
15500,2359296,127,-56,-1,-1,0
15533,2752512,127,-56,-1,-1,0
15566,3997696,127,-56,-1,-1,0
15600,3538944,127,-56,-1,-1,0
15633,3080192,127,-56,-1,-1,0
15666,2686976,125,-56,-1,-1,0
15700,2752512,125,-56,-1,-1,0
15733,3342336,125,-56,-1,-1,0
15766,3014656,125,-56,-1,-1,0
15799,2949120,125,-56,-1,-1,0
15833,4521984,125,-56,-1,-1,0
15866,917504,125,-56,-1,-1,0
15900,3276800,125,-56,-1,-1,0
15933,2818048,125,-56,-1,-1,0
15966,2228224,125,-56,-1,-1,0
16000,393216,125,-56,-1,-1,0
16033,-1703936,125,-56,-1,-1,0
16066,-3866624,123,-56,-1,-1,0
16100,-3932160,123,-56,-1,-1,0
16133,-4128768,123,-56,-1,-1,0
16166,-3604480,123,-56,-1,-1,0
16200,-3276800,123,-56,-1,-1,0
16233,-3145728,123,-56,-1,-1,0
16266,-393216,123,-56,-1,-1,0
16300,-3080192,123,-56,-1,-1,0
16333,-2555904,123,-56,-1,-1,0
16366,-2097152,123,-56,-1,-1,0
16400,-1310720,123,-56,-1,-1,0
16433,-983040,123,-56,-1,-1,0
16466,-1507328,122,-56,-1,-1,0
16500,-1638400,122,-56,-1,-1,0
16533,-1835008,122,-56,-1,-1,0
16566,-1900544,122,-56,-1,-1,0
16600,-1572864,122,-56,-1,-1,0
16633,-1638400,122,-56,-1,-1,0
16666,1245184,122,-56,-1,-1,0
16700,-3670016,122,-56,-1,-1,0
16733,-983040,122,-56,-1,-1,0
16766,-720896,122,-56,-1,-1,0
16800,131072,122,-56,-1,-1,0
16833,1114112,122,-56,-1,-1,0
16866,720896,122,-56,-1,-1,0
16900,262144,121,-56,-1,-1,0
16933,393216,121,-56,-1,-1,0
16966,196608,121,-56,-1,-1,0
17000,458752,121,-56,-1,-1,0
17033,327680,121,-56,-1,-1,0
17066,524288,121,-56,-1,-1,0
17100,-983040,121,-56,-1,-1,0
17133,589824,121,-56,-1,-1,0
17166,1048576,121,-56,-1,-1,0
17200,1638400,121,-56,-1,-1,0
17233,2228224,121,-56,-1,-1,0
17266,1900544,121,-56,-1,-1,0
17300,983040,121,-56,-1,-1,0
17333,786432,121,-56,-1,-1,0
17366,458752,121,-56,-1,-1,0
17400,0,121,-56,-1,-1,0
17433,-65536,121,-56,-1,-1,0
17466,-589824,121,-56,-1,-1,0
17500,4259840,121,-56,-1,-1,0
17533,-1835008,121,-56,-1,-1,0
17566,-983040,121,-56,-1,-1,0
17600,-262144,121,-56,-1,-1,0
17633,-65536,121,-56,-1,-1,0
17666,131072,121,-56,-1,-1,0
17700,-589824,120,-56,-1,-1,0
17733,-589824,120,-56,-1,-1,0
17766,-1310720,120,-56,-1,-1,0
17800,-1441792,120,-56,-1,-1,0
17833,-1441792,120,-56,-1,-1,0
17866,-1441792,120,-56,-1,-1,0
17900,-1245184,120,-56,-1,-1,0
17933,-4259840,120,-56,-1,-1,0
17966,-2424832,120,-56,-1,-1,0
18000,-2293760,120,-56,-1,-1,0
18033,-2228224,120,-56,-1,-1,0
18066,-1441792,120,-56,-1,-1,0
18100,-2031616,120,-56,-1,-1,0
18133,-3407872,120,-56,-1,-1,0
18166,-4194304,120,-56,-1,-1,0
18200,-5636096,120,-56,-1,-1,0
18233,-6094848,120,-56,-1,-1,0
18266,-7274496,120,-56,-1,-1,0
18300,-8060928,120,-56,-1,-1,0
18333,-10289152,120,-56,-1,-1,0
18366,-10289152,120,-56,-1,-1,0
18400,-11272192,120,-56,-1,-1,0
18433,-12255232,120,-56,-1,-1,0
18466,-12845056,120,-56,-1,-1,0
18500,-15007744,120,-56,-1,-1,0
18533,-15138816,120,-56,-1,-1,0
18566,-16187392,120,-56,-1,-1,0
18600,-11403264,120,-56,-1,-1,0
18633,-6094848,120,-56,-1,-1,0
18666,-1048576,120,-56,-1,-1,0
18700,3342336,120,-56,-1,-1,0
18733,6225920,120,-56,-1,-1,0
18766,5832704,120,-56,-1,-1,0
18800,7208960,120,-56,-1,-1,0
18833,8847360,120,-56,-1,-1,0
18866,11272192,120,-56,-1,-1,0
18900,11141120,120,-56,-1,-1,0
18933,10551296,120,-56,-1,-1,0
18966,10223616,120,-56,-1,-1,0
19000,9895936,120,-56,-1,-1,0
19033,9043968,120,-56,-1,-1,0
19066,8519680,120,-56,-1,-1,0
19100,7995392,120,-56,-1,-1,0
19133,11730944,120,-56,-1,-1,0
19166,4587520,120,-56,-1,-1,0
19200,5701632,120,-56,-1,-1,0
19233,5177344,120,-56,-1,-1,0
19266,5308416,120,-56,-1,-1,0
19300,5373952,120,-56,-1,-1,0
19333,3932160,120,-56,-1,-1,0
19366,3145728,120,-56,-1,-1,0
19400,2621440,120,-56,-1,-1,0
19433,1703936,120,-56,-1,-1,0
19466,1572864,120,-56,-1,-1,0
19500,1441792,120,-56,-1,-1,0
19533,4456448,120,-56,-1,-1,0
19566,-1179648,120,-56,-1,-1,0
19600,1179648,120,-56,-1,-1,0
19633,1245184,120,-56,-1,-1,0
19666,1703936,120,-56,-1,-1,0
19700,2490368,120,-56,-1,-1,0
19733,1048576,120,-56,-1,-1,0
19766,655360,120,-56,-1,-1,0
19800,458752,120,-56,-1,-1,0
19833,-262144,120,-56,-1,-1,0
19866,-262144,120,-56,-1,-1,0
19900,-393216,120,-56,-1,-1,0
19933,131072,120,-56,-1,-1,0
19966,-3997696,120,-56,-1,-1,0
20000,-786432,120,-56,-1,-1,0
20033,-851968,120,-56,-1,-1,0
20066,0,120,-56,-1,-1,0
20100,917504,120,-56,-1,-1,0
20133,393216,120,-56,-1,-1,0
20166,-262144,120,-56,-1,-1,0
20200,0,120,-56,-1,-1,0
20233,131072,120,-56,-1,-1,0
20266,-65536,120,-56,-1,-1,0
20300,262144,120,-56,-1,-1,0
20333,196608,120,-56,-1,-1,0
20366,3473408,120,-56,-1,-1,0
20400,196608,120,-56,-1,-1,0
20433,720896,120,-56,-1,-1,0
20466,1507328,120,-56,-1,-1,0
20500,2097152,120,-56,-1,-1,0
20533,2883584,120,-56,-1,-1,0
20566,1900544,120,-56,-1,-1,0
20600,1572864,120,-56,-1,-1,0
20633,1900544,120,-56,-1,-1,0
20666,1769472,120,-56,-1,-1,0
20700,1703936,120,-56,-1,-1,0
20733,1441792,120,-56,-1,-1,0
20766,1769472,120,-56,-1,-1,0
20800,-1310720,120,-56,-1,-1,0
20833,524288,120,-56,-1,-1,0
20866,131072,120,-56,-1,-1,0
20900,786432,120,-56,-1,-1,0
20933,1769472,120,-56,-1,-1,0
20966,1048576,120,-56,-1,-1,0
21000,-65536,120,-56,-1,-1,0
21033,-131072,120,-56,-1,-1,0
21066,-196608,120,-56,-1,-1,0
21100,-1048576,120,-56,-1,-1,0
21133,-458752,120,-56,-1,-1,0
21166,-131072,120,-56,-1,-1,0
21200,4718592,120,-56,-1,-1,0
21233,-2162688,120,-56,-1,-1,0
21266,65536,120,-56,-1,-1,0
21300,983040,120,-56,-1,-1,0
21333,2424832,120,-56,-1,-1,0
21366,3670016,120,-56,-1,-1,0
21400,2621440,120,-56,-1,-1,0
21433,2359296,120,-56,-1,-1,0
21466,2621440,120,-56,-1,-1,0
21500,2097152,120,-56,-1,-1,0
21533,1769472,120,-56,-1,-1,0
21566,2228224,120,-56,-1,-1,0
21600,2031616,120,-56,-1,-1,0
21633,4390912,120,-56,-1,-1,0
21666,-1114112,120,-56,-1,-1,0
21700,655360,120,-56,-1,-1,0
21733,327680,120,-56,-1,-1,0
21766,720896,120,-56,-1,-1,0
21800,1900544,120,-56,-1,-1,0
21833,655360,120,-56,-1,-1,0
21866,-65536,120,-56,-1,-1,0
21900,393216,120,-56,-1,-1,0
21933,-262144,120,-56,-1,-1,0
21966,-786432,120,-56,-1,-1,0
22000,-983040,120,-56,-1,-1,0
22033,-1048576,120,-56,-1,-1,0
22066,-1245184,120,-56,-1,-1,0
22100,3014656,120,-56,-1,-1,0
22133,-2097152,120,-56,-1,-1,0
22166,-1310720,120,-56,-1,-1,0
22200,-1441792,120,-56,-1,-1,0
22233,-458752,120,-56,-1,-1,0
22266,-65536,120,-56,-1,-1,0
22300,-1048576,120,-56,-1,-1,0
22333,-1507328,120,-56,-1,-1,0
22366,-1703936,120,-56,-1,-1,0
22400,-1835008,120,-56,-1,-1,0
22433,-2424832,120,-56,-1,-1,0
22466,-2490368,120,-56,-1,-1,0
22500,-2228224,120,-56,-1,-1,0
22533,-2424832,120,-56,-1,-1,0
22566,524288,120,-56,-1,-1,0
22600,-4915200,120,-56,-1,-1,0
22633,-2752512,120,-56,-1,-1,0
22666,-2621440,120,-56,-1,-1,0
22700,-2031616,120,-56,-1,-1,0
22733,-1376256,120,-56,-1,-1,0
22766,-2031616,120,-56,-1,-1,0
22800,-2818048,120,-56,-1,-1,0
22833,-2621440,120,-56,-1,-1,0
22866,-2818048,120,-56,-1,-1,0
22900,-2424832,120,-56,-1,-1,0
22933,-3080192,120,-56,-1,-1,0
22966,-2555904,120,-56,-1,-1,0
23000,-2621440,120,-56,-1,-1,0
23033,-2555904,120,-56,-1,-1,0
23066,-524288,120,-56,-1,-1,0
23100,-2293760,120,-56,-1,-1,0
23133,-851968,120,-56,-1,-1,0
23166,-917504,120,-56,-1,-1,0
23200,786432,120,-56,-1,-1,0
23233,1048576,120,-56,-1,-1,0
23266,786432,120,-56,-1,-1,0
23300,327680,120,-56,-1,-1,0
23333,917504,120,-56,-1,-1,0
23366,1048576,120,-56,-1,-1,0
23400,1179648,120,-56,-1,-1,0
23433,917504,120,-56,-1,-1,0
23466,1245184,120,-56,-1,-1,0
23500,1310720,120,-56,-1,-1,0
23533,3145728,120,-56,-1,-1,0
23566,-1048576,120,-56,-1,-1,0
23600,917504,120,-56,-1,-1,0
23633,1048576,120,-56,-1,-1,0
23666,1572864,120,-56,-1,-1,0
23700,2752512,120,-56,-1,-1,0
23733,1966080,120,-56,-1,-1,0
23766,786432,120,-56,-1,-1,0
23800,458752,120,-56,-1,-1,0
23833,131072,120,-56,-1,-1,0
23866,-196608,120,-56,-1,-1,0
23900,-524288,120,-56,-1,-1,0
23933,-196608,120,-56,-1,-1,0
23966,-524288,120,-56,-1,-1,0
24000,65536,120,-56,-1,-1,0
24033,-2883584,120,-56,-1,-1,0
24066,-589824,120,-56,-1,-1,0
24100,-196608,120,-56,-1,-1,0
24133,458752,120,-56,-1,-1,0
24166,1572864,120,-56,-1,-1,0
24200,1310720,120,-56,-1,-1,0
24233,262144,120,-56,-1,-1,0
24266,589824,120,-56,-1,-1,0
24300,589824,120,-56,-1,-1,0
24333,131072,120,-56,-1,-1,0
24366,65536,120,-56,-1,-1,0
24400,-131072,118,-56,-1,-1,0
24433,0,118,-56,-1,-1,0
24466,-327680,118,-56,-1,-1,0
24500,2949120,118,-56,-1,-1,0
24533,-2162688,118,-56,-1,-1,0
24566,0,118,-56,-1,-1,0
24600,0,118,-56,-1,-1,0
24633,327680,118,-56,-1,-1,0
24666,1376256,118,-56,-1,-1,0
24700,917504,118,-56,-1,-1,0
24733,-65536,118,-56,-1,-1,0
24766,65536,118,-56,-1,-1,0
24800,-131072,118,-56,-1,-1,0
24833,-196608,118,-56,-1,-1,0
24866,-458752,118,-56,-1,-1,0
24900,-458752,115,-56,-1,-1,0
24933,-196608,115,-56,-1,-1,0
24966,-196608,115,-56,-1,-1,0
25000,589824,115,-56,-1,-1,0
25033,-2752512,115,-56,-1,-1,0
25066,-720896,115,-56,-1,-1,0
25100,-524288,115,-56,-1,-1,0
25133,65536,115,-56,-1,-1,0
25166,1114112,115,-56,-1,-1,0
25200,983040,115,-56,-1,-1,0
25233,-327680,115,-56,-1,-1,0
25266,-393216,115,-56,-1,-1,0
25300,-262144,115,-56,-1,-1,0
25333,-655360,115,-56,-1,-1,0
25366,-1048576,115,-56,-1,-1,0
25400,-983040,113,-56,-1,-1,0
25433,-1114112,113,-56,-1,-1,0
25466,-1048576,113,-56,-1,-1,0
25500,3932160,113,-56,-1,-1,0
25533,-2686976,113,-56,-1,-1,0
25566,-983040,113,-56,-1,-1,0
25600,-720896,113,-56,-1,-1,0
25633,65536,113,-56,-1,-1,0
25666,1179648,113,-56,-1,-1,0
25700,65536,113,-56,-1,-1,0
25733,-589824,113,-56,-1,-1,0
25766,-196608,113,-56,-1,-1,0
25800,-458752,113,-56,-1,-1,0
25833,-655360,113,-56,-1,-1,0
25866,-983040,113,-56,-1,-1,0
25900,-786432,111,-56,-1,-1,0
25933,-720896,111,-56,-1,-1,0
25966,-786432,111,-56,-1,-1,0
26000,2686976,111,-56,-1,-1,0
26033,-1245184,111,-56,-1,-1,0
26066,-393216,111,-56,-1,-1,0
26099,0,111,-56,-1,-1,0
26133,786432,111,-56,-1,-1,0
26166,1310720,111,-56,-1,-1,0
26200,327680,111,-56,-1,-1,0
26233,0,111,-56,-1,-1,0
26266,-262144,111,-56,-1,-1,0
26300,-655360,111,-56,-1,-1,0
26333,-917504,111,-56,-1,-1,0
26366,-1245184,111,-56,-1,-1,0
26400,-1114112,108,-56,-1,-1,0
26433,-1245184,108,-56,-1,-1,0
26466,-1245184,108,-56,-1,-1,0
26500,2818048,108,-56,-1,-1,0
26533,-1638400,108,-56,-1,-1,0
26566,-720896,108,-56,-1,-1,0
26599,-327680,108,-56,-1,-1,0
26633,524288,108,-56,-1,-1,0
26666,1638400,108,-56,-1,-1,0
26700,1245184,108,-56,-1,-1,0
26733,589824,108,-56,-1,-1,0
26766,589824,108,-56,-1,-1,0
26800,262144,108,-56,-1,-1,0
26833,131072,108,-56,-1,-1,0
26866,-131072,106,-56,-1,-1,0
26900,-65536,106,-56,-1,-1,0
26933,0,106,-56,-1,-1,0
26966,-262144,106,-56,-1,-1,0
27000,4259840,106,-56,-1,-1,0
27033,-2162688,106,-56,-1,-1,0
27066,-196608,106,-56,-1,-1,0
27099,-262144,106,-56,-1,-1,0
27133,655360,106,-56,-1,-1,0
27166,1769472,106,-56,-1,-1,0
27200,655360,106,-56,-1,-1,0
27233,-262144,106,-56,-1,-1,0
27266,-196608,106,-56,-1,-1,0
27300,-393216,106,-56,-1,-1,0
27333,-458752,106,-56,-1,-1,0
27366,-655360,104,-56,-1,-1,0
27400,-589824,104,-56,-1,-1,0
27433,-589824,104,-56,-1,-1,0
27466,-655360,104,-56,-1,-1,0
27500,1638400,104,-56,-1,-1,0
27533,-983040,104,-56,-1,-1,0
27566,-393216,104,-56,-1,-1,0
27599,131072,104,-56,-1,-1,0
27633,1179648,104,-56,-1,-1,0
27666,1703936,104,-56,-1,-1,0
27700,327680,104,-56,-1,-1,0
27733,0,104,-56,-1,-1,0
27766,131072,104,-56,-1,-1,0
27800,-65536,104,-56,-1,-1,0
27833,-393216,104,-56,-1,-1,0
27866,-851968,104,-56,-1,-1,0
27900,-196608,104,-56,-1,-1,0
27933,-393216,104,-56,-1,-1,0
27966,720896,104,-56,-1,-1,0
28000,-2686976,104,-56,-1,-1,0
28033,-196608,104,-56,-1,-1,0
28066,-65536,104,-56,-1,-1,0
28099,393216,104,-56,-1,-1,0
28133,1638400,104,-56,-1,-1,0
28166,1310720,104,-56,-1,-1,0
28200,0,104,-56,-1,-1,0
28233,0,104,-56,-1,-1,0
28266,-65536,104,-56,-1,-1,0
28300,-196608,104,-56,-1,-1,0
28333,-393216,104,-56,-1,-1,0
28366,-458752,104,-56,-1,-1,0
28400,-327680,103,-56,-1,-1,0
28433,-262144,103,-56,-1,-1,0
28466,-196608,103,-56,-1,-1,0
28500,3932160,103,-56,-1,-1,0
28533,-524288,103,-56,-1,-1,0
28566,0,103,-56,-1,-1,0
28599,393216,103,-56,-1,-1,0
28633,1441792,103,-56,-1,-1,0
28666,2424832,103,-56,-1,-1,0
28700,1507328,103,-56,-1,-1,0
28733,589824,103,-56,-1,-1,0
28766,786432,103,-56,-1,-1,0
28800,524288,103,-56,-1,-1,0
28833,327680,103,-56,-1,-1,0
28866,-65536,103,-56,-1,-1,0
28900,-458752,103,-56,-1,-1,0
28933,-524288,102,-56,-1,-1,0
28966,-720896,102,-56,-1,-1,0
29000,-131072,102,-56,-1,-1,0
29033,-3276800,102,-56,-1,-1,0
29066,-851968,102,-56,-1,-1,0
29099,-524288,102,-56,-1,-1,0
29133,-458752,102,-56,-1,-1,0
29166,1703936,102,-56,-1,-1,0
29200,1179648,102,-56,-1,-1,0
29233,-196608,102,-56,-1,-1,0
29266,262144,102,-56,-1,-1,0
29300,196608,102,-56,-1,-1,0
29333,0,102,-56,-1,-1,0
29366,-65536,102,-56,-1,-1,0
29400,-262144,102,-56,-1,-1,0
29433,-458752,102,-56,-1,-1,0
29466,-393216,102,-56,-1,-1,0
29500,-393216,102,-56,-1,-1,0
29533,2818048,102,-56,-1,-1,0
29566,-2293760,102,-56,-1,-1,0
29599,-589824,102,-56,-1,-1,0
29633,-589824,102,-56,-1,-1,0
29666,65536,102,-56,-1,-1,0
29700,1310720,102,-56,-1,-1,0
29733,655360,102,-56,-1,-1,0
29766,-458752,102,-56,-1,-1,0
29800,-524288,102,-56,-1,-1,0
29833,-589824,102,-56,-1,-1,0
29866,-917504,102,-56,-1,-1,0
29900,-983040,102,-56,-1,-1,0
29933,-1310720,102,-56,-1,-1,0
29966,-720896,101,-56,-1,-1,0
30000,-1245184,101,-56,-1,-1,0
30033,-1310720,101,-56,-1,-1,0
30066,1376256,101,-56,-1,-1,0
30099,-1376256,101,-56,-1,-1,0
30133,-917504,101,-56,-1,-1,0
30166,-524288,101,-56,-1,-1,0
30200,720896,101,-56,-1,-1,0
30233,1638400,101,-56,-1,-1,0
30266,327680,101,-56,-1,-1,0
30300,-262144,101,-56,-1,-1,0
30333,-65536,101,-56,-1,-1,0
30366,-65536,101,-56,-1,-1,0
30400,0,101,-56,-1,-1,0
30433,-196608,101,-56,-1,-1,0
30466,-65536,100,-56,-1,-1,0
30500,131072,100,-56,-1,-1,0
30533,131072,100,-56,-1,-1,0
30566,5832704,100,-56,-1,-1,0
30599,-720896,100,-56,-1,-1,0
30633,393216,100,-56,-1,-1,0
30666,851968,100,-56,-1,-1,0
30700,1769472,100,-56,-1,-1,0
30733,2818048,100,-56,-1,-1,0
30766,1507328,100,-56,-1,-1,0
30800,65536,100,-56,-1,-1,0
30833,65536,100,-56,-1,-1,0
30866,-196608,100,-56,-1,-1,0
30900,-589824,100,-56,-1,-1,0
30933,-655360,100,-56,-1,-1,0
30966,-1048576,100,-56,-1,-1,0
31000,-589824,100,-56,-1,-1,0
31033,-983040,100,-56,-1,-1,0
31066,-196608,100,-56,-1,-1,0
31099,-3670016,100,-56,-1,-1,0
31133,-983040,100,-56,-1,-1,0
31166,-524288,100,-56,-1,-1,0
31200,262144,100,-56,-1,-1,0
31233,1769472,100,-56,-1,-1,0
31266,1703936,100,-56,-1,-1,0
31300,0,100,-56,-1,-1,0
31333,-65536,100,-56,-1,-1,0
31366,-131072,100,-56,-1,-1,0
31400,-589824,100,-56,-1,-1,0
31433,-589824,100,-56,-1,-1,0
31466,-655360,100,-56,-1,-1,0
31500,-720896,100,-56,-1,-1,0
31533,-524288,99,-56,-1,-1,0
31566,-458752,99,-56,-1,-1,0
31599,5767168,99,-56,-1,-1,0
31633,-1572864,99,-56,-1,-1,0
31666,-262144,99,-56,-1,-1,0
31700,0,99,-56,-1,-1,0
31733,983040,99,-56,-1,-1,0
31766,1900544,99,-56,-1,-1,0
31800,1179648,99,-56,-1,-1,0
31833,262144,99,-56,-1,-1,0
31866,-65536,99,-56,-1,-1,0
31900,0,99,-56,-1,-1,0
31933,-393216,99,-56,-1,-1,0
31966,-393216,99,-56,-1,-1,0
32000,-655360,99,-56,-1,-1,0
32033,-655360,98,-56,-1,-1,0
32066,-589824,98,-56,-1,-1,0
32100,-851968,98,-56,-1,-1,0
32133,3473408,98,-56,-1,-1,0
32166,-1245184,98,-56,-1,-1,0
32200,-655360,98,-56,-1,-1,0
32233,-262144,98,-56,-1,-1,0
32266,589824,98,-56,-1,-1,0
32299,1507328,98,-56,-1,-1,0
32333,720896,98,-56,-1,-1,0
32366,196608,98,-56,-1,-1,0
32400,-131072,98,-56,-1,-1,0
32433,-65536,98,-56,-1,-1,0
32466,-327680,98,-56,-1,-1,0
32500,-458752,98,-56,-1,-1,0
32533,-655360,98,-56,-1,-1,0
32566,-458752,98,-56,-1,-1,0
32600,-589824,98,-56,-1,-1,0
32633,-655360,98,-56,-1,-1,0
32666,-2752512,98,-56,-1,-1,0
32700,-786432,98,-56,-1,-1,0
32733,-1179648,98,-56,-1,-1,0
32766,-393216,98,-56,-1,-1,0
32800,1048576,98,-56,-1,-1,0
32833,1310720,98,-56,-1,-1,0
32866,-131072,98,-56,-1,-1,0
32900,-262144,98,-56,-1,-1,0
32933,-524288,98,-56,-1,-1,0
32966,-589824,98,-56,-1,-1,0
33000,-262144,98,-56,-1,-1,0
33033,-655360,98,-56,-1,-1,0
33066,-262144,98,-56,-1,-1,0
33100,-131072,98,-56,-1,-1,0
33133,1572864,98,-56,-1,-1,0
33166,-2883584,98,-56,-1,-1,0
33200,131072,98,-56,-1,-1,0
33233,524288,98,-56,-1,-1,0
33266,1048576,98,-56,-1,-1,0
33300,2228224,98,-56,-1,-1,0
33333,1966080,98,-56,-1,-1,0
33366,1114112,98,-56,-1,-1,0
33400,917504,98,-56,-1,-1,0
33433,589824,98,-56,-1,-1,0
33466,65536,98,-56,-1,-1,0
33500,-131072,98,-56,-1,-1,0
33533,-458752,98,-56,-1,-1,0
33566,-393216,98,-56,-1,-1,0
33600,-589824,98,-56,-1,-1,0
33633,0,98,-56,-1,-1,0
33666,-3604480,98,-56,-1,-1,0
33700,-983040,98,-56,-1,-1,0
33733,-851968,98,-56,-1,-1,0
33766,-458752,98,-56,-1,-1,0
33800,393216,98,-56,-1,-1,0
33833,458752,98,-56,-1,-1,0
33866,-262144,98,-56,-1,-1,0
33900,-327680,98,-56,-1,-1,0
33933,-589824,98,-56,-1,-1,0
33966,-786432,98,-56,-1,-1,0
34000,-786432,98,-56,-1,-1,0
34033,-786432,98,-56,-1,-1,0
34066,-524288,98,-56,-1,-1,0
34100,-524288,98,-56,-1,-1,0
34133,2490368,98,-56,-1,-1,0
34166,-2818048,98,-56,-1,-1,0
34200,-327680,98,-56,-1,-1,0
34233,0,98,-56,-1,-1,0
34266,589824,98,-56,-1,-1,0
34300,1703936,98,-56,-1,-1,0
34333,1179648,98,-56,-1,-1,0
34366,262144,98,-56,-1,-1,0
34400,262144,98,-56,-1,-1,0
34433,0,98,-56,-1,-1,0
34466,-327680,98,-56,-1,-1,0
34500,-589824,98,-56,-1,-1,0
34533,-655360,98,-56,-1,-1,0
34566,-589824,98,-56,-1,-1,0
34600,-589824,98,-56,-1,-1,0
34633,3932160,98,-56,-1,-1,0
34666,-1245184,98,-56,-1,-1,0
34700,-393216,98,-56,-1,-1,0
34733,-131072,98,-56,-1,-1,0
34766,589824,98,-56,-1,-1,0
34800,1245184,98,-56,-1,-1,0
34833,589824,98,-56,-1,-1,0
34866,196608,98,-56,-1,-1,0
34900,0,98,-56,-1,-1,0
34933,-327680,98,-56,-1,-1,0
34966,-458752,98,-56,-1,-1,0
35000,-655360,98,-56,-1,-1,0
35033,-393216,98,-56,-1,-1,0
35066,-589824,98,-56,-1,-1,0
35100,-524288,98,-56,-1,-1,0
35133,-2162688,98,-56,-1,-1,0
35166,-786432,98,-56,-1,-1,0
35200,-524288,98,-56,-1,-1,0
35233,-65536,98,-56,-1,-1,0
35266,917504,98,-56,-1,-1,0
35300,1179648,98,-56,-1,-1,0
35333,524288,98,-56,-1,-1,0
35366,196608,98,-56,-1,-1,0
35400,-131072,98,-56,-1,-1,0
35433,-196608,98,-56,-1,-1,0
35466,-262144,98,-56,-1,-1,0
35500,-196608,98,-56,-1,-1,0
35533,-196608,98,-56,-1,-1,0
35566,-65536,98,-56,-1,-1,0
35600,3604480,98,-56,-1,-1,0
35633,-1245184,98,-56,-1,-1,0
35666,-65536,98,-56,-1,-1,0
35700,327680,98,-56,-1,-1,0
35733,1114112,98,-56,-1,-1,0
35766,2031616,98,-56,-1,-1,0
35800,1114112,98,-56,-1,-1,0
35833,458752,98,-56,-1,-1,0
35866,196608,98,-56,-1,-1,0
35900,0,98,-56,-1,-1,0
35933,-327680,98,-56,-1,-1,0
35966,-262144,98,-56,-1,-1,0
36000,-131072,98,-56,-1,-1,0
36033,0,98,-56,-1,-1,0
36066,3932160,98,-56,-1,-1,0
36100,-1966080,98,-56,-1,-1,0
36133,-262144,98,-56,-1,-1,0
36166,524288,98,-56,-1,-1,0
36200,1179648,98,-56,-1,-1,0
36233,2293760,98,-56,-1,-1,0
36266,1703936,98,-56,-1,-1,0
36300,983040,98,-56,-1,-1,0
36333,524288,98,-56,-1,-1,0
36366,458752,98,-56,-1,-1,0
36400,0,98,-56,-1,-1,0
36433,-131072,99,-56,-1,-1,0
36466,-589824,99,-56,-1,-1,0
36500,-393216,99,-56,-1,-1,0
36533,1310720,99,-56,-1,-1,0
36566,-3473408,99,-56,-1,-1,0
36600,-1179648,99,-56,-1,-1,0
36633,-1179648,99,-56,-1,-1,0
36666,-458752,99,-56,-1,-1,0
36700,262144,99,-56,-1,-1,0
36733,0,99,-56,-1,-1,0
36766,-655360,99,-56,-1,-1,0
36800,-917504,99,-56,-1,-1,0
36833,-983040,99,-56,-1,-1,0
36866,-983040,99,-56,-1,-1,0
36900,-851968,100,-56,-1,-1,0
36933,-720896,100,-56,-1,-1,0
36966,-524288,100,-56,-1,-1,0
37000,-393216,100,-56,-1,-1,0
37033,2228224,100,-56,-1,-1,0
37066,-655360,100,-56,-1,-1,0
37100,-65536,100,-56,-1,-1,0
37133,262144,100,-56,-1,-1,0
37166,1376256,100,-56,-1,-1,0
37200,2097152,100,-56,-1,-1,0
37233,983040,100,-56,-1,-1,0
37266,393216,100,-56,-1,-1,0
37300,-65536,100,-56,-1,-1,0
37333,-262144,100,-56,-1,-1,0
37366,-589824,100,-56,-1,-1,0
37400,-786432,100,-56,-1,-1,0
37433,-786432,100,-56,-1,-1,0
37466,-917504,100,-56,-1,-1,0
37500,-720896,100,-56,-1,-1,0
37533,-2228224,100,-56,-1,-1,0
37566,-983040,100,-56,-1,-1,0
37600,-458752,100,-56,-1,-1,0
37633,0,100,-56,-1,-1,0
37666,1310720,100,-56,-1,-1,0
37700,1703936,100,-56,-1,-1,0
37733,65536,100,-56,-1,-1,0
37766,-131072,100,-56,-1,-1,0
37800,-131072,100,-56,-1,-1,0
37833,-589824,100,-56,-1,-1,0
37866,-720896,100,-56,-1,-1,0
37900,-917504,100,-56,-1,-1,0
37933,-720896,101,-56,-1,-1,0
37966,-851968,101,-56,-1,-1,0
38000,-983040,101,-56,-1,-1,0
38033,-2097152,101,-56,-1,-1,0
38066,-1376256,101,-56,-1,-1,0
38100,-1376256,101,-56,-1,-1,0
38133,-1179648,101,-56,-1,-1,0
38166,-458752,101,-56,-1,-1,0
38200,-65536,101,-56,-1,-1,0
38233,-1245184,101,-56,-1,-1,0
38266,-1769472,101,-56,-1,-1,0
38300,-1966080,101,-56,-1,-1,0
38333,-2555904,101,-56,-1,-1,0
38366,-2752512,101,-56,-1,-1,0
38400,-2883584,101,-56,-1,-1,0
38433,-3080192,101,-56,-1,-1,0
38466,-2424832,101,-56,-1,-1,0
38500,-2162688,101,-56,-1,-1,0
38533,-720896,101,-56,-1,-1,0
38566,-4653056,101,-56,-1,-1,0
38600,-1310720,101,-56,-1,-1,0
38633,-917504,101,-56,-1,-1,0
38666,-262144,101,-56,-1,-1,0
38700,983040,101,-56,-1,-1,0
38733,1835008,101,-56,-1,-1,0
38766,1245184,101,-56,-1,-1,0
38800,1376256,101,-56,-1,-1,0
38833,1638400,101,-56,-1,-1,0
38866,1507328,101,-56,-1,-1,0
38900,1507328,101,-56,-1,-1,0
38933,1114112,101,-56,-1,-1,0
38966,851968,101,-56,-1,-1,0
39000,720896,101,-56,-1,-1,0
39033,196608,101,-56,-1,-1,0
39066,589824,101,-56,-1,-1,0
39100,1900544,101,-56,-1,-1,0
39133,-2621440,101,-56,-1,-1,0
39166,262144,101,-56,-1,-1,0
39200,524288,101,-56,-1,-1,0
39233,131072,101,-56,-1,-1,0
39266,1835008,101,-56,-1,-1,0
39300,1638400,101,-56,-1,-1,0
39333,0,101,-56,-1,-1,0
39366,0,101,-56,-1,-1,0
39400,196608,101,-56,-1,-1,0
39433,-393216,101,-56,-1,-1,0
39466,-524288,101,-56,-1,-1,0
39500,-1835008,101,-56,-1,-1,0
39533,-2031616,101,-56,-1,-1,0
39566,-458752,101,-56,-1,-1,0
39600,0,101,-56,-1,-1,0
39633,5439488,101,-56,-1,-1,0
39666,-524288,101,-56,-1,-1,0
39700,655360,101,-56,-1,-1,0
39733,1310720,101,-56,-1,-1,0
39766,1441792,101,-56,-1,-1,0
39800,2293760,101,-56,-1,-1,0
39833,2097152,101,-56,-1,-1,0
39866,851968,101,-56,-1,-1,0
39900,720896,101,-56,-1,-1,0
39933,655360,101,-56,-1,-1,0
39966,393216,101,-56,-1,-1,0
40000,0,101,-56,-1,-1,0
40033,-131072,101,-56,-1,-1,0
40066,-458752,101,-56,-1,-1,0
40100,-65536,101,-56,-1,-1,0
40133,-589824,101,-56,-1,-1,0
40166,786432,101,-56,-1,-1,0
40200,-3342336,101,-56,-1,-1,0
40233,-131072,101,-56,-1,-1,0
40266,131072,101,-56,-1,-1,0
40300,196608,101,-56,-1,-1,0
40333,2031616,101,-56,-1,-1,0
40366,2686976,101,-56,-1,-1,0
40400,1245184,101,-56,-1,-1,0
40433,1048576,101,-56,-1,-1,0
40466,655360,101,-56,-1,-1,0
40500,65536,101,-56,-1,-1,0
40533,-327680,101,-56,-1,-1,0
40566,-589824,101,-56,-1,-1,0
40600,-983040,101,-56,-1,-1,0
40633,-458752,101,-56,-1,-1,0
40666,-720896,101,-56,-1,-1,0
40700,-1245184,101,-56,-1,-1,0
40733,-393216,101,-56,-1,-1,0
40766,-1769472,101,-56,-1,-1,0
40800,-1114112,101,-56,-1,-1,0
40833,-655360,101,-56,-1,-1,0
40866,524288,101,-56,-1,-1,0
40900,1572864,101,-56,-1,-1,0
40933,917504,101,-56,-1,-1,0
40966,0,101,-56,-1,-1,0
41000,524288,101,-56,-1,-1,0
41033,262144,101,-56,-1,-1,0
41066,0,101,-56,-1,-1,0
41100,-131072,101,-56,-1,-1,0
41133,-327680,101,-56,-1,-1,0
41166,-131072,101,-56,-1,-1,0
41200,-131072,100,-56,-1,-1,0
41233,-262144,100,-56,-1,-1,0
41266,720896,100,-56,-1,-1,0
41300,-262144,100,-56,-1,-1,0
41333,-131072,100,-56,-1,-1,0
41366,262144,100,-56,-1,-1,0
41400,1114112,100,-56,-1,-1,0
41433,2097152,100,-56,-1,-1,0
41466,1179648,100,-56,-1,-1,0
41500,458752,100,-56,-1,-1,0
41533,655360,100,-56,-1,-1,0
41566,458752,100,-56,-1,-1,0
41600,65536,100,-56,-1,-1,0
41633,-65536,100,-56,-1,-1,0
41666,-65536,100,-56,-1,-1,0
41700,-458752,100,-56,-1,-1,0
41733,-393216,99,-56,-1,-1,0
41766,-327680,99,-56,-1,-1,0
41800,131072,99,-56,-1,-1,0
41833,-2949120,99,-56,-1,-1,0
41866,-524288,99,-56,-1,-1,0
41900,-65536,99,-56,-1,-1,0
41933,0,99,-56,-1,-1,0
41966,1310720,99,-56,-1,-1,0
42000,2031616,99,-56,-1,-1,0
42033,327680,99,-56,-1,-1,0
42066,-327680,99,-56,-1,-1,0
42100,-327680,99,-56,-1,-1,0
42133,-720896,99,-56,-1,-1,0
42166,-983040,99,-56,-1,-1,0
42200,-917504,99,-56,-1,-1,0
42233,-1310720,99,-56,-1,-1,0
42266,-983040,99,-56,-1,-1,0
42300,-917504,99,-56,-1,-1,0
42333,-917504,98,-56,-1,-1,0
42366,262144,98,-56,-1,-1,0
42400,-1048576,98,-56,-1,-1,0
42433,-524288,98,-56,-1,-1,0
42466,-262144,98,-56,-1,-1,0
42500,655360,98,-56,-1,-1,0
42533,1835008,98,-56,-1,-1,0
42566,786432,98,-56,-1,-1,0
42600,-65536,98,-56,-1,-1,0
42633,0,98,-56,-1,-1,0
42666,-65536,98,-56,-1,-1,0
42700,-327680,98,-56,-1,-1,0
42733,-327680,98,-56,-1,-1,0
42766,-655360,98,-56,-1,-1,0
42800,-327680,98,-56,-1,-1,0
42833,-524288,98,-56,-1,-1,0
42866,-262144,98,-56,-1,-1,0
42900,-196608,98,-56,-1,-1,0
42933,2818048,98,-56,-1,-1,0
42966,-2228224,94,-56,-1,-1,0
43000,0,94,-56,-1,-1,0
43033,196608,94,-56,-1,-1,0
43066,524288,94,-56,-1,-1,0
43100,1703936,94,-56,-1,-1,0
43133,1835008,94,-56,-1,-1,0
43166,655360,94,-56,-1,-1,0
43200,196608,94,-56,-1,-1,0
43233,65536,94,-56,-1,-1,0
43266,-131072,94,-56,-1,-1,0
43300,-524288,94,-56,-1,-1,0
43333,-524288,94,-56,-1,-1,0
43366,-655360,94,-56,-1,-1,0
43400,-655360,94,-56,-1,-1,0
43433,-917504,94,-56,-1,-1,0
43466,-1048576,94,-56,-1,-1,0
43500,-851968,94,-56,-1,-1,0
43533,-196608,94,-56,-1,-1,0
43566,1769472,93,-56,-1,-1,0
43600,-2818048,93,-56,-1,-1,0
43633,-65536,93,-56,-1,-1,0
43666,327680,93,-56,-1,-1,0
43700,-65536,93,-56,-1,-1,0
43733,1638400,93,-56,-1,-1,0
43766,2162688,93,-56,-1,-1,0
43800,1048576,93,-56,-1,-1,0
43833,0,93,-56,-1,-1,0
43866,0,93,-56,-1,-1,0
43900,-393216,93,-56,-1,-1,0
43933,-458752,93,-56,-1,-1,0
43966,-786432,93,-56,-1,-1,0
44000,-1310720,92,-56,-1,-1,0
44033,-917504,92,-56,-1,-1,0
44066,-917504,92,-56,-1,-1,0
44100,-983040,92,-56,-1,-1,0
44133,-196608,92,-56,-1,-1,0
44166,2555904,93,-56,-1,-1,0
44200,-1114112,93,-56,-1,-1,0
44233,262144,93,-56,-1,-1,0
44266,393216,93,-56,-1,-1,0
44300,1114112,93,-56,-1,-1,0
44333,2359296,93,-56,-1,-1,0
44366,1703936,93,-56,-1,-1,0
44400,1245184,93,-56,-1,-1,0
44433,851968,93,-56,-1,-1,0
44466,1703936,93,-56,-1,-1,0
44500,1245184,93,-56,-1,-1,0
44533,327680,93,-56,-1,-1,0
44566,1376256,93,-56,-1,-1,0
44600,2293760,93,-56,-1,-1,0
44633,327680,93,-56,-1,-1,0
44666,1376256,93,-56,-1,-1,0
44700,1966080,93,-56,-1,-1,0
44733,1048576,93,-56,-1,-1,0
44766,2228224,92,-56,-1,-1,0
44800,-1572864,92,-56,-1,-1,0
44833,131072,92,-56,-1,-1,0
44866,-131072,92,-56,-1,-1,0
44900,-393216,92,-56,-1,-1,0
44933,2031616,92,-56,-1,-1,0
44966,2883584,92,-56,-1,-1,0
45000,1572864,92,-56,-1,-1,0
45033,589824,92,-56,-1,-1,0
45066,524288,92,-56,-1,-1,0
45100,327680,92,-56,-1,-1,0
45133,524288,92,-56,-1,-1,0
45166,262144,92,-56,-1,-1,0
45200,65536,92,-56,-1,-1,0
45233,-65536,92,-56,-1,-1,0
45266,-393216,92,-56,-1,-1,0
45300,-196608,92,-56,-1,-1,0
45333,-655360,92,-56,-1,-1,0
45366,3735552,91,-56,-1,-1,0
45400,-589824,91,-56,-1,-1,0
45433,-1114112,91,-56,-1,-1,0
45466,-917504,91,-56,-1,-1,0
45500,-720896,91,-56,-1,-1,0
45533,524288,91,-56,-1,-1,0
45566,-327680,91,-56,-1,-1,0
45600,-1900544,91,-56,-1,-1,0
45633,-1638400,91,-56,-1,-1,0
45666,-1638400,91,-56,-1,-1,0
45700,-2359296,91,-56,-1,-1,0
45733,-2162688,91,-56,-1,-1,0
45766,-2097152,91,-56,-1,-1,0
45800,-2097152,91,-56,-1,-1,0
45833,-2097152,91,-56,-1,-1,0
45866,-1900544,91,-56,-1,-1,0
45900,-1376256,91,-56,-1,-1,0
45933,-1572864,91,-56,-1,-1,0
45966,3670016,91,-56,-1,-1,0
46000,-2162688,90,-56,-1,-1,0
46033,-851968,90,-56,-1,-1,0
46066,-458752,90,-56,-1,-1,0
46100,262144,90,-56,-1,-1,0
46133,1638400,90,-56,-1,-1,0
46166,1835008,90,-56,-1,-1,0
46200,720896,90,-56,-1,-1,0
46233,524288,90,-56,-1,-1,0
46266,655360,90,-56,-1,-1,0
46300,196608,90,-56,-1,-1,0
46333,0,90,-56,-1,-1,0
46366,0,90,-56,-1,-1,0
46400,-196608,90,-56,-1,-1,0
46433,-131072,90,-56,-1,-1,0
46466,-327680,90,-56,-1,-1,0
46500,-196608,90,-56,-1,-1,0
46533,-327680,90,-56,-1,-1,0
46566,-458752,88,-56,-1,-1,0
46600,4718592,88,-56,-1,-1,0
46633,-1507328,88,-56,-1,-1,0
46666,-720896,88,-56,-1,-1,0
46700,-524288,88,-56,-1,-1,0
46733,65536,88,-56,-1,-1,0
46766,1769472,88,-56,-1,-1,0
46800,1441792,88,-56,-1,-1,0
46833,-65536,88,-56,-1,-1,0
46866,-65536,88,-56,-1,-1,0
46900,-65536,88,-56,-1,-1,0
46933,-196608,88,-56,-1,-1,0
46966,-720896,88,-56,-1,-1,0
47000,-655360,88,-56,-1,-1,0
47033,-720896,88,-56,-1,-1,0
47066,-720896,88,-56,-1,-1,0
47100,-720896,88,-56,-1,-1,0
47133,-851968,88,-56,-1,-1,0
47166,3080192,88,-56,-1,-1,0
47200,-2818048,88,-56,-1,-1,0
47233,-851968,88,-56,-1,-1,0
47266,-655360,88,-56,-1,-1,0
47300,-131072,88,-56,-1,-1,0
47333,983040,88,-56,-1,-1,0
47366,1245184,88,-56,-1,-1,0
47400,-131072,88,-56,-1,-1,0
47433,-655360,88,-56,-1,-1,0
47466,-720896,88,-56,-1,-1,0
47500,-1245184,88,-56,-1,-1,0
47533,-1048576,88,-56,-1,-1,0
47566,-1638400,88,-56,-1,-1,0
47600,-2228224,88,-56,-1,-1,0
47633,-1179648,88,-56,-1,-1,0
47666,-786432,88,-56,-1,-1,0
47700,-327680,88,-56,-1,-1,0
47733,-720896,87,-56,-1,-1,0
47766,3997696,87,-56,-1,-1,0
47800,-1900544,87,-56,-1,-1,0
47833,-786432,87,-56,-1,-1,0
47866,0,87,-56,-1,-1,0
47900,131072,87,-56,-1,-1,0
47933,1048576,87,-56,-1,-1,0
47966,1638400,87,-56,-1,-1,0
48000,393216,87,-56,-1,-1,0
48033,-131072,87,-56,-1,-1,0
48066,-196608,87,-56,-1,-1,0
48100,-458752,87,-56,-1,-1,0
48133,-327680,87,-56,-1,-1,0
48166,-458752,87,-56,-1,-1,0
48200,-327680,87,-56,-1,-1,0
48233,-458752,87,-56,-1,-1,0
48266,-196608,87,-56,-1,-1,0
48300,-131072,86,-56,-1,-1,0
48333,-196608,86,-56,-1,-1,0
48366,2097152,86,-56,-1,-1,0
48400,-720896,86,-56,-1,-1,0
48433,0,86,-56,-1,-1,0
48466,-131072,86,-56,-1,-1,0
48500,720896,86,-56,-1,-1,0
48533,1900544,86,-56,-1,-1,0
48566,1310720,86,-56,-1,-1,0
48600,-65536,86,-56,-1,-1,0
48633,65536,86,-56,-1,-1,0
48666,-65536,86,-56,-1,-1,0
48700,-65536,86,-56,-1,-1,0
48733,-393216,86,-56,-1,-1,0
48766,-262144,86,-56,-1,-1,0
48800,-524288,86,-56,-1,-1,0
48833,-393216,86,-56,-1,-1,0
48866,-393216,86,-56,-1,-1,0
48900,65536,86,-56,-1,-1,0
48933,-2686976,86,-56,-1,-1,0
48966,-524288,86,-56,-1,-1,0
49000,-327680,86,-56,-1,-1,0
49033,-131072,86,-56,-1,-1,0
49066,786432,86,-56,-1,-1,0
49100,1441792,86,-56,-1,-1,0
49133,589824,86,-56,-1,-1,0
49166,-65536,86,-56,-1,-1,0
49200,-131072,86,-56,-1,-1,0
49233,-196608,86,-56,-1,-1,0
49266,-524288,86,-56,-1,-1,0
49300,-262144,86,-56,-1,-1,0
49333,-589824,86,-56,-1,-1,0
49366,-327680,86,-56,-1,-1,0
49400,-458752,86,-56,-1,-1,0
49433,-524288,86,-56,-1,-1,0
49466,131072,86,-56,-1,-1,0
49500,-589824,86,-56,-1,-1,0
49533,-262144,86,-56,-1,-1,0
49566,-65536,86,-56,-1,-1,0
49600,655360,86,-56,-1,-1,0
49633,1966080,86,-56,-1,-1,0
49666,1507328,86,-56,-1,-1,0
49700,589824,86,-56,-1,-1,0
49733,327680,86,-56,-1,-1,0
49766,131072,86,-56,-1,-1,0
49800,0,86,-56,-1,-1,0
49833,0,86,-56,-1,-1,0
49866,-131072,86,-56,-1,-1,0
49900,0,86,-56,-1,-1,0
49933,-131072,86,-56,-1,-1,0
49966,-131072,86,-56,-1,-1,0
50000,196608,86,-56,-1,-1,0
