milliseconds, ECG, ECG HR, PPG, PPG HR, SpO2, PI,Landmark_0,Landmark_1,Landmark_2,Landmark_3,Landmark_4,Landmark_5,Landmark_6,Landmark_7,Landmark_8,Landmark_9,Landmark_10,Landmark_11,Landmark_12,Landmark_13,Landmark_14,Landmark_15,Landmark_16,Landmark_17,Landmark_18,Landmark_19,Landmark_20,Landmark_21,Landmark_22,Landmark_23,Landmark_24,Landmark_25,Landmark_26,Landmark_27,Landmark_28,Landmark_29,Landmark_30,Landmark_31,Landmark_32,Landmark_33,Landmark_34,Landmark_35,Landmark_36,Landmark_37,Landmark_38,Landmark_39,Landmark_40,Landmark_41,Landmark_42,Landmark_43,Landmark_44,Landmark_45,Landmark_46,Landmark_47,Landmark_48,Landmark_49,Landmark_50,Landmark_51,Landmark_52,Landmark_53,Landmark_54,Landmark_55,Landmark_56,Landmark_57,Landmark_58,Landmark_59,Landmark_60,Landmark_61,Landmark_62,Landmark_63,Landmark_64,Landmark_65,Landmark_66,Landmark_67,EyeAspectRatio,MouthAspectRatio,LightIntensity,FaceWidthRatio,EyebrowHeight,LipsWidthRatio,LipsHeightRatio,EyeOpening,NoseWidthRatio,NoseHeightRatio,AvgRedForehead,AvgGreenForehead,AvgBlueForehead,AvgRedLips,AvgGreenLips,AvgBlueLips,AvgRedCheeks,AvgGreenCheeks,AvgBlueCheeks
0,-589824,90,-56,-1,-1,0,"(1103, 351)","(1105, 374)","(1110, 396)","(1114, 418)","(1121, 437)","(1135, 454)","(1153, 465)","(1174, 472)","(1197, 473)","(1220, 468)","(1241, 457)","(1258, 444)","(1271, 426)","(1277, 405)","(1278, 382)","(1279, 360)","(1278, 336)","(1111, 330)","(1120, 318)","(1134, 311)","(1150, 311)","(1166, 315)","(1197, 313)","(1212, 305)","(1229, 301)","(1246, 304)","(1259, 315)","(1182, 331)","(1183, 344)","(1183, 356)","(1184, 369)","(1170, 386)","(1178, 388)","(1186, 389)","(1195, 386)","(1204, 383)","(1130, 343)","(1139, 336)","(1150, 335)","(1162, 340)","(1151, 343)","(1140, 344)","(1208, 335)","(1219, 327)","(1230, 326)","(1241, 331)","(1231, 334)","(1220, 335)","(1156, 417)","(1168, 409)","(1179, 404)","(1188, 405)","(1197, 402)","(1211, 404)","(1227, 411)","(1213, 419)","(1201, 423)","(1191, 425)","(1182, 425)","(1170, 424)","(1162, 416)","(1180, 412)","(1189, 412)","(1198, 410)","(1221, 411)","(1200, 414)","(1190, 415)","(1181, 415)",0.24,0.89,53.0,0.37,-0.11,0.4,0.01,-7.0,0.12,0.26,25.7,45.5,89.1,21.8,34.3,88.0,17.64,32.11,65.58
33,-524288,90,-56,-1,-1,0,"(1113, 350)","(1114, 373)","(1118, 394)","(1122, 416)","(1129, 435)","(1142, 451)","(1159, 462)","(1179, 469)","(1202, 471)","(1225, 466)","(1246, 456)","(1264, 442)","(1276, 425)","(1282, 404)","(1284, 381)","(1285, 358)","(1284, 334)","(1120, 332)","(1129, 320)","(1143, 314)","(1159, 313)","(1173, 318)","(1203, 315)","(1218, 307)","(1235, 304)","(1252, 307)","(1265, 317)","(1189, 333)","(1189, 346)","(1190, 358)","(1190, 371)","(1176, 387)","(1184, 389)","(1193, 390)","(1202, 387)","(1210, 384)","(1138, 344)","(1147, 337)","(1158, 336)","(1170, 341)","(1159, 344)","(1148, 345)","(1214, 336)","(1224, 328)","(1236, 328)","(1246, 332)","(1236, 336)","(1225, 337)","(1163, 416)","(1174, 408)","(1186, 403)","(1195, 404)","(1204, 402)","(1217, 404)","(1232, 410)","(1219, 418)","(1206, 422)","(1197, 424)","(1187, 424)","(1175, 422)","(1168, 415)","(1186, 411)","(1195, 411)","(1204, 409)","(1226, 410)","(1205, 413)","(1196, 414)","(1187, 414)",0.26,0.88,53.0,0.37,-0.11,0.4,0.01,-7.5,0.12,0.27,25.1,43.4,89.6,23.3,34.65,87.85,16.17,30.17,62.41
66,-1114112,90,-56,-1,-1,0,"(1121, 352)","(1122, 374)","(1126, 395)","(1130, 415)","(1137, 434)","(1149, 450)","(1166, 461)","(1186, 468)","(1208, 470)","(1230, 466)","(1250, 456)","(1267, 443)","(1280, 426)","(1286, 405)","(1288, 383)","(1288, 361)","(1288, 338)","(1129, 334)","(1137, 322)","(1151, 316)","(1166, 316)","(1181, 320)","(1210, 318)","(1225, 310)","(1241, 308)","(1257, 311)","(1270, 320)","(1196, 334)","(1197, 347)","(1197, 359)","(1197, 372)","(1184, 387)","(1191, 389)","(1200, 390)","(1208, 388)","(1217, 385)","(1147, 345)","(1155, 339)","(1166, 338)","(1177, 343)","(1167, 345)","(1156, 347)","(1221, 338)","(1231, 331)","(1242, 331)","(1252, 335)","(1243, 338)","(1231, 339)","(1171, 416)","(1182, 408)","(1193, 404)","(1201, 405)","(1210, 403)","(1223, 405)","(1238, 411)","(1225, 419)","(1213, 423)","(1203, 425)","(1194, 425)","(1183, 423)","(1176, 415)","(1193, 411)","(1202, 411)","(1211, 410)","(1232, 411)","(1212, 414)","(1203, 415)","(1194, 415)",0.24,0.9,53.0,0.36,-0.11,0.4,0.02,-6.5,0.12,0.27,26.4,44.1,88.1,21.85,34.9,88.45,16.64,30.41,62.23
100,-1114112,90,-56,-1,-1,0,"(1129, 354)","(1131, 376)","(1134, 397)","(1138, 418)","(1146, 436)","(1158, 451)","(1175, 462)","(1194, 470)","(1215, 472)","(1237, 468)","(1256, 458)","(1272, 445)","(1284, 428)","(1290, 408)","(1292, 386)","(1293, 365)","(1292, 342)","(1137, 335)","(1145, 325)","(1158, 319)","(1173, 319)","(1188, 324)","(1217, 322)","(1231, 314)","(1247, 312)","(1263, 314)","(1275, 324)","(1203, 339)","(1203, 351)","(1204, 362)","(1204, 375)","(1191, 390)","(1199, 391)","(1207, 393)","(1215, 390)","(1223, 387)","(1155, 348)","(1163, 342)","(1173, 341)","(1184, 346)","(1174, 349)","(1164, 350)","(1227, 342)","(1237, 335)","(1248, 335)","(1257, 339)","(1248, 342)","(1238, 343)","(1178, 418)","(1188, 409)","(1199, 405)","(1208, 406)","(1217, 404)","(1230, 406)","(1244, 413)","(1232, 422)","(1220, 427)","(1211, 428)","(1201, 428)","(1190, 426)","(1183, 417)","(1200, 413)","(1209, 413)","(1218, 411)","(1238, 413)","(1219, 417)","(1210, 419)","(1201, 419)",0.24,0.91,52.0,0.36,-0.08,0.4,0.02,-7.0,0.12,0.27,23.7,42.9,85.9,25.5,38.5,91.6,17.05,31.35,62.58
133,-1441792,90,-56,-1,-1,0,"(1137, 355)","(1139, 376)","(1142, 396)","(1146, 416)","(1152, 434)","(1164, 449)","(1180, 461)","(1199, 468)","(1220, 470)","(1241, 466)","(1260, 457)","(1276, 444)","(1288, 428)","(1294, 408)","(1296, 387)","(1296, 366)","(1296, 344)","(1145, 337)","(1153, 327)","(1166, 322)","(1180, 322)","(1194, 327)","(1223, 325)","(1236, 318)","(1251, 315)","(1267, 317)","(1279, 326)","(1209, 341)","(1210, 352)","(1210, 364)","(1210, 376)","(1197, 390)","(1205, 392)","(1213, 393)","(1221, 391)","(1229, 388)","(1163, 350)","(1171, 344)","(1181, 343)","(1191, 347)","(1182, 350)","(1172, 351)","(1233, 344)","(1242, 338)","(1253, 337)","(1262, 341)","(1254, 344)","(1243, 345)","(1185, 418)","(1195, 410)","(1206, 406)","(1214, 407)","(1222, 405)","(1235, 407)","(1249, 413)","(1237, 422)","(1226, 426)","(1217, 428)","(1208, 427)","(1196, 425)","(1190, 417)","(1206, 413)","(1215, 413)","(1223, 412)","(1243, 413)","(1224, 417)","(1216, 418)","(1207, 418)",0.24,0.92,52.0,0.35,-0.09,0.4,0.02,-6.0,0.12,0.27,23.8,42.0,84.8,23.7,36.2,89.25,18.41,31.0,64.11
166,-1638400,90,-56,-1,-1,0,"(1145, 356)","(1146, 377)","(1149, 397)","(1152, 416)","(1159, 434)","(1170, 449)","(1186, 461)","(1205, 469)","(1225, 470)","(1246, 466)","(1264, 457)","(1281, 444)","(1292, 428)","(1298, 409)","(1300, 388)","(1300, 368)","(1298, 347)","(1152, 340)","(1160, 330)","(1172, 325)","(1187, 325)","(1200, 330)","(1227, 328)","(1240, 321)","(1256, 318)","(1271, 321)","(1282, 330)","(1215, 345)","(1215, 356)","(1215, 367)","(1215, 379)","(1203, 392)","(1210, 394)","(1218, 396)","(1226, 393)","(1233, 390)","(1169, 353)","(1177, 348)","(1187, 347)","(1197, 351)","(1188, 354)","(1178, 355)","(1237, 348)","(1247, 342)","(1257, 341)","(1266, 345)","(1258, 348)","(1248, 349)","(1191, 419)","(1201, 412)","(1211, 408)","(1219, 409)","(1227, 407)","(1239, 408)","(1252, 415)","(1242, 424)","(1231, 428)","(1222, 429)","(1214, 429)","(1203, 427)","(1196, 418)","(1212, 415)","(1220, 415)","(1228, 413)","(1247, 415)","(1230, 419)","(1221, 420)","(1213, 420)",0.24,0.91,52.0,0.37,-0.08,0.39,0.02,-6.0,0.11,0.27,23.9,41.7,85.7,23.15,36.25,89.6,17.58,30.47,62.76
200,-1376256,90,-56,-1,-1,0,"(1153, 359)","(1154, 379)","(1156, 399)","(1159, 418)","(1165, 435)","(1176, 450)","(1191, 461)","(1209, 469)","(1229, 471)","(1250, 467)","(1269, 458)","(1285, 446)","(1297, 430)","(1303, 411)","(1305, 391)","(1306, 370)","(1305, 349)","(1160, 343)","(1168, 333)","(1179, 328)","(1193, 328)","(1206, 333)","(1234, 332)","(1247, 324)","(1262, 322)","(1277, 325)","(1288, 333)","(1220, 348)","(1220, 359)","(1220, 370)","(1220, 381)","(1208, 394)","(1215, 396)","(1223, 398)","(1231, 395)","(1239, 393)","(1176, 356)","(1184, 351)","(1193, 350)","(1203, 354)","(1194, 357)","(1184, 358)","(1243, 351)","(1252, 345)","(1262, 345)","(1271, 348)","(1263, 351)","(1253, 352)","(1197, 421)","(1206, 414)","(1216, 410)","(1224, 411)","(1232, 409)","(1244, 411)","(1257, 417)","(1246, 426)","(1235, 430)","(1227, 431)","(1218, 431)","(1207, 429)","(1202, 421)","(1217, 417)","(1225, 417)","(1233, 416)","(1252, 417)","(1234, 421)","(1226, 423)","(1218, 423)",0.23,0.93,52.0,0.36,-0.09,0.39,0.02,-6.0,0.12,0.26,24.9,43.2,86.6,23.0,35.9,90.1,16.05,29.88,62.05
233,0,90,-56,-1,-1,0,"(1158, 368)","(1160, 387)","(1162, 405)","(1165, 424)","(1172, 440)","(1182, 455)","(1197, 465)","(1214, 472)","(1233, 473)","(1252, 469)","(1269, 460)","(1284, 449)","(1295, 434)","(1300, 416)","(1301, 397)","(1302, 378)","(1301, 359)","(1166, 351)","(1173, 341)","(1185, 336)","(1199, 335)","(1212, 340)","(1237, 338)","(1250, 332)","(1264, 329)","(1278, 332)","(1288, 341)","(1225, 353)","(1225, 364)","(1226, 375)","(1226, 386)","(1213, 399)","(1220, 401)","(1228, 402)","(1235, 400)","(1243, 397)","(1181, 362)","(1189, 356)","(1198, 355)","(1208, 360)","(1199, 362)","(1189, 363)","(1246, 356)","(1255, 350)","(1265, 350)","(1273, 354)","(1265, 357)","(1256, 357)","(1201, 425)","(1211, 419)","(1221, 415)","(1229, 416)","(1237, 413)","(1248, 415)","(1260, 420)","(1250, 428)","(1240, 432)","(1231, 434)","(1223, 434)","(1212, 432)","(1206, 425)","(1222, 421)","(1230, 422)","(1237, 420)","(1255, 420)","(1238, 424)","(1231, 425)","(1223, 425)",0.25,0.86,52.0,0.37,-0.08,0.41,0.02,-6.5,0.12,0.27,24.6,42.7,87.4,21.75,33.65,89.35,20.82,35.88,76.11
266,-4259840,90,-56,-1,-1,0,"(1162, 368)","(1164, 388)","(1166, 407)","(1170, 426)","(1176, 443)","(1187, 457)","(1202, 468)","(1219, 476)","(1238, 478)","(1257, 475)","(1275, 466)","(1291, 455)","(1302, 440)","(1308, 422)","(1311, 402)","(1312, 382)","(1312, 361)","(1170, 353)","(1178, 344)","(1190, 340)","(1203, 340)","(1216, 345)","(1242, 343)","(1255, 336)","(1270, 334)","(1284, 337)","(1295, 345)","(1230, 358)","(1230, 370)","(1230, 381)","(1230, 392)","(1218, 404)","(1225, 407)","(1232, 408)","(1240, 406)","(1247, 403)","(1186, 366)","(1194, 361)","(1204, 360)","(1213, 364)","(1204, 367)","(1195, 368)","(1251, 361)","(1261, 355)","(1271, 355)","(1279, 359)","(1271, 362)","(1261, 363)","(1206, 429)","(1215, 422)","(1225, 419)","(1233, 420)","(1241, 418)","(1252, 420)","(1265, 425)","(1255, 434)","(1244, 438)","(1236, 439)","(1228, 439)","(1217, 437)","(1211, 429)","(1226, 426)","(1234, 426)","(1242, 425)","(1260, 425)","(1243, 430)","(1235, 431)","(1227, 431)",0.26,0.91,52.0,0.36,-0.06,0.39,0.02,-6.5,0.11,0.28,23.2,41.0,85.0,22.25,35.0,89.0,16.41,31.47,61.7
300,-1638400,90,-56,-1,-1,0,"(1167, 376)","(1168, 395)","(1171, 413)","(1174, 431)","(1180, 448)","(1190, 462)","(1205, 472)","(1221, 480)","(1240, 482)","(1259, 478)","(1277, 470)","(1293, 459)","(1304, 444)","(1310, 427)","(1312, 407)","(1312, 388)","(1312, 368)","(1174, 361)","(1182, 352)","(1193, 347)","(1207, 348)","(1219, 352)","(1244, 350)","(1256, 344)","(1271, 341)","(1285, 344)","(1296, 352)","(1232, 364)","(1232, 375)","(1232, 386)","(1232, 397)","(1220, 409)","(1226, 411)","(1234, 413)","(1242, 410)","(1249, 407)","(1189, 372)","(1196, 367)","(1206, 366)","(1215, 371)","(1206, 373)","(1197, 374)","(1253, 367)","(1262, 361)","(1272, 361)","(1280, 365)","(1272, 368)","(1262, 368)","(1208, 435)","(1217, 428)","(1227, 424)","(1235, 425)","(1243, 423)","(1254, 425)","(1267, 430)","(1256, 438)","(1245, 442)","(1237, 443)","(1229, 443)","(1219, 441)","(1213, 434)","(1228, 431)","(1235, 431)","(1243, 429)","(1262, 430)","(1244, 434)","(1236, 435)","(1229, 435)",0.25,0.89,52.0,0.36,-0.07,0.4,0.02,-6.5,0.11,0.27,23.6,40.9,84.4,22.3,34.3,88.65,20.0,33.52,66.52
333,-917504,90,-56,-1,-1,0,"(1170, 380)","(1171, 399)","(1173, 417)","(1176, 434)","(1182, 451)","(1192, 465)","(1206, 476)","(1222, 483)","(1241, 486)","(1260, 482)","(1277, 474)","(1293, 463)","(1304, 449)","(1310, 431)","(1312, 412)","(1313, 393)","(1312, 373)","(1176, 366)","(1183, 356)","(1195, 352)","(1209, 352)","(1221, 357)","(1246, 355)","(1259, 349)","(1273, 346)","(1288, 349)","(1298, 358)","(1234, 369)","(1234, 380)","(1234, 390)","(1234, 401)","(1221, 414)","(1228, 416)","(1236, 417)","(1243, 415)","(1251, 412)","(1191, 376)","(1199, 371)","(1208, 370)","(1218, 375)","(1209, 377)","(1199, 378)","(1255, 372)","(1264, 366)","(1274, 366)","(1282, 370)","(1274, 373)","(1264, 373)","(1210, 438)","(1219, 432)","(1229, 428)","(1237, 430)","(1244, 427)","(1256, 429)","(1268, 435)","(1257, 443)","(1247, 446)","(1238, 448)","(1230, 448)","(1220, 445)","(1215, 438)","(1229, 435)","(1237, 435)","(1245, 434)","(1263, 435)","(1246, 438)","(1238, 439)","(1230, 439)",0.25,0.91,52.0,0.38,-0.06,0.4,0.02,-6.5,0.11,0.27,23.6,42.0,84.4,21.35,33.6,88.1,20.52,34.05,67.52
366,-196608,90,-56,-1,-1,0,"(1172, 382)","(1172, 401)","(1174, 418)","(1177, 436)","(1182, 453)","(1192, 467)","(1206, 478)","(1223, 486)","(1241, 488)","(1261, 485)","(1278, 477)","(1294, 465)","(1304, 451)","(1310, 433)","(1312, 414)","(1312, 395)","(1312, 375)","(1178, 369)","(1185, 359)","(1196, 355)","(1209, 355)","(1222, 360)","(1246, 358)","(1259, 352)","(1274, 349)","(1288, 352)","(1298, 361)","(1234, 372)","(1234, 382)","(1234, 393)","(1234, 404)","(1222, 416)","(1229, 418)","(1236, 419)","(1244, 417)","(1251, 414)","(1192, 378)","(1200, 374)","(1209, 373)","(1218, 377)","(1209, 379)","(1200, 380)","(1255, 374)","(1264, 368)","(1274, 368)","(1282, 372)","(1274, 375)","(1265, 375)","(1210, 440)","(1220, 434)","(1230, 430)","(1237, 432)","(1245, 430)","(1256, 431)","(1269, 436)","(1258, 445)","(1247, 449)","(1239, 450)","(1231, 450)","(1220, 447)","(1215, 439)","(1230, 437)","(1238, 437)","(1245, 436)","(1264, 437)","(1246, 441)","(1238, 442)","(1230, 442)",0.25,0.89,52.0,0.37,-0.07,0.42,0.02,-6.0,0.12,0.27,24.7,42.0,86.3,22.15,34.8,88.25,16.64,30.82,64.58
400,1114112,90,-56,-1,-1,0,"(1172, 383)","(1172, 402)","(1174, 420)","(1177, 437)","(1183, 454)","(1193, 468)","(1207, 478)","(1223, 486)","(1241, 488)","(1260, 485)","(1278, 476)","(1293, 465)","(1304, 451)","(1310, 433)","(1312, 414)","(1312, 395)","(1312, 375)","(1178, 369)","(1185, 359)","(1197, 355)","(1210, 355)","(1222, 360)","(1246, 358)","(1259, 352)","(1273, 349)","(1287, 352)","(1298, 361)","(1234, 372)","(1234, 383)","(1234, 393)","(1234, 405)","(1222, 416)","(1229, 418)","(1236, 420)","(1244, 418)","(1251, 415)","(1193, 379)","(1200, 374)","(1209, 373)","(1219, 378)","(1210, 380)","(1201, 381)","(1255, 375)","(1264, 369)","(1274, 368)","(1282, 372)","(1274, 375)","(1265, 375)","(1211, 440)","(1220, 434)","(1230, 431)","(1237, 432)","(1245, 430)","(1256, 432)","(1269, 437)","(1258, 445)","(1247, 449)","(1239, 450)","(1231, 450)","(1220, 447)","(1215, 439)","(1230, 437)","(1238, 437)","(1245, 436)","(1264, 437)","(1246, 441)","(1238, 442)","(1230, 442)",0.24,0.92,51.0,0.37,-0.07,0.41,0.02,-6.0,0.12,0.28,23.6,41.5,85.5,21.35,33.85,87.15,18.17,31.47,62.76
433,3866624,90,-56,-1,-1,0,"(1172, 382)","(1172, 400)","(1174, 418)","(1177, 435)","(1182, 452)","(1192, 466)","(1206, 476)","(1223, 483)","(1241, 486)","(1260, 482)","(1278, 474)","(1293, 463)","(1304, 449)","(1310, 431)","(1312, 412)","(1312, 393)","(1311, 374)","(1178, 369)","(1185, 360)","(1196, 355)","(1209, 355)","(1222, 360)","(1245, 358)","(1258, 351)","(1272, 349)","(1287, 351)","(1297, 360)","(1234, 371)","(1234, 382)","(1234, 393)","(1234, 404)","(1222, 415)","(1229, 417)","(1236, 419)","(1243, 416)","(1251, 413)","(1192, 378)","(1199, 373)","(1209, 372)","(1218, 377)","(1209, 379)","(1200, 380)","(1255, 374)","(1264, 368)","(1273, 367)","(1282, 371)","(1274, 374)","(1264, 374)","(1211, 439)","(1220, 433)","(1230, 429)","(1237, 430)","(1245, 428)","(1256, 430)","(1268, 435)","(1257, 443)","(1247, 447)","(1239, 448)","(1231, 448)","(1221, 446)","(1216, 438)","(1230, 436)","(1238, 436)","(1245, 434)","(1263, 435)","(1246, 439)","(1238, 440)","(1230, 440)",0.24,0.89,51.0,0.38,-0.08,0.41,0.02,-6.0,0.12,0.28,23.0,42.5,85.9,22.25,33.8,88.2,19.64,34.05,66.94
466,3014656,90,-56,-1,-1,0,"(1170, 383)","(1171, 402)","(1173, 419)","(1176, 437)","(1182, 452)","(1192, 466)","(1206, 476)","(1222, 484)","(1241, 486)","(1260, 482)","(1277, 474)","(1292, 463)","(1303, 448)","(1308, 431)","(1310, 412)","(1311, 393)","(1310, 373)","(1175, 368)","(1182, 358)","(1194, 354)","(1207, 353)","(1219, 358)","(1243, 356)","(1256, 349)","(1271, 347)","(1285, 349)","(1295, 358)","(1232, 370)","(1232, 380)","(1232, 390)","(1232, 401)","(1220, 414)","(1227, 415)","(1234, 417)","(1242, 414)","(1249, 411)","(1190, 378)","(1197, 373)","(1206, 371)","(1216, 376)","(1207, 378)","(1198, 379)","(1253, 372)","(1262, 366)","(1271, 366)","(1280, 370)","(1272, 373)","(1262, 373)","(1209, 438)","(1218, 431)","(1228, 428)","(1235, 429)","(1243, 427)","(1255, 428)","(1267, 434)","(1256, 442)","(1246, 446)","(1237, 447)","(1229, 447)","(1219, 445)","(1214, 437)","(1228, 434)","(1236, 434)","(1244, 433)","(1262, 434)","(1245, 438)","(1237, 439)","(1229, 439)",0.25,0.92,51.0,0.37,-0.09,0.41,0.02,-6.0,0.12,0.26,23.2,40.8,84.3,21.9,34.7,88.9,19.76,36.17,70.0
500,-65536,90,-56,-1,-1,0,"(1167, 382)","(1168, 401)","(1171, 418)","(1174, 436)","(1180, 452)","(1190, 466)","(1204, 476)","(1221, 483)","(1239, 485)","(1257, 481)","(1274, 472)","(1288, 461)","(1298, 447)","(1303, 430)","(1304, 411)","(1304, 393)","(1304, 374)","(1173, 366)","(1180, 357)","(1192, 352)","(1205, 352)","(1217, 357)","(1242, 355)","(1254, 348)","(1267, 346)","(1281, 348)","(1291, 356)","(1230, 369)","(1230, 379)","(1230, 390)","(1230, 401)","(1219, 413)","(1226, 415)","(1233, 416)","(1240, 414)","(1247, 411)","(1189, 376)","(1196, 371)","(1205, 370)","(1214, 375)","(1206, 377)","(1196, 378)","(1251, 371)","(1260, 365)","(1269, 365)","(1277, 369)","(1270, 372)","(1260, 372)","(1207, 437)","(1216, 430)","(1226, 426)","(1234, 428)","(1241, 425)","(1253, 427)","(1265, 432)","(1255, 441)","(1245, 445)","(1236, 446)","(1228, 446)","(1218, 444)","(1212, 436)","(1227, 433)","(1234, 433)","(1242, 432)","(1260, 433)","(1243, 436)","(1236, 438)","(1228, 438)",0.26,0.91,51.0,0.37,-0.08,0.42,0.02,-6.5,0.12,0.27,22.8,41.1,83.4,22.65,36.05,87.65,20.82,35.52,72.0
533,-589824,90,-56,-1,-1,0,"(1167, 379)","(1168, 398)","(1170, 415)","(1173, 433)","(1178, 450)","(1188, 464)","(1202, 474)","(1218, 482)","(1237, 484)","(1256, 481)","(1274, 472)","(1289, 460)","(1300, 446)","(1306, 428)","(1308, 409)","(1309, 389)","(1308, 369)","(1173, 366)","(1180, 356)","(1191, 352)","(1204, 351)","(1217, 355)","(1241, 354)","(1254, 347)","(1268, 345)","(1283, 348)","(1293, 356)","(1229, 367)","(1229, 378)","(1229, 389)","(1229, 400)","(1217, 412)","(1224, 414)","(1231, 415)","(1239, 413)","(1246, 410)","(1188, 375)","(1195, 370)","(1204, 369)","(1214, 373)","(1205, 376)","(1196, 377)","(1250, 370)","(1259, 364)","(1269, 364)","(1277, 368)","(1269, 371)","(1260, 371)","(1206, 436)","(1215, 429)","(1225, 426)","(1232, 427)","(1240, 425)","(1251, 427)","(1264, 432)","(1252, 440)","(1242, 444)","(1234, 445)","(1226, 445)","(1216, 442)","(1211, 435)","(1225, 432)","(1233, 433)","(1240, 432)","(1259, 432)","(1241, 436)","(1233, 437)","(1225, 437)",0.25,0.9,51.0,0.37,-0.1,0.41,0.02,-6.5,0.12,0.28,24.7,41.9,86.7,20.95,34.2,88.3,19.76,33.41,65.05
566,-1048576,90,-56,-1,-1,0,"(1164, 379)","(1166, 397)","(1168, 415)","(1171, 433)","(1177, 449)","(1188, 463)","(1202, 474)","(1219, 482)","(1237, 484)","(1257, 480)","(1274, 471)","(1289, 459)","(1299, 444)","(1305, 426)","(1307, 406)","(1307, 387)","(1307, 367)","(1171, 365)","(1178, 355)","(1190, 351)","(1203, 351)","(1216, 355)","(1240, 353)","(1253, 346)","(1267, 344)","(1281, 346)","(1292, 355)","(1228, 367)","(1228, 378)","(1228, 388)","(1229, 400)","(1216, 412)","(1223, 414)","(1231, 415)","(1238, 413)","(1246, 409)","(1186, 375)","(1193, 369)","(1202, 368)","(1212, 373)","(1203, 375)","(1193, 376)","(1249, 369)","(1258, 363)","(1268, 363)","(1276, 366)","(1268, 370)","(1258, 370)","(1205, 435)","(1214, 429)","(1224, 425)","(1232, 426)","(1240, 424)","(1252, 426)","(1264, 431)","(1253, 440)","(1242, 444)","(1234, 446)","(1225, 445)","(1215, 443)","(1210, 435)","(1225, 432)","(1233, 432)","(1241, 431)","(1259, 431)","(1241, 436)","(1233, 437)","(1225, 437)",0.25,0.91,51.0,0.37,-0.08,0.41,0.02,-6.5,0.12,0.28,23.9,41.3,84.3,23.05,37.0,91.05,17.23,30.47,63.7
600,-1572864,90,-56,-1,-1,0,"(1163, 376)","(1164, 395)","(1167, 413)","(1170, 431)","(1176, 447)","(1186, 461)","(1200, 472)","(1217, 479)","(1235, 480)","(1254, 477)","(1271, 469)","(1285, 458)","(1296, 444)","(1301, 426)","(1303, 408)","(1304, 389)","(1304, 369)","(1169, 361)","(1177, 352)","(1189, 347)","(1202, 347)","(1215, 351)","(1239, 350)","(1252, 344)","(1266, 342)","(1280, 344)","(1290, 353)","(1228, 364)","(1228, 375)","(1228, 386)","(1228, 397)","(1216, 409)","(1222, 411)","(1230, 412)","(1237, 410)","(1244, 407)","(1185, 371)","(1192, 366)","(1202, 365)","(1211, 370)","(1202, 372)","(1193, 373)","(1248, 367)","(1257, 361)","(1266, 360)","(1275, 364)","(1267, 367)","(1257, 368)","(1203, 433)","(1213, 426)","(1223, 423)","(1230, 424)","(1238, 422)","(1249, 424)","(1262, 429)","(1251, 436)","(1241, 440)","(1233, 442)","(1225, 442)","(1214, 439)","(1208, 432)","(1223, 429)","(1231, 430)","(1239, 428)","(1257, 429)","(1240, 432)","(1232, 433)","(1224, 433)",0.25,0.88,51.0,0.37,-0.07,0.41,0.02,-6.0,0.11,0.28,23.9,41.3,85.2,20.2,32.75,86.1,18.64,33.7,69.82
633,-1572864,90,-56,-1,-1,0,"(1161, 371)","(1162, 390)","(1164, 409)","(1167, 427)","(1174, 443)","(1184, 457)","(1199, 468)","(1215, 475)","(1234, 478)","(1252, 474)","(1270, 466)","(1285, 455)","(1297, 440)","(1304, 423)","(1306, 403)","(1307, 384)","(1307, 363)","(1169, 356)","(1176, 347)","(1187, 343)","(1200, 343)","(1212, 347)","(1239, 345)","(1251, 339)","(1266, 337)","(1280, 340)","(1291, 348)","(1226, 361)","(1226, 372)","(1225, 382)","(1225, 393)","(1214, 406)","(1221, 408)","(1228, 409)","(1235, 407)","(1243, 404)","(1184, 368)","(1191, 363)","(1201, 362)","(1210, 367)","(1201, 369)","(1192, 370)","(1247, 364)","(1256, 358)","(1266, 357)","(1275, 361)","(1267, 364)","(1257, 365)","(1203, 429)","(1212, 423)","(1221, 420)","(1229, 421)","(1236, 419)","(1248, 421)","(1260, 426)","(1250, 434)","(1239, 438)","(1231, 439)","(1223, 439)","(1213, 437)","(1208, 429)","(1222, 426)","(1229, 426)","(1237, 425)","(1255, 426)","(1238, 430)","(1230, 431)","(1223, 431)",0.25,0.94,51.0,0.37,-0.07,0.39,0.02,-6.0,0.11,0.27,23.2,41.8,85.6,20.65,33.35,86.35,16.47,28.76,59.41
666,-1900544,90,-56,-1,-1,0,"(1161, 368)","(1161, 387)","(1163, 405)","(1166, 424)","(1172, 440)","(1182, 455)","(1196, 466)","(1213, 473)","(1231, 475)","(1250, 472)","(1267, 463)","(1282, 451)","(1293, 436)","(1299, 419)","(1300, 399)","(1301, 380)","(1300, 361)","(1167, 354)","(1174, 345)","(1185, 340)","(1198, 340)","(1211, 345)","(1236, 343)","(1248, 337)","(1262, 334)","(1276, 337)","(1286, 345)","(1224, 357)","(1224, 368)","(1224, 379)","(1224, 391)","(1212, 402)","(1219, 405)","(1226, 406)","(1233, 404)","(1241, 401)","(1182, 364)","(1189, 359)","(1198, 358)","(1208, 363)","(1199, 365)","(1190, 366)","(1245, 359)","(1253, 354)","(1263, 353)","(1271, 357)","(1263, 360)","(1254, 360)","(1200, 426)","(1209, 420)","(1219, 417)","(1227, 418)","(1234, 416)","(1246, 418)","(1258, 423)","(1248, 431)","(1237, 435)","(1229, 437)","(1221, 436)","(1211, 434)","(1205, 426)","(1220, 423)","(1227, 424)","(1235, 423)","(1253, 423)","(1236, 427)","(1228, 428)","(1220, 428)",0.25,0.93,51.0,0.37,-0.08,0.41,0.02,-6.0,0.12,0.28,24.2,42.5,86.8,21.55,33.45,89.0,20.58,35.52,72.35
700,-851968,91,-56,-1,-1,0,"(1158, 365)","(1159, 384)","(1161, 403)","(1164, 421)","(1170, 438)","(1181, 452)","(1195, 462)","(1211, 469)","(1229, 471)","(1248, 468)","(1266, 460)","(1281, 448)","(1292, 434)","(1298, 417)","(1300, 397)","(1301, 378)","(1300, 359)","(1165, 350)","(1172, 340)","(1183, 336)","(1197, 336)","(1209, 340)","(1234, 338)","(1247, 332)","(1261, 330)","(1275, 332)","(1286, 341)","(1222, 352)","(1222, 363)","(1222, 374)","(1222, 385)","(1210, 398)","(1216, 400)","(1224, 401)","(1231, 399)","(1239, 396)","(1180, 360)","(1187, 355)","(1196, 354)","(1206, 358)","(1197, 361)","(1187, 362)","(1243, 355)","(1252, 349)","(1262, 349)","(1270, 353)","(1262, 356)","(1252, 356)","(1198, 423)","(1207, 417)","(1217, 413)","(1225, 414)","(1232, 412)","(1244, 414)","(1256, 419)","(1245, 427)","(1235, 430)","(1227, 432)","(1219, 432)","(1208, 430)","(1203, 422)","(1218, 420)","(1225, 420)","(1233, 418)","(1251, 419)","(1234, 422)","(1226, 423)","(1218, 423)",0.25,0.91,51.0,0.37,-0.08,0.4,0.02,-6.5,0.11,0.27,24.4,41.8,88.1,19.6,32.3,87.1,18.05,32.58,65.23
733,-1835008,91,-56,-1,-1,0,"(1156, 360)","(1156, 379)","(1159, 398)","(1162, 416)","(1168, 433)","(1178, 448)","(1192, 459)","(1209, 466)","(1228, 469)","(1247, 465)","(1265, 456)","(1280, 445)","(1291, 430)","(1297, 412)","(1299, 393)","(1300, 373)","(1300, 353)","(1162, 346)","(1170, 336)","(1182, 332)","(1196, 332)","(1208, 336)","(1232, 335)","(1245, 328)","(1260, 326)","(1275, 328)","(1286, 337)","(1220, 349)","(1220, 360)","(1220, 371)","(1220, 383)","(1208, 395)","(1215, 397)","(1222, 398)","(1230, 396)","(1237, 393)","(1177, 356)","(1185, 350)","(1194, 350)","(1204, 355)","(1195, 357)","(1185, 358)","(1242, 352)","(1251, 345)","(1261, 345)","(1270, 349)","(1261, 352)","(1251, 353)","(1195, 419)","(1205, 413)","(1215, 409)","(1223, 411)","(1231, 408)","(1243, 410)","(1256, 415)","(1244, 424)","(1233, 428)","(1225, 429)","(1217, 429)","(1206, 426)","(1200, 419)","(1216, 416)","(1224, 416)","(1231, 415)","(1251, 415)","(1232, 419)","(1225, 420)","(1217, 420)",0.26,0.9,52.0,0.38,-0.08,0.42,0.02,-7.0,0.11,0.28,23.8,41.2,85.8,21.85,34.35,87.85,18.94,33.41,69.35
766,9175040,91,-56,-1,-1,0,"(1155, 357)","(1155, 376)","(1157, 395)","(1160, 413)","(1166, 430)","(1176, 445)","(1190, 456)","(1206, 463)","(1225, 465)","(1245, 462)","(1263, 453)","(1279, 441)","(1290, 426)","(1296, 408)","(1298, 388)","(1298, 369)","(1297, 349)","(1161, 342)","(1168, 332)","(1180, 327)","(1193, 327)","(1206, 332)","(1231, 330)","(1244, 323)","(1259, 321)","(1273, 324)","(1283, 332)","(1219, 345)","(1219, 356)","(1219, 367)","(1219, 378)","(1206, 390)","(1213, 393)","(1221, 394)","(1228, 392)","(1236, 388)","(1176, 352)","(1183, 347)","(1192, 346)","(1202, 350)","(1193, 353)","(1184, 354)","(1240, 347)","(1249, 341)","(1259, 341)","(1268, 345)","(1259, 348)","(1250, 348)","(1194, 416)","(1204, 410)","(1214, 407)","(1222, 408)","(1229, 405)","(1241, 407)","(1253, 412)","(1242, 420)","(1231, 423)","(1223, 425)","(1215, 425)","(1205, 423)","(1199, 416)","(1214, 413)","(1222, 413)","(1230, 412)","(1248, 412)","(1230, 415)","(1223, 417)","(1215, 416)",0.25,0.88,52.0,0.38,-0.08,0.41,0.02,-6.5,0.11,0.27,24.1,43.5,87.9,20.25,32.35,87.05,20.11,35.82,72.11
800,-3211264,91,-56,-1,-1,0,"(1152, 354)","(1153, 373)","(1155, 392)","(1158, 411)","(1164, 428)","(1174, 443)","(1189, 454)","(1206, 462)","(1225, 464)","(1245, 460)","(1263, 451)","(1278, 438)","(1289, 423)","(1295, 404)","(1296, 385)","(1297, 365)","(1296, 345)","(1158, 338)","(1165, 328)","(1178, 324)","(1191, 324)","(1204, 328)","(1229, 327)","(1243, 320)","(1257, 317)","(1272, 320)","(1283, 329)","(1217, 342)","(1217, 353)","(1217, 364)","(1217, 376)","(1205, 388)","(1212, 390)","(1219, 392)","(1227, 389)","(1235, 387)","(1173, 349)","(1181, 343)","(1190, 342)","(1200, 347)","(1191, 350)","(1181, 351)","(1239, 344)","(1248, 338)","(1258, 337)","(1267, 342)","(1258, 345)","(1248, 345)","(1192, 414)","(1202, 407)","(1212, 404)","(1220, 405)","(1228, 403)","(1240, 405)","(1252, 410)","(1241, 418)","(1230, 422)","(1222, 424)","(1214, 423)","(1203, 421)","(1197, 413)","(1213, 411)","(1221, 411)","(1229, 410)","(1247, 410)","(1229, 414)","(1221, 415)","(1213, 415)",0.26,0.89,52.0,0.38,-0.08,0.41,0.02,-7.0,0.12,0.27,22.8,42.7,86.0,21.75,33.45,87.7,20.82,36.76,74.41
833,-1703936,91,-56,-1,-1,0,"(1151, 351)","(1151, 371)","(1153, 389)","(1156, 408)","(1162, 426)","(1172, 441)","(1187, 452)","(1204, 460)","(1223, 462)","(1244, 458)","(1262, 449)","(1278, 437)","(1289, 421)","(1295, 403)","(1297, 383)","(1297, 363)","(1296, 342)","(1156, 336)","(1163, 326)","(1175, 321)","(1189, 321)","(1203, 325)","(1227, 323)","(1241, 317)","(1257, 314)","(1271, 317)","(1282, 327)","(1215, 338)","(1215, 350)","(1215, 361)","(1215, 373)","(1202, 386)","(1210, 388)","(1217, 390)","(1225, 387)","(1233, 384)","(1171, 346)","(1179, 340)","(1188, 339)","(1198, 344)","(1189, 346)","(1179, 347)","(1238, 341)","(1247, 335)","(1257, 334)","(1266, 338)","(1258, 342)","(1248, 342)","(1191, 412)","(1201, 405)","(1211, 402)","(1219, 404)","(1227, 401)","(1239, 403)","(1252, 408)","(1240, 416)","(1229, 419)","(1220, 420)","(1212, 420)","(1202, 418)","(1195, 411)","(1211, 409)","(1219, 409)","(1227, 408)","(1247, 408)","(1228, 411)","(1220, 412)","(1212, 412)",0.26,0.9,52.0,0.38,-0.07,0.42,0.02,-6.5,0.12,0.28,24.8,43.1,89.0,18.75,31.0,85.0,21.88,37.17,75.05
866,-1179648,91,-56,-1,-1,0,"(1147, 346)","(1148, 367)","(1151, 386)","(1154, 406)","(1159, 424)","(1170, 439)","(1185, 451)","(1202, 460)","(1221, 462)","(1242, 459)","(1261, 450)","(1279, 438)","(1292, 423)","(1299, 403)","(1303, 382)","(1304, 361)","(1305, 338)","(1153, 332)","(1161, 322)","(1174, 317)","(1188, 318)","(1201, 322)","(1228, 320)","(1242, 314)","(1258, 311)","(1274, 314)","(1287, 323)","(1214, 336)","(1214, 348)","(1214, 359)","(1213, 372)","(1201, 385)","(1208, 387)","(1216, 389)","(1224, 386)","(1232, 383)","(1169, 343)","(1177, 337)","(1188, 336)","(1198, 342)","(1188, 344)","(1178, 345)","(1238, 338)","(1248, 332)","(1259, 331)","(1268, 336)","(1259, 339)","(1249, 340)","(1189, 410)","(1198, 404)","(1209, 400)","(1217, 401)","(1225, 399)","(1238, 401)","(1251, 407)","(1239, 415)","(1228, 419)","(1218, 420)","(1210, 420)","(1199, 418)","(1194, 410)","(1209, 407)","(1217, 407)","(1226, 406)","(1246, 407)","(1227, 410)","(1218, 411)","(1210, 411)",0.26,0.93,52.0,0.37,-0.07,0.39,0.02,-7.0,0.11,0.28,24.6,42.6,84.4,21.05,31.65,85.95,19.05,33.23,65.88
900,65536,91,-56,-1,-1,0,"(1145, 344)","(1146, 365)","(1149, 385)","(1151, 405)","(1157, 423)","(1168, 439)","(1182, 450)","(1200, 459)","(1220, 461)","(1241, 458)","(1261, 449)","(1279, 437)","(1293, 422)","(1300, 402)","(1303, 381)","(1305, 359)","(1306, 336)","(1151, 330)","(1159, 319)","(1172, 315)","(1187, 315)","(1201, 320)","(1227, 318)","(1242, 311)","(1258, 309)","(1274, 312)","(1287, 321)","(1214, 333)","(1213, 345)","(1213, 357)","(1212, 370)","(1200, 383)","(1207, 385)","(1215, 387)","(1223, 384)","(1231, 381)","(1168, 340)","(1176, 335)","(1187, 334)","(1197, 339)","(1187, 341)","(1177, 342)","(1238, 336)","(1248, 329)","(1259, 329)","(1268, 333)","(1259, 337)","(1248, 337)","(1187, 409)","(1197, 403)","(1208, 399)","(1216, 401)","(1224, 398)","(1237, 400)","(1251, 405)","(1238, 413)","(1226, 417)","(1217, 418)","(1209, 418)","(1198, 416)","(1192, 409)","(1208, 406)","(1216, 407)","(1225, 405)","(1245, 405)","(1225, 408)","(1217, 409)","(1209, 409)",0.26,0.92,52.0,0.36,-0.07,0.39,0.01,-7.0,0.1,0.28,24.2,42.4,86.4,18.75,31.4,84.85,16.52,31.0,64.41
933,2686976,91,-56,-1,-1,0,"(1142, 343)","(1143, 365)","(1146, 385)","(1149, 406)","(1155, 424)","(1166, 440)","(1181, 453)","(1198, 462)","(1219, 465)","(1241, 462)","(1262, 452)","(1279, 439)","(1293, 423)","(1300, 403)","(1304, 381)","(1306, 358)","(1307, 335)","(1148, 329)","(1156, 318)","(1170, 312)","(1185, 312)","(1199, 317)","(1226, 315)","(1242, 308)","(1258, 306)","(1275, 309)","(1288, 319)","(1213, 331)","(1212, 343)","(1212, 355)","(1211, 368)","(1198, 381)","(1206, 384)","(1214, 385)","(1222, 383)","(1231, 380)","(1166, 339)","(1174, 333)","(1184, 332)","(1195, 337)","(1185, 339)","(1174, 341)","(1237, 334)","(1247, 327)","(1258, 327)","(1268, 331)","(1259, 335)","(1248, 335)","(1185, 409)","(1195, 402)","(1206, 399)","(1215, 400)","(1223, 398)","(1236, 400)","(1251, 406)","(1238, 414)","(1226, 418)","(1216, 419)","(1207, 419)","(1196, 416)","(1190, 409)","(1206, 406)","(1215, 407)","(1224, 405)","(1245, 406)","(1225, 408)","(1216, 410)","(1207, 409)",0.25,0.93,53.0,0.36,-0.08,0.4,0.01,-7.0,0.1,0.27,23.6,43.4,87.1,20.15,32.2,86.15,18.64,32.0,64.7
966,4194304,91,-56,-1,-1,0,"(1139, 341)","(1140, 363)","(1142, 384)","(1145, 405)","(1150, 425)","(1161, 442)","(1177, 455)","(1195, 465)","(1216, 468)","(1239, 465)","(1260, 455)","(1278, 441)","(1292, 424)","(1300, 404)","(1303, 381)","(1305, 358)","(1307, 334)","(1146, 327)","(1154, 316)","(1168, 311)","(1183, 311)","(1197, 316)","(1225, 315)","(1241, 308)","(1258, 305)","(1275, 309)","(1288, 319)","(1211, 330)","(1211, 343)","(1210, 356)","(1209, 370)","(1196, 383)","(1203, 386)","(1211, 387)","(1221, 385)","(1229, 382)","(1163, 337)","(1171, 332)","(1182, 331)","(1193, 337)","(1183, 339)","(1172, 340)","(1236, 334)","(1247, 327)","(1258, 326)","(1268, 331)","(1258, 335)","(1247, 335)","(1182, 409)","(1193, 403)","(1204, 401)","(1213, 402)","(1222, 400)","(1235, 402)","(1250, 407)","(1236, 416)","(1224, 420)","(1214, 421)","(1204, 421)","(1193, 418)","(1187, 409)","(1204, 408)","(1213, 408)","(1222, 407)","(1244, 407)","(1223, 411)","(1213, 412)","(1204, 411)",0.26,0.92,53.0,0.36,-0.07,0.4,0.02,-7.5,0.1,0.28,25.3,43.5,88.2,18.8,30.85,85.25,17.7,32.29,65.52
1000,1900544,91,-56,-1,-1,0,"(1134, 341)","(1135, 363)","(1138, 385)","(1140, 407)","(1145, 427)","(1157, 445)","(1172, 459)","(1191, 469)","(1214, 472)","(1238, 468)","(1260, 458)","(1279, 444)","(1292, 426)","(1300, 405)","(1303, 381)","(1305, 357)","(1305, 333)","(1140, 327)","(1149, 316)","(1163, 311)","(1179, 311)","(1194, 316)","(1222, 315)","(1238, 308)","(1255, 305)","(1273, 308)","(1286, 318)","(1207, 331)","(1207, 344)","(1206, 357)","(1206, 372)","(1192, 385)","(1200, 388)","(1208, 390)","(1217, 387)","(1226, 384)","(1158, 338)","(1167, 332)","(1178, 331)","(1189, 337)","(1178, 339)","(1167, 340)","(1233, 334)","(1244, 327)","(1256, 326)","(1266, 331)","(1256, 335)","(1244, 335)","(1178, 413)","(1189, 407)","(1200, 404)","(1209, 406)","(1219, 403)","(1232, 405)","(1247, 410)","(1233, 418)","(1220, 422)","(1210, 424)","(1201, 423)","(1189, 420)","(1183, 413)","(1200, 411)","(1210, 412)","(1219, 410)","(1241, 410)","(1219, 413)","(1210, 414)","(1201, 414)",0.25,0.91,53.0,0.37,-0.07,0.4,0.01,-7.5,0.11,0.29,23.0,42.9,87.5,18.3,31.3,88.55,18.7,33.64,68.88
1033,-262144,91,-56,-1,-1,0,"(1129, 345)","(1130, 367)","(1133, 389)","(1135, 411)","(1141, 432)","(1152, 449)","(1168, 462)","(1187, 471)","(1209, 474)","(1232, 471)","(1253, 461)","(1272, 448)","(1286, 431)","(1294, 410)","(1297, 387)","(1299, 364)","(1300, 340)","(1136, 327)","(1145, 316)","(1159, 311)","(1175, 311)","(1190, 316)","(1220, 315)","(1235, 308)","(1253, 306)","(1270, 310)","(1283, 320)","(1205, 332)","(1204, 346)","(1203, 359)","(1202, 373)","(1188, 387)","(1196, 390)","(1205, 391)","(1214, 389)","(1223, 386)","(1154, 340)","(1163, 334)","(1174, 333)","(1185, 339)","(1174, 341)","(1163, 342)","(1231, 336)","(1242, 329)","(1253, 329)","(1264, 334)","(1254, 337)","(1242, 338)","(1174, 417)","(1185, 410)","(1196, 407)","(1205, 408)","(1214, 406)","(1227, 408)","(1242, 414)","(1229, 422)","(1217, 426)","(1207, 428)","(1198, 427)","(1186, 425)","(1179, 417)","(1197, 414)","(1206, 415)","(1215, 414)","(1236, 414)","(1216, 416)","(1207, 418)","(1198, 417)",0.25,0.91,53.0,0.37,-0.06,0.39,0.01,-7.5,0.1,0.28,23.8,44.9,90.7,18.5,31.95,90.2,20.7,36.94,72.94
1066,-458752,91,-56,-1,-1,0,"(1124, 345)","(1124, 369)","(1127, 391)","(1130, 414)","(1136, 435)","(1147, 454)","(1164, 468)","(1183, 479)","(1207, 482)","(1230, 477)","(1252, 466)","(1271, 452)","(1285, 433)","(1293, 412)","(1296, 388)","(1297, 364)","(1297, 339)","(1130, 329)","(1139, 318)","(1154, 313)","(1170, 314)","(1186, 319)","(1216, 318)","(1232, 310)","(1249, 307)","(1267, 310)","(1280, 321)","(1200, 335)","(1200, 349)","(1199, 363)","(1199, 378)","(1184, 392)","(1192, 395)","(1201, 397)","(1211, 394)","(1220, 391)","(1148, 342)","(1157, 336)","(1169, 335)","(1180, 341)","(1169, 344)","(1158, 345)","(1227, 338)","(1238, 331)","(1250, 331)","(1261, 335)","(1251, 339)","(1239, 340)","(1170, 423)","(1182, 417)","(1193, 414)","(1202, 416)","(1212, 413)","(1225, 414)","(1241, 419)","(1227, 428)","(1214, 432)","(1204, 433)","(1195, 433)","(1183, 431)","(1176, 423)","(1194, 421)","(1203, 422)","(1212, 420)","(1235, 420)","(1213, 422)","(1204, 424)","(1195, 423)",0.25,0.9,53.0,0.38,-0.06,0.41,0.01,-8.0,0.11,0.29,25.0,44.4,90.2,17.3,29.9,86.4,21.29,36.7,75.52
1100,-917504,91,-56,-1,-1,0,"(1117, 344)","(1117, 369)","(1119, 393)","(1122, 416)","(1129, 439)","(1141, 458)","(1157, 475)","(1177, 487)","(1201, 491)","(1226, 487)","(1249, 475)","(1270, 459)","(1285, 439)","(1294, 416)","(1298, 390)","(1300, 364)","(1300, 337)","(1123, 328)","(1132, 317)","(1147, 313)","(1163, 314)","(1179, 321)","(1211, 320)","(1228, 312)","(1246, 309)","(1265, 312)","(1279, 322)","(1195, 338)","(1194, 353)","(1193, 368)","(1193, 384)","(1179, 397)","(1187, 401)","(1196, 403)","(1205, 400)","(1215, 397)","(1143, 344)","(1152, 338)","(1164, 337)","(1176, 343)","(1164, 346)","(1152, 347)","(1223, 341)","(1235, 334)","(1247, 333)","(1258, 338)","(1248, 343)","(1235, 343)","(1165, 428)","(1176, 422)","(1188, 420)","(1197, 422)","(1207, 419)","(1221, 420)","(1236, 425)","(1222, 435)","(1209, 439)","(1199, 441)","(1189, 440)","(1177, 437)","(1171, 427)","(1188, 427)","(1198, 428)","(1207, 427)","(1230, 426)","(1208, 429)","(1198, 430)","(1189, 430)",0.27,0.93,54.0,0.37,-0.04,0.38,0.01,-8.5,0.1,0.3,26.3,45.1,89.3,17.95,29.3,83.65,19.52,33.7,67.52
1133,-1376256,91,-56,-1,-1,0,"(1107, 346)","(1108, 373)","(1111, 397)","(1116, 421)","(1123, 444)","(1135, 464)","(1152, 480)","(1172, 493)","(1196, 497)","(1221, 493)","(1245, 482)","(1267, 467)","(1284, 447)","(1294, 422)","(1299, 396)","(1302, 368)","(1303, 339)","(1114, 329)","(1124, 318)","(1140, 314)","(1157, 316)","(1172, 323)","(1207, 322)","(1225, 314)","(1244, 310)","(1264, 313)","(1279, 323)","(1189, 343)","(1188, 358)","(1187, 374)","(1187, 390)","(1172, 403)","(1180, 407)","(1190, 409)","(1200, 406)","(1210, 402)","(1135, 348)","(1145, 342)","(1157, 342)","(1170, 347)","(1157, 351)","(1145, 351)","(1218, 345)","(1231, 338)","(1244, 338)","(1255, 342)","(1244, 347)","(1231, 347)","(1160, 434)","(1171, 428)","(1182, 426)","(1192, 428)","(1201, 425)","(1216, 426)","(1232, 431)","(1217, 441)","(1204, 446)","(1193, 447)","(1183, 447)","(1171, 443)","(1166, 434)","(1183, 433)","(1192, 434)","(1202, 433)","(1225, 431)","(1202, 435)","(1192, 436)","(1183, 436)",0.24,0.96,54.0,0.36,-0.04,0.36,0.01,-9.0,0.1,0.3,25.7,44.1,88.4,17.8,29.7,82.6,19.17,32.76,64.94
1166,-1179648,91,-56,-1,-1,0,"(1100, 352)","(1101, 379)","(1104, 404)","(1108, 429)","(1115, 452)","(1128, 472)","(1146, 488)","(1166, 501)","(1191, 505)","(1217, 500)","(1241, 488)","(1263, 472)","(1279, 452)","(1289, 427)","(1293, 400)","(1295, 373)","(1296, 344)","(1108, 337)","(1118, 325)","(1134, 321)","(1151, 322)","(1168, 329)","(1200, 327)","(1218, 319)","(1238, 315)","(1257, 318)","(1273, 328)","(1183, 346)","(1183, 362)","(1182, 378)","(1181, 395)","(1166, 409)","(1174, 412)","(1184, 415)","(1195, 412)","(1205, 408)","(1128, 353)","(1138, 347)","(1150, 346)","(1163, 352)","(1151, 355)","(1138, 356)","(1213, 349)","(1225, 342)","(1238, 342)","(1250, 346)","(1239, 350)","(1226, 351)","(1153, 440)","(1164, 435)","(1176, 432)","(1186, 434)","(1196, 431)","(1211, 433)","(1228, 438)","(1212, 448)","(1198, 453)","(1187, 455)","(1177, 454)","(1165, 450)","(1159, 440)","(1177, 440)","(1186, 441)","(1196, 439)","(1221, 438)","(1197, 442)","(1187, 444)","(1177, 443)",0.23,0.96,55.0,0.36,-0.05,0.38,0.01,-8.0,0.11,0.3,26.4,45.2,92.0,17.45,28.85,81.5,20.47,34.52,69.17
1200,-2031616,91,-56,-1,-1,0,"(1093, 356)","(1094, 383)","(1097, 408)","(1100, 434)","(1107, 458)","(1120, 479)","(1138, 496)","(1159, 509)","(1184, 513)","(1211, 509)","(1236, 496)","(1258, 480)","(1274, 458)","(1284, 433)","(1288, 406)","(1291, 378)","(1292, 349)","(1101, 340)","(1111, 328)","(1127, 323)","(1144, 324)","(1161, 331)","(1194, 330)","(1213, 321)","(1233, 319)","(1253, 322)","(1268, 333)","(1177, 349)","(1176, 365)","(1175, 381)","(1174, 398)","(1159, 413)","(1167, 416)","(1177, 419)","(1188, 416)","(1198, 412)","(1121, 356)","(1131, 351)","(1143, 351)","(1156, 355)","(1144, 358)","(1131, 359)","(1207, 353)","(1219, 347)","(1232, 347)","(1244, 351)","(1233, 355)","(1220, 355)","(1145, 446)","(1157, 440)","(1169, 437)","(1179, 439)","(1189, 436)","(1204, 438)","(1221, 443)","(1205, 455)","(1191, 460)","(1180, 461)","(1170, 460)","(1157, 456)","(1151, 446)","(1169, 445)","(1179, 446)","(1189, 444)","(1214, 444)","(1190, 448)","(1180, 449)","(1170, 448)",0.21,0.94,55.0,0.36,-0.05,0.38,0.02,-7.5,0.1,0.29,27.3,47.6,94.9,16.95,28.65,80.9,21.7,37.58,74.29
1233,-589824,92,-56,-1,-1,0,"(1084, 361)","(1084, 388)","(1087, 415)","(1091, 441)","(1098, 465)","(1111, 487)","(1129, 504)","(1151, 518)","(1177, 522)","(1203, 518)","(1229, 505)","(1251, 488)","(1267, 466)","(1277, 441)","(1281, 413)","(1283, 385)","(1283, 356)","(1090, 342)","(1100, 330)","(1117, 325)","(1135, 327)","(1153, 334)","(1187, 333)","(1205, 324)","(1225, 321)","(1246, 324)","(1261, 336)","(1169, 354)","(1169, 371)","(1168, 387)","(1167, 405)","(1151, 420)","(1160, 423)","(1170, 426)","(1181, 423)","(1191, 419)","(1111, 360)","(1121, 355)","(1134, 354)","(1148, 360)","(1135, 363)","(1122, 364)","(1200, 358)","(1213, 350)","(1226, 350)","(1238, 355)","(1227, 360)","(1213, 360)","(1137, 454)","(1149, 448)","(1162, 444)","(1172, 447)","(1182, 444)","(1198, 446)","(1215, 452)","(1200, 463)","(1185, 469)","(1174, 470)","(1163, 469)","(1150, 465)","(1143, 454)","(1162, 453)","(1172, 454)","(1183, 453)","(1208, 452)","(1184, 456)","(1173, 458)","(1163, 457)",0.26,0.96,56.0,0.37,-0.04,0.39,0.02,-9.0,0.11,0.3,26.0,47.1,95.0,18.2,31.45,84.05,21.94,38.7,77.52
1266,-1376256,92,-56,-1,-1,0,"(1072, 363)","(1073, 392)","(1077, 419)","(1080, 447)","(1088, 472)","(1101, 495)","(1120, 514)","(1141, 528)","(1168, 533)","(1196, 529)","(1223, 517)","(1248, 500)","(1267, 477)","(1278, 450)","(1283, 420)","(1286, 389)","(1288, 357)","(1080, 346)","(1092, 334)","(1109, 330)","(1128, 332)","(1145, 340)","(1181, 338)","(1201, 329)","(1223, 326)","(1244, 329)","(1261, 340)","(1162, 358)","(1161, 376)","(1160, 393)","(1159, 411)","(1142, 426)","(1152, 430)","(1162, 433)","(1173, 430)","(1185, 426)","(1102, 364)","(1113, 359)","(1127, 358)","(1141, 364)","(1127, 367)","(1114, 368)","(1195, 362)","(1208, 355)","(1223, 355)","(1236, 359)","(1223, 364)","(1209, 364)","(1127, 462)","(1140, 455)","(1153, 452)","(1163, 454)","(1174, 451)","(1190, 453)","(1208, 460)","(1192, 471)","(1177, 476)","(1165, 478)","(1154, 477)","(1141, 473)","(1134, 462)","(1153, 461)","(1164, 462)","(1175, 460)","(1200, 460)","(1176, 464)","(1164, 465)","(1154, 464)",0.21,0.94,56.0,0.37,-0.03,0.37,0.01,-8.5,0.1,0.3,26.6,46.6,92.3,18.55,31.2,84.2,18.94,34.94,68.58
1300,8912896,92,-56,-1,-1,0,"(1065, 369)","(1065, 399)","(1067, 427)","(1071, 455)","(1078, 481)","(1092, 505)","(1110, 524)","(1132, 539)","(1159, 545)","(1189, 541)","(1217, 528)","(1243, 509)","(1262, 486)","(1274, 457)","(1280, 426)","(1283, 394)","(1284, 362)","(1071, 351)","(1082, 339)","(1099, 334)","(1117, 336)","(1135, 344)","(1173, 342)","(1194, 333)","(1216, 329)","(1238, 332)","(1256, 343)","(1153, 364)","(1152, 382)","(1151, 400)","(1149, 419)","(1133, 434)","(1142, 438)","(1153, 441)","(1164, 438)","(1176, 434)","(1093, 370)","(1104, 364)","(1118, 363)","(1132, 370)","(1118, 373)","(1104, 374)","(1187, 367)","(1201, 359)","(1216, 359)","(1229, 364)","(1217, 369)","(1202, 370)","(1119, 470)","(1131, 463)","(1144, 460)","(1154, 462)","(1165, 460)","(1183, 462)","(1201, 468)","(1184, 480)","(1168, 486)","(1156, 488)","(1145, 486)","(1131, 482)","(1125, 470)","(1144, 470)","(1155, 471)","(1166, 469)","(1193, 468)","(1167, 473)","(1155, 474)","(1145, 473)",0.25,1.0,56.0,0.37,-0.04,0.37,0.01,-9.5,0.1,0.3,28.7,48.3,94.3,18.9,32.4,84.65,21.11,35.82,70.64
1333,-3080192,92,-56,-1,-1,0,"(1050, 373)","(1052, 404)","(1055, 433)","(1061, 462)","(1069, 488)","(1083, 513)","(1102, 533)","(1123, 550)","(1150, 556)","(1180, 552)","(1209, 538)","(1236, 520)","(1258, 497)","(1272, 468)","(1278, 436)","(1283, 402)","(1286, 366)","(1059, 355)","(1071, 343)","(1089, 339)","(1107, 341)","(1125, 348)","(1166, 347)","(1188, 337)","(1211, 334)","(1234, 338)","(1253, 349)","(1144, 370)","(1143, 389)","(1141, 408)","(1139, 427)","(1124, 442)","(1133, 447)","(1143, 449)","(1155, 446)","(1168, 442)","(1083, 375)","(1094, 369)","(1109, 369)","(1123, 375)","(1109, 379)","(1094, 380)","(1180, 373)","(1194, 365)","(1209, 365)","(1223, 370)","(1210, 376)","(1194, 376)","(1110, 478)","(1122, 471)","(1134, 468)","(1145, 470)","(1157, 467)","(1174, 470)","(1194, 476)","(1176, 489)","(1159, 495)","(1147, 497)","(1135, 496)","(1122, 491)","(1117, 478)","(1135, 477)","(1146, 478)","(1157, 477)","(1185, 476)","(1158, 482)","(1146, 483)","(1135, 482)",0.25,1.01,57.0,0.35,-0.04,0.35,0.02,-10.5,0.1,0.3,28.5,47.5,93.8,19.3,31.6,85.9,22.64,38.35,71.35
1366,-1048576,92,-56,-1,-1,0,"(1042, 381)","(1043, 412)","(1046, 441)","(1051, 470)","(1058, 498)","(1072, 522)","(1091, 542)","(1114, 558)","(1142, 564)","(1172, 560)","(1202, 546)","(1228, 527)","(1248, 504)","(1261, 475)","(1267, 443)","(1270, 410)","(1272, 376)","(1049, 360)","(1060, 348)","(1079, 343)","(1099, 346)","(1117, 355)","(1154, 353)","(1175, 344)","(1198, 340)","(1222, 344)","(1240, 356)","(1134, 376)","(1133, 396)","(1131, 415)","(1129, 435)","(1113, 450)","(1122, 454)","(1133, 457)","(1146, 454)","(1158, 450)","(1072, 382)","(1084, 377)","(1098, 376)","(1112, 382)","(1098, 385)","(1084, 386)","(1170, 381)","(1184, 374)","(1199, 374)","(1213, 379)","(1199, 384)","(1184, 384)","(1098, 486)","(1110, 479)","(1124, 476)","(1135, 479)","(1147, 476)","(1165, 478)","(1186, 485)","(1168, 498)","(1151, 504)","(1138, 506)","(1125, 504)","(1111, 499)","(1104, 486)","(1124, 486)","(1136, 487)","(1148, 486)","(1178, 485)","(1149, 490)","(1137, 492)","(1125, 490)",0.23,1.02,57.0,0.36,-0.01,0.38,0.02,-9.0,0.1,0.31,28.1,48.1,95.5,19.55,33.1,85.85,24.52,41.52,79.17
1400,-458752,92,-56,-1,-1,0,"(1031, 385)","(1031, 415)","(1033, 444)","(1037, 474)","(1045, 502)","(1060, 527)","(1079, 550)","(1101, 568)","(1130, 574)","(1160, 570)","(1189, 555)","(1215, 536)","(1236, 512)","(1249, 483)","(1254, 451)","(1257, 418)","(1258, 385)","(1040, 363)","(1051, 351)","(1069, 347)","(1089, 350)","(1108, 359)","(1143, 357)","(1164, 347)","(1188, 344)","(1211, 348)","(1228, 362)","(1125, 381)","(1123, 401)","(1121, 420)","(1119, 440)","(1102, 456)","(1112, 460)","(1123, 463)","(1136, 460)","(1148, 456)","(1063, 387)","(1075, 382)","(1089, 381)","(1102, 387)","(1089, 390)","(1075, 391)","(1159, 386)","(1174, 380)","(1189, 380)","(1202, 385)","(1189, 390)","(1174, 389)","(1088, 493)","(1100, 487)","(1114, 484)","(1125, 487)","(1137, 484)","(1155, 487)","(1175, 494)","(1157, 507)","(1140, 513)","(1127, 514)","(1115, 513)","(1102, 507)","(1095, 493)","(1114, 494)","(1125, 496)","(1138, 495)","(1167, 494)","(1139, 498)","(1127, 500)","(1116, 498)",0.22,1.01,57.0,0.36,0.0,0.38,0.01,-9.0,0.1,0.3,29.7,51.3,100.3,19.7,30.7,84.6,26.52,44.41,83.7
1433,458752,92,-56,-1,-1,0,"(1021, 390)","(1020, 421)","(1022, 451)","(1026, 480)","(1034, 509)","(1049, 534)","(1068, 555)","(1091, 572)","(1119, 578)","(1150, 575)","(1181, 562)","(1208, 544)","(1230, 520)","(1243, 490)","(1249, 457)","(1252, 424)","(1253, 391)","(1029, 366)","(1039, 353)","(1058, 348)","(1078, 351)","(1097, 360)","(1136, 359)","(1158, 349)","(1182, 346)","(1206, 352)","(1223, 366)","(1116, 385)","(1113, 404)","(1111, 423)","(1109, 443)","(1092, 460)","(1102, 465)","(1113, 468)","(1126, 465)","(1138, 461)","(1051, 390)","(1063, 385)","(1077, 385)","(1092, 391)","(1077, 395)","(1062, 395)","(1152, 390)","(1167, 383)","(1182, 384)","(1197, 390)","(1182, 395)","(1167, 394)","(1077, 501)","(1089, 493)","(1104, 489)","(1114, 492)","(1126, 489)","(1144, 493)","(1165, 501)","(1147, 514)","(1129, 520)","(1117, 521)","(1105, 519)","(1091, 514)","(1084, 501)","(1104, 500)","(1115, 502)","(1127, 500)","(1156, 501)","(1128, 505)","(1116, 506)","(1105, 505)",0.24,1.01,58.0,0.37,-0.0,0.37,0.01,-11.0,0.09,0.3,31.9,53.5,102.0,18.8,30.15,82.55,29.64,47.0,87.88
1466,2818048,92,-56,-1,-1,0,"(1012, 395)","(1010, 426)","(1012, 457)","(1015, 487)","(1022, 516)","(1037, 543)","(1056, 566)","(1079, 584)","(1109, 591)","(1142, 588)","(1175, 575)","(1203, 555)","(1225, 529)","(1239, 498)","(1245, 464)","(1248, 430)","(1249, 394)","(1017, 369)","(1028, 355)","(1046, 351)","(1067, 353)","(1087, 362)","(1128, 361)","(1151, 351)","(1176, 347)","(1201, 352)","(1220, 367)","(1106, 387)","(1104, 408)","(1101, 428)","(1099, 449)","(1081, 466)","(1092, 471)","(1103, 474)","(1117, 471)","(1130, 467)","(1039, 394)","(1051, 387)","(1066, 387)","(1082, 394)","(1066, 398)","(1051, 398)","(1145, 393)","(1160, 384)","(1177, 385)","(1192, 391)","(1177, 396)","(1161, 396)","(1066, 508)","(1078, 499)","(1093, 496)","(1105, 499)","(1118, 496)","(1138, 499)","(1159, 508)","(1139, 521)","(1120, 527)","(1107, 529)","(1094, 527)","(1079, 521)","(1074, 508)","(1093, 507)","(1106, 508)","(1118, 507)","(1151, 508)","(1119, 512)","(1106, 513)","(1094, 512)",0.24,1.03,58.0,0.37,-0.01,0.39,0.02,-11.5,0.1,0.3,32.1,52.7,101.4,21.0,32.8,85.8,26.29,43.88,82.35
1500,4784128,92,-56,-1,-1,0,"(1000, 401)","(1000, 433)","(1003, 465)","(1007, 496)","(1015, 526)","(1029, 552)","(1049, 574)","(1072, 593)","(1102, 599)","(1136, 596)","(1168, 582)","(1198, 563)","(1221, 538)","(1235, 507)","(1242, 471)","(1246, 435)","(1248, 399)","(1007, 374)","(1019, 359)","(1038, 354)","(1060, 356)","(1080, 364)","(1121, 363)","(1144, 353)","(1170, 349)","(1196, 355)","(1216, 370)","(1099, 390)","(1097, 411)","(1094, 432)","(1092, 454)","(1074, 472)","(1084, 476)","(1096, 479)","(1110, 476)","(1124, 472)","(1030, 397)","(1042, 390)","(1058, 389)","(1074, 398)","(1058, 401)","(1042, 402)","(1139, 396)","(1154, 386)","(1171, 386)","(1187, 393)","(1172, 399)","(1155, 399)","(1057, 515)","(1071, 505)","(1085, 500)","(1098, 503)","(1111, 500)","(1131, 504)","(1154, 514)","(1133, 527)","(1113, 532)","(1099, 534)","(1085, 532)","(1071, 527)","(1065, 514)","(1086, 512)","(1098, 514)","(1112, 512)","(1145, 514)","(1112, 517)","(1099, 518)","(1086, 517)",0.27,1.0,58.0,0.37,-0.03,0.39,0.01,-12.0,0.1,0.3,31.4,52.1,101.0,20.9,33.3,86.25,29.64,46.94,85.52
1533,2424832,92,-56,-1,-1,0,"(992, 405)","(992, 437)","(995, 469)","(999, 500)","(1007, 530)","(1022, 557)","(1042, 578)","(1066, 595)","(1096, 601)","(1129, 598)","(1162, 584)","(1191, 566)","(1213, 541)","(1227, 510)","(1233, 476)","(1237, 441)","(1239, 406)","(1000, 374)","(1011, 359)","(1031, 353)","(1053, 355)","(1073, 364)","(1115, 363)","(1138, 353)","(1164, 350)","(1190, 357)","(1209, 374)","(1093, 391)","(1090, 412)","(1088, 432)","(1085, 454)","(1066, 472)","(1078, 477)","(1090, 480)","(1104, 477)","(1117, 474)","(1023, 398)","(1035, 390)","(1051, 390)","(1067, 399)","(1051, 402)","(1035, 403)","(1132, 398)","(1148, 388)","(1165, 389)","(1180, 396)","(1166, 402)","(1148, 402)","(1051, 517)","(1064, 507)","(1079, 502)","(1091, 505)","(1104, 502)","(1124, 507)","(1146, 518)","(1126, 530)","(1107, 535)","(1093, 537)","(1080, 535)","(1065, 530)","(1058, 517)","(1079, 514)","(1092, 515)","(1105, 514)","(1138, 517)","(1106, 520)","(1093, 521)","(1081, 520)",0.28,1.01,58.0,0.37,-0.0,0.38,0.02,-13.0,0.09,0.3,32.8,54.0,103.6,19.7,30.8,82.95,30.35,48.47,88.35
1566,0,92,-56,-1,-1,0,"(986, 406)","(986, 438)","(989, 470)","(993, 502)","(1001, 532)","(1016, 559)","(1036, 581)","(1060, 598)","(1091, 604)","(1125, 601)","(1158, 588)","(1188, 569)","(1210, 544)","(1224, 512)","(1231, 478)","(1235, 442)","(1238, 406)","(993, 375)","(1004, 359)","(1024, 353)","(1047, 355)","(1068, 364)","(1111, 363)","(1135, 352)","(1162, 350)","(1188, 357)","(1207, 374)","(1088, 391)","(1086, 412)","(1083, 433)","(1081, 454)","(1062, 473)","(1073, 478)","(1085, 481)","(1099, 478)","(1113, 474)","(1016, 399)","(1029, 391)","(1045, 390)","(1062, 400)","(1046, 403)","(1029, 403)","(1128, 399)","(1144, 389)","(1162, 389)","(1177, 397)","(1162, 402)","(1145, 402)","(1046, 519)","(1059, 509)","(1074, 504)","(1087, 507)","(1100, 504)","(1120, 509)","(1142, 520)","(1122, 532)","(1102, 537)","(1088, 538)","(1075, 536)","(1060, 532)","(1054, 519)","(1075, 516)","(1087, 517)","(1100, 516)","(1133, 519)","(1101, 521)","(1088, 523)","(1076, 521)",0.26,1.01,58.0,0.37,-0.01,0.38,0.02,-12.5,0.09,0.29,33.9,53.8,101.8,19.7,30.95,80.5,29.29,46.47,85.7
1600,-589824,92,-56,-1,-1,0,"(982, 408)","(983, 440)","(986, 471)","(990, 503)","(999, 533)","(1014, 560)","(1035, 581)","(1060, 598)","(1091, 604)","(1125, 600)","(1158, 587)","(1187, 568)","(1209, 542)","(1223, 511)","(1229, 476)","(1233, 441)","(1235, 405)","(989, 375)","(1001, 358)","(1020, 352)","(1043, 353)","(1064, 362)","(1108, 361)","(1131, 350)","(1158, 347)","(1184, 354)","(1204, 371)","(1085, 389)","(1083, 411)","(1081, 432)","(1079, 454)","(1060, 473)","(1071, 478)","(1083, 481)","(1097, 478)","(1111, 474)","(1013, 398)","(1025, 389)","(1042, 388)","(1058, 399)","(1042, 402)","(1025, 403)","(1125, 397)","(1141, 386)","(1159, 386)","(1175, 394)","(1160, 400)","(1142, 400)","(1044, 518)","(1057, 509)","(1072, 504)","(1085, 506)","(1098, 503)","(1118, 508)","(1141, 518)","(1121, 530)","(1101, 535)","(1087, 536)","(1074, 535)","(1059, 530)","(1051, 518)","(1073, 516)","(1086, 517)","(1099, 515)","(1133, 518)","(1100, 520)","(1087, 521)","(1074, 520)",0.28,1.01,58.0,0.37,-0.03,0.38,0.01,-13.5,0.1,0.3,33.6,54.2,103.0,19.4,30.3,82.35,29.94,45.52,82.76
1633,-983040,92,-56,-1,-1,0,"(984, 398)","(982, 431)","(984, 462)","(988, 494)","(996, 525)","(1010, 553)","(1031, 577)","(1056, 594)","(1088, 601)","(1123, 597)","(1157, 583)","(1187, 563)","(1209, 536)","(1222, 504)","(1228, 469)","(1231, 433)","(1231, 397)","(988, 370)","(999, 353)","(1019, 346)","(1042, 348)","(1064, 357)","(1107, 357)","(1132, 346)","(1159, 343)","(1185, 349)","(1203, 366)","(1084, 385)","(1082, 406)","(1080, 427)","(1078, 449)","(1058, 468)","(1070, 473)","(1082, 476)","(1097, 473)","(1111, 469)","(1012, 393)","(1025, 386)","(1041, 385)","(1058, 393)","(1041, 397)","(1025, 398)","(1125, 391)","(1142, 382)","(1159, 383)","(1174, 390)","(1159, 395)","(1142, 395)","(1043, 515)","(1057, 505)","(1072, 500)","(1084, 503)","(1097, 500)","(1117, 505)","(1140, 515)","(1119, 527)","(1100, 532)","(1086, 533)","(1073, 532)","(1058, 527)","(1051, 515)","(1072, 512)","(1085, 514)","(1098, 512)","(1131, 515)","(1099, 517)","(1085, 518)","(1073, 516)",0.25,1.0,58.0,0.38,-0.03,0.39,0.01,-12.0,0.1,0.29,33.4,54.6,103.3,19.6,30.0,82.35,33.05,50.0,89.23
1666,-1179648,92,-56,-1,-1,0,"(983, 396)","(982, 429)","(986, 461)","(990, 492)","(998, 523)","(1013, 550)","(1034, 573)","(1060, 590)","(1092, 595)","(1127, 591)","(1160, 577)","(1189, 557)","(1210, 530)","(1222, 498)","(1227, 463)","(1230, 427)","(1230, 391)","(988, 365)","(999, 349)","(1019, 342)","(1042, 343)","(1064, 351)","(1108, 350)","(1132, 339)","(1158, 336)","(1184, 342)","(1203, 359)","(1085, 379)","(1083, 399)","(1082, 420)","(1080, 441)","(1061, 462)","(1072, 466)","(1085, 470)","(1099, 466)","(1112, 462)","(1013, 389)","(1025, 380)","(1041, 379)","(1058, 388)","(1042, 392)","(1025, 393)","(1125, 386)","(1141, 376)","(1159, 375)","(1174, 383)","(1159, 389)","(1142, 389)","(1045, 509)","(1059, 498)","(1074, 493)","(1087, 496)","(1100, 493)","(1120, 497)","(1143, 507)","(1122, 520)","(1103, 525)","(1089, 527)","(1076, 526)","(1060, 521)","(1053, 508)","(1075, 505)","(1088, 507)","(1101, 505)","(1134, 507)","(1102, 510)","(1088, 511)","(1075, 510)",0.27,0.99,58.0,0.38,-0.04,0.39,0.01,-12.5,0.1,0.28,33.0,54.2,102.0,19.85,32.2,83.6,28.52,45.58,87.11
1700,-1638400,92,-56,-1,-1,0,"(985, 392)","(985, 425)","(989, 456)","(994, 488)","(1002, 518)","(1018, 545)","(1039, 566)","(1065, 582)","(1096, 587)","(1130, 583)","(1163, 569)","(1191, 550)","(1213, 524)","(1225, 492)","(1230, 457)","(1233, 422)","(1233, 386)","(991, 360)","(1003, 343)","(1023, 336)","(1046, 337)","(1067, 345)","(1110, 344)","(1133, 333)","(1160, 330)","(1186, 336)","(1205, 353)","(1088, 372)","(1087, 393)","(1085, 413)","(1084, 435)","(1064, 456)","(1076, 460)","(1088, 463)","(1102, 459)","(1116, 455)","(1016, 383)","(1029, 374)","(1045, 373)","(1062, 382)","(1046, 386)","(1029, 387)","(1127, 380)","(1143, 370)","(1160, 370)","(1176, 377)","(1162, 382)","(1144, 382)","(1048, 501)","(1062, 491)","(1077, 486)","(1090, 489)","(1104, 486)","(1125, 489)","(1147, 499)","(1127, 512)","(1107, 518)","(1093, 519)","(1079, 518)","(1063, 513)","(1056, 500)","(1078, 498)","(1091, 499)","(1105, 498)","(1139, 499)","(1106, 502)","(1092, 504)","(1079, 503)",0.24,1.0,57.0,0.38,-0.04,0.39,0.02,-12.0,0.11,0.29,32.6,51.8,99.9,21.65,33.9,88.0,26.23,43.0,82.64
1733,-2031616,92,-56,-1,-1,0,"(989, 388)","(990, 420)","(994, 451)","(998, 482)","(1006, 512)","(1022, 537)","(1044, 557)","(1070, 572)","(1101, 577)","(1135, 573)","(1167, 559)","(1195, 540)","(1216, 515)","(1227, 484)","(1232, 450)","(1236, 415)","(1236, 381)","(996, 354)","(1007, 337)","(1027, 330)","(1050, 330)","(1071, 339)","(1114, 337)","(1137, 326)","(1163, 323)","(1188, 330)","(1207, 347)","(1092, 365)","(1091, 385)","(1090, 404)","(1088, 425)","(1069, 447)","(1081, 451)","(1093, 453)","(1106, 450)","(1119, 446)","(1020, 376)","(1033, 366)","(1049, 365)","(1066, 375)","(1050, 379)","(1033, 380)","(1130, 373)","(1146, 361)","(1164, 361)","(1179, 369)","(1165, 375)","(1147, 375)","(1052, 492)","(1066, 482)","(1082, 477)","(1095, 479)","(1108, 476)","(1128, 480)","(1151, 490)","(1131, 502)","(1112, 507)","(1097, 508)","(1084, 507)","(1068, 503)","(1059, 492)","(1082, 488)","(1095, 490)","(1109, 488)","(1142, 490)","(1110, 492)","(1097, 494)","(1084, 493)",0.28,0.98,57.0,0.38,-0.04,0.4,0.01,-13.5,0.1,0.28,33.8,53.0,101.3,22.35,34.2,88.75,25.0,41.41,79.82
1766,-1441792,92,-56,-1,-1,0,"(998, 370)","(998, 402)","(1000, 433)","(1004, 465)","(1012, 496)","(1027, 523)","(1048, 545)","(1074, 561)","(1105, 566)","(1140, 562)","(1173, 547)","(1202, 526)","(1223, 500)","(1236, 468)","(1240, 434)","(1242, 398)","(1242, 363)","(1005, 346)","(1016, 331)","(1035, 324)","(1057, 325)","(1077, 334)","(1118, 332)","(1141, 321)","(1167, 318)","(1193, 323)","(1211, 338)","(1097, 358)","(1096, 378)","(1094, 398)","(1093, 419)","(1073, 438)","(1084, 443)","(1096, 445)","(1110, 442)","(1124, 437)","(1028, 367)","(1040, 360)","(1055, 359)","(1072, 366)","(1056, 370)","(1040, 371)","(1135, 364)","(1151, 355)","(1167, 355)","(1183, 361)","(1168, 366)","(1151, 366)","(1057, 482)","(1070, 472)","(1086, 468)","(1098, 470)","(1111, 467)","(1131, 470)","(1153, 479)","(1133, 492)","(1114, 497)","(1100, 499)","(1086, 498)","(1071, 493)","(1065, 482)","(1086, 479)","(1099, 480)","(1112, 478)","(1144, 479)","(1113, 483)","(1100, 485)","(1087, 483)",0.22,0.99,56.0,0.37,-0.05,0.39,0.01,-10.5,0.11,0.29,30.7,52.0,99.6,24.05,37.0,90.65,27.94,45.94,83.58
1800,-1638400,92,-56,-1,-1,0,"(1004, 368)","(1005, 400)","(1009, 430)","(1013, 460)","(1020, 489)","(1035, 514)","(1056, 535)","(1081, 550)","(1112, 555)","(1145, 551)","(1177, 537)","(1204, 518)","(1225, 493)","(1237, 463)","(1242, 429)","(1245, 395)","(1245, 360)","(1011, 342)","(1022, 326)","(1041, 319)","(1063, 320)","(1084, 327)","(1126, 326)","(1149, 315)","(1174, 312)","(1199, 317)","(1218, 333)","(1104, 351)","(1103, 370)","(1101, 389)","(1100, 409)","(1082, 430)","(1092, 433)","(1104, 436)","(1117, 433)","(1130, 428)","(1035, 362)","(1047, 353)","(1063, 352)","(1079, 361)","(1063, 365)","(1047, 366)","(1142, 358)","(1157, 347)","(1175, 346)","(1190, 354)","(1176, 360)","(1158, 360)","(1065, 473)","(1078, 463)","(1094, 458)","(1106, 461)","(1119, 457)","(1139, 461)","(1160, 469)","(1140, 482)","(1121, 487)","(1108, 488)","(1095, 488)","(1079, 483)","(1072, 472)","(1094, 469)","(1107, 470)","(1120, 469)","(1152, 469)","(1120, 472)","(1107, 474)","(1094, 473)",0.28,0.97,55.0,0.38,-0.06,0.39,0.01,-12.5,0.1,0.28,31.2,51.7,97.5,22.1,34.55,87.6,25.82,43.05,79.7
1833,2359296,92,-56,-1,-1,0,"(1013, 365)","(1014, 396)","(1019, 425)","(1023, 454)","(1031, 482)","(1046, 506)","(1067, 525)","(1091, 539)","(1121, 543)","(1153, 539)","(1183, 526)","(1210, 508)","(1230, 483)","(1242, 454)","(1246, 421)","(1249, 388)","(1250, 354)","(1020, 339)","(1031, 324)","(1050, 316)","(1071, 316)","(1091, 324)","(1132, 322)","(1154, 311)","(1178, 308)","(1203, 313)","(1221, 327)","(1111, 348)","(1110, 366)","(1109, 384)","(1109, 403)","(1091, 424)","(1101, 428)","(1113, 430)","(1125, 427)","(1138, 423)","(1044, 358)","(1056, 349)","(1072, 348)","(1087, 357)","(1072, 361)","(1056, 362)","(1148, 354)","(1163, 342)","(1180, 342)","(1195, 349)","(1181, 355)","(1164, 356)","(1074, 465)","(1088, 455)","(1103, 450)","(1115, 452)","(1127, 449)","(1147, 452)","(1168, 461)","(1149, 473)","(1131, 478)","(1117, 480)","(1104, 479)","(1089, 475)","(1082, 464)","(1103, 461)","(1116, 462)","(1128, 460)","(1159, 461)","(1129, 465)","(1116, 466)","(1104, 465)",0.28,0.97,55.0,0.38,-0.07,0.39,0.01,-12.5,0.11,0.28,29.7,49.7,96.0,22.5,35.3,90.45,24.0,39.58,75.64
1866,-6422528,92,-56,-1,-1,0,"(1022, 364)","(1024, 393)","(1029, 421)","(1034, 449)","(1042, 476)","(1057, 498)","(1078, 515)","(1102, 528)","(1131, 532)","(1162, 527)","(1190, 514)","(1216, 497)","(1235, 474)","(1246, 446)","(1250, 414)","(1253, 382)","(1254, 349)","(1029, 336)","(1040, 321)","(1058, 313)","(1078, 313)","(1098, 320)","(1138, 318)","(1159, 307)","(1183, 304)","(1206, 309)","(1225, 323)","(1118, 342)","(1117, 359)","(1117, 376)","(1116, 394)","(1099, 415)","(1109, 418)","(1120, 420)","(1133, 417)","(1145, 413)","(1053, 354)","(1065, 345)","(1080, 344)","(1095, 352)","(1081, 356)","(1065, 357)","(1154, 348)","(1168, 338)","(1184, 337)","(1198, 344)","(1185, 349)","(1169, 350)","(1085, 456)","(1097, 446)","(1111, 440)","(1123, 443)","(1135, 439)","(1153, 443)","(1174, 452)","(1156, 463)","(1138, 468)","(1126, 470)","(1114, 469)","(1099, 466)","(1092, 455)","(1112, 451)","(1124, 452)","(1136, 450)","(1165, 452)","(1137, 455)","(1125, 456)","(1113, 456)",0.27,0.98,55.0,0.37,-0.08,0.38,0.01,-11.0,0.11,0.27,28.2,48.7,94.6,20.5,33.35,88.4,20.0,35.82,69.35
1900,-1966080,92,-56,-1,-1,0,"(1036, 359)","(1037, 388)","(1041, 415)","(1045, 443)","(1052, 469)","(1067, 491)","(1087, 508)","(1111, 520)","(1139, 523)","(1168, 518)","(1195, 505)","(1218, 488)","(1235, 465)","(1244, 438)","(1247, 409)","(1249, 380)","(1248, 350)","(1043, 334)","(1053, 320)","(1070, 313)","(1090, 312)","(1109, 319)","(1146, 317)","(1165, 308)","(1187, 305)","(1209, 309)","(1225, 323)","(1128, 341)","(1127, 358)","(1127, 374)","(1126, 392)","(1109, 411)","(1119, 414)","(1130, 416)","(1141, 413)","(1153, 409)","(1065, 352)","(1076, 344)","(1090, 343)","(1104, 350)","(1091, 353)","(1076, 355)","(1161, 346)","(1174, 337)","(1189, 336)","(1202, 343)","(1190, 347)","(1175, 348)","(1095, 450)","(1108, 441)","(1121, 437)","(1132, 439)","(1144, 436)","(1160, 439)","(1180, 447)","(1163, 457)","(1147, 461)","(1135, 463)","(1123, 463)","(1109, 459)","(1101, 449)","(1122, 447)","(1133, 447)","(1145, 446)","(1173, 447)","(1145, 449)","(1134, 450)","(1123, 450)",0.26,0.94,54.0,0.37,-0.07,0.4,0.01,-9.5,0.11,0.28,29.0,50.0,96.9,20.1,32.2,85.2,22.7,38.7,77.52
1933,-1310720,92,-56,-1,-1,0,"(1049, 358)","(1050, 386)","(1054, 412)","(1058, 439)","(1065, 464)","(1079, 485)","(1098, 502)","(1121, 513)","(1149, 516)","(1178, 512)","(1205, 499)","(1228, 482)","(1245, 460)","(1254, 434)","(1257, 405)","(1258, 376)","(1258, 346)","(1055, 336)","(1065, 322)","(1082, 315)","(1101, 315)","(1119, 321)","(1156, 319)","(1175, 310)","(1197, 307)","(1218, 311)","(1234, 324)","(1137, 341)","(1137, 357)","(1136, 373)","(1136, 390)","(1120, 409)","(1129, 412)","(1139, 414)","(1151, 411)","(1162, 407)","(1076, 352)","(1087, 344)","(1100, 343)","(1115, 350)","(1101, 353)","(1087, 355)","(1170, 346)","(1184, 337)","(1198, 336)","(1211, 342)","(1199, 347)","(1184, 348)","(1106, 447)","(1118, 438)","(1131, 433)","(1142, 435)","(1153, 432)","(1169, 435)","(1188, 443)","(1171, 452)","(1156, 456)","(1144, 458)","(1133, 458)","(1119, 455)","(1112, 446)","(1132, 443)","(1143, 443)","(1154, 442)","(1181, 443)","(1154, 444)","(1143, 446)","(1132, 445)",0.26,0.94,54.0,0.38,-0.08,0.39,0.01,-9.5,0.11,0.28,28.4,48.3,95.0,18.0,30.05,78.8,21.17,36.29,71.7
1966,-393216,92,-56,-1,-1,0,"(1060, 359)","(1062, 386)","(1066, 411)","(1070, 437)","(1077, 461)","(1090, 481)","(1108, 496)","(1131, 507)","(1157, 510)","(1185, 506)","(1211, 494)","(1233, 479)","(1250, 458)","(1259, 433)","(1262, 406)","(1264, 378)","(1264, 349)","(1066, 337)","(1076, 323)","(1092, 316)","(1111, 316)","(1129, 322)","(1164, 320)","(1183, 311)","(1204, 308)","(1225, 313)","(1241, 326)","(1147, 340)","(1146, 356)","(1145, 371)","(1145, 387)","(1129, 406)","(1138, 408)","(1148, 410)","(1159, 407)","(1170, 404)","(1088, 351)","(1098, 344)","(1112, 343)","(1125, 350)","(1112, 353)","(1099, 354)","(1178, 346)","(1191, 337)","(1205, 336)","(1218, 343)","(1206, 347)","(1192, 347)","(1115, 443)","(1127, 434)","(1140, 430)","(1150, 432)","(1161, 429)","(1177, 432)","(1196, 439)","(1179, 448)","(1164, 452)","(1153, 454)","(1142, 453)","(1129, 451)","(1121, 443)","(1141, 439)","(1151, 439)","(1162, 438)","(1188, 439)","(1163, 441)","(1152, 442)","(1142, 442)",0.26,0.95,54.0,0.37,-0.07,0.39,0.01,-9.5,0.11,0.27,27.4,46.5,93.0,20.25,33.1,85.15,19.82,34.23,69.76
2000,1572864,92,-56,-1,-1,0,"(1072, 357)","(1074, 383)","(1078, 407)","(1082, 432)","(1088, 454)","(1102, 473)","(1120, 488)","(1141, 498)","(1167, 501)","(1194, 496)","(1219, 486)","(1241, 471)","(1257, 451)","(1266, 427)","(1270, 400)","(1272, 372)","(1273, 344)","(1079, 334)","(1089, 321)","(1105, 315)","(1122, 314)","(1139, 320)","(1173, 318)","(1191, 309)","(1211, 306)","(1232, 310)","(1248, 321)","(1156, 338)","(1155, 353)","(1155, 368)","(1154, 383)","(1139, 401)","(1148, 404)","(1158, 406)","(1169, 402)","(1179, 399)","(1099, 349)","(1109, 342)","(1122, 340)","(1135, 347)","(1123, 350)","(1110, 351)","(1187, 343)","(1199, 334)","(1213, 333)","(1225, 339)","(1214, 343)","(1200, 343)","(1125, 437)","(1137, 428)","(1150, 423)","(1160, 425)","(1171, 422)","(1187, 424)","(1205, 431)","(1189, 440)","(1174, 444)","(1162, 446)","(1152, 446)","(1139, 444)","(1132, 436)","(1151, 432)","(1161, 432)","(1172, 431)","(1198, 431)","(1172, 433)","(1162, 435)","(1151, 435)",0.25,0.93,53.0,0.36,-0.09,0.39,0.01,-8.5,0.11,0.27,26.8,46.1,90.8,21.35,34.1,87.9,18.23,32.58,67.47
2033,4063232,92,-56,-1,-1,0,"(1084, 349)","(1084, 375)","(1088, 399)","(1091, 423)","(1098, 445)","(1110, 464)","(1129, 478)","(1150, 489)","(1175, 492)","(1201, 487)","(1226, 476)","(1248, 461)","(1263, 441)","(1272, 417)","(1275, 391)","(1276, 364)","(1276, 337)","(1090, 328)","(1099, 316)","(1114, 310)","(1132, 310)","(1148, 316)","(1182, 314)","(1199, 305)","(1219, 302)","(1238, 306)","(1253, 316)","(1165, 334)","(1165, 348)","(1164, 362)","(1163, 377)","(1149, 395)","(1158, 397)","(1167, 399)","(1177, 396)","(1187, 393)","(1110, 344)","(1120, 338)","(1132, 336)","(1145, 342)","(1133, 346)","(1121, 347)","(1195, 338)","(1207, 330)","(1220, 330)","(1232, 335)","(1221, 339)","(1208, 340)","(1136, 429)","(1147, 420)","(1160, 416)","(1169, 418)","(1179, 415)","(1195, 417)","(1212, 424)","(1197, 434)","(1182, 438)","(1171, 440)","(1161, 440)","(1148, 437)","(1142, 428)","(1160, 425)","(1170, 425)","(1180, 424)","(1205, 424)","(1181, 428)","(1171, 429)","(1161, 429)",0.25,0.96,53.0,0.37,-0.08,0.39,0.02,-8.5,0.11,0.27,24.9,44.4,89.4,21.95,35.35,89.65,16.11,30.76,63.05
2066,3276800,92,-56,-1,-1,0,"(1094, 346)","(1095, 371)","(1098, 394)","(1101, 417)","(1108, 439)","(1121, 457)","(1139, 471)","(1160, 481)","(1184, 483)","(1209, 479)","(1233, 469)","(1253, 454)","(1268, 435)","(1277, 412)","(1280, 387)","(1281, 361)","(1281, 335)","(1100, 324)","(1110, 312)","(1124, 307)","(1141, 307)","(1157, 313)","(1190, 311)","(1206, 303)","(1225, 300)","(1244, 303)","(1259, 314)","(1174, 330)","(1173, 344)","(1173, 357)","(1172, 371)","(1158, 388)","(1167, 391)","(1176, 392)","(1186, 390)","(1195, 387)","(1120, 340)","(1130, 333)","(1142, 332)","(1154, 338)","(1142, 341)","(1130, 342)","(1202, 334)","(1214, 326)","(1227, 326)","(1238, 331)","(1228, 336)","(1215, 336)","(1145, 422)","(1156, 412)","(1168, 408)","(1177, 409)","(1187, 407)","(1203, 410)","(1219, 418)","(1205, 427)","(1191, 431)","(1180, 433)","(1170, 432)","(1157, 430)","(1151, 421)","(1169, 417)","(1178, 417)","(1188, 416)","(1213, 418)","(1189, 421)","(1179, 422)","(1170, 421)",0.27,0.96,53.0,0.37,-0.07,0.39,0.02,-9.0,0.11,0.26,24.9,43.6,89.3,20.35,34.6,90.2,15.35,30.23,62.47
2100,-589824,92,-56,-1,-1,0,"(1104, 347)","(1105, 370)","(1108, 392)","(1112, 414)","(1118, 435)","(1130, 452)","(1147, 465)","(1168, 473)","(1191, 475)","(1215, 471)","(1238, 462)","(1257, 449)","(1271, 432)","(1278, 411)","(1281, 387)","(1282, 364)","(1282, 339)","(1112, 325)","(1121, 313)","(1135, 306)","(1152, 306)","(1167, 311)","(1199, 310)","(1215, 302)","(1232, 300)","(1250, 304)","(1263, 315)","(1183, 329)","(1183, 342)","(1182, 355)","(1182, 368)","(1168, 385)","(1176, 387)","(1184, 389)","(1193, 386)","(1203, 384)","(1130, 339)","(1139, 332)","(1151, 331)","(1163, 338)","(1152, 340)","(1140, 341)","(1210, 334)","(1221, 326)","(1233, 325)","(1244, 331)","(1234, 335)","(1221, 335)","(1153, 417)","(1165, 409)","(1177, 404)","(1186, 406)","(1195, 403)","(1209, 406)","(1225, 413)","(1211, 421)","(1198, 424)","(1188, 425)","(1178, 425)","(1166, 423)","(1159, 417)","(1177, 413)","(1186, 413)","(1195, 412)","(1219, 413)","(1196, 414)","(1187, 415)","(1178, 415)",0.27,0.89,53.0,0.37,-0.08,0.4,0.01,-8.5,0.11,0.26,24.4,44.7,89.8,18.05,31.15,85.6,18.05,32.47,68.94
2133,131072,92,-56,-1,-1,0,"(1114, 346)","(1115, 368)","(1118, 390)","(1121, 412)","(1128, 432)","(1139, 449)","(1156, 461)","(1176, 470)","(1199, 472)","(1223, 468)","(1246, 459)","(1265, 445)","(1279, 428)","(1286, 407)","(1289, 383)","(1290, 359)","(1290, 335)","(1122, 325)","(1130, 313)","(1145, 308)","(1160, 307)","(1175, 313)","(1205, 311)","(1221, 303)","(1239, 301)","(1256, 304)","(1270, 315)","(1190, 328)","(1190, 341)","(1189, 354)","(1189, 367)","(1175, 383)","(1183, 386)","(1192, 387)","(1201, 385)","(1211, 382)","(1139, 338)","(1148, 332)","(1159, 331)","(1171, 337)","(1160, 339)","(1149, 340)","(1217, 333)","(1228, 325)","(1240, 325)","(1251, 330)","(1240, 334)","(1228, 334)","(1162, 415)","(1173, 406)","(1184, 402)","(1193, 403)","(1203, 401)","(1217, 403)","(1232, 411)","(1218, 418)","(1205, 422)","(1195, 423)","(1185, 423)","(1174, 421)","(1167, 414)","(1185, 410)","(1194, 410)","(1204, 409)","(1226, 410)","(1204, 412)","(1195, 413)","(1185, 413)",0.26,0.91,53.0,0.37,-0.07,0.39,0.01,-8.0,0.11,0.27,26.1,44.2,88.2,20.7,32.05,87.05,17.17,30.88,62.82
2166,-327680,92,-56,-1,-1,0,"(1122, 346)","(1123, 369)","(1127, 390)","(1130, 412)","(1136, 432)","(1148, 448)","(1165, 460)","(1184, 467)","(1206, 470)","(1229, 466)","(1250, 457)","(1269, 444)","(1282, 428)","(1289, 407)","(1292, 384)","(1294, 361)","(1294, 337)","(1129, 328)","(1138, 316)","(1152, 309)","(1168, 309)","(1183, 314)","(1213, 313)","(1228, 305)","(1245, 303)","(1263, 306)","(1276, 317)","(1197, 330)","(1197, 342)","(1197, 354)","(1196, 367)","(1183, 383)","(1191, 385)","(1199, 387)","(1208, 384)","(1217, 381)","(1147, 340)","(1156, 333)","(1167, 332)","(1179, 338)","(1168, 340)","(1156, 342)","(1223, 334)","(1234, 327)","(1246, 326)","(1256, 331)","(1246, 335)","(1235, 335)","(1170, 414)","(1181, 405)","(1192, 400)","(1201, 402)","(1210, 399)","(1224, 402)","(1239, 409)","(1225, 417)","(1213, 420)","(1203, 422)","(1193, 422)","(1182, 420)","(1175, 413)","(1193, 408)","(1202, 408)","(1211, 407)","(1233, 409)","(1211, 411)","(1202, 412)","(1193, 412)",0.25,0.9,53.0,0.37,-0.09,0.4,0.02,-7.5,0.11,0.26,25.0,43.0,87.0,21.65,34.85,88.0,15.82,30.64,63.17
2200,-786432,92,-56,-1,-1,0,"(1129, 347)","(1131, 369)","(1134, 390)","(1137, 411)","(1144, 430)","(1156, 446)","(1172, 458)","(1192, 466)","(1214, 468)","(1236, 464)","(1256, 455)","(1274, 442)","(1287, 426)","(1293, 406)","(1296, 383)","(1297, 361)","(1297, 338)","(1137, 329)","(1145, 318)","(1159, 312)","(1175, 312)","(1189, 318)","(1218, 316)","(1233, 308)","(1250, 306)","(1267, 309)","(1280, 320)","(1204, 332)","(1204, 344)","(1204, 356)","(1204, 369)","(1190, 384)","(1198, 386)","(1206, 388)","(1215, 385)","(1224, 383)","(1155, 341)","(1164, 334)","(1175, 333)","(1186, 339)","(1175, 341)","(1164, 342)","(1229, 336)","(1240, 329)","(1251, 328)","(1262, 333)","(1252, 337)","(1241, 337)","(1177, 413)","(1188, 405)","(1199, 400)","(1208, 402)","(1217, 399)","(1230, 402)","(1245, 409)","(1232, 417)","(1220, 421)","(1210, 423)","(1201, 422)","(1189, 420)","(1182, 412)","(1199, 408)","(1208, 408)","(1217, 407)","(1239, 409)","(1219, 412)","(1209, 413)","(1200, 413)",0.25,0.9,53.0,0.38,-0.07,0.4,0.02,-7.5,0.11,0.27,24.8,42.1,84.9,23.5,36.5,90.15,17.11,30.76,62.41
2233,-786432,93,-56,-1,-1,0,"(1137, 349)","(1138, 370)","(1141, 390)","(1144, 411)","(1150, 429)","(1161, 445)","(1177, 457)","(1196, 466)","(1217, 469)","(1238, 465)","(1258, 456)","(1275, 444)","(1288, 428)","(1295, 408)","(1298, 387)","(1299, 365)","(1299, 343)","(1145, 331)","(1153, 321)","(1167, 316)","(1181, 316)","(1195, 321)","(1224, 320)","(1238, 312)","(1254, 310)","(1271, 313)","(1283, 323)","(1210, 336)","(1209, 348)","(1209, 359)","(1209, 372)","(1196, 386)","(1203, 388)","(1211, 390)","(1220, 388)","(1228, 385)","(1162, 343)","(1171, 337)","(1181, 336)","(1192, 342)","(1182, 344)","(1171, 345)","(1234, 340)","(1244, 332)","(1255, 332)","(1265, 337)","(1256, 340)","(1245, 341)","(1182, 413)","(1193, 405)","(1204, 402)","(1212, 403)","(1221, 401)","(1234, 404)","(1248, 410)","(1236, 420)","(1224, 424)","(1214, 425)","(1205, 424)","(1194, 421)","(1187, 412)","(1204, 409)","(1213, 409)","(1222, 408)","(1242, 410)","(1222, 414)","(1213, 415)","(1205, 414)",0.27,0.91,53.0,0.37,-0.07,0.4,0.03,-7.5,0.11,0.27,24.0,42.0,84.2,23.55,37.55,92.45,18.35,32.7,67.41
2266,-1048576,93,-56,-1,-1,0,"(1143, 351)","(1145, 372)","(1147, 392)","(1151, 413)","(1157, 431)","(1169, 446)","(1185, 458)","(1203, 466)","(1223, 469)","(1244, 466)","(1264, 456)","(1281, 444)","(1293, 428)","(1300, 408)","(1303, 386)","(1305, 365)","(1305, 342)","(1151, 334)","(1159, 324)","(1173, 319)","(1187, 319)","(1201, 324)","(1229, 323)","(1243, 315)","(1259, 313)","(1275, 316)","(1288, 325)","(1215, 339)","(1215, 351)","(1215, 363)","(1214, 375)","(1201, 389)","(1209, 391)","(1217, 392)","(1225, 390)","(1234, 387)","(1168, 347)","(1176, 341)","(1187, 340)","(1198, 346)","(1187, 348)","(1177, 349)","(1238, 342)","(1249, 336)","(1260, 335)","(1269, 340)","(1260, 343)","(1249, 343)","(1189, 415)","(1199, 407)","(1210, 403)","(1218, 405)","(1227, 403)","(1240, 405)","(1254, 412)","(1241, 422)","(1229, 426)","(1220, 428)","(1210, 427)","(1199, 424)","(1194, 414)","(1210, 410)","(1219, 411)","(1227, 409)","(1248, 412)","(1228, 417)","(1219, 418)","(1210, 418)",0.24,0.93,53.0,0.37,-0.08,0.4,0.03,-7.0,0.11,0.27,23.7,41.5,83.9,23.9,38.8,91.95,19.41,32.17,63.23
2300,-524288,93,-56,-1,-1,0,"(1150, 353)","(1151, 375)","(1153, 395)","(1157, 414)","(1163, 433)","(1174, 448)","(1189, 460)","(1207, 469)","(1227, 471)","(1248, 468)","(1267, 459)","(1284, 447)","(1296, 430)","(1303, 411)","(1305, 390)","(1306, 368)","(1306, 346)","(1157, 338)","(1165, 329)","(1178, 324)","(1192, 325)","(1205, 330)","(1233, 329)","(1247, 321)","(1263, 319)","(1278, 322)","(1289, 331)","(1220, 344)","(1220, 356)","(1219, 367)","(1219, 379)","(1206, 392)","(1214, 395)","(1221, 396)","(1230, 394)","(1238, 391)","(1174, 352)","(1182, 347)","(1192, 346)","(1203, 350)","(1193, 353)","(1182, 354)","(1242, 348)","(1252, 342)","(1263, 341)","(1272, 345)","(1263, 349)","(1253, 349)","(1193, 419)","(1203, 411)","(1214, 408)","(1222, 409)","(1231, 407)","(1244, 409)","(1257, 416)","(1246, 425)","(1234, 430)","(1224, 431)","(1215, 431)","(1204, 428)","(1198, 418)","(1215, 414)","(1223, 415)","(1232, 413)","(1252, 415)","(1233, 421)","(1224, 422)","(1215, 422)",0.24,0.92,53.0,0.37,-0.06,0.41,0.03,-6.5,0.11,0.27,23.8,40.3,83.9,23.05,38.0,92.15,19.35,33.7,64.47
2333,-524288,93,-56,-1,-1,0,"(1152, 360)","(1154, 382)","(1158, 402)","(1162, 423)","(1170, 441)","(1182, 458)","(1198, 472)","(1215, 483)","(1236, 486)","(1257, 482)","(1275, 470)","(1290, 455)","(1301, 436)","(1309, 416)","(1313, 395)","(1314, 373)","(1316, 350)","(1162, 343)","(1170, 334)","(1182, 331)","(1196, 332)","(1209, 337)","(1236, 335)","(1250, 328)","(1267, 325)","(1283, 328)","(1295, 337)","(1223, 352)","(1223, 365)","(1223, 378)","(1223, 392)","(1211, 403)","(1218, 406)","(1226, 408)","(1234, 405)","(1242, 401)","(1179, 357)","(1187, 352)","(1197, 351)","(1207, 356)","(1197, 359)","(1187, 359)","(1246, 353)","(1255, 347)","(1266, 347)","(1276, 351)","(1266, 355)","(1256, 355)","(1200, 428)","(1209, 423)","(1219, 421)","(1228, 422)","(1236, 420)","(1249, 421)","(1263, 425)","(1251, 437)","(1239, 442)","(1230, 444)","(1221, 443)","(1211, 439)","(1205, 428)","(1220, 426)","(1228, 426)","(1237, 425)","(1257, 425)","(1238, 434)","(1230, 436)","(1221, 435)",0.26,0.98,52.0,0.35,-0.04,0.38,0.04,-7.5,0.11,0.29,22.3,38.6,81.0,27.8,44.95,98.7,19.29,32.7,62.35
2366,327680,93,-56,-1,-1,0,"(1159, 364)","(1160, 385)","(1162, 404)","(1165, 424)","(1172, 441)","(1183, 457)","(1198, 470)","(1215, 479)","(1234, 482)","(1254, 479)","(1272, 470)","(1288, 457)","(1300, 441)","(1307, 422)","(1309, 401)","(1311, 380)","(1311, 359)","(1167, 350)","(1175, 341)","(1188, 337)","(1201, 338)","(1214, 344)","(1240, 343)","(1253, 336)","(1268, 333)","(1283, 336)","(1295, 345)","(1228, 358)","(1228, 370)","(1227, 381)","(1227, 394)","(1214, 405)","(1221, 408)","(1229, 410)","(1237, 407)","(1245, 404)","(1184, 363)","(1192, 358)","(1201, 357)","(1211, 362)","(1202, 365)","(1192, 365)","(1249, 361)","(1259, 354)","(1269, 354)","(1278, 358)","(1270, 362)","(1260, 362)","(1201, 429)","(1211, 423)","(1222, 421)","(1230, 422)","(1238, 420)","(1251, 421)","(1265, 426)","(1253, 437)","(1242, 442)","(1233, 444)","(1224, 443)","(1213, 439)","(1206, 429)","(1222, 427)","(1231, 427)","(1239, 426)","(1259, 427)","(1241, 434)","(1232, 435)","(1224, 434)",0.27,0.95,52.0,0.36,-0.04,0.42,0.03,-7.5,0.11,0.29,22.9,40.0,81.8,23.9,38.9,93.05,19.0,31.23,61.58
2400,-655360,93,-56,-1,-1,0,"(1161, 374)","(1163, 394)","(1166, 413)","(1170, 432)","(1176, 449)","(1188, 463)","(1203, 475)","(1220, 483)","(1239, 486)","(1258, 483)","(1275, 474)","(1290, 462)","(1301, 447)","(1308, 429)","(1311, 409)","(1313, 389)","(1314, 367)","(1171, 359)","(1179, 350)","(1192, 346)","(1205, 347)","(1218, 352)","(1242, 351)","(1256, 345)","(1271, 342)","(1286, 345)","(1298, 354)","(1230, 365)","(1230, 377)","(1230, 389)","(1230, 401)","(1217, 413)","(1224, 415)","(1232, 417)","(1240, 414)","(1248, 412)","(1186, 371)","(1194, 365)","(1204, 365)","(1214, 371)","(1204, 373)","(1194, 373)","(1252, 369)","(1261, 362)","(1271, 361)","(1280, 366)","(1272, 370)","(1261, 370)","(1205, 435)","(1215, 430)","(1225, 427)","(1233, 429)","(1241, 427)","(1254, 428)","(1267, 433)","(1256, 444)","(1244, 449)","(1235, 450)","(1227, 449)","(1216, 445)","(1210, 435)","(1226, 433)","(1234, 434)","(1242, 433)","(1262, 434)","(1243, 440)","(1235, 441)","(1226, 441)",0.3,0.96,52.0,0.36,-0.04,0.4,0.03,-8.0,0.11,0.29,23.2,39.8,83.3,24.3,38.5,93.05,17.58,32.05,64.29
2433,-131072,93,-56,-1,-1,0,"(1167, 380)","(1167, 399)","(1169, 417)","(1171, 436)","(1177, 453)","(1188, 467)","(1202, 477)","(1219, 485)","(1237, 488)","(1256, 485)","(1274, 476)","(1289, 465)","(1300, 451)","(1307, 433)","(1309, 414)","(1309, 395)","(1309, 375)","(1175, 366)","(1182, 357)","(1194, 353)","(1207, 353)","(1220, 358)","(1245, 357)","(1258, 351)","(1272, 349)","(1286, 352)","(1296, 360)","(1232, 371)","(1232, 382)","(1232, 392)","(1232, 404)","(1219, 415)","(1226, 417)","(1233, 419)","(1241, 417)","(1249, 414)","(1189, 377)","(1197, 372)","(1206, 371)","(1216, 376)","(1206, 378)","(1197, 379)","(1253, 374)","(1262, 368)","(1272, 368)","(1280, 372)","(1272, 375)","(1262, 375)","(1206, 439)","(1216, 432)","(1226, 429)","(1234, 431)","(1242, 429)","(1254, 431)","(1266, 436)","(1255, 445)","(1244, 450)","(1235, 451)","(1227, 450)","(1216, 447)","(1211, 438)","(1226, 435)","(1234, 436)","(1242, 435)","(1261, 436)","(1243, 441)","(1235, 443)","(1227, 442)",0.25,0.9,52.0,0.38,-0.05,0.42,0.03,-6.5,0.11,0.28,24.3,41.4,86.4,24.05,38.2,91.75,19.52,32.47,65.17
2466,524288,93,-56,-1,-1,0,"(1167, 385)","(1168, 405)","(1171, 424)","(1174, 442)","(1181, 459)","(1192, 473)","(1207, 483)","(1223, 491)","(1242, 494)","(1261, 491)","(1278, 483)","(1292, 471)","(1303, 456)","(1309, 438)","(1312, 419)","(1313, 399)","(1314, 379)","(1175, 370)","(1183, 361)","(1195, 358)","(1208, 358)","(1220, 363)","(1247, 362)","(1260, 356)","(1274, 354)","(1288, 357)","(1299, 365)","(1234, 377)","(1234, 387)","(1234, 398)","(1234, 410)","(1221, 421)","(1228, 423)","(1236, 425)","(1243, 423)","(1251, 420)","(1190, 382)","(1198, 378)","(1208, 377)","(1217, 382)","(1208, 384)","(1198, 384)","(1254, 380)","(1264, 374)","(1273, 374)","(1282, 378)","(1274, 381)","(1264, 381)","(1209, 444)","(1218, 438)","(1228, 435)","(1236, 436)","(1244, 434)","(1256, 436)","(1269, 441)","(1258, 452)","(1247, 457)","(1238, 458)","(1230, 457)","(1219, 454)","(1213, 444)","(1229, 441)","(1237, 441)","(1245, 440)","(1263, 442)","(1246, 448)","(1238, 450)","(1230, 449)",0.25,0.95,51.0,0.37,-0.04,0.4,0.04,-6.5,0.11,0.28,21.8,40.3,82.6,24.15,38.25,92.6,17.23,31.0,61.7
2500,2490368,93,-56,-1,-1,0,"(1169, 386)","(1170, 405)","(1172, 423)","(1174, 441)","(1179, 458)","(1190, 472)","(1204, 483)","(1220, 491)","(1238, 494)","(1257, 491)","(1274, 483)","(1290, 472)","(1301, 458)","(1307, 441)","(1310, 422)","(1311, 403)","(1311, 383)","(1177, 375)","(1184, 366)","(1197, 363)","(1210, 363)","(1222, 368)","(1246, 367)","(1260, 361)","(1274, 359)","(1288, 362)","(1299, 370)","(1234, 379)","(1234, 390)","(1234, 401)","(1234, 412)","(1220, 423)","(1227, 425)","(1235, 427)","(1243, 425)","(1250, 422)","(1191, 384)","(1199, 380)","(1208, 379)","(1218, 384)","(1209, 386)","(1199, 386)","(1255, 382)","(1264, 376)","(1274, 376)","(1282, 380)","(1274, 383)","(1264, 383)","(1207, 445)","(1217, 439)","(1227, 437)","(1235, 438)","(1243, 436)","(1255, 438)","(1267, 443)","(1256, 452)","(1245, 456)","(1236, 457)","(1228, 457)","(1217, 453)","(1212, 445)","(1228, 442)","(1236, 443)","(1244, 442)","(1262, 443)","(1244, 448)","(1236, 449)","(1228, 449)",0.25,0.91,51.0,0.38,-0.04,0.42,0.03,-6.5,0.11,0.28,21.8,39.6,82.6,24.95,40.1,92.9,18.0,31.88,64.0
2533,4390912,93,-56,-1,-1,0,"(1170, 389)","(1170, 407)","(1172, 425)","(1174, 443)","(1180, 459)","(1190, 472)","(1204, 483)","(1219, 491)","(1237, 493)","(1256, 490)","(1273, 483)","(1288, 472)","(1299, 459)","(1306, 442)","(1309, 424)","(1310, 405)","(1311, 386)","(1177, 376)","(1185, 367)","(1197, 363)","(1210, 364)","(1222, 368)","(1246, 367)","(1259, 362)","(1274, 360)","(1287, 363)","(1297, 371)","(1234, 380)","(1234, 390)","(1234, 401)","(1233, 412)","(1221, 422)","(1227, 425)","(1234, 426)","(1242, 424)","(1249, 422)","(1192, 385)","(1199, 380)","(1208, 380)","(1218, 385)","(1209, 386)","(1199, 387)","(1254, 383)","(1264, 377)","(1273, 377)","(1281, 382)","(1273, 384)","(1264, 384)","(1207, 445)","(1217, 440)","(1227, 437)","(1235, 438)","(1243, 436)","(1254, 438)","(1266, 444)","(1255, 452)","(1244, 455)","(1236, 456)","(1228, 456)","(1218, 453)","(1212, 445)","(1227, 442)","(1235, 443)","(1243, 442)","(1261, 444)","(1243, 448)","(1236, 449)","(1228, 448)",0.25,0.88,51.0,0.37,-0.04,0.41,0.02,-6.5,0.1,0.28,23.1,41.1,84.0,25.35,38.35,92.15,16.05,30.64,64.11
2566,4194304,93,-56,-1,-1,0,"(1170, 389)","(1171, 408)","(1172, 425)","(1175, 443)","(1180, 460)","(1190, 473)","(1204, 484)","(1220, 492)","(1239, 495)","(1257, 492)","(1274, 484)","(1289, 473)","(1300, 459)","(1306, 442)","(1309, 423)","(1310, 404)","(1310, 385)","(1177, 377)","(1185, 368)","(1197, 364)","(1210, 365)","(1223, 370)","(1246, 369)","(1259, 363)","(1274, 361)","(1287, 364)","(1297, 372)","(1234, 381)","(1234, 392)","(1234, 402)","(1234, 414)","(1221, 424)","(1228, 426)","(1235, 428)","(1243, 426)","(1250, 423)","(1192, 386)","(1200, 381)","(1209, 381)","(1218, 386)","(1209, 388)","(1200, 388)","(1255, 384)","(1264, 378)","(1273, 378)","(1282, 383)","(1274, 386)","(1264, 385)","(1208, 446)","(1218, 441)","(1228, 438)","(1236, 440)","(1244, 438)","(1255, 440)","(1267, 445)","(1256, 453)","(1245, 457)","(1237, 458)","(1228, 457)","(1218, 454)","(1213, 446)","(1228, 444)","(1236, 444)","(1244, 443)","(1262, 445)","(1244, 449)","(1236, 450)","(1228, 449)",0.27,0.89,51.0,0.37,-0.04,0.42,0.03,-7.5,0.11,0.28,24.0,40.5,83.1,24.7,37.75,90.45,17.47,29.94,61.64
2600,1245184,93,-56,-1,-1,0,"(1170, 388)","(1171, 407)","(1172, 425)","(1174, 443)","(1180, 459)","(1189, 473)","(1203, 484)","(1218, 492)","(1237, 495)","(1255, 493)","(1272, 485)","(1288, 474)","(1299, 460)","(1306, 443)","(1309, 425)","(1310, 406)","(1311, 386)","(1178, 376)","(1186, 368)","(1198, 364)","(1211, 365)","(1223, 369)","(1247, 369)","(1260, 363)","(1274, 361)","(1287, 365)","(1297, 373)","(1234, 381)","(1234, 392)","(1234, 402)","(1233, 414)","(1221, 424)","(1227, 427)","(1234, 428)","(1242, 426)","(1249, 424)","(1193, 386)","(1200, 381)","(1209, 381)","(1218, 386)","(1209, 387)","(1200, 388)","(1254, 384)","(1263, 379)","(1273, 379)","(1281, 383)","(1273, 386)","(1263, 386)","(1208, 447)","(1217, 442)","(1227, 439)","(1235, 440)","(1242, 438)","(1253, 440)","(1265, 445)","(1254, 453)","(1244, 457)","(1236, 458)","(1228, 457)","(1218, 454)","(1212, 447)","(1227, 445)","(1235, 445)","(1243, 444)","(1260, 445)","(1243, 449)","(1235, 450)","(1228, 449)",0.25,0.9,51.0,0.36,-0.03,0.4,0.02,-6.5,0.1,0.28,23.0,40.0,83.4,23.7,36.55,90.2,15.64,27.82,58.0
2633,0,93,-56,-1,-1,0,"(1170, 387)","(1170, 406)","(1172, 423)","(1174, 441)","(1179, 458)","(1189, 472)","(1202, 482)","(1218, 490)","(1236, 493)","(1255, 491)","(1272, 483)","(1288, 472)","(1299, 459)","(1305, 442)","(1308, 423)","(1310, 405)","(1310, 385)","(1178, 375)","(1186, 367)","(1198, 363)","(1211, 364)","(1223, 369)","(1247, 368)","(1259, 363)","(1273, 361)","(1287, 364)","(1297, 372)","(1234, 380)","(1234, 391)","(1234, 401)","(1233, 412)","(1221, 423)","(1227, 425)","(1234, 427)","(1242, 425)","(1249, 422)","(1193, 385)","(1200, 380)","(1209, 380)","(1218, 385)","(1209, 387)","(1200, 387)","(1254, 383)","(1263, 378)","(1273, 378)","(1281, 382)","(1273, 385)","(1263, 385)","(1208, 446)","(1217, 440)","(1227, 438)","(1235, 439)","(1242, 437)","(1253, 439)","(1264, 444)","(1254, 452)","(1243, 455)","(1235, 456)","(1228, 456)","(1218, 453)","(1212, 445)","(1227, 444)","(1235, 444)","(1242, 443)","(1260, 444)","(1243, 447)","(1235, 448)","(1228, 448)",0.25,0.89,51.0,0.37,-0.02,0.4,0.02,-7.0,0.1,0.28,23.8,40.7,83.7,22.6,35.15,89.2,14.41,26.76,55.94
2666,-196608,93,-56,-1,-1,0,"(1170, 386)","(1170, 404)","(1171, 422)","(1173, 440)","(1179, 456)","(1188, 470)","(1201, 481)","(1217, 489)","(1235, 492)","(1254, 489)","(1271, 482)","(1287, 471)","(1298, 457)","(1304, 440)","(1307, 422)","(1309, 403)","(1310, 384)","(1178, 374)","(1185, 365)","(1197, 361)","(1210, 362)","(1223, 367)","(1245, 367)","(1258, 361)","(1272, 359)","(1286, 362)","(1296, 371)","(1233, 378)","(1233, 389)","(1233, 399)","(1232, 410)","(1219, 421)","(1226, 424)","(1233, 425)","(1241, 423)","(1248, 421)","(1191, 383)","(1199, 378)","(1208, 378)","(1217, 383)","(1208, 385)","(1199, 385)","(1253, 382)","(1262, 376)","(1272, 376)","(1280, 380)","(1272, 383)","(1262, 383)","(1206, 444)","(1216, 439)","(1226, 436)","(1233, 437)","(1241, 435)","(1252, 438)","(1263, 443)","(1253, 451)","(1242, 454)","(1234, 455)","(1226, 454)","(1216, 452)","(1211, 444)","(1226, 442)","(1233, 442)","(1241, 441)","(1259, 443)","(1242, 446)","(1234, 447)","(1226, 447)",0.25,0.88,51.0,0.37,-0.03,0.4,0.02,-7.0,0.1,0.28,22.9,41.0,85.1,22.85,35.9,89.3,18.52,30.11,58.82
2700,-327680,93,-56,-1,-1,0,"(1167, 379)","(1167, 398)","(1168, 416)","(1171, 434)","(1177, 451)","(1186, 466)","(1200, 478)","(1215, 487)","(1234, 490)","(1252, 488)","(1269, 480)","(1284, 469)","(1296, 455)","(1304, 438)","(1307, 419)","(1309, 400)","(1310, 380)","(1175, 367)","(1184, 359)","(1195, 357)","(1208, 358)","(1219, 363)","(1245, 363)","(1258, 357)","(1272, 355)","(1285, 358)","(1295, 366)","(1232, 376)","(1232, 387)","(1231, 397)","(1230, 408)","(1218, 419)","(1225, 421)","(1232, 423)","(1240, 421)","(1247, 418)","(1191, 380)","(1199, 376)","(1208, 376)","(1216, 380)","(1208, 383)","(1198, 383)","(1252, 379)","(1261, 374)","(1271, 374)","(1279, 378)","(1271, 381)","(1262, 381)","(1205, 441)","(1214, 435)","(1224, 433)","(1232, 434)","(1240, 432)","(1251, 434)","(1263, 439)","(1253, 449)","(1242, 453)","(1234, 454)","(1225, 454)","(1215, 450)","(1210, 441)","(1225, 438)","(1232, 439)","(1240, 438)","(1258, 440)","(1241, 445)","(1233, 446)","(1226, 446)",0.26,0.92,51.0,0.36,-0.01,0.4,0.03,-7.0,0.1,0.28,22.0,38.9,82.5,22.55,36.6,90.55,17.23,28.23,56.29
2733,-1114112,93,-56,-1,-1,0,"(1165, 378)","(1166, 397)","(1167, 415)","(1170, 433)","(1176, 449)","(1185, 464)","(1199, 475)","(1215, 484)","(1233, 487)","(1251, 485)","(1268, 477)","(1284, 466)","(1296, 453)","(1303, 436)","(1307, 417)","(1309, 397)","(1310, 377)","(1174, 366)","(1182, 358)","(1193, 355)","(1206, 356)","(1218, 361)","(1243, 360)","(1255, 354)","(1269, 352)","(1283, 355)","(1294, 363)","(1230, 373)","(1230, 384)","(1229, 395)","(1229, 406)","(1216, 416)","(1223, 419)","(1230, 420)","(1238, 418)","(1245, 416)","(1190, 377)","(1197, 373)","(1206, 373)","(1215, 377)","(1206, 379)","(1197, 379)","(1250, 376)","(1259, 370)","(1269, 370)","(1277, 374)","(1269, 377)","(1260, 377)","(1204, 438)","(1213, 432)","(1223, 430)","(1230, 431)","(1238, 429)","(1250, 431)","(1262, 436)","(1252, 445)","(1241, 449)","(1232, 450)","(1224, 450)","(1214, 447)","(1209, 438)","(1223, 435)","(1231, 436)","(1239, 435)","(1257, 436)","(1240, 442)","(1232, 443)","(1224, 442)",0.25,0.95,51.0,0.35,-0.02,0.4,0.03,-6.5,0.1,0.28,21.8,38.9,81.8,22.7,36.65,89.6,16.05,27.82,56.35
2766,-1900544,93,-56,-1,-1,0,"(1163, 377)","(1164, 396)","(1166, 414)","(1169, 432)","(1175, 448)","(1185, 462)","(1199, 473)","(1214, 482)","(1233, 485)","(1251, 482)","(1268, 474)","(1284, 464)","(1295, 450)","(1303, 433)","(1306, 413)","(1308, 394)","(1310, 374)","(1172, 362)","(1180, 354)","(1192, 351)","(1204, 352)","(1216, 357)","(1240, 356)","(1253, 350)","(1267, 348)","(1281, 351)","(1292, 359)","(1229, 369)","(1228, 379)","(1228, 390)","(1227, 401)","(1215, 412)","(1222, 415)","(1229, 416)","(1237, 414)","(1244, 412)","(1188, 374)","(1195, 369)","(1204, 369)","(1213, 373)","(1204, 375)","(1195, 376)","(1249, 372)","(1258, 366)","(1267, 366)","(1276, 371)","(1268, 373)","(1258, 373)","(1203, 435)","(1212, 429)","(1222, 426)","(1229, 428)","(1237, 426)","(1249, 428)","(1261, 433)","(1250, 442)","(1239, 446)","(1231, 447)","(1223, 446)","(1213, 443)","(1207, 435)","(1222, 432)","(1230, 432)","(1237, 431)","(1256, 433)","(1239, 438)","(1231, 439)","(1223, 438)",0.26,0.94,51.0,0.35,-0.02,0.39,0.03,-6.5,0.1,0.27,21.6,39.3,81.8,22.4,35.3,89.85,18.58,30.94,61.29
2800,-1441792,93,-56,-1,-1,0,"(1162, 374)","(1162, 393)","(1164, 410)","(1167, 428)","(1172, 445)","(1182, 459)","(1196, 470)","(1212, 477)","(1230, 480)","(1248, 477)","(1265, 469)","(1280, 459)","(1291, 445)","(1298, 428)","(1301, 410)","(1302, 391)","(1302, 372)","(1170, 358)","(1178, 349)","(1189, 346)","(1202, 346)","(1215, 352)","(1238, 351)","(1251, 345)","(1265, 343)","(1279, 346)","(1289, 354)","(1226, 364)","(1226, 375)","(1226, 385)","(1225, 396)","(1213, 408)","(1219, 410)","(1227, 412)","(1234, 410)","(1241, 407)","(1184, 369)","(1192, 365)","(1201, 364)","(1210, 369)","(1201, 371)","(1192, 371)","(1246, 368)","(1255, 362)","(1265, 362)","(1273, 366)","(1265, 369)","(1256, 369)","(1199, 432)","(1209, 425)","(1219, 422)","(1227, 423)","(1234, 421)","(1246, 423)","(1258, 429)","(1247, 437)","(1237, 441)","(1228, 442)","(1220, 442)","(1210, 439)","(1204, 431)","(1219, 429)","(1227, 429)","(1235, 428)","(1253, 429)","(1236, 433)","(1228, 434)","(1220, 434)",0.25,0.89,51.0,0.37,-0.03,0.42,0.02,-6.5,0.1,0.27,23.4,40.7,84.5,22.7,36.55,91.3,16.82,32.05,66.7
2833,-1310720,93,-56,-1,-1,0,"(1161, 368)","(1160, 387)","(1161, 405)","(1163, 423)","(1169, 440)","(1178, 454)","(1192, 465)","(1208, 473)","(1226, 475)","(1245, 472)","(1262, 464)","(1278, 453)","(1289, 439)","(1295, 422)","(1297, 403)","(1298, 385)","(1298, 366)","(1169, 354)","(1176, 345)","(1187, 341)","(1200, 342)","(1213, 347)","(1236, 346)","(1248, 340)","(1262, 338)","(1276, 341)","(1285, 349)","(1224, 360)","(1224, 370)","(1224, 380)","(1223, 391)","(1211, 403)","(1218, 405)","(1224, 407)","(1232, 405)","(1239, 402)","(1183, 365)","(1190, 360)","(1199, 360)","(1208, 364)","(1199, 366)","(1190, 367)","(1244, 362)","(1253, 357)","(1262, 357)","(1270, 361)","(1262, 364)","(1253, 364)","(1198, 427)","(1208, 422)","(1218, 419)","(1225, 420)","(1232, 418)","(1243, 420)","(1255, 425)","(1244, 432)","(1234, 435)","(1226, 436)","(1218, 436)","(1208, 434)","(1203, 427)","(1218, 425)","(1225, 425)","(1232, 424)","(1250, 425)","(1233, 427)","(1226, 428)","(1218, 428)",0.26,0.87,51.0,0.37,-0.04,0.41,0.02,-6.5,0.1,0.26,24.3,42.5,88.0,20.45,32.9,88.55,20.7,35.29,71.52
2866,2359296,93,-56,-1,-1,0,"(1157, 365)","(1157, 384)","(1158, 402)","(1160, 420)","(1166, 437)","(1176, 451)","(1189, 462)","(1205, 470)","(1224, 472)","(1243, 469)","(1260, 462)","(1276, 451)","(1287, 437)","(1294, 419)","(1297, 400)","(1298, 381)","(1298, 362)","(1165, 350)","(1172, 340)","(1184, 336)","(1197, 337)","(1210, 342)","(1233, 341)","(1246, 335)","(1260, 333)","(1274, 336)","(1284, 345)","(1221, 355)","(1221, 366)","(1220, 377)","(1220, 388)","(1207, 400)","(1214, 402)","(1221, 404)","(1229, 402)","(1237, 399)","(1179, 361)","(1186, 356)","(1195, 356)","(1205, 360)","(1196, 362)","(1187, 363)","(1241, 358)","(1250, 353)","(1260, 353)","(1268, 357)","(1260, 360)","(1251, 360)","(1194, 423)","(1204, 417)","(1214, 414)","(1222, 415)","(1229, 414)","(1241, 416)","(1253, 421)","(1242, 430)","(1231, 433)","(1223, 434)","(1214, 434)","(1204, 431)","(1199, 423)","(1214, 420)","(1222, 421)","(1230, 420)","(1248, 421)","(1230, 425)","(1222, 426)","(1215, 425)",0.26,0.91,51.0,0.37,-0.04,0.41,0.02,-6.5,0.11,0.28,24.4,42.5,88.0,22.2,34.6,91.05,19.94,35.94,73.41
2900,-1638400,93,-56,-1,-1,0,"(1153, 363)","(1153, 381)","(1155, 399)","(1157, 418)","(1162, 434)","(1173, 448)","(1186, 459)","(1203, 466)","(1221, 469)","(1240, 466)","(1258, 458)","(1274, 447)","(1286, 433)","(1293, 416)","(1295, 397)","(1296, 377)","(1296, 358)","(1161, 347)","(1169, 337)","(1181, 332)","(1194, 333)","(1206, 338)","(1229, 337)","(1242, 331)","(1256, 329)","(1270, 332)","(1280, 341)","(1217, 352)","(1217, 362)","(1217, 372)","(1216, 383)","(1204, 396)","(1211, 398)","(1218, 399)","(1226, 397)","(1233, 395)","(1176, 359)","(1183, 355)","(1192, 354)","(1201, 358)","(1192, 359)","(1184, 360)","(1238, 356)","(1247, 351)","(1256, 351)","(1264, 355)","(1256, 357)","(1247, 357)","(1191, 420)","(1201, 414)","(1211, 410)","(1219, 412)","(1226, 410)","(1238, 412)","(1250, 417)","(1239, 425)","(1228, 429)","(1219, 430)","(1211, 430)","(1201, 427)","(1196, 420)","(1211, 417)","(1219, 417)","(1227, 416)","(1246, 417)","(1227, 421)","(1219, 422)","(1212, 422)",0.23,0.89,51.0,0.35,-0.05,0.41,0.02,-5.0,0.11,0.26,24.5,43.2,87.7,21.95,34.85,90.45,20.94,35.7,72.29
2933,-1638400,93,-56,-1,-1,0,"(1150, 361)","(1150, 380)","(1152, 398)","(1154, 417)","(1160, 433)","(1170, 447)","(1184, 458)","(1200, 466)","(1218, 468)","(1238, 465)","(1256, 457)","(1272, 447)","(1284, 432)","(1291, 415)","(1294, 396)","(1295, 376)","(1295, 356)","(1159, 343)","(1166, 333)","(1178, 329)","(1191, 329)","(1203, 334)","(1226, 333)","(1239, 326)","(1254, 324)","(1268, 327)","(1279, 337)","(1214, 349)","(1214, 359)","(1214, 370)","(1214, 381)","(1201, 394)","(1208, 396)","(1215, 397)","(1223, 395)","(1231, 393)","(1173, 357)","(1180, 353)","(1189, 352)","(1199, 356)","(1190, 358)","(1181, 359)","(1236, 354)","(1245, 349)","(1254, 349)","(1263, 352)","(1254, 355)","(1245, 355)","(1187, 418)","(1197, 411)","(1208, 408)","(1216, 409)","(1224, 407)","(1235, 410)","(1248, 416)","(1236, 424)","(1225, 428)","(1216, 429)","(1207, 429)","(1197, 426)","(1192, 418)","(1208, 415)","(1216, 415)","(1224, 414)","(1243, 416)","(1224, 419)","(1216, 420)","(1208, 420)",0.22,0.87,52.0,0.36,-0.06,0.42,0.02,-5.5,0.11,0.26,26.4,44.8,91.5,23.9,37.5,91.7,22.11,38.76,78.05
2966,-1441792,93,-56,-1,-1,0,"(1144, 355)","(1144, 374)","(1146, 393)","(1148, 412)","(1154, 430)","(1165, 445)","(1180, 457)","(1197, 466)","(1217, 468)","(1236, 465)","(1255, 456)","(1271, 444)","(1283, 429)","(1290, 410)","(1293, 390)","(1294, 371)","(1293, 350)","(1153, 338)","(1160, 329)","(1172, 325)","(1186, 325)","(1199, 330)","(1223, 329)","(1236, 323)","(1250, 321)","(1265, 324)","(1275, 333)","(1211, 345)","(1211, 356)","(1210, 367)","(1210, 378)","(1197, 391)","(1204, 393)","(1212, 395)","(1220, 392)","(1228, 390)","(1169, 353)","(1176, 349)","(1185, 348)","(1195, 351)","(1186, 353)","(1177, 354)","(1232, 349)","(1241, 345)","(1251, 346)","(1259, 348)","(1251, 351)","(1241, 350)","(1185, 415)","(1195, 408)","(1205, 405)","(1213, 406)","(1221, 405)","(1233, 406)","(1246, 412)","(1235, 422)","(1224, 426)","(1215, 427)","(1206, 427)","(1196, 424)","(1190, 414)","(1205, 412)","(1213, 412)","(1222, 411)","(1241, 413)","(1223, 418)","(1214, 419)","(1206, 418)",0.18,0.92,52.0,0.35,-0.04,0.4,0.03,-5.0,0.11,0.26,25.0,43.3,88.7,22.95,36.1,91.6,19.17,35.52,70.58
3000,655360,93,-56,-1,-1,0,"(1138, 353)","(1139, 374)","(1141, 394)","(1144, 414)","(1151, 431)","(1162, 447)","(1177, 458)","(1195, 467)","(1215, 469)","(1236, 465)","(1254, 456)","(1271, 444)","(1283, 428)","(1290, 409)","(1292, 388)","(1293, 367)","(1293, 346)","(1146, 336)","(1154, 326)","(1167, 322)","(1181, 322)","(1194, 327)","(1220, 326)","(1233, 319)","(1248, 317)","(1263, 320)","(1275, 329)","(1207, 342)","(1207, 353)","(1207, 364)","(1207, 376)","(1194, 390)","(1201, 392)","(1209, 393)","(1217, 391)","(1225, 388)","(1163, 350)","(1171, 346)","(1180, 345)","(1191, 348)","(1181, 350)","(1172, 351)","(1229, 346)","(1239, 341)","(1249, 341)","(1258, 344)","(1249, 347)","(1239, 347)","(1181, 415)","(1191, 408)","(1202, 404)","(1210, 405)","(1218, 403)","(1231, 405)","(1244, 412)","(1233, 422)","(1221, 426)","(1212, 428)","(1203, 427)","(1192, 424)","(1186, 415)","(1202, 411)","(1211, 412)","(1219, 410)","(1238, 412)","(1220, 417)","(1211, 418)","(1203, 418)",0.2,0.92,52.0,0.36,-0.06,0.4,0.02,-5.0,0.11,0.26,23.0,42.1,86.0,24.75,37.4,92.65,18.47,34.94,69.11
3033,3080192,93,-56,-1,-1,0,"(1133, 351)","(1134, 372)","(1137, 393)","(1140, 413)","(1146, 431)","(1157, 447)","(1173, 459)","(1191, 468)","(1212, 470)","(1233, 466)","(1253, 457)","(1270, 444)","(1282, 428)","(1289, 408)","(1292, 386)","(1293, 365)","(1293, 342)","(1140, 334)","(1148, 324)","(1161, 319)","(1176, 319)","(1190, 325)","(1217, 323)","(1231, 316)","(1247, 313)","(1263, 317)","(1275, 326)","(1203, 339)","(1203, 351)","(1203, 362)","(1203, 374)","(1190, 388)","(1197, 390)","(1205, 392)","(1214, 389)","(1222, 387)","(1158, 347)","(1166, 343)","(1175, 342)","(1186, 346)","(1176, 348)","(1166, 349)","(1227, 342)","(1237, 337)","(1247, 337)","(1256, 341)","(1247, 343)","(1237, 344)","(1177, 415)","(1187, 407)","(1198, 404)","(1206, 405)","(1215, 403)","(1228, 405)","(1241, 411)","(1230, 421)","(1218, 425)","(1208, 427)","(1199, 426)","(1188, 423)","(1182, 414)","(1198, 411)","(1207, 411)","(1216, 410)","(1236, 411)","(1217, 416)","(1208, 417)","(1199, 417)",0.22,0.92,52.0,0.35,-0.06,0.4,0.03,-5.5,0.11,0.26,23.7,41.4,86.1,22.75,36.4,91.95,19.41,34.11,68.41
3066,3538944,93,-56,-1,-1,0,"(1127, 350)","(1128, 372)","(1131, 392)","(1134, 413)","(1140, 432)","(1152, 448)","(1168, 459)","(1187, 468)","(1208, 470)","(1230, 466)","(1250, 456)","(1268, 443)","(1281, 426)","(1288, 406)","(1291, 384)","(1292, 362)","(1292, 339)","(1134, 333)","(1142, 322)","(1156, 317)","(1171, 317)","(1185, 322)","(1213, 320)","(1228, 313)","(1244, 311)","(1261, 314)","(1273, 323)","(1199, 337)","(1199, 349)","(1199, 360)","(1198, 373)","(1186, 388)","(1193, 390)","(1201, 391)","(1210, 389)","(1218, 386)","(1152, 345)","(1160, 341)","(1170, 339)","(1181, 344)","(1171, 346)","(1161, 347)","(1224, 340)","(1234, 335)","(1245, 334)","(1255, 338)","(1245, 341)","(1235, 341)","(1172, 416)","(1183, 408)","(1194, 404)","(1202, 405)","(1211, 403)","(1224, 405)","(1239, 411)","(1226, 420)","(1214, 424)","(1205, 426)","(1195, 426)","(1184, 423)","(1178, 415)","(1194, 412)","(1203, 412)","(1212, 410)","(1233, 411)","(1213, 415)","(1204, 416)","(1195, 416)",0.21,0.9,53.0,0.36,-0.08,0.4,0.02,-5.5,0.11,0.27,24.5,42.2,86.3,20.3,33.7,89.8,16.82,30.0,62.47
3100,262144,93,-56,-1,-1,0,"(1122, 348)","(1123, 370)","(1126, 392)","(1129, 413)","(1135, 433)","(1147, 449)","(1163, 462)","(1182, 471)","(1205, 474)","(1227, 469)","(1248, 458)","(1265, 444)","(1279, 427)","(1286, 406)","(1289, 383)","(1290, 361)","(1290, 337)","(1129, 332)","(1137, 321)","(1150, 316)","(1166, 315)","(1181, 321)","(1209, 318)","(1225, 311)","(1242, 308)","(1259, 312)","(1272, 322)","(1195, 335)","(1195, 348)","(1194, 361)","(1194, 375)","(1180, 389)","(1188, 391)","(1197, 393)","(1206, 390)","(1215, 386)","(1146, 344)","(1155, 339)","(1165, 338)","(1177, 342)","(1166, 345)","(1155, 346)","(1221, 338)","(1231, 332)","(1242, 332)","(1252, 336)","(1243, 339)","(1232, 339)","(1167, 417)","(1178, 410)","(1189, 407)","(1198, 408)","(1208, 405)","(1221, 407)","(1236, 412)","(1223, 421)","(1210, 426)","(1200, 427)","(1191, 427)","(1179, 425)","(1172, 417)","(1190, 414)","(1199, 414)","(1208, 412)","(1230, 412)","(1209, 416)","(1200, 418)","(1191, 418)",0.22,0.9,53.0,0.36,-0.07,0.41,0.02,-6.5,0.11,0.28,25.2,44.0,88.2,20.0,31.9,88.05,18.47,31.64,64.47
3133,-1310720,93,-56,-1,-1,0,"(1117, 347)","(1118, 370)","(1121, 392)","(1123, 414)","(1130, 434)","(1142, 452)","(1158, 465)","(1177, 474)","(1200, 477)","(1224, 473)","(1245, 462)","(1264, 448)","(1277, 430)","(1285, 408)","(1287, 385)","(1289, 361)","(1288, 337)","(1124, 331)","(1132, 320)","(1146, 314)","(1162, 314)","(1177, 320)","(1205, 318)","(1221, 310)","(1239, 308)","(1257, 311)","(1270, 321)","(1191, 335)","(1191, 348)","(1190, 361)","(1190, 375)","(1176, 390)","(1184, 392)","(1192, 394)","(1202, 391)","(1211, 388)","(1141, 344)","(1150, 338)","(1161, 337)","(1172, 342)","(1161, 345)","(1151, 346)","(1218, 338)","(1228, 332)","(1240, 331)","(1250, 336)","(1240, 339)","(1229, 340)","(1163, 420)","(1174, 413)","(1185, 409)","(1194, 410)","(1203, 408)","(1216, 409)","(1232, 415)","(1218, 423)","(1205, 427)","(1196, 429)","(1186, 429)","(1175, 427)","(1168, 419)","(1185, 417)","(1195, 417)","(1204, 415)","(1226, 415)","(1204, 418)","(1195, 420)","(1186, 419)",0.25,0.91,54.0,0.36,-0.07,0.4,0.01,-7.0,0.11,0.28,24.9,44.3,90.3,18.8,30.35,87.35,19.76,33.82,67.94
3166,-917504,93,-56,-1,-1,0,"(1113, 349)","(1114, 372)","(1116, 395)","(1119, 417)","(1126, 438)","(1138, 456)","(1154, 469)","(1173, 480)","(1197, 482)","(1221, 478)","(1243, 467)","(1262, 452)","(1276, 433)","(1284, 411)","(1287, 386)","(1288, 362)","(1287, 336)","(1118, 332)","(1127, 320)","(1141, 314)","(1157, 314)","(1173, 320)","(1202, 318)","(1218, 310)","(1237, 307)","(1255, 311)","(1268, 321)","(1187, 336)","(1187, 350)","(1186, 363)","(1186, 378)","(1171, 393)","(1180, 396)","(1189, 397)","(1199, 394)","(1208, 391)","(1137, 345)","(1145, 339)","(1157, 338)","(1168, 343)","(1157, 346)","(1146, 347)","(1215, 339)","(1225, 332)","(1237, 331)","(1248, 336)","(1238, 340)","(1226, 340)","(1158, 423)","(1170, 416)","(1181, 413)","(1190, 414)","(1200, 411)","(1214, 413)","(1230, 418)","(1216, 428)","(1202, 432)","(1192, 434)","(1182, 433)","(1170, 430)","(1164, 422)","(1182, 420)","(1191, 421)","(1200, 419)","(1224, 419)","(1201, 422)","(1191, 424)","(1182, 423)",0.25,0.92,54.0,0.36,-0.08,0.41,0.01,-7.5,0.12,0.28,26.5,45.6,90.9,19.4,31.15,85.9,22.64,37.41,73.47
3200,-1507328,93,-56,-1,-1,0,"(1105, 350)","(1105, 374)","(1108, 396)","(1111, 419)","(1118, 441)","(1130, 459)","(1147, 474)","(1167, 484)","(1191, 486)","(1215, 482)","(1237, 471)","(1256, 456)","(1270, 437)","(1277, 415)","(1280, 391)","(1281, 367)","(1280, 342)","(1112, 332)","(1121, 319)","(1136, 314)","(1152, 314)","(1168, 319)","(1198, 318)","(1214, 310)","(1233, 307)","(1250, 311)","(1263, 323)","(1183, 336)","(1183, 350)","(1182, 364)","(1182, 379)","(1167, 394)","(1175, 396)","(1184, 398)","(1194, 396)","(1203, 392)","(1131, 345)","(1139, 339)","(1151, 338)","(1163, 343)","(1151, 346)","(1140, 347)","(1210, 340)","(1221, 333)","(1233, 333)","(1243, 337)","(1233, 341)","(1221, 341)","(1153, 427)","(1164, 420)","(1176, 416)","(1186, 417)","(1195, 415)","(1209, 417)","(1224, 423)","(1210, 431)","(1197, 435)","(1187, 437)","(1178, 437)","(1165, 434)","(1159, 426)","(1177, 424)","(1186, 424)","(1196, 423)","(1218, 423)","(1196, 425)","(1187, 427)","(1177, 427)",0.24,0.9,54.0,0.37,-0.07,0.4,0.01,-7.5,0.11,0.28,25.8,46.0,94.2,18.05,29.65,85.95,21.11,36.76,76.47
3233,-1769472,93,-56,-1,-1,0,"(1097, 349)","(1097, 375)","(1100, 399)","(1103, 424)","(1110, 446)","(1124, 466)","(1142, 481)","(1162, 492)","(1187, 496)","(1213, 491)","(1236, 479)","(1257, 463)","(1273, 442)","(1282, 418)","(1285, 392)","(1286, 365)","(1286, 338)","(1104, 332)","(1113, 320)","(1128, 314)","(1145, 314)","(1162, 320)","(1194, 319)","(1211, 310)","(1231, 307)","(1249, 310)","(1264, 320)","(1177, 338)","(1177, 353)","(1177, 367)","(1176, 382)","(1162, 398)","(1170, 401)","(1179, 403)","(1189, 399)","(1199, 396)","(1124, 347)","(1133, 341)","(1145, 340)","(1157, 345)","(1145, 348)","(1134, 349)","(1207, 341)","(1218, 334)","(1231, 334)","(1242, 338)","(1231, 342)","(1219, 342)","(1148, 432)","(1159, 424)","(1172, 420)","(1181, 422)","(1191, 419)","(1206, 421)","(1222, 427)","(1208, 437)","(1193, 441)","(1183, 443)","(1172, 443)","(1160, 440)","(1154, 431)","(1172, 428)","(1182, 429)","(1192, 427)","(1216, 427)","(1192, 431)","(1182, 433)","(1172, 432)",0.22,0.93,54.0,0.36,-0.09,0.39,0.01,-7.5,0.11,0.27,26.4,45.2,92.1,19.45,32.05,87.3,17.41,32.41,65.41
3266,-2424832,93,-56,-1,-1,0,"(1086, 355)","(1088, 381)","(1092, 406)","(1095, 431)","(1103, 454)","(1116, 473)","(1135, 488)","(1157, 499)","(1182, 502)","(1208, 497)","(1232, 485)","(1253, 470)","(1269, 450)","(1277, 426)","(1281, 399)","(1283, 372)","(1284, 344)","(1094, 334)","(1104, 322)","(1120, 316)","(1138, 316)","(1155, 322)","(1189, 321)","(1206, 312)","(1226, 309)","(1246, 312)","(1262, 324)","(1172, 339)","(1171, 355)","(1171, 370)","(1170, 386)","(1155, 403)","(1164, 406)","(1173, 408)","(1184, 405)","(1194, 401)","(1115, 349)","(1125, 342)","(1138, 341)","(1151, 347)","(1138, 350)","(1125, 351)","(1202, 344)","(1214, 335)","(1227, 335)","(1239, 340)","(1228, 345)","(1215, 345)","(1141, 437)","(1153, 429)","(1165, 426)","(1175, 427)","(1185, 425)","(1201, 427)","(1218, 433)","(1203, 443)","(1189, 448)","(1178, 449)","(1167, 449)","(1154, 446)","(1147, 437)","(1166, 434)","(1176, 434)","(1186, 433)","(1211, 433)","(1187, 437)","(1177, 438)","(1167, 438)",0.27,0.96,55.0,0.36,-0.07,0.38,0.02,-9.0,0.11,0.28,26.5,45.3,92.0,19.0,31.5,84.8,17.88,32.58,66.76
3300,-1245184,93,-56,-1,-1,0,"(1080, 357)","(1080, 384)","(1084, 410)","(1088, 435)","(1095, 459)","(1109, 480)","(1128, 496)","(1150, 508)","(1176, 511)","(1202, 506)","(1227, 493)","(1249, 476)","(1265, 455)","(1274, 430)","(1278, 402)","(1280, 374)","(1280, 346)","(1087, 338)","(1097, 325)","(1113, 320)","(1131, 320)","(1149, 326)","(1182, 324)","(1200, 315)","(1221, 311)","(1241, 314)","(1257, 326)","(1165, 344)","(1165, 360)","(1164, 377)","(1163, 394)","(1148, 410)","(1157, 413)","(1167, 415)","(1178, 412)","(1188, 408)","(1108, 353)","(1118, 346)","(1131, 345)","(1144, 352)","(1131, 355)","(1118, 356)","(1196, 347)","(1209, 339)","(1222, 338)","(1234, 344)","(1223, 348)","(1209, 348)","(1134, 444)","(1146, 437)","(1159, 433)","(1169, 435)","(1180, 432)","(1196, 433)","(1213, 439)","(1198, 450)","(1183, 456)","(1171, 457)","(1160, 457)","(1147, 453)","(1140, 444)","(1159, 441)","(1170, 442)","(1181, 440)","(1207, 440)","(1181, 444)","(1171, 446)","(1160, 445)",0.24,0.94,55.0,0.37,-0.08,0.39,0.02,-9.0,0.11,0.29,26.9,46.2,92.3,20.75,32.8,85.55,19.94,36.82,73.76
3333,-2228224,93,-56,-1,-1,0,"(1071, 360)","(1072, 388)","(1075, 415)","(1079, 442)","(1086, 467)","(1100, 489)","(1119, 506)","(1142, 519)","(1169, 522)","(1197, 517)","(1223, 503)","(1246, 485)","(1262, 463)","(1271, 436)","(1275, 407)","(1276, 378)","(1276, 348)","(1078, 342)","(1088, 328)","(1104, 323)","(1123, 323)","(1141, 329)","(1175, 327)","(1194, 318)","(1216, 314)","(1237, 317)","(1253, 329)","(1158, 348)","(1157, 365)","(1157, 382)","(1156, 400)","(1140, 416)","(1149, 420)","(1160, 422)","(1171, 419)","(1182, 414)","(1099, 357)","(1109, 351)","(1122, 349)","(1136, 356)","(1123, 359)","(1109, 360)","(1190, 351)","(1203, 343)","(1217, 342)","(1229, 348)","(1217, 352)","(1203, 353)","(1126, 453)","(1138, 445)","(1151, 442)","(1162, 443)","(1173, 440)","(1189, 442)","(1207, 447)","(1191, 458)","(1176, 463)","(1164, 465)","(1153, 465)","(1139, 461)","(1132, 452)","(1152, 450)","(1163, 451)","(1174, 449)","(1200, 448)","(1174, 452)","(1163, 454)","(1152, 453)",0.25,0.94,56.0,0.37,-0.08,0.39,0.01,-8.5,0.11,0.29,27.1,47.0,96.1,19.8,32.2,84.95,22.76,39.76,77.29
3366,8912896,93,-56,-1,-1,0,"(1060, 369)","(1060, 397)","(1063, 424)","(1067, 451)","(1075, 476)","(1090, 498)","(1109, 516)","(1133, 528)","(1160, 531)","(1188, 526)","(1214, 512)","(1236, 494)","(1252, 471)","(1261, 444)","(1265, 416)","(1266, 388)","(1264, 359)","(1067, 344)","(1077, 331)","(1094, 324)","(1113, 325)","(1132, 332)","(1168, 331)","(1187, 321)","(1208, 317)","(1228, 321)","(1243, 334)","(1150, 353)","(1150, 369)","(1150, 386)","(1149, 403)","(1132, 422)","(1142, 425)","(1153, 427)","(1164, 424)","(1175, 419)","(1089, 362)","(1099, 355)","(1113, 354)","(1127, 360)","(1114, 364)","(1100, 365)","(1182, 357)","(1195, 348)","(1209, 348)","(1221, 353)","(1210, 358)","(1196, 358)","(1117, 461)","(1130, 452)","(1144, 448)","(1154, 450)","(1165, 447)","(1181, 449)","(1199, 456)","(1183, 467)","(1168, 472)","(1157, 474)","(1145, 474)","(1132, 470)","(1124, 460)","(1144, 457)","(1155, 458)","(1166, 456)","(1192, 456)","(1167, 460)","(1156, 462)","(1145, 461)",0.25,0.91,56.0,0.37,-0.07,0.4,0.01,-9.5,0.12,0.28,29.7,49.5,96.7,19.85,32.25,84.65,24.47,40.64,79.47
3400,-3735552,93,-56,-1,-1,0,"(1048, 368)","(1049, 398)","(1053, 427)","(1056, 456)","(1064, 483)","(1079, 506)","(1099, 525)","(1122, 539)","(1152, 543)","(1182, 539)","(1210, 524)","(1234, 505)","(1253, 482)","(1264, 453)","(1269, 422)","(1272, 390)","(1273, 358)","(1055, 347)","(1067, 334)","(1084, 329)","(1104, 329)","(1123, 337)","(1161, 335)","(1182, 325)","(1204, 321)","(1228, 324)","(1246, 336)","(1143, 356)","(1142, 374)","(1140, 393)","(1140, 412)","(1122, 429)","(1133, 433)","(1144, 436)","(1156, 432)","(1168, 427)","(1079, 365)","(1090, 359)","(1104, 357)","(1119, 364)","(1105, 367)","(1091, 369)","(1177, 360)","(1192, 352)","(1206, 351)","(1220, 357)","(1207, 362)","(1192, 362)","(1108, 468)","(1121, 460)","(1134, 457)","(1146, 459)","(1158, 456)","(1175, 457)","(1195, 463)","(1177, 475)","(1161, 481)","(1149, 483)","(1136, 482)","(1122, 479)","(1114, 468)","(1135, 466)","(1147, 467)","(1159, 465)","(1187, 464)","(1160, 468)","(1148, 470)","(1136, 469)",0.24,0.96,57.0,0.36,-0.06,0.38,0.01,-9.0,0.11,0.29,27.4,46.9,94.2,20.4,33.05,85.1,20.52,35.94,71.35
3433,-1835008,93,-56,-1,-1,0,"(1039, 373)","(1039, 405)","(1043, 434)","(1047, 463)","(1055, 491)","(1070, 516)","(1091, 535)","(1115, 549)","(1145, 553)","(1176, 548)","(1205, 533)","(1231, 513)","(1250, 488)","(1262, 459)","(1266, 426)","(1268, 394)","(1268, 360)","(1045, 352)","(1056, 338)","(1074, 332)","(1095, 333)","(1115, 341)","(1153, 339)","(1174, 328)","(1198, 324)","(1222, 327)","(1240, 340)","(1134, 361)","(1133, 380)","(1132, 399)","(1131, 419)","(1114, 437)","(1124, 441)","(1135, 443)","(1148, 440)","(1160, 435)","(1069, 371)","(1080, 364)","(1095, 362)","(1110, 369)","(1096, 373)","(1081, 374)","(1170, 365)","(1185, 356)","(1200, 356)","(1214, 361)","(1201, 366)","(1185, 367)","(1099, 477)","(1112, 469)","(1127, 465)","(1138, 467)","(1150, 464)","(1168, 465)","(1187, 472)","(1170, 483)","(1153, 489)","(1140, 491)","(1128, 491)","(1114, 487)","(1106, 476)","(1127, 475)","(1139, 475)","(1151, 473)","(1179, 472)","(1151, 476)","(1140, 478)","(1128, 477)",0.23,0.95,57.0,0.37,-0.07,0.38,0.01,-9.5,0.11,0.3,28.8,48.1,94.4,21.45,33.8,83.25,22.76,38.76,73.35
3466,-786432,93,-56,-1,-1,0,"(1026, 380)","(1028, 412)","(1033, 442)","(1037, 473)","(1046, 501)","(1061, 526)","(1083, 545)","(1108, 559)","(1138, 563)","(1170, 558)","(1200, 543)","(1226, 523)","(1246, 499)","(1258, 469)","(1263, 436)","(1266, 402)","(1267, 368)","(1034, 358)","(1045, 343)","(1065, 336)","(1087, 337)","(1107, 344)","(1146, 342)","(1168, 332)","(1193, 328)","(1218, 332)","(1238, 346)","(1127, 365)","(1126, 384)","(1125, 404)","(1124, 424)","(1106, 443)","(1116, 447)","(1128, 450)","(1141, 446)","(1154, 441)","(1059, 375)","(1071, 367)","(1086, 366)","(1102, 374)","(1087, 378)","(1071, 379)","(1164, 370)","(1179, 359)","(1195, 359)","(1211, 366)","(1196, 371)","(1180, 372)","(1090, 485)","(1104, 475)","(1118, 471)","(1130, 473)","(1143, 470)","(1162, 472)","(1182, 479)","(1164, 491)","(1146, 498)","(1133, 500)","(1120, 499)","(1105, 495)","(1097, 484)","(1119, 481)","(1131, 482)","(1144, 480)","(1174, 479)","(1145, 484)","(1132, 486)","(1120, 485)",0.26,0.95,58.0,0.37,-0.07,0.38,0.01,-11.5,0.11,0.29,29.7,47.9,95.7,21.5,32.7,84.9,22.29,37.88,73.76
3500,65536,93,-56,-1,-1,0,"(1017, 389)","(1018, 421)","(1022, 450)","(1027, 481)","(1036, 509)","(1052, 534)","(1073, 555)","(1098, 570)","(1129, 574)","(1161, 569)","(1191, 555)","(1218, 535)","(1237, 509)","(1249, 479)","(1253, 446)","(1256, 412)","(1256, 378)","(1025, 362)","(1036, 347)","(1055, 340)","(1076, 341)","(1097, 349)","(1138, 347)","(1160, 335)","(1184, 332)","(1209, 336)","(1228, 351)","(1117, 371)","(1117, 391)","(1116, 411)","(1115, 432)","(1096, 451)","(1107, 455)","(1119, 458)","(1132, 454)","(1145, 450)","(1049, 381)","(1061, 373)","(1077, 371)","(1092, 380)","(1078, 384)","(1062, 385)","(1155, 376)","(1170, 366)","(1186, 365)","(1201, 372)","(1188, 378)","(1171, 378)","(1080, 492)","(1094, 484)","(1109, 479)","(1121, 482)","(1134, 479)","(1153, 481)","(1175, 488)","(1156, 501)","(1138, 507)","(1124, 509)","(1111, 508)","(1096, 504)","(1088, 492)","(1110, 490)","(1122, 491)","(1135, 489)","(1166, 489)","(1136, 493)","(1123, 495)","(1111, 494)",0.27,0.97,58.0,0.37,-0.06,0.39,0.01,-11.5,0.11,0.3,29.0,49.2,96.5,22.55,34.2,86.45,26.64,43.35,83.29
3533,2752512,93,-56,-1,-1,0,"(1008, 396)","(1009, 427)","(1013, 457)","(1018, 488)","(1026, 517)","(1042, 542)","(1063, 562)","(1089, 577)","(1120, 581)","(1153, 577)","(1185, 563)","(1212, 543)","(1232, 518)","(1244, 486)","(1248, 453)","(1250, 419)","(1250, 384)","(1015, 367)","(1026, 351)","(1045, 344)","(1067, 344)","(1089, 352)","(1130, 350)","(1153, 339)","(1178, 335)","(1203, 340)","(1222, 355)","(1109, 376)","(1108, 395)","(1107, 415)","(1106, 435)","(1087, 456)","(1098, 460)","(1110, 462)","(1124, 459)","(1137, 454)","(1039, 388)","(1051, 379)","(1067, 377)","(1083, 386)","(1068, 390)","(1052, 391)","(1147, 381)","(1163, 371)","(1179, 370)","(1195, 377)","(1181, 383)","(1164, 384)","(1071, 500)","(1085, 490)","(1100, 485)","(1113, 488)","(1125, 484)","(1145, 487)","(1168, 495)","(1148, 508)","(1129, 513)","(1115, 515)","(1102, 515)","(1087, 511)","(1079, 500)","(1101, 497)","(1113, 497)","(1126, 496)","(1159, 496)","(1127, 499)","(1114, 501)","(1102, 500)",0.27,0.98,58.0,0.38,-0.07,0.4,0.01,-11.5,0.11,0.28,30.9,50.6,98.2,20.35,32.6,82.55,27.17,46.23,86.52
3566,4587520,93,-56,-1,-1,0,"(999, 396)","(999, 428)","(1003, 460)","(1007, 492)","(1015, 523)","(1030, 550)","(1052, 572)","(1079, 588)","(1111, 594)","(1146, 589)","(1180, 573)","(1208, 552)","(1229, 525)","(1241, 492)","(1245, 457)","(1247, 421)","(1247, 385)","(1006, 370)","(1016, 354)","(1036, 346)","(1059, 347)","(1081, 355)","(1122, 354)","(1146, 342)","(1173, 338)","(1199, 343)","(1218, 359)","(1101, 380)","(1100, 400)","(1098, 420)","(1097, 442)","(1078, 462)","(1090, 466)","(1102, 469)","(1116, 465)","(1130, 460)","(1030, 391)","(1042, 382)","(1058, 381)","(1075, 389)","(1059, 393)","(1043, 395)","(1141, 385)","(1156, 375)","(1174, 374)","(1189, 382)","(1175, 387)","(1157, 388)","(1062, 508)","(1076, 498)","(1092, 493)","(1105, 495)","(1118, 491)","(1138, 495)","(1160, 503)","(1140, 517)","(1121, 522)","(1107, 524)","(1093, 523)","(1078, 519)","(1070, 507)","(1092, 504)","(1105, 505)","(1118, 503)","(1151, 503)","(1119, 508)","(1106, 510)","(1093, 509)",0.27,0.95,58.0,0.37,-0.07,0.39,0.01,-11.5,0.11,0.28,31.1,50.8,99.7,21.15,33.4,86.15,29.35,47.52,86.64
3600,1376256,93,-56,-1,-1,0,"(991, 406)","(991, 438)","(994, 469)","(999, 501)","(1007, 531)","(1023, 557)","(1046, 577)","(1072, 591)","(1104, 596)","(1137, 591)","(1169, 576)","(1196, 555)","(1215, 528)","(1225, 496)","(1230, 462)","(1232, 428)","(1231, 394)","(996, 372)","(1008, 356)","(1028, 348)","(1051, 349)","(1073, 358)","(1115, 356)","(1138, 345)","(1164, 341)","(1189, 346)","(1207, 363)","(1095, 383)","(1094, 402)","(1092, 421)","(1091, 442)","(1072, 464)","(1083, 468)","(1095, 471)","(1109, 467)","(1122, 463)","(1022, 393)","(1034, 384)","(1051, 383)","(1067, 391)","(1051, 395)","(1035, 397)","(1133, 388)","(1148, 378)","(1165, 378)","(1180, 385)","(1166, 390)","(1149, 391)","(1055, 513)","(1069, 503)","(1085, 497)","(1097, 500)","(1110, 496)","(1129, 500)","(1150, 510)","(1131, 521)","(1114, 527)","(1100, 528)","(1088, 528)","(1071, 524)","(1063, 512)","(1086, 509)","(1098, 510)","(1111, 508)","(1141, 510)","(1112, 512)","(1100, 514)","(1087, 513)",0.26,0.94,58.0,0.38,-0.05,0.39,0.01,-11.5,0.11,0.27,30.4,51.2,98.2,19.35,30.55,81.9,33.35,51.82,94.11
3633,-786432,93,-56,-1,-1,0,"(985, 407)","(985, 440)","(988, 471)","(993, 503)","(1001, 534)","(1017, 562)","(1039, 583)","(1066, 599)","(1099, 603)","(1133, 598)","(1166, 583)","(1194, 562)","(1214, 535)","(1225, 502)","(1229, 468)","(1231, 433)","(1231, 398)","(990, 374)","(1001, 356)","(1021, 348)","(1044, 349)","(1067, 357)","(1111, 355)","(1135, 344)","(1162, 340)","(1188, 346)","(1206, 364)","(1089, 384)","(1088, 403)","(1086, 423)","(1085, 443)","(1066, 467)","(1077, 471)","(1089, 473)","(1103, 470)","(1117, 465)","(1016, 396)","(1028, 387)","(1044, 386)","(1061, 394)","(1045, 398)","(1028, 400)","(1129, 390)","(1145, 380)","(1162, 380)","(1178, 387)","(1163, 392)","(1146, 393)","(1049, 517)","(1063, 505)","(1079, 499)","(1092, 501)","(1105, 498)","(1125, 502)","(1147, 512)","(1127, 525)","(1109, 530)","(1095, 532)","(1082, 531)","(1065, 528)","(1057, 516)","(1080, 511)","(1093, 512)","(1106, 510)","(1138, 512)","(1107, 515)","(1094, 517)","(1081, 516)",0.25,0.95,58.0,0.38,-0.06,0.39,0.01,-11.5,0.11,0.26,31.3,52.5,100.8,20.0,30.55,81.4,32.0,49.76,92.29
