milliseconds, ECG, ECG HR, PPG, PPG HR, SpO2, PI
0,14155776,79,-56,-1,-1,0
33,-1114112,79,-56,-1,-1,0
66,-1048576,79,-56,-1,-1,0
100,-196608,79,-56,-1,-1,0
133,65536,79,-56,-1,-1,0
166,1310720,79,-56,-1,-1,0
200,524288,79,-56,-1,-1,0
233,-917504,79,-56,-1,-1,0
266,-1572864,79,-56,-1,-1,0
300,-1179648,79,-56,-1,-1,0
333,-983040,79,-56,-1,-1,0
366,-720896,79,-56,-1,-1,0
400,-262144,79,-56,-1,-1,0
433,-655360,79,-56,-1,-1,0
466,-65536,79,-56,-1,-1,0
500,0,79,-56,-1,-1,0
533,262144,79,-56,-1,-1,0
566,-589824,79,-56,-1,-1,0
600,3801088,79,-56,-1,-1,0
633,851968,79,-56,-1,-1,0
666,-655360,79,-56,-1,-1,0
700,-458752,79,-56,-1,-1,0
733,262144,79,-56,-1,-1,0
766,1179648,79,-56,-1,-1,0
800,1245184,79,-56,-1,-1,0
833,0,79,-56,-1,-1,0
866,-786432,79,-56,-1,-1,0
900,-1114112,79,-56,-1,-1,0
933,-983040,79,-56,-1,-1,0
966,-720896,79,-56,-1,-1,0
1000,-1114112,79,-56,-1,-1,0
1033,-851968,79,-56,-1,-1,0
1066,-983040,79,-56,-1,-1,0
1100,-1507328,79,-56,-1,-1,0
1133,-2621440,79,-56,-1,-1,0
1166,-1507328,79,-56,-1,-1,0
1200,-1441792,79,-56,-1,-1,0
1233,9764864,79,-56,-1,-1,0
1266,-327680,79,-56,-1,-1,0
1300,-1114112,79,-56,-1,-1,0
1333,-1048576,79,-56,-1,-1,0
1366,-655360,79,-56,-1,-1,0
1400,196608,79,-56,-1,-1,0
1433,327680,79,-56,-1,-1,0
1466,-524288,79,-56,-1,-1,0
1500,-1376256,79,-56,-1,-1,0
1533,-786432,79,-56,-1,-1,0
1566,-458752,79,-56,-1,-1,0
1600,-1114112,79,-56,-1,-1,0
1633,0,79,-56,-1,-1,0
1666,-262144,79,-56,-1,-1,0
1700,-327680,79,-56,-1,-1,0
1733,-589824,79,-56,-1,-1,0
1766,-589824,79,-56,-1,-1,0
1800,-1179648,79,-56,-1,-1,0
1833,-1114112,79,-56,-1,-1,0
1866,9633792,79,-56,-1,-1,0
1900,-458752,79,-56,-1,-1,0
1933,-458752,79,-56,-1,-1,0
1966,0,79,-56,-1,-1,0
2000,917504,79,-56,-1,-1,0
2033,1441792,79,-56,-1,-1,0
2066,917504,79,-56,-1,-1,0
2100,-196608,79,-56,-1,-1,0
2133,-262144,79,-56,-1,-1,0
2166,327680,79,-56,-1,-1,0
2200,196608,79,-56,-1,-1,0
2233,0,79,-56,-1,-1,0
2266,-196608,79,-56,-1,-1,0
2300,-983040,79,-56,-1,-1,0
2333,-1507328,79,-56,-1,-1,0
2366,-786432,79,-56,-1,-1,0
2400,-1048576,79,-56,-1,-1,0
2433,-1441792,79,-56,-1,-1,0
2466,13369344,79,-56,-1,-1,0
2500,-524288,79,-56,-1,-1,0
2533,-1048576,79,-56,-1,-1,0
2566,-851968,79,-56,-1,-1,0
2600,-196608,79,-56,-1,-1,0
2633,655360,79,-56,-1,-1,0
2666,983040,79,-56,-1,-1,0
2700,0,79,-56,-1,-1,0
2733,-327680,79,-56,-1,-1,0
2766,393216,79,-56,-1,-1,0
2800,0,79,-56,-1,-1,0
2833,-131072,79,-56,-1,-1,0
2866,-589824,79,-56,-1,-1,0
2900,-851968,79,-56,-1,-1,0
2933,-262144,79,-56,-1,-1,0
2966,-1179648,79,-56,-1,-1,0
3000,-851968,79,-56,-1,-1,0
3033,-1179648,79,-56,-1,-1,0
3066,-1441792,79,-56,-1,-1,0
3100,14286848,79,-56,-1,-1,0
3133,-196608,79,-56,-1,-1,0
3166,-720896,79,-56,-1,-1,0
3200,-393216,79,-56,-1,-1,0
3233,0,79,-56,-1,-1,0
3266,589824,79,-56,-1,-1,0
3300,720896,79,-56,-1,-1,0
3333,-524288,79,-56,-1,-1,0
3366,-917504,79,-56,-1,-1,0
3400,-786432,79,-56,-1,-1,0
3433,-720896,79,-56,-1,-1,0
3466,-1245184,79,-56,-1,-1,0
3500,-1376256,79,-56,-1,-1,0
3533,-1507328,79,-56,-1,-1,0
3566,-1441792,79,-56,-1,-1,0
3600,-1376256,79,-56,-1,-1,0
3633,-1441792,79,-56,-1,-1,0
3666,-1572864,79,-56,-1,-1,0
3699,-1769472,79,-56,-1,-1,0
3733,3276800,79,-56,-1,-1,0
3766,0,79,-56,-1,-1,0
3800,-1572864,79,-56,-1,-1,0
3833,-1179648,79,-56,-1,-1,0
3866,-720896,79,-56,-1,-1,0
3900,851968,79,-56,-1,-1,0
3933,1835008,79,-56,-1,-1,0
3966,0,79,-56,-1,-1,0
4000,-720896,79,-56,-1,-1,0
4033,-589824,79,-56,-1,-1,0
4066,-131072,79,-56,-1,-1,0
4100,-262144,79,-56,-1,-1,0
4133,-524288,79,-56,-1,-1,0
4166,-851968,79,-56,-1,-1,0
4200,-655360,79,-56,-1,-1,0
4233,-720896,79,-56,-1,-1,0
4266,-458752,79,-56,-1,-1,0
4300,-393216,79,-56,-1,-1,0
4333,-655360,79,-56,-1,-1,0
4366,13959168,79,-56,-1,-1,0
4400,196608,80,-56,-1,-1,0
4433,0,80,-56,-1,-1,0
4466,-65536,80,-56,-1,-1,0
4500,589824,80,-56,-1,-1,0
4533,1703936,80,-56,-1,-1,0
4566,720896,80,-56,-1,-1,0
4600,-720896,80,-56,-1,-1,0
4633,-1572864,80,-56,-1,-1,0
4666,-1048576,80,-56,-1,-1,0
4700,-917504,80,-56,-1,-1,0
4733,-851968,80,-56,-1,-1,0
4766,-1048576,80,-56,-1,-1,0
4800,-1310720,80,-56,-1,-1,0
4833,-1376256,80,-56,-1,-1,0
4866,-1376256,80,-56,-1,-1,0
4900,-1572864,80,-56,-1,-1,0
4933,-1507328,80,-56,-1,-1,0
4966,-1507328,80,-56,-1,-1,0
5000,-786432,80,-56,-1,-1,0
5033,6094848,80,-56,-1,-1,0
5066,-655360,80,-56,-1,-1,0
5100,-327680,80,-56,-1,-1,0
5133,65536,80,-56,-1,-1,0
5166,1179648,80,-56,-1,-1,0
5200,1638400,80,-56,-1,-1,0
5233,786432,80,-56,-1,-1,0
5266,-655360,80,-56,-1,-1,0
5300,-655360,80,-56,-1,-1,0
5333,-458752,80,-56,-1,-1,0
5366,-655360,80,-56,-1,-1,0
5400,-983040,80,-56,-1,-1,0
5433,-983040,80,-56,-1,-1,0
5466,-917504,80,-56,-1,-1,0
5500,-917504,80,-56,-1,-1,0
5533,-1048576,80,-56,-1,-1,0
5566,-786432,80,-56,-1,-1,0
5600,-720896,80,-56,-1,-1,0
5633,-1179648,80,-56,-1,-1,0
5666,3080192,80,-56,-1,-1,0
5700,720896,80,-56,-1,-1,0
5733,-1114112,80,-56,-1,-1,0
5766,-589824,80,-56,-1,-1,0
5800,0,80,-56,-1,-1,0
5833,655360,80,-56,-1,-1,0
5866,917504,80,-56,-1,-1,0
5900,-131072,80,-56,-1,-1,0
5933,-1376256,80,-56,-1,-1,0
5966,-1572864,80,-56,-1,-1,0
6000,-1376256,80,-56,-1,-1,0
6033,-1245184,80,-56,-1,-1,0
6066,-1376256,80,-56,-1,-1,0
6100,-1769472,80,-56,-1,-1,0
6133,-458752,80,-56,-1,-1,0
6166,65536,80,-56,-1,-1,0
6200,-65536,80,-56,-1,-1,0
6233,-262144,80,-56,-1,-1,0
6266,-1310720,80,-56,-1,-1,0
6300,-851968,80,-56,-1,-1,0
6333,9895936,80,-56,-1,-1,0
6366,1179648,80,-56,-1,-1,0
6400,589824,80,-56,-1,-1,0
6433,327680,80,-56,-1,-1,0
6466,917504,80,-56,-1,-1,0
6500,1835008,80,-56,-1,-1,0
6533,917504,80,-56,-1,-1,0
6566,0,80,-56,-1,-1,0
6600,-327680,80,-56,-1,-1,0
6633,-131072,80,-56,-1,-1,0
6666,-327680,80,-56,-1,-1,0
6700,-655360,80,-56,-1,-1,0
6733,-1048576,80,-56,-1,-1,0
6766,-1114112,80,-56,-1,-1,0
6800,-1376256,80,-56,-1,-1,0
6833,-1835008,80,-56,-1,-1,0
6866,-851968,80,-56,-1,-1,0
6899,-786432,80,-56,-1,-1,0
6933,-1245184,80,-56,-1,-1,0
6966,-327680,80,-56,-1,-1,0
7000,3801088,80,-56,-1,-1,0
7033,-786432,79,-56,-1,-1,0
7066,-851968,79,-56,-1,-1,0
7100,-458752,79,-56,-1,-1,0
7133,393216,79,-56,-1,-1,0
7166,786432,79,-56,-1,-1,0
7200,-262144,79,-56,-1,-1,0
7233,-1441792,79,-56,-1,-1,0
7266,-1507328,79,-56,-1,-1,0
7300,-1179648,79,-56,-1,-1,0
7333,-720896,79,-56,-1,-1,0
7366,0,79,-56,-1,-1,0
7399,-786432,79,-56,-1,-1,0
7433,-786432,79,-56,-1,-1,0
7466,-65536,79,-56,-1,-1,0
7500,65536,79,-56,-1,-1,0
7533,-458752,79,-56,-1,-1,0
7566,-720896,79,-56,-1,-1,0
7600,-1245184,79,-56,-1,-1,0
7633,-262144,79,-56,-1,-1,0
7666,6225920,79,-56,-1,-1,0
7700,-524288,78,-56,-1,-1,0
7733,-327680,78,-56,-1,-1,0
7766,65536,78,-56,-1,-1,0
7800,655360,78,-56,-1,-1,0
7833,1376256,78,-56,-1,-1,0
7866,655360,78,-56,-1,-1,0
7899,-327680,78,-56,-1,-1,0
7933,-655360,78,-56,-1,-1,0
7966,-524288,78,-56,-1,-1,0
8000,-589824,78,-56,-1,-1,0
8033,-720896,78,-56,-1,-1,0
8066,-1179648,78,-56,-1,-1,0
8100,-1245184,78,-56,-1,-1,0
8133,-1507328,78,-56,-1,-1,0
8166,-1179648,78,-56,-1,-1,0
8200,-851968,78,-56,-1,-1,0
8233,-1245184,78,-56,-1,-1,0
8266,-1245184,78,-56,-1,-1,0
8300,11993088,78,-56,-1,-1,0
8333,-393216,78,-56,-1,-1,0
8366,-983040,78,-56,-1,-1,0
8400,-655360,78,-56,-1,-1,0
8433,-65536,78,-56,-1,-1,0
8466,1245184,78,-56,-1,-1,0
8500,1048576,78,-56,-1,-1,0
8533,-524288,78,-56,-1,-1,0
8566,-524288,78,-56,-1,-1,0
8600,-655360,78,-56,-1,-1,0
8633,327680,78,-56,-1,-1,0
8666,196608,78,-56,-1,-1,0
8700,-262144,78,-56,-1,-1,0
8733,-589824,78,-56,-1,-1,0
8766,-851968,78,-56,-1,-1,0
8800,-983040,78,-56,-1,-1,0
8833,-786432,78,-56,-1,-1,0
8866,-524288,78,-56,-1,-1,0
8900,-851968,78,-56,-1,-1,0
8933,1703936,78,-56,-1,-1,0
8966,2555904,78,-56,-1,-1,0
9000,-393216,77,-56,-1,-1,0
9033,-458752,77,-56,-1,-1,0
9066,-458752,77,-56,-1,-1,0
9100,327680,77,-56,-1,-1,0
9133,720896,77,-56,-1,-1,0
9166,131072,77,-56,-1,-1,0
9200,-786432,77,-56,-1,-1,0
9233,-1245184,77,-56,-1,-1,0
9266,-1572864,77,-56,-1,-1,0
9300,-1441792,77,-56,-1,-1,0
9333,-1310720,77,-56,-1,-1,0
9366,-851968,77,-56,-1,-1,0
9400,-851968,77,-56,-1,-1,0
9433,-983040,77,-56,-1,-1,0
9466,-1179648,77,-56,-1,-1,0
9500,-1114112,77,-56,-1,-1,0
9533,-1572864,77,-56,-1,-1,0
9566,-1966080,77,-56,-1,-1,0
9600,13697024,76,-56,-1,-1,0
9633,-589824,76,-56,-1,-1,0
9666,-917504,76,-56,-1,-1,0
9700,196608,76,-56,-1,-1,0
9733,983040,76,-56,-1,-1,0
9766,1966080,76,-56,-1,-1,0
9800,1310720,76,-56,-1,-1,0
9833,-196608,76,-56,-1,-1,0
9866,-983040,76,-56,-1,-1,0
9900,-983040,76,-56,-1,-1,0
9933,-851968,76,-56,-1,-1,0
9966,-786432,76,-56,-1,-1,0
10000,-1048576,76,-56,-1,-1,0
10033,-851968,76,-56,-1,-1,0
10066,-720896,76,-56,-1,-1,0
10100,-393216,76,-56,-1,-1,0
10133,-327680,76,-56,-1,-1,0
10166,-524288,76,-56,-1,-1,0
10200,-655360,76,-56,-1,-1,0
10233,8716288,76,-56,-1,-1,0
10266,0,76,-56,-1,-1,0
10300,0,76,-56,-1,-1,0
10333,327680,76,-56,-1,-1,0
10366,1179648,76,-56,-1,-1,0
10400,1966080,76,-56,-1,-1,0
10433,0,76,-56,-1,-1,0
10466,-1048576,76,-56,-1,-1,0
10500,-1048576,76,-56,-1,-1,0
10533,-851968,76,-56,-1,-1,0
10566,-786432,76,-56,-1,-1,0
10600,-983040,76,-56,-1,-1,0
10633,-1376256,76,-56,-1,-1,0
10666,-1638400,76,-56,-1,-1,0
10700,-1703936,76,-56,-1,-1,0
10733,-1376256,76,-56,-1,-1,0
10766,-1310720,76,-56,-1,-1,0
10800,-1507328,76,-56,-1,-1,0
10833,65536,76,-56,-1,-1,0
10866,3080192,76,-56,-1,-1,0
10900,-589824,76,-56,-1,-1,0
10933,0,76,-56,-1,-1,0
10966,720896,76,-56,-1,-1,0
11000,1572864,76,-56,-1,-1,0
11033,2162688,76,-56,-1,-1,0
11066,851968,76,-56,-1,-1,0
11100,-393216,76,-56,-1,-1,0
11133,-524288,76,-56,-1,-1,0
11166,-524288,76,-56,-1,-1,0
11200,-327680,76,-56,-1,-1,0
11233,-458752,76,-56,-1,-1,0
11266,-589824,76,-56,-1,-1,0
11300,-851968,76,-56,-1,-1,0
11333,-1048576,76,-56,-1,-1,0
11366,-1376256,76,-56,-1,-1,0
11400,-786432,76,-56,-1,-1,0
11433,-1638400,76,-56,-1,-1,0
11466,-2162688,76,-56,-1,-1,0
11500,4521984,77,-56,-1,-1,0
11533,-1114112,77,-56,-1,-1,0
11566,-1048576,77,-56,-1,-1,0
11600,-720896,77,-56,-1,-1,0
11633,589824,77,-56,-1,-1,0
11666,1245184,77,-56,-1,-1,0
11700,589824,77,-56,-1,-1,0
11733,-983040,77,-56,-1,-1,0
11766,-1376256,77,-56,-1,-1,0
11800,-1179648,77,-56,-1,-1,0
11833,-1310720,77,-56,-1,-1,0
11866,-983040,77,-56,-1,-1,0
11900,-720896,77,-56,-1,-1,0
11933,-655360,77,-56,-1,-1,0
11966,-393216,77,-56,-1,-1,0
12000,-786432,77,-56,-1,-1,0
12033,-458752,77,-56,-1,-1,0
12066,-327680,77,-56,-1,-1,0
12100,10485760,77,-56,-1,-1,0
12133,393216,77,-56,-1,-1,0
12166,-327680,77,-56,-1,-1,0
12200,-524288,77,-56,-1,-1,0
12233,262144,77,-56,-1,-1,0
12266,1179648,77,-56,-1,-1,0
12300,1703936,77,-56,-1,-1,0
12333,524288,77,-56,-1,-1,0
12366,-327680,77,-56,-1,-1,0
12400,-393216,77,-56,-1,-1,0
12433,-196608,77,-56,-1,-1,0
12466,-393216,77,-56,-1,-1,0
12500,-458752,77,-56,-1,-1,0
12533,-786432,77,-56,-1,-1,0
12566,-983040,77,-56,-1,-1,0
12600,-1048576,77,-56,-1,-1,0
12633,-786432,77,-56,-1,-1,0
12666,-1507328,77,-56,-1,-1,0
12700,-2031616,77,-56,-1,-1,0
12733,9895936,77,-56,-1,-1,0
12766,-786432,77,-56,-1,-1,0
12800,-1245184,77,-56,-1,-1,0
12833,-851968,77,-56,-1,-1,0
12866,0,77,-56,-1,-1,0
12900,655360,77,-56,-1,-1,0
12933,0,77,-56,-1,-1,0
12966,-1507328,77,-56,-1,-1,0
13000,-1572864,77,-56,-1,-1,0
13033,-1179648,77,-56,-1,-1,0
13066,-393216,77,-56,-1,-1,0
13100,-1048576,77,-56,-1,-1,0
13133,-720896,77,-56,-1,-1,0
13166,0,77,-56,-1,-1,0
13200,-589824,77,-56,-1,-1,0
13233,-65536,77,-56,-1,-1,0
13266,-262144,77,-56,-1,-1,0
13299,-917504,77,-56,-1,-1,0
13333,2621440,77,-56,-1,-1,0
13366,1769472,78,-56,-1,-1,0
13400,-524288,78,-56,-1,-1,0
13433,-524288,78,-56,-1,-1,0
13466,-196608,78,-56,-1,-1,0
13500,589824,78,-56,-1,-1,0
13533,1048576,78,-56,-1,-1,0
13566,0,78,-56,-1,-1,0
13600,-1179648,78,-56,-1,-1,0
13633,-1114112,78,-56,-1,-1,0
13666,-983040,78,-56,-1,-1,0
13700,-917504,78,-56,-1,-1,0
13733,-851968,78,-56,-1,-1,0
13766,-983040,78,-56,-1,-1,0
13799,-1572864,78,-56,-1,-1,0
13833,-1703936,78,-56,-1,-1,0
13866,-1310720,78,-56,-1,-1,0
13900,-1245184,78,-56,-1,-1,0
13933,-1114112,78,-56,-1,-1,0
13966,12910592,78,-56,-1,-1,0
14000,-65536,78,-56,-1,-1,0
14033,-1114112,78,-56,-1,-1,0
14066,-983040,78,-56,-1,-1,0
14100,-262144,78,-56,-1,-1,0
14133,851968,78,-56,-1,-1,0
14166,1245184,78,-56,-1,-1,0
14200,-327680,78,-56,-1,-1,0
14233,-262144,78,-56,-1,-1,0
14266,524288,78,-56,-1,-1,0
14299,65536,78,-56,-1,-1,0
14333,-65536,78,-56,-1,-1,0
14366,-262144,78,-56,-1,-1,0
14400,-262144,78,-56,-1,-1,0
14433,-720896,78,-56,-1,-1,0
14466,-786432,78,-56,-1,-1,0
14500,-655360,78,-56,-1,-1,0
14533,-1114112,78,-56,-1,-1,0
14566,-327680,78,-56,-1,-1,0
14600,5242880,79,-56,-1,-1,0
14633,-262144,79,-56,-1,-1,0
14666,-327680,79,-56,-1,-1,0
14700,0,79,-56,-1,-1,0
14733,851968,79,-56,-1,-1,0
14766,1310720,79,-56,-1,-1,0
14799,393216,79,-56,-1,-1,0
14833,-1048576,79,-56,-1,-1,0
14866,-655360,79,-56,-1,-1,0
14900,-589824,79,-56,-1,-1,0
14933,-655360,79,-56,-1,-1,0
14966,-1048576,79,-56,-1,-1,0
15000,-2162688,79,-56,-1,-1,0
15033,-1703936,79,-56,-1,-1,0
15066,-1114112,79,-56,-1,-1,0
15100,-1507328,79,-56,-1,-1,0
15133,-1179648,79,-56,-1,-1,0
15166,-1507328,79,-56,-1,-1,0
15200,-1769472,79,-56,-1,-1,0
15233,14548992,79,-56,-1,-1,0
15266,-786432,79,-56,-1,-1,0
15299,-1245184,79,-56,-1,-1,0
15333,-720896,79,-56,-1,-1,0
15366,0,79,-56,-1,-1,0
15400,1376256,79,-56,-1,-1,0
15433,1769472,79,-56,-1,-1,0
15466,-196608,79,-56,-1,-1,0
15500,-655360,79,-56,-1,-1,0
15533,-917504,79,-56,-1,-1,0
15566,-524288,79,-56,-1,-1,0
15600,-655360,79,-56,-1,-1,0
15633,-917504,79,-56,-1,-1,0
15666,-786432,79,-56,-1,-1,0
15700,-720896,79,-56,-1,-1,0
15733,-720896,79,-56,-1,-1,0
15766,-851968,79,-56,-1,-1,0
15799,-393216,79,-56,-1,-1,0
15833,-786432,79,-56,-1,-1,0
15866,-1310720,79,-56,-1,-1,0
15900,12451840,79,-56,-1,-1,0
15933,-327680,79,-56,-1,-1,0
15966,-131072,79,-56,-1,-1,0
16000,-458752,79,-56,-1,-1,0
16033,655360,79,-56,-1,-1,0
16066,1835008,79,-56,-1,-1,0
16100,1179648,79,-56,-1,-1,0
16133,-327680,79,-56,-1,-1,0
16166,-983040,79,-56,-1,-1,0
16200,-1507328,79,-56,-1,-1,0
16233,-655360,79,-56,-1,-1,0
16266,-589824,79,-56,-1,-1,0
16300,-655360,79,-56,-1,-1,0
16333,-589824,79,-56,-1,-1,0
16366,-589824,79,-56,-1,-1,0
16400,-1572864,79,-56,-1,-1,0
16433,-1441792,79,-56,-1,-1,0
16466,-1900544,79,-56,-1,-1,0
16500,-2293760,79,-56,-1,-1,0
16533,7208960,79,-56,-1,-1,0
16566,-524288,79,-56,-1,-1,0
16600,-983040,79,-56,-1,-1,0
16633,589824,79,-56,-1,-1,0
16666,1769472,79,-56,-1,-1,0
16700,1441792,79,-56,-1,-1,0
16733,2097152,79,-56,-1,-1,0
16766,458752,79,-56,-1,-1,0
16800,-1179648,79,-56,-1,-1,0
16833,-851968,79,-56,-1,-1,0
16866,-393216,79,-56,-1,-1,0
16900,65536,79,-56,-1,-1,0
16933,-458752,79,-56,-1,-1,0
16966,-589824,79,-56,-1,-1,0
17000,-327680,79,-56,-1,-1,0
17033,-327680,79,-56,-1,-1,0
17066,-589824,79,-56,-1,-1,0
17100,-196608,79,-56,-1,-1,0
17133,-655360,79,-56,-1,-1,0
17166,-917504,79,-56,-1,-1,0
17200,12517376,79,-56,-1,-1,0
17233,196608,79,-56,-1,-1,0
17266,-262144,79,-56,-1,-1,0
17300,-327680,79,-56,-1,-1,0
17333,524288,79,-56,-1,-1,0
17366,1245184,79,-56,-1,-1,0
17400,65536,79,-56,-1,-1,0
17433,-1441792,79,-56,-1,-1,0
17466,-1048576,79,-56,-1,-1,0
17500,-1048576,79,-56,-1,-1,0
17533,-1245184,79,-56,-1,-1,0
17566,-1048576,79,-56,-1,-1,0
17600,-1114112,79,-56,-1,-1,0
17633,-1376256,79,-56,-1,-1,0
17666,-1507328,79,-56,-1,-1,0
17700,-1507328,79,-56,-1,-1,0
17733,-1179648,79,-56,-1,-1,0
17766,-1245184,79,-56,-1,-1,0
17800,-1572864,79,-56,-1,-1,0
17833,-1703936,79,-56,-1,-1,0
17866,8847360,79,-56,-1,-1,0
17900,1376256,79,-56,-1,-1,0
17933,-327680,79,-56,-1,-1,0
17966,-327680,79,-56,-1,-1,0
18000,327680,79,-56,-1,-1,0
18033,1310720,79,-56,-1,-1,0
18066,1441792,79,-56,-1,-1,0
18100,327680,79,-56,-1,-1,0
18133,-655360,79,-56,-1,-1,0
18166,-458752,79,-56,-1,-1,0
18200,0,79,-56,-1,-1,0
18233,65536,79,-56,-1,-1,0
18266,-65536,79,-56,-1,-1,0
18300,-262144,79,-56,-1,-1,0
18333,-458752,79,-56,-1,-1,0
18366,-720896,79,-56,-1,-1,0
18400,-917504,79,-56,-1,-1,0
18433,-1179648,79,-56,-1,-1,0
18466,-1572864,79,-56,-1,-1,0
18500,-1245184,79,-56,-1,-1,0
18533,2490368,79,-56,-1,-1,0
18566,1114112,79,-56,-1,-1,0
18600,-983040,78,-56,-1,-1,0
18633,-1114112,78,-56,-1,-1,0
18666,-262144,78,-56,-1,-1,0
18700,524288,78,-56,-1,-1,0
18733,917504,78,-56,-1,-1,0
18766,-655360,78,-56,-1,-1,0
18800,-1703936,78,-56,-1,-1,0
18833,-1507328,78,-56,-1,-1,0
18866,-1245184,78,-56,-1,-1,0
18900,-1245184,78,-56,-1,-1,0
18933,-851968,78,-56,-1,-1,0
18966,-720896,78,-56,-1,-1,0
19000,-655360,78,-56,-1,-1,0
19033,0,78,-56,-1,-1,0
19066,0,78,-56,-1,-1,0
19100,131072,78,-56,-1,-1,0
19133,0,78,-56,-1,-1,0
19166,-262144,78,-56,-1,-1,0
19200,1507328,78,-56,-1,-1,0
19233,3932160,77,-56,-1,-1,0
19266,-196608,77,-56,-1,-1,0
19300,-327680,77,-56,-1,-1,0
19333,-262144,77,-56,-1,-1,0
19366,458752,77,-56,-1,-1,0
19400,1048576,77,-56,-1,-1,0
19433,0,77,-56,-1,-1,0
19466,-1048576,77,-56,-1,-1,0
19500,-1769472,77,-56,-1,-1,0
19533,-2621440,77,-56,-1,-1,0
19566,-1179648,77,-56,-1,-1,0
19600,-458752,77,-56,-1,-1,0
19633,589824,77,-56,-1,-1,0
19666,-1572864,77,-56,-1,-1,0
19700,-1572864,77,-56,-1,-1,0
19733,-1114112,77,-56,-1,-1,0
19766,-655360,77,-56,-1,-1,0
19800,-1114112,77,-56,-1,-1,0
19833,-1507328,77,-56,-1,-1,0
19866,12386304,76,-56,-1,-1,0
19900,-393216,76,-56,-1,-1,0
19933,-1441792,76,-56,-1,-1,0
19966,-851968,76,-56,-1,-1,0
20000,-524288,76,-56,-1,-1,0
20033,786432,76,-56,-1,-1,0
20066,983040,76,-56,-1,-1,0
20100,-458752,76,-56,-1,-1,0
20133,-65536,76,-56,-1,-1,0
20166,589824,76,-56,-1,-1,0
20200,458752,76,-56,-1,-1,0
20233,262144,76,-56,-1,-1,0
20266,0,76,-56,-1,-1,0
20300,-720896,76,-56,-1,-1,0
20333,-720896,76,-56,-1,-1,0
20366,-917504,76,-56,-1,-1,0
20400,-131072,76,-56,-1,-1,0
20433,-524288,76,-56,-1,-1,0
20466,-917504,76,-56,-1,-1,0
20500,14221312,76,-56,-1,-1,0
20533,-65536,76,-56,-1,-1,0
20566,-917504,76,-56,-1,-1,0
20600,-524288,76,-56,-1,-1,0
20633,196608,76,-56,-1,-1,0
20666,1179648,76,-56,-1,-1,0
20700,786432,76,-56,-1,-1,0
20733,-393216,76,-56,-1,-1,0
20766,-1179648,76,-56,-1,-1,0
20800,-1245184,76,-56,-1,-1,0
20833,-983040,76,-56,-1,-1,0
20866,-917504,76,-56,-1,-1,0
20900,-1245184,76,-56,-1,-1,0
20933,-1310720,76,-56,-1,-1,0
20966,-1703936,76,-56,-1,-1,0
21000,-1703936,76,-56,-1,-1,0
21033,-1507328,76,-56,-1,-1,0
21066,-1572864,76,-56,-1,-1,0
21100,-1572864,76,-56,-1,-1,0
21133,14548992,76,-56,-1,-1,0
21166,-131072,76,-56,-1,-1,0
21200,-393216,76,-56,-1,-1,0
21233,-262144,76,-56,-1,-1,0
21266,1179648,76,-56,-1,-1,0
21300,2097152,76,-56,-1,-1,0
21333,1441792,76,-56,-1,-1,0
21366,0,76,-56,-1,-1,0
21400,-65536,76,-56,-1,-1,0
21433,-131072,76,-56,-1,-1,0
21466,-655360,76,-56,-1,-1,0
21500,-655360,76,-56,-1,-1,0
21533,-917504,76,-56,-1,-1,0
21566,-917504,76,-56,-1,-1,0
21600,-1179648,76,-56,-1,-1,0
21633,-1245184,76,-56,-1,-1,0
21666,-1441792,76,-56,-1,-1,0
21700,-983040,76,-56,-1,-1,0
21733,-2162688,76,-56,-1,-1,0
21766,8847360,76,-56,-1,-1,0
21800,-1114112,76,-56,-1,-1,0
21833,-655360,76,-56,-1,-1,0
21866,-524288,76,-56,-1,-1,0
21900,-131072,76,-56,-1,-1,0
21933,1376256,76,-56,-1,-1,0
21966,917504,76,-56,-1,-1,0
22000,-851968,76,-56,-1,-1,0
22033,-1507328,76,-56,-1,-1,0
22066,-1441792,76,-56,-1,-1,0
22100,-1507328,76,-56,-1,-1,0
22133,-1572864,76,-56,-1,-1,0
22166,-1507328,76,-56,-1,-1,0
22200,-1048576,76,-56,-1,-1,0
22233,196608,76,-56,-1,-1,0
22266,-65536,76,-56,-1,-1,0
22300,-524288,76,-56,-1,-1,0
22333,-524288,76,-56,-1,-1,0
22366,9240576,76,-56,-1,-1,0
22400,786432,76,-56,-1,-1,0
22433,-65536,76,-56,-1,-1,0
22466,-196608,76,-56,-1,-1,0
22500,262144,76,-56,-1,-1,0
22533,1507328,76,-56,-1,-1,0
22566,1310720,76,-56,-1,-1,0
22600,-262144,76,-56,-1,-1,0
22633,-851968,76,-56,-1,-1,0
22666,-458752,76,-56,-1,-1,0
22700,-327680,76,-56,-1,-1,0
22733,-327680,76,-56,-1,-1,0
22766,-786432,76,-56,-1,-1,0
22800,-1048576,76,-56,-1,-1,0
22833,-1376256,76,-56,-1,-1,0
22866,-1245184,76,-56,-1,-1,0
22900,-786432,76,-56,-1,-1,0
22933,-1245184,76,-56,-1,-1,0
22966,-1245184,76,-56,-1,-1,0
23000,6553600,76,-56,-1,-1,0
23033,65536,76,-56,-1,-1,0
23066,-1245184,76,-56,-1,-1,0
23100,-1048576,76,-56,-1,-1,0
23133,-393216,76,-56,-1,-1,0
23166,720896,76,-56,-1,-1,0
23200,851968,76,-56,-1,-1,0
23233,-589824,76,-56,-1,-1,0
23266,-1376256,76,-56,-1,-1,0
23300,-1310720,76,-56,-1,-1,0
23333,-1114112,76,-56,-1,-1,0
23366,-720896,76,-56,-1,-1,0
23400,-1179648,76,-56,-1,-1,0
23433,-1245184,76,-56,-1,-1,0
23466,-851968,76,-56,-1,-1,0
23500,-262144,76,-56,-1,-1,0
23533,-458752,76,-56,-1,-1,0
23566,-65536,76,-56,-1,-1,0
23600,-851968,76,-56,-1,-1,0
23633,-983040,76,-56,-1,-1,0
23666,12648448,77,-56,-1,-1,0
23700,-131072,77,-56,-1,-1,0
23733,-655360,77,-56,-1,-1,0
23766,-524288,77,-56,-1,-1,0
23800,851968,77,-56,-1,-1,0
23833,1703936,77,-56,-1,-1,0
23866,1114112,77,-56,-1,-1,0
23900,-458752,77,-56,-1,-1,0
23933,-983040,77,-56,-1,-1,0
23966,-720896,77,-56,-1,-1,0
24000,-720896,77,-56,-1,-1,0
24033,-327680,77,-56,-1,-1,0
24066,-458752,77,-56,-1,-1,0
24100,-524288,77,-56,-1,-1,0
24133,-720896,77,-56,-1,-1,0
24166,-720896,77,-56,-1,-1,0
24200,-786432,77,-56,-1,-1,0
24233,-1114112,77,-56,-1,-1,0
24266,-1048576,77,-56,-1,-1,0
24300,7667712,77,-56,-1,-1,0
24333,-589824,77,-56,-1,-1,0
24366,-720896,77,-56,-1,-1,0
24400,-524288,77,-56,-1,-1,0
24433,458752,77,-56,-1,-1,0
24466,1245184,77,-56,-1,-1,0
24500,0,77,-56,-1,-1,0
24533,-1114112,77,-56,-1,-1,0
24566,-1638400,77,-56,-1,-1,0
24600,-720896,77,-56,-1,-1,0
24633,65536,77,-56,-1,-1,0
24666,-262144,77,-56,-1,-1,0
24700,-524288,77,-56,-1,-1,0
24733,-327680,77,-56,-1,-1,0
24766,-720896,77,-56,-1,-1,0
24800,-720896,77,-56,-1,-1,0
24833,-655360,77,-56,-1,-1,0
24866,-1048576,77,-56,-1,-1,0
24900,-1441792,77,-56,-1,-1,0
24933,14548992,77,-56,-1,-1,0
24966,-196608,78,-56,-1,-1,0
25000,-327680,78,-56,-1,-1,0
25033,-65536,78,-56,-1,-1,0
25066,458752,78,-56,-1,-1,0
25100,1179648,78,-56,-1,-1,0
25133,655360,78,-56,-1,-1,0
25166,-458752,78,-56,-1,-1,0
25200,-851968,78,-56,-1,-1,0
25233,-786432,78,-56,-1,-1,0
25266,-655360,78,-56,-1,-1,0
25300,-1048576,78,-56,-1,-1,0
25333,-1310720,78,-56,-1,-1,0
25366,-1441792,78,-56,-1,-1,0
25400,-2031616,78,-56,-1,-1,0
25433,-2031616,78,-56,-1,-1,0
25466,-1572864,78,-56,-1,-1,0
25500,-851968,78,-56,-1,-1,0
25533,-1114112,78,-56,-1,-1,0
25566,-1638400,78,-56,-1,-1,0
25600,12451840,78,-56,-1,-1,0
25633,-917504,78,-56,-1,-1,0
25666,-1376256,78,-56,-1,-1,0
25700,-917504,78,-56,-1,-1,0
25733,0,78,-56,-1,-1,0
25766,1441792,78,-56,-1,-1,0
25800,1310720,78,-56,-1,-1,0
25833,-131072,78,-56,-1,-1,0
25866,-458752,78,-56,-1,-1,0
25900,0,78,-56,-1,-1,0
25933,-65536,78,-56,-1,-1,0
25966,-524288,78,-56,-1,-1,0
26000,-655360,78,-56,-1,-1,0
26033,-720896,78,-56,-1,-1,0
26066,-655360,78,-56,-1,-1,0
26099,-589824,78,-56,-1,-1,0
26133,-393216,78,-56,-1,-1,0
26166,-524288,78,-56,-1,-1,0
26200,-393216,78,-56,-1,-1,0
26233,12517376,78,-56,-1,-1,0
26266,458752,78,-56,-1,-1,0
26300,65536,78,-56,-1,-1,0
26333,0,78,-56,-1,-1,0
26366,458752,78,-56,-1,-1,0
26400,1703936,78,-56,-1,-1,0
26433,1572864,78,-56,-1,-1,0
26466,196608,78,-56,-1,-1,0
26500,-131072,78,-56,-1,-1,0
26533,-917504,78,-56,-1,-1,0
26566,-1376256,78,-56,-1,-1,0
26599,-917504,78,-56,-1,-1,0
26633,-917504,78,-56,-1,-1,0
26666,-1114112,78,-56,-1,-1,0
26700,-1310720,78,-56,-1,-1,0
26733,-1114112,78,-56,-1,-1,0
26766,-1310720,78,-56,-1,-1,0
26800,-1376256,78,-56,-1,-1,0
26833,-1507328,78,-56,-1,-1,0
26866,-1441792,78,-56,-1,-1,0
26900,7012352,78,-56,-1,-1,0
26933,-589824,78,-56,-1,-1,0
26966,-65536,78,-56,-1,-1,0
27000,131072,78,-56,-1,-1,0
27033,917504,78,-56,-1,-1,0
27066,2031616,78,-56,-1,-1,0
27099,1179648,78,-56,-1,-1,0
27133,-393216,78,-56,-1,-1,0
27166,-917504,78,-56,-1,-1,0
27200,-655360,78,-56,-1,-1,0
27233,-524288,78,-56,-1,-1,0
27266,-196608,78,-56,-1,-1,0
27300,-458752,78,-56,-1,-1,0
27333,-655360,78,-56,-1,-1,0
27366,-917504,78,-56,-1,-1,0
27400,-1048576,78,-56,-1,-1,0
27433,-1376256,78,-56,-1,-1,0
27466,-1245184,78,-56,-1,-1,0
27500,-1179648,78,-56,-1,-1,0
27533,-1310720,78,-56,-1,-1,0
27566,13369344,78,-56,-1,-1,0
27599,-327680,78,-56,-1,-1,0
27633,-1376256,78,-56,-1,-1,0
27666,-917504,78,-56,-1,-1,0
27700,0,78,-56,-1,-1,0
27733,983040,78,-56,-1,-1,0
27766,720896,78,-56,-1,-1,0
27800,-589824,78,-56,-1,-1,0
27833,-1114112,78,-56,-1,-1,0
27866,-1114112,78,-56,-1,-1,0
27900,-1114112,78,-56,-1,-1,0
27933,-1441792,78,-56,-1,-1,0
27966,-1769472,78,-56,-1,-1,0
28000,-1572864,78,-56,-1,-1,0
28033,-1638400,78,-56,-1,-1,0
28066,-131072,78,-56,-1,-1,0
28099,-983040,78,-56,-1,-1,0
28133,-917504,78,-56,-1,-1,0
28166,-720896,78,-56,-1,-1,0
28200,3080192,78,-56,-1,-1,0
28233,3604480,78,-56,-1,-1,0
28266,262144,77,-56,-1,-1,0
28300,196608,77,-56,-1,-1,0
28333,524288,77,-56,-1,-1,0
28366,1572864,77,-56,-1,-1,0
28400,2162688,77,-56,-1,-1,0
28433,720896,77,-56,-1,-1,0
28466,-524288,77,-56,-1,-1,0
28500,-393216,77,-56,-1,-1,0
28533,-327680,77,-56,-1,-1,0
28566,-327680,77,-56,-1,-1,0
28599,-458752,77,-56,-1,-1,0
28633,-655360,77,-56,-1,-1,0
28666,-655360,77,-56,-1,-1,0
28700,-1245184,77,-56,-1,-1,0
28733,-1310720,77,-56,-1,-1,0
28766,-720896,77,-56,-1,-1,0
28800,-1310720,77,-56,-1,-1,0
28833,-1769472,77,-56,-1,-1,0
28866,11665408,77,-56,-1,-1,0
28900,-655360,77,-56,-1,-1,0
28933,-1310720,77,-56,-1,-1,0
28966,-589824,77,-56,-1,-1,0
29000,0,77,-56,-1,-1,0
29033,917504,77,-56,-1,-1,0
29066,786432,77,-56,-1,-1,0
29099,-524288,77,-56,-1,-1,0
29133,-1114112,77,-56,-1,-1,0
29166,-1310720,77,-56,-1,-1,0
29200,-1245184,77,-56,-1,-1,0
29233,-1769472,77,-56,-1,-1,0
29266,-1835008,77,-56,-1,-1,0
29300,-1245184,77,-56,-1,-1,0
29333,-1310720,77,-56,-1,-1,0
29366,-1179648,77,-56,-1,-1,0
29400,-589824,77,-56,-1,-1,0
29433,327680,77,-56,-1,-1,0
29466,0,77,-56,-1,-1,0
29500,-196608,77,-56,-1,-1,0
29533,13303808,77,-56,-1,-1,0
29566,-196608,77,-56,-1,-1,0
29599,-393216,77,-56,-1,-1,0
29633,0,77,-56,-1,-1,0
29666,196608,77,-56,-1,-1,0
29700,1114112,77,-56,-1,-1,0
29733,1114112,77,-56,-1,-1,0
29766,-327680,77,-56,-1,-1,0
29800,-524288,77,-56,-1,-1,0
29833,-458752,77,-56,-1,-1,0
29866,-393216,77,-56,-1,-1,0
29900,-524288,77,-56,-1,-1,0
29933,-786432,77,-56,-1,-1,0
29966,-786432,77,-56,-1,-1,0
30000,-589824,77,-56,-1,-1,0
30033,-851968,77,-56,-1,-1,0
30066,-1310720,77,-56,-1,-1,0
30099,-786432,77,-56,-1,-1,0
30133,-720896,77,-56,-1,-1,0
30166,-1179648,77,-56,-1,-1,0
30200,9764864,76,-56,-1,-1,0
30233,-327680,76,-56,-1,-1,0
30266,-393216,76,-56,-1,-1,0
30300,-131072,76,-56,-1,-1,0
30333,655360,76,-56,-1,-1,0
30366,1835008,76,-56,-1,-1,0
30400,655360,76,-56,-1,-1,0
30433,-196608,76,-56,-1,-1,0
30466,-786432,76,-56,-1,-1,0
30500,-786432,76,-56,-1,-1,0
30533,-917504,76,-56,-1,-1,0
30566,-917504,76,-56,-1,-1,0
30599,-1048576,76,-56,-1,-1,0
30633,-1245184,76,-56,-1,-1,0
30666,-1572864,76,-56,-1,-1,0
30700,-1703936,76,-56,-1,-1,0
30733,-1245184,76,-56,-1,-1,0
30766,-1769472,76,-56,-1,-1,0
30800,-1245184,76,-56,-1,-1,0
30833,14286848,76,-56,-1,-1,0
30866,393216,76,-56,-1,-1,0
30900,458752,76,-56,-1,-1,0
30933,524288,76,-56,-1,-1,0
30966,720896,76,-56,-1,-1,0
31000,1769472,76,-56,-1,-1,0
31033,1245184,76,-56,-1,-1,0
31066,-65536,76,-56,-1,-1,0
31099,-524288,76,-56,-1,-1,0
31133,-655360,76,-56,-1,-1,0
31166,-786432,76,-56,-1,-1,0
31200,-851968,76,-56,-1,-1,0
31233,-983040,76,-56,-1,-1,0
31266,-983040,76,-56,-1,-1,0
31300,-1048576,76,-56,-1,-1,0
31333,-1048576,76,-56,-1,-1,0
31366,-1048576,76,-56,-1,-1,0
31400,-917504,76,-56,-1,-1,0
31433,-1376256,76,-56,-1,-1,0
31466,-1966080,76,-56,-1,-1,0
31500,10747904,76,-56,-1,-1,0
31533,-1179648,76,-56,-1,-1,0
31566,-1310720,76,-56,-1,-1,0
31599,-851968,76,-56,-1,-1,0
31633,-327680,76,-56,-1,-1,0
31666,917504,76,-56,-1,-1,0
31700,655360,76,-56,-1,-1,0
31733,-262144,76,-56,-1,-1,0
31766,-851968,76,-56,-1,-1,0
31800,-851968,76,-56,-1,-1,0
31833,-655360,76,-56,-1,-1,0
31866,-983040,76,-56,-1,-1,0
31900,-1441792,76,-56,-1,-1,0
31933,-1245184,76,-56,-1,-1,0
31966,-1441792,76,-56,-1,-1,0
32000,-1114112,76,-56,-1,-1,0
32033,-327680,76,-56,-1,-1,0
32066,-720896,76,-56,-1,-1,0
32100,-1245184,76,-56,-1,-1,0
32133,8847360,76,-56,-1,-1,0
32166,589824,76,-56,-1,-1,0
32200,65536,76,-56,-1,-1,0
32233,196608,76,-56,-1,-1,0
32266,720896,76,-56,-1,-1,0
32299,1507328,76,-56,-1,-1,0
32333,2031616,76,-56,-1,-1,0
32366,589824,76,-56,-1,-1,0
32400,-458752,76,-56,-1,-1,0
32433,-524288,76,-56,-1,-1,0
32466,-196608,76,-56,-1,-1,0
32500,-131072,76,-56,-1,-1,0
32533,-393216,76,-56,-1,-1,0
32566,-327680,76,-56,-1,-1,0
32600,-655360,76,-56,-1,-1,0
32633,-720896,76,-56,-1,-1,0
32666,-1179648,76,-56,-1,-1,0
32700,-1507328,76,-56,-1,-1,0
32733,-1310720,76,-56,-1,-1,0
32766,4063232,76,-56,-1,-1,0
32800,589824,76,-56,-1,-1,0
32833,-917504,76,-56,-1,-1,0
32866,-1048576,76,-56,-1,-1,0
32900,-720896,76,-56,-1,-1,0
32933,262144,76,-56,-1,-1,0
32966,720896,76,-56,-1,-1,0
33000,-393216,76,-56,-1,-1,0
33033,-1310720,76,-56,-1,-1,0
33066,-1638400,76,-56,-1,-1,0
33100,-1376256,76,-56,-1,-1,0
33133,-1376256,76,-56,-1,-1,0
33166,-1179648,76,-56,-1,-1,0
33200,-1114112,76,-56,-1,-1,0
33233,-983040,76,-56,-1,-1,0
33266,-393216,76,-56,-1,-1,0
33300,-655360,76,-56,-1,-1,0
33333,-393216,76,-56,-1,-1,0
33366,131072,76,-56,-1,-1,0
33400,-851968,76,-56,-1,-1,0
33433,13959168,76,-56,-1,-1,0
33466,131072,76,-56,-1,-1,0
33500,-393216,76,-56,-1,-1,0
33533,-262144,76,-56,-1,-1,0
33566,131072,76,-56,-1,-1,0
33600,1310720,76,-56,-1,-1,0
33633,1245184,76,-56,-1,-1,0
33666,-196608,76,-56,-1,-1,0
33700,-786432,76,-56,-1,-1,0
33733,-589824,76,-56,-1,-1,0
33766,-196608,76,-56,-1,-1,0
33800,-327680,76,-56,-1,-1,0
33833,-1114112,76,-56,-1,-1,0
33866,-917504,76,-56,-1,-1,0
33900,-1703936,76,-56,-1,-1,0
33933,-1310720,76,-56,-1,-1,0
33966,-589824,76,-56,-1,-1,0
34000,-1048576,76,-56,-1,-1,0
34033,-983040,76,-56,-1,-1,0
34066,14286848,76,-56,-1,-1,0
34100,-196608,76,-56,-1,-1,0
34133,-458752,76,-56,-1,-1,0
34166,-393216,76,-56,-1,-1,0
34200,65536,76,-56,-1,-1,0
34233,917504,76,-56,-1,-1,0
34266,524288,76,-56,-1,-1,0
34300,-851968,76,-56,-1,-1,0
34333,-1245184,76,-56,-1,-1,0
34366,-1048576,76,-56,-1,-1,0
34400,-720896,76,-56,-1,-1,0
34433,-262144,76,-56,-1,-1,0
34466,-458752,76,-56,-1,-1,0
34500,-720896,76,-56,-1,-1,0
34533,-720896,76,-56,-1,-1,0
34566,-131072,76,-56,-1,-1,0
34600,327680,76,-56,-1,-1,0
34633,-786432,76,-56,-1,-1,0
34666,-720896,76,-56,-1,-1,0
34700,8454144,76,-56,-1,-1,0
34733,524288,76,-56,-1,-1,0
34766,-458752,76,-56,-1,-1,0
34800,-262144,76,-56,-1,-1,0
34833,65536,76,-56,-1,-1,0
34866,983040,76,-56,-1,-1,0
34900,458752,76,-56,-1,-1,0
34933,-524288,76,-56,-1,-1,0
34966,-1572864,76,-56,-1,-1,0
35000,-1310720,76,-56,-1,-1,0
35033,-1245184,76,-56,-1,-1,0
35066,-1638400,76,-56,-1,-1,0
35100,-1769472,76,-56,-1,-1,0
35133,-1114112,76,-56,-1,-1,0
35166,-1048576,76,-56,-1,-1,0
35200,-1966080,76,-56,-1,-1,0
35233,-1638400,76,-56,-1,-1,0
35266,-1048576,76,-56,-1,-1,0
35300,-1245184,76,-56,-1,-1,0
35333,-1114112,76,-56,-1,-1,0
35366,8060928,76,-56,-1,-1,0
35400,-786432,76,-56,-1,-1,0
35433,-1048576,76,-56,-1,-1,0
35466,-1245184,76,-56,-1,-1,0
35500,0,76,-56,-1,-1,0
35533,786432,76,-56,-1,-1,0
35566,1048576,76,-56,-1,-1,0
35600,-131072,76,-56,-1,-1,0
35633,-983040,76,-56,-1,-1,0
35666,-851968,76,-56,-1,-1,0
35700,-786432,76,-56,-1,-1,0
35733,262144,76,-56,-1,-1,0
35766,-458752,76,-56,-1,-1,0
35800,-131072,76,-56,-1,-1,0
35833,-131072,76,-56,-1,-1,0
35866,-393216,76,-56,-1,-1,0
35900,-262144,76,-56,-1,-1,0
35933,-524288,76,-56,-1,-1,0
35966,-327680,76,-56,-1,-1,0
36000,10092544,76,-56,-1,-1,0
36033,262144,76,-56,-1,-1,0
36066,131072,76,-56,-1,-1,0
36100,458752,76,-56,-1,-1,0
36133,1114112,76,-56,-1,-1,0
36166,1507328,76,-56,-1,-1,0
36200,917504,76,-56,-1,-1,0
36233,-327680,76,-56,-1,-1,0
36266,-786432,76,-56,-1,-1,0
36300,-1048576,76,-56,-1,-1,0
36333,-1310720,76,-56,-1,-1,0
36366,-851968,76,-56,-1,-1,0
36400,-1310720,76,-56,-1,-1,0
36433,-1769472,76,-56,-1,-1,0
36466,-1507328,76,-56,-1,-1,0
36500,-1507328,76,-56,-1,-1,0
36533,-1245184,76,-56,-1,-1,0
36566,-1703936,76,-56,-1,-1,0
36600,-2228224,76,-56,-1,-1,0
36633,13959168,76,-56,-1,-1,0
36666,-655360,77,-56,-1,-1,0
36700,-786432,77,-56,-1,-1,0
36733,196608,77,-56,-1,-1,0
36766,327680,77,-56,-1,-1,0
36800,1114112,77,-56,-1,-1,0
36833,2293760,77,-56,-1,-1,0
36866,851968,77,-56,-1,-1,0
36900,0,77,-56,-1,-1,0
36933,-524288,77,-56,-1,-1,0
36966,-131072,77,-56,-1,-1,0
37000,-262144,77,-56,-1,-1,0
37033,-327680,77,-56,-1,-1,0
37066,-393216,77,-56,-1,-1,0
37100,-393216,77,-56,-1,-1,0
37133,-589824,77,-56,-1,-1,0
37166,-851968,77,-56,-1,-1,0
37200,-851968,77,-56,-1,-1,0
37233,-1245184,77,-56,-1,-1,0
37266,-1769472,77,-56,-1,-1,0
37300,9175040,77,-56,-1,-1,0
37333,-786432,77,-56,-1,-1,0
37366,-1114112,77,-56,-1,-1,0
37400,-917504,77,-56,-1,-1,0
37433,-327680,77,-56,-1,-1,0
37466,524288,77,-56,-1,-1,0
37500,65536,77,-56,-1,-1,0
37533,-1310720,77,-56,-1,-1,0
37566,-1703936,77,-56,-1,-1,0
37600,-1376256,77,-56,-1,-1,0
37633,-1048576,77,-56,-1,-1,0
37666,-1048576,77,-56,-1,-1,0
37700,-1179648,77,-56,-1,-1,0
37733,-1245184,77,-56,-1,-1,0
37766,-1638400,77,-56,-1,-1,0
37800,-983040,77,-56,-1,-1,0
37833,-524288,77,-56,-1,-1,0
37866,-458752,77,-56,-1,-1,0
37900,-851968,77,-56,-1,-1,0
37933,12517376,77,-56,-1,-1,0
37966,1048576,77,-56,-1,-1,0
38000,196608,77,-56,-1,-1,0
38033,65536,77,-56,-1,-1,0
38066,851968,77,-56,-1,-1,0
38100,1966080,77,-56,-1,-1,0
38133,1966080,77,-56,-1,-1,0
38166,458752,77,-56,-1,-1,0
38200,-131072,77,-56,-1,-1,0
38233,-131072,77,-56,-1,-1,0
38266,-131072,77,-56,-1,-1,0
38300,-196608,77,-56,-1,-1,0
38333,-327680,77,-56,-1,-1,0
38366,-458752,77,-56,-1,-1,0
38400,-524288,77,-56,-1,-1,0
38433,-589824,77,-56,-1,-1,0
38466,-1114112,77,-56,-1,-1,0
38500,-1966080,77,-56,-1,-1,0
38533,-1835008,77,-56,-1,-1,0
38566,11927552,77,-56,-1,-1,0
38600,-393216,77,-56,-1,-1,0
38633,-1048576,77,-56,-1,-1,0
38666,-524288,77,-56,-1,-1,0
38700,-65536,77,-56,-1,-1,0
38733,1048576,77,-56,-1,-1,0
38766,655360,77,-56,-1,-1,0
38800,-1441792,77,-56,-1,-1,0
38833,-2228224,77,-56,-1,-1,0
38866,-1900544,77,-56,-1,-1,0
38900,-1703936,77,-56,-1,-1,0
38933,-1835008,77,-56,-1,-1,0
38966,-1441792,77,-56,-1,-1,0
39000,-458752,77,-56,-1,-1,0
39033,65536,77,-56,-1,-1,0
39066,0,77,-56,-1,-1,0
39100,65536,77,-56,-1,-1,0
39133,0,77,-56,-1,-1,0
39166,-589824,77,-56,-1,-1,0
39200,-1376256,77,-56,-1,-1,0
39233,13041664,77,-56,-1,-1,0
39266,-262144,77,-56,-1,-1,0
39300,-262144,77,-56,-1,-1,0
39333,-262144,77,-56,-1,-1,0
39366,262144,77,-56,-1,-1,0
39400,1245184,77,-56,-1,-1,0
39433,917504,77,-56,-1,-1,0
39466,-262144,77,-56,-1,-1,0
39500,-655360,77,-56,-1,-1,0
39533,-458752,77,-56,-1,-1,0
39566,-393216,77,-56,-1,-1,0
39600,-720896,77,-56,-1,-1,0
39633,-1179648,77,-56,-1,-1,0
39666,-1376256,77,-56,-1,-1,0
39700,-1114112,77,-56,-1,-1,0
39733,-1507328,77,-56,-1,-1,0
39766,-1376256,77,-56,-1,-1,0
39800,-1507328,77,-56,-1,-1,0
39833,-1441792,77,-56,-1,-1,0
39866,11337728,77,-56,-1,-1,0
39900,-393216,77,-56,-1,-1,0
39933,-983040,77,-56,-1,-1,0
39966,-655360,77,-56,-1,-1,0
40000,-196608,77,-56,-1,-1,0
40033,720896,77,-56,-1,-1,0
40066,851968,77,-56,-1,-1,0
40100,-458752,77,-56,-1,-1,0
40133,-458752,77,-56,-1,-1,0
40166,-262144,77,-56,-1,-1,0
40200,-524288,77,-56,-1,-1,0
40233,-65536,77,-56,-1,-1,0
40266,524288,77,-56,-1,-1,0
40300,196608,77,-56,-1,-1,0
40333,-131072,77,-56,-1,-1,0
40366,-589824,77,-56,-1,-1,0
40400,-327680,77,-56,-1,-1,0
40433,-786432,77,-56,-1,-1,0
40466,-393216,77,-56,-1,-1,0
40500,4521984,77,-56,-1,-1,0
40533,917504,77,-56,-1,-1,0
40566,-327680,77,-56,-1,-1,0
40600,-196608,77,-56,-1,-1,0
40633,65536,77,-56,-1,-1,0
40666,786432,77,-56,-1,-1,0
40700,1179648,77,-56,-1,-1,0
40733,131072,77,-56,-1,-1,0
40766,-851968,77,-56,-1,-1,0
40800,-1310720,77,-56,-1,-1,0
40833,-983040,77,-56,-1,-1,0
40866,-1114112,77,-56,-1,-1,0
40900,-1441792,77,-56,-1,-1,0
40933,-1703936,77,-56,-1,-1,0
40966,-1703936,77,-56,-1,-1,0
41000,-1441792,77,-56,-1,-1,0
41033,-1638400,77,-56,-1,-1,0
41066,-1179648,77,-56,-1,-1,0
41100,-1310720,77,-56,-1,-1,0
41133,-1310720,77,-56,-1,-1,0
41166,6946816,77,-56,-1,-1,0
41200,-262144,77,-56,-1,-1,0
41233,-1376256,77,-56,-1,-1,0
41266,-983040,77,-56,-1,-1,0
41300,0,77,-56,-1,-1,0
41333,1179648,77,-56,-1,-1,0
41366,1703936,77,-56,-1,-1,0
41400,524288,77,-56,-1,-1,0
41433,393216,77,-56,-1,-1,0
41466,-262144,77,-56,-1,-1,0
41500,-131072,77,-56,-1,-1,0
41533,-131072,77,-56,-1,-1,0
41566,-327680,77,-56,-1,-1,0
41600,-589824,77,-56,-1,-1,0
41633,-524288,77,-56,-1,-1,0
41666,-458752,77,-56,-1,-1,0
41700,-458752,77,-56,-1,-1,0
41733,-65536,77,-56,-1,-1,0
41766,-393216,77,-56,-1,-1,0
41800,-655360,77,-56,-1,-1,0
41833,13762560,77,-56,-1,-1,0
41866,393216,77,-56,-1,-1,0
41900,-458752,77,-56,-1,-1,0
41933,-458752,77,-56,-1,-1,0
41966,655360,77,-56,-1,-1,0
42000,983040,77,-56,-1,-1,0
42033,-524288,77,-56,-1,-1,0
42066,-983040,77,-56,-1,-1,0
42100,-1572864,77,-56,-1,-1,0
42133,-1245184,77,-56,-1,-1,0
42166,-1048576,77,-56,-1,-1,0
42200,-983040,77,-56,-1,-1,0
42233,-1048576,77,-56,-1,-1,0
42266,-1179648,77,-56,-1,-1,0
42300,-1245184,77,-56,-1,-1,0
42333,-1179648,77,-56,-1,-1,0
42366,-1507328,77,-56,-1,-1,0
42400,-1376256,77,-56,-1,-1,0
42433,-1703936,77,-56,-1,-1,0
42466,-1507328,77,-56,-1,-1,0
42500,5636096,77,-56,-1,-1,0
42533,458752,77,-56,-1,-1,0
42566,-327680,76,-56,-1,-1,0
42600,-393216,76,-56,-1,-1,0
42633,524288,76,-56,-1,-1,0
42666,1835008,76,-56,-1,-1,0
42700,2162688,76,-56,-1,-1,0
42733,917504,76,-56,-1,-1,0
42766,-262144,76,-56,-1,-1,0
42800,-524288,76,-56,-1,-1,0
42833,0,76,-56,-1,-1,0
42866,0,76,-56,-1,-1,0
42900,-458752,76,-56,-1,-1,0
42933,-655360,76,-56,-1,-1,0
42966,-786432,76,-56,-1,-1,0
43000,-917504,76,-56,-1,-1,0
43033,-1048576,76,-56,-1,-1,0
43066,-1048576,76,-56,-1,-1,0
43100,-983040,76,-56,-1,-1,0
43133,-1376256,76,-56,-1,-1,0
43166,6291456,76,-56,-1,-1,0
43200,0,76,-56,-1,-1,0
43233,-655360,76,-56,-1,-1,0
43266,-917504,76,-56,-1,-1,0
43300,-65536,76,-56,-1,-1,0
43333,1114112,76,-56,-1,-1,0
43366,720896,76,-56,-1,-1,0
43400,65536,76,-56,-1,-1,0
43433,-851968,76,-56,-1,-1,0
43466,-917504,76,-56,-1,-1,0
43500,-851968,76,-56,-1,-1,0
43533,-851968,76,-56,-1,-1,0
43566,-1376256,76,-56,-1,-1,0
43600,-1638400,76,-56,-1,-1,0
43633,-1507328,76,-56,-1,-1,0
43666,-1441792,76,-56,-1,-1,0
43700,-1245184,76,-56,-1,-1,0
43733,-786432,76,-56,-1,-1,0
43766,-851968,76,-56,-1,-1,0
43800,786432,76,-56,-1,-1,0
43833,4063232,76,-56,-1,-1,0
43866,458752,76,-56,-1,-1,0
43900,983040,76,-56,-1,-1,0
43933,655360,76,-56,-1,-1,0
43966,1638400,76,-56,-1,-1,0
44000,2097152,76,-56,-1,-1,0
44033,655360,76,-56,-1,-1,0
44066,-720896,76,-56,-1,-1,0
44100,-393216,76,-56,-1,-1,0
44133,-589824,76,-56,-1,-1,0
44166,-262144,76,-56,-1,-1,0
44200,-327680,76,-56,-1,-1,0
44233,-524288,76,-56,-1,-1,0
44266,-655360,76,-56,-1,-1,0
44300,-655360,76,-56,-1,-1,0
44333,-917504,76,-56,-1,-1,0
44366,-917504,76,-56,-1,-1,0
44400,-1310720,76,-56,-1,-1,0
44433,-1638400,76,-56,-1,-1,0
44466,12976128,76,-56,-1,-1,0
44500,-917504,76,-56,-1,-1,0
44533,-655360,76,-56,-1,-1,0
44566,-786432,76,-56,-1,-1,0
44600,-655360,76,-56,-1,-1,0
44633,524288,76,-56,-1,-1,0
44666,196608,76,-56,-1,-1,0
44700,-1114112,76,-56,-1,-1,0
44733,-1310720,76,-56,-1,-1,0
44766,-1179648,76,-56,-1,-1,0
44800,-1114112,76,-56,-1,-1,0
44833,-1048576,76,-56,-1,-1,0
44866,-983040,76,-56,-1,-1,0
44900,-524288,76,-56,-1,-1,0
44933,-65536,76,-56,-1,-1,0
44966,-1048576,76,-56,-1,-1,0
45000,-1441792,76,-56,-1,-1,0
45033,-1048576,76,-56,-1,-1,0
45066,-720896,76,-56,-1,-1,0
45100,7536640,76,-56,-1,-1,0
45133,851968,76,-56,-1,-1,0
45166,-524288,76,-56,-1,-1,0
45200,-524288,76,-56,-1,-1,0
45233,0,76,-56,-1,-1,0
45266,1179648,76,-56,-1,-1,0
45300,1572864,76,-56,-1,-1,0
45333,65536,76,-56,-1,-1,0
45366,-655360,76,-56,-1,-1,0
45400,-851968,76,-56,-1,-1,0
45433,-524288,76,-56,-1,-1,0
45466,-458752,76,-56,-1,-1,0
45500,-589824,76,-56,-1,-1,0
45533,-851968,76,-56,-1,-1,0
45566,-1114112,76,-56,-1,-1,0
45600,-786432,76,-56,-1,-1,0
45633,-1114112,76,-56,-1,-1,0
45666,-1441792,76,-56,-1,-1,0
45700,-1048576,76,-56,-1,-1,0
45733,13369344,76,-56,-1,-1,0
45766,-589824,76,-56,-1,-1,0
45800,-1048576,76,-56,-1,-1,0
45833,-720896,76,-56,-1,-1,0
45866,0,76,-56,-1,-1,0
45900,1376256,76,-56,-1,-1,0
45933,1310720,76,-56,-1,-1,0
45966,-524288,76,-56,-1,-1,0
46000,-1179648,76,-56,-1,-1,0
46033,-1179648,76,-56,-1,-1,0
46066,-1048576,76,-56,-1,-1,0
46100,-393216,76,-56,-1,-1,0
46133,-65536,76,-56,-1,-1,0
46166,-131072,76,-56,-1,-1,0
46200,-851968,76,-56,-1,-1,0
46233,-589824,76,-56,-1,-1,0
46266,-524288,76,-56,-1,-1,0
46300,-786432,76,-56,-1,-1,0
46333,-1048576,76,-56,-1,-1,0
46366,15138816,76,-56,-1,-1,0
46400,0,76,-56,-1,-1,0
46433,-524288,76,-56,-1,-1,0
46466,-65536,76,-56,-1,-1,0
46500,524288,76,-56,-1,-1,0
46533,1572864,76,-56,-1,-1,0
46566,1114112,76,-56,-1,-1,0
46600,-524288,76,-56,-1,-1,0
46633,-1376256,76,-56,-1,-1,0
46666,-1179648,76,-56,-1,-1,0
46700,-1245184,76,-56,-1,-1,0
46733,-1441792,76,-56,-1,-1,0
46766,-1441792,76,-56,-1,-1,0
46800,-1441792,76,-56,-1,-1,0
46833,-1179648,76,-56,-1,-1,0
46866,-1179648,76,-56,-1,-1,0
46900,-983040,76,-56,-1,-1,0
46933,-1245184,76,-56,-1,-1,0
46966,-1245184,76,-56,-1,-1,0
47000,4259840,76,-56,-1,-1,0
47033,327680,77,-56,-1,-1,0
47066,-917504,77,-56,-1,-1,0
47100,-917504,77,-56,-1,-1,0
47133,-262144,77,-56,-1,-1,0
47166,327680,77,-56,-1,-1,0
47200,393216,77,-56,-1,-1,0
47233,-589824,77,-56,-1,-1,0
47266,-1310720,77,-56,-1,-1,0
47300,-1048576,77,-56,-1,-1,0
47333,131072,77,-56,-1,-1,0
47366,-589824,77,-56,-1,-1,0
47400,-720896,77,-56,-1,-1,0
47433,-983040,77,-56,-1,-1,0
47466,-1114112,77,-56,-1,-1,0
47500,-1245184,77,-56,-1,-1,0
47533,-1114112,77,-56,-1,-1,0
47566,-720896,77,-56,-1,-1,0
47600,-655360,77,-56,-1,-1,0
47633,-1376256,77,-56,-1,-1,0
47666,9764864,77,-56,-1,-1,0
47700,-589824,77,-56,-1,-1,0
47733,-65536,77,-56,-1,-1,0
47766,131072,77,-56,-1,-1,0
47800,917504,77,-56,-1,-1,0
47833,2162688,77,-56,-1,-1,0
47866,1769472,77,-56,-1,-1,0
47900,262144,77,-56,-1,-1,0
47933,0,77,-56,-1,-1,0
47966,-327680,77,-56,-1,-1,0
48000,-589824,77,-56,-1,-1,0
48033,-524288,77,-56,-1,-1,0
48066,-851968,77,-56,-1,-1,0
48100,-1048576,77,-56,-1,-1,0
48133,-1179648,77,-56,-1,-1,0
48166,-1114112,77,-56,-1,-1,0
48200,-1310720,77,-56,-1,-1,0
48233,-2293760,77,-56,-1,-1,0
48266,1376256,77,-56,-1,-1,0
48300,1048576,77,-56,-1,-1,0
48333,-1441792,77,-56,-1,-1,0
48366,-1441792,77,-56,-1,-1,0
48400,-1179648,77,-56,-1,-1,0
48433,196608,77,-56,-1,-1,0
48466,983040,77,-56,-1,-1,0
48500,786432,77,-56,-1,-1,0
48533,524288,77,-56,-1,-1,0
48566,196608,77,-56,-1,-1,0
48600,262144,77,-56,-1,-1,0
48633,131072,77,-56,-1,-1,0
48666,131072,77,-56,-1,-1,0
48700,-196608,77,-56,-1,-1,0
48733,-589824,77,-56,-1,-1,0
48766,-720896,77,-56,-1,-1,0
48800,-393216,77,-56,-1,-1,0
48833,-655360,77,-56,-1,-1,0
48866,-786432,77,-56,-1,-1,0
48900,6750208,77,-56,-1,-1,0
48933,458752,77,-56,-1,-1,0
48966,-524288,77,-56,-1,-1,0
49000,-589824,77,-56,-1,-1,0
49033,0,77,-56,-1,-1,0
49066,851968,77,-56,-1,-1,0
49100,1310720,77,-56,-1,-1,0
49133,-327680,77,-56,-1,-1,0
49166,-1179648,77,-56,-1,-1,0
49200,-1179648,77,-56,-1,-1,0
49233,-983040,77,-56,-1,-1,0
49266,-917504,77,-56,-1,-1,0
49300,-1048576,77,-56,-1,-1,0
49333,-1966080,77,-56,-1,-1,0
49366,-1835008,77,-56,-1,-1,0
49400,-1966080,77,-56,-1,-1,0
49433,-1835008,77,-56,-1,-1,0
49466,-1835008,77,-56,-1,-1,0
49500,-1769472,77,-56,-1,-1,0
49533,-1966080,77,-56,-1,-1,0
49566,-1376256,77,-56,-1,-1,0
49600,6881280,77,-56,-1,-1,0
49633,-65536,77,-56,-1,-1,0
49666,917504,77,-56,-1,-1,0
49700,589824,77,-56,-1,-1,0
49733,1179648,77,-56,-1,-1,0
49766,1900544,77,-56,-1,-1,0
49800,1441792,77,-56,-1,-1,0
49833,196608,77,-56,-1,-1,0
49866,-327680,77,-56,-1,-1,0
49900,-327680,77,-56,-1,-1,0
49933,-655360,77,-56,-1,-1,0
49966,-655360,77,-56,-1,-1,0
50000,-851968,77,-56,-1,-1,0
