milliseconds, ECG, ECG HR, PPG, PPG HR, SpO2, PI
0,-1703936,119,-56,-1,-1,0
33,-1441792,119,-56,-1,-1,0
66,-917504,119,-56,-1,-1,0
100,-1048576,119,-56,-1,-1,0
133,-917504,119,-56,-1,-1,0
166,-851968,119,-56,-1,-1,0
200,-1179648,118,-56,-1,-1,0
233,-1441792,118,-56,-1,-1,0
266,-1638400,118,-56,-1,-1,0
300,-1114112,118,-56,-1,-1,0
333,-1441792,118,-56,-1,-1,0
366,2686976,118,-56,-1,-1,0
400,786432,118,-56,-1,-1,0
433,-1638400,118,-56,-1,-1,0
466,-1048576,118,-56,-1,-1,0
500,196608,118,-56,-1,-1,0
533,524288,118,-56,-1,-1,0
566,0,118,-56,-1,-1,0
600,-196608,118,-56,-1,-1,0
633,-589824,118,-56,-1,-1,0
666,-655360,118,-56,-1,-1,0
700,-524288,118,-56,-1,-1,0
733,-655360,118,-56,-1,-1,0
766,-786432,118,-56,-1,-1,0
800,8650752,118,-56,-1,-1,0
833,-720896,118,-56,-1,-1,0
866,-1048576,118,-56,-1,-1,0
900,-65536,118,-56,-1,-1,0
933,1245184,118,-56,-1,-1,0
966,393216,118,-56,-1,-1,0
1000,-131072,118,-56,-1,-1,0
1033,-262144,118,-56,-1,-1,0
1066,-196608,118,-56,-1,-1,0
1100,-720896,118,-56,-1,-1,0
1133,-589824,118,-56,-1,-1,0
1166,-1048576,118,-56,-1,-1,0
1200,-1638400,118,-56,-1,-1,0
1233,14483456,118,-56,-1,-1,0
1266,-1572864,118,-56,-1,-1,0
1300,-1900544,118,-56,-1,-1,0
1333,-1114112,118,-56,-1,-1,0
1366,-196608,118,-56,-1,-1,0
1400,-1114112,118,-56,-1,-1,0
1433,-1507328,118,-56,-1,-1,0
1466,-1507328,118,-56,-1,-1,0
1500,-2359296,118,-56,-1,-1,0
1533,-1310720,118,-56,-1,-1,0
1566,-1310720,118,-56,-1,-1,0
1600,-1507328,118,-56,-1,-1,0
1633,-1835008,118,-56,-1,-1,0
1666,17039360,118,-56,-1,-1,0
1700,-1966080,118,-56,-1,-1,0
1733,-1835008,118,-56,-1,-1,0
1766,-851968,118,-56,-1,-1,0
1800,458752,118,-56,-1,-1,0
1833,-393216,118,-56,-1,-1,0
1866,-262144,118,-56,-1,-1,0
1900,-393216,118,-56,-1,-1,0
1933,-917504,118,-56,-1,-1,0
1966,-393216,118,-56,-1,-1,0
2000,-196608,118,-56,-1,-1,0
2033,-655360,118,-56,-1,-1,0
2066,720896,118,-56,-1,-1,0
2100,3211264,118,-56,-1,-1,0
2133,-655360,118,-56,-1,-1,0
2166,-458752,118,-56,-1,-1,0
2200,1376256,118,-56,-1,-1,0
2233,2293760,118,-56,-1,-1,0
2266,65536,118,-56,-1,-1,0
2300,786432,118,-56,-1,-1,0
2333,-196608,118,-56,-1,-1,0
2366,-589824,118,-56,-1,-1,0
2400,-393216,118,-56,-1,-1,0
2433,-917504,118,-56,-1,-1,0
2466,-2359296,118,-56,-1,-1,0
2500,16449536,118,-56,-1,-1,0
2533,-1638400,118,-56,-1,-1,0
2566,-1966080,118,-56,-1,-1,0
2600,-1245184,118,-56,-1,-1,0
2633,-65536,118,-56,-1,-1,0
2666,-589824,118,-56,-1,-1,0
2700,-2162688,118,-56,-1,-1,0
2733,-1835008,118,-56,-1,-1,0
2766,-1638400,118,-56,-1,-1,0
2800,-2031616,118,-56,-1,-1,0
2833,-1835008,118,-56,-1,-1,0
2866,-2097152,118,-56,-1,-1,0
2900,3211264,118,-56,-1,-1,0
2933,-2228224,118,-56,-1,-1,0
2966,-2883584,118,-56,-1,-1,0
3000,-1769472,118,-56,-1,-1,0
3033,-917504,118,-56,-1,-1,0
3066,-720896,118,-56,-1,-1,0
3100,-2293760,118,-56,-1,-1,0
3133,-3014656,118,-56,-1,-1,0
3166,-2621440,118,-56,-1,-1,0
3200,-2162688,118,-56,-1,-1,0
3233,-2031616,118,-56,-1,-1,0
3266,-2359296,118,-56,-1,-1,0
3300,-2359296,118,-56,-1,-1,0
3333,5767168,118,-56,-1,-1,0
3366,-2031616,118,-56,-1,-1,0
3400,-1572864,118,-56,-1,-1,0
3433,-524288,118,-56,-1,-1,0
3466,1179648,118,-56,-1,-1,0
3500,-458752,118,-56,-1,-1,0
3533,-851968,118,-56,-1,-1,0
3566,-458752,118,-56,-1,-1,0
3600,131072,118,-56,-1,-1,0
3633,131072,118,-56,-1,-1,0
3666,-262144,118,-56,-1,-1,0
3699,-720896,118,-56,-1,-1,0
3733,10158080,118,-56,-1,-1,0
3766,-720896,118,-56,-1,-1,0
3800,-720896,118,-56,-1,-1,0
3833,-262144,118,-56,-1,-1,0
3866,524288,118,-56,-1,-1,0
3900,-786432,118,-56,-1,-1,0
3933,-1048576,118,-56,-1,-1,0
3966,-589824,118,-56,-1,-1,0
4000,-393216,118,-56,-1,-1,0
4033,65536,118,-56,-1,-1,0
4066,-393216,118,-56,-1,-1,0
4100,-720896,118,-56,-1,-1,0
4133,15663104,118,-56,-1,-1,0
4166,-1966080,118,-56,-1,-1,0
4200,-1572864,118,-56,-1,-1,0
4233,-1048576,118,-56,-1,-1,0
4266,1245184,118,-56,-1,-1,0
4300,524288,118,-56,-1,-1,0
4333,-589824,118,-56,-1,-1,0
4366,-524288,119,-56,-1,-1,0
4400,-655360,119,-56,-1,-1,0
4433,-851968,119,-56,-1,-1,0
4466,-589824,119,-56,-1,-1,0
4500,-1179648,119,-56,-1,-1,0
4533,-589824,119,-56,-1,-1,0
4566,5898240,119,-56,-1,-1,0
4600,-1572864,119,-56,-1,-1,0
4633,-1310720,119,-56,-1,-1,0
4666,262144,119,-56,-1,-1,0
4700,524288,119,-56,-1,-1,0
4733,-196608,119,-56,-1,-1,0
4766,-1310720,119,-56,-1,-1,0
4800,-1048576,119,-56,-1,-1,0
4833,-589824,119,-56,-1,-1,0
4866,-327680,119,-56,-1,-1,0
4900,-1376256,119,-56,-1,-1,0
4933,-1376256,119,-56,-1,-1,0
4966,17760256,119,-56,-1,-1,0
5000,-1376256,119,-56,-1,-1,0
5033,-1769472,119,-56,-1,-1,0
5066,-1310720,119,-56,-1,-1,0
5100,589824,119,-56,-1,-1,0
5133,-851968,119,-56,-1,-1,0
5166,-720896,120,-56,-1,-1,0
5200,-1245184,120,-56,-1,-1,0
5233,-458752,120,-56,-1,-1,0
5266,-65536,120,-56,-1,-1,0
5300,-65536,120,-56,-1,-1,0
5333,-131072,120,-56,-1,-1,0
5366,11010048,120,-56,-1,-1,0
5400,0,120,-56,-1,-1,0
5433,65536,120,-56,-1,-1,0
5466,458752,120,-56,-1,-1,0
5500,2293760,120,-56,-1,-1,0
5533,1900544,120,-56,-1,-1,0
5566,983040,120,-56,-1,-1,0
5600,393216,120,-56,-1,-1,0
5633,1114112,120,-56,-1,-1,0
5666,1048576,120,-56,-1,-1,0
5700,589824,120,-56,-1,-1,0
5733,196608,120,-56,-1,-1,0
5766,9175040,120,-56,-1,-1,0
5800,131072,120,-56,-1,-1,0
5833,-458752,120,-56,-1,-1,0
5866,917504,120,-56,-1,-1,0
5900,2228224,120,-56,-1,-1,0
5933,-1900544,120,-56,-1,-1,0
5966,-2555904,120,-56,-1,-1,0
6000,-2949120,120,-56,-1,-1,0
6033,-3145728,120,-56,-1,-1,0
6066,-3080192,120,-56,-1,-1,0
6100,-2555904,120,-56,-1,-1,0
6133,-2686976,120,-56,-1,-1,0
6166,-196608,120,-56,-1,-1,0
6200,1900544,120,-56,-1,-1,0
6233,-2883584,120,-56,-1,-1,0
6266,-1966080,120,-56,-1,-1,0
6300,-786432,120,-56,-1,-1,0
6333,458752,120,-56,-1,-1,0
6366,-524288,120,-56,-1,-1,0
6400,-1114112,120,-56,-1,-1,0
6433,-1245184,120,-56,-1,-1,0
6466,-1769472,120,-56,-1,-1,0
6500,-1769472,120,-56,-1,-1,0
6533,-1966080,120,-56,-1,-1,0
6566,-2162688,120,-56,-1,-1,0
6600,16449536,120,-56,-1,-1,0
6633,-1441792,120,-56,-1,-1,0
6666,-1703936,120,-56,-1,-1,0
6700,-851968,120,-56,-1,-1,0
6733,1114112,120,-56,-1,-1,0
6766,589824,120,-56,-1,-1,0
6800,65536,120,-56,-1,-1,0
6833,-786432,120,-56,-1,-1,0
6866,-589824,120,-56,-1,-1,0
6899,-655360,120,-56,-1,-1,0
6933,-851968,120,-56,-1,-1,0
6966,-917504,120,-56,-1,-1,0
7000,3014656,120,-56,-1,-1,0
7033,-327680,120,-56,-1,-1,0
7066,-1769472,120,-56,-1,-1,0
7100,-1179648,120,-56,-1,-1,0
7133,196608,120,-56,-1,-1,0
7166,262144,120,-56,-1,-1,0
7200,-917504,120,-56,-1,-1,0
7233,-1507328,120,-56,-1,-1,0
7266,-589824,120,-56,-1,-1,0
7300,-262144,120,-56,-1,-1,0
7333,-589824,120,-56,-1,-1,0
7366,-1376256,120,-56,-1,-1,0
7399,1769472,120,-56,-1,-1,0
7433,589824,120,-56,-1,-1,0
7466,-1114112,120,-56,-1,-1,0
7500,-327680,120,-56,-1,-1,0
7533,851968,120,-56,-1,-1,0
7566,983040,120,-56,-1,-1,0
7600,131072,120,-56,-1,-1,0
7633,-65536,120,-56,-1,-1,0
7666,65536,120,-56,-1,-1,0
7700,0,120,-56,-1,-1,0
7733,0,120,-56,-1,-1,0
7766,-458752,120,-56,-1,-1,0
7800,-1048576,120,-56,-1,-1,0
7833,10027008,120,-56,-1,-1,0
7866,-1703936,120,-56,-1,-1,0
7899,-1048576,120,-56,-1,-1,0
7933,-327680,120,-56,-1,-1,0
7966,0,120,-56,-1,-1,0
8000,-720896,120,-56,-1,-1,0
8033,-1572864,120,-56,-1,-1,0
8066,-1179648,120,-56,-1,-1,0
8100,-1310720,120,-56,-1,-1,0
8133,-1179648,120,-56,-1,-1,0
8166,-786432,120,-56,-1,-1,0
8200,-1245184,120,-56,-1,-1,0
8233,10092544,120,-56,-1,-1,0
8266,-524288,120,-56,-1,-1,0
8300,-1114112,120,-56,-1,-1,0
8333,-1245184,120,-56,-1,-1,0
8366,0,120,-56,-1,-1,0
8400,-1441792,120,-56,-1,-1,0
8433,-1376256,120,-56,-1,-1,0
8466,-1048576,120,-56,-1,-1,0
8500,-1376256,120,-56,-1,-1,0
8533,-1769472,120,-56,-1,-1,0
8566,-1769472,120,-56,-1,-1,0
8600,-2162688,120,-56,-1,-1,0
8633,-2686976,120,-56,-1,-1,0
8666,15859712,120,-56,-1,-1,0
8700,-2424832,120,-56,-1,-1,0
8733,-2228224,120,-56,-1,-1,0
8766,-1835008,120,-56,-1,-1,0
8800,131072,120,-56,-1,-1,0
8833,-524288,120,-56,-1,-1,0
8866,-2097152,120,-56,-1,-1,0
8900,-1638400,120,-56,-1,-1,0
8933,-2097152,120,-56,-1,-1,0
8966,-2293760,120,-56,-1,-1,0
9000,-1966080,120,-56,-1,-1,0
9033,-2359296,120,-56,-1,-1,0
9066,1114112,120,-56,-1,-1,0
9100,458752,120,-56,-1,-1,0
9133,-2490368,120,-56,-1,-1,0
9166,-2228224,120,-56,-1,-1,0
9200,-524288,120,-56,-1,-1,0
9233,-524288,120,-56,-1,-1,0
9266,-1048576,120,-56,-1,-1,0
9300,-1638400,121,-56,-1,-1,0
9333,-1245184,121,-56,-1,-1,0
9366,-2031616,121,-56,-1,-1,0
9400,-2031616,121,-56,-1,-1,0
9433,-2621440,121,-56,-1,-1,0
9466,-3145728,121,-56,-1,-1,0
9500,9240576,121,-56,-1,-1,0
9533,-1703936,121,-56,-1,-1,0
9566,-1441792,121,-56,-1,-1,0
9600,0,121,-56,-1,-1,0
9633,1245184,121,-56,-1,-1,0
9666,65536,121,-56,-1,-1,0
9700,-917504,121,-56,-1,-1,0
9733,-196608,121,-56,-1,-1,0
9766,-196608,121,-56,-1,-1,0
9800,-65536,121,-56,-1,-1,0
9833,-589824,121,-56,-1,-1,0
9866,-1179648,121,-56,-1,-1,0
9900,14483456,121,-56,-1,-1,0
9933,-1048576,121,-56,-1,-1,0
9966,-917504,121,-56,-1,-1,0
10000,65536,121,-56,-1,-1,0
10033,1572864,121,-56,-1,-1,0
10066,65536,121,-56,-1,-1,0
10100,-393216,121,-56,-1,-1,0
10133,-262144,121,-56,-1,-1,0
10166,-1114112,121,-56,-1,-1,0
10200,-720896,121,-56,-1,-1,0
10233,-786432,121,-56,-1,-1,0
10266,-1245184,121,-56,-1,-1,0
10300,2031616,121,-56,-1,-1,0
10333,1310720,121,-56,-1,-1,0
10366,-2424832,121,-56,-1,-1,0
10400,-2162688,121,-56,-1,-1,0
10433,-1179648,121,-56,-1,-1,0
10466,-589824,121,-56,-1,-1,0
10500,-655360,121,-56,-1,-1,0
10533,-589824,121,-56,-1,-1,0
10566,-393216,121,-56,-1,-1,0
10600,-786432,121,-56,-1,-1,0
10633,-1179648,121,-56,-1,-1,0
10666,-1441792,121,-56,-1,-1,0
10700,-1703936,121,-56,-1,-1,0
10733,14548992,121,-56,-1,-1,0
10766,-983040,121,-56,-1,-1,0
10800,-1310720,121,-56,-1,-1,0
10833,-196608,121,-56,-1,-1,0
10866,1179648,121,-56,-1,-1,0
10900,1376256,121,-56,-1,-1,0
10933,1114112,121,-56,-1,-1,0
10966,851968,121,-56,-1,-1,0
11000,196608,121,-56,-1,-1,0
11033,262144,121,-56,-1,-1,0
11066,524288,121,-56,-1,-1,0
11100,-196608,121,-56,-1,-1,0
11133,131072,121,-56,-1,-1,0
11166,3538944,121,-56,-1,-1,0
11200,-1703936,121,-56,-1,-1,0
11233,-1572864,121,-56,-1,-1,0
11266,-786432,121,-56,-1,-1,0
11300,393216,121,-56,-1,-1,0
11333,-983040,121,-56,-1,-1,0
11366,-1179648,121,-56,-1,-1,0
11400,-983040,121,-56,-1,-1,0
11433,-786432,121,-56,-1,-1,0
11466,-655360,121,-56,-1,-1,0
11500,-1048576,121,-56,-1,-1,0
11533,-1507328,121,-56,-1,-1,0
11566,15728640,121,-56,-1,-1,0
11600,-1179648,121,-56,-1,-1,0
11633,-1048576,121,-56,-1,-1,0
11666,-524288,121,-56,-1,-1,0
11700,983040,121,-56,-1,-1,0
11733,196608,121,-56,-1,-1,0
11766,-262144,121,-56,-1,-1,0
11800,-327680,121,-56,-1,-1,0
11833,-851968,121,-56,-1,-1,0
11866,-1638400,121,-56,-1,-1,0
11900,-1114112,121,-56,-1,-1,0
11933,-2555904,121,-56,-1,-1,0
11966,327680,121,-56,-1,-1,0
12000,786432,121,-56,-1,-1,0
12033,-1507328,121,-56,-1,-1,0
12066,-2424832,121,-56,-1,-1,0
12100,-1310720,121,-56,-1,-1,0
12133,-524288,121,-56,-1,-1,0
12166,-262144,121,-56,-1,-1,0
12200,-1114112,120,-56,-1,-1,0
12233,-655360,120,-56,-1,-1,0
12266,-1572864,120,-56,-1,-1,0
12300,-1507328,120,-56,-1,-1,0
12333,-1572864,120,-56,-1,-1,0
12366,-1835008,120,-56,-1,-1,0
12400,13828096,120,-56,-1,-1,0
12433,-2228224,120,-56,-1,-1,0
12466,-2359296,120,-56,-1,-1,0
12500,-1703936,120,-56,-1,-1,0
12533,196608,120,-56,-1,-1,0
12566,524288,120,-56,-1,-1,0
12600,-458752,120,-56,-1,-1,0
12633,0,121,-56,-1,-1,0
12666,262144,121,-56,-1,-1,0
12700,262144,121,-56,-1,-1,0
12733,1048576,121,-56,-1,-1,0
12766,720896,121,-56,-1,-1,0
12800,4980736,121,-56,-1,-1,0
12833,1507328,121,-56,-1,-1,0
12866,-524288,121,-56,-1,-1,0
12900,524288,121,-56,-1,-1,0
12933,1703936,121,-56,-1,-1,0
12966,1572864,121,-56,-1,-1,0
13000,983040,121,-56,-1,-1,0
13033,1179648,121,-56,-1,-1,0
13066,983040,121,-56,-1,-1,0
13100,-65536,121,-56,-1,-1,0
13133,262144,121,-56,-1,-1,0
13166,-589824,121,-56,-1,-1,0
13200,-917504,121,-56,-1,-1,0
13233,17301504,121,-56,-1,-1,0
13266,-1441792,121,-56,-1,-1,0
13299,-1048576,121,-56,-1,-1,0
13333,-1048576,121,-56,-1,-1,0
13366,-196608,121,-56,-1,-1,0
13400,-655360,121,-56,-1,-1,0
13433,-1310720,121,-56,-1,-1,0
13466,-1376256,120,-56,-1,-1,0
13500,-1572864,120,-56,-1,-1,0
13533,-2162688,120,-56,-1,-1,0
13566,-1441792,120,-56,-1,-1,0
13600,-2293760,120,-56,-1,-1,0
13633,-1441792,120,-56,-1,-1,0
13666,6946816,120,-56,-1,-1,0
13700,-2097152,120,-56,-1,-1,0
13733,-2097152,120,-56,-1,-1,0
13766,-1114112,120,-56,-1,-1,0
13799,524288,120,-56,-1,-1,0
13833,-262144,120,-56,-1,-1,0
13866,-983040,120,-56,-1,-1,0
13900,-589824,120,-56,-1,-1,0
13933,-720896,120,-56,-1,-1,0
13966,-327680,120,-56,-1,-1,0
14000,-458752,120,-56,-1,-1,0
14033,-786432,120,-56,-1,-1,0
14066,16973824,120,-56,-1,-1,0
14100,-524288,120,-56,-1,-1,0
14133,-393216,120,-56,-1,-1,0
14166,262144,120,-56,-1,-1,0
14200,1376256,120,-56,-1,-1,0
14233,917504,120,-56,-1,-1,0
14266,-131072,120,-56,-1,-1,0
14299,-65536,120,-56,-1,-1,0
14333,-65536,120,-56,-1,-1,0
14366,-524288,120,-56,-1,-1,0
14400,-851968,120,-56,-1,-1,0
14433,-1966080,120,-56,-1,-1,0
14466,5373952,120,-56,-1,-1,0
14500,-2359296,120,-56,-1,-1,0
14533,-2293760,120,-56,-1,-1,0
14566,-2097152,120,-56,-1,-1,0
14600,-196608,120,-56,-1,-1,0
14633,-524288,120,-56,-1,-1,0
14666,-1245184,120,-56,-1,-1,0
14700,-786432,120,-56,-1,-1,0
14733,0,120,-56,-1,-1,0
14766,-393216,120,-56,-1,-1,0
14799,-393216,120,-56,-1,-1,0
14833,-655360,120,-56,-1,-1,0
14866,-2162688,120,-56,-1,-1,0
14900,17104896,120,-56,-1,-1,0
14933,-2228224,120,-56,-1,-1,0
14966,-2359296,120,-56,-1,-1,0
15000,-1376256,120,-56,-1,-1,0
15033,-131072,120,-56,-1,-1,0
15066,-720896,120,-56,-1,-1,0
15100,-1376256,120,-56,-1,-1,0
15133,-851968,120,-56,-1,-1,0
15166,-2031616,120,-56,-1,-1,0
15200,-2228224,120,-56,-1,-1,0
15233,-2490368,120,-56,-1,-1,0
15266,-2621440,120,-56,-1,-1,0
15299,8454144,120,-56,-1,-1,0
15333,-2293760,120,-56,-1,-1,0
15366,-2818048,120,-56,-1,-1,0
15400,-2097152,120,-56,-1,-1,0
15433,-1048576,120,-56,-1,-1,0
15466,0,120,-56,-1,-1,0
15500,-983040,120,-56,-1,-1,0
15533,-1048576,120,-56,-1,-1,0
15566,-917504,120,-56,-1,-1,0
15600,-1245184,120,-56,-1,-1,0
15633,-655360,120,-56,-1,-1,0
15666,-1245184,120,-56,-1,-1,0
15700,-65536,120,-56,-1,-1,0
15733,2031616,120,-56,-1,-1,0
15766,-1245184,120,-56,-1,-1,0
15799,-1114112,120,-56,-1,-1,0
15833,196608,120,-56,-1,-1,0
15866,1179648,120,-56,-1,-1,0
15900,524288,120,-56,-1,-1,0
15933,131072,120,-56,-1,-1,0
15966,131072,120,-56,-1,-1,0
16000,458752,120,-56,-1,-1,0
16033,851968,120,-56,-1,-1,0
16066,-393216,120,-56,-1,-1,0
16100,0,120,-56,-1,-1,0
16133,8192000,120,-56,-1,-1,0
16166,-196608,120,-56,-1,-1,0
16200,0,120,-56,-1,-1,0
16233,393216,120,-56,-1,-1,0
16266,917504,120,-56,-1,-1,0
16300,-458752,120,-56,-1,-1,0
16333,-1114112,120,-56,-1,-1,0
16366,-524288,120,-56,-1,-1,0
16400,-917504,120,-56,-1,-1,0
16433,-983040,120,-56,-1,-1,0
16466,-1703936,120,-56,-1,-1,0
16500,-2293760,120,-56,-1,-1,0
16533,16187392,120,-56,-1,-1,0
16566,-1179648,120,-56,-1,-1,0
16600,-1441792,120,-56,-1,-1,0
16633,-458752,120,-56,-1,-1,0
16666,458752,120,-56,-1,-1,0
16700,-131072,120,-56,-1,-1,0
16733,-720896,120,-56,-1,-1,0
16766,-1310720,120,-56,-1,-1,0
16800,-786432,120,-56,-1,-1,0
16833,-1048576,120,-56,-1,-1,0
16866,-1572864,120,-56,-1,-1,0
16900,-2621440,120,-56,-1,-1,0
16933,2686976,120,-56,-1,-1,0
16966,-2686976,120,-56,-1,-1,0
17000,-4849664,120,-56,-1,-1,0
17033,-4521984,120,-56,-1,-1,0
17066,-3866624,120,-56,-1,-1,0
17100,-3276800,120,-56,-1,-1,0
17133,-3997696,120,-56,-1,-1,0
17166,-4587520,120,-56,-1,-1,0
17200,-4259840,120,-56,-1,-1,0
17233,-3866624,120,-56,-1,-1,0
17266,-3735552,120,-56,-1,-1,0
17300,-4128768,120,-56,-1,-1,0
17333,-4521984,120,-56,-1,-1,0
17366,13828096,120,-56,-1,-1,0
17400,-4128768,120,-56,-1,-1,0
17433,-3604480,120,-56,-1,-1,0
17466,-2555904,120,-56,-1,-1,0
17500,-1376256,120,-56,-1,-1,0
17533,-2031616,120,-56,-1,-1,0
17566,-2818048,120,-56,-1,-1,0
17600,-2228224,120,-56,-1,-1,0
17633,-2097152,120,-56,-1,-1,0
17666,-1310720,120,-56,-1,-1,0
17700,-2490368,120,-56,-1,-1,0
17733,-2490368,120,-56,-1,-1,0
17766,11796480,120,-56,-1,-1,0
17800,-1245184,120,-56,-1,-1,0
17833,-327680,120,-56,-1,-1,0
17866,-524288,120,-56,-1,-1,0
17900,2424832,120,-56,-1,-1,0
17933,1441792,120,-56,-1,-1,0
17966,917504,120,-56,-1,-1,0
18000,1441792,120,-56,-1,-1,0
18033,1703936,120,-56,-1,-1,0
18066,1703936,120,-56,-1,-1,0
18100,12779520,120,-56,-1,-1,0
18133,1310720,120,-56,-1,-1,0
18166,1245184,120,-56,-1,-1,0
18200,1441792,120,-56,-1,-1,0
18233,2883584,120,-56,-1,-1,0
18266,1835008,120,-56,-1,-1,0
18300,1310720,120,-56,-1,-1,0
18333,1441792,120,-56,-1,-1,0
18366,1441792,120,-56,-1,-1,0
18400,917504,120,-56,-1,-1,0
18433,589824,120,-56,-1,-1,0
18466,917504,120,-56,-1,-1,0
18500,524288,120,-56,-1,-1,0
18533,65536,120,-56,-1,-1,0
18566,17498112,120,-56,-1,-1,0
18600,-786432,120,-56,-1,-1,0
18633,-720896,120,-56,-1,-1,0
18666,-589824,120,-56,-1,-1,0
18700,-131072,120,-56,-1,-1,0
18733,720896,120,-56,-1,-1,0
18766,-262144,120,-56,-1,-1,0
18800,-1048576,120,-56,-1,-1,0
18833,-917504,120,-56,-1,-1,0
18866,-2097152,120,-56,-1,-1,0
18900,-2228224,120,-56,-1,-1,0
18933,-2031616,120,-56,-1,-1,0
18966,2293760,120,-56,-1,-1,0
19000,-983040,120,-56,-1,-1,0
19033,-5373952,120,-56,-1,-1,0
19066,-3211264,120,-56,-1,-1,0
19100,-2818048,120,-56,-1,-1,0
19133,-589824,120,-56,-1,-1,0
19166,-1835008,121,-56,-1,-1,0
19200,-1310720,121,-56,-1,-1,0
19233,-983040,121,-56,-1,-1,0
19266,-1441792,121,-56,-1,-1,0
19300,-1703936,121,-56,-1,-1,0
19333,-1376256,121,-56,-1,-1,0
19366,1769472,121,-56,-1,-1,0
19400,3080192,121,-56,-1,-1,0
19433,-1310720,121,-56,-1,-1,0
19466,-131072,121,-56,-1,-1,0
19500,1048576,121,-56,-1,-1,0
19533,2031616,121,-56,-1,-1,0
19566,851968,121,-56,-1,-1,0
19600,-131072,121,-56,-1,-1,0
19633,0,121,-56,-1,-1,0
19666,-196608,121,-56,-1,-1,0
19700,-458752,121,-56,-1,-1,0
19733,-983040,121,-56,-1,-1,0
19766,2555904,121,-56,-1,-1,0
19800,0,121,-56,-1,-1,0
19833,-1638400,121,-56,-1,-1,0
19866,-917504,121,-56,-1,-1,0
19900,196608,121,-56,-1,-1,0
19933,917504,121,-56,-1,-1,0
19966,-65536,121,-56,-1,-1,0
20000,196608,121,-56,-1,-1,0
20033,327680,121,-56,-1,-1,0
20066,-720896,121,-56,-1,-1,0
20100,458752,121,-56,-1,-1,0
20133,-720896,121,-56,-1,-1,0
20166,1245184,121,-56,-1,-1,0
20200,3342336,121,-56,-1,-1,0
20233,-458752,121,-56,-1,-1,0
20266,-1179648,121,-56,-1,-1,0
20300,65536,121,-56,-1,-1,0
20333,524288,121,-56,-1,-1,0
20366,-65536,121,-56,-1,-1,0
20400,-983040,121,-56,-1,-1,0
20433,262144,121,-56,-1,-1,0
20466,-1048576,121,-56,-1,-1,0
20500,-1245184,121,-56,-1,-1,0
20533,-1572864,121,-56,-1,-1,0
20566,-458752,121,-56,-1,-1,0
20600,4325376,121,-56,-1,-1,0
20633,-2293760,121,-56,-1,-1,0
20666,-2097152,121,-56,-1,-1,0
20700,-720896,121,-56,-1,-1,0
20733,-196608,121,-56,-1,-1,0
20766,-327680,122,-56,-1,-1,0
20800,-720896,122,-56,-1,-1,0
20833,-393216,122,-56,-1,-1,0
20866,-983040,122,-56,-1,-1,0
20900,-589824,122,-56,-1,-1,0
20933,-524288,122,-56,-1,-1,0
20966,851968,122,-56,-1,-1,0
21000,3145728,122,-56,-1,-1,0
21033,-589824,122,-56,-1,-1,0
21066,262144,122,-56,-1,-1,0
21100,983040,122,-56,-1,-1,0
21133,2359296,122,-56,-1,-1,0
21166,1114112,122,-56,-1,-1,0
21200,917504,122,-56,-1,-1,0
21233,1310720,122,-56,-1,-1,0
21266,1441792,122,-56,-1,-1,0
21300,1245184,122,-56,-1,-1,0
21333,589824,122,-56,-1,-1,0
21366,5373952,122,-56,-1,-1,0
21400,2097152,122,-56,-1,-1,0
21433,-196608,122,-56,-1,-1,0
21466,327680,122,-56,-1,-1,0
21500,1441792,122,-56,-1,-1,0
21533,1245184,122,-56,-1,-1,0
21566,-524288,123,-56,-1,-1,0
21600,-917504,123,-56,-1,-1,0
21633,-458752,123,-56,-1,-1,0
21666,-917504,123,-56,-1,-1,0
21700,-1048576,123,-56,-1,-1,0
21733,-1572864,123,-56,-1,-1,0
21766,2490368,123,-56,-1,-1,0
21800,458752,123,-56,-1,-1,0
21833,-2424832,123,-56,-1,-1,0
21866,-1769472,123,-56,-1,-1,0
21900,-2162688,123,-56,-1,-1,0
21933,-917504,123,-56,-1,-1,0
21966,-1769472,123,-56,-1,-1,0
22000,-2359296,123,-56,-1,-1,0
22033,-1769472,123,-56,-1,-1,0
22066,-2031616,123,-56,-1,-1,0
22100,-2686976,123,-56,-1,-1,0
22133,-2883584,123,-56,-1,-1,0
22166,-2162688,123,-56,-1,-1,0
22200,1835008,123,-56,-1,-1,0
22233,-4849664,123,-56,-1,-1,0
22266,-4521984,123,-56,-1,-1,0
22300,-3276800,123,-56,-1,-1,0
22333,-2162688,123,-56,-1,-1,0
22366,-2490368,123,-56,-1,-1,0
22400,-2359296,123,-56,-1,-1,0
22433,-1900544,123,-56,-1,-1,0
22466,-1179648,123,-56,-1,-1,0
22500,-1441792,123,-56,-1,-1,0
22533,-1835008,123,-56,-1,-1,0
22566,-1179648,123,-56,-1,-1,0
22600,4325376,123,-56,-1,-1,0
22633,-2293760,123,-56,-1,-1,0
22666,-2162688,123,-56,-1,-1,0
22700,-1179648,123,-56,-1,-1,0
22733,-524288,123,-56,-1,-1,0
22766,-1441792,123,-56,-1,-1,0
22800,-2686976,123,-56,-1,-1,0
22833,-2424832,123,-56,-1,-1,0
22866,-2293760,123,-56,-1,-1,0
22900,-2293760,123,-56,-1,-1,0
22933,-3080192,123,-56,-1,-1,0
22966,1703936,123,-56,-1,-1,0
23000,-2621440,123,-56,-1,-1,0
23033,-2490368,123,-56,-1,-1,0
23066,-1769472,123,-56,-1,-1,0
23100,458752,123,-56,-1,-1,0
23133,0,123,-56,-1,-1,0
23166,-1048576,125,-56,-1,-1,0
23200,-720896,125,-56,-1,-1,0
23233,-458752,125,-56,-1,-1,0
23266,-589824,125,-56,-1,-1,0
23300,-458752,125,-56,-1,-1,0
23333,-917504,125,-56,-1,-1,0
23366,5111808,125,-56,-1,-1,0
23400,458752,125,-56,-1,-1,0
23433,-786432,125,-56,-1,-1,0
23466,-589824,125,-56,-1,-1,0
23500,524288,125,-56,-1,-1,0
23533,327680,125,-56,-1,-1,0
23566,-655360,125,-56,-1,-1,0
23600,-655360,125,-56,-1,-1,0
23633,-131072,125,-56,-1,-1,0
23666,-196608,125,-56,-1,-1,0
23700,-196608,125,-56,-1,-1,0
23733,-589824,125,-56,-1,-1,0
23766,5767168,125,-56,-1,-1,0
23800,458752,125,-56,-1,-1,0
23833,-1245184,125,-56,-1,-1,0
23866,-262144,125,-56,-1,-1,0
23900,0,125,-56,-1,-1,0
23933,589824,125,-56,-1,-1,0
23966,720896,125,-56,-1,-1,0
24000,196608,125,-56,-1,-1,0
24033,524288,125,-56,-1,-1,0
24066,-393216,125,-56,-1,-1,0
24100,196608,125,-56,-1,-1,0
24133,-1179648,125,-56,-1,-1,0
24166,1114112,125,-56,-1,-1,0
24200,589824,125,-56,-1,-1,0
24233,-2949120,125,-56,-1,-1,0
24266,-2424832,125,-56,-1,-1,0
24300,-1310720,125,-56,-1,-1,0
24333,-131072,125,-56,-1,-1,0
24366,-458752,125,-56,-1,-1,0
24400,-393216,125,-56,-1,-1,0
24433,131072,125,-56,-1,-1,0
24466,0,125,-56,-1,-1,0
24500,65536,125,-56,-1,-1,0
24533,-196608,125,-56,-1,-1,0
24566,4325376,125,-56,-1,-1,0
24600,1507328,125,-56,-1,-1,0
24633,-983040,125,-56,-1,-1,0
24666,-524288,125,-56,-1,-1,0
24700,65536,125,-56,-1,-1,0
24733,327680,125,-56,-1,-1,0
24766,-851968,125,-56,-1,-1,0
24800,-1245184,125,-56,-1,-1,0
24833,-1048576,125,-56,-1,-1,0
24866,-1507328,125,-56,-1,-1,0
24900,-1048576,125,-56,-1,-1,0
24933,-1703936,125,-56,-1,-1,0
24966,7798784,125,-56,-1,-1,0
25000,-1638400,125,-56,-1,-1,0
25033,-786432,125,-56,-1,-1,0
25066,0,125,-56,-1,-1,0
25100,1769472,125,-56,-1,-1,0
25133,1179648,125,-56,-1,-1,0
25166,0,125,-56,-1,-1,0
25200,327680,125,-56,-1,-1,0
25233,983040,125,-56,-1,-1,0
25266,983040,125,-56,-1,-1,0
25300,851968,125,-56,-1,-1,0
25333,196608,125,-56,-1,-1,0
25366,15532032,125,-56,-1,-1,0
25400,-327680,125,-56,-1,-1,0
25433,-1114112,125,-56,-1,-1,0
25466,-458752,125,-56,-1,-1,0
25500,196608,125,-56,-1,-1,0
25533,-1048576,125,-56,-1,-1,0
25566,-1769472,125,-56,-1,-1,0
25600,-2031616,125,-56,-1,-1,0
25633,-2031616,125,-56,-1,-1,0
25666,-2228224,125,-56,-1,-1,0
25700,-2162688,125,-56,-1,-1,0
25733,-2424832,125,-56,-1,-1,0
25766,11599872,125,-56,-1,-1,0
25800,-2490368,125,-56,-1,-1,0
25833,-3145728,125,-56,-1,-1,0
25866,-2949120,125,-56,-1,-1,0
25900,-2162688,125,-56,-1,-1,0
25933,-2228224,125,-56,-1,-1,0
25966,-1900544,125,-56,-1,-1,0
26000,-2949120,125,-56,-1,-1,0
26033,-2686976,125,-56,-1,-1,0
26066,-1900544,125,-56,-1,-1,0
26099,-2228224,125,-56,-1,-1,0
26133,-2555904,125,-56,-1,-1,0
26166,9437184,125,-56,-1,-1,0
26200,-2555904,125,-56,-1,-1,0
26233,-3670016,125,-56,-1,-1,0
26266,-2883584,125,-56,-1,-1,0
26300,-1310720,125,-56,-1,-1,0
26333,-983040,125,-56,-1,-1,0
26366,-1769472,125,-56,-1,-1,0
26400,-1638400,125,-56,-1,-1,0
26433,-851968,125,-56,-1,-1,0
26466,-1048576,125,-56,-1,-1,0
26500,-983040,125,-56,-1,-1,0
26533,-1310720,125,-56,-1,-1,0
26566,11730944,125,-56,-1,-1,0
26599,-1638400,125,-56,-1,-1,0
26633,-1835008,125,-56,-1,-1,0
26666,-1048576,125,-56,-1,-1,0
26700,393216,125,-56,-1,-1,0
26733,-262144,125,-56,-1,-1,0
26766,-917504,126,-56,-1,-1,0
26800,-655360,126,-56,-1,-1,0
26833,-589824,126,-56,-1,-1,0
26866,-524288,126,-56,-1,-1,0
26900,-589824,126,-56,-1,-1,0
26933,-1441792,126,-56,-1,-1,0
26966,17039360,126,-56,-1,-1,0
27000,-1376256,126,-56,-1,-1,0
27033,-458752,126,-56,-1,-1,0
27066,-393216,126,-56,-1,-1,0
27099,917504,126,-56,-1,-1,0
27133,458752,126,-56,-1,-1,0
27166,131072,126,-56,-1,-1,0
27200,-196608,126,-56,-1,-1,0
27233,-458752,126,-56,-1,-1,0
27266,-983040,126,-56,-1,-1,0
27300,-1441792,126,-56,-1,-1,0
27333,-1900544,126,-56,-1,-1,0
27366,16252928,126,-56,-1,-1,0
27400,-1507328,126,-56,-1,-1,0
27433,-1507328,126,-56,-1,-1,0
27466,-458752,126,-56,-1,-1,0
27500,327680,126,-56,-1,-1,0
27533,917504,126,-56,-1,-1,0
27566,851968,126,-56,-1,-1,0
27599,131072,126,-56,-1,-1,0
27633,327680,126,-56,-1,-1,0
27666,393216,126,-56,-1,-1,0
27700,196608,126,-56,-1,-1,0
27733,-393216,126,-56,-1,-1,0
27766,13828096,126,-56,-1,-1,0
27800,-524288,126,-56,-1,-1,0
27833,-983040,126,-56,-1,-1,0
27866,-393216,126,-56,-1,-1,0
27900,720896,126,-56,-1,-1,0
27933,-327680,126,-56,-1,-1,0
27966,-524288,126,-56,-1,-1,0
28000,-917504,126,-56,-1,-1,0
28033,-131072,126,-56,-1,-1,0
28066,-655360,126,-56,-1,-1,0
28099,-393216,126,-56,-1,-1,0
28133,-983040,126,-56,-1,-1,0
28166,11468800,126,-56,-1,-1,0
28200,-2097152,126,-56,-1,-1,0
28233,-393216,126,-56,-1,-1,0
28266,-1703936,126,-56,-1,-1,0
28300,131072,126,-56,-1,-1,0
28333,-327680,126,-56,-1,-1,0
28366,-1245184,126,-56,-1,-1,0
28400,-524288,126,-56,-1,-1,0
28433,-655360,126,-56,-1,-1,0
28466,-393216,126,-56,-1,-1,0
28500,-983040,126,-56,-1,-1,0
28533,-2031616,126,-56,-1,-1,0
28566,17891328,126,-56,-1,-1,0
28599,-2162688,126,-56,-1,-1,0
28633,-2752512,126,-56,-1,-1,0
28666,-2162688,126,-56,-1,-1,0
28700,-1638400,126,-56,-1,-1,0
28733,-2359296,126,-56,-1,-1,0
28766,-2293760,126,-56,-1,-1,0
28800,-2359296,126,-56,-1,-1,0
28833,-2293760,126,-56,-1,-1,0
28866,-2490368,126,-56,-1,-1,0
28900,-2555904,126,-56,-1,-1,0
28933,-3211264,126,-56,-1,-1,0
28966,16711680,126,-56,-1,-1,0
29000,-2883584,126,-56,-1,-1,0
29033,-3014656,126,-56,-1,-1,0
29066,-2359296,126,-56,-1,-1,0
29099,-1179648,126,-56,-1,-1,0
29133,-1179648,125,-56,-1,-1,0
29166,-1179648,125,-56,-1,-1,0
29200,-1245184,125,-56,-1,-1,0
29233,-655360,125,-56,-1,-1,0
29266,-720896,125,-56,-1,-1,0
29300,-1048576,125,-56,-1,-1,0
29333,-1048576,125,-56,-1,-1,0
29366,15400960,125,-56,-1,-1,0
29400,-1179648,125,-56,-1,-1,0
29433,-1441792,125,-56,-1,-1,0
29466,-786432,125,-56,-1,-1,0
29500,917504,125,-56,-1,-1,0
29533,851968,125,-56,-1,-1,0
29566,196608,126,-56,-1,-1,0
29599,458752,126,-56,-1,-1,0
29633,393216,126,-56,-1,-1,0
29666,2097152,126,-56,-1,-1,0
29700,720896,126,-56,-1,-1,0
29733,262144,126,-56,-1,-1,0
29766,15007744,126,-56,-1,-1,0
29800,0,126,-56,-1,-1,0
29833,0,126,-56,-1,-1,0
29866,327680,126,-56,-1,-1,0
29900,1638400,126,-56,-1,-1,0
29933,720896,126,-56,-1,-1,0
29966,0,126,-56,-1,-1,0
30000,-65536,126,-56,-1,-1,0
30033,262144,126,-56,-1,-1,0
30066,327680,126,-56,-1,-1,0
30099,-327680,126,-56,-1,-1,0
30133,-1114112,126,-56,-1,-1,0
30166,14548992,126,-56,-1,-1,0
30200,-1835008,126,-56,-1,-1,0
30233,-720896,126,-56,-1,-1,0
30266,-851968,126,-56,-1,-1,0
30300,196608,126,-56,-1,-1,0
30333,-1310720,126,-56,-1,-1,0
30366,-1310720,126,-56,-1,-1,0
30400,-655360,126,-56,-1,-1,0
30433,-589824,126,-56,-1,-1,0
30466,-262144,126,-56,-1,-1,0
30500,-1507328,126,-56,-1,-1,0
30533,-2686976,126,-56,-1,-1,0
30566,16515072,126,-56,-1,-1,0
30599,-2818048,126,-56,-1,-1,0
30633,-2359296,126,-56,-1,-1,0
30666,-1638400,126,-56,-1,-1,0
30700,-393216,126,-56,-1,-1,0
30733,-851968,126,-56,-1,-1,0
30766,-655360,126,-56,-1,-1,0
30800,-786432,126,-56,-1,-1,0
30833,-655360,126,-56,-1,-1,0
30866,-589824,126,-56,-1,-1,0
30900,-1114112,126,-56,-1,-1,0
30933,-1572864,126,-56,-1,-1,0
30966,19070976,126,-56,-1,-1,0
31000,-1179648,126,-56,-1,-1,0
31033,-1441792,126,-56,-1,-1,0
31066,-524288,126,-56,-1,-1,0
31099,1179648,126,-56,-1,-1,0
31133,524288,126,-56,-1,-1,0
31166,-393216,126,-56,-1,-1,0
31200,-1048576,126,-56,-1,-1,0
31233,262144,126,-56,-1,-1,0
31266,65536,126,-56,-1,-1,0
31300,-786432,126,-56,-1,-1,0
31333,-720896,126,-56,-1,-1,0
31366,10944512,126,-56,-1,-1,0
31400,-786432,126,-56,-1,-1,0
31433,-524288,126,-56,-1,-1,0
31466,0,126,-56,-1,-1,0
31500,917504,126,-56,-1,-1,0
31533,196608,126,-56,-1,-1,0
31566,-589824,126,-56,-1,-1,0
31599,-524288,126,-56,-1,-1,0
31633,-589824,126,-56,-1,-1,0
31666,-720896,126,-56,-1,-1,0
31700,-1835008,126,-56,-1,-1,0
31733,-2621440,126,-56,-1,-1,0
31766,15990784,126,-56,-1,-1,0
31800,-1966080,126,-56,-1,-1,0
31833,-1835008,126,-56,-1,-1,0
31866,-1638400,126,-56,-1,-1,0
31900,-262144,126,-56,-1,-1,0
31933,-1376256,126,-56,-1,-1,0
31966,-2621440,126,-56,-1,-1,0
32000,-2424832,126,-56,-1,-1,0
32033,-1703936,126,-56,-1,-1,0
32066,-2031616,126,-56,-1,-1,0
32100,-2490368,126,-56,-1,-1,0
32133,-3276800,126,-56,-1,-1,0
32166,16449536,126,-56,-1,-1,0
32200,-2686976,126,-56,-1,-1,0
32233,-2621440,126,-56,-1,-1,0
32266,-2228224,126,-56,-1,-1,0
32299,-65536,126,-56,-1,-1,0
32333,-1048576,126,-56,-1,-1,0
32366,-1048576,126,-56,-1,-1,0
32400,-851968,126,-56,-1,-1,0
32433,-1114112,126,-56,-1,-1,0
32466,-393216,126,-56,-1,-1,0
32500,-786432,126,-56,-1,-1,0
32533,-1572864,126,-56,-1,-1,0
32566,17563648,126,-56,-1,-1,0
32600,-1572864,126,-56,-1,-1,0
32633,-2031616,126,-56,-1,-1,0
32666,-458752,126,-56,-1,-1,0
32700,655360,126,-56,-1,-1,0
32733,327680,126,-56,-1,-1,0
32766,-655360,126,-56,-1,-1,0
32800,-851968,126,-56,-1,-1,0
32833,196608,126,-56,-1,-1,0
32866,-458752,126,-56,-1,-1,0
32900,-589824,126,-56,-1,-1,0
32933,-1835008,126,-56,-1,-1,0
32966,13303808,126,-56,-1,-1,0
33000,-2162688,126,-56,-1,-1,0
33033,-1835008,126,-56,-1,-1,0
33066,-1310720,126,-56,-1,-1,0
33100,524288,126,-56,-1,-1,0
33133,-458752,126,-56,-1,-1,0
33166,-917504,126,-56,-1,-1,0
33200,-983040,126,-56,-1,-1,0
33233,-851968,126,-56,-1,-1,0
33266,-1048576,126,-56,-1,-1,0
33300,-1507328,126,-56,-1,-1,0
33333,-2818048,126,-56,-1,-1,0
33366,9371648,126,-56,-1,-1,0
33400,-2686976,126,-56,-1,-1,0
33433,-2359296,126,-56,-1,-1,0
33466,-1703936,126,-56,-1,-1,0
33500,-524288,126,-56,-1,-1,0
33533,-1507328,126,-56,-1,-1,0
33566,-2883584,126,-56,-1,-1,0
33600,-1835008,126,-56,-1,-1,0
33633,-2621440,126,-56,-1,-1,0
33666,-2818048,126,-56,-1,-1,0
33700,-3211264,126,-56,-1,-1,0
33733,-3932160,126,-56,-1,-1,0
33766,10092544,126,-56,-1,-1,0
33800,-4456448,126,-56,-1,-1,0
33833,-3604480,126,-56,-1,-1,0
33866,-3211264,126,-56,-1,-1,0
33900,-1900544,126,-56,-1,-1,0
33933,-2162688,126,-56,-1,-1,0
33966,-2490368,126,-56,-1,-1,0
34000,-1638400,126,-56,-1,-1,0
34033,-1835008,126,-56,-1,-1,0
34066,-589824,126,-56,-1,-1,0
34100,-1572864,126,-56,-1,-1,0
34133,-2424832,126,-56,-1,-1,0
34166,15794176,126,-56,-1,-1,0
34200,-1966080,126,-56,-1,-1,0
34233,-1703936,126,-56,-1,-1,0
34266,-786432,126,-56,-1,-1,0
34300,524288,126,-56,-1,-1,0
34333,-589824,126,-56,-1,-1,0
34366,-1114112,126,-56,-1,-1,0
34400,-1245184,126,-56,-1,-1,0
34433,-1376256,126,-56,-1,-1,0
34466,-524288,126,-56,-1,-1,0
34500,-720896,126,-56,-1,-1,0
34533,-458752,126,-56,-1,-1,0
34566,6029312,126,-56,-1,-1,0
34600,-1835008,126,-56,-1,-1,0
34633,-65536,126,-56,-1,-1,0
34666,1114112,126,-56,-1,-1,0
34700,2097152,126,-56,-1,-1,0
34733,1245184,126,-56,-1,-1,0
34766,1245184,126,-56,-1,-1,0
34800,2162688,126,-56,-1,-1,0
34833,2031616,126,-56,-1,-1,0
34866,2162688,126,-56,-1,-1,0
34900,1441792,126,-56,-1,-1,0
34933,6815744,126,-56,-1,-1,0
34966,3276800,126,-56,-1,-1,0
35000,1179648,126,-56,-1,-1,0
35033,851968,126,-56,-1,-1,0
35066,1638400,126,-56,-1,-1,0
35100,1114112,126,-56,-1,-1,0
35133,655360,126,-56,-1,-1,0
35166,-131072,126,-56,-1,-1,0
35200,655360,126,-56,-1,-1,0
35233,65536,126,-56,-1,-1,0
35266,0,126,-56,-1,-1,0
35300,-393216,126,-56,-1,-1,0
35333,3997696,126,-56,-1,-1,0
35366,262144,126,-56,-1,-1,0
35400,-1507328,126,-56,-1,-1,0
35433,-2490368,126,-56,-1,-1,0
35466,-1441792,126,-56,-1,-1,0
35500,-1638400,126,-56,-1,-1,0
35533,-2031616,126,-56,-1,-1,0
35566,-2228224,126,-56,-1,-1,0
35600,-2097152,126,-56,-1,-1,0
35633,-2621440,126,-56,-1,-1,0
35666,-2686976,126,-56,-1,-1,0
35700,-3670016,126,-56,-1,-1,0
35733,-1310720,126,-56,-1,-1,0
35766,1572864,126,-56,-1,-1,0
35800,-3801088,126,-56,-1,-1,0
35833,-2949120,126,-56,-1,-1,0
35866,-1572864,126,-56,-1,-1,0
35900,-196608,126,-56,-1,-1,0
35933,-327680,126,-56,-1,-1,0
35966,262144,126,-56,-1,-1,0
36000,131072,126,-56,-1,-1,0
36033,-327680,126,-56,-1,-1,0
36066,262144,126,-56,-1,-1,0
36100,-131072,126,-56,-1,-1,0
36133,2686976,126,-56,-1,-1,0
36166,2359296,126,-56,-1,-1,0
36200,-786432,126,-56,-1,-1,0
36233,-786432,126,-56,-1,-1,0
36266,65536,126,-56,-1,-1,0
36300,524288,126,-56,-1,-1,0
36333,-1179648,126,-56,-1,-1,0
36366,-2228224,126,-56,-1,-1,0
36400,-983040,126,-56,-1,-1,0
36433,-131072,126,-56,-1,-1,0
36466,-524288,126,-56,-1,-1,0
36500,-851968,126,-56,-1,-1,0
36533,10092544,126,-56,-1,-1,0
36566,-262144,126,-56,-1,-1,0
36600,-917504,126,-56,-1,-1,0
36633,196608,126,-56,-1,-1,0
36666,1638400,126,-56,-1,-1,0
36700,720896,126,-56,-1,-1,0
36733,327680,126,-56,-1,-1,0
36766,524288,126,-56,-1,-1,0
36800,655360,126,-56,-1,-1,0
36833,262144,126,-56,-1,-1,0
36866,0,126,-56,-1,-1,0
36900,-393216,126,-56,-1,-1,0
36933,14680064,126,-56,-1,-1,0
36966,-983040,126,-56,-1,-1,0
37000,-2818048,126,-56,-1,-1,0
37033,-1900544,126,-56,-1,-1,0
37066,-1245184,126,-56,-1,-1,0
37100,-2097152,126,-56,-1,-1,0
37133,-2686976,126,-56,-1,-1,0
37166,-2293760,126,-56,-1,-1,0
37200,-2490368,126,-56,-1,-1,0
37233,-2228224,126,-56,-1,-1,0
37266,-2555904,126,-56,-1,-1,0
37300,-3211264,126,-56,-1,-1,0
37333,15794176,126,-56,-1,-1,0
37366,-2555904,126,-56,-1,-1,0
37400,-3145728,126,-56,-1,-1,0
37433,-1900544,126,-56,-1,-1,0
37466,-1703936,126,-56,-1,-1,0
37500,-1048576,126,-56,-1,-1,0
37533,-1441792,126,-56,-1,-1,0
37566,-458752,126,-56,-1,-1,0
37600,327680,126,-56,-1,-1,0
37633,65536,126,-56,-1,-1,0
37666,-524288,126,-56,-1,-1,0
37700,-720896,126,-56,-1,-1,0
37733,20316160,126,-56,-1,-1,0
37766,-983040,126,-56,-1,-1,0
37800,-655360,126,-56,-1,-1,0
37833,655360,126,-56,-1,-1,0
37866,2490368,126,-56,-1,-1,0
37900,2555904,126,-56,-1,-1,0
37933,1572864,126,-56,-1,-1,0
37966,1310720,126,-56,-1,-1,0
38000,720896,126,-56,-1,-1,0
38033,458752,126,-56,-1,-1,0
38066,-262144,126,-56,-1,-1,0
38100,-458752,126,-56,-1,-1,0
38133,1114112,126,-56,-1,-1,0
38166,-3866624,126,-56,-1,-1,0
38200,-2818048,126,-56,-1,-1,0
38233,-1900544,126,-56,-1,-1,0
38266,-917504,126,-56,-1,-1,0
38300,-1310720,126,-56,-1,-1,0
38333,-1114112,126,-56,-1,-1,0
38366,524288,126,-56,-1,-1,0
38400,-65536,126,-56,-1,-1,0
38433,720896,126,-56,-1,-1,0
38466,-851968,126,-56,-1,-1,0
38500,10813440,126,-56,-1,-1,0
38533,-262144,126,-56,-1,-1,0
38566,-1245184,126,-56,-1,-1,0
38600,-327680,126,-56,-1,-1,0
38633,-196608,126,-56,-1,-1,0
38666,196608,126,-56,-1,-1,0
38700,-524288,126,-56,-1,-1,0
38733,-2293760,126,-56,-1,-1,0
38766,-1441792,126,-56,-1,-1,0
38800,-1376256,126,-56,-1,-1,0
38833,-1966080,126,-56,-1,-1,0
38866,-2490368,126,-56,-1,-1,0
38900,16515072,126,-56,-1,-1,0
38933,-3145728,126,-56,-1,-1,0
38966,-3538944,126,-56,-1,-1,0
39000,-2818048,126,-56,-1,-1,0
39033,-1835008,126,-56,-1,-1,0
39066,-1900544,126,-56,-1,-1,0
39100,-1966080,126,-56,-1,-1,0
39133,-1507328,126,-56,-1,-1,0
39166,-1114112,126,-56,-1,-1,0
39200,-1441792,126,-56,-1,-1,0
39233,-1441792,126,-56,-1,-1,0
39266,-2228224,126,-56,-1,-1,0
39300,17891328,126,-56,-1,-1,0
39333,-2818048,126,-56,-1,-1,0
39366,-3276800,126,-56,-1,-1,0
39400,-2031616,126,-56,-1,-1,0
39433,65536,126,-56,-1,-1,0
39466,196608,126,-56,-1,-1,0
39500,-589824,126,-56,-1,-1,0
39533,65536,126,-56,-1,-1,0
39566,393216,126,-56,-1,-1,0
39600,-65536,126,-56,-1,-1,0
39633,-262144,126,-56,-1,-1,0
39666,2686976,126,-56,-1,-1,0
39700,1048576,126,-56,-1,-1,0
39733,-458752,126,-56,-1,-1,0
39766,-851968,126,-56,-1,-1,0
39800,786432,126,-56,-1,-1,0
39833,1835008,127,-56,-1,-1,0
39866,-393216,127,-56,-1,-1,0
39900,-851968,127,-56,-1,-1,0
39933,-917504,127,-56,-1,-1,0
39966,-983040,127,-56,-1,-1,0
40000,-1835008,127,-56,-1,-1,0
40033,-3211264,127,-56,-1,-1,0
40066,9502720,127,-56,-1,-1,0
40100,-3211264,127,-56,-1,-1,0
40133,-2818048,127,-56,-1,-1,0
40166,-1376256,127,-56,-1,-1,0
40200,-524288,127,-56,-1,-1,0
40233,-1376256,127,-56,-1,-1,0
40266,-1900544,127,-56,-1,-1,0
40300,-786432,127,-56,-1,-1,0
40333,-524288,127,-56,-1,-1,0
40366,-65536,127,-56,-1,-1,0
40400,-2097152,127,-56,-1,-1,0
40433,3407872,127,-56,-1,-1,0
40466,1835008,127,-56,-1,-1,0
40500,-2228224,127,-56,-1,-1,0
40533,-1245184,127,-56,-1,-1,0
40566,-1179648,127,-56,-1,-1,0
40600,-589824,127,-56,-1,-1,0
40633,-1638400,127,-56,-1,-1,0
40666,-1179648,127,-56,-1,-1,0
40700,-1769472,127,-56,-1,-1,0
40733,-1966080,127,-56,-1,-1,0
40766,-2162688,127,-56,-1,-1,0
40800,-2293760,127,-56,-1,-1,0
40833,15597568,127,-56,-1,-1,0
40866,-2359296,127,-56,-1,-1,0
40900,-2752512,127,-56,-1,-1,0
40933,-2228224,127,-56,-1,-1,0
40966,-1179648,127,-56,-1,-1,0
41000,-720896,127,-56,-1,-1,0
41033,-983040,127,-56,-1,-1,0
41066,-1114112,127,-56,-1,-1,0
41100,-1703936,127,-56,-1,-1,0
41133,-524288,127,-56,-1,-1,0
41166,-2883584,127,-56,-1,-1,0
41200,-851968,127,-56,-1,-1,0
41233,1572864,127,-56,-1,-1,0
41266,-2490368,127,-56,-1,-1,0
41300,-1966080,127,-56,-1,-1,0
41333,-851968,127,-56,-1,-1,0
41366,0,127,-56,-1,-1,0
41400,-327680,127,-56,-1,-1,0
41433,-983040,127,-56,-1,-1,0
41466,0,127,-56,-1,-1,0
41500,393216,127,-56,-1,-1,0
41533,0,127,-56,-1,-1,0
41566,-196608,127,-56,-1,-1,0
41600,13893632,127,-56,-1,-1,0
41633,-65536,127,-56,-1,-1,0
41666,-196608,127,-56,-1,-1,0
41700,196608,127,-56,-1,-1,0
41733,917504,127,-56,-1,-1,0
