milliseconds, ECG, ECG HR, PPG, PPG HR, SpO2, PI
1523614872395,-655360,120,-56,-1,-1,0
1523614872395,-196608,120,-56,-1,-1,0
1523614872395,-262144,120,-56,-1,-1,0
1523614872395,-786432,120,-56,-1,-1,0
1523614872395,-1114112,120,-56,-1,-1,0
1523614872452,-1179648,120,-56,-1,-1,0
1523614872452,-851968,120,-56,-1,-1,0
1523614872452,-720896,120,-56,-1,-1,0
1523614872452,-1048576,120,-56,-1,-1,0
1523614872452,-1179648,120,-56,-1,-1,0
1523614872475,917504,120,-56,-1,-1,0
1523614872475,6225920,120,-56,-1,-1,0
1523614872475,9764864,120,-56,-1,-1,0
1523614872475,6029312,120,-56,-1,-1,0
1523614872475,65536,120,-56,-1,-1,0
1523614872515,-1441792,120,-56,-1,-1,0
1523614872515,-720896,120,-56,-1,-1,0
1523614872515,-262144,120,-56,-1,-1,0
1523614872515,-393216,120,-56,-1,-1,0
1523614872515,-589824,120,-56,-1,-1,0
1523614872555,-720896,120,-56,-1,-1,0
1523614872555,-458752,120,-56,-1,-1,0
1523614872555,-393216,120,-56,-1,-1,0
1523614872555,-262144,120,-56,-1,-1,0
1523614872555,-131072,120,-56,-1,-1,0
1523614872595,0,120,-56,-1,-1,0
1523614872595,-65536,120,-56,-1,-1,0
1523614872595,-131072,120,-56,-1,-1,0
1523614872595,-196608,120,-56,-1,-1,0
1523614872595,0,120,-56,-1,-1,0
1523614872635,393216,120,-56,-1,-1,0
1523614872635,786432,120,-56,-1,-1,0
1523614872635,851968,120,-56,-1,-1,0
1523614872635,655360,120,-56,-1,-1,0
1523614872635,524288,120,-56,-1,-1,0
1523614872675,327680,120,-56,-1,-1,0
1523614872675,-65536,120,-56,-1,-1,0
1523614872675,-393216,120,-56,-1,-1,0
1523614872675,-393216,120,-56,-1,-1,0
1523614872675,-393216,120,-56,-1,-1,0
1523614872715,-524288,120,-56,-1,-1,0
1523614872715,-589824,120,-56,-1,-1,0
1523614872715,-655360,120,-56,-1,-1,0
1523614872715,-786432,120,-56,-1,-1,0
1523614872715,-851968,120,-56,-1,-1,0
1523614872755,-720896,120,-56,-1,-1,0
1523614872755,-655360,120,-56,-1,-1,0
1523614872755,-786432,120,-56,-1,-1,0
1523614872755,-917504,120,-56,-1,-1,0
1523614872755,-786432,120,-56,-1,-1,0
1523614872797,-524288,120,-56,-1,-1,0
1523614872797,-393216,120,-56,-1,-1,0
1523614872797,-524288,120,-56,-1,-1,0
1523614872797,-589824,120,-56,-1,-1,0
1523614872797,-589824,120,-56,-1,-1,0
1523614872835,-655360,120,-56,-1,-1,0
1523614872835,-655360,120,-56,-1,-1,0
1523614872835,-655360,120,-56,-1,-1,0
1523614872835,-655360,120,-56,-1,-1,0
1523614872835,-786432,120,-56,-1,-1,0
1523614872875,-720896,120,-56,-1,-1,0
1523614872875,-786432,120,-56,-1,-1,0
1523614872875,-983040,120,-56,-1,-1,0
1523614872875,-1114112,120,-56,-1,-1,0
1523614872875,-917504,120,-56,-1,-1,0
1523614872915,-786432,120,-56,-1,-1,0
1523614872915,-851968,120,-56,-1,-1,0
1523614872915,-1048576,120,-56,-1,-1,0
1523614872915,-1114112,120,-56,-1,-1,0
1523614872915,-1114112,120,-56,-1,-1,0
1523614872955,-1114112,120,-56,-1,-1,0
1523614872955,-983040,120,-56,-1,-1,0
1523614872955,-917504,120,-56,-1,-1,0
1523614872955,-1114112,120,-56,-1,-1,0
1523614872955,-1376256,120,-56,-1,-1,0
1523614872995,0,120,-56,-1,-1,0
1523614872995,4849664,120,-56,-1,-1,0
1523614872995,9568256,120,-56,-1,-1,0
1523614872995,7340032,120,-56,-1,-1,0
1523614872995,1638400,120,-56,-1,-1,0
1523614873035,-1048576,120,-56,-1,-1,0
1523614873035,-851968,120,-56,-1,-1,0
1523614873035,-720896,120,-56,-1,-1,0
1523614873035,-983040,120,-56,-1,-1,0
1523614873035,-983040,120,-56,-1,-1,0
1523614873084,-851968,120,-56,-1,-1,0
1523614873084,-655360,120,-56,-1,-1,0
1523614873084,-720896,120,-56,-1,-1,0
1523614873084,-720896,120,-56,-1,-1,0
1523614873084,-786432,120,-56,-1,-1,0
1523614873115,-655360,120,-56,-1,-1,0
1523614873115,-655360,120,-56,-1,-1,0
1523614873115,-720896,120,-56,-1,-1,0
1523614873115,-786432,120,-56,-1,-1,0
1523614873115,-589824,120,-56,-1,-1,0
1523614873155,-327680,120,-56,-1,-1,0
1523614873155,-65536,120,-56,-1,-1,0
1523614873155,0,120,-56,-1,-1,0
1523614873155,65536,120,-56,-1,-1,0
1523614873155,0,120,-56,-1,-1,0
1523614873195,0,120,-56,-1,-1,0
1523614873195,-131072,120,-56,-1,-1,0
1523614873195,-262144,120,-56,-1,-1,0
1523614873195,-393216,120,-56,-1,-1,0
1523614873195,-524288,120,-56,-1,-1,0
1523614873235,-589824,120,-56,-1,-1,0
1523614873235,-786432,120,-56,-1,-1,0
1523614873235,-851968,120,-56,-1,-1,0
1523614873235,-917504,120,-56,-1,-1,0
1523614873235,-851968,120,-56,-1,-1,0
1523614873275,-983040,120,-56,-1,-1,0
1523614873275,-1048576,120,-56,-1,-1,0
1523614873275,-983040,120,-56,-1,-1,0
1523614873275,-786432,120,-56,-1,-1,0
1523614873275,-786432,120,-56,-1,-1,0
1523614873315,-720896,119,-56,-1,-1,0
1523614873315,-720896,119,-56,-1,-1,0
1523614873315,-655360,119,-56,-1,-1,0
1523614873315,-655360,119,-56,-1,-1,0
1523614873315,-589824,119,-56,-1,-1,0
1523614873355,-524288,119,-56,-1,-1,0
1523614873355,-524288,119,-56,-1,-1,0
1523614873355,-524288,119,-56,-1,-1,0
1523614873355,-524288,119,-56,-1,-1,0
1523614873355,-524288,119,-56,-1,-1,0
1523614873395,-589824,119,-56,-1,-1,0
1523614873395,-655360,119,-56,-1,-1,0
1523614873395,-720896,119,-56,-1,-1,0
1523614873395,-655360,119,-56,-1,-1,0
1523614873395,-393216,119,-56,-1,-1,0
1523614873435,-262144,119,-56,-1,-1,0
1523614873435,-393216,119,-56,-1,-1,0
1523614873435,-524288,119,-56,-1,-1,0
1523614873435,-524288,119,-56,-1,-1,0
1523614873435,-524288,119,-56,-1,-1,0
1523614873475,-589824,119,-56,-1,-1,0
1523614873475,-524288,119,-56,-1,-1,0
1523614873475,-655360,119,-56,-1,-1,0
1523614873475,-851968,119,-56,-1,-1,0
1523614873475,0,119,-56,-1,-1,0
1523614873515,4259840,119,-56,-1,-1,0
1523614873515,8847360,119,-56,-1,-1,0
1523614873515,7143424,119,-56,-1,-1,0
1523614873515,1703936,119,-56,-1,-1,0
1523614873515,-1114112,119,-56,-1,-1,0
1523614873555,-655360,119,-56,-1,-1,0
1523614873555,-327680,119,-56,-1,-1,0
1523614873555,-458752,119,-56,-1,-1,0
1523614873555,-458752,119,-56,-1,-1,0
1523614873555,-393216,119,-56,-1,-1,0
1523614873595,-327680,119,-56,-1,-1,0
1523614873595,-327680,119,-56,-1,-1,0
1523614873595,-196608,119,-56,-1,-1,0
1523614873595,-196608,119,-56,-1,-1,0
1523614873595,-131072,119,-56,-1,-1,0
1523614873635,-131072,119,-56,-1,-1,0
1523614873635,0,119,-56,-1,-1,0
1523614873635,65536,119,-56,-1,-1,0
1523614873635,327680,119,-56,-1,-1,0
1523614873635,524288,119,-56,-1,-1,0
1523614873675,655360,119,-56,-1,-1,0
1523614873675,851968,119,-56,-1,-1,0
1523614873675,917504,119,-56,-1,-1,0
1523614873675,1048576,119,-56,-1,-1,0
1523614873675,1048576,119,-56,-1,-1,0
1523614873724,917504,119,-56,-1,-1,0
1523614873724,589824,119,-56,-1,-1,0
1523614873724,327680,119,-56,-1,-1,0
1523614873724,0,119,-56,-1,-1,0
1523614873724,-131072,119,-56,-1,-1,0
1523614873755,-262144,119,-56,-1,-1,0
1523614873755,-458752,119,-56,-1,-1,0
1523614873755,-655360,119,-56,-1,-1,0
1523614873755,-720896,119,-56,-1,-1,0
1523614873755,-851968,119,-56,-1,-1,0
1523614873795,-851968,119,-56,-1,-1,0
1523614873795,-917504,119,-56,-1,-1,0
1523614873795,-851968,119,-56,-1,-1,0
1523614873795,-786432,119,-56,-1,-1,0
1523614873795,-655360,119,-56,-1,-1,0
1523614873835,-589824,119,-56,-1,-1,0
1523614873835,-458752,119,-56,-1,-1,0
1523614873835,-458752,119,-56,-1,-1,0
1523614873835,-458752,119,-56,-1,-1,0
1523614873835,-393216,119,-56,-1,-1,0
1523614873875,-327680,119,-56,-1,-1,0
1523614873875,-327680,119,-56,-1,-1,0
1523614873875,-393216,119,-56,-1,-1,0
1523614873875,-393216,119,-56,-1,-1,0
1523614873875,-458752,119,-56,-1,-1,0
1523614873915,-524288,119,-56,-1,-1,0
1523614873915,-655360,119,-56,-1,-1,0
1523614873915,-655360,119,-56,-1,-1,0
1523614873915,-589824,119,-56,-1,-1,0
1523614873915,-524288,119,-56,-1,-1,0
1523614873955,-589824,119,-56,-1,-1,0
1523614873955,-720896,119,-56,-1,-1,0
1523614873955,-655360,119,-56,-1,-1,0
1523614873955,-655360,119,-56,-1,-1,0
1523614873955,-655360,119,-56,-1,-1,0
1523614873995,-720896,119,-56,-1,-1,0
1523614873995,-917504,119,-56,-1,-1,0
1523614873995,-983040,119,-56,-1,-1,0
1523614873995,851968,119,-56,-1,-1,0
1523614873995,5505024,119,-56,-1,-1,0
1523614874035,8257536,119,-56,-1,-1,0
1523614874035,4784128,119,-56,-1,-1,0
1523614874035,0,119,-56,-1,-1,0
1523614874035,-1048576,119,-56,-1,-1,0
1523614874035,-655360,119,-56,-1,-1,0
1523614874075,-524288,119,-56,-1,-1,0
1523614874075,-524288,119,-56,-1,-1,0
1523614874075,-458752,119,-56,-1,-1,0
1523614874075,-458752,119,-56,-1,-1,0
1523614874075,-393216,119,-56,-1,-1,0
1523614874115,-458752,119,-56,-1,-1,0
1523614874115,-393216,119,-56,-1,-1,0
1523614874115,-327680,119,-56,-1,-1,0
1523614874115,-196608,119,-56,-1,-1,0
1523614874115,-131072,119,-56,-1,-1,0
1523614874155,0,119,-56,-1,-1,0
1523614874155,0,119,-56,-1,-1,0
1523614874155,196608,119,-56,-1,-1,0
1523614874155,327680,119,-56,-1,-1,0
1523614874155,524288,119,-56,-1,-1,0
1523614874195,720896,119,-56,-1,-1,0
1523614874195,851968,119,-56,-1,-1,0
1523614874195,851968,119,-56,-1,-1,0
1523614874195,720896,119,-56,-1,-1,0
1523614874195,524288,119,-56,-1,-1,0
1523614874235,262144,119,-56,-1,-1,0
1523614874235,65536,119,-56,-1,-1,0
1523614874235,-131072,119,-56,-1,-1,0
1523614874235,-262144,119,-56,-1,-1,0
1523614874235,-393216,119,-56,-1,-1,0
1523614874275,-524288,119,-56,-1,-1,0
1523614874275,-655360,119,-56,-1,-1,0
1523614874275,-786432,119,-56,-1,-1,0
1523614874275,-851968,119,-56,-1,-1,0
1523614874275,-851968,119,-56,-1,-1,0
1523614874315,-851968,118,-56,-1,-1,0
1523614874315,-786432,118,-56,-1,-1,0
1523614874315,-720896,118,-56,-1,-1,0
1523614874315,-655360,118,-56,-1,-1,0
1523614874315,-589824,118,-56,-1,-1,0
1523614874364,-524288,118,-56,-1,-1,0
1523614874364,-458752,118,-56,-1,-1,0
1523614874364,-327680,118,-56,-1,-1,0
1523614874364,-262144,118,-56,-1,-1,0
1523614874364,-327680,118,-56,-1,-1,0
1523614874395,-393216,118,-56,-1,-1,0
1523614874395,-393216,118,-56,-1,-1,0
1523614874395,-393216,118,-56,-1,-1,0
1523614874395,-458752,118,-56,-1,-1,0
1523614874395,-589824,118,-56,-1,-1,0
1523614874435,-589824,118,-56,-1,-1,0
1523614874435,-589824,118,-56,-1,-1,0
1523614874435,-524288,118,-56,-1,-1,0
1523614874435,-524288,118,-56,-1,-1,0
1523614874435,-589824,118,-56,-1,-1,0
1523614874475,-524288,118,-56,-1,-1,0
1523614874475,-589824,118,-56,-1,-1,0
1523614874475,-655360,118,-56,-1,-1,0
1523614874475,-655360,118,-56,-1,-1,0
1523614874475,-655360,118,-56,-1,-1,0
1523614874515,-983040,118,-56,-1,-1,0
1523614874515,-917504,118,-56,-1,-1,0
1523614874515,1441792,118,-56,-1,-1,0
1523614874515,6684672,118,-56,-1,-1,0
1523614874515,9043968,118,-56,-1,-1,0
1523614874555,4980736,118,-56,-1,-1,0
1523614874555,0,118,-56,-1,-1,0
1523614874555,-983040,118,-56,-1,-1,0
1523614874555,-655360,118,-56,-1,-1,0
1523614874555,-524288,118,-56,-1,-1,0
1523614874595,-524288,118,-56,-1,-1,0
1523614874595,-458752,118,-56,-1,-1,0
1523614874595,-393216,118,-56,-1,-1,0
1523614874595,-393216,118,-56,-1,-1,0
1523614874595,-393216,118,-56,-1,-1,0
1523614874635,-327680,118,-56,-1,-1,0
1523614874635,-262144,118,-56,-1,-1,0
1523614874635,-196608,118,-56,-1,-1,0
1523614874635,-65536,118,-56,-1,-1,0
1523614874635,0,118,-56,-1,-1,0
1523614874675,131072,118,-56,-1,-1,0
1523614874675,262144,118,-56,-1,-1,0
1523614874675,393216,118,-56,-1,-1,0
1523614874675,655360,118,-56,-1,-1,0
1523614874675,851968,118,-56,-1,-1,0
1523614874715,983040,118,-56,-1,-1,0
1523614874715,983040,118,-56,-1,-1,0
1523614874715,983040,118,-56,-1,-1,0
1523614874715,786432,118,-56,-1,-1,0
1523614874715,524288,118,-56,-1,-1,0
1523614874755,262144,118,-56,-1,-1,0
1523614874755,65536,118,-56,-1,-1,0
1523614874755,-65536,118,-56,-1,-1,0
1523614874755,-262144,118,-56,-1,-1,0
1523614874755,-458752,118,-56,-1,-1,0
1523614874795,-524288,118,-56,-1,-1,0
1523614874795,-589824,118,-56,-1,-1,0
1523614874795,-655360,118,-56,-1,-1,0
1523614874795,-720896,118,-56,-1,-1,0
1523614874795,-786432,118,-56,-1,-1,0
1523614874835,-786432,118,-56,-1,-1,0
1523614874835,-720896,118,-56,-1,-1,0
1523614874835,-589824,118,-56,-1,-1,0
1523614874835,-524288,118,-56,-1,-1,0
1523614874835,-393216,118,-56,-1,-1,0
1523614874875,-393216,118,-56,-1,-1,0
1523614874875,-262144,118,-56,-1,-1,0
1523614874875,-262144,118,-56,-1,-1,0
1523614874875,-327680,118,-56,-1,-1,0
1523614874875,-393216,118,-56,-1,-1,0
1523614874915,-393216,118,-56,-1,-1,0
1523614874915,-393216,118,-56,-1,-1,0
1523614874915,-393216,118,-56,-1,-1,0
1523614874915,-589824,118,-56,-1,-1,0
1523614874915,-655360,118,-56,-1,-1,0
1523614874955,-655360,118,-56,-1,-1,0
1523614874955,-655360,118,-56,-1,-1,0
1523614874955,-720896,118,-56,-1,-1,0
1523614874955,-720896,118,-56,-1,-1,0
1523614874955,-720896,118,-56,-1,-1,0
1523614875004,-720896,118,-56,-1,-1,0
1523614875004,-655360,118,-56,-1,-1,0
1523614875004,-655360,118,-56,-1,-1,0
1523614875004,-917504,118,-56,-1,-1,0
1523614875004,-1179648,118,-56,-1,-1,0
1523614875035,-131072,118,-56,-1,-1,0
1523614875035,4259840,118,-56,-1,-1,0
1523614875035,8978432,118,-56,-1,-1,0
1523614875035,7471104,118,-56,-1,-1,0
1523614875035,1966080,118,-56,-1,-1,0
1523614875075,-1114112,118,-56,-1,-1,0
1523614875075,-851968,118,-56,-1,-1,0
1523614875075,-524288,118,-56,-1,-1,0
1523614875075,-655360,118,-56,-1,-1,0
1523614875075,-655360,118,-56,-1,-1,0
1523614875115,-655360,118,-56,-1,-1,0
1523614875115,-589824,118,-56,-1,-1,0
1523614875115,-589824,118,-56,-1,-1,0
1523614875115,-458752,118,-56,-1,-1,0
1523614875115,-458752,118,-56,-1,-1,0
1523614875155,-327680,118,-56,-1,-1,0
1523614875155,-262144,118,-56,-1,-1,0
1523614875155,-131072,118,-56,-1,-1,0
1523614875155,0,118,-56,-1,-1,0
1523614875155,131072,118,-56,-1,-1,0
1523614875195,327680,118,-56,-1,-1,0
1523614875195,458752,118,-56,-1,-1,0
1523614875195,655360,118,-56,-1,-1,0
1523614875195,786432,118,-56,-1,-1,0
1523614875195,917504,118,-56,-1,-1,0
1523614875235,917504,118,-56,-1,-1,0
1523614875235,851968,118,-56,-1,-1,0
1523614875235,720896,118,-56,-1,-1,0
1523614875235,524288,118,-56,-1,-1,0
1523614875235,327680,118,-56,-1,-1,0
1523614875275,65536,118,-56,-1,-1,0
1523614875275,-131072,118,-56,-1,-1,0
1523614875275,-327680,118,-56,-1,-1,0
1523614875275,-458752,118,-56,-1,-1,0
1523614875275,-524288,118,-56,-1,-1,0
1523614875315,-524288,118,-56,-1,-1,0
1523614875315,-589824,118,-56,-1,-1,0
1523614875315,-589824,118,-56,-1,-1,0
1523614875315,-589824,118,-56,-1,-1,0
1523614875315,-589824,118,-56,-1,-1,0
1523614875355,-589824,118,-56,-1,-1,0
1523614875355,-655360,118,-56,-1,-1,0
1523614875355,-589824,118,-56,-1,-1,0
1523614875355,-589824,118,-56,-1,-1,0
1523614875355,-524288,118,-56,-1,-1,0
1523614875395,-458752,118,-56,-1,-1,0
1523614875395,-458752,118,-56,-1,-1,0
1523614875395,-458752,118,-56,-1,-1,0
1523614875395,-458752,118,-56,-1,-1,0
1523614875395,-458752,118,-56,-1,-1,0
1523614875435,-524288,118,-56,-1,-1,0
1523614875435,-589824,118,-56,-1,-1,0
1523614875435,-655360,118,-56,-1,-1,0
1523614875435,-720896,118,-56,-1,-1,0
1523614875435,-720896,118,-56,-1,-1,0
1523614875475,-655360,118,-56,-1,-1,0
1523614875475,-655360,118,-56,-1,-1,0
1523614875475,-589824,118,-56,-1,-1,0
1523614875475,-524288,118,-56,-1,-1,0
1523614875475,-458752,118,-56,-1,-1,0
1523614875515,-458752,118,-56,-1,-1,0
1523614875515,-524288,118,-56,-1,-1,0
1523614875515,-720896,118,-56,-1,-1,0
1523614875515,-917504,118,-56,-1,-1,0
1523614875515,-65536,118,-56,-1,-1,0
1523614875555,3997696,118,-56,-1,-1,0
1523614875555,9240576,118,-56,-1,-1,0
1523614875555,8388608,118,-56,-1,-1,0
1523614875555,2818048,118,-56,-1,-1,0
1523614875555,-786432,118,-56,-1,-1,0
1523614875595,-655360,118,-56,-1,-1,0
1523614875595,-393216,118,-56,-1,-1,0
1523614875595,-458752,118,-56,-1,-1,0
1523614875595,-393216,118,-56,-1,-1,0
1523614875595,-393216,118,-56,-1,-1,0
1523614875644,-327680,118,-56,-1,-1,0
1523614875644,-393216,118,-56,-1,-1,0
1523614875644,-393216,118,-56,-1,-1,0
1523614875644,-327680,118,-56,-1,-1,0
1523614875644,-196608,118,-56,-1,-1,0
1523614875675,-65536,118,-56,-1,-1,0
1523614875675,0,118,-56,-1,-1,0
1523614875675,131072,118,-56,-1,-1,0
1523614875675,262144,118,-56,-1,-1,0
1523614875675,458752,118,-56,-1,-1,0
1523614875715,720896,118,-56,-1,-1,0
1523614875715,917504,118,-56,-1,-1,0
1523614875715,1114112,118,-56,-1,-1,0
1523614875715,1245184,118,-56,-1,-1,0
1523614875715,1245184,118,-56,-1,-1,0
1523614875755,1179648,118,-56,-1,-1,0
1523614875755,917504,118,-56,-1,-1,0
1523614875755,655360,118,-56,-1,-1,0
1523614875755,458752,118,-56,-1,-1,0
1523614875755,196608,118,-56,-1,-1,0
1523614875795,0,118,-56,-1,-1,0
1523614875795,-131072,118,-56,-1,-1,0
1523614875795,-262144,118,-56,-1,-1,0
1523614875795,-393216,118,-56,-1,-1,0
1523614875795,-524288,118,-56,-1,-1,0
1523614875835,-589824,118,-56,-1,-1,0
1523614875835,-720896,118,-56,-1,-1,0
1523614875835,-720896,118,-56,-1,-1,0
1523614875835,-589824,118,-56,-1,-1,0
1523614875835,-524288,118,-56,-1,-1,0
1523614875875,-524288,118,-56,-1,-1,0
1523614875875,-524288,118,-56,-1,-1,0
1523614875875,-458752,118,-56,-1,-1,0
1523614875875,-393216,118,-56,-1,-1,0
1523614875875,-327680,118,-56,-1,-1,0
1523614875915,-262144,118,-56,-1,-1,0
1523614875915,-196608,118,-56,-1,-1,0
1523614875915,-327680,118,-56,-1,-1,0
1523614875915,-458752,118,-56,-1,-1,0
1523614875915,-524288,118,-56,-1,-1,0
1523614875955,-524288,118,-56,-1,-1,0
1523614875955,-524288,118,-56,-1,-1,0
1523614875955,-589824,118,-56,-1,-1,0
1523614875955,-655360,118,-56,-1,-1,0
1523614875955,-589824,118,-56,-1,-1,0
1523614875995,-589824,118,-56,-1,-1,0
1523614875995,-524288,118,-56,-1,-1,0
1523614875995,-524288,118,-56,-1,-1,0
1523614875995,-589824,118,-56,-1,-1,0
1523614875995,-655360,118,-56,-1,-1,0
1523614876035,-655360,118,-56,-1,-1,0
1523614876035,-524288,118,-56,-1,-1,0
1523614876035,-720896,118,-56,-1,-1,0
1523614876035,-917504,118,-56,-1,-1,0
1523614876035,524288,118,-56,-1,-1,0
1523614876076,5111808,118,-56,-1,-1,0
1523614876076,8650752,118,-56,-1,-1,0
1523614876076,5636096,118,-56,-1,-1,0
1523614876076,458752,118,-56,-1,-1,0
1523614876076,-1245184,118,-56,-1,-1,0
1523614876115,-589824,118,-56,-1,-1,0
1523614876115,-327680,118,-56,-1,-1,0
1523614876115,-262144,118,-56,-1,-1,0
1523614876115,-262144,118,-56,-1,-1,0
1523614876115,-327680,118,-56,-1,-1,0
1523614876156,-196608,118,-56,-1,-1,0
1523614876156,-65536,118,-56,-1,-1,0
1523614876156,0,118,-56,-1,-1,0
1523614876156,0,118,-56,-1,-1,0
1523614876156,0,118,-56,-1,-1,0
1523614876195,65536,118,-56,-1,-1,0
1523614876195,262144,118,-56,-1,-1,0
1523614876195,393216,118,-56,-1,-1,0
1523614876195,589824,118,-56,-1,-1,0
1523614876195,851968,118,-56,-1,-1,0
1523614876235,1179648,118,-56,-1,-1,0
1523614876235,1310720,118,-56,-1,-1,0
1523614876235,1507328,118,-56,-1,-1,0
1523614876235,1572864,118,-56,-1,-1,0
1523614876235,1572864,118,-56,-1,-1,0
1523614876284,1507328,118,-56,-1,-1,0
1523614876284,1310720,118,-56,-1,-1,0
1523614876284,983040,118,-56,-1,-1,0
1523614876284,720896,118,-56,-1,-1,0
1523614876284,393216,118,-56,-1,-1,0
1523614876315,0,118,-56,-1,-1,0
1523614876315,-131072,118,-56,-1,-1,0
1523614876315,-327680,118,-56,-1,-1,0
1523614876315,-393216,118,-56,-1,-1,0
1523614876315,-524288,118,-56,-1,-1,0
1523614876355,-655360,118,-56,-1,-1,0
1523614876355,-655360,118,-56,-1,-1,0
1523614876355,-524288,118,-56,-1,-1,0
1523614876355,-524288,118,-56,-1,-1,0
1523614876355,-524288,118,-56,-1,-1,0
1523614876395,-458752,117,-56,-1,-1,0
1523614876395,-327680,117,-56,-1,-1,0
1523614876395,-262144,117,-56,-1,-1,0
1523614876395,-196608,117,-56,-1,-1,0
1523614876395,-131072,117,-56,-1,-1,0
1523614876437,-131072,117,-56,-1,-1,0
1523614876437,-131072,117,-56,-1,-1,0
1523614876437,-196608,117,-56,-1,-1,0
1523614876437,-262144,117,-56,-1,-1,0
1523614876437,-262144,117,-56,-1,-1,0
1523614876475,-262144,117,-56,-1,-1,0
1523614876475,-262144,117,-56,-1,-1,0
1523614876475,-458752,117,-56,-1,-1,0
1523614876475,-589824,117,-56,-1,-1,0
1523614876475,-458752,117,-56,-1,-1,0
1523614876515,-327680,117,-56,-1,-1,0
1523614876515,-458752,117,-56,-1,-1,0
1523614876515,-524288,117,-56,-1,-1,0
1523614876515,-524288,117,-56,-1,-1,0
1523614876515,-393216,117,-56,-1,-1,0
1523614876555,-458752,117,-56,-1,-1,0
1523614876555,-524288,117,-56,-1,-1,0
1523614876555,-720896,117,-56,-1,-1,0
1523614876555,-917504,117,-56,-1,-1,0
1523614876555,0,117,-56,-1,-1,0
1523614876595,3604480,117,-56,-1,-1,0
1523614876595,7733248,117,-56,-1,-1,0
1523614876595,6422528,117,-56,-1,-1,0
1523614876595,1441792,117,-56,-1,-1,0
1523614876595,-1245184,117,-56,-1,-1,0
1523614876636,-720896,117,-56,-1,-1,0
1523614876636,-327680,117,-56,-1,-1,0
1523614876636,-393216,117,-56,-1,-1,0
1523614876636,-393216,117,-56,-1,-1,0
1523614876636,-262144,117,-56,-1,-1,0
1523614876675,-262144,117,-56,-1,-1,0
1523614876675,-393216,117,-56,-1,-1,0
1523614876675,-262144,117,-56,-1,-1,0
1523614876675,-131072,117,-56,-1,-1,0
1523614876675,-65536,117,-56,-1,-1,0
1523614876715,-196608,117,-56,-1,-1,0
1523614876715,-65536,117,-56,-1,-1,0
1523614876715,196608,117,-56,-1,-1,0
1523614876715,458752,117,-56,-1,-1,0
1523614876715,655360,117,-56,-1,-1,0
1523614876755,786432,117,-56,-1,-1,0
1523614876755,1048576,117,-56,-1,-1,0
1523614876755,1376256,117,-56,-1,-1,0
1523614876755,1441792,117,-56,-1,-1,0
1523614876755,1441792,117,-56,-1,-1,0
1523614876795,1507328,117,-56,-1,-1,0
1523614876795,1376256,117,-56,-1,-1,0
1523614876795,1048576,117,-56,-1,-1,0
1523614876795,720896,117,-56,-1,-1,0
1523614876795,327680,117,-56,-1,-1,0
1523614876835,0,117,-56,-1,-1,0
1523614876835,-131072,117,-56,-1,-1,0
1523614876835,-327680,117,-56,-1,-1,0
1523614876835,-589824,117,-56,-1,-1,0
1523614876835,-720896,117,-56,-1,-1,0
1523614876875,-786432,117,-56,-1,-1,0
1523614876875,-786432,117,-56,-1,-1,0
1523614876875,-786432,117,-56,-1,-1,0
1523614876875,-786432,117,-56,-1,-1,0
1523614876875,-786432,117,-56,-1,-1,0
1523614876924,-786432,117,-56,-1,-1,0
1523614876924,-589824,117,-56,-1,-1,0
1523614876924,-458752,117,-56,-1,-1,0
1523614876924,-393216,117,-56,-1,-1,0
1523614876924,-393216,117,-56,-1,-1,0
1523614876956,-327680,117,-56,-1,-1,0
1523614876956,-262144,117,-56,-1,-1,0
1523614876956,-262144,117,-56,-1,-1,0
1523614876956,-196608,117,-56,-1,-1,0
1523614876956,-327680,117,-56,-1,-1,0
1523614876995,-393216,117,-56,-1,-1,0
1523614876995,-393216,117,-56,-1,-1,0
1523614876995,-524288,117,-56,-1,-1,0
1523614876995,-655360,117,-56,-1,-1,0
1523614876995,-720896,117,-56,-1,-1,0
1523614877035,-655360,117,-56,-1,-1,0
1523614877035,-655360,117,-56,-1,-1,0
1523614877035,-589824,117,-56,-1,-1,0
1523614877035,-589824,117,-56,-1,-1,0
1523614877035,-589824,117,-56,-1,-1,0
1523614877075,-589824,117,-56,-1,-1,0
1523614877075,-524288,117,-56,-1,-1,0
1523614877075,-589824,117,-56,-1,-1,0
1523614877075,-851968,117,-56,-1,-1,0
1523614877075,-917504,117,-56,-1,-1,0
1523614877115,786432,117,-56,-1,-1,0
1523614877115,5439488,117,-56,-1,-1,0
1523614877115,8323072,117,-56,-1,-1,0
1523614877115,4980736,117,-56,-1,-1,0
1523614877115,65536,117,-56,-1,-1,0
1523614877155,-1114112,117,-56,-1,-1,0
1523614877155,-655360,117,-56,-1,-1,0
1523614877155,-458752,117,-56,-1,-1,0
1523614877155,-393216,117,-56,-1,-1,0
1523614877155,-393216,117,-56,-1,-1,0
1523614877195,-393216,117,-56,-1,-1,0
1523614877195,-327680,117,-56,-1,-1,0
1523614877195,-262144,117,-56,-1,-1,0
1523614877195,-262144,117,-56,-1,-1,0
1523614877195,-196608,117,-56,-1,-1,0
1523614877235,-196608,117,-56,-1,-1,0
1523614877235,-131072,117,-56,-1,-1,0
1523614877235,0,117,-56,-1,-1,0
1523614877235,131072,117,-56,-1,-1,0
1523614877235,327680,117,-56,-1,-1,0
1523614877275,524288,117,-56,-1,-1,0
1523614877275,786432,117,-56,-1,-1,0
1523614877275,983040,117,-56,-1,-1,0
1523614877275,1179648,117,-56,-1,-1,0
1523614877275,1310720,117,-56,-1,-1,0
1523614877315,1310720,117,-56,-1,-1,0
1523614877315,1245184,117,-56,-1,-1,0
1523614877315,983040,117,-56,-1,-1,0
1523614877315,655360,117,-56,-1,-1,0
1523614877315,327680,117,-56,-1,-1,0
1523614877355,0,117,-56,-1,-1,0
1523614877355,-262144,117,-56,-1,-1,0
1523614877355,-524288,117,-56,-1,-1,0
1523614877355,-655360,117,-56,-1,-1,0
1523614877355,-786432,117,-56,-1,-1,0
1523614877395,-851968,117,-56,-1,-1,0
1523614877395,-1048576,117,-56,-1,-1,0
1523614877395,-1179648,117,-56,-1,-1,0
1523614877395,-1179648,117,-56,-1,-1,0
1523614877395,-1245184,117,-56,-1,-1,0
1523614877435,-1114112,117,-56,-1,-1,0
1523614877435,-983040,117,-56,-1,-1,0
1523614877435,-851968,117,-56,-1,-1,0
1523614877435,-720896,117,-56,-1,-1,0
1523614877435,-655360,117,-56,-1,-1,0
1523614877475,-589824,117,-56,-1,-1,0
1523614877475,-589824,117,-56,-1,-1,0
1523614877475,-589824,117,-56,-1,-1,0
1523614877475,-589824,117,-56,-1,-1,0
1523614877475,-655360,117,-56,-1,-1,0
1523614877515,-655360,117,-56,-1,-1,0
1523614877515,-720896,117,-56,-1,-1,0
1523614877515,-786432,117,-56,-1,-1,0
1523614877515,-786432,117,-56,-1,-1,0
1523614877515,-786432,117,-56,-1,-1,0
1523614877564,-917504,117,-56,-1,-1,0
1523614877564,-917504,117,-56,-1,-1,0
1523614877564,-851968,117,-56,-1,-1,0
1523614877564,-851968,117,-56,-1,-1,0
1523614877564,-851968,117,-56,-1,-1,0
1523614877595,-851968,117,-56,-1,-1,0
1523614877595,-917504,117,-56,-1,-1,0
1523614877595,-917504,117,-56,-1,-1,0
1523614877595,-917504,117,-56,-1,-1,0
1523614877595,-917504,117,-56,-1,-1,0
1523614877635,-1048576,117,-56,-1,-1,0
1523614877635,-1310720,117,-56,-1,-1,0
1523614877635,-327680,117,-56,-1,-1,0
1523614877635,3670016,117,-56,-1,-1,0
1523614877635,8257536,117,-56,-1,-1,0
1523614877675,7077888,117,-56,-1,-1,0
1523614877675,1900544,117,-56,-1,-1,0
1523614877675,-1179648,117,-56,-1,-1,0
1523614877675,-917504,117,-56,-1,-1,0
1523614877675,-589824,117,-56,-1,-1,0
1523614877715,-589824,117,-56,-1,-1,0
1523614877715,-589824,117,-56,-1,-1,0
1523614877715,-589824,117,-56,-1,-1,0
1523614877715,-524288,117,-56,-1,-1,0
1523614877715,-589824,117,-56,-1,-1,0
1523614877756,-458752,117,-56,-1,-1,0
1523614877756,-458752,117,-56,-1,-1,0
1523614877756,-393216,117,-56,-1,-1,0
1523614877756,-327680,117,-56,-1,-1,0
1523614877756,-196608,117,-56,-1,-1,0
1523614877795,-65536,117,-56,-1,-1,0
1523614877795,65536,117,-56,-1,-1,0
1523614877795,262144,117,-56,-1,-1,0
1523614877795,458752,117,-56,-1,-1,0
1523614877795,720896,117,-56,-1,-1,0
1523614877835,983040,117,-56,-1,-1,0
1523614877835,1179648,117,-56,-1,-1,0
1523614877835,1245184,117,-56,-1,-1,0
1523614877835,1179648,117,-56,-1,-1,0
1523614877835,1048576,117,-56,-1,-1,0
1523614877875,851968,117,-56,-1,-1,0
1523614877875,524288,117,-56,-1,-1,0
1523614877875,131072,117,-56,-1,-1,0
1523614877875,-131072,117,-56,-1,-1,0
1523614877875,-393216,117,-56,-1,-1,0
1523614877915,-524288,117,-56,-1,-1,0
1523614877915,-655360,117,-56,-1,-1,0
1523614877915,-720896,117,-56,-1,-1,0
1523614877915,-786432,117,-56,-1,-1,0
1523614877915,-851968,117,-56,-1,-1,0
1523614877955,-917504,117,-56,-1,-1,0
1523614877955,-983040,117,-56,-1,-1,0
1523614877955,-917504,117,-56,-1,-1,0
1523614877955,-786432,117,-56,-1,-1,0
1523614877955,-655360,117,-56,-1,-1,0
1523614877995,-524288,117,-56,-1,-1,0
1523614877995,-458752,117,-56,-1,-1,0
1523614877995,-393216,117,-56,-1,-1,0
1523614877995,-393216,117,-56,-1,-1,0
1523614877995,-327680,117,-56,-1,-1,0
1523614878035,-327680,117,-56,-1,-1,0
1523614878035,-393216,117,-56,-1,-1,0
1523614878035,-393216,117,-56,-1,-1,0
1523614878035,-393216,117,-56,-1,-1,0
1523614878035,-458752,117,-56,-1,-1,0
1523614878075,-458752,116,-56,-1,-1,0
1523614878075,-524288,116,-56,-1,-1,0
1523614878075,-589824,116,-56,-1,-1,0
1523614878075,-720896,116,-56,-1,-1,0
1523614878075,-786432,116,-56,-1,-1,0
1523614878115,-786432,116,-56,-1,-1,0
1523614878115,-720896,116,-56,-1,-1,0
1523614878115,-655360,116,-56,-1,-1,0
1523614878115,-589824,116,-56,-1,-1,0
1523614878115,-589824,116,-56,-1,-1,0
1523614878155,-589824,116,-56,-1,-1,0
1523614878155,-589824,116,-56,-1,-1,0
1523614878155,-655360,116,-56,-1,-1,0
1523614878155,-655360,116,-56,-1,-1,0
1523614878155,-655360,116,-56,-1,-1,0
1523614878205,-720896,116,-56,-1,-1,0
1523614878205,-1048576,116,-56,-1,-1,0
1523614878205,-983040,116,-56,-1,-1,0
1523614878205,1507328,116,-56,-1,-1,0
1523614878205,6881280,116,-56,-1,-1,0
1523614878235,9568256,116,-56,-1,-1,0
1523614878235,5636096,116,-56,-1,-1,0
1523614878235,458752,116,-56,-1,-1,0
1523614878235,-786432,116,-56,-1,-1,0
1523614878235,-458752,116,-56,-1,-1,0
1523614878275,-458752,116,-56,-1,-1,0
1523614878275,-458752,116,-56,-1,-1,0
1523614878275,-393216,116,-56,-1,-1,0
1523614878275,-393216,116,-56,-1,-1,0
1523614878275,-327680,116,-56,-1,-1,0
1523614878315,-327680,116,-56,-1,-1,0
1523614878315,-262144,116,-56,-1,-1,0
1523614878315,-262144,116,-56,-1,-1,0
1523614878315,-131072,116,-56,-1,-1,0
1523614878315,-131072,116,-56,-1,-1,0
1523614878355,0,116,-56,-1,-1,0
1523614878355,131072,116,-56,-1,-1,0
1523614878355,327680,116,-56,-1,-1,0
1523614878355,524288,116,-56,-1,-1,0
1523614878355,720896,116,-56,-1,-1,0
1523614878395,917504,116,-56,-1,-1,0
1523614878395,1114112,116,-56,-1,-1,0
1523614878395,1179648,116,-56,-1,-1,0
1523614878395,1245184,116,-56,-1,-1,0
1523614878395,1245184,116,-56,-1,-1,0
1523614878435,1114112,116,-56,-1,-1,0
1523614878435,917504,116,-56,-1,-1,0
1523614878435,589824,116,-56,-1,-1,0
1523614878435,262144,116,-56,-1,-1,0
1523614878435,0,116,-56,-1,-1,0
1523614878475,-196608,116,-56,-1,-1,0
1523614878475,-393216,116,-56,-1,-1,0
1523614878475,-458752,116,-56,-1,-1,0
1523614878475,-589824,116,-56,-1,-1,0
1523614878475,-589824,116,-56,-1,-1,0
1523614878515,-655360,116,-56,-1,-1,0
1523614878515,-720896,116,-56,-1,-1,0
1523614878515,-720896,116,-56,-1,-1,0
1523614878515,-720896,116,-56,-1,-1,0
1523614878515,-720896,116,-56,-1,-1,0
1523614878555,-655360,116,-56,-1,-1,0
1523614878555,-589824,116,-56,-1,-1,0
1523614878555,-524288,116,-56,-1,-1,0
1523614878555,-524288,116,-56,-1,-1,0
1523614878555,-524288,116,-56,-1,-1,0
1523614878595,-524288,116,-56,-1,-1,0
1523614878595,-524288,116,-56,-1,-1,0
1523614878595,-524288,116,-56,-1,-1,0
1523614878595,-589824,116,-56,-1,-1,0
1523614878595,-589824,116,-56,-1,-1,0
1523614878635,-589824,116,-56,-1,-1,0
1523614878635,-589824,116,-56,-1,-1,0
1523614878635,-589824,116,-56,-1,-1,0
1523614878635,-655360,116,-56,-1,-1,0
1523614878635,-655360,116,-56,-1,-1,0
1523614878675,-720896,116,-56,-1,-1,0
1523614878675,-720896,116,-56,-1,-1,0
1523614878675,-786432,116,-56,-1,-1,0
1523614878675,-851968,116,-56,-1,-1,0
1523614878675,-851968,116,-56,-1,-1,0
1523614878715,-786432,116,-56,-1,-1,0
1523614878715,-720896,116,-56,-1,-1,0
1523614878715,-720896,116,-56,-1,-1,0
1523614878715,-786432,116,-56,-1,-1,0
1523614878715,-851968,116,-56,-1,-1,0
1523614878755,-851968,116,-56,-1,-1,0
1523614878755,-786432,116,-56,-1,-1,0
1523614878755,-786432,116,-56,-1,-1,0
1523614878755,-786432,116,-56,-1,-1,0
1523614878755,-983040,116,-56,-1,-1,0
1523614878795,-1179648,116,-56,-1,-1,0
1523614878795,0,116,-56,-1,-1,0
1523614878795,4718592,116,-56,-1,-1,0
1523614878795,9437184,116,-56,-1,-1,0
1523614878795,7667712,116,-56,-1,-1,0
1523614878844,2097152,116,-56,-1,-1,0
1523614878844,-917504,116,-56,-1,-1,0
1523614878844,-720896,116,-56,-1,-1,0
1523614878844,-524288,116,-56,-1,-1,0
1523614878844,-524288,116,-56,-1,-1,0
1523614878875,-458752,116,-56,-1,-1,0
1523614878875,-458752,116,-56,-1,-1,0
1523614878875,-393216,116,-56,-1,-1,0
1523614878875,-393216,116,-56,-1,-1,0
1523614878875,-327680,116,-56,-1,-1,0
1523614878915,-327680,116,-56,-1,-1,0
1523614878915,-262144,116,-56,-1,-1,0
1523614878915,-262144,116,-56,-1,-1,0
1523614878915,-196608,116,-56,-1,-1,0
1523614878915,-65536,116,-56,-1,-1,0
1523614878955,65536,116,-56,-1,-1,0
1523614878955,262144,116,-56,-1,-1,0
1523614878955,524288,116,-56,-1,-1,0
1523614878955,720896,116,-56,-1,-1,0
1523614878955,983040,116,-56,-1,-1,0
1523614878996,1114112,116,-56,-1,-1,0
1523614878996,1179648,116,-56,-1,-1,0
1523614878996,1179648,116,-56,-1,-1,0
1523614878996,1114112,116,-56,-1,-1,0
1523614878996,983040,116,-56,-1,-1,0
1523614879035,786432,116,-56,-1,-1,0
1523614879035,524288,116,-56,-1,-1,0
1523614879035,196608,116,-56,-1,-1,0
1523614879035,0,116,-56,-1,-1,0
1523614879035,-262144,116,-56,-1,-1,0
1523614879075,-327680,116,-56,-1,-1,0
1523614879075,-393216,116,-56,-1,-1,0
1523614879075,-458752,116,-56,-1,-1,0
1523614879075,-458752,116,-56,-1,-1,0
1523614879075,-524288,116,-56,-1,-1,0
1523614879115,-589824,116,-56,-1,-1,0
1523614879115,-589824,116,-56,-1,-1,0
1523614879115,-655360,116,-56,-1,-1,0
1523614879115,-655360,116,-56,-1,-1,0
1523614879115,-655360,116,-56,-1,-1,0
1523614879155,-589824,116,-56,-1,-1,0
1523614879155,-589824,116,-56,-1,-1,0
1523614879155,-524288,116,-56,-1,-1,0
1523614879155,-458752,116,-56,-1,-1,0
1523614879155,-524288,116,-56,-1,-1,0
1523614879195,-524288,116,-56,-1,-1,0
1523614879195,-524288,116,-56,-1,-1,0
1523614879195,-524288,116,-56,-1,-1,0
1523614879195,-524288,116,-56,-1,-1,0
1523614879195,-524288,116,-56,-1,-1,0
1523614879236,-524288,116,-56,-1,-1,0
1523614879236,-524288,116,-56,-1,-1,0
1523614879236,-589824,116,-56,-1,-1,0
1523614879236,-589824,116,-56,-1,-1,0
1523614879236,-589824,116,-56,-1,-1,0
1523614879275,-589824,116,-56,-1,-1,0
1523614879275,-589824,116,-56,-1,-1,0
1523614879275,-655360,116,-56,-1,-1,0
1523614879275,-720896,116,-56,-1,-1,0
1523614879275,-786432,116,-56,-1,-1,0
1523614879315,-851968,116,-56,-1,-1,0
1523614879315,-851968,116,-56,-1,-1,0
1523614879315,-786432,116,-56,-1,-1,0
1523614879315,-720896,116,-56,-1,-1,0
1523614879315,-655360,116,-56,-1,-1,0
1523614879355,-655360,115,-56,-1,-1,0
1523614879355,-720896,115,-56,-1,-1,0
1523614879355,-720896,115,-56,-1,-1,0
1523614879355,-720896,115,-56,-1,-1,0
1523614879355,-720896,115,-56,-1,-1,0
1523614879395,-720896,115,-56,-1,-1,0
1523614879395,-917504,115,-56,-1,-1,0
1523614879395,-1114112,115,-56,-1,-1,0
1523614879395,196608,115,-56,-1,-1,0
1523614879395,4915200,115,-56,-1,-1,0
1523614879435,9699328,115,-56,-1,-1,0
1523614879435,7864320,115,-56,-1,-1,0
1523614879435,2228224,115,-56,-1,-1,0
1523614879435,-851968,115,-56,-1,-1,0
1523614879435,-655360,115,-56,-1,-1,0
1523614879484,-458752,115,-56,-1,-1,0
1523614879484,-458752,115,-56,-1,-1,0
1523614879484,-393216,115,-56,-1,-1,0
1523614879484,-458752,115,-56,-1,-1,0
1523614879484,-327680,115,-56,-1,-1,0
1523614879515,-327680,115,-56,-1,-1,0
1523614879515,-262144,115,-56,-1,-1,0
1523614879515,-327680,115,-56,-1,-1,0
1523614879515,-262144,115,-56,-1,-1,0
1523614879515,-196608,115,-56,-1,-1,0
1523614879555,-65536,115,-56,-1,-1,0
1523614879555,0,115,-56,-1,-1,0
1523614879555,131072,115,-56,-1,-1,0
1523614879555,262144,115,-56,-1,-1,0
1523614879555,393216,115,-56,-1,-1,0
1523614879595,655360,115,-56,-1,-1,0
1523614879595,851968,115,-56,-1,-1,0
1523614879595,1048576,115,-56,-1,-1,0
1523614879595,1179648,115,-56,-1,-1,0
1523614879595,1179648,115,-56,-1,-1,0
1523614879635,1114112,115,-56,-1,-1,0
1523614879635,983040,115,-56,-1,-1,0
1523614879635,786432,115,-56,-1,-1,0
1523614879635,524288,115,-56,-1,-1,0
1523614879635,262144,115,-56,-1,-1,0
1523614879675,0,115,-56,-1,-1,0
1523614879675,-196608,115,-56,-1,-1,0
1523614879675,-327680,115,-56,-1,-1,0
1523614879675,-393216,115,-56,-1,-1,0
1523614879675,-393216,115,-56,-1,-1,0
1523614879715,-458752,115,-56,-1,-1,0
1523614879715,-524288,115,-56,-1,-1,0
1523614879715,-524288,115,-56,-1,-1,0
1523614879715,-524288,115,-56,-1,-1,0
1523614879715,-524288,115,-56,-1,-1,0
1523614879755,-524288,115,-56,-1,-1,0
1523614879755,-524288,115,-56,-1,-1,0
1523614879755,-524288,115,-56,-1,-1,0
1523614879755,-524288,115,-56,-1,-1,0
1523614879755,-524288,115,-56,-1,-1,0
1523614879795,-458752,115,-56,-1,-1,0
1523614879795,-458752,115,-56,-1,-1,0
1523614879795,-524288,115,-56,-1,-1,0
1523614879795,-524288,115,-56,-1,-1,0
1523614879795,-524288,115,-56,-1,-1,0
1523614879835,-524288,115,-56,-1,-1,0
1523614879835,-524288,115,-56,-1,-1,0
1523614879835,-524288,115,-56,-1,-1,0
1523614879835,-524288,115,-56,-1,-1,0
1523614879835,-524288,115,-56,-1,-1,0
1523614879875,-524288,115,-56,-1,-1,0
1523614879875,-589824,115,-56,-1,-1,0
1523614879875,-589824,115,-56,-1,-1,0
1523614879875,-589824,115,-56,-1,-1,0
1523614879875,-589824,115,-56,-1,-1,0
1523614879915,-589824,115,-56,-1,-1,0
1523614879915,-589824,115,-56,-1,-1,0
1523614879915,-655360,115,-56,-1,-1,0
1523614879915,-655360,115,-56,-1,-1,0
1523614879915,-720896,115,-56,-1,-1,0
1523614879955,-786432,115,-56,-1,-1,0
1523614879955,-786432,115,-56,-1,-1,0
1523614879955,-786432,115,-56,-1,-1,0
1523614879955,-655360,115,-56,-1,-1,0
1523614879955,-655360,115,-56,-1,-1,0
1523614879995,-655360,115,-56,-1,-1,0
1523614879995,-720896,115,-56,-1,-1,0
1523614879995,-720896,115,-56,-1,-1,0
1523614879995,-720896,115,-56,-1,-1,0
1523614879995,-786432,115,-56,-1,-1,0
1523614880035,-786432,115,-56,-1,-1,0
1523614880035,-983040,115,-56,-1,-1,0
1523614880035,-1179648,115,-56,-1,-1,0
1523614880035,-65536,115,-56,-1,-1,0
1523614880035,4259840,115,-56,-1,-1,0
1523614880075,9306112,115,-56,-1,-1,0
1523614880075,8192000,115,-56,-1,-1,0
1523614880075,2752512,115,-56,-1,-1,0
1523614880075,-786432,115,-56,-1,-1,0
1523614880075,-720896,115,-56,-1,-1,0
1523614880124,-458752,115,-56,-1,-1,0
1523614880124,-524288,115,-56,-1,-1,0
1523614880124,-524288,115,-56,-1,-1,0
1523614880124,-524288,115,-56,-1,-1,0
1523614880124,-458752,115,-56,-1,-1,0
1523614880155,-458752,115,-56,-1,-1,0
1523614880155,-327680,115,-56,-1,-1,0
1523614880155,-327680,115,-56,-1,-1,0
1523614880155,-262144,115,-56,-1,-1,0
1523614880155,-196608,115,-56,-1,-1,0
1523614880195,-65536,115,-56,-1,-1,0
1523614880195,0,115,-56,-1,-1,0
1523614880195,131072,115,-56,-1,-1,0
1523614880195,327680,115,-56,-1,-1,0
1523614880195,458752,115,-56,-1,-1,0
1523614880235,655360,115,-56,-1,-1,0
1523614880235,851968,115,-56,-1,-1,0
1523614880235,1048576,115,-56,-1,-1,0
1523614880235,1114112,115,-56,-1,-1,0
1523614880235,1114112,115,-56,-1,-1,0
1523614880275,983040,115,-56,-1,-1,0
1523614880275,917504,115,-56,-1,-1,0
1523614880275,720896,115,-56,-1,-1,0
1523614880275,524288,115,-56,-1,-1,0
1523614880275,196608,115,-56,-1,-1,0
1523614880315,0,115,-56,-1,-1,0
1523614880315,-196608,115,-56,-1,-1,0
1523614880315,-327680,115,-56,-1,-1,0
1523614880315,-458752,115,-56,-1,-1,0
1523614880315,-524288,115,-56,-1,-1,0
1523614880355,-589824,115,-56,-1,-1,0
1523614880355,-655360,115,-56,-1,-1,0
1523614880355,-655360,115,-56,-1,-1,0
1523614880355,-655360,115,-56,-1,-1,0
1523614880355,-655360,115,-56,-1,-1,0
1523614880395,-589824,115,-56,-1,-1,0
1523614880395,-589824,115,-56,-1,-1,0
1523614880395,-589824,115,-56,-1,-1,0
1523614880395,-589824,115,-56,-1,-1,0
1523614880395,-589824,115,-56,-1,-1,0
1523614880435,-524288,115,-56,-1,-1,0
1523614880435,-524288,115,-56,-1,-1,0
1523614880435,-458752,115,-56,-1,-1,0
1523614880435,-524288,115,-56,-1,-1,0
1523614880435,-524288,115,-56,-1,-1,0
1523614880475,-589824,115,-56,-1,-1,0
1523614880475,-655360,115,-56,-1,-1,0
1523614880475,-655360,115,-56,-1,-1,0
1523614880475,-655360,115,-56,-1,-1,0
1523614880475,-655360,115,-56,-1,-1,0
1523614880515,-655360,115,-56,-1,-1,0
1523614880515,-720896,115,-56,-1,-1,0
1523614880515,-720896,115,-56,-1,-1,0
1523614880515,-786432,115,-56,-1,-1,0
1523614880515,-851968,115,-56,-1,-1,0
1523614880555,-851968,115,-56,-1,-1,0
1523614880555,-851968,115,-56,-1,-1,0
1523614880555,-851968,115,-56,-1,-1,0
1523614880555,-917504,115,-56,-1,-1,0
1523614880555,-983040,115,-56,-1,-1,0
1523614880597,-1048576,115,-56,-1,-1,0
1523614880597,-1048576,115,-56,-1,-1,0
1523614880597,-1114112,115,-56,-1,-1,0
1523614880597,-1048576,115,-56,-1,-1,0
1523614880597,-983040,115,-56,-1,-1,0
1523614880635,-983040,114,-56,-1,-1,0
1523614880635,-983040,114,-56,-1,-1,0
1523614880635,-917504,114,-56,-1,-1,0
1523614880635,-917504,114,-56,-1,-1,0
1523614880635,-983040,114,-56,-1,-1,0
1523614880675,-983040,114,-56,-1,-1,0
1523614880675,-983040,114,-56,-1,-1,0
1523614880675,-1179648,114,-56,-1,-1,0
1523614880675,-1441792,114,-56,-1,-1,0
1523614880675,-327680,114,-56,-1,-1,0
1523614880715,3932160,114,-56,-1,-1,0
1523614880715,8912896,114,-56,-1,-1,0
1523614880715,7798784,114,-56,-1,-1,0
1523614880715,2424832,114,-56,-1,-1,0
1523614880715,-983040,114,-56,-1,-1,0
1523614880764,-917504,114,-56,-1,-1,0
1523614880764,-720896,114,-56,-1,-1,0
1523614880764,-786432,114,-56,-1,-1,0
1523614880764,-786432,114,-56,-1,-1,0
1523614880764,-720896,114,-56,-1,-1,0
1523614880795,-655360,114,-56,-1,-1,0
1523614880795,-655360,114,-56,-1,-1,0
1523614880795,-655360,114,-56,-1,-1,0
1523614880795,-655360,114,-56,-1,-1,0
1523614880795,-524288,114,-56,-1,-1,0
1523614880835,-458752,114,-56,-1,-1,0
1523614880835,-262144,114,-56,-1,-1,0
1523614880835,-196608,114,-56,-1,-1,0
1523614880835,0,114,-56,-1,-1,0
1523614880835,0,114,-56,-1,-1,0
1523614880875,196608,114,-56,-1,-1,0
1523614880875,458752,114,-56,-1,-1,0
1523614880875,589824,114,-56,-1,-1,0
1523614880875,786432,114,-56,-1,-1,0
1523614880875,917504,114,-56,-1,-1,0
1523614880915,983040,114,-56,-1,-1,0
1523614880915,851968,114,-56,-1,-1,0
1523614880915,720896,114,-56,-1,-1,0
1523614880915,458752,114,-56,-1,-1,0
1523614880915,196608,114,-56,-1,-1,0
1523614880955,0,114,-56,-1,-1,0
1523614880955,-262144,114,-56,-1,-1,0
1523614880955,-589824,114,-56,-1,-1,0
1523614880955,-786432,114,-56,-1,-1,0
1523614880955,-851968,114,-56,-1,-1,0
1523614880995,-917504,114,-56,-1,-1,0
1523614880995,-917504,114,-56,-1,-1,0
1523614880995,-917504,114,-56,-1,-1,0
1523614880995,-983040,114,-56,-1,-1,0
1523614880995,-983040,114,-56,-1,-1,0
1523614881035,-917504,114,-56,-1,-1,0
1523614881035,-917504,114,-56,-1,-1,0
1523614881035,-851968,114,-56,-1,-1,0
1523614881035,-786432,114,-56,-1,-1,0
1523614881035,-786432,114,-56,-1,-1,0
1523614881075,-786432,114,-56,-1,-1,0
1523614881075,-851968,114,-56,-1,-1,0
1523614881075,-851968,114,-56,-1,-1,0
1523614881075,-851968,114,-56,-1,-1,0
1523614881075,-851968,114,-56,-1,-1,0
1523614881115,-851968,114,-56,-1,-1,0
1523614881115,-851968,114,-56,-1,-1,0
1523614881115,-851968,114,-56,-1,-1,0
1523614881115,-917504,114,-56,-1,-1,0
1523614881115,-917504,114,-56,-1,-1,0
1523614881155,-917504,114,-56,-1,-1,0
1523614881155,-917504,114,-56,-1,-1,0
1523614881155,-917504,114,-56,-1,-1,0
1523614881155,-983040,114,-56,-1,-1,0
1523614881155,-983040,114,-56,-1,-1,0
1523614881195,-917504,114,-56,-1,-1,0
1523614881195,-917504,114,-56,-1,-1,0
1523614881195,-983040,114,-56,-1,-1,0
1523614881195,-983040,114,-56,-1,-1,0
1523614881195,-1048576,114,-56,-1,-1,0
1523614881235,-1048576,113,-56,-1,-1,0
1523614881235,-1048576,113,-56,-1,-1,0
1523614881235,-983040,113,-56,-1,-1,0
1523614881235,-851968,113,-56,-1,-1,0
1523614881235,-851968,113,-56,-1,-1,0
1523614881275,-851968,113,-56,-1,-1,0
1523614881275,-851968,113,-56,-1,-1,0
1523614881275,-851968,113,-56,-1,-1,0
1523614881275,-786432,113,-56,-1,-1,0
1523614881275,-720896,113,-56,-1,-1,0
1523614881315,-720896,113,-56,-1,-1,0
1523614881315,-917504,113,-56,-1,-1,0
1523614881315,-1048576,113,-56,-1,-1,0
1523614881315,65536,113,-56,-1,-1,0
1523614881315,4390912,113,-56,-1,-1,0
1523614881355,9240576,113,-56,-1,-1,0
1523614881355,7602176,113,-56,-1,-1,0
1523614881355,1966080,113,-56,-1,-1,0
1523614881355,-1179648,113,-56,-1,-1,0
1523614881355,-720896,113,-56,-1,-1,0
1523614881404,-327680,113,-56,-1,-1,0
1523614881404,-262144,113,-56,-1,-1,0
1523614881404,-262144,113,-56,-1,-1,0
1523614881404,-327680,113,-56,-1,-1,0
1523614881404,-131072,113,-56,-1,-1,0
1523614881435,-131072,113,-56,-1,-1,0
1523614881435,0,113,-56,-1,-1,0
1523614881435,0,113,-56,-1,-1,0
1523614881435,65536,113,-56,-1,-1,0
1523614881435,131072,113,-56,-1,-1,0
1523614881475,262144,113,-56,-1,-1,0
1523614881475,458752,113,-56,-1,-1,0
1523614881475,655360,113,-56,-1,-1,0
1523614881475,917504,113,-56,-1,-1,0
1523614881475,1114112,113,-56,-1,-1,0
1523614881515,1441792,113,-56,-1,-1,0
1523614881515,1769472,113,-56,-1,-1,0
1523614881515,2031616,113,-56,-1,-1,0
1523614881515,2031616,113,-56,-1,-1,0
1523614881515,1900544,113,-56,-1,-1,0
1523614881555,1638400,113,-56,-1,-1,0
1523614881555,1441792,113,-56,-1,-1,0
1523614881555,1179648,113,-56,-1,-1,0
1523614881555,983040,113,-56,-1,-1,0
1523614881555,786432,113,-56,-1,-1,0
1523614881595,524288,113,-56,-1,-1,0
1523614881595,196608,113,-56,-1,-1,0
1523614881595,0,113,-56,-1,-1,0
1523614881595,0,113,-56,-1,-1,0
1523614881595,-131072,113,-56,-1,-1,0
1523614881635,-196608,113,-56,-1,-1,0
1523614881635,-131072,113,-56,-1,-1,0
1523614881635,-131072,113,-56,-1,-1,0
1523614881635,-131072,113,-56,-1,-1,0
1523614881635,-65536,113,-56,-1,-1,0
1523614881675,0,113,-56,-1,-1,0
1523614881675,0,113,-56,-1,-1,0
1523614881675,65536,113,-56,-1,-1,0
1523614881675,65536,113,-56,-1,-1,0
1523614881675,65536,113,-56,-1,-1,0
1523614881715,131072,113,-56,-1,-1,0
1523614881715,65536,113,-56,-1,-1,0
1523614881715,0,113,-56,-1,-1,0
1523614881715,0,113,-56,-1,-1,0
1523614881715,0,113,-56,-1,-1,0
1523614881755,0,113,-56,-1,-1,0
1523614881755,0,113,-56,-1,-1,0
1523614881755,-65536,113,-56,-1,-1,0
1523614881755,-65536,113,-56,-1,-1,0
1523614881755,-65536,113,-56,-1,-1,0
1523614881795,-131072,113,-56,-1,-1,0
1523614881795,-196608,113,-56,-1,-1,0
1523614881795,-196608,113,-56,-1,-1,0
1523614881795,-196608,113,-56,-1,-1,0
1523614881795,-262144,113,-56,-1,-1,0
1523614881835,-393216,113,-56,-1,-1,0
1523614881835,-458752,113,-56,-1,-1,0
1523614881835,-458752,113,-56,-1,-1,0
1523614881835,-524288,113,-56,-1,-1,0
1523614881835,-524288,113,-56,-1,-1,0
1523614881875,-458752,111,-56,-1,-1,0
1523614881875,-327680,111,-56,-1,-1,0
1523614881875,-327680,111,-56,-1,-1,0
1523614881875,-458752,111,-56,-1,-1,0
1523614881875,-524288,111,-56,-1,-1,0
1523614881915,-458752,111,-56,-1,-1,0
1523614881915,-262144,111,-56,-1,-1,0
1523614881915,-327680,111,-56,-1,-1,0
1523614881915,-655360,111,-56,-1,-1,0
1523614881915,-1048576,111,-56,-1,-1,0
1523614881958,-983040,111,-56,-1,-1,0
1523614881958,786432,111,-56,-1,-1,0
1523614881958,5570560,111,-56,-1,-1,0
1523614881958,9961472,111,-56,-1,-1,0
1523614881958,7798784,111,-56,-1,-1,0
1523614881995,2228224,111,-56,-1,-1,0
1523614881995,-589824,111,-56,-1,-1,0
1523614881995,-393216,111,-56,-1,-1,0
1523614881995,-262144,111,-56,-1,-1,0
1523614881995,-327680,111,-56,-1,-1,0
1523614882044,-393216,111,-56,-1,-1,0
1523614882044,-458752,111,-56,-1,-1,0
1523614882044,-262144,111,-56,-1,-1,0
1523614882044,0,111,-56,-1,-1,0
1523614882044,0,111,-56,-1,-1,0
1523614882075,0,111,-56,-1,-1,0
1523614882075,-65536,111,-56,-1,-1,0
1523614882075,-65536,111,-56,-1,-1,0
1523614882075,0,111,-56,-1,-1,0
1523614882075,65536,111,-56,-1,-1,0
1523614882115,196608,111,-56,-1,-1,0
1523614882115,262144,111,-56,-1,-1,0
1523614882115,524288,111,-56,-1,-1,0
1523614882115,983040,111,-56,-1,-1,0
1523614882115,1310720,111,-56,-1,-1,0
1523614882155,1376256,111,-56,-1,-1,0
1523614882155,1376256,111,-56,-1,-1,0
1523614882155,1310720,111,-56,-1,-1,0
1523614882155,1245184,111,-56,-1,-1,0
1523614882155,1114112,111,-56,-1,-1,0
1523614882195,786432,111,-56,-1,-1,0
1523614882195,589824,111,-56,-1,-1,0
1523614882195,327680,111,-56,-1,-1,0
1523614882195,131072,111,-56,-1,-1,0
1523614882195,-65536,111,-56,-1,-1,0
1523614882235,-196608,111,-56,-1,-1,0
1523614882235,-327680,111,-56,-1,-1,0
1523614882235,-393216,111,-56,-1,-1,0
1523614882235,-524288,111,-56,-1,-1,0
1523614882235,-524288,111,-56,-1,-1,0
1523614882275,-589824,111,-56,-1,-1,0
1523614882275,-589824,111,-56,-1,-1,0
1523614882275,-589824,111,-56,-1,-1,0
1523614882275,-524288,111,-56,-1,-1,0
1523614882275,-589824,111,-56,-1,-1,0
1523614882315,-655360,111,-56,-1,-1,0
1523614882315,-589824,111,-56,-1,-1,0
1523614882315,-458752,111,-56,-1,-1,0
1523614882315,-458752,111,-56,-1,-1,0
1523614882315,-458752,111,-56,-1,-1,0
1523614882355,-524288,111,-56,-1,-1,0
1523614882355,-589824,111,-56,-1,-1,0
1523614882355,-655360,111,-56,-1,-1,0
1523614882355,-589824,111,-56,-1,-1,0
1523614882355,-524288,111,-56,-1,-1,0
1523614882397,-589824,111,-56,-1,-1,0
1523614882397,-589824,111,-56,-1,-1,0
1523614882397,-589824,111,-56,-1,-1,0
1523614882397,-589824,111,-56,-1,-1,0
1523614882397,-720896,111,-56,-1,-1,0
1523614882435,-786432,111,-56,-1,-1,0
1523614882435,-786432,111,-56,-1,-1,0
1523614882435,-655360,111,-56,-1,-1,0
1523614882435,-524288,111,-56,-1,-1,0
1523614882435,-524288,111,-56,-1,-1,0
1523614882475,-720896,108,-56,-1,-1,0
1523614882475,-786432,108,-56,-1,-1,0
1523614882475,-589824,108,-56,-1,-1,0
1523614882475,-589824,108,-56,-1,-1,0
1523614882475,-655360,108,-56,-1,-1,0
1523614882515,-786432,108,-56,-1,-1,0
1523614882515,-851968,108,-56,-1,-1,0
1523614882515,-720896,108,-56,-1,-1,0
1523614882515,-589824,108,-56,-1,-1,0
1523614882515,-524288,108,-56,-1,-1,0
1523614882557,-589824,108,-56,-1,-1,0
1523614882557,-851968,108,-56,-1,-1,0
1523614882557,-983040,108,-56,-1,-1,0
1523614882557,524288,108,-56,-1,-1,0
1523614882557,4980736,108,-56,-1,-1,0
1523614882595,8978432,108,-56,-1,-1,0
1523614882595,6750208,108,-56,-1,-1,0
1523614882595,1507328,108,-56,-1,-1,0
1523614882595,-917504,108,-56,-1,-1,0
1523614882595,-589824,108,-56,-1,-1,0
1523614882635,-262144,108,-56,-1,-1,0
1523614882635,-196608,108,-56,-1,-1,0
1523614882635,-131072,108,-56,-1,-1,0
1523614882635,-131072,108,-56,-1,-1,0
1523614882635,-65536,108,-56,-1,-1,0
1523614882684,-65536,108,-56,-1,-1,0
1523614882684,0,108,-56,-1,-1,0
1523614882684,0,108,-56,-1,-1,0
1523614882684,65536,108,-56,-1,-1,0
1523614882684,131072,108,-56,-1,-1,0
1523614882715,262144,108,-56,-1,-1,0
1523614882715,262144,108,-56,-1,-1,0
1523614882715,393216,108,-56,-1,-1,0
1523614882715,524288,108,-56,-1,-1,0
1523614882715,786432,108,-56,-1,-1,0
1523614882755,1048576,108,-56,-1,-1,0
1523614882755,1376256,108,-56,-1,-1,0
1523614882755,1572864,108,-56,-1,-1,0
1523614882755,1638400,108,-56,-1,-1,0
1523614882755,1507328,108,-56,-1,-1,0
1523614882795,1310720,108,-56,-1,-1,0
1523614882795,1048576,108,-56,-1,-1,0
1523614882795,786432,108,-56,-1,-1,0
1523614882795,589824,108,-56,-1,-1,0
1523614882795,262144,108,-56,-1,-1,0
1523614882835,0,108,-56,-1,-1,0
1523614882835,-262144,108,-56,-1,-1,0
1523614882835,-393216,108,-56,-1,-1,0
1523614882835,-458752,108,-56,-1,-1,0
1523614882835,-458752,108,-56,-1,-1,0
1523614882875,-524288,108,-56,-1,-1,0
1523614882875,-524288,108,-56,-1,-1,0
1523614882875,-655360,108,-56,-1,-1,0
1523614882875,-720896,108,-56,-1,-1,0
1523614882875,-786432,108,-56,-1,-1,0
1523614882915,-720896,108,-56,-1,-1,0
1523614882915,-589824,108,-56,-1,-1,0
1523614882915,-524288,108,-56,-1,-1,0
1523614882915,-720896,108,-56,-1,-1,0
1523614882915,-851968,108,-56,-1,-1,0
1523614882957,-589824,108,-56,-1,-1,0
1523614882957,-393216,108,-56,-1,-1,0
1523614882957,-655360,108,-56,-1,-1,0
1523614882957,-917504,108,-56,-1,-1,0
1523614882957,-786432,108,-56,-1,-1,0
1523614882995,-786432,108,-56,-1,-1,0
1523614882995,-851968,108,-56,-1,-1,0
1523614882995,-851968,108,-56,-1,-1,0
1523614882995,-786432,108,-56,-1,-1,0
1523614882995,-917504,108,-56,-1,-1,0
1523614883035,-983040,106,-56,-1,-1,0
1523614883035,-983040,106,-56,-1,-1,0
1523614883035,-983040,106,-56,-1,-1,0
1523614883035,-1048576,106,-56,-1,-1,0
1523614883035,-1179648,106,-56,-1,-1,0
1523614883088,-1310720,106,-56,-1,-1,0
1523614883088,-1245184,106,-56,-1,-1,0
1523614883088,-1179648,106,-56,-1,-1,0
1523614883088,-1114112,106,-56,-1,-1,0
1523614883088,-1179648,106,-56,-1,-1,0
1523614883115,-1245184,106,-56,-1,-1,0
1523614883115,-1310720,106,-56,-1,-1,0
1523614883115,-1310720,106,-56,-1,-1,0
1523614883115,-1310720,106,-56,-1,-1,0
1523614883115,-1245184,106,-56,-1,-1,0
1523614883155,-1310720,106,-56,-1,-1,0
1523614883155,-1638400,106,-56,-1,-1,0
1523614883155,-1900544,106,-56,-1,-1,0
1523614883155,-917504,106,-56,-1,-1,0
1523614883155,3211264,106,-56,-1,-1,0
1523614883195,8060928,106,-56,-1,-1,0
1523614883195,7077888,106,-56,-1,-1,0
1523614883195,1835008,106,-56,-1,-1,0
1523614883195,-1572864,106,-56,-1,-1,0
1523614883195,-1441792,106,-56,-1,-1,0
1523614883238,-1179648,106,-56,-1,-1,0
1523614883238,-1310720,106,-56,-1,-1,0
1523614883238,-1310720,106,-56,-1,-1,0
1523614883238,-1310720,106,-56,-1,-1,0
1523614883238,-1245184,106,-56,-1,-1,0
1523614883275,-1179648,106,-56,-1,-1,0
1523614883275,-1179648,106,-56,-1,-1,0
1523614883275,-1245184,106,-56,-1,-1,0
1523614883275,-1114112,106,-56,-1,-1,0
1523614883275,-1114112,106,-56,-1,-1,0
1523614883324,-1179648,106,-56,-1,-1,0
1523614883324,-1114112,106,-56,-1,-1,0
1523614883324,-720896,106,-56,-1,-1,0
1523614883324,-327680,106,-56,-1,-1,0
1523614883324,-196608,106,-56,-1,-1,0
1523614883355,-131072,106,-56,-1,-1,0
1523614883355,0,106,-56,-1,-1,0
1523614883355,65536,106,-56,-1,-1,0
1523614883355,131072,106,-56,-1,-1,0
1523614883355,262144,106,-56,-1,-1,0
1523614883395,131072,106,-56,-1,-1,0
1523614883395,0,106,-56,-1,-1,0
1523614883395,-262144,106,-56,-1,-1,0
1523614883395,-524288,106,-56,-1,-1,0
1523614883395,-786432,106,-56,-1,-1,0
1523614883437,-1048576,106,-56,-1,-1,0
1523614883437,-1376256,106,-56,-1,-1,0
1523614883437,-1572864,106,-56,-1,-1,0
1523614883437,-1572864,106,-56,-1,-1,0
1523614883437,-1572864,106,-56,-1,-1,0
1523614883475,-1572864,106,-56,-1,-1,0
1523614883475,-1572864,106,-56,-1,-1,0
1523614883475,-1507328,106,-56,-1,-1,0
1523614883475,-1572864,106,-56,-1,-1,0
1523614883475,-1769472,106,-56,-1,-1,0
1523614883515,-1835008,106,-56,-1,-1,0
1523614883515,-1703936,106,-56,-1,-1,0
1523614883515,-1769472,106,-56,-1,-1,0
1523614883515,-1769472,106,-56,-1,-1,0
1523614883515,-1638400,106,-56,-1,-1,0
1523614883555,-1310720,106,-56,-1,-1,0
1523614883555,-1245184,106,-56,-1,-1,0
1523614883555,-1245184,106,-56,-1,-1,0
1523614883555,-1245184,106,-56,-1,-1,0
1523614883555,-1310720,106,-56,-1,-1,0
1523614883595,-1572864,106,-56,-1,-1,0
1523614883595,-1638400,106,-56,-1,-1,0
1523614883595,-1703936,106,-56,-1,-1,0
1523614883595,-1769472,106,-56,-1,-1,0
1523614883595,-1703936,106,-56,-1,-1,0
1523614883636,-1507328,104,-56,-1,-1,0
1523614883636,-1507328,104,-56,-1,-1,0
1523614883636,-1572864,104,-56,-1,-1,0
1523614883636,-1572864,104,-56,-1,-1,0
1523614883636,-1572864,104,-56,-1,-1,0
1523614883675,-1441792,104,-56,-1,-1,0
1523614883675,-1441792,104,-56,-1,-1,0
1523614883675,-1572864,104,-56,-1,-1,0
1523614883675,-1703936,104,-56,-1,-1,0
1523614883675,-1638400,104,-56,-1,-1,0
1523614883721,-1769472,104,-56,-1,-1,0
1523614883721,-1835008,104,-56,-1,-1,0
1523614883721,-1703936,104,-56,-1,-1,0
1523614883721,-1441792,104,-56,-1,-1,0
1523614883721,-1507328,104,-56,-1,-1,0
1523614883756,-1966080,104,-56,-1,-1,0
1523614883756,-2097152,104,-56,-1,-1,0
1523614883756,-196608,104,-56,-1,-1,0
1523614883756,4521984,104,-56,-1,-1,0
1523614883756,8126464,104,-56,-1,-1,0
1523614883795,5242880,104,-56,-1,-1,0
1523614883795,0,104,-56,-1,-1,0
1523614883795,-1638400,104,-56,-1,-1,0
1523614883795,-983040,104,-56,-1,-1,0
1523614883795,-1245184,104,-56,-1,-1,0
1523614883836,-1376256,104,-56,-1,-1,0
1523614883836,-786432,104,-56,-1,-1,0
1523614883836,-589824,104,-56,-1,-1,0
1523614883836,-917504,104,-56,-1,-1,0
1523614883836,-1114112,104,-56,-1,-1,0
1523614883878,-917504,104,-56,-1,-1,0
1523614883878,-786432,104,-56,-1,-1,0
1523614883878,-589824,104,-56,-1,-1,0
1523614883878,-458752,104,-56,-1,-1,0
1523614883878,-262144,104,-56,-1,-1,0
1523614883916,-196608,104,-56,-1,-1,0
1523614883916,65536,104,-56,-1,-1,0
1523614883916,393216,104,-56,-1,-1,0
1523614883916,393216,104,-56,-1,-1,0
1523614883916,131072,104,-56,-1,-1,0
1523614883965,327680,104,-56,-1,-1,0
1523614883965,917504,104,-56,-1,-1,0
1523614883965,1441792,104,-56,-1,-1,0
1523614883965,1310720,104,-56,-1,-1,0
1523614883965,983040,104,-56,-1,-1,0
1523614883996,1114112,104,-56,-1,-1,0
1523614883996,983040,104,-56,-1,-1,0
1523614883996,458752,104,-56,-1,-1,0
1523614883996,-262144,104,-56,-1,-1,0
1523614883996,-786432,104,-56,-1,-1,0
1523614884036,-1179648,104,-56,-1,-1,0
1523614884036,-1048576,104,-56,-1,-1,0
1523614884036,-458752,104,-56,-1,-1,0
1523614884036,0,104,-56,-1,-1,0
1523614884036,-262144,104,-56,-1,-1,0
1523614884076,-589824,104,-56,-1,-1,0
1523614884076,-655360,104,-56,-1,-1,0
1523614884076,-262144,104,-56,-1,-1,0
1523614884076,0,104,-56,-1,-1,0
1523614884076,-131072,104,-56,-1,-1,0
1523614884119,-458752,104,-56,-1,-1,0
1523614884119,-393216,104,-56,-1,-1,0
1523614884119,0,104,-56,-1,-1,0
1523614884119,0,104,-56,-1,-1,0
1523614884119,-393216,104,-56,-1,-1,0
1523614884158,-589824,104,-56,-1,-1,0
1523614884158,-589824,104,-56,-1,-1,0
1523614884158,-262144,104,-56,-1,-1,0
1523614884158,-65536,104,-56,-1,-1,0
1523614884158,-262144,104,-56,-1,-1,0
1523614884195,-524288,103,-56,-1,-1,0
1523614884195,-393216,103,-56,-1,-1,0
1523614884195,-196608,103,-56,-1,-1,0
1523614884195,-65536,103,-56,-1,-1,0
1523614884195,-65536,103,-56,-1,-1,0
1523614884235,-65536,103,-56,-1,-1,0
1523614884235,0,103,-56,-1,-1,0
1523614884235,0,103,-56,-1,-1,0
1523614884235,-524288,103,-56,-1,-1,0
1523614884235,-851968,103,-56,-1,-1,0
1523614884275,-458752,103,-56,-1,-1,0
1523614884275,-131072,103,-56,-1,-1,0
1523614884275,-65536,103,-56,-1,-1,0
1523614884275,-196608,103,-56,-1,-1,0
1523614884275,-131072,103,-56,-1,-1,0
1523614884315,-65536,103,-56,-1,-1,0
1523614884315,0,103,-56,-1,-1,0
1523614884315,-262144,103,-56,-1,-1,0
1523614884315,-655360,103,-56,-1,-1,0
1523614884315,-196608,103,-56,-1,-1,0
1523614884355,3145728,103,-56,-1,-1,0
1523614884355,7667712,103,-56,-1,-1,0
1523614884355,7602176,103,-56,-1,-1,0
1523614884355,3145728,103,-56,-1,-1,0
1523614884355,-196608,103,-56,-1,-1,0
1523614884395,-65536,103,-56,-1,-1,0
1523614884395,196608,103,-56,-1,-1,0
1523614884395,131072,103,-56,-1,-1,0
1523614884395,0,103,-56,-1,-1,0
1523614884395,65536,103,-56,-1,-1,0
1523614884435,327680,103,-56,-1,-1,0
1523614884435,589824,103,-56,-1,-1,0
1523614884435,524288,103,-56,-1,-1,0
1523614884435,393216,103,-56,-1,-1,0
1523614884435,327680,103,-56,-1,-1,0
1523614884476,393216,103,-56,-1,-1,0
1523614884476,458752,103,-56,-1,-1,0
1523614884476,589824,103,-56,-1,-1,0
1523614884476,851968,103,-56,-1,-1,0
1523614884476,1114112,103,-56,-1,-1,0
1523614884515,1245184,103,-56,-1,-1,0
1523614884515,1507328,103,-56,-1,-1,0
1523614884515,1900544,103,-56,-1,-1,0
1523614884515,2097152,103,-56,-1,-1,0
1523614884515,1900544,103,-56,-1,-1,0
1523614884560,1703936,103,-56,-1,-1,0
1523614884560,1507328,103,-56,-1,-1,0
1523614884560,1245184,103,-56,-1,-1,0
1523614884560,983040,103,-56,-1,-1,0
1523614884560,983040,103,-56,-1,-1,0
1523614884606,917504,103,-56,-1,-1,0
1523614884606,524288,103,-56,-1,-1,0
1523614884606,327680,103,-56,-1,-1,0
1523614884606,393216,103,-56,-1,-1,0
1523614884606,458752,103,-56,-1,-1,0
1523614884638,262144,103,-56,-1,-1,0
1523614884638,65536,103,-56,-1,-1,0
1523614884638,65536,103,-56,-1,-1,0
1523614884638,131072,103,-56,-1,-1,0
1523614884638,327680,103,-56,-1,-1,0
1523614884676,393216,103,-56,-1,-1,0
1523614884676,393216,103,-56,-1,-1,0
1523614884676,196608,103,-56,-1,-1,0
1523614884676,196608,103,-56,-1,-1,0
1523614884676,262144,103,-56,-1,-1,0
1523614884715,393216,103,-56,-1,-1,0
1523614884715,458752,103,-56,-1,-1,0
1523614884715,327680,103,-56,-1,-1,0
1523614884715,262144,103,-56,-1,-1,0
1523614884715,262144,103,-56,-1,-1,0
1523614884755,458752,102,-56,-1,-1,0
1523614884755,327680,102,-56,-1,-1,0
1523614884755,196608,102,-56,-1,-1,0
1523614884755,131072,102,-56,-1,-1,0
1523614884755,65536,102,-56,-1,-1,0
1523614884795,131072,102,-56,-1,-1,0
1523614884795,131072,102,-56,-1,-1,0
1523614884795,0,102,-56,-1,-1,0
1523614884795,-196608,102,-56,-1,-1,0
1523614884795,-65536,102,-56,-1,-1,0
1523614884835,262144,102,-56,-1,-1,0
1523614884835,327680,102,-56,-1,-1,0
1523614884835,131072,102,-56,-1,-1,0
1523614884835,65536,102,-56,-1,-1,0
1523614884835,0,102,-56,-1,-1,0
1523614884878,0,102,-56,-1,-1,0
1523614884878,0,102,-56,-1,-1,0
1523614884878,65536,102,-56,-1,-1,0
1523614884878,0,102,-56,-1,-1,0
1523614884878,-393216,102,-56,-1,-1,0
1523614884915,65536,102,-56,-1,-1,0
1523614884915,3604480,102,-56,-1,-1,0
1523614884915,8388608,102,-56,-1,-1,0
1523614884915,8126464,102,-56,-1,-1,0
1523614884915,3276800,102,-56,-1,-1,0
1523614884955,-589824,102,-56,-1,-1,0
1523614884955,-524288,102,-56,-1,-1,0
1523614884955,65536,102,-56,-1,-1,0
1523614884955,196608,102,-56,-1,-1,0
1523614884955,131072,102,-56,-1,-1,0
1523614884996,65536,102,-56,-1,-1,0
1523614884996,262144,102,-56,-1,-1,0
1523614884996,327680,102,-56,-1,-1,0
1523614884996,327680,102,-56,-1,-1,0
1523614884996,327680,102,-56,-1,-1,0
1523614885035,327680,102,-56,-1,-1,0
1523614885035,458752,102,-56,-1,-1,0
1523614885035,524288,102,-56,-1,-1,0
1523614885035,589824,102,-56,-1,-1,0
1523614885035,851968,102,-56,-1,-1,0
1523614885078,1114112,102,-56,-1,-1,0
1523614885078,1245184,102,-56,-1,-1,0
1523614885078,1376256,102,-56,-1,-1,0
1523614885078,1572864,102,-56,-1,-1,0
1523614885078,1769472,102,-56,-1,-1,0
1523614885115,1835008,102,-56,-1,-1,0
1523614885115,1769472,102,-56,-1,-1,0
1523614885115,1638400,102,-56,-1,-1,0
1523614885115,1507328,102,-56,-1,-1,0
1523614885115,1179648,102,-56,-1,-1,0
1523614885155,851968,102,-56,-1,-1,0
1523614885155,589824,102,-56,-1,-1,0
1523614885155,393216,102,-56,-1,-1,0
1523614885155,196608,102,-56,-1,-1,0
1523614885155,0,102,-56,-1,-1,0
1523614885198,-196608,102,-56,-1,-1,0
1523614885198,-196608,102,-56,-1,-1,0
1523614885198,-196608,102,-56,-1,-1,0
1523614885198,-196608,102,-56,-1,-1,0
1523614885198,-131072,102,-56,-1,-1,0
1523614885243,-65536,102,-56,-1,-1,0
1523614885243,0,102,-56,-1,-1,0
1523614885243,0,102,-56,-1,-1,0
1523614885243,0,102,-56,-1,-1,0
1523614885243,65536,102,-56,-1,-1,0
1523614885278,131072,102,-56,-1,-1,0
1523614885278,131072,102,-56,-1,-1,0
1523614885278,65536,102,-56,-1,-1,0
1523614885278,0,102,-56,-1,-1,0
1523614885278,0,102,-56,-1,-1,0
1523614885315,0,102,-56,-1,-1,0
1523614885315,0,102,-56,-1,-1,0
1523614885315,0,102,-56,-1,-1,0
1523614885315,-131072,102,-56,-1,-1,0
1523614885315,-196608,102,-56,-1,-1,0
1523614885356,-196608,102,-56,-1,-1,0
1523614885356,-196608,102,-56,-1,-1,0
1523614885356,-262144,102,-56,-1,-1,0
1523614885356,-393216,102,-56,-1,-1,0
1523614885356,-393216,102,-56,-1,-1,0
1523614885395,-262144,102,-56,-1,-1,0
1523614885395,-196608,102,-56,-1,-1,0
1523614885395,-262144,102,-56,-1,-1,0
1523614885395,-327680,102,-56,-1,-1,0
1523614885395,-327680,102,-56,-1,-1,0
1523614885435,-327680,102,-56,-1,-1,0
1523614885435,-262144,102,-56,-1,-1,0
1523614885435,-327680,102,-56,-1,-1,0
1523614885435,-655360,102,-56,-1,-1,0
1523614885435,-851968,102,-56,-1,-1,0
1523614885478,655360,102,-56,-1,-1,0
1523614885478,5242880,102,-56,-1,-1,0
1523614885478,9371648,102,-56,-1,-1,0
1523614885478,7077888,102,-56,-1,-1,0
1523614885478,1769472,102,-56,-1,-1,0
1523614885515,-655360,102,-56,-1,-1,0
1523614885515,-393216,102,-56,-1,-1,0
1523614885515,-131072,102,-56,-1,-1,0
1523614885515,-131072,102,-56,-1,-1,0
1523614885515,-65536,102,-56,-1,-1,0
1523614885558,-131072,102,-56,-1,-1,0
1523614885558,-131072,102,-56,-1,-1,0
1523614885558,-196608,102,-56,-1,-1,0
1523614885558,0,102,-56,-1,-1,0
1523614885558,0,102,-56,-1,-1,0
1523614885595,0,102,-56,-1,-1,0
1523614885595,65536,102,-56,-1,-1,0
1523614885595,196608,102,-56,-1,-1,0
1523614885595,327680,102,-56,-1,-1,0
1523614885595,458752,102,-56,-1,-1,0
1523614885635,589824,102,-56,-1,-1,0
1523614885635,851968,102,-56,-1,-1,0
1523614885635,983040,102,-56,-1,-1,0
1523614885635,1114112,102,-56,-1,-1,0
1523614885635,1245184,102,-56,-1,-1,0
1523614885675,1310720,102,-56,-1,-1,0
1523614885675,1376256,102,-56,-1,-1,0
1523614885675,1376256,102,-56,-1,-1,0
1523614885675,1114112,102,-56,-1,-1,0
1523614885675,655360,102,-56,-1,-1,0
1523614885715,393216,102,-56,-1,-1,0
1523614885715,65536,102,-56,-1,-1,0
1523614885715,-131072,102,-56,-1,-1,0
1523614885715,-327680,102,-56,-1,-1,0
1523614885715,-524288,102,-56,-1,-1,0
1523614885755,-720896,102,-56,-1,-1,0
1523614885755,-655360,102,-56,-1,-1,0
1523614885755,-655360,102,-56,-1,-1,0
1523614885755,-720896,102,-56,-1,-1,0
1523614885755,-851968,102,-56,-1,-1,0
1523614885798,-786432,102,-56,-1,-1,0
1523614885798,-720896,102,-56,-1,-1,0
1523614885798,-786432,102,-56,-1,-1,0
1523614885798,-786432,102,-56,-1,-1,0
1523614885798,-655360,102,-56,-1,-1,0
1523614885835,-458752,102,-56,-1,-1,0
1523614885835,-458752,102,-56,-1,-1,0
1523614885835,-655360,102,-56,-1,-1,0
1523614885835,-786432,102,-56,-1,-1,0
1523614885835,-786432,102,-56,-1,-1,0
1523614885885,-720896,102,-56,-1,-1,0
1523614885885,-655360,102,-56,-1,-1,0
1523614885885,-786432,102,-56,-1,-1,0
1523614885885,-983040,102,-56,-1,-1,0
1523614885885,-1114112,102,-56,-1,-1,0
1523614885915,-1114112,102,-56,-1,-1,0
1523614885915,-1048576,102,-56,-1,-1,0
1523614885915,-1048576,102,-56,-1,-1,0
1523614885915,-1048576,102,-56,-1,-1,0
1523614885915,-786432,102,-56,-1,-1,0
1523614885955,-720896,102,-56,-1,-1,0
1523614885955,-851968,102,-56,-1,-1,0
1523614885955,-1114112,102,-56,-1,-1,0
1523614885955,-1114112,102,-56,-1,-1,0
1523614885955,-1114112,102,-56,-1,-1,0
1523614885995,-1179648,102,-56,-1,-1,0
1523614885995,-1376256,102,-56,-1,-1,0
1523614885995,-1179648,102,-56,-1,-1,0
1523614885995,589824,102,-56,-1,-1,0
1523614885995,5046272,102,-56,-1,-1,0
1523614886035,7602176,102,-56,-1,-1,0
1523614886035,4063232,102,-56,-1,-1,0
1523614886035,-720896,102,-56,-1,-1,0
1523614886035,-1638400,102,-56,-1,-1,0
1523614886035,-917504,102,-56,-1,-1,0
1523614886075,-720896,102,-56,-1,-1,0
1523614886075,-851968,102,-56,-1,-1,0
1523614886075,-786432,102,-56,-1,-1,0
1523614886075,-524288,102,-56,-1,-1,0
1523614886075,-327680,102,-56,-1,-1,0
1523614886115,-458752,102,-56,-1,-1,0
1523614886115,-720896,102,-56,-1,-1,0
1523614886115,-851968,102,-56,-1,-1,0
1523614886115,-589824,102,-56,-1,-1,0
1523614886115,-393216,102,-56,-1,-1,0
1523614886156,-65536,102,-56,-1,-1,0
1523614886156,131072,102,-56,-1,-1,0
1523614886156,196608,102,-56,-1,-1,0
1523614886156,262144,102,-56,-1,-1,0
1523614886156,589824,102,-56,-1,-1,0
1523614886195,917504,102,-56,-1,-1,0
1523614886195,1310720,102,-56,-1,-1,0
1523614886195,1376256,102,-56,-1,-1,0
1523614886195,1245184,102,-56,-1,-1,0
1523614886195,1114112,102,-56,-1,-1,0
1523614886235,983040,102,-56,-1,-1,0
1523614886235,720896,102,-56,-1,-1,0
1523614886235,393216,102,-56,-1,-1,0
1523614886235,0,102,-56,-1,-1,0
1523614886235,-393216,102,-56,-1,-1,0
1523614886276,-655360,102,-56,-1,-1,0
1523614886276,-786432,102,-56,-1,-1,0
1523614886276,-917504,102,-56,-1,-1,0
1523614886276,-1048576,102,-56,-1,-1,0
1523614886276,-983040,102,-56,-1,-1,0
1523614886315,-1048576,102,-56,-1,-1,0
1523614886315,-1114112,102,-56,-1,-1,0
1523614886315,-983040,102,-56,-1,-1,0
1523614886315,-851968,102,-56,-1,-1,0
1523614886315,-1048576,102,-56,-1,-1,0
1523614886355,-1179648,102,-56,-1,-1,0
1523614886355,-917504,102,-56,-1,-1,0
1523614886355,-393216,102,-56,-1,-1,0
1523614886355,-393216,102,-56,-1,-1,0
1523614886355,-655360,102,-56,-1,-1,0
1523614886396,-720896,102,-56,-1,-1,0
1523614886396,-589824,102,-56,-1,-1,0
1523614886396,-327680,102,-56,-1,-1,0
1523614886396,-196608,102,-56,-1,-1,0
1523614886396,-327680,102,-56,-1,-1,0
1523614886435,-655360,102,-56,-1,-1,0
1523614886435,-786432,102,-56,-1,-1,0
1523614886435,-851968,102,-56,-1,-1,0
1523614886435,-786432,102,-56,-1,-1,0
1523614886435,-524288,102,-56,-1,-1,0
1523614886476,-393216,102,-56,-1,-1,0
1523614886476,-524288,102,-56,-1,-1,0
1523614886476,-720896,102,-56,-1,-1,0
1523614886476,-720896,102,-56,-1,-1,0
1523614886476,-786432,102,-56,-1,-1,0
1523614886525,-786432,102,-56,-1,-1,0
1523614886525,-589824,102,-56,-1,-1,0
1523614886525,-589824,102,-56,-1,-1,0
1523614886525,-917504,102,-56,-1,-1,0
1523614886525,-851968,102,-56,-1,-1,0
1523614886555,1245184,102,-56,-1,-1,0
1523614886555,5832704,102,-56,-1,-1,0
1523614886555,8192000,102,-56,-1,-1,0
1523614886555,4521984,102,-56,-1,-1,0
1523614886555,-65536,102,-56,-1,-1,0
1523614886596,-983040,102,-56,-1,-1,0
1523614886596,-655360,102,-56,-1,-1,0
1523614886596,-458752,102,-56,-1,-1,0
1523614886596,-196608,102,-56,-1,-1,0
1523614886596,-131072,102,-56,-1,-1,0
1523614886635,-458752,102,-56,-1,-1,0
1523614886635,-589824,102,-56,-1,-1,0
1523614886635,-458752,102,-56,-1,-1,0
1523614886635,-262144,102,-56,-1,-1,0
1523614886635,-196608,102,-56,-1,-1,0
1523614886678,0,102,-56,-1,-1,0
1523614886678,131072,102,-56,-1,-1,0
1523614886678,131072,102,-56,-1,-1,0
1523614886678,65536,102,-56,-1,-1,0
1523614886678,262144,102,-56,-1,-1,0
1523614886715,524288,102,-56,-1,-1,0
1523614886715,786432,102,-56,-1,-1,0
1523614886715,917504,102,-56,-1,-1,0
1523614886715,1114112,102,-56,-1,-1,0
1523614886715,1376256,102,-56,-1,-1,0
1523614886759,1507328,102,-56,-1,-1,0
1523614886759,1376256,102,-56,-1,-1,0
1523614886759,1179648,102,-56,-1,-1,0
1523614886759,1048576,102,-56,-1,-1,0
1523614886759,786432,102,-56,-1,-1,0
1523614886796,393216,102,-56,-1,-1,0
1523614886796,0,102,-56,-1,-1,0
1523614886796,-131072,102,-56,-1,-1,0
1523614886796,-458752,102,-56,-1,-1,0
1523614886796,-786432,102,-56,-1,-1,0
1523614886839,-720896,102,-56,-1,-1,0
1523614886839,-524288,102,-56,-1,-1,0
1523614886839,-589824,102,-56,-1,-1,0
1523614886839,-720896,102,-56,-1,-1,0
1523614886839,-720896,102,-56,-1,-1,0
1523614886876,-720896,102,-56,-1,-1,0
1523614886876,-720896,102,-56,-1,-1,0
1523614886876,-655360,102,-56,-1,-1,0
1523614886876,-720896,102,-56,-1,-1,0
1523614886876,-589824,102,-56,-1,-1,0
1523614886915,-393216,102,-56,-1,-1,0
1523614886915,-327680,102,-56,-1,-1,0
1523614886915,-393216,102,-56,-1,-1,0
1523614886915,-524288,102,-56,-1,-1,0
1523614886915,-458752,102,-56,-1,-1,0
1523614886956,-393216,102,-56,-1,-1,0
1523614886956,-327680,102,-56,-1,-1,0
1523614886956,-262144,102,-56,-1,-1,0
1523614886956,-196608,102,-56,-1,-1,0
1523614886956,-262144,102,-56,-1,-1,0
1523614886995,-393216,102,-56,-1,-1,0
1523614886995,-589824,102,-56,-1,-1,0
1523614886995,-524288,102,-56,-1,-1,0
1523614886995,-393216,102,-56,-1,-1,0
1523614886995,-393216,102,-56,-1,-1,0
1523614887035,-458752,102,-56,-1,-1,0
1523614887035,-589824,102,-56,-1,-1,0
1523614887035,-655360,102,-56,-1,-1,0
1523614887035,-589824,102,-56,-1,-1,0
1523614887035,-524288,102,-56,-1,-1,0
1523614887080,-655360,102,-56,-1,-1,0
1523614887080,-458752,102,-56,-1,-1,0
1523614887080,2031616,102,-56,-1,-1,0
1523614887080,7012352,102,-56,-1,-1,0
1523614887080,8650752,102,-56,-1,-1,0
1523614887115,4390912,102,-56,-1,-1,0
1523614887115,-196608,102,-56,-1,-1,0
1523614887115,-720896,102,-56,-1,-1,0
1523614887115,-65536,102,-56,-1,-1,0
1523614887115,0,102,-56,-1,-1,0
1523614887164,-131072,102,-56,-1,-1,0
1523614887164,-327680,102,-56,-1,-1,0
1523614887164,-262144,102,-56,-1,-1,0
1523614887164,-131072,102,-56,-1,-1,0
1523614887164,-196608,102,-56,-1,-1,0
1523614887198,-65536,102,-56,-1,-1,0
1523614887198,131072,102,-56,-1,-1,0
1523614887198,196608,102,-56,-1,-1,0
1523614887198,0,102,-56,-1,-1,0
1523614887198,131072,102,-56,-1,-1,0
1523614887235,327680,102,-56,-1,-1,0
1523614887235,589824,102,-56,-1,-1,0
1523614887235,786432,102,-56,-1,-1,0
1523614887235,1114112,102,-56,-1,-1,0
1523614887235,1376256,102,-56,-1,-1,0
1523614887278,1572864,102,-56,-1,-1,0
1523614887278,1769472,102,-56,-1,-1,0
1523614887278,1835008,102,-56,-1,-1,0
1523614887278,1638400,102,-56,-1,-1,0
1523614887278,1507328,102,-56,-1,-1,0
1523614887315,1376256,102,-56,-1,-1,0
1523614887315,983040,102,-56,-1,-1,0
1523614887315,393216,102,-56,-1,-1,0
1523614887315,0,102,-56,-1,-1,0
1523614887315,-327680,102,-56,-1,-1,0
1523614887355,-655360,102,-56,-1,-1,0
1523614887355,-720896,102,-56,-1,-1,0
1523614887355,-720896,102,-56,-1,-1,0
1523614887355,-851968,102,-56,-1,-1,0
1523614887355,-983040,102,-56,-1,-1,0
1523614887395,-1048576,102,-56,-1,-1,0
1523614887395,-1114112,102,-56,-1,-1,0
1523614887395,-1179648,102,-56,-1,-1,0
1523614887395,-1179648,102,-56,-1,-1,0
1523614887395,-983040,102,-56,-1,-1,0
1523614887435,-851968,102,-56,-1,-1,0
1523614887435,-917504,102,-56,-1,-1,0
1523614887435,-983040,102,-56,-1,-1,0
1523614887435,-983040,102,-56,-1,-1,0
1523614887435,-983040,102,-56,-1,-1,0
1523614887475,-917504,102,-56,-1,-1,0
1523614887475,-786432,102,-56,-1,-1,0
1523614887475,-851968,102,-56,-1,-1,0
1523614887475,-917504,102,-56,-1,-1,0
1523614887475,-917504,102,-56,-1,-1,0
1523614887515,-1048576,102,-56,-1,-1,0
1523614887515,-1114112,102,-56,-1,-1,0
1523614887515,-1048576,102,-56,-1,-1,0
1523614887515,-917504,102,-56,-1,-1,0
1523614887515,-917504,102,-56,-1,-1,0
1523614887556,-917504,102,-56,-1,-1,0
1523614887556,-851968,102,-56,-1,-1,0
1523614887556,-786432,102,-56,-1,-1,0
1523614887556,-786432,102,-56,-1,-1,0
1523614887556,-851968,102,-56,-1,-1,0
1523614887595,-917504,102,-56,-1,-1,0
1523614887595,-1179648,102,-56,-1,-1,0
1523614887595,-655360,102,-56,-1,-1,0
1523614887595,2555904,102,-56,-1,-1,0
1523614887595,6422528,102,-56,-1,-1,0
1523614887635,5570560,102,-56,-1,-1,0
1523614887635,1179648,102,-56,-1,-1,0
1523614887635,-1441792,102,-56,-1,-1,0
1523614887635,-1048576,102,-56,-1,-1,0
1523614887635,-720896,102,-56,-1,-1,0
1523614887675,-589824,102,-56,-1,-1,0
1523614887675,-524288,102,-56,-1,-1,0
1523614887675,-524288,102,-56,-1,-1,0
1523614887675,-524288,102,-56,-1,-1,0
1523614887675,-524288,102,-56,-1,-1,0
1523614887715,-458752,102,-56,-1,-1,0
1523614887715,-393216,102,-56,-1,-1,0
1523614887715,-262144,102,-56,-1,-1,0
1523614887715,-196608,102,-56,-1,-1,0
1523614887715,-131072,102,-56,-1,-1,0
1523614887755,0,102,-56,-1,-1,0
1523614887755,196608,102,-56,-1,-1,0
1523614887755,458752,102,-56,-1,-1,0
1523614887755,655360,102,-56,-1,-1,0
1523614887755,917504,102,-56,-1,-1,0
1523614887804,1114112,102,-56,-1,-1,0
1523614887804,1310720,102,-56,-1,-1,0
1523614887804,1376256,102,-56,-1,-1,0
1523614887804,1376256,102,-56,-1,-1,0
1523614887804,1245184,102,-56,-1,-1,0
1523614887835,1048576,102,-56,-1,-1,0
1523614887835,786432,102,-56,-1,-1,0
1523614887835,393216,102,-56,-1,-1,0
1523614887835,-65536,102,-56,-1,-1,0
1523614887835,-393216,102,-56,-1,-1,0
1523614887878,-655360,102,-56,-1,-1,0
1523614887878,-851968,102,-56,-1,-1,0
1523614887878,-917504,102,-56,-1,-1,0
1523614887878,-917504,102,-56,-1,-1,0
1523614887878,-983040,102,-56,-1,-1,0
1523614887915,-1048576,102,-56,-1,-1,0
1523614887915,-1048576,102,-56,-1,-1,0
1523614887915,-1114112,102,-56,-1,-1,0
1523614887915,-1114112,102,-56,-1,-1,0
1523614887915,-1114112,102,-56,-1,-1,0
1523614887955,-983040,102,-56,-1,-1,0
1523614887955,-917504,102,-56,-1,-1,0
1523614887955,-917504,102,-56,-1,-1,0
1523614887955,-917504,102,-56,-1,-1,0
1523614887955,-851968,102,-56,-1,-1,0
1523614887995,-851968,102,-56,-1,-1,0
1523614887995,-917504,102,-56,-1,-1,0
1523614887995,-917504,102,-56,-1,-1,0
1523614887995,-917504,102,-56,-1,-1,0
1523614887995,-983040,102,-56,-1,-1,0
1523614888035,-1048576,102,-56,-1,-1,0
1523614888035,-1114112,102,-56,-1,-1,0
1523614888035,-1245184,102,-56,-1,-1,0
1523614888035,-1376256,102,-56,-1,-1,0
1523614888035,-1376256,102,-56,-1,-1,0
1523614888075,-1245184,102,-56,-1,-1,0
1523614888075,-1245184,102,-56,-1,-1,0
1523614888075,-1310720,102,-56,-1,-1,0
1523614888075,-1245184,102,-56,-1,-1,0
1523614888075,-1179648,102,-56,-1,-1,0
1523614888115,-1114112,102,-56,-1,-1,0
1523614888115,-1179648,102,-56,-1,-1,0
1523614888115,-1245184,102,-56,-1,-1,0
1523614888115,-1572864,102,-56,-1,-1,0
1523614888115,-1835008,102,-56,-1,-1,0
1523614888155,-65536,102,-56,-1,-1,0
1523614888155,4521984,102,-56,-1,-1,0
1523614888155,7733248,102,-56,-1,-1,0
1523614888155,4915200,102,-56,-1,-1,0
1523614888155,458752,102,-56,-1,-1,0
1523614888195,-917504,102,-56,-1,-1,0
1523614888195,-720896,102,-56,-1,-1,0
1523614888195,-720896,102,-56,-1,-1,0
1523614888195,-851968,102,-56,-1,-1,0
1523614888195,-851968,102,-56,-1,-1,0
1523614888235,-786432,102,-56,-1,-1,0
1523614888235,-589824,102,-56,-1,-1,0
1523614888235,-589824,102,-56,-1,-1,0
1523614888235,-655360,102,-56,-1,-1,0
1523614888235,-786432,102,-56,-1,-1,0
1523614888275,-655360,102,-56,-1,-1,0
1523614888275,-589824,102,-56,-1,-1,0
1523614888275,-524288,102,-56,-1,-1,0
1523614888275,-458752,102,-56,-1,-1,0
1523614888275,-327680,102,-56,-1,-1,0
1523614888315,-65536,102,-56,-1,-1,0
1523614888315,196608,102,-56,-1,-1,0
1523614888315,458752,102,-56,-1,-1,0
1523614888315,786432,102,-56,-1,-1,0
1523614888315,1048576,102,-56,-1,-1,0
1523614888355,1048576,102,-56,-1,-1,0
1523614888355,851968,102,-56,-1,-1,0
1523614888355,720896,102,-56,-1,-1,0
1523614888355,589824,102,-56,-1,-1,0
1523614888355,458752,102,-56,-1,-1,0
1523614888395,131072,102,-56,-1,-1,0
1523614888395,-131072,102,-56,-1,-1,0
1523614888395,-262144,102,-56,-1,-1,0
1523614888395,-589824,102,-56,-1,-1,0
1523614888395,-1048576,102,-56,-1,-1,0
1523614888444,-1245184,102,-56,-1,-1,0
1523614888444,-1114112,102,-56,-1,-1,0
1523614888444,-1048576,102,-56,-1,-1,0
1523614888444,-983040,102,-56,-1,-1,0
1523614888444,-983040,102,-56,-1,-1,0
1523614888475,-983040,102,-56,-1,-1,0
1523614888475,-983040,102,-56,-1,-1,0
1523614888475,-983040,102,-56,-1,-1,0
1523614888475,-786432,102,-56,-1,-1,0
1523614888475,-589824,102,-56,-1,-1,0
1523614888515,-655360,104,-56,-1,-1,0
1523614888515,-786432,104,-56,-1,-1,0
1523614888515,-917504,104,-56,-1,-1,0
1523614888515,-1114112,104,-56,-1,-1,0
1523614888515,-917504,104,-56,-1,-1,0
1523614888555,-720896,104,-56,-1,-1,0
1523614888555,-786432,104,-56,-1,-1,0
1523614888555,-851968,104,-56,-1,-1,0
1523614888555,-655360,104,-56,-1,-1,0
1523614888555,-524288,104,-56,-1,-1,0
1523614888595,-393216,104,-56,-1,-1,0
1523614888595,-393216,104,-56,-1,-1,0
1523614888595,-720896,104,-56,-1,-1,0
1523614888595,-1245184,104,-56,-1,-1,0
1523614888595,-1310720,104,-56,-1,-1,0
1523614888635,-786432,104,-56,-1,-1,0
1523614888635,-655360,104,-56,-1,-1,0
1523614888635,-786432,104,-56,-1,-1,0
1523614888635,-983040,104,-56,-1,-1,0
1523614888635,-851968,104,-56,-1,-1,0
1523614888675,-917504,104,-56,-1,-1,0
1523614888675,-1310720,104,-56,-1,-1,0
1523614888675,-655360,104,-56,-1,-1,0
1523614888675,3080192,104,-56,-1,-1,0
1523614888675,7340032,104,-56,-1,-1,0
1523614888715,6553600,104,-56,-1,-1,0
1523614888715,2162688,104,-56,-1,-1,0
1523614888715,-655360,104,-56,-1,-1,0
1523614888715,-851968,104,-56,-1,-1,0
1523614888715,-720896,104,-56,-1,-1,0
1523614888755,-524288,104,-56,-1,-1,0
1523614888755,-589824,104,-56,-1,-1,0
1523614888755,-851968,104,-56,-1,-1,0
1523614888755,-589824,104,-56,-1,-1,0
1523614888755,-589824,104,-56,-1,-1,0
1523614888795,-786432,104,-56,-1,-1,0
1523614888795,-720896,104,-56,-1,-1,0
1523614888795,-327680,104,-56,-1,-1,0
1523614888795,0,104,-56,-1,-1,0
1523614888795,65536,104,-56,-1,-1,0
1523614888835,0,104,-56,-1,-1,0
1523614888835,-131072,104,-56,-1,-1,0
1523614888835,-65536,104,-56,-1,-1,0
1523614888835,131072,104,-56,-1,-1,0
1523614888835,262144,104,-56,-1,-1,0
1523614888875,589824,104,-56,-1,-1,0
1523614888875,1114112,104,-56,-1,-1,0
1523614888875,1310720,104,-56,-1,-1,0
1523614888875,1245184,104,-56,-1,-1,0
1523614888875,1114112,104,-56,-1,-1,0
1523614888915,983040,104,-56,-1,-1,0
1523614888915,589824,104,-56,-1,-1,0
1523614888915,262144,104,-56,-1,-1,0
1523614888915,0,104,-56,-1,-1,0
1523614888915,-196608,104,-56,-1,-1,0
1523614888955,-327680,104,-56,-1,-1,0
1523614888955,-393216,104,-56,-1,-1,0
1523614888955,-458752,104,-56,-1,-1,0
1523614888955,-589824,104,-56,-1,-1,0
1523614888955,-786432,104,-56,-1,-1,0
1523614888995,-917504,104,-56,-1,-1,0
1523614888995,-786432,104,-56,-1,-1,0
1523614888995,-786432,104,-56,-1,-1,0
1523614888995,-917504,104,-56,-1,-1,0
1523614888995,-917504,104,-56,-1,-1,0
1523614889035,-720896,104,-56,-1,-1,0
1523614889035,-393216,104,-56,-1,-1,0
1523614889035,-327680,104,-56,-1,-1,0
1523614889035,-524288,104,-56,-1,-1,0
1523614889035,-655360,104,-56,-1,-1,0
1523614889084,-786432,104,-56,-1,-1,0
1523614889084,-1114112,104,-56,-1,-1,0
1523614889084,-1048576,104,-56,-1,-1,0
1523614889084,-786432,104,-56,-1,-1,0
1523614889084,-393216,104,-56,-1,-1,0
1523614889115,-458752,105,-56,-1,-1,0
1523614889115,-458752,105,-56,-1,-1,0
1523614889115,-524288,105,-56,-1,-1,0
1523614889115,-655360,105,-56,-1,-1,0
1523614889115,-1114112,105,-56,-1,-1,0
1523614889155,-1048576,105,-56,-1,-1,0
1523614889155,-786432,105,-56,-1,-1,0
1523614889155,-851968,105,-56,-1,-1,0
1523614889155,-720896,105,-56,-1,-1,0
1523614889155,-851968,105,-56,-1,-1,0
1523614889195,-786432,105,-56,-1,-1,0
1523614889195,-851968,105,-56,-1,-1,0
1523614889195,-851968,105,-56,-1,-1,0
1523614889195,-851968,105,-56,-1,-1,0
1523614889195,-983040,105,-56,-1,-1,0
1523614889235,-1179648,105,-56,-1,-1,0
1523614889235,-524288,105,-56,-1,-1,0
1523614889235,3407872,105,-56,-1,-1,0
1523614889235,8060928,105,-56,-1,-1,0
1523614889235,7208960,105,-56,-1,-1,0
1523614889275,2424832,105,-56,-1,-1,0
1523614889275,-720896,105,-56,-1,-1,0
1523614889275,-655360,105,-56,-1,-1,0
1523614889275,-524288,105,-56,-1,-1,0
1523614889275,-589824,105,-56,-1,-1,0
1523614889315,-917504,105,-56,-1,-1,0
1523614889315,-917504,105,-56,-1,-1,0
1523614889315,-458752,105,-56,-1,-1,0
1523614889315,-393216,105,-56,-1,-1,0
1523614889315,-393216,105,-56,-1,-1,0
1523614889355,-196608,105,-56,-1,-1,0
1523614889355,-327680,105,-56,-1,-1,0
1523614889355,-786432,105,-56,-1,-1,0
1523614889355,-720896,105,-56,-1,-1,0
1523614889355,-327680,105,-56,-1,-1,0
1523614889395,-262144,105,-56,-1,-1,0
1523614889395,-196608,105,-56,-1,-1,0
1523614889395,65536,105,-56,-1,-1,0
1523614889395,327680,105,-56,-1,-1,0
1523614889395,655360,105,-56,-1,-1,0
1523614889435,917504,105,-56,-1,-1,0
1523614889435,917504,105,-56,-1,-1,0
1523614889435,1048576,105,-56,-1,-1,0
1523614889435,1048576,105,-56,-1,-1,0
1523614889435,786432,105,-56,-1,-1,0
1523614889475,393216,105,-56,-1,-1,0
1523614889475,196608,105,-56,-1,-1,0
1523614889475,0,105,-56,-1,-1,0
1523614889475,-393216,105,-56,-1,-1,0
1523614889475,-655360,105,-56,-1,-1,0
1523614889515,-458752,105,-56,-1,-1,0
1523614889515,-851968,105,-56,-1,-1,0
1523614889515,-1441792,105,-56,-1,-1,0
1523614889515,-1638400,105,-56,-1,-1,0
1523614889515,-1507328,105,-56,-1,-1,0
1523614889555,-1507328,105,-56,-1,-1,0
1523614889555,-1507328,105,-56,-1,-1,0
1523614889555,-1310720,105,-56,-1,-1,0
1523614889555,-1310720,105,-56,-1,-1,0
1523614889555,-1245184,105,-56,-1,-1,0
1523614889595,-1179648,105,-56,-1,-1,0
1523614889595,-1114112,105,-56,-1,-1,0
1523614889595,-1179648,105,-56,-1,-1,0
1523614889595,-983040,105,-56,-1,-1,0
1523614889595,-524288,105,-56,-1,-1,0
1523614889635,-393216,105,-56,-1,-1,0
1523614889635,-983040,105,-56,-1,-1,0
1523614889635,-1245184,105,-56,-1,-1,0
1523614889635,-1114112,105,-56,-1,-1,0
1523614889635,-1048576,105,-56,-1,-1,0
1523614889675,-983040,106,-56,-1,-1,0
1523614889675,-786432,106,-56,-1,-1,0
1523614889675,-655360,106,-56,-1,-1,0
1523614889675,-851968,106,-56,-1,-1,0
1523614889675,-786432,106,-56,-1,-1,0
1523614889724,-917504,106,-56,-1,-1,0
1523614889724,-1310720,106,-56,-1,-1,0
1523614889724,-1638400,106,-56,-1,-1,0
1523614889724,-1310720,106,-56,-1,-1,0
1523614889724,-917504,106,-56,-1,-1,0
1523614889755,-851968,106,-56,-1,-1,0
1523614889755,-851968,106,-56,-1,-1,0
1523614889755,-851968,106,-56,-1,-1,0
1523614889755,-983040,106,-56,-1,-1,0
1523614889755,-1114112,106,-56,-1,-1,0
1523614889795,-1310720,106,-56,-1,-1,0
1523614889795,-1703936,106,-56,-1,-1,0
1523614889795,-1376256,106,-56,-1,-1,0
1523614889795,1835008,106,-56,-1,-1,0
1523614889795,7929856,106,-56,-1,-1,0
1523614889835,10158080,106,-56,-1,-1,0
1523614889835,5242880,106,-56,-1,-1,0
1523614889835,-65536,106,-56,-1,-1,0
1523614889835,-786432,106,-56,-1,-1,0
1523614889835,-917504,106,-56,-1,-1,0
1523614889875,-1310720,106,-56,-1,-1,0
1523614889875,-983040,106,-56,-1,-1,0
1523614889875,-655360,106,-56,-1,-1,0
1523614889875,-589824,106,-56,-1,-1,0
1523614889875,0,106,-56,-1,-1,0
1523614889915,262144,106,-56,-1,-1,0
1523614889915,-524288,106,-56,-1,-1,0
1523614889915,-1114112,106,-56,-1,-1,0
1523614889915,-327680,106,-56,-1,-1,0
1523614889915,-65536,106,-56,-1,-1,0
1523614889957,-131072,106,-56,-1,-1,0
1523614889957,-131072,106,-56,-1,-1,0
1523614889957,327680,106,-56,-1,-1,0
1523614889957,786432,106,-56,-1,-1,0
1523614889957,1179648,106,-56,-1,-1,0
1523614889995,1245184,106,-56,-1,-1,0
1523614889995,1507328,106,-56,-1,-1,0
1523614889995,1507328,106,-56,-1,-1,0
1523614889995,1310720,106,-56,-1,-1,0
1523614889995,1572864,106,-56,-1,-1,0
1523614890035,1966080,106,-56,-1,-1,0
1523614890035,1441792,106,-56,-1,-1,0
1523614890035,786432,106,-56,-1,-1,0
1523614890035,327680,106,-56,-1,-1,0
1523614890035,-65536,106,-56,-1,-1,0
1523614890075,-393216,106,-56,-1,-1,0
1523614890075,-327680,106,-56,-1,-1,0
1523614890075,0,106,-56,-1,-1,0
1523614890075,196608,106,-56,-1,-1,0
1523614890075,-262144,106,-56,-1,-1,0
1523614890115,-983040,106,-56,-1,-1,0
1523614890115,-983040,106,-56,-1,-1,0
1523614890115,-851968,106,-56,-1,-1,0
1523614890115,-917504,106,-56,-1,-1,0
1523614890115,-851968,106,-56,-1,-1,0
1523614890155,-589824,106,-56,-1,-1,0
1523614890155,-262144,106,-56,-1,-1,0
1523614890155,-327680,106,-56,-1,-1,0
1523614890155,-196608,106,-56,-1,-1,0
1523614890155,0,106,-56,-1,-1,0
1523614890195,-262144,106,-56,-1,-1,0
1523614890195,-655360,106,-56,-1,-1,0
1523614890195,-524288,106,-56,-1,-1,0
1523614890195,-393216,106,-56,-1,-1,0
1523614890195,-524288,106,-56,-1,-1,0
1523614890235,-458752,106,-56,-1,-1,0
1523614890235,-65536,106,-56,-1,-1,0
1523614890235,0,106,-56,-1,-1,0
1523614890235,-262144,106,-56,-1,-1,0
1523614890235,-524288,106,-56,-1,-1,0
1523614890275,-327680,106,-56,-1,-1,0
1523614890275,-65536,106,-56,-1,-1,0
1523614890275,-131072,106,-56,-1,-1,0
1523614890275,-458752,106,-56,-1,-1,0
1523614890275,-589824,106,-56,-1,-1,0
1523614890315,-458752,106,-56,-1,-1,0
1523614890315,-262144,106,-56,-1,-1,0
1523614890315,-393216,106,-56,-1,-1,0
1523614890315,-655360,106,-56,-1,-1,0
1523614890315,-655360,106,-56,-1,-1,0
1523614890364,-458752,106,-56,-1,-1,0
1523614890364,-327680,106,-56,-1,-1,0
1523614890364,-262144,106,-56,-1,-1,0
1523614890364,-262144,106,-56,-1,-1,0
1523614890364,-589824,106,-56,-1,-1,0
1523614890395,-851968,106,-56,-1,-1,0
1523614890395,851968,106,-56,-1,-1,0
1523614890395,5963776,106,-56,-1,-1,0
1523614890395,10158080,106,-56,-1,-1,0
1523614890395,7405568,106,-56,-1,-1,0
1523614890435,1572864,106,-56,-1,-1,0
1523614890435,-655360,106,-56,-1,-1,0
1523614890435,-131072,106,-56,-1,-1,0
1523614890435,131072,106,-56,-1,-1,0
1523614890435,0,106,-56,-1,-1,0
1523614890475,65536,106,-56,-1,-1,0
1523614890475,65536,106,-56,-1,-1,0
1523614890475,196608,106,-56,-1,-1,0
1523614890475,131072,106,-56,-1,-1,0
1523614890475,65536,106,-56,-1,-1,0
1523614890515,0,106,-56,-1,-1,0
1523614890515,65536,106,-56,-1,-1,0
1523614890515,196608,106,-56,-1,-1,0
1523614890515,196608,106,-56,-1,-1,0
1523614890515,327680,106,-56,-1,-1,0
1523614890555,786432,106,-56,-1,-1,0
1523614890555,1114112,106,-56,-1,-1,0
1523614890555,1245184,106,-56,-1,-1,0
1523614890555,1376256,106,-56,-1,-1,0
1523614890555,1572864,106,-56,-1,-1,0
1523614890595,1703936,106,-56,-1,-1,0
1523614890595,1835008,106,-56,-1,-1,0
1523614890595,1835008,106,-56,-1,-1,0
1523614890595,1703936,106,-56,-1,-1,0
1523614890595,1507328,106,-56,-1,-1,0
1523614890635,1310720,106,-56,-1,-1,0
1523614890635,983040,106,-56,-1,-1,0
1523614890635,524288,106,-56,-1,-1,0
1523614890635,131072,106,-56,-1,-1,0
1523614890635,0,106,-56,-1,-1,0
1523614890675,-65536,106,-56,-1,-1,0
1523614890675,-131072,106,-56,-1,-1,0
1523614890675,-131072,106,-56,-1,-1,0
1523614890675,-196608,106,-56,-1,-1,0
1523614890675,-262144,106,-56,-1,-1,0
1523614890715,-262144,106,-56,-1,-1,0
1523614890715,-262144,106,-56,-1,-1,0
1523614890715,-262144,106,-56,-1,-1,0
1523614890715,-393216,106,-56,-1,-1,0
1523614890715,-393216,106,-56,-1,-1,0
1523614890755,-327680,106,-56,-1,-1,0
1523614890755,-393216,106,-56,-1,-1,0
1523614890755,-458752,106,-56,-1,-1,0
1523614890755,-393216,106,-56,-1,-1,0
1523614890755,-196608,106,-56,-1,-1,0
1523614890795,-196608,106,-56,-1,-1,0
1523614890795,-196608,106,-56,-1,-1,0
1523614890795,-196608,106,-56,-1,-1,0
1523614890795,-262144,106,-56,-1,-1,0
1523614890795,-262144,106,-56,-1,-1,0
1523614890835,-327680,106,-56,-1,-1,0
1523614890835,-262144,106,-56,-1,-1,0
1523614890835,-327680,106,-56,-1,-1,0
1523614890835,-327680,106,-56,-1,-1,0
1523614890835,-327680,106,-56,-1,-1,0
1523614890876,-393216,106,-56,-1,-1,0
1523614890876,-524288,106,-56,-1,-1,0
1523614890876,-786432,106,-56,-1,-1,0
1523614890876,-851968,106,-56,-1,-1,0
1523614890876,-720896,106,-56,-1,-1,0
1523614890915,-524288,106,-56,-1,-1,0
1523614890915,-458752,106,-56,-1,-1,0
1523614890915,-524288,106,-56,-1,-1,0
1523614890915,-524288,106,-56,-1,-1,0
1523614890915,-524288,106,-56,-1,-1,0
1523614890955,-589824,106,-56,-1,-1,0
1523614890955,-655360,106,-56,-1,-1,0
1523614890955,-524288,106,-56,-1,-1,0
1523614890955,-655360,106,-56,-1,-1,0
1523614890955,-1048576,106,-56,-1,-1,0
1523614891004,-196608,106,-56,-1,-1,0
1523614891004,3735552,106,-56,-1,-1,0
1523614891004,8847360,106,-56,-1,-1,0
1523614891004,8323072,106,-56,-1,-1,0
1523614891004,3145728,106,-56,-1,-1,0
1523614891035,-524288,106,-56,-1,-1,0
1523614891035,-524288,106,-56,-1,-1,0
1523614891035,-393216,106,-56,-1,-1,0
1523614891035,-524288,106,-56,-1,-1,0
1523614891035,-458752,106,-56,-1,-1,0
1523614891075,-327680,106,-56,-1,-1,0
1523614891075,-262144,106,-56,-1,-1,0
1523614891075,-262144,106,-56,-1,-1,0
1523614891075,-131072,106,-56,-1,-1,0
1523614891075,-196608,106,-56,-1,-1,0
1523614891115,-196608,106,-56,-1,-1,0
1523614891115,-65536,106,-56,-1,-1,0
1523614891115,65536,106,-56,-1,-1,0
1523614891115,196608,106,-56,-1,-1,0
1523614891115,196608,106,-56,-1,-1,0
1523614891155,262144,106,-56,-1,-1,0
1523614891155,524288,106,-56,-1,-1,0
1523614891155,786432,106,-56,-1,-1,0
1523614891155,983040,106,-56,-1,-1,0
1523614891155,1114112,106,-56,-1,-1,0
1523614891195,1310720,106,-56,-1,-1,0
1523614891195,1376256,106,-56,-1,-1,0
1523614891195,1376256,106,-56,-1,-1,0
1523614891195,1179648,106,-56,-1,-1,0
1523614891195,851968,106,-56,-1,-1,0
1523614891235,655360,106,-56,-1,-1,0
1523614891235,458752,106,-56,-1,-1,0
1523614891235,131072,106,-56,-1,-1,0
1523614891235,-262144,106,-56,-1,-1,0
1523614891235,-458752,106,-56,-1,-1,0
1523614891275,-524288,106,-56,-1,-1,0
1523614891275,-589824,106,-56,-1,-1,0
1523614891275,-720896,106,-56,-1,-1,0
1523614891275,-720896,106,-56,-1,-1,0
1523614891275,-655360,106,-56,-1,-1,0
1523614891315,-655360,106,-56,-1,-1,0
1523614891315,-655360,106,-56,-1,-1,0
1523614891315,-720896,106,-56,-1,-1,0
1523614891315,-655360,106,-56,-1,-1,0
1523614891315,-589824,106,-56,-1,-1,0
1523614891355,-524288,106,-56,-1,-1,0
1523614891355,-524288,106,-56,-1,-1,0
1523614891355,-524288,106,-56,-1,-1,0
1523614891355,-458752,106,-56,-1,-1,0
1523614891355,-393216,106,-56,-1,-1,0
1523614891395,-458752,106,-56,-1,-1,0
1523614891395,-524288,106,-56,-1,-1,0
1523614891395,-589824,106,-56,-1,-1,0
1523614891395,-524288,106,-56,-1,-1,0
1523614891395,-524288,106,-56,-1,-1,0
1523614891435,-655360,106,-56,-1,-1,0
1523614891435,-720896,106,-56,-1,-1,0
1523614891435,-589824,106,-56,-1,-1,0
1523614891435,-458752,106,-56,-1,-1,0
1523614891435,-589824,106,-56,-1,-1,0
1523614891475,-655360,106,-56,-1,-1,0
1523614891475,-655360,106,-56,-1,-1,0
1523614891475,-720896,106,-56,-1,-1,0
1523614891475,-851968,106,-56,-1,-1,0
1523614891475,-983040,106,-56,-1,-1,0
1523614891515,-983040,106,-56,-1,-1,0
1523614891515,-851968,106,-56,-1,-1,0
1523614891515,-720896,106,-56,-1,-1,0
1523614891515,-655360,106,-56,-1,-1,0
1523614891515,-655360,106,-56,-1,-1,0
1523614891555,-655360,106,-56,-1,-1,0
1523614891555,-655360,106,-56,-1,-1,0
1523614891555,-720896,106,-56,-1,-1,0
1523614891555,-786432,106,-56,-1,-1,0
1523614891555,-917504,106,-56,-1,-1,0
1523614891595,-1245184,106,-56,-1,-1,0
1523614891595,-851968,106,-56,-1,-1,0
1523614891595,2359296,106,-56,-1,-1,0
1523614891595,7667712,106,-56,-1,-1,0
1523614891595,8781824,106,-56,-1,-1,0
1523614891643,4194304,106,-56,-1,-1,0
1523614891643,-458752,106,-56,-1,-1,0
1523614891643,-983040,106,-56,-1,-1,0
1523614891643,-589824,106,-56,-1,-1,0
1523614891643,-655360,106,-56,-1,-1,0
1523614891675,-655360,106,-56,-1,-1,0
1523614891675,-524288,106,-56,-1,-1,0
1523614891675,-327680,106,-56,-1,-1,0
1523614891675,-327680,106,-56,-1,-1,0
1523614891675,-393216,106,-56,-1,-1,0
1523614891715,-393216,106,-56,-1,-1,0
1523614891715,-327680,106,-56,-1,-1,0
1523614891715,-131072,106,-56,-1,-1,0
1523614891715,-65536,106,-56,-1,-1,0
1523614891715,-65536,106,-56,-1,-1,0
1523614891755,0,106,-56,-1,-1,0
1523614891755,196608,106,-56,-1,-1,0
1523614891755,393216,106,-56,-1,-1,0
1523614891755,786432,106,-56,-1,-1,0
1523614891755,1114112,106,-56,-1,-1,0
1523614891795,1376256,106,-56,-1,-1,0
1523614891795,1310720,106,-56,-1,-1,0
1523614891795,1310720,106,-56,-1,-1,0
1523614891795,1179648,106,-56,-1,-1,0
1523614891795,1114112,106,-56,-1,-1,0
1523614891835,983040,106,-56,-1,-1,0
1523614891835,720896,106,-56,-1,-1,0
1523614891835,393216,106,-56,-1,-1,0
1523614891835,65536,106,-56,-1,-1,0
1523614891835,-65536,106,-56,-1,-1,0
1523614891875,-196608,106,-56,-1,-1,0
1523614891875,-327680,106,-56,-1,-1,0
1523614891875,-524288,106,-56,-1,-1,0
1523614891875,-655360,106,-56,-1,-1,0
1523614891875,-655360,106,-56,-1,-1,0
1523614891915,-786432,106,-56,-1,-1,0
1523614891915,-786432,106,-56,-1,-1,0
1523614891915,-786432,106,-56,-1,-1,0
1523614891915,-786432,106,-56,-1,-1,0
1523614891915,-786432,106,-56,-1,-1,0
1523614891955,-720896,106,-56,-1,-1,0
1523614891955,-589824,106,-56,-1,-1,0
1523614891955,-524288,106,-56,-1,-1,0
1523614891955,-458752,106,-56,-1,-1,0
1523614891955,-655360,106,-56,-1,-1,0
1523614891995,-655360,106,-56,-1,-1,0
1523614891995,-524288,106,-56,-1,-1,0
1523614891995,-458752,106,-56,-1,-1,0
1523614891995,-589824,106,-56,-1,-1,0
1523614891995,-720896,106,-56,-1,-1,0
1523614892035,-720896,106,-56,-1,-1,0
1523614892035,-720896,106,-56,-1,-1,0
1523614892035,-786432,106,-56,-1,-1,0
1523614892035,-720896,106,-56,-1,-1,0
1523614892035,-655360,106,-56,-1,-1,0
1523614892075,-720896,106,-56,-1,-1,0
1523614892075,-786432,106,-56,-1,-1,0
1523614892075,-786432,106,-56,-1,-1,0
1523614892075,-720896,106,-56,-1,-1,0
1523614892075,-720896,106,-56,-1,-1,0
1523614892115,-786432,106,-56,-1,-1,0
1523614892115,-851968,106,-56,-1,-1,0
1523614892115,-851968,106,-56,-1,-1,0
1523614892115,-786432,106,-56,-1,-1,0
1523614892115,-851968,106,-56,-1,-1,0
1523614892155,-917504,106,-56,-1,-1,0
1523614892155,-917504,106,-56,-1,-1,0
1523614892155,-851968,106,-56,-1,-1,0
1523614892155,-786432,106,-56,-1,-1,0
1523614892155,-786432,106,-56,-1,-1,0
1523614892195,-720896,106,-56,-1,-1,0
1523614892195,-983040,106,-56,-1,-1,0
1523614892195,-1245184,106,-56,-1,-1,0
1523614892195,0,106,-56,-1,-1,0
1523614892195,4325376,106,-56,-1,-1,0
1523614892235,9175040,106,-56,-1,-1,0
1523614892235,7733248,106,-56,-1,-1,0
1523614892235,2162688,106,-56,-1,-1,0
1523614892235,-1114112,106,-56,-1,-1,0
1523614892235,-917504,106,-56,-1,-1,0
1523614892284,-524288,106,-56,-1,-1,0
1523614892284,-458752,106,-56,-1,-1,0
1523614892284,-458752,106,-56,-1,-1,0
1523614892284,-524288,106,-56,-1,-1,0
1523614892284,-393216,106,-56,-1,-1,0
1523614892315,-327680,106,-56,-1,-1,0
1523614892315,-196608,106,-56,-1,-1,0
1523614892315,-65536,106,-56,-1,-1,0
1523614892315,0,106,-56,-1,-1,0
1523614892315,65536,106,-56,-1,-1,0
1523614892355,196608,106,-56,-1,-1,0
1523614892355,262144,106,-56,-1,-1,0
1523614892355,393216,106,-56,-1,-1,0
1523614892355,655360,106,-56,-1,-1,0
1523614892355,983040,106,-56,-1,-1,0
1523614892395,1179648,106,-56,-1,-1,0
1523614892395,1376256,106,-56,-1,-1,0
1523614892395,1507328,106,-56,-1,-1,0
1523614892395,1572864,106,-56,-1,-1,0
1523614892395,1638400,106,-56,-1,-1,0
1523614892435,1572864,106,-56,-1,-1,0
1523614892435,1441792,106,-56,-1,-1,0
1523614892435,1179648,106,-56,-1,-1,0
1523614892435,917504,106,-56,-1,-1,0
1523614892435,655360,106,-56,-1,-1,0
1523614892475,524288,106,-56,-1,-1,0
1523614892475,262144,106,-56,-1,-1,0
1523614892475,0,106,-56,-1,-1,0
1523614892475,-131072,106,-56,-1,-1,0
1523614892475,-196608,106,-56,-1,-1,0
1523614892515,-327680,106,-56,-1,-1,0
1523614892515,-393216,106,-56,-1,-1,0
1523614892515,-458752,106,-56,-1,-1,0
1523614892515,-458752,106,-56,-1,-1,0
1523614892515,-196608,106,-56,-1,-1,0
1523614892555,0,106,-56,-1,-1,0
1523614892555,0,106,-56,-1,-1,0
1523614892555,0,106,-56,-1,-1,0
1523614892555,0,106,-56,-1,-1,0
1523614892555,0,106,-56,-1,-1,0
1523614892595,0,106,-56,-1,-1,0
1523614892595,0,106,-56,-1,-1,0
1523614892595,0,106,-56,-1,-1,0
1523614892595,0,106,-56,-1,-1,0
1523614892595,65536,106,-56,-1,-1,0
1523614892635,131072,106,-56,-1,-1,0
1523614892635,131072,106,-56,-1,-1,0
1523614892635,65536,106,-56,-1,-1,0
1523614892635,65536,106,-56,-1,-1,0
1523614892635,0,106,-56,-1,-1,0
1523614892675,0,106,-56,-1,-1,0
1523614892675,0,106,-56,-1,-1,0
1523614892675,-65536,106,-56,-1,-1,0
1523614892675,-131072,106,-56,-1,-1,0
1523614892675,-131072,106,-56,-1,-1,0
1523614892715,-65536,106,-56,-1,-1,0
1523614892715,-131072,106,-56,-1,-1,0
1523614892715,-327680,106,-56,-1,-1,0
1523614892715,-458752,106,-56,-1,-1,0
1523614892715,-262144,106,-56,-1,-1,0
1523614892755,-196608,106,-56,-1,-1,0
1523614892755,-196608,106,-56,-1,-1,0
1523614892755,-65536,106,-56,-1,-1,0
1523614892755,-65536,106,-56,-1,-1,0
1523614892755,-262144,106,-56,-1,-1,0
1523614892796,-393216,106,-56,-1,-1,0
1523614892796,-458752,106,-56,-1,-1,0
1523614892796,-524288,106,-56,-1,-1,0
1523614892796,-589824,106,-56,-1,-1,0
1523614892796,0,106,-56,-1,-1,0
1523614892835,3014656,106,-56,-1,-1,0
1523614892835,7602176,106,-56,-1,-1,0
1523614892835,7667712,106,-56,-1,-1,0
1523614892835,2818048,106,-56,-1,-1,0
1523614892835,-1048576,106,-56,-1,-1,0
1523614892875,-983040,106,-56,-1,-1,0
1523614892875,-655360,106,-56,-1,-1,0
1523614892875,-720896,106,-56,-1,-1,0
1523614892875,-458752,106,-56,-1,-1,0
1523614892875,-393216,106,-56,-1,-1,0
1523614892924,-327680,106,-56,-1,-1,0
1523614892924,-327680,106,-56,-1,-1,0
1523614892924,-262144,106,-56,-1,-1,0
1523614892924,-327680,106,-56,-1,-1,0
1523614892924,-327680,106,-56,-1,-1,0
1523614892955,-196608,106,-56,-1,-1,0
1523614892955,0,106,-56,-1,-1,0
1523614892955,131072,106,-56,-1,-1,0
1523614892955,131072,106,-56,-1,-1,0
1523614892955,262144,106,-56,-1,-1,0
1523614892995,655360,106,-56,-1,-1,0
1523614892995,983040,106,-56,-1,-1,0
1523614892995,1114112,106,-56,-1,-1,0
1523614892995,1376256,106,-56,-1,-1,0
1523614892995,1441792,106,-56,-1,-1,0
1523614893035,1507328,106,-56,-1,-1,0
1523614893035,1441792,106,-56,-1,-1,0
1523614893035,1245184,106,-56,-1,-1,0
1523614893035,1048576,106,-56,-1,-1,0
1523614893035,655360,106,-56,-1,-1,0
1523614893075,196608,106,-56,-1,-1,0
1523614893075,-131072,106,-56,-1,-1,0
1523614893075,-458752,106,-56,-1,-1,0
1523614893075,-851968,106,-56,-1,-1,0
1523614893075,-1048576,106,-56,-1,-1,0
1523614893115,-1114112,106,-56,-1,-1,0
1523614893115,-1179648,106,-56,-1,-1,0
1523614893115,-1245184,106,-56,-1,-1,0
1523614893115,-1310720,106,-56,-1,-1,0
1523614893115,-1441792,106,-56,-1,-1,0
1523614893155,-1572864,106,-56,-1,-1,0
1523614893155,-1638400,106,-56,-1,-1,0
1523614893155,-1507328,106,-56,-1,-1,0
1523614893155,-1245184,106,-56,-1,-1,0
1523614893155,-983040,106,-56,-1,-1,0
1523614893195,-720896,106,-56,-1,-1,0
1523614893195,-589824,106,-56,-1,-1,0
1523614893195,-655360,106,-56,-1,-1,0
1523614893195,-720896,106,-56,-1,-1,0
1523614893195,-786432,106,-56,-1,-1,0
1523614893235,-917504,106,-56,-1,-1,0
1523614893235,-1048576,106,-56,-1,-1,0
1523614893235,-983040,106,-56,-1,-1,0
1523614893235,-983040,106,-56,-1,-1,0
1523614893235,-917504,106,-56,-1,-1,0
1523614893275,-917504,106,-56,-1,-1,0
1523614893275,-917504,106,-56,-1,-1,0
1523614893275,-851968,106,-56,-1,-1,0
1523614893275,-786432,106,-56,-1,-1,0
1523614893275,-851968,106,-56,-1,-1,0
1523614893315,-917504,106,-56,-1,-1,0
1523614893315,-917504,106,-56,-1,-1,0
1523614893315,-917504,106,-56,-1,-1,0
1523614893315,-983040,106,-56,-1,-1,0
1523614893315,-851968,106,-56,-1,-1,0
1523614893355,-851968,106,-56,-1,-1,0
1523614893355,-720896,106,-56,-1,-1,0
1523614893355,-589824,106,-56,-1,-1,0
1523614893355,-524288,106,-56,-1,-1,0
1523614893355,-655360,106,-56,-1,-1,0
1523614893395,-720896,106,-56,-1,-1,0
1523614893395,-1048576,106,-56,-1,-1,0
1523614893395,-851968,106,-56,-1,-1,0
1523614893395,1638400,106,-56,-1,-1,0
1523614893395,6356992,106,-56,-1,-1,0
1523614893435,7798784,106,-56,-1,-1,0
1523614893435,3670016,106,-56,-1,-1,0
1523614893435,-524288,106,-56,-1,-1,0
1523614893435,-1114112,106,-56,-1,-1,0
1523614893435,-655360,106,-56,-1,-1,0
1523614893475,-393216,106,-56,-1,-1,0
1523614893475,-262144,106,-56,-1,-1,0
1523614893475,-262144,106,-56,-1,-1,0
1523614893475,-327680,106,-56,-1,-1,0
1523614893475,-262144,106,-56,-1,-1,0
1523614893515,-196608,106,-56,-1,-1,0
1523614893515,-196608,106,-56,-1,-1,0
1523614893515,-131072,106,-56,-1,-1,0
1523614893515,0,106,-56,-1,-1,0
1523614893515,0,106,-56,-1,-1,0
1523614893564,65536,106,-56,-1,-1,0
1523614893564,327680,106,-56,-1,-1,0
1523614893564,589824,106,-56,-1,-1,0
1523614893564,720896,106,-56,-1,-1,0
1523614893564,983040,106,-56,-1,-1,0
1523614893595,1245184,106,-56,-1,-1,0
1523614893595,1703936,106,-56,-1,-1,0
1523614893595,1966080,106,-56,-1,-1,0
1523614893595,2031616,106,-56,-1,-1,0
1523614893595,1966080,106,-56,-1,-1,0
1523614893635,1638400,106,-56,-1,-1,0
1523614893635,1310720,106,-56,-1,-1,0
1523614893635,917504,106,-56,-1,-1,0
1523614893635,589824,106,-56,-1,-1,0
1523614893635,262144,106,-56,-1,-1,0
1523614893675,0,106,-56,-1,-1,0
1523614893675,-327680,106,-56,-1,-1,0
1523614893675,-524288,106,-56,-1,-1,0
1523614893675,-524288,106,-56,-1,-1,0
1523614893675,-458752,106,-56,-1,-1,0
1523614893716,-589824,106,-56,-1,-1,0
1523614893716,-786432,106,-56,-1,-1,0
1523614893716,-851968,106,-56,-1,-1,0
1523614893716,-786432,106,-56,-1,-1,0
1523614893716,-655360,106,-56,-1,-1,0
1523614893755,-458752,106,-56,-1,-1,0
1523614893755,-458752,106,-56,-1,-1,0
1523614893755,-393216,106,-56,-1,-1,0
1523614893755,-327680,106,-56,-1,-1,0
1523614893755,-327680,106,-56,-1,-1,0
1523614893795,-262144,106,-56,-1,-1,0
1523614893795,-196608,106,-56,-1,-1,0
1523614893795,-131072,106,-56,-1,-1,0
1523614893795,-262144,106,-56,-1,-1,0
1523614893795,-393216,106,-56,-1,-1,0
1523614893835,-393216,106,-56,-1,-1,0
1523614893835,-327680,106,-56,-1,-1,0
1523614893835,-393216,106,-56,-1,-1,0
1523614893835,-524288,106,-56,-1,-1,0
1523614893835,-524288,106,-56,-1,-1,0
1523614893875,-327680,106,-56,-1,-1,0
1523614893875,-131072,106,-56,-1,-1,0
1523614893875,-196608,106,-56,-1,-1,0
1523614893875,-458752,106,-56,-1,-1,0
1523614893875,-589824,106,-56,-1,-1,0
1523614893915,-655360,106,-56,-1,-1,0
1523614893915,-524288,106,-56,-1,-1,0
1523614893915,-393216,106,-56,-1,-1,0
1523614893915,-262144,106,-56,-1,-1,0
1523614893915,-262144,106,-56,-1,-1,0
1523614893955,-327680,106,-56,-1,-1,0
1523614893955,-327680,106,-56,-1,-1,0
1523614893955,-393216,106,-56,-1,-1,0
1523614893955,-524288,106,-56,-1,-1,0
1523614893955,-655360,106,-56,-1,-1,0
1523614893995,-917504,106,-56,-1,-1,0
1523614893995,-262144,106,-56,-1,-1,0
1523614893995,3276800,106,-56,-1,-1,0
1523614893995,7929856,106,-56,-1,-1,0
1523614893995,7536640,106,-56,-1,-1,0
1523614894035,2621440,106,-56,-1,-1,0
1523614894035,-983040,106,-56,-1,-1,0
1523614894035,-917504,106,-56,-1,-1,0
1523614894035,-524288,106,-56,-1,-1,0
1523614894035,-524288,106,-56,-1,-1,0
1523614894075,-458752,106,-56,-1,-1,0
1523614894075,-393216,106,-56,-1,-1,0
1523614894075,-327680,106,-56,-1,-1,0
1523614894075,-393216,106,-56,-1,-1,0
1523614894075,-327680,106,-56,-1,-1,0
1523614894115,-262144,106,-56,-1,-1,0
1523614894115,-196608,106,-56,-1,-1,0
1523614894115,-196608,106,-56,-1,-1,0
1523614894115,-131072,106,-56,-1,-1,0
1523614894115,0,106,-56,-1,-1,0
1523614894155,262144,106,-56,-1,-1,0
1523614894155,589824,106,-56,-1,-1,0
1523614894155,786432,106,-56,-1,-1,0
1523614894155,1048576,106,-56,-1,-1,0
1523614894155,1441792,106,-56,-1,-1,0
1523614894204,1703936,106,-56,-1,-1,0
1523614894204,1835008,106,-56,-1,-1,0
1523614894204,1966080,106,-56,-1,-1,0
1523614894204,1900544,106,-56,-1,-1,0
1523614894204,1638400,106,-56,-1,-1,0
1523614894235,1310720,106,-56,-1,-1,0
1523614894235,983040,106,-56,-1,-1,0
1523614894235,524288,106,-56,-1,-1,0
1523614894235,131072,106,-56,-1,-1,0
1523614894235,-131072,106,-56,-1,-1,0
1523614894275,-524288,106,-56,-1,-1,0
1523614894275,-655360,106,-56,-1,-1,0
1523614894275,-655360,106,-56,-1,-1,0
1523614894275,-851968,106,-56,-1,-1,0
1523614894275,-1114112,106,-56,-1,-1,0
1523614894315,-1245184,106,-56,-1,-1,0
1523614894315,-1179648,106,-56,-1,-1,0
1523614894315,-1245184,106,-56,-1,-1,0
1523614894315,-1179648,106,-56,-1,-1,0
1523614894315,-1048576,106,-56,-1,-1,0
1523614894355,-786432,106,-56,-1,-1,0
1523614894355,-655360,106,-56,-1,-1,0
1523614894355,-786432,106,-56,-1,-1,0
1523614894355,-851968,106,-56,-1,-1,0
1523614894355,-786432,106,-56,-1,-1,0
1523614894396,-786432,106,-56,-1,-1,0
1523614894396,-983040,106,-56,-1,-1,0
1523614894396,-1048576,106,-56,-1,-1,0
1523614894396,-786432,106,-56,-1,-1,0
1523614894396,-786432,106,-56,-1,-1,0
1523614894435,-983040,106,-56,-1,-1,0
1523614894435,-983040,106,-56,-1,-1,0
1523614894435,-851968,106,-56,-1,-1,0
1523614894435,-983040,106,-56,-1,-1,0
1523614894435,-1114112,106,-56,-1,-1,0
1523614894475,-983040,105,-56,-1,-1,0
1523614894475,-917504,105,-56,-1,-1,0
1523614894475,-1048576,105,-56,-1,-1,0
1523614894475,-1114112,105,-56,-1,-1,0
1523614894475,-1114112,105,-56,-1,-1,0
1523614894515,-1048576,105,-56,-1,-1,0
1523614894515,-1048576,105,-56,-1,-1,0
1523614894515,-1179648,105,-56,-1,-1,0
1523614894515,-1245184,105,-56,-1,-1,0
1523614894515,-1114112,105,-56,-1,-1,0
1523614894555,-983040,105,-56,-1,-1,0
1523614894555,-1048576,105,-56,-1,-1,0
1523614894555,-1179648,105,-56,-1,-1,0
1523614894555,-1376256,105,-56,-1,-1,0
1523614894555,-1114112,105,-56,-1,-1,0
1523614894595,1441792,105,-56,-1,-1,0
1523614894595,6291456,105,-56,-1,-1,0
1523614894595,7929856,105,-56,-1,-1,0
1523614894595,3932160,105,-56,-1,-1,0
1523614894595,-327680,105,-56,-1,-1,0
1523614894636,-1048576,105,-56,-1,-1,0
1523614894636,-851968,105,-56,-1,-1,0
1523614894636,-786432,105,-56,-1,-1,0
1523614894636,-524288,105,-56,-1,-1,0
1523614894636,-393216,105,-56,-1,-1,0
1523614894675,-655360,105,-56,-1,-1,0
1523614894675,-851968,105,-56,-1,-1,0
1523614894675,-524288,105,-56,-1,-1,0
1523614894675,-196608,105,-56,-1,-1,0
1523614894675,-589824,105,-56,-1,-1,0
1523614894715,-720896,105,-56,-1,-1,0
1523614894715,-393216,105,-56,-1,-1,0
1523614894715,0,105,-56,-1,-1,0
1523614894715,196608,105,-56,-1,-1,0
1523614894715,524288,105,-56,-1,-1,0
1523614894756,655360,105,-56,-1,-1,0
1523614894756,524288,105,-56,-1,-1,0
1523614894756,655360,105,-56,-1,-1,0
1523614894756,983040,105,-56,-1,-1,0
1523614894756,1310720,105,-56,-1,-1,0
1523614894795,1507328,105,-56,-1,-1,0
1523614894795,1376256,105,-56,-1,-1,0
1523614894795,851968,105,-56,-1,-1,0
1523614894795,655360,105,-56,-1,-1,0
1523614894795,589824,105,-56,-1,-1,0
1523614894844,131072,105,-56,-1,-1,0
1523614894844,-196608,105,-56,-1,-1,0
1523614894844,-458752,105,-56,-1,-1,0
1523614894844,-655360,105,-56,-1,-1,0
1523614894844,-720896,105,-56,-1,-1,0
1523614894875,-327680,105,-56,-1,-1,0
1523614894875,-327680,105,-56,-1,-1,0
1523614894875,-655360,105,-56,-1,-1,0
1523614894875,-851968,105,-56,-1,-1,0
1523614894875,-917504,105,-56,-1,-1,0
1523614894915,-917504,105,-56,-1,-1,0
1523614894915,-1245184,105,-56,-1,-1,0
1523614894915,-1507328,105,-56,-1,-1,0
1523614894915,-1114112,105,-56,-1,-1,0
1523614894915,-589824,105,-56,-1,-1,0
1523614894955,-655360,105,-56,-1,-1,0
1523614894955,-720896,105,-56,-1,-1,0
1523614894955,-720896,105,-56,-1,-1,0
1523614894955,-983040,105,-56,-1,-1,0
1523614894955,-983040,105,-56,-1,-1,0
1523614894995,-720896,105,-56,-1,-1,0
1523614894995,-589824,105,-56,-1,-1,0
1523614894995,-720896,105,-56,-1,-1,0
1523614894995,-917504,105,-56,-1,-1,0
1523614894995,-851968,105,-56,-1,-1,0
1523614895035,-720896,105,-56,-1,-1,0
1523614895035,-786432,105,-56,-1,-1,0
1523614895035,-786432,105,-56,-1,-1,0
1523614895035,-983040,105,-56,-1,-1,0
1523614895035,-1179648,105,-56,-1,-1,0
1523614895075,-1179648,104,-56,-1,-1,0
1523614895075,-1179648,104,-56,-1,-1,0
1523614895075,-1179648,104,-56,-1,-1,0
1523614895075,-1179648,104,-56,-1,-1,0
1523614895075,-1114112,104,-56,-1,-1,0
1523614895115,-1114112,104,-56,-1,-1,0
1523614895115,-1114112,104,-56,-1,-1,0
1523614895115,-1245184,104,-56,-1,-1,0
1523614895115,-1245184,104,-56,-1,-1,0
1523614895115,-1048576,104,-56,-1,-1,0
1523614895155,-851968,104,-56,-1,-1,0
1523614895155,-917504,104,-56,-1,-1,0
1523614895155,-1245184,104,-56,-1,-1,0
1523614895155,-983040,104,-56,-1,-1,0
1523614895155,1966080,104,-56,-1,-1,0
1523614895195,6881280,104,-56,-1,-1,0
1523614895195,7929856,104,-56,-1,-1,0
1523614895195,3604480,104,-56,-1,-1,0
1523614895195,-524288,104,-56,-1,-1,0
1523614895195,-983040,104,-56,-1,-1,0
1523614895235,-720896,104,-56,-1,-1,0
1523614895235,-786432,104,-56,-1,-1,0
1523614895235,-851968,104,-56,-1,-1,0
1523614895235,-786432,104,-56,-1,-1,0
1523614895235,-524288,104,-56,-1,-1,0
1523614895275,-458752,104,-56,-1,-1,0
1523614895275,-458752,104,-56,-1,-1,0
1523614895275,-458752,104,-56,-1,-1,0
1523614895275,-458752,104,-56,-1,-1,0
1523614895275,-393216,104,-56,-1,-1,0
1523614895315,-196608,104,-56,-1,-1,0
1523614895315,0,104,-56,-1,-1,0
1523614895315,65536,104,-56,-1,-1,0
1523614895315,131072,104,-56,-1,-1,0
1523614895315,262144,104,-56,-1,-1,0
1523614895355,655360,104,-56,-1,-1,0
1523614895355,983040,104,-56,-1,-1,0
1523614895355,1179648,104,-56,-1,-1,0
1523614895355,1310720,104,-56,-1,-1,0
1523614895355,1441792,104,-56,-1,-1,0
1523614895395,1376256,104,-56,-1,-1,0
1523614895395,1245184,104,-56,-1,-1,0
1523614895395,1048576,104,-56,-1,-1,0
1523614895395,786432,104,-56,-1,-1,0
1523614895395,458752,104,-56,-1,-1,0
1523614895435,196608,104,-56,-1,-1,0
1523614895435,-65536,104,-56,-1,-1,0
1523614895435,-262144,104,-56,-1,-1,0
1523614895435,-327680,104,-56,-1,-1,0
1523614895435,-458752,104,-56,-1,-1,0
1523614895484,-655360,104,-56,-1,-1,0
1523614895484,-720896,104,-56,-1,-1,0
1523614895484,-786432,104,-56,-1,-1,0
1523614895484,-851968,104,-56,-1,-1,0
1523614895484,-786432,104,-56,-1,-1,0
1523614895515,-786432,104,-56,-1,-1,0
1523614895515,-720896,104,-56,-1,-1,0
1523614895515,-655360,104,-56,-1,-1,0
1523614895515,-524288,104,-56,-1,-1,0
1523614895515,-458752,104,-56,-1,-1,0
1523614895555,-393216,104,-56,-1,-1,0
1523614895555,-393216,104,-56,-1,-1,0
1523614895555,-393216,104,-56,-1,-1,0
1523614895555,-327680,104,-56,-1,-1,0
1523614895555,-262144,104,-56,-1,-1,0
1523614895595,-393216,104,-56,-1,-1,0
1523614895595,-458752,104,-56,-1,-1,0
1523614895595,-458752,104,-56,-1,-1,0
1523614895595,-393216,104,-56,-1,-1,0
1523614895595,-393216,104,-56,-1,-1,0
1523614895635,-393216,103,-56,-1,-1,0
1523614895635,-393216,103,-56,-1,-1,0
1523614895635,-393216,103,-56,-1,-1,0
1523614895635,-458752,103,-56,-1,-1,0
1523614895635,-458752,103,-56,-1,-1,0
1523614895675,-458752,103,-56,-1,-1,0
1523614895675,-458752,103,-56,-1,-1,0
1523614895675,-393216,103,-56,-1,-1,0
1523614895675,-327680,103,-56,-1,-1,0
1523614895675,-393216,103,-56,-1,-1,0
1523614895715,-393216,103,-56,-1,-1,0
1523614895715,-327680,103,-56,-1,-1,0
1523614895715,-327680,103,-56,-1,-1,0
1523614895715,-327680,103,-56,-1,-1,0
1523614895715,-327680,103,-56,-1,-1,0
1523614895755,-393216,103,-56,-1,-1,0
1523614895755,-786432,103,-56,-1,-1,0
1523614895755,-786432,103,-56,-1,-1,0
1523614895755,1376256,103,-56,-1,-1,0
1523614895755,6356992,103,-56,-1,-1,0
1523614895795,9175040,103,-56,-1,-1,0
1523614895795,5570560,103,-56,-1,-1,0
1523614895795,524288,103,-56,-1,-1,0
1523614895795,-786432,103,-56,-1,-1,0
1523614895795,-327680,103,-56,-1,-1,0
1523614895835,-196608,103,-56,-1,-1,0
1523614895835,-196608,103,-56,-1,-1,0
1523614895835,-196608,103,-56,-1,-1,0
1523614895835,-196608,103,-56,-1,-1,0
1523614895835,-131072,103,-56,-1,-1,0
1523614895875,-65536,103,-56,-1,-1,0
1523614895875,0,103,-56,-1,-1,0
1523614895875,0,103,-56,-1,-1,0
1523614895875,131072,103,-56,-1,-1,0
1523614895875,196608,103,-56,-1,-1,0
1523614895915,262144,103,-56,-1,-1,0
1523614895915,327680,103,-56,-1,-1,0
1523614895915,524288,103,-56,-1,-1,0
1523614895915,720896,103,-56,-1,-1,0
1523614895915,917504,103,-56,-1,-1,0
1523614895955,1179648,103,-56,-1,-1,0
1523614895955,1376256,103,-56,-1,-1,0
1523614895955,1507328,103,-56,-1,-1,0
1523614895955,1638400,103,-56,-1,-1,0
1523614895955,1638400,103,-56,-1,-1,0
1523614895995,1507328,103,-56,-1,-1,0
1523614895995,1310720,103,-56,-1,-1,0
1523614895995,1114112,103,-56,-1,-1,0
1523614895995,786432,103,-56,-1,-1,0
1523614895995,393216,103,-56,-1,-1,0
1523614896035,65536,103,-56,-1,-1,0
1523614896035,-131072,103,-56,-1,-1,0
1523614896035,-327680,103,-56,-1,-1,0
1523614896035,-458752,103,-56,-1,-1,0
1523614896035,-458752,103,-56,-1,-1,0
1523614896075,-524288,103,-56,-1,-1,0
1523614896075,-524288,103,-56,-1,-1,0
1523614896075,-589824,103,-56,-1,-1,0
1523614896075,-589824,103,-56,-1,-1,0
1523614896075,-524288,103,-56,-1,-1,0
1523614896124,-458752,103,-56,-1,-1,0
1523614896124,-458752,103,-56,-1,-1,0
1523614896124,-393216,103,-56,-1,-1,0
1523614896124,-327680,103,-56,-1,-1,0
1523614896124,-262144,103,-56,-1,-1,0
1523614896155,-262144,103,-56,-1,-1,0
1523614896155,-262144,103,-56,-1,-1,0
1523614896155,-262144,103,-56,-1,-1,0
1523614896155,-327680,103,-56,-1,-1,0
1523614896155,-393216,103,-56,-1,-1,0
1523614896195,-524288,103,-56,-1,-1,0
1523614896195,-589824,103,-56,-1,-1,0
1523614896195,-524288,103,-56,-1,-1,0
1523614896195,-458752,103,-56,-1,-1,0
1523614896195,-458752,103,-56,-1,-1,0
1523614896235,-589824,102,-56,-1,-1,0
1523614896235,-655360,102,-56,-1,-1,0
1523614896235,-655360,102,-56,-1,-1,0
1523614896235,-655360,102,-56,-1,-1,0
1523614896235,-720896,102,-56,-1,-1,0
1523614896275,-720896,102,-56,-1,-1,0
1523614896275,-655360,102,-56,-1,-1,0
1523614896275,-655360,102,-56,-1,-1,0
1523614896275,-786432,102,-56,-1,-1,0
1523614896275,-786432,102,-56,-1,-1,0
1523614896315,-720896,102,-56,-1,-1,0
1523614896315,-589824,102,-56,-1,-1,0
1523614896315,-589824,102,-56,-1,-1,0
1523614896315,-655360,102,-56,-1,-1,0
1523614896315,-720896,102,-56,-1,-1,0
1523614896355,-983040,102,-56,-1,-1,0
1523614896355,-1179648,102,-56,-1,-1,0
1523614896355,-65536,102,-56,-1,-1,0
1523614896355,4063232,102,-56,-1,-1,0
1523614896355,8257536,102,-56,-1,-1,0
1523614896395,6291456,102,-56,-1,-1,0
1523614896395,983040,102,-56,-1,-1,0
1523614896395,-1638400,102,-56,-1,-1,0
1523614896395,-983040,102,-56,-1,-1,0
1523614896395,-524288,102,-56,-1,-1,0
1523614896435,-524288,102,-56,-1,-1,0
1523614896435,-524288,102,-56,-1,-1,0
1523614896435,-589824,102,-56,-1,-1,0
1523614896435,-458752,102,-56,-1,-1,0
1523614896435,-327680,102,-56,-1,-1,0
1523614896475,-262144,102,-56,-1,-1,0
1523614896475,-262144,102,-56,-1,-1,0
1523614896475,-196608,102,-56,-1,-1,0
1523614896475,-131072,102,-56,-1,-1,0
1523614896475,0,102,-56,-1,-1,0
1523614896515,131072,102,-56,-1,-1,0
1523614896515,262144,102,-56,-1,-1,0
1523614896515,524288,102,-56,-1,-1,0
1523614896515,917504,102,-56,-1,-1,0
1523614896515,1114112,102,-56,-1,-1,0
1523614896555,1245184,102,-56,-1,-1,0
1523614896555,1507328,102,-56,-1,-1,0
1523614896555,1769472,102,-56,-1,-1,0
1523614896555,1769472,102,-56,-1,-1,0
1523614896555,1572864,102,-56,-1,-1,0
1523614896597,1245184,102,-56,-1,-1,0
1523614896597,917504,102,-56,-1,-1,0
1523614896597,589824,102,-56,-1,-1,0
1523614896597,131072,102,-56,-1,-1,0
1523614896597,-262144,102,-56,-1,-1,0
1523614896635,-524288,102,-56,-1,-1,0
1523614896635,-655360,102,-56,-1,-1,0
1523614896635,-786432,102,-56,-1,-1,0
1523614896635,-983040,102,-56,-1,-1,0
1523614896635,-1114112,102,-56,-1,-1,0
1523614896675,-1114112,102,-56,-1,-1,0
1523614896675,-1179648,102,-56,-1,-1,0
1523614896675,-1114112,102,-56,-1,-1,0
1523614896675,-983040,102,-56,-1,-1,0
1523614896675,-917504,102,-56,-1,-1,0
1523614896716,-917504,102,-56,-1,-1,0
1523614896716,-851968,102,-56,-1,-1,0
1523614896716,-786432,102,-56,-1,-1,0
1523614896716,-720896,102,-56,-1,-1,0
1523614896716,-786432,102,-56,-1,-1,0
1523614896765,-720896,102,-56,-1,-1,0
1523614896765,-655360,102,-56,-1,-1,0
1523614896765,-720896,102,-56,-1,-1,0
1523614896765,-786432,102,-56,-1,-1,0
1523614896765,-720896,102,-56,-1,-1,0
1523614896795,-720896,102,-56,-1,-1,0
1523614896795,-786432,102,-56,-1,-1,0
1523614896795,-786432,102,-56,-1,-1,0
1523614896795,-851968,102,-56,-1,-1,0
1523614896795,-917504,102,-56,-1,-1,0
1523614896835,-983040,102,-56,-1,-1,0
1523614896835,-1048576,102,-56,-1,-1,0
1523614896835,-1114112,102,-56,-1,-1,0
1523614896835,-1048576,102,-56,-1,-1,0
1523614896835,-983040,102,-56,-1,-1,0
1523614896875,-851968,102,-56,-1,-1,0
1523614896875,-851968,102,-56,-1,-1,0
1523614896875,-851968,102,-56,-1,-1,0
1523614896875,-851968,102,-56,-1,-1,0
1523614896875,-786432,102,-56,-1,-1,0
1523614896915,-720896,102,-56,-1,-1,0
1523614896915,-720896,102,-56,-1,-1,0
1523614896915,-851968,102,-56,-1,-1,0
1523614896915,-1179648,102,-56,-1,-1,0
1523614896915,-1376256,102,-56,-1,-1,0
1523614896955,-65536,102,-56,-1,-1,0
1523614896955,3997696,102,-56,-1,-1,0
1523614896955,7733248,102,-56,-1,-1,0
1523614896955,5439488,102,-56,-1,-1,0
1523614896955,458752,102,-56,-1,-1,0
1523614896995,-1703936,102,-56,-1,-1,0
1523614896995,-1048576,102,-56,-1,-1,0
1523614896995,-589824,102,-56,-1,-1,0
1523614896995,-589824,102,-56,-1,-1,0
1523614896995,-589824,102,-56,-1,-1,0
1523614897035,-589824,102,-56,-1,-1,0
1523614897035,-458752,102,-56,-1,-1,0
1523614897035,-393216,102,-56,-1,-1,0
1523614897035,-196608,102,-56,-1,-1,0
1523614897035,-131072,102,-56,-1,-1,0
1523614897075,-65536,102,-56,-1,-1,0
1523614897075,0,102,-56,-1,-1,0
1523614897075,65536,102,-56,-1,-1,0
1523614897075,196608,102,-56,-1,-1,0
1523614897075,393216,102,-56,-1,-1,0
1523614897115,524288,102,-56,-1,-1,0
1523614897115,786432,102,-56,-1,-1,0
1523614897115,1114112,102,-56,-1,-1,0
1523614897115,1310720,102,-56,-1,-1,0
1523614897115,1572864,102,-56,-1,-1,0
1523614897155,1703936,102,-56,-1,-1,0
1523614897155,1769472,102,-56,-1,-1,0
1523614897155,1572864,102,-56,-1,-1,0
1523614897155,1310720,102,-56,-1,-1,0
1523614897155,1048576,102,-56,-1,-1,0
1523614897195,786432,102,-56,-1,-1,0
1523614897195,262144,102,-56,-1,-1,0
1523614897195,-131072,102,-56,-1,-1,0
1523614897195,-393216,102,-56,-1,-1,0
1523614897195,-458752,102,-56,-1,-1,0
1523614897235,-589824,102,-56,-1,-1,0
1523614897235,-720896,102,-56,-1,-1,0
1523614897235,-786432,102,-56,-1,-1,0
1523614897235,-720896,102,-56,-1,-1,0
1523614897235,-786432,102,-56,-1,-1,0
1523614897275,-786432,102,-56,-1,-1,0
1523614897275,-720896,102,-56,-1,-1,0
1523614897275,-589824,102,-56,-1,-1,0
1523614897275,-524288,102,-56,-1,-1,0
1523614897275,-524288,102,-56,-1,-1,0
1523614897315,-458752,102,-56,-1,-1,0
1523614897315,-327680,102,-56,-1,-1,0
1523614897315,-327680,102,-56,-1,-1,0
1523614897315,-327680,102,-56,-1,-1,0
1523614897315,-393216,102,-56,-1,-1,0
1523614897355,-327680,102,-56,-1,-1,0
1523614897355,-327680,102,-56,-1,-1,0
1523614897355,-393216,102,-56,-1,-1,0
1523614897355,-458752,102,-56,-1,-1,0
1523614897355,-524288,102,-56,-1,-1,0
1523614897404,-458752,102,-56,-1,-1,0
1523614897404,-458752,102,-56,-1,-1,0
1523614897404,-458752,102,-56,-1,-1,0
1523614897404,-458752,102,-56,-1,-1,0
1523614897404,-524288,102,-56,-1,-1,0
1523614897435,-589824,102,-56,-1,-1,0
1523614897435,-655360,102,-56,-1,-1,0
1523614897435,-655360,102,-56,-1,-1,0
1523614897435,-655360,102,-56,-1,-1,0
1523614897435,-589824,102,-56,-1,-1,0
1523614897475,-524288,102,-56,-1,-1,0
1523614897475,-524288,102,-56,-1,-1,0
1523614897475,-589824,102,-56,-1,-1,0
1523614897475,-720896,102,-56,-1,-1,0
1523614897475,-720896,102,-56,-1,-1,0
1523614897515,-655360,102,-56,-1,-1,0
1523614897515,-589824,102,-56,-1,-1,0
1523614897515,-786432,102,-56,-1,-1,0
1523614897515,-1114112,102,-56,-1,-1,0
1523614897515,-983040,102,-56,-1,-1,0
1523614897555,1376256,102,-56,-1,-1,0
1523614897555,6225920,102,-56,-1,-1,0
1523614897555,8716288,102,-56,-1,-1,0
1523614897555,5111808,102,-56,-1,-1,0
1523614897555,262144,102,-56,-1,-1,0
1523614897595,-851968,102,-56,-1,-1,0
1523614897595,-589824,102,-56,-1,-1,0
1523614897595,-524288,102,-56,-1,-1,0
1523614897595,-589824,102,-56,-1,-1,0
1523614897595,-589824,102,-56,-1,-1,0
1523614897635,-589824,102,-56,-1,-1,0
1523614897635,-458752,102,-56,-1,-1,0
1523614897635,-393216,102,-56,-1,-1,0
1523614897635,-327680,102,-56,-1,-1,0
1523614897635,-262144,102,-56,-1,-1,0
1523614897675,-196608,102,-56,-1,-1,0
1523614897675,-131072,102,-56,-1,-1,0
1523614897675,-65536,102,-56,-1,-1,0
1523614897675,0,102,-56,-1,-1,0
1523614897675,131072,102,-56,-1,-1,0
1523614897715,393216,102,-56,-1,-1,0
1523614897715,655360,102,-56,-1,-1,0
1523614897715,917504,102,-56,-1,-1,0
1523614897715,1114112,102,-56,-1,-1,0
1523614897715,1245184,102,-56,-1,-1,0
1523614897755,1376256,102,-56,-1,-1,0
1523614897755,1376256,102,-56,-1,-1,0
1523614897755,1310720,102,-56,-1,-1,0
1523614897755,1114112,102,-56,-1,-1,0
1523614897755,720896,102,-56,-1,-1,0
1523614897795,327680,102,-56,-1,-1,0
1523614897795,0,102,-56,-1,-1,0
1523614897795,-262144,102,-56,-1,-1,0
1523614897795,-524288,102,-56,-1,-1,0
1523614897795,-786432,102,-56,-1,-1,0
1523614897835,-851968,102,-56,-1,-1,0
1523614897835,-917504,102,-56,-1,-1,0
1523614897835,-1048576,102,-56,-1,-1,0
1523614897835,-1179648,102,-56,-1,-1,0
