milliseconds, ECG, ECG HR, PPG, PPG HR, SpO2, PI
0,-1310720,95,-56,-1,-1,0
33,-524288,95,-56,-1,-1,0
66,-327680,95,-56,-1,-1,0
100,0,95,-56,-1,-1,0
133,1966080,95,-56,-1,-1,0
166,786432,95,-56,-1,-1,0
200,-196608,95,-56,-1,-1,0
233,-393216,95,-56,-1,-1,0
266,-262144,95,-56,-1,-1,0
300,-65536,95,-56,-1,-1,0
333,0,95,-56,-1,-1,0
366,-262144,95,-56,-1,-1,0
400,-327680,95,-56,-1,-1,0
433,-589824,95,-56,-1,-1,0
466,-524288,94,-56,-1,-1,0
500,-524288,94,-56,-1,-1,0
533,4784128,94,-56,-1,-1,0
566,-1179648,94,-56,-1,-1,0
600,-851968,94,-56,-1,-1,0
633,-458752,94,-56,-1,-1,0
666,0,94,-56,-1,-1,0
700,1835008,94,-56,-1,-1,0
733,1114112,94,-56,-1,-1,0
766,0,94,-56,-1,-1,0
800,-262144,94,-56,-1,-1,0
833,0,94,-56,-1,-1,0
866,0,94,-56,-1,-1,0
900,65536,94,-56,-1,-1,0
933,0,94,-56,-1,-1,0
966,-196608,94,-56,-1,-1,0
1000,131072,93,-56,-1,-1,0
1033,-131072,93,-56,-1,-1,0
1066,4063232,93,-56,-1,-1,0
1100,-1114112,93,-56,-1,-1,0
1133,-65536,93,-56,-1,-1,0
1166,0,93,-56,-1,-1,0
1200,851968,93,-56,-1,-1,0
1233,2359296,93,-56,-1,-1,0
1266,1114112,93,-56,-1,-1,0
1300,-196608,93,-56,-1,-1,0
1333,-524288,93,-56,-1,-1,0
1366,-327680,93,-56,-1,-1,0
1400,-327680,93,-56,-1,-1,0
1433,-524288,93,-56,-1,-1,0
1466,-393216,93,-56,-1,-1,0
1500,-851968,93,-56,-1,-1,0
1533,-458752,93,-56,-1,-1,0
1566,-851968,93,-56,-1,-1,0
1600,4849664,93,-56,-1,-1,0
1633,-1441792,93,-56,-1,-1,0
1666,-720896,93,-56,-1,-1,0
1700,-720896,93,-56,-1,-1,0
1733,262144,93,-56,-1,-1,0
1766,1835008,93,-56,-1,-1,0
1800,327680,93,-56,-1,-1,0
1833,-983040,93,-56,-1,-1,0
1866,-786432,93,-56,-1,-1,0
1900,-589824,93,-56,-1,-1,0
1933,-655360,93,-56,-1,-1,0
1966,-589824,93,-56,-1,-1,0
2000,-786432,93,-56,-1,-1,0
2033,-1179648,93,-56,-1,-1,0
2066,-983040,92,-56,-1,-1,0
2100,-983040,92,-56,-1,-1,0
2133,-1572864,92,-56,-1,-1,0
2166,1048576,92,-56,-1,-1,0
2200,-1048576,92,-56,-1,-1,0
2233,-851968,92,-56,-1,-1,0
2266,-524288,92,-56,-1,-1,0
2300,524288,92,-56,-1,-1,0
2333,1179648,92,-56,-1,-1,0
2366,-524288,92,-56,-1,-1,0
2400,-917504,92,-56,-1,-1,0
2433,-983040,92,-56,-1,-1,0
2466,-786432,92,-56,-1,-1,0
2500,-786432,92,-56,-1,-1,0
2533,-851968,92,-56,-1,-1,0
2566,-851968,92,-56,-1,-1,0
2600,-786432,92,-56,-1,-1,0
2633,-983040,92,-56,-1,-1,0
2666,-1572864,92,-56,-1,-1,0
2700,1245184,92,-56,-1,-1,0
2733,-1114112,92,-56,-1,-1,0
2766,-786432,92,-56,-1,-1,0
2800,-327680,92,-56,-1,-1,0
2833,1114112,92,-56,-1,-1,0
2866,2031616,92,-56,-1,-1,0
2900,393216,92,-56,-1,-1,0
2933,-131072,92,-56,-1,-1,0
2966,196608,92,-56,-1,-1,0
3000,524288,92,-56,-1,-1,0
3033,524288,92,-56,-1,-1,0
3066,720896,93,-56,-1,-1,0
3100,1048576,93,-56,-1,-1,0
3133,1638400,93,-56,-1,-1,0
3166,1310720,93,-56,-1,-1,0
3200,3735552,93,-56,-1,-1,0
3233,2752512,93,-56,-1,-1,0
3266,2621440,93,-56,-1,-1,0
3300,3473408,93,-56,-1,-1,0
3333,4849664,93,-56,-1,-1,0
3366,4915200,93,-56,-1,-1,0
3400,1769472,93,-56,-1,-1,0
3433,196608,93,-56,-1,-1,0
3466,-393216,93,-56,-1,-1,0
3500,-589824,93,-56,-1,-1,0
3533,-655360,93,-56,-1,-1,0
3566,-851968,94,-56,-1,-1,0
3600,-786432,94,-56,-1,-1,0
3633,-1376256,94,-56,-1,-1,0
3666,-393216,94,-56,-1,-1,0
3699,-2293760,94,-56,-1,-1,0
3733,-1966080,94,-56,-1,-1,0
3766,-1900544,94,-56,-1,-1,0
3800,-1572864,94,-56,-1,-1,0
3833,-196608,94,-56,-1,-1,0
3866,-589824,94,-56,-1,-1,0
3900,-2162688,94,-56,-1,-1,0
3933,-2228224,94,-56,-1,-1,0
3966,-1966080,94,-56,-1,-1,0
4000,-1835008,94,-56,-1,-1,0
4033,-1769472,94,-56,-1,-1,0
4066,-1703936,94,-56,-1,-1,0
4100,-1638400,95,-56,-1,-1,0
4133,-1572864,95,-56,-1,-1,0
4166,-2097152,95,-56,-1,-1,0
4200,3080192,95,-56,-1,-1,0
4233,-1769472,95,-56,-1,-1,0
4266,-1310720,95,-56,-1,-1,0
4300,-1114112,95,-56,-1,-1,0
4333,65536,95,-56,-1,-1,0
4366,1441792,95,-56,-1,-1,0
4400,-131072,95,-56,-1,-1,0
4433,-720896,95,-56,-1,-1,0
4466,-655360,95,-56,-1,-1,0
4500,-458752,95,-56,-1,-1,0
4533,-393216,95,-56,-1,-1,0
4566,-393216,95,-56,-1,-1,0
4600,-589824,96,-56,-1,-1,0
4633,-393216,96,-56,-1,-1,0
4666,-393216,96,-56,-1,-1,0
4700,4915200,96,-56,-1,-1,0
4733,-851968,96,-56,-1,-1,0
4766,-393216,96,-56,-1,-1,0
4800,-131072,96,-56,-1,-1,0
4833,524288,96,-56,-1,-1,0
4866,2228224,96,-56,-1,-1,0
4900,1114112,96,-56,-1,-1,0
4933,-196608,96,-56,-1,-1,0
4966,-65536,96,-56,-1,-1,0
5000,-131072,96,-56,-1,-1,0
5033,-262144,96,-56,-1,-1,0
5066,-262144,96,-56,-1,-1,0
5100,-327680,96,-56,-1,-1,0
5133,-327680,96,-56,-1,-1,0
5166,-327680,96,-56,-1,-1,0
5200,-1048576,96,-56,-1,-1,0
5233,-786432,96,-56,-1,-1,0
5266,-983040,96,-56,-1,-1,0
5300,-720896,96,-56,-1,-1,0
5333,0,96,-56,-1,-1,0
5366,1572864,96,-56,-1,-1,0
5400,-131072,96,-56,-1,-1,0
5433,-655360,96,-56,-1,-1,0
5466,-1048576,96,-56,-1,-1,0
5500,-720896,96,-56,-1,-1,0
5533,-524288,96,-56,-1,-1,0
5566,-655360,96,-56,-1,-1,0
5600,-589824,96,-56,-1,-1,0
5633,-655360,96,-56,-1,-1,0
5666,-393216,96,-56,-1,-1,0
5700,-589824,96,-56,-1,-1,0
5733,-917504,96,-56,-1,-1,0
5766,917504,96,-56,-1,-1,0
5800,-327680,96,-56,-1,-1,0
5833,65536,96,-56,-1,-1,0
5866,327680,96,-56,-1,-1,0
5900,2818048,96,-56,-1,-1,0
5933,3670016,96,-56,-1,-1,0
5966,2031616,96,-56,-1,-1,0
6000,1376256,96,-56,-1,-1,0
6033,524288,96,-56,-1,-1,0
6066,327680,96,-56,-1,-1,0
6100,131072,96,-56,-1,-1,0
6133,-327680,96,-56,-1,-1,0
6166,-327680,96,-56,-1,-1,0
6200,-458752,96,-56,-1,-1,0
6233,-983040,96,-56,-1,-1,0
6266,4325376,96,-56,-1,-1,0
6300,-1245184,96,-56,-1,-1,0
6333,-851968,96,-56,-1,-1,0
6366,-589824,96,-56,-1,-1,0
6400,262144,96,-56,-1,-1,0
6433,1638400,96,-56,-1,-1,0
6466,-196608,96,-56,-1,-1,0
6500,-1114112,96,-56,-1,-1,0
6533,-720896,96,-56,-1,-1,0
6566,-589824,96,-56,-1,-1,0
6600,-458752,96,-56,-1,-1,0
6633,-458752,96,-56,-1,-1,0
6666,-655360,96,-56,-1,-1,0
6700,-524288,96,-56,-1,-1,0
6733,-131072,96,-56,-1,-1,0
6766,-262144,96,-56,-1,-1,0
6800,524288,95,-56,-1,-1,0
6833,-655360,95,-56,-1,-1,0
6866,-262144,95,-56,-1,-1,0
6899,0,95,-56,-1,-1,0
6933,131072,95,-56,-1,-1,0
6966,1835008,95,-56,-1,-1,0
7000,1835008,95,-56,-1,-1,0
7033,65536,95,-56,-1,-1,0
7066,0,95,-56,-1,-1,0
7100,-65536,95,-56,-1,-1,0
7133,0,95,-56,-1,-1,0
7166,0,95,-56,-1,-1,0
7200,-65536,95,-56,-1,-1,0
7233,-65536,95,-56,-1,-1,0
7266,-262144,95,-56,-1,-1,0
7300,-262144,95,-56,-1,-1,0
7333,-131072,95,-56,-1,-1,0
7366,-131072,95,-56,-1,-1,0
7399,3276800,95,-56,-1,-1,0
7433,-720896,94,-56,-1,-1,0
7466,-196608,94,-56,-1,-1,0
7500,-196608,94,-56,-1,-1,0
7533,196608,94,-56,-1,-1,0
7566,1507328,94,-56,-1,-1,0
7600,983040,94,-56,-1,-1,0
7633,-196608,94,-56,-1,-1,0
7666,-589824,94,-56,-1,-1,0
7700,-458752,94,-56,-1,-1,0
7733,-589824,94,-56,-1,-1,0
7766,-393216,94,-56,-1,-1,0
7800,-524288,94,-56,-1,-1,0
7833,-262144,94,-56,-1,-1,0
7866,-393216,94,-56,-1,-1,0
7899,-589824,94,-56,-1,-1,0
7933,-720896,94,-56,-1,-1,0
7966,-917504,93,-56,-1,-1,0
8000,-1114112,93,-56,-1,-1,0
8033,3801088,93,-56,-1,-1,0
8066,-1114112,93,-56,-1,-1,0
8100,-851968,93,-56,-1,-1,0
8133,-524288,93,-56,-1,-1,0
8166,393216,93,-56,-1,-1,0
8200,1900544,93,-56,-1,-1,0
8233,786432,93,-56,-1,-1,0
8266,0,93,-56,-1,-1,0
8300,-65536,93,-56,-1,-1,0
8333,65536,93,-56,-1,-1,0
8366,196608,93,-56,-1,-1,0
8400,196608,93,-56,-1,-1,0
8433,65536,93,-56,-1,-1,0
8466,-65536,93,-56,-1,-1,0
8500,65536,93,-56,-1,-1,0
8533,196608,93,-56,-1,-1,0
8566,0,93,-56,-1,-1,0
8600,5570560,93,-56,-1,-1,0
8633,-65536,93,-56,-1,-1,0
8666,196608,93,-56,-1,-1,0
8700,327680,93,-56,-1,-1,0
8733,917504,93,-56,-1,-1,0
8766,2424832,93,-56,-1,-1,0
8800,1245184,93,-56,-1,-1,0
8833,131072,93,-56,-1,-1,0
8866,65536,93,-56,-1,-1,0
8900,262144,93,-56,-1,-1,0
8933,327680,93,-56,-1,-1,0
8966,196608,93,-56,-1,-1,0
9000,65536,93,-56,-1,-1,0
9033,0,93,-56,-1,-1,0
9066,-196608,93,-56,-1,-1,0
9100,-262144,93,-56,-1,-1,0
9133,-393216,93,-56,-1,-1,0
9166,-786432,92,-56,-1,-1,0
9200,4653056,92,-56,-1,-1,0
9233,-983040,92,-56,-1,-1,0
9266,-786432,92,-56,-1,-1,0
9300,-786432,92,-56,-1,-1,0
9333,-327680,92,-56,-1,-1,0
9366,1048576,92,-56,-1,-1,0
9400,-131072,92,-56,-1,-1,0
9433,-1114112,92,-56,-1,-1,0
9466,-1114112,92,-56,-1,-1,0
9500,-1048576,92,-56,-1,-1,0
9533,-983040,92,-56,-1,-1,0
9566,-1179648,92,-56,-1,-1,0
9600,-1179648,92,-56,-1,-1,0
9633,-1245184,92,-56,-1,-1,0
9666,-1310720,92,-56,-1,-1,0
9700,-1376256,92,-56,-1,-1,0
9733,-1376256,91,-56,-1,-1,0
9766,-1572864,91,-56,-1,-1,0
9800,-720896,91,-56,-1,-1,0
9833,-1310720,91,-56,-1,-1,0
9866,-1179648,91,-56,-1,-1,0
9900,-851968,91,-56,-1,-1,0
9933,262144,91,-56,-1,-1,0
9966,1245184,91,-56,-1,-1,0
10000,-458752,91,-56,-1,-1,0
10033,-917504,91,-56,-1,-1,0
10066,-851968,91,-56,-1,-1,0
10100,-655360,91,-56,-1,-1,0
10133,-589824,91,-56,-1,-1,0
10166,-589824,91,-56,-1,-1,0
10200,-524288,91,-56,-1,-1,0
10233,-458752,91,-56,-1,-1,0
10266,-327680,91,-56,-1,-1,0
10300,-458752,91,-56,-1,-1,0
10333,4718592,91,-56,-1,-1,0
10366,-786432,91,-56,-1,-1,0
10400,-327680,91,-56,-1,-1,0
10433,-131072,91,-56,-1,-1,0
10466,262144,91,-56,-1,-1,0
10500,1900544,91,-56,-1,-1,0
10533,983040,91,-56,-1,-1,0
10566,-327680,91,-56,-1,-1,0
10600,-458752,91,-56,-1,-1,0
10633,-327680,91,-56,-1,-1,0
10666,-327680,91,-56,-1,-1,0
10700,-393216,91,-56,-1,-1,0
10733,-393216,91,-56,-1,-1,0
10766,-458752,91,-56,-1,-1,0
10800,-524288,91,-56,-1,-1,0
10833,-458752,90,-56,-1,-1,0
10866,-983040,90,-56,-1,-1,0
10900,4718592,90,-56,-1,-1,0
10933,-589824,90,-56,-1,-1,0
10966,-327680,90,-56,-1,-1,0
11000,-196608,90,-56,-1,-1,0
11033,262144,90,-56,-1,-1,0
11066,2097152,90,-56,-1,-1,0
11100,589824,90,-56,-1,-1,0
11133,-131072,90,-56,-1,-1,0
11166,0,90,-56,-1,-1,0
11200,0,90,-56,-1,-1,0
11233,0,90,-56,-1,-1,0
11266,0,90,-56,-1,-1,0
11300,0,90,-56,-1,-1,0
11333,-262144,90,-56,-1,-1,0
11366,-262144,90,-56,-1,-1,0
11400,-262144,89,-56,-1,-1,0
11433,-327680,89,-56,-1,-1,0
11466,-327680,89,-56,-1,-1,0
11500,-524288,89,-56,-1,-1,0
11533,-393216,89,-56,-1,-1,0
11566,-131072,89,-56,-1,-1,0
11600,917504,89,-56,-1,-1,0
11633,1769472,89,-56,-1,-1,0
11666,65536,89,-56,-1,-1,0
11700,-196608,89,-56,-1,-1,0
11733,-196608,89,-56,-1,-1,0
11766,-131072,89,-56,-1,-1,0
11800,65536,89,-56,-1,-1,0
11833,-131072,89,-56,-1,-1,0
11866,-131072,89,-56,-1,-1,0
11900,-196608,89,-56,-1,-1,0
11933,0,89,-56,-1,-1,0
11966,0,89,-56,-1,-1,0
12000,2293760,89,-56,-1,-1,0
12033,-655360,89,-56,-1,-1,0
12066,0,89,-56,-1,-1,0
12100,0,89,-56,-1,-1,0
12133,262144,89,-56,-1,-1,0
12166,1703936,89,-56,-1,-1,0
12200,1769472,89,-56,-1,-1,0
12233,262144,89,-56,-1,-1,0
12266,0,89,-56,-1,-1,0
12300,0,89,-56,-1,-1,0
12333,0,89,-56,-1,-1,0
12366,0,89,-56,-1,-1,0
12400,0,89,-56,-1,-1,0
12433,-65536,89,-56,-1,-1,0
12466,-262144,89,-56,-1,-1,0
12500,-65536,89,-56,-1,-1,0
12533,-196608,89,-56,-1,-1,0
12566,1245184,89,-56,-1,-1,0
12600,-1179648,89,-56,-1,-1,0
12633,-524288,89,-56,-1,-1,0
12666,-393216,89,-56,-1,-1,0
12700,-262144,89,-56,-1,-1,0
12733,917504,89,-56,-1,-1,0
12766,1048576,89,-56,-1,-1,0
12800,-458752,89,-56,-1,-1,0
12833,-786432,89,-56,-1,-1,0
12866,-720896,89,-56,-1,-1,0
12900,-655360,89,-56,-1,-1,0
12933,-589824,89,-56,-1,-1,0
12966,-655360,89,-56,-1,-1,0
13000,-655360,89,-56,-1,-1,0
13033,-786432,89,-56,-1,-1,0
13066,-589824,89,-56,-1,-1,0
13100,-589824,88,-56,-1,-1,0
13133,3473408,88,-56,-1,-1,0
13166,-1376256,88,-56,-1,-1,0
13200,-524288,88,-56,-1,-1,0
13233,-327680,88,-56,-1,-1,0
13266,0,88,-56,-1,-1,0
13299,1507328,88,-56,-1,-1,0
13333,983040,88,-56,-1,-1,0
13366,-393216,88,-56,-1,-1,0
13400,-589824,88,-56,-1,-1,0
13433,-393216,88,-56,-1,-1,0
13466,-262144,88,-56,-1,-1,0
13500,-327680,88,-56,-1,-1,0
13533,-393216,88,-56,-1,-1,0
13566,-458752,88,-56,-1,-1,0
13600,-524288,88,-56,-1,-1,0
13633,-458752,88,-56,-1,-1,0
13666,-786432,88,-56,-1,-1,0
13700,4980736,88,-56,-1,-1,0
13733,-786432,88,-56,-1,-1,0
13766,-589824,88,-56,-1,-1,0
13799,-393216,88,-56,-1,-1,0
13833,65536,88,-56,-1,-1,0
13866,1703936,88,-56,-1,-1,0
13900,524288,88,-56,-1,-1,0
13933,-262144,88,-56,-1,-1,0
13966,-262144,88,-56,-1,-1,0
14000,0,88,-56,-1,-1,0
14033,-65536,88,-56,-1,-1,0
14066,-65536,88,-56,-1,-1,0
14100,0,88,-56,-1,-1,0
14133,-196608,88,-56,-1,-1,0
14166,-131072,88,-56,-1,-1,0
14200,-65536,88,-56,-1,-1,0
14233,-131072,88,-56,-1,-1,0
14266,1179648,88,-56,-1,-1,0
14299,-786432,88,-56,-1,-1,0
14333,-262144,88,-56,-1,-1,0
14366,-327680,88,-56,-1,-1,0
14400,-131072,88,-56,-1,-1,0
14433,1114112,88,-56,-1,-1,0
14466,1376256,88,-56,-1,-1,0
14500,-131072,88,-56,-1,-1,0
14533,-589824,88,-56,-1,-1,0
14566,-393216,88,-56,-1,-1,0
14600,-458752,88,-56,-1,-1,0
14633,-131072,88,-56,-1,-1,0
14666,-262144,88,-56,-1,-1,0
14700,-196608,88,-56,-1,-1,0
14733,-262144,88,-56,-1,-1,0
14766,-131072,88,-56,-1,-1,0
14799,-196608,88,-56,-1,-1,0
14833,-131072,88,-56,-1,-1,0
14866,-131072,88,-56,-1,-1,0
14900,-655360,88,-56,-1,-1,0
14933,3538944,87,-56,-1,-1,0
14966,-458752,87,-56,-1,-1,0
15000,-393216,87,-56,-1,-1,0
15033,-131072,87,-56,-1,-1,0
15066,589824,87,-56,-1,-1,0
15100,2031616,87,-56,-1,-1,0
15133,786432,87,-56,-1,-1,0
15166,0,87,-56,-1,-1,0
15200,-196608,87,-56,-1,-1,0
15233,-65536,87,-56,-1,-1,0
15266,0,87,-56,-1,-1,0
15299,-65536,87,-56,-1,-1,0
15333,-196608,87,-56,-1,-1,0
15366,-327680,87,-56,-1,-1,0
15400,-327680,87,-56,-1,-1,0
15433,-589824,87,-56,-1,-1,0
15466,-393216,87,-56,-1,-1,0
15500,-524288,87,-56,-1,-1,0
15533,4521984,87,-56,-1,-1,0
15566,-1114112,87,-56,-1,-1,0
15600,-393216,87,-56,-1,-1,0
15633,-262144,87,-56,-1,-1,0
15666,262144,87,-56,-1,-1,0
15700,1835008,87,-56,-1,-1,0
15733,1376256,87,-56,-1,-1,0
15766,-131072,87,-56,-1,-1,0
15799,-327680,87,-56,-1,-1,0
15833,-393216,87,-56,-1,-1,0
15866,-196608,87,-56,-1,-1,0
15900,-327680,87,-56,-1,-1,0
15933,-458752,87,-56,-1,-1,0
15966,-524288,87,-56,-1,-1,0
16000,-655360,87,-56,-1,-1,0
16033,-589824,87,-56,-1,-1,0
16066,-720896,87,-56,-1,-1,0
16100,262144,87,-56,-1,-1,0
16133,-1245184,87,-56,-1,-1,0
16166,-655360,87,-56,-1,-1,0
16200,-655360,87,-56,-1,-1,0
16233,-458752,87,-56,-1,-1,0
16266,851968,87,-56,-1,-1,0
16300,1507328,87,-56,-1,-1,0
16333,-196608,87,-56,-1,-1,0
16366,-524288,87,-56,-1,-1,0
16400,-458752,87,-56,-1,-1,0
16433,-262144,87,-56,-1,-1,0
16466,-131072,87,-56,-1,-1,0
16500,-196608,87,-56,-1,-1,0
16533,-196608,87,-56,-1,-1,0
16566,-262144,87,-56,-1,-1,0
16600,-262144,87,-56,-1,-1,0
16633,-196608,87,-56,-1,-1,0
16666,-262144,87,-56,-1,-1,0
16700,-786432,87,-56,-1,-1,0
16733,4653056,87,-56,-1,-1,0
16766,-524288,87,-56,-1,-1,0
16800,-393216,87,-56,-1,-1,0
16833,-262144,87,-56,-1,-1,0
16866,196608,87,-56,-1,-1,0
16900,1638400,87,-56,-1,-1,0
16933,655360,87,-56,-1,-1,0
16966,-393216,87,-56,-1,-1,0
17000,-458752,87,-56,-1,-1,0
17033,-393216,87,-56,-1,-1,0
17066,-262144,87,-56,-1,-1,0
17100,-393216,87,-56,-1,-1,0
17133,-393216,87,-56,-1,-1,0
17166,-393216,87,-56,-1,-1,0
17200,-458752,87,-56,-1,-1,0
17233,-589824,87,-56,-1,-1,0
17266,-458752,87,-56,-1,-1,0
17300,-327680,87,-56,-1,-1,0
17333,3014656,87,-56,-1,-1,0
17366,-1376256,87,-56,-1,-1,0
17400,-458752,87,-56,-1,-1,0
17433,-393216,87,-56,-1,-1,0
17466,0,87,-56,-1,-1,0
17500,1572864,87,-56,-1,-1,0
17533,1638400,87,-56,-1,-1,0
17566,0,87,-56,-1,-1,0
17600,-262144,87,-56,-1,-1,0
17633,-131072,87,-56,-1,-1,0
17666,0,87,-56,-1,-1,0
17700,0,87,-56,-1,-1,0
17733,0,87,-56,-1,-1,0
17766,-65536,87,-56,-1,-1,0
17800,-65536,87,-56,-1,-1,0
17833,0,87,-56,-1,-1,0
17866,-65536,88,-56,-1,-1,0
17900,5439488,88,-56,-1,-1,0
17933,-393216,88,-56,-1,-1,0
17966,0,88,-56,-1,-1,0
18000,196608,88,-56,-1,-1,0
18033,720896,88,-56,-1,-1,0
18066,2490368,88,-56,-1,-1,0
18100,1638400,88,-56,-1,-1,0
18133,196608,88,-56,-1,-1,0
18166,131072,88,-56,-1,-1,0
18200,196608,88,-56,-1,-1,0
18233,262144,88,-56,-1,-1,0
18266,262144,88,-56,-1,-1,0
18300,196608,88,-56,-1,-1,0
18333,196608,88,-56,-1,-1,0
18366,65536,88,-56,-1,-1,0
18400,65536,88,-56,-1,-1,0
18433,65536,88,-56,-1,-1,0
18466,-262144,88,-56,-1,-1,0
18500,5570560,87,-56,-1,-1,0
18533,-524288,87,-56,-1,-1,0
18566,-524288,87,-56,-1,-1,0
18600,-458752,87,-56,-1,-1,0
18633,-131072,87,-56,-1,-1,0
18666,1310720,87,-56,-1,-1,0
18700,589824,87,-56,-1,-1,0
18733,-589824,87,-56,-1,-1,0
18766,-786432,87,-56,-1,-1,0
18800,-720896,87,-56,-1,-1,0
18833,-786432,87,-56,-1,-1,0
18866,-786432,87,-56,-1,-1,0
18900,-851968,87,-56,-1,-1,0
18933,-917504,87,-56,-1,-1,0
18966,-917504,87,-56,-1,-1,0
19000,-1048576,87,-56,-1,-1,0
19033,-983040,87,-56,-1,-1,0
19066,-1048576,86,-56,-1,-1,0
19100,2359296,86,-56,-1,-1,0
19133,-1966080,86,-56,-1,-1,0
19166,-1179648,86,-56,-1,-1,0
19200,-1114112,86,-56,-1,-1,0
19233,-589824,86,-56,-1,-1,0
19266,851968,86,-56,-1,-1,0
19300,1114112,86,-56,-1,-1,0
19333,-589824,86,-56,-1,-1,0
19366,-851968,86,-56,-1,-1,0
19400,-720896,86,-56,-1,-1,0
19433,-589824,86,-56,-1,-1,0
19466,-524288,86,-56,-1,-1,0
19500,-589824,86,-56,-1,-1,0
19533,-524288,86,-56,-1,-1,0
19566,-589824,86,-56,-1,-1,0
19600,-393216,86,-56,-1,-1,0
19633,-327680,86,-56,-1,-1,0
19666,3342336,86,-56,-1,-1,0
19700,-1048576,85,-56,-1,-1,0
19733,-196608,85,-56,-1,-1,0
19766,-65536,85,-56,-1,-1,0
19800,262144,85,-56,-1,-1,0
19833,1835008,85,-56,-1,-1,0
19866,1835008,85,-56,-1,-1,0
19900,131072,85,-56,-1,-1,0
19933,0,85,-56,-1,-1,0
19966,0,85,-56,-1,-1,0
20000,65536,85,-56,-1,-1,0
20033,0,85,-56,-1,-1,0
20066,0,85,-56,-1,-1,0
20100,-65536,85,-56,-1,-1,0
20133,-131072,85,-56,-1,-1,0
20166,-262144,85,-56,-1,-1,0
20200,-262144,85,-56,-1,-1,0
20233,-131072,85,-56,-1,-1,0
20266,-262144,85,-56,-1,-1,0
20300,4325376,85,-56,-1,-1,0
20333,-589824,85,-56,-1,-1,0
20366,-327680,85,-56,-1,-1,0
20400,-262144,84,-56,-1,-1,0
20433,0,84,-56,-1,-1,0
20466,1245184,84,-56,-1,-1,0
20500,1245184,84,-56,-1,-1,0
20533,-65536,84,-56,-1,-1,0
20566,-393216,84,-56,-1,-1,0
20600,-393216,84,-56,-1,-1,0
20633,-393216,84,-56,-1,-1,0
20666,-327680,84,-56,-1,-1,0
20700,-262144,84,-56,-1,-1,0
20733,-196608,84,-56,-1,-1,0
20766,-196608,84,-56,-1,-1,0
20800,-196608,84,-56,-1,-1,0
20833,-196608,84,-56,-1,-1,0
20866,0,84,-56,-1,-1,0
20900,65536,84,-56,-1,-1,0
20933,393216,84,-56,-1,-1,0
20966,393216,84,-56,-1,-1,0
21000,5505024,83,-56,-1,-1,0
21033,65536,83,-56,-1,-1,0
21066,589824,83,-56,-1,-1,0
21100,851968,83,-56,-1,-1,0
21133,1245184,83,-56,-1,-1,0
21166,2818048,83,-56,-1,-1,0
21200,2949120,83,-56,-1,-1,0
21233,1376256,83,-56,-1,-1,0
21266,1048576,83,-56,-1,-1,0
21300,983040,83,-56,-1,-1,0
21333,983040,83,-56,-1,-1,0
21366,851968,83,-56,-1,-1,0
21400,655360,83,-56,-1,-1,0
21433,393216,83,-56,-1,-1,0
21466,131072,83,-56,-1,-1,0
21500,-131072,83,-56,-1,-1,0
21533,-262144,83,-56,-1,-1,0
21566,-589824,83,-56,-1,-1,0
21600,-458752,83,-56,-1,-1,0
21633,-1507328,82,-56,-1,-1,0
21666,-1245184,82,-56,-1,-1,0
21700,-1441792,82,-56,-1,-1,0
21733,-1376256,82,-56,-1,-1,0
21766,-393216,82,-56,-1,-1,0
21800,786432,82,-56,-1,-1,0
21833,-1245184,82,-56,-1,-1,0
21866,-1835008,82,-56,-1,-1,0
21900,-1703936,82,-56,-1,-1,0
21933,-1572864,82,-56,-1,-1,0
21966,-1507328,82,-56,-1,-1,0
22000,-1769472,82,-56,-1,-1,0
22033,-1966080,82,-56,-1,-1,0
22066,-1966080,82,-56,-1,-1,0
22100,-1966080,82,-56,-1,-1,0
22133,-1835008,82,-56,-1,-1,0
22166,-1638400,82,-56,-1,-1,0
22200,-1835008,82,-56,-1,-1,0
22233,4587520,82,-56,-1,-1,0
22266,-1966080,82,-56,-1,-1,0
22300,-1376256,81,-56,-1,-1,0
22333,-1376256,81,-56,-1,-1,0
22366,-983040,81,-56,-1,-1,0
22400,524288,81,-56,-1,-1,0
22433,327680,81,-56,-1,-1,0
22466,-786432,81,-56,-1,-1,0
22500,-917504,81,-56,-1,-1,0
22533,-720896,81,-56,-1,-1,0
22566,-393216,81,-56,-1,-1,0
22600,-262144,81,-56,-1,-1,0
22633,-196608,81,-56,-1,-1,0
22666,-262144,81,-56,-1,-1,0
22700,-131072,81,-56,-1,-1,0
22733,-65536,81,-56,-1,-1,0
22766,-65536,81,-56,-1,-1,0
22800,-196608,81,-56,-1,-1,0
22833,-131072,81,-56,-1,-1,0
22866,-262144,81,-56,-1,-1,0
22900,4849664,81,-56,-1,-1,0
22933,-524288,81,-56,-1,-1,0
22966,-262144,81,-56,-1,-1,0
23000,-131072,81,-56,-1,-1,0
23033,327680,81,-56,-1,-1,0
23066,1703936,81,-56,-1,-1,0
23100,1900544,81,-56,-1,-1,0
23133,393216,81,-56,-1,-1,0
23166,196608,81,-56,-1,-1,0
23200,196608,81,-56,-1,-1,0
23233,327680,81,-56,-1,-1,0
23266,327680,81,-56,-1,-1,0
23300,262144,81,-56,-1,-1,0
23333,0,81,-56,-1,-1,0
23366,0,81,-56,-1,-1,0
23400,-65536,81,-56,-1,-1,0
23433,-262144,81,-56,-1,-1,0
23466,-327680,81,-56,-1,-1,0
23500,-786432,81,-56,-1,-1,0
23533,2097152,81,-56,-1,-1,0
23566,-655360,81,-56,-1,-1,0
23600,-393216,81,-56,-1,-1,0
23633,-262144,81,-56,-1,-1,0
23666,786432,81,-56,-1,-1,0
23700,2097152,81,-56,-1,-1,0
23733,851968,81,-56,-1,-1,0
23766,-131072,81,-56,-1,-1,0
23800,-393216,81,-56,-1,-1,0
23833,-262144,81,-56,-1,-1,0
23866,-131072,81,-56,-1,-1,0
23900,-327680,81,-56,-1,-1,0
23933,-327680,81,-56,-1,-1,0
23966,-393216,81,-56,-1,-1,0
24000,-524288,81,-56,-1,-1,0
24033,-327680,81,-56,-1,-1,0
24066,-327680,81,-56,-1,-1,0
24100,-983040,81,-56,-1,-1,0
24133,3670016,81,-56,-1,-1,0
24166,-655360,81,-56,-1,-1,0
24200,-393216,81,-56,-1,-1,0
24233,-393216,81,-56,-1,-1,0
24266,131072,81,-56,-1,-1,0
24300,1769472,81,-56,-1,-1,0
24333,786432,81,-56,-1,-1,0
24366,-327680,81,-56,-1,-1,0
24400,-393216,81,-56,-1,-1,0
24433,-262144,81,-56,-1,-1,0
24466,-65536,81,-56,-1,-1,0
24500,-131072,81,-56,-1,-1,0
24533,-196608,81,-56,-1,-1,0
24566,-196608,81,-56,-1,-1,0
24600,-262144,81,-56,-1,-1,0
24633,-196608,81,-56,-1,-1,0
24666,-196608,81,-56,-1,-1,0
24700,-65536,81,-56,-1,-1,0
24733,-65536,81,-56,-1,-1,0
24766,4194304,81,-56,-1,-1,0
24800,-524288,81,-56,-1,-1,0
24833,-131072,81,-56,-1,-1,0
24866,-65536,81,-56,-1,-1,0
24900,131072,81,-56,-1,-1,0
24933,1441792,81,-56,-1,-1,0
24966,1769472,81,-56,-1,-1,0
25000,131072,81,-56,-1,-1,0
25033,-262144,81,-56,-1,-1,0
25066,-327680,81,-56,-1,-1,0
25100,-327680,81,-56,-1,-1,0
25133,-327680,81,-56,-1,-1,0
25166,-458752,81,-56,-1,-1,0
25200,-524288,81,-56,-1,-1,0
25233,-655360,81,-56,-1,-1,0
25266,-655360,81,-56,-1,-1,0
25300,-655360,81,-56,-1,-1,0
25333,-655360,81,-56,-1,-1,0
25366,-1179648,81,-56,-1,-1,0
25400,1900544,81,-56,-1,-1,0
25433,-851968,81,-56,-1,-1,0
25466,-720896,81,-56,-1,-1,0
25500,-393216,81,-56,-1,-1,0
25533,327680,81,-56,-1,-1,0
25566,2162688,81,-56,-1,-1,0
25600,917504,81,-56,-1,-1,0
25633,0,81,-56,-1,-1,0
25666,-65536,81,-56,-1,-1,0
25700,65536,81,-56,-1,-1,0
25733,262144,81,-56,-1,-1,0
25766,196608,81,-56,-1,-1,0
25800,327680,81,-56,-1,-1,0
25833,327680,81,-56,-1,-1,0
25866,327680,81,-56,-1,-1,0
25900,393216,81,-56,-1,-1,0
25933,393216,81,-56,-1,-1,0
25966,0,81,-56,-1,-1,0
26000,2752512,81,-56,-1,-1,0
26033,327680,81,-56,-1,-1,0
26066,458752,81,-56,-1,-1,0
26099,589824,81,-56,-1,-1,0
26133,1310720,81,-56,-1,-1,0
26166,2818048,81,-56,-1,-1,0
26200,1310720,81,-56,-1,-1,0
26233,393216,81,-56,-1,-1,0
26266,131072,81,-56,-1,-1,0
26300,131072,81,-56,-1,-1,0
26333,0,81,-56,-1,-1,0
26366,0,81,-56,-1,-1,0
26400,-262144,81,-56,-1,-1,0
26433,-262144,81,-56,-1,-1,0
26466,-524288,81,-56,-1,-1,0
26500,-720896,81,-56,-1,-1,0
26533,-786432,81,-56,-1,-1,0
26566,-720896,81,-56,-1,-1,0
26599,-720896,81,-56,-1,-1,0
26633,-917504,81,-56,-1,-1,0
26666,4259840,81,-56,-1,-1,0
26700,-1441792,80,-56,-1,-1,0
26733,-1179648,80,-56,-1,-1,0
26766,-1048576,80,-56,-1,-1,0
26800,-851968,80,-56,-1,-1,0
26833,327680,80,-56,-1,-1,0
26866,655360,80,-56,-1,-1,0
26900,-655360,80,-56,-1,-1,0
26933,-983040,80,-56,-1,-1,0
26966,-917504,80,-56,-1,-1,0
27000,-786432,80,-56,-1,-1,0
27033,-720896,80,-56,-1,-1,0
27066,-786432,80,-56,-1,-1,0
27099,-917504,80,-56,-1,-1,0
27133,-720896,80,-56,-1,-1,0
27166,-589824,80,-56,-1,-1,0
27200,-655360,80,-56,-1,-1,0
27233,-524288,80,-56,-1,-1,0
27266,-458752,80,-56,-1,-1,0
27300,-851968,80,-56,-1,-1,0
27333,1048576,79,-56,-1,-1,0
27366,-655360,79,-56,-1,-1,0
27400,-327680,79,-56,-1,-1,0
27433,-131072,79,-56,-1,-1,0
27466,655360,79,-56,-1,-1,0
27500,2228224,79,-56,-1,-1,0
27533,1179648,79,-56,-1,-1,0
27566,196608,79,-56,-1,-1,0
27599,-327680,79,-56,-1,-1,0
27633,-65536,79,-56,-1,-1,0
27666,0,79,-56,-1,-1,0
27700,-131072,79,-56,-1,-1,0
27733,-131072,79,-56,-1,-1,0
27766,-262144,79,-56,-1,-1,0
27800,-262144,79,-56,-1,-1,0
27833,-393216,79,-56,-1,-1,0
27866,-262144,79,-56,-1,-1,0
27900,-458752,79,-56,-1,-1,0
27933,3276800,79,-56,-1,-1,0
27966,-1179648,79,-56,-1,-1,0
28000,-327680,79,-56,-1,-1,0
28033,-393216,79,-56,-1,-1,0
28066,-131072,79,-56,-1,-1,0
28099,1179648,79,-56,-1,-1,0
28133,1900544,79,-56,-1,-1,0
28166,131072,79,-56,-1,-1,0
28200,-65536,79,-56,-1,-1,0
28233,-262144,79,-56,-1,-1,0
28266,-65536,79,-56,-1,-1,0
28300,-131072,79,-56,-1,-1,0
28333,-262144,79,-56,-1,-1,0
28366,-393216,79,-56,-1,-1,0
28400,-393216,79,-56,-1,-1,0
28433,-393216,79,-56,-1,-1,0
28466,-589824,79,-56,-1,-1,0
28500,-393216,79,-56,-1,-1,0
28533,-393216,79,-56,-1,-1,0
28566,-983040,79,-56,-1,-1,0
28599,1638400,79,-56,-1,-1,0
28633,-327680,79,-56,-1,-1,0
28666,-262144,79,-56,-1,-1,0
28700,-131072,79,-56,-1,-1,0
28733,393216,79,-56,-1,-1,0
28766,1835008,79,-56,-1,-1,0
28800,851968,79,-56,-1,-1,0
28833,0,79,-56,-1,-1,0
28866,-196608,79,-56,-1,-1,0
28900,-131072,79,-56,-1,-1,0
28933,-65536,79,-56,-1,-1,0
28966,-65536,79,-56,-1,-1,0
29000,-196608,79,-56,-1,-1,0
29033,-196608,79,-56,-1,-1,0
29066,-196608,79,-56,-1,-1,0
29099,-393216,79,-56,-1,-1,0
29133,-458752,79,-56,-1,-1,0
29166,-327680,79,-56,-1,-1,0
29200,-524288,79,-56,-1,-1,0
29233,-589824,79,-56,-1,-1,0
29266,-327680,79,-56,-1,-1,0
29300,-393216,79,-56,-1,-1,0
29333,-196608,79,-56,-1,-1,0
29366,-458752,78,-56,-1,-1,0
29400,-327680,78,-56,-1,-1,0
29433,-327680,78,-56,-1,-1,0
29466,-131072,78,-56,-1,-1,0
29500,589824,78,-56,-1,-1,0
29533,2162688,78,-56,-1,-1,0
29566,917504,78,-56,-1,-1,0
29599,-131072,78,-56,-1,-1,0
29633,-131072,78,-56,-1,-1,0
29666,-65536,78,-56,-1,-1,0
29700,-65536,78,-56,-1,-1,0
29733,-262144,78,-56,-1,-1,0
29766,-393216,78,-56,-1,-1,0
29800,-393216,78,-56,-1,-1,0
29833,-524288,78,-56,-1,-1,0
29866,-589824,78,-56,-1,-1,0
29900,-524288,78,-56,-1,-1,0
29933,-589824,78,-56,-1,-1,0
29966,-1245184,78,-56,-1,-1,0
30000,1441792,78,-56,-1,-1,0
30033,-983040,78,-56,-1,-1,0
30066,-917504,78,-56,-1,-1,0
30099,-524288,78,-56,-1,-1,0
30133,131072,78,-56,-1,-1,0
30166,1703936,78,-56,-1,-1,0
30200,655360,78,-56,-1,-1,0
30233,-196608,78,-56,-1,-1,0
30266,-589824,78,-56,-1,-1,0
30300,-196608,78,-56,-1,-1,0
30333,-131072,78,-56,-1,-1,0
30366,-65536,78,-56,-1,-1,0
30400,-131072,78,-56,-1,-1,0
30433,-131072,78,-56,-1,-1,0
30466,-65536,78,-56,-1,-1,0
30500,-131072,78,-56,-1,-1,0
30533,-65536,78,-56,-1,-1,0
30566,-131072,78,-56,-1,-1,0
30599,-262144,78,-56,-1,-1,0
30633,524288,78,-56,-1,-1,0
30666,-458752,78,-56,-1,-1,0
30700,-327680,78,-56,-1,-1,0
30733,-262144,78,-56,-1,-1,0
30766,-196608,78,-56,-1,-1,0
30800,655360,78,-56,-1,-1,0
30833,1769472,78,-56,-1,-1,0
30866,589824,78,-56,-1,-1,0
30900,-131072,78,-56,-1,-1,0
30933,-131072,78,-56,-1,-1,0
30966,0,78,-56,-1,-1,0
31000,0,78,-56,-1,-1,0
31033,-65536,78,-56,-1,-1,0
31066,-196608,78,-56,-1,-1,0
31099,-196608,78,-56,-1,-1,0
31133,-262144,78,-56,-1,-1,0
31166,-327680,78,-56,-1,-1,0
31200,-262144,78,-56,-1,-1,0
31233,-262144,78,-56,-1,-1,0
31266,-589824,77,-56,-1,-1,0
31300,589824,77,-56,-1,-1,0
31333,-589824,77,-56,-1,-1,0
31366,-393216,77,-56,-1,-1,0
31400,-262144,77,-56,-1,-1,0
31433,458752,77,-56,-1,-1,0
31466,2097152,77,-56,-1,-1,0
31500,786432,77,-56,-1,-1,0
31533,-262144,77,-56,-1,-1,0
31566,-458752,77,-56,-1,-1,0
31599,-393216,77,-56,-1,-1,0
31633,-393216,77,-56,-1,-1,0
31666,-524288,77,-56,-1,-1,0
31700,-458752,77,-56,-1,-1,0
31733,-589824,77,-56,-1,-1,0
31766,-589824,77,-56,-1,-1,0
31800,-524288,77,-56,-1,-1,0
31833,-524288,77,-56,-1,-1,0
31866,-983040,77,-56,-1,-1,0
31900,3473408,77,-56,-1,-1,0
31933,-720896,77,-56,-1,-1,0
31966,-458752,77,-56,-1,-1,0
32000,-524288,77,-56,-1,-1,0
32033,65536,77,-56,-1,-1,0
32066,1703936,77,-56,-1,-1,0
32100,983040,77,-56,-1,-1,0
32133,-327680,77,-56,-1,-1,0
32166,-393216,77,-56,-1,-1,0
32200,-458752,77,-56,-1,-1,0
32233,-327680,77,-56,-1,-1,0
32266,-393216,77,-56,-1,-1,0
32299,-524288,77,-56,-1,-1,0
32333,-655360,77,-56,-1,-1,0
32366,-851968,77,-56,-1,-1,0
32400,-851968,77,-56,-1,-1,0
32433,-851968,77,-56,-1,-1,0
32466,-851968,77,-56,-1,-1,0
32500,-720896,77,-56,-1,-1,0
32533,-720896,77,-56,-1,-1,0
32566,983040,77,-56,-1,-1,0
32600,-917504,77,-56,-1,-1,0
32633,-458752,77,-56,-1,-1,0
32666,-262144,77,-56,-1,-1,0
32700,131072,77,-56,-1,-1,0
32733,1114112,77,-56,-1,-1,0
32766,2293760,77,-56,-1,-1,0
32800,983040,77,-56,-1,-1,0
32833,262144,77,-56,-1,-1,0
32866,327680,77,-56,-1,-1,0
32900,524288,77,-56,-1,-1,0
32933,720896,77,-56,-1,-1,0
32966,786432,77,-56,-1,-1,0
33000,655360,77,-56,-1,-1,0
33033,524288,77,-56,-1,-1,0
33066,524288,77,-56,-1,-1,0
33100,393216,77,-56,-1,-1,0
33133,327680,77,-56,-1,-1,0
33166,262144,77,-56,-1,-1,0
33200,65536,77,-56,-1,-1,0
33233,65536,77,-56,-1,-1,0
33266,0,77,-56,-1,-1,0
33300,-589824,77,-56,-1,-1,0
33333,1179648,77,-56,-1,-1,0
33366,-458752,76,-56,-1,-1,0
33400,-458752,76,-56,-1,-1,0
33433,-393216,76,-56,-1,-1,0
33466,196608,76,-56,-1,-1,0
33500,1966080,76,-56,-1,-1,0
33533,983040,76,-56,-1,-1,0
33566,-393216,76,-56,-1,-1,0
33600,-720896,76,-56,-1,-1,0
33633,-655360,76,-56,-1,-1,0
33666,-589824,76,-56,-1,-1,0
33700,-720896,76,-56,-1,-1,0
33733,-720896,76,-56,-1,-1,0
33766,-917504,76,-56,-1,-1,0
33800,-917504,76,-56,-1,-1,0
33833,-983040,76,-56,-1,-1,0
33866,-917504,76,-56,-1,-1,0
33900,-786432,76,-56,-1,-1,0
33933,-720896,76,-56,-1,-1,0
33966,1179648,76,-56,-1,-1,0
34000,-1310720,76,-56,-1,-1,0
34033,-655360,76,-56,-1,-1,0
34066,-458752,76,-56,-1,-1,0
34100,-131072,76,-56,-1,-1,0
34133,720896,76,-56,-1,-1,0
34166,2031616,76,-56,-1,-1,0
34200,524288,76,-56,-1,-1,0
34233,0,76,-56,-1,-1,0
34266,131072,76,-56,-1,-1,0
34300,393216,76,-56,-1,-1,0
34333,458752,76,-56,-1,-1,0
34366,327680,76,-56,-1,-1,0
34400,65536,76,-56,-1,-1,0
34433,131072,76,-56,-1,-1,0
34466,0,76,-56,-1,-1,0
34500,196608,76,-56,-1,-1,0
34533,0,76,-56,-1,-1,0
34566,-196608,76,-56,-1,-1,0
34600,65536,76,-56,-1,-1,0
34633,-65536,76,-56,-1,-1,0
34666,-1114112,76,-56,-1,-1,0
34700,4194304,76,-56,-1,-1,0
34733,-655360,75,-56,-1,-1,0
34766,-655360,75,-56,-1,-1,0
34800,-589824,75,-56,-1,-1,0
34833,0,75,-56,-1,-1,0
34866,1376256,75,-56,-1,-1,0
34900,1179648,75,-56,-1,-1,0
34933,-196608,75,-56,-1,-1,0
34966,-393216,75,-56,-1,-1,0
35000,-393216,75,-56,-1,-1,0
35033,-262144,75,-56,-1,-1,0
35066,-262144,75,-56,-1,-1,0
35100,-327680,75,-56,-1,-1,0
35133,-327680,75,-56,-1,-1,0
35166,-327680,75,-56,-1,-1,0
35200,-262144,75,-56,-1,-1,0
35233,-524288,75,-56,-1,-1,0
35266,-262144,75,-56,-1,-1,0
35300,-393216,75,-56,-1,-1,0
35333,-327680,75,-56,-1,-1,0
35366,-720896,75,-56,-1,-1,0
35400,-589824,75,-56,-1,-1,0
35433,-458752,75,-56,-1,-1,0
35466,-327680,75,-56,-1,-1,0
35500,524288,75,-56,-1,-1,0
35533,2031616,75,-56,-1,-1,0
35566,720896,75,-56,-1,-1,0
35600,-393216,75,-56,-1,-1,0
35633,-589824,75,-56,-1,-1,0
35666,-458752,75,-56,-1,-1,0
35700,-458752,75,-56,-1,-1,0
35733,-524288,75,-56,-1,-1,0
35766,-589824,75,-56,-1,-1,0
35800,-589824,75,-56,-1,-1,0
35833,-589824,75,-56,-1,-1,0
35866,-524288,75,-56,-1,-1,0
35900,-589824,75,-56,-1,-1,0
35933,2031616,75,-56,-1,-1,0
35966,-1507328,75,-56,-1,-1,0
36000,-917504,75,-56,-1,-1,0
36033,-720896,75,-56,-1,-1,0
36066,-524288,75,-56,-1,-1,0
36100,524288,75,-56,-1,-1,0
36133,1703936,75,-56,-1,-1,0
36166,65536,75,-56,-1,-1,0
36200,-458752,75,-56,-1,-1,0
36233,-262144,75,-56,-1,-1,0
36266,-131072,75,-56,-1,-1,0
36300,0,75,-56,-1,-1,0
36333,0,75,-56,-1,-1,0
36366,-65536,75,-56,-1,-1,0
36400,-65536,75,-56,-1,-1,0
36433,-196608,75,-56,-1,-1,0
36466,-65536,75,-56,-1,-1,0
36500,-196608,75,-56,-1,-1,0
36533,1310720,75,-56,-1,-1,0
36566,-655360,75,-56,-1,-1,0
36600,-393216,75,-56,-1,-1,0
36633,-327680,75,-56,-1,-1,0
36666,-65536,75,-56,-1,-1,0
36700,786432,75,-56,-1,-1,0
36733,1900544,75,-56,-1,-1,0
36766,589824,75,-56,-1,-1,0
36800,-196608,75,-56,-1,-1,0
36833,-131072,75,-56,-1,-1,0
36866,-65536,75,-56,-1,-1,0
36900,0,75,-56,-1,-1,0
36933,0,75,-56,-1,-1,0
36966,0,75,-56,-1,-1,0
37000,-65536,75,-56,-1,-1,0
37033,0,75,-56,-1,-1,0
37066,-131072,75,-56,-1,-1,0
37100,131072,75,-56,-1,-1,0
37133,0,75,-56,-1,-1,0
37166,3080192,76,-56,-1,-1,0
37200,-851968,76,-56,-1,-1,0
37233,-393216,76,-56,-1,-1,0
37266,-196608,76,-56,-1,-1,0
37300,-131072,76,-56,-1,-1,0
37333,917504,76,-56,-1,-1,0
37366,1769472,76,-56,-1,-1,0
37400,131072,76,-56,-1,-1,0
37433,-458752,76,-56,-1,-1,0
37466,-589824,76,-56,-1,-1,0
37500,-458752,76,-56,-1,-1,0
37533,-393216,76,-56,-1,-1,0
37566,-393216,76,-56,-1,-1,0
37600,-589824,76,-56,-1,-1,0
37633,-589824,76,-56,-1,-1,0
37666,-655360,76,-56,-1,-1,0
37700,-524288,76,-56,-1,-1,0
37733,-655360,76,-56,-1,-1,0
37766,-720896,76,-56,-1,-1,0
37800,-196608,76,-56,-1,-1,0
37833,-589824,76,-56,-1,-1,0
37866,-393216,77,-56,-1,-1,0
37900,-65536,77,-56,-1,-1,0
37933,655360,77,-56,-1,-1,0
37966,2293760,77,-56,-1,-1,0
38000,1114112,77,-56,-1,-1,0
38033,0,77,-56,-1,-1,0
38066,-131072,77,-56,-1,-1,0
38100,0,77,-56,-1,-1,0
38133,0,77,-56,-1,-1,0
38166,0,77,-56,-1,-1,0
38200,-131072,77,-56,-1,-1,0
38233,-131072,77,-56,-1,-1,0
38266,-131072,77,-56,-1,-1,0
38300,-196608,77,-56,-1,-1,0
38333,-65536,77,-56,-1,-1,0
38366,-262144,77,-56,-1,-1,0
38400,-65536,77,-56,-1,-1,0
38433,-131072,77,-56,-1,-1,0
38466,-458752,77,-56,-1,-1,0
38500,655360,77,-56,-1,-1,0
38533,-393216,77,-56,-1,-1,0
38566,-327680,77,-56,-1,-1,0
38600,-196608,76,-56,-1,-1,0
38633,393216,76,-56,-1,-1,0
38666,1900544,76,-56,-1,-1,0
38700,917504,76,-56,-1,-1,0
38733,-196608,76,-56,-1,-1,0
38766,-393216,76,-56,-1,-1,0
38800,-458752,76,-56,-1,-1,0
38833,-327680,76,-56,-1,-1,0
38866,-393216,76,-56,-1,-1,0
38900,-458752,76,-56,-1,-1,0
38933,-524288,76,-56,-1,-1,0
38966,-589824,76,-56,-1,-1,0
39000,-655360,76,-56,-1,-1,0
39033,-655360,76,-56,-1,-1,0
39066,-524288,76,-56,-1,-1,0
39100,-655360,76,-56,-1,-1,0
39133,-720896,76,-56,-1,-1,0
39166,-655360,76,-56,-1,-1,0
39200,-983040,76,-56,-1,-1,0
39233,4128768,76,-56,-1,-1,0
39266,-786432,76,-56,-1,-1,0
39300,-458752,76,-56,-1,-1,0
39333,-393216,76,-56,-1,-1,0
39366,0,76,-56,-1,-1,0
39400,1572864,76,-56,-1,-1,0
39433,1638400,75,-56,-1,-1,0
39466,65536,75,-56,-1,-1,0
39500,-131072,75,-56,-1,-1,0
39533,0,75,-56,-1,-1,0
39566,0,75,-56,-1,-1,0
39600,131072,75,-56,-1,-1,0
39633,0,75,-56,-1,-1,0
39666,0,75,-56,-1,-1,0
39700,-131072,75,-56,-1,-1,0
39733,-196608,75,-56,-1,-1,0
39766,-65536,75,-56,-1,-1,0
39800,-131072,75,-56,-1,-1,0
39833,-196608,75,-56,-1,-1,0
39866,-196608,75,-56,-1,-1,0
39900,-524288,75,-56,-1,-1,0
39933,-524288,75,-56,-1,-1,0
39966,-393216,75,-56,-1,-1,0
40000,-393216,75,-56,-1,-1,0
40033,458752,75,-56,-1,-1,0
40066,-589824,75,-56,-1,-1,0
40100,-655360,75,-56,-1,-1,0
40133,-655360,73,-56,-1,-1,0
40166,-458752,73,-56,-1,-1,0
40200,131072,73,-56,-1,-1,0
40233,1572864,73,-56,-1,-1,0
40266,655360,73,-56,-1,-1,0
40300,0,73,-56,-1,-1,0
40333,-327680,73,-56,-1,-1,0
40366,0,73,-56,-1,-1,0
40400,-131072,73,-56,-1,-1,0
40433,0,73,-56,-1,-1,0
40466,-131072,73,-56,-1,-1,0
40500,131072,73,-56,-1,-1,0
40533,-524288,73,-56,-1,-1,0
40566,-262144,73,-56,-1,-1,0
40600,-262144,73,-56,-1,-1,0
40633,-327680,73,-56,-1,-1,0
40666,-196608,73,-56,-1,-1,0
40700,-196608,73,-56,-1,-1,0
40733,524288,73,-56,-1,-1,0
40766,-851968,73,-56,-1,-1,0
40800,-589824,73,-56,-1,-1,0
40833,-458752,73,-56,-1,-1,0
40866,-327680,73,-56,-1,-1,0
40900,327680,73,-56,-1,-1,0
40933,1703936,73,-56,-1,-1,0
40966,655360,73,-56,-1,-1,0
41000,-196608,73,-56,-1,-1,0
41033,-327680,73,-56,-1,-1,0
41066,-65536,73,-56,-1,-1,0
41100,-65536,73,-56,-1,-1,0
41133,-131072,73,-56,-1,-1,0
41166,-196608,73,-56,-1,-1,0
41200,-262144,73,-56,-1,-1,0
41233,-327680,73,-56,-1,-1,0
41266,-458752,73,-56,-1,-1,0
41300,-262144,73,-56,-1,-1,0
41333,-196608,73,-56,-1,-1,0
41366,655360,73,-56,-1,-1,0
41400,-1048576,74,-56,-1,-1,0
41433,-458752,74,-56,-1,-1,0
41466,-327680,74,-56,-1,-1,0
41500,-131072,74,-56,-1,-1,0
41533,589824,74,-56,-1,-1,0
41566,1966080,74,-56,-1,-1,0
41600,786432,74,-56,-1,-1,0
41633,-393216,74,-56,-1,-1,0
41666,65536,74,-56,-1,-1,0
41700,-196608,74,-56,-1,-1,0
41733,-196608,74,-56,-1,-1,0
41766,196608,74,-56,-1,-1,0
41800,131072,74,-56,-1,-1,0
41833,0,74,-56,-1,-1,0
41866,-196608,74,-56,-1,-1,0
41900,-327680,74,-56,-1,-1,0
41933,0,74,-56,-1,-1,0
41966,-393216,74,-56,-1,-1,0
42000,-262144,75,-56,-1,-1,0
42033,-131072,75,-56,-1,-1,0
42066,-589824,75,-56,-1,-1,0
42100,-327680,75,-56,-1,-1,0
42133,-393216,75,-56,-1,-1,0
42166,196608,75,-56,-1,-1,0
42200,1507328,75,-56,-1,-1,0
42233,655360,75,-56,-1,-1,0
42266,-393216,75,-56,-1,-1,0
42300,-393216,75,-56,-1,-1,0
42333,-458752,75,-56,-1,-1,0
42366,-262144,75,-56,-1,-1,0
42400,-65536,75,-56,-1,-1,0
42433,-393216,75,-56,-1,-1,0
42466,-524288,75,-56,-1,-1,0
42500,-851968,75,-56,-1,-1,0
42533,-524288,75,-56,-1,-1,0
42566,-655360,76,-56,-1,-1,0
42600,-1245184,76,-56,-1,-1,0
42633,1310720,76,-56,-1,-1,0
42666,-983040,76,-56,-1,-1,0
42700,-786432,76,-56,-1,-1,0
42733,-851968,76,-56,-1,-1,0
42766,-196608,76,-56,-1,-1,0
42800,1441792,76,-56,-1,-1,0
42833,917504,76,-56,-1,-1,0
42866,-458752,76,-56,-1,-1,0
42900,-589824,76,-56,-1,-1,0
42933,-393216,76,-56,-1,-1,0
42966,-262144,76,-56,-1,-1,0
43000,-65536,76,-56,-1,-1,0
43033,-327680,76,-56,-1,-1,0
43066,-458752,76,-56,-1,-1,0
43100,-327680,76,-56,-1,-1,0
43133,-327680,78,-56,-1,-1,0
43166,-393216,78,-56,-1,-1,0
43200,393216,78,-56,-1,-1,0
43233,-524288,78,-56,-1,-1,0
43266,-131072,78,-56,-1,-1,0
43300,0,78,-56,-1,-1,0
43333,655360,78,-56,-1,-1,0
43366,2359296,78,-56,-1,-1,0
43400,1245184,78,-56,-1,-1,0
43433,0,78,-56,-1,-1,0
43466,-196608,78,-56,-1,-1,0
43500,-131072,78,-56,-1,-1,0
43533,-65536,78,-56,-1,-1,0
43566,-65536,78,-56,-1,-1,0
43600,-196608,78,-56,-1,-1,0
43633,-393216,78,-56,-1,-1,0
43666,-262144,78,-56,-1,-1,0
43700,-262144,78,-56,-1,-1,0
43733,262144,78,-56,-1,-1,0
43766,-720896,78,-56,-1,-1,0
43800,-393216,78,-56,-1,-1,0
43833,-196608,78,-56,-1,-1,0
43866,-262144,78,-56,-1,-1,0
43900,786432,78,-56,-1,-1,0
43933,2293760,78,-56,-1,-1,0
43966,851968,78,-56,-1,-1,0
44000,-786432,78,-56,-1,-1,0
44033,-393216,78,-56,-1,-1,0
44066,-720896,78,-56,-1,-1,0
44100,-589824,78,-56,-1,-1,0
44133,-786432,78,-56,-1,-1,0
44166,-1048576,78,-56,-1,-1,0
44200,-589824,78,-56,-1,-1,0
44233,-720896,78,-56,-1,-1,0
44266,-458752,78,-56,-1,-1,0
44300,-851968,78,-56,-1,-1,0
44333,1048576,78,-56,-1,-1,0
44366,-131072,78,-56,-1,-1,0
44400,0,78,-56,-1,-1,0
44433,196608,78,-56,-1,-1,0
44466,917504,78,-56,-1,-1,0
44500,2555904,78,-56,-1,-1,0
44533,1835008,78,-56,-1,-1,0
44566,524288,78,-56,-1,-1,0
44600,524288,78,-56,-1,-1,0
44633,524288,78,-56,-1,-1,0
44666,851968,78,-56,-1,-1,0
44700,524288,78,-56,-1,-1,0
44733,655360,78,-56,-1,-1,0
44766,589824,78,-56,-1,-1,0
44800,589824,78,-56,-1,-1,0
44833,262144,80,-56,-1,-1,0
44866,-458752,80,-56,-1,-1,0
44900,3473408,80,-56,-1,-1,0
44933,-458752,80,-56,-1,-1,0
44966,-458752,80,-56,-1,-1,0
45000,-393216,80,-56,-1,-1,0
45033,65536,80,-56,-1,-1,0
45066,1638400,80,-56,-1,-1,0
45100,917504,80,-56,-1,-1,0
45133,-1310720,80,-56,-1,-1,0
45166,-1245184,80,-56,-1,-1,0
45200,-1310720,80,-56,-1,-1,0
45233,-1310720,80,-56,-1,-1,0
45266,-983040,80,-56,-1,-1,0
45300,-1048576,80,-56,-1,-1,0
45333,-1310720,80,-56,-1,-1,0
45366,-851968,80,-56,-1,-1,0
45400,-1310720,80,-56,-1,-1,0
45433,-2162688,81,-56,-1,-1,0
45466,3473408,81,-56,-1,-1,0
45500,-2097152,81,-56,-1,-1,0
45533,-1507328,81,-56,-1,-1,0
45566,-1179648,81,-56,-1,-1,0
45600,-589824,81,-56,-1,-1,0
45633,1114112,81,-56,-1,-1,0
45666,917504,81,-56,-1,-1,0
45700,-655360,81,-56,-1,-1,0
45733,-720896,81,-56,-1,-1,0
45766,-589824,81,-56,-1,-1,0
45800,-393216,81,-56,-1,-1,0
45833,-262144,81,-56,-1,-1,0
45866,-393216,81,-56,-1,-1,0
45900,-327680,81,-56,-1,-1,0
45933,-655360,81,-56,-1,-1,0
45966,-65536,81,-56,-1,-1,0
46000,-851968,82,-56,-1,-1,0
46033,-65536,82,-56,-1,-1,0
46066,-1179648,82,-56,-1,-1,0
46100,-131072,82,-56,-1,-1,0
46133,-720896,82,-56,-1,-1,0
46166,-262144,82,-56,-1,-1,0
46200,524288,82,-56,-1,-1,0
46233,2293760,82,-56,-1,-1,0
46266,720896,82,-56,-1,-1,0
46300,-131072,82,-56,-1,-1,0
46333,393216,82,-56,-1,-1,0
46366,-65536,82,-56,-1,-1,0
46400,65536,82,-56,-1,-1,0
46433,65536,82,-56,-1,-1,0
46466,-393216,82,-56,-1,-1,0
46500,-524288,82,-56,-1,-1,0
46533,-393216,84,-56,-1,-1,0
46566,-589824,84,-56,-1,-1,0
46600,1900544,84,-56,-1,-1,0
46633,-1835008,84,-56,-1,-1,0
46666,-720896,84,-56,-1,-1,0
46700,-720896,84,-56,-1,-1,0
46733,-589824,84,-56,-1,-1,0
46766,524288,84,-56,-1,-1,0
46800,1900544,84,-56,-1,-1,0
46833,65536,84,-56,-1,-1,0
46866,-655360,84,-56,-1,-1,0
46900,-589824,84,-56,-1,-1,0
46933,-524288,84,-56,-1,-1,0
46966,-458752,84,-56,-1,-1,0
47000,-393216,84,-56,-1,-1,0
47033,-655360,84,-56,-1,-1,0
47066,-458752,86,-56,-1,-1,0
47100,-786432,86,-56,-1,-1,0
47133,-262144,86,-56,-1,-1,0
47166,-1310720,86,-56,-1,-1,0
47200,-786432,86,-56,-1,-1,0
47233,-589824,86,-56,-1,-1,0
47266,-196608,86,-56,-1,-1,0
47300,393216,86,-56,-1,-1,0
47333,2293760,86,-56,-1,-1,0
47366,524288,86,-56,-1,-1,0
47400,-327680,86,-56,-1,-1,0
47433,-262144,86,-56,-1,-1,0
47466,-65536,86,-56,-1,-1,0
47500,-65536,86,-56,-1,-1,0
47533,-131072,86,-56,-1,-1,0
47566,-327680,86,-56,-1,-1,0
47600,-196608,86,-56,-1,-1,0
47633,-327680,86,-56,-1,-1,0
47666,524288,86,-56,-1,-1,0
47700,-1048576,86,-56,-1,-1,0
47733,-1114112,86,-56,-1,-1,0
47766,-458752,86,-56,-1,-1,0
47800,-1245184,86,-56,-1,-1,0
47833,196608,86,-56,-1,-1,0
47866,1703936,86,-56,-1,-1,0
47900,65536,86,-56,-1,-1,0
47933,-655360,86,-56,-1,-1,0
47966,-196608,86,-56,-1,-1,0
48000,-393216,86,-56,-1,-1,0
48033,-327680,86,-56,-1,-1,0
48066,-393216,86,-56,-1,-1,0
48100,-393216,86,-56,-1,-1,0
48133,-720896,87,-56,-1,-1,0
48166,-720896,87,-56,-1,-1,0
48200,4521984,87,-56,-1,-1,0
48233,-1179648,87,-56,-1,-1,0
48266,-917504,87,-56,-1,-1,0
48300,-393216,87,-56,-1,-1,0
48333,-458752,87,-56,-1,-1,0
48366,917504,87,-56,-1,-1,0
48400,1441792,87,-56,-1,-1,0
48433,-131072,87,-56,-1,-1,0
48466,-458752,87,-56,-1,-1,0
48500,-393216,87,-56,-1,-1,0
48533,-327680,87,-56,-1,-1,0
48566,-196608,87,-56,-1,-1,0
48600,-327680,87,-56,-1,-1,0
48633,-327680,88,-56,-1,-1,0
48666,-196608,88,-56,-1,-1,0
48700,0,88,-56,-1,-1,0
48733,4915200,88,-56,-1,-1,0
48766,-851968,88,-56,-1,-1,0
48800,0,88,-56,-1,-1,0
48833,0,88,-56,-1,-1,0
48866,65536,88,-56,-1,-1,0
48900,1507328,88,-56,-1,-1,0
48933,2031616,88,-56,-1,-1,0
48966,327680,88,-56,-1,-1,0
49000,0,88,-56,-1,-1,0
49033,-65536,88,-56,-1,-1,0
49066,65536,88,-56,-1,-1,0
49100,65536,88,-56,-1,-1,0
49133,65536,88,-56,-1,-1,0
49166,65536,88,-56,-1,-1,0
49200,0,89,-56,-1,-1,0
49233,-327680,89,-56,-1,-1,0
49266,2031616,89,-56,-1,-1,0
49300,-196608,89,-56,-1,-1,0
49333,-131072,89,-56,-1,-1,0
49366,0,89,-56,-1,-1,0
49400,589824,89,-56,-1,-1,0
49433,2031616,89,-56,-1,-1,0
49466,983040,89,-56,-1,-1,0
49500,-196608,89,-56,-1,-1,0
49533,-720896,89,-56,-1,-1,0
49566,-131072,89,-56,-1,-1,0
49600,-458752,89,-56,-1,-1,0
49633,-720896,89,-56,-1,-1,0
49666,-786432,89,-56,-1,-1,0
49700,-851968,89,-56,-1,-1,0
49733,-1048576,89,-56,-1,-1,0
49766,-131072,89,-56,-1,-1,0
49800,4325376,89,-56,-1,-1,0
49833,-1310720,89,-56,-1,-1,0
49866,-917504,89,-56,-1,-1,0
49900,-851968,89,-56,-1,-1,0
49933,-196608,89,-56,-1,-1,0
49966,851968,89,-56,-1,-1,0
