milliseconds, ECG, ECG HR, PPG, PPG HR, SpO2, PI
1523611284422,2621440,75,-56,-1,-1,0
1523611284422,2686976,75,-56,-1,-1,0
1523611284422,2621440,75,-56,-1,-1,0
1523611284422,2293760,75,-56,-1,-1,0
1523611284422,1703936,75,-56,-1,-1,0
1523611284469,1048576,75,-56,-1,-1,0
1523611284469,524288,75,-56,-1,-1,0
1523611284469,0,75,-56,-1,-1,0
1523611284469,-327680,75,-56,-1,-1,0
1523611284469,-589824,75,-56,-1,-1,0
1523611284502,-720896,75,-56,-1,-1,0
1523611284502,-786432,75,-56,-1,-1,0
1523611284502,-786432,75,-56,-1,-1,0
1523611284502,-786432,75,-56,-1,-1,0
1523611284502,-917504,75,-56,-1,-1,0
1523611284542,-917504,75,-56,-1,-1,0
1523611284542,-917504,75,-56,-1,-1,0
1523611284542,-851968,75,-56,-1,-1,0
1523611284542,-851968,75,-56,-1,-1,0
1523611284542,-851968,75,-56,-1,-1,0
1523611284582,-851968,75,-56,-1,-1,0
1523611284582,-851968,75,-56,-1,-1,0
1523611284582,-917504,75,-56,-1,-1,0
1523611284582,-917504,75,-56,-1,-1,0
1523611284582,-851968,75,-56,-1,-1,0
1523611284622,-786432,75,-56,-1,-1,0
1523611284622,-786432,75,-56,-1,-1,0
1523611284622,-851968,75,-56,-1,-1,0
1523611284622,-851968,75,-56,-1,-1,0
1523611284622,-851968,75,-56,-1,-1,0
1523611284662,-851968,75,-56,-1,-1,0
1523611284662,-983040,75,-56,-1,-1,0
1523611284662,-983040,75,-56,-1,-1,0
1523611284662,-1048576,75,-56,-1,-1,0
1523611284662,-1048576,75,-56,-1,-1,0
1523611284702,-1114112,75,-56,-1,-1,0
1523611284702,-1245184,75,-56,-1,-1,0
1523611284702,-1245184,75,-56,-1,-1,0
1523611284702,-1114112,75,-56,-1,-1,0
1523611284702,-851968,75,-56,-1,-1,0
1523611284742,-655360,75,-56,-1,-1,0
1523611284742,-524288,75,-56,-1,-1,0
1523611284742,-589824,75,-56,-1,-1,0
1523611284742,-851968,75,-56,-1,-1,0
1523611284742,-1048576,75,-56,-1,-1,0
1523611284782,-1114112,75,-56,-1,-1,0
1523611284782,-1114112,75,-56,-1,-1,0
1523611284782,-1114112,75,-56,-1,-1,0
1523611284782,-1179648,75,-56,-1,-1,0
1523611284782,-1245184,75,-56,-1,-1,0
1523611284822,-1245184,75,-56,-1,-1,0
1523611284822,-1245184,75,-56,-1,-1,0
1523611284822,-1179648,75,-56,-1,-1,0
1523611284822,-1114112,75,-56,-1,-1,0
1523611284822,-720896,75,-56,-1,-1,0
1523611284862,917504,75,-56,-1,-1,0
1523611284862,4915200,75,-56,-1,-1,0
1523611284862,10158080,75,-56,-1,-1,0
1523611284862,10616832,75,-56,-1,-1,0
1523611284862,4915200,75,-56,-1,-1,0
1523611284902,-524288,75,-56,-1,-1,0
1523611284902,-1507328,75,-56,-1,-1,0
1523611284902,-917504,75,-56,-1,-1,0
1523611284902,-786432,75,-56,-1,-1,0
1523611284902,-851968,75,-56,-1,-1,0
1523611284942,-983040,75,-56,-1,-1,0
1523611284942,-917504,75,-56,-1,-1,0
1523611284942,-851968,75,-56,-1,-1,0
1523611284942,-786432,75,-56,-1,-1,0
1523611284942,-655360,75,-56,-1,-1,0
1523611284982,-589824,75,-56,-1,-1,0
1523611284982,-524288,75,-56,-1,-1,0
1523611284982,-393216,75,-56,-1,-1,0
1523611284982,-196608,75,-56,-1,-1,0
1523611284982,-65536,75,-56,-1,-1,0
1523611285022,0,75,-56,-1,-1,0
1523611285022,131072,75,-56,-1,-1,0
1523611285022,393216,75,-56,-1,-1,0
1523611285022,524288,75,-56,-1,-1,0
1523611285022,786432,75,-56,-1,-1,0
1523611285062,1048576,75,-56,-1,-1,0
1523611285062,1441792,75,-56,-1,-1,0
1523611285062,1703936,75,-56,-1,-1,0
1523611285062,2097152,75,-56,-1,-1,0
1523611285062,2293760,75,-56,-1,-1,0
1523611285103,2424832,75,-56,-1,-1,0
1523611285103,2359296,75,-56,-1,-1,0
1523611285103,2228224,75,-56,-1,-1,0
1523611285103,1769472,75,-56,-1,-1,0
1523611285103,1048576,75,-56,-1,-1,0
1523611285142,393216,75,-56,-1,-1,0
1523611285142,-65536,75,-56,-1,-1,0
1523611285142,-524288,75,-56,-1,-1,0
1523611285142,-786432,75,-56,-1,-1,0
1523611285142,-851968,75,-56,-1,-1,0
1523611285181,-917504,75,-56,-1,-1,0
1523611285181,-983040,75,-56,-1,-1,0
1523611285181,-1048576,75,-56,-1,-1,0
1523611285181,-1048576,75,-56,-1,-1,0
1523611285181,-1048576,75,-56,-1,-1,0
1523611285221,-1048576,75,-56,-1,-1,0
1523611285221,-983040,75,-56,-1,-1,0
1523611285221,-983040,75,-56,-1,-1,0
1523611285221,-983040,75,-56,-1,-1,0
1523611285221,-917504,75,-56,-1,-1,0
1523611285262,-917504,75,-56,-1,-1,0
1523611285262,-983040,75,-56,-1,-1,0
1523611285262,-1048576,75,-56,-1,-1,0
1523611285262,-1048576,75,-56,-1,-1,0
1523611285262,-1048576,75,-56,-1,-1,0
1523611285301,-983040,75,-56,-1,-1,0
1523611285301,-983040,75,-56,-1,-1,0
1523611285301,-983040,75,-56,-1,-1,0
1523611285301,-983040,75,-56,-1,-1,0
1523611285301,-1048576,75,-56,-1,-1,0
1523611285341,-1114112,75,-56,-1,-1,0
1523611285341,-1179648,75,-56,-1,-1,0
1523611285341,-1245184,75,-56,-1,-1,0
1523611285341,-1179648,75,-56,-1,-1,0
1523611285341,-1114112,75,-56,-1,-1,0
1523611285381,-1179648,75,-56,-1,-1,0
1523611285381,-1310720,75,-56,-1,-1,0
1523611285381,-1310720,75,-56,-1,-1,0
1523611285381,-1245184,75,-56,-1,-1,0
1523611285381,-1114112,75,-56,-1,-1,0
1523611285421,-983040,75,-56,-1,-1,0
1523611285421,-786432,75,-56,-1,-1,0
1523611285421,-720896,75,-56,-1,-1,0
1523611285421,-917504,75,-56,-1,-1,0
1523611285421,-1114112,75,-56,-1,-1,0
1523611285461,-1245184,75,-56,-1,-1,0
1523611285461,-1245184,75,-56,-1,-1,0
1523611285461,-1179648,75,-56,-1,-1,0
1523611285461,-1179648,75,-56,-1,-1,0
1523611285461,-1048576,75,-56,-1,-1,0
1523611285502,-1048576,76,-56,-1,-1,0
1523611285502,-983040,76,-56,-1,-1,0
1523611285502,-1048576,76,-56,-1,-1,0
1523611285502,-1048576,76,-56,-1,-1,0
1523611285502,-917504,76,-56,-1,-1,0
1523611285542,-262144,76,-56,-1,-1,0
1523611285542,1835008,76,-56,-1,-1,0
1523611285542,6422528,76,-56,-1,-1,0
1523611285542,10682368,76,-56,-1,-1,0
1523611285542,8978432,76,-56,-1,-1,0
1523611285581,2883584,76,-56,-1,-1,0
1523611285581,-1048576,76,-56,-1,-1,0
1523611285581,-1114112,76,-56,-1,-1,0
1523611285581,-589824,76,-56,-1,-1,0
1523611285581,-589824,76,-56,-1,-1,0
1523611285622,-524288,76,-56,-1,-1,0
1523611285622,-589824,76,-56,-1,-1,0
1523611285622,-524288,76,-56,-1,-1,0
1523611285622,-458752,76,-56,-1,-1,0
1523611285622,-262144,76,-56,-1,-1,0
1523611285662,-196608,76,-56,-1,-1,0
1523611285662,-131072,76,-56,-1,-1,0
1523611285662,-65536,76,-56,-1,-1,0
1523611285662,0,76,-56,-1,-1,0
1523611285662,131072,76,-56,-1,-1,0
1523611285701,262144,76,-56,-1,-1,0
1523611285701,524288,76,-56,-1,-1,0
1523611285701,720896,76,-56,-1,-1,0
1523611285701,983040,76,-56,-1,-1,0
1523611285701,1179648,76,-56,-1,-1,0
1523611285743,1507328,76,-56,-1,-1,0
1523611285743,1769472,76,-56,-1,-1,0
1523611285743,2097152,76,-56,-1,-1,0
1523611285743,2359296,76,-56,-1,-1,0
1523611285743,2621440,76,-56,-1,-1,0
1523611285781,2686976,76,-56,-1,-1,0
1523611285781,2752512,76,-56,-1,-1,0
1523611285781,2686976,76,-56,-1,-1,0
1523611285781,2424832,76,-56,-1,-1,0
1523611285781,1900544,76,-56,-1,-1,0
1523611285821,1245184,76,-56,-1,-1,0
1523611285821,655360,76,-56,-1,-1,0
1523611285821,196608,76,-56,-1,-1,0
1523611285821,-131072,76,-56,-1,-1,0
1523611285821,-458752,76,-56,-1,-1,0
1523611285861,-655360,76,-56,-1,-1,0
1523611285861,-786432,76,-56,-1,-1,0
1523611285861,-851968,76,-56,-1,-1,0
1523611285861,-917504,76,-56,-1,-1,0
1523611285861,-851968,76,-56,-1,-1,0
1523611285901,-851968,76,-56,-1,-1,0
1523611285901,-851968,76,-56,-1,-1,0
1523611285901,-786432,76,-56,-1,-1,0
1523611285901,-720896,76,-56,-1,-1,0
1523611285901,-720896,76,-56,-1,-1,0
1523611285941,-720896,76,-56,-1,-1,0
1523611285941,-786432,76,-56,-1,-1,0
1523611285941,-786432,76,-56,-1,-1,0
1523611285941,-786432,76,-56,-1,-1,0
1523611285941,-720896,76,-56,-1,-1,0
1523611285982,-720896,76,-56,-1,-1,0
1523611285982,-786432,76,-56,-1,-1,0
1523611285982,-786432,76,-56,-1,-1,0
1523611285982,-851968,76,-56,-1,-1,0
1523611285982,-851968,76,-56,-1,-1,0
1523611286021,-851968,76,-56,-1,-1,0
1523611286021,-917504,76,-56,-1,-1,0
1523611286021,-917504,76,-56,-1,-1,0
1523611286021,-851968,76,-56,-1,-1,0
1523611286021,-917504,76,-56,-1,-1,0
1523611286061,-1048576,76,-56,-1,-1,0
1523611286061,-1179648,76,-56,-1,-1,0
1523611286061,-1245184,76,-56,-1,-1,0
1523611286061,-1245184,76,-56,-1,-1,0
1523611286061,-1179648,76,-56,-1,-1,0
1523611286101,-1114112,76,-56,-1,-1,0
1523611286101,-917504,76,-56,-1,-1,0
1523611286101,-720896,76,-56,-1,-1,0
1523611286101,-655360,76,-56,-1,-1,0
1523611286101,-786432,76,-56,-1,-1,0
1523611286142,-917504,76,-56,-1,-1,0
1523611286142,-983040,76,-56,-1,-1,0
1523611286142,-983040,76,-56,-1,-1,0
1523611286142,-983040,76,-56,-1,-1,0
1523611286142,-1048576,76,-56,-1,-1,0
1523611286181,-1114112,76,-56,-1,-1,0
1523611286181,-1114112,76,-56,-1,-1,0
1523611286181,-1114112,76,-56,-1,-1,0
1523611286181,-1048576,76,-56,-1,-1,0
1523611286181,-1114112,76,-56,-1,-1,0
1523611286221,-1114112,76,-56,-1,-1,0
1523611286221,-524288,76,-56,-1,-1,0
1523611286221,1703936,76,-56,-1,-1,0
1523611286221,6094848,76,-56,-1,-1,0
1523611286221,9764864,76,-56,-1,-1,0
1523611286261,7536640,78,-56,-1,-1,0
1523611286261,1572864,78,-56,-1,-1,0
1523611286261,-1835008,78,-56,-1,-1,0
1523611286261,-1638400,78,-56,-1,-1,0
1523611286261,-1048576,78,-56,-1,-1,0
1523611286303,-917504,78,-56,-1,-1,0
1523611286303,-917504,78,-56,-1,-1,0
1523611286303,-983040,78,-56,-1,-1,0
1523611286303,-851968,78,-56,-1,-1,0
1523611286303,-786432,78,-56,-1,-1,0
1523611286342,-786432,78,-56,-1,-1,0
1523611286342,-786432,78,-56,-1,-1,0
1523611286342,-655360,78,-56,-1,-1,0
1523611286342,-589824,78,-56,-1,-1,0
1523611286342,-458752,78,-56,-1,-1,0
1523611286383,-327680,78,-56,-1,-1,0
1523611286383,-196608,78,-56,-1,-1,0
1523611286383,0,78,-56,-1,-1,0
1523611286383,131072,78,-56,-1,-1,0
1523611286383,327680,78,-56,-1,-1,0
1523611286421,524288,78,-56,-1,-1,0
1523611286421,851968,78,-56,-1,-1,0
1523611286421,1179648,78,-56,-1,-1,0
1523611286421,1507328,78,-56,-1,-1,0
1523611286421,1835008,78,-56,-1,-1,0
1523611286462,2031616,78,-56,-1,-1,0
1523611286462,2162688,78,-56,-1,-1,0
1523611286462,2228224,78,-56,-1,-1,0
1523611286462,2228224,78,-56,-1,-1,0
1523611286462,1966080,78,-56,-1,-1,0
1523611286502,1441792,78,-56,-1,-1,0
1523611286502,851968,78,-56,-1,-1,0
1523611286502,196608,78,-56,-1,-1,0
1523611286502,-196608,78,-56,-1,-1,0
1523611286502,-589824,78,-56,-1,-1,0
1523611286541,-851968,78,-56,-1,-1,0
1523611286541,-983040,78,-56,-1,-1,0
1523611286541,-983040,78,-56,-1,-1,0
1523611286541,-1048576,78,-56,-1,-1,0
1523611286541,-983040,78,-56,-1,-1,0
1523611286581,-983040,78,-56,-1,-1,0
1523611286581,-1048576,78,-56,-1,-1,0
1523611286581,-1048576,78,-56,-1,-1,0
1523611286581,-983040,78,-56,-1,-1,0
1523611286581,-917504,78,-56,-1,-1,0
1523611286622,-851968,78,-56,-1,-1,0
1523611286622,-786432,78,-56,-1,-1,0
1523611286622,-851968,78,-56,-1,-1,0
1523611286622,-851968,78,-56,-1,-1,0
1523611286622,-851968,78,-56,-1,-1,0
1523611286662,-851968,78,-56,-1,-1,0
1523611286662,-917504,78,-56,-1,-1,0
1523611286662,-983040,78,-56,-1,-1,0
1523611286662,-983040,78,-56,-1,-1,0
1523611286662,-917504,78,-56,-1,-1,0
1523611286704,-917504,78,-56,-1,-1,0
1523611286704,-917504,78,-56,-1,-1,0
1523611286704,-983040,78,-56,-1,-1,0
1523611286704,-983040,78,-56,-1,-1,0
1523611286704,-983040,78,-56,-1,-1,0
1523611286742,-983040,78,-56,-1,-1,0
1523611286742,-1048576,78,-56,-1,-1,0
1523611286742,-1048576,78,-56,-1,-1,0
1523611286742,-1048576,78,-56,-1,-1,0
1523611286742,-1048576,78,-56,-1,-1,0
1523611286782,-1048576,78,-56,-1,-1,0
1523611286782,-983040,78,-56,-1,-1,0
1523611286782,-983040,78,-56,-1,-1,0
1523611286782,-983040,78,-56,-1,-1,0
1523611286782,-1114112,78,-56,-1,-1,0
1523611286821,-1179648,78,-56,-1,-1,0
1523611286821,-1179648,78,-56,-1,-1,0
1523611286821,-1114112,78,-56,-1,-1,0
1523611286821,-917504,78,-56,-1,-1,0
1523611286821,-720896,78,-56,-1,-1,0
1523611286862,-589824,78,-56,-1,-1,0
1523611286862,-589824,78,-56,-1,-1,0
1523611286862,-655360,78,-56,-1,-1,0
1523611286862,-786432,78,-56,-1,-1,0
1523611286862,-851968,78,-56,-1,-1,0
1523611286903,-851968,78,-56,-1,-1,0
1523611286903,-786432,78,-56,-1,-1,0
1523611286903,-786432,78,-56,-1,-1,0
1523611286903,-851968,78,-56,-1,-1,0
1523611286903,-917504,78,-56,-1,-1,0
1523611286942,-917504,78,-56,-1,-1,0
1523611286942,-917504,78,-56,-1,-1,0
1523611286942,-851968,78,-56,-1,-1,0
1523611286942,-589824,78,-56,-1,-1,0
1523611286942,458752,78,-56,-1,-1,0
1523611286982,3407872,78,-56,-1,-1,0
1523611286982,8126464,78,-56,-1,-1,0
1523611286982,10420224,78,-56,-1,-1,0
1523611286982,6750208,78,-56,-1,-1,0
1523611286982,1048576,78,-56,-1,-1,0
1523611287023,-1114112,79,-56,-1,-1,0
1523611287023,-655360,79,-56,-1,-1,0
1523611287023,-393216,79,-56,-1,-1,0
1523611287023,-524288,79,-56,-1,-1,0
1523611287023,-589824,79,-56,-1,-1,0
1523611287062,-524288,79,-56,-1,-1,0
1523611287062,-458752,79,-56,-1,-1,0
1523611287062,-393216,79,-56,-1,-1,0
1523611287062,-262144,79,-56,-1,-1,0
1523611287062,-196608,79,-56,-1,-1,0
1523611287102,-65536,79,-56,-1,-1,0
1523611287102,0,79,-56,-1,-1,0
1523611287102,131072,79,-56,-1,-1,0
1523611287102,196608,79,-56,-1,-1,0
1523611287102,393216,79,-56,-1,-1,0
1523611287142,589824,79,-56,-1,-1,0
1523611287142,851968,79,-56,-1,-1,0
1523611287142,983040,79,-56,-1,-1,0
1523611287142,1310720,79,-56,-1,-1,0
1523611287142,1572864,79,-56,-1,-1,0
1523611287182,1835008,79,-56,-1,-1,0
1523611287182,2097152,79,-56,-1,-1,0
1523611287182,2293760,79,-56,-1,-1,0
1523611287182,2490368,79,-56,-1,-1,0
1523611287182,2555904,79,-56,-1,-1,0
1523611287223,2621440,79,-56,-1,-1,0
1523611287223,2490368,79,-56,-1,-1,0
1523611287223,2293760,79,-56,-1,-1,0
1523611287223,1900544,79,-56,-1,-1,0
1523611287223,1376256,79,-56,-1,-1,0
1523611287262,851968,79,-56,-1,-1,0
1523611287262,393216,79,-56,-1,-1,0
1523611287262,131072,79,-56,-1,-1,0
1523611287262,-65536,79,-56,-1,-1,0
1523611287262,-196608,79,-56,-1,-1,0
1523611287302,-262144,79,-56,-1,-1,0
1523611287302,-327680,79,-56,-1,-1,0
1523611287302,-262144,79,-56,-1,-1,0
1523611287302,-327680,79,-56,-1,-1,0
1523611287302,-262144,79,-56,-1,-1,0
1523611287342,-262144,79,-56,-1,-1,0
1523611287342,-262144,79,-56,-1,-1,0
1523611287342,-262144,79,-56,-1,-1,0
1523611287342,-327680,79,-56,-1,-1,0
1523611287342,-327680,79,-56,-1,-1,0
1523611287384,-327680,79,-56,-1,-1,0
1523611287384,-393216,79,-56,-1,-1,0
1523611287384,-393216,79,-56,-1,-1,0
1523611287384,-393216,79,-56,-1,-1,0
1523611287384,-393216,79,-56,-1,-1,0
1523611287422,-393216,79,-56,-1,-1,0
1523611287422,-524288,79,-56,-1,-1,0
1523611287422,-524288,79,-56,-1,-1,0
1523611287422,-524288,79,-56,-1,-1,0
1523611287422,-524288,79,-56,-1,-1,0
1523611287462,-524288,79,-56,-1,-1,0
1523611287462,-589824,79,-56,-1,-1,0
1523611287462,-589824,79,-56,-1,-1,0
1523611287462,-589824,79,-56,-1,-1,0
1523611287462,-589824,79,-56,-1,-1,0
1523611287503,-589824,79,-56,-1,-1,0
1523611287503,-589824,79,-56,-1,-1,0
1523611287503,-589824,79,-56,-1,-1,0
1523611287503,-589824,79,-56,-1,-1,0
1523611287503,-589824,79,-56,-1,-1,0
1523611287542,-589824,79,-56,-1,-1,0
1523611287542,-589824,79,-56,-1,-1,0
1523611287542,-589824,79,-56,-1,-1,0
1523611287542,-589824,79,-56,-1,-1,0
1523611287542,-589824,79,-56,-1,-1,0
1523611287584,-720896,79,-56,-1,-1,0
1523611287584,-786432,79,-56,-1,-1,0
1523611287584,-786432,79,-56,-1,-1,0
1523611287584,-655360,79,-56,-1,-1,0
1523611287584,-524288,79,-56,-1,-1,0
1523611287622,-327680,79,-56,-1,-1,0
1523611287622,-196608,79,-56,-1,-1,0
1523611287622,-262144,79,-56,-1,-1,0
1523611287622,-393216,79,-56,-1,-1,0
1523611287622,-524288,79,-56,-1,-1,0
1523611287663,-655360,79,-56,-1,-1,0
1523611287663,-720896,79,-56,-1,-1,0
1523611287663,-720896,79,-56,-1,-1,0
1523611287663,-720896,79,-56,-1,-1,0
1523611287663,-720896,79,-56,-1,-1,0
1523611287702,-786432,79,-56,-1,-1,0
1523611287702,-786432,79,-56,-1,-1,0
1523611287702,-786432,79,-56,-1,-1,0
1523611287702,-786432,79,-56,-1,-1,0
1523611287702,-589824,79,-56,-1,-1,0
1523611287742,262144,79,-56,-1,-1,0
1523611287742,2949120,79,-56,-1,-1,0
1523611287742,7602176,79,-56,-1,-1,0
1523611287742,10354688,79,-56,-1,-1,0
1523611287742,7143424,79,-56,-1,-1,0
1523611287784,1310720,79,-56,-1,-1,0
1523611287784,-1179648,79,-56,-1,-1,0
1523611287784,-786432,79,-56,-1,-1,0
1523611287784,-458752,79,-56,-1,-1,0
1523611287784,-524288,79,-56,-1,-1,0
1523611287822,-524288,79,-56,-1,-1,0
1523611287822,-458752,79,-56,-1,-1,0
1523611287822,-393216,79,-56,-1,-1,0
1523611287822,-393216,79,-56,-1,-1,0
1523611287822,-327680,79,-56,-1,-1,0
1523611287862,-262144,79,-56,-1,-1,0
1523611287862,-196608,79,-56,-1,-1,0
1523611287862,-131072,79,-56,-1,-1,0
1523611287862,0,79,-56,-1,-1,0
1523611287862,65536,79,-56,-1,-1,0
1523611287902,196608,79,-56,-1,-1,0
1523611287902,327680,79,-56,-1,-1,0
1523611287902,458752,79,-56,-1,-1,0
1523611287902,655360,79,-56,-1,-1,0
1523611287902,917504,79,-56,-1,-1,0
1523611287942,1179648,79,-56,-1,-1,0
1523611287942,1507328,79,-56,-1,-1,0
1523611287942,1769472,79,-56,-1,-1,0
1523611287942,2031616,79,-56,-1,-1,0
1523611287942,2228224,79,-56,-1,-1,0
1523611287987,2359296,79,-56,-1,-1,0
1523611287987,2359296,79,-56,-1,-1,0
1523611287987,2228224,79,-56,-1,-1,0
1523611287987,2031616,79,-56,-1,-1,0
1523611287987,1638400,79,-56,-1,-1,0
1523611288022,1114112,79,-56,-1,-1,0
1523611288022,524288,79,-56,-1,-1,0
1523611288022,65536,79,-56,-1,-1,0
1523611288022,-262144,79,-56,-1,-1,0
1523611288022,-524288,79,-56,-1,-1,0
1523611288062,-655360,79,-56,-1,-1,0
1523611288062,-720896,79,-56,-1,-1,0
1523611288062,-720896,79,-56,-1,-1,0
1523611288062,-655360,79,-56,-1,-1,0
1523611288062,-655360,79,-56,-1,-1,0
1523611288102,-655360,79,-56,-1,-1,0
1523611288102,-655360,79,-56,-1,-1,0
1523611288102,-589824,79,-56,-1,-1,0
1523611288102,-589824,79,-56,-1,-1,0
1523611288102,-524288,79,-56,-1,-1,0
1523611288142,-589824,79,-56,-1,-1,0
1523611288142,-589824,79,-56,-1,-1,0
1523611288142,-589824,79,-56,-1,-1,0
1523611288142,-655360,79,-56,-1,-1,0
1523611288142,-655360,79,-56,-1,-1,0
1523611288184,-720896,79,-56,-1,-1,0
1523611288184,-720896,79,-56,-1,-1,0
1523611288184,-720896,79,-56,-1,-1,0
1523611288184,-720896,79,-56,-1,-1,0
1523611288184,-720896,79,-56,-1,-1,0
1523611288222,-720896,79,-56,-1,-1,0
1523611288222,-786432,79,-56,-1,-1,0
1523611288222,-851968,79,-56,-1,-1,0
1523611288222,-917504,79,-56,-1,-1,0
1523611288222,-983040,79,-56,-1,-1,0
1523611288262,-983040,79,-56,-1,-1,0
1523611288262,-917504,79,-56,-1,-1,0
1523611288262,-917504,79,-56,-1,-1,0
1523611288262,-983040,79,-56,-1,-1,0
1523611288262,-983040,79,-56,-1,-1,0
1523611288303,-983040,79,-56,-1,-1,0
1523611288303,-983040,79,-56,-1,-1,0
1523611288303,-1048576,79,-56,-1,-1,0
1523611288303,-1048576,79,-56,-1,-1,0
1523611288303,-1114112,79,-56,-1,-1,0
1523611288342,-1048576,79,-56,-1,-1,0
1523611288342,-1048576,79,-56,-1,-1,0
1523611288342,-1179648,79,-56,-1,-1,0
1523611288342,-1310720,79,-56,-1,-1,0
1523611288342,-1310720,79,-56,-1,-1,0
1523611288382,-1245184,79,-56,-1,-1,0
1523611288382,-1179648,79,-56,-1,-1,0
1523611288382,-1048576,79,-56,-1,-1,0
1523611288382,-917504,79,-56,-1,-1,0
1523611288382,-851968,79,-56,-1,-1,0
1523611288423,-917504,79,-56,-1,-1,0
1523611288423,-1048576,79,-56,-1,-1,0
1523611288423,-1114112,79,-56,-1,-1,0
1523611288423,-1114112,79,-56,-1,-1,0
1523611288423,-1114112,79,-56,-1,-1,0
1523611288462,-1114112,79,-56,-1,-1,0
1523611288462,-1048576,79,-56,-1,-1,0
1523611288462,-1114112,79,-56,-1,-1,0
1523611288462,-1114112,79,-56,-1,-1,0
1523611288462,-1048576,79,-56,-1,-1,0
1523611288503,-1048576,79,-56,-1,-1,0
1523611288503,-983040,79,-56,-1,-1,0
1523611288503,-262144,79,-56,-1,-1,0
1523611288503,2162688,79,-56,-1,-1,0
1523611288503,6750208,79,-56,-1,-1,0
1523611288542,10092544,79,-56,-1,-1,0
1523611288542,7340032,79,-56,-1,-1,0
1523611288542,1441792,79,-56,-1,-1,0
1523611288542,-1638400,79,-56,-1,-1,0
1523611288542,-1310720,79,-56,-1,-1,0
1523611288582,-786432,79,-56,-1,-1,0
1523611288582,-720896,79,-56,-1,-1,0
1523611288582,-720896,79,-56,-1,-1,0
1523611288582,-720896,79,-56,-1,-1,0
1523611288582,-589824,79,-56,-1,-1,0
1523611288622,-589824,80,-56,-1,-1,0
1523611288622,-458752,80,-56,-1,-1,0
1523611288622,-458752,80,-56,-1,-1,0
1523611288622,-327680,80,-56,-1,-1,0
1523611288622,-262144,80,-56,-1,-1,0
1523611288662,-131072,80,-56,-1,-1,0
1523611288662,0,80,-56,-1,-1,0
1523611288662,131072,80,-56,-1,-1,0
1523611288662,327680,80,-56,-1,-1,0
1523611288662,524288,80,-56,-1,-1,0
1523611288702,720896,80,-56,-1,-1,0
1523611288702,983040,80,-56,-1,-1,0
1523611288702,1245184,80,-56,-1,-1,0
1523611288702,1507328,80,-56,-1,-1,0
1523611288702,1835008,80,-56,-1,-1,0
1523611288742,2162688,80,-56,-1,-1,0
1523611288742,2424832,80,-56,-1,-1,0
1523611288742,2555904,80,-56,-1,-1,0
1523611288742,2621440,80,-56,-1,-1,0
1523611288742,2490368,80,-56,-1,-1,0
1523611288782,2228224,80,-56,-1,-1,0
1523611288782,1835008,80,-56,-1,-1,0
1523611288782,1310720,80,-56,-1,-1,0
1523611288782,786432,80,-56,-1,-1,0
1523611288782,327680,80,-56,-1,-1,0
1523611288822,0,80,-56,-1,-1,0
1523611288822,-262144,80,-56,-1,-1,0
1523611288822,-393216,80,-56,-1,-1,0
1523611288822,-458752,80,-56,-1,-1,0
1523611288822,-524288,80,-56,-1,-1,0
1523611288862,-458752,80,-56,-1,-1,0
1523611288862,-458752,80,-56,-1,-1,0
1523611288862,-458752,80,-56,-1,-1,0
1523611288862,-524288,80,-56,-1,-1,0
1523611288862,-458752,80,-56,-1,-1,0
1523611288902,-458752,80,-56,-1,-1,0
1523611288902,-458752,80,-56,-1,-1,0
1523611288902,-458752,80,-56,-1,-1,0
1523611288902,-458752,80,-56,-1,-1,0
1523611288902,-458752,80,-56,-1,-1,0
1523611288943,-458752,80,-56,-1,-1,0
1523611288943,-458752,80,-56,-1,-1,0
1523611288943,-458752,80,-56,-1,-1,0
1523611288943,-524288,80,-56,-1,-1,0
1523611288943,-524288,80,-56,-1,-1,0
1523611288982,-524288,80,-56,-1,-1,0
1523611288982,-589824,80,-56,-1,-1,0
1523611288982,-589824,80,-56,-1,-1,0
1523611288982,-589824,80,-56,-1,-1,0
1523611288982,-655360,80,-56,-1,-1,0
1523611289022,-655360,80,-56,-1,-1,0
1523611289022,-655360,80,-56,-1,-1,0
1523611289022,-720896,80,-56,-1,-1,0
1523611289022,-786432,80,-56,-1,-1,0
1523611289022,-786432,80,-56,-1,-1,0
1523611289062,-786432,80,-56,-1,-1,0
1523611289062,-786432,80,-56,-1,-1,0
1523611289062,-786432,80,-56,-1,-1,0
1523611289062,-786432,80,-56,-1,-1,0
1523611289062,-786432,80,-56,-1,-1,0
1523611289102,-851968,80,-56,-1,-1,0
1523611289102,-851968,80,-56,-1,-1,0
1523611289102,-851968,80,-56,-1,-1,0
1523611289102,-851968,80,-56,-1,-1,0
1523611289102,-851968,80,-56,-1,-1,0
1523611289142,-851968,80,-56,-1,-1,0
1523611289142,-851968,80,-56,-1,-1,0
1523611289142,-851968,80,-56,-1,-1,0
1523611289142,-917504,80,-56,-1,-1,0
1523611289142,-1048576,80,-56,-1,-1,0
1523611289182,-1114112,80,-56,-1,-1,0
1523611289182,-1048576,80,-56,-1,-1,0
1523611289182,-983040,80,-56,-1,-1,0
1523611289182,-851968,80,-56,-1,-1,0
1523611289182,-655360,80,-56,-1,-1,0
1523611289222,-589824,80,-56,-1,-1,0
1523611289222,-589824,80,-56,-1,-1,0
1523611289222,-720896,80,-56,-1,-1,0
1523611289222,-851968,80,-56,-1,-1,0
1523611289222,-851968,80,-56,-1,-1,0
1523611289262,-786432,80,-56,-1,-1,0
1523611289262,-786432,80,-56,-1,-1,0
1523611289262,-851968,80,-56,-1,-1,0
1523611289262,-851968,80,-56,-1,-1,0
1523611289262,-851968,80,-56,-1,-1,0
1523611289302,-917504,80,-56,-1,-1,0
1523611289302,-917504,80,-56,-1,-1,0
1523611289302,-720896,80,-56,-1,-1,0
1523611289302,0,80,-56,-1,-1,0
1523611289302,2293760,80,-56,-1,-1,0
1523611289342,6750208,80,-56,-1,-1,0
1523611289342,10420224,80,-56,-1,-1,0
1523611289342,8323072,80,-56,-1,-1,0
1523611289342,2424832,80,-56,-1,-1,0
1523611289342,-917504,80,-56,-1,-1,0
1523611289382,-917504,80,-56,-1,-1,0
1523611289382,-524288,80,-56,-1,-1,0
1523611289382,-589824,80,-56,-1,-1,0
1523611289382,-655360,80,-56,-1,-1,0
1523611289382,-655360,80,-56,-1,-1,0
1523611289422,-589824,80,-56,-1,-1,0
1523611289422,-524288,80,-56,-1,-1,0
1523611289422,-393216,80,-56,-1,-1,0
1523611289422,-327680,80,-56,-1,-1,0
1523611289422,-262144,80,-56,-1,-1,0
1523611289462,-196608,80,-56,-1,-1,0
1523611289462,-131072,80,-56,-1,-1,0
1523611289462,0,80,-56,-1,-1,0
1523611289462,65536,80,-56,-1,-1,0
1523611289462,262144,80,-56,-1,-1,0
1523611289502,393216,80,-56,-1,-1,0
1523611289502,655360,80,-56,-1,-1,0
1523611289502,851968,80,-56,-1,-1,0
1523611289502,1114112,80,-56,-1,-1,0
1523611289502,1441792,80,-56,-1,-1,0
1523611289542,1703936,80,-56,-1,-1,0
1523611289542,1900544,80,-56,-1,-1,0
1523611289542,2097152,80,-56,-1,-1,0
1523611289542,2228224,80,-56,-1,-1,0
1523611289542,2293760,80,-56,-1,-1,0
1523611289583,2293760,80,-56,-1,-1,0
1523611289583,2162688,80,-56,-1,-1,0
1523611289583,1769472,80,-56,-1,-1,0
1523611289583,1310720,80,-56,-1,-1,0
1523611289583,786432,80,-56,-1,-1,0
1523611289622,327680,80,-56,-1,-1,0
1523611289622,0,80,-56,-1,-1,0
1523611289622,-262144,80,-56,-1,-1,0
1523611289622,-458752,80,-56,-1,-1,0
1523611289622,-589824,80,-56,-1,-1,0
1523611289663,-589824,80,-56,-1,-1,0
1523611289663,-589824,80,-56,-1,-1,0
1523611289663,-589824,80,-56,-1,-1,0
1523611289663,-589824,80,-56,-1,-1,0
1523611289663,-589824,80,-56,-1,-1,0
1523611289702,-524288,80,-56,-1,-1,0
1523611289702,-524288,80,-56,-1,-1,0
1523611289702,-524288,80,-56,-1,-1,0
1523611289702,-524288,80,-56,-1,-1,0
1523611289702,-589824,80,-56,-1,-1,0
1523611289742,-589824,80,-56,-1,-1,0
1523611289742,-589824,80,-56,-1,-1,0
1523611289742,-524288,80,-56,-1,-1,0
1523611289742,-524288,80,-56,-1,-1,0
1523611289742,-589824,80,-56,-1,-1,0
1523611289782,-589824,80,-56,-1,-1,0
1523611289782,-589824,80,-56,-1,-1,0
1523611289782,-589824,80,-56,-1,-1,0
1523611289782,-655360,80,-56,-1,-1,0
1523611289782,-655360,80,-56,-1,-1,0
1523611289822,-655360,80,-56,-1,-1,0
1523611289822,-655360,80,-56,-1,-1,0
1523611289822,-655360,80,-56,-1,-1,0
1523611289822,-655360,80,-56,-1,-1,0
1523611289822,-655360,80,-56,-1,-1,0
1523611289862,-655360,80,-56,-1,-1,0
1523611289862,-655360,80,-56,-1,-1,0
1523611289862,-655360,80,-56,-1,-1,0
1523611289862,-720896,80,-56,-1,-1,0
1523611289862,-720896,80,-56,-1,-1,0
1523611289902,-720896,80,-56,-1,-1,0
1523611289902,-720896,80,-56,-1,-1,0
1523611289902,-720896,80,-56,-1,-1,0
1523611289902,-720896,80,-56,-1,-1,0
1523611289902,-720896,80,-56,-1,-1,0
1523611289942,-720896,80,-56,-1,-1,0
1523611289942,-720896,80,-56,-1,-1,0
1523611289942,-720896,80,-56,-1,-1,0
1523611289942,-720896,80,-56,-1,-1,0
1523611289942,-720896,80,-56,-1,-1,0
1523611289982,-720896,80,-56,-1,-1,0
1523611289982,-720896,80,-56,-1,-1,0
1523611289982,-786432,80,-56,-1,-1,0
1523611289982,-851968,80,-56,-1,-1,0
1523611289982,-983040,80,-56,-1,-1,0
1523611290022,-983040,80,-56,-1,-1,0
1523611290022,-917504,80,-56,-1,-1,0
1523611290022,-786432,80,-56,-1,-1,0
1523611290022,-589824,80,-56,-1,-1,0
1523611290022,-458752,80,-56,-1,-1,0
1523611290062,-458752,80,-56,-1,-1,0
1523611290062,-524288,80,-56,-1,-1,0
1523611290062,-655360,80,-56,-1,-1,0
1523611290062,-720896,80,-56,-1,-1,0
1523611290062,-786432,80,-56,-1,-1,0
1523611290102,-786432,80,-56,-1,-1,0
1523611290102,-851968,80,-56,-1,-1,0
1523611290102,-851968,80,-56,-1,-1,0
1523611290102,-917504,80,-56,-1,-1,0
1523611290102,-917504,80,-56,-1,-1,0
1523611290143,-917504,80,-56,-1,-1,0
1523611290143,-851968,80,-56,-1,-1,0
1523611290143,-589824,80,-56,-1,-1,0
1523611290143,589824,80,-56,-1,-1,0
1523611290143,3801088,80,-56,-1,-1,0
1523611290182,8519680,80,-56,-1,-1,0
1523611290182,9961472,80,-56,-1,-1,0
1523611290182,5505024,80,-56,-1,-1,0
1523611290182,131072,80,-56,-1,-1,0
1523611290182,-1376256,80,-56,-1,-1,0
1523611290223,-917504,80,-56,-1,-1,0
1523611290223,-786432,80,-56,-1,-1,0
1523611290223,-851968,80,-56,-1,-1,0
1523611290223,-851968,80,-56,-1,-1,0
1523611290223,-851968,80,-56,-1,-1,0
1523611290262,-851968,80,-56,-1,-1,0
1523611290262,-786432,80,-56,-1,-1,0
1523611290262,-720896,80,-56,-1,-1,0
1523611290262,-655360,80,-56,-1,-1,0
1523611290262,-589824,80,-56,-1,-1,0
1523611290302,-589824,80,-56,-1,-1,0
1523611290302,-458752,80,-56,-1,-1,0
1523611290302,-262144,80,-56,-1,-1,0
1523611290302,-65536,80,-56,-1,-1,0
1523611290302,65536,80,-56,-1,-1,0
1523611290342,262144,80,-56,-1,-1,0
1523611290342,393216,80,-56,-1,-1,0
1523611290342,589824,80,-56,-1,-1,0
1523611290342,917504,80,-56,-1,-1,0
1523611290342,1179648,80,-56,-1,-1,0
1523611290382,1507328,80,-56,-1,-1,0
1523611290382,1769472,80,-56,-1,-1,0
1523611290382,1966080,80,-56,-1,-1,0
1523611290382,2031616,80,-56,-1,-1,0
1523611290382,2031616,80,-56,-1,-1,0
1523611290422,1966080,80,-56,-1,-1,0
1523611290422,1703936,80,-56,-1,-1,0
1523611290422,1245184,80,-56,-1,-1,0
1523611290422,720896,80,-56,-1,-1,0
1523611290422,196608,80,-56,-1,-1,0
1523611290462,-196608,80,-56,-1,-1,0
1523611290462,-524288,80,-56,-1,-1,0
1523611290462,-786432,80,-56,-1,-1,0
1523611290462,-983040,80,-56,-1,-1,0
1523611290462,-1114112,80,-56,-1,-1,0
1523611290502,-1114112,80,-56,-1,-1,0
1523611290502,-1048576,80,-56,-1,-1,0
1523611290502,-1048576,80,-56,-1,-1,0
1523611290502,-983040,80,-56,-1,-1,0
1523611290502,-851968,80,-56,-1,-1,0
1523611290542,-851968,80,-56,-1,-1,0
1523611290542,-851968,80,-56,-1,-1,0
1523611290542,-851968,80,-56,-1,-1,0
1523611290542,-917504,80,-56,-1,-1,0
1523611290542,-917504,80,-56,-1,-1,0
1523611290582,-917504,80,-56,-1,-1,0
1523611290582,-983040,80,-56,-1,-1,0
1523611290582,-983040,80,-56,-1,-1,0
1523611290582,-983040,80,-56,-1,-1,0
1523611290582,-983040,80,-56,-1,-1,0
1523611290622,-983040,80,-56,-1,-1,0
1523611290622,-1048576,80,-56,-1,-1,0
1523611290622,-1048576,80,-56,-1,-1,0
1523611290622,-1048576,80,-56,-1,-1,0
1523611290622,-1048576,80,-56,-1,-1,0
1523611290662,-1114112,80,-56,-1,-1,0
1523611290662,-1114112,80,-56,-1,-1,0
1523611290662,-1114112,80,-56,-1,-1,0
1523611290662,-1179648,80,-56,-1,-1,0
1523611290662,-1179648,80,-56,-1,-1,0
1523611290702,-1179648,80,-56,-1,-1,0
1523611290702,-1179648,80,-56,-1,-1,0
1523611290702,-1179648,80,-56,-1,-1,0
1523611290702,-1245184,80,-56,-1,-1,0
1523611290702,-1245184,80,-56,-1,-1,0
1523611290742,-1245184,80,-56,-1,-1,0
1523611290742,-1179648,80,-56,-1,-1,0
1523611290742,-1179648,80,-56,-1,-1,0
1523611290742,-1179648,80,-56,-1,-1,0
1523611290742,-1179648,80,-56,-1,-1,0
1523611290782,-1179648,80,-56,-1,-1,0
1523611290782,-1179648,80,-56,-1,-1,0
1523611290782,-1179648,80,-56,-1,-1,0
1523611290782,-1114112,80,-56,-1,-1,0
1523611290782,-1179648,80,-56,-1,-1,0
1523611290822,-1245184,80,-56,-1,-1,0
1523611290822,-1310720,80,-56,-1,-1,0
1523611290822,-1376256,80,-56,-1,-1,0
1523611290822,-1310720,80,-56,-1,-1,0
1523611290822,-1179648,80,-56,-1,-1,0
1523611290864,-983040,80,-56,-1,-1,0
1523611290864,-786432,80,-56,-1,-1,0
1523611290864,-720896,80,-56,-1,-1,0
1523611290864,-851968,80,-56,-1,-1,0
1523611290864,-983040,80,-56,-1,-1,0
1523611290902,-983040,80,-56,-1,-1,0
1523611290902,-1048576,80,-56,-1,-1,0
1523611290902,-983040,80,-56,-1,-1,0
1523611290902,-983040,80,-56,-1,-1,0
1523611290902,-983040,80,-56,-1,-1,0
1523611290942,-983040,80,-56,-1,-1,0
1523611290942,-983040,80,-56,-1,-1,0
1523611290942,-983040,80,-56,-1,-1,0
1523611290942,-917504,80,-56,-1,-1,0
1523611290942,-655360,80,-56,-1,-1,0
1523611290982,524288,80,-56,-1,-1,0
1523611290982,3670016,80,-56,-1,-1,0
1523611290982,8519680,80,-56,-1,-1,0
1523611290982,10158080,80,-56,-1,-1,0
1523611290982,5832704,80,-56,-1,-1,0
1523611291022,262144,80,-56,-1,-1,0
1523611291022,-1310720,80,-56,-1,-1,0
1523611291022,-720896,80,-56,-1,-1,0
1523611291022,-393216,80,-56,-1,-1,0
1523611291022,-393216,80,-56,-1,-1,0
1523611291062,-393216,80,-56,-1,-1,0
1523611291062,-393216,80,-56,-1,-1,0
1523611291062,-327680,80,-56,-1,-1,0
1523611291062,-262144,80,-56,-1,-1,0
1523611291062,-131072,80,-56,-1,-1,0
1523611291102,-65536,80,-56,-1,-1,0
1523611291102,0,80,-56,-1,-1,0
1523611291102,0,80,-56,-1,-1,0
1523611291102,196608,80,-56,-1,-1,0
1523611291102,327680,80,-56,-1,-1,0
1523611291142,458752,80,-56,-1,-1,0
1523611291142,655360,80,-56,-1,-1,0
1523611291142,851968,80,-56,-1,-1,0
1523611291142,1048576,80,-56,-1,-1,0
1523611291142,1376256,80,-56,-1,-1,0
1523611291182,1638400,80,-56,-1,-1,0
1523611291182,1966080,80,-56,-1,-1,0
1523611291182,2293760,80,-56,-1,-1,0
1523611291182,2555904,80,-56,-1,-1,0
1523611291182,2752512,80,-56,-1,-1,0
1523611291222,2883584,80,-56,-1,-1,0
1523611291222,2883584,80,-56,-1,-1,0
1523611291222,2818048,80,-56,-1,-1,0
1523611291222,2490368,80,-56,-1,-1,0
1523611291222,2031616,80,-56,-1,-1,0
1523611291263,1441792,80,-56,-1,-1,0
1523611291263,851968,80,-56,-1,-1,0
1523611291263,393216,80,-56,-1,-1,0
1523611291263,65536,80,-56,-1,-1,0
1523611291263,-65536,80,-56,-1,-1,0
1523611291302,-196608,80,-56,-1,-1,0
1523611291302,-327680,80,-56,-1,-1,0
1523611291302,-393216,80,-56,-1,-1,0
1523611291302,-393216,80,-56,-1,-1,0
1523611291302,-393216,80,-56,-1,-1,0
1523611291342,-393216,80,-56,-1,-1,0
1523611291342,-393216,80,-56,-1,-1,0
1523611291342,-327680,80,-56,-1,-1,0
1523611291342,-327680,80,-56,-1,-1,0
1523611291342,-327680,80,-56,-1,-1,0
1523611291382,-327680,80,-56,-1,-1,0
1523611291382,-327680,80,-56,-1,-1,0
1523611291382,-262144,80,-56,-1,-1,0
1523611291382,-262144,80,-56,-1,-1,0
1523611291382,-262144,80,-56,-1,-1,0
1523611291422,-327680,80,-56,-1,-1,0
1523611291422,-327680,80,-56,-1,-1,0
1523611291422,-327680,80,-56,-1,-1,0
1523611291422,-327680,80,-56,-1,-1,0
1523611291422,-393216,80,-56,-1,-1,0
1523611291462,-393216,80,-56,-1,-1,0
1523611291462,-458752,80,-56,-1,-1,0
1523611291462,-458752,80,-56,-1,-1,0
1523611291462,-458752,80,-56,-1,-1,0
1523611291462,-524288,80,-56,-1,-1,0
1523611291503,-524288,80,-56,-1,-1,0
1523611291503,-524288,80,-56,-1,-1,0
1523611291503,-589824,80,-56,-1,-1,0
1523611291503,-589824,80,-56,-1,-1,0
1523611291503,-589824,80,-56,-1,-1,0
1523611291542,-589824,80,-56,-1,-1,0
1523611291542,-589824,80,-56,-1,-1,0
1523611291542,-589824,80,-56,-1,-1,0
1523611291542,-589824,80,-56,-1,-1,0
1523611291542,-589824,80,-56,-1,-1,0
1523611291582,-589824,80,-56,-1,-1,0
1523611291582,-589824,80,-56,-1,-1,0
1523611291582,-655360,80,-56,-1,-1,0
1523611291582,-720896,80,-56,-1,-1,0
1523611291582,-720896,80,-56,-1,-1,0
1523611291622,-786432,80,-56,-1,-1,0
1523611291622,-786432,80,-56,-1,-1,0
1523611291622,-851968,80,-56,-1,-1,0
1523611291622,-851968,80,-56,-1,-1,0
1523611291622,-983040,80,-56,-1,-1,0
1523611291662,-1048576,80,-56,-1,-1,0
1523611291662,-983040,80,-56,-1,-1,0
1523611291662,-786432,80,-56,-1,-1,0
1523611291662,-589824,80,-56,-1,-1,0
1523611291662,-393216,80,-56,-1,-1,0
1523611291702,-393216,80,-56,-1,-1,0
1523611291702,-524288,80,-56,-1,-1,0
1523611291702,-655360,80,-56,-1,-1,0
1523611291702,-720896,80,-56,-1,-1,0
1523611291702,-786432,80,-56,-1,-1,0
1523611291742,-786432,80,-56,-1,-1,0
1523611291742,-786432,80,-56,-1,-1,0
1523611291742,-851968,80,-56,-1,-1,0
1523611291742,-851968,80,-56,-1,-1,0
1523611291742,-851968,80,-56,-1,-1,0
1523611291782,-851968,80,-56,-1,-1,0
1523611291782,-851968,80,-56,-1,-1,0
1523611291782,-589824,80,-56,-1,-1,0
1523611291782,655360,80,-56,-1,-1,0
1523611291782,3866624,80,-56,-1,-1,0
1523611291822,8650752,80,-56,-1,-1,0
1523611291822,10289152,80,-56,-1,-1,0
1523611291822,5898240,80,-56,-1,-1,0
1523611291822,458752,80,-56,-1,-1,0
1523611291822,-1114112,80,-56,-1,-1,0
1523611291862,-655360,80,-56,-1,-1,0
1523611291862,-524288,80,-56,-1,-1,0
1523611291862,-589824,80,-56,-1,-1,0
1523611291862,-655360,80,-56,-1,-1,0
1523611291862,-589824,80,-56,-1,-1,0
1523611291901,-524288,80,-56,-1,-1,0
1523611291901,-458752,80,-56,-1,-1,0
1523611291901,-327680,80,-56,-1,-1,0
1523611291901,-262144,80,-56,-1,-1,0
1523611291901,-196608,80,-56,-1,-1,0
1523611291941,-131072,80,-56,-1,-1,0
1523611291941,0,80,-56,-1,-1,0
1523611291941,65536,80,-56,-1,-1,0
1523611291941,196608,80,-56,-1,-1,0
1523611291941,393216,80,-56,-1,-1,0
1523611291981,589824,80,-56,-1,-1,0
1523611291981,786432,80,-56,-1,-1,0
1523611291981,983040,80,-56,-1,-1,0
1523611291981,1245184,80,-56,-1,-1,0
1523611291981,1572864,80,-56,-1,-1,0
1523611292021,1900544,80,-56,-1,-1,0
1523611292021,2228224,80,-56,-1,-1,0
1523611292021,2424832,80,-56,-1,-1,0
1523611292021,2490368,80,-56,-1,-1,0
1523611292021,2490368,80,-56,-1,-1,0
1523611292061,2359296,80,-56,-1,-1,0
1523611292061,2097152,80,-56,-1,-1,0
1523611292061,1638400,80,-56,-1,-1,0
1523611292061,1114112,80,-56,-1,-1,0
1523611292061,589824,80,-56,-1,-1,0
1523611292101,131072,80,-56,-1,-1,0
1523611292101,-131072,80,-56,-1,-1,0
1523611292101,-327680,80,-56,-1,-1,0
1523611292101,-458752,80,-56,-1,-1,0
1523611292101,-524288,80,-56,-1,-1,0
1523611292143,-524288,80,-56,-1,-1,0
1523611292143,-524288,80,-56,-1,-1,0
1523611292143,-524288,80,-56,-1,-1,0
1523611292143,-589824,80,-56,-1,-1,0
1523611292143,-589824,80,-56,-1,-1,0
1523611292181,-589824,80,-56,-1,-1,0
1523611292181,-524288,80,-56,-1,-1,0
1523611292181,-524288,80,-56,-1,-1,0
1523611292181,-524288,80,-56,-1,-1,0
1523611292181,-524288,80,-56,-1,-1,0
1523611292221,-458752,80,-56,-1,-1,0
1523611292221,-458752,80,-56,-1,-1,0
1523611292221,-458752,80,-56,-1,-1,0
1523611292221,-458752,80,-56,-1,-1,0
1523611292221,-458752,80,-56,-1,-1,0
1523611292261,-458752,80,-56,-1,-1,0
1523611292261,-458752,80,-56,-1,-1,0
1523611292261,-458752,80,-56,-1,-1,0
1523611292261,-524288,80,-56,-1,-1,0
1523611292261,-524288,80,-56,-1,-1,0
1523611292301,-524288,80,-56,-1,-1,0
1523611292301,-524288,80,-56,-1,-1,0
1523611292301,-524288,80,-56,-1,-1,0
1523611292301,-458752,80,-56,-1,-1,0
1523611292301,-524288,80,-56,-1,-1,0
1523611292343,-524288,80,-56,-1,-1,0
1523611292343,-524288,80,-56,-1,-1,0
1523611292343,-524288,80,-56,-1,-1,0
1523611292343,-524288,80,-56,-1,-1,0
1523611292343,-589824,80,-56,-1,-1,0
1523611292381,-589824,80,-56,-1,-1,0
1523611292381,-589824,80,-56,-1,-1,0
1523611292381,-524288,80,-56,-1,-1,0
1523611292381,-524288,80,-56,-1,-1,0
1523611292381,-524288,80,-56,-1,-1,0
1523611292421,-589824,80,-56,-1,-1,0
1523611292421,-589824,80,-56,-1,-1,0
1523611292421,-589824,80,-56,-1,-1,0
1523611292421,-524288,80,-56,-1,-1,0
1523611292421,-589824,80,-56,-1,-1,0
1523611292461,-655360,80,-56,-1,-1,0
1523611292461,-786432,80,-56,-1,-1,0
1523611292461,-851968,80,-56,-1,-1,0
1523611292461,-851968,80,-56,-1,-1,0
1523611292461,-720896,80,-56,-1,-1,0
1523611292501,-524288,80,-56,-1,-1,0
1523611292501,-327680,80,-56,-1,-1,0
1523611292501,-196608,80,-56,-1,-1,0
1523611292501,-262144,80,-56,-1,-1,0
1523611292501,-458752,80,-56,-1,-1,0
1523611292541,-524288,80,-56,-1,-1,0
1523611292541,-589824,80,-56,-1,-1,0
1523611292541,-655360,80,-56,-1,-1,0
1523611292541,-655360,80,-56,-1,-1,0
1523611292541,-720896,80,-56,-1,-1,0
1523611292581,-720896,80,-56,-1,-1,0
1523611292581,-720896,80,-56,-1,-1,0
1523611292581,-786432,80,-56,-1,-1,0
1523611292581,-786432,80,-56,-1,-1,0
1523611292581,-720896,80,-56,-1,-1,0
1523611292621,-131072,80,-56,-1,-1,0
1523611292621,1900544,80,-56,-1,-1,0
1523611292621,6225920,80,-56,-1,-1,0
1523611292621,10420224,80,-56,-1,-1,0
1523611292621,9109504,80,-56,-1,-1,0
1523611292661,3211264,80,-56,-1,-1,0
1523611292661,-786432,80,-56,-1,-1,0
1523611292661,-917504,80,-56,-1,-1,0
1523611292661,-393216,80,-56,-1,-1,0
1523611292661,-393216,80,-56,-1,-1,0
1523611292701,-458752,80,-56,-1,-1,0
1523611292701,-458752,80,-56,-1,-1,0
1523611292701,-458752,80,-56,-1,-1,0
1523611292701,-393216,80,-56,-1,-1,0
1523611292701,-327680,80,-56,-1,-1,0
1523611292741,-262144,78,-56,-1,-1,0
1523611292741,-131072,78,-56,-1,-1,0
1523611292741,-65536,78,-56,-1,-1,0
1523611292741,0,78,-56,-1,-1,0
1523611292741,65536,78,-56,-1,-1,0
1523611292783,196608,78,-56,-1,-1,0
1523611292783,458752,78,-56,-1,-1,0
1523611292783,655360,78,-56,-1,-1,0
1523611292783,917504,78,-56,-1,-1,0
1523611292783,1114112,78,-56,-1,-1,0
1523611292821,1441792,78,-56,-1,-1,0
1523611292821,1769472,78,-56,-1,-1,0
1523611292821,2097152,78,-56,-1,-1,0
1523611292821,2359296,78,-56,-1,-1,0
1523611292821,2621440,78,-56,-1,-1,0
1523611292861,2818048,78,-56,-1,-1,0
1523611292861,2883584,78,-56,-1,-1,0
1523611292861,2752512,78,-56,-1,-1,0
1523611292861,2555904,78,-56,-1,-1,0
1523611292861,2162688,78,-56,-1,-1,0
1523611292901,1638400,78,-56,-1,-1,0
1523611292901,983040,78,-56,-1,-1,0
1523611292901,458752,78,-56,-1,-1,0
1523611292901,65536,78,-56,-1,-1,0
1523611292901,-196608,78,-56,-1,-1,0
1523611292941,-393216,78,-56,-1,-1,0
1523611292941,-524288,78,-56,-1,-1,0
1523611292941,-655360,78,-56,-1,-1,0
1523611292941,-720896,78,-56,-1,-1,0
1523611292941,-720896,78,-56,-1,-1,0
1523611292981,-655360,78,-56,-1,-1,0
1523611292981,-655360,78,-56,-1,-1,0
1523611292981,-589824,78,-56,-1,-1,0
1523611292981,-589824,78,-56,-1,-1,0
1523611292981,-589824,78,-56,-1,-1,0
1523611293021,-589824,78,-56,-1,-1,0
1523611293021,-589824,78,-56,-1,-1,0
1523611293021,-524288,78,-56,-1,-1,0
1523611293021,-524288,78,-56,-1,-1,0
1523611293021,-524288,78,-56,-1,-1,0
1523611293061,-524288,78,-56,-1,-1,0
1523611293061,-589824,78,-56,-1,-1,0
1523611293061,-524288,78,-56,-1,-1,0
1523611293061,-524288,78,-56,-1,-1,0
1523611293061,-524288,78,-56,-1,-1,0
1523611293101,-589824,78,-56,-1,-1,0
1523611293101,-655360,78,-56,-1,-1,0
1523611293101,-655360,78,-56,-1,-1,0
1523611293101,-720896,78,-56,-1,-1,0
1523611293101,-655360,78,-56,-1,-1,0
1523611293141,-720896,78,-56,-1,-1,0
1523611293141,-720896,78,-56,-1,-1,0
1523611293141,-720896,78,-56,-1,-1,0
1523611293141,-720896,78,-56,-1,-1,0
1523611293141,-720896,78,-56,-1,-1,0
1523611293181,-786432,78,-56,-1,-1,0
1523611293181,-786432,78,-56,-1,-1,0
1523611293181,-786432,78,-56,-1,-1,0
1523611293181,-786432,78,-56,-1,-1,0
1523611293181,-786432,78,-56,-1,-1,0
1523611293221,-786432,78,-56,-1,-1,0
1523611293221,-786432,78,-56,-1,-1,0
1523611293221,-786432,78,-56,-1,-1,0
1523611293221,-786432,78,-56,-1,-1,0
1523611293221,-786432,78,-56,-1,-1,0
1523611293261,-786432,78,-56,-1,-1,0
1523611293261,-851968,78,-56,-1,-1,0
1523611293261,-851968,78,-56,-1,-1,0
1523611293261,-983040,78,-56,-1,-1,0
1523611293261,-1048576,78,-56,-1,-1,0
1523611293301,-1048576,78,-56,-1,-1,0
1523611293301,-917504,78,-56,-1,-1,0
1523611293301,-786432,78,-56,-1,-1,0
1523611293301,-589824,78,-56,-1,-1,0
1523611293301,-458752,78,-56,-1,-1,0
1523611293343,-458752,78,-56,-1,-1,0
1523611293343,-589824,78,-56,-1,-1,0
1523611293343,-720896,78,-56,-1,-1,0
1523611293343,-786432,78,-56,-1,-1,0
1523611293343,-851968,78,-56,-1,-1,0
1523611293381,-917504,78,-56,-1,-1,0
1523611293381,-917504,78,-56,-1,-1,0
1523611293381,-917504,78,-56,-1,-1,0
1523611293381,-917504,78,-56,-1,-1,0
1523611293381,-917504,78,-56,-1,-1,0
1523611293423,-917504,78,-56,-1,-1,0
1523611293423,-851968,78,-56,-1,-1,0
1523611293423,-327680,78,-56,-1,-1,0
1523611293423,1507328,78,-56,-1,-1,0
1523611293423,5636096,78,-56,-1,-1,0
1523611293461,9961472,78,-56,-1,-1,0
1523611293461,8978432,78,-56,-1,-1,0
1523611293461,3145728,78,-56,-1,-1,0
1523611293461,-1179648,78,-56,-1,-1,0
1523611293461,-1441792,78,-56,-1,-1,0
1523611293501,-917504,78,-56,-1,-1,0
1523611293501,-786432,78,-56,-1,-1,0
1523611293501,-786432,78,-56,-1,-1,0
1523611293501,-786432,78,-56,-1,-1,0
1523611293501,-655360,78,-56,-1,-1,0
1523611293541,-655360,78,-56,-1,-1,0
1523611293541,-524288,78,-56,-1,-1,0
1523611293541,-524288,78,-56,-1,-1,0
1523611293541,-458752,78,-56,-1,-1,0
1523611293541,-327680,78,-56,-1,-1,0
1523611293581,-262144,75,-56,-1,-1,0
1523611293581,-65536,75,-56,-1,-1,0
1523611293581,0,75,-56,-1,-1,0
1523611293581,131072,75,-56,-1,-1,0
1523611293581,327680,75,-56,-1,-1,0
1523611293621,524288,75,-56,-1,-1,0
1523611293621,786432,75,-56,-1,-1,0
1523611293621,1048576,75,-56,-1,-1,0
1523611293621,1376256,75,-56,-1,-1,0
1523611293621,1769472,75,-56,-1,-1,0
1523611293661,2097152,75,-56,-1,-1,0
1523611293661,2359296,75,-56,-1,-1,0
1523611293661,2555904,75,-56,-1,-1,0
1523611293661,2686976,75,-56,-1,-1,0
1523611293661,2621440,75,-56,-1,-1,0
1523611293704,2424832,75,-56,-1,-1,0
1523611293704,2031616,75,-56,-1,-1,0
1523611293704,1507328,75,-56,-1,-1,0
1523611293704,917504,75,-56,-1,-1,0
1523611293704,393216,75,-56,-1,-1,0
1523611293741,0,75,-56,-1,-1,0
1523611293741,-327680,75,-56,-1,-1,0
1523611293741,-524288,75,-56,-1,-1,0
1523611293741,-589824,75,-56,-1,-1,0
1523611293741,-720896,75,-56,-1,-1,0
1523611293781,-786432,75,-56,-1,-1,0
1523611293781,-786432,75,-56,-1,-1,0
1523611293781,-720896,75,-56,-1,-1,0
1523611293781,-720896,75,-56,-1,-1,0
1523611293781,-720896,75,-56,-1,-1,0
1523611293821,-655360,75,-56,-1,-1,0
1523611293821,-589824,75,-56,-1,-1,0
1523611293821,-589824,75,-56,-1,-1,0
1523611293821,-589824,75,-56,-1,-1,0
1523611293821,-589824,75,-56,-1,-1,0
1523611293861,-589824,75,-56,-1,-1,0
1523611293861,-589824,75,-56,-1,-1,0
1523611293861,-589824,75,-56,-1,-1,0
1523611293861,-589824,75,-56,-1,-1,0
1523611293861,-589824,75,-56,-1,-1,0
1523611293901,-589824,75,-56,-1,-1,0
1523611293901,-655360,75,-56,-1,-1,0
1523611293901,-655360,75,-56,-1,-1,0
1523611293901,-786432,75,-56,-1,-1,0
1523611293901,-851968,75,-56,-1,-1,0
1523611293941,-851968,75,-56,-1,-1,0
1523611293941,-851968,75,-56,-1,-1,0
1523611293941,-851968,75,-56,-1,-1,0
1523611293941,-917504,75,-56,-1,-1,0
1523611293941,-851968,75,-56,-1,-1,0
1523611293981,-851968,75,-56,-1,-1,0
1523611293981,-851968,75,-56,-1,-1,0
1523611293981,-917504,75,-56,-1,-1,0
1523611293981,-983040,75,-56,-1,-1,0
1523611293981,-983040,75,-56,-1,-1,0
1523611294021,-983040,75,-56,-1,-1,0
1523611294021,-917504,75,-56,-1,-1,0
1523611294021,-917504,75,-56,-1,-1,0
1523611294021,-917504,75,-56,-1,-1,0
1523611294021,-983040,75,-56,-1,-1,0
1523611294063,-983040,75,-56,-1,-1,0
1523611294063,-983040,75,-56,-1,-1,0
1523611294063,-983040,75,-56,-1,-1,0
1523611294063,-983040,75,-56,-1,-1,0
1523611294063,-917504,75,-56,-1,-1,0
1523611294101,-917504,75,-56,-1,-1,0
1523611294101,-917504,75,-56,-1,-1,0
1523611294101,-917504,75,-56,-1,-1,0
1523611294101,-1048576,75,-56,-1,-1,0
1523611294101,-1179648,75,-56,-1,-1,0
1523611294143,-1245184,75,-56,-1,-1,0
1523611294143,-1179648,75,-56,-1,-1,0
1523611294143,-1048576,75,-56,-1,-1,0
1523611294143,-786432,75,-56,-1,-1,0
1523611294143,-589824,75,-56,-1,-1,0
1523611294181,-458752,75,-56,-1,-1,0
1523611294181,-524288,75,-56,-1,-1,0
1523611294181,-720896,75,-56,-1,-1,0
1523611294181,-851968,75,-56,-1,-1,0
1523611294181,-917504,75,-56,-1,-1,0
1523611294221,-851968,75,-56,-1,-1,0
1523611294221,-851968,75,-56,-1,-1,0
1523611294221,-851968,75,-56,-1,-1,0
1523611294221,-851968,75,-56,-1,-1,0
1523611294221,-917504,75,-56,-1,-1,0
1523611294261,-983040,75,-56,-1,-1,0
1523611294261,-983040,75,-56,-1,-1,0
1523611294261,-983040,75,-56,-1,-1,0
1523611294261,-458752,75,-56,-1,-1,0
1523611294261,1245184,75,-56,-1,-1,0
1523611294301,5242880,75,-56,-1,-1,0
1523611294301,9895936,75,-56,-1,-1,0
1523611294301,9633792,75,-56,-1,-1,0
1523611294301,4128768,75,-56,-1,-1,0
1523611294301,-524288,75,-56,-1,-1,0
1523611294343,-1114112,75,-56,-1,-1,0
1523611294343,-589824,75,-56,-1,-1,0
1523611294343,-524288,75,-56,-1,-1,0
1523611294343,-655360,75,-56,-1,-1,0
1523611294343,-655360,75,-56,-1,-1,0
1523611294381,-589824,75,-56,-1,-1,0
1523611294381,-458752,75,-56,-1,-1,0
1523611294381,-393216,75,-56,-1,-1,0
1523611294381,-327680,75,-56,-1,-1,0
1523611294381,-196608,75,-56,-1,-1,0
1523611294423,-131072,75,-56,-1,-1,0
1523611294423,0,75,-56,-1,-1,0
1523611294423,65536,75,-56,-1,-1,0
1523611294423,196608,75,-56,-1,-1,0
1523611294423,327680,75,-56,-1,-1,0
1523611294461,458752,74,-56,-1,-1,0
1523611294461,720896,74,-56,-1,-1,0
1523611294461,917504,74,-56,-1,-1,0
1523611294461,1245184,74,-56,-1,-1,0
1523611294461,1507328,74,-56,-1,-1,0
1523611294503,1769472,74,-56,-1,-1,0
1523611294503,2097152,74,-56,-1,-1,0
1523611294503,2359296,74,-56,-1,-1,0
1523611294503,2555904,74,-56,-1,-1,0
1523611294503,2686976,74,-56,-1,-1,0
1523611294541,2686976,74,-56,-1,-1,0
1523611294541,2621440,74,-56,-1,-1,0
1523611294541,2293760,74,-56,-1,-1,0
1523611294541,1835008,74,-56,-1,-1,0
1523611294541,1245184,74,-56,-1,-1,0
1523611294581,655360,74,-56,-1,-1,0
1523611294581,262144,74,-56,-1,-1,0
1523611294581,-65536,74,-56,-1,-1,0
1523611294581,-327680,74,-56,-1,-1,0
1523611294581,-458752,74,-56,-1,-1,0
1523611294621,-458752,74,-56,-1,-1,0
1523611294621,-524288,74,-56,-1,-1,0
1523611294621,-524288,74,-56,-1,-1,0
1523611294621,-589824,74,-56,-1,-1,0
1523611294621,-589824,74,-56,-1,-1,0
1523611294661,-524288,74,-56,-1,-1,0
1523611294661,-458752,74,-56,-1,-1,0
1523611294661,-524288,74,-56,-1,-1,0
1523611294661,-589824,74,-56,-1,-1,0
1523611294661,-589824,74,-56,-1,-1,0
1523611294703,-524288,74,-56,-1,-1,0
1523611294703,-458752,74,-56,-1,-1,0
1523611294703,-458752,74,-56,-1,-1,0
1523611294703,-458752,74,-56,-1,-1,0
1523611294703,-524288,74,-56,-1,-1,0
1523611294741,-589824,74,-56,-1,-1,0
1523611294741,-589824,74,-56,-1,-1,0
1523611294741,-589824,74,-56,-1,-1,0
1523611294741,-589824,74,-56,-1,-1,0
1523611294741,-589824,74,-56,-1,-1,0
1523611294781,-589824,74,-56,-1,-1,0
1523611294781,-655360,74,-56,-1,-1,0
1523611294781,-720896,74,-56,-1,-1,0
1523611294781,-720896,74,-56,-1,-1,0
1523611294781,-720896,74,-56,-1,-1,0
1523611294821,-786432,74,-56,-1,-1,0
1523611294821,-786432,74,-56,-1,-1,0
1523611294821,-786432,74,-56,-1,-1,0
1523611294821,-851968,74,-56,-1,-1,0
1523611294821,-851968,74,-56,-1,-1,0
1523611294861,-851968,74,-56,-1,-1,0
1523611294861,-851968,74,-56,-1,-1,0
1523611294861,-786432,74,-56,-1,-1,0
1523611294861,-851968,74,-56,-1,-1,0
1523611294861,-851968,74,-56,-1,-1,0
1523611294901,-917504,74,-56,-1,-1,0
1523611294901,-917504,74,-56,-1,-1,0
1523611294901,-917504,74,-56,-1,-1,0
1523611294901,-917504,74,-56,-1,-1,0
1523611294901,-917504,74,-56,-1,-1,0
1523611294941,-917504,74,-56,-1,-1,0
1523611294941,-917504,74,-56,-1,-1,0
1523611294941,-917504,74,-56,-1,-1,0
1523611294941,-917504,74,-56,-1,-1,0
1523611294941,-917504,74,-56,-1,-1,0
1523611294981,-917504,74,-56,-1,-1,0
1523611294981,-917504,74,-56,-1,-1,0
1523611294981,-983040,74,-56,-1,-1,0
1523611294981,-1114112,74,-56,-1,-1,0
1523611294981,-1114112,74,-56,-1,-1,0
1523611295021,-1048576,74,-56,-1,-1,0
1523611295021,-1048576,74,-56,-1,-1,0
1523611295021,-917504,74,-56,-1,-1,0
1523611295021,-786432,74,-56,-1,-1,0
1523611295021,-589824,74,-56,-1,-1,0
1523611295061,-589824,74,-56,-1,-1,0
1523611295061,-720896,74,-56,-1,-1,0
1523611295061,-851968,74,-56,-1,-1,0
1523611295061,-851968,74,-56,-1,-1,0
1523611295061,-786432,74,-56,-1,-1,0
1523611295101,-786432,74,-56,-1,-1,0
1523611295101,-851968,74,-56,-1,-1,0
1523611295101,-851968,74,-56,-1,-1,0
1523611295101,-851968,74,-56,-1,-1,0
1523611295101,-786432,74,-56,-1,-1,0
1523611295141,-786432,74,-56,-1,-1,0
1523611295141,-786432,74,-56,-1,-1,0
1523611295141,-524288,74,-56,-1,-1,0
1523611295141,786432,74,-56,-1,-1,0
1523611295141,4325376,74,-56,-1,-1,0
1523611295181,9306112,74,-56,-1,-1,0
1523611295181,10485760,74,-56,-1,-1,0
1523611295181,5570560,74,-56,-1,-1,0
1523611295181,0,74,-56,-1,-1,0
1523611295181,-1310720,74,-56,-1,-1,0
1523611295221,-720896,74,-56,-1,-1,0
1523611295221,-458752,74,-56,-1,-1,0
1523611295221,-524288,74,-56,-1,-1,0
1523611295221,-524288,74,-56,-1,-1,0
1523611295221,-524288,74,-56,-1,-1,0
1523611295261,-458752,74,-56,-1,-1,0
1523611295261,-393216,74,-56,-1,-1,0
1523611295261,-262144,74,-56,-1,-1,0
1523611295261,-196608,74,-56,-1,-1,0
1523611295261,-65536,74,-56,-1,-1,0
1523611295301,0,73,-56,-1,-1,0
1523611295301,0,73,-56,-1,-1,0
1523611295301,131072,73,-56,-1,-1,0
1523611295301,327680,73,-56,-1,-1,0
1523611295301,458752,73,-56,-1,-1,0
1523611295343,655360,73,-56,-1,-1,0
1523611295343,851968,73,-56,-1,-1,0
1523611295343,1179648,73,-56,-1,-1,0
1523611295343,1441792,73,-56,-1,-1,0
1523611295343,1703936,73,-56,-1,-1,0
1523611295381,2031616,73,-56,-1,-1,0
1523611295381,2293760,73,-56,-1,-1,0
1523611295381,2555904,73,-56,-1,-1,0
1523611295381,2621440,73,-56,-1,-1,0
1523611295381,2621440,73,-56,-1,-1,0
1523611295421,2555904,73,-56,-1,-1,0
1523611295421,2359296,73,-56,-1,-1,0
1523611295421,1900544,73,-56,-1,-1,0
1523611295421,1245184,73,-56,-1,-1,0
1523611295421,524288,73,-56,-1,-1,0
1523611295461,0,73,-56,-1,-1,0
1523611295461,-327680,73,-56,-1,-1,0
1523611295461,-589824,73,-56,-1,-1,0
1523611295461,-720896,73,-56,-1,-1,0
1523611295461,-851968,73,-56,-1,-1,0
1523611295503,-851968,73,-56,-1,-1,0
1523611295503,-851968,73,-56,-1,-1,0
1523611295503,-917504,73,-56,-1,-1,0
1523611295503,-917504,73,-56,-1,-1,0
1523611295503,-917504,73,-56,-1,-1,0
1523611295542,-917504,73,-56,-1,-1,0
1523611295542,-917504,73,-56,-1,-1,0
1523611295542,-917504,73,-56,-1,-1,0
1523611295542,-917504,73,-56,-1,-1,0
1523611295542,-851968,73,-56,-1,-1,0
1523611295581,-786432,73,-56,-1,-1,0
1523611295581,-786432,73,-56,-1,-1,0
1523611295581,-720896,73,-56,-1,-1,0
1523611295581,-786432,73,-56,-1,-1,0
1523611295581,-786432,73,-56,-1,-1,0
1523611295621,-786432,73,-56,-1,-1,0
1523611295621,-786432,73,-56,-1,-1,0
1523611295621,-851968,73,-56,-1,-1,0
1523611295621,-851968,73,-56,-1,-1,0
1523611295621,-851968,73,-56,-1,-1,0
1523611295661,-851968,73,-56,-1,-1,0
1523611295661,-851968,73,-56,-1,-1,0
1523611295661,-917504,73,-56,-1,-1,0
1523611295661,-983040,73,-56,-1,-1,0
1523611295661,-1048576,73,-56,-1,-1,0
1523611295702,-1048576,73,-56,-1,-1,0
1523611295702,-983040,73,-56,-1,-1,0
1523611295702,-983040,73,-56,-1,-1,0
1523611295702,-1048576,73,-56,-1,-1,0
1523611295702,-1048576,73,-56,-1,-1,0
1523611295741,-1048576,73,-56,-1,-1,0
1523611295741,-1114112,73,-56,-1,-1,0
1523611295741,-1048576,73,-56,-1,-1,0
1523611295741,-1048576,73,-56,-1,-1,0
1523611295741,-1048576,73,-56,-1,-1,0
1523611295782,-1114112,73,-56,-1,-1,0
1523611295782,-1114112,73,-56,-1,-1,0
1523611295782,-1114112,73,-56,-1,-1,0
1523611295782,-1114112,73,-56,-1,-1,0
1523611295782,-1048576,73,-56,-1,-1,0
1523611295821,-1048576,73,-56,-1,-1,0
1523611295821,-1048576,73,-56,-1,-1,0
1523611295821,-983040,73,-56,-1,-1,0
1523611295821,-983040,73,-56,-1,-1,0
1523611295821,-1048576,73,-56,-1,-1,0
1523611295862,-1114112,73,-56,-1,-1,0
1523611295862,-1179648,73,-56,-1,-1,0
1523611295862,-1245184,73,-56,-1,-1,0
1523611295862,-1179648,73,-56,-1,-1,0
1523611295862,-1048576,73,-56,-1,-1,0
1523611295902,-786432,73,-56,-1,-1,0
1523611295902,-655360,73,-56,-1,-1,0
1523611295902,-655360,73,-56,-1,-1,0
1523611295902,-851968,73,-56,-1,-1,0
1523611295902,-917504,73,-56,-1,-1,0
1523611295942,-983040,73,-56,-1,-1,0
1523611295942,-983040,73,-56,-1,-1,0
1523611295942,-917504,73,-56,-1,-1,0
1523611295942,-917504,73,-56,-1,-1,0
1523611295942,-917504,73,-56,-1,-1,0
1523611295984,-917504,73,-56,-1,-1,0
1523611295984,-917504,73,-56,-1,-1,0
1523611295984,-983040,73,-56,-1,-1,0
1523611295984,-917504,73,-56,-1,-1,0
1523611295984,-458752,73,-56,-1,-1,0
1523611296021,1376256,73,-56,-1,-1,0
1523611296021,5570560,73,-56,-1,-1,0
1523611296021,10354688,73,-56,-1,-1,0
1523611296021,9961472,73,-56,-1,-1,0
1523611296021,4194304,73,-56,-1,-1,0
1523611296062,-589824,73,-56,-1,-1,0
1523611296062,-1179648,73,-56,-1,-1,0
1523611296062,-655360,73,-56,-1,-1,0
1523611296062,-589824,73,-56,-1,-1,0
1523611296062,-589824,73,-56,-1,-1,0
1523611296102,-655360,73,-56,-1,-1,0
1523611296102,-589824,73,-56,-1,-1,0
1523611296102,-524288,73,-56,-1,-1,0
1523611296102,-458752,73,-56,-1,-1,0
1523611296102,-327680,73,-56,-1,-1,0
1523611296142,-262144,73,-56,-1,-1,0
1523611296142,-196608,73,-56,-1,-1,0
1523611296142,-65536,73,-56,-1,-1,0
1523611296142,0,73,-56,-1,-1,0
1523611296142,0,73,-56,-1,-1,0
1523611296182,196608,73,-56,-1,-1,0
1523611296182,327680,73,-56,-1,-1,0
1523611296182,589824,73,-56,-1,-1,0
1523611296182,786432,73,-56,-1,-1,0
1523611296182,1114112,73,-56,-1,-1,0
1523611296222,1376256,73,-56,-1,-1,0
1523611296222,1703936,73,-56,-1,-1,0
1523611296222,1966080,73,-56,-1,-1,0
1523611296222,2293760,73,-56,-1,-1,0
1523611296222,2490368,73,-56,-1,-1,0
1523611296262,2621440,73,-56,-1,-1,0
1523611296262,2621440,73,-56,-1,-1,0
1523611296262,2490368,73,-56,-1,-1,0
1523611296262,2162688,73,-56,-1,-1,0
1523611296262,1703936,73,-56,-1,-1,0
1523611296302,1114112,73,-56,-1,-1,0
1523611296302,524288,73,-56,-1,-1,0
1523611296302,65536,73,-56,-1,-1,0
1523611296302,-196608,73,-56,-1,-1,0
1523611296302,-458752,73,-56,-1,-1,0
1523611296342,-655360,73,-56,-1,-1,0
1523611296342,-720896,73,-56,-1,-1,0
1523611296342,-720896,73,-56,-1,-1,0
1523611296342,-786432,73,-56,-1,-1,0
1523611296342,-786432,73,-56,-1,-1,0
1523611296382,-851968,73,-56,-1,-1,0
1523611296382,-786432,73,-56,-1,-1,0
1523611296382,-786432,73,-56,-1,-1,0
1523611296382,-786432,73,-56,-1,-1,0
1523611296382,-786432,73,-56,-1,-1,0
1523611296422,-786432,73,-56,-1,-1,0
1523611296422,-655360,73,-56,-1,-1,0
1523611296422,-589824,73,-56,-1,-1,0
1523611296422,-589824,73,-56,-1,-1,0
1523611296422,-589824,73,-56,-1,-1,0
1523611296462,-589824,73,-56,-1,-1,0
1523611296462,-589824,73,-56,-1,-1,0
1523611296462,-589824,73,-56,-1,-1,0
1523611296462,-589824,73,-56,-1,-1,0
1523611296462,-655360,73,-56,-1,-1,0
1523611296502,-655360,73,-56,-1,-1,0
1523611296502,-720896,73,-56,-1,-1,0
1523611296502,-720896,73,-56,-1,-1,0
1523611296502,-786432,73,-56,-1,-1,0
1523611296502,-851968,73,-56,-1,-1,0
1523611296542,-851968,73,-56,-1,-1,0
1523611296542,-851968,73,-56,-1,-1,0
1523611296542,-851968,73,-56,-1,-1,0
1523611296542,-851968,73,-56,-1,-1,0
1523611296542,-917504,73,-56,-1,-1,0
1523611296582,-917504,73,-56,-1,-1,0
1523611296582,-851968,73,-56,-1,-1,0
1523611296582,-786432,73,-56,-1,-1,0
1523611296582,-786432,73,-56,-1,-1,0
1523611296582,-786432,73,-56,-1,-1,0
1523611296623,-851968,73,-56,-1,-1,0
1523611296623,-786432,73,-56,-1,-1,0
1523611296623,-786432,73,-56,-1,-1,0
1523611296623,-720896,73,-56,-1,-1,0
1523611296623,-720896,73,-56,-1,-1,0
1523611296662,-786432,73,-56,-1,-1,0
1523611296662,-786432,73,-56,-1,-1,0
1523611296662,-786432,73,-56,-1,-1,0
1523611296662,-786432,73,-56,-1,-1,0
1523611296662,-720896,73,-56,-1,-1,0
1523611296702,-720896,73,-56,-1,-1,0
1523611296702,-720896,73,-56,-1,-1,0
1523611296702,-655360,73,-56,-1,-1,0
1523611296702,-720896,73,-56,-1,-1,0
1523611296702,-720896,73,-56,-1,-1,0
1523611296742,-720896,73,-56,-1,-1,0
1523611296742,-720896,73,-56,-1,-1,0
1523611296742,-786432,73,-56,-1,-1,0
1523611296742,-786432,73,-56,-1,-1,0
1523611296742,-786432,73,-56,-1,-1,0
1523611296782,-786432,73,-56,-1,-1,0
1523611296782,-786432,73,-56,-1,-1,0
1523611296782,-786432,73,-56,-1,-1,0
1523611296782,-589824,73,-56,-1,-1,0
1523611296782,-458752,73,-56,-1,-1,0
1523611296822,-458752,73,-56,-1,-1,0
1523611296822,-524288,73,-56,-1,-1,0
1523611296822,-589824,73,-56,-1,-1,0
1523611296822,-589824,73,-56,-1,-1,0
1523611296822,-524288,73,-56,-1,-1,0
1523611296862,-524288,73,-56,-1,-1,0
1523611296862,-655360,73,-56,-1,-1,0
1523611296862,-720896,73,-56,-1,-1,0
1523611296862,-720896,73,-56,-1,-1,0
1523611296862,-655360,73,-56,-1,-1,0
1523611296902,-655360,73,-56,-1,-1,0
1523611296902,-589824,73,-56,-1,-1,0
1523611296902,-327680,73,-56,-1,-1,0
1523611296902,786432,73,-56,-1,-1,0
1523611296902,4128768,73,-56,-1,-1,0
1523611296942,9306112,73,-56,-1,-1,0
1523611296942,11337728,73,-56,-1,-1,0
1523611296942,6881280,73,-56,-1,-1,0
1523611296942,917504,73,-56,-1,-1,0
1523611296942,-851968,73,-56,-1,-1,0
1523611296982,-327680,73,-56,-1,-1,0
1523611296982,-196608,73,-56,-1,-1,0
1523611296982,-458752,73,-56,-1,-1,0
1523611296982,-524288,73,-56,-1,-1,0
1523611296982,-524288,73,-56,-1,-1,0
1523611297022,-393216,73,-56,-1,-1,0
1523611297022,-393216,73,-56,-1,-1,0
1523611297022,-327680,73,-56,-1,-1,0
1523611297022,-196608,73,-56,-1,-1,0
1523611297022,-65536,73,-56,-1,-1,0
1523611297062,0,73,-56,-1,-1,0
1523611297062,0,73,-56,-1,-1,0
1523611297062,131072,73,-56,-1,-1,0
1523611297062,327680,73,-56,-1,-1,0
1523611297062,524288,73,-56,-1,-1,0
1523611297102,720896,72,-56,-1,-1,0
1523611297102,917504,72,-56,-1,-1,0
1523611297102,1114112,72,-56,-1,-1,0
1523611297102,1441792,72,-56,-1,-1,0
1523611297102,1703936,72,-56,-1,-1,0
1523611297142,2031616,72,-56,-1,-1,0
1523611297142,2359296,72,-56,-1,-1,0
1523611297142,2555904,72,-56,-1,-1,0
1523611297142,2752512,72,-56,-1,-1,0
1523611297142,2883584,72,-56,-1,-1,0
1523611297182,2949120,72,-56,-1,-1,0
1523611297182,2752512,72,-56,-1,-1,0
1523611297182,2293760,72,-56,-1,-1,0
1523611297182,1572864,72,-56,-1,-1,0
1523611297182,917504,72,-56,-1,-1,0
1523611297222,393216,72,-56,-1,-1,0
1523611297222,0,72,-56,-1,-1,0
1523611297222,-196608,72,-56,-1,-1,0
1523611297222,-393216,72,-56,-1,-1,0
1523611297222,-458752,72,-56,-1,-1,0
1523611297263,-524288,72,-56,-1,-1,0
1523611297263,-655360,72,-56,-1,-1,0
1523611297263,-786432,72,-56,-1,-1,0
1523611297263,-786432,72,-56,-1,-1,0
1523611297263,-655360,72,-56,-1,-1,0
1523611297302,-524288,72,-56,-1,-1,0
1523611297302,-589824,72,-56,-1,-1,0
1523611297302,-720896,72,-56,-1,-1,0
1523611297302,-786432,72,-56,-1,-1,0
1523611297302,-786432,72,-56,-1,-1,0
1523611297342,-655360,72,-56,-1,-1,0
1523611297342,-589824,72,-56,-1,-1,0
1523611297342,-589824,72,-56,-1,-1,0
1523611297342,-655360,72,-56,-1,-1,0
1523611297342,-720896,72,-56,-1,-1,0
1523611297382,-720896,72,-56,-1,-1,0
1523611297382,-786432,72,-56,-1,-1,0
1523611297382,-851968,72,-56,-1,-1,0
1523611297382,-786432,72,-56,-1,-1,0
1523611297382,-720896,72,-56,-1,-1,0
1523611297422,-720896,72,-56,-1,-1,0
1523611297422,-917504,72,-56,-1,-1,0
1523611297422,-983040,72,-56,-1,-1,0
1523611297422,-851968,72,-56,-1,-1,0
1523611297422,-851968,72,-56,-1,-1,0
1523611297463,-917504,72,-56,-1,-1,0
1523611297463,-917504,72,-56,-1,-1,0
1523611297463,-917504,72,-56,-1,-1,0
1523611297463,-983040,72,-56,-1,-1,0
1523611297463,-1114112,72,-56,-1,-1,0
1523611297502,-1048576,72,-56,-1,-1,0
1523611297502,-1048576,72,-56,-1,-1,0
1523611297502,-1114112,72,-56,-1,-1,0
1523611297502,-1114112,72,-56,-1,-1,0
1523611297502,-983040,72,-56,-1,-1,0
1523611297542,-917504,72,-56,-1,-1,0
1523611297542,-851968,72,-56,-1,-1,0
1523611297542,-851968,72,-56,-1,-1,0
1523611297542,-917504,72,-56,-1,-1,0
1523611297542,-917504,72,-56,-1,-1,0
1523611297582,-917504,72,-56,-1,-1,0
1523611297582,-851968,72,-56,-1,-1,0
1523611297582,-851968,72,-56,-1,-1,0
1523611297582,-851968,72,-56,-1,-1,0
1523611297582,-851968,72,-56,-1,-1,0
1523611297622,-720896,72,-56,-1,-1,0
1523611297622,-655360,72,-56,-1,-1,0
1523611297622,-655360,72,-56,-1,-1,0
1523611297622,-589824,72,-56,-1,-1,0
1523611297622,-720896,72,-56,-1,-1,0
1523611297662,-917504,72,-56,-1,-1,0
1523611297662,-1048576,72,-56,-1,-1,0
1523611297662,-917504,72,-56,-1,-1,0
1523611297662,-720896,72,-56,-1,-1,0
1523611297662,-589824,72,-56,-1,-1,0
1523611297702,-393216,72,-56,-1,-1,0
1523611297702,-262144,72,-56,-1,-1,0
1523611297702,-262144,72,-56,-1,-1,0
1523611297702,-327680,72,-56,-1,-1,0
1523611297702,-458752,72,-56,-1,-1,0
1523611297742,-524288,72,-56,-1,-1,0
1523611297742,-589824,72,-56,-1,-1,0
1523611297742,-589824,72,-56,-1,-1,0
1523611297742,-524288,72,-56,-1,-1,0
1523611297742,-524288,72,-56,-1,-1,0
1523611297782,-458752,72,-56,-1,-1,0
1523611297782,-524288,72,-56,-1,-1,0
1523611297782,-589824,72,-56,-1,-1,0
1523611297782,-655360,72,-56,-1,-1,0
1523611297782,-393216,72,-56,-1,-1,0
1523611297822,917504,72,-56,-1,-1,0
1523611297822,4390912,72,-56,-1,-1,0
1523611297822,9437184,72,-56,-1,-1,0
1523611297822,11010048,72,-56,-1,-1,0
1523611297822,6225920,72,-56,-1,-1,0
1523611297862,458752,72,-56,-1,-1,0
1523611297862,-1114112,72,-56,-1,-1,0
1523611297862,-524288,72,-56,-1,-1,0
1523611297862,-262144,72,-56,-1,-1,0
1523611297862,-262144,72,-56,-1,-1,0
1523611297903,-262144,72,-56,-1,-1,0
1523611297903,-262144,72,-56,-1,-1,0
1523611297903,-131072,72,-56,-1,-1,0
1523611297903,-196608,72,-56,-1,-1,0
1523611297903,-131072,72,-56,-1,-1,0
1523611297942,-131072,72,-56,-1,-1,0
1523611297942,0,72,-56,-1,-1,0
1523611297942,0,72,-56,-1,-1,0
1523611297942,196608,72,-56,-1,-1,0
1523611297942,262144,72,-56,-1,-1,0
1523611297982,393216,72,-56,-1,-1,0
1523611297982,589824,72,-56,-1,-1,0
1523611297982,851968,72,-56,-1,-1,0
1523611297982,1114112,72,-56,-1,-1,0
1523611297982,1376256,72,-56,-1,-1,0
1523611298022,1638400,71,-56,-1,-1,0
1523611298022,1966080,71,-56,-1,-1,0
1523611298022,2293760,71,-56,-1,-1,0
1523611298022,2686976,71,-56,-1,-1,0
1523611298022,2949120,71,-56,-1,-1,0
1523611298062,3080192,71,-56,-1,-1,0
1523611298062,3145728,71,-56,-1,-1,0
1523611298062,3145728,71,-56,-1,-1,0
1523611298062,2818048,71,-56,-1,-1,0
1523611298062,2359296,71,-56,-1,-1,0
1523611298102,1703936,71,-56,-1,-1,0
1523611298102,1114112,71,-56,-1,-1,0
1523611298102,589824,71,-56,-1,-1,0
1523611298102,131072,71,-56,-1,-1,0
1523611298102,-65536,71,-56,-1,-1,0
1523611298142,-262144,71,-56,-1,-1,0
1523611298142,-393216,71,-56,-1,-1,0
1523611298142,-458752,71,-56,-1,-1,0
1523611298142,-524288,71,-56,-1,-1,0
1523611298142,-589824,71,-56,-1,-1,0
1523611298182,-655360,71,-56,-1,-1,0
1523611298182,-589824,71,-56,-1,-1,0
1523611298182,-589824,71,-56,-1,-1,0
1523611298182,-524288,71,-56,-1,-1,0
1523611298182,-589824,71,-56,-1,-1,0
1523611298222,-524288,71,-56,-1,-1,0
1523611298222,-458752,71,-56,-1,-1,0
1523611298222,-393216,71,-56,-1,-1,0
1523611298222,-393216,71,-56,-1,-1,0
1523611298222,-393216,71,-56,-1,-1,0
1523611298263,-327680,71,-56,-1,-1,0
1523611298263,-327680,71,-56,-1,-1,0
1523611298263,-393216,71,-56,-1,-1,0
1523611298263,-393216,71,-56,-1,-1,0
1523611298263,-393216,71,-56,-1,-1,0
1523611298302,-393216,71,-56,-1,-1,0
1523611298302,-393216,71,-56,-1,-1,0
1523611298302,-458752,71,-56,-1,-1,0
1523611298302,-524288,71,-56,-1,-1,0
1523611298302,-458752,71,-56,-1,-1,0
1523611298342,-524288,71,-56,-1,-1,0
1523611298342,-589824,71,-56,-1,-1,0
1523611298342,-655360,71,-56,-1,-1,0
1523611298342,-655360,71,-56,-1,-1,0
1523611298342,-589824,71,-56,-1,-1,0
1523611298382,-589824,71,-56,-1,-1,0
1523611298382,-655360,71,-56,-1,-1,0
1523611298382,-589824,71,-56,-1,-1,0
1523611298382,-655360,71,-56,-1,-1,0
1523611298382,-655360,71,-56,-1,-1,0
1523611298422,-655360,71,-56,-1,-1,0
1523611298422,-655360,71,-56,-1,-1,0
1523611298422,-720896,71,-56,-1,-1,0
1523611298422,-720896,71,-56,-1,-1,0
1523611298422,-655360,71,-56,-1,-1,0
1523611298461,-720896,71,-56,-1,-1,0
1523611298461,-786432,71,-56,-1,-1,0
1523611298461,-786432,71,-56,-1,-1,0
1523611298461,-720896,71,-56,-1,-1,0
1523611298461,-720896,71,-56,-1,-1,0
1523611298501,-720896,71,-56,-1,-1,0
1523611298501,-720896,71,-56,-1,-1,0
1523611298501,-720896,71,-56,-1,-1,0
1523611298501,-720896,71,-56,-1,-1,0
1523611298501,-720896,71,-56,-1,-1,0
1523611298544,-786432,71,-56,-1,-1,0
1523611298544,-786432,71,-56,-1,-1,0
1523611298544,-851968,71,-56,-1,-1,0
1523611298544,-917504,71,-56,-1,-1,0
1523611298544,-983040,71,-56,-1,-1,0
1523611298581,-917504,71,-56,-1,-1,0
1523611298581,-851968,71,-56,-1,-1,0
1523611298581,-786432,71,-56,-1,-1,0
1523611298581,-589824,71,-56,-1,-1,0
1523611298581,-458752,71,-56,-1,-1,0
1523611298621,-458752,71,-56,-1,-1,0
1523611298621,-655360,71,-56,-1,-1,0
1523611298621,-851968,71,-56,-1,-1,0
1523611298621,-851968,71,-56,-1,-1,0
1523611298621,-851968,71,-56,-1,-1,0
1523611298661,-851968,71,-56,-1,-1,0
1523611298661,-786432,71,-56,-1,-1,0
1523611298661,-786432,71,-56,-1,-1,0
1523611298661,-786432,71,-56,-1,-1,0
1523611298661,-786432,71,-56,-1,-1,0
1523611298701,-720896,71,-56,-1,-1,0
1523611298701,-786432,71,-56,-1,-1,0
1523611298701,-524288,71,-56,-1,-1,0
1523611298701,851968,71,-56,-1,-1,0
1523611298701,4456448,71,-56,-1,-1,0
1523611298741,9371648,71,-56,-1,-1,0
1523611298741,10551296,71,-56,-1,-1,0
1523611298741,5701632,71,-56,-1,-1,0
1523611298741,196608,71,-56,-1,-1,0
1523611298741,-1179648,71,-56,-1,-1,0
1523611298781,-655360,71,-56,-1,-1,0
1523611298781,-458752,71,-56,-1,-1,0
1523611298781,-458752,71,-56,-1,-1,0
1523611298781,-524288,71,-56,-1,-1,0
1523611298781,-524288,71,-56,-1,-1,0
1523611298823,-458752,71,-56,-1,-1,0
1523611298823,-393216,71,-56,-1,-1,0
1523611298823,-327680,71,-56,-1,-1,0
1523611298823,-196608,71,-56,-1,-1,0
1523611298823,-131072,71,-56,-1,-1,0
1523611298861,-65536,71,-56,-1,-1,0
1523611298861,0,71,-56,-1,-1,0
1523611298861,131072,71,-56,-1,-1,0
1523611298861,327680,71,-56,-1,-1,0
1523611298861,524288,71,-56,-1,-1,0
1523611298901,720896,71,-56,-1,-1,0
1523611298901,917504,71,-56,-1,-1,0
1523611298901,1179648,71,-56,-1,-1,0
1523611298901,1507328,71,-56,-1,-1,0
1523611298901,1769472,71,-56,-1,-1,0
1523611298943,2097152,71,-56,-1,-1,0
1523611298943,2424832,71,-56,-1,-1,0
1523611298943,2686976,71,-56,-1,-1,0
1523611298943,2818048,71,-56,-1,-1,0
1523611298943,2818048,71,-56,-1,-1,0
1523611298981,2818048,71,-56,-1,-1,0
1523611298981,2621440,71,-56,-1,-1,0
1523611298981,2162688,71,-56,-1,-1,0
1523611298981,1572864,71,-56,-1,-1,0
1523611298981,917504,71,-56,-1,-1,0
1523611299021,393216,71,-56,-1,-1,0
1523611299021,0,71,-56,-1,-1,0
1523611299021,-196608,71,-56,-1,-1,0
1523611299021,-393216,71,-56,-1,-1,0
1523611299021,-524288,71,-56,-1,-1,0
1523611299061,-524288,71,-56,-1,-1,0
1523611299061,-589824,71,-56,-1,-1,0
1523611299061,-720896,71,-56,-1,-1,0
1523611299061,-786432,71,-56,-1,-1,0
1523611299061,-720896,71,-56,-1,-1,0
1523611299101,-589824,71,-56,-1,-1,0
1523611299101,-589824,71,-56,-1,-1,0
1523611299101,-589824,71,-56,-1,-1,0
1523611299101,-655360,71,-56,-1,-1,0
1523611299101,-655360,71,-56,-1,-1,0
1523611299141,-655360,71,-56,-1,-1,0
1523611299141,-589824,71,-56,-1,-1,0
1523611299141,-524288,71,-56,-1,-1,0
1523611299141,-524288,71,-56,-1,-1,0
1523611299141,-589824,71,-56,-1,-1,0
1523611299183,-524288,71,-56,-1,-1,0
1523611299183,-458752,71,-56,-1,-1,0
1523611299183,-458752,71,-56,-1,-1,0
1523611299183,-458752,71,-56,-1,-1,0
1523611299183,-524288,71,-56,-1,-1,0
1523611299221,-524288,71,-56,-1,-1,0
1523611299221,-589824,71,-56,-1,-1,0
1523611299221,-589824,71,-56,-1,-1,0
1523611299221,-655360,71,-56,-1,-1,0
1523611299221,-655360,71,-56,-1,-1,0
1523611299261,-720896,71,-56,-1,-1,0
1523611299261,-720896,71,-56,-1,-1,0
1523611299261,-720896,71,-56,-1,-1,0
1523611299261,-720896,71,-56,-1,-1,0
1523611299261,-786432,71,-56,-1,-1,0
1523611299301,-786432,71,-56,-1,-1,0
1523611299301,-786432,71,-56,-1,-1,0
1523611299301,-720896,71,-56,-1,-1,0
1523611299301,-720896,71,-56,-1,-1,0
1523611299301,-720896,71,-56,-1,-1,0
1523611299341,-720896,71,-56,-1,-1,0
1523611299341,-720896,71,-56,-1,-1,0
1523611299341,-720896,71,-56,-1,-1,0
1523611299341,-786432,71,-56,-1,-1,0
1523611299341,-786432,71,-56,-1,-1,0
1523611299381,-720896,71,-56,-1,-1,0
1523611299381,-720896,71,-56,-1,-1,0
1523611299381,-786432,71,-56,-1,-1,0
1523611299381,-786432,71,-56,-1,-1,0
1523611299381,-851968,71,-56,-1,-1,0
1523611299423,-851968,71,-56,-1,-1,0
1523611299423,-851968,71,-56,-1,-1,0
1523611299423,-786432,71,-56,-1,-1,0
1523611299423,-786432,71,-56,-1,-1,0
1523611299423,-786432,71,-56,-1,-1,0
1523611299461,-917504,71,-56,-1,-1,0
1523611299461,-1048576,71,-56,-1,-1,0
1523611299461,-1114112,71,-56,-1,-1,0
1523611299461,-1114112,71,-56,-1,-1,0
1523611299461,-1048576,71,-56,-1,-1,0
1523611299501,-917504,71,-56,-1,-1,0
1523611299501,-720896,71,-56,-1,-1,0
1523611299501,-655360,71,-56,-1,-1,0
1523611299501,-720896,71,-56,-1,-1,0
1523611299501,-851968,71,-56,-1,-1,0
1523611299541,-917504,71,-56,-1,-1,0
1523611299541,-917504,71,-56,-1,-1,0
1523611299541,-917504,71,-56,-1,-1,0
1523611299541,-917504,71,-56,-1,-1,0
1523611299541,-917504,71,-56,-1,-1,0
1523611299581,-917504,71,-56,-1,-1,0
1523611299581,-983040,71,-56,-1,-1,0
1523611299581,-983040,71,-56,-1,-1,0
1523611299581,-1048576,71,-56,-1,-1,0
1523611299581,-983040,71,-56,-1,-1,0
1523611299621,-327680,71,-56,-1,-1,0
1523611299621,1835008,71,-56,-1,-1,0
1523611299621,6225920,71,-56,-1,-1,0
1523611299621,10289152,71,-56,-1,-1,0
1523611299621,8781824,71,-56,-1,-1,0
1523611299661,3014656,71,-56,-1,-1,0
1523611299661,-917504,71,-56,-1,-1,0
1523611299661,-1114112,71,-56,-1,-1,0
1523611299661,-720896,71,-56,-1,-1,0
1523611299661,-720896,71,-56,-1,-1,0
1523611299701,-720896,71,-56,-1,-1,0
1523611299701,-655360,71,-56,-1,-1,0
1523611299701,-655360,71,-56,-1,-1,0
1523611299701,-589824,71,-56,-1,-1,0
1523611299701,-524288,71,-56,-1,-1,0
1523611299741,-458752,71,-56,-1,-1,0
1523611299741,-458752,71,-56,-1,-1,0
1523611299741,-327680,71,-56,-1,-1,0
1523611299741,-196608,71,-56,-1,-1,0
1523611299741,-65536,71,-56,-1,-1,0
1523611299781,0,70,-56,-1,-1,0
1523611299781,196608,70,-56,-1,-1,0
1523611299781,327680,70,-56,-1,-1,0
1523611299781,524288,70,-56,-1,-1,0
1523611299781,720896,70,-56,-1,-1,0
1523611299823,983040,70,-56,-1,-1,0
1523611299823,1310720,70,-56,-1,-1,0
1523611299823,1638400,70,-56,-1,-1,0
1523611299823,1900544,70,-56,-1,-1,0
1523611299823,2228224,70,-56,-1,-1,0
1523611299861,2424832,70,-56,-1,-1,0
1523611299861,2621440,70,-56,-1,-1,0
1523611299861,2621440,70,-56,-1,-1,0
1523611299861,2424832,70,-56,-1,-1,0
1523611299861,2162688,70,-56,-1,-1,0
1523611299901,1769472,70,-56,-1,-1,0
1523611299901,1179648,70,-56,-1,-1,0
1523611299901,655360,70,-56,-1,-1,0
1523611299901,196608,70,-56,-1,-1,0
1523611299901,-65536,70,-56,-1,-1,0
1523611299941,-262144,70,-56,-1,-1,0
1523611299941,-393216,70,-56,-1,-1,0
1523611299941,-458752,70,-56,-1,-1,0
1523611299941,-589824,70,-56,-1,-1,0
1523611299941,-589824,70,-56,-1,-1,0
1523611299981,-589824,70,-56,-1,-1,0
1523611299981,-458752,70,-56,-1,-1,0
1523611299981,-458752,70,-56,-1,-1,0
1523611299981,-458752,70,-56,-1,-1,0
1523611299981,-458752,70,-56,-1,-1,0
1523611300021,-393216,70,-56,-1,-1,0
1523611300021,-393216,70,-56,-1,-1,0
1523611300021,-393216,70,-56,-1,-1,0
1523611300021,-393216,70,-56,-1,-1,0
1523611300021,-327680,70,-56,-1,-1,0
1523611300061,-262144,70,-56,-1,-1,0
1523611300061,-327680,70,-56,-1,-1,0
1523611300061,-327680,70,-56,-1,-1,0
1523611300061,-327680,70,-56,-1,-1,0
1523611300061,-327680,70,-56,-1,-1,0
1523611300101,-393216,70,-56,-1,-1,0
1523611300101,-393216,70,-56,-1,-1,0
1523611300101,-393216,70,-56,-1,-1,0
1523611300101,-458752,70,-56,-1,-1,0
1523611300101,-458752,70,-56,-1,-1,0
1523611300141,-458752,70,-56,-1,-1,0
1523611300141,-458752,70,-56,-1,-1,0
1523611300141,-458752,70,-56,-1,-1,0
1523611300141,-524288,70,-56,-1,-1,0
1523611300141,-524288,70,-56,-1,-1,0
1523611300181,-589824,70,-56,-1,-1,0
1523611300181,-655360,70,-56,-1,-1,0
1523611300181,-720896,70,-56,-1,-1,0
1523611300181,-720896,70,-56,-1,-1,0
1523611300181,-720896,70,-56,-1,-1,0
1523611300225,-720896,70,-56,-1,-1,0
1523611300225,-720896,70,-56,-1,-1,0
1523611300225,-786432,70,-56,-1,-1,0
1523611300225,-786432,70,-56,-1,-1,0
1523611300225,-786432,70,-56,-1,-1,0
1523611300261,-786432,70,-56,-1,-1,0
1523611300261,-786432,70,-56,-1,-1,0
1523611300261,-786432,70,-56,-1,-1,0
1523611300261,-851968,70,-56,-1,-1,0
1523611300261,-851968,70,-56,-1,-1,0
1523611300301,-851968,70,-56,-1,-1,0
1523611300301,-851968,70,-56,-1,-1,0
1523611300301,-917504,70,-56,-1,-1,0
1523611300301,-917504,70,-56,-1,-1,0
1523611300301,-983040,70,-56,-1,-1,0
1523611300341,-1048576,70,-56,-1,-1,0
1523611300341,-1048576,70,-56,-1,-1,0
1523611300341,-1114112,70,-56,-1,-1,0
1523611300341,-1245184,70,-56,-1,-1,0
1523611300341,-1245184,70,-56,-1,-1,0
1523611300381,-1179648,70,-56,-1,-1,0
1523611300381,-1048576,70,-56,-1,-1,0
1523611300381,-851968,70,-56,-1,-1,0
1523611300381,-786432,70,-56,-1,-1,0
1523611300381,-851968,70,-56,-1,-1,0
1523611300421,-983040,70,-56,-1,-1,0
1523611300421,-1114112,70,-56,-1,-1,0
1523611300421,-1114112,70,-56,-1,-1,0
1523611300421,-1114112,70,-56,-1,-1,0
1523611300421,-1179648,70,-56,-1,-1,0
1523611300463,-1179648,70,-56,-1,-1,0
1523611300463,-1179648,70,-56,-1,-1,0
1523611300463,-1179648,70,-56,-1,-1,0
1523611300463,-1179648,70,-56,-1,-1,0
1523611300463,-1179648,70,-56,-1,-1,0
1523611300501,-1114112,70,-56,-1,-1,0
1523611300501,-393216,70,-56,-1,-1,0
1523611300501,1638400,70,-56,-1,-1,0
1523611300501,5898240,70,-56,-1,-1,0
1523611300501,9764864,70,-56,-1,-1,0
1523611300541,8060928,70,-56,-1,-1,0
1523611300541,2162688,70,-56,-1,-1,0
1523611300541,-1703936,70,-56,-1,-1,0
1523611300541,-1638400,70,-56,-1,-1,0
1523611300541,-983040,70,-56,-1,-1,0
1523611300581,-786432,68,-56,-1,-1,0
1523611300581,-786432,68,-56,-1,-1,0
1523611300581,-786432,68,-56,-1,-1,0
1523611300581,-655360,68,-56,-1,-1,0
1523611300581,-655360,68,-56,-1,-1,0
1523611300621,-589824,68,-56,-1,-1,0
1523611300621,-458752,68,-56,-1,-1,0
1523611300621,-327680,68,-56,-1,-1,0
1523611300621,-262144,68,-56,-1,-1,0
1523611300621,-131072,68,-56,-1,-1,0
1523611300661,0,68,-56,-1,-1,0
1523611300661,131072,68,-56,-1,-1,0
1523611300661,262144,68,-56,-1,-1,0
1523611300661,393216,68,-56,-1,-1,0
1523611300661,655360,68,-56,-1,-1,0
1523611300701,983040,68,-56,-1,-1,0
1523611300701,1310720,68,-56,-1,-1,0
1523611300701,1638400,68,-56,-1,-1,0
1523611300701,2031616,68,-56,-1,-1,0
1523611300701,2424832,68,-56,-1,-1,0
1523611300741,2752512,68,-56,-1,-1,0
1523611300741,3014656,68,-56,-1,-1,0
1523611300741,3211264,68,-56,-1,-1,0
1523611300741,3342336,68,-56,-1,-1,0
1523611300741,3211264,68,-56,-1,-1,0
1523611300781,2818048,68,-56,-1,-1,0
1523611300781,2228224,68,-56,-1,-1,0
1523611300781,1507328,68,-56,-1,-1,0
1523611300781,786432,68,-56,-1,-1,0
1523611300781,262144,68,-56,-1,-1,0
1523611300821,-65536,68,-56,-1,-1,0
1523611300821,-327680,68,-56,-1,-1,0
1523611300821,-524288,68,-56,-1,-1,0
1523611300821,-655360,68,-56,-1,-1,0
1523611300821,-720896,68,-56,-1,-1,0
1523611300861,-786432,68,-56,-1,-1,0
1523611300861,-851968,68,-56,-1,-1,0
1523611300861,-851968,68,-56,-1,-1,0
1523611300861,-786432,68,-56,-1,-1,0
1523611300861,-655360,68,-56,-1,-1,0
1523611300901,-655360,68,-56,-1,-1,0
1523611300901,-655360,68,-56,-1,-1,0
1523611300901,-655360,68,-56,-1,-1,0
1523611300901,-589824,68,-56,-1,-1,0
1523611300901,-524288,68,-56,-1,-1,0
1523611300941,-524288,68,-56,-1,-1,0
1523611300941,-524288,68,-56,-1,-1,0
1523611300941,-524288,68,-56,-1,-1,0
1523611300941,-589824,68,-56,-1,-1,0
1523611300941,-589824,68,-56,-1,-1,0
1523611300981,-655360,68,-56,-1,-1,0
1523611300981,-655360,68,-56,-1,-1,0
1523611300981,-720896,68,-56,-1,-1,0
1523611300981,-720896,68,-56,-1,-1,0
1523611300981,-655360,68,-56,-1,-1,0
1523611301021,-655360,68,-56,-1,-1,0
1523611301021,-720896,68,-56,-1,-1,0
1523611301021,-786432,68,-56,-1,-1,0
1523611301021,-786432,68,-56,-1,-1,0
1523611301021,-786432,68,-56,-1,-1,0
1523611301061,-786432,68,-56,-1,-1,0
1523611301061,-786432,68,-56,-1,-1,0
1523611301061,-786432,68,-56,-1,-1,0
1523611301061,-786432,68,-56,-1,-1,0
1523611301061,-851968,68,-56,-1,-1,0
1523611301103,-851968,68,-56,-1,-1,0
1523611301103,-851968,68,-56,-1,-1,0
1523611301103,-851968,68,-56,-1,-1,0
1523611301103,-786432,68,-56,-1,-1,0
1523611301103,-851968,68,-56,-1,-1,0
1523611301141,-983040,68,-56,-1,-1,0
1523611301141,-1048576,68,-56,-1,-1,0
1523611301141,-1114112,68,-56,-1,-1,0
1523611301141,-1114112,68,-56,-1,-1,0
1523611301141,-1048576,68,-56,-1,-1,0
1523611301181,-1048576,68,-56,-1,-1,0
1523611301181,-983040,68,-56,-1,-1,0
1523611301181,-786432,68,-56,-1,-1,0
1523611301181,-720896,68,-56,-1,-1,0
1523611301181,-851968,68,-56,-1,-1,0
1523611301221,-983040,68,-56,-1,-1,0
1523611301221,-1048576,68,-56,-1,-1,0
1523611301221,-1048576,68,-56,-1,-1,0
1523611301221,-983040,68,-56,-1,-1,0
1523611301221,-1048576,68,-56,-1,-1,0
1523611301261,-1048576,68,-56,-1,-1,0
1523611301261,-1114112,68,-56,-1,-1,0
1523611301261,-1048576,68,-56,-1,-1,0
1523611301261,-1048576,68,-56,-1,-1,0
1523611301261,-1048576,68,-56,-1,-1,0
1523611301304,-851968,68,-56,-1,-1,0
1523611301304,0,68,-56,-1,-1,0
1523611301304,2621440,68,-56,-1,-1,0
1523611301304,7340032,68,-56,-1,-1,0
1523611301304,10485760,68,-56,-1,-1,0
1523611301341,7471104,68,-56,-1,-1,0
1523611301341,1441792,68,-56,-1,-1,0
1523611301341,-1507328,68,-56,-1,-1,0
1523611301341,-1179648,68,-56,-1,-1,0
1523611301341,-655360,68,-56,-1,-1,0
1523611301381,-589824,68,-56,-1,-1,0
1523611301381,-589824,68,-56,-1,-1,0
1523611301381,-524288,68,-56,-1,-1,0
1523611301381,-458752,68,-56,-1,-1,0
1523611301381,-393216,68,-56,-1,-1,0
1523611301421,-327680,68,-56,-1,-1,0
1523611301421,-262144,68,-56,-1,-1,0
1523611301421,-196608,68,-56,-1,-1,0
1523611301421,-131072,68,-56,-1,-1,0
1523611301421,0,68,-56,-1,-1,0
1523611301461,65536,68,-56,-1,-1,0
1523611301461,196608,68,-56,-1,-1,0
1523611301461,327680,68,-56,-1,-1,0
1523611301461,524288,68,-56,-1,-1,0
1523611301461,786432,68,-56,-1,-1,0
1523611301501,1114112,68,-56,-1,-1,0
1523611301501,1376256,68,-56,-1,-1,0
1523611301501,1703936,68,-56,-1,-1,0
1523611301501,2097152,68,-56,-1,-1,0
1523611301501,2424832,68,-56,-1,-1,0
1523611301541,2752512,68,-56,-1,-1,0
1523611301541,3014656,68,-56,-1,-1,0
1523611301541,3211264,68,-56,-1,-1,0
1523611301541,3276800,68,-56,-1,-1,0
1523611301541,3080192,68,-56,-1,-1,0
1523611301581,2555904,68,-56,-1,-1,0
1523611301581,1835008,68,-56,-1,-1,0
1523611301581,1114112,68,-56,-1,-1,0
1523611301581,393216,68,-56,-1,-1,0
1523611301581,0,68,-56,-1,-1,0
1523611301621,-262144,68,-56,-1,-1,0
1523611301621,-458752,68,-56,-1,-1,0
1523611301621,-589824,68,-56,-1,-1,0
1523611301621,-720896,68,-56,-1,-1,0
1523611301621,-851968,68,-56,-1,-1,0
1523611301661,-851968,68,-56,-1,-1,0
1523611301661,-851968,68,-56,-1,-1,0
1523611301661,-917504,68,-56,-1,-1,0
1523611301661,-917504,68,-56,-1,-1,0
1523611301661,-851968,68,-56,-1,-1,0
1523611301701,-851968,68,-56,-1,-1,0
1523611301701,-851968,68,-56,-1,-1,0
1523611301701,-917504,68,-56,-1,-1,0
1523611301701,-851968,68,-56,-1,-1,0
1523611301701,-786432,68,-56,-1,-1,0
1523611301743,-786432,68,-56,-1,-1,0
1523611301743,-786432,68,-56,-1,-1,0
1523611301743,-786432,68,-56,-1,-1,0
1523611301743,-786432,68,-56,-1,-1,0
1523611301743,-786432,68,-56,-1,-1,0
1523611301781,-786432,68,-56,-1,-1,0
1523611301781,-786432,68,-56,-1,-1,0
1523611301781,-851968,68,-56,-1,-1,0
1523611301781,-917504,68,-56,-1,-1,0
1523611301781,-917504,68,-56,-1,-1,0
1523611301821,-983040,68,-56,-1,-1,0
1523611301821,-983040,68,-56,-1,-1,0
1523611301821,-1048576,68,-56,-1,-1,0
1523611301821,-1048576,68,-56,-1,-1,0
1523611301821,-1048576,68,-56,-1,-1,0
1523611301861,-1114112,68,-56,-1,-1,0
1523611301861,-1179648,68,-56,-1,-1,0
1523611301861,-1179648,68,-56,-1,-1,0
1523611301861,-1179648,68,-56,-1,-1,0
1523611301861,-1245184,68,-56,-1,-1,0
1523611301901,-1245184,68,-56,-1,-1,0
1523611301901,-1245184,68,-56,-1,-1,0
1523611301901,-1179648,68,-56,-1,-1,0
1523611301901,-1179648,68,-56,-1,-1,0
1523611301901,-1245184,68,-56,-1,-1,0
1523611301943,-1310720,68,-56,-1,-1,0
1523611301943,-1310720,68,-56,-1,-1,0
1523611301943,-1310720,68,-56,-1,-1,0
1523611301943,-1376256,68,-56,-1,-1,0
1523611301943,-1507328,68,-56,-1,-1,0
1523611301981,-1507328,68,-56,-1,-1,0
1523611301981,-1376256,68,-56,-1,-1,0
1523611301981,-1310720,68,-56,-1,-1,0
1523611301981,-1114112,68,-56,-1,-1,0
1523611301981,-983040,68,-56,-1,-1,0
1523611302021,-1048576,68,-56,-1,-1,0
1523611302021,-1114112,68,-56,-1,-1,0
1523611302021,-1179648,68,-56,-1,-1,0
1523611302021,-1245184,68,-56,-1,-1,0
1523611302021,-1245184,68,-56,-1,-1,0
1523611302061,-1245184,68,-56,-1,-1,0
1523611302061,-1245184,68,-56,-1,-1,0
1523611302061,-1245184,68,-56,-1,-1,0
1523611302061,-1245184,68,-56,-1,-1,0
1523611302061,-1245184,68,-56,-1,-1,0
1523611302101,-1245184,68,-56,-1,-1,0
1523611302101,-1245184,68,-56,-1,-1,0
1523611302101,-851968,68,-56,-1,-1,0
1523611302101,786432,68,-56,-1,-1,0
1523611302101,4587520,68,-56,-1,-1,0
1523611302141,9502720,68,-56,-1,-1,0
1523611302141,9961472,68,-56,-1,-1,0
1523611302141,4653056,68,-56,-1,-1,0
1523611302141,-524288,68,-56,-1,-1,0
1523611302141,-1507328,68,-56,-1,-1,0
1523611302181,-917504,68,-56,-1,-1,0
1523611302181,-851968,68,-56,-1,-1,0
1523611302181,-917504,68,-56,-1,-1,0
1523611302181,-917504,68,-56,-1,-1,0
1523611302181,-851968,68,-56,-1,-1,0
1523611302221,-786432,68,-56,-1,-1,0
1523611302221,-720896,68,-56,-1,-1,0
1523611302221,-655360,68,-56,-1,-1,0
1523611302221,-589824,68,-56,-1,-1,0
1523611302221,-458752,68,-56,-1,-1,0
1523611302261,-393216,68,-56,-1,-1,0
1523611302261,-196608,68,-56,-1,-1,0
1523611302261,-65536,68,-56,-1,-1,0
1523611302261,0,68,-56,-1,-1,0
1523611302261,196608,68,-56,-1,-1,0
1523611302304,393216,68,-56,-1,-1,0
1523611302304,589824,68,-56,-1,-1,0
1523611302304,851968,68,-56,-1,-1,0
1523611302304,1179648,68,-56,-1,-1,0
1523611302304,1638400,68,-56,-1,-1,0
1523611302341,1966080,68,-56,-1,-1,0
1523611302341,2359296,68,-56,-1,-1,0
1523611302341,2686976,68,-56,-1,-1,0
1523611302341,2883584,68,-56,-1,-1,0
1523611302341,3014656,68,-56,-1,-1,0
1523611302384,2949120,68,-56,-1,-1,0
1523611302384,2621440,68,-56,-1,-1,0
1523611302384,2031616,68,-56,-1,-1,0
1523611302384,1310720,68,-56,-1,-1,0
1523611302384,655360,68,-56,-1,-1,0
1523611302421,65536,68,-56,-1,-1,0
1523611302421,-262144,68,-56,-1,-1,0
1523611302421,-524288,68,-56,-1,-1,0
1523611302421,-655360,68,-56,-1,-1,0
1523611302421,-786432,68,-56,-1,-1,0
1523611302461,-786432,68,-56,-1,-1,0
1523611302461,-786432,68,-56,-1,-1,0
1523611302461,-851968,68,-56,-1,-1,0
1523611302461,-851968,68,-56,-1,-1,0
1523611302461,-786432,68,-56,-1,-1,0
1523611302501,-786432,68,-56,-1,-1,0
1523611302501,-786432,68,-56,-1,-1,0
1523611302501,-786432,68,-56,-1,-1,0
1523611302501,-786432,68,-56,-1,-1,0
1523611302501,-720896,68,-56,-1,-1,0
1523611302541,-720896,68,-56,-1,-1,0
1523611302541,-720896,68,-56,-1,-1,0
1523611302541,-720896,68,-56,-1,-1,0
1523611302541,-655360,68,-56,-1,-1,0
1523611302541,-655360,68,-56,-1,-1,0
1523611302581,-589824,68,-56,-1,-1,0
1523611302581,-589824,68,-56,-1,-1,0
1523611302581,-655360,68,-56,-1,-1,0
1523611302581,-655360,68,-56,-1,-1,0
1523611302581,-655360,68,-56,-1,-1,0
1523611302621,-589824,68,-56,-1,-1,0
1523611302621,-589824,68,-56,-1,-1,0
1523611302621,-655360,68,-56,-1,-1,0
1523611302621,-655360,68,-56,-1,-1,0
1523611302621,-655360,68,-56,-1,-1,0
1523611302661,-655360,68,-56,-1,-1,0
1523611302661,-720896,68,-56,-1,-1,0
1523611302661,-720896,68,-56,-1,-1,0
1523611302661,-720896,68,-56,-1,-1,0
1523611302661,-786432,68,-56,-1,-1,0
1523611302701,-786432,68,-56,-1,-1,0
1523611302701,-851968,68,-56,-1,-1,0
1523611302701,-851968,68,-56,-1,-1,0
1523611302701,-917504,68,-56,-1,-1,0
1523611302701,-917504,68,-56,-1,-1,0
1523611302741,-917504,68,-56,-1,-1,0
1523611302741,-917504,68,-56,-1,-1,0
1523611302741,-917504,68,-56,-1,-1,0
1523611302741,-917504,68,-56,-1,-1,0
1523611302741,-917504,68,-56,-1,-1,0
1523611302781,-917504,68,-56,-1,-1,0
1523611302781,-851968,68,-56,-1,-1,0
1523611302781,-851968,68,-56,-1,-1,0
1523611302781,-851968,68,-56,-1,-1,0
1523611302781,-917504,68,-56,-1,-1,0
1523611302821,-1048576,68,-56,-1,-1,0
1523611302821,-1114112,68,-56,-1,-1,0
1523611302821,-1179648,68,-56,-1,-1,0
1523611302821,-1179648,68,-56,-1,-1,0
1523611302821,-1114112,68,-56,-1,-1,0
1523611302861,-983040,68,-56,-1,-1,0
1523611302861,-786432,68,-56,-1,-1,0
1523611302861,-589824,68,-56,-1,-1,0
1523611302861,-655360,68,-56,-1,-1,0
1523611302861,-720896,68,-56,-1,-1,0
1523611302901,-786432,68,-56,-1,-1,0
1523611302901,-917504,68,-56,-1,-1,0
1523611302901,-917504,68,-56,-1,-1,0
1523611302901,-917504,68,-56,-1,-1,0
1523611302901,-851968,68,-56,-1,-1,0
1523611302941,-917504,68,-56,-1,-1,0
1523611302941,-917504,68,-56,-1,-1,0
1523611302941,-917504,68,-56,-1,-1,0
1523611302941,-917504,68,-56,-1,-1,0
1523611302941,-851968,68,-56,-1,-1,0
1523611302981,-393216,68,-56,-1,-1,0
1523611302981,1376256,68,-56,-1,-1,0
1523611302981,5373952,68,-56,-1,-1,0
1523611302981,10420224,68,-56,-1,-1,0
1523611302981,10944512,68,-56,-1,-1,0
1523611303022,5439488,68,-56,-1,-1,0
1523611303022,0,68,-56,-1,-1,0
1523611303022,-1048576,68,-56,-1,-1,0
1523611303022,-524288,68,-56,-1,-1,0
1523611303022,-458752,68,-56,-1,-1,0
1523611303061,-524288,68,-56,-1,-1,0
1523611303061,-589824,68,-56,-1,-1,0
1523611303061,-524288,68,-56,-1,-1,0
1523611303061,-524288,68,-56,-1,-1,0
1523611303061,-393216,68,-56,-1,-1,0
1523611303101,-327680,68,-56,-1,-1,0
1523611303101,-262144,68,-56,-1,-1,0
1523611303101,-196608,68,-56,-1,-1,0
1523611303101,-65536,68,-56,-1,-1,0
1523611303101,0,68,-56,-1,-1,0
1523611303141,131072,68,-56,-1,-1,0
1523611303141,327680,68,-56,-1,-1,0
1523611303141,524288,68,-56,-1,-1,0
1523611303141,720896,68,-56,-1,-1,0
1523611303141,917504,68,-56,-1,-1,0
1523611303181,1179648,68,-56,-1,-1,0
1523611303181,1507328,68,-56,-1,-1,0
1523611303181,1900544,68,-56,-1,-1,0
1523611303181,2293760,68,-56,-1,-1,0
1523611303181,2686976,68,-56,-1,-1,0
1523611303221,2949120,68,-56,-1,-1,0
1523611303221,3211264,68,-56,-1,-1,0
1523611303221,3276800,68,-56,-1,-1,0
1523611303221,3211264,68,-56,-1,-1,0
1523611303221,2949120,68,-56,-1,-1,0
1523611303261,2424832,68,-56,-1,-1,0
1523611303261,1769472,68,-56,-1,-1,0
1523611303261,1114112,68,-56,-1,-1,0
1523611303261,589824,68,-56,-1,-1,0
1523611303261,131072,68,-56,-1,-1,0
1523611303301,-65536,68,-56,-1,-1,0
1523611303301,-196608,68,-56,-1,-1,0
1523611303301,-327680,68,-56,-1,-1,0
1523611303301,-458752,68,-56,-1,-1,0
1523611303301,-458752,68,-56,-1,-1,0
1523611303341,-458752,68,-56,-1,-1,0
1523611303341,-393216,68,-56,-1,-1,0
1523611303341,-393216,68,-56,-1,-1,0
1523611303341,-524288,68,-56,-1,-1,0
1523611303341,-524288,68,-56,-1,-1,0
1523611303381,-524288,68,-56,-1,-1,0
1523611303381,-458752,68,-56,-1,-1,0
1523611303381,-458752,68,-56,-1,-1,0
1523611303381,-458752,68,-56,-1,-1,0
1523611303381,-524288,68,-56,-1,-1,0
1523611303421,-524288,68,-56,-1,-1,0
1523611303421,-524288,68,-56,-1,-1,0
1523611303421,-589824,68,-56,-1,-1,0
1523611303421,-589824,68,-56,-1,-1,0
1523611303421,-589824,68,-56,-1,-1,0
1523611303461,-589824,68,-56,-1,-1,0
1523611303461,-524288,68,-56,-1,-1,0
1523611303461,-524288,68,-56,-1,-1,0
1523611303461,-589824,68,-56,-1,-1,0
1523611303461,-589824,68,-56,-1,-1,0
1523611303501,-655360,68,-56,-1,-1,0
1523611303501,-655360,68,-56,-1,-1,0
1523611303501,-720896,68,-56,-1,-1,0
1523611303501,-720896,68,-56,-1,-1,0
1523611303501,-720896,68,-56,-1,-1,0
1523611303541,-786432,68,-56,-1,-1,0
1523611303541,-786432,68,-56,-1,-1,0
1523611303541,-786432,68,-56,-1,-1,0
1523611303541,-786432,68,-56,-1,-1,0
1523611303541,-786432,68,-56,-1,-1,0
1523611303581,-786432,68,-56,-1,-1,0
1523611303581,-851968,68,-56,-1,-1,0
1523611303581,-851968,68,-56,-1,-1,0
1523611303581,-851968,68,-56,-1,-1,0
1523611303581,-851968,68,-56,-1,-1,0
1523611303621,-851968,68,-56,-1,-1,0
1523611303621,-917504,68,-56,-1,-1,0
1523611303621,-917504,68,-56,-1,-1,0
1523611303621,-917504,68,-56,-1,-1,0
1523611303621,-917504,68,-56,-1,-1,0
1523611303662,-983040,68,-56,-1,-1,0
1523611303662,-917504,68,-56,-1,-1,0
1523611303662,-917504,68,-56,-1,-1,0
1523611303662,-851968,68,-56,-1,-1,0
1523611303662,-917504,68,-56,-1,-1,0
1523611303701,-851968,68,-56,-1,-1,0
1523611303701,-851968,68,-56,-1,-1,0
1523611303701,-851968,68,-56,-1,-1,0
1523611303701,-786432,68,-56,-1,-1,0
1523611303701,-851968,68,-56,-1,-1,0
1523611303741,-917504,68,-56,-1,-1,0
1523611303741,-983040,68,-56,-1,-1,0
1523611303741,-1048576,68,-56,-1,-1,0
1523611303741,-983040,68,-56,-1,-1,0
1523611303741,-917504,68,-56,-1,-1,0
1523611303782,-720896,68,-56,-1,-1,0
1523611303782,-458752,68,-56,-1,-1,0
1523611303782,-393216,68,-56,-1,-1,0
1523611303782,-524288,68,-56,-1,-1,0
1523611303782,-655360,68,-56,-1,-1,0
1523611303821,-786432,68,-56,-1,-1,0
1523611303821,-786432,68,-56,-1,-1,0
1523611303821,-720896,68,-56,-1,-1,0
1523611303821,-720896,68,-56,-1,-1,0
1523611303821,-720896,68,-56,-1,-1,0
1523611303861,-786432,68,-56,-1,-1,0
1523611303861,-851968,68,-56,-1,-1,0
1523611303861,-851968,68,-56,-1,-1,0
1523611303861,-786432,68,-56,-1,-1,0
1523611303861,-655360,68,-56,-1,-1,0
1523611303901,65536,68,-56,-1,-1,0
1523611303901,2621440,68,-56,-1,-1,0
1523611303901,7340032,68,-56,-1,-1,0
1523611303901,11337728,68,-56,-1,-1,0
1523611303901,9371648,68,-56,-1,-1,0
1523611303941,3145728,68,-56,-1,-1,0
1523611303941,-655360,68,-56,-1,-1,0
1523611303941,-720896,68,-56,-1,-1,0
1523611303941,-393216,68,-56,-1,-1,0
1523611303941,-458752,68,-56,-1,-1,0
1523611303981,-458752,68,-56,-1,-1,0
1523611303981,-458752,68,-56,-1,-1,0
1523611303981,-458752,68,-56,-1,-1,0
1523611303981,-458752,68,-56,-1,-1,0
1523611303981,-327680,68,-56,-1,-1,0
1523611304021,-262144,68,-56,-1,-1,0
1523611304021,-262144,68,-56,-1,-1,0
1523611304021,-196608,68,-56,-1,-1,0
1523611304021,-65536,68,-56,-1,-1,0
1523611304021,0,68,-56,-1,-1,0
1523611304061,131072,68,-56,-1,-1,0
1523611304061,327680,68,-56,-1,-1,0
1523611304061,458752,68,-56,-1,-1,0
1523611304061,655360,68,-56,-1,-1,0
1523611304061,917504,68,-56,-1,-1,0
1523611304101,1245184,67,-56,-1,-1,0
1523611304101,1507328,67,-56,-1,-1,0
1523611304101,1900544,67,-56,-1,-1,0
1523611304101,2228224,67,-56,-1,-1,0
1523611304101,2490368,67,-56,-1,-1,0
1523611304141,2752512,67,-56,-1,-1,0
1523611304141,2818048,67,-56,-1,-1,0
1523611304141,2883584,67,-56,-1,-1,0
1523611304141,2752512,67,-56,-1,-1,0
1523611304141,2424832,67,-56,-1,-1,0
1523611304181,1900544,67,-56,-1,-1,0
1523611304181,1245184,67,-56,-1,-1,0
1523611304181,720896,67,-56,-1,-1,0
1523611304181,262144,67,-56,-1,-1,0
1523611304181,-65536,67,-56,-1,-1,0
1523611304221,-327680,67,-56,-1,-1,0
1523611304221,-524288,67,-56,-1,-1,0
1523611304221,-589824,67,-56,-1,-1,0
1523611304221,-655360,67,-56,-1,-1,0
1523611304221,-720896,67,-56,-1,-1,0
1523611304261,-720896,67,-56,-1,-1,0
1523611304261,-720896,67,-56,-1,-1,0
1523611304261,-720896,67,-56,-1,-1,0
1523611304261,-720896,67,-56,-1,-1,0
1523611304261,-720896,67,-56,-1,-1,0
1523611304303,-720896,67,-56,-1,-1,0
1523611304303,-655360,67,-56,-1,-1,0
1523611304303,-655360,67,-56,-1,-1,0
1523611304303,-655360,67,-56,-1,-1,0
1523611304303,-655360,67,-56,-1,-1,0
1523611304341,-589824,67,-56,-1,-1,0
1523611304341,-589824,67,-56,-1,-1,0
1523611304341,-589824,67,-56,-1,-1,0
1523611304341,-589824,67,-56,-1,-1,0
1523611304341,-589824,67,-56,-1,-1,0
1523611304381,-524288,67,-56,-1,-1,0
1523611304381,-589824,67,-56,-1,-1,0
1523611304381,-589824,67,-56,-1,-1,0
1523611304381,-524288,67,-56,-1,-1,0
1523611304381,-524288,67,-56,-1,-1,0
1523611304421,-589824,67,-56,-1,-1,0
1523611304421,-589824,67,-56,-1,-1,0
1523611304421,-589824,67,-56,-1,-1,0
1523611304421,-589824,67,-56,-1,-1,0
1523611304421,-589824,67,-56,-1,-1,0
1523611304461,-589824,67,-56,-1,-1,0
1523611304461,-589824,67,-56,-1,-1,0
1523611304461,-589824,67,-56,-1,-1,0
1523611304461,-524288,67,-56,-1,-1,0
1523611304461,-524288,67,-56,-1,-1,0
1523611304501,-589824,67,-56,-1,-1,0
1523611304501,-589824,67,-56,-1,-1,0
1523611304501,-589824,67,-56,-1,-1,0
1523611304501,-589824,67,-56,-1,-1,0
1523611304501,-589824,67,-56,-1,-1,0
1523611304543,-524288,67,-56,-1,-1,0
1523611304543,-524288,67,-56,-1,-1,0
1523611304543,-524288,67,-56,-1,-1,0
1523611304543,-458752,67,-56,-1,-1,0
1523611304543,-393216,67,-56,-1,-1,0
1523611304581,-393216,67,-56,-1,-1,0
1523611304581,-393216,67,-56,-1,-1,0
1523611304581,-458752,67,-56,-1,-1,0
1523611304581,-524288,67,-56,-1,-1,0
1523611304581,-589824,67,-56,-1,-1,0
1523611304621,-589824,67,-56,-1,-1,0
1523611304621,-524288,67,-56,-1,-1,0
1523611304621,-524288,67,-56,-1,-1,0
1523611304621,-589824,67,-56,-1,-1,0
1523611304621,-589824,67,-56,-1,-1,0
1523611304661,-655360,67,-56,-1,-1,0
1523611304661,-720896,67,-56,-1,-1,0
1523611304661,-720896,67,-56,-1,-1,0
1523611304661,-720896,67,-56,-1,-1,0
1523611304661,-589824,67,-56,-1,-1,0
1523611304701,-393216,67,-56,-1,-1,0
1523611304701,-196608,67,-56,-1,-1,0
1523611304701,-196608,67,-56,-1,-1,0
1523611304701,-393216,67,-56,-1,-1,0
1523611304701,-524288,67,-56,-1,-1,0
1523611304741,-589824,67,-56,-1,-1,0
1523611304741,-589824,67,-56,-1,-1,0
1523611304741,-589824,67,-56,-1,-1,0
1523611304741,-655360,67,-56,-1,-1,0
1523611304741,-655360,67,-56,-1,-1,0
1523611304781,-655360,67,-56,-1,-1,0
1523611304781,-720896,67,-56,-1,-1,0
1523611304781,-786432,67,-56,-1,-1,0
1523611304781,-786432,67,-56,-1,-1,0
1523611304781,-524288,67,-56,-1,-1,0
1523611304821,327680,67,-56,-1,-1,0
1523611304821,3080192,67,-56,-1,-1,0
1523611304821,7995392,67,-56,-1,-1,0
1523611304821,11337728,67,-56,-1,-1,0
1523611304821,8388608,67,-56,-1,-1,0
1523611304861,2162688,67,-56,-1,-1,0
1523611304861,-983040,67,-56,-1,-1,0
1523611304861,-720896,67,-56,-1,-1,0
1523611304861,-393216,67,-56,-1,-1,0
1523611304861,-458752,67,-56,-1,-1,0
1523611304901,-524288,67,-56,-1,-1,0
1523611304901,-524288,67,-56,-1,-1,0
1523611304901,-458752,67,-56,-1,-1,0
1523611304901,-393216,67,-56,-1,-1,0
1523611304901,-327680,67,-56,-1,-1,0
1523611304943,-262144,67,-56,-1,-1,0
1523611304943,-131072,67,-56,-1,-1,0
1523611304943,-65536,67,-56,-1,-1,0
1523611304943,0,67,-56,-1,-1,0
1523611304943,131072,67,-56,-1,-1,0
1523611304982,262144,67,-56,-1,-1,0
1523611304982,393216,67,-56,-1,-1,0
1523611304982,524288,67,-56,-1,-1,0
1523611304982,786432,67,-56,-1,-1,0
1523611304982,1114112,67,-56,-1,-1,0
1523611305021,1441792,67,-56,-1,-1,0
1523611305021,1769472,67,-56,-1,-1,0
1523611305021,2097152,67,-56,-1,-1,0
1523611305021,2424832,67,-56,-1,-1,0
1523611305021,2752512,67,-56,-1,-1,0
1523611305061,3014656,67,-56,-1,-1,0
1523611305061,3145728,67,-56,-1,-1,0
1523611305061,3145728,67,-56,-1,-1,0
1523611305061,3014656,67,-56,-1,-1,0
1523611305061,2686976,67,-56,-1,-1,0
1523611305101,2162688,67,-56,-1,-1,0
1523611305101,1507328,67,-56,-1,-1,0
1523611305101,917504,67,-56,-1,-1,0
1523611305101,393216,67,-56,-1,-1,0
1523611305101,65536,67,-56,-1,-1,0
1523611305141,-65536,67,-56,-1,-1,0
1523611305141,-262144,67,-56,-1,-1,0
1523611305141,-393216,67,-56,-1,-1,0
1523611305141,-458752,67,-56,-1,-1,0
1523611305141,-524288,67,-56,-1,-1,0
1523611305181,-524288,67,-56,-1,-1,0
1523611305181,-589824,67,-56,-1,-1,0
1523611305181,-589824,67,-56,-1,-1,0
1523611305181,-589824,67,-56,-1,-1,0
1523611305181,-589824,67,-56,-1,-1,0
1523611305221,-589824,67,-56,-1,-1,0
1523611305221,-524288,67,-56,-1,-1,0
1523611305221,-524288,67,-56,-1,-1,0
1523611305221,-589824,67,-56,-1,-1,0
1523611305221,-655360,67,-56,-1,-1,0
1523611305261,-720896,67,-56,-1,-1,0
1523611305261,-655360,67,-56,-1,-1,0
1523611305261,-655360,67,-56,-1,-1,0
1523611305261,-720896,67,-56,-1,-1,0
1523611305261,-720896,67,-56,-1,-1,0
1523611305301,-786432,67,-56,-1,-1,0
1523611305301,-851968,67,-56,-1,-1,0
1523611305301,-851968,67,-56,-1,-1,0
1523611305301,-851968,67,-56,-1,-1,0
1523611305301,-917504,67,-56,-1,-1,0
1523611305341,-983040,67,-56,-1,-1,0
1523611305341,-983040,67,-56,-1,-1,0
1523611305341,-1048576,67,-56,-1,-1,0
1523611305341,-1048576,67,-56,-1,-1,0
1523611305341,-1114112,67,-56,-1,-1,0
1523611305381,-1114112,67,-56,-1,-1,0
1523611305381,-1179648,67,-56,-1,-1,0
1523611305381,-1245184,67,-56,-1,-1,0
1523611305381,-1245184,67,-56,-1,-1,0
1523611305381,-1245184,67,-56,-1,-1,0
1523611305421,-1310720,67,-56,-1,-1,0
1523611305421,-1310720,67,-56,-1,-1,0
1523611305421,-1310720,67,-56,-1,-1,0
1523611305421,-1245184,67,-56,-1,-1,0
1523611305421,-1245184,67,-56,-1,-1,0
1523611305461,-1310720,67,-56,-1,-1,0
1523611305461,-1376256,67,-56,-1,-1,0
1523611305461,-1376256,67,-56,-1,-1,0
1523611305461,-1376256,67,-56,-1,-1,0
1523611305461,-1376256,67,-56,-1,-1,0
1523611305501,-1376256,67,-56,-1,-1,0
1523611305501,-1441792,67,-56,-1,-1,0
1523611305501,-1441792,67,-56,-1,-1,0
1523611305501,-1441792,67,-56,-1,-1,0
1523611305501,-1376256,67,-56,-1,-1,0
1523611305541,-1376256,67,-56,-1,-1,0
1523611305541,-1441792,67,-56,-1,-1,0
1523611305541,-1441792,67,-56,-1,-1,0
1523611305541,-1507328,67,-56,-1,-1,0
1523611305541,-1572864,67,-56,-1,-1,0
1523611305582,-1572864,67,-56,-1,-1,0
1523611305582,-1507328,67,-56,-1,-1,0
1523611305582,-1441792,67,-56,-1,-1,0
1523611305582,-1310720,67,-56,-1,-1,0
1523611305582,-1179648,67,-56,-1,-1,0
1523611305621,-1179648,67,-56,-1,-1,0
1523611305621,-1310720,67,-56,-1,-1,0
1523611305621,-1376256,67,-56,-1,-1,0
1523611305621,-1441792,67,-56,-1,-1,0
1523611305621,-1441792,67,-56,-1,-1,0
1523611305662,-1376256,67,-56,-1,-1,0
1523611305662,-1376256,67,-56,-1,-1,0
1523611305662,-1441792,67,-56,-1,-1,0
1523611305662,-1572864,67,-56,-1,-1,0
1523611305662,-1507328,67,-56,-1,-1,0
1523611305701,-1507328,67,-56,-1,-1,0
1523611305701,-1507328,67,-56,-1,-1,0
1523611305701,-1441792,67,-56,-1,-1,0
1523611305701,-720896,67,-56,-1,-1,0
1523611305701,1769472,67,-56,-1,-1,0
1523611305741,6488064,67,-56,-1,-1,0
1523611305741,10223616,67,-56,-1,-1,0
1523611305741,7733248,67,-56,-1,-1,0
1523611305741,1638400,67,-56,-1,-1,0
1523611305741,-1703936,67,-56,-1,-1,0
1523611305781,-1572864,67,-56,-1,-1,0
1523611305781,-1114112,67,-56,-1,-1,0
1523611305781,-1114112,67,-56,-1,-1,0
1523611305781,-1048576,67,-56,-1,-1,0
1523611305781,-983040,67,-56,-1,-1,0
1523611305821,-851968,67,-56,-1,-1,0
1523611305821,-851968,67,-56,-1,-1,0
1523611305821,-720896,67,-56,-1,-1,0
1523611305821,-655360,67,-56,-1,-1,0
1523611305821,-524288,67,-56,-1,-1,0
1523611305862,-458752,67,-56,-1,-1,0
1523611305862,-393216,67,-56,-1,-1,0
1523611305862,-262144,67,-56,-1,-1,0
1523611305862,-65536,67,-56,-1,-1,0
1523611305862,65536,67,-56,-1,-1,0
1523611305901,262144,67,-56,-1,-1,0
1523611305901,458752,67,-56,-1,-1,0
1523611305901,720896,67,-56,-1,-1,0
1523611305901,983040,67,-56,-1,-1,0
1523611305901,1310720,67,-56,-1,-1,0
1523611305941,1638400,66,-56,-1,-1,0
1523611305941,2031616,66,-56,-1,-1,0
1523611305941,2359296,66,-56,-1,-1,0
1523611305941,2555904,66,-56,-1,-1,0
1523611305941,2686976,66,-56,-1,-1,0
1523611305981,2752512,66,-56,-1,-1,0
1523611305981,2621440,66,-56,-1,-1,0
1523611305981,2293760,66,-56,-1,-1,0
1523611305981,1703936,66,-56,-1,-1,0
1523611305981,1048576,66,-56,-1,-1,0
1523611306022,393216,66,-56,-1,-1,0
1523611306022,-65536,66,-56,-1,-1,0
1523611306022,-393216,66,-56,-1,-1,0
1523611306022,-589824,66,-56,-1,-1,0
1523611306022,-720896,66,-56,-1,-1,0
1523611306061,-786432,66,-56,-1,-1,0
1523611306061,-786432,66,-56,-1,-1,0
1523611306061,-851968,66,-56,-1,-1,0
1523611306061,-851968,66,-56,-1,-1,0
1523611306061,-917504,66,-56,-1,-1,0
1523611306101,-917504,66,-56,-1,-1,0
1523611306101,-851968,66,-56,-1,-1,0
1523611306101,-786432,66,-56,-1,-1,0
1523611306101,-786432,66,-56,-1,-1,0
1523611306101,-720896,66,-56,-1,-1,0
1523611306141,-720896,66,-56,-1,-1,0
1523611306141,-720896,66,-56,-1,-1,0
1523611306141,-655360,66,-56,-1,-1,0
1523611306141,-655360,66,-56,-1,-1,0
1523611306141,-720896,66,-56,-1,-1,0
1523611306181,-720896,66,-56,-1,-1,0
1523611306181,-720896,66,-56,-1,-1,0
1523611306181,-720896,66,-56,-1,-1,0
1523611306181,-720896,66,-56,-1,-1,0
1523611306181,-786432,66,-56,-1,-1,0
1523611306222,-786432,66,-56,-1,-1,0
1523611306222,-786432,66,-56,-1,-1,0
1523611306222,-786432,66,-56,-1,-1,0
1523611306222,-786432,66,-56,-1,-1,0
1523611306222,-786432,66,-56,-1,-1,0
1523611306261,-786432,66,-56,-1,-1,0
1523611306261,-851968,66,-56,-1,-1,0
1523611306261,-851968,66,-56,-1,-1,0
1523611306261,-851968,66,-56,-1,-1,0
1523611306261,-851968,66,-56,-1,-1,0
1523611306301,-851968,66,-56,-1,-1,0
1523611306301,-851968,66,-56,-1,-1,0
1523611306301,-917504,66,-56,-1,-1,0
1523611306301,-851968,66,-56,-1,-1,0
1523611306301,-851968,66,-56,-1,-1,0
1523611306341,-786432,66,-56,-1,-1,0
1523611306341,-786432,66,-56,-1,-1,0
1523611306341,-720896,66,-56,-1,-1,0
1523611306341,-720896,66,-56,-1,-1,0
1523611306341,-720896,66,-56,-1,-1,0
1523611306381,-720896,66,-56,-1,-1,0
1523611306381,-655360,66,-56,-1,-1,0
1523611306381,-655360,66,-56,-1,-1,0
1523611306381,-655360,66,-56,-1,-1,0
1523611306381,-655360,66,-56,-1,-1,0
1523611306421,-720896,66,-56,-1,-1,0
1523611306421,-655360,66,-56,-1,-1,0
1523611306421,-655360,66,-56,-1,-1,0
1523611306421,-655360,66,-56,-1,-1,0
1523611306421,-655360,66,-56,-1,-1,0
1523611306461,-589824,66,-56,-1,-1,0
1523611306461,-589824,66,-56,-1,-1,0
1523611306461,-655360,66,-56,-1,-1,0
1523611306461,-786432,66,-56,-1,-1,0
1523611306461,-851968,66,-56,-1,-1,0
1523611306501,-851968,66,-56,-1,-1,0
1523611306501,-786432,66,-56,-1,-1,0
1523611306501,-524288,66,-56,-1,-1,0
1523611306501,-262144,66,-56,-1,-1,0
1523611306501,-131072,66,-56,-1,-1,0
1523611306541,-196608,66,-56,-1,-1,0
1523611306541,-327680,66,-56,-1,-1,0
1523611306541,-393216,66,-56,-1,-1,0
1523611306541,-393216,66,-56,-1,-1,0
1523611306541,-393216,66,-56,-1,-1,0
1523611306581,-393216,66,-56,-1,-1,0
1523611306581,-393216,66,-56,-1,-1,0
1523611306581,-393216,66,-56,-1,-1,0
1523611306581,-393216,66,-56,-1,-1,0
1523611306581,-393216,66,-56,-1,-1,0
1523611306621,-393216,66,-56,-1,-1,0
1523611306621,-393216,66,-56,-1,-1,0
1523611306621,65536,66,-56,-1,-1,0
1523611306621,1966080,66,-56,-1,-1,0
1523611306621,6225920,66,-56,-1,-1,0
1523611306661,11075584,66,-56,-1,-1,0
1523611306661,10747904,66,-56,-1,-1,0
1523611306661,4980736,66,-56,-1,-1,0
1523611306661,0,66,-56,-1,-1,0
1523611306661,-589824,66,-56,-1,-1,0
1523611306701,-131072,66,-56,-1,-1,0
1523611306701,-65536,66,-56,-1,-1,0
1523611306701,-131072,66,-56,-1,-1,0
1523611306701,-131072,66,-56,-1,-1,0
1523611306701,-65536,66,-56,-1,-1,0
1523611306741,-65536,66,-56,-1,-1,0
1523611306741,0,66,-56,-1,-1,0
1523611306741,65536,66,-56,-1,-1,0
1523611306741,131072,66,-56,-1,-1,0
1523611306741,196608,66,-56,-1,-1,0
1523611306781,327680,66,-56,-1,-1,0
1523611306781,458752,66,-56,-1,-1,0
1523611306781,524288,66,-56,-1,-1,0
1523611306781,655360,66,-56,-1,-1,0
1523611306781,851968,66,-56,-1,-1,0
1523611306821,1114112,66,-56,-1,-1,0
1523611306821,1310720,66,-56,-1,-1,0
1523611306821,1638400,66,-56,-1,-1,0
1523611306821,1966080,66,-56,-1,-1,0
1523611306821,2293760,66,-56,-1,-1,0
1523611306862,2621440,66,-56,-1,-1,0
1523611306862,2949120,66,-56,-1,-1,0
1523611306862,3276800,66,-56,-1,-1,0
1523611306862,3407872,66,-56,-1,-1,0
1523611306862,3473408,66,-56,-1,-1,0
1523611306901,3473408,66,-56,-1,-1,0
1523611306901,3276800,66,-56,-1,-1,0
1523611306901,2818048,66,-56,-1,-1,0
1523611306901,2162688,66,-56,-1,-1,0
1523611306901,1441792,66,-56,-1,-1,0
1523611306941,851968,66,-56,-1,-1,0
1523611306941,458752,66,-56,-1,-1,0
1523611306941,131072,66,-56,-1,-1,0
1523611306941,0,66,-56,-1,-1,0
1523611306941,-131072,66,-56,-1,-1,0
1523611306981,-196608,66,-56,-1,-1,0
1523611306981,-262144,66,-56,-1,-1,0
1523611306981,-327680,66,-56,-1,-1,0
1523611306981,-327680,66,-56,-1,-1,0
1523611306981,-327680,66,-56,-1,-1,0
1523611307021,-262144,66,-56,-1,-1,0
1523611307021,-262144,66,-56,-1,-1,0
1523611307021,-327680,66,-56,-1,-1,0
1523611307021,-327680,66,-56,-1,-1,0
1523611307021,-327680,66,-56,-1,-1,0
1523611307061,-327680,66,-56,-1,-1,0
1523611307061,-327680,66,-56,-1,-1,0
1523611307061,-327680,66,-56,-1,-1,0
1523611307061,-327680,66,-56,-1,-1,0
1523611307061,-327680,66,-56,-1,-1,0
1523611307101,-327680,66,-56,-1,-1,0
1523611307101,-393216,66,-56,-1,-1,0
1523611307101,-393216,66,-56,-1,-1,0
1523611307101,-393216,66,-56,-1,-1,0
1523611307101,-393216,66,-56,-1,-1,0
1523611307141,-458752,66,-56,-1,-1,0
1523611307141,-458752,66,-56,-1,-1,0
1523611307141,-524288,66,-56,-1,-1,0
1523611307141,-524288,66,-56,-1,-1,0
1523611307141,-524288,66,-56,-1,-1,0
1523611307181,-524288,66,-56,-1,-1,0
1523611307181,-589824,66,-56,-1,-1,0
1523611307181,-655360,66,-56,-1,-1,0
1523611307181,-720896,66,-56,-1,-1,0
1523611307181,-786432,66,-56,-1,-1,0
1523611307221,-786432,66,-56,-1,-1,0
1523611307221,-786432,66,-56,-1,-1,0
1523611307221,-786432,66,-56,-1,-1,0
1523611307221,-786432,66,-56,-1,-1,0
1523611307221,-786432,66,-56,-1,-1,0
1523611307261,-720896,66,-56,-1,-1,0
1523611307261,-720896,66,-56,-1,-1,0
1523611307261,-786432,66,-56,-1,-1,0
1523611307261,-720896,66,-56,-1,-1,0
1523611307261,-720896,66,-56,-1,-1,0
1523611307301,-786432,66,-56,-1,-1,0
1523611307301,-786432,66,-56,-1,-1,0
1523611307301,-786432,66,-56,-1,-1,0
1523611307301,-720896,66,-56,-1,-1,0
1523611307301,-720896,66,-56,-1,-1,0
1523611307341,-786432,66,-56,-1,-1,0
1523611307341,-786432,66,-56,-1,-1,0
1523611307341,-720896,66,-56,-1,-1,0
1523611307341,-786432,66,-56,-1,-1,0
1523611307341,-851968,66,-56,-1,-1,0
1523611307381,-983040,66,-56,-1,-1,0
1523611307381,-1048576,66,-56,-1,-1,0
1523611307381,-1048576,66,-56,-1,-1,0
1523611307381,-917504,66,-56,-1,-1,0
1523611307381,-786432,66,-56,-1,-1,0
1523611307421,-524288,66,-56,-1,-1,0
1523611307421,-393216,66,-56,-1,-1,0
1523611307421,-458752,66,-56,-1,-1,0
1523611307421,-589824,66,-56,-1,-1,0
1523611307421,-720896,66,-56,-1,-1,0
1523611307461,-655360,66,-56,-1,-1,0
1523611307461,-655360,66,-56,-1,-1,0
1523611307461,-655360,66,-56,-1,-1,0
1523611307461,-655360,66,-56,-1,-1,0
1523611307461,-655360,66,-56,-1,-1,0
1523611307502,-655360,66,-56,-1,-1,0
1523611307502,-589824,66,-56,-1,-1,0
1523611307502,-589824,66,-56,-1,-1,0
1523611307502,-655360,66,-56,-1,-1,0
1523611307502,-262144,66,-56,-1,-1,0
1523611307541,1245184,66,-56,-1,-1,0
1523611307541,4980736,66,-56,-1,-1,0
1523611307541,10027008,66,-56,-1,-1,0
1523611307541,11141120,66,-56,-1,-1,0
1523611307541,6029312,66,-56,-1,-1,0
1523611307581,458752,66,-56,-1,-1,0
1523611307581,-851968,66,-56,-1,-1,0
1523611307581,-393216,66,-56,-1,-1,0
1523611307581,-262144,66,-56,-1,-1,0
1523611307581,-327680,66,-56,-1,-1,0
1523611307621,-327680,66,-56,-1,-1,0
1523611307621,-196608,66,-56,-1,-1,0
1523611307621,-196608,66,-56,-1,-1,0
1523611307621,-131072,66,-56,-1,-1,0
1523611307621,-65536,66,-56,-1,-1,0
1523611307661,0,66,-56,-1,-1,0
1523611307661,65536,66,-56,-1,-1,0
1523611307661,196608,66,-56,-1,-1,0
1523611307661,327680,66,-56,-1,-1,0
1523611307661,458752,66,-56,-1,-1,0
1523611307701,589824,66,-56,-1,-1,0
1523611307701,720896,66,-56,-1,-1,0
1523611307701,917504,66,-56,-1,-1,0
1523611307701,1114112,66,-56,-1,-1,0
1523611307701,1376256,66,-56,-1,-1,0
1523611307741,1638400,66,-56,-1,-1,0
1523611307741,2031616,66,-56,-1,-1,0
1523611307741,2359296,66,-56,-1,-1,0
1523611307741,2752512,66,-56,-1,-1,0
1523611307741,3014656,66,-56,-1,-1,0
1523611307781,3211264,66,-56,-1,-1,0
1523611307781,3342336,66,-56,-1,-1,0
1523611307781,3276800,66,-56,-1,-1,0
1523611307781,3080192,66,-56,-1,-1,0
1523611307781,2621440,66,-56,-1,-1,0
1523611307821,1966080,66,-56,-1,-1,0
1523611307821,1310720,66,-56,-1,-1,0
1523611307821,720896,66,-56,-1,-1,0
1523611307821,327680,66,-56,-1,-1,0
1523611307821,0,66,-56,-1,-1,0
1523611307861,-196608,66,-56,-1,-1,0
1523611307861,-393216,66,-56,-1,-1,0
1523611307861,-393216,66,-56,-1,-1,0
1523611307861,-458752,66,-56,-1,-1,0
1523611307861,-458752,66,-56,-1,-1,0
1523611307901,-524288,66,-56,-1,-1,0
1523611307901,-524288,66,-56,-1,-1,0
1523611307901,-524288,66,-56,-1,-1,0
1523611307901,-524288,66,-56,-1,-1,0
1523611307901,-524288,66,-56,-1,-1,0
1523611307941,-524288,66,-56,-1,-1,0
1523611307941,-524288,66,-56,-1,-1,0
1523611307941,-524288,66,-56,-1,-1,0
1523611307941,-524288,66,-56,-1,-1,0
1523611307941,-524288,66,-56,-1,-1,0
1523611307981,-458752,66,-56,-1,-1,0
1523611307981,-458752,66,-56,-1,-1,0
1523611307981,-458752,66,-56,-1,-1,0
1523611307981,-524288,66,-56,-1,-1,0
1523611307981,-589824,66,-56,-1,-1,0
1523611308021,-589824,66,-56,-1,-1,0
1523611308021,-589824,66,-56,-1,-1,0
1523611308021,-589824,66,-56,-1,-1,0
1523611308021,-589824,66,-56,-1,-1,0
1523611308021,-655360,66,-56,-1,-1,0
1523611308061,-655360,66,-56,-1,-1,0
1523611308061,-720896,66,-56,-1,-1,0
1523611308061,-720896,66,-56,-1,-1,0
1523611308061,-786432,66,-56,-1,-1,0
1523611308061,-786432,66,-56,-1,-1,0
1523611308101,-786432,66,-56,-1,-1,0
1523611308101,-786432,66,-56,-1,-1,0
1523611308101,-851968,66,-56,-1,-1,0
1523611308101,-851968,66,-56,-1,-1,0
1523611308101,-851968,66,-56,-1,-1,0
1523611308142,-851968,66,-56,-1,-1,0
1523611308142,-851968,66,-56,-1,-1,0
1523611308142,-851968,66,-56,-1,-1,0
1523611308142,-851968,66,-56,-1,-1,0
1523611308142,-851968,66,-56,-1,-1,0
1523611308181,-851968,66,-56,-1,-1,0
1523611308181,-851968,66,-56,-1,-1,0
1523611308181,-917504,66,-56,-1,-1,0
1523611308181,-851968,66,-56,-1,-1,0
1523611308181,-851968,66,-56,-1,-1,0
1523611308221,-851968,66,-56,-1,-1,0
1523611308221,-851968,66,-56,-1,-1,0
1523611308221,-851968,66,-56,-1,-1,0
1523611308221,-917504,66,-56,-1,-1,0
1523611308221,-917504,66,-56,-1,-1,0
1523611308261,-983040,66,-56,-1,-1,0
1523611308261,-1048576,66,-56,-1,-1,0
1523611308261,-1114112,66,-56,-1,-1,0
1523611308261,-1179648,66,-56,-1,-1,0
1523611308261,-1114112,66,-56,-1,-1,0
1523611308301,-1048576,66,-56,-1,-1,0
1523611308301,-851968,66,-56,-1,-1,0
1523611308301,-589824,66,-56,-1,-1,0
1523611308301,-458752,66,-56,-1,-1,0
1523611308301,-524288,66,-56,-1,-1,0
1523611308341,-655360,66,-56,-1,-1,0
1523611308341,-786432,66,-56,-1,-1,0
1523611308341,-786432,66,-56,-1,-1,0
1523611308341,-786432,66,-56,-1,-1,0
1523611308341,-786432,66,-56,-1,-1,0
1523611308381,-851968,66,-56,-1,-1,0
1523611308381,-786432,66,-56,-1,-1,0
1523611308381,-786432,66,-56,-1,-1,0
1523611308381,-786432,66,-56,-1,-1,0
1523611308381,-720896,66,-56,-1,-1,0
1523611308421,-720896,66,-56,-1,-1,0
1523611308421,-458752,66,-56,-1,-1,0
1523611308421,851968,66,-56,-1,-1,0
1523611308421,4390912,66,-56,-1,-1,0
1523611308421,9371648,66,-56,-1,-1,0
1523611308461,10747904,66,-56,-1,-1,0
1523611308461,5963776,66,-56,-1,-1,0
1523611308461,262144,66,-56,-1,-1,0
1523611308461,-1179648,66,-56,-1,-1,0
1523611308461,-655360,66,-56,-1,-1,0
1523611308501,-458752,66,-56,-1,-1,0
1523611308501,-524288,66,-56,-1,-1,0
1523611308501,-524288,66,-56,-1,-1,0
1523611308501,-458752,66,-56,-1,-1,0
1523611308501,-458752,66,-56,-1,-1,0
1523611308541,-393216,66,-56,-1,-1,0
1523611308541,-262144,66,-56,-1,-1,0
1523611308541,-196608,66,-56,-1,-1,0
1523611308541,-131072,66,-56,-1,-1,0
1523611308541,-65536,66,-56,-1,-1,0
1523611308581,0,66,-56,-1,-1,0
1523611308581,131072,66,-56,-1,-1,0
1523611308581,327680,66,-56,-1,-1,0
1523611308581,458752,66,-56,-1,-1,0
1523611308581,655360,66,-56,-1,-1,0
1523611308621,851968,66,-56,-1,-1,0
1523611308621,1114112,66,-56,-1,-1,0
1523611308621,1376256,66,-56,-1,-1,0
1523611308621,1638400,66,-56,-1,-1,0
1523611308621,1966080,66,-56,-1,-1,0
1523611308661,2359296,66,-56,-1,-1,0
1523611308661,2686976,66,-56,-1,-1,0
1523611308661,2883584,66,-56,-1,-1,0
1523611308661,2949120,66,-56,-1,-1,0
1523611308661,3014656,66,-56,-1,-1,0
1523611308703,2818048,66,-56,-1,-1,0
1523611308703,2424832,66,-56,-1,-1,0
1523611308703,1835008,66,-56,-1,-1,0
1523611308703,1245184,66,-56,-1,-1,0
1523611308703,655360,66,-56,-1,-1,0
1523611308741,196608,66,-56,-1,-1,0
1523611308741,0,66,-56,-1,-1,0
1523611308741,-196608,66,-56,-1,-1,0
1523611308741,-327680,66,-56,-1,-1,0
1523611308741,-393216,66,-56,-1,-1,0
1523611308783,-393216,66,-56,-1,-1,0
1523611308783,-458752,66,-56,-1,-1,0
1523611308783,-458752,66,-56,-1,-1,0
1523611308783,-458752,66,-56,-1,-1,0
1523611308783,-458752,66,-56,-1,-1,0
1523611308821,-393216,66,-56,-1,-1,0
1523611308821,-393216,66,-56,-1,-1,0
1523611308821,-458752,66,-56,-1,-1,0
1523611308821,-458752,66,-56,-1,-1,0
1523611308821,-458752,66,-56,-1,-1,0
1523611308861,-458752,66,-56,-1,-1,0
1523611308861,-458752,66,-56,-1,-1,0
1523611308861,-458752,66,-56,-1,-1,0
1523611308861,-458752,66,-56,-1,-1,0
1523611308861,-524288,66,-56,-1,-1,0
1523611308901,-524288,66,-56,-1,-1,0
1523611308901,-458752,66,-56,-1,-1,0
1523611308901,-524288,66,-56,-1,-1,0
1523611308901,-589824,66,-56,-1,-1,0
1523611308901,-655360,66,-56,-1,-1,0
1523611308941,-655360,66,-56,-1,-1,0
1523611308941,-655360,66,-56,-1,-1,0
1523611308941,-655360,66,-56,-1,-1,0
1523611308941,-720896,66,-56,-1,-1,0
1523611308941,-720896,66,-56,-1,-1,0
1523611308981,-720896,66,-56,-1,-1,0
1523611308981,-786432,66,-56,-1,-1,0
1523611308981,-917504,66,-56,-1,-1,0
1523611308981,-917504,66,-56,-1,-1,0
1523611308981,-917504,66,-56,-1,-1,0
1523611309021,-917504,66,-56,-1,-1,0
1523611309021,-983040,66,-56,-1,-1,0
1523611309021,-983040,66,-56,-1,-1,0
1523611309021,-983040,66,-56,-1,-1,0
1523611309021,-983040,66,-56,-1,-1,0
1523611309061,-917504,66,-56,-1,-1,0
1523611309061,-983040,66,-56,-1,-1,0
1523611309061,-983040,66,-56,-1,-1,0
1523611309061,-1048576,66,-56,-1,-1,0
1523611309061,-983040,66,-56,-1,-1,0
1523611309101,-983040,66,-56,-1,-1,0
1523611309101,-1048576,66,-56,-1,-1,0
1523611309101,-1114112,66,-56,-1,-1,0
1523611309101,-1114112,66,-56,-1,-1,0
1523611309101,-1114112,66,-56,-1,-1,0
1523611309141,-1048576,66,-56,-1,-1,0
1523611309141,-983040,66,-56,-1,-1,0
1523611309141,-983040,66,-56,-1,-1,0
1523611309141,-1048576,66,-56,-1,-1,0
1523611309141,-1114112,66,-56,-1,-1,0
1523611309181,-1245184,66,-56,-1,-1,0
1523611309181,-1376256,66,-56,-1,-1,0
1523611309181,-1376256,66,-56,-1,-1,0
1523611309181,-1310720,66,-56,-1,-1,0
1523611309181,-1114112,66,-56,-1,-1,0
1523611309221,-851968,66,-56,-1,-1,0
1523611309221,-720896,66,-56,-1,-1,0
1523611309221,-786432,66,-56,-1,-1,0
1523611309221,-917504,66,-56,-1,-1,0
1523611309221,-983040,66,-56,-1,-1,0
1523611309261,-1048576,66,-56,-1,-1,0
1523611309261,-1048576,66,-56,-1,-1,0
1523611309261,-1048576,66,-56,-1,-1,0
1523611309261,-1114112,66,-56,-1,-1,0
1523611309261,-1114112,66,-56,-1,-1,0
1523611309301,-1114112,66,-56,-1,-1,0
1523611309301,-1114112,66,-56,-1,-1,0
1523611309301,-1048576,66,-56,-1,-1,0
1523611309301,-983040,66,-56,-1,-1,0
1523611309301,-655360,66,-56,-1,-1,0
1523611309341,524288,66,-56,-1,-1,0
1523611309341,3735552,66,-56,-1,-1,0
1523611309341,8716288,66,-56,-1,-1,0
1523611309341,10616832,66,-56,-1,-1,0
1523611309341,6291456,66,-56,-1,-1,0
1523611309381,524288,66,-56,-1,-1,0
1523611309381,-1310720,66,-56,-1,-1,0
1523611309381,-786432,66,-56,-1,-1,0
1523611309381,-589824,66,-56,-1,-1,0
1523611309381,-720896,66,-56,-1,-1,0
1523611309423,-720896,66,-56,-1,-1,0
1523611309423,-655360,66,-56,-1,-1,0
1523611309423,-589824,66,-56,-1,-1,0
1523611309423,-524288,66,-56,-1,-1,0
1523611309423,-458752,66,-56,-1,-1,0
1523611309461,-393216,66,-56,-1,-1,0
1523611309461,-262144,66,-56,-1,-1,0
1523611309461,-196608,66,-56,-1,-1,0
1523611309461,-65536,66,-56,-1,-1,0
1523611309461,65536,66,-56,-1,-1,0
1523611309501,262144,66,-56,-1,-1,0
1523611309501,393216,66,-56,-1,-1,0
1523611309501,589824,66,-56,-1,-1,0
1523611309501,786432,66,-56,-1,-1,0
1523611309501,983040,66,-56,-1,-1,0
1523611309541,1245184,66,-56,-1,-1,0
1523611309541,1572864,66,-56,-1,-1,0
1523611309541,1966080,66,-56,-1,-1,0
1523611309541,2228224,66,-56,-1,-1,0
1523611309541,2490368,66,-56,-1,-1,0
1523611309581,2752512,66,-56,-1,-1,0
1523611309581,2818048,66,-56,-1,-1,0
1523611309581,2818048,66,-56,-1,-1,0
1523611309581,2686976,66,-56,-1,-1,0
1523611309581,2293760,66,-56,-1,-1,0
1523611309621,1769472,66,-56,-1,-1,0
1523611309621,1114112,66,-56,-1,-1,0
1523611309621,524288,66,-56,-1,-1,0
1523611309621,65536,66,-56,-1,-1,0
1523611309621,-196608,66,-56,-1,-1,0
1523611309663,-393216,66,-56,-1,-1,0
1523611309663,-524288,66,-56,-1,-1,0
1523611309663,-589824,66,-56,-1,-1,0
1523611309663,-655360,66,-56,-1,-1,0
1523611309663,-786432,66,-56,-1,-1,0
1523611309701,-786432,66,-56,-1,-1,0
1523611309701,-786432,66,-56,-1,-1,0
1523611309701,-720896,66,-56,-1,-1,0
1523611309701,-720896,66,-56,-1,-1,0
1523611309701,-786432,66,-56,-1,-1,0
1523611309741,-786432,66,-56,-1,-1,0
1523611309741,-786432,66,-56,-1,-1,0
1523611309741,-720896,66,-56,-1,-1,0
1523611309741,-720896,66,-56,-1,-1,0
1523611309741,-851968,66,-56,-1,-1,0
1523611309781,-917504,66,-56,-1,-1,0
1523611309781,-851968,66,-56,-1,-1,0
1523611309781,-851968,66,-56,-1,-1,0
1523611309781,-851968,66,-56,-1,-1,0
1523611309781,-786432,66,-56,-1,-1,0
1523611309821,-786432,66,-56,-1,-1,0
1523611309821,-786432,66,-56,-1,-1,0
1523611309821,-786432,66,-56,-1,-1,0
1523611309821,-851968,66,-56,-1,-1,0
1523611309821,-917504,66,-56,-1,-1,0
1523611309861,-917504,66,-56,-1,-1,0
1523611309861,-917504,66,-56,-1,-1,0
1523611309861,-851968,66,-56,-1,-1,0
1523611309861,-851968,66,-56,-1,-1,0
1523611309861,-917504,66,-56,-1,-1,0
1523611309903,-917504,66,-56,-1,-1,0
1523611309903,-917504,66,-56,-1,-1,0
1523611309903,-917504,66,-56,-1,-1,0
1523611309903,-851968,66,-56,-1,-1,0
1523611309903,-917504,66,-56,-1,-1,0
1523611309941,-917504,66,-56,-1,-1,0
1523611309941,-983040,66,-56,-1,-1,0
1523611309941,-983040,66,-56,-1,-1,0
1523611309941,-983040,66,-56,-1,-1,0
1523611309941,-983040,66,-56,-1,-1,0
1523611309981,-983040,66,-56,-1,-1,0
1523611309981,-1048576,66,-56,-1,-1,0
1523611309981,-1048576,66,-56,-1,-1,0
1523611309981,-983040,66,-56,-1,-1,0
1523611309981,-917504,66,-56,-1,-1,0
1523611310021,-983040,66,-56,-1,-1,0
1523611310021,-983040,66,-56,-1,-1,0
1523611310021,-983040,66,-56,-1,-1,0
1523611310021,-1048576,66,-56,-1,-1,0
1523611310021,-1114112,66,-56,-1,-1,0
1523611310063,-1179648,66,-56,-1,-1,0
1523611310063,-1245184,66,-56,-1,-1,0
1523611310063,-1114112,66,-56,-1,-1,0
1523611310063,-1048576,66,-56,-1,-1,0
1523611310063,-851968,66,-56,-1,-1,0
1523611310101,-589824,66,-56,-1,-1,0
1523611310101,-524288,66,-56,-1,-1,0
1523611310101,-655360,66,-56,-1,-1,0
1523611310101,-786432,66,-56,-1,-1,0
1523611310101,-851968,66,-56,-1,-1,0
1523611310141,-851968,66,-56,-1,-1,0
1523611310141,-851968,66,-56,-1,-1,0
1523611310141,-917504,66,-56,-1,-1,0
1523611310141,-1048576,66,-56,-1,-1,0
1523611310141,-1048576,66,-56,-1,-1,0
1523611310181,-917504,66,-56,-1,-1,0
1523611310181,-851968,66,-56,-1,-1,0
1523611310181,-851968,66,-56,-1,-1,0
1523611310181,-720896,66,-56,-1,-1,0
1523611310181,0,66,-56,-1,-1,0
1523611310221,2359296,66,-56,-1,-1,0
1523611310221,6881280,66,-56,-1,-1,0
1523611310221,10354688,66,-56,-1,-1,0
1523611310221,8060928,66,-56,-1,-1,0
1523611310221,2162688,66,-56,-1,-1,0
1523611310261,-1114112,66,-56,-1,-1,0
1523611310261,-917504,66,-56,-1,-1,0
1523611310261,-524288,66,-56,-1,-1,0
1523611310261,-524288,66,-56,-1,-1,0
1523611310261,-524288,66,-56,-1,-1,0
1523611310301,-524288,66,-56,-1,-1,0
1523611310301,-458752,66,-56,-1,-1,0
1523611310301,-393216,66,-56,-1,-1,0
1523611310301,-327680,66,-56,-1,-1,0
1523611310301,-262144,66,-56,-1,-1,0
1523611310341,-131072,66,-56,-1,-1,0
1523611310341,-65536,66,-56,-1,-1,0
1523611310341,0,66,-56,-1,-1,0
1523611310341,0,66,-56,-1,-1,0
1523611310341,131072,66,-56,-1,-1,0
1523611310381,327680,66,-56,-1,-1,0
1523611310381,524288,66,-56,-1,-1,0
