milliseconds, ECG, ECG HR, PPG, PPG HR, SpO2, PI
0,-917504,93,-56,-1,-1,0
33,-917504,93,-56,-1,-1,0
66,7667712,93,-56,-1,-1,0
100,-786432,93,-56,-1,-1,0
133,-720896,93,-56,-1,-1,0
166,-262144,93,-56,-1,-1,0
200,851968,93,-56,-1,-1,0
233,1966080,93,-56,-1,-1,0
266,65536,93,-56,-1,-1,0
300,-655360,93,-56,-1,-1,0
333,-655360,93,-56,-1,-1,0
366,-589824,93,-56,-1,-1,0
400,-655360,93,-56,-1,-1,0
433,-720896,93,-56,-1,-1,0
466,-720896,95,-56,-1,-1,0
500,-851968,95,-56,-1,-1,0
533,-917504,95,-56,-1,-1,0
566,5373952,95,-56,-1,-1,0
600,-786432,95,-56,-1,-1,0
633,-655360,95,-56,-1,-1,0
666,-262144,95,-56,-1,-1,0
700,589824,95,-56,-1,-1,0
733,2031616,95,-56,-1,-1,0
766,655360,95,-56,-1,-1,0
800,-589824,95,-56,-1,-1,0
833,-524288,95,-56,-1,-1,0
866,-524288,95,-56,-1,-1,0
900,-524288,95,-56,-1,-1,0
933,-655360,95,-56,-1,-1,0
966,-786432,95,-56,-1,-1,0
1000,-524288,96,-56,-1,-1,0
1033,-786432,96,-56,-1,-1,0
1066,-262144,96,-56,-1,-1,0
1100,1572864,96,-56,-1,-1,0
1133,-720896,96,-56,-1,-1,0
1166,-393216,96,-56,-1,-1,0
1200,196608,96,-56,-1,-1,0
1233,1835008,96,-56,-1,-1,0
1266,1572864,96,-56,-1,-1,0
1300,-131072,96,-56,-1,-1,0
1333,-589824,96,-56,-1,-1,0
1366,-589824,96,-56,-1,-1,0
1400,-655360,96,-56,-1,-1,0
1433,-589824,96,-56,-1,-1,0
1466,-720896,96,-56,-1,-1,0
1500,-655360,96,-56,-1,-1,0
1533,-786432,96,-56,-1,-1,0
1566,-983040,96,-56,-1,-1,0
1600,5242880,96,-56,-1,-1,0
1633,-1376256,96,-56,-1,-1,0
1666,-851968,96,-56,-1,-1,0
1700,-524288,96,-56,-1,-1,0
1733,458752,96,-56,-1,-1,0
1766,1966080,96,-56,-1,-1,0
1800,458752,96,-56,-1,-1,0
1833,-720896,96,-56,-1,-1,0
1866,-786432,96,-56,-1,-1,0
1900,-720896,96,-56,-1,-1,0
1933,-720896,96,-56,-1,-1,0
1966,-786432,96,-56,-1,-1,0
2000,-786432,96,-56,-1,-1,0
2033,-917504,96,-56,-1,-1,0
2066,-655360,96,-56,-1,-1,0
2100,-917504,96,-56,-1,-1,0
2133,-917504,96,-56,-1,-1,0
2166,5177344,96,-56,-1,-1,0
2200,-589824,96,-56,-1,-1,0
2233,-393216,96,-56,-1,-1,0
2266,65536,96,-56,-1,-1,0
2300,1441792,96,-56,-1,-1,0
2333,2097152,96,-56,-1,-1,0
2366,65536,96,-56,-1,-1,0
2400,-327680,96,-56,-1,-1,0
2433,-524288,96,-56,-1,-1,0
2466,-393216,96,-56,-1,-1,0
2500,-524288,96,-56,-1,-1,0
2533,-524288,96,-56,-1,-1,0
2566,-720896,96,-56,-1,-1,0
2600,-524288,96,-56,-1,-1,0
2633,-655360,96,-56,-1,-1,0
2666,-851968,96,-56,-1,-1,0
2700,6684672,96,-56,-1,-1,0
2733,-589824,96,-56,-1,-1,0
2766,-524288,96,-56,-1,-1,0
2800,0,96,-56,-1,-1,0
2833,1179648,96,-56,-1,-1,0
2866,2031616,96,-56,-1,-1,0
2900,65536,96,-56,-1,-1,0
2933,-655360,96,-56,-1,-1,0
2966,-720896,96,-56,-1,-1,0
3000,-524288,96,-56,-1,-1,0
3033,-786432,96,-56,-1,-1,0
3066,-851968,96,-56,-1,-1,0
3100,-851968,97,-56,-1,-1,0
3133,-720896,97,-56,-1,-1,0
3166,-851968,97,-56,-1,-1,0
3200,1507328,97,-56,-1,-1,0
3233,-1114112,97,-56,-1,-1,0
3266,-655360,97,-56,-1,-1,0
3300,-327680,97,-56,-1,-1,0
3333,524288,97,-56,-1,-1,0
3366,2359296,97,-56,-1,-1,0
3400,1507328,97,-56,-1,-1,0
3433,-262144,97,-56,-1,-1,0
3466,-589824,97,-56,-1,-1,0
3500,-458752,97,-56,-1,-1,0
3533,-655360,97,-56,-1,-1,0
3566,-458752,97,-56,-1,-1,0
3600,-917504,97,-56,-1,-1,0
3633,0,97,-56,-1,-1,0
3666,-917504,97,-56,-1,-1,0
3699,-589824,97,-56,-1,-1,0
3733,6488064,97,-56,-1,-1,0
3766,-917504,97,-56,-1,-1,0
3800,-655360,97,-56,-1,-1,0
3833,-262144,97,-56,-1,-1,0
3866,917504,97,-56,-1,-1,0
3900,1703936,97,-56,-1,-1,0
3933,-65536,97,-56,-1,-1,0
3966,-720896,97,-56,-1,-1,0
4000,-786432,97,-56,-1,-1,0
4033,-589824,97,-56,-1,-1,0
4066,-786432,97,-56,-1,-1,0
4100,-786432,98,-56,-1,-1,0
4133,-458752,98,-56,-1,-1,0
4166,-851968,98,-56,-1,-1,0
4200,-851968,98,-56,-1,-1,0
4233,6946816,98,-56,-1,-1,0
4266,-589824,98,-56,-1,-1,0
4300,-262144,98,-56,-1,-1,0
4333,196608,98,-56,-1,-1,0
4366,1376256,98,-56,-1,-1,0
4400,2555904,98,-56,-1,-1,0
4433,262144,98,-56,-1,-1,0
4466,-196608,98,-56,-1,-1,0
4500,-393216,98,-56,-1,-1,0
4533,-327680,98,-56,-1,-1,0
4566,-393216,98,-56,-1,-1,0
4600,-786432,98,-56,-1,-1,0
4633,-655360,98,-56,-1,-1,0
4666,-851968,98,-56,-1,-1,0
4700,2293760,98,-56,-1,-1,0
4733,-917504,98,-56,-1,-1,0
4766,-1048576,98,-56,-1,-1,0
4800,-524288,98,-56,-1,-1,0
4833,0,98,-56,-1,-1,0
4866,1769472,98,-56,-1,-1,0
4900,393216,98,-56,-1,-1,0
4933,-1179648,98,-56,-1,-1,0
4966,-1376256,98,-56,-1,-1,0
5000,-1245184,98,-56,-1,-1,0
5033,-1114112,98,-56,-1,-1,0
5066,-1245184,99,-56,-1,-1,0
5100,-983040,99,-56,-1,-1,0
5133,-917504,99,-56,-1,-1,0
5166,-1048576,99,-56,-1,-1,0
5200,7340032,99,-56,-1,-1,0
5233,-458752,99,-56,-1,-1,0
5266,-196608,99,-56,-1,-1,0
5300,65536,99,-56,-1,-1,0
5333,1245184,99,-56,-1,-1,0
5366,2162688,99,-56,-1,-1,0
5400,196608,99,-56,-1,-1,0
5433,-458752,99,-56,-1,-1,0
5466,-655360,99,-56,-1,-1,0
5500,-458752,99,-56,-1,-1,0
5533,-655360,99,-56,-1,-1,0
5566,-851968,99,-56,-1,-1,0
5600,-720896,100,-56,-1,-1,0
5633,-917504,100,-56,-1,-1,0
5666,-983040,100,-56,-1,-1,0
5700,7405568,100,-56,-1,-1,0
5733,-720896,100,-56,-1,-1,0
5766,-524288,100,-56,-1,-1,0
5800,-262144,100,-56,-1,-1,0
5833,1114112,100,-56,-1,-1,0
5866,2031616,100,-56,-1,-1,0
5900,327680,100,-56,-1,-1,0
5933,-524288,100,-56,-1,-1,0
5966,-327680,100,-56,-1,-1,0
6000,-393216,100,-56,-1,-1,0
6033,-262144,100,-56,-1,-1,0
6066,-393216,100,-56,-1,-1,0
6100,-589824,99,-56,-1,-1,0
6133,-589824,99,-56,-1,-1,0
6166,-655360,99,-56,-1,-1,0
6200,1507328,99,-56,-1,-1,0
6233,-196608,99,-56,-1,-1,0
6266,-524288,99,-56,-1,-1,0
6300,-196608,99,-56,-1,-1,0
6333,262144,99,-56,-1,-1,0
6366,2031616,99,-56,-1,-1,0
6400,1310720,99,-56,-1,-1,0
6433,-524288,99,-56,-1,-1,0
6466,-786432,99,-56,-1,-1,0
6500,-786432,99,-56,-1,-1,0
6533,-720896,99,-56,-1,-1,0
6566,-1048576,99,-56,-1,-1,0
6600,-1048576,99,-56,-1,-1,0
6633,-983040,98,-56,-1,-1,0
6666,-1114112,98,-56,-1,-1,0
6700,-851968,98,-56,-1,-1,0
6733,1572864,98,-56,-1,-1,0
6766,-917504,98,-56,-1,-1,0
6800,-655360,98,-56,-1,-1,0
6833,0,98,-56,-1,-1,0
6866,1703936,98,-56,-1,-1,0
6899,1572864,98,-56,-1,-1,0
6933,-458752,98,-56,-1,-1,0
6966,-786432,98,-56,-1,-1,0
7000,-786432,98,-56,-1,-1,0
7033,-720896,98,-56,-1,-1,0
7066,-786432,98,-56,-1,-1,0
7100,-720896,98,-56,-1,-1,0
7133,-786432,98,-56,-1,-1,0
7166,-589824,98,-56,-1,-1,0
7200,-786432,98,-56,-1,-1,0
7233,851968,98,-56,-1,-1,0
7266,589824,98,-56,-1,-1,0
7300,-524288,98,-56,-1,-1,0
7333,-196608,98,-56,-1,-1,0
7366,327680,98,-56,-1,-1,0
7399,1900544,98,-56,-1,-1,0
7433,1441792,98,-56,-1,-1,0
7466,-196608,98,-56,-1,-1,0
7500,-458752,98,-56,-1,-1,0
7533,-524288,98,-56,-1,-1,0
7566,-589824,98,-56,-1,-1,0
7600,-524288,98,-56,-1,-1,0
7633,-655360,98,-56,-1,-1,0
7666,-786432,98,-56,-1,-1,0
7700,-655360,98,-56,-1,-1,0
7733,-851968,98,-56,-1,-1,0
7766,-917504,98,-56,-1,-1,0
7800,7208960,98,-56,-1,-1,0
7833,-589824,98,-56,-1,-1,0
7866,-524288,98,-56,-1,-1,0
7899,-131072,98,-56,-1,-1,0
7933,1048576,98,-56,-1,-1,0
7966,2031616,98,-56,-1,-1,0
8000,131072,98,-56,-1,-1,0
8033,-589824,98,-56,-1,-1,0
8066,-589824,98,-56,-1,-1,0
8100,-589824,98,-56,-1,-1,0
8133,-589824,98,-56,-1,-1,0
8166,-655360,98,-56,-1,-1,0
8200,-655360,98,-56,-1,-1,0
8233,-786432,98,-56,-1,-1,0
8266,-589824,98,-56,-1,-1,0
8300,-786432,96,-56,-1,-1,0
8333,-720896,96,-56,-1,-1,0
8366,3538944,96,-56,-1,-1,0
8400,-589824,96,-56,-1,-1,0
8433,-393216,96,-56,-1,-1,0
8466,65536,96,-56,-1,-1,0
8500,1507328,96,-56,-1,-1,0
8533,1835008,96,-56,-1,-1,0
8566,-131072,96,-56,-1,-1,0
8600,-524288,96,-56,-1,-1,0
8633,-524288,96,-56,-1,-1,0
8666,-589824,96,-56,-1,-1,0
8700,-589824,96,-56,-1,-1,0
8733,-655360,96,-56,-1,-1,0
8766,-655360,96,-56,-1,-1,0
8800,-786432,96,-56,-1,-1,0
8833,-524288,96,-56,-1,-1,0
8866,-786432,96,-56,-1,-1,0
8900,-851968,96,-56,-1,-1,0
8933,4063232,96,-56,-1,-1,0
8966,-589824,96,-56,-1,-1,0
9000,-458752,96,-56,-1,-1,0
9033,0,96,-56,-1,-1,0
9066,1376256,96,-56,-1,-1,0
9100,1835008,96,-56,-1,-1,0
9133,-65536,96,-56,-1,-1,0
9166,-589824,96,-56,-1,-1,0
9200,-589824,96,-56,-1,-1,0
9233,-589824,96,-56,-1,-1,0
9266,-655360,96,-56,-1,-1,0
9300,-655360,96,-56,-1,-1,0
9333,-786432,96,-56,-1,-1,0
9366,-917504,96,-56,-1,-1,0
9400,-589824,94,-56,-1,-1,0
9433,-917504,94,-56,-1,-1,0
9466,-917504,94,-56,-1,-1,0
9500,5177344,94,-56,-1,-1,0
9533,-524288,94,-56,-1,-1,0
9566,-327680,94,-56,-1,-1,0
9600,131072,94,-56,-1,-1,0
9633,1507328,94,-56,-1,-1,0
9666,2359296,94,-56,-1,-1,0
9700,327680,94,-56,-1,-1,0
9733,-262144,94,-56,-1,-1,0
9766,-262144,94,-56,-1,-1,0
9800,-327680,94,-56,-1,-1,0
9833,-458752,94,-56,-1,-1,0
9866,-589824,94,-56,-1,-1,0
9900,-720896,94,-56,-1,-1,0
9933,-589824,96,-56,-1,-1,0
9966,-851968,96,-56,-1,-1,0
10000,0,96,-56,-1,-1,0
10033,131072,96,-56,-1,-1,0
10066,-655360,96,-56,-1,-1,0
10100,-327680,96,-56,-1,-1,0
10133,327680,96,-56,-1,-1,0
10166,2031616,96,-56,-1,-1,0
10200,1441792,96,-56,-1,-1,0
10233,-458752,96,-56,-1,-1,0
10266,-720896,96,-56,-1,-1,0
10300,-786432,96,-56,-1,-1,0
10333,-720896,96,-56,-1,-1,0
10366,-786432,96,-56,-1,-1,0
10400,-786432,96,-56,-1,-1,0
10433,-917504,96,-56,-1,-1,0
10466,-589824,95,-56,-1,-1,0
10500,-851968,95,-56,-1,-1,0
10533,-720896,95,-56,-1,-1,0
10566,3145728,95,-56,-1,-1,0
10600,-655360,95,-56,-1,-1,0
10633,-458752,95,-56,-1,-1,0
10666,65536,95,-56,-1,-1,0
10700,1507328,95,-56,-1,-1,0
10733,1703936,95,-56,-1,-1,0
10766,-131072,95,-56,-1,-1,0
10800,-589824,95,-56,-1,-1,0
10833,-589824,95,-56,-1,-1,0
10866,-524288,95,-56,-1,-1,0
10900,-589824,95,-56,-1,-1,0
10933,-655360,95,-56,-1,-1,0
10966,-851968,95,-56,-1,-1,0
11000,-524288,94,-56,-1,-1,0
11033,-917504,94,-56,-1,-1,0
11066,-917504,94,-56,-1,-1,0
11100,4128768,94,-56,-1,-1,0
11133,-524288,94,-56,-1,-1,0
11166,-458752,94,-56,-1,-1,0
11200,0,94,-56,-1,-1,0
11233,1310720,94,-56,-1,-1,0
11266,1835008,94,-56,-1,-1,0
11300,0,94,-56,-1,-1,0
11333,-589824,94,-56,-1,-1,0
11366,-655360,94,-56,-1,-1,0
11400,-786432,94,-56,-1,-1,0
11433,-851968,94,-56,-1,-1,0
11466,-720896,94,-56,-1,-1,0
11500,-786432,94,-56,-1,-1,0
11533,-524288,94,-56,-1,-1,0
11566,-786432,94,-56,-1,-1,0
11600,-851968,94,-56,-1,-1,0
11633,6029312,94,-56,-1,-1,0
11666,-589824,94,-56,-1,-1,0
11700,-458752,94,-56,-1,-1,0
11733,0,94,-56,-1,-1,0
11766,1179648,94,-56,-1,-1,0
11800,1900544,94,-56,-1,-1,0
11833,65536,94,-56,-1,-1,0
11866,-524288,94,-56,-1,-1,0
11900,-524288,94,-56,-1,-1,0
11933,-524288,94,-56,-1,-1,0
11966,-589824,94,-56,-1,-1,0
12000,-589824,94,-56,-1,-1,0
12033,-786432,94,-56,-1,-1,0
12066,-524288,93,-56,-1,-1,0
12100,-851968,93,-56,-1,-1,0
12133,-917504,93,-56,-1,-1,0
12166,6094848,93,-56,-1,-1,0
12200,-589824,93,-56,-1,-1,0
12233,-327680,93,-56,-1,-1,0
12266,131072,93,-56,-1,-1,0
12300,1376256,93,-56,-1,-1,0
12333,2228224,93,-56,-1,-1,0
12366,262144,93,-56,-1,-1,0
12400,-524288,93,-56,-1,-1,0
12433,-327680,93,-56,-1,-1,0
12466,-458752,93,-56,-1,-1,0
12500,-589824,93,-56,-1,-1,0
12533,-589824,93,-56,-1,-1,0
12566,-851968,93,-56,-1,-1,0
12600,-589824,93,-56,-1,-1,0
12633,-983040,93,-56,-1,-1,0
12666,393216,93,-56,-1,-1,0
12700,-327680,93,-56,-1,-1,0
12733,-524288,93,-56,-1,-1,0
12766,-196608,93,-56,-1,-1,0
12800,458752,93,-56,-1,-1,0
12833,2228224,93,-56,-1,-1,0
12866,1310720,93,-56,-1,-1,0
12900,-786432,93,-56,-1,-1,0
12933,-1114112,93,-56,-1,-1,0
12966,-1048576,93,-56,-1,-1,0
13000,-917504,93,-56,-1,-1,0
13033,-983040,93,-56,-1,-1,0
13066,-1114112,93,-56,-1,-1,0
13100,-786432,93,-56,-1,-1,0
13133,-1048576,93,-56,-1,-1,0
13166,-1179648,93,-56,-1,-1,0
13200,5308416,93,-56,-1,-1,0
13233,-786432,93,-56,-1,-1,0
13266,-524288,93,-56,-1,-1,0
13299,0,93,-56,-1,-1,0
13333,1507328,93,-56,-1,-1,0
13366,2097152,93,-56,-1,-1,0
13400,-65536,93,-56,-1,-1,0
13433,-655360,93,-56,-1,-1,0
13466,-720896,93,-56,-1,-1,0
13500,-589824,93,-56,-1,-1,0
13533,-655360,93,-56,-1,-1,0
13566,-720896,93,-56,-1,-1,0
13600,-720896,93,-56,-1,-1,0
13633,-720896,93,-56,-1,-1,0
13666,-917504,93,-56,-1,-1,0
13700,131072,93,-56,-1,-1,0
13733,1048576,93,-56,-1,-1,0
13766,-655360,93,-56,-1,-1,0
13799,-458752,93,-56,-1,-1,0
13833,131072,93,-56,-1,-1,0
13866,1638400,93,-56,-1,-1,0
13900,1310720,93,-56,-1,-1,0
13933,-327680,93,-56,-1,-1,0
13966,-589824,93,-56,-1,-1,0
14000,-524288,93,-56,-1,-1,0
14033,-458752,93,-56,-1,-1,0
14066,-458752,93,-56,-1,-1,0
14100,-589824,93,-56,-1,-1,0
14133,-524288,93,-56,-1,-1,0
14166,-786432,93,-56,-1,-1,0
14200,-851968,93,-56,-1,-1,0
14233,7208960,93,-56,-1,-1,0
14266,-589824,93,-56,-1,-1,0
14299,-524288,93,-56,-1,-1,0
14333,-196608,93,-56,-1,-1,0
14366,851968,93,-56,-1,-1,0
14400,2031616,93,-56,-1,-1,0
14433,262144,93,-56,-1,-1,0
14466,-524288,93,-56,-1,-1,0
14500,-589824,93,-56,-1,-1,0
14533,-524288,93,-56,-1,-1,0
14566,-458752,93,-56,-1,-1,0
14600,-524288,93,-56,-1,-1,0
14633,-720896,93,-56,-1,-1,0
14666,-458752,93,-56,-1,-1,0
14700,-786432,93,-56,-1,-1,0
14733,-393216,93,-56,-1,-1,0
14766,2031616,93,-56,-1,-1,0
14799,-589824,93,-56,-1,-1,0
14833,-327680,93,-56,-1,-1,0
14866,196608,93,-56,-1,-1,0
14900,1638400,93,-56,-1,-1,0
14933,1572864,93,-56,-1,-1,0
14966,-131072,93,-56,-1,-1,0
15000,-458752,93,-56,-1,-1,0
15033,-458752,93,-56,-1,-1,0
15066,-393216,93,-56,-1,-1,0
15100,-458752,93,-56,-1,-1,0
15133,-524288,93,-56,-1,-1,0
15166,-393216,94,-56,-1,-1,0
15200,-655360,94,-56,-1,-1,0
15233,-720896,94,-56,-1,-1,0
15266,6946816,94,-56,-1,-1,0
15299,-524288,94,-56,-1,-1,0
15333,-458752,94,-56,-1,-1,0
15366,-131072,94,-56,-1,-1,0
15400,917504,94,-56,-1,-1,0
15433,1900544,94,-56,-1,-1,0
15466,131072,94,-56,-1,-1,0
15500,-589824,94,-56,-1,-1,0
15533,-720896,94,-56,-1,-1,0
15566,-786432,94,-56,-1,-1,0
15600,-786432,94,-56,-1,-1,0
15633,-851968,94,-56,-1,-1,0
15666,-851968,94,-56,-1,-1,0
15700,-917504,94,-56,-1,-1,0
15733,-1048576,94,-56,-1,-1,0
15766,1703936,94,-56,-1,-1,0
15799,-524288,94,-56,-1,-1,0
15833,-786432,94,-56,-1,-1,0
15866,-524288,94,-56,-1,-1,0
15900,262144,94,-56,-1,-1,0
15933,1769472,94,-56,-1,-1,0
15966,851968,94,-56,-1,-1,0
16000,-524288,94,-56,-1,-1,0
16033,-655360,94,-56,-1,-1,0
16066,-655360,94,-56,-1,-1,0
16100,-589824,94,-56,-1,-1,0
16133,-720896,94,-56,-1,-1,0
16166,-655360,95,-56,-1,-1,0
16200,-720896,95,-56,-1,-1,0
16233,-917504,95,-56,-1,-1,0
16266,2818048,95,-56,-1,-1,0
16300,-1376256,95,-56,-1,-1,0
16333,-917504,95,-56,-1,-1,0
16366,-589824,95,-56,-1,-1,0
16400,327680,95,-56,-1,-1,0
16433,1966080,95,-56,-1,-1,0
16466,524288,95,-56,-1,-1,0
16500,-720896,95,-56,-1,-1,0
16533,-786432,95,-56,-1,-1,0
16566,-720896,95,-56,-1,-1,0
16600,-589824,95,-56,-1,-1,0
16633,-655360,95,-56,-1,-1,0
16666,-720896,95,-56,-1,-1,0
16700,-524288,96,-56,-1,-1,0
16733,-786432,96,-56,-1,-1,0
16766,-786432,96,-56,-1,-1,0
16800,4587520,96,-56,-1,-1,0
16833,-458752,96,-56,-1,-1,0
16866,-327680,96,-56,-1,-1,0
16900,196608,96,-56,-1,-1,0
16933,1572864,96,-56,-1,-1,0
16966,1900544,96,-56,-1,-1,0
17000,0,96,-56,-1,-1,0
17033,-458752,96,-56,-1,-1,0
17066,-589824,96,-56,-1,-1,0
17100,-524288,96,-56,-1,-1,0
17133,-458752,96,-56,-1,-1,0
17166,-589824,96,-56,-1,-1,0
17200,-524288,96,-56,-1,-1,0
17233,-786432,96,-56,-1,-1,0
17266,-851968,96,-56,-1,-1,0
17300,7077888,96,-56,-1,-1,0
17333,-655360,96,-56,-1,-1,0
17366,-655360,96,-56,-1,-1,0
17400,-262144,96,-56,-1,-1,0
17433,917504,96,-56,-1,-1,0
17466,1835008,96,-56,-1,-1,0
17500,-65536,96,-56,-1,-1,0
17533,-720896,96,-56,-1,-1,0
17566,-786432,96,-56,-1,-1,0
17600,-720896,96,-56,-1,-1,0
17633,-655360,96,-56,-1,-1,0
17666,-655360,96,-56,-1,-1,0
17700,-851968,96,-56,-1,-1,0
17733,-655360,96,-56,-1,-1,0
17766,-851968,96,-56,-1,-1,0
17800,-458752,96,-56,-1,-1,0
17833,1900544,96,-56,-1,-1,0
17866,-655360,96,-56,-1,-1,0
17900,-458752,96,-56,-1,-1,0
17933,65536,96,-56,-1,-1,0
17966,1572864,96,-56,-1,-1,0
18000,1507328,96,-56,-1,-1,0
18033,-196608,96,-56,-1,-1,0
18066,-458752,96,-56,-1,-1,0
18100,-524288,96,-56,-1,-1,0
18133,-458752,96,-56,-1,-1,0
18166,-458752,96,-56,-1,-1,0
18200,-589824,96,-56,-1,-1,0
18233,-655360,96,-56,-1,-1,0
18266,-524288,96,-56,-1,-1,0
18300,-786432,96,-56,-1,-1,0
18333,-851968,96,-56,-1,-1,0
18366,4390912,96,-56,-1,-1,0
18400,-589824,96,-56,-1,-1,0
18433,-524288,96,-56,-1,-1,0
18466,0,96,-56,-1,-1,0
18500,1310720,96,-56,-1,-1,0
18533,1703936,96,-56,-1,-1,0
18566,-65536,96,-56,-1,-1,0
18600,-524288,96,-56,-1,-1,0
18633,-589824,96,-56,-1,-1,0
18666,-524288,96,-56,-1,-1,0
18700,-458752,96,-56,-1,-1,0
18733,-458752,96,-56,-1,-1,0
18766,-589824,96,-56,-1,-1,0
18800,-720896,96,-56,-1,-1,0
18833,-655360,96,-56,-1,-1,0
18866,-917504,96,-56,-1,-1,0
18900,655360,96,-56,-1,-1,0
18933,458752,96,-56,-1,-1,0
18966,-458752,96,-56,-1,-1,0
19000,-327680,96,-56,-1,-1,0
19033,196608,96,-56,-1,-1,0
19066,1638400,96,-56,-1,-1,0
19100,1245184,96,-56,-1,-1,0
19133,-196608,96,-56,-1,-1,0
19166,-393216,96,-56,-1,-1,0
19200,-458752,96,-56,-1,-1,0
19233,-393216,96,-56,-1,-1,0
19266,-458752,96,-56,-1,-1,0
19300,-524288,96,-56,-1,-1,0
19333,-589824,96,-56,-1,-1,0
19366,-655360,96,-56,-1,-1,0
19400,-524288,96,-56,-1,-1,0
19433,-786432,96,-56,-1,-1,0
19466,589824,96,-56,-1,-1,0
19500,327680,96,-56,-1,-1,0
19533,-655360,96,-56,-1,-1,0
19566,-327680,96,-56,-1,-1,0
19600,131072,96,-56,-1,-1,0
19633,1638400,96,-56,-1,-1,0
19666,1245184,96,-56,-1,-1,0
19700,-458752,96,-56,-1,-1,0
19733,-786432,96,-56,-1,-1,0
19766,-786432,96,-56,-1,-1,0
19800,-655360,96,-56,-1,-1,0
19833,-458752,96,-56,-1,-1,0
19866,-524288,96,-56,-1,-1,0
19900,-458752,96,-56,-1,-1,0
19933,-458752,96,-56,-1,-1,0
19966,-458752,96,-56,-1,-1,0
20000,-786432,96,-56,-1,-1,0
20033,1835008,96,-56,-1,-1,0
20066,-327680,96,-56,-1,-1,0
20100,-458752,96,-56,-1,-1,0
20133,-196608,96,-56,-1,-1,0
20166,524288,96,-56,-1,-1,0
20200,1966080,96,-56,-1,-1,0
20233,1179648,96,-56,-1,-1,0
20266,-196608,96,-56,-1,-1,0
20300,-393216,96,-56,-1,-1,0
20333,-393216,96,-56,-1,-1,0
20366,-393216,96,-56,-1,-1,0
20400,-458752,96,-56,-1,-1,0
20433,-524288,96,-56,-1,-1,0
20466,-655360,96,-56,-1,-1,0
20500,-327680,95,-56,-1,-1,0
20533,-720896,95,-56,-1,-1,0
20566,-524288,95,-56,-1,-1,0
20600,3014656,95,-56,-1,-1,0
20633,-327680,95,-56,-1,-1,0
20666,-262144,95,-56,-1,-1,0
20700,196608,95,-56,-1,-1,0
20733,1638400,95,-56,-1,-1,0
20766,1900544,95,-56,-1,-1,0
20800,-131072,95,-56,-1,-1,0
20833,-589824,95,-56,-1,-1,0
20866,-655360,95,-56,-1,-1,0
20900,-655360,95,-56,-1,-1,0
20933,-786432,95,-56,-1,-1,0
20966,-1114112,95,-56,-1,-1,0
21000,-917504,95,-56,-1,-1,0
21033,-1310720,95,-56,-1,-1,0
21066,-1310720,95,-56,-1,-1,0
21100,5701632,95,-56,-1,-1,0
21133,-1048576,95,-56,-1,-1,0
21166,-720896,95,-56,-1,-1,0
21200,-262144,95,-56,-1,-1,0
21233,1048576,95,-56,-1,-1,0
21266,1835008,95,-56,-1,-1,0
21300,0,95,-56,-1,-1,0
21333,-655360,95,-56,-1,-1,0
21366,-655360,95,-56,-1,-1,0
21400,-589824,95,-56,-1,-1,0
21433,-524288,95,-56,-1,-1,0
21466,-589824,95,-56,-1,-1,0
21500,-786432,95,-56,-1,-1,0
21533,-458752,95,-56,-1,-1,0
21566,-786432,95,-56,-1,-1,0
21600,-851968,95,-56,-1,-1,0
21633,5111808,95,-56,-1,-1,0
21666,-524288,95,-56,-1,-1,0
21700,-393216,95,-56,-1,-1,0
21733,0,95,-56,-1,-1,0
21766,1245184,95,-56,-1,-1,0
21800,1835008,95,-56,-1,-1,0
21833,0,95,-56,-1,-1,0
21866,-524288,95,-56,-1,-1,0
21900,-524288,95,-56,-1,-1,0
21933,-524288,95,-56,-1,-1,0
21966,-524288,95,-56,-1,-1,0
22000,-655360,95,-56,-1,-1,0
22033,-720896,95,-56,-1,-1,0
22066,-655360,95,-56,-1,-1,0
22100,-786432,95,-56,-1,-1,0
22133,2097152,95,-56,-1,-1,0
22166,-393216,95,-56,-1,-1,0
22200,-589824,95,-56,-1,-1,0
22233,-262144,95,-56,-1,-1,0
22266,327680,95,-56,-1,-1,0
22300,1835008,95,-56,-1,-1,0
22333,983040,95,-56,-1,-1,0
22366,-327680,95,-56,-1,-1,0
22400,-524288,95,-56,-1,-1,0
22433,-524288,95,-56,-1,-1,0
22466,-524288,95,-56,-1,-1,0
22500,-589824,95,-56,-1,-1,0
22533,-655360,95,-56,-1,-1,0
22566,-589824,95,-56,-1,-1,0
22600,-655360,95,-56,-1,-1,0
22633,-720896,95,-56,-1,-1,0
22666,5832704,95,-56,-1,-1,0
22700,-589824,95,-56,-1,-1,0
22733,-524288,95,-56,-1,-1,0
22766,-131072,95,-56,-1,-1,0
22800,720896,95,-56,-1,-1,0
22833,1966080,95,-56,-1,-1,0
22866,524288,95,-56,-1,-1,0
22900,-393216,95,-56,-1,-1,0
22933,-524288,95,-56,-1,-1,0
22966,-458752,95,-56,-1,-1,0
23000,-524288,95,-56,-1,-1,0
23033,-524288,95,-56,-1,-1,0
23066,-720896,95,-56,-1,-1,0
23100,-458752,94,-56,-1,-1,0
23133,-720896,94,-56,-1,-1,0
23166,-786432,94,-56,-1,-1,0
23200,6553600,94,-56,-1,-1,0
23233,-458752,94,-56,-1,-1,0
23266,-393216,94,-56,-1,-1,0
23300,0,94,-56,-1,-1,0
23333,1179648,94,-56,-1,-1,0
23366,2162688,94,-56,-1,-1,0
23400,262144,94,-56,-1,-1,0
23433,-458752,94,-56,-1,-1,0
23466,-524288,94,-56,-1,-1,0
23500,-589824,94,-56,-1,-1,0
23533,-655360,94,-56,-1,-1,0
23566,-786432,94,-56,-1,-1,0
23600,-720896,94,-56,-1,-1,0
23633,-917504,94,-56,-1,-1,0
23666,-1114112,94,-56,-1,-1,0
23700,5177344,94,-56,-1,-1,0
23733,-1441792,94,-56,-1,-1,0
23766,-851968,94,-56,-1,-1,0
23800,-458752,94,-56,-1,-1,0
23833,655360,94,-56,-1,-1,0
23866,2097152,94,-56,-1,-1,0
23900,393216,94,-56,-1,-1,0
23933,-655360,94,-56,-1,-1,0
23966,-720896,94,-56,-1,-1,0
24000,-720896,94,-56,-1,-1,0
24033,-655360,94,-56,-1,-1,0
24066,-720896,94,-56,-1,-1,0
24100,-851968,94,-56,-1,-1,0
24133,-720896,94,-56,-1,-1,0
24166,-851968,94,-56,-1,-1,0
24200,-917504,94,-56,-1,-1,0
24233,7143424,94,-56,-1,-1,0
24266,-720896,94,-56,-1,-1,0
24300,-524288,94,-56,-1,-1,0
24333,-131072,94,-56,-1,-1,0
24366,851968,94,-56,-1,-1,0
24400,1966080,94,-56,-1,-1,0
24433,262144,94,-56,-1,-1,0
24466,-589824,94,-56,-1,-1,0
24500,-655360,94,-56,-1,-1,0
24533,-524288,94,-56,-1,-1,0
24566,-524288,94,-56,-1,-1,0
24600,-589824,94,-56,-1,-1,0
24633,-786432,94,-56,-1,-1,0
24666,-458752,94,-56,-1,-1,0
24700,-720896,94,-56,-1,-1,0
24733,-655360,94,-56,-1,-1,0
24766,3276800,94,-56,-1,-1,0
24800,-524288,94,-56,-1,-1,0
24833,-393216,94,-56,-1,-1,0
24866,131072,94,-56,-1,-1,0
24900,1572864,94,-56,-1,-1,0
24933,1703936,94,-56,-1,-1,0
24966,-131072,94,-56,-1,-1,0
25000,-524288,94,-56,-1,-1,0
25033,-589824,94,-56,-1,-1,0
25066,-458752,94,-56,-1,-1,0
25100,-458752,94,-56,-1,-1,0
25133,-589824,94,-56,-1,-1,0
25166,-786432,94,-56,-1,-1,0
25200,-524288,94,-56,-1,-1,0
25233,-851968,94,-56,-1,-1,0
25266,-917504,94,-56,-1,-1,0
25300,4259840,94,-56,-1,-1,0
25333,-589824,94,-56,-1,-1,0
25366,-524288,94,-56,-1,-1,0
25400,-65536,94,-56,-1,-1,0
25433,1310720,94,-56,-1,-1,0
25466,1638400,94,-56,-1,-1,0
25500,-196608,94,-56,-1,-1,0
25533,-655360,94,-56,-1,-1,0
25566,-720896,94,-56,-1,-1,0
25600,-589824,94,-56,-1,-1,0
25633,-524288,94,-56,-1,-1,0
25666,-655360,94,-56,-1,-1,0
25700,-720896,94,-56,-1,-1,0
25733,-655360,94,-56,-1,-1,0
25766,-655360,94,-56,-1,-1,0
25800,-786432,93,-56,-1,-1,0
25833,4259840,93,-56,-1,-1,0
25866,-524288,93,-56,-1,-1,0
25900,-524288,93,-56,-1,-1,0
25933,-196608,93,-56,-1,-1,0
25966,589824,93,-56,-1,-1,0
26000,2031616,93,-56,-1,-1,0
26033,786432,93,-56,-1,-1,0
26066,-458752,93,-56,-1,-1,0
26099,-524288,93,-56,-1,-1,0
26133,-589824,93,-56,-1,-1,0
26166,-524288,93,-56,-1,-1,0
26200,-655360,93,-56,-1,-1,0
26233,-655360,93,-56,-1,-1,0
26266,-655360,93,-56,-1,-1,0
26300,-786432,93,-56,-1,-1,0
26333,-655360,93,-56,-1,-1,0
26366,-851968,93,-56,-1,-1,0
26400,1900544,93,-56,-1,-1,0
26433,-131072,93,-56,-1,-1,0
26466,-589824,93,-56,-1,-1,0
26500,-327680,93,-56,-1,-1,0
26533,327680,93,-56,-1,-1,0
26566,1835008,93,-56,-1,-1,0
26599,1179648,93,-56,-1,-1,0
26633,-327680,93,-56,-1,-1,0
26666,-524288,93,-56,-1,-1,0
26700,-458752,93,-56,-1,-1,0
26733,-393216,93,-56,-1,-1,0
26766,-393216,93,-56,-1,-1,0
26800,-458752,93,-56,-1,-1,0
26833,-655360,93,-56,-1,-1,0
26866,-589824,93,-56,-1,-1,0
26900,-589824,93,-56,-1,-1,0
26933,-720896,93,-56,-1,-1,0
26966,4718592,93,-56,-1,-1,0
27000,-589824,93,-56,-1,-1,0
27033,-524288,93,-56,-1,-1,0
27066,-196608,93,-56,-1,-1,0
27099,589824,93,-56,-1,-1,0
27133,2031616,93,-56,-1,-1,0
27166,720896,93,-56,-1,-1,0
27200,-327680,93,-56,-1,-1,0
27233,-589824,93,-56,-1,-1,0
27266,-524288,93,-56,-1,-1,0
27300,-524288,93,-56,-1,-1,0
27333,-524288,93,-56,-1,-1,0
27366,-655360,93,-56,-1,-1,0
27400,-720896,93,-56,-1,-1,0
27433,-458752,93,-56,-1,-1,0
27466,-851968,93,-56,-1,-1,0
27500,-917504,93,-56,-1,-1,0
27533,5308416,93,-56,-1,-1,0
27566,-655360,93,-56,-1,-1,0
27599,-327680,93,-56,-1,-1,0
27633,196608,93,-56,-1,-1,0
27666,1638400,93,-56,-1,-1,0
27700,2359296,93,-56,-1,-1,0
27733,0,93,-56,-1,-1,0
27766,-786432,93,-56,-1,-1,0
27800,-917504,93,-56,-1,-1,0
27833,-786432,93,-56,-1,-1,0
27866,-851968,93,-56,-1,-1,0
27900,-983040,93,-56,-1,-1,0
27933,-1048576,93,-56,-1,-1,0
27966,-786432,94,-56,-1,-1,0
28000,-1048576,94,-56,-1,-1,0
28033,-720896,94,-56,-1,-1,0
28066,2359296,94,-56,-1,-1,0
28099,-655360,94,-56,-1,-1,0
28133,-393216,94,-56,-1,-1,0
28166,131072,94,-56,-1,-1,0
28200,1703936,94,-56,-1,-1,0
28233,1703936,94,-56,-1,-1,0
28266,-262144,94,-56,-1,-1,0
28300,-589824,94,-56,-1,-1,0
28333,-720896,94,-56,-1,-1,0
28366,-589824,94,-56,-1,-1,0
28400,-589824,94,-56,-1,-1,0
28433,-720896,94,-56,-1,-1,0
28466,-786432,94,-56,-1,-1,0
28500,-589824,94,-56,-1,-1,0
28533,-851968,94,-56,-1,-1,0
28566,1638400,94,-56,-1,-1,0
28599,-65536,94,-56,-1,-1,0
28633,-524288,94,-56,-1,-1,0
28666,-262144,94,-56,-1,-1,0
28700,393216,94,-56,-1,-1,0
28733,2031616,94,-56,-1,-1,0
28766,1179648,94,-56,-1,-1,0
28800,-393216,94,-56,-1,-1,0
28833,-589824,94,-56,-1,-1,0
28866,-655360,94,-56,-1,-1,0
28900,-524288,94,-56,-1,-1,0
28933,-589824,94,-56,-1,-1,0
28966,-655360,94,-56,-1,-1,0
29000,-851968,94,-56,-1,-1,0
29033,-655360,94,-56,-1,-1,0
29066,-983040,94,-56,-1,-1,0
29099,458752,94,-56,-1,-1,0
29133,524288,94,-56,-1,-1,0
29166,-786432,94,-56,-1,-1,0
29200,-524288,94,-56,-1,-1,0
29233,65536,94,-56,-1,-1,0
29266,1638400,94,-56,-1,-1,0
29300,1245184,94,-56,-1,-1,0
29333,-393216,94,-56,-1,-1,0
29366,-655360,94,-56,-1,-1,0
29400,-655360,94,-56,-1,-1,0
29433,-589824,94,-56,-1,-1,0
29466,-589824,94,-56,-1,-1,0
29500,-655360,94,-56,-1,-1,0
29533,-786432,94,-56,-1,-1,0
29566,-458752,94,-56,-1,-1,0
29599,-786432,94,-56,-1,-1,0
29633,-655360,94,-56,-1,-1,0
29666,3604480,94,-56,-1,-1,0
29700,-589824,94,-56,-1,-1,0
29733,-393216,94,-56,-1,-1,0
29766,0,94,-56,-1,-1,0
29800,1507328,94,-56,-1,-1,0
29833,1703936,94,-56,-1,-1,0
29866,-131072,94,-56,-1,-1,0
29900,-589824,94,-56,-1,-1,0
29933,-589824,94,-56,-1,-1,0
29966,-524288,94,-56,-1,-1,0
30000,-524288,94,-56,-1,-1,0
30033,-720896,94,-56,-1,-1,0
30066,-655360,94,-56,-1,-1,0
30099,-655360,94,-56,-1,-1,0
30133,-655360,93,-56,-1,-1,0
30166,-851968,93,-56,-1,-1,0
30200,2949120,93,-56,-1,-1,0
30233,-393216,93,-56,-1,-1,0
30266,-589824,93,-56,-1,-1,0
30300,-262144,93,-56,-1,-1,0
30333,524288,93,-56,-1,-1,0
30366,2031616,93,-56,-1,-1,0
30400,1114112,93,-56,-1,-1,0
30433,-262144,93,-56,-1,-1,0
30466,-458752,93,-56,-1,-1,0
30500,-458752,93,-56,-1,-1,0
30533,-393216,93,-56,-1,-1,0
30566,-458752,93,-56,-1,-1,0
30599,-524288,93,-56,-1,-1,0
30633,-655360,93,-56,-1,-1,0
30666,-393216,93,-56,-1,-1,0
30700,-720896,92,-56,-1,-1,0
30733,-917504,92,-56,-1,-1,0
30766,5898240,92,-56,-1,-1,0
30800,-655360,92,-56,-1,-1,0
30833,-589824,92,-56,-1,-1,0
30866,-65536,92,-56,-1,-1,0
30900,1245184,92,-56,-1,-1,0
30933,1900544,92,-56,-1,-1,0
30966,0,92,-56,-1,-1,0
31000,-589824,92,-56,-1,-1,0
31033,-589824,92,-56,-1,-1,0
31066,-589824,92,-56,-1,-1,0
31099,-524288,92,-56,-1,-1,0
31133,-655360,92,-56,-1,-1,0
31166,-786432,92,-56,-1,-1,0
31200,-589824,92,-56,-1,-1,0
31233,-786432,92,-56,-1,-1,0
31266,-851968,92,-56,-1,-1,0
31300,5177344,92,-56,-1,-1,0
31333,-655360,92,-56,-1,-1,0
31366,-524288,92,-56,-1,-1,0
31400,-196608,92,-56,-1,-1,0
31433,720896,92,-56,-1,-1,0
31466,2162688,92,-56,-1,-1,0
31500,786432,92,-56,-1,-1,0
31533,-327680,92,-56,-1,-1,0
31566,-458752,92,-56,-1,-1,0
31599,-458752,92,-56,-1,-1,0
31633,-524288,92,-56,-1,-1,0
31666,-589824,92,-56,-1,-1,0
31700,-655360,92,-56,-1,-1,0
31733,-458752,92,-56,-1,-1,0
31766,-720896,92,-56,-1,-1,0
31800,-851968,92,-56,-1,-1,0
31833,5636096,92,-56,-1,-1,0
31866,-655360,92,-56,-1,-1,0
31900,-655360,92,-56,-1,-1,0
31933,-262144,92,-56,-1,-1,0
31966,655360,92,-56,-1,-1,0
32000,1966080,92,-56,-1,-1,0
32033,393216,92,-56,-1,-1,0
32066,-589824,92,-56,-1,-1,0
32100,-655360,92,-56,-1,-1,0
32133,-655360,92,-56,-1,-1,0
32166,-655360,92,-56,-1,-1,0
32200,-786432,92,-56,-1,-1,0
32233,-851968,92,-56,-1,-1,0
32266,-655360,92,-56,-1,-1,0
32299,-983040,92,-56,-1,-1,0
32333,-1048576,92,-56,-1,-1,0
32366,6291456,92,-56,-1,-1,0
32400,-589824,92,-56,-1,-1,0
32433,-458752,92,-56,-1,-1,0
32466,0,92,-56,-1,-1,0
32500,1245184,92,-56,-1,-1,0
32533,2359296,92,-56,-1,-1,0
32566,458752,92,-56,-1,-1,0
32600,-262144,92,-56,-1,-1,0
32633,-262144,92,-56,-1,-1,0
32666,-327680,92,-56,-1,-1,0
32700,-458752,92,-56,-1,-1,0
32733,-655360,92,-56,-1,-1,0
32766,-524288,92,-56,-1,-1,0
32800,-1048576,92,-56,-1,-1,0
32833,-1179648,92,-56,-1,-1,0
32866,5570560,92,-56,-1,-1,0
32900,-1310720,92,-56,-1,-1,0
32933,-917504,92,-56,-1,-1,0
32966,-524288,92,-56,-1,-1,0
33000,655360,92,-56,-1,-1,0
33033,1900544,92,-56,-1,-1,0
33066,262144,92,-56,-1,-1,0
33100,-655360,92,-56,-1,-1,0
33133,-655360,92,-56,-1,-1,0
33166,-655360,92,-56,-1,-1,0
33200,-655360,92,-56,-1,-1,0
33233,-655360,92,-56,-1,-1,0
33266,-786432,92,-56,-1,-1,0
33300,-524288,92,-56,-1,-1,0
33333,-851968,92,-56,-1,-1,0
33366,-524288,92,-56,-1,-1,0
33400,2097152,92,-56,-1,-1,0
33433,-589824,92,-56,-1,-1,0
33466,-327680,92,-56,-1,-1,0
33500,196608,92,-56,-1,-1,0
33533,1572864,92,-56,-1,-1,0
33566,1507328,92,-56,-1,-1,0
33600,-196608,92,-56,-1,-1,0
33633,-589824,92,-56,-1,-1,0
33666,-589824,92,-56,-1,-1,0
33700,-524288,92,-56,-1,-1,0
33733,-589824,92,-56,-1,-1,0
33766,-786432,92,-56,-1,-1,0
33800,-589824,93,-56,-1,-1,0
33833,-851968,93,-56,-1,-1,0
33866,-917504,93,-56,-1,-1,0
33900,6488064,93,-56,-1,-1,0
33933,-589824,93,-56,-1,-1,0
33966,-393216,93,-56,-1,-1,0
34000,0,93,-56,-1,-1,0
34033,1114112,93,-56,-1,-1,0
34066,2097152,93,-56,-1,-1,0
34100,262144,93,-56,-1,-1,0
34133,-524288,93,-56,-1,-1,0
34166,-589824,93,-56,-1,-1,0
34200,-589824,93,-56,-1,-1,0
34233,-589824,93,-56,-1,-1,0
34266,-786432,93,-56,-1,-1,0
34300,-720896,93,-56,-1,-1,0
34333,-720896,93,-56,-1,-1,0
34366,-851968,93,-56,-1,-1,0
34400,4194304,93,-56,-1,-1,0
34433,-983040,93,-56,-1,-1,0
34466,-589824,93,-56,-1,-1,0
34500,-131072,93,-56,-1,-1,0
34533,786432,93,-56,-1,-1,0
34566,2424832,93,-56,-1,-1,0
34600,851968,93,-56,-1,-1,0
34633,-458752,93,-56,-1,-1,0
34666,-589824,93,-56,-1,-1,0
34700,-589824,93,-56,-1,-1,0
34733,-524288,93,-56,-1,-1,0
34766,-720896,93,-56,-1,-1,0
34800,-917504,93,-56,-1,-1,0
34833,-720896,94,-56,-1,-1,0
34866,-983040,94,-56,-1,-1,0
34900,-524288,94,-56,-1,-1,0
34933,983040,94,-56,-1,-1,0
34966,-786432,94,-56,-1,-1,0
35000,-524288,94,-56,-1,-1,0
35033,131072,94,-56,-1,-1,0
35066,1966080,94,-56,-1,-1,0
35100,1572864,94,-56,-1,-1,0
35133,-393216,94,-56,-1,-1,0
35166,-786432,94,-56,-1,-1,0
35200,-720896,94,-56,-1,-1,0
35233,-589824,94,-56,-1,-1,0
35266,-589824,94,-56,-1,-1,0
35300,-720896,94,-56,-1,-1,0
35333,-589824,94,-56,-1,-1,0
35366,-851968,94,-56,-1,-1,0
35400,-917504,94,-56,-1,-1,0
35433,7405568,94,-56,-1,-1,0
35466,-720896,94,-56,-1,-1,0
35500,-524288,94,-56,-1,-1,0
35533,-196608,94,-56,-1,-1,0
35566,851968,94,-56,-1,-1,0
35600,2162688,94,-56,-1,-1,0
35633,262144,94,-56,-1,-1,0
35666,-655360,94,-56,-1,-1,0
35700,-786432,94,-56,-1,-1,0
35733,-720896,94,-56,-1,-1,0
35766,-589824,94,-56,-1,-1,0
35800,-655360,94,-56,-1,-1,0
35833,-720896,94,-56,-1,-1,0
35866,-720896,94,-56,-1,-1,0
35900,-655360,94,-56,-1,-1,0
35933,-720896,94,-56,-1,-1,0
35966,4915200,94,-56,-1,-1,0
36000,-393216,94,-56,-1,-1,0
36033,-458752,94,-56,-1,-1,0
36066,-262144,94,-56,-1,-1,0
36100,589824,94,-56,-1,-1,0
36133,2031616,94,-56,-1,-1,0
36166,786432,94,-56,-1,-1,0
36200,-458752,94,-56,-1,-1,0
36233,-589824,94,-56,-1,-1,0
36266,-655360,94,-56,-1,-1,0
36300,-589824,94,-56,-1,-1,0
36333,-589824,94,-56,-1,-1,0
36366,-720896,94,-56,-1,-1,0
36400,-917504,94,-56,-1,-1,0
36433,-655360,94,-56,-1,-1,0
36466,-917504,94,-56,-1,-1,0
36500,-1048576,94,-56,-1,-1,0
36533,5439488,94,-56,-1,-1,0
36566,-720896,94,-56,-1,-1,0
36600,-589824,94,-56,-1,-1,0
36633,-131072,94,-56,-1,-1,0
36666,1179648,94,-56,-1,-1,0
36700,1769472,94,-56,-1,-1,0
36733,-196608,94,-56,-1,-1,0
36766,-589824,94,-56,-1,-1,0
36800,-655360,94,-56,-1,-1,0
36833,-589824,94,-56,-1,-1,0
36866,-524288,94,-56,-1,-1,0
36900,-589824,94,-56,-1,-1,0
36933,-720896,94,-56,-1,-1,0
36966,-851968,94,-56,-1,-1,0
37000,-655360,94,-56,-1,-1,0
37033,-851968,94,-56,-1,-1,0
37066,-917504,93,-56,-1,-1,0
37100,7143424,93,-56,-1,-1,0
37133,-655360,93,-56,-1,-1,0
37166,-589824,93,-56,-1,-1,0
37200,-196608,93,-56,-1,-1,0
37233,786432,93,-56,-1,-1,0
37266,2031616,93,-56,-1,-1,0
37300,393216,93,-56,-1,-1,0
37333,-524288,93,-56,-1,-1,0
37366,-458752,93,-56,-1,-1,0
37400,-458752,93,-56,-1,-1,0
37433,-458752,93,-56,-1,-1,0
37466,-524288,93,-56,-1,-1,0
37500,-524288,93,-56,-1,-1,0
37533,-589824,93,-56,-1,-1,0
37566,-655360,93,-56,-1,-1,0
37600,-458752,93,-56,-1,-1,0
37633,-720896,93,-56,-1,-1,0
37666,655360,93,-56,-1,-1,0
37700,458752,93,-56,-1,-1,0
37733,-458752,93,-56,-1,-1,0
37766,-196608,93,-56,-1,-1,0
37800,393216,93,-56,-1,-1,0
37833,2228224,93,-56,-1,-1,0
37866,1769472,93,-56,-1,-1,0
37900,-196608,93,-56,-1,-1,0
37933,-524288,93,-56,-1,-1,0
37966,-524288,93,-56,-1,-1,0
38000,-524288,93,-56,-1,-1,0
38033,-589824,93,-56,-1,-1,0
38066,-786432,93,-56,-1,-1,0
38100,-917504,93,-56,-1,-1,0
38133,-786432,93,-56,-1,-1,0
38166,-983040,93,-56,-1,-1,0
38200,-983040,93,-56,-1,-1,0
38233,6029312,93,-56,-1,-1,0
38266,-1048576,93,-56,-1,-1,0
38300,-655360,93,-56,-1,-1,0
38333,-327680,93,-56,-1,-1,0
38366,786432,93,-56,-1,-1,0
38400,2424832,93,-56,-1,-1,0
38433,589824,93,-56,-1,-1,0
38466,-589824,93,-56,-1,-1,0
38500,-720896,93,-56,-1,-1,0
38533,-655360,93,-56,-1,-1,0
38566,-589824,93,-56,-1,-1,0
38600,-655360,93,-56,-1,-1,0
38633,-720896,93,-56,-1,-1,0
38666,-851968,93,-56,-1,-1,0
38700,-524288,93,-56,-1,-1,0
38733,-851968,93,-56,-1,-1,0
38766,-917504,93,-56,-1,-1,0
38800,6029312,93,-56,-1,-1,0
38833,-589824,93,-56,-1,-1,0
38866,-458752,93,-56,-1,-1,0
38900,0,93,-56,-1,-1,0
38933,1310720,93,-56,-1,-1,0
38966,2097152,93,-56,-1,-1,0
39000,0,93,-56,-1,-1,0
39033,-524288,93,-56,-1,-1,0
39066,-589824,93,-56,-1,-1,0
39100,-458752,93,-56,-1,-1,0
39133,-393216,93,-56,-1,-1,0
39166,-393216,93,-56,-1,-1,0
39200,-393216,93,-56,-1,-1,0
39233,-589824,93,-56,-1,-1,0
39266,-327680,93,-56,-1,-1,0
39300,-589824,93,-56,-1,-1,0
39333,-720896,93,-56,-1,-1,0
39366,4784128,93,-56,-1,-1,0
39400,-458752,93,-56,-1,-1,0
39433,-327680,93,-56,-1,-1,0
39466,0,93,-56,-1,-1,0
39500,1507328,93,-56,-1,-1,0
39533,2031616,93,-56,-1,-1,0
39566,0,93,-56,-1,-1,0
39600,-524288,93,-56,-1,-1,0
39633,-589824,93,-56,-1,-1,0
39666,-589824,93,-56,-1,-1,0
39700,-655360,93,-56,-1,-1,0
39733,-786432,93,-56,-1,-1,0
39766,-983040,93,-56,-1,-1,0
39800,-786432,93,-56,-1,-1,0
39833,-983040,93,-56,-1,-1,0
39866,-1048576,93,-56,-1,-1,0
39900,5832704,93,-56,-1,-1,0
39933,-983040,93,-56,-1,-1,0
39966,-589824,93,-56,-1,-1,0
40000,-262144,93,-56,-1,-1,0
40033,851968,93,-56,-1,-1,0
40066,2621440,93,-56,-1,-1,0
40100,786432,93,-56,-1,-1,0
40133,-524288,93,-56,-1,-1,0
40166,-655360,93,-56,-1,-1,0
40200,-655360,93,-56,-1,-1,0
40233,-655360,93,-56,-1,-1,0
40266,-786432,93,-56,-1,-1,0
40300,-851968,93,-56,-1,-1,0
40333,-917504,93,-56,-1,-1,0
40366,-589824,93,-56,-1,-1,0
40400,-851968,93,-56,-1,-1,0
40433,-917504,92,-56,-1,-1,0
40466,5963776,92,-56,-1,-1,0
40500,-589824,92,-56,-1,-1,0
40533,-524288,92,-56,-1,-1,0
40566,-65536,92,-56,-1,-1,0
40600,1245184,92,-56,-1,-1,0
40633,1966080,92,-56,-1,-1,0
40666,0,92,-56,-1,-1,0
40700,-589824,92,-56,-1,-1,0
40733,-720896,92,-56,-1,-1,0
40766,-589824,92,-56,-1,-1,0
40800,-589824,92,-56,-1,-1,0
40833,-589824,92,-56,-1,-1,0
40866,-655360,92,-56,-1,-1,0
40900,-851968,92,-56,-1,-1,0
40933,-589824,92,-56,-1,-1,0
40966,-786432,90,-56,-1,-1,0
41000,-851968,90,-56,-1,-1,0
41033,7733248,90,-56,-1,-1,0
41066,-458752,90,-56,-1,-1,0
41100,-458752,90,-56,-1,-1,0
41133,0,90,-56,-1,-1,0
41166,1048576,90,-56,-1,-1,0
41200,2359296,90,-56,-1,-1,0
41233,524288,90,-56,-1,-1,0
41266,-393216,90,-56,-1,-1,0
41300,-458752,90,-56,-1,-1,0
41333,-458752,90,-56,-1,-1,0
41366,-458752,90,-56,-1,-1,0
41400,-589824,90,-56,-1,-1,0
41433,-720896,90,-56,-1,-1,0
41466,-851968,90,-56,-1,-1,0
41500,-589824,90,-56,-1,-1,0
41533,-917504,90,-56,-1,-1,0
41566,-983040,90,-56,-1,-1,0
41600,5832704,90,-56,-1,-1,0
41633,-655360,90,-56,-1,-1,0
41666,-589824,90,-56,-1,-1,0
41700,-131072,90,-56,-1,-1,0
41733,1114112,90,-56,-1,-1,0
41766,1966080,90,-56,-1,-1,0
41800,0,90,-56,-1,-1,0
41833,-524288,90,-56,-1,-1,0
41866,-589824,90,-56,-1,-1,0
41900,-589824,90,-56,-1,-1,0
41933,-589824,90,-56,-1,-1,0
41966,-655360,90,-56,-1,-1,0
42000,-720896,90,-56,-1,-1,0
42033,-851968,90,-56,-1,-1,0
42066,-589824,90,-56,-1,-1,0
42100,-786432,90,-56,-1,-1,0
42133,-851968,89,-56,-1,-1,0
42166,6094848,89,-56,-1,-1,0
42200,-524288,89,-56,-1,-1,0
42233,-458752,89,-56,-1,-1,0
42266,-65536,89,-56,-1,-1,0
42300,1245184,89,-56,-1,-1,0
42333,2162688,89,-56,-1,-1,0
42366,131072,89,-56,-1,-1,0
42400,-458752,89,-56,-1,-1,0
42433,-458752,89,-56,-1,-1,0
42466,-393216,89,-56,-1,-1,0
42500,-393216,89,-56,-1,-1,0
42533,-524288,89,-56,-1,-1,0
42566,-524288,89,-56,-1,-1,0
42600,-720896,89,-56,-1,-1,0
42633,-458752,89,-56,-1,-1,0
42666,-655360,89,-56,-1,-1,0
42700,-720896,89,-56,-1,-1,0
42733,6815744,89,-56,-1,-1,0
42766,-458752,89,-56,-1,-1,0
42800,-524288,89,-56,-1,-1,0
42833,-131072,89,-56,-1,-1,0
42866,983040,89,-56,-1,-1,0
42900,2162688,89,-56,-1,-1,0
42933,393216,89,-56,-1,-1,0
42966,-393216,89,-56,-1,-1,0
43000,-393216,89,-56,-1,-1,0
43033,-458752,89,-56,-1,-1,0
43066,-524288,89,-56,-1,-1,0
43100,-655360,89,-56,-1,-1,0
43133,-720896,89,-56,-1,-1,0
43166,-786432,89,-56,-1,-1,0
43200,-655360,89,-56,-1,-1,0
43233,-917504,89,-56,-1,-1,0
43266,-65536,89,-56,-1,-1,0
43300,786432,89,-56,-1,-1,0
43333,-720896,89,-56,-1,-1,0
43366,-524288,89,-56,-1,-1,0
43400,65536,89,-56,-1,-1,0
43433,1572864,89,-56,-1,-1,0
43466,1376256,89,-56,-1,-1,0
43500,-327680,89,-56,-1,-1,0
43533,-655360,89,-56,-1,-1,0
43566,-655360,89,-56,-1,-1,0
43600,-589824,89,-56,-1,-1,0
43633,-655360,89,-56,-1,-1,0
43666,-720896,89,-56,-1,-1,0
43700,-786432,89,-56,-1,-1,0
43733,-524288,89,-56,-1,-1,0
43766,-786432,89,-56,-1,-1,0
43800,0,89,-56,-1,-1,0
43833,851968,89,-56,-1,-1,0
43866,-524288,89,-56,-1,-1,0
43900,-262144,89,-56,-1,-1,0
43933,327680,89,-56,-1,-1,0
43966,1835008,89,-56,-1,-1,0
44000,1572864,89,-56,-1,-1,0
44033,-131072,89,-56,-1,-1,0
44066,-393216,89,-56,-1,-1,0
44100,-393216,89,-56,-1,-1,0
44133,-458752,89,-56,-1,-1,0
44166,-524288,89,-56,-1,-1,0
44200,-655360,89,-56,-1,-1,0
44233,-589824,89,-56,-1,-1,0
44266,-720896,89,-56,-1,-1,0
44300,-786432,89,-56,-1,-1,0
44333,4587520,89,-56,-1,-1,0
44366,-655360,89,-56,-1,-1,0
44400,-524288,89,-56,-1,-1,0
44433,-196608,89,-56,-1,-1,0
44466,655360,89,-56,-1,-1,0
44500,1966080,89,-56,-1,-1,0
44533,655360,89,-56,-1,-1,0
44566,-327680,89,-56,-1,-1,0
44600,-393216,89,-56,-1,-1,0
44633,-458752,89,-56,-1,-1,0
44666,-393216,89,-56,-1,-1,0
44700,-720896,89,-56,-1,-1,0
44733,-720896,89,-56,-1,-1,0
44766,-655360,89,-56,-1,-1,0
44800,-786432,89,-56,-1,-1,0
44833,1835008,89,-56,-1,-1,0
44866,-851968,89,-56,-1,-1,0
44900,-786432,89,-56,-1,-1,0
44933,-524288,89,-56,-1,-1,0
44966,131072,89,-56,-1,-1,0
45000,1703936,89,-56,-1,-1,0
45033,720896,89,-56,-1,-1,0
45066,-786432,89,-56,-1,-1,0
45100,-786432,89,-56,-1,-1,0
45133,-786432,89,-56,-1,-1,0
45166,-720896,89,-56,-1,-1,0
45200,-786432,89,-56,-1,-1,0
45233,-917504,89,-56,-1,-1,0
45266,-655360,89,-56,-1,-1,0
45300,-917504,89,-56,-1,-1,0
45333,589824,89,-56,-1,-1,0
45366,262144,89,-56,-1,-1,0
45400,-655360,89,-56,-1,-1,0
45433,-393216,89,-56,-1,-1,0
45466,196608,89,-56,-1,-1,0
45500,1769472,89,-56,-1,-1,0
45533,1114112,89,-56,-1,-1,0
45566,-393216,89,-56,-1,-1,0
45600,-589824,89,-56,-1,-1,0
45633,-589824,89,-56,-1,-1,0
45666,-589824,89,-56,-1,-1,0
45700,-589824,89,-56,-1,-1,0
45733,-655360,90,-56,-1,-1,0
45766,-786432,90,-56,-1,-1,0
45800,-917504,90,-56,-1,-1,0
45833,3932160,90,-56,-1,-1,0
45866,-655360,90,-56,-1,-1,0
45900,-655360,90,-56,-1,-1,0
45933,-393216,90,-56,-1,-1,0
45966,393216,90,-56,-1,-1,0
46000,1769472,90,-56,-1,-1,0
46033,524288,90,-56,-1,-1,0
46066,-589824,90,-56,-1,-1,0
46100,-655360,90,-56,-1,-1,0
46133,-655360,90,-56,-1,-1,0
46166,-655360,90,-56,-1,-1,0
46200,-851968,91,-56,-1,-1,0
46233,-720896,91,-56,-1,-1,0
46266,-983040,91,-56,-1,-1,0
46300,-983040,91,-56,-1,-1,0
46333,6553600,91,-56,-1,-1,0
46366,-720896,91,-56,-1,-1,0
46400,-655360,91,-56,-1,-1,0
46433,-262144,91,-56,-1,-1,0
46466,851968,91,-56,-1,-1,0
46500,1835008,91,-56,-1,-1,0
46533,196608,91,-56,-1,-1,0
46566,-524288,91,-56,-1,-1,0
46600,-524288,91,-56,-1,-1,0
46633,-393216,91,-56,-1,-1,0
46666,-458752,91,-56,-1,-1,0
46700,-720896,92,-56,-1,-1,0
46733,-524288,92,-56,-1,-1,0
46766,-786432,92,-56,-1,-1,0
46800,-917504,92,-56,-1,-1,0
46833,6029312,92,-56,-1,-1,0
46866,-655360,92,-56,-1,-1,0
46900,-393216,92,-56,-1,-1,0
46933,0,92,-56,-1,-1,0
46966,1507328,92,-56,-1,-1,0
47000,2097152,92,-56,-1,-1,0
47033,-65536,92,-56,-1,-1,0
47066,-786432,92,-56,-1,-1,0
47100,-917504,92,-56,-1,-1,0
47133,-786432,92,-56,-1,-1,0
47166,-851968,92,-56,-1,-1,0
47200,-983040,93,-56,-1,-1,0
47233,-720896,93,-56,-1,-1,0
47266,-983040,93,-56,-1,-1,0
47300,-589824,93,-56,-1,-1,0
47333,1900544,93,-56,-1,-1,0
47366,-720896,93,-56,-1,-1,0
47400,-458752,93,-56,-1,-1,0
47433,65536,93,-56,-1,-1,0
47466,1638400,93,-56,-1,-1,0
47500,1310720,93,-56,-1,-1,0
47533,-327680,93,-56,-1,-1,0
47566,-655360,93,-56,-1,-1,0
47600,-655360,93,-56,-1,-1,0
47633,-524288,93,-56,-1,-1,0
47666,-655360,93,-56,-1,-1,0
47700,-917504,93,-56,-1,-1,0
47733,-655360,94,-56,-1,-1,0
47766,-917504,94,-56,-1,-1,0
47800,-983040,94,-56,-1,-1,0
47833,4259840,94,-56,-1,-1,0
47866,-655360,94,-56,-1,-1,0
47900,-524288,94,-56,-1,-1,0
47933,0,94,-56,-1,-1,0
47966,1376256,94,-56,-1,-1,0
48000,1703936,94,-56,-1,-1,0
48033,-131072,94,-56,-1,-1,0
48066,-524288,94,-56,-1,-1,0
48100,-524288,94,-56,-1,-1,0
48133,-524288,94,-56,-1,-1,0
48166,-524288,94,-56,-1,-1,0
48200,-524288,94,-56,-1,-1,0
48233,-720896,94,-56,-1,-1,0
48266,-589824,95,-56,-1,-1,0
48300,-786432,95,-56,-1,-1,0
48333,1048576,95,-56,-1,-1,0
48366,131072,95,-56,-1,-1,0
48400,-589824,95,-56,-1,-1,0
48433,-393216,95,-56,-1,-1,0
48466,262144,95,-56,-1,-1,0
48500,1835008,95,-56,-1,-1,0
48533,1179648,95,-56,-1,-1,0
48566,-327680,95,-56,-1,-1,0
48600,-524288,95,-56,-1,-1,0
48633,-524288,95,-56,-1,-1,0
48666,-458752,95,-56,-1,-1,0
48700,-524288,95,-56,-1,-1,0
48733,-655360,95,-56,-1,-1,0
48766,-786432,95,-56,-1,-1,0
48800,-655360,95,-56,-1,-1,0
48833,-851968,96,-56,-1,-1,0
48866,655360,96,-56,-1,-1,0
48900,262144,96,-56,-1,-1,0
48933,-655360,96,-56,-1,-1,0
48966,-393216,96,-56,-1,-1,0
49000,327680,96,-56,-1,-1,0
49033,1769472,96,-56,-1,-1,0
49066,1310720,96,-56,-1,-1,0
49100,-262144,96,-56,-1,-1,0
49133,-524288,96,-56,-1,-1,0
49166,-458752,96,-56,-1,-1,0
49200,-393216,96,-56,-1,-1,0
49233,-458752,96,-56,-1,-1,0
49266,-524288,96,-56,-1,-1,0
49300,-655360,96,-56,-1,-1,0
49333,-458752,96,-56,-1,-1,0
49366,-720896,96,-56,-1,-1,0
49400,-786432,96,-56,-1,-1,0
49433,6946816,96,-56,-1,-1,0
49466,-524288,96,-56,-1,-1,0
49500,-458752,96,-56,-1,-1,0
49533,-131072,96,-56,-1,-1,0
49566,983040,96,-56,-1,-1,0
49600,2031616,96,-56,-1,-1,0
49633,393216,96,-56,-1,-1,0
49666,-458752,96,-56,-1,-1,0
49700,-524288,96,-56,-1,-1,0
49733,-524288,96,-56,-1,-1,0
49766,-524288,96,-56,-1,-1,0
49800,-655360,96,-56,-1,-1,0
49833,-655360,96,-56,-1,-1,0
49866,-917504,96,-56,-1,-1,0
49900,-589824,96,-56,-1,-1,0
49933,-851968,96,-56,-1,-1,0
49966,-917504,96,-56,-1,-1,0
50000,3801088,96,-56,-1,-1,0
