milliseconds, ECG, ECG HR, PPG, PPG HR, SpO2, PI
1523615364585,-720896,93,-56,-1,-1,0
1523615364585,-655360,93,-56,-1,-1,0
1523615364585,-589824,93,-56,-1,-1,0
1523615364585,-589824,93,-56,-1,-1,0
1523615364585,-524288,93,-56,-1,-1,0
1523615364635,-524288,93,-56,-1,-1,0
1523615364635,-655360,93,-56,-1,-1,0
1523615364635,-720896,93,-56,-1,-1,0
1523615364635,-786432,93,-56,-1,-1,0
1523615364635,-851968,93,-56,-1,-1,0
1523615364665,-917504,93,-56,-1,-1,0
1523615364665,-917504,93,-56,-1,-1,0
1523615364665,-917504,93,-56,-1,-1,0
1523615364665,-851968,93,-56,-1,-1,0
1523615364665,-851968,93,-56,-1,-1,0
1523615364705,-917504,92,-56,-1,-1,0
1523615364705,-196608,92,-56,-1,-1,0
1523615364705,2162688,92,-56,-1,-1,0
1523615364705,5570560,92,-56,-1,-1,0
1523615364705,7012352,92,-56,-1,-1,0
1523615364745,4849664,92,-56,-1,-1,0
1523615364745,1376256,92,-56,-1,-1,0
1523615364745,-524288,92,-56,-1,-1,0
1523615364745,-851968,92,-56,-1,-1,0
1523615364745,-720896,92,-56,-1,-1,0
1523615364785,-655360,92,-56,-1,-1,0
1523615364785,-655360,92,-56,-1,-1,0
1523615364785,-655360,92,-56,-1,-1,0
1523615364785,-589824,92,-56,-1,-1,0
1523615364785,-589824,92,-56,-1,-1,0
1523615364825,-458752,92,-56,-1,-1,0
1523615364825,-393216,92,-56,-1,-1,0
1523615364825,-327680,92,-56,-1,-1,0
1523615364825,-262144,92,-56,-1,-1,0
1523615364825,-131072,92,-56,-1,-1,0
1523615364865,0,92,-56,-1,-1,0
1523615364865,131072,92,-56,-1,-1,0
1523615364865,393216,92,-56,-1,-1,0
1523615364865,655360,92,-56,-1,-1,0
1523615364865,1048576,92,-56,-1,-1,0
1523615364905,1441792,92,-56,-1,-1,0
1523615364905,1835008,92,-56,-1,-1,0
1523615364905,2097152,92,-56,-1,-1,0
1523615364905,2228224,92,-56,-1,-1,0
1523615364905,2293760,92,-56,-1,-1,0
1523615364945,2097152,92,-56,-1,-1,0
1523615364945,1703936,92,-56,-1,-1,0
1523615364945,1179648,92,-56,-1,-1,0
1523615364945,655360,92,-56,-1,-1,0
1523615364945,262144,92,-56,-1,-1,0
1523615364985,-65536,92,-56,-1,-1,0
1523615364985,-327680,92,-56,-1,-1,0
1523615364985,-458752,92,-56,-1,-1,0
1523615364985,-524288,92,-56,-1,-1,0
1523615364985,-589824,92,-56,-1,-1,0
1523615365025,-655360,92,-56,-1,-1,0
1523615365025,-655360,92,-56,-1,-1,0
1523615365025,-655360,92,-56,-1,-1,0
1523615365025,-655360,92,-56,-1,-1,0
1523615365025,-655360,92,-56,-1,-1,0
1523615365065,-655360,92,-56,-1,-1,0
1523615365065,-655360,92,-56,-1,-1,0
1523615365065,-655360,92,-56,-1,-1,0
1523615365065,-655360,92,-56,-1,-1,0
1523615365065,-589824,92,-56,-1,-1,0
1523615365105,-589824,92,-56,-1,-1,0
1523615365105,-589824,92,-56,-1,-1,0
1523615365105,-589824,92,-56,-1,-1,0
1523615365105,-655360,92,-56,-1,-1,0
1523615365105,-655360,92,-56,-1,-1,0
1523615365145,-655360,92,-56,-1,-1,0
1523615365145,-655360,92,-56,-1,-1,0
1523615365145,-720896,92,-56,-1,-1,0
1523615365145,-655360,92,-56,-1,-1,0
1523615365145,-720896,92,-56,-1,-1,0
1523615365185,-720896,92,-56,-1,-1,0
1523615365185,-786432,92,-56,-1,-1,0
1523615365185,-720896,92,-56,-1,-1,0
1523615365185,-786432,92,-56,-1,-1,0
1523615365185,-786432,92,-56,-1,-1,0
1523615365225,-786432,92,-56,-1,-1,0
1523615365225,-786432,92,-56,-1,-1,0
1523615365225,-786432,92,-56,-1,-1,0
1523615365225,-851968,92,-56,-1,-1,0
1523615365225,-851968,92,-56,-1,-1,0
1523615365274,-917504,92,-56,-1,-1,0
1523615365274,-917504,92,-56,-1,-1,0
1523615365274,-917504,92,-56,-1,-1,0
1523615365274,-786432,92,-56,-1,-1,0
1523615365274,-720896,92,-56,-1,-1,0
1523615365305,-655360,92,-56,-1,-1,0
1523615365305,-655360,92,-56,-1,-1,0
1523615365305,-655360,92,-56,-1,-1,0
1523615365305,-720896,92,-56,-1,-1,0
1523615365305,-851968,92,-56,-1,-1,0
1523615365345,-917504,92,-56,-1,-1,0
1523615365345,-983040,92,-56,-1,-1,0
1523615365345,-983040,92,-56,-1,-1,0
1523615365345,-917504,92,-56,-1,-1,0
1523615365345,-917504,92,-56,-1,-1,0
1523615365385,-917504,91,-56,-1,-1,0
1523615365385,-917504,91,-56,-1,-1,0
1523615365385,-983040,91,-56,-1,-1,0
1523615365385,-655360,91,-56,-1,-1,0
1523615365385,1245184,91,-56,-1,-1,0
1523615365425,4653056,91,-56,-1,-1,0
1523615365425,7077888,91,-56,-1,-1,0
1523615365425,5963776,91,-56,-1,-1,0
1523615365425,2621440,91,-56,-1,-1,0
1523615365425,0,91,-56,-1,-1,0
1523615365466,-720896,91,-56,-1,-1,0
1523615365466,-720896,91,-56,-1,-1,0
1523615365466,-655360,91,-56,-1,-1,0
1523615365466,-720896,91,-56,-1,-1,0
1523615365466,-720896,91,-56,-1,-1,0
1523615365505,-655360,91,-56,-1,-1,0
1523615365505,-589824,91,-56,-1,-1,0
1523615365505,-524288,91,-56,-1,-1,0
1523615365505,-524288,91,-56,-1,-1,0
1523615365505,-393216,91,-56,-1,-1,0
1523615365545,-327680,91,-56,-1,-1,0
1523615365545,-262144,91,-56,-1,-1,0
1523615365545,-131072,91,-56,-1,-1,0
1523615365545,0,91,-56,-1,-1,0
1523615365545,131072,91,-56,-1,-1,0
1523615365585,458752,91,-56,-1,-1,0
1523615365585,786432,91,-56,-1,-1,0
1523615365585,1114112,91,-56,-1,-1,0
1523615365585,1507328,91,-56,-1,-1,0
1523615365585,1835008,91,-56,-1,-1,0
1523615365625,2031616,91,-56,-1,-1,0
1523615365625,2097152,91,-56,-1,-1,0
1523615365625,2031616,91,-56,-1,-1,0
1523615365625,1769472,91,-56,-1,-1,0
1523615365625,1310720,91,-56,-1,-1,0
1523615365666,851968,91,-56,-1,-1,0
1523615365666,393216,91,-56,-1,-1,0
1523615365666,65536,91,-56,-1,-1,0
1523615365666,-131072,91,-56,-1,-1,0
1523615365666,-327680,91,-56,-1,-1,0
1523615365705,-458752,91,-56,-1,-1,0
1523615365705,-589824,91,-56,-1,-1,0
1523615365705,-655360,91,-56,-1,-1,0
1523615365705,-720896,91,-56,-1,-1,0
1523615365705,-655360,91,-56,-1,-1,0
1523615365745,-655360,91,-56,-1,-1,0
1523615365745,-655360,91,-56,-1,-1,0
1523615365745,-655360,91,-56,-1,-1,0
1523615365745,-589824,91,-56,-1,-1,0
1523615365745,-589824,91,-56,-1,-1,0
1523615365785,-589824,91,-56,-1,-1,0
1523615365785,-589824,91,-56,-1,-1,0
1523615365785,-589824,91,-56,-1,-1,0
1523615365785,-589824,91,-56,-1,-1,0
1523615365785,-589824,91,-56,-1,-1,0
1523615365825,-655360,91,-56,-1,-1,0
1523615365825,-589824,91,-56,-1,-1,0
1523615365825,-589824,91,-56,-1,-1,0
1523615365825,-589824,91,-56,-1,-1,0
1523615365825,-589824,91,-56,-1,-1,0
1523615365865,-524288,91,-56,-1,-1,0
1523615365865,-589824,91,-56,-1,-1,0
1523615365865,-589824,91,-56,-1,-1,0
1523615365865,-655360,91,-56,-1,-1,0
1523615365865,-720896,91,-56,-1,-1,0
1523615365914,-786432,91,-56,-1,-1,0
1523615365914,-720896,91,-56,-1,-1,0
1523615365914,-655360,91,-56,-1,-1,0
1523615365914,-655360,91,-56,-1,-1,0
1523615365914,-589824,91,-56,-1,-1,0
1523615365945,-589824,91,-56,-1,-1,0
1523615365945,-720896,91,-56,-1,-1,0
1523615365945,-786432,91,-56,-1,-1,0
1523615365945,-786432,91,-56,-1,-1,0
1523615365945,-720896,91,-56,-1,-1,0
1523615365985,-655360,91,-56,-1,-1,0
1523615365985,-589824,91,-56,-1,-1,0
1523615365985,-524288,91,-56,-1,-1,0
1523615365985,-458752,91,-56,-1,-1,0
1523615365985,-458752,91,-56,-1,-1,0
1523615366025,-524288,90,-56,-1,-1,0
1523615366025,-524288,90,-56,-1,-1,0
1523615366025,-524288,90,-56,-1,-1,0
1523615366025,-589824,90,-56,-1,-1,0
1523615366025,-720896,90,-56,-1,-1,0
1523615366065,-786432,90,-56,-1,-1,0
1523615366065,-720896,90,-56,-1,-1,0
1523615366065,-589824,90,-56,-1,-1,0
1523615366065,-589824,90,-56,-1,-1,0
1523615366065,-786432,90,-56,-1,-1,0
1523615366105,-786432,90,-56,-1,-1,0
1523615366105,196608,90,-56,-1,-1,0
1523615366105,3014656,90,-56,-1,-1,0
1523615366105,6291456,90,-56,-1,-1,0
1523615366105,7143424,90,-56,-1,-1,0
1523615366145,4456448,90,-56,-1,-1,0
1523615366145,1048576,90,-56,-1,-1,0
1523615366145,-393216,90,-56,-1,-1,0
1523615366145,-524288,90,-56,-1,-1,0
1523615366145,-393216,90,-56,-1,-1,0
1523615366185,-458752,90,-56,-1,-1,0
1523615366185,-458752,90,-56,-1,-1,0
1523615366185,-458752,90,-56,-1,-1,0
1523615366185,-458752,90,-56,-1,-1,0
1523615366185,-458752,90,-56,-1,-1,0
1523615366224,-327680,90,-56,-1,-1,0
1523615366224,-262144,90,-56,-1,-1,0
1523615366224,-131072,90,-56,-1,-1,0
1523615366224,-65536,90,-56,-1,-1,0
1523615366224,0,90,-56,-1,-1,0
1523615366265,196608,90,-56,-1,-1,0
1523615366265,524288,90,-56,-1,-1,0
1523615366265,983040,90,-56,-1,-1,0
1523615366265,1245184,90,-56,-1,-1,0
1523615366265,1507328,90,-56,-1,-1,0
1523615366305,1835008,90,-56,-1,-1,0
1523615366305,2228224,90,-56,-1,-1,0
1523615366305,2555904,90,-56,-1,-1,0
1523615366305,2949120,90,-56,-1,-1,0
1523615366305,3014656,90,-56,-1,-1,0
1523615366347,2752512,90,-56,-1,-1,0
1523615366347,2359296,90,-56,-1,-1,0
1523615366347,1900544,90,-56,-1,-1,0
1523615366347,1310720,90,-56,-1,-1,0
1523615366347,720896,90,-56,-1,-1,0
1523615366384,393216,90,-56,-1,-1,0
1523615366384,131072,90,-56,-1,-1,0
1523615366384,0,90,-56,-1,-1,0
1523615366384,-196608,90,-56,-1,-1,0
1523615366384,-327680,90,-56,-1,-1,0
1523615366425,-262144,90,-56,-1,-1,0
1523615366425,-131072,90,-56,-1,-1,0
1523615366425,-65536,90,-56,-1,-1,0
1523615366425,0,90,-56,-1,-1,0
1523615366425,-131072,90,-56,-1,-1,0
1523615366465,-393216,90,-56,-1,-1,0
1523615366465,-524288,90,-56,-1,-1,0
1523615366465,-393216,90,-56,-1,-1,0
1523615366465,-327680,90,-56,-1,-1,0
1523615366465,-327680,90,-56,-1,-1,0
1523615366505,-393216,90,-56,-1,-1,0
1523615366505,-327680,90,-56,-1,-1,0
1523615366505,-131072,90,-56,-1,-1,0
1523615366505,-196608,90,-56,-1,-1,0
1523615366505,-327680,90,-56,-1,-1,0
1523615366554,-458752,90,-56,-1,-1,0
1523615366554,-458752,90,-56,-1,-1,0
1523615366554,-589824,90,-56,-1,-1,0
1523615366554,-589824,90,-56,-1,-1,0
1523615366554,-655360,90,-56,-1,-1,0
1523615366585,-720896,90,-56,-1,-1,0
1523615366585,-786432,90,-56,-1,-1,0
1523615366585,-786432,90,-56,-1,-1,0
1523615366585,-720896,90,-56,-1,-1,0
1523615366585,-786432,90,-56,-1,-1,0
1523615366625,-917504,90,-56,-1,-1,0
1523615366625,-983040,90,-56,-1,-1,0
1523615366625,-786432,90,-56,-1,-1,0
1523615366625,-589824,90,-56,-1,-1,0
1523615366625,-655360,90,-56,-1,-1,0
1523615366665,-786432,90,-56,-1,-1,0
1523615366665,-786432,90,-56,-1,-1,0
1523615366665,-983040,90,-56,-1,-1,0
1523615366665,-1179648,90,-56,-1,-1,0
1523615366665,-1245184,90,-56,-1,-1,0
1523615366707,-1179648,90,-56,-1,-1,0
1523615366707,-1114112,90,-56,-1,-1,0
1523615366707,-917504,90,-56,-1,-1,0
1523615366707,-1048576,90,-56,-1,-1,0
1523615366707,-1179648,90,-56,-1,-1,0
1523615366747,-1245184,90,-56,-1,-1,0
1523615366747,-655360,90,-56,-1,-1,0
1523615366747,1638400,90,-56,-1,-1,0
1523615366747,5177344,90,-56,-1,-1,0
1523615366747,7077888,90,-56,-1,-1,0
1523615366785,5111808,90,-56,-1,-1,0
1523615366785,1114112,90,-56,-1,-1,0
1523615366785,-1441792,90,-56,-1,-1,0
1523615366785,-1835008,90,-56,-1,-1,0
1523615366785,-1441792,90,-56,-1,-1,0
1523615366825,-1179648,90,-56,-1,-1,0
1523615366825,-1114112,90,-56,-1,-1,0
1523615366825,-1048576,90,-56,-1,-1,0
1523615366825,-851968,90,-56,-1,-1,0
1523615366825,-524288,90,-56,-1,-1,0
1523615366865,-458752,90,-56,-1,-1,0
1523615366865,-589824,90,-56,-1,-1,0
1523615366865,-655360,90,-56,-1,-1,0
1523615366865,-589824,90,-56,-1,-1,0
1523615366865,-327680,90,-56,-1,-1,0
1523615366907,-65536,90,-56,-1,-1,0
1523615366907,196608,90,-56,-1,-1,0
1523615366907,589824,90,-56,-1,-1,0
1523615366907,1048576,90,-56,-1,-1,0
1523615366907,1572864,90,-56,-1,-1,0
1523615366945,2031616,90,-56,-1,-1,0
1523615366945,2555904,90,-56,-1,-1,0
1523615366945,3014656,90,-56,-1,-1,0
1523615366945,3211264,90,-56,-1,-1,0
1523615366945,3080192,90,-56,-1,-1,0
1523615366985,2883584,90,-56,-1,-1,0
1523615366985,2555904,90,-56,-1,-1,0
1523615366985,1966080,90,-56,-1,-1,0
1523615366985,1114112,90,-56,-1,-1,0
1523615366985,393216,90,-56,-1,-1,0
1523615367025,0,90,-56,-1,-1,0
1523615367025,-262144,90,-56,-1,-1,0
1523615367025,-589824,90,-56,-1,-1,0
1523615367025,-720896,90,-56,-1,-1,0
1523615367025,-589824,90,-56,-1,-1,0
1523615367065,-589824,90,-56,-1,-1,0
1523615367065,-655360,90,-56,-1,-1,0
1523615367065,-786432,90,-56,-1,-1,0
1523615367065,-851968,90,-56,-1,-1,0
1523615367065,-917504,90,-56,-1,-1,0
1523615367105,-851968,90,-56,-1,-1,0
1523615367105,-655360,90,-56,-1,-1,0
1523615367105,-524288,90,-56,-1,-1,0
1523615367105,-327680,90,-56,-1,-1,0
1523615367105,-393216,90,-56,-1,-1,0
1523615367145,-655360,90,-56,-1,-1,0
1523615367145,-786432,90,-56,-1,-1,0
1523615367145,-524288,90,-56,-1,-1,0
1523615367145,-327680,90,-56,-1,-1,0
1523615367145,-524288,90,-56,-1,-1,0
1523615367194,-720896,90,-56,-1,-1,0
1523615367194,-720896,90,-56,-1,-1,0
1523615367194,-655360,90,-56,-1,-1,0
1523615367194,-655360,90,-56,-1,-1,0
1523615367194,-851968,90,-56,-1,-1,0
1523615367225,-851968,90,-56,-1,-1,0
1523615367225,-917504,90,-56,-1,-1,0
1523615367225,-851968,90,-56,-1,-1,0
1523615367225,-786432,90,-56,-1,-1,0
1523615367225,-851968,90,-56,-1,-1,0
1523615367265,-851968,90,-56,-1,-1,0
1523615367265,-720896,90,-56,-1,-1,0
1523615367265,-524288,90,-56,-1,-1,0
1523615367265,-524288,90,-56,-1,-1,0
1523615367265,-589824,90,-56,-1,-1,0
1523615367305,-786432,90,-56,-1,-1,0
1523615367305,-983040,90,-56,-1,-1,0
1523615367305,-917504,90,-56,-1,-1,0
1523615367305,-983040,90,-56,-1,-1,0
1523615367305,-1048576,90,-56,-1,-1,0
1523615367344,-917504,90,-56,-1,-1,0
1523615367344,-851968,90,-56,-1,-1,0
1523615367344,-720896,90,-56,-1,-1,0
1523615367344,-655360,90,-56,-1,-1,0
1523615367344,-1048576,90,-56,-1,-1,0
1523615367386,-917504,90,-56,-1,-1,0
1523615367386,1441792,90,-56,-1,-1,0
1523615367386,5177344,90,-56,-1,-1,0
1523615367386,7602176,90,-56,-1,-1,0
1523615367386,6225920,90,-56,-1,-1,0
1523615367429,2293760,90,-56,-1,-1,0
1523615367429,-589824,90,-56,-1,-1,0
1523615367429,-1245184,90,-56,-1,-1,0
1523615367429,-851968,90,-56,-1,-1,0
1523615367429,-655360,90,-56,-1,-1,0
1523615367465,-589824,90,-56,-1,-1,0
1523615367465,-524288,90,-56,-1,-1,0
1523615367465,-524288,90,-56,-1,-1,0
1523615367465,-720896,90,-56,-1,-1,0
1523615367465,-655360,90,-56,-1,-1,0
1523615367505,-327680,90,-56,-1,-1,0
1523615367505,-65536,90,-56,-1,-1,0
1523615367505,-196608,90,-56,-1,-1,0
1523615367505,-196608,90,-56,-1,-1,0
1523615367505,0,90,-56,-1,-1,0
1523615367545,131072,90,-56,-1,-1,0
1523615367545,458752,90,-56,-1,-1,0
1523615367545,917504,90,-56,-1,-1,0
1523615367545,1441792,90,-56,-1,-1,0
1523615367545,1769472,90,-56,-1,-1,0
1523615367585,2293760,90,-56,-1,-1,0
1523615367585,2752512,90,-56,-1,-1,0
1523615367585,2949120,90,-56,-1,-1,0
1523615367585,2883584,90,-56,-1,-1,0
1523615367585,2883584,90,-56,-1,-1,0
1523615367625,2621440,90,-56,-1,-1,0
1523615367625,2031616,90,-56,-1,-1,0
1523615367625,1179648,90,-56,-1,-1,0
1523615367625,524288,90,-56,-1,-1,0
1523615367625,0,90,-56,-1,-1,0
1523615367665,-262144,90,-56,-1,-1,0
1523615367665,-458752,90,-56,-1,-1,0
1523615367665,-524288,90,-56,-1,-1,0
1523615367665,-524288,90,-56,-1,-1,0
1523615367665,-524288,90,-56,-1,-1,0
1523615367705,-393216,90,-56,-1,-1,0
1523615367705,-524288,90,-56,-1,-1,0
1523615367705,-655360,90,-56,-1,-1,0
1523615367705,-655360,90,-56,-1,-1,0
1523615367705,-786432,90,-56,-1,-1,0
1523615367745,-851968,90,-56,-1,-1,0
1523615367745,-786432,90,-56,-1,-1,0
1523615367745,-655360,90,-56,-1,-1,0
1523615367745,-589824,90,-56,-1,-1,0
1523615367745,-524288,90,-56,-1,-1,0
1523615367785,-524288,90,-56,-1,-1,0
1523615367785,-458752,90,-56,-1,-1,0
1523615367785,-655360,90,-56,-1,-1,0
1523615367785,-917504,90,-56,-1,-1,0
1523615367785,-917504,90,-56,-1,-1,0
1523615367834,-589824,90,-56,-1,-1,0
1523615367834,-393216,90,-56,-1,-1,0
1523615367834,-655360,90,-56,-1,-1,0
1523615367834,-983040,90,-56,-1,-1,0
1523615367834,-851968,90,-56,-1,-1,0
1523615367866,-917504,90,-56,-1,-1,0
1523615367866,-983040,90,-56,-1,-1,0
1523615367866,-851968,90,-56,-1,-1,0
1523615367866,-458752,90,-56,-1,-1,0
1523615367866,-524288,90,-56,-1,-1,0
1523615367905,-851968,92,-56,-1,-1,0
1523615367905,-917504,92,-56,-1,-1,0
1523615367905,-524288,92,-56,-1,-1,0
1523615367905,-262144,92,-56,-1,-1,0
1523615367905,-589824,92,-56,-1,-1,0
1523615367945,-983040,92,-56,-1,-1,0
1523615367945,-983040,92,-56,-1,-1,0
1523615367945,-917504,92,-56,-1,-1,0
1523615367945,-983040,92,-56,-1,-1,0
1523615367945,-983040,92,-56,-1,-1,0
1523615367985,-786432,92,-56,-1,-1,0
1523615367985,-589824,92,-56,-1,-1,0
1523615367985,-655360,92,-56,-1,-1,0
1523615367985,-917504,92,-56,-1,-1,0
1523615367985,0,92,-56,-1,-1,0
1523615368026,3211264,92,-56,-1,-1,0
1523615368026,7012352,92,-56,-1,-1,0
1523615368026,7864320,92,-56,-1,-1,0
1523615368026,4915200,92,-56,-1,-1,0
1523615368026,1179648,92,-56,-1,-1,0
1523615368065,-524288,92,-56,-1,-1,0
1523615368065,-917504,92,-56,-1,-1,0
1523615368065,-851968,92,-56,-1,-1,0
1523615368065,-655360,92,-56,-1,-1,0
1523615368065,-458752,92,-56,-1,-1,0
1523615368106,-655360,92,-56,-1,-1,0
1523615368106,-851968,92,-56,-1,-1,0
1523615368106,-786432,92,-56,-1,-1,0
1523615368106,-524288,92,-56,-1,-1,0
1523615368106,-720896,92,-56,-1,-1,0
1523615368145,-983040,92,-56,-1,-1,0
1523615368145,-589824,92,-56,-1,-1,0
1523615368145,0,92,-56,-1,-1,0
1523615368145,65536,92,-56,-1,-1,0
1523615368145,65536,92,-56,-1,-1,0
1523615368186,327680,92,-56,-1,-1,0
1523615368186,458752,92,-56,-1,-1,0
1523615368186,786432,92,-56,-1,-1,0
1523615368186,1310720,92,-56,-1,-1,0
1523615368186,1769472,92,-56,-1,-1,0
1523615368225,2162688,92,-56,-1,-1,0
1523615368225,2293760,92,-56,-1,-1,0
1523615368225,2228224,92,-56,-1,-1,0
1523615368225,1900544,92,-56,-1,-1,0
1523615368225,1441792,92,-56,-1,-1,0
1523615368265,786432,92,-56,-1,-1,0
1523615368265,131072,92,-56,-1,-1,0
1523615368265,-262144,92,-56,-1,-1,0
1523615368265,-393216,92,-56,-1,-1,0
1523615368265,-327680,92,-56,-1,-1,0
1523615368304,-458752,92,-56,-1,-1,0
1523615368304,-655360,92,-56,-1,-1,0
1523615368304,-786432,92,-56,-1,-1,0
1523615368304,-786432,92,-56,-1,-1,0
1523615368304,-720896,92,-56,-1,-1,0
1523615368346,-720896,92,-56,-1,-1,0
1523615368346,-786432,92,-56,-1,-1,0
1523615368346,-720896,92,-56,-1,-1,0
1523615368346,-786432,92,-56,-1,-1,0
1523615368346,-851968,92,-56,-1,-1,0
1523615368385,-917504,92,-56,-1,-1,0
1523615368385,-917504,92,-56,-1,-1,0
1523615368385,-720896,92,-56,-1,-1,0
1523615368385,-720896,92,-56,-1,-1,0
1523615368385,-786432,92,-56,-1,-1,0
1523615368426,-720896,92,-56,-1,-1,0
1523615368426,-720896,92,-56,-1,-1,0
1523615368426,-1048576,92,-56,-1,-1,0
1523615368426,-1245184,92,-56,-1,-1,0
1523615368426,-1048576,92,-56,-1,-1,0
1523615368474,-851968,92,-56,-1,-1,0
1523615368474,-786432,92,-56,-1,-1,0
1523615368474,-655360,92,-56,-1,-1,0
1523615368474,-655360,92,-56,-1,-1,0
1523615368474,-851968,92,-56,-1,-1,0
1523615368505,-917504,93,-56,-1,-1,0
1523615368505,-917504,93,-56,-1,-1,0
1523615368505,-1048576,93,-56,-1,-1,0
1523615368505,-983040,93,-56,-1,-1,0
1523615368505,-589824,93,-56,-1,-1,0
1523615368545,-327680,93,-56,-1,-1,0
1523615368545,-327680,93,-56,-1,-1,0
1523615368545,-524288,93,-56,-1,-1,0
1523615368545,-786432,93,-56,-1,-1,0
1523615368545,-983040,93,-56,-1,-1,0
1523615368586,-1048576,93,-56,-1,-1,0
1523615368586,-917504,93,-56,-1,-1,0
1523615368586,-983040,93,-56,-1,-1,0
1523615368586,-1114112,93,-56,-1,-1,0
1523615368586,-1376256,93,-56,-1,-1,0
1523615368625,-1310720,93,-56,-1,-1,0
1523615368625,-393216,93,-56,-1,-1,0
1523615368625,2228224,93,-56,-1,-1,0
1523615368625,5963776,93,-56,-1,-1,0
1523615368625,7864320,93,-56,-1,-1,0
1523615368666,5832704,93,-56,-1,-1,0
1523615368666,2031616,93,-56,-1,-1,0
1523615368666,-327680,93,-56,-1,-1,0
1523615368666,-851968,93,-56,-1,-1,0
1523615368666,-786432,93,-56,-1,-1,0
1523615368705,-786432,93,-56,-1,-1,0
1523615368705,-786432,93,-56,-1,-1,0
1523615368705,-786432,93,-56,-1,-1,0
1523615368705,-851968,93,-56,-1,-1,0
1523615368705,-851968,93,-56,-1,-1,0
1523615368745,-655360,93,-56,-1,-1,0
1523615368745,-524288,93,-56,-1,-1,0
1523615368745,-393216,93,-56,-1,-1,0
1523615368745,-458752,93,-56,-1,-1,0
1523615368745,-327680,93,-56,-1,-1,0
1523615368785,-65536,93,-56,-1,-1,0
1523615368785,131072,93,-56,-1,-1,0
1523615368785,262144,93,-56,-1,-1,0
1523615368785,458752,93,-56,-1,-1,0
1523615368785,851968,93,-56,-1,-1,0
1523615368825,1245184,93,-56,-1,-1,0
1523615368825,1638400,93,-56,-1,-1,0
1523615368825,1900544,93,-56,-1,-1,0
1523615368825,1966080,93,-56,-1,-1,0
1523615368825,2031616,93,-56,-1,-1,0
1523615368866,2097152,93,-56,-1,-1,0
1523615368866,1769472,93,-56,-1,-1,0
1523615368866,1245184,93,-56,-1,-1,0
1523615368866,655360,93,-56,-1,-1,0
1523615368866,131072,93,-56,-1,-1,0
1523615368905,-196608,93,-56,-1,-1,0
1523615368905,-393216,93,-56,-1,-1,0
1523615368905,-524288,93,-56,-1,-1,0
1523615368905,-589824,93,-56,-1,-1,0
1523615368905,-524288,93,-56,-1,-1,0
1523615368946,-524288,93,-56,-1,-1,0
1523615368946,-786432,93,-56,-1,-1,0
1523615368946,-786432,93,-56,-1,-1,0
1523615368946,-589824,93,-56,-1,-1,0
1523615368946,-524288,93,-56,-1,-1,0
1523615368986,-655360,93,-56,-1,-1,0
1523615368986,-720896,93,-56,-1,-1,0
1523615368986,-655360,93,-56,-1,-1,0
1523615368986,-589824,93,-56,-1,-1,0
1523615368986,-393216,93,-56,-1,-1,0
1523615369026,-458752,93,-56,-1,-1,0
1523615369026,-655360,93,-56,-1,-1,0
1523615369026,-786432,93,-56,-1,-1,0
1523615369026,-786432,93,-56,-1,-1,0
1523615369026,-589824,93,-56,-1,-1,0
1523615369065,-458752,93,-56,-1,-1,0
1523615369065,-589824,93,-56,-1,-1,0
1523615369065,-720896,93,-56,-1,-1,0
1523615369065,-720896,93,-56,-1,-1,0
1523615369065,-786432,93,-56,-1,-1,0
1523615369114,-786432,94,-56,-1,-1,0
1523615369114,-720896,94,-56,-1,-1,0
1523615369114,-655360,94,-56,-1,-1,0
1523615369114,-655360,94,-56,-1,-1,0
1523615369114,-655360,94,-56,-1,-1,0
1523615369146,-589824,94,-56,-1,-1,0
1523615369146,-524288,94,-56,-1,-1,0
1523615369146,-655360,94,-56,-1,-1,0
1523615369146,-786432,94,-56,-1,-1,0
1523615369146,-720896,94,-56,-1,-1,0
1523615369185,-786432,94,-56,-1,-1,0
1523615369185,-917504,94,-56,-1,-1,0
1523615369185,-917504,94,-56,-1,-1,0
1523615369185,-786432,94,-56,-1,-1,0
1523615369185,-720896,94,-56,-1,-1,0
1523615369226,-786432,94,-56,-1,-1,0
1523615369226,-655360,94,-56,-1,-1,0
1523615369226,917504,94,-56,-1,-1,0
1523615369226,4521984,94,-56,-1,-1,0
1523615369226,7733248,94,-56,-1,-1,0
1523615369266,7340032,94,-56,-1,-1,0
1523615369266,3866624,94,-56,-1,-1,0
1523615369266,524288,94,-56,-1,-1,0
1523615369266,-589824,94,-56,-1,-1,0
1523615369266,-720896,94,-56,-1,-1,0
1523615369306,-720896,94,-56,-1,-1,0
1523615369306,-655360,94,-56,-1,-1,0
1523615369306,-655360,94,-56,-1,-1,0
1523615369306,-589824,94,-56,-1,-1,0
1523615369306,-589824,94,-56,-1,-1,0
1523615369346,-524288,94,-56,-1,-1,0
1523615369346,-524288,94,-56,-1,-1,0
1523615369346,-393216,94,-56,-1,-1,0
1523615369346,-327680,94,-56,-1,-1,0
1523615369346,-131072,94,-56,-1,-1,0
1523615369386,65536,94,-56,-1,-1,0
1523615369386,196608,94,-56,-1,-1,0
1523615369386,327680,94,-56,-1,-1,0
1523615369386,458752,94,-56,-1,-1,0
1523615369386,720896,94,-56,-1,-1,0
1523615369426,1114112,94,-56,-1,-1,0
1523615369426,1638400,94,-56,-1,-1,0
1523615369426,1900544,94,-56,-1,-1,0
1523615369426,2031616,94,-56,-1,-1,0
1523615369426,2293760,94,-56,-1,-1,0
1523615369466,2424832,94,-56,-1,-1,0
1523615369466,2097152,94,-56,-1,-1,0
1523615369466,1441792,94,-56,-1,-1,0
1523615369466,786432,94,-56,-1,-1,0
1523615369466,327680,94,-56,-1,-1,0
1523615369506,0,94,-56,-1,-1,0
1523615369506,-327680,94,-56,-1,-1,0
1523615369506,-655360,94,-56,-1,-1,0
1523615369506,-851968,94,-56,-1,-1,0
1523615369506,-851968,94,-56,-1,-1,0
1523615369547,-851968,94,-56,-1,-1,0
1523615369547,-720896,94,-56,-1,-1,0
1523615369547,-720896,94,-56,-1,-1,0
1523615369547,-786432,94,-56,-1,-1,0
1523615369547,-851968,94,-56,-1,-1,0
1523615369584,-917504,94,-56,-1,-1,0
1523615369584,-851968,94,-56,-1,-1,0
1523615369584,-851968,94,-56,-1,-1,0
1523615369584,-917504,94,-56,-1,-1,0
1523615369584,-983040,94,-56,-1,-1,0
1523615369626,-917504,94,-56,-1,-1,0
1523615369626,-983040,94,-56,-1,-1,0
1523615369626,-983040,94,-56,-1,-1,0
1523615369626,-983040,94,-56,-1,-1,0
1523615369626,-983040,94,-56,-1,-1,0
1523615369666,-983040,94,-56,-1,-1,0
1523615369666,-983040,94,-56,-1,-1,0
1523615369666,-983040,94,-56,-1,-1,0
1523615369666,-1179648,94,-56,-1,-1,0
1523615369666,-1376256,94,-56,-1,-1,0
1523615369706,-1376256,95,-56,-1,-1,0
1523615369706,-1245184,95,-56,-1,-1,0
1523615369706,-1114112,95,-56,-1,-1,0
1523615369706,-1114112,95,-56,-1,-1,0
1523615369706,-1114112,95,-56,-1,-1,0
1523615369754,-1114112,95,-56,-1,-1,0
1523615369754,-1048576,95,-56,-1,-1,0
1523615369754,-1245184,95,-56,-1,-1,0
1523615369754,-1441792,95,-56,-1,-1,0
1523615369754,-1376256,95,-56,-1,-1,0
1523615369786,-1245184,95,-56,-1,-1,0
1523615369786,-1310720,95,-56,-1,-1,0
1523615369786,-1441792,95,-56,-1,-1,0
1523615369786,-1441792,95,-56,-1,-1,0
1523615369786,-1376256,95,-56,-1,-1,0
1523615369826,-1245184,95,-56,-1,-1,0
1523615369826,0,95,-56,-1,-1,0
1523615369826,3145728,95,-56,-1,-1,0
1523615369826,6619136,95,-56,-1,-1,0
1523615369826,7143424,95,-56,-1,-1,0
1523615369866,3866624,95,-56,-1,-1,0
1523615369866,0,95,-56,-1,-1,0
1523615369866,-1441792,95,-56,-1,-1,0
1523615369866,-1441792,95,-56,-1,-1,0
1523615369866,-1245184,95,-56,-1,-1,0
1523615369906,-1114112,95,-56,-1,-1,0
1523615369906,-917504,95,-56,-1,-1,0
1523615369906,-917504,95,-56,-1,-1,0
1523615369906,-917504,95,-56,-1,-1,0
1523615369906,-983040,95,-56,-1,-1,0
1523615369946,-1179648,95,-56,-1,-1,0
1523615369946,-1114112,95,-56,-1,-1,0
1523615369946,-720896,95,-56,-1,-1,0
1523615369946,-458752,95,-56,-1,-1,0
1523615369946,-327680,95,-56,-1,-1,0
1523615369985,-327680,95,-56,-1,-1,0
1523615369985,0,95,-56,-1,-1,0
1523615369985,393216,95,-56,-1,-1,0
1523615369985,720896,95,-56,-1,-1,0
1523615369985,1048576,95,-56,-1,-1,0
1523615370025,1572864,95,-56,-1,-1,0
1523615370025,1900544,95,-56,-1,-1,0
1523615370025,2097152,95,-56,-1,-1,0
1523615370025,2162688,95,-56,-1,-1,0
1523615370025,2228224,95,-56,-1,-1,0
1523615370065,2097152,95,-56,-1,-1,0
1523615370065,1572864,95,-56,-1,-1,0
1523615370065,917504,95,-56,-1,-1,0
1523615370065,327680,95,-56,-1,-1,0
1523615370065,-65536,95,-56,-1,-1,0
1523615370105,-393216,95,-56,-1,-1,0
1523615370105,-655360,95,-56,-1,-1,0
1523615370105,-720896,95,-56,-1,-1,0
1523615370105,-851968,95,-56,-1,-1,0
1523615370105,-851968,95,-56,-1,-1,0
1523615370145,-851968,95,-56,-1,-1,0
1523615370145,-851968,95,-56,-1,-1,0
1523615370145,-720896,95,-56,-1,-1,0
1523615370145,-655360,95,-56,-1,-1,0
1523615370145,-786432,95,-56,-1,-1,0
1523615370185,-786432,95,-56,-1,-1,0
1523615370185,-720896,95,-56,-1,-1,0
1523615370185,-720896,95,-56,-1,-1,0
1523615370185,-720896,95,-56,-1,-1,0
1523615370185,-589824,95,-56,-1,-1,0
1523615370225,-589824,95,-56,-1,-1,0
1523615370225,-720896,95,-56,-1,-1,0
1523615370225,-720896,95,-56,-1,-1,0
1523615370225,-589824,95,-56,-1,-1,0
1523615370225,-655360,95,-56,-1,-1,0
1523615370265,-851968,95,-56,-1,-1,0
1523615370265,-1048576,95,-56,-1,-1,0
1523615370265,-1048576,95,-56,-1,-1,0
1523615370265,-786432,95,-56,-1,-1,0
1523615370265,-655360,95,-56,-1,-1,0
1523615370305,-786432,95,-56,-1,-1,0
1523615370305,-983040,95,-56,-1,-1,0
1523615370305,-983040,95,-56,-1,-1,0
1523615370305,-917504,95,-56,-1,-1,0
1523615370305,-917504,95,-56,-1,-1,0
1523615370345,-917504,95,-56,-1,-1,0
1523615370345,-917504,95,-56,-1,-1,0
1523615370345,-983040,95,-56,-1,-1,0
1523615370345,-1114112,95,-56,-1,-1,0
1523615370345,-1114112,95,-56,-1,-1,0
1523615370394,-1048576,95,-56,-1,-1,0
1523615370394,-983040,95,-56,-1,-1,0
1523615370394,-1048576,95,-56,-1,-1,0
1523615370394,-1048576,95,-56,-1,-1,0
1523615370394,-983040,95,-56,-1,-1,0
1523615370425,-720896,95,-56,-1,-1,0
1523615370425,655360,95,-56,-1,-1,0
1523615370425,3735552,95,-56,-1,-1,0
1523615370425,6881280,95,-56,-1,-1,0
1523615370425,6946816,95,-56,-1,-1,0
1523615370465,3604480,95,-56,-1,-1,0
1523615370465,196608,95,-56,-1,-1,0
1523615370465,-917504,95,-56,-1,-1,0
1523615370465,-917504,95,-56,-1,-1,0
1523615370465,-851968,95,-56,-1,-1,0
1523615370505,-720896,95,-56,-1,-1,0
1523615370505,-655360,95,-56,-1,-1,0
1523615370505,-655360,95,-56,-1,-1,0
1523615370505,-786432,95,-56,-1,-1,0
1523615370505,-786432,95,-56,-1,-1,0
1523615370545,-720896,95,-56,-1,-1,0
1523615370545,-524288,95,-56,-1,-1,0
1523615370545,-196608,95,-56,-1,-1,0
1523615370545,-65536,95,-56,-1,-1,0
1523615370545,0,95,-56,-1,-1,0
1523615370585,0,95,-56,-1,-1,0
1523615370585,262144,95,-56,-1,-1,0
1523615370585,720896,95,-56,-1,-1,0
1523615370585,1245184,95,-56,-1,-1,0
1523615370585,1507328,95,-56,-1,-1,0
1523615370625,1703936,95,-56,-1,-1,0
1523615370625,2031616,95,-56,-1,-1,0
1523615370625,2424832,95,-56,-1,-1,0
1523615370625,2621440,95,-56,-1,-1,0
1523615370625,2490368,95,-56,-1,-1,0
1523615370665,2162688,95,-56,-1,-1,0
1523615370665,1703936,95,-56,-1,-1,0
1523615370665,1310720,95,-56,-1,-1,0
1523615370665,851968,95,-56,-1,-1,0
1523615370665,327680,95,-56,-1,-1,0
1523615370705,0,95,-56,-1,-1,0
1523615370705,-65536,95,-56,-1,-1,0
1523615370705,-262144,95,-56,-1,-1,0
1523615370705,-393216,95,-56,-1,-1,0
1523615370705,-393216,95,-56,-1,-1,0
1523615370745,-393216,95,-56,-1,-1,0
1523615370745,-327680,95,-56,-1,-1,0
1523615370745,-393216,95,-56,-1,-1,0
1523615370745,-458752,95,-56,-1,-1,0
1523615370745,-458752,95,-56,-1,-1,0
1523615370785,-458752,95,-56,-1,-1,0
1523615370785,-393216,95,-56,-1,-1,0
1523615370785,-393216,95,-56,-1,-1,0
1523615370785,-262144,95,-56,-1,-1,0
1523615370785,-196608,95,-56,-1,-1,0
1523615370825,-196608,95,-56,-1,-1,0
1523615370825,-458752,95,-56,-1,-1,0
1523615370825,-589824,95,-56,-1,-1,0
1523615370825,-589824,95,-56,-1,-1,0
1523615370825,-524288,95,-56,-1,-1,0
1523615370865,-458752,95,-56,-1,-1,0
1523615370865,-720896,95,-56,-1,-1,0
1523615370865,-655360,95,-56,-1,-1,0
1523615370865,-393216,95,-56,-1,-1,0
1523615370865,-262144,95,-56,-1,-1,0
1523615370905,-393216,95,-56,-1,-1,0
1523615370905,-655360,95,-56,-1,-1,0
1523615370905,-851968,95,-56,-1,-1,0
1523615370905,-851968,95,-56,-1,-1,0
1523615370905,-655360,95,-56,-1,-1,0
1523615370945,-458752,95,-56,-1,-1,0
1523615370945,-458752,95,-56,-1,-1,0
1523615370945,-786432,95,-56,-1,-1,0
1523615370945,-983040,95,-56,-1,-1,0
1523615370945,-1048576,95,-56,-1,-1,0
1523615370985,-1048576,95,-56,-1,-1,0
1523615370985,-983040,95,-56,-1,-1,0
1523615370985,-983040,95,-56,-1,-1,0
1523615370985,-1245184,95,-56,-1,-1,0
1523615370985,-1441792,95,-56,-1,-1,0
1523615371034,-1179648,95,-56,-1,-1,0
1523615371034,-917504,95,-56,-1,-1,0
1523615371034,-458752,95,-56,-1,-1,0
1523615371034,1376256,95,-56,-1,-1,0
1523615371034,4718592,95,-56,-1,-1,0
1523615371065,7077888,95,-56,-1,-1,0
1523615371065,6094848,95,-56,-1,-1,0
1523615371065,2883584,95,-56,-1,-1,0
1523615371065,-131072,95,-56,-1,-1,0
1523615371065,-1179648,95,-56,-1,-1,0
1523615371105,-917504,95,-56,-1,-1,0
1523615371105,-458752,95,-56,-1,-1,0
1523615371105,-393216,95,-56,-1,-1,0
1523615371105,-589824,95,-56,-1,-1,0
1523615371105,-786432,95,-56,-1,-1,0
1523615371145,-1048576,95,-56,-1,-1,0
1523615371145,-983040,95,-56,-1,-1,0
1523615371145,-655360,95,-56,-1,-1,0
1523615371145,-393216,95,-56,-1,-1,0
1523615371145,-458752,95,-56,-1,-1,0
1523615371185,-458752,95,-56,-1,-1,0
1523615371185,-196608,95,-56,-1,-1,0
1523615371185,65536,95,-56,-1,-1,0
1523615371185,131072,95,-56,-1,-1,0
1523615371185,131072,95,-56,-1,-1,0
1523615371225,262144,95,-56,-1,-1,0
1523615371225,851968,95,-56,-1,-1,0
1523615371225,1507328,95,-56,-1,-1,0
1523615371225,1769472,95,-56,-1,-1,0
1523615371225,1835008,95,-56,-1,-1,0
1523615371265,1966080,95,-56,-1,-1,0
1523615371265,2097152,95,-56,-1,-1,0
1523615371265,2031616,95,-56,-1,-1,0
1523615371265,1572864,95,-56,-1,-1,0
1523615371265,851968,95,-56,-1,-1,0
1523615371305,327680,95,-56,-1,-1,0
1523615371305,-65536,95,-56,-1,-1,0
1523615371305,-524288,95,-56,-1,-1,0
1523615371305,-524288,95,-56,-1,-1,0
1523615371305,-196608,95,-56,-1,-1,0
1523615371345,-327680,95,-56,-1,-1,0
1523615371345,-655360,95,-56,-1,-1,0
1523615371345,-786432,95,-56,-1,-1,0
1523615371345,-655360,95,-56,-1,-1,0
1523615371345,-524288,95,-56,-1,-1,0
1523615371385,-524288,95,-56,-1,-1,0
1523615371385,-524288,95,-56,-1,-1,0
1523615371385,-720896,95,-56,-1,-1,0
1523615371385,-655360,95,-56,-1,-1,0
1523615371385,-458752,95,-56,-1,-1,0
1523615371425,-458752,95,-56,-1,-1,0
1523615371425,-720896,95,-56,-1,-1,0
1523615371425,-589824,95,-56,-1,-1,0
1523615371425,-458752,95,-56,-1,-1,0
1523615371425,-589824,95,-56,-1,-1,0
1523615371465,-720896,95,-56,-1,-1,0
1523615371465,-589824,95,-56,-1,-1,0
1523615371465,-458752,95,-56,-1,-1,0
1523615371465,-524288,95,-56,-1,-1,0
1523615371465,-589824,95,-56,-1,-1,0
1523615371505,-720896,95,-56,-1,-1,0
1523615371505,-786432,95,-56,-1,-1,0
1523615371505,-786432,95,-56,-1,-1,0
1523615371505,-655360,95,-56,-1,-1,0
1523615371505,-589824,95,-56,-1,-1,0
1523615371545,-655360,95,-56,-1,-1,0
1523615371545,-655360,95,-56,-1,-1,0
1523615371545,-524288,95,-56,-1,-1,0
1523615371545,-524288,95,-56,-1,-1,0
1523615371545,-589824,95,-56,-1,-1,0
1523615371585,-655360,95,-56,-1,-1,0
1523615371585,-655360,95,-56,-1,-1,0
1523615371585,-786432,95,-56,-1,-1,0
1523615371585,-983040,95,-56,-1,-1,0
1523615371585,-983040,95,-56,-1,-1,0
1523615371625,-917504,95,-56,-1,-1,0
1523615371625,-917504,95,-56,-1,-1,0
1523615371625,-917504,95,-56,-1,-1,0
1523615371625,-262144,95,-56,-1,-1,0
1523615371625,1900544,95,-56,-1,-1,0
1523615371674,5439488,95,-56,-1,-1,0
1523615371674,7405568,95,-56,-1,-1,0
1523615371674,5701632,95,-56,-1,-1,0
1523615371674,2228224,95,-56,-1,-1,0
1523615371674,-65536,95,-56,-1,-1,0
1523615371705,-655360,95,-56,-1,-1,0
1523615371705,-589824,95,-56,-1,-1,0
1523615371705,-589824,95,-56,-1,-1,0
1523615371705,-655360,95,-56,-1,-1,0
1523615371705,-589824,95,-56,-1,-1,0
1523615371745,-458752,95,-56,-1,-1,0
1523615371745,-458752,95,-56,-1,-1,0
1523615371745,-393216,95,-56,-1,-1,0
1523615371745,-262144,95,-56,-1,-1,0
1523615371745,-196608,95,-56,-1,-1,0
1523615371785,-262144,95,-56,-1,-1,0
1523615371785,-196608,95,-56,-1,-1,0
1523615371785,0,95,-56,-1,-1,0
1523615371785,131072,95,-56,-1,-1,0
1523615371785,327680,95,-56,-1,-1,0
1523615371825,655360,95,-56,-1,-1,0
1523615371825,1114112,95,-56,-1,-1,0
1523615371825,1507328,95,-56,-1,-1,0
1523615371825,1769472,95,-56,-1,-1,0
1523615371825,1900544,95,-56,-1,-1,0
1523615371865,1966080,95,-56,-1,-1,0
1523615371865,2031616,95,-56,-1,-1,0
1523615371865,2031616,95,-56,-1,-1,0
1523615371865,1835008,95,-56,-1,-1,0
1523615371865,1310720,95,-56,-1,-1,0
1523615371905,655360,95,-56,-1,-1,0
1523615371905,65536,95,-56,-1,-1,0
1523615371905,-196608,95,-56,-1,-1,0
1523615371905,-458752,95,-56,-1,-1,0
1523615371905,-589824,95,-56,-1,-1,0
1523615371945,-458752,95,-56,-1,-1,0
1523615371945,-524288,95,-56,-1,-1,0
1523615371945,-720896,95,-56,-1,-1,0
1523615371945,-655360,95,-56,-1,-1,0
1523615371945,-393216,95,-56,-1,-1,0
1523615371985,-458752,95,-56,-1,-1,0
1523615371985,-655360,95,-56,-1,-1,0
1523615371985,-851968,95,-56,-1,-1,0
1523615371985,-720896,95,-56,-1,-1,0
1523615371985,-589824,95,-56,-1,-1,0
1523615372027,-524288,95,-56,-1,-1,0
1523615372027,-458752,95,-56,-1,-1,0
1523615372027,-262144,95,-56,-1,-1,0
1523615372027,-524288,95,-56,-1,-1,0
1523615372027,-786432,95,-56,-1,-1,0
1523615372065,-655360,95,-56,-1,-1,0
1523615372065,-524288,95,-56,-1,-1,0
1523615372065,-655360,95,-56,-1,-1,0
1523615372065,-655360,95,-56,-1,-1,0
1523615372065,-589824,95,-56,-1,-1,0
1523615372105,-720896,95,-56,-1,-1,0
1523615372105,-917504,95,-56,-1,-1,0
1523615372105,-917504,95,-56,-1,-1,0
1523615372105,-917504,95,-56,-1,-1,0
1523615372105,-1114112,95,-56,-1,-1,0
1523615372145,-1114112,95,-56,-1,-1,0
1523615372145,-786432,95,-56,-1,-1,0
1523615372145,-655360,95,-56,-1,-1,0
1523615372145,-786432,95,-56,-1,-1,0
1523615372145,-851968,95,-56,-1,-1,0
1523615372185,-720896,95,-56,-1,-1,0
1523615372185,-655360,95,-56,-1,-1,0
1523615372185,-851968,95,-56,-1,-1,0
1523615372185,-983040,95,-56,-1,-1,0
1523615372185,-1114112,95,-56,-1,-1,0
1523615372225,-1179648,95,-56,-1,-1,0
1523615372225,-1048576,95,-56,-1,-1,0
1523615372225,-720896,95,-56,-1,-1,0
1523615372225,-786432,95,-56,-1,-1,0
1523615372225,-1048576,95,-56,-1,-1,0
1523615372265,-983040,95,-56,-1,-1,0
1523615372265,655360,95,-56,-1,-1,0
1523615372265,4194304,95,-56,-1,-1,0
1523615372265,7143424,95,-56,-1,-1,0
1523615372265,6684672,95,-56,-1,-1,0
1523615372314,3342336,95,-56,-1,-1,0
1523615372314,262144,95,-56,-1,-1,0
1523615372314,-983040,95,-56,-1,-1,0
1523615372314,-1245184,95,-56,-1,-1,0
1523615372314,-1114112,95,-56,-1,-1,0
1523615372345,-786432,95,-56,-1,-1,0
1523615372345,-655360,95,-56,-1,-1,0
1523615372345,-786432,95,-56,-1,-1,0
1523615372345,-786432,95,-56,-1,-1,0
1523615372345,-720896,95,-56,-1,-1,0
1523615372385,-720896,95,-56,-1,-1,0
1523615372385,-655360,95,-56,-1,-1,0
1523615372385,-458752,95,-56,-1,-1,0
1523615372385,-131072,95,-56,-1,-1,0
1523615372385,0,95,-56,-1,-1,0
1523615372425,0,95,-56,-1,-1,0
1523615372425,0,95,-56,-1,-1,0
1523615372425,196608,95,-56,-1,-1,0
1523615372425,655360,95,-56,-1,-1,0
1523615372425,1114112,95,-56,-1,-1,0
1523615372465,1638400,95,-56,-1,-1,0
1523615372465,2162688,95,-56,-1,-1,0
1523615372465,2490368,95,-56,-1,-1,0
1523615372465,2555904,95,-56,-1,-1,0
1523615372465,2162688,95,-56,-1,-1,0
1523615372505,1638400,95,-56,-1,-1,0
1523615372505,1376256,95,-56,-1,-1,0
1523615372505,1179648,95,-56,-1,-1,0
1523615372505,589824,95,-56,-1,-1,0
1523615372505,-131072,95,-56,-1,-1,0
1523615372545,-589824,95,-56,-1,-1,0
1523615372545,-851968,95,-56,-1,-1,0
1523615372545,-983040,95,-56,-1,-1,0
1523615372545,-917504,95,-56,-1,-1,0
1523615372545,-655360,95,-56,-1,-1,0
1523615372587,-589824,95,-56,-1,-1,0
1523615372587,-720896,95,-56,-1,-1,0
1523615372587,-786432,95,-56,-1,-1,0
1523615372587,-917504,95,-56,-1,-1,0
1523615372587,-1179648,95,-56,-1,-1,0
1523615372624,-1114112,95,-56,-1,-1,0
1523615372624,-786432,95,-56,-1,-1,0
1523615372624,-589824,95,-56,-1,-1,0
1523615372624,-720896,95,-56,-1,-1,0
1523615372624,-720896,95,-56,-1,-1,0
1523615372665,-786432,95,-56,-1,-1,0
1523615372665,-1048576,95,-56,-1,-1,0
1523615372665,-1048576,95,-56,-1,-1,0
1523615372665,-851968,95,-56,-1,-1,0
1523615372665,-786432,95,-56,-1,-1,0
1523615372707,-851968,95,-56,-1,-1,0
1523615372707,-917504,95,-56,-1,-1,0
1523615372707,-1048576,95,-56,-1,-1,0
1523615372707,-1310720,95,-56,-1,-1,0
1523615372707,-1245184,95,-56,-1,-1,0
1523615372745,-1114112,96,-56,-1,-1,0
1523615372745,-917504,96,-56,-1,-1,0
1523615372745,-917504,96,-56,-1,-1,0
1523615372745,-786432,96,-56,-1,-1,0
1523615372745,-786432,96,-56,-1,-1,0
1523615372785,-917504,96,-56,-1,-1,0
1523615372785,-1114112,96,-56,-1,-1,0
1523615372785,-1245184,96,-56,-1,-1,0
1523615372785,-1310720,96,-56,-1,-1,0
1523615372785,-1245184,96,-56,-1,-1,0
1523615372825,-1245184,96,-56,-1,-1,0
1523615372825,-1310720,96,-56,-1,-1,0
1523615372825,-1310720,96,-56,-1,-1,0
1523615372825,-1179648,96,-56,-1,-1,0
1523615372825,-1310720,96,-56,-1,-1,0
1523615372865,-851968,96,-56,-1,-1,0
1523615372865,1376256,96,-56,-1,-1,0
1523615372865,5177344,96,-56,-1,-1,0
1523615372865,7471104,96,-56,-1,-1,0
1523615372865,5505024,96,-56,-1,-1,0
1523615372905,1507328,96,-56,-1,-1,0
1523615372905,-1048576,96,-56,-1,-1,0
1523615372905,-1376256,96,-56,-1,-1,0
1523615372905,-1114112,96,-56,-1,-1,0
1523615372905,-983040,96,-56,-1,-1,0
1523615372954,-917504,96,-56,-1,-1,0
1523615372954,-917504,96,-56,-1,-1,0
1523615372954,-983040,96,-56,-1,-1,0
1523615372954,-983040,96,-56,-1,-1,0
1523615372954,-917504,96,-56,-1,-1,0
1523615372985,-655360,96,-56,-1,-1,0
1523615372985,-589824,96,-56,-1,-1,0
1523615372985,-524288,96,-56,-1,-1,0
1523615372985,-196608,96,-56,-1,-1,0
1523615372985,65536,96,-56,-1,-1,0
1523615373025,262144,96,-56,-1,-1,0
1523615373025,458752,96,-56,-1,-1,0
1523615373025,786432,96,-56,-1,-1,0
1523615373025,1179648,96,-56,-1,-1,0
1523615373025,1703936,96,-56,-1,-1,0
1523615373065,2162688,96,-56,-1,-1,0
1523615373065,2424832,96,-56,-1,-1,0
1523615373065,2490368,96,-56,-1,-1,0
1523615373065,2424832,96,-56,-1,-1,0
1523615373065,2293760,96,-56,-1,-1,0
1523615373105,1900544,96,-56,-1,-1,0
1523615373105,1310720,96,-56,-1,-1,0
1523615373105,655360,96,-56,-1,-1,0
1523615373105,131072,96,-56,-1,-1,0
1523615373105,-196608,96,-56,-1,-1,0
1523615373145,-524288,96,-56,-1,-1,0
1523615373145,-655360,96,-56,-1,-1,0
1523615373145,-720896,96,-56,-1,-1,0
1523615373145,-851968,96,-56,-1,-1,0
1523615373145,-851968,96,-56,-1,-1,0
1523615373185,-851968,96,-56,-1,-1,0
1523615373185,-917504,96,-56,-1,-1,0
1523615373185,-983040,96,-56,-1,-1,0
1523615373185,-983040,96,-56,-1,-1,0
1523615373185,-917504,96,-56,-1,-1,0
1523615373227,-917504,96,-56,-1,-1,0
1523615373227,-1048576,96,-56,-1,-1,0
1523615373227,-1114112,96,-56,-1,-1,0
1523615373227,-1048576,96,-56,-1,-1,0
1523615373227,-851968,96,-56,-1,-1,0
1523615373264,-851968,96,-56,-1,-1,0
1523615373264,-917504,96,-56,-1,-1,0
1523615373264,-983040,96,-56,-1,-1,0
1523615373264,-983040,96,-56,-1,-1,0
1523615373264,-1048576,96,-56,-1,-1,0
1523615373305,-983040,96,-56,-1,-1,0
1523615373305,-983040,96,-56,-1,-1,0
1523615373305,-1048576,96,-56,-1,-1,0
1523615373305,-1048576,96,-56,-1,-1,0
1523615373305,-983040,96,-56,-1,-1,0
1523615373345,-917504,96,-56,-1,-1,0
1523615373345,-786432,96,-56,-1,-1,0
1523615373345,-720896,96,-56,-1,-1,0
1523615373345,-851968,96,-56,-1,-1,0
1523615373345,-917504,96,-56,-1,-1,0
1523615373385,-1048576,96,-56,-1,-1,0
1523615373385,-983040,96,-56,-1,-1,0
1523615373385,-917504,96,-56,-1,-1,0
1523615373385,-917504,96,-56,-1,-1,0
1523615373385,-983040,96,-56,-1,-1,0
1523615373425,-983040,96,-56,-1,-1,0
1523615373425,-983040,96,-56,-1,-1,0
1523615373425,-917504,96,-56,-1,-1,0
1523615373425,-983040,96,-56,-1,-1,0
1523615373425,-458752,96,-56,-1,-1,0
1523615373465,1835008,96,-56,-1,-1,0
1523615373465,5570560,96,-56,-1,-1,0
1523615373465,7864320,96,-56,-1,-1,0
1523615373465,5963776,96,-56,-1,-1,0
1523615373465,2031616,96,-56,-1,-1,0
1523615373505,-393216,96,-56,-1,-1,0
1523615373505,-917504,96,-56,-1,-1,0
1523615373505,-720896,96,-56,-1,-1,0
1523615373505,-720896,96,-56,-1,-1,0
1523615373505,-786432,96,-56,-1,-1,0
1523615373547,-655360,96,-56,-1,-1,0
1523615373547,-262144,96,-56,-1,-1,0
1523615373547,-262144,96,-56,-1,-1,0
1523615373547,-458752,96,-56,-1,-1,0
1523615373547,-327680,96,-56,-1,-1,0
1523615373595,-131072,96,-56,-1,-1,0
1523615373595,-262144,96,-56,-1,-1,0
1523615373595,-196608,96,-56,-1,-1,0
1523615373595,131072,96,-56,-1,-1,0
1523615373595,458752,96,-56,-1,-1,0
1523615373625,589824,96,-56,-1,-1,0
1523615373625,917504,96,-56,-1,-1,0
1523615373625,1441792,96,-56,-1,-1,0
1523615373625,1835008,96,-56,-1,-1,0
1523615373625,1966080,96,-56,-1,-1,0
1523615373665,2293760,96,-56,-1,-1,0
1523615373665,2818048,96,-56,-1,-1,0
1523615373665,2883584,96,-56,-1,-1,0
1523615373665,2490368,96,-56,-1,-1,0
1523615373665,2031616,96,-56,-1,-1,0
1523615373705,1507328,96,-56,-1,-1,0
1523615373705,917504,96,-56,-1,-1,0
1523615373705,458752,96,-56,-1,-1,0
1523615373705,0,96,-56,-1,-1,0
1523615373705,-262144,96,-56,-1,-1,0
1523615373745,-589824,96,-56,-1,-1,0
1523615373745,-786432,96,-56,-1,-1,0
1523615373745,-589824,96,-56,-1,-1,0
1523615373745,-393216,96,-56,-1,-1,0
1523615373745,-393216,96,-56,-1,-1,0
1523615373785,-393216,96,-56,-1,-1,0
1523615373785,-458752,96,-56,-1,-1,0
1523615373785,-589824,96,-56,-1,-1,0
1523615373785,-655360,96,-56,-1,-1,0
1523615373785,-524288,96,-56,-1,-1,0
1523615373825,-524288,96,-56,-1,-1,0
1523615373825,-655360,96,-56,-1,-1,0
1523615373825,-589824,96,-56,-1,-1,0
1523615373825,-393216,96,-56,-1,-1,0
1523615373825,-393216,96,-56,-1,-1,0
1523615373865,-524288,96,-56,-1,-1,0
1523615373865,-655360,96,-56,-1,-1,0
1523615373865,-655360,96,-56,-1,-1,0
1523615373865,-524288,96,-56,-1,-1,0
1523615373865,-458752,96,-56,-1,-1,0
1523615373905,-655360,98,-56,-1,-1,0
1523615373905,-720896,98,-56,-1,-1,0
1523615373905,-589824,98,-56,-1,-1,0
1523615373905,-458752,98,-56,-1,-1,0
1523615373905,-524288,98,-56,-1,-1,0
1523615373945,-655360,98,-56,-1,-1,0
1523615373945,-786432,98,-56,-1,-1,0
1523615373945,-655360,98,-56,-1,-1,0
1523615373945,-458752,98,-56,-1,-1,0
1523615373945,-524288,98,-56,-1,-1,0
1523615373985,-720896,98,-56,-1,-1,0
1523615373985,-720896,98,-56,-1,-1,0
1523615373985,-786432,98,-56,-1,-1,0
1523615373985,-786432,98,-56,-1,-1,0
1523615373985,-786432,98,-56,-1,-1,0
1523615374025,-983040,98,-56,-1,-1,0
1523615374025,-1179648,98,-56,-1,-1,0
1523615374025,-1048576,98,-56,-1,-1,0
1523615374025,-589824,98,-56,-1,-1,0
1523615374025,720896,98,-56,-1,-1,0
1523615374065,3866624,98,-56,-1,-1,0
1523615374065,7340032,98,-56,-1,-1,0
1523615374065,7864320,98,-56,-1,-1,0
1523615374065,4653056,98,-56,-1,-1,0
1523615374065,524288,98,-56,-1,-1,0
1523615374105,-917504,98,-56,-1,-1,0
1523615374105,-720896,98,-56,-1,-1,0
1523615374105,-327680,98,-56,-1,-1,0
1523615374105,-589824,98,-56,-1,-1,0
1523615374105,-851968,98,-56,-1,-1,0
1523615374145,-983040,98,-56,-1,-1,0
1523615374145,-786432,98,-56,-1,-1,0
1523615374145,-720896,98,-56,-1,-1,0
1523615374145,-655360,98,-56,-1,-1,0
1523615374145,-524288,98,-56,-1,-1,0
1523615374185,-458752,98,-56,-1,-1,0
1523615374185,-393216,98,-56,-1,-1,0
1523615374185,-196608,98,-56,-1,-1,0
1523615374185,65536,98,-56,-1,-1,0
1523615374185,262144,98,-56,-1,-1,0
1523615374234,393216,98,-56,-1,-1,0
1523615374234,655360,98,-56,-1,-1,0
1523615374234,1179648,98,-56,-1,-1,0
1523615374234,1572864,98,-56,-1,-1,0
1523615374234,1769472,98,-56,-1,-1,0
1523615374265,2031616,98,-56,-1,-1,0
1523615374265,2162688,98,-56,-1,-1,0
1523615374265,1966080,98,-56,-1,-1,0
1523615374265,1769472,98,-56,-1,-1,0
1523615374265,1638400,98,-56,-1,-1,0
1523615374305,1114112,98,-56,-1,-1,0
1523615374305,393216,98,-56,-1,-1,0
1523615374305,0,98,-56,-1,-1,0
1523615374305,-65536,98,-56,-1,-1,0
1523615374305,-196608,98,-56,-1,-1,0
1523615374345,-458752,98,-56,-1,-1,0
1523615374345,-589824,98,-56,-1,-1,0
1523615374345,-589824,98,-56,-1,-1,0
1523615374345,-720896,98,-56,-1,-1,0
1523615374345,-851968,98,-56,-1,-1,0
1523615374385,-851968,98,-56,-1,-1,0
1523615374385,-655360,98,-56,-1,-1,0
1523615374385,-589824,98,-56,-1,-1,0
1523615374385,-589824,98,-56,-1,-1,0
1523615374385,-655360,98,-56,-1,-1,0
1523615374425,-524288,98,-56,-1,-1,0
1523615374425,-655360,98,-56,-1,-1,0
1523615374425,-851968,98,-56,-1,-1,0
1523615374425,-786432,98,-56,-1,-1,0
1523615374425,-589824,98,-56,-1,-1,0
1523615374465,-589824,98,-56,-1,-1,0
1523615374465,-720896,98,-56,-1,-1,0
1523615374465,-786432,98,-56,-1,-1,0
1523615374465,-720896,98,-56,-1,-1,0
1523615374465,-720896,98,-56,-1,-1,0
1523615374505,-851968,98,-56,-1,-1,0
1523615374505,-983040,98,-56,-1,-1,0
1523615374505,-917504,98,-56,-1,-1,0
1523615374505,-720896,98,-56,-1,-1,0
1523615374505,-655360,98,-56,-1,-1,0
1523615374545,-720896,98,-56,-1,-1,0
1523615374545,-786432,98,-56,-1,-1,0
1523615374545,-851968,98,-56,-1,-1,0
1523615374545,-917504,98,-56,-1,-1,0
1523615374545,-983040,98,-56,-1,-1,0
1523615374585,-917504,98,-56,-1,-1,0
1523615374585,-917504,98,-56,-1,-1,0
1523615374585,-1048576,98,-56,-1,-1,0
1523615374585,-1048576,98,-56,-1,-1,0
1523615374585,-983040,98,-56,-1,-1,0
1523615374625,-1048576,98,-56,-1,-1,0
1523615374625,-917504,98,-56,-1,-1,0
1523615374625,327680,98,-56,-1,-1,0
1523615374625,3473408,98,-56,-1,-1,0
1523615374625,6881280,98,-56,-1,-1,0
1523615374665,7340032,98,-56,-1,-1,0
1523615374665,4325376,98,-56,-1,-1,0
1523615374665,851968,98,-56,-1,-1,0
1523615374665,-655360,98,-56,-1,-1,0
1523615374665,-917504,98,-56,-1,-1,0
1523615374705,-786432,98,-56,-1,-1,0
1523615374705,-720896,98,-56,-1,-1,0
1523615374705,-720896,98,-56,-1,-1,0
1523615374705,-786432,98,-56,-1,-1,0
1523615374705,-851968,98,-56,-1,-1,0
1523615374745,-786432,98,-56,-1,-1,0
1523615374745,-720896,98,-56,-1,-1,0
1523615374745,-655360,98,-56,-1,-1,0
1523615374745,-524288,98,-56,-1,-1,0
1523615374745,-458752,98,-56,-1,-1,0
1523615374785,-327680,98,-56,-1,-1,0
1523615374785,-131072,98,-56,-1,-1,0
1523615374785,65536,98,-56,-1,-1,0
1523615374785,327680,98,-56,-1,-1,0
1523615374785,589824,98,-56,-1,-1,0
1523615374825,917504,98,-56,-1,-1,0
1523615374825,1310720,98,-56,-1,-1,0
1523615374825,1638400,98,-56,-1,-1,0
1523615374825,1900544,98,-56,-1,-1,0
1523615374825,2031616,98,-56,-1,-1,0
1523615374874,1835008,98,-56,-1,-1,0
1523615374874,1507328,98,-56,-1,-1,0
1523615374874,1114112,98,-56,-1,-1,0
1523615374874,786432,98,-56,-1,-1,0
1523615374874,327680,98,-56,-1,-1,0
1523615374905,0,98,-56,-1,-1,0
1523615374905,0,98,-56,-1,-1,0
1523615374905,-196608,98,-56,-1,-1,0
1523615374905,-524288,98,-56,-1,-1,0
1523615374905,-720896,98,-56,-1,-1,0
1523615374945,-786432,98,-56,-1,-1,0
1523615374945,-720896,98,-56,-1,-1,0
1523615374945,-786432,98,-56,-1,-1,0
1523615374945,-851968,98,-56,-1,-1,0
1523615374945,-720896,98,-56,-1,-1,0
1523615374985,-589824,98,-56,-1,-1,0
1523615374985,-524288,98,-56,-1,-1,0
1523615374985,-589824,98,-56,-1,-1,0
1523615374985,-720896,98,-56,-1,-1,0
1523615374985,-720896,98,-56,-1,-1,0
1523615375025,-655360,98,-56,-1,-1,0
1523615375025,-655360,98,-56,-1,-1,0
1523615375025,-720896,98,-56,-1,-1,0
1523615375025,-589824,98,-56,-1,-1,0
1523615375025,-589824,98,-56,-1,-1,0
1523615375065,-589824,99,-56,-1,-1,0
1523615375065,-786432,99,-56,-1,-1,0
1523615375065,-917504,99,-56,-1,-1,0
1523615375065,-917504,99,-56,-1,-1,0
1523615375065,-983040,99,-56,-1,-1,0
1523615375105,-983040,99,-56,-1,-1,0
1523615375105,-786432,99,-56,-1,-1,0
1523615375105,-655360,99,-56,-1,-1,0
1523615375105,-720896,99,-56,-1,-1,0
1523615375105,-720896,99,-56,-1,-1,0
1523615375145,-720896,99,-56,-1,-1,0
1523615375145,-851968,99,-56,-1,-1,0
1523615375145,-983040,99,-56,-1,-1,0
1523615375145,-1114112,99,-56,-1,-1,0
1523615375145,-983040,99,-56,-1,-1,0
1523615375185,-983040,99,-56,-1,-1,0
1523615375185,-1114112,99,-56,-1,-1,0
1523615375185,-983040,99,-56,-1,-1,0
1523615375185,-851968,99,-56,-1,-1,0
1523615375185,-1048576,99,-56,-1,-1,0
1523615375225,-327680,99,-56,-1,-1,0
1523615375225,2555904,99,-56,-1,-1,0
1523615375225,6291456,99,-56,-1,-1,0
1523615375225,7405568,99,-56,-1,-1,0
1523615375225,4718592,99,-56,-1,-1,0
1523615375265,1114112,99,-56,-1,-1,0
1523615375265,-655360,99,-56,-1,-1,0
1523615375265,-1048576,99,-56,-1,-1,0
1523615375265,-1048576,99,-56,-1,-1,0
1523615375265,-917504,99,-56,-1,-1,0
1523615375305,-786432,99,-56,-1,-1,0
1523615375305,-720896,99,-56,-1,-1,0
1523615375305,-786432,99,-56,-1,-1,0
1523615375305,-655360,99,-56,-1,-1,0
1523615375305,-589824,99,-56,-1,-1,0
1523615375344,-589824,99,-56,-1,-1,0
1523615375344,-524288,99,-56,-1,-1,0
1523615375344,-393216,99,-56,-1,-1,0
1523615375344,-327680,99,-56,-1,-1,0
1523615375344,-393216,99,-56,-1,-1,0
1523615375385,0,99,-56,-1,-1,0
1523615375385,524288,99,-56,-1,-1,0
1523615375385,917504,99,-56,-1,-1,0
1523615375385,1048576,99,-56,-1,-1,0
1523615375385,1441792,99,-56,-1,-1,0
1523615375425,2031616,99,-56,-1,-1,0
1523615375425,2228224,99,-56,-1,-1,0
1523615375425,2031616,99,-56,-1,-1,0
1523615375425,2031616,99,-56,-1,-1,0
1523615375425,2162688,99,-56,-1,-1,0
1523615375465,1703936,99,-56,-1,-1,0
1523615375465,1048576,99,-56,-1,-1,0
1523615375465,393216,99,-56,-1,-1,0
1523615375465,0,99,-56,-1,-1,0
1523615375465,-262144,99,-56,-1,-1,0
1523615375514,-458752,99,-56,-1,-1,0
1523615375514,-786432,99,-56,-1,-1,0
1523615375514,-1048576,99,-56,-1,-1,0
1523615375514,-983040,99,-56,-1,-1,0
1523615375514,-655360,99,-56,-1,-1,0
1523615375545,-655360,99,-56,-1,-1,0
1523615375545,-786432,99,-56,-1,-1,0
1523615375545,-917504,99,-56,-1,-1,0
1523615375545,-1048576,99,-56,-1,-1,0
1523615375545,-1048576,99,-56,-1,-1,0
1523615375586,-983040,99,-56,-1,-1,0
1523615375586,-851968,99,-56,-1,-1,0
1523615375586,-851968,99,-56,-1,-1,0
1523615375586,-851968,99,-56,-1,-1,0
1523615375586,-851968,99,-56,-1,-1,0
1523615375625,-851968,99,-56,-1,-1,0
1523615375625,-917504,99,-56,-1,-1,0
1523615375625,-917504,99,-56,-1,-1,0
1523615375625,-983040,99,-56,-1,-1,0
1523615375625,-1114112,99,-56,-1,-1,0
1523615375665,-1179648,100,-56,-1,-1,0
1523615375665,-1114112,100,-56,-1,-1,0
1523615375665,-1048576,100,-56,-1,-1,0
1523615375665,-1114112,100,-56,-1,-1,0
1523615375665,-1114112,100,-56,-1,-1,0
1523615375705,-983040,100,-56,-1,-1,0
1523615375705,-917504,100,-56,-1,-1,0
1523615375705,-983040,100,-56,-1,-1,0
1523615375705,-1179648,100,-56,-1,-1,0
1523615375705,-1245184,100,-56,-1,-1,0
1523615375745,-1310720,100,-56,-1,-1,0
1523615375745,-1310720,100,-56,-1,-1,0
1523615375745,-1114112,100,-56,-1,-1,0
1523615375745,-917504,100,-56,-1,-1,0
1523615375745,-917504,100,-56,-1,-1,0
1523615375785,-1048576,100,-56,-1,-1,0
1523615375785,-1048576,100,-56,-1,-1,0
1523615375785,131072,100,-56,-1,-1,0
1523615375785,3342336,100,-56,-1,-1,0
1523615375785,6750208,100,-56,-1,-1,0
1523615375825,6946816,100,-56,-1,-1,0
1523615375825,3473408,100,-56,-1,-1,0
1523615375825,0,100,-56,-1,-1,0
1523615375825,-1179648,100,-56,-1,-1,0
1523615375825,-983040,100,-56,-1,-1,0
1523615375865,-851968,100,-56,-1,-1,0
1523615375865,-983040,100,-56,-1,-1,0
1523615375865,-983040,100,-56,-1,-1,0
1523615375865,-851968,100,-56,-1,-1,0
1523615375865,-786432,100,-56,-1,-1,0
1523615375905,-655360,100,-56,-1,-1,0
1523615375905,-524288,100,-56,-1,-1,0
1523615375905,-589824,100,-56,-1,-1,0
1523615375905,-524288,100,-56,-1,-1,0
1523615375905,-262144,100,-56,-1,-1,0
1523615375945,-131072,100,-56,-1,-1,0
1523615375945,-131072,100,-56,-1,-1,0
1523615375945,65536,100,-56,-1,-1,0
1523615375945,458752,100,-56,-1,-1,0
1523615375945,917504,100,-56,-1,-1,0
1523615375985,1376256,100,-56,-1,-1,0
1523615375985,1900544,100,-56,-1,-1,0
1523615375985,2293760,100,-56,-1,-1,0
1523615375985,2424832,100,-56,-1,-1,0
1523615375985,2490368,100,-56,-1,-1,0
1523615376025,2490368,100,-56,-1,-1,0
1523615376025,2097152,100,-56,-1,-1,0
1523615376025,1507328,100,-56,-1,-1,0
1523615376025,851968,100,-56,-1,-1,0
1523615376025,393216,100,-56,-1,-1,0
1523615376065,0,100,-56,-1,-1,0
1523615376065,-196608,100,-56,-1,-1,0
1523615376065,-327680,100,-56,-1,-1,0
1523615376065,-524288,100,-56,-1,-1,0
1523615376065,-720896,100,-56,-1,-1,0
1523615376105,-720896,100,-56,-1,-1,0
1523615376105,-655360,100,-56,-1,-1,0
1523615376105,-720896,100,-56,-1,-1,0
1523615376105,-786432,100,-56,-1,-1,0
1523615376105,-786432,100,-56,-1,-1,0
1523615376154,-720896,100,-56,-1,-1,0
1523615376154,-655360,100,-56,-1,-1,0
1523615376154,-589824,100,-56,-1,-1,0
1523615376154,-589824,100,-56,-1,-1,0
1523615376154,-589824,100,-56,-1,-1,0
1523615376185,-655360,100,-56,-1,-1,0
1523615376185,-655360,100,-56,-1,-1,0
1523615376185,-524288,100,-56,-1,-1,0
1523615376185,-524288,100,-56,-1,-1,0
1523615376185,-589824,100,-56,-1,-1,0
1523615376225,-589824,100,-56,-1,-1,0
1523615376225,-655360,100,-56,-1,-1,0
1523615376225,-589824,100,-56,-1,-1,0
1523615376225,-524288,100,-56,-1,-1,0
1523615376225,-524288,100,-56,-1,-1,0
1523615376265,-655360,100,-56,-1,-1,0
1523615376265,-655360,100,-56,-1,-1,0
1523615376265,-458752,100,-56,-1,-1,0
1523615376265,-393216,100,-56,-1,-1,0
1523615376265,-589824,100,-56,-1,-1,0
1523615376305,-786432,100,-56,-1,-1,0
1523615376305,-720896,100,-56,-1,-1,0
1523615376305,-589824,100,-56,-1,-1,0
1523615376305,-720896,100,-56,-1,-1,0
1523615376305,-851968,100,-56,-1,-1,0
1523615376345,-917504,100,-56,-1,-1,0
1523615376345,-983040,100,-56,-1,-1,0
1523615376345,-1048576,100,-56,-1,-1,0
1523615376345,-851968,100,-56,-1,-1,0
1523615376345,393216,100,-56,-1,-1,0
1523615376385,3538944,100,-56,-1,-1,0
1523615376385,7143424,100,-56,-1,-1,0
1523615376385,7864320,100,-56,-1,-1,0
1523615376385,4784128,100,-56,-1,-1,0
1523615376385,917504,100,-56,-1,-1,0
1523615376425,-786432,100,-56,-1,-1,0
1523615376425,-917504,100,-56,-1,-1,0
1523615376425,-655360,100,-56,-1,-1,0
1523615376425,-589824,100,-56,-1,-1,0
1523615376425,-851968,100,-56,-1,-1,0
1523615376465,-917504,100,-56,-1,-1,0
1523615376465,-786432,100,-56,-1,-1,0
1523615376465,-589824,100,-56,-1,-1,0
1523615376465,-524288,100,-56,-1,-1,0
1523615376465,-524288,100,-56,-1,-1,0
1523615376505,-458752,100,-56,-1,-1,0
1523615376505,-393216,100,-56,-1,-1,0
1523615376505,-262144,100,-56,-1,-1,0
1523615376505,-65536,100,-56,-1,-1,0
1523615376505,131072,100,-56,-1,-1,0
1523615376545,327680,100,-56,-1,-1,0
1523615376545,655360,100,-56,-1,-1,0
1523615376545,1048576,100,-56,-1,-1,0
1523615376545,1376256,100,-56,-1,-1,0
1523615376545,1703936,100,-56,-1,-1,0
1523615376585,2031616,100,-56,-1,-1,0
1523615376585,2162688,100,-56,-1,-1,0
1523615376585,1966080,100,-56,-1,-1,0
1523615376585,1769472,100,-56,-1,-1,0
1523615376585,1441792,100,-56,-1,-1,0
1523615376625,720896,100,-56,-1,-1,0
1523615376625,0,100,-56,-1,-1,0
1523615376625,-131072,100,-56,-1,-1,0
1523615376625,-65536,100,-56,-1,-1,0
1523615376625,-196608,100,-56,-1,-1,0
1523615376665,-589824,100,-56,-1,-1,0
1523615376665,-786432,100,-56,-1,-1,0
1523615376665,-851968,100,-56,-1,-1,0
1523615376665,-655360,100,-56,-1,-1,0
1523615376665,-786432,100,-56,-1,-1,0
1523615376705,-1114112,100,-56,-1,-1,0
1523615376705,-1114112,100,-56,-1,-1,0
1523615376705,-786432,100,-56,-1,-1,0
1523615376705,-589824,100,-56,-1,-1,0
1523615376705,-589824,100,-56,-1,-1,0
1523615376745,-720896,100,-56,-1,-1,0
1523615376745,-917504,100,-56,-1,-1,0
1523615376745,-851968,100,-56,-1,-1,0
1523615376745,-786432,100,-56,-1,-1,0
1523615376745,-786432,100,-56,-1,-1,0
1523615376794,-720896,100,-56,-1,-1,0
1523615376794,-786432,100,-56,-1,-1,0
1523615376794,-917504,100,-56,-1,-1,0
1523615376794,-983040,100,-56,-1,-1,0
1523615376794,-983040,100,-56,-1,-1,0
1523615376825,-983040,100,-56,-1,-1,0
1523615376825,-786432,100,-56,-1,-1,0
1523615376825,-720896,100,-56,-1,-1,0
1523615376825,-720896,100,-56,-1,-1,0
1523615376825,-786432,100,-56,-1,-1,0
1523615376865,-655360,100,-56,-1,-1,0
1523615376865,-655360,100,-56,-1,-1,0
1523615376865,-917504,100,-56,-1,-1,0
1523615376865,-851968,100,-56,-1,-1,0
1523615376865,-720896,100,-56,-1,-1,0
1523615376905,-983040,100,-56,-1,-1,0
1523615376905,-1048576,100,-56,-1,-1,0
1523615376905,-720896,100,-56,-1,-1,0
1523615376905,-524288,100,-56,-1,-1,0
1523615376905,-655360,100,-56,-1,-1,0
1523615376945,-851968,100,-56,-1,-1,0
1523615376945,0,100,-56,-1,-1,0
1523615376945,2949120,100,-56,-1,-1,0
1523615376945,6881280,100,-56,-1,-1,0
1523615376945,8257536,100,-56,-1,-1,0
1523615376985,5570560,100,-56,-1,-1,0
1523615376985,1703936,100,-56,-1,-1,0
1523615376985,-262144,100,-56,-1,-1,0
1523615376985,-655360,100,-56,-1,-1,0
1523615376985,-589824,100,-56,-1,-1,0
1523615377025,-655360,100,-56,-1,-1,0
1523615377025,-720896,100,-56,-1,-1,0
1523615377025,-720896,100,-56,-1,-1,0
1523615377025,-589824,100,-56,-1,-1,0
1523615377025,-655360,100,-56,-1,-1,0
1523615377065,-720896,100,-56,-1,-1,0
1523615377065,-786432,100,-56,-1,-1,0
1523615377065,-524288,100,-56,-1,-1,0
1523615377065,-196608,100,-56,-1,-1,0
1523615377065,0,100,-56,-1,-1,0
1523615377105,0,100,-56,-1,-1,0
1523615377105,65536,100,-56,-1,-1,0
1523615377105,196608,100,-56,-1,-1,0
1523615377105,393216,100,-56,-1,-1,0
1523615377105,655360,100,-56,-1,-1,0
1523615377145,1310720,100,-56,-1,-1,0
1523615377145,2097152,100,-56,-1,-1,0
1523615377145,2359296,100,-56,-1,-1,0
1523615377145,2228224,100,-56,-1,-1,0
1523615377145,2228224,100,-56,-1,-1,0
1523615377185,2097152,100,-56,-1,-1,0
1523615377185,1507328,100,-56,-1,-1,0
1523615377185,917504,100,-56,-1,-1,0
1523615377185,458752,100,-56,-1,-1,0
1523615377185,196608,100,-56,-1,-1,0
1523615377225,-65536,100,-56,-1,-1,0
1523615377225,-393216,100,-56,-1,-1,0
1523615377225,-655360,100,-56,-1,-1,0
1523615377225,-720896,100,-56,-1,-1,0
1523615377225,-720896,100,-56,-1,-1,0
1523615377265,-786432,100,-56,-1,-1,0
1523615377265,-851968,100,-56,-1,-1,0
1523615377265,-786432,100,-56,-1,-1,0
1523615377265,-655360,100,-56,-1,-1,0
1523615377265,-524288,100,-56,-1,-1,0
1523615377305,-655360,100,-56,-1,-1,0
1523615377305,-720896,100,-56,-1,-1,0
1523615377305,-720896,100,-56,-1,-1,0
1523615377305,-655360,100,-56,-1,-1,0
1523615377305,-655360,100,-56,-1,-1,0
1523615377345,-720896,100,-56,-1,-1,0
1523615377345,-786432,100,-56,-1,-1,0
1523615377345,-786432,100,-56,-1,-1,0
1523615377345,-720896,100,-56,-1,-1,0
1523615377345,-655360,100,-56,-1,-1,0
1523615377385,-786432,101,-56,-1,-1,0
1523615377385,-917504,101,-56,-1,-1,0
1523615377385,-786432,101,-56,-1,-1,0
1523615377385,-720896,101,-56,-1,-1,0
1523615377385,-786432,101,-56,-1,-1,0
1523615377434,-720896,101,-56,-1,-1,0
1523615377434,-655360,101,-56,-1,-1,0
1523615377434,-720896,101,-56,-1,-1,0
1523615377434,-655360,101,-56,-1,-1,0
1523615377434,-786432,101,-56,-1,-1,0
1523615377465,-983040,101,-56,-1,-1,0
1523615377465,-1048576,101,-56,-1,-1,0
1523615377465,-917504,101,-56,-1,-1,0
1523615377465,-720896,101,-56,-1,-1,0
1523615377465,-655360,101,-56,-1,-1,0
1523615377505,-851968,101,-56,-1,-1,0
1523615377505,-851968,101,-56,-1,-1,0
1523615377505,393216,101,-56,-1,-1,0
1523615377505,3735552,101,-56,-1,-1,0
1523615377505,7077888,101,-56,-1,-1,0
1523615377545,7274496,101,-56,-1,-1,0
1523615377545,4128768,101,-56,-1,-1,0
1523615377545,720896,101,-56,-1,-1,0
1523615377545,-524288,101,-56,-1,-1,0
1523615377545,-655360,101,-56,-1,-1,0
1523615377585,-458752,101,-56,-1,-1,0
1523615377585,-458752,101,-56,-1,-1,0
1523615377585,-524288,101,-56,-1,-1,0
1523615377585,-655360,101,-56,-1,-1,0
1523615377585,-655360,101,-56,-1,-1,0
1523615377625,-589824,101,-56,-1,-1,0
1523615377625,-589824,101,-56,-1,-1,0
1523615377625,-458752,101,-56,-1,-1,0
1523615377625,-196608,101,-56,-1,-1,0
1523615377625,0,101,-56,-1,-1,0
1523615377665,65536,101,-56,-1,-1,0
1523615377665,0,101,-56,-1,-1,0
1523615377665,0,101,-56,-1,-1,0
1523615377665,131072,101,-56,-1,-1,0
1523615377665,720896,101,-56,-1,-1,0
1523615377705,1376256,101,-56,-1,-1,0
1523615377705,1900544,101,-56,-1,-1,0
1523615377705,2162688,101,-56,-1,-1,0
1523615377705,2293760,101,-56,-1,-1,0
1523615377705,2293760,101,-56,-1,-1,0
1523615377745,2162688,101,-56,-1,-1,0
1523615377745,1900544,101,-56,-1,-1,0
1523615377745,1310720,101,-56,-1,-1,0
1523615377745,655360,101,-56,-1,-1,0
1523615377745,262144,101,-56,-1,-1,0
1523615377786,131072,101,-56,-1,-1,0
1523615377786,-65536,101,-56,-1,-1,0
1523615377786,-458752,101,-56,-1,-1,0
1523615377786,-786432,101,-56,-1,-1,0
1523615377786,-720896,101,-56,-1,-1,0
1523615377825,-720896,101,-56,-1,-1,0
1523615377825,-851968,101,-56,-1,-1,0
1523615377825,-786432,101,-56,-1,-1,0
1523615377825,-589824,101,-56,-1,-1,0
1523615377825,-524288,101,-56,-1,-1,0
1523615377865,-655360,101,-56,-1,-1,0
1523615377865,-786432,101,-56,-1,-1,0
1523615377865,-851968,101,-56,-1,-1,0
1523615377865,-851968,101,-56,-1,-1,0
1523615377865,-786432,101,-56,-1,-1,0
1523615377905,-786432,101,-56,-1,-1,0
1523615377905,-720896,101,-56,-1,-1,0
1523615377905,-720896,101,-56,-1,-1,0
1523615377905,-786432,101,-56,-1,-1,0
1523615377905,-786432,101,-56,-1,-1,0
1523615377945,-786432,102,-56,-1,-1,0
1523615377945,-917504,102,-56,-1,-1,0
1523615377945,-1048576,102,-56,-1,-1,0
1523615377945,-1179648,102,-56,-1,-1,0
1523615377945,-1179648,102,-56,-1,-1,0
1523615377985,-917504,102,-56,-1,-1,0
1523615377985,-786432,102,-56,-1,-1,0
1523615377985,-851968,102,-56,-1,-1,0
1523615377985,-917504,102,-56,-1,-1,0
1523615377985,-917504,102,-56,-1,-1,0
1523615378025,-983040,102,-56,-1,-1,0
1523615378025,-1048576,102,-56,-1,-1,0
1523615378025,-1114112,102,-56,-1,-1,0
1523615378025,-1179648,102,-56,-1,-1,0
1523615378025,-1114112,102,-56,-1,-1,0
1523615378074,-983040,102,-56,-1,-1,0
1523615378074,-1114112,102,-56,-1,-1,0
1523615378074,-1179648,102,-56,-1,-1,0
1523615378074,0,102,-56,-1,-1,0
1523615378074,3211264,102,-56,-1,-1,0
1523615378105,6684672,102,-56,-1,-1,0
1523615378105,7274496,102,-56,-1,-1,0
1523615378105,4194304,102,-56,-1,-1,0
1523615378105,524288,102,-56,-1,-1,0
1523615378105,-1048576,102,-56,-1,-1,0
1523615378145,-1179648,102,-56,-1,-1,0
1523615378145,-1048576,102,-56,-1,-1,0
1523615378145,-1048576,102,-56,-1,-1,0
1523615378145,-983040,102,-56,-1,-1,0
1523615378145,-786432,102,-56,-1,-1,0
1523615378185,-655360,102,-56,-1,-1,0
1523615378185,-589824,102,-56,-1,-1,0
1523615378185,-655360,102,-56,-1,-1,0
1523615378185,-655360,102,-56,-1,-1,0
1523615378185,-655360,102,-56,-1,-1,0
1523615378225,-393216,102,-56,-1,-1,0
1523615378225,-131072,102,-56,-1,-1,0
1523615378225,0,102,-56,-1,-1,0
1523615378225,0,102,-56,-1,-1,0
1523615378225,327680,102,-56,-1,-1,0
1523615378265,917504,102,-56,-1,-1,0
1523615378265,1507328,102,-56,-1,-1,0
1523615378265,1835008,102,-56,-1,-1,0
1523615378265,2162688,102,-56,-1,-1,0
1523615378265,2424832,102,-56,-1,-1,0
1523615378305,2490368,102,-56,-1,-1,0
1523615378305,2424832,102,-56,-1,-1,0
1523615378305,2162688,102,-56,-1,-1,0
1523615378305,1638400,102,-56,-1,-1,0
1523615378305,983040,102,-56,-1,-1,0
1523615378345,262144,102,-56,-1,-1,0
1523615378345,-131072,102,-56,-1,-1,0
1523615378345,-458752,102,-56,-1,-1,0
1523615378345,-589824,102,-56,-1,-1,0
1523615378345,-720896,102,-56,-1,-1,0
1523615378385,-851968,102,-56,-1,-1,0
1523615378385,-1048576,102,-56,-1,-1,0
1523615378385,-1048576,102,-56,-1,-1,0
1523615378385,-917504,102,-56,-1,-1,0
1523615378385,-786432,102,-56,-1,-1,0
1523615378425,-917504,102,-56,-1,-1,0
1523615378425,-1048576,102,-56,-1,-1,0
1523615378425,-1179648,102,-56,-1,-1,0
1523615378425,-1114112,102,-56,-1,-1,0
1523615378425,-1114112,102,-56,-1,-1,0
1523615378465,-1114112,102,-56,-1,-1,0
1523615378465,-1048576,102,-56,-1,-1,0
1523615378465,-1114112,102,-56,-1,-1,0
1523615378465,-1179648,102,-56,-1,-1,0
1523615378465,-1114112,102,-56,-1,-1,0
1523615378505,-983040,102,-56,-1,-1,0
1523615378505,-917504,102,-56,-1,-1,0
1523615378505,-1114112,102,-56,-1,-1,0
1523615378505,-1245184,102,-56,-1,-1,0
1523615378505,-1245184,102,-56,-1,-1,0
1523615378545,-1179648,102,-56,-1,-1,0
1523615378545,-1114112,102,-56,-1,-1,0
1523615378545,-1179648,102,-56,-1,-1,0
1523615378545,-1179648,102,-56,-1,-1,0
1523615378545,-1179648,102,-56,-1,-1,0
1523615378585,-1179648,102,-56,-1,-1,0
1523615378585,-1245184,102,-56,-1,-1,0
1523615378585,-1376256,102,-56,-1,-1,0
1523615378585,-1441792,102,-56,-1,-1,0
1523615378585,-1310720,102,-56,-1,-1,0
1523615378625,-1310720,102,-56,-1,-1,0
1523615378625,-1376256,102,-56,-1,-1,0
1523615378625,-1572864,102,-56,-1,-1,0
1523615378625,-1507328,102,-56,-1,-1,0
1523615378625,-65536,102,-56,-1,-1,0
1523615378665,3276800,102,-56,-1,-1,0
1523615378665,6815744,102,-56,-1,-1,0
1523615378665,7012352,102,-56,-1,-1,0
1523615378665,3407872,102,-56,-1,-1,0
1523615378665,-327680,102,-56,-1,-1,0
1523615378714,-1572864,102,-56,-1,-1,0
1523615378714,-1376256,102,-56,-1,-1,0
1523615378714,-1114112,102,-56,-1,-1,0
1523615378714,-1048576,102,-56,-1,-1,0
1523615378714,-983040,102,-56,-1,-1,0
1523615378744,-983040,102,-56,-1,-1,0
1523615378744,-851968,102,-56,-1,-1,0
1523615378744,-720896,102,-56,-1,-1,0
1523615378744,-524288,102,-56,-1,-1,0
1523615378744,-393216,102,-56,-1,-1,0
1523615378785,-393216,102,-56,-1,-1,0
1523615378785,-393216,102,-56,-1,-1,0
1523615378785,-196608,102,-56,-1,-1,0
1523615378785,0,102,-56,-1,-1,0
1523615378785,327680,102,-56,-1,-1,0
1523615378825,655360,102,-56,-1,-1,0
1523615378825,917504,102,-56,-1,-1,0
1523615378825,1310720,102,-56,-1,-1,0
1523615378825,1835008,102,-56,-1,-1,0
1523615378825,2293760,102,-56,-1,-1,0
1523615378865,2424832,102,-56,-1,-1,0
1523615378865,2490368,102,-56,-1,-1,0
1523615378865,2424832,102,-56,-1,-1,0
1523615378865,2162688,102,-56,-1,-1,0
1523615378865,1572864,102,-56,-1,-1,0
1523615378905,917504,102,-56,-1,-1,0
1523615378905,393216,102,-56,-1,-1,0
1523615378905,-65536,102,-56,-1,-1,0
1523615378905,-458752,102,-56,-1,-1,0
1523615378905,-524288,102,-56,-1,-1,0
1523615378945,-589824,102,-56,-1,-1,0
1523615378945,-786432,102,-56,-1,-1,0
1523615378945,-917504,102,-56,-1,-1,0
1523615378945,-786432,102,-56,-1,-1,0
1523615378945,-655360,102,-56,-1,-1,0
1523615378985,-655360,102,-56,-1,-1,0
1523615378985,-720896,102,-56,-1,-1,0
1523615378985,-786432,102,-56,-1,-1,0
1523615378985,-851968,102,-56,-1,-1,0
1523615378985,-851968,102,-56,-1,-1,0
1523615379025,-720896,102,-56,-1,-1,0
1523615379025,-655360,102,-56,-1,-1,0
1523615379025,-655360,102,-56,-1,-1,0
1523615379025,-720896,102,-56,-1,-1,0
1523615379025,-720896,102,-56,-1,-1,0
1523615379065,-655360,102,-56,-1,-1,0
1523615379065,-524288,102,-56,-1,-1,0
1523615379065,-589824,102,-56,-1,-1,0
1523615379065,-851968,102,-56,-1,-1,0
1523615379065,-1114112,102,-56,-1,-1,0
1523615379105,-1114112,102,-56,-1,-1,0
1523615379105,-983040,102,-56,-1,-1,0
1523615379105,-786432,102,-56,-1,-1,0
1523615379105,-720896,102,-56,-1,-1,0
1523615379105,-720896,102,-56,-1,-1,0
1523615379145,-655360,102,-56,-1,-1,0
1523615379145,-720896,102,-56,-1,-1,0
1523615379145,-851968,102,-56,-1,-1,0
1523615379145,-983040,102,-56,-1,-1,0
1523615379145,-1048576,102,-56,-1,-1,0
1523615379185,-1048576,102,-56,-1,-1,0
1523615379185,-983040,102,-56,-1,-1,0
1523615379185,-983040,102,-56,-1,-1,0
1523615379185,-851968,102,-56,-1,-1,0
1523615379185,-720896,102,-56,-1,-1,0
1523615379225,-786432,102,-56,-1,-1,0
1523615379225,-196608,102,-56,-1,-1,0
1523615379225,2228224,102,-56,-1,-1,0
1523615379225,5898240,102,-56,-1,-1,0
1523615379225,7995392,102,-56,-1,-1,0
1523615379265,6029312,102,-56,-1,-1,0
1523615379265,1900544,102,-56,-1,-1,0
1523615379265,-720896,102,-56,-1,-1,0
1523615379265,-1310720,102,-56,-1,-1,0
1523615379265,-1114112,102,-56,-1,-1,0
1523615379305,-851968,102,-56,-1,-1,0
1523615379305,-655360,102,-56,-1,-1,0
1523615379305,-720896,102,-56,-1,-1,0
1523615379305,-720896,102,-56,-1,-1,0
1523615379305,-655360,102,-56,-1,-1,0
1523615379354,-524288,102,-56,-1,-1,0
1523615379354,-524288,102,-56,-1,-1,0
1523615379354,-524288,102,-56,-1,-1,0
1523615379354,-524288,102,-56,-1,-1,0
1523615379354,-393216,102,-56,-1,-1,0
1523615379385,-196608,102,-56,-1,-1,0
1523615379385,196608,102,-56,-1,-1,0
1523615379385,589824,102,-56,-1,-1,0
1523615379385,786432,102,-56,-1,-1,0
1523615379385,917504,102,-56,-1,-1,0
1523615379425,1310720,102,-56,-1,-1,0
1523615379425,1703936,102,-56,-1,-1,0
1523615379425,2097152,102,-56,-1,-1,0
1523615379425,2228224,102,-56,-1,-1,0
1523615379425,2031616,102,-56,-1,-1,0
1523615379465,1769472,102,-56,-1,-1,0
1523615379465,1572864,102,-56,-1,-1,0
1523615379465,1310720,102,-56,-1,-1,0
1523615379465,917504,102,-56,-1,-1,0
1523615379465,327680,102,-56,-1,-1,0
1523615379505,-196608,102,-56,-1,-1,0
1523615379505,-524288,102,-56,-1,-1,0
1523615379505,-655360,102,-56,-1,-1,0
1523615379505,-524288,102,-56,-1,-1,0
1523615379505,0,102,-56,-1,-1,0
1523615379545,262144,102,-56,-1,-1,0
1523615379545,-196608,102,-56,-1,-1,0
1523615379545,-917504,102,-56,-1,-1,0
1523615379545,-1245184,102,-56,-1,-1,0
1523615379545,-983040,102,-56,-1,-1,0
1523615379585,-720896,102,-56,-1,-1,0
1523615379585,-262144,102,-56,-1,-1,0
1523615379585,-131072,102,-56,-1,-1,0
1523615379585,-262144,102,-56,-1,-1,0
1523615379585,-327680,102,-56,-1,-1,0
1523615379625,-458752,102,-56,-1,-1,0
1523615379625,-524288,102,-56,-1,-1,0
1523615379625,-327680,102,-56,-1,-1,0
1523615379625,-196608,102,-56,-1,-1,0
1523615379625,-327680,102,-56,-1,-1,0
1523615379665,-589824,102,-56,-1,-1,0
1523615379665,-589824,102,-56,-1,-1,0
1523615379665,-720896,102,-56,-1,-1,0
1523615379665,-917504,102,-56,-1,-1,0
1523615379665,-851968,102,-56,-1,-1,0
1523615379705,-589824,102,-56,-1,-1,0
1523615379705,-393216,102,-56,-1,-1,0
1523615379705,-524288,102,-56,-1,-1,0
1523615379705,-786432,102,-56,-1,-1,0
1523615379705,-720896,102,-56,-1,-1,0
1523615379745,-524288,102,-56,-1,-1,0
1523615379745,-524288,102,-56,-1,-1,0
1523615379745,-720896,102,-56,-1,-1,0
1523615379745,-720896,102,-56,-1,-1,0
1523615379745,-851968,102,-56,-1,-1,0
1523615379785,-851968,102,-56,-1,-1,0
1523615379785,-917504,102,-56,-1,-1,0
1523615379785,-983040,102,-56,-1,-1,0
1523615379785,-917504,102,-56,-1,-1,0
1523615379785,524288,102,-56,-1,-1,0
1523615379825,3932160,102,-56,-1,-1,0
1523615379825,7208960,102,-56,-1,-1,0
1523615379825,7143424,102,-56,-1,-1,0
1523615379825,3866624,102,-56,-1,-1,0
1523615379825,458752,102,-56,-1,-1,0
1523615379865,-655360,102,-56,-1,-1,0
1523615379865,-786432,102,-56,-1,-1,0
1523615379865,-720896,102,-56,-1,-1,0
1523615379865,-786432,102,-56,-1,-1,0
1523615379865,-786432,102,-56,-1,-1,0
1523615379905,-786432,102,-56,-1,-1,0
1523615379905,-655360,102,-56,-1,-1,0
1523615379905,-393216,102,-56,-1,-1,0
1523615379905,-327680,102,-56,-1,-1,0
1523615379905,-458752,102,-56,-1,-1,0
1523615379945,-655360,102,-56,-1,-1,0
1523615379945,-327680,102,-56,-1,-1,0
1523615379945,0,102,-56,-1,-1,0
1523615379945,196608,102,-56,-1,-1,0
1523615379945,262144,102,-56,-1,-1,0
1523615379994,458752,102,-56,-1,-1,0
1523615379994,786432,102,-56,-1,-1,0
1523615379994,1310720,102,-56,-1,-1,0
1523615379994,1638400,102,-56,-1,-1,0
1523615379994,1900544,102,-56,-1,-1,0
1523615380025,2228224,102,-56,-1,-1,0
1523615380025,2359296,102,-56,-1,-1,0
1523615380025,2162688,102,-56,-1,-1,0
1523615380025,1638400,102,-56,-1,-1,0
1523615380025,1376256,102,-56,-1,-1,0
1523615380065,1048576,102,-56,-1,-1,0
1523615380065,524288,102,-56,-1,-1,0
1523615380065,0,102,-56,-1,-1,0
1523615380065,-327680,102,-56,-1,-1,0
1523615380065,-393216,102,-56,-1,-1,0
1523615380105,-655360,102,-56,-1,-1,0
1523615380105,-786432,102,-56,-1,-1,0
1523615380105,-720896,102,-56,-1,-1,0
1523615380105,-720896,102,-56,-1,-1,0
1523615380105,-917504,102,-56,-1,-1,0
1523615380145,-786432,102,-56,-1,-1,0
1523615380145,-589824,102,-56,-1,-1,0
1523615380145,-655360,102,-56,-1,-1,0
1523615380145,-655360,102,-56,-1,-1,0
1523615380145,-655360,102,-56,-1,-1,0
1523615380185,-655360,102,-56,-1,-1,0
1523615380185,-786432,102,-56,-1,-1,0
1523615380185,-786432,102,-56,-1,-1,0
1523615380185,-917504,102,-56,-1,-1,0
1523615380185,-1048576,102,-56,-1,-1,0
1523615380225,-851968,102,-56,-1,-1,0
1523615380225,-458752,102,-56,-1,-1,0
1523615380225,-327680,102,-56,-1,-1,0
1523615380225,-655360,102,-56,-1,-1,0
1523615380225,-851968,102,-56,-1,-1,0
1523615380265,-786432,102,-56,-1,-1,0
1523615380265,-589824,102,-56,-1,-1,0
1523615380265,-524288,102,-56,-1,-1,0
1523615380265,-655360,102,-56,-1,-1,0
1523615380265,-851968,102,-56,-1,-1,0
1523615380305,-720896,102,-56,-1,-1,0
1523615380305,-524288,102,-56,-1,-1,0
1523615380305,-589824,102,-56,-1,-1,0
1523615380305,-786432,102,-56,-1,-1,0
1523615380305,-786432,102,-56,-1,-1,0
1523615380345,-851968,102,-56,-1,-1,0
1523615380345,-917504,102,-56,-1,-1,0
1523615380345,-917504,102,-56,-1,-1,0
1523615380345,-786432,102,-56,-1,-1,0
1523615380345,-720896,102,-56,-1,-1,0
1523615380385,-786432,102,-56,-1,-1,0
1523615380385,-917504,102,-56,-1,-1,0
1523615380385,-393216,102,-56,-1,-1,0
1523615380385,1835008,102,-56,-1,-1,0
1523615380385,5373952,102,-56,-1,-1,0
1523615380425,7602176,102,-56,-1,-1,0
1523615380425,6029312,102,-56,-1,-1,0
1523615380425,2424832,102,-56,-1,-1,0
1523615380425,-131072,102,-56,-1,-1,0
1523615380425,-720896,102,-56,-1,-1,0
1523615380465,-524288,102,-56,-1,-1,0
1523615380465,-458752,102,-56,-1,-1,0
1523615380465,-524288,102,-56,-1,-1,0
1523615380465,-524288,102,-56,-1,-1,0
1523615380465,-458752,102,-56,-1,-1,0
1523615380505,-458752,102,-56,-1,-1,0
1523615380505,-458752,102,-56,-1,-1,0
1523615380505,-458752,102,-56,-1,-1,0
1523615380505,-327680,102,-56,-1,-1,0
1523615380505,-196608,102,-56,-1,-1,0
1523615380545,-65536,102,-56,-1,-1,0
1523615380545,0,102,-56,-1,-1,0
1523615380545,131072,102,-56,-1,-1,0
1523615380545,524288,102,-56,-1,-1,0
1523615380545,786432,102,-56,-1,-1,0
1523615380585,1048576,102,-56,-1,-1,0
1523615380585,1310720,102,-56,-1,-1,0
1523615380585,1703936,102,-56,-1,-1,0
1523615380585,1966080,102,-56,-1,-1,0
1523615380585,2097152,102,-56,-1,-1,0
1523615380634,2162688,102,-56,-1,-1,0
1523615380634,2097152,102,-56,-1,-1,0
1523615380634,1835008,102,-56,-1,-1,0
1523615380634,1376256,102,-56,-1,-1,0
1523615380634,786432,102,-56,-1,-1,0
1523615380665,327680,102,-56,-1,-1,0
1523615380665,0,102,-56,-1,-1,0
1523615380665,-393216,102,-56,-1,-1,0
1523615380665,-589824,102,-56,-1,-1,0
1523615380665,-655360,102,-56,-1,-1,0
1523615380705,-655360,102,-56,-1,-1,0
1523615380705,-720896,102,-56,-1,-1,0
1523615380705,-655360,102,-56,-1,-1,0
1523615380705,-458752,102,-56,-1,-1,0
1523615380705,-458752,102,-56,-1,-1,0
1523615380745,-589824,102,-56,-1,-1,0
1523615380745,-655360,102,-56,-1,-1,0
1523615380745,-524288,102,-56,-1,-1,0
1523615380745,-655360,102,-56,-1,-1,0
1523615380745,-917504,102,-56,-1,-1,0
1523615380785,-983040,102,-56,-1,-1,0
1523615380785,-655360,102,-56,-1,-1,0
1523615380785,-524288,102,-56,-1,-1,0
1523615380785,-589824,102,-56,-1,-1,0
1523615380785,-720896,102,-56,-1,-1,0
1523615380825,-851968,102,-56,-1,-1,0
1523615380825,-786432,102,-56,-1,-1,0
1523615380825,-786432,102,-56,-1,-1,0
1523615380825,-1048576,102,-56,-1,-1,0
1523615380825,-1245184,102,-56,-1,-1,0
1523615380865,-1048576,102,-56,-1,-1,0
1523615380865,-917504,102,-56,-1,-1,0
1523615380865,-851968,102,-56,-1,-1,0
1523615380865,-786432,102,-56,-1,-1,0
1523615380865,-786432,102,-56,-1,-1,0
1523615380905,-720896,102,-56,-1,-1,0
1523615380905,-655360,102,-56,-1,-1,0
1523615380905,-851968,102,-56,-1,-1,0
1523615380905,-1048576,102,-56,-1,-1,0
1523615380905,-1114112,102,-56,-1,-1,0
1523615380945,-1048576,102,-56,-1,-1,0
1523615380945,-1048576,102,-56,-1,-1,0
1523615380945,-1048576,102,-56,-1,-1,0
1523615380945,-1048576,102,-56,-1,-1,0
1523615380945,-1048576,102,-56,-1,-1,0
1523615380985,-1179648,102,-56,-1,-1,0
1523615380985,-1048576,102,-56,-1,-1,0
1523615380985,393216,102,-56,-1,-1,0
1523615380985,3604480,102,-56,-1,-1,0
1523615380985,6881280,102,-56,-1,-1,0
1523615381025,6946816,102,-56,-1,-1,0
1523615381025,3538944,102,-56,-1,-1,0
1523615381025,0,102,-56,-1,-1,0
1523615381025,-1179648,102,-56,-1,-1,0
1523615381025,-1179648,102,-56,-1,-1,0
1523615381065,-983040,102,-56,-1,-1,0
1523615381065,-983040,102,-56,-1,-1,0
1523615381065,-1048576,102,-56,-1,-1,0
1523615381065,-917504,102,-56,-1,-1,0
1523615381065,-720896,102,-56,-1,-1,0
1523615381105,-655360,102,-56,-1,-1,0
1523615381105,-589824,102,-56,-1,-1,0
1523615381105,-458752,102,-56,-1,-1,0
1523615381105,-393216,102,-56,-1,-1,0
1523615381105,-458752,102,-56,-1,-1,0
1523615381145,-393216,102,-56,-1,-1,0
1523615381145,-196608,102,-56,-1,-1,0
1523615381145,65536,102,-56,-1,-1,0
1523615381145,393216,102,-56,-1,-1,0
1523615381145,720896,102,-56,-1,-1,0
1523615381185,1245184,102,-56,-1,-1,0
1523615381185,1769472,102,-56,-1,-1,0
1523615381185,2097152,102,-56,-1,-1,0
1523615381185,2097152,102,-56,-1,-1,0
1523615381185,2293760,102,-56,-1,-1,0
1523615381225,2424832,102,-56,-1,-1,0
1523615381225,2097152,102,-56,-1,-1,0
1523615381225,1441792,102,-56,-1,-1,0
1523615381225,917504,102,-56,-1,-1,0
1523615381225,393216,102,-56,-1,-1,0
1523615381274,-65536,102,-56,-1,-1,0
1523615381274,-589824,102,-56,-1,-1,0
1523615381274,-917504,102,-56,-1,-1,0
1523615381274,-1048576,102,-56,-1,-1,0
1523615381274,-1114112,102,-56,-1,-1,0
1523615381305,-1114112,102,-56,-1,-1,0
1523615381305,-1048576,102,-56,-1,-1,0
1523615381305,-1179648,102,-56,-1,-1,0
1523615381305,-1310720,102,-56,-1,-1,0
1523615381305,-1310720,102,-56,-1,-1,0
1523615381345,-1179648,102,-56,-1,-1,0
1523615381345,-1114112,102,-56,-1,-1,0
1523615381345,-917504,102,-56,-1,-1,0
1523615381345,-720896,102,-56,-1,-1,0
1523615381345,-720896,102,-56,-1,-1,0
1523615381385,-851968,102,-56,-1,-1,0
1523615381385,-983040,102,-56,-1,-1,0
1523615381385,-983040,102,-56,-1,-1,0
1523615381385,-983040,102,-56,-1,-1,0
1523615381385,-1114112,102,-56,-1,-1,0
1523615381425,-1245184,102,-56,-1,-1,0
1523615381425,-1245184,102,-56,-1,-1,0
1523615381425,-1179648,102,-56,-1,-1,0
1523615381425,-1114112,102,-56,-1,-1,0
1523615381425,-1048576,102,-56,-1,-1,0
1523615381465,-1179648,102,-56,-1,-1,0
1523615381465,-1179648,102,-56,-1,-1,0
1523615381465,-917504,102,-56,-1,-1,0
1523615381465,-786432,102,-56,-1,-1,0
1523615381465,-983040,102,-56,-1,-1,0
1523615381505,-1179648,102,-56,-1,-1,0
1523615381505,-1179648,102,-56,-1,-1,0
1523615381505,-1179648,102,-56,-1,-1,0
1523615381505,-1048576,102,-56,-1,-1,0
1523615381505,-983040,102,-56,-1,-1,0
1523615381545,-1048576,102,-56,-1,-1,0
1523615381545,-851968,102,-56,-1,-1,0
1523615381545,-655360,102,-56,-1,-1,0
1523615381545,-851968,102,-56,-1,-1,0
1523615381545,-1114112,102,-56,-1,-1,0
1523615381585,-524288,102,-56,-1,-1,0
1523615381585,1703936,102,-56,-1,-1,0
1523615381585,5308416,102,-56,-1,-1,0
1523615381585,7733248,102,-56,-1,-1,0
1523615381585,6225920,102,-56,-1,-1,0
1523615381625,2228224,102,-56,-1,-1,0
1523615381625,-589824,102,-56,-1,-1,0
1523615381625,-983040,102,-56,-1,-1,0
1523615381625,-655360,102,-56,-1,-1,0
1523615381625,-589824,102,-56,-1,-1,0
1523615381664,-589824,102,-56,-1,-1,0
1523615381664,-589824,102,-56,-1,-1,0
1523615381664,-524288,102,-56,-1,-1,0
1523615381664,-327680,102,-56,-1,-1,0
1523615381664,-196608,102,-56,-1,-1,0
1523615381705,-327680,102,-56,-1,-1,0
1523615381705,-393216,102,-56,-1,-1,0
1523615381705,-131072,102,-56,-1,-1,0
1523615381705,196608,102,-56,-1,-1,0
1523615381705,327680,102,-56,-1,-1,0
1523615381747,458752,102,-56,-1,-1,0
1523615381747,655360,102,-56,-1,-1,0
1523615381747,983040,102,-56,-1,-1,0
1523615381747,1310720,102,-56,-1,-1,0
1523615381747,1703936,102,-56,-1,-1,0
1523615381785,2228224,102,-56,-1,-1,0
1523615381785,2490368,102,-56,-1,-1,0
1523615381785,2621440,102,-56,-1,-1,0
1523615381785,2621440,102,-56,-1,-1,0
1523615381785,2490368,102,-56,-1,-1,0
1523615381825,2162688,102,-56,-1,-1,0
1523615381825,1703936,102,-56,-1,-1,0
1523615381825,1048576,102,-56,-1,-1,0
1523615381825,327680,102,-56,-1,-1,0
1523615381825,0,102,-56,-1,-1,0
1523615381865,0,102,-56,-1,-1,0
1523615381865,-131072,102,-56,-1,-1,0
1523615381865,-458752,102,-56,-1,-1,0
1523615381865,-589824,102,-56,-1,-1,0
1523615381865,-458752,102,-56,-1,-1,0
1523615381914,-262144,102,-56,-1,-1,0
1523615381914,-131072,102,-56,-1,-1,0
1523615381914,-262144,102,-56,-1,-1,0
1523615381914,-589824,102,-56,-1,-1,0
1523615381914,-786432,102,-56,-1,-1,0
1523615381945,-983040,102,-56,-1,-1,0
1523615381945,-851968,102,-56,-1,-1,0
1523615381945,-589824,102,-56,-1,-1,0
1523615381945,-327680,102,-56,-1,-1,0
1523615381945,-458752,102,-56,-1,-1,0
1523615381985,-524288,102,-56,-1,-1,0
1523615381985,-524288,102,-56,-1,-1,0
1523615381985,-655360,102,-56,-1,-1,0
1523615381985,-655360,102,-56,-1,-1,0
1523615381985,-589824,102,-56,-1,-1,0
1523615382025,-655360,102,-56,-1,-1,0
1523615382025,-786432,102,-56,-1,-1,0
1523615382025,-917504,102,-56,-1,-1,0
1523615382025,-917504,102,-56,-1,-1,0
1523615382025,-720896,102,-56,-1,-1,0
1523615382064,-458752,102,-56,-1,-1,0
1523615382064,-655360,102,-56,-1,-1,0
1523615382064,-983040,102,-56,-1,-1,0
1523615382064,-1179648,102,-56,-1,-1,0
1523615382064,-1114112,102,-56,-1,-1,0
1523615382105,-983040,102,-56,-1,-1,0
1523615382105,-720896,102,-56,-1,-1,0
1523615382105,-720896,102,-56,-1,-1,0
1523615382105,-786432,102,-56,-1,-1,0
1523615382105,-851968,102,-56,-1,-1,0
1523615382144,-1114112,102,-56,-1,-1,0
1523615382144,-1310720,102,-56,-1,-1,0
1523615382144,-1376256,102,-56,-1,-1,0
1523615382144,-1507328,102,-56,-1,-1,0
1523615382144,-1507328,102,-56,-1,-1,0
1523615382185,-1179648,102,-56,-1,-1,0
1523615382185,262144,102,-56,-1,-1,0
1523615382185,3801088,102,-56,-1,-1,0
1523615382185,7340032,102,-56,-1,-1,0
1523615382185,7208960,102,-56,-1,-1,0
1523615382224,3670016,102,-56,-1,-1,0
1523615382224,0,102,-56,-1,-1,0
1523615382224,-1179648,102,-56,-1,-1,0
1523615382224,-1114112,102,-56,-1,-1,0
1523615382224,-917504,102,-56,-1,-1,0
1523615382265,-983040,102,-56,-1,-1,0
1523615382265,-851968,102,-56,-1,-1,0
1523615382265,-655360,102,-56,-1,-1,0
1523615382265,-786432,102,-56,-1,-1,0
1523615382265,-983040,102,-56,-1,-1,0
1523615382304,-917504,102,-56,-1,-1,0
1523615382304,-720896,102,-56,-1,-1,0
1523615382304,-655360,102,-56,-1,-1,0
1523615382304,-655360,102,-56,-1,-1,0
1523615382304,-589824,102,-56,-1,-1,0
1523615382345,-524288,102,-56,-1,-1,0
1523615382345,-196608,102,-56,-1,-1,0
1523615382345,262144,102,-56,-1,-1,0
1523615382345,655360,102,-56,-1,-1,0
1523615382345,917504,102,-56,-1,-1,0
1523615382384,1310720,102,-56,-1,-1,0
1523615382384,1769472,102,-56,-1,-1,0
1523615382384,2031616,102,-56,-1,-1,0
1523615382384,2097152,102,-56,-1,-1,0
1523615382384,1966080,102,-56,-1,-1,0
1523615382425,1507328,102,-56,-1,-1,0
1523615382425,983040,102,-56,-1,-1,0
1523615382425,589824,102,-56,-1,-1,0
1523615382425,327680,102,-56,-1,-1,0
1523615382425,0,102,-56,-1,-1,0
1523615382464,-393216,102,-56,-1,-1,0
1523615382464,-655360,102,-56,-1,-1,0
1523615382464,-655360,102,-56,-1,-1,0
1523615382464,-655360,102,-56,-1,-1,0
1523615382464,-851968,102,-56,-1,-1,0
1523615382505,-851968,102,-56,-1,-1,0
1523615382505,-720896,102,-56,-1,-1,0
1523615382505,-720896,102,-56,-1,-1,0
1523615382505,-851968,102,-56,-1,-1,0
1523615382505,-917504,102,-56,-1,-1,0
1523615382554,-786432,102,-56,-1,-1,0
1523615382554,-720896,102,-56,-1,-1,0
1523615382554,-917504,102,-56,-1,-1,0
1523615382554,-983040,102,-56,-1,-1,0
1523615382554,-786432,102,-56,-1,-1,0
1523615382585,-655360,102,-56,-1,-1,0
1523615382585,-720896,102,-56,-1,-1,0
1523615382585,-720896,102,-56,-1,-1,0
1523615382585,-786432,102,-56,-1,-1,0
1523615382585,-786432,102,-56,-1,-1,0
1523615382624,-786432,103,-56,-1,-1,0
1523615382624,-786432,103,-56,-1,-1,0
1523615382624,-917504,103,-56,-1,-1,0
1523615382624,-983040,103,-56,-1,-1,0
1523615382624,-917504,103,-56,-1,-1,0
1523615382665,-655360,103,-56,-1,-1,0
1523615382665,-589824,103,-56,-1,-1,0
1523615382665,-720896,103,-56,-1,-1,0
1523615382665,-720896,103,-56,-1,-1,0
1523615382665,-786432,103,-56,-1,-1,0
1523615382704,-917504,103,-56,-1,-1,0
1523615382704,-917504,103,-56,-1,-1,0
1523615382704,-851968,103,-56,-1,-1,0
1523615382704,-983040,103,-56,-1,-1,0
1523615382704,-983040,103,-56,-1,-1,0
1523615382744,-851968,103,-56,-1,-1,0
1523615382744,-851968,103,-56,-1,-1,0
1523615382744,-917504,103,-56,-1,-1,0
1523615382744,0,103,-56,-1,-1,0
1523615382744,2752512,103,-56,-1,-1,0
1523615382784,6160384,103,-56,-1,-1,0
1523615382784,7143424,103,-56,-1,-1,0
1523615382784,4521984,103,-56,-1,-1,0
1523615382784,1048576,103,-56,-1,-1,0
1523615382784,-524288,103,-56,-1,-1,0
1523615382825,-720896,103,-56,-1,-1,0
1523615382825,-655360,103,-56,-1,-1,0
1523615382825,-786432,103,-56,-1,-1,0
1523615382825,-917504,103,-56,-1,-1,0
1523615382825,-851968,103,-56,-1,-1,0
1523615382864,-655360,103,-56,-1,-1,0
1523615382864,-655360,103,-56,-1,-1,0
1523615382864,-655360,103,-56,-1,-1,0
1523615382864,-524288,103,-56,-1,-1,0
1523615382864,-262144,103,-56,-1,-1,0
1523615382905,-196608,103,-56,-1,-1,0
1523615382905,-131072,103,-56,-1,-1,0
1523615382905,0,103,-56,-1,-1,0
1523615382905,131072,103,-56,-1,-1,0
1523615382905,262144,103,-56,-1,-1,0
1523615382944,655360,103,-56,-1,-1,0
1523615382944,1114112,103,-56,-1,-1,0
1523615382944,1441792,103,-56,-1,-1,0
1523615382944,1703936,103,-56,-1,-1,0
1523615382944,1966080,103,-56,-1,-1,0
1523615382985,2031616,103,-56,-1,-1,0
1523615382985,2097152,103,-56,-1,-1,0
1523615382985,1966080,103,-56,-1,-1,0
1523615382985,1572864,103,-56,-1,-1,0
1523615382985,917504,103,-56,-1,-1,0
1523615383024,393216,103,-56,-1,-1,0
1523615383024,65536,103,-56,-1,-1,0
1523615383024,0,103,-56,-1,-1,0
1523615383024,-196608,103,-56,-1,-1,0
1523615383024,-393216,103,-56,-1,-1,0
1523615383065,-524288,103,-56,-1,-1,0
1523615383065,-524288,103,-56,-1,-1,0
1523615383065,-589824,103,-56,-1,-1,0
1523615383065,-720896,103,-56,-1,-1,0
1523615383065,-720896,103,-56,-1,-1,0
1523615383104,-589824,103,-56,-1,-1,0
1523615383104,-458752,103,-56,-1,-1,0
1523615383104,-589824,103,-56,-1,-1,0
1523615383104,-655360,103,-56,-1,-1,0
1523615383104,-589824,103,-56,-1,-1,0
1523615383145,-524288,103,-56,-1,-1,0
1523615383145,-589824,103,-56,-1,-1,0
1523615383145,-655360,103,-56,-1,-1,0
1523615383145,-655360,103,-56,-1,-1,0
1523615383145,-589824,103,-56,-1,-1,0
1523615383194,-655360,103,-56,-1,-1,0
1523615383194,-655360,103,-56,-1,-1,0
1523615383194,-655360,103,-56,-1,-1,0
1523615383194,-720896,103,-56,-1,-1,0
1523615383194,-851968,103,-56,-1,-1,0
1523615383224,-851968,103,-56,-1,-1,0
1523615383224,-786432,103,-56,-1,-1,0
1523615383224,-720896,103,-56,-1,-1,0
1523615383224,-655360,103,-56,-1,-1,0
1523615383224,-655360,103,-56,-1,-1,0
1523615383264,-655360,103,-56,-1,-1,0
1523615383264,-720896,103,-56,-1,-1,0
1523615383264,-720896,103,-56,-1,-1,0
1523615383264,-851968,103,-56,-1,-1,0
1523615383264,-1048576,103,-56,-1,-1,0
1523615383304,-1048576,103,-56,-1,-1,0
1523615383304,-917504,103,-56,-1,-1,0
1523615383304,-851968,103,-56,-1,-1,0
1523615383304,-917504,103,-56,-1,-1,0
1523615383304,-917504,103,-56,-1,-1,0
1523615383344,-720896,103,-56,-1,-1,0
1523615383344,917504,103,-56,-1,-1,0
1523615383344,4390912,103,-56,-1,-1,0
1523615383344,7143424,103,-56,-1,-1,0
1523615383344,6225920,103,-56,-1,-1,0
1523615383384,2818048,103,-56,-1,-1,0
1523615383384,0,103,-56,-1,-1,0
1523615383384,-720896,103,-56,-1,-1,0
1523615383384,-851968,103,-56,-1,-1,0
1523615383384,-720896,103,-56,-1,-1,0
1523615383424,-655360,103,-56,-1,-1,0
1523615383424,-589824,103,-56,-1,-1,0
1523615383424,-655360,103,-56,-1,-1,0
1523615383424,-655360,103,-56,-1,-1,0
1523615383424,-589824,103,-56,-1,-1,0
1523615383464,-589824,103,-56,-1,-1,0
1523615383464,-589824,103,-56,-1,-1,0
1523615383464,-393216,103,-56,-1,-1,0
1523615383464,-131072,103,-56,-1,-1,0
1523615383464,0,103,-56,-1,-1,0
1523615383504,0,103,-56,-1,-1,0
1523615383504,131072,103,-56,-1,-1,0
1523615383504,393216,103,-56,-1,-1,0
1523615383504,720896,103,-56,-1,-1,0
1523615383504,1114112,103,-56,-1,-1,0
1523615383544,1638400,103,-56,-1,-1,0
1523615383544,1966080,103,-56,-1,-1,0
1523615383544,2162688,103,-56,-1,-1,0
1523615383544,2228224,103,-56,-1,-1,0
1523615383544,2293760,103,-56,-1,-1,0
1523615383584,1900544,103,-56,-1,-1,0
1523615383584,1376256,103,-56,-1,-1,0
1523615383584,851968,103,-56,-1,-1,0
1523615383584,458752,103,-56,-1,-1,0
1523615383584,0,103,-56,-1,-1,0
1523615383624,-393216,103,-56,-1,-1,0
1523615383624,-589824,103,-56,-1,-1,0
1523615383624,-589824,103,-56,-1,-1,0
1523615383624,-786432,103,-56,-1,-1,0
1523615383624,-917504,103,-56,-1,-1,0
1523615383664,-917504,103,-56,-1,-1,0
1523615383664,-786432,103,-56,-1,-1,0
1523615383664,-786432,103,-56,-1,-1,0
1523615383664,-917504,103,-56,-1,-1,0
1523615383664,-917504,103,-56,-1,-1,0
1523615383704,-851968,103,-56,-1,-1,0
1523615383704,-851968,103,-56,-1,-1,0
1523615383704,-917504,103,-56,-1,-1,0
1523615383704,-917504,103,-56,-1,-1,0
1523615383704,-851968,103,-56,-1,-1,0
1523615383744,-786432,103,-56,-1,-1,0
1523615383744,-786432,103,-56,-1,-1,0
1523615383744,-786432,103,-56,-1,-1,0
1523615383744,-786432,103,-56,-1,-1,0
1523615383744,-786432,103,-56,-1,-1,0
1523615383784,-1048576,103,-56,-1,-1,0
1523615383784,-1179648,103,-56,-1,-1,0
1523615383784,-1048576,103,-56,-1,-1,0
1523615383784,-917504,103,-56,-1,-1,0
1523615383784,-851968,103,-56,-1,-1,0
1523615383833,-720896,103,-56,-1,-1,0
1523615383833,-589824,103,-56,-1,-1,0
1523615383833,-589824,103,-56,-1,-1,0
1523615383833,-720896,103,-56,-1,-1,0
1523615383833,-1048576,103,-56,-1,-1,0
1523615383864,-1310720,103,-56,-1,-1,0
1523615383864,-1310720,103,-56,-1,-1,0
1523615383864,-1114112,103,-56,-1,-1,0
1523615383864,-983040,103,-56,-1,-1,0
1523615383864,-983040,103,-56,-1,-1,0
1523615383904,-1114112,103,-56,-1,-1,0
1523615383904,-1048576,103,-56,-1,-1,0
1523615383904,-851968,103,-56,-1,-1,0
1523615383904,458752,103,-56,-1,-1,0
1523615383904,3538944,103,-56,-1,-1,0
1523615383944,6750208,103,-56,-1,-1,0
1523615383944,6815744,103,-56,-1,-1,0
1523615383944,3538944,103,-56,-1,-1,0
1523615383944,65536,103,-56,-1,-1,0
1523615383944,-1048576,103,-56,-1,-1,0
1523615383984,-851968,103,-56,-1,-1,0
1523615383984,-655360,103,-56,-1,-1,0
1523615383984,-720896,103,-56,-1,-1,0
1523615383984,-786432,103,-56,-1,-1,0
1523615383984,-851968,103,-56,-1,-1,0
1523615384024,-655360,103,-56,-1,-1,0
1523615384024,-458752,103,-56,-1,-1,0
1523615384024,-393216,103,-56,-1,-1,0
1523615384024,-327680,103,-56,-1,-1,0
1523615384024,-196608,103,-56,-1,-1,0
1523615384064,-196608,103,-56,-1,-1,0
1523615384064,-65536,103,-56,-1,-1,0
1523615384064,131072,103,-56,-1,-1,0
1523615384064,458752,103,-56,-1,-1,0
1523615384064,720896,103,-56,-1,-1,0
1523615384104,983040,103,-56,-1,-1,0
1523615384104,1179648,103,-56,-1,-1,0
1523615384104,1638400,103,-56,-1,-1,0
1523615384104,2162688,103,-56,-1,-1,0
1523615384104,2490368,103,-56,-1,-1,0
1523615384144,2555904,103,-56,-1,-1,0
1523615384144,2359296,103,-56,-1,-1,0
1523615384144,2031616,103,-56,-1,-1,0
1523615384144,1638400,103,-56,-1,-1,0
1523615384144,1245184,103,-56,-1,-1,0
1523615384184,786432,103,-56,-1,-1,0
1523615384184,262144,103,-56,-1,-1,0
1523615384184,-131072,103,-56,-1,-1,0
1523615384184,-393216,103,-56,-1,-1,0
1523615384184,-458752,103,-56,-1,-1,0
1523615384224,-589824,103,-56,-1,-1,0
1523615384224,-655360,103,-56,-1,-1,0
1523615384224,-589824,103,-56,-1,-1,0
1523615384224,-655360,103,-56,-1,-1,0
1523615384224,-720896,103,-56,-1,-1,0
1523615384266,-655360,103,-56,-1,-1,0
1523615384266,-589824,103,-56,-1,-1,0
1523615384266,-589824,103,-56,-1,-1,0
1523615384266,-524288,103,-56,-1,-1,0
1523615384266,-589824,103,-56,-1,-1,0
1523615384305,-589824,103,-56,-1,-1,0
1523615384305,-655360,103,-56,-1,-1,0
1523615384305,-655360,103,-56,-1,-1,0
1523615384305,-655360,103,-56,-1,-1,0
1523615384305,-524288,103,-56,-1,-1,0
1523615384344,-524288,103,-56,-1,-1,0
1523615384344,-589824,103,-56,-1,-1,0
1523615384344,-786432,103,-56,-1,-1,0
1523615384344,-851968,103,-56,-1,-1,0
1523615384344,-851968,103,-56,-1,-1,0
1523615384384,-720896,103,-56,-1,-1,0
1523615384384,-589824,103,-56,-1,-1,0
1523615384384,-589824,103,-56,-1,-1,0
1523615384384,-655360,103,-56,-1,-1,0
1523615384384,-655360,103,-56,-1,-1,0
1523615384424,-786432,103,-56,-1,-1,0
1523615384424,-983040,103,-56,-1,-1,0
1523615384424,-1114112,103,-56,-1,-1,0
1523615384424,-1114112,103,-56,-1,-1,0
1523615384424,-917504,103,-56,-1,-1,0
1523615384473,-720896,103,-56,-1,-1,0
1523615384473,-786432,103,-56,-1,-1,0
1523615384473,-851968,103,-56,-1,-1,0
1523615384473,-786432,103,-56,-1,-1,0
1523615384473,-917504,103,-56,-1,-1,0
1523615384504,-1048576,103,-56,-1,-1,0
1523615384504,-131072,103,-56,-1,-1,0
1523615384504,2818048,103,-56,-1,-1,0
1523615384504,6356992,103,-56,-1,-1,0
1523615384504,7143424,103,-56,-1,-1,0
1523615384544,4259840,103,-56,-1,-1,0
1523615384544,720896,103,-56,-1,-1,0
1523615384544,-851968,103,-56,-1,-1,0
1523615384544,-851968,103,-56,-1,-1,0
1523615384544,-720896,103,-56,-1,-1,0
1523615384584,-983040,103,-56,-1,-1,0
1523615384584,-1114112,103,-56,-1,-1,0
1523615384584,-720896,103,-56,-1,-1,0
1523615384584,-196608,103,-56,-1,-1,0
1523615384584,-262144,103,-56,-1,-1,0
1523615384624,-851968,103,-56,-1,-1,0
1523615384624,-917504,103,-56,-1,-1,0
1523615384624,-65536,103,-56,-1,-1,0
1523615384624,458752,103,-56,-1,-1,0
1523615384624,65536,103,-56,-1,-1,0
1523615384664,0,103,-56,-1,-1,0
1523615384664,262144,103,-56,-1,-1,0
1523615384664,262144,103,-56,-1,-1,0
1523615384664,196608,103,-56,-1,-1,0
1523615384664,524288,103,-56,-1,-1,0
1523615384704,983040,103,-56,-1,-1,0
1523615384704,1507328,103,-56,-1,-1,0
1523615384704,2031616,103,-56,-1,-1,0
1523615384704,2359296,103,-56,-1,-1,0
1523615384704,2293760,103,-56,-1,-1,0
1523615384744,1966080,103,-56,-1,-1,0
1523615384744,1376256,103,-56,-1,-1,0
1523615384744,851968,103,-56,-1,-1,0
1523615384744,524288,103,-56,-1,-1,0
1523615384744,196608,103,-56,-1,-1,0
1523615384784,-327680,103,-56,-1,-1,0
1523615384784,-458752,103,-56,-1,-1,0
1523615384784,-327680,103,-56,-1,-1,0
1523615384784,-393216,103,-56,-1,-1,0
1523615384784,-786432,103,-56,-1,-1,0
1523615384824,-720896,103,-56,-1,-1,0
1523615384824,-524288,103,-56,-1,-1,0
1523615384824,-393216,103,-56,-1,-1,0
1523615384824,-458752,103,-56,-1,-1,0
1523615384824,-524288,103,-56,-1,-1,0
1523615384864,-589824,103,-56,-1,-1,0
1523615384864,-655360,103,-56,-1,-1,0
1523615384864,-524288,103,-56,-1,-1,0
1523615384864,-458752,103,-56,-1,-1,0
1523615384864,-589824,103,-56,-1,-1,0
1523615384904,-786432,103,-56,-1,-1,0
1523615384904,-720896,103,-56,-1,-1,0
1523615384904,-524288,103,-56,-1,-1,0
1523615384904,-393216,103,-56,-1,-1,0
1523615384904,-524288,103,-56,-1,-1,0
1523615384944,-720896,104,-56,-1,-1,0
1523615384944,-589824,104,-56,-1,-1,0
1523615384944,-524288,104,-56,-1,-1,0
1523615384944,-786432,104,-56,-1,-1,0
1523615384944,-917504,104,-56,-1,-1,0
1523615384984,-655360,104,-56,-1,-1,0
1523615384984,-458752,104,-56,-1,-1,0
1523615384984,-458752,104,-56,-1,-1,0
1523615384984,-524288,104,-56,-1,-1,0
1523615384984,-720896,104,-56,-1,-1,0
1523615385024,-851968,104,-56,-1,-1,0
1523615385024,-851968,104,-56,-1,-1,0
1523615385024,-786432,104,-56,-1,-1,0
1523615385024,-917504,104,-56,-1,-1,0
1523615385024,-983040,104,-56,-1,-1,0
1523615385064,-851968,104,-56,-1,-1,0
1523615385064,-786432,104,-56,-1,-1,0
1523615385064,-524288,104,-56,-1,-1,0
1523615385064,917504,104,-56,-1,-1,0
1523615385064,4194304,104,-56,-1,-1,0
1523615385113,7077888,104,-56,-1,-1,0
1523615385113,6684672,104,-56,-1,-1,0
1523615385113,3407872,104,-56,-1,-1,0
1523615385113,327680,104,-56,-1,-1,0
1523615385113,-655360,104,-56,-1,-1,0
1523615385144,-655360,104,-56,-1,-1,0
1523615385144,-393216,104,-56,-1,-1,0
1523615385144,-393216,104,-56,-1,-1,0
1523615385144,-458752,104,-56,-1,-1,0
1523615385144,-524288,104,-56,-1,-1,0
1523615385184,-458752,104,-56,-1,-1,0
1523615385184,-524288,104,-56,-1,-1,0
1523615385184,-458752,104,-56,-1,-1,0
1523615385184,-327680,104,-56,-1,-1,0
1523615385184,-196608,104,-56,-1,-1,0
1523615385224,65536,104,-56,-1,-1,0
1523615385224,327680,104,-56,-1,-1,0
1523615385224,262144,104,-56,-1,-1,0
1523615385224,393216,104,-56,-1,-1,0
1523615385224,720896,104,-56,-1,-1,0
1523615385264,983040,104,-56,-1,-1,0
1523615385264,1114112,104,-56,-1,-1,0
1523615385264,1572864,104,-56,-1,-1,0
1523615385264,2031616,104,-56,-1,-1,0
1523615385264,2162688,104,-56,-1,-1,0
1523615385304,2162688,104,-56,-1,-1,0
1523615385304,2097152,104,-56,-1,-1,0
1523615385304,1769472,104,-56,-1,-1,0
1523615385304,1376256,104,-56,-1,-1,0
1523615385304,917504,104,-56,-1,-1,0
1523615385344,458752,104,-56,-1,-1,0
1523615385344,0,104,-56,-1,-1,0
1523615385344,-327680,104,-56,-1,-1,0
1523615385344,-524288,104,-56,-1,-1,0
1523615385344,-655360,104,-56,-1,-1,0
1523615385384,-786432,104,-56,-1,-1,0
1523615385384,-786432,104,-56,-1,-1,0
1523615385384,-720896,104,-56,-1,-1,0
1523615385384,-655360,104,-56,-1,-1,0
1523615385384,-655360,104,-56,-1,-1,0
1523615385426,-720896,104,-56,-1,-1,0
1523615385426,-786432,104,-56,-1,-1,0
1523615385426,-720896,104,-56,-1,-1,0
1523615385426,-786432,104,-56,-1,-1,0
1523615385426,-917504,104,-56,-1,-1,0
1523615385464,-786432,104,-56,-1,-1,0
1523615385464,-720896,104,-56,-1,-1,0
1523615385464,-786432,104,-56,-1,-1,0
1523615385464,-851968,104,-56,-1,-1,0
1523615385464,-786432,104,-56,-1,-1,0
1523615385504,-786432,104,-56,-1,-1,0
1523615385504,-917504,104,-56,-1,-1,0
1523615385504,-1048576,104,-56,-1,-1,0
1523615385504,-1179648,104,-56,-1,-1,0
1523615385504,-1114112,104,-56,-1,-1,0
1523615385544,-1048576,104,-56,-1,-1,0
1523615385544,-983040,104,-56,-1,-1,0
1523615385544,-851968,104,-56,-1,-1,0
1523615385544,-917504,104,-56,-1,-1,0
1523615385544,-983040,104,-56,-1,-1,0
1523615385584,-983040,104,-56,-1,-1,0
1523615385584,-1114112,104,-56,-1,-1,0
1523615385584,-1245184,104,-56,-1,-1,0
1523615385584,-1310720,104,-56,-1,-1,0
1523615385584,-1310720,104,-56,-1,-1,0
1523615385624,-1114112,104,-56,-1,-1,0
1523615385624,-1048576,104,-56,-1,-1,0
1523615385624,-1245184,104,-56,-1,-1,0
1523615385624,-1441792,104,-56,-1,-1,0
1523615385624,-327680,104,-56,-1,-1,0
1523615385664,2818048,104,-56,-1,-1,0
1523615385664,6488064,104,-56,-1,-1,0
1523615385664,7143424,104,-56,-1,-1,0
1523615385664,4128768,104,-56,-1,-1,0
1523615385664,655360,104,-56,-1,-1,0
1523615385704,-917504,104,-56,-1,-1,0
1523615385704,-1048576,104,-56,-1,-1,0
1523615385704,-917504,104,-56,-1,-1,0
1523615385704,-917504,104,-56,-1,-1,0
1523615385704,-851968,104,-56,-1,-1,0
1523615385753,-786432,104,-56,-1,-1,0
1523615385753,-917504,104,-56,-1,-1,0
1523615385753,-983040,104,-56,-1,-1,0
1523615385753,-851968,104,-56,-1,-1,0
1523615385753,-720896,104,-56,-1,-1,0
1523615385784,-524288,104,-56,-1,-1,0
1523615385784,-458752,104,-56,-1,-1,0
1523615385784,-327680,104,-56,-1,-1,0
1523615385784,-131072,104,-56,-1,-1,0
1523615385784,0,104,-56,-1,-1,0
1523615385824,131072,104,-56,-1,-1,0
1523615385824,393216,104,-56,-1,-1,0
1523615385824,655360,104,-56,-1,-1,0
1523615385824,1114112,104,-56,-1,-1,0
1523615385824,1572864,104,-56,-1,-1,0
1523615385864,1900544,104,-56,-1,-1,0
1523615385864,1966080,104,-56,-1,-1,0
1523615385864,1900544,104,-56,-1,-1,0
1523615385864,1703936,104,-56,-1,-1,0
1523615385864,1310720,104,-56,-1,-1,0
1523615385904,720896,104,-56,-1,-1,0
1523615385904,131072,104,-56,-1,-1,0
1523615385904,-131072,104,-56,-1,-1,0
1523615385904,-589824,104,-56,-1,-1,0
1523615385904,-851968,104,-56,-1,-1,0
1523615385944,-786432,104,-56,-1,-1,0
1523615385944,-720896,104,-56,-1,-1,0
1523615385944,-786432,104,-56,-1,-1,0
1523615385944,-851968,104,-56,-1,-1,0
1523615385944,-983040,104,-56,-1,-1,0
1523615385984,-1114112,104,-56,-1,-1,0
1523615385984,-1245184,104,-56,-1,-1,0
1523615385984,-1114112,104,-56,-1,-1,0
1523615385984,-851968,104,-56,-1,-1,0
1523615385984,-786432,104,-56,-1,-1,0
1523615386024,-917504,104,-56,-1,-1,0
1523615386024,-983040,104,-56,-1,-1,0
1523615386024,-983040,104,-56,-1,-1,0
1523615386024,-917504,104,-56,-1,-1,0
1523615386024,-917504,104,-56,-1,-1,0
1523615386064,-1245184,104,-56,-1,-1,0
1523615386064,-1310720,104,-56,-1,-1,0
1523615386064,-1179648,104,-56,-1,-1,0
1523615386064,-1179648,104,-56,-1,-1,0
1523615386064,-1245184,104,-56,-1,-1,0
1523615386104,-1179648,104,-56,-1,-1,0
1523615386104,-917504,104,-56,-1,-1,0
1523615386104,-851968,104,-56,-1,-1,0
1523615386104,-1048576,104,-56,-1,-1,0
1523615386104,-1245184,104,-56,-1,-1,0
1523615386144,-1179648,104,-56,-1,-1,0
1523615386144,-917504,104,-56,-1,-1,0
1523615386144,-917504,104,-56,-1,-1,0
1523615386144,-1376256,104,-56,-1,-1,0
1523615386144,-1507328,104,-56,-1,-1,0
1523615386184,-1310720,104,-56,-1,-1,0
1523615386184,-1179648,104,-56,-1,-1,0
1523615386184,-1310720,104,-56,-1,-1,0
1523615386184,-1310720,104,-56,-1,-1,0
1523615386184,-262144,104,-56,-1,-1,0
1523615386224,2555904,104,-56,-1,-1,0
1523615386224,6029312,104,-56,-1,-1,0
1523615386224,7012352,104,-56,-1,-1,0
1523615386224,4128768,104,-56,-1,-1,0
1523615386224,393216,104,-56,-1,-1,0
1523615386264,-1310720,104,-56,-1,-1,0
1523615386264,-1376256,104,-56,-1,-1,0
1523615386264,-1179648,104,-56,-1,-1,0
1523615386264,-1048576,104,-56,-1,-1,0
1523615386264,-983040,104,-56,-1,-1,0
1523615386304,-983040,104,-56,-1,-1,0
1523615386304,-983040,104,-56,-1,-1,0
1523615386304,-917504,104,-56,-1,-1,0
1523615386304,-720896,104,-56,-1,-1,0
1523615386304,-589824,104,-56,-1,-1,0
1523615386344,-524288,104,-56,-1,-1,0
1523615386344,-393216,104,-56,-1,-1,0
1523615386344,-262144,104,-56,-1,-1,0
1523615386344,-131072,104,-56,-1,-1,0
1523615386344,0,104,-56,-1,-1,0
1523615386393,524288,104,-56,-1,-1,0
1523615386393,1048576,104,-56,-1,-1,0
1523615386393,1376256,104,-56,-1,-1,0
1523615386393,1703936,104,-56,-1,-1,0
1523615386393,2031616,104,-56,-1,-1,0
1523615386424,2162688,104,-56,-1,-1,0
1523615386424,2097152,104,-56,-1,-1,0
1523615386424,2031616,104,-56,-1,-1,0
1523615386424,1835008,104,-56,-1,-1,0
1523615386424,1376256,104,-56,-1,-1,0
1523615386464,851968,104,-56,-1,-1,0
1523615386464,458752,104,-56,-1,-1,0
1523615386464,131072,104,-56,-1,-1,0
1523615386464,-262144,104,-56,-1,-1,0
1523615386464,-524288,104,-56,-1,-1,0
1523615386504,-524288,104,-56,-1,-1,0
1523615386504,-589824,104,-56,-1,-1,0
1523615386504,-786432,104,-56,-1,-1,0
1523615386504,-851968,104,-56,-1,-1,0
1523615386504,-786432,104,-56,-1,-1,0
1523615386544,-786432,104,-56,-1,-1,0
1523615386544,-917504,104,-56,-1,-1,0
1523615386544,-851968,104,-56,-1,-1,0
1523615386544,-720896,104,-56,-1,-1,0
1523615386544,-589824,104,-56,-1,-1,0
1523615386584,-524288,104,-56,-1,-1,0
1523615386584,-524288,104,-56,-1,-1,0
1523615386584,-589824,104,-56,-1,-1,0
1523615386584,-524288,104,-56,-1,-1,0
1523615386584,-524288,104,-56,-1,-1,0
1523615386624,-720896,104,-56,-1,-1,0
1523615386624,-851968,104,-56,-1,-1,0
1523615386624,-786432,104,-56,-1,-1,0
1523615386624,-589824,104,-56,-1,-1,0
1523615386624,-524288,104,-56,-1,-1,0
1523615386664,-655360,104,-56,-1,-1,0
1523615386664,-589824,104,-56,-1,-1,0
1523615386664,-524288,104,-56,-1,-1,0
1523615386664,-720896,104,-56,-1,-1,0
1523615386664,-851968,104,-56,-1,-1,0
1523615386704,-786432,104,-56,-1,-1,0
1523615386704,-786432,104,-56,-1,-1,0
1523615386704,-786432,104,-56,-1,-1,0
1523615386704,-786432,104,-56,-1,-1,0
1523615386704,-851968,104,-56,-1,-1,0
1523615386744,-917504,104,-56,-1,-1,0
1523615386744,-786432,104,-56,-1,-1,0
1523615386744,-786432,104,-56,-1,-1,0
1523615386744,-196608,104,-56,-1,-1,0
1523615386744,2228224,104,-56,-1,-1,0
1523615386785,6029312,104,-56,-1,-1,0
1523615386785,8060928,104,-56,-1,-1,0
1523615386785,5767168,104,-56,-1,-1,0
1523615386785,1769472,104,-56,-1,-1,0
1523615386785,-589824,104,-56,-1,-1,0
1523615386824,-786432,104,-56,-1,-1,0
1523615386824,-458752,104,-56,-1,-1,0
1523615386824,-262144,104,-56,-1,-1,0
1523615386824,-393216,104,-56,-1,-1,0
1523615386824,-458752,104,-56,-1,-1,0
1523615386864,-458752,104,-56,-1,-1,0
1523615386864,-458752,104,-56,-1,-1,0
1523615386864,-327680,104,-56,-1,-1,0
1523615386864,-393216,104,-56,-1,-1,0
1523615386864,-262144,104,-56,-1,-1,0
1523615386904,0,104,-56,-1,-1,0
1523615386904,131072,104,-56,-1,-1,0
1523615386904,0,104,-56,-1,-1,0
1523615386904,0,104,-56,-1,-1,0
1523615386904,262144,104,-56,-1,-1,0
1523615386944,720896,104,-56,-1,-1,0
1523615386944,1179648,104,-56,-1,-1,0
1523615386944,1507328,104,-56,-1,-1,0
1523615386944,1572864,104,-56,-1,-1,0
1523615386944,1769472,104,-56,-1,-1,0
1523615386984,1835008,104,-56,-1,-1,0
1523615386984,1900544,104,-56,-1,-1,0
1523615386984,1966080,104,-56,-1,-1,0
1523615386984,1703936,104,-56,-1,-1,0
1523615386984,983040,104,-56,-1,-1,0
1523615387032,327680,104,-56,-1,-1,0
1523615387032,0,104,-56,-1,-1,0
1523615387032,-196608,104,-56,-1,-1,0
1523615387032,-458752,104,-56,-1,-1,0
1523615387032,-720896,104,-56,-1,-1,0
1523615387064,-983040,104,-56,-1,-1,0
1523615387064,-1048576,104,-56,-1,-1,0
1523615387064,-983040,104,-56,-1,-1,0
1523615387064,-1114112,104,-56,-1,-1,0
1523615387064,-1507328,104,-56,-1,-1,0
1523615387104,-1310720,104,-56,-1,-1,0
1523615387104,-720896,104,-56,-1,-1,0
1523615387104,-327680,104,-56,-1,-1,0
1523615387104,-524288,104,-56,-1,-1,0
1523615387104,-720896,104,-56,-1,-1,0
1523615387144,-851968,104,-56,-1,-1,0
1523615387144,-786432,104,-56,-1,-1,0
1523615387144,-720896,104,-56,-1,-1,0
1523615387144,-1310720,104,-56,-1,-1,0
1523615387144,-1572864,104,-56,-1,-1,0
1523615387184,-983040,104,-56,-1,-1,0
1523615387184,-458752,104,-56,-1,-1,0
1523615387184,-655360,104,-56,-1,-1,0
1523615387184,-720896,104,-56,-1,-1,0
1523615387184,-458752,104,-56,-1,-1,0
1523615387224,-589824,104,-56,-1,-1,0
1523615387224,-458752,104,-56,-1,-1,0
1523615387224,-393216,104,-56,-1,-1,0
1523615387224,-655360,104,-56,-1,-1,0
1523615387224,-917504,104,-56,-1,-1,0
1523615387264,-720896,104,-56,-1,-1,0
1523615387264,-786432,104,-56,-1,-1,0
1523615387264,-983040,104,-56,-1,-1,0
1523615387264,-983040,104,-56,-1,-1,0
1523615387264,-917504,104,-56,-1,-1,0
1523615387304,-1114112,104,-56,-1,-1,0
1523615387304,-1114112,104,-56,-1,-1,0
1523615387304,-655360,104,-56,-1,-1,0
1523615387304,720896,104,-56,-1,-1,0
1523615387304,3604480,104,-56,-1,-1,0
1523615387344,6946816,104,-56,-1,-1,0
1523615387344,7471104,104,-56,-1,-1,0
1523615387344,4390912,104,-56,-1,-1,0
1523615387344,786432,104,-56,-1,-1,0
1523615387344,-720896,104,-56,-1,-1,0
1523615387384,-851968,104,-56,-1,-1,0
1523615387384,-786432,104,-56,-1,-1,0
1523615387384,-917504,104,-56,-1,-1,0
1523615387384,-786432,104,-56,-1,-1,0
1523615387384,-327680,104,-56,-1,-1,0
1523615387424,-131072,104,-56,-1,-1,0
1523615387424,-327680,104,-56,-1,-1,0
1523615387424,-458752,104,-56,-1,-1,0
1523615387424,-458752,104,-56,-1,-1,0
1523615387424,-327680,104,-56,-1,-1,0
1523615387464,-196608,104,-56,-1,-1,0
1523615387464,-262144,104,-56,-1,-1,0
1523615387464,-262144,104,-56,-1,-1,0
1523615387464,65536,104,-56,-1,-1,0
1523615387464,589824,104,-56,-1,-1,0
1523615387504,917504,104,-56,-1,-1,0
1523615387504,1114112,104,-56,-1,-1,0
1523615387504,1245184,104,-56,-1,-1,0
1523615387504,1572864,104,-56,-1,-1,0
1523615387504,2097152,104,-56,-1,-1,0
1523615387544,2359296,104,-56,-1,-1,0
1523615387544,2228224,104,-56,-1,-1,0
1523615387544,1769472,104,-56,-1,-1,0
1523615387544,1179648,104,-56,-1,-1,0
1523615387544,786432,104,-56,-1,-1,0
1523615387584,524288,104,-56,-1,-1,0
1523615387584,65536,104,-56,-1,-1,0
1523615387584,-196608,104,-56,-1,-1,0
1523615387584,-393216,104,-56,-1,-1,0
1523615387584,-327680,104,-56,-1,-1,0
1523615387624,-393216,104,-56,-1,-1,0
1523615387624,-524288,104,-56,-1,-1,0
1523615387624,-720896,104,-56,-1,-1,0
1523615387624,-851968,104,-56,-1,-1,0
1523615387624,-589824,104,-56,-1,-1,0
1523615387672,-589824,104,-56,-1,-1,0
1523615387672,-720896,104,-56,-1,-1,0
1523615387672,-655360,104,-56,-1,-1,0
1523615387672,-458752,104,-56,-1,-1,0
1523615387672,-327680,104,-56,-1,-1,0
1523615387704,-262144,104,-56,-1,-1,0
1523615387704,-393216,104,-56,-1,-1,0
1523615387704,-589824,104,-56,-1,-1,0
1523615387704,-655360,104,-56,-1,-1,0
1523615387704,-655360,104,-56,-1,-1,0
1523615387744,-720896,104,-56,-1,-1,0
1523615387744,-851968,104,-56,-1,-1,0
1523615387744,-786432,104,-56,-1,-1,0
1523615387744,-524288,104,-56,-1,-1,0
1523615387744,-458752,104,-56,-1,-1,0
1523615387784,-589824,104,-56,-1,-1,0
1523615387784,-851968,104,-56,-1,-1,0
1523615387784,-983040,104,-56,-1,-1,0
1523615387784,-983040,104,-56,-1,-1,0
1523615387784,-1114112,104,-56,-1,-1,0
1523615387824,-1114112,104,-56,-1,-1,0
1523615387824,-983040,104,-56,-1,-1,0
1523615387824,-851968,104,-56,-1,-1,0
1523615387824,-851968,104,-56,-1,-1,0
1523615387824,-983040,104,-56,-1,-1,0
1523615387864,-1048576,104,-56,-1,-1,0
1523615387864,-131072,104,-56,-1,-1,0
1523615387864,2424832,104,-56,-1,-1,0
1523615387864,5832704,104,-56,-1,-1,0
1523615387864,7274496,104,-56,-1,-1,0
1523615387904,5046272,104,-56,-1,-1,0
1523615387904,1376256,104,-56,-1,-1,0
1523615387904,-589824,104,-56,-1,-1,0
1523615387904,-786432,104,-56,-1,-1,0
1523615387904,-655360,104,-56,-1,-1,0
1523615387944,-720896,104,-56,-1,-1,0
1523615387944,-786432,104,-56,-1,-1,0
1523615387944,-720896,104,-56,-1,-1,0
1523615387944,-655360,104,-56,-1,-1,0
1523615387944,-720896,104,-56,-1,-1,0
1523615387984,-655360,104,-56,-1,-1,0
1523615387984,-524288,104,-56,-1,-1,0
1523615387984,-524288,104,-56,-1,-1,0
1523615387984,-393216,104,-56,-1,-1,0
1523615387984,-131072,104,-56,-1,-1,0
1523615388024,-65536,104,-56,-1,-1,0
1523615388024,65536,104,-56,-1,-1,0
1523615388024,327680,104,-56,-1,-1,0
1523615388024,524288,104,-56,-1,-1,0
1523615388024,851968,104,-56,-1,-1,0
1523615388064,1376256,104,-56,-1,-1,0
1523615388064,1638400,104,-56,-1,-1,0
1523615388064,1769472,104,-56,-1,-1,0
1523615388064,1769472,104,-56,-1,-1,0
1523615388064,1703936,104,-56,-1,-1,0
1523615388104,1507328,104,-56,-1,-1,0
1523615388104,1245184,104,-56,-1,-1,0
1523615388104,786432,104,-56,-1,-1,0
1523615388104,393216,104,-56,-1,-1,0
1523615388104,131072,104,-56,-1,-1,0
1523615388144,-65536,104,-56,-1,-1,0
1523615388144,-196608,104,-56,-1,-1,0
1523615388144,-458752,104,-56,-1,-1,0
1523615388144,-786432,104,-56,-1,-1,0
1523615388144,-851968,104,-56,-1,-1,0
1523615388184,-720896,104,-56,-1,-1,0
1523615388184,-524288,104,-56,-1,-1,0
1523615388184,-655360,104,-56,-1,-1,0
1523615388184,-720896,104,-56,-1,-1,0
1523615388184,-786432,104,-56,-1,-1,0
1523615388224,-786432,104,-56,-1,-1,0
1523615388224,-786432,104,-56,-1,-1,0
1523615388224,-720896,104,-56,-1,-1,0
1523615388224,-589824,104,-56,-1,-1,0
1523615388224,-720896,104,-56,-1,-1,0
1523615388264,-917504,104,-56,-1,-1,0
1523615388264,-917504,104,-56,-1,-1,0
1523615388264,-917504,104,-56,-1,-1,0
1523615388264,-917504,104,-56,-1,-1,0
1523615388264,-983040,104,-56,-1,-1,0
1523615388312,-1048576,104,-56,-1,-1,0
1523615388312,-983040,104,-56,-1,-1,0
1523615388312,-786432,104,-56,-1,-1,0
1523615388312,-786432,104,-56,-1,-1,0
1523615388312,-851968,104,-56,-1,-1,0
1523615388344,-1048576,104,-56,-1,-1,0
1523615388344,-1245184,104,-56,-1,-1,0
1523615388344,-1245184,104,-56,-1,-1,0
1523615388344,-1179648,104,-56,-1,-1,0
1523615388344,-1114112,104,-56,-1,-1,0
1523615388384,-1179648,104,-56,-1,-1,0
1523615388384,-1179648,104,-56,-1,-1,0
1523615388384,-1179648,104,-56,-1,-1,0
1523615388384,-1245184,104,-56,-1,-1,0
1523615388384,-655360,104,-56,-1,-1,0
1523615388424,1507328,104,-56,-1,-1,0
1523615388424,5242880,104,-56,-1,-1,0
1523615388424,7340032,104,-56,-1,-1,0
1523615388424,5439488,104,-56,-1,-1,0
1523615388424,1769472,104,-56,-1,-1,0
1523615388465,-458752,104,-56,-1,-1,0
1523615388465,-1048576,104,-56,-1,-1,0
1523615388465,-1179648,104,-56,-1,-1,0
1523615388465,-1245184,104,-56,-1,-1,0
1523615388465,-1048576,104,-56,-1,-1,0
1523615388504,-983040,104,-56,-1,-1,0
1523615388504,-1048576,104,-56,-1,-1,0
1523615388504,-983040,104,-56,-1,-1,0
1523615388504,-655360,104,-56,-1,-1,0
1523615388504,-524288,104,-56,-1,-1,0
1523615388544,-655360,104,-56,-1,-1,0
1523615388544,-786432,104,-56,-1,-1,0
1523615388544,-655360,104,-56,-1,-1,0
1523615388544,-458752,104,-56,-1,-1,0
1523615388544,-262144,104,-56,-1,-1,0
1523615388584,-65536,104,-56,-1,-1,0
1523615388584,262144,104,-56,-1,-1,0
1523615388584,786432,104,-56,-1,-1,0
1523615388584,1114112,104,-56,-1,-1,0
1523615388584,1376256,104,-56,-1,-1,0
1523615388624,1572864,104,-56,-1,-1,0
1523615388624,1769472,104,-56,-1,-1,0
1523615388624,1703936,104,-56,-1,-1,0
1523615388624,1376256,104,-56,-1,-1,0
1523615388624,983040,104,-56,-1,-1,0
1523615388664,655360,104,-56,-1,-1,0
1523615388664,196608,104,-56,-1,-1,0
1523615388664,-262144,104,-56,-1,-1,0
1523615388664,-589824,104,-56,-1,-1,0
1523615388664,-786432,104,-56,-1,-1,0
1523615388704,-917504,104,-56,-1,-1,0
1523615388704,-983040,104,-56,-1,-1,0
1523615388704,-1048576,104,-56,-1,-1,0
1523615388704,-1114112,104,-56,-1,-1,0
1523615388704,-1114112,104,-56,-1,-1,0
1523615388744,-1048576,104,-56,-1,-1,0
1523615388744,-1114112,104,-56,-1,-1,0
1523615388744,-1114112,104,-56,-1,-1,0
1523615388744,-1114112,104,-56,-1,-1,0
1523615388744,-1114112,104,-56,-1,-1,0
1523615388784,-1114112,104,-56,-1,-1,0
1523615388784,-1048576,104,-56,-1,-1,0
1523615388784,-983040,104,-56,-1,-1,0
1523615388784,-1048576,104,-56,-1,-1,0
1523615388784,-1048576,104,-56,-1,-1,0
1523615388824,-1114112,104,-56,-1,-1,0
1523615388824,-1114112,104,-56,-1,-1,0
1523615388824,-1048576,104,-56,-1,-1,0
1523615388824,-1114112,104,-56,-1,-1,0
1523615388824,-1114112,104,-56,-1,-1,0
1523615388864,-1048576,104,-56,-1,-1,0
1523615388864,-1048576,104,-56,-1,-1,0
1523615388864,-1179648,104,-56,-1,-1,0
1523615388864,-1245184,104,-56,-1,-1,0
1523615388864,-1310720,104,-56,-1,-1,0
1523615388904,-1310720,104,-56,-1,-1,0
1523615388904,-1245184,104,-56,-1,-1,0
1523615388904,-1114112,104,-56,-1,-1,0
1523615388904,-1179648,104,-56,-1,-1,0
1523615388904,-1310720,104,-56,-1,-1,0
1523615388952,-1441792,104,-56,-1,-1,0
1523615388952,-1376256,104,-56,-1,-1,0
1523615388952,-720896,104,-56,-1,-1,0
1523615388952,1179648,104,-56,-1,-1,0
1523615388952,4849664,104,-56,-1,-1,0
1523615388984,7536640,104,-56,-1,-1,0
1523615388984,6422528,104,-56,-1,-1,0
1523615388984,2686976,104,-56,-1,-1,0
1523615388984,-262144,104,-56,-1,-1,0
1523615388984,-1114112,104,-56,-1,-1,0
1523615389024,-1048576,104,-56,-1,-1,0
1523615389024,-917504,104,-56,-1,-1,0
1523615389024,-786432,104,-56,-1,-1,0
1523615389024,-720896,104,-56,-1,-1,0
1523615389024,-655360,104,-56,-1,-1,0
1523615389064,-655360,104,-56,-1,-1,0
1523615389064,-524288,104,-56,-1,-1,0
1523615389064,-327680,104,-56,-1,-1,0
1523615389064,-262144,104,-56,-1,-1,0
1523615389064,-196608,104,-56,-1,-1,0
1523615389105,-196608,104,-56,-1,-1,0
1523615389105,-65536,104,-56,-1,-1,0
1523615389105,131072,104,-56,-1,-1,0
1523615389105,327680,104,-56,-1,-1,0
1523615389105,589824,104,-56,-1,-1,0
1523615389145,1114112,104,-56,-1,-1,0
1523615389145,1572864,104,-56,-1,-1,0
1523615389145,1900544,104,-56,-1,-1,0
1523615389145,2031616,104,-56,-1,-1,0
1523615389145,2228224,104,-56,-1,-1,0
1523615389184,2359296,104,-56,-1,-1,0
1523615389184,2228224,104,-56,-1,-1,0
1523615389184,1835008,104,-56,-1,-1,0
1523615389184,1376256,104,-56,-1,-1,0
1523615389184,917504,104,-56,-1,-1,0
1523615389224,589824,104,-56,-1,-1,0
1523615389224,262144,104,-56,-1,-1,0
1523615389224,65536,104,-56,-1,-1,0
1523615389224,-65536,104,-56,-1,-1,0
1523615389224,-196608,104,-56,-1,-1,0
1523615389264,-196608,104,-56,-1,-1,0
1523615389264,-131072,104,-56,-1,-1,0
1523615389264,-196608,104,-56,-1,-1,0
1523615389264,-327680,104,-56,-1,-1,0
1523615389264,-393216,104,-56,-1,-1,0
1523615389304,-327680,104,-56,-1,-1,0
1523615389304,-196608,104,-56,-1,-1,0
1523615389304,-262144,104,-56,-1,-1,0
1523615389304,-196608,104,-56,-1,-1,0
1523615389304,-65536,104,-56,-1,-1,0
1523615389344,0,105,-56,-1,-1,0
1523615389344,-131072,105,-56,-1,-1,0
1523615389344,-262144,105,-56,-1,-1,0
1523615389344,-196608,105,-56,-1,-1,0
1523615389344,-262144,105,-56,-1,-1,0
1523615389384,-393216,105,-56,-1,-1,0
1523615389384,-458752,105,-56,-1,-1,0
1523615389384,-393216,105,-56,-1,-1,0
1523615389384,-262144,105,-56,-1,-1,0
1523615389384,-131072,105,-56,-1,-1,0
1523615389424,-196608,105,-56,-1,-1,0
1523615389424,-327680,105,-56,-1,-1,0
1523615389424,-327680,105,-56,-1,-1,0
1523615389424,-458752,105,-56,-1,-1,0
1523615389424,-589824,105,-56,-1,-1,0
1523615389465,-720896,105,-56,-1,-1,0
1523615389465,-720896,105,-56,-1,-1,0
1523615389465,-720896,105,-56,-1,-1,0
1523615389465,-458752,105,-56,-1,-1,0
1523615389465,-458752,105,-56,-1,-1,0
1523615389504,-786432,105,-56,-1,-1,0
1523615389504,-786432,105,-56,-1,-1,0
1523615389504,917504,105,-56,-1,-1,0
1523615389504,4325376,105,-56,-1,-1,0
1523615389504,7340032,105,-56,-1,-1,0
1523615389544,6946816,105,-56,-1,-1,0
1523615389544,3604480,105,-56,-1,-1,0
1523615389544,196608,105,-56,-1,-1,0
1523615389544,-851968,105,-56,-1,-1,0
1523615389544,-720896,105,-56,-1,-1,0
1523615389592,-655360,105,-56,-1,-1,0
1523615389592,-786432,105,-56,-1,-1,0
1523615389592,-917504,105,-56,-1,-1,0
1523615389592,-851968,105,-56,-1,-1,0
1523615389592,-720896,105,-56,-1,-1,0
1523615389624,-851968,105,-56,-1,-1,0
1523615389624,-786432,105,-56,-1,-1,0
1523615389624,-524288,105,-56,-1,-1,0
1523615389624,-458752,105,-56,-1,-1,0
1523615389624,-458752,105,-56,-1,-1,0
1523615389664,-327680,105,-56,-1,-1,0
1523615389664,-131072,105,-56,-1,-1,0
1523615389664,0,105,-56,-1,-1,0
1523615389664,196608,105,-56,-1,-1,0
1523615389664,589824,105,-56,-1,-1,0
1523615389704,1048576,105,-56,-1,-1,0
1523615389704,1179648,105,-56,-1,-1,0
1523615389704,1441792,105,-56,-1,-1,0
1523615389704,1572864,105,-56,-1,-1,0
1523615389704,1769472,105,-56,-1,-1,0
1523615389744,1769472,105,-56,-1,-1,0
1523615389744,1572864,105,-56,-1,-1,0
1523615389744,1179648,105,-56,-1,-1,0
1523615389744,786432,105,-56,-1,-1,0
1523615389744,524288,105,-56,-1,-1,0
1523615389784,0,105,-56,-1,-1,0
1523615389784,-655360,105,-56,-1,-1,0
1523615389784,-720896,105,-56,-1,-1,0
1523615389784,-458752,105,-56,-1,-1,0
1523615389784,-589824,105,-56,-1,-1,0
1523615389824,-786432,105,-56,-1,-1,0
1523615389824,-655360,105,-56,-1,-1,0
1523615389824,-589824,105,-56,-1,-1,0
1523615389824,-720896,105,-56,-1,-1,0
1523615389824,-917504,105,-56,-1,-1,0
1523615389864,-917504,105,-56,-1,-1,0
1523615389864,-720896,105,-56,-1,-1,0
1523615389864,-589824,105,-56,-1,-1,0
1523615389864,-458752,105,-56,-1,-1,0
1523615389864,-524288,105,-56,-1,-1,0
1523615389904,-589824,106,-56,-1,-1,0
1523615389904,-720896,106,-56,-1,-1,0
1523615389904,-917504,106,-56,-1,-1,0
1523615389904,-983040,106,-56,-1,-1,0
1523615389904,-786432,106,-56,-1,-1,0
1523615389944,-655360,106,-56,-1,-1,0
1523615389944,-655360,106,-56,-1,-1,0
1523615389944,-589824,106,-56,-1,-1,0
1523615389944,-589824,106,-56,-1,-1,0
1523615389944,-786432,106,-56,-1,-1,0
1523615389984,-1048576,106,-56,-1,-1,0
1523615389984,-917504,106,-56,-1,-1,0
1523615389984,-786432,106,-56,-1,-1,0
1523615389984,-786432,106,-56,-1,-1,0
1523615389984,-786432,106,-56,-1,-1,0
1523615390024,-720896,106,-56,-1,-1,0
1523615390024,-983040,106,-56,-1,-1,0
1523615390024,-1114112,106,-56,-1,-1,0
1523615390024,-983040,106,-56,-1,-1,0
1523615390024,-589824,106,-56,-1,-1,0
1523615390064,720896,106,-56,-1,-1,0
1523615390064,3866624,106,-56,-1,-1,0
1523615390064,6815744,106,-56,-1,-1,0
1523615390064,6488064,106,-56,-1,-1,0
1523615390064,3211264,106,-56,-1,-1,0
1523615390104,131072,106,-56,-1,-1,0
1523615390104,-786432,106,-56,-1,-1,0
1523615390104,-655360,106,-56,-1,-1,0
1523615390104,-524288,106,-56,-1,-1,0
1523615390104,-589824,106,-56,-1,-1,0
1523615390145,-655360,106,-56,-1,-1,0
1523615390145,-524288,106,-56,-1,-1,0
1523615390145,-524288,106,-56,-1,-1,0
1523615390145,-655360,106,-56,-1,-1,0
1523615390145,-655360,106,-56,-1,-1,0
1523615390184,-458752,106,-56,-1,-1,0
1523615390184,-196608,106,-56,-1,-1,0
1523615390184,-196608,106,-56,-1,-1,0
