milliseconds, ECG, ECG HR, PPG, PPG HR, SpO2, PI
1523618366694,-393216,94,-56,-1,-1,0
1523618366694,-393216,94,-56,-1,-1,0
1523618366694,-458752,94,-56,-1,-1,0
1523618366694,-458752,94,-56,-1,-1,0
1523618366694,-327680,94,-56,-1,-1,0
1523618366734,-131072,94,-56,-1,-1,0
1523618366734,0,94,-56,-1,-1,0
1523618366734,65536,94,-56,-1,-1,0
1523618366734,327680,94,-56,-1,-1,0
1523618366734,524288,94,-56,-1,-1,0
1523618366774,786432,94,-56,-1,-1,0
1523618366774,1048576,94,-56,-1,-1,0
1523618366774,1376256,94,-56,-1,-1,0
1523618366774,1638400,94,-56,-1,-1,0
1523618366774,1835008,94,-56,-1,-1,0
1523618366814,1966080,94,-56,-1,-1,0
1523618366814,1966080,94,-56,-1,-1,0
1523618366814,1769472,94,-56,-1,-1,0
1523618366814,1441792,94,-56,-1,-1,0
1523618366814,1114112,94,-56,-1,-1,0
1523618366854,720896,94,-56,-1,-1,0
1523618366854,327680,94,-56,-1,-1,0
1523618366854,0,94,-56,-1,-1,0
1523618366854,-131072,94,-56,-1,-1,0
1523618366854,-327680,94,-56,-1,-1,0
1523618366894,-458752,94,-56,-1,-1,0
1523618366894,-524288,94,-56,-1,-1,0
1523618366894,-589824,94,-56,-1,-1,0
1523618366894,-589824,94,-56,-1,-1,0
1523618366894,-524288,94,-56,-1,-1,0
1523618366934,-524288,94,-56,-1,-1,0
1523618366934,-524288,94,-56,-1,-1,0
1523618366934,-458752,94,-56,-1,-1,0
1523618366934,-524288,94,-56,-1,-1,0
1523618366934,-655360,94,-56,-1,-1,0
1523618366975,-720896,94,-56,-1,-1,0
1523618366975,-655360,94,-56,-1,-1,0
1523618366975,-524288,94,-56,-1,-1,0
1523618366975,-524288,94,-56,-1,-1,0
1523618366975,-524288,94,-56,-1,-1,0
1523618367014,-524288,94,-56,-1,-1,0
1523618367014,-589824,94,-56,-1,-1,0
1523618367014,-655360,94,-56,-1,-1,0
1523618367014,-524288,94,-56,-1,-1,0
1523618367014,-393216,94,-56,-1,-1,0
1523618367054,-262144,94,-56,-1,-1,0
1523618367054,-196608,94,-56,-1,-1,0
1523618367054,-196608,94,-56,-1,-1,0
1523618367054,-262144,94,-56,-1,-1,0
1523618367054,-458752,94,-56,-1,-1,0
1523618367094,-655360,94,-56,-1,-1,0
1523618367094,-786432,94,-56,-1,-1,0
1523618367094,-851968,94,-56,-1,-1,0
1523618367094,-917504,94,-56,-1,-1,0
1523618367094,-983040,94,-56,-1,-1,0
1523618367134,-983040,94,-56,-1,-1,0
1523618367134,-1048576,94,-56,-1,-1,0
1523618367134,-983040,94,-56,-1,-1,0
1523618367134,-983040,94,-56,-1,-1,0
1523618367134,-1048576,94,-56,-1,-1,0
1523618367174,-1048576,94,-56,-1,-1,0
1523618367174,-1048576,94,-56,-1,-1,0
1523618367174,-1114112,94,-56,-1,-1,0
1523618367174,-1179648,94,-56,-1,-1,0
1523618367174,-786432,94,-56,-1,-1,0
1523618367214,1310720,94,-56,-1,-1,0
1523618367214,5898240,94,-56,-1,-1,0
1523618367214,9240576,94,-56,-1,-1,0
1523618367214,7143424,94,-56,-1,-1,0
1523618367214,2228224,94,-56,-1,-1,0
1523618367254,-524288,94,-56,-1,-1,0
1523618367254,-1048576,94,-56,-1,-1,0
1523618367254,-1245184,94,-56,-1,-1,0
1523618367254,-1245184,94,-56,-1,-1,0
1523618367254,-1245184,94,-56,-1,-1,0
1523618367294,-1245184,94,-56,-1,-1,0
1523618367294,-1310720,94,-56,-1,-1,0
1523618367294,-1245184,94,-56,-1,-1,0
1523618367294,-1179648,94,-56,-1,-1,0
1523618367294,-1179648,94,-56,-1,-1,0
1523618367334,-1179648,94,-56,-1,-1,0
1523618367334,-1179648,94,-56,-1,-1,0
1523618367334,-1048576,94,-56,-1,-1,0
1523618367334,-1048576,94,-56,-1,-1,0
1523618367334,-983040,94,-56,-1,-1,0
1523618367374,-851968,94,-56,-1,-1,0
1523618367374,-720896,94,-56,-1,-1,0
1523618367374,-589824,94,-56,-1,-1,0
1523618367374,-393216,94,-56,-1,-1,0
1523618367374,-131072,94,-56,-1,-1,0
1523618367414,131072,94,-56,-1,-1,0
1523618367414,458752,94,-56,-1,-1,0
1523618367414,786432,94,-56,-1,-1,0
1523618367414,1179648,94,-56,-1,-1,0
1523618367414,1572864,94,-56,-1,-1,0
1523618367454,1900544,94,-56,-1,-1,0
1523618367454,2031616,94,-56,-1,-1,0
1523618367454,2162688,94,-56,-1,-1,0
1523618367454,2097152,94,-56,-1,-1,0
1523618367454,1966080,94,-56,-1,-1,0
1523618367494,1572864,94,-56,-1,-1,0
1523618367494,1114112,94,-56,-1,-1,0
1523618367494,655360,94,-56,-1,-1,0
1523618367494,196608,94,-56,-1,-1,0
1523618367494,-65536,94,-56,-1,-1,0
1523618367534,-262144,94,-56,-1,-1,0
1523618367534,-393216,94,-56,-1,-1,0
1523618367534,-393216,94,-56,-1,-1,0
1523618367534,-327680,94,-56,-1,-1,0
1523618367534,-327680,94,-56,-1,-1,0
1523618367574,-393216,94,-56,-1,-1,0
1523618367574,-393216,94,-56,-1,-1,0
1523618367574,-327680,94,-56,-1,-1,0
1523618367574,-262144,94,-56,-1,-1,0
1523618367574,-196608,94,-56,-1,-1,0
1523618367615,-131072,94,-56,-1,-1,0
1523618367615,-131072,94,-56,-1,-1,0
1523618367615,-131072,94,-56,-1,-1,0
1523618367615,-196608,94,-56,-1,-1,0
1523618367615,-131072,94,-56,-1,-1,0
1523618367654,-65536,94,-56,-1,-1,0
1523618367654,0,94,-56,-1,-1,0
1523618367654,65536,94,-56,-1,-1,0
1523618367654,131072,94,-56,-1,-1,0
1523618367654,196608,94,-56,-1,-1,0
1523618367694,262144,94,-56,-1,-1,0
1523618367694,65536,94,-56,-1,-1,0
1523618367694,-196608,94,-56,-1,-1,0
1523618367694,-393216,94,-56,-1,-1,0
1523618367694,-458752,94,-56,-1,-1,0
1523618367734,-589824,94,-56,-1,-1,0
1523618367734,-720896,94,-56,-1,-1,0
1523618367734,-720896,94,-56,-1,-1,0
1523618367734,-720896,94,-56,-1,-1,0
1523618367734,-720896,94,-56,-1,-1,0
1523618367774,-786432,94,-56,-1,-1,0
1523618367774,-786432,94,-56,-1,-1,0
1523618367774,-720896,94,-56,-1,-1,0
1523618367774,-720896,94,-56,-1,-1,0
1523618367774,-720896,94,-56,-1,-1,0
1523618367814,-786432,94,-56,-1,-1,0
1523618367814,-983040,94,-56,-1,-1,0
1523618367814,-655360,94,-56,-1,-1,0
1523618367814,1638400,94,-56,-1,-1,0
1523618367814,6881280,94,-56,-1,-1,0
1523618367854,10616832,94,-56,-1,-1,0
1523618367854,8192000,94,-56,-1,-1,0
1523618367854,2686976,94,-56,-1,-1,0
1523618367854,-196608,94,-56,-1,-1,0
1523618367854,-589824,94,-56,-1,-1,0
1523618367894,-720896,94,-56,-1,-1,0
1523618367894,-524288,94,-56,-1,-1,0
1523618367894,-589824,94,-56,-1,-1,0
1523618367894,-851968,94,-56,-1,-1,0
1523618367894,-983040,94,-56,-1,-1,0
1523618367934,-851968,94,-56,-1,-1,0
1523618367934,-720896,94,-56,-1,-1,0
1523618367934,-655360,94,-56,-1,-1,0
1523618367934,-589824,94,-56,-1,-1,0
1523618367934,-589824,94,-56,-1,-1,0
1523618367974,-589824,94,-56,-1,-1,0
1523618367974,-524288,94,-56,-1,-1,0
1523618367974,-393216,94,-56,-1,-1,0
1523618367974,-327680,94,-56,-1,-1,0
1523618367974,-196608,94,-56,-1,-1,0
1523618368014,0,94,-56,-1,-1,0
1523618368014,131072,94,-56,-1,-1,0
1523618368014,327680,94,-56,-1,-1,0
1523618368014,524288,94,-56,-1,-1,0
1523618368014,851968,94,-56,-1,-1,0
1523618368054,1245184,94,-56,-1,-1,0
1523618368054,1638400,94,-56,-1,-1,0
1523618368054,1966080,94,-56,-1,-1,0
1523618368054,2293760,94,-56,-1,-1,0
1523618368054,2490368,94,-56,-1,-1,0
1523618368094,2490368,94,-56,-1,-1,0
1523618368094,2293760,94,-56,-1,-1,0
1523618368094,1966080,94,-56,-1,-1,0
1523618368094,1572864,94,-56,-1,-1,0
1523618368094,1179648,94,-56,-1,-1,0
1523618368134,851968,94,-56,-1,-1,0
1523618368134,458752,94,-56,-1,-1,0
1523618368134,131072,94,-56,-1,-1,0
1523618368134,0,94,-56,-1,-1,0
1523618368134,-65536,94,-56,-1,-1,0
1523618368174,-131072,94,-56,-1,-1,0
1523618368174,-262144,94,-56,-1,-1,0
1523618368174,-262144,94,-56,-1,-1,0
1523618368174,-262144,94,-56,-1,-1,0
1523618368174,-262144,94,-56,-1,-1,0
1523618368214,-262144,94,-56,-1,-1,0
1523618368214,-196608,94,-56,-1,-1,0
1523618368214,-196608,94,-56,-1,-1,0
1523618368214,-196608,94,-56,-1,-1,0
1523618368214,-131072,94,-56,-1,-1,0
1523618368255,0,94,-56,-1,-1,0
1523618368255,65536,94,-56,-1,-1,0
1523618368255,131072,94,-56,-1,-1,0
1523618368255,196608,94,-56,-1,-1,0
1523618368255,196608,94,-56,-1,-1,0
1523618368294,262144,94,-56,-1,-1,0
1523618368294,262144,94,-56,-1,-1,0
1523618368294,131072,94,-56,-1,-1,0
1523618368294,-65536,94,-56,-1,-1,0
1523618368294,-327680,94,-56,-1,-1,0
1523618368334,-458752,94,-56,-1,-1,0
1523618368334,-589824,94,-56,-1,-1,0
1523618368334,-655360,94,-56,-1,-1,0
1523618368334,-720896,94,-56,-1,-1,0
1523618368334,-720896,94,-56,-1,-1,0
1523618368374,-786432,94,-56,-1,-1,0
1523618368374,-786432,94,-56,-1,-1,0
1523618368374,-851968,94,-56,-1,-1,0
1523618368374,-786432,94,-56,-1,-1,0
1523618368374,-851968,94,-56,-1,-1,0
1523618368414,-851968,94,-56,-1,-1,0
1523618368414,-983040,94,-56,-1,-1,0
1523618368414,-1376256,94,-56,-1,-1,0
1523618368414,-1441792,94,-56,-1,-1,0
1523618368414,458752,94,-56,-1,-1,0
1523618368454,5570560,94,-56,-1,-1,0
1523618368454,9633792,94,-56,-1,-1,0
1523618368454,7929856,94,-56,-1,-1,0
1523618368454,2818048,94,-56,-1,-1,0
1523618368454,-196608,94,-56,-1,-1,0
1523618368494,-917504,94,-56,-1,-1,0
1523618368494,-1114112,94,-56,-1,-1,0
1523618368494,-1245184,94,-56,-1,-1,0
1523618368494,-1376256,94,-56,-1,-1,0
1523618368494,-1441792,94,-56,-1,-1,0
1523618368534,-1376256,94,-56,-1,-1,0
1523618368534,-1376256,94,-56,-1,-1,0
1523618368534,-1376256,94,-56,-1,-1,0
1523618368534,-1441792,94,-56,-1,-1,0
1523618368534,-1507328,94,-56,-1,-1,0
1523618368574,-1441792,94,-56,-1,-1,0
1523618368574,-1441792,94,-56,-1,-1,0
1523618368574,-1441792,94,-56,-1,-1,0
1523618368574,-1310720,94,-56,-1,-1,0
1523618368574,-1179648,94,-56,-1,-1,0
1523618368614,-1048576,94,-56,-1,-1,0
1523618368614,-983040,94,-56,-1,-1,0
1523618368614,-786432,94,-56,-1,-1,0
1523618368614,-589824,94,-56,-1,-1,0
1523618368614,-327680,94,-56,-1,-1,0
1523618368654,0,94,-56,-1,-1,0
1523618368654,262144,94,-56,-1,-1,0
1523618368654,589824,94,-56,-1,-1,0
1523618368654,786432,94,-56,-1,-1,0
1523618368654,917504,94,-56,-1,-1,0
1523618368694,983040,94,-56,-1,-1,0
1523618368694,851968,94,-56,-1,-1,0
1523618368694,786432,94,-56,-1,-1,0
1523618368694,589824,94,-56,-1,-1,0
1523618368694,196608,94,-56,-1,-1,0
1523618368734,-65536,94,-56,-1,-1,0
1523618368734,-393216,94,-56,-1,-1,0
1523618368734,-720896,94,-56,-1,-1,0
1523618368734,-983040,94,-56,-1,-1,0
1523618368734,-1179648,94,-56,-1,-1,0
1523618368774,-1310720,94,-56,-1,-1,0
1523618368774,-1376256,94,-56,-1,-1,0
1523618368774,-1441792,94,-56,-1,-1,0
1523618368774,-1310720,94,-56,-1,-1,0
1523618368774,-1245184,94,-56,-1,-1,0
1523618368814,-1245184,94,-56,-1,-1,0
1523618368814,-1310720,94,-56,-1,-1,0
1523618368814,-1179648,94,-56,-1,-1,0
1523618368814,-1114112,94,-56,-1,-1,0
1523618368814,-1179648,94,-56,-1,-1,0
1523618368854,-1179648,94,-56,-1,-1,0
1523618368854,-1048576,94,-56,-1,-1,0
1523618368854,-851968,94,-56,-1,-1,0
1523618368854,-720896,94,-56,-1,-1,0
1523618368854,-655360,94,-56,-1,-1,0
1523618368895,-589824,94,-56,-1,-1,0
1523618368895,-524288,94,-56,-1,-1,0
1523618368895,-458752,94,-56,-1,-1,0
1523618368895,-589824,94,-56,-1,-1,0
1523618368895,-786432,94,-56,-1,-1,0
1523618368934,-917504,94,-56,-1,-1,0
1523618368934,-983040,94,-56,-1,-1,0
1523618368934,-1048576,94,-56,-1,-1,0
1523618368934,-1114112,94,-56,-1,-1,0
1523618368934,-1114112,94,-56,-1,-1,0
1523618368974,-1048576,94,-56,-1,-1,0
1523618368974,-1114112,94,-56,-1,-1,0
1523618368974,-1179648,94,-56,-1,-1,0
1523618368974,-1245184,94,-56,-1,-1,0
1523618368974,-1245184,94,-56,-1,-1,0
1523618369014,-1245184,94,-56,-1,-1,0
1523618369014,-1179648,94,-56,-1,-1,0
1523618369014,-1310720,94,-56,-1,-1,0
1523618369014,-1441792,94,-56,-1,-1,0
1523618369014,-524288,94,-56,-1,-1,0
1523618369054,3080192,94,-56,-1,-1,0
1523618369054,8519680,94,-56,-1,-1,0
1523618369054,10092544,94,-56,-1,-1,0
1523618369054,6094848,94,-56,-1,-1,0
1523618369054,1376256,94,-56,-1,-1,0
1523618369094,-393216,94,-56,-1,-1,0
1523618369094,-851968,94,-56,-1,-1,0
1523618369094,-917504,94,-56,-1,-1,0
1523618369094,-851968,94,-56,-1,-1,0
1523618369094,-851968,94,-56,-1,-1,0
1523618369134,-720896,94,-56,-1,-1,0
1523618369134,-720896,94,-56,-1,-1,0
1523618369134,-589824,94,-56,-1,-1,0
1523618369134,-458752,94,-56,-1,-1,0
1523618369134,-458752,94,-56,-1,-1,0
1523618369174,-589824,94,-56,-1,-1,0
1523618369174,-589824,94,-56,-1,-1,0
1523618369174,-524288,94,-56,-1,-1,0
1523618369174,-589824,94,-56,-1,-1,0
1523618369174,-589824,94,-56,-1,-1,0
1523618369214,-524288,94,-56,-1,-1,0
1523618369214,-327680,94,-56,-1,-1,0
1523618369214,-262144,94,-56,-1,-1,0
1523618369214,-131072,94,-56,-1,-1,0
1523618369214,0,94,-56,-1,-1,0
1523618369254,458752,94,-56,-1,-1,0
1523618369254,786432,94,-56,-1,-1,0
1523618369254,1114112,94,-56,-1,-1,0
1523618369254,1441792,94,-56,-1,-1,0
1523618369254,1638400,94,-56,-1,-1,0
1523618369294,1835008,94,-56,-1,-1,0
1523618369294,2031616,94,-56,-1,-1,0
1523618369294,2031616,94,-56,-1,-1,0
1523618369294,1835008,94,-56,-1,-1,0
1523618369294,1507328,94,-56,-1,-1,0
1523618369334,1114112,94,-56,-1,-1,0
1523618369334,655360,94,-56,-1,-1,0
1523618369334,327680,94,-56,-1,-1,0
1523618369334,65536,94,-56,-1,-1,0
1523618369334,0,94,-56,-1,-1,0
1523618369374,-131072,94,-56,-1,-1,0
1523618369374,-196608,94,-56,-1,-1,0
1523618369374,-327680,94,-56,-1,-1,0
1523618369374,-327680,94,-56,-1,-1,0
1523618369374,-262144,94,-56,-1,-1,0
1523618369414,-262144,94,-56,-1,-1,0
1523618369414,-262144,94,-56,-1,-1,0
1523618369414,-262144,94,-56,-1,-1,0
1523618369414,-196608,94,-56,-1,-1,0
1523618369414,-196608,94,-56,-1,-1,0
1523618369454,-131072,94,-56,-1,-1,0
1523618369454,-65536,94,-56,-1,-1,0
1523618369454,131072,94,-56,-1,-1,0
1523618369454,196608,94,-56,-1,-1,0
1523618369454,65536,94,-56,-1,-1,0
1523618369494,0,94,-56,-1,-1,0
1523618369494,0,94,-56,-1,-1,0
1523618369494,0,94,-56,-1,-1,0
1523618369494,-65536,94,-56,-1,-1,0
1523618369494,-327680,94,-56,-1,-1,0
1523618369535,-524288,94,-56,-1,-1,0
1523618369535,-589824,94,-56,-1,-1,0
1523618369535,-655360,94,-56,-1,-1,0
1523618369535,-655360,94,-56,-1,-1,0
1523618369535,-589824,94,-56,-1,-1,0
1523618369574,-655360,94,-56,-1,-1,0
1523618369574,-720896,94,-56,-1,-1,0
1523618369574,-786432,94,-56,-1,-1,0
1523618369574,-720896,94,-56,-1,-1,0
1523618369574,-655360,94,-56,-1,-1,0
1523618369614,-655360,94,-56,-1,-1,0
1523618369614,-786432,94,-56,-1,-1,0
1523618369614,-1048576,94,-56,-1,-1,0
1523618369614,-1048576,94,-56,-1,-1,0
1523618369614,524288,94,-56,-1,-1,0
1523618369654,5242880,94,-56,-1,-1,0
1523618369654,10420224,94,-56,-1,-1,0
1523618369654,10092544,94,-56,-1,-1,0
1523618369654,4718592,94,-56,-1,-1,0
1523618369654,327680,94,-56,-1,-1,0
1523618369694,-655360,94,-56,-1,-1,0
1523618369694,-851968,94,-56,-1,-1,0
1523618369694,-917504,94,-56,-1,-1,0
1523618369694,-1114112,94,-56,-1,-1,0
1523618369694,-1310720,94,-56,-1,-1,0
1523618369734,-1310720,94,-56,-1,-1,0
1523618369734,-1376256,94,-56,-1,-1,0
1523618369734,-1441792,94,-56,-1,-1,0
1523618369734,-1376256,94,-56,-1,-1,0
1523618369734,-1245184,94,-56,-1,-1,0
1523618369774,-1245184,94,-56,-1,-1,0
1523618369774,-1179648,94,-56,-1,-1,0
1523618369774,-1179648,94,-56,-1,-1,0
1523618369774,-1048576,94,-56,-1,-1,0
1523618369774,-983040,94,-56,-1,-1,0
1523618369814,-851968,94,-56,-1,-1,0
1523618369814,-786432,94,-56,-1,-1,0
1523618369814,-524288,94,-56,-1,-1,0
1523618369814,-262144,94,-56,-1,-1,0
1523618369814,-131072,94,-56,-1,-1,0
1523618369854,65536,94,-56,-1,-1,0
1523618369854,393216,94,-56,-1,-1,0
1523618369854,786432,94,-56,-1,-1,0
1523618369854,1114112,94,-56,-1,-1,0
1523618369854,1376256,94,-56,-1,-1,0
1523618369894,1507328,94,-56,-1,-1,0
1523618369894,1572864,94,-56,-1,-1,0
1523618369894,1376256,94,-56,-1,-1,0
1523618369894,1114112,94,-56,-1,-1,0
1523618369894,786432,94,-56,-1,-1,0
1523618369934,393216,94,-56,-1,-1,0
1523618369934,65536,94,-56,-1,-1,0
1523618369934,-262144,94,-56,-1,-1,0
1523618369934,-655360,94,-56,-1,-1,0
1523618369934,-851968,94,-56,-1,-1,0
1523618369974,-917504,94,-56,-1,-1,0
1523618369974,-983040,94,-56,-1,-1,0
1523618369974,-983040,94,-56,-1,-1,0
1523618369974,-983040,94,-56,-1,-1,0
1523618369974,-983040,94,-56,-1,-1,0
1523618370014,-1048576,94,-56,-1,-1,0
1523618370014,-1114112,94,-56,-1,-1,0
1523618370014,-983040,94,-56,-1,-1,0
1523618370014,-851968,94,-56,-1,-1,0
1523618370014,-851968,94,-56,-1,-1,0
1523618370054,-786432,94,-56,-1,-1,0
1523618370054,-655360,94,-56,-1,-1,0
1523618370054,-524288,94,-56,-1,-1,0
1523618370054,-524288,94,-56,-1,-1,0
1523618370054,-524288,94,-56,-1,-1,0
1523618370094,-524288,95,-56,-1,-1,0
1523618370094,-589824,95,-56,-1,-1,0
1523618370094,-917504,95,-56,-1,-1,0
1523618370094,-1179648,95,-56,-1,-1,0
1523618370094,-1376256,95,-56,-1,-1,0
1523618370134,-1507328,95,-56,-1,-1,0
1523618370134,-1572864,95,-56,-1,-1,0
1523618370134,-1572864,95,-56,-1,-1,0
1523618370134,-1507328,95,-56,-1,-1,0
1523618370134,-1376256,95,-56,-1,-1,0
1523618370175,-1441792,95,-56,-1,-1,0
1523618370175,-1507328,95,-56,-1,-1,0
1523618370175,-1507328,95,-56,-1,-1,0
1523618370175,-1572864,95,-56,-1,-1,0
1523618370175,-1572864,95,-56,-1,-1,0
1523618370214,-1638400,95,-56,-1,-1,0
1523618370214,-1835008,95,-56,-1,-1,0
1523618370214,-1769472,95,-56,-1,-1,0
1523618370214,262144,95,-56,-1,-1,0
1523618370214,5570560,95,-56,-1,-1,0
1523618370254,10289152,95,-56,-1,-1,0
1523618370254,9043968,95,-56,-1,-1,0
1523618370254,3735552,95,-56,-1,-1,0
1523618370254,0,95,-56,-1,-1,0
1523618370254,-983040,95,-56,-1,-1,0
1523618370294,-1245184,95,-56,-1,-1,0
1523618370294,-1376256,95,-56,-1,-1,0
1523618370294,-1376256,95,-56,-1,-1,0
1523618370294,-1376256,95,-56,-1,-1,0
1523618370294,-1376256,95,-56,-1,-1,0
1523618370334,-1376256,95,-56,-1,-1,0
1523618370334,-1245184,95,-56,-1,-1,0
1523618370334,-1245184,95,-56,-1,-1,0
1523618370334,-1114112,95,-56,-1,-1,0
1523618370334,-1048576,95,-56,-1,-1,0
1523618370374,-851968,95,-56,-1,-1,0
1523618370374,-851968,95,-56,-1,-1,0
1523618370374,-786432,95,-56,-1,-1,0
1523618370374,-720896,95,-56,-1,-1,0
1523618370374,-458752,95,-56,-1,-1,0
1523618370414,-327680,95,-56,-1,-1,0
1523618370414,-131072,95,-56,-1,-1,0
1523618370414,0,95,-56,-1,-1,0
1523618370414,327680,95,-56,-1,-1,0
1523618370414,720896,95,-56,-1,-1,0
1523618370454,1179648,95,-56,-1,-1,0
1523618370454,1572864,95,-56,-1,-1,0
1523618370454,1769472,95,-56,-1,-1,0
1523618370454,1900544,95,-56,-1,-1,0
1523618370454,2162688,95,-56,-1,-1,0
1523618370494,2228224,95,-56,-1,-1,0
1523618370494,2162688,95,-56,-1,-1,0
1523618370494,1835008,95,-56,-1,-1,0
1523618370494,1441792,95,-56,-1,-1,0
1523618370494,1114112,95,-56,-1,-1,0
1523618370534,851968,95,-56,-1,-1,0
1523618370534,589824,95,-56,-1,-1,0
1523618370534,458752,95,-56,-1,-1,0
1523618370534,327680,95,-56,-1,-1,0
1523618370534,65536,95,-56,-1,-1,0
1523618370574,-65536,95,-56,-1,-1,0
1523618370574,-65536,95,-56,-1,-1,0
1523618370574,-131072,95,-56,-1,-1,0
1523618370574,-131072,95,-56,-1,-1,0
1523618370574,-131072,95,-56,-1,-1,0
1523618370614,-131072,95,-56,-1,-1,0
1523618370614,0,95,-56,-1,-1,0
1523618370614,0,95,-56,-1,-1,0
1523618370614,0,95,-56,-1,-1,0
1523618370614,0,95,-56,-1,-1,0
1523618370654,0,95,-56,-1,-1,0
1523618370654,65536,95,-56,-1,-1,0
1523618370654,131072,95,-56,-1,-1,0
1523618370654,196608,95,-56,-1,-1,0
1523618370654,131072,95,-56,-1,-1,0
1523618370694,-65536,95,-56,-1,-1,0
1523618370694,-196608,95,-56,-1,-1,0
1523618370694,-131072,95,-56,-1,-1,0
1523618370694,-131072,95,-56,-1,-1,0
1523618370694,-327680,95,-56,-1,-1,0
1523618370734,-524288,95,-56,-1,-1,0
1523618370734,-589824,95,-56,-1,-1,0
1523618370734,-524288,95,-56,-1,-1,0
1523618370734,-524288,95,-56,-1,-1,0
1523618370734,-589824,95,-56,-1,-1,0
1523618370774,-720896,95,-56,-1,-1,0
1523618370774,-589824,95,-56,-1,-1,0
1523618370774,-589824,95,-56,-1,-1,0
1523618370774,-720896,95,-56,-1,-1,0
1523618370774,-1048576,95,-56,-1,-1,0
1523618370815,-917504,95,-56,-1,-1,0
1523618370815,851968,95,-56,-1,-1,0
1523618370815,5701632,95,-56,-1,-1,0
1523618370815,10813440,95,-56,-1,-1,0
1523618370815,10223616,95,-56,-1,-1,0
1523618370854,4587520,95,-56,-1,-1,0
1523618370854,196608,95,-56,-1,-1,0
1523618370854,-720896,95,-56,-1,-1,0
1523618370854,-720896,95,-56,-1,-1,0
1523618370854,-589824,95,-56,-1,-1,0
1523618370894,-589824,95,-56,-1,-1,0
1523618370894,-655360,95,-56,-1,-1,0
1523618370894,-589824,95,-56,-1,-1,0
1523618370894,-655360,95,-56,-1,-1,0
1523618370894,-720896,95,-56,-1,-1,0
1523618370934,-655360,95,-56,-1,-1,0
1523618370934,-524288,95,-56,-1,-1,0
1523618370934,-458752,95,-56,-1,-1,0
1523618370934,-393216,95,-56,-1,-1,0
1523618370934,-393216,95,-56,-1,-1,0
1523618370974,-458752,95,-56,-1,-1,0
1523618370974,-458752,95,-56,-1,-1,0
1523618370974,-393216,95,-56,-1,-1,0
1523618370974,-262144,95,-56,-1,-1,0
1523618370974,-131072,95,-56,-1,-1,0
1523618371014,65536,95,-56,-1,-1,0
1523618371014,327680,95,-56,-1,-1,0
1523618371014,655360,95,-56,-1,-1,0
1523618371014,917504,95,-56,-1,-1,0
1523618371014,1310720,95,-56,-1,-1,0
1523618371054,1507328,95,-56,-1,-1,0
1523618371054,1769472,95,-56,-1,-1,0
1523618371054,1966080,95,-56,-1,-1,0
1523618371054,2097152,95,-56,-1,-1,0
1523618371054,2031616,95,-56,-1,-1,0
1523618371094,1769472,95,-56,-1,-1,0
1523618371094,1376256,95,-56,-1,-1,0
1523618371094,983040,95,-56,-1,-1,0
1523618371094,458752,95,-56,-1,-1,0
1523618371094,131072,95,-56,-1,-1,0
1523618371134,-131072,95,-56,-1,-1,0
1523618371134,-327680,95,-56,-1,-1,0
1523618371134,-458752,95,-56,-1,-1,0
1523618371134,-524288,95,-56,-1,-1,0
1523618371134,-589824,95,-56,-1,-1,0
1523618371174,-655360,95,-56,-1,-1,0
1523618371174,-720896,95,-56,-1,-1,0
1523618371174,-786432,95,-56,-1,-1,0
1523618371174,-720896,95,-56,-1,-1,0
1523618371174,-655360,95,-56,-1,-1,0
1523618371214,-655360,95,-56,-1,-1,0
1523618371214,-720896,95,-56,-1,-1,0
1523618371214,-655360,95,-56,-1,-1,0
1523618371214,-655360,95,-56,-1,-1,0
1523618371214,-655360,95,-56,-1,-1,0
1523618371254,-655360,96,-56,-1,-1,0
1523618371254,-589824,96,-56,-1,-1,0
1523618371254,-720896,96,-56,-1,-1,0
1523618371254,-1048576,96,-56,-1,-1,0
1523618371254,-1441792,96,-56,-1,-1,0
1523618371294,-1572864,96,-56,-1,-1,0
1523618371294,-1638400,96,-56,-1,-1,0
1523618371294,-1703936,96,-56,-1,-1,0
1523618371294,-1835008,96,-56,-1,-1,0
1523618371294,-1835008,96,-56,-1,-1,0
1523618371334,-1835008,96,-56,-1,-1,0
1523618371334,-1966080,96,-56,-1,-1,0
1523618371334,-1966080,96,-56,-1,-1,0
1523618371334,-1966080,96,-56,-1,-1,0
1523618371334,-1835008,96,-56,-1,-1,0
1523618371374,-1835008,96,-56,-1,-1,0
1523618371374,-1966080,96,-56,-1,-1,0
1523618371374,-2490368,96,-56,-1,-1,0
1523618371374,-2097152,96,-56,-1,-1,0
1523618371374,917504,96,-56,-1,-1,0
1523618371414,6815744,96,-56,-1,-1,0
1523618371414,10485760,96,-56,-1,-1,0
1523618371414,7929856,96,-56,-1,-1,0
1523618371414,2424832,96,-56,-1,-1,0
1523618371414,-720896,96,-56,-1,-1,0
1523618371455,-1441792,96,-56,-1,-1,0
1523618371455,-1638400,96,-56,-1,-1,0
1523618371455,-1966080,96,-56,-1,-1,0
1523618371455,-2228224,96,-56,-1,-1,0
1523618371455,-2228224,96,-56,-1,-1,0
1523618371494,-2228224,96,-56,-1,-1,0
1523618371494,-2293760,96,-56,-1,-1,0
1523618371494,-2162688,96,-56,-1,-1,0
1523618371494,-1966080,96,-56,-1,-1,0
1523618371494,-1966080,96,-56,-1,-1,0
1523618371534,-2031616,96,-56,-1,-1,0
1523618371534,-1966080,96,-56,-1,-1,0
1523618371534,-1900544,96,-56,-1,-1,0
1523618371534,-1835008,96,-56,-1,-1,0
1523618371534,-1703936,96,-56,-1,-1,0
1523618371574,-1507328,96,-56,-1,-1,0
1523618371574,-1310720,96,-56,-1,-1,0
1523618371574,-1179648,96,-56,-1,-1,0
1523618371574,-917504,96,-56,-1,-1,0
1523618371574,-655360,96,-56,-1,-1,0
1523618371614,-327680,96,-56,-1,-1,0
1523618371614,0,96,-56,-1,-1,0
1523618371614,196608,96,-56,-1,-1,0
1523618371614,458752,96,-56,-1,-1,0
1523618371614,589824,96,-56,-1,-1,0
1523618371654,720896,96,-56,-1,-1,0
1523618371654,720896,96,-56,-1,-1,0
1523618371654,524288,96,-56,-1,-1,0
1523618371654,262144,96,-56,-1,-1,0
1523618371654,0,96,-56,-1,-1,0
1523618371694,-196608,96,-56,-1,-1,0
1523618371694,-458752,96,-56,-1,-1,0
1523618371694,-655360,96,-56,-1,-1,0
1523618371694,-786432,96,-56,-1,-1,0
1523618371694,-851968,96,-56,-1,-1,0
1523618371734,-851968,96,-56,-1,-1,0
1523618371734,-851968,96,-56,-1,-1,0
1523618371734,-786432,96,-56,-1,-1,0
1523618371734,-851968,96,-56,-1,-1,0
1523618371734,-786432,96,-56,-1,-1,0
1523618371774,-720896,96,-56,-1,-1,0
1523618371774,-655360,96,-56,-1,-1,0
1523618371774,-524288,96,-56,-1,-1,0
1523618371774,-458752,96,-56,-1,-1,0
1523618371774,-327680,96,-56,-1,-1,0
1523618371814,-196608,96,-56,-1,-1,0
1523618371814,-131072,96,-56,-1,-1,0
1523618371814,-131072,96,-56,-1,-1,0
1523618371814,0,96,-56,-1,-1,0
1523618371814,65536,96,-56,-1,-1,0
1523618371854,-65536,96,-56,-1,-1,0
1523618371854,-327680,96,-56,-1,-1,0
1523618371854,-524288,96,-56,-1,-1,0
1523618371854,-524288,96,-56,-1,-1,0
1523618371854,-589824,96,-56,-1,-1,0
1523618371894,-655360,96,-56,-1,-1,0
1523618371894,-589824,96,-56,-1,-1,0
1523618371894,-524288,96,-56,-1,-1,0
1523618371894,-458752,96,-56,-1,-1,0
1523618371894,-524288,96,-56,-1,-1,0
1523618371934,-524288,96,-56,-1,-1,0
1523618371934,-524288,96,-56,-1,-1,0
1523618371934,-458752,96,-56,-1,-1,0
1523618371934,-589824,96,-56,-1,-1,0
1523618371934,-851968,96,-56,-1,-1,0
1523618371974,-917504,96,-56,-1,-1,0
1523618371974,0,96,-56,-1,-1,0
1523618371974,3670016,96,-56,-1,-1,0
1523618371974,9306112,96,-56,-1,-1,0
1523618371974,11010048,96,-56,-1,-1,0
1523618372014,6815744,96,-56,-1,-1,0
1523618372014,1835008,96,-56,-1,-1,0
1523618372014,0,96,-56,-1,-1,0
1523618372014,-196608,96,-56,-1,-1,0
1523618372014,-327680,96,-56,-1,-1,0
1523618372054,-393216,96,-56,-1,-1,0
1523618372054,-458752,96,-56,-1,-1,0
1523618372054,-524288,96,-56,-1,-1,0
1523618372054,-524288,96,-56,-1,-1,0
1523618372054,-458752,96,-56,-1,-1,0
1523618372095,-458752,96,-56,-1,-1,0
1523618372095,-327680,96,-56,-1,-1,0
1523618372095,-327680,96,-56,-1,-1,0
1523618372095,-458752,96,-56,-1,-1,0
1523618372095,-393216,96,-56,-1,-1,0
1523618372134,-196608,96,-56,-1,-1,0
1523618372134,-65536,96,-56,-1,-1,0
1523618372134,-131072,96,-56,-1,-1,0
1523618372134,-65536,96,-56,-1,-1,0
1523618372134,-65536,96,-56,-1,-1,0
1523618372174,131072,96,-56,-1,-1,0
1523618372174,327680,96,-56,-1,-1,0
1523618372174,589824,96,-56,-1,-1,0
1523618372174,786432,96,-56,-1,-1,0
1523618372174,917504,96,-56,-1,-1,0
1523618372214,1179648,96,-56,-1,-1,0
1523618372214,1507328,96,-56,-1,-1,0
1523618372214,1638400,96,-56,-1,-1,0
1523618372214,1638400,96,-56,-1,-1,0
1523618372214,1638400,96,-56,-1,-1,0
1523618372254,1441792,96,-56,-1,-1,0
1523618372254,1048576,96,-56,-1,-1,0
1523618372254,655360,96,-56,-1,-1,0
1523618372254,393216,96,-56,-1,-1,0
1523618372254,65536,96,-56,-1,-1,0
1523618372294,-196608,96,-56,-1,-1,0
1523618372294,-524288,96,-56,-1,-1,0
1523618372294,-720896,96,-56,-1,-1,0
1523618372294,-786432,96,-56,-1,-1,0
1523618372294,-917504,96,-56,-1,-1,0
1523618372334,-983040,96,-56,-1,-1,0
1523618372334,-983040,96,-56,-1,-1,0
1523618372334,-983040,96,-56,-1,-1,0
1523618372334,-983040,96,-56,-1,-1,0
1523618372334,-983040,96,-56,-1,-1,0
1523618372374,-983040,96,-56,-1,-1,0
1523618372374,-851968,96,-56,-1,-1,0
1523618372374,-720896,96,-56,-1,-1,0
1523618372374,-720896,96,-56,-1,-1,0
1523618372374,-786432,96,-56,-1,-1,0
1523618372414,-786432,97,-56,-1,-1,0
1523618372414,-720896,97,-56,-1,-1,0
1523618372414,-786432,97,-56,-1,-1,0
1523618372414,-1048576,97,-56,-1,-1,0
1523618372414,-1310720,97,-56,-1,-1,0
1523618372454,-1507328,97,-56,-1,-1,0
1523618372454,-1572864,97,-56,-1,-1,0
1523618372454,-1703936,97,-56,-1,-1,0
1523618372454,-1769472,97,-56,-1,-1,0
1523618372454,-1900544,97,-56,-1,-1,0
1523618372494,-2031616,97,-56,-1,-1,0
1523618372494,-2031616,97,-56,-1,-1,0
1523618372494,-2031616,97,-56,-1,-1,0
1523618372494,-2162688,97,-56,-1,-1,0
1523618372494,-2162688,97,-56,-1,-1,0
1523618372534,-2031616,97,-56,-1,-1,0
1523618372534,-1966080,97,-56,-1,-1,0
1523618372534,-2162688,97,-56,-1,-1,0
1523618372534,-2228224,97,-56,-1,-1,0
1523618372534,-851968,97,-56,-1,-1,0
1523618372574,3538944,97,-56,-1,-1,0
1523618372574,9109504,97,-56,-1,-1,0
1523618372574,9830400,97,-56,-1,-1,0
1523618372574,5111808,97,-56,-1,-1,0
1523618372574,458752,97,-56,-1,-1,0
1523618372614,-1048576,97,-56,-1,-1,0
1523618372614,-1376256,97,-56,-1,-1,0
1523618372614,-1507328,97,-56,-1,-1,0
1523618372614,-1507328,97,-56,-1,-1,0
1523618372614,-1703936,97,-56,-1,-1,0
1523618372654,-1703936,97,-56,-1,-1,0
1523618372654,-1769472,97,-56,-1,-1,0
1523618372654,-1769472,97,-56,-1,-1,0
1523618372654,-1769472,97,-56,-1,-1,0
1523618372654,-1572864,97,-56,-1,-1,0
1523618372694,-1376256,97,-56,-1,-1,0
1523618372694,-1376256,97,-56,-1,-1,0
1523618372694,-1507328,97,-56,-1,-1,0
1523618372694,-1769472,97,-56,-1,-1,0
1523618372694,-1572864,97,-56,-1,-1,0
1523618372735,-1179648,97,-56,-1,-1,0
1523618372735,-917504,97,-56,-1,-1,0
1523618372735,-655360,97,-56,-1,-1,0
1523618372735,-327680,97,-56,-1,-1,0
1523618372735,-131072,97,-56,-1,-1,0
1523618372774,-65536,97,-56,-1,-1,0
1523618372774,262144,97,-56,-1,-1,0
1523618372774,851968,97,-56,-1,-1,0
1523618372774,1179648,97,-56,-1,-1,0
1523618372774,1376256,97,-56,-1,-1,0
1523618372814,1638400,97,-56,-1,-1,0
1523618372814,1638400,97,-56,-1,-1,0
1523618372814,1441792,97,-56,-1,-1,0
1523618372814,1179648,97,-56,-1,-1,0
1523618372814,983040,97,-56,-1,-1,0
1523618372854,589824,97,-56,-1,-1,0
1523618372854,196608,97,-56,-1,-1,0
1523618372854,0,97,-56,-1,-1,0
1523618372854,0,97,-56,-1,-1,0
1523618372854,-65536,97,-56,-1,-1,0
1523618372894,-196608,97,-56,-1,-1,0
1523618372894,-458752,97,-56,-1,-1,0
1523618372894,-524288,97,-56,-1,-1,0
1523618372894,-393216,97,-56,-1,-1,0
1523618372894,-327680,97,-56,-1,-1,0
1523618372934,-262144,97,-56,-1,-1,0
1523618372934,-131072,97,-56,-1,-1,0
1523618372934,-65536,97,-56,-1,-1,0
1523618372934,-65536,97,-56,-1,-1,0
1523618372934,-65536,97,-56,-1,-1,0
1523618372974,0,98,-56,-1,-1,0
1523618372974,0,98,-56,-1,-1,0
1523618372974,0,98,-56,-1,-1,0
1523618372974,131072,98,-56,-1,-1,0
1523618372974,262144,98,-56,-1,-1,0
1523618373014,196608,98,-56,-1,-1,0
1523618373014,-65536,98,-56,-1,-1,0
1523618373014,-327680,98,-56,-1,-1,0
1523618373014,-393216,98,-56,-1,-1,0
1523618373014,-458752,98,-56,-1,-1,0
1523618373054,-524288,98,-56,-1,-1,0
1523618373054,-720896,98,-56,-1,-1,0
1523618373054,-851968,98,-56,-1,-1,0
1523618373054,-851968,98,-56,-1,-1,0
1523618373054,-917504,98,-56,-1,-1,0
1523618373094,-851968,98,-56,-1,-1,0
1523618373094,-720896,98,-56,-1,-1,0
1523618373094,-589824,98,-56,-1,-1,0
1523618373094,-655360,98,-56,-1,-1,0
1523618373094,-786432,98,-56,-1,-1,0
1523618373134,-851968,98,-56,-1,-1,0
1523618373134,458752,98,-56,-1,-1,0
1523618373134,4653056,98,-56,-1,-1,0
1523618373134,9633792,98,-56,-1,-1,0
1523618373134,10092544,98,-56,-1,-1,0
1523618373174,5832704,98,-56,-1,-1,0
1523618373174,1703936,98,-56,-1,-1,0
1523618373174,131072,98,-56,-1,-1,0
1523618373174,-262144,98,-56,-1,-1,0
1523618373174,-327680,98,-56,-1,-1,0
1523618373214,-458752,98,-56,-1,-1,0
1523618373214,-655360,98,-56,-1,-1,0
1523618373214,-524288,98,-56,-1,-1,0
1523618373214,-458752,98,-56,-1,-1,0
1523618373214,-524288,98,-56,-1,-1,0
1523618373254,-589824,98,-56,-1,-1,0
1523618373254,-458752,98,-56,-1,-1,0
1523618373254,-393216,98,-56,-1,-1,0
1523618373254,-458752,98,-56,-1,-1,0
1523618373254,-458752,98,-56,-1,-1,0
1523618373294,-393216,98,-56,-1,-1,0
1523618373294,-196608,98,-56,-1,-1,0
1523618373294,-65536,98,-56,-1,-1,0
1523618373294,-65536,98,-56,-1,-1,0
1523618373294,-65536,98,-56,-1,-1,0
1523618373334,65536,98,-56,-1,-1,0
1523618373334,393216,98,-56,-1,-1,0
1523618373334,589824,98,-56,-1,-1,0
1523618373334,720896,98,-56,-1,-1,0
1523618373334,917504,98,-56,-1,-1,0
1523618373375,1245184,98,-56,-1,-1,0
1523618373375,1507328,98,-56,-1,-1,0
1523618373375,1638400,98,-56,-1,-1,0
1523618373375,1769472,98,-56,-1,-1,0
1523618373375,1572864,98,-56,-1,-1,0
1523618373414,1376256,98,-56,-1,-1,0
1523618373414,1114112,98,-56,-1,-1,0
1523618373414,786432,98,-56,-1,-1,0
1523618373414,393216,98,-56,-1,-1,0
1523618373414,65536,98,-56,-1,-1,0
1523618373454,-131072,98,-56,-1,-1,0
1523618373454,-393216,98,-56,-1,-1,0
1523618373454,-524288,98,-56,-1,-1,0
1523618373454,-589824,98,-56,-1,-1,0
1523618373454,-655360,98,-56,-1,-1,0
1523618373494,-786432,98,-56,-1,-1,0
1523618373494,-851968,98,-56,-1,-1,0
1523618373494,-851968,98,-56,-1,-1,0
1523618373494,-655360,98,-56,-1,-1,0
1523618373494,-589824,98,-56,-1,-1,0
1523618373534,-655360,98,-56,-1,-1,0
1523618373534,-786432,98,-56,-1,-1,0
1523618373534,-720896,98,-56,-1,-1,0
1523618373534,-655360,98,-56,-1,-1,0
1523618373534,-589824,98,-56,-1,-1,0
1523618373574,-458752,100,-56,-1,-1,0
1523618373574,-589824,100,-56,-1,-1,0
1523618373574,-917504,100,-56,-1,-1,0
1523618373574,-1310720,100,-56,-1,-1,0
1523618373574,-1572864,100,-56,-1,-1,0
1523618373614,-1638400,100,-56,-1,-1,0
1523618373614,-1638400,100,-56,-1,-1,0
1523618373614,-1835008,100,-56,-1,-1,0
1523618373614,-2162688,100,-56,-1,-1,0
1523618373614,-2228224,100,-56,-1,-1,0
1523618373654,-2097152,100,-56,-1,-1,0
1523618373654,-1966080,100,-56,-1,-1,0
1523618373654,-2031616,100,-56,-1,-1,0
1523618373654,-1966080,100,-56,-1,-1,0
1523618373654,-1966080,100,-56,-1,-1,0
1523618373694,-2097152,100,-56,-1,-1,0
1523618373694,-2424832,100,-56,-1,-1,0
1523618373694,-2097152,100,-56,-1,-1,0
1523618373694,589824,100,-56,-1,-1,0
1523618373694,6488064,100,-56,-1,-1,0
1523618373734,10878976,100,-56,-1,-1,0
1523618373734,8716288,100,-56,-1,-1,0
1523618373734,2686976,100,-56,-1,-1,0
1523618373734,-1179648,100,-56,-1,-1,0
1523618373734,-1966080,100,-56,-1,-1,0
1523618373774,-2031616,100,-56,-1,-1,0
1523618373774,-2031616,100,-56,-1,-1,0
1523618373774,-2162688,100,-56,-1,-1,0
1523618373774,-2097152,100,-56,-1,-1,0
1523618373774,-1835008,100,-56,-1,-1,0
1523618373814,-1769472,100,-56,-1,-1,0
1523618373814,-1769472,100,-56,-1,-1,0
1523618373814,-1638400,100,-56,-1,-1,0
1523618373814,-1507328,100,-56,-1,-1,0
1523618373814,-1572864,100,-56,-1,-1,0
1523618373854,-1507328,100,-56,-1,-1,0
1523618373854,-1376256,100,-56,-1,-1,0
1523618373854,-1114112,100,-56,-1,-1,0
1523618373854,-917504,100,-56,-1,-1,0
1523618373854,-720896,100,-56,-1,-1,0
1523618373894,-589824,100,-56,-1,-1,0
1523618373894,-458752,100,-56,-1,-1,0
1523618373894,-262144,100,-56,-1,-1,0
1523618373894,-65536,100,-56,-1,-1,0
1523618373894,262144,100,-56,-1,-1,0
1523618373934,786432,100,-56,-1,-1,0
1523618373934,1114112,100,-56,-1,-1,0
1523618373934,1376256,100,-56,-1,-1,0
1523618373934,1638400,100,-56,-1,-1,0
1523618373934,1703936,100,-56,-1,-1,0
1523618373974,1441792,100,-56,-1,-1,0
1523618373974,1441792,100,-56,-1,-1,0
1523618373974,1376256,100,-56,-1,-1,0
1523618373974,851968,100,-56,-1,-1,0
1523618373974,262144,100,-56,-1,-1,0
1523618374015,-65536,100,-56,-1,-1,0
1523618374015,-196608,100,-56,-1,-1,0
1523618374015,-393216,100,-56,-1,-1,0
1523618374015,-589824,100,-56,-1,-1,0
1523618374015,-786432,100,-56,-1,-1,0
1523618374054,-786432,100,-56,-1,-1,0
1523618374054,-655360,100,-56,-1,-1,0
1523618374054,-458752,100,-56,-1,-1,0
1523618374054,-524288,100,-56,-1,-1,0
1523618374054,-458752,100,-56,-1,-1,0
1523618374094,-327680,100,-56,-1,-1,0
1523618374094,-131072,100,-56,-1,-1,0
1523618374094,-131072,100,-56,-1,-1,0
1523618374094,-131072,100,-56,-1,-1,0
1523618374094,0,100,-56,-1,-1,0
1523618374134,131072,101,-56,-1,-1,0
1523618374134,262144,101,-56,-1,-1,0
1523618374134,196608,101,-56,-1,-1,0
1523618374134,-65536,101,-56,-1,-1,0
1523618374134,-524288,101,-56,-1,-1,0
1523618374174,-720896,101,-56,-1,-1,0
1523618374174,-655360,101,-56,-1,-1,0
1523618374174,-655360,101,-56,-1,-1,0
1523618374174,-589824,101,-56,-1,-1,0
1523618374174,-524288,101,-56,-1,-1,0
1523618374214,-458752,101,-56,-1,-1,0
1523618374214,-524288,101,-56,-1,-1,0
1523618374214,-655360,101,-56,-1,-1,0
1523618374214,-655360,101,-56,-1,-1,0
1523618374214,-589824,101,-56,-1,-1,0
1523618374254,-458752,101,-56,-1,-1,0
1523618374254,-524288,101,-56,-1,-1,0
1523618374254,-786432,101,-56,-1,-1,0
1523618374254,-196608,101,-56,-1,-1,0
1523618374254,3080192,101,-56,-1,-1,0
1523618374294,9306112,101,-56,-1,-1,0
1523618374294,12910592,101,-56,-1,-1,0
1523618374294,9633792,101,-56,-1,-1,0
1523618374294,3604480,101,-56,-1,-1,0
1523618374294,524288,101,-56,-1,-1,0
1523618374334,131072,101,-56,-1,-1,0
1523618374334,131072,101,-56,-1,-1,0
1523618374334,0,101,-56,-1,-1,0
1523618374334,-131072,101,-56,-1,-1,0
1523618374334,-65536,101,-56,-1,-1,0
1523618374374,65536,101,-56,-1,-1,0
1523618374374,196608,101,-56,-1,-1,0
1523618374374,524288,101,-56,-1,-1,0
1523618374374,524288,101,-56,-1,-1,0
1523618374374,262144,101,-56,-1,-1,0
1523618374414,65536,101,-56,-1,-1,0
1523618374414,0,101,-56,-1,-1,0
1523618374414,0,101,-56,-1,-1,0
1523618374414,65536,101,-56,-1,-1,0
1523618374414,131072,101,-56,-1,-1,0
1523618374454,196608,101,-56,-1,-1,0
1523618374454,327680,101,-56,-1,-1,0
1523618374454,524288,101,-56,-1,-1,0
1523618374454,786432,101,-56,-1,-1,0
1523618374454,1114112,101,-56,-1,-1,0
1523618374494,1507328,101,-56,-1,-1,0
1523618374494,1835008,101,-56,-1,-1,0
1523618374494,2162688,101,-56,-1,-1,0
1523618374494,2490368,101,-56,-1,-1,0
1523618374494,2752512,101,-56,-1,-1,0
1523618374534,2949120,101,-56,-1,-1,0
1523618374534,3014656,101,-56,-1,-1,0
1523618374534,2883584,101,-56,-1,-1,0
1523618374534,2490368,101,-56,-1,-1,0
1523618374534,1900544,101,-56,-1,-1,0
1523618374574,1376256,101,-56,-1,-1,0
1523618374574,917504,101,-56,-1,-1,0
1523618374574,524288,101,-56,-1,-1,0
1523618374574,327680,101,-56,-1,-1,0
1523618374574,262144,101,-56,-1,-1,0
1523618374614,196608,101,-56,-1,-1,0
1523618374614,131072,101,-56,-1,-1,0
1523618374614,65536,101,-56,-1,-1,0
1523618374614,0,101,-56,-1,-1,0
1523618374614,-65536,101,-56,-1,-1,0
1523618374655,-196608,101,-56,-1,-1,0
1523618374655,-196608,101,-56,-1,-1,0
1523618374655,-65536,101,-56,-1,-1,0
1523618374655,-65536,101,-56,-1,-1,0
1523618374655,-196608,101,-56,-1,-1,0
1523618374694,-196608,102,-56,-1,-1,0
1523618374694,-65536,102,-56,-1,-1,0
1523618374694,-196608,102,-56,-1,-1,0
1523618374694,-458752,102,-56,-1,-1,0
1523618374694,-720896,102,-56,-1,-1,0
1523618374734,-851968,102,-56,-1,-1,0
1523618374734,-1048576,102,-56,-1,-1,0
1523618374734,-1245184,102,-56,-1,-1,0
1523618374734,-1376256,102,-56,-1,-1,0
1523618374734,-1441792,102,-56,-1,-1,0
1523618374774,-1507328,102,-56,-1,-1,0
1523618374774,-1507328,102,-56,-1,-1,0
1523618374774,-1572864,102,-56,-1,-1,0
1523618374774,-1572864,102,-56,-1,-1,0
1523618374774,-1703936,102,-56,-1,-1,0
1523618374814,-1900544,102,-56,-1,-1,0
1523618374814,-2228224,102,-56,-1,-1,0
1523618374814,-2490368,102,-56,-1,-1,0
1523618374814,-2031616,102,-56,-1,-1,0
1523618374814,720896,102,-56,-1,-1,0
1523618374854,6684672,102,-56,-1,-1,0
1523618374854,10747904,102,-56,-1,-1,0
1523618374854,8126464,102,-56,-1,-1,0
1523618374854,1966080,102,-56,-1,-1,0
1523618374854,-1638400,102,-56,-1,-1,0
1523618374894,-2359296,102,-56,-1,-1,0
1523618374894,-2424832,102,-56,-1,-1,0
1523618374894,-2490368,102,-56,-1,-1,0
1523618374894,-2424832,102,-56,-1,-1,0
1523618374894,-2424832,102,-56,-1,-1,0
1523618374934,-2359296,102,-56,-1,-1,0
1523618374934,-2293760,102,-56,-1,-1,0
1523618374934,-2097152,102,-56,-1,-1,0
1523618374934,-1966080,102,-56,-1,-1,0
1523618374934,-1900544,102,-56,-1,-1,0
1523618374974,-1900544,102,-56,-1,-1,0
1523618374974,-1703936,102,-56,-1,-1,0
1523618374974,-1376256,102,-56,-1,-1,0
1523618374974,-1245184,102,-56,-1,-1,0
1523618374974,-1179648,102,-56,-1,-1,0
1523618375014,-851968,102,-56,-1,-1,0
1523618375014,-524288,102,-56,-1,-1,0
1523618375014,-393216,102,-56,-1,-1,0
1523618375014,-327680,102,-56,-1,-1,0
1523618375014,-65536,102,-56,-1,-1,0
1523618375054,131072,102,-56,-1,-1,0
1523618375054,589824,102,-56,-1,-1,0
1523618375054,983040,102,-56,-1,-1,0
1523618375054,1245184,102,-56,-1,-1,0
1523618375054,1376256,102,-56,-1,-1,0
1523618375094,1441792,102,-56,-1,-1,0
1523618375094,1376256,102,-56,-1,-1,0
1523618375094,1114112,102,-56,-1,-1,0
1523618375094,720896,102,-56,-1,-1,0
1523618375094,393216,102,-56,-1,-1,0
1523618375134,65536,102,-56,-1,-1,0
1523618375134,-196608,102,-56,-1,-1,0
1523618375134,-655360,102,-56,-1,-1,0
1523618375134,-917504,102,-56,-1,-1,0
1523618375134,-917504,102,-56,-1,-1,0
1523618375174,-917504,102,-56,-1,-1,0
1523618375174,-917504,102,-56,-1,-1,0
1523618375174,-851968,102,-56,-1,-1,0
1523618375174,-786432,102,-56,-1,-1,0
1523618375174,-720896,102,-56,-1,-1,0
1523618375214,-655360,102,-56,-1,-1,0
1523618375214,-655360,102,-56,-1,-1,0
1523618375214,-589824,102,-56,-1,-1,0
1523618375214,-589824,102,-56,-1,-1,0
1523618375214,-589824,102,-56,-1,-1,0
1523618375254,-655360,102,-56,-1,-1,0
1523618375254,-524288,102,-56,-1,-1,0
1523618375254,-524288,102,-56,-1,-1,0
1523618375254,-589824,102,-56,-1,-1,0
1523618375254,-917504,102,-56,-1,-1,0
1523618375295,-1114112,102,-56,-1,-1,0
1523618375295,-1245184,102,-56,-1,-1,0
1523618375295,-1245184,102,-56,-1,-1,0
1523618375295,-1310720,102,-56,-1,-1,0
1523618375295,-1376256,102,-56,-1,-1,0
1523618375334,-1376256,102,-56,-1,-1,0
1523618375334,-1245184,102,-56,-1,-1,0
1523618375334,-1245184,102,-56,-1,-1,0
1523618375334,-1245184,102,-56,-1,-1,0
1523618375334,-1114112,102,-56,-1,-1,0
1523618375374,-1048576,102,-56,-1,-1,0
1523618375374,-1179648,102,-56,-1,-1,0
1523618375374,-1572864,102,-56,-1,-1,0
1523618375374,-1245184,102,-56,-1,-1,0
1523618375374,1114112,102,-56,-1,-1,0
1523618375414,6356992,102,-56,-1,-1,0
1523618375414,10223616,102,-56,-1,-1,0
1523618375414,8454144,102,-56,-1,-1,0
1523618375414,3342336,102,-56,-1,-1,0
1523618375414,65536,102,-56,-1,-1,0
1523618375454,-720896,102,-56,-1,-1,0
1523618375454,-983040,102,-56,-1,-1,0
1523618375454,-1310720,102,-56,-1,-1,0
1523618375454,-1441792,102,-56,-1,-1,0
1523618375454,-1310720,102,-56,-1,-1,0
1523618375494,-1245184,102,-56,-1,-1,0
1523618375494,-1245184,102,-56,-1,-1,0
1523618375494,-1179648,102,-56,-1,-1,0
1523618375494,-1114112,102,-56,-1,-1,0
1523618375494,-983040,102,-56,-1,-1,0
1523618375534,-851968,102,-56,-1,-1,0
1523618375534,-851968,102,-56,-1,-1,0
1523618375534,-786432,102,-56,-1,-1,0
1523618375534,-524288,102,-56,-1,-1,0
1523618375534,-393216,102,-56,-1,-1,0
1523618375574,-393216,102,-56,-1,-1,0
1523618375574,-393216,102,-56,-1,-1,0
1523618375574,-196608,102,-56,-1,-1,0
1523618375574,0,102,-56,-1,-1,0
1523618375574,327680,102,-56,-1,-1,0
1523618375614,458752,102,-56,-1,-1,0
1523618375614,720896,102,-56,-1,-1,0
1523618375614,1114112,102,-56,-1,-1,0
1523618375614,1245184,102,-56,-1,-1,0
1523618375614,1572864,102,-56,-1,-1,0
1523618375654,1835008,102,-56,-1,-1,0
1523618375654,1769472,102,-56,-1,-1,0
1523618375654,1310720,102,-56,-1,-1,0
1523618375654,1114112,102,-56,-1,-1,0
1523618375654,917504,102,-56,-1,-1,0
1523618375694,851968,102,-56,-1,-1,0
1523618375694,589824,102,-56,-1,-1,0
1523618375694,196608,102,-56,-1,-1,0
1523618375694,65536,102,-56,-1,-1,0
1523618375694,0,102,-56,-1,-1,0
1523618375734,0,102,-56,-1,-1,0
1523618375734,65536,102,-56,-1,-1,0
1523618375734,131072,102,-56,-1,-1,0
1523618375734,0,102,-56,-1,-1,0
1523618375734,0,102,-56,-1,-1,0
1523618375774,65536,102,-56,-1,-1,0
1523618375774,262144,102,-56,-1,-1,0
1523618375774,524288,102,-56,-1,-1,0
1523618375774,786432,102,-56,-1,-1,0
1523618375774,851968,102,-56,-1,-1,0
1523618375814,589824,102,-56,-1,-1,0
1523618375814,589824,102,-56,-1,-1,0
1523618375814,524288,102,-56,-1,-1,0
1523618375814,196608,102,-56,-1,-1,0
1523618375814,-131072,102,-56,-1,-1,0
1523618375854,-393216,102,-56,-1,-1,0
1523618375854,-655360,102,-56,-1,-1,0
1523618375854,-983040,102,-56,-1,-1,0
1523618375854,-1048576,102,-56,-1,-1,0
1523618375854,-1245184,102,-56,-1,-1,0
1523618375894,-1245184,102,-56,-1,-1,0
1523618375894,-1310720,102,-56,-1,-1,0
1523618375894,-1376256,102,-56,-1,-1,0
1523618375894,-1376256,102,-56,-1,-1,0
1523618375894,-1441792,102,-56,-1,-1,0
1523618375935,-1572864,102,-56,-1,-1,0
1523618375935,-1835008,102,-56,-1,-1,0
1523618375935,-1966080,102,-56,-1,-1,0
1523618375935,-1376256,102,-56,-1,-1,0
1523618375935,1572864,102,-56,-1,-1,0
1523618375974,7143424,102,-56,-1,-1,0
1523618375974,10223616,102,-56,-1,-1,0
1523618375974,6815744,102,-56,-1,-1,0
1523618375974,1245184,102,-56,-1,-1,0
1523618375974,-1376256,102,-56,-1,-1,0
1523618376014,-1703936,102,-56,-1,-1,0
1523618376014,-1703936,102,-56,-1,-1,0
1523618376014,-1769472,102,-56,-1,-1,0
1523618376014,-1966080,102,-56,-1,-1,0
1523618376014,-2228224,102,-56,-1,-1,0
1523618376054,-2228224,102,-56,-1,-1,0
1523618376054,-2162688,102,-56,-1,-1,0
1523618376054,-2097152,102,-56,-1,-1,0
1523618376054,-2097152,102,-56,-1,-1,0
1523618376054,-1966080,102,-56,-1,-1,0
1523618376094,-1900544,102,-56,-1,-1,0
1523618376094,-1769472,102,-56,-1,-1,0
1523618376094,-1769472,102,-56,-1,-1,0
1523618376094,-1835008,102,-56,-1,-1,0
1523618376094,-2031616,102,-56,-1,-1,0
1523618376134,-1966080,102,-56,-1,-1,0
1523618376134,-1572864,102,-56,-1,-1,0
1523618376134,-1048576,102,-56,-1,-1,0
1523618376134,-720896,102,-56,-1,-1,0
1523618376134,-393216,102,-56,-1,-1,0
1523618376174,0,102,-56,-1,-1,0
1523618376174,327680,102,-56,-1,-1,0
1523618376174,589824,102,-56,-1,-1,0
1523618376174,983040,102,-56,-1,-1,0
1523618376174,1310720,102,-56,-1,-1,0
1523618376214,1441792,102,-56,-1,-1,0
1523618376214,1507328,102,-56,-1,-1,0
1523618376214,1441792,102,-56,-1,-1,0
1523618376214,1179648,102,-56,-1,-1,0
1523618376214,786432,102,-56,-1,-1,0
1523618376254,262144,102,-56,-1,-1,0
1523618376254,-196608,102,-56,-1,-1,0
1523618376254,-524288,102,-56,-1,-1,0
1523618376254,-524288,102,-56,-1,-1,0
1523618376254,-524288,102,-56,-1,-1,0
1523618376294,-655360,102,-56,-1,-1,0
1523618376294,-917504,102,-56,-1,-1,0
1523618376294,-1114112,102,-56,-1,-1,0
1523618376294,-1048576,102,-56,-1,-1,0
1523618376294,-917504,102,-56,-1,-1,0
1523618376334,-851968,103,-56,-1,-1,0
1523618376334,-786432,103,-56,-1,-1,0
1523618376334,-589824,103,-56,-1,-1,0
1523618376334,-458752,103,-56,-1,-1,0
1523618376334,-262144,103,-56,-1,-1,0
1523618376374,-262144,103,-56,-1,-1,0
1523618376374,-393216,103,-56,-1,-1,0
1523618376374,-655360,103,-56,-1,-1,0
1523618376374,-1048576,103,-56,-1,-1,0
1523618376374,-1310720,103,-56,-1,-1,0
1523618376414,-1310720,103,-56,-1,-1,0
1523618376414,-1310720,103,-56,-1,-1,0
1523618376414,-1507328,103,-56,-1,-1,0
1523618376414,-1638400,103,-56,-1,-1,0
1523618376414,-1638400,103,-56,-1,-1,0
1523618376454,-1703936,103,-56,-1,-1,0
1523618376454,-1572864,103,-56,-1,-1,0
1523618376454,-1572864,103,-56,-1,-1,0
1523618376454,-1572864,103,-56,-1,-1,0
1523618376454,-1835008,103,-56,-1,-1,0
1523618376494,-2031616,103,-56,-1,-1,0
1523618376494,-2097152,103,-56,-1,-1,0
1523618376494,-1835008,103,-56,-1,-1,0
1523618376494,-524288,103,-56,-1,-1,0
1523618376494,3342336,103,-56,-1,-1,0
1523618376534,8454144,103,-56,-1,-1,0
1523618376534,9568256,103,-56,-1,-1,0
1523618376534,5439488,103,-56,-1,-1,0
1523618376534,1114112,103,-56,-1,-1,0
1523618376534,-458752,103,-56,-1,-1,0
1523618376575,-720896,103,-56,-1,-1,0
1523618376575,-917504,103,-56,-1,-1,0
1523618376575,-1114112,103,-56,-1,-1,0
1523618376575,-1441792,103,-56,-1,-1,0
1523618376575,-1703936,103,-56,-1,-1,0
1523618376614,-1703936,103,-56,-1,-1,0
1523618376614,-1507328,103,-56,-1,-1,0
1523618376614,-1245184,103,-56,-1,-1,0
1523618376614,-1245184,103,-56,-1,-1,0
1523618376614,-1310720,103,-56,-1,-1,0
1523618376654,-1179648,103,-56,-1,-1,0
1523618376654,-917504,103,-56,-1,-1,0
1523618376654,-720896,103,-56,-1,-1,0
1523618376654,-458752,103,-56,-1,-1,0
1523618376654,-196608,103,-56,-1,-1,0
1523618376694,-65536,103,-56,-1,-1,0
1523618376694,-65536,103,-56,-1,-1,0
1523618376694,65536,103,-56,-1,-1,0
1523618376694,131072,103,-56,-1,-1,0
1523618376694,327680,103,-56,-1,-1,0
1523618376734,524288,103,-56,-1,-1,0
1523618376734,917504,103,-56,-1,-1,0
1523618376734,1179648,103,-56,-1,-1,0
1523618376734,1310720,103,-56,-1,-1,0
1523618376734,1507328,103,-56,-1,-1,0
1523618376774,1638400,103,-56,-1,-1,0
1523618376774,1638400,103,-56,-1,-1,0
1523618376774,1441792,103,-56,-1,-1,0
1523618376774,1179648,103,-56,-1,-1,0
1523618376774,1048576,103,-56,-1,-1,0
1523618376814,983040,103,-56,-1,-1,0
1523618376814,786432,103,-56,-1,-1,0
1523618376814,524288,103,-56,-1,-1,0
1523618376814,196608,103,-56,-1,-1,0
1523618376814,65536,103,-56,-1,-1,0
1523618376854,196608,103,-56,-1,-1,0
1523618376854,262144,103,-56,-1,-1,0
1523618376854,196608,103,-56,-1,-1,0
1523618376854,65536,103,-56,-1,-1,0
1523618376854,0,103,-56,-1,-1,0
1523618376894,65536,104,-56,-1,-1,0
1523618376894,196608,104,-56,-1,-1,0
1523618376894,393216,104,-56,-1,-1,0
1523618376894,327680,104,-56,-1,-1,0
1523618376894,327680,104,-56,-1,-1,0
1523618376934,327680,104,-56,-1,-1,0
1523618376934,0,104,-56,-1,-1,0
1523618376934,-393216,104,-56,-1,-1,0
1523618376934,-720896,104,-56,-1,-1,0
1523618376934,-720896,104,-56,-1,-1,0
1523618376974,-589824,104,-56,-1,-1,0
1523618376974,-524288,104,-56,-1,-1,0
1523618376974,-720896,104,-56,-1,-1,0
1523618376974,-983040,104,-56,-1,-1,0
1523618376974,-1245184,104,-56,-1,-1,0
1523618377014,-1310720,104,-56,-1,-1,0
1523618377014,-1376256,104,-56,-1,-1,0
1523618377014,-1507328,104,-56,-1,-1,0
1523618377014,-1572864,104,-56,-1,-1,0
1523618377014,-1638400,104,-56,-1,-1,0
1523618377054,-1835008,104,-56,-1,-1,0
1523618377054,-2031616,104,-56,-1,-1,0
1523618377054,-851968,104,-56,-1,-1,0
1523618377054,3473408,104,-56,-1,-1,0
1523618377054,8912896,104,-56,-1,-1,0
1523618377094,9568256,104,-56,-1,-1,0
1523618377094,4653056,104,-56,-1,-1,0
1523618377094,0,104,-56,-1,-1,0
1523618377094,-1310720,104,-56,-1,-1,0
1523618377094,-1441792,104,-56,-1,-1,0
1523618377134,-1572864,104,-56,-1,-1,0
1523618377134,-1900544,104,-56,-1,-1,0
1523618377134,-2097152,104,-56,-1,-1,0
1523618377134,-2228224,104,-56,-1,-1,0
1523618377134,-2162688,104,-56,-1,-1,0
1523618377174,-2162688,104,-56,-1,-1,0
1523618377174,-2097152,104,-56,-1,-1,0
1523618377174,-2162688,104,-56,-1,-1,0
1523618377174,-2228224,104,-56,-1,-1,0
1523618377174,-2097152,104,-56,-1,-1,0
1523618377215,-1769472,104,-56,-1,-1,0
1523618377215,-1638400,104,-56,-1,-1,0
1523618377215,-1638400,104,-56,-1,-1,0
1523618377215,-1572864,104,-56,-1,-1,0
1523618377215,-1245184,104,-56,-1,-1,0
1523618377254,-786432,104,-56,-1,-1,0
1523618377254,-458752,104,-56,-1,-1,0
1523618377254,-65536,104,-56,-1,-1,0
1523618377254,327680,104,-56,-1,-1,0
1523618377254,917504,104,-56,-1,-1,0
1523618377294,1245184,104,-56,-1,-1,0
1523618377294,1376256,104,-56,-1,-1,0
1523618377294,1179648,104,-56,-1,-1,0
1523618377294,1048576,104,-56,-1,-1,0
1523618377294,1179648,104,-56,-1,-1,0
1523618377334,1507328,104,-56,-1,-1,0
1523618377334,1572864,104,-56,-1,-1,0
1523618377334,1376256,104,-56,-1,-1,0
1523618377334,1048576,104,-56,-1,-1,0
1523618377334,720896,104,-56,-1,-1,0
1523618377374,393216,104,-56,-1,-1,0
1523618377374,131072,104,-56,-1,-1,0
1523618377374,-131072,104,-56,-1,-1,0
1523618377374,-262144,104,-56,-1,-1,0
1523618377374,-327680,104,-56,-1,-1,0
1523618377414,-131072,104,-56,-1,-1,0
1523618377414,131072,104,-56,-1,-1,0
1523618377414,262144,104,-56,-1,-1,0
1523618377414,131072,104,-56,-1,-1,0
1523618377414,196608,104,-56,-1,-1,0
1523618377454,196608,104,-56,-1,-1,0
1523618377454,131072,104,-56,-1,-1,0
1523618377454,65536,104,-56,-1,-1,0
1523618377454,131072,104,-56,-1,-1,0
1523618377454,196608,104,-56,-1,-1,0
1523618377494,0,104,-56,-1,-1,0
1523618377494,-196608,104,-56,-1,-1,0
1523618377494,-458752,104,-56,-1,-1,0
1523618377494,-655360,104,-56,-1,-1,0
1523618377494,-786432,104,-56,-1,-1,0
1523618377534,-720896,104,-56,-1,-1,0
1523618377534,-720896,104,-56,-1,-1,0
1523618377534,-655360,104,-56,-1,-1,0
1523618377534,-589824,104,-56,-1,-1,0
1523618377534,-589824,104,-56,-1,-1,0
1523618377574,-458752,104,-56,-1,-1,0
1523618377574,-327680,104,-56,-1,-1,0
1523618377574,-458752,104,-56,-1,-1,0
1523618377574,-851968,104,-56,-1,-1,0
1523618377574,-1048576,104,-56,-1,-1,0
1523618377614,-524288,104,-56,-1,-1,0
1523618377614,1966080,104,-56,-1,-1,0
1523618377614,7143424,104,-56,-1,-1,0
1523618377614,10616832,104,-56,-1,-1,0
1523618377614,8257536,104,-56,-1,-1,0
1523618377654,3145728,104,-56,-1,-1,0
1523618377654,196608,104,-56,-1,-1,0
1523618377654,-327680,104,-56,-1,-1,0
1523618377654,-458752,104,-56,-1,-1,0
1523618377654,-655360,104,-56,-1,-1,0
1523618377694,-786432,104,-56,-1,-1,0
1523618377694,-589824,104,-56,-1,-1,0
1523618377694,-524288,104,-56,-1,-1,0
1523618377694,-786432,104,-56,-1,-1,0
1523618377694,-786432,104,-56,-1,-1,0
1523618377734,-655360,104,-56,-1,-1,0
1523618377734,-589824,104,-56,-1,-1,0
1523618377734,-655360,104,-56,-1,-1,0
1523618377734,-655360,104,-56,-1,-1,0
1523618377734,-655360,104,-56,-1,-1,0
1523618377774,-458752,104,-56,-1,-1,0
1523618377774,-196608,104,-56,-1,-1,0
1523618377774,-131072,104,-56,-1,-1,0
1523618377774,-65536,104,-56,-1,-1,0
1523618377774,65536,104,-56,-1,-1,0
1523618377814,262144,104,-56,-1,-1,0
1523618377814,262144,104,-56,-1,-1,0
1523618377814,524288,104,-56,-1,-1,0
1523618377814,983040,104,-56,-1,-1,0
1523618377814,1376256,104,-56,-1,-1,0
1523618377855,1572864,104,-56,-1,-1,0
1523618377855,1966080,104,-56,-1,-1,0
1523618377855,2162688,104,-56,-1,-1,0
1523618377855,2097152,104,-56,-1,-1,0
1523618377855,1769472,104,-56,-1,-1,0
1523618377894,1507328,104,-56,-1,-1,0
1523618377894,1310720,104,-56,-1,-1,0
1523618377894,1114112,104,-56,-1,-1,0
1523618377894,917504,104,-56,-1,-1,0
1523618377894,655360,104,-56,-1,-1,0
1523618377934,393216,104,-56,-1,-1,0
1523618377934,196608,104,-56,-1,-1,0
1523618377934,65536,104,-56,-1,-1,0
1523618377934,0,104,-56,-1,-1,0
1523618377934,131072,104,-56,-1,-1,0
1523618377974,196608,105,-56,-1,-1,0
1523618377974,327680,105,-56,-1,-1,0
1523618377974,458752,105,-56,-1,-1,0
1523618377974,524288,105,-56,-1,-1,0
1523618377974,524288,105,-56,-1,-1,0
1523618378014,589824,105,-56,-1,-1,0
1523618378014,786432,105,-56,-1,-1,0
1523618378014,786432,105,-56,-1,-1,0
1523618378014,524288,105,-56,-1,-1,0
1523618378014,196608,105,-56,-1,-1,0
1523618378054,-65536,105,-56,-1,-1,0
1523618378054,-327680,105,-56,-1,-1,0
1523618378054,-393216,105,-56,-1,-1,0
1523618378054,-458752,105,-56,-1,-1,0
1523618378054,-524288,105,-56,-1,-1,0
1523618378094,-589824,105,-56,-1,-1,0
1523618378094,-589824,105,-56,-1,-1,0
1523618378094,-524288,105,-56,-1,-1,0
1523618378094,-589824,105,-56,-1,-1,0
1523618378094,-589824,105,-56,-1,-1,0
1523618378134,-720896,105,-56,-1,-1,0
1523618378134,-1048576,105,-56,-1,-1,0
1523618378134,-1376256,105,-56,-1,-1,0
1523618378134,-983040,105,-56,-1,-1,0
1523618378134,1572864,105,-56,-1,-1,0
1523618378174,6750208,105,-56,-1,-1,0
1523618378174,9961472,105,-56,-1,-1,0
1523618378174,7405568,105,-56,-1,-1,0
1523618378174,2162688,105,-56,-1,-1,0
1523618378174,-655360,105,-56,-1,-1,0
1523618378214,-1376256,105,-56,-1,-1,0
1523618378214,-1703936,105,-56,-1,-1,0
1523618378214,-1900544,105,-56,-1,-1,0
1523618378214,-2031616,105,-56,-1,-1,0
1523618378214,-2162688,105,-56,-1,-1,0
1523618378254,-2162688,105,-56,-1,-1,0
1523618378254,-2293760,105,-56,-1,-1,0
1523618378254,-2490368,105,-56,-1,-1,0
1523618378254,-2686976,105,-56,-1,-1,0
1523618378254,-2686976,105,-56,-1,-1,0
1523618378294,-2490368,105,-56,-1,-1,0
1523618378294,-2097152,105,-56,-1,-1,0
1523618378294,-1769472,105,-56,-1,-1,0
1523618378294,-1572864,105,-56,-1,-1,0
1523618378294,-1441792,105,-56,-1,-1,0
1523618378334,-1245184,105,-56,-1,-1,0
1523618378334,-1179648,105,-56,-1,-1,0
1523618378334,-1048576,105,-56,-1,-1,0
1523618378334,-655360,105,-56,-1,-1,0
1523618378334,-196608,105,-56,-1,-1,0
1523618378374,131072,105,-56,-1,-1,0
1523618378374,393216,105,-56,-1,-1,0
1523618378374,720896,105,-56,-1,-1,0
1523618378374,983040,105,-56,-1,-1,0
1523618378374,1310720,105,-56,-1,-1,0
1523618378414,1572864,105,-56,-1,-1,0
1523618378414,1638400,105,-56,-1,-1,0
1523618378414,1376256,105,-56,-1,-1,0
1523618378414,1048576,105,-56,-1,-1,0
1523618378414,786432,105,-56,-1,-1,0
1523618378454,458752,105,-56,-1,-1,0
1523618378454,131072,105,-56,-1,-1,0
1523618378454,-131072,105,-56,-1,-1,0
1523618378454,-327680,105,-56,-1,-1,0
1523618378454,-393216,105,-56,-1,-1,0
1523618378495,-393216,105,-56,-1,-1,0
1523618378495,-262144,105,-56,-1,-1,0
1523618378495,-327680,105,-56,-1,-1,0
1523618378495,-524288,105,-56,-1,-1,0
1523618378495,-589824,105,-56,-1,-1,0
1523618378534,-262144,105,-56,-1,-1,0
1523618378534,-131072,105,-56,-1,-1,0
1523618378534,-262144,105,-56,-1,-1,0
1523618378534,-393216,105,-56,-1,-1,0
1523618378534,0,105,-56,-1,-1,0
1523618378574,262144,105,-56,-1,-1,0
1523618378574,196608,105,-56,-1,-1,0
1523618378574,-196608,105,-56,-1,-1,0
1523618378574,-589824,105,-56,-1,-1,0
1523618378574,-917504,105,-56,-1,-1,0
1523618378614,-983040,105,-56,-1,-1,0
1523618378614,-917504,105,-56,-1,-1,0
1523618378614,-786432,105,-56,-1,-1,0
1523618378614,-851968,105,-56,-1,-1,0
1523618378614,-983040,105,-56,-1,-1,0
1523618378654,-917504,105,-56,-1,-1,0
1523618378654,-786432,105,-56,-1,-1,0
1523618378654,-786432,105,-56,-1,-1,0
1523618378654,-917504,105,-56,-1,-1,0
1523618378654,-1114112,105,-56,-1,-1,0
1523618378694,-1114112,105,-56,-1,-1,0
1523618378694,0,105,-56,-1,-1,0
1523618378694,3538944,105,-56,-1,-1,0
1523618378694,8912896,105,-56,-1,-1,0
1523618378694,10682368,105,-56,-1,-1,0
1523618378734,6881280,105,-56,-1,-1,0
1523618378734,2031616,105,-56,-1,-1,0
1523618378734,0,105,-56,-1,-1,0
1523618378734,-393216,105,-56,-1,-1,0
1523618378734,-393216,105,-56,-1,-1,0
1523618378774,-524288,105,-56,-1,-1,0
1523618378774,-851968,105,-56,-1,-1,0
1523618378774,-1114112,105,-56,-1,-1,0
1523618378774,-1179648,105,-56,-1,-1,0
1523618378774,-1114112,105,-56,-1,-1,0
1523618378814,-1048576,105,-56,-1,-1,0
1523618378814,-1048576,105,-56,-1,-1,0
1523618378814,-917504,105,-56,-1,-1,0
1523618378814,-917504,105,-56,-1,-1,0
1523618378814,-851968,105,-56,-1,-1,0
1523618378854,-786432,105,-56,-1,-1,0
1523618378854,-786432,105,-56,-1,-1,0
1523618378854,-786432,105,-56,-1,-1,0
1523618378854,-655360,105,-56,-1,-1,0
1523618378854,-458752,105,-56,-1,-1,0
1523618378894,-196608,105,-56,-1,-1,0
1523618378894,0,105,-56,-1,-1,0
1523618378894,196608,105,-56,-1,-1,0
1523618378894,393216,105,-56,-1,-1,0
1523618378894,589824,105,-56,-1,-1,0
1523618378934,655360,105,-56,-1,-1,0
1523618378934,851968,105,-56,-1,-1,0
1523618378934,1114112,105,-56,-1,-1,0
1523618378934,1179648,105,-56,-1,-1,0
1523618378934,1048576,105,-56,-1,-1,0
1523618378974,983040,105,-56,-1,-1,0
1523618378974,917504,105,-56,-1,-1,0
1523618378974,720896,105,-56,-1,-1,0
1523618378974,327680,105,-56,-1,-1,0
1523618378974,0,105,-56,-1,-1,0
1523618379014,-262144,105,-56,-1,-1,0
1523618379014,-393216,105,-56,-1,-1,0
1523618379014,-458752,105,-56,-1,-1,0
1523618379014,-655360,105,-56,-1,-1,0
1523618379014,-851968,105,-56,-1,-1,0
1523618379054,-720896,106,-56,-1,-1,0
1523618379054,-327680,106,-56,-1,-1,0
1523618379054,-65536,106,-56,-1,-1,0
1523618379054,0,106,-56,-1,-1,0
1523618379054,0,106,-56,-1,-1,0
1523618379094,0,106,-56,-1,-1,0
1523618379094,131072,106,-56,-1,-1,0
1523618379094,196608,106,-56,-1,-1,0
1523618379094,131072,106,-56,-1,-1,0
1523618379094,0,106,-56,-1,-1,0
1523618379135,-262144,106,-56,-1,-1,0
1523618379135,-393216,106,-56,-1,-1,0
1523618379135,-393216,106,-56,-1,-1,0
1523618379135,-393216,106,-56,-1,-1,0
1523618379135,-524288,106,-56,-1,-1,0
1523618379174,-524288,106,-56,-1,-1,0
1523618379174,-589824,106,-56,-1,-1,0
1523618379174,-655360,106,-56,-1,-1,0
1523618379174,-655360,106,-56,-1,-1,0
1523618379174,-720896,106,-56,-1,-1,0
1523618379214,-786432,106,-56,-1,-1,0
1523618379214,-1048576,106,-56,-1,-1,0
1523618379214,-1376256,106,-56,-1,-1,0
1523618379214,-1179648,106,-56,-1,-1,0
1523618379214,983040,106,-56,-1,-1,0
1523618379254,5832704,106,-56,-1,-1,0
1523618379254,9240576,106,-56,-1,-1,0
1523618379254,7340032,106,-56,-1,-1,0
1523618379254,2555904,106,-56,-1,-1,0
1523618379254,-393216,106,-56,-1,-1,0
1523618379294,-1245184,106,-56,-1,-1,0
1523618379294,-1507328,106,-56,-1,-1,0
1523618379294,-1638400,106,-56,-1,-1,0
1523618379294,-1638400,106,-56,-1,-1,0
1523618379294,-1638400,106,-56,-1,-1,0
1523618379334,-1769472,106,-56,-1,-1,0
1523618379334,-1966080,106,-56,-1,-1,0
1523618379334,-2097152,106,-56,-1,-1,0
1523618379334,-2031616,106,-56,-1,-1,0
1523618379334,-1900544,106,-56,-1,-1,0
1523618379374,-1900544,106,-56,-1,-1,0
1523618379374,-1769472,106,-56,-1,-1,0
1523618379374,-1703936,106,-56,-1,-1,0
1523618379374,-1769472,106,-56,-1,-1,0
1523618379374,-1835008,106,-56,-1,-1,0
1523618379414,-1769472,106,-56,-1,-1,0
1523618379414,-1638400,106,-56,-1,-1,0
1523618379414,-1507328,106,-56,-1,-1,0
1523618379414,-1310720,106,-56,-1,-1,0
1523618379414,-1048576,106,-56,-1,-1,0
1523618379454,-720896,106,-56,-1,-1,0
1523618379454,-327680,106,-56,-1,-1,0
1523618379454,131072,106,-56,-1,-1,0
1523618379454,589824,106,-56,-1,-1,0
1523618379454,851968,106,-56,-1,-1,0
1523618379494,851968,106,-56,-1,-1,0
1523618379494,786432,106,-56,-1,-1,0
1523618379494,786432,106,-56,-1,-1,0
1523618379494,720896,106,-56,-1,-1,0
1523618379494,589824,106,-56,-1,-1,0
1523618379534,262144,106,-56,-1,-1,0
1523618379534,-65536,106,-56,-1,-1,0
1523618379534,-393216,106,-56,-1,-1,0
1523618379534,-589824,106,-56,-1,-1,0
1523618379534,-589824,106,-56,-1,-1,0
1523618379574,-589824,107,-56,-1,-1,0
1523618379574,-589824,107,-56,-1,-1,0
1523618379574,-655360,107,-56,-1,-1,0
1523618379574,-720896,107,-56,-1,-1,0
1523618379574,-524288,107,-56,-1,-1,0
1523618379614,-327680,107,-56,-1,-1,0
1523618379614,-262144,107,-56,-1,-1,0
1523618379614,-327680,107,-56,-1,-1,0
1523618379614,-327680,107,-56,-1,-1,0
1523618379614,-327680,107,-56,-1,-1,0
1523618379654,-655360,107,-56,-1,-1,0
1523618379654,-983040,107,-56,-1,-1,0
1523618379654,-1179648,107,-56,-1,-1,0
1523618379654,-1310720,107,-56,-1,-1,0
1523618379654,-1376256,107,-56,-1,-1,0
1523618379694,-1441792,107,-56,-1,-1,0
1523618379694,-1638400,107,-56,-1,-1,0
1523618379694,-1572864,107,-56,-1,-1,0
1523618379694,-1507328,107,-56,-1,-1,0
1523618379694,-1441792,107,-56,-1,-1,0
1523618379734,-1376256,107,-56,-1,-1,0
1523618379734,-1245184,107,-56,-1,-1,0
1523618379734,-1114112,107,-56,-1,-1,0
1523618379734,-1245184,107,-56,-1,-1,0
1523618379734,-1507328,107,-56,-1,-1,0
1523618379775,-917504,107,-56,-1,-1,0
1523618379775,1966080,107,-56,-1,-1,0
1523618379775,7798784,107,-56,-1,-1,0
1523618379775,11468800,107,-56,-1,-1,0
1523618379775,8716288,107,-56,-1,-1,0
1523618379814,3211264,107,-56,-1,-1,0
1523618379814,0,107,-56,-1,-1,0
1523618379814,-655360,107,-56,-1,-1,0
1523618379814,-851968,107,-56,-1,-1,0
1523618379814,-851968,107,-56,-1,-1,0
1523618379854,-917504,107,-56,-1,-1,0
1523618379854,-1114112,107,-56,-1,-1,0
1523618379854,-1114112,107,-56,-1,-1,0
1523618379854,-1179648,107,-56,-1,-1,0
1523618379854,-1179648,107,-56,-1,-1,0
1523618379894,-1179648,107,-56,-1,-1,0
1523618379894,-1048576,107,-56,-1,-1,0
1523618379894,-917504,107,-56,-1,-1,0
1523618379894,-786432,107,-56,-1,-1,0
1523618379894,-458752,107,-56,-1,-1,0
1523618379934,-131072,107,-56,-1,-1,0
1523618379934,-65536,107,-56,-1,-1,0
1523618379934,-131072,107,-56,-1,-1,0
1523618379934,0,107,-56,-1,-1,0
1523618379934,65536,107,-56,-1,-1,0
1523618379974,131072,107,-56,-1,-1,0
1523618379974,196608,107,-56,-1,-1,0
1523618379974,393216,107,-56,-1,-1,0
1523618379974,786432,107,-56,-1,-1,0
1523618379974,983040,107,-56,-1,-1,0
1523618380014,1179648,107,-56,-1,-1,0
1523618380014,1441792,107,-56,-1,-1,0
1523618380014,1507328,107,-56,-1,-1,0
1523618380014,1441792,107,-56,-1,-1,0
1523618380014,1310720,107,-56,-1,-1,0
1523618380054,1179648,107,-56,-1,-1,0
1523618380054,983040,107,-56,-1,-1,0
1523618380054,655360,107,-56,-1,-1,0
1523618380054,327680,107,-56,-1,-1,0
1523618380054,196608,107,-56,-1,-1,0
1523618380094,65536,107,-56,-1,-1,0
1523618380094,-65536,107,-56,-1,-1,0
1523618380094,-196608,107,-56,-1,-1,0
1523618380094,-196608,107,-56,-1,-1,0
1523618380094,-196608,107,-56,-1,-1,0
1523618380134,-196608,107,-56,-1,-1,0
1523618380134,-131072,107,-56,-1,-1,0
1523618380134,0,107,-56,-1,-1,0
1523618380134,131072,107,-56,-1,-1,0
1523618380134,196608,107,-56,-1,-1,0
1523618380174,196608,107,-56,-1,-1,0
1523618380174,131072,107,-56,-1,-1,0
1523618380174,0,107,-56,-1,-1,0
1523618380174,-131072,107,-56,-1,-1,0
1523618380174,-327680,107,-56,-1,-1,0
1523618380214,-589824,107,-56,-1,-1,0
1523618380214,-655360,107,-56,-1,-1,0
1523618380214,-524288,107,-56,-1,-1,0
1523618380214,-458752,107,-56,-1,-1,0
1523618380214,-524288,107,-56,-1,-1,0
1523618380254,-720896,107,-56,-1,-1,0
1523618380254,-983040,107,-56,-1,-1,0
1523618380254,-1114112,107,-56,-1,-1,0
1523618380254,-1179648,107,-56,-1,-1,0
1523618380254,-1179648,107,-56,-1,-1,0
1523618380294,-1245184,107,-56,-1,-1,0
1523618380294,-1507328,107,-56,-1,-1,0
1523618380294,-1179648,107,-56,-1,-1,0
1523618380294,1507328,107,-56,-1,-1,0
1523618380294,6684672,107,-56,-1,-1,0
1523618380334,9633792,107,-56,-1,-1,0
1523618380334,6946816,107,-56,-1,-1,0
1523618380334,2097152,107,-56,-1,-1,0
1523618380334,-393216,107,-56,-1,-1,0
1523618380334,-917504,107,-56,-1,-1,0
1523618380374,-1114112,107,-56,-1,-1,0
1523618380374,-1376256,107,-56,-1,-1,0
1523618380374,-1638400,107,-56,-1,-1,0
1523618380374,-1703936,107,-56,-1,-1,0
1523618380374,-1703936,107,-56,-1,-1,0
1523618380415,-1703936,107,-56,-1,-1,0
1523618380415,-1638400,107,-56,-1,-1,0
1523618380415,-1638400,107,-56,-1,-1,0
1523618380415,-1703936,107,-56,-1,-1,0
1523618380415,-1769472,107,-56,-1,-1,0
1523618380454,-1638400,107,-56,-1,-1,0
1523618380454,-1507328,107,-56,-1,-1,0
1523618380454,-1310720,107,-56,-1,-1,0
1523618380454,-1245184,107,-56,-1,-1,0
1523618380454,-1179648,107,-56,-1,-1,0
1523618380494,-1114112,107,-56,-1,-1,0
1523618380494,-983040,107,-56,-1,-1,0
1523618380494,-917504,107,-56,-1,-1,0
1523618380494,-786432,107,-56,-1,-1,0
1523618380494,-393216,107,-56,-1,-1,0
1523618380534,0,107,-56,-1,-1,0
1523618380534,196608,107,-56,-1,-1,0
1523618380534,458752,107,-56,-1,-1,0
1523618380534,720896,107,-56,-1,-1,0
1523618380534,851968,107,-56,-1,-1,0
1523618380574,917504,107,-56,-1,-1,0
1523618380574,851968,107,-56,-1,-1,0
1523618380574,655360,107,-56,-1,-1,0
1523618380574,393216,107,-56,-1,-1,0
1523618380574,131072,107,-56,-1,-1,0
1523618380614,-65536,107,-56,-1,-1,0
1523618380614,-262144,107,-56,-1,-1,0
1523618380614,-393216,107,-56,-1,-1,0
1523618380614,-524288,107,-56,-1,-1,0
1523618380614,-458752,107,-56,-1,-1,0
1523618380654,-458752,107,-56,-1,-1,0
1523618380654,-524288,107,-56,-1,-1,0
1523618380654,-524288,107,-56,-1,-1,0
1523618380654,-327680,107,-56,-1,-1,0
1523618380654,-262144,107,-56,-1,-1,0
1523618380694,-327680,107,-56,-1,-1,0
1523618380694,-327680,107,-56,-1,-1,0
1523618380694,-131072,107,-56,-1,-1,0
1523618380694,-131072,107,-56,-1,-1,0
1523618380694,-393216,107,-56,-1,-1,0
1523618380734,-655360,107,-56,-1,-1,0
1523618380734,-917504,107,-56,-1,-1,0
1523618380734,-1114112,107,-56,-1,-1,0
1523618380734,-1310720,107,-56,-1,-1,0
1523618380734,-1310720,107,-56,-1,-1,0
1523618380774,-1310720,107,-56,-1,-1,0
1523618380774,-1310720,107,-56,-1,-1,0
1523618380774,-1376256,107,-56,-1,-1,0
1523618380774,-1441792,107,-56,-1,-1,0
1523618380774,-1441792,107,-56,-1,-1,0
1523618380814,-1376256,107,-56,-1,-1,0
1523618380814,-1310720,107,-56,-1,-1,0
1523618380814,-1441792,107,-56,-1,-1,0
1523618380814,-1376256,107,-56,-1,-1,0
1523618380814,0,107,-56,-1,-1,0
1523618380854,4456448,107,-56,-1,-1,0
1523618380854,10027008,107,-56,-1,-1,0
1523618380854,10747904,107,-56,-1,-1,0
1523618380854,5898240,107,-56,-1,-1,0
1523618380854,983040,107,-56,-1,-1,0
1523618380894,-589824,107,-56,-1,-1,0
1523618380894,-917504,107,-56,-1,-1,0
1523618380894,-1048576,107,-56,-1,-1,0
1523618380894,-1114112,107,-56,-1,-1,0
1523618380894,-983040,107,-56,-1,-1,0
1523618380934,-786432,107,-56,-1,-1,0
1523618380934,-655360,107,-56,-1,-1,0
1523618380934,-655360,107,-56,-1,-1,0
1523618380934,-720896,107,-56,-1,-1,0
1523618380934,-589824,107,-56,-1,-1,0
1523618380974,-327680,107,-56,-1,-1,0
1523618380974,-131072,107,-56,-1,-1,0
1523618380974,-131072,107,-56,-1,-1,0
1523618380974,-196608,107,-56,-1,-1,0
1523618380974,-65536,107,-56,-1,-1,0
1523618381014,0,107,-56,-1,-1,0
1523618381014,65536,107,-56,-1,-1,0
1523618381014,262144,107,-56,-1,-1,0
1523618381014,524288,107,-56,-1,-1,0
1523618381014,655360,107,-56,-1,-1,0
1523618381055,786432,107,-56,-1,-1,0
1523618381055,983040,107,-56,-1,-1,0
1523618381055,1572864,107,-56,-1,-1,0
1523618381055,1900544,107,-56,-1,-1,0
1523618381055,2031616,107,-56,-1,-1,0
1523618381094,1835008,107,-56,-1,-1,0
1523618381094,1835008,107,-56,-1,-1,0
1523618381094,1769472,107,-56,-1,-1,0
1523618381094,1507328,107,-56,-1,-1,0
1523618381094,1114112,107,-56,-1,-1,0
1523618381134,851968,107,-56,-1,-1,0
1523618381134,655360,107,-56,-1,-1,0
1523618381134,458752,107,-56,-1,-1,0
1523618381134,196608,107,-56,-1,-1,0
1523618381134,65536,107,-56,-1,-1,0
1523618381174,0,108,-56,-1,-1,0
1523618381174,-65536,108,-56,-1,-1,0
1523618381174,-65536,108,-56,-1,-1,0
1523618381174,0,108,-56,-1,-1,0
1523618381174,0,108,-56,-1,-1,0
1523618381214,131072,108,-56,-1,-1,0
1523618381214,327680,108,-56,-1,-1,0
1523618381214,393216,108,-56,-1,-1,0
1523618381214,524288,108,-56,-1,-1,0
1523618381214,655360,108,-56,-1,-1,0
1523618381254,589824,108,-56,-1,-1,0
1523618381254,262144,108,-56,-1,-1,0
1523618381254,0,108,-56,-1,-1,0
1523618381254,-196608,108,-56,-1,-1,0
1523618381254,-327680,108,-56,-1,-1,0
1523618381294,-458752,108,-56,-1,-1,0
1523618381294,-655360,108,-56,-1,-1,0
1523618381294,-720896,108,-56,-1,-1,0
1523618381294,-655360,108,-56,-1,-1,0
1523618381294,-589824,108,-56,-1,-1,0
1523618381334,-720896,108,-56,-1,-1,0
1523618381334,-917504,108,-56,-1,-1,0
1523618381334,-983040,108,-56,-1,-1,0
1523618381334,-983040,108,-56,-1,-1,0
1523618381334,-1179648,108,-56,-1,-1,0
1523618381374,-720896,108,-56,-1,-1,0
1523618381374,2031616,108,-56,-1,-1,0
1523618381374,7340032,108,-56,-1,-1,0
1523618381374,10420224,108,-56,-1,-1,0
1523618381374,7602176,108,-56,-1,-1,0
1523618381414,2555904,108,-56,-1,-1,0
1523618381414,-65536,108,-56,-1,-1,0
1523618381414,-851968,108,-56,-1,-1,0
1523618381414,-1114112,108,-56,-1,-1,0
1523618381414,-1114112,108,-56,-1,-1,0
1523618381454,-1179648,108,-56,-1,-1,0
1523618381454,-1310720,108,-56,-1,-1,0
1523618381454,-1376256,108,-56,-1,-1,0
1523618381454,-1376256,108,-56,-1,-1,0
1523618381454,-1179648,108,-56,-1,-1,0
1523618381494,-1114112,108,-56,-1,-1,0
1523618381494,-1245184,108,-56,-1,-1,0
1523618381494,-1310720,108,-56,-1,-1,0
1523618381494,-1245184,108,-56,-1,-1,0
1523618381494,-1245184,108,-56,-1,-1,0
1523618381534,-1310720,108,-56,-1,-1,0
1523618381534,-1179648,108,-56,-1,-1,0
1523618381534,-1114112,108,-56,-1,-1,0
1523618381534,-1114112,108,-56,-1,-1,0
1523618381534,-983040,108,-56,-1,-1,0
1523618381574,-851968,108,-56,-1,-1,0
1523618381574,-655360,108,-56,-1,-1,0
1523618381574,-393216,108,-56,-1,-1,0
1523618381574,0,108,-56,-1,-1,0
1523618381574,65536,108,-56,-1,-1,0
1523618381614,196608,108,-56,-1,-1,0
1523618381614,524288,108,-56,-1,-1,0
1523618381614,655360,108,-56,-1,-1,0
1523618381614,524288,108,-56,-1,-1,0
1523618381614,393216,108,-56,-1,-1,0
1523618381654,327680,108,-56,-1,-1,0
1523618381654,131072,108,-56,-1,-1,0
1523618381654,-196608,108,-56,-1,-1,0
1523618381654,-655360,108,-56,-1,-1,0
1523618381654,-917504,108,-56,-1,-1,0
1523618381695,-917504,108,-56,-1,-1,0
1523618381695,-786432,108,-56,-1,-1,0
1523618381695,-720896,108,-56,-1,-1,0
1523618381695,-655360,108,-56,-1,-1,0
1523618381695,-589824,108,-56,-1,-1,0
1523618381734,-262144,108,-56,-1,-1,0
1523618381734,0,108,-56,-1,-1,0
1523618381734,131072,108,-56,-1,-1,0
1523618381734,65536,108,-56,-1,-1,0
1523618381734,0,108,-56,-1,-1,0
1523618381774,0,108,-56,-1,-1,0
1523618381774,0,108,-56,-1,-1,0
1523618381774,0,108,-56,-1,-1,0
1523618381774,-196608,108,-56,-1,-1,0
1523618381774,-524288,108,-56,-1,-1,0
1523618381814,-851968,108,-56,-1,-1,0
1523618381814,-1179648,108,-56,-1,-1,0
1523618381814,-1310720,108,-56,-1,-1,0
1523618381814,-1179648,108,-56,-1,-1,0
1523618381814,-1114112,108,-56,-1,-1,0
1523618381854,-1310720,108,-56,-1,-1,0
1523618381854,-1572864,108,-56,-1,-1,0
1523618381854,-1572864,108,-56,-1,-1,0
1523618381854,-1507328,108,-56,-1,-1,0
1523618381854,-1441792,108,-56,-1,-1,0
1523618381895,-1703936,108,-56,-1,-1,0
1523618381895,-1441792,108,-56,-1,-1,0
1523618381895,1441792,108,-56,-1,-1,0
1523618381895,7405568,108,-56,-1,-1,0
1523618381895,11206656,108,-56,-1,-1,0
1523618381934,8519680,108,-56,-1,-1,0
1523618381934,2949120,108,-56,-1,-1,0
1523618381934,-196608,108,-56,-1,-1,0
1523618381934,-1048576,108,-56,-1,-1,0
1523618381934,-1376256,108,-56,-1,-1,0
1523618381974,-1507328,108,-56,-1,-1,0
1523618381974,-1572864,108,-56,-1,-1,0
1523618381974,-1441792,108,-56,-1,-1,0
1523618381974,-1245184,108,-56,-1,-1,0
1523618381974,-1114112,108,-56,-1,-1,0
1523618382014,-1114112,108,-56,-1,-1,0
1523618382014,-1376256,108,-56,-1,-1,0
1523618382014,-1376256,108,-56,-1,-1,0
1523618382014,-1310720,108,-56,-1,-1,0
1523618382014,-1114112,108,-56,-1,-1,0
1523618382054,-983040,108,-56,-1,-1,0
1523618382054,-786432,108,-56,-1,-1,0
1523618382054,-655360,108,-56,-1,-1,0
1523618382054,-458752,108,-56,-1,-1,0
1523618382054,-196608,108,-56,-1,-1,0
1523618382094,0,108,-56,-1,-1,0
1523618382094,262144,108,-56,-1,-1,0
1523618382094,655360,108,-56,-1,-1,0
1523618382094,917504,108,-56,-1,-1,0
1523618382094,1179648,108,-56,-1,-1,0
1523618382134,1376256,108,-56,-1,-1,0
1523618382134,1703936,108,-56,-1,-1,0
1523618382134,1966080,108,-56,-1,-1,0
1523618382134,2097152,108,-56,-1,-1,0
1523618382134,1900544,108,-56,-1,-1,0
1523618382174,1572864,108,-56,-1,-1,0
1523618382174,1245184,108,-56,-1,-1,0
1523618382174,983040,108,-56,-1,-1,0
1523618382174,720896,108,-56,-1,-1,0
1523618382174,458752,108,-56,-1,-1,0
1523618382214,131072,108,-56,-1,-1,0
1523618382214,0,108,-56,-1,-1,0
1523618382214,0,108,-56,-1,-1,0
1523618382214,0,108,-56,-1,-1,0
1523618382214,0,108,-56,-1,-1,0
1523618382254,-65536,109,-56,-1,-1,0
1523618382254,0,109,-56,-1,-1,0
1523618382254,0,109,-56,-1,-1,0
1523618382254,65536,109,-56,-1,-1,0
1523618382254,131072,109,-56,-1,-1,0
1523618382294,131072,109,-56,-1,-1,0
1523618382294,196608,109,-56,-1,-1,0
1523618382294,131072,109,-56,-1,-1,0
1523618382294,-131072,109,-56,-1,-1,0
1523618382294,-458752,109,-56,-1,-1,0
1523618382335,-655360,109,-56,-1,-1,0
1523618382335,-720896,109,-56,-1,-1,0
1523618382335,-786432,109,-56,-1,-1,0
1523618382335,-983040,109,-56,-1,-1,0
1523618382335,-1114112,109,-56,-1,-1,0
1523618382374,-1179648,109,-56,-1,-1,0
1523618382374,-1179648,109,-56,-1,-1,0
1523618382374,-1179648,109,-56,-1,-1,0
1523618382374,-1179648,109,-56,-1,-1,0
1523618382374,-1310720,109,-56,-1,-1,0
1523618382414,-1638400,109,-56,-1,-1,0
1523618382414,-1769472,109,-56,-1,-1,0
1523618382414,-393216,109,-56,-1,-1,0
1523618382414,4063232,109,-56,-1,-1,0
1523618382414,9895936,109,-56,-1,-1,0
1523618382454,10813440,109,-56,-1,-1,0
1523618382454,5898240,109,-56,-1,-1,0
1523618382454,917504,109,-56,-1,-1,0
1523618382454,-655360,109,-56,-1,-1,0
1523618382454,-1048576,109,-56,-1,-1,0
1523618382494,-1048576,109,-56,-1,-1,0
1523618382494,-1114112,109,-56,-1,-1,0
1523618382494,-1245184,109,-56,-1,-1,0
1523618382494,-1441792,109,-56,-1,-1,0
1523618382494,-1572864,109,-56,-1,-1,0
1523618382534,-1638400,109,-56,-1,-1,0
1523618382534,-1638400,109,-56,-1,-1,0
1523618382534,-1703936,109,-56,-1,-1,0
1523618382534,-1769472,109,-56,-1,-1,0
1523618382534,-1703936,109,-56,-1,-1,0
1523618382574,-1638400,109,-56,-1,-1,0
1523618382574,-1638400,109,-56,-1,-1,0
1523618382574,-1638400,109,-56,-1,-1,0
1523618382574,-1572864,109,-56,-1,-1,0
1523618382574,-1507328,109,-56,-1,-1,0
1523618382614,-1245184,109,-56,-1,-1,0
1523618382614,-1114112,109,-56,-1,-1,0
1523618382614,-1114112,109,-56,-1,-1,0
1523618382614,-983040,109,-56,-1,-1,0
1523618382614,-589824,109,-56,-1,-1,0
1523618382654,-262144,109,-56,-1,-1,0
1523618382654,0,109,-56,-1,-1,0
1523618382654,196608,109,-56,-1,-1,0
1523618382654,327680,109,-56,-1,-1,0
1523618382654,393216,109,-56,-1,-1,0
1523618382694,393216,109,-56,-1,-1,0
1523618382694,327680,109,-56,-1,-1,0
1523618382694,131072,109,-56,-1,-1,0
1523618382694,-65536,109,-56,-1,-1,0
1523618382694,-458752,109,-56,-1,-1,0
1523618382733,-851968,110,-56,-1,-1,0
1523618382733,-1114112,110,-56,-1,-1,0
1523618382733,-1245184,110,-56,-1,-1,0
1523618382733,-1310720,110,-56,-1,-1,0
1523618382733,-1310720,110,-56,-1,-1,0
1523618382773,-1310720,110,-56,-1,-1,0
1523618382773,-1310720,110,-56,-1,-1,0
1523618382773,-1179648,110,-56,-1,-1,0
1523618382773,-983040,110,-56,-1,-1,0
1523618382773,-851968,110,-56,-1,-1,0
1523618382813,-786432,110,-56,-1,-1,0
1523618382813,-720896,110,-56,-1,-1,0
1523618382813,-720896,110,-56,-1,-1,0
1523618382813,-983040,110,-56,-1,-1,0
1523618382813,-1245184,110,-56,-1,-1,0
1523618382853,-1310720,110,-56,-1,-1,0
1523618382853,-1441792,110,-56,-1,-1,0
1523618382853,-1441792,110,-56,-1,-1,0
1523618382853,-1441792,110,-56,-1,-1,0
1523618382853,-1441792,110,-56,-1,-1,0
1523618382893,-1507328,110,-56,-1,-1,0
1523618382893,-1441792,110,-56,-1,-1,0
1523618382893,-1310720,110,-56,-1,-1,0
1523618382893,-1245184,110,-56,-1,-1,0
1523618382893,-1179648,110,-56,-1,-1,0
1523618382933,-1179648,110,-56,-1,-1,0
1523618382933,-1441792,110,-56,-1,-1,0
1523618382933,-720896,110,-56,-1,-1,0
1523618382933,2359296,110,-56,-1,-1,0
1523618382933,7471104,110,-56,-1,-1,0
1523618382975,9830400,110,-56,-1,-1,0
1523618382975,6881280,110,-56,-1,-1,0
1523618382975,2162688,110,-56,-1,-1,0
1523618382975,-262144,110,-56,-1,-1,0
1523618382975,-983040,110,-56,-1,-1,0
1523618383013,-1376256,110,-56,-1,-1,0
1523618383013,-1572864,110,-56,-1,-1,0
1523618383013,-1572864,110,-56,-1,-1,0
1523618383013,-1572864,110,-56,-1,-1,0
1523618383013,-1703936,110,-56,-1,-1,0
1523618383053,-1769472,110,-56,-1,-1,0
1523618383053,-1572864,110,-56,-1,-1,0
1523618383053,-1441792,110,-56,-1,-1,0
1523618383053,-1310720,110,-56,-1,-1,0
1523618383053,-1245184,110,-56,-1,-1,0
1523618383093,-1114112,110,-56,-1,-1,0
1523618383093,-1114112,110,-56,-1,-1,0
1523618383093,-1245184,110,-56,-1,-1,0
1523618383093,-1179648,110,-56,-1,-1,0
1523618383093,-1048576,110,-56,-1,-1,0
1523618383133,-983040,110,-56,-1,-1,0
1523618383133,-786432,110,-56,-1,-1,0
1523618383133,-458752,110,-56,-1,-1,0
1523618383133,-131072,110,-56,-1,-1,0
1523618383133,65536,110,-56,-1,-1,0
1523618383173,196608,110,-56,-1,-1,0
1523618383173,327680,110,-56,-1,-1,0
1523618383173,524288,110,-56,-1,-1,0
1523618383173,786432,110,-56,-1,-1,0
1523618383173,983040,110,-56,-1,-1,0
1523618383213,983040,110,-56,-1,-1,0
1523618383213,917504,110,-56,-1,-1,0
1523618383213,786432,110,-56,-1,-1,0
1523618383213,589824,110,-56,-1,-1,0
1523618383213,327680,110,-56,-1,-1,0
1523618383253,196608,111,-56,-1,-1,0
1523618383253,131072,111,-56,-1,-1,0
1523618383253,131072,111,-56,-1,-1,0
1523618383253,0,111,-56,-1,-1,0
1523618383253,-65536,111,-56,-1,-1,0
1523618383293,-65536,111,-56,-1,-1,0
1523618383293,65536,111,-56,-1,-1,0
1523618383293,131072,111,-56,-1,-1,0
1523618383293,327680,111,-56,-1,-1,0
1523618383293,327680,111,-56,-1,-1,0
1523618383333,262144,111,-56,-1,-1,0
1523618383333,262144,111,-56,-1,-1,0
1523618383333,327680,111,-56,-1,-1,0
1523618383333,262144,111,-56,-1,-1,0
1523618383333,-65536,111,-56,-1,-1,0
1523618383373,-262144,111,-56,-1,-1,0
1523618383373,-262144,111,-56,-1,-1,0
1523618383373,-327680,111,-56,-1,-1,0
1523618383373,-393216,111,-56,-1,-1,0
1523618383373,-524288,111,-56,-1,-1,0
1523618383413,-720896,111,-56,-1,-1,0
1523618383413,-851968,111,-56,-1,-1,0
1523618383413,-851968,111,-56,-1,-1,0
1523618383413,-786432,111,-56,-1,-1,0
1523618383413,-851968,111,-56,-1,-1,0
1523618383453,-1048576,111,-56,-1,-1,0
1523618383453,-1310720,111,-56,-1,-1,0
1523618383453,-458752,111,-56,-1,-1,0
1523618383453,3145728,111,-56,-1,-1,0
1523618383453,9306112,111,-56,-1,-1,0
1523618383493,12189696,111,-56,-1,-1,0
1523618383493,8192000,111,-56,-1,-1,0
1523618383493,2359296,111,-56,-1,-1,0
1523618383493,-131072,111,-56,-1,-1,0
1523618383493,-393216,111,-56,-1,-1,0
1523618383533,-524288,111,-56,-1,-1,0
1523618383533,-786432,111,-56,-1,-1,0
1523618383533,-1048576,111,-56,-1,-1,0
1523618383533,-1114112,111,-56,-1,-1,0
1523618383533,-1048576,111,-56,-1,-1,0
1523618383573,-983040,111,-56,-1,-1,0
1523618383573,-851968,111,-56,-1,-1,0
1523618383573,-589824,111,-56,-1,-1,0
1523618383573,-458752,111,-56,-1,-1,0
1523618383573,-655360,111,-56,-1,-1,0
1523618383615,-851968,111,-56,-1,-1,0
1523618383615,-851968,111,-56,-1,-1,0
1523618383615,-720896,111,-56,-1,-1,0
1523618383615,-524288,111,-56,-1,-1,0
1523618383615,-327680,111,-56,-1,-1,0
1523618383653,-327680,111,-56,-1,-1,0
1523618383653,-131072,111,-56,-1,-1,0
1523618383653,-131072,111,-56,-1,-1,0
1523618383653,0,111,-56,-1,-1,0
1523618383653,0,111,-56,-1,-1,0
1523618383693,262144,111,-56,-1,-1,0
1523618383693,589824,111,-56,-1,-1,0
1523618383693,917504,111,-56,-1,-1,0
1523618383693,1179648,111,-56,-1,-1,0
1523618383693,1310720,111,-56,-1,-1,0
1523618383733,1310720,111,-56,-1,-1,0
1523618383733,1245184,111,-56,-1,-1,0
1523618383733,1048576,111,-56,-1,-1,0
1523618383733,655360,111,-56,-1,-1,0
1523618383733,131072,111,-56,-1,-1,0
1523618383774,-262144,111,-56,-1,-1,0
1523618383774,-393216,111,-56,-1,-1,0
1523618383774,-589824,111,-56,-1,-1,0
1523618383774,-720896,111,-56,-1,-1,0
1523618383774,-720896,111,-56,-1,-1,0
1523618383814,-524288,111,-56,-1,-1,0
1523618383814,-393216,111,-56,-1,-1,0
1523618383814,-327680,111,-56,-1,-1,0
1523618383814,-327680,111,-56,-1,-1,0
1523618383814,-458752,111,-56,-1,-1,0
1523618383854,-458752,111,-56,-1,-1,0
1523618383854,-458752,111,-56,-1,-1,0
1523618383854,-524288,111,-56,-1,-1,0
1523618383854,-589824,111,-56,-1,-1,0
1523618383854,-720896,111,-56,-1,-1,0
1523618383894,-917504,111,-56,-1,-1,0
1523618383894,-1179648,111,-56,-1,-1,0
1523618383894,-1376256,111,-56,-1,-1,0
1523618383894,-1507328,111,-56,-1,-1,0
1523618383894,-1572864,111,-56,-1,-1,0
1523618383933,-1572864,111,-56,-1,-1,0
1523618383933,-1572864,111,-56,-1,-1,0
1523618383933,-1638400,111,-56,-1,-1,0
1523618383933,-1703936,111,-56,-1,-1,0
1523618383933,-1769472,111,-56,-1,-1,0
1523618383974,-1966080,111,-56,-1,-1,0
1523618383974,-2097152,111,-56,-1,-1,0
1523618383974,-786432,111,-56,-1,-1,0
1523618383974,3735552,111,-56,-1,-1,0
1523618383974,9371648,111,-56,-1,-1,0
1523618384014,10158080,111,-56,-1,-1,0
1523618384014,5570560,111,-56,-1,-1,0
1523618384014,1048576,111,-56,-1,-1,0
1523618384014,-458752,111,-56,-1,-1,0
1523618384014,-983040,111,-56,-1,-1,0
1523618384054,-1310720,111,-56,-1,-1,0
1523618384054,-1441792,111,-56,-1,-1,0
1523618384054,-1507328,111,-56,-1,-1,0
1523618384054,-1507328,111,-56,-1,-1,0
1523618384054,-1507328,111,-56,-1,-1,0
1523618384094,-1441792,111,-56,-1,-1,0
1523618384094,-1441792,111,-56,-1,-1,0
1523618384094,-1310720,111,-56,-1,-1,0
1523618384094,-1245184,111,-56,-1,-1,0
1523618384094,-1245184,111,-56,-1,-1,0
1523618384134,-1114112,111,-56,-1,-1,0
1523618384134,-917504,111,-56,-1,-1,0
1523618384134,-917504,111,-56,-1,-1,0
1523618384134,-1048576,111,-56,-1,-1,0
1523618384134,-983040,111,-56,-1,-1,0
1523618384174,-720896,111,-56,-1,-1,0
1523618384174,-458752,111,-56,-1,-1,0
1523618384174,-393216,111,-56,-1,-1,0
1523618384174,-327680,111,-56,-1,-1,0
1523618384174,-196608,111,-56,-1,-1,0
1523618384214,0,111,-56,-1,-1,0
1523618384214,196608,111,-56,-1,-1,0
1523618384214,196608,111,-56,-1,-1,0
1523618384214,65536,111,-56,-1,-1,0
1523618384214,65536,111,-56,-1,-1,0
1523618384255,65536,111,-56,-1,-1,0
1523618384255,65536,111,-56,-1,-1,0
1523618384255,65536,111,-56,-1,-1,0
1523618384255,0,111,-56,-1,-1,0
1523618384255,-262144,111,-56,-1,-1,0
1523618384294,-393216,111,-56,-1,-1,0
1523618384294,-327680,111,-56,-1,-1,0
1523618384294,-327680,111,-56,-1,-1,0
1523618384294,-458752,111,-56,-1,-1,0
1523618384294,-458752,111,-56,-1,-1,0
1523618384334,-327680,111,-56,-1,-1,0
1523618384334,0,111,-56,-1,-1,0
1523618384334,262144,111,-56,-1,-1,0
1523618384334,262144,111,-56,-1,-1,0
1523618384334,327680,111,-56,-1,-1,0
1523618384374,524288,111,-56,-1,-1,0
1523618384374,524288,111,-56,-1,-1,0
1523618384374,196608,111,-56,-1,-1,0
1523618384374,0,111,-56,-1,-1,0
1523618384374,-393216,111,-56,-1,-1,0
1523618384414,-720896,111,-56,-1,-1,0
1523618384414,-786432,111,-56,-1,-1,0
1523618384414,-720896,111,-56,-1,-1,0
1523618384414,-655360,111,-56,-1,-1,0
1523618384414,-655360,111,-56,-1,-1,0
1523618384454,-655360,111,-56,-1,-1,0
1523618384454,-589824,111,-56,-1,-1,0
1523618384454,-327680,111,-56,-1,-1,0
1523618384454,-196608,111,-56,-1,-1,0
1523618384454,-262144,111,-56,-1,-1,0
1523618384494,-589824,111,-56,-1,-1,0
1523618384494,-196608,111,-56,-1,-1,0
1523618384494,2490368,111,-56,-1,-1,0
1523618384494,8060928,111,-56,-1,-1,0
1523618384494,11272192,111,-56,-1,-1,0
1523618384534,8519680,111,-56,-1,-1,0
1523618384534,3276800,111,-56,-1,-1,0
1523618384534,524288,111,-56,-1,-1,0
1523618384534,-65536,111,-56,-1,-1,0
1523618384534,-262144,111,-56,-1,-1,0
1523618384574,-327680,111,-56,-1,-1,0
1523618384574,-393216,111,-56,-1,-1,0
1523618384574,-458752,111,-56,-1,-1,0
1523618384574,-458752,111,-56,-1,-1,0
1523618384574,-393216,111,-56,-1,-1,0
1523618384614,-393216,111,-56,-1,-1,0
1523618384614,-393216,111,-56,-1,-1,0
1523618384614,-262144,111,-56,-1,-1,0
1523618384614,-327680,111,-56,-1,-1,0
1523618384614,-327680,111,-56,-1,-1,0
1523618384654,-65536,111,-56,-1,-1,0
1523618384654,131072,111,-56,-1,-1,0
1523618384654,196608,111,-56,-1,-1,0
1523618384654,196608,111,-56,-1,-1,0
1523618384654,196608,111,-56,-1,-1,0
1523618384694,327680,111,-56,-1,-1,0
1523618384694,393216,111,-56,-1,-1,0
1523618384694,524288,111,-56,-1,-1,0
1523618384694,786432,111,-56,-1,-1,0
1523618384694,1114112,111,-56,-1,-1,0
1523618384734,1376256,111,-56,-1,-1,0
1523618384734,1441792,111,-56,-1,-1,0
1523618384734,1703936,111,-56,-1,-1,0
1523618384734,2031616,111,-56,-1,-1,0
1523618384734,2097152,111,-56,-1,-1,0
1523618384774,2031616,111,-56,-1,-1,0
1523618384774,1966080,111,-56,-1,-1,0
1523618384774,1638400,111,-56,-1,-1,0
1523618384774,1179648,111,-56,-1,-1,0
1523618384774,917504,111,-56,-1,-1,0
1523618384814,851968,112,-56,-1,-1,0
1523618384814,655360,112,-56,-1,-1,0
1523618384814,458752,112,-56,-1,-1,0
1523618384814,327680,112,-56,-1,-1,0
1523618384814,327680,112,-56,-1,-1,0
1523618384854,393216,112,-56,-1,-1,0
1523618384854,393216,112,-56,-1,-1,0
1523618384854,393216,112,-56,-1,-1,0
1523618384854,327680,112,-56,-1,-1,0
1523618384854,327680,112,-56,-1,-1,0
1523618384895,196608,112,-56,-1,-1,0
1523618384895,65536,112,-56,-1,-1,0
1523618384895,-131072,112,-56,-1,-1,0
1523618384895,-524288,112,-56,-1,-1,0
1523618384895,-851968,112,-56,-1,-1,0
1523618384934,-1376256,112,-56,-1,-1,0
1523618384934,-1703936,112,-56,-1,-1,0
1523618384934,-1835008,112,-56,-1,-1,0
1523618384934,-1966080,112,-56,-1,-1,0
1523618384934,-2293760,112,-56,-1,-1,0
1523618384974,-2686976,112,-56,-1,-1,0
1523618384974,-2883584,112,-56,-1,-1,0
1523618384974,-2949120,112,-56,-1,-1,0
1523618384974,-3276800,112,-56,-1,-1,0
1523618384974,-3866624,112,-56,-1,-1,0
1523618385014,-4063232,112,-56,-1,-1,0
1523618385014,-2228224,112,-56,-1,-1,0
1523618385014,3080192,112,-56,-1,-1,0
1523618385014,8257536,112,-56,-1,-1,0
1523618385014,7208960,112,-56,-1,-1,0
1523618385054,1245184,112,-56,-1,-1,0
1523618385054,-3276800,112,-56,-1,-1,0
1523618385054,-4587520,112,-56,-1,-1,0
1523618385054,-5046272,112,-56,-1,-1,0
1523618385054,-5111808,112,-56,-1,-1,0
1523618385093,-4915200,112,-56,-1,-1,0
1523618385093,-4653056,112,-56,-1,-1,0
1523618385093,-4456448,112,-56,-1,-1,0
1523618385093,-4259840,112,-56,-1,-1,0
1523618385093,-3997696,112,-56,-1,-1,0
1523618385133,-3670016,112,-56,-1,-1,0
1523618385133,-3276800,112,-56,-1,-1,0
1523618385133,-3014656,112,-56,-1,-1,0
1523618385133,-2686976,112,-56,-1,-1,0
1523618385133,-2424832,112,-56,-1,-1,0
1523618385173,-2097152,112,-56,-1,-1,0
1523618385173,-1769472,112,-56,-1,-1,0
1523618385173,-1507328,112,-56,-1,-1,0
1523618385173,-1245184,112,-56,-1,-1,0
1523618385173,-983040,112,-56,-1,-1,0
1523618385213,-655360,112,-56,-1,-1,0
1523618385213,-393216,112,-56,-1,-1,0
1523618385213,-65536,112,-56,-1,-1,0
1523618385213,262144,112,-56,-1,-1,0
1523618385213,458752,112,-56,-1,-1,0
1523618385253,589824,112,-56,-1,-1,0
1523618385253,917504,112,-56,-1,-1,0
1523618385253,1114112,112,-56,-1,-1,0
1523618385253,1114112,112,-56,-1,-1,0
1523618385253,983040,112,-56,-1,-1,0
1523618385293,851968,112,-56,-1,-1,0
1523618385293,655360,112,-56,-1,-1,0
1523618385293,458752,112,-56,-1,-1,0
1523618385293,65536,112,-56,-1,-1,0
1523618385293,-65536,112,-56,-1,-1,0
1523618385333,-131072,112,-56,-1,-1,0
1523618385333,-131072,112,-56,-1,-1,0
1523618385333,-262144,112,-56,-1,-1,0
1523618385333,-393216,112,-56,-1,-1,0
1523618385333,-196608,112,-56,-1,-1,0
1523618385373,0,112,-56,-1,-1,0
1523618385373,65536,112,-56,-1,-1,0
1523618385373,196608,112,-56,-1,-1,0
1523618385373,327680,112,-56,-1,-1,0
1523618385373,393216,112,-56,-1,-1,0
1523618385413,262144,112,-56,-1,-1,0
1523618385413,0,112,-56,-1,-1,0
1523618385413,-458752,112,-56,-1,-1,0
1523618385413,-720896,112,-56,-1,-1,0
1523618385413,-786432,112,-56,-1,-1,0
1523618385453,-917504,112,-56,-1,-1,0
1523618385453,-983040,112,-56,-1,-1,0
1523618385453,-983040,112,-56,-1,-1,0
1523618385453,-917504,112,-56,-1,-1,0
1523618385453,-917504,112,-56,-1,-1,0
1523618385493,-851968,112,-56,-1,-1,0
1523618385493,-851968,112,-56,-1,-1,0
1523618385493,-786432,112,-56,-1,-1,0
1523618385493,-983040,112,-56,-1,-1,0
1523618385493,-1048576,112,-56,-1,-1,0
1523618385535,196608,112,-56,-1,-1,0
1523618385535,4259840,112,-56,-1,-1,0
1523618385535,9109504,112,-56,-1,-1,0
1523618385535,9371648,112,-56,-1,-1,0
1523618385535,5111808,112,-56,-1,-1,0
1523618385573,1114112,112,-56,-1,-1,0
1523618385573,-131072,112,-56,-1,-1,0
1523618385573,-458752,112,-56,-1,-1,0
1523618385573,-589824,112,-56,-1,-1,0
1523618385573,-589824,112,-56,-1,-1,0
1523618385613,-589824,112,-56,-1,-1,0
1523618385613,-524288,112,-56,-1,-1,0
1523618385613,-393216,112,-56,-1,-1,0
1523618385613,-393216,112,-56,-1,-1,0
1523618385613,-262144,112,-56,-1,-1,0
1523618385653,-131072,112,-56,-1,-1,0
1523618385653,-65536,112,-56,-1,-1,0
1523618385653,-131072,112,-56,-1,-1,0
1523618385653,-327680,112,-56,-1,-1,0
1523618385653,-393216,112,-56,-1,-1,0
1523618385693,-327680,112,-56,-1,-1,0
1523618385693,-262144,112,-56,-1,-1,0
1523618385693,-131072,112,-56,-1,-1,0
1523618385693,0,112,-56,-1,-1,0
1523618385693,196608,112,-56,-1,-1,0
1523618385733,393216,112,-56,-1,-1,0
1523618385733,589824,112,-56,-1,-1,0
1523618385733,786432,112,-56,-1,-1,0
1523618385733,1048576,112,-56,-1,-1,0
1523618385733,1310720,112,-56,-1,-1,0
1523618385773,1572864,112,-56,-1,-1,0
1523618385773,1835008,112,-56,-1,-1,0
1523618385773,2031616,112,-56,-1,-1,0
1523618385773,2097152,112,-56,-1,-1,0
1523618385773,2097152,112,-56,-1,-1,0
1523618385813,1638400,112,-56,-1,-1,0
1523618385813,1179648,112,-56,-1,-1,0
1523618385813,786432,112,-56,-1,-1,0
1523618385813,655360,112,-56,-1,-1,0
1523618385813,524288,112,-56,-1,-1,0
1523618385853,524288,113,-56,-1,-1,0
1523618385853,524288,113,-56,-1,-1,0
1523618385853,458752,113,-56,-1,-1,0
1523618385853,524288,113,-56,-1,-1,0
1523618385853,720896,113,-56,-1,-1,0
1523618385893,851968,113,-56,-1,-1,0
1523618385893,851968,113,-56,-1,-1,0
1523618385893,786432,113,-56,-1,-1,0
1523618385893,786432,113,-56,-1,-1,0
1523618385893,786432,113,-56,-1,-1,0
1523618385933,458752,113,-56,-1,-1,0
1523618385933,0,113,-56,-1,-1,0
1523618385933,-196608,113,-56,-1,-1,0
1523618385933,-327680,113,-56,-1,-1,0
1523618385933,-524288,113,-56,-1,-1,0
1523618385973,-589824,113,-56,-1,-1,0
1523618385973,-851968,113,-56,-1,-1,0
1523618385973,-1114112,113,-56,-1,-1,0
1523618385973,-1245184,113,-56,-1,-1,0
1523618385973,-1310720,113,-56,-1,-1,0
1523618386013,-1441792,113,-56,-1,-1,0
1523618386013,-1572864,113,-56,-1,-1,0
1523618386013,-1835008,113,-56,-1,-1,0
1523618386013,-1900544,113,-56,-1,-1,0
1523618386013,-655360,113,-56,-1,-1,0
1523618386053,3407872,113,-56,-1,-1,0
1523618386053,8454144,113,-56,-1,-1,0
1523618386053,8912896,113,-56,-1,-1,0
1523618386053,4521984,113,-56,-1,-1,0
1523618386053,65536,113,-56,-1,-1,0
1523618386093,-1638400,113,-56,-1,-1,0
1523618386093,-2228224,113,-56,-1,-1,0
1523618386093,-2490368,113,-56,-1,-1,0
1523618386093,-2752512,113,-56,-1,-1,0
1523618386093,-2949120,113,-56,-1,-1,0
1523618386133,-3080192,113,-56,-1,-1,0
1523618386133,-3145728,113,-56,-1,-1,0
1523618386133,-3211264,113,-56,-1,-1,0
1523618386133,-3211264,113,-56,-1,-1,0
1523618386133,-3276800,113,-56,-1,-1,0
1523618386175,-3407872,113,-56,-1,-1,0
1523618386175,-3473408,113,-56,-1,-1,0
1523618386175,-3407872,113,-56,-1,-1,0
1523618386175,-3211264,113,-56,-1,-1,0
1523618386175,-3080192,113,-56,-1,-1,0
1523618386213,-3080192,113,-56,-1,-1,0
1523618386213,-2818048,113,-56,-1,-1,0
1523618386213,-2424832,113,-56,-1,-1,0
1523618386213,-2162688,113,-56,-1,-1,0
1523618386213,-1900544,113,-56,-1,-1,0
1523618386253,-1507328,113,-56,-1,-1,0
1523618386253,-1114112,113,-56,-1,-1,0
1523618386253,-655360,113,-56,-1,-1,0
1523618386253,-393216,113,-56,-1,-1,0
1523618386253,-65536,113,-56,-1,-1,0
1523618386293,65536,113,-56,-1,-1,0
1523618386293,262144,113,-56,-1,-1,0
1523618386293,524288,113,-56,-1,-1,0
1523618386293,524288,113,-56,-1,-1,0
1523618386293,262144,113,-56,-1,-1,0
1523618386333,-65536,113,-56,-1,-1,0
1523618386333,-458752,113,-56,-1,-1,0
1523618386333,-720896,113,-56,-1,-1,0
1523618386333,-851968,113,-56,-1,-1,0
1523618386333,-851968,113,-56,-1,-1,0
1523618386373,-851968,113,-56,-1,-1,0
1523618386373,-851968,113,-56,-1,-1,0
1523618386373,-720896,113,-56,-1,-1,0
1523618386373,-589824,113,-56,-1,-1,0
1523618386373,-589824,113,-56,-1,-1,0
1523618386413,-589824,113,-56,-1,-1,0
1523618386413,-458752,113,-56,-1,-1,0
1523618386413,-196608,113,-56,-1,-1,0
1523618386413,0,113,-56,-1,-1,0
1523618386413,-131072,113,-56,-1,-1,0
1523618386453,-393216,113,-56,-1,-1,0
1523618386453,-720896,113,-56,-1,-1,0
1523618386453,-786432,113,-56,-1,-1,0
1523618386453,-983040,113,-56,-1,-1,0
1523618386453,-1179648,113,-56,-1,-1,0
1523618386493,-1310720,113,-56,-1,-1,0
1523618386493,-1114112,113,-56,-1,-1,0
1523618386493,-1048576,113,-56,-1,-1,0
1523618386493,-1245184,113,-56,-1,-1,0
1523618386493,-1310720,113,-56,-1,-1,0
1523618386533,-1114112,113,-56,-1,-1,0
1523618386533,-1310720,113,-56,-1,-1,0
1523618386533,-1310720,113,-56,-1,-1,0
1523618386533,524288,113,-56,-1,-1,0
1523618386533,5701632,113,-56,-1,-1,0
1523618386573,10944512,113,-56,-1,-1,0
1523618386573,10551296,113,-56,-1,-1,0
1523618386573,5570560,113,-56,-1,-1,0
1523618386573,1376256,113,-56,-1,-1,0
1523618386573,0,113,-56,-1,-1,0
1523618386613,-262144,113,-56,-1,-1,0
1523618386613,-196608,113,-56,-1,-1,0
1523618386613,-196608,113,-56,-1,-1,0
1523618386613,-327680,113,-56,-1,-1,0
1523618386613,-327680,113,-56,-1,-1,0
1523618386653,-327680,113,-56,-1,-1,0
1523618386653,-327680,113,-56,-1,-1,0
1523618386653,-196608,113,-56,-1,-1,0
1523618386653,-131072,113,-56,-1,-1,0
1523618386653,-65536,113,-56,-1,-1,0
1523618386693,0,113,-56,-1,-1,0
1523618386693,131072,113,-56,-1,-1,0
1523618386693,131072,113,-56,-1,-1,0
1523618386693,196608,113,-56,-1,-1,0
1523618386693,262144,113,-56,-1,-1,0
1523618386733,393216,113,-56,-1,-1,0
1523618386733,720896,113,-56,-1,-1,0
1523618386733,983040,113,-56,-1,-1,0
1523618386733,1114112,113,-56,-1,-1,0
1523618386733,1310720,113,-56,-1,-1,0
1523618386773,1572864,113,-56,-1,-1,0
1523618386773,1835008,113,-56,-1,-1,0
1523618386773,1900544,113,-56,-1,-1,0
1523618386773,1900544,113,-56,-1,-1,0
1523618386773,1835008,113,-56,-1,-1,0
1523618386815,1900544,113,-56,-1,-1,0
1523618386815,1900544,113,-56,-1,-1,0
1523618386815,1769472,113,-56,-1,-1,0
1523618386815,1507328,113,-56,-1,-1,0
1523618386815,1245184,113,-56,-1,-1,0
1523618386853,917504,114,-56,-1,-1,0
1523618386853,786432,114,-56,-1,-1,0
1523618386853,786432,114,-56,-1,-1,0
1523618386853,786432,114,-56,-1,-1,0
1523618386853,720896,114,-56,-1,-1,0
1523618386893,851968,114,-56,-1,-1,0
1523618386893,1114112,114,-56,-1,-1,0
1523618386893,1245184,114,-56,-1,-1,0
1523618386893,983040,114,-56,-1,-1,0
1523618386893,786432,114,-56,-1,-1,0
1523618386933,786432,114,-56,-1,-1,0
1523618386933,851968,114,-56,-1,-1,0
1523618386933,720896,114,-56,-1,-1,0
1523618386933,458752,114,-56,-1,-1,0
1523618386933,131072,114,-56,-1,-1,0
1523618386973,0,114,-56,-1,-1,0
1523618386973,-131072,114,-56,-1,-1,0
1523618386973,-196608,114,-56,-1,-1,0
1523618386973,-196608,114,-56,-1,-1,0
1523618386973,-196608,114,-56,-1,-1,0
1523618387013,-196608,114,-56,-1,-1,0
1523618387013,-196608,114,-56,-1,-1,0
1523618387013,-196608,114,-56,-1,-1,0
1523618387013,-131072,114,-56,-1,-1,0
1523618387013,-327680,114,-56,-1,-1,0
1523618387053,-655360,114,-56,-1,-1,0
1523618387053,-262144,114,-56,-1,-1,0
1523618387053,2621440,114,-56,-1,-1,0
1523618387053,7733248,114,-56,-1,-1,0
1523618387053,9895936,114,-56,-1,-1,0
1523618387093,6684672,114,-56,-1,-1,0
1523618387093,2097152,114,-56,-1,-1,0
1523618387093,0,114,-56,-1,-1,0
1523618387093,-393216,114,-56,-1,-1,0
1523618387093,-589824,114,-56,-1,-1,0
1523618387133,-786432,114,-56,-1,-1,0
1523618387133,-1048576,114,-56,-1,-1,0
1523618387133,-1245184,114,-56,-1,-1,0
1523618387133,-1376256,114,-56,-1,-1,0
1523618387133,-1376256,114,-56,-1,-1,0
1523618387173,-1310720,114,-56,-1,-1,0
1523618387173,-1245184,114,-56,-1,-1,0
1523618387173,-1179648,114,-56,-1,-1,0
1523618387173,-1179648,114,-56,-1,-1,0
1523618387173,-1245184,114,-56,-1,-1,0
1523618387213,-1310720,114,-56,-1,-1,0
1523618387213,-1376256,114,-56,-1,-1,0
1523618387213,-1507328,114,-56,-1,-1,0
1523618387213,-1507328,114,-56,-1,-1,0
1523618387213,-1245184,114,-56,-1,-1,0
1523618387253,-917504,114,-56,-1,-1,0
1523618387253,-655360,114,-56,-1,-1,0
1523618387253,-655360,114,-56,-1,-1,0
1523618387253,-589824,114,-56,-1,-1,0
1523618387253,-458752,114,-56,-1,-1,0
1523618387294,-196608,114,-56,-1,-1,0
1523618387294,-131072,114,-56,-1,-1,0
1523618387294,0,114,-56,-1,-1,0
1523618387294,65536,114,-56,-1,-1,0
1523618387294,131072,114,-56,-1,-1,0
1523618387333,65536,115,-56,-1,-1,0
1523618387333,0,115,-56,-1,-1,0
1523618387333,-131072,115,-56,-1,-1,0
1523618387333,-327680,115,-56,-1,-1,0
1523618387333,-589824,115,-56,-1,-1,0
1523618387373,-720896,115,-56,-1,-1,0
1523618387373,-786432,115,-56,-1,-1,0
1523618387373,-720896,115,-56,-1,-1,0
1523618387373,-524288,115,-56,-1,-1,0
1523618387373,-327680,115,-56,-1,-1,0
1523618387413,-131072,115,-56,-1,-1,0
1523618387413,131072,115,-56,-1,-1,0
1523618387413,262144,115,-56,-1,-1,0
1523618387413,327680,115,-56,-1,-1,0
1523618387413,327680,115,-56,-1,-1,0
1523618387455,196608,115,-56,-1,-1,0
1523618387455,-131072,115,-56,-1,-1,0
1523618387455,-458752,115,-56,-1,-1,0
1523618387455,-524288,115,-56,-1,-1,0
1523618387455,-589824,115,-56,-1,-1,0
1523618387493,-786432,115,-56,-1,-1,0
1523618387493,-917504,115,-56,-1,-1,0
1523618387493,-983040,115,-56,-1,-1,0
1523618387493,-983040,115,-56,-1,-1,0
1523618387493,-1048576,115,-56,-1,-1,0
1523618387533,-1179648,115,-56,-1,-1,0
1523618387533,-1245184,115,-56,-1,-1,0
1523618387533,-1572864,115,-56,-1,-1,0
1523618387533,-2031616,115,-56,-1,-1,0
1523618387533,-1310720,115,-56,-1,-1,0
1523618387573,2228224,115,-56,-1,-1,0
1523618387573,8126464,115,-56,-1,-1,0
1523618387573,10616832,115,-56,-1,-1,0
1523618387573,7077888,115,-56,-1,-1,0
1523618387573,1900544,115,-56,-1,-1,0
1523618387613,-524288,115,-56,-1,-1,0
1523618387613,-1114112,115,-56,-1,-1,0
1523618387613,-1245184,115,-56,-1,-1,0
1523618387613,-1245184,115,-56,-1,-1,0
1523618387613,-1376256,115,-56,-1,-1,0
1523618387654,-1310720,115,-56,-1,-1,0
1523618387654,-1245184,115,-56,-1,-1,0
1523618387654,-1310720,115,-56,-1,-1,0
1523618387654,-1376256,115,-56,-1,-1,0
1523618387654,-1310720,115,-56,-1,-1,0
1523618387694,-1245184,115,-56,-1,-1,0
1523618387694,-1179648,115,-56,-1,-1,0
1523618387694,-1114112,115,-56,-1,-1,0
1523618387694,-1114112,115,-56,-1,-1,0
1523618387694,-917504,115,-56,-1,-1,0
1523618387734,-720896,115,-56,-1,-1,0
1523618387734,-655360,115,-56,-1,-1,0
1523618387734,-655360,115,-56,-1,-1,0
1523618387734,-458752,115,-56,-1,-1,0
1523618387734,-262144,115,-56,-1,-1,0
1523618387773,-65536,115,-56,-1,-1,0
1523618387773,65536,115,-56,-1,-1,0
1523618387773,393216,115,-56,-1,-1,0
1523618387773,655360,115,-56,-1,-1,0
1523618387773,917504,115,-56,-1,-1,0
1523618387814,1048576,115,-56,-1,-1,0
1523618387814,1048576,115,-56,-1,-1,0
1523618387814,1048576,115,-56,-1,-1,0
1523618387814,1048576,115,-56,-1,-1,0
1523618387814,851968,115,-56,-1,-1,0
1523618387854,524288,115,-56,-1,-1,0
1523618387854,262144,115,-56,-1,-1,0
1523618387854,65536,115,-56,-1,-1,0
1523618387854,-196608,115,-56,-1,-1,0
1523618387854,-262144,115,-56,-1,-1,0
1523618387894,-196608,115,-56,-1,-1,0
1523618387894,-65536,115,-56,-1,-1,0
1523618387894,65536,115,-56,-1,-1,0
1523618387894,327680,115,-56,-1,-1,0
1523618387894,327680,115,-56,-1,-1,0
1523618387934,327680,115,-56,-1,-1,0
1523618387934,196608,115,-56,-1,-1,0
1523618387934,131072,115,-56,-1,-1,0
1523618387934,65536,115,-56,-1,-1,0
1523618387934,-131072,115,-56,-1,-1,0
1523618387974,-327680,115,-56,-1,-1,0
1523618387974,-393216,115,-56,-1,-1,0
1523618387974,-393216,115,-56,-1,-1,0
1523618387974,-655360,115,-56,-1,-1,0
1523618387974,-786432,115,-56,-1,-1,0
1523618388013,-851968,115,-56,-1,-1,0
1523618388013,-851968,115,-56,-1,-1,0
1523618388013,-851968,115,-56,-1,-1,0
1523618388013,-786432,115,-56,-1,-1,0
1523618388013,-786432,115,-56,-1,-1,0
1523618388054,-1114112,115,-56,-1,-1,0
1523618388054,-1376256,115,-56,-1,-1,0
1523618388054,-65536,115,-56,-1,-1,0
1523618388054,4456448,115,-56,-1,-1,0
1523618388054,10223616,115,-56,-1,-1,0
1523618388095,10878976,115,-56,-1,-1,0
1523618388095,5898240,115,-56,-1,-1,0
1523618388095,983040,115,-56,-1,-1,0
1523618388095,-589824,115,-56,-1,-1,0
1523618388095,-917504,115,-56,-1,-1,0
1523618388134,-1048576,115,-56,-1,-1,0
1523618388134,-1179648,115,-56,-1,-1,0
1523618388134,-1310720,115,-56,-1,-1,0
1523618388134,-1376256,115,-56,-1,-1,0
1523618388134,-1507328,115,-56,-1,-1,0
1523618388174,-1507328,115,-56,-1,-1,0
1523618388174,-1572864,115,-56,-1,-1,0
1523618388174,-1703936,115,-56,-1,-1,0
1523618388174,-1900544,115,-56,-1,-1,0
1523618388174,-1835008,115,-56,-1,-1,0
1523618388214,-1769472,115,-56,-1,-1,0
1523618388214,-1769472,115,-56,-1,-1,0
1523618388214,-2031616,115,-56,-1,-1,0
1523618388214,-2031616,115,-56,-1,-1,0
1523618388214,-1835008,115,-56,-1,-1,0
1523618388254,-1769472,115,-56,-1,-1,0
1523618388254,-1572864,115,-56,-1,-1,0
1523618388254,-1245184,115,-56,-1,-1,0
1523618388254,-917504,115,-56,-1,-1,0
1523618388254,-786432,115,-56,-1,-1,0
1523618388294,-655360,115,-56,-1,-1,0
1523618388294,-393216,115,-56,-1,-1,0
1523618388294,-131072,115,-56,-1,-1,0
1523618388294,0,115,-56,-1,-1,0
1523618388294,262144,115,-56,-1,-1,0
1523618388334,458752,116,-56,-1,-1,0
1523618388334,262144,116,-56,-1,-1,0
1523618388334,0,116,-56,-1,-1,0
1523618388334,-65536,116,-56,-1,-1,0
1523618388334,-458752,116,-56,-1,-1,0
1523618388374,-786432,116,-56,-1,-1,0
1523618388374,-851968,116,-56,-1,-1,0
1523618388374,-720896,116,-56,-1,-1,0
1523618388374,-655360,116,-56,-1,-1,0
1523618388374,-524288,116,-56,-1,-1,0
1523618388414,-262144,116,-56,-1,-1,0
1523618388414,0,116,-56,-1,-1,0
1523618388414,0,116,-56,-1,-1,0
1523618388414,131072,116,-56,-1,-1,0
1523618388414,262144,116,-56,-1,-1,0
1523618388454,196608,116,-56,-1,-1,0
1523618388454,-65536,116,-56,-1,-1,0
1523618388454,-393216,116,-56,-1,-1,0
1523618388454,-589824,116,-56,-1,-1,0
1523618388454,-720896,116,-56,-1,-1,0
1523618388494,-851968,116,-56,-1,-1,0
1523618388494,-851968,116,-56,-1,-1,0
1523618388494,-720896,116,-56,-1,-1,0
1523618388494,-786432,116,-56,-1,-1,0
1523618388494,-786432,116,-56,-1,-1,0
1523618388534,-720896,116,-56,-1,-1,0
1523618388534,-786432,116,-56,-1,-1,0
1523618388534,-983040,116,-56,-1,-1,0
1523618388534,-1376256,116,-56,-1,-1,0
1523618388534,-983040,116,-56,-1,-1,0
1523618388574,1507328,116,-56,-1,-1,0
1523618388574,6553600,116,-56,-1,-1,0
1523618388574,9830400,116,-56,-1,-1,0
1523618388574,7733248,116,-56,-1,-1,0
1523618388574,3211264,116,-56,-1,-1,0
1523618388614,393216,116,-56,-1,-1,0
1523618388614,-458752,116,-56,-1,-1,0
1523618388614,-1048576,116,-56,-1,-1,0
1523618388614,-1441792,116,-56,-1,-1,0
1523618388614,-1507328,116,-56,-1,-1,0
1523618388654,-1376256,116,-56,-1,-1,0
1523618388654,-1310720,116,-56,-1,-1,0
1523618388654,-1376256,116,-56,-1,-1,0
1523618388654,-1245184,116,-56,-1,-1,0
1523618388654,-1310720,116,-56,-1,-1,0
1523618388694,-1310720,116,-56,-1,-1,0
1523618388694,-1310720,116,-56,-1,-1,0
1523618388694,-1179648,116,-56,-1,-1,0
1523618388694,-1179648,116,-56,-1,-1,0
1523618388694,-1179648,116,-56,-1,-1,0
1523618388735,-1179648,116,-56,-1,-1,0
1523618388735,-1245184,116,-56,-1,-1,0
1523618388735,-1179648,116,-56,-1,-1,0
1523618388735,-917504,116,-56,-1,-1,0
1523618388735,-851968,116,-56,-1,-1,0
1523618388774,-917504,116,-56,-1,-1,0
1523618388774,-851968,116,-56,-1,-1,0
1523618388774,-524288,116,-56,-1,-1,0
1523618388774,-262144,116,-56,-1,-1,0
1523618388774,-131072,116,-56,-1,-1,0
1523618388814,-65536,116,-56,-1,-1,0
1523618388814,0,116,-56,-1,-1,0
1523618388814,65536,116,-56,-1,-1,0
1523618388814,196608,116,-56,-1,-1,0
1523618388814,196608,116,-56,-1,-1,0
1523618388854,65536,116,-56,-1,-1,0
1523618388854,0,116,-56,-1,-1,0
1523618388854,-65536,116,-56,-1,-1,0
1523618388854,-65536,116,-56,-1,-1,0
1523618388854,0,116,-56,-1,-1,0
1523618388894,-65536,116,-56,-1,-1,0
1523618388894,-65536,116,-56,-1,-1,0
1523618388894,65536,116,-56,-1,-1,0
1523618388894,262144,116,-56,-1,-1,0
1523618388894,196608,116,-56,-1,-1,0
1523618388934,196608,116,-56,-1,-1,0
1523618388934,327680,116,-56,-1,-1,0
1523618388934,393216,116,-56,-1,-1,0
1523618388934,196608,116,-56,-1,-1,0
1523618388934,0,116,-56,-1,-1,0
1523618388974,-131072,116,-56,-1,-1,0
1523618388974,-262144,116,-56,-1,-1,0
1523618388974,-327680,116,-56,-1,-1,0
1523618388974,-327680,116,-56,-1,-1,0
1523618388974,-524288,116,-56,-1,-1,0
1523618389014,-524288,116,-56,-1,-1,0
1523618389014,-393216,116,-56,-1,-1,0
1523618389014,-327680,116,-56,-1,-1,0
1523618389014,-524288,116,-56,-1,-1,0
1523618389014,-589824,116,-56,-1,-1,0
1523618389054,-983040,116,-56,-1,-1,0
1523618389054,-720896,116,-56,-1,-1,0
1523618389054,1835008,116,-56,-1,-1,0
1523618389054,7929856,116,-56,-1,-1,0
1523618389054,12910592,116,-56,-1,-1,0
1523618389094,10485760,116,-56,-1,-1,0
1523618389094,3866624,116,-56,-1,-1,0
1523618389094,-131072,116,-56,-1,-1,0
1523618389094,-720896,116,-56,-1,-1,0
1523618389094,-720896,116,-56,-1,-1,0
1523618389134,-851968,116,-56,-1,-1,0
1523618389134,-917504,116,-56,-1,-1,0
1523618389134,-1048576,116,-56,-1,-1,0
1523618389134,-1114112,116,-56,-1,-1,0
1523618389134,-1179648,116,-56,-1,-1,0
1523618389174,-1048576,116,-56,-1,-1,0
1523618389174,-1114112,116,-56,-1,-1,0
1523618389174,-1179648,116,-56,-1,-1,0
1523618389174,-1048576,116,-56,-1,-1,0
1523618389174,-851968,116,-56,-1,-1,0
1523618389214,-851968,116,-56,-1,-1,0
1523618389214,-851968,116,-56,-1,-1,0
1523618389214,-917504,116,-56,-1,-1,0
1523618389214,-786432,116,-56,-1,-1,0
1523618389214,-589824,116,-56,-1,-1,0
1523618389254,-524288,116,-56,-1,-1,0
1523618389254,-524288,116,-56,-1,-1,0
1523618389254,-458752,116,-56,-1,-1,0
1523618389254,-262144,116,-56,-1,-1,0
1523618389254,0,116,-56,-1,-1,0
1523618389294,131072,116,-56,-1,-1,0
1523618389294,131072,116,-56,-1,-1,0
1523618389294,327680,116,-56,-1,-1,0
1523618389294,458752,116,-56,-1,-1,0
1523618389294,524288,116,-56,-1,-1,0
1523618389334,458752,117,-56,-1,-1,0
1523618389334,262144,117,-56,-1,-1,0
1523618389334,-65536,117,-56,-1,-1,0
1523618389334,-393216,117,-56,-1,-1,0
1523618389334,-786432,117,-56,-1,-1,0
1523618389375,-983040,117,-56,-1,-1,0
1523618389375,-1114112,117,-56,-1,-1,0
1523618389375,-1179648,117,-56,-1,-1,0
1523618389375,-1114112,117,-56,-1,-1,0
1523618389375,-917504,117,-56,-1,-1,0
1523618389414,-786432,117,-56,-1,-1,0
1523618389414,-786432,117,-56,-1,-1,0
1523618389414,-983040,117,-56,-1,-1,0
1523618389414,-1114112,117,-56,-1,-1,0
1523618389414,-1179648,117,-56,-1,-1,0
1523618389454,-1245184,117,-56,-1,-1,0
1523618389454,-1507328,117,-56,-1,-1,0
1523618389454,-1703936,117,-56,-1,-1,0
1523618389454,-1835008,117,-56,-1,-1,0
1523618389454,-1966080,117,-56,-1,-1,0
1523618389494,-1966080,117,-56,-1,-1,0
1523618389494,-1835008,117,-56,-1,-1,0
1523618389494,-1835008,117,-56,-1,-1,0
1523618389494,-1966080,117,-56,-1,-1,0
1523618389494,-1769472,117,-56,-1,-1,0
1523618389534,-1376256,117,-56,-1,-1,0
1523618389534,-1114112,117,-56,-1,-1,0
1523618389534,-1310720,117,-56,-1,-1,0
1523618389534,-1114112,117,-56,-1,-1,0
1523618389534,1376256,117,-56,-1,-1,0
1523618389574,7143424,117,-56,-1,-1,0
1523618389574,11796480,117,-56,-1,-1,0
1523618389574,10027008,117,-56,-1,-1,0
1523618389574,4390912,117,-56,-1,-1,0
1523618389574,589824,117,-56,-1,-1,0
1523618389614,-262144,117,-56,-1,-1,0
1523618389614,-393216,117,-56,-1,-1,0
1523618389614,-524288,117,-56,-1,-1,0
1523618389614,-786432,117,-56,-1,-1,0
1523618389614,-851968,117,-56,-1,-1,0
1523618389654,-786432,117,-56,-1,-1,0
1523618389654,-655360,117,-56,-1,-1,0
1523618389654,-655360,117,-56,-1,-1,0
1523618389654,-786432,117,-56,-1,-1,0
1523618389654,-917504,117,-56,-1,-1,0
1523618389694,-851968,117,-56,-1,-1,0
1523618389694,-589824,117,-56,-1,-1,0
1523618389694,-589824,117,-56,-1,-1,0
1523618389694,-720896,117,-56,-1,-1,0
1523618389694,-786432,117,-56,-1,-1,0
1523618389734,-851968,117,-56,-1,-1,0
1523618389734,-917504,117,-56,-1,-1,0
1523618389734,-917504,117,-56,-1,-1,0
1523618389734,-720896,117,-56,-1,-1,0
1523618389734,-458752,117,-56,-1,-1,0
1523618389774,-196608,117,-56,-1,-1,0
1523618389774,0,117,-56,-1,-1,0
1523618389774,196608,117,-56,-1,-1,0
1523618389774,196608,117,-56,-1,-1,0
1523618389774,196608,117,-56,-1,-1,0
1523618389814,327680,117,-56,-1,-1,0
1523618389814,524288,117,-56,-1,-1,0
1523618389814,524288,117,-56,-1,-1,0
1523618389814,327680,117,-56,-1,-1,0
1523618389814,0,117,-56,-1,-1,0
1523618389854,-196608,117,-56,-1,-1,0
1523618389854,-262144,117,-56,-1,-1,0
1523618389854,-262144,117,-56,-1,-1,0
1523618389854,-196608,117,-56,-1,-1,0
1523618389854,-65536,117,-56,-1,-1,0
1523618389894,0,117,-56,-1,-1,0
1523618389894,65536,117,-56,-1,-1,0
1523618389894,196608,117,-56,-1,-1,0
1523618389894,262144,117,-56,-1,-1,0
1523618389894,196608,117,-56,-1,-1,0
1523618389934,131072,117,-56,-1,-1,0
1523618389934,196608,117,-56,-1,-1,0
1523618389934,131072,117,-56,-1,-1,0
1523618389934,-131072,117,-56,-1,-1,0
1523618389934,-458752,117,-56,-1,-1,0
1523618389974,-458752,117,-56,-1,-1,0
1523618389974,-458752,117,-56,-1,-1,0
1523618389974,-458752,117,-56,-1,-1,0
1523618389974,-327680,117,-56,-1,-1,0
1523618389974,-262144,117,-56,-1,-1,0
1523618390015,-327680,117,-56,-1,-1,0
1523618390015,-524288,117,-56,-1,-1,0
1523618390015,-655360,117,-56,-1,-1,0
1523618390015,-720896,117,-56,-1,-1,0
1523618390015,-655360,117,-56,-1,-1,0
1523618390054,-196608,117,-56,-1,-1,0
1523618390054,2228224,117,-56,-1,-1,0
1523618390054,7471104,117,-56,-1,-1,0
1523618390054,11141120,117,-56,-1,-1,0
1523618390054,8978432,117,-56,-1,-1,0
1523618390094,3932160,117,-56,-1,-1,0
1523618390094,983040,117,-56,-1,-1,0
1523618390094,393216,117,-56,-1,-1,0
1523618390094,131072,117,-56,-1,-1,0
1523618390094,-65536,117,-56,-1,-1,0
1523618390134,-262144,117,-56,-1,-1,0
1523618390134,-393216,117,-56,-1,-1,0
1523618390134,-327680,117,-56,-1,-1,0
1523618390134,-327680,117,-56,-1,-1,0
1523618390134,-524288,117,-56,-1,-1,0
1523618390174,-524288,117,-56,-1,-1,0
1523618390174,-262144,117,-56,-1,-1,0
1523618390174,-65536,117,-56,-1,-1,0
1523618390174,0,117,-56,-1,-1,0
1523618390174,-131072,117,-56,-1,-1,0
1523618390215,-65536,117,-56,-1,-1,0
1523618390215,-131072,117,-56,-1,-1,0
1523618390215,-131072,117,-56,-1,-1,0
1523618390215,0,117,-56,-1,-1,0
1523618390215,196608,117,-56,-1,-1,0
1523618390254,327680,117,-56,-1,-1,0
1523618390254,524288,117,-56,-1,-1,0
1523618390254,720896,117,-56,-1,-1,0
1523618390254,917504,117,-56,-1,-1,0
1523618390254,1179648,117,-56,-1,-1,0
1523618390294,1441792,117,-56,-1,-1,0
1523618390294,1638400,117,-56,-1,-1,0
1523618390294,1703936,117,-56,-1,-1,0
1523618390294,1769472,117,-56,-1,-1,0
1523618390294,1638400,117,-56,-1,-1,0
1523618390334,1507328,118,-56,-1,-1,0
1523618390334,1245184,118,-56,-1,-1,0
1523618390334,917504,118,-56,-1,-1,0
1523618390334,524288,118,-56,-1,-1,0
1523618390334,458752,118,-56,-1,-1,0
1523618390374,458752,118,-56,-1,-1,0
1523618390374,458752,118,-56,-1,-1,0
1523618390374,393216,118,-56,-1,-1,0
1523618390374,262144,118,-56,-1,-1,0
1523618390374,196608,118,-56,-1,-1,0
1523618390414,196608,118,-56,-1,-1,0
1523618390414,262144,118,-56,-1,-1,0
1523618390414,131072,118,-56,-1,-1,0
1523618390414,-131072,118,-56,-1,-1,0
1523618390414,-458752,118,-56,-1,-1,0
1523618390454,-589824,118,-56,-1,-1,0
1523618390454,-589824,118,-56,-1,-1,0
1523618390454,-786432,118,-56,-1,-1,0
1523618390454,-917504,118,-56,-1,-1,0
1523618390454,-1114112,118,-56,-1,-1,0
1523618390494,-1376256,118,-56,-1,-1,0
1523618390494,-1638400,118,-56,-1,-1,0
1523618390494,-1835008,118,-56,-1,-1,0
1523618390494,-2031616,118,-56,-1,-1,0
1523618390494,-2162688,118,-56,-1,-1,0
1523618390534,-2490368,118,-56,-1,-1,0
1523618390534,-3014656,118,-56,-1,-1,0
1523618390534,-2031616,118,-56,-1,-1,0
1523618390534,2359296,118,-56,-1,-1,0
1523618390534,8257536,118,-56,-1,-1,0
1523618390574,8978432,118,-56,-1,-1,0
1523618390574,3604480,118,-56,-1,-1,0
1523618390574,-1638400,118,-56,-1,-1,0
1523618390574,-3670016,118,-56,-1,-1,0
1523618390574,-4259840,118,-56,-1,-1,0
1523618390614,-4718592,118,-56,-1,-1,0
1523618390614,-4915200,118,-56,-1,-1,0
1523618390614,-4915200,118,-56,-1,-1,0
1523618390614,-4718592,118,-56,-1,-1,0
1523618390614,-4653056,118,-56,-1,-1,0
1523618390655,-4521984,118,-56,-1,-1,0
1523618390655,-4128768,118,-56,-1,-1,0
1523618390655,-3735552,118,-56,-1,-1,0
1523618390655,-3342336,118,-56,-1,-1,0
1523618390655,-2949120,118,-56,-1,-1,0
1523618390694,-2621440,118,-56,-1,-1,0
1523618390694,-2293760,118,-56,-1,-1,0
1523618390694,-1835008,118,-56,-1,-1,0
1523618390694,-1507328,118,-56,-1,-1,0
1523618390694,-1245184,118,-56,-1,-1,0
1523618390734,-1114112,118,-56,-1,-1,0
1523618390734,-786432,118,-56,-1,-1,0
1523618390734,-393216,118,-56,-1,-1,0
1523618390734,0,118,-56,-1,-1,0
1523618390734,327680,118,-56,-1,-1,0
1523618390774,393216,118,-56,-1,-1,0
1523618390774,589824,118,-56,-1,-1,0
1523618390774,851968,118,-56,-1,-1,0
1523618390774,1048576,118,-56,-1,-1,0
1523618390774,983040,118,-56,-1,-1,0
1523618390814,851968,118,-56,-1,-1,0
1523618390814,851968,118,-56,-1,-1,0
1523618390814,851968,118,-56,-1,-1,0
1523618390814,589824,118,-56,-1,-1,0
1523618390814,196608,118,-56,-1,-1,0
1523618390854,0,118,-56,-1,-1,0
1523618390854,-131072,118,-56,-1,-1,0
1523618390854,-196608,118,-56,-1,-1,0
1523618390854,-262144,118,-56,-1,-1,0
1523618390854,-196608,118,-56,-1,-1,0
1523618390894,0,118,-56,-1,-1,0
1523618390894,65536,118,-56,-1,-1,0
1523618390894,0,118,-56,-1,-1,0
1523618390894,0,118,-56,-1,-1,0
1523618390894,196608,118,-56,-1,-1,0
1523618390934,196608,118,-56,-1,-1,0
1523618390934,-196608,118,-56,-1,-1,0
1523618390934,-786432,118,-56,-1,-1,0
1523618390934,-851968,118,-56,-1,-1,0
1523618390934,-720896,118,-56,-1,-1,0
1523618390974,-655360,118,-56,-1,-1,0
1523618390974,-720896,118,-56,-1,-1,0
1523618390974,-720896,118,-56,-1,-1,0
1523618390974,-786432,118,-56,-1,-1,0
1523618390974,-983040,118,-56,-1,-1,0
1523618391014,-1048576,118,-56,-1,-1,0
1523618391014,-917504,118,-56,-1,-1,0
1523618391014,-983040,118,-56,-1,-1,0
1523618391014,-983040,118,-56,-1,-1,0
1523618391014,327680,118,-56,-1,-1,0
1523618391054,4784128,118,-56,-1,-1,0
1523618391054,9371648,118,-56,-1,-1,0
1523618391054,8781824,118,-56,-1,-1,0
1523618391054,4128768,118,-56,-1,-1,0
1523618391054,393216,118,-56,-1,-1,0
1523618391094,-589824,118,-56,-1,-1,0
1523618391094,-851968,118,-56,-1,-1,0
1523618391094,-917504,118,-56,-1,-1,0
1523618391094,-917504,118,-56,-1,-1,0
1523618391094,-983040,118,-56,-1,-1,0
1523618391134,-1048576,118,-56,-1,-1,0
1523618391134,-983040,118,-56,-1,-1,0
1523618391134,-917504,118,-56,-1,-1,0
1523618391134,-983040,118,-56,-1,-1,0
1523618391134,-720896,118,-56,-1,-1,0
1523618391174,-524288,118,-56,-1,-1,0
1523618391174,-524288,118,-56,-1,-1,0
1523618391174,-720896,118,-56,-1,-1,0
1523618391174,-983040,118,-56,-1,-1,0
1523618391174,-983040,118,-56,-1,-1,0
1523618391214,-786432,118,-56,-1,-1,0
1523618391214,-720896,118,-56,-1,-1,0
1523618391214,-720896,118,-56,-1,-1,0
1523618391214,-655360,118,-56,-1,-1,0
1523618391214,-458752,118,-56,-1,-1,0
1523618391254,-262144,118,-56,-1,-1,0
1523618391254,-65536,118,-56,-1,-1,0
1523618391254,131072,118,-56,-1,-1,0
1523618391254,524288,118,-56,-1,-1,0
1523618391254,851968,118,-56,-1,-1,0
1523618391295,1114112,119,-56,-1,-1,0
1523618391295,1245184,119,-56,-1,-1,0
1523618391295,1245184,119,-56,-1,-1,0
1523618391295,1179648,119,-56,-1,-1,0
1523618391295,983040,119,-56,-1,-1,0
1523618391334,720896,119,-56,-1,-1,0
1523618391334,655360,119,-56,-1,-1,0
1523618391334,589824,119,-56,-1,-1,0
1523618391334,524288,119,-56,-1,-1,0
1523618391334,458752,119,-56,-1,-1,0
1523618391374,458752,119,-56,-1,-1,0
1523618391374,655360,119,-56,-1,-1,0
1523618391374,851968,119,-56,-1,-1,0
1523618391374,1114112,119,-56,-1,-1,0
1523618391374,1245184,119,-56,-1,-1,0
1523618391414,1245184,119,-56,-1,-1,0
1523618391414,1179648,119,-56,-1,-1,0
1523618391414,983040,119,-56,-1,-1,0
1523618391414,589824,119,-56,-1,-1,0
1523618391414,327680,119,-56,-1,-1,0
1523618391454,262144,119,-56,-1,-1,0
1523618391454,131072,119,-56,-1,-1,0
1523618391454,65536,119,-56,-1,-1,0
1523618391454,0,119,-56,-1,-1,0
1523618391454,-196608,119,-56,-1,-1,0
1523618391494,-393216,119,-56,-1,-1,0
1523618391494,-524288,119,-56,-1,-1,0
1523618391494,-655360,119,-56,-1,-1,0
1523618391494,-851968,119,-56,-1,-1,0
1523618391494,-1245184,119,-56,-1,-1,0
1523618391534,-983040,119,-56,-1,-1,0
1523618391534,1310720,119,-56,-1,-1,0
1523618391534,6094848,119,-56,-1,-1,0
1523618391534,8912896,119,-56,-1,-1,0
1523618391534,6553600,119,-56,-1,-1,0
1523618391574,2162688,119,-56,-1,-1,0
1523618391574,-131072,119,-56,-1,-1,0
1523618391574,-720896,119,-56,-1,-1,0
1523618391574,-917504,119,-56,-1,-1,0
1523618391574,-1179648,119,-56,-1,-1,0
1523618391614,-1441792,119,-56,-1,-1,0
1523618391614,-1441792,119,-56,-1,-1,0
1523618391614,-1507328,119,-56,-1,-1,0
1523618391614,-1703936,119,-56,-1,-1,0
1523618391614,-1703936,119,-56,-1,-1,0
1523618391654,-1572864,119,-56,-1,-1,0
1523618391654,-1703936,119,-56,-1,-1,0
1523618391654,-2097152,119,-56,-1,-1,0
1523618391654,-2162688,119,-56,-1,-1,0
1523618391654,-1966080,119,-56,-1,-1,0
1523618391694,-1835008,119,-56,-1,-1,0
1523618391694,-1900544,119,-56,-1,-1,0
1523618391694,-1835008,119,-56,-1,-1,0
1523618391694,-1966080,119,-56,-1,-1,0
1523618391694,-1900544,119,-56,-1,-1,0
1523618391733,-1638400,119,-56,-1,-1,0
1523618391733,-1507328,119,-56,-1,-1,0
1523618391733,-1572864,119,-56,-1,-1,0
1523618391733,-1507328,119,-56,-1,-1,0
1523618391733,-1179648,119,-56,-1,-1,0
1523618391773,-917504,119,-56,-1,-1,0
1523618391773,-589824,119,-56,-1,-1,0
1523618391773,-196608,119,-56,-1,-1,0
1523618391773,0,119,-56,-1,-1,0
1523618391773,0,119,-56,-1,-1,0
1523618391813,-131072,119,-56,-1,-1,0
1523618391813,-262144,119,-56,-1,-1,0
1523618391813,-196608,119,-56,-1,-1,0
1523618391813,-196608,119,-56,-1,-1,0
1523618391813,-262144,119,-56,-1,-1,0
1523618391853,-131072,119,-56,-1,-1,0
1523618391853,131072,119,-56,-1,-1,0
1523618391853,393216,119,-56,-1,-1,0
1523618391853,524288,119,-56,-1,-1,0
1523618391853,589824,119,-56,-1,-1,0
1523618391893,589824,119,-56,-1,-1,0
1523618391893,524288,119,-56,-1,-1,0
1523618391893,589824,119,-56,-1,-1,0
1523618391893,458752,119,-56,-1,-1,0
1523618391893,0,119,-56,-1,-1,0
1523618391935,-262144,119,-56,-1,-1,0
1523618391935,-458752,119,-56,-1,-1,0
1523618391935,-524288,119,-56,-1,-1,0
1523618391935,-524288,119,-56,-1,-1,0
1523618391935,-458752,119,-56,-1,-1,0
1523618391973,-589824,119,-56,-1,-1,0
1523618391973,-720896,119,-56,-1,-1,0
1523618391973,-851968,119,-56,-1,-1,0
1523618391973,-917504,119,-56,-1,-1,0
1523618391973,-1114112,119,-56,-1,-1,0
1523618392013,-1376256,119,-56,-1,-1,0
1523618392013,-1376256,119,-56,-1,-1,0
1523618392013,0,119,-56,-1,-1,0
1523618392013,4718592,119,-56,-1,-1,0
1523618392013,10289152,119,-56,-1,-1,0
1523618392053,10551296,119,-56,-1,-1,0
1523618392053,5570560,119,-56,-1,-1,0
1523618392053,983040,119,-56,-1,-1,0
1523618392053,-458752,119,-56,-1,-1,0
1523618392053,-786432,119,-56,-1,-1,0
1523618392093,-917504,119,-56,-1,-1,0
1523618392093,-917504,119,-56,-1,-1,0
1523618392093,-851968,119,-56,-1,-1,0
1523618392093,-720896,119,-56,-1,-1,0
1523618392093,-786432,119,-56,-1,-1,0
1523618392133,-1048576,119,-56,-1,-1,0
1523618392133,-1179648,119,-56,-1,-1,0
1523618392133,-1245184,119,-56,-1,-1,0
1523618392133,-1310720,119,-56,-1,-1,0
1523618392133,-1507328,119,-56,-1,-1,0
1523618392173,-1441792,119,-56,-1,-1,0
1523618392173,-1179648,119,-56,-1,-1,0
1523618392173,-1048576,119,-56,-1,-1,0
1523618392173,-1048576,119,-56,-1,-1,0
1523618392173,-983040,119,-56,-1,-1,0
1523618392213,-917504,119,-56,-1,-1,0
1523618392213,-851968,119,-56,-1,-1,0
1523618392213,-655360,119,-56,-1,-1,0
1523618392213,-196608,119,-56,-1,-1,0
1523618392213,0,119,-56,-1,-1,0
