milliseconds, ECG, ECG HR, PPG, PPG HR, SpO2, PI,Landmark_0,Landmark_1,Landmark_2,Landmark_3,Landmark_4,Landmark_5,Landmark_6,Landmark_7,Landmark_8,Landmark_9,Landmark_10,Landmark_11,Landmark_12,Landmark_13,Landmark_14,Landmark_15,Landmark_16,Landmark_17,Landmark_18,Landmark_19,Landmark_20,Landmark_21,Landmark_22,Landmark_23,Landmark_24,Landmark_25,Landmark_26,Landmark_27,Landmark_28,Landmark_29,Landmark_30,Landmark_31,Landmark_32,Landmark_33,Landmark_34,Landmark_35,Landmark_36,Landmark_37,Landmark_38,Landmark_39,Landmark_40,Landmark_41,Landmark_42,Landmark_43,Landmark_44,Landmark_45,Landmark_46,Landmark_47,Landmark_48,Landmark_49,Landmark_50,Landmark_51,Landmark_52,Landmark_53,Landmark_54,Landmark_55,Landmark_56,Landmark_57,Landmark_58,Landmark_59,Landmark_60,Landmark_61,Landmark_62,Landmark_63,Landmark_64,Landmark_65,Landmark_66,Landmark_67,EyeAspectRatio,MouthAspectRatio,LightIntensity,FaceWidthRatio,EyebrowHeight,LipsWidthRatio,LipsHeightRatio,EyeOpening,NoseWidthRatio,NoseHeightRatio,AvgRedForehead,AvgGreenForehead,AvgBlueForehead,AvgRedLips,AvgGreenLips,AvgBlueLips,AvgRedCheeks,AvgGreenCheeks,AvgBlueCheeks
0,-458752,86,-56,-1,-1,0,"(958, 368)","(956, 400)","(956, 431)","(960, 462)","(972, 492)","(988, 520)","(1008, 546)","(1031, 568)","(1058, 576)","(1088, 572)","(1116, 555)","(1141, 532)","(1161, 506)","(1174, 477)","(1180, 446)","(1183, 414)","(1184, 383)","(974, 350)","(989, 342)","(1009, 343)","(1029, 350)","(1047, 362)","(1080, 365)","(1100, 356)","(1122, 352)","(1143, 354)","(1159, 365)","(1061, 386)","(1058, 407)","(1056, 428)","(1053, 450)","(1033, 460)","(1043, 466)","(1056, 471)","(1068, 467)","(1081, 462)","(995, 378)","(1007, 373)","(1022, 374)","(1034, 384)","(1019, 387)","(1005, 386)","(1092, 388)","(1105, 380)","(1121, 381)","(1133, 388)","(1120, 394)","(1105, 393)","(1019, 497)","(1033, 494)","(1047, 493)","(1058, 496)","(1068, 493)","(1085, 496)","(1103, 502)","(1086, 521)","(1070, 528)","(1058, 528)","(1046, 526)","(1032, 516)","(1026, 499)","(1046, 501)","(1057, 503)","(1068, 502)","(1095, 502)","(1069, 512)","(1058, 513)","(1047, 510)",0.31,0.97,28.0,0.35,0.08,0.37,0.03,-14.0,0.08,0.33,20.0,32.0,68.5,21.75,33.2,79.35,17.35,25.94,44.64
33,-131072,86,-56,-1,-1,0,"(1101, 278)","(1101, 299)","(1102, 319)","(1106, 338)","(1112, 358)","(1122, 377)","(1134, 394)","(1149, 408)","(1168, 413)","(1189, 411)","(1211, 401)","(1230, 388)","(1246, 370)","(1256, 349)","(1260, 326)","(1262, 303)","(1263, 279)","(1107, 270)","(1116, 264)","(1129, 263)","(1142, 267)","(1155, 274)","(1182, 274)","(1197, 267)","(1212, 263)","(1228, 263)","(1241, 270)","(1168, 290)","(1167, 304)","(1165, 318)","(1164, 332)","(1152, 339)","(1159, 343)","(1166, 345)","(1175, 343)","(1184, 340)","(1124, 288)","(1133, 285)","(1143, 285)","(1152, 290)","(1142, 293)","(1132, 293)","(1192, 290)","(1202, 285)","(1212, 285)","(1222, 288)","(1213, 292)","(1202, 293)","(1142, 362)","(1151, 360)","(1161, 360)","(1168, 362)","(1176, 360)","(1188, 361)","(1203, 363)","(1189, 375)","(1177, 379)","(1169, 380)","(1161, 378)","(1151, 373)","(1148, 363)","(1161, 365)","(1168, 366)","(1176, 366)","(1197, 364)","(1176, 370)","(1168, 370)","(1161, 369)",0.25,1.0,34.0,0.35,0.0,0.37,0.03,-7.5,0.09,0.34,20.4,33.3,74.2,15.15,26.85,73.35,13.58,24.0,49.47
66,393216,86,-56,-1,-1,0,"(1081, 294)","(1080, 317)","(1081, 339)","(1084, 361)","(1092, 382)","(1103, 402)","(1119, 420)","(1137, 434)","(1159, 438)","(1182, 435)","(1204, 423)","(1223, 407)","(1237, 387)","(1247, 365)","(1251, 341)","(1253, 318)","(1254, 294)","(1093, 281)","(1103, 273)","(1117, 271)","(1131, 275)","(1145, 281)","(1172, 281)","(1187, 273)","(1203, 269)","(1219, 271)","(1232, 279)","(1158, 297)","(1157, 313)","(1156, 328)","(1154, 344)","(1140, 351)","(1148, 356)","(1156, 359)","(1166, 356)","(1174, 351)","(1111, 297)","(1120, 292)","(1130, 292)","(1139, 297)","(1129, 300)","(1120, 300)","(1183, 297)","(1193, 291)","(1203, 291)","(1212, 295)","(1204, 299)","(1193, 299)","(1126, 377)","(1137, 375)","(1148, 374)","(1156, 376)","(1165, 374)","(1178, 373)","(1194, 375)","(1180, 387)","(1168, 393)","(1158, 394)","(1149, 393)","(1137, 388)","(1131, 378)","(1148, 379)","(1156, 380)","(1166, 379)","(1188, 377)","(1167, 384)","(1158, 385)","(1149, 384)",0.27,0.96,34.0,0.32,-0.01,0.39,0.02,-8.0,0.09,0.33,18.4,31.0,71.0,15.9,27.45,75.4,16.23,27.23,53.64
100,1638400,86,-56,-1,-1,0,"(1070, 310)","(1070, 333)","(1072, 356)","(1076, 379)","(1083, 402)","(1095, 423)","(1109, 442)","(1128, 457)","(1151, 461)","(1176, 458)","(1199, 446)","(1219, 428)","(1234, 407)","(1244, 383)","(1248, 357)","(1250, 332)","(1250, 306)","(1081, 291)","(1090, 283)","(1104, 281)","(1118, 284)","(1132, 291)","(1160, 290)","(1175, 282)","(1192, 278)","(1209, 280)","(1223, 289)","(1145, 307)","(1144, 323)","(1143, 338)","(1141, 354)","(1129, 364)","(1136, 369)","(1145, 371)","(1154, 368)","(1163, 364)","(1099, 308)","(1107, 303)","(1118, 303)","(1128, 309)","(1118, 312)","(1107, 312)","(1171, 308)","(1181, 301)","(1192, 301)","(1202, 306)","(1193, 310)","(1182, 310)","(1118, 395)","(1127, 390)","(1138, 388)","(1147, 390)","(1156, 388)","(1169, 389)","(1185, 393)","(1172, 406)","(1158, 412)","(1149, 413)","(1140, 412)","(1129, 407)","(1124, 395)","(1139, 394)","(1147, 395)","(1156, 394)","(1179, 394)","(1157, 402)","(1148, 403)","(1140, 402)",0.29,1.0,34.0,0.33,-0.0,0.37,0.03,-9.0,0.1,0.3,18.7,33.2,72.5,17.25,28.8,75.5,15.64,26.05,50.94
366,-655360,86,-56,-1,-1,0,"(887, 450)","(884, 484)","(883, 518)","(887, 551)","(899, 583)","(917, 613)","(942, 639)","(971, 660)","(1005, 668)","(1039, 667)","(1072, 650)","(1101, 627)","(1122, 599)","(1136, 567)","(1143, 535)","(1145, 502)","(1146, 470)","(918, 433)","(936, 423)","(959, 422)","(982, 430)","(1003, 443)","(1044, 447)","(1065, 437)","(1088, 433)","(1110, 437)","(1125, 448)","(1022, 470)","(1020, 491)","(1017, 511)","(1015, 533)","(991, 546)","(1002, 553)","(1015, 558)","(1029, 556)","(1042, 551)","(944, 462)","(958, 456)","(975, 457)","(989, 468)","(973, 471)","(957, 469)","(1053, 473)","(1069, 466)","(1085, 467)","(1098, 475)","(1085, 481)","(1068, 479)","(968, 585)","(986, 581)","(1004, 581)","(1015, 585)","(1027, 583)","(1045, 586)","(1063, 594)","(1044, 608)","(1026, 612)","(1013, 612)","(1000, 609)","(984, 600)","(977, 586)","(1003, 591)","(1014, 593)","(1026, 593)","(1054, 594)","(1026, 597)","(1014, 597)","(1002, 594)",0.3,0.87,34.0,0.34,0.06,0.36,0.02,-15.0,0.07,0.31,22.9,36.5,75.3,19.15,30.25,77.6,23.23,34.0,56.41
400,-262144,86,-56,-1,-1,0,"(886, 449)","(881, 484)","(879, 518)","(881, 552)","(891, 585)","(908, 618)","(929, 648)","(954, 675)","(987, 686)","(1022, 687)","(1057, 670)","(1088, 646)","(1115, 617)","(1134, 584)","(1144, 548)","(1149, 511)","(1152, 474)","(912, 439)","(931, 431)","(955, 434)","(977, 443)","(997, 456)","(1037, 460)","(1060, 451)","(1084, 447)","(1108, 449)","(1125, 461)","(1013, 484)","(1010, 510)","(1006, 536)","(1002, 563)","(975, 566)","(987, 575)","(1002, 583)","(1017, 579)","(1032, 574)","(937, 471)","(952, 469)","(967, 470)","(980, 479)","(965, 482)","(950, 479)","(1050, 487)","(1065, 481)","(1081, 482)","(1095, 488)","(1081, 494)","(1065, 493)","(953, 597)","(971, 600)","(987, 604)","(1000, 609)","(1014, 607)","(1033, 610)","(1054, 613)","(1030, 630)","(1010, 635)","(995, 635)","(980, 631)","(966, 618)","(961, 601)","(986, 612)","(999, 616)","(1013, 616)","(1045, 614)","(1011, 619)","(997, 619)","(983, 615)",0.26,0.89,34.0,0.33,0.1,0.37,0.02,-13.0,0.07,0.39,19.6,33.0,70.6,18.65,29.9,78.25,22.58,33.76,55.17
433,-589824,86,-56,-1,-1,0,"(896, 453)","(892, 488)","(891, 523)","(895, 556)","(904, 589)","(920, 621)","(940, 650)","(965, 674)","(996, 684)","(1031, 683)","(1066, 668)","(1097, 644)","(1123, 616)","(1141, 582)","(1149, 547)","(1155, 509)","(1158, 472)","(911, 443)","(928, 435)","(951, 438)","(972, 447)","(993, 459)","(1031, 462)","(1055, 453)","(1080, 448)","(1105, 450)","(1124, 462)","(1010, 485)","(1006, 512)","(1002, 538)","(998, 565)","(975, 568)","(987, 577)","(1000, 584)","(1016, 581)","(1031, 576)","(938, 473)","(951, 469)","(967, 471)","(981, 481)","(965, 484)","(950, 481)","(1047, 487)","(1063, 480)","(1080, 481)","(1095, 488)","(1080, 495)","(1063, 494)","(961, 601)","(976, 605)","(990, 607)","(1002, 612)","(1014, 610)","(1033, 612)","(1056, 615)","(1033, 629)","(1013, 633)","(999, 633)","(986, 629)","(973, 618)","(969, 604)","(989, 615)","(1001, 619)","(1014, 619)","(1047, 616)","(1013, 618)","(1000, 617)","(988, 613)",0.29,0.98,34.0,0.34,0.09,0.36,0.01,-15.0,0.08,0.4,12.0,21.5,54.8,16.65,25.2,71.9,21.64,31.64,54.0
466,-655360,86,-56,-1,-1,0,"(886, 443)","(880, 480)","(877, 517)","(878, 554)","(886, 590)","(902, 626)","(922, 660)","(948, 689)","(983, 699)","(1022, 700)","(1059, 681)","(1091, 654)","(1119, 624)","(1138, 589)","(1149, 551)","(1156, 513)","(1161, 475)","(911, 436)","(930, 425)","(955, 426)","(979, 436)","(1001, 449)","(1040, 453)","(1065, 444)","(1091, 440)","(1116, 443)","(1133, 458)","(1016, 477)","(1012, 505)","(1008, 532)","(1003, 561)","(973, 564)","(986, 573)","(1002, 581)","(1020, 577)","(1036, 571)","(937, 465)","(953, 461)","(969, 463)","(983, 473)","(967, 476)","(950, 473)","(1053, 481)","(1070, 474)","(1088, 476)","(1101, 483)","(1087, 489)","(1069, 487)","(944, 597)","(964, 599)","(983, 601)","(999, 606)","(1015, 604)","(1036, 606)","(1058, 610)","(1033, 633)","(1010, 642)","(992, 642)","(975, 638)","(958, 624)","(952, 601)","(982, 610)","(997, 614)","(1014, 614)","(1049, 612)","(1012, 623)","(995, 624)","(979, 620)",0.27,0.88,34.0,0.34,0.09,0.41,0.03,-15.0,0.07,0.37,20.7,32.5,68.1,20.2,31.95,75.65,26.88,37.58,62.82
500,5308416,87,-56,-1,-1,0,"(883, 436)","(880, 474)","(880, 511)","(885, 547)","(898, 580)","(919, 610)","(945, 636)","(977, 656)","(1011, 665)","(1046, 662)","(1079, 645)","(1108, 621)","(1129, 592)","(1144, 559)","(1151, 525)","(1154, 490)","(1155, 456)","(914, 417)","(934, 406)","(959, 406)","(983, 413)","(1006, 427)","(1048, 431)","(1072, 422)","(1095, 418)","(1119, 422)","(1135, 434)","(1026, 455)","(1023, 479)","(1021, 501)","(1019, 526)","(990, 537)","(1004, 545)","(1019, 551)","(1034, 548)","(1048, 542)","(941, 446)","(956, 440)","(974, 442)","(988, 453)","(972, 456)","(954, 455)","(1059, 459)","(1076, 450)","(1093, 452)","(1107, 459)","(1093, 466)","(1075, 465)","(966, 578)","(987, 575)","(1005, 575)","(1018, 579)","(1031, 577)","(1049, 580)","(1069, 586)","(1049, 601)","(1031, 605)","(1017, 606)","(1003, 603)","(985, 594)","(975, 580)","(1004, 584)","(1018, 587)","(1031, 587)","(1060, 587)","(1031, 590)","(1018, 590)","(1004, 587)",0.3,0.83,34.0,0.35,0.07,0.37,0.02,-16.0,0.08,0.33,24.4,38.7,81.2,16.95,27.55,72.15,22.94,34.23,56.88
800,-524288,87,-56,-1,-1,0,"(1088, 250)","(1086, 273)","(1087, 295)","(1091, 318)","(1100, 339)","(1112, 358)","(1127, 376)","(1145, 390)","(1165, 395)","(1188, 393)","(1209, 383)","(1229, 369)","(1244, 351)","(1256, 330)","(1262, 307)","(1265, 283)","(1267, 259)","(1101, 230)","(1113, 221)","(1129, 219)","(1145, 222)","(1160, 231)","(1188, 233)","(1204, 227)","(1221, 225)","(1237, 228)","(1249, 238)","(1172, 251)","(1170, 265)","(1169, 280)","(1168, 295)","(1150, 305)","(1158, 309)","(1168, 313)","(1178, 310)","(1188, 307)","(1118, 248)","(1128, 245)","(1139, 245)","(1150, 252)","(1138, 254)","(1127, 253)","(1196, 254)","(1207, 249)","(1218, 250)","(1228, 254)","(1218, 258)","(1207, 257)","(1134, 334)","(1147, 329)","(1159, 327)","(1168, 329)","(1177, 327)","(1191, 331)","(1205, 338)","(1191, 351)","(1178, 356)","(1167, 356)","(1158, 355)","(1146, 348)","(1141, 335)","(1159, 334)","(1168, 335)","(1177, 335)","(1199, 338)","(1178, 344)","(1168, 345)","(1159, 343)",0.25,0.91,34.0,0.35,0.04,0.39,0.04,-9.0,0.08,0.3,17.1,29.9,66.2,18.15,30.1,75.0,9.05,17.7,38.82
833,-524288,87,-56,-1,-1,0,"(1106, 237)","(1103, 259)","(1102, 281)","(1105, 303)","(1113, 324)","(1124, 343)","(1138, 361)","(1154, 376)","(1173, 382)","(1195, 381)","(1217, 371)","(1237, 357)","(1254, 339)","(1266, 318)","(1273, 295)","(1277, 271)","(1279, 246)","(1118, 219)","(1127, 210)","(1142, 208)","(1158, 212)","(1172, 221)","(1199, 223)","(1215, 216)","(1232, 214)","(1249, 218)","(1260, 228)","(1183, 241)","(1181, 256)","(1179, 270)","(1177, 285)","(1160, 294)","(1168, 299)","(1177, 302)","(1187, 300)","(1197, 297)","(1133, 237)","(1142, 233)","(1153, 234)","(1164, 241)","(1152, 243)","(1141, 242)","(1207, 245)","(1218, 239)","(1229, 240)","(1239, 245)","(1229, 249)","(1218, 248)","(1147, 323)","(1158, 318)","(1169, 317)","(1177, 319)","(1186, 318)","(1200, 321)","(1213, 328)","(1199, 341)","(1185, 345)","(1176, 346)","(1166, 344)","(1156, 337)","(1152, 324)","(1168, 324)","(1177, 325)","(1186, 325)","(1207, 328)","(1186, 334)","(1177, 334)","(1168, 333)",0.28,0.97,34.0,0.36,0.05,0.38,0.04,-10.0,0.08,0.31,19.1,33.7,73.5,18.15,30.6,75.5,10.29,19.0,41.82
866,-524288,87,-56,-1,-1,0,"(1111, 240)","(1110, 262)","(1112, 284)","(1117, 305)","(1125, 325)","(1137, 343)","(1152, 358)","(1168, 370)","(1187, 374)","(1207, 371)","(1225, 361)","(1242, 347)","(1255, 330)","(1264, 311)","(1269, 290)","(1271, 268)","(1271, 246)","(1125, 223)","(1135, 214)","(1150, 211)","(1166, 214)","(1180, 221)","(1203, 223)","(1217, 217)","(1232, 215)","(1247, 218)","(1257, 227)","(1190, 238)","(1189, 252)","(1188, 265)","(1187, 279)","(1171, 289)","(1179, 293)","(1188, 295)","(1197, 293)","(1205, 290)","(1141, 239)","(1150, 235)","(1160, 235)","(1170, 240)","(1160, 242)","(1150, 243)","(1211, 242)","(1221, 237)","(1231, 238)","(1239, 242)","(1230, 245)","(1221, 244)","(1158, 319)","(1169, 314)","(1180, 311)","(1188, 313)","(1196, 312)","(1208, 314)","(1220, 320)","(1209, 332)","(1197, 336)","(1188, 337)","(1179, 336)","(1169, 331)","(1163, 320)","(1180, 318)","(1188, 318)","(1196, 318)","(1215, 320)","(1197, 326)","(1188, 327)","(1180, 326)",0.25,0.9,34.0,0.35,0.01,0.38,0.04,-7.5,0.09,0.3,17.7,30.4,67.4,17.15,28.2,73.65,7.29,15.41,35.35
900,-524288,87,-56,-1,-1,0,"(1125, 237)","(1125, 258)","(1127, 279)","(1131, 299)","(1139, 319)","(1149, 336)","(1163, 352)","(1178, 364)","(1197, 368)","(1216, 365)","(1235, 354)","(1251, 340)","(1265, 324)","(1274, 304)","(1279, 283)","(1282, 262)","(1283, 240)","(1138, 222)","(1147, 213)","(1161, 210)","(1175, 212)","(1188, 218)","(1211, 220)","(1225, 214)","(1240, 212)","(1254, 215)","(1265, 224)","(1198, 234)","(1197, 248)","(1196, 260)","(1195, 274)","(1180, 284)","(1187, 287)","(1196, 290)","(1205, 287)","(1214, 284)","(1153, 236)","(1161, 232)","(1171, 232)","(1180, 237)","(1170, 239)","(1161, 239)","(1220, 238)","(1229, 233)","(1239, 234)","(1247, 238)","(1238, 241)","(1229, 240)","(1167, 313)","(1177, 308)","(1188, 305)","(1196, 306)","(1204, 304)","(1216, 307)","(1228, 313)","(1217, 326)","(1205, 331)","(1196, 332)","(1187, 331)","(1177, 326)","(1172, 314)","(1188, 311)","(1196, 311)","(1204, 311)","(1222, 314)","(1205, 321)","(1197, 322)","(1188, 321)",0.26,0.91,34.0,0.34,-0.0,0.38,0.05,-7.5,0.1,0.29,19.4,32.6,70.3,15.9,27.25,71.65,9.23,17.17,40.23
933,-589824,87,-56,-1,-1,0,"(1139, 236)","(1138, 256)","(1139, 276)","(1142, 296)","(1149, 315)","(1159, 333)","(1172, 347)","(1186, 360)","(1204, 364)","(1224, 361)","(1243, 351)","(1260, 337)","(1274, 321)","(1284, 302)","(1290, 282)","(1292, 261)","(1294, 240)","(1150, 220)","(1159, 212)","(1172, 211)","(1185, 214)","(1197, 220)","(1221, 221)","(1235, 215)","(1249, 212)","(1264, 215)","(1275, 223)","(1208, 236)","(1207, 249)","(1205, 262)","(1204, 276)","(1190, 285)","(1197, 288)","(1205, 291)","(1213, 289)","(1222, 285)","(1164, 235)","(1171, 230)","(1181, 231)","(1190, 237)","(1180, 239)","(1170, 239)","(1230, 238)","(1239, 232)","(1249, 233)","(1258, 237)","(1249, 241)","(1239, 240)","(1177, 312)","(1187, 307)","(1198, 305)","(1205, 307)","(1213, 305)","(1225, 307)","(1237, 313)","(1225, 325)","(1213, 330)","(1205, 330)","(1196, 330)","(1186, 324)","(1182, 313)","(1197, 311)","(1205, 312)","(1213, 311)","(1232, 313)","(1213, 319)","(1205, 320)","(1197, 319)",0.28,0.92,34.0,0.34,0.01,0.38,0.04,-9.0,0.09,0.31,18.4,31.9,71.0,14.95,24.45,68.6,11.35,19.88,42.52
966,-720896,87,-56,-1,-1,0,"(1143, 238)","(1143, 258)","(1144, 277)","(1147, 297)","(1153, 316)","(1163, 333)","(1176, 346)","(1191, 359)","(1208, 363)","(1227, 360)","(1245, 350)","(1262, 338)","(1275, 322)","(1285, 304)","(1291, 284)","(1294, 264)","(1296, 243)","(1154, 223)","(1163, 215)","(1176, 213)","(1189, 216)","(1202, 223)","(1226, 225)","(1239, 219)","(1253, 216)","(1268, 219)","(1278, 226)","(1212, 239)","(1211, 253)","(1210, 266)","(1208, 280)","(1195, 288)","(1201, 292)","(1209, 295)","(1218, 292)","(1225, 289)","(1168, 237)","(1176, 233)","(1186, 233)","(1195, 240)","(1185, 242)","(1175, 242)","(1234, 241)","(1243, 235)","(1253, 236)","(1261, 241)","(1253, 245)","(1243, 244)","(1182, 313)","(1192, 309)","(1203, 308)","(1210, 309)","(1217, 308)","(1228, 310)","(1240, 315)","(1228, 326)","(1217, 330)","(1209, 331)","(1201, 330)","(1192, 325)","(1187, 314)","(1202, 313)","(1210, 314)","(1217, 313)","(1235, 315)","(1217, 321)","(1210, 321)","(1202, 321)",0.33,0.9,34.0,0.35,0.0,0.37,0.03,-9.5,0.08,0.33,18.0,31.5,67.2,18.2,29.25,73.55,9.41,17.94,36.88
1000,-262144,87,-56,-1,-1,0,"(1148, 245)","(1147, 265)","(1148, 284)","(1149, 304)","(1155, 322)","(1165, 338)","(1178, 351)","(1193, 362)","(1211, 366)","(1230, 364)","(1248, 354)","(1264, 342)","(1277, 326)","(1287, 308)","(1292, 289)","(1294, 269)","(1296, 248)","(1157, 229)","(1166, 221)","(1179, 219)","(1193, 222)","(1205, 228)","(1229, 230)","(1242, 224)","(1256, 222)","(1270, 224)","(1280, 233)","(1215, 245)","(1214, 259)","(1213, 272)","(1212, 286)","(1198, 293)","(1205, 297)","(1213, 300)","(1221, 297)","(1229, 294)","(1171, 244)","(1180, 239)","(1190, 240)","(1198, 246)","(1189, 249)","(1178, 249)","(1236, 248)","(1245, 242)","(1255, 242)","(1263, 247)","(1255, 252)","(1245, 251)","(1186, 317)","(1196, 314)","(1206, 312)","(1213, 314)","(1221, 313)","(1232, 315)","(1243, 319)","(1232, 330)","(1221, 333)","(1212, 334)","(1205, 333)","(1195, 329)","(1191, 318)","(1206, 317)","(1213, 318)","(1220, 318)","(1238, 319)","(1221, 325)","(1213, 325)","(1205, 324)",0.35,0.9,34.0,0.36,0.01,0.38,0.04,-10.0,0.09,0.33,17.3,30.9,67.7,17.15,29.0,71.45,9.76,18.23,37.47
1033,-720896,87,-56,-1,-1,0,"(1158, 253)","(1157, 271)","(1158, 289)","(1160, 308)","(1166, 325)","(1175, 341)","(1187, 354)","(1201, 365)","(1218, 369)","(1236, 366)","(1252, 356)","(1267, 344)","(1279, 330)","(1287, 313)","(1290, 294)","(1293, 276)","(1293, 257)","(1169, 243)","(1177, 235)","(1189, 233)","(1201, 236)","(1213, 242)","(1233, 242)","(1245, 236)","(1258, 234)","(1271, 236)","(1280, 244)","(1222, 256)","(1221, 269)","(1220, 281)","(1219, 294)","(1206, 300)","(1212, 304)","(1219, 306)","(1227, 304)","(1235, 301)","(1182, 254)","(1190, 249)","(1200, 250)","(1208, 257)","(1199, 260)","(1189, 259)","(1239, 258)","(1248, 251)","(1258, 250)","(1265, 256)","(1258, 261)","(1248, 261)","(1194, 323)","(1203, 320)","(1213, 318)","(1220, 320)","(1226, 319)","(1237, 320)","(1248, 324)","(1238, 336)","(1227, 340)","(1220, 341)","(1212, 340)","(1203, 335)","(1199, 324)","(1213, 324)","(1220, 325)","(1227, 324)","(1243, 325)","(1227, 331)","(1220, 331)","(1213, 330)",0.4,0.94,34.0,0.38,0.0,0.4,0.04,-10.5,0.09,0.33,14.8,27.5,62.6,16.65,27.45,70.45,14.52,24.94,49.76
1066,-786432,87,-56,-1,-1,0,"(1149, 260)","(1148, 280)","(1148, 301)","(1149, 321)","(1155, 341)","(1166, 357)","(1182, 370)","(1199, 380)","(1218, 383)","(1238, 380)","(1256, 370)","(1272, 357)","(1283, 342)","(1291, 323)","(1295, 304)","(1297, 285)","(1298, 265)","(1163, 248)","(1172, 240)","(1185, 237)","(1199, 239)","(1212, 246)","(1237, 246)","(1250, 240)","(1264, 239)","(1277, 242)","(1286, 251)","(1224, 262)","(1223, 274)","(1222, 285)","(1222, 298)","(1207, 307)","(1214, 311)","(1222, 313)","(1230, 311)","(1237, 308)","(1178, 261)","(1187, 256)","(1197, 256)","(1206, 263)","(1196, 266)","(1186, 265)","(1242, 264)","(1251, 258)","(1261, 258)","(1269, 263)","(1261, 267)","(1252, 267)","(1192, 331)","(1204, 327)","(1215, 325)","(1222, 327)","(1230, 326)","(1241, 327)","(1252, 332)","(1241, 342)","(1230, 346)","(1222, 347)","(1214, 346)","(1203, 342)","(1197, 331)","(1215, 331)","(1222, 331)","(1230, 331)","(1247, 332)","(1230, 338)","(1222, 339)","(1214, 338)",0.33,0.83,34.0,0.36,0.03,0.4,0.04,-9.5,0.08,0.29,18.2,31.7,72.8,17.75,28.15,71.25,13.82,23.58,44.82
1100,2293760,87,-56,-1,-1,0,"(1159, 272)","(1159, 290)","(1159, 308)","(1162, 326)","(1168, 343)","(1178, 357)","(1190, 370)","(1205, 379)","(1222, 382)","(1239, 380)","(1255, 371)","(1268, 359)","(1279, 344)","(1286, 328)","(1290, 310)","(1291, 293)","(1292, 275)","(1172, 261)","(1180, 254)","(1192, 253)","(1205, 255)","(1216, 261)","(1237, 261)","(1248, 256)","(1260, 253)","(1272, 255)","(1281, 262)","(1225, 274)","(1225, 287)","(1224, 299)","(1223, 312)","(1210, 318)","(1216, 321)","(1224, 324)","(1231, 321)","(1238, 318)","(1185, 273)","(1193, 269)","(1202, 269)","(1209, 275)","(1201, 277)","(1192, 277)","(1243, 276)","(1251, 270)","(1260, 270)","(1266, 274)","(1260, 278)","(1251, 278)","(1199, 338)","(1208, 336)","(1217, 335)","(1224, 337)","(1231, 336)","(1241, 337)","(1251, 339)","(1241, 349)","(1231, 353)","(1224, 353)","(1217, 352)","(1208, 348)","(1203, 339)","(1217, 340)","(1224, 341)","(1231, 340)","(1247, 340)","(1231, 345)","(1224, 345)","(1217, 344)",0.34,0.9,34.0,0.35,0.01,0.39,0.03,-8.0,0.09,0.35,15.2,27.6,66.7,16.3,27.3,69.7,14.35,24.52,50.0
1133,-1572864,87,-56,-1,-1,0,"(1162, 278)","(1161, 296)","(1162, 313)","(1164, 330)","(1170, 346)","(1179, 361)","(1191, 374)","(1205, 384)","(1221, 387)","(1238, 385)","(1254, 377)","(1268, 365)","(1279, 351)","(1286, 334)","(1290, 317)","(1291, 300)","(1292, 283)","(1173, 266)","(1181, 260)","(1192, 259)","(1204, 262)","(1215, 268)","(1237, 269)","(1249, 263)","(1261, 261)","(1273, 263)","(1281, 270)","(1225, 282)","(1225, 293)","(1224, 305)","(1223, 317)","(1210, 323)","(1216, 327)","(1223, 329)","(1230, 327)","(1237, 324)","(1186, 279)","(1193, 275)","(1202, 275)","(1210, 282)","(1201, 284)","(1192, 283)","(1242, 283)","(1251, 277)","(1260, 277)","(1267, 282)","(1260, 286)","(1251, 286)","(1199, 344)","(1208, 341)","(1217, 340)","(1223, 342)","(1230, 341)","(1240, 342)","(1250, 346)","(1240, 355)","(1230, 359)","(1223, 359)","(1216, 358)","(1207, 354)","(1203, 345)","(1217, 345)","(1223, 346)","(1230, 346)","(1245, 346)","(1230, 351)","(1224, 351)","(1217, 350)",0.35,0.91,34.0,0.37,0.03,0.39,0.03,-9.0,0.09,0.33,17.4,30.4,69.0,16.2,26.5,68.95,14.88,26.41,51.88
1166,-786432,87,-56,-1,-1,0,"(1161, 281)","(1160, 299)","(1160, 316)","(1162, 333)","(1167, 351)","(1176, 366)","(1188, 380)","(1201, 391)","(1218, 394)","(1235, 392)","(1251, 382)","(1265, 370)","(1277, 356)","(1285, 340)","(1288, 322)","(1290, 304)","(1291, 286)","(1173, 274)","(1181, 268)","(1193, 267)","(1205, 271)","(1216, 276)","(1236, 277)","(1247, 271)","(1259, 269)","(1271, 270)","(1279, 276)","(1225, 288)","(1224, 301)","(1223, 314)","(1222, 327)","(1208, 331)","(1215, 335)","(1222, 338)","(1229, 335)","(1236, 332)","(1186, 286)","(1193, 283)","(1201, 283)","(1209, 288)","(1200, 290)","(1192, 290)","(1242, 289)","(1250, 284)","(1258, 284)","(1265, 288)","(1258, 291)","(1250, 291)","(1197, 349)","(1207, 349)","(1215, 349)","(1222, 351)","(1229, 350)","(1238, 350)","(1248, 351)","(1238, 360)","(1228, 364)","(1221, 364)","(1214, 363)","(1206, 358)","(1202, 350)","(1215, 354)","(1222, 355)","(1229, 354)","(1244, 352)","(1228, 356)","(1221, 356)","(1215, 355)",0.3,0.85,34.0,0.35,0.01,0.39,0.01,-7.0,0.08,0.36,14.8,26.2,62.5,12.9,22.25,64.0,15.64,26.35,51.88
1200,-524288,87,-56,-1,-1,0,"(1165, 281)","(1164, 298)","(1164, 315)","(1166, 332)","(1172, 349)","(1181, 363)","(1192, 376)","(1205, 387)","(1221, 390)","(1237, 388)","(1253, 379)","(1267, 368)","(1278, 354)","(1286, 338)","(1289, 320)","(1291, 302)","(1292, 284)","(1174, 275)","(1182, 269)","(1193, 269)","(1205, 272)","(1215, 277)","(1235, 277)","(1246, 272)","(1258, 269)","(1270, 270)","(1279, 276)","(1224, 289)","(1223, 302)","(1222, 315)","(1221, 328)","(1209, 332)","(1215, 335)","(1222, 338)","(1229, 336)","(1236, 332)","(1186, 287)","(1193, 284)","(1201, 284)","(1209, 289)","(1201, 291)","(1193, 290)","(1242, 289)","(1250, 284)","(1258, 284)","(1265, 287)","(1258, 291)","(1250, 291)","(1199, 349)","(1208, 349)","(1216, 349)","(1222, 351)","(1229, 350)","(1238, 350)","(1249, 351)","(1239, 360)","(1229, 364)","(1222, 364)","(1215, 363)","(1208, 359)","(1204, 351)","(1216, 354)","(1222, 355)","(1229, 354)","(1245, 352)","(1229, 356)","(1222, 356)","(1216, 355)",0.3,0.91,34.0,0.36,0.01,0.39,0.01,-7.0,0.09,0.38,14.7,26.2,62.6,12.0,21.2,61.35,13.05,23.35,49.76
1233,-196608,87,-56,-1,-1,0,"(1163, 282)","(1163, 299)","(1163, 316)","(1165, 332)","(1170, 349)","(1178, 363)","(1190, 376)","(1203, 386)","(1219, 389)","(1235, 387)","(1251, 379)","(1265, 367)","(1276, 354)","(1283, 338)","(1287, 321)","(1289, 303)","(1290, 286)","(1172, 273)","(1180, 267)","(1192, 267)","(1203, 270)","(1213, 276)","(1233, 276)","(1244, 271)","(1256, 268)","(1269, 269)","(1278, 275)","(1222, 288)","(1221, 301)","(1220, 313)","(1219, 326)","(1207, 330)","(1213, 334)","(1219, 336)","(1227, 334)","(1234, 331)","(1185, 286)","(1192, 282)","(1200, 283)","(1207, 288)","(1199, 290)","(1191, 289)","(1240, 289)","(1247, 284)","(1256, 283)","(1263, 287)","(1256, 291)","(1248, 291)","(1197, 349)","(1206, 348)","(1214, 348)","(1220, 349)","(1226, 348)","(1235, 349)","(1246, 350)","(1236, 359)","(1227, 363)","(1220, 363)","(1213, 362)","(1206, 358)","(1202, 350)","(1214, 352)","(1220, 353)","(1226, 352)","(1242, 351)","(1227, 355)","(1220, 355)","(1214, 354)",0.32,0.9,34.0,0.35,0.02,0.38,0.02,-7.5,0.09,0.37,14.8,26.2,60.4,13.95,22.7,65.4,13.29,23.82,50.76
1266,589824,87,-56,-1,-1,0,"(1160, 285)","(1159, 302)","(1160, 319)","(1162, 335)","(1167, 351)","(1176, 366)","(1188, 378)","(1201, 387)","(1217, 390)","(1233, 388)","(1249, 380)","(1263, 369)","(1275, 356)","(1282, 340)","(1286, 323)","(1288, 306)","(1289, 288)","(1168, 274)","(1177, 268)","(1188, 267)","(1199, 270)","(1210, 275)","(1230, 275)","(1242, 270)","(1254, 268)","(1267, 269)","(1276, 275)","(1219, 288)","(1218, 299)","(1217, 311)","(1216, 323)","(1205, 329)","(1211, 332)","(1217, 335)","(1224, 333)","(1231, 330)","(1181, 286)","(1188, 282)","(1197, 282)","(1204, 288)","(1196, 290)","(1188, 289)","(1238, 289)","(1245, 283)","(1254, 283)","(1261, 287)","(1254, 291)","(1246, 291)","(1195, 350)","(1203, 347)","(1211, 346)","(1217, 348)","(1224, 346)","(1233, 348)","(1244, 351)","(1234, 360)","(1224, 364)","(1217, 364)","(1211, 363)","(1203, 359)","(1199, 351)","(1211, 351)","(1217, 352)","(1224, 352)","(1240, 352)","(1224, 355)","(1218, 356)","(1211, 355)",0.34,0.94,34.0,0.35,0.01,0.37,0.03,-8.0,0.09,0.34,15.3,27.3,63.3,13.55,22.85,64.2,13.35,23.94,50.82
1300,1572864,87,-56,-1,-1,0,"(1147, 280)","(1147, 299)","(1147, 317)","(1150, 334)","(1156, 351)","(1165, 366)","(1178, 379)","(1192, 390)","(1209, 393)","(1226, 391)","(1242, 382)","(1256, 369)","(1267, 355)","(1275, 338)","(1279, 321)","(1281, 303)","(1282, 285)","(1160, 271)","(1169, 265)","(1181, 264)","(1193, 268)","(1205, 273)","(1226, 274)","(1237, 269)","(1249, 266)","(1261, 267)","(1270, 274)","(1215, 286)","(1214, 298)","(1213, 310)","(1213, 323)","(1199, 329)","(1206, 332)","(1213, 335)","(1220, 333)","(1227, 330)","(1174, 284)","(1182, 280)","(1191, 280)","(1198, 286)","(1190, 288)","(1181, 287)","(1232, 287)","(1240, 282)","(1249, 282)","(1256, 286)","(1249, 289)","(1241, 289)","(1187, 349)","(1197, 348)","(1206, 347)","(1213, 349)","(1220, 348)","(1229, 349)","(1239, 350)","(1229, 360)","(1220, 364)","(1212, 364)","(1205, 363)","(1196, 358)","(1191, 350)","(1206, 352)","(1213, 353)","(1220, 352)","(1235, 351)","(1220, 355)","(1213, 356)","(1206, 355)",0.29,0.84,34.0,0.35,0.02,0.38,0.02,-7.5,0.08,0.34,16.1,29.8,67.8,12.95,23.4,65.7,14.23,24.35,49.58
1333,786432,87,-56,-1,-1,0,"(1142, 267)","(1142, 287)","(1143, 307)","(1144, 326)","(1149, 346)","(1158, 365)","(1170, 382)","(1185, 397)","(1204, 401)","(1224, 399)","(1243, 389)","(1258, 374)","(1271, 357)","(1279, 337)","(1283, 317)","(1285, 297)","(1287, 277)","(1152, 262)","(1161, 256)","(1174, 255)","(1186, 259)","(1198, 265)","(1224, 266)","(1236, 260)","(1250, 258)","(1263, 260)","(1273, 267)","(1210, 280)","(1209, 294)","(1208, 308)","(1206, 322)","(1193, 326)","(1199, 330)","(1207, 334)","(1215, 331)","(1223, 327)","(1168, 276)","(1176, 272)","(1186, 273)","(1194, 279)","(1185, 281)","(1175, 280)","(1230, 280)","(1239, 275)","(1248, 275)","(1256, 279)","(1249, 283)","(1239, 282)","(1180, 345)","(1189, 345)","(1199, 345)","(1207, 347)","(1215, 346)","(1226, 346)","(1238, 348)","(1226, 359)","(1215, 364)","(1207, 365)","(1199, 364)","(1189, 358)","(1185, 347)","(1199, 350)","(1207, 351)","(1215, 350)","(1233, 349)","(1215, 356)","(1207, 357)","(1199, 355)",0.28,0.93,34.0,0.35,0.04,0.4,0.03,-8.5,0.08,0.34,18.1,31.0,71.0,14.15,24.7,68.05,13.52,22.94,48.29
1366,-262144,87,-56,-1,-1,0,"(1138, 265)","(1139, 285)","(1141, 303)","(1144, 321)","(1148, 339)","(1157, 356)","(1168, 371)","(1181, 383)","(1199, 387)","(1217, 385)","(1236, 377)","(1253, 365)","(1266, 350)","(1275, 332)","(1279, 312)","(1283, 292)","(1285, 271)","(1146, 259)","(1155, 252)","(1167, 251)","(1180, 255)","(1192, 261)","(1216, 261)","(1229, 255)","(1243, 252)","(1257, 253)","(1268, 260)","(1203, 274)","(1202, 289)","(1201, 303)","(1199, 318)","(1187, 322)","(1193, 326)","(1200, 329)","(1208, 327)","(1216, 323)","(1161, 272)","(1169, 268)","(1179, 268)","(1187, 275)","(1178, 277)","(1168, 277)","(1224, 275)","(1233, 269)","(1243, 269)","(1251, 273)","(1243, 278)","(1234, 278)","(1177, 342)","(1186, 343)","(1194, 342)","(1201, 344)","(1208, 343)","(1218, 343)","(1230, 344)","(1218, 352)","(1208, 356)","(1201, 357)","(1194, 356)","(1185, 351)","(1182, 344)","(1194, 347)","(1201, 348)","(1208, 347)","(1225, 345)","(1208, 348)","(1201, 348)","(1194, 347)",0.33,0.92,34.0,0.36,0.01,0.36,0.01,-9.0,0.08,0.38,15.9,28.5,65.8,10.5,20.35,64.85,14.82,24.52,51.76
1400,-327680,87,-56,-1,-1,0,"(1125, 262)","(1126, 282)","(1129, 302)","(1132, 321)","(1139, 339)","(1149, 357)","(1161, 372)","(1176, 385)","(1194, 389)","(1212, 386)","(1229, 375)","(1245, 362)","(1258, 346)","(1267, 328)","(1271, 308)","(1273, 287)","(1275, 266)","(1135, 255)","(1145, 249)","(1158, 248)","(1171, 252)","(1184, 258)","(1208, 258)","(1221, 252)","(1235, 249)","(1249, 250)","(1259, 257)","(1196, 272)","(1195, 287)","(1193, 302)","(1192, 316)","(1179, 321)","(1186, 325)","(1194, 328)","(1202, 325)","(1210, 322)","(1152, 270)","(1160, 266)","(1170, 266)","(1179, 272)","(1169, 274)","(1160, 274)","(1216, 273)","(1225, 267)","(1235, 267)","(1243, 271)","(1235, 275)","(1226, 275)","(1169, 341)","(1178, 341)","(1188, 341)","(1195, 343)","(1202, 341)","(1213, 341)","(1225, 342)","(1214, 354)","(1203, 359)","(1195, 359)","(1188, 358)","(1178, 353)","(1174, 342)","(1188, 345)","(1195, 346)","(1202, 346)","(1220, 344)","(1203, 349)","(1195, 350)","(1188, 349)",0.29,0.94,34.0,0.36,0.02,0.37,0.03,-8.0,0.09,0.37,14.8,26.2,62.4,15.3,25.15,69.65,9.23,18.17,42.7
1433,-393216,87,-56,-1,-1,0,"(1116, 264)","(1117, 285)","(1119, 306)","(1123, 325)","(1129, 344)","(1139, 362)","(1152, 378)","(1167, 390)","(1186, 394)","(1205, 392)","(1224, 381)","(1241, 367)","(1254, 350)","(1263, 331)","(1267, 310)","(1270, 289)","(1271, 267)","(1124, 254)","(1134, 247)","(1148, 246)","(1161, 250)","(1174, 256)","(1199, 257)","(1213, 251)","(1228, 248)","(1243, 249)","(1255, 256)","(1186, 272)","(1185, 287)","(1184, 301)","(1183, 317)","(1170, 322)","(1176, 326)","(1184, 329)","(1193, 327)","(1201, 323)","(1141, 269)","(1150, 265)","(1160, 265)","(1169, 272)","(1159, 275)","(1149, 274)","(1208, 273)","(1217, 266)","(1228, 266)","(1237, 271)","(1229, 276)","(1218, 276)","(1158, 344)","(1168, 343)","(1178, 342)","(1185, 345)","(1193, 343)","(1205, 344)","(1217, 346)","(1205, 358)","(1194, 363)","(1185, 364)","(1177, 362)","(1168, 356)","(1164, 346)","(1178, 348)","(1185, 349)","(1193, 348)","(1212, 348)","(1193, 353)","(1185, 354)","(1178, 352)",0.34,0.94,34.0,0.36,0.01,0.38,0.03,-10.0,0.09,0.36,15.2,28.3,65.3,15.0,25.6,70.85,10.41,20.58,46.52
1466,-327680,87,-56,-1,-1,0,"(1095, 261)","(1095, 284)","(1097, 306)","(1100, 328)","(1108, 349)","(1119, 369)","(1133, 387)","(1149, 403)","(1169, 408)","(1191, 406)","(1211, 394)","(1230, 379)","(1245, 360)","(1256, 339)","(1261, 316)","(1264, 293)","(1266, 269)","(1106, 255)","(1117, 248)","(1132, 248)","(1147, 253)","(1161, 260)","(1189, 261)","(1204, 254)","(1220, 251)","(1236, 253)","(1248, 260)","(1174, 277)","(1172, 292)","(1171, 308)","(1170, 324)","(1155, 329)","(1162, 334)","(1171, 337)","(1180, 335)","(1189, 331)","(1125, 272)","(1134, 268)","(1145, 269)","(1155, 276)","(1144, 278)","(1133, 278)","(1197, 278)","(1207, 271)","(1219, 271)","(1228, 276)","(1219, 281)","(1208, 281)","(1143, 352)","(1154, 351)","(1164, 351)","(1172, 354)","(1180, 352)","(1193, 354)","(1207, 356)","(1193, 369)","(1181, 374)","(1172, 375)","(1163, 373)","(1153, 366)","(1149, 354)","(1164, 357)","(1172, 359)","(1180, 358)","(1201, 357)","(1181, 364)","(1172, 364)","(1164, 362)",0.32,0.96,34.0,0.35,0.03,0.37,0.03,-10.0,0.08,0.35,16.7,28.3,66.5,15.5,26.9,72.4,11.52,21.76,46.47
1500,-393216,87,-56,-1,-1,0,"(1064, 282)","(1064, 310)","(1065, 338)","(1072, 366)","(1083, 393)","(1100, 419)","(1119, 444)","(1142, 464)","(1170, 470)","(1199, 465)","(1223, 445)","(1243, 420)","(1259, 394)","(1271, 367)","(1276, 338)","(1275, 309)","(1273, 282)","(1087, 262)","(1099, 253)","(1115, 251)","(1133, 256)","(1148, 265)","(1181, 266)","(1197, 257)","(1215, 253)","(1233, 255)","(1247, 263)","(1165, 286)","(1166, 305)","(1166, 323)","(1166, 342)","(1146, 352)","(1156, 357)","(1168, 362)","(1179, 358)","(1190, 352)","(1108, 283)","(1118, 277)","(1131, 277)","(1142, 285)","(1130, 288)","(1118, 288)","(1192, 286)","(1203, 278)","(1216, 278)","(1227, 284)","(1217, 289)","(1204, 289)","(1127, 381)","(1142, 378)","(1159, 378)","(1170, 380)","(1181, 378)","(1199, 379)","(1215, 384)","(1200, 406)","(1183, 416)","(1171, 417)","(1158, 415)","(1142, 404)","(1135, 384)","(1159, 385)","(1170, 386)","(1182, 385)","(1208, 386)","(1182, 402)","(1170, 403)","(1158, 401)",0.31,0.92,34.0,0.33,0.0,0.42,0.05,-11.0,0.11,0.3,20.9,33.4,75.1,14.7,26.45,69.05,17.82,27.35,50.35
1533,-458752,87,-56,-1,-1,0,"(1048, 308)","(1049, 335)","(1051, 362)","(1057, 389)","(1067, 416)","(1083, 440)","(1101, 463)","(1124, 481)","(1152, 486)","(1181, 481)","(1206, 463)","(1225, 439)","(1239, 413)","(1247, 385)","(1251, 356)","(1252, 328)","(1252, 301)","(1061, 285)","(1072, 273)","(1089, 268)","(1108, 269)","(1126, 277)","(1162, 278)","(1179, 270)","(1198, 267)","(1218, 270)","(1231, 282)","(1143, 300)","(1143, 319)","(1142, 338)","(1142, 358)","(1123, 369)","(1133, 374)","(1145, 378)","(1157, 374)","(1168, 368)","(1083, 303)","(1093, 295)","(1107, 295)","(1118, 303)","(1106, 306)","(1093, 307)","(1173, 302)","(1185, 293)","(1198, 293)","(1209, 300)","(1199, 305)","(1185, 305)","(1104, 403)","(1119, 399)","(1135, 398)","(1147, 400)","(1158, 397)","(1176, 398)","(1196, 402)","(1179, 422)","(1162, 429)","(1149, 430)","(1136, 429)","(1120, 421)","(1112, 405)","(1135, 405)","(1147, 406)","(1159, 405)","(1188, 404)","(1161, 416)","(1149, 417)","(1137, 415)",0.33,0.94,34.0,0.34,-0.03,0.45,0.04,-11.5,0.12,0.31,20.2,31.3,72.5,16.8,30.05,75.4,11.47,17.88,34.23
1766,-851968,87,-56,-1,-1,0,"(883, 431)","(881, 470)","(882, 507)","(887, 544)","(900, 578)","(920, 608)","(945, 634)","(971, 656)","(1001, 664)","(1033, 659)","(1064, 641)","(1091, 616)","(1113, 588)","(1129, 556)","(1136, 522)","(1141, 487)","(1143, 452)","(904, 421)","(922, 410)","(945, 411)","(968, 420)","(990, 433)","(1029, 437)","(1053, 427)","(1078, 423)","(1102, 426)","(1119, 438)","(1007, 461)","(1005, 484)","(1002, 508)","(1000, 533)","(976, 542)","(988, 550)","(1001, 556)","(1015, 553)","(1028, 547)","(930, 449)","(944, 442)","(963, 444)","(977, 457)","(960, 461)","(942, 459)","(1040, 463)","(1056, 452)","(1075, 453)","(1089, 462)","(1075, 471)","(1056, 469)","(959, 583)","(976, 582)","(992, 581)","(1003, 586)","(1014, 583)","(1032, 586)","(1051, 590)","(1032, 606)","(1014, 612)","(1002, 612)","(990, 610)","(975, 600)","(968, 585)","(991, 591)","(1003, 593)","(1014, 592)","(1043, 591)","(1014, 595)","(1003, 596)","(991, 593)",0.35,0.9,34.0,0.37,0.07,0.35,0.02,-19.0,0.08,0.35,20.2,35.5,75.9,15.85,25.4,69.8,20.17,31.7,54.29
1800,-524288,87,-56,-1,-1,0,"(860, 432)","(854, 471)","(852, 509)","(856, 546)","(867, 581)","(886, 613)","(910, 641)","(939, 663)","(972, 674)","(1007, 673)","(1040, 657)","(1071, 634)","(1095, 606)","(1112, 573)","(1121, 538)","(1126, 503)","(1129, 467)","(888, 414)","(910, 407)","(934, 410)","(958, 421)","(980, 436)","(1024, 443)","(1047, 435)","(1071, 431)","(1093, 434)","(1109, 447)","(998, 468)","(995, 493)","(992, 517)","(989, 542)","(961, 551)","(973, 559)","(987, 566)","(1002, 564)","(1016, 559)","(914, 451)","(930, 446)","(948, 449)","(962, 462)","(945, 465)","(927, 462)","(1032, 472)","(1049, 463)","(1067, 465)","(1081, 474)","(1067, 481)","(1049, 479)","(936, 590)","(957, 590)","(974, 591)","(986, 596)","(998, 594)","(1016, 598)","(1034, 605)","(1014, 617)","(996, 620)","(983, 619)","(969, 616)","(953, 606)","(945, 592)","(973, 601)","(985, 604)","(997, 605)","(1025, 604)","(997, 605)","(984, 604)","(972, 601)",0.32,0.83,34.0,0.36,0.13,0.36,0.01,-18.5,0.06,0.35,24.6,40.6,81.8,15.9,25.2,64.85,23.17,34.05,57.0
1833,-196608,87,-56,-1,-1,0,"(860, 431)","(855, 469)","(854, 507)","(858, 543)","(870, 579)","(889, 611)","(913, 639)","(942, 662)","(975, 673)","(1009, 671)","(1042, 654)","(1071, 630)","(1095, 600)","(1111, 566)","(1120, 531)","(1125, 495)","(1128, 459)","(883, 413)","(904, 405)","(929, 409)","(953, 420)","(975, 434)","(1018, 441)","(1043, 432)","(1067, 428)","(1091, 431)","(1108, 443)","(994, 465)","(991, 490)","(988, 515)","(984, 541)","(956, 548)","(969, 557)","(984, 564)","(1000, 561)","(1014, 556)","(909, 448)","(925, 442)","(943, 445)","(959, 459)","(940, 462)","(921, 459)","(1029, 468)","(1046, 458)","(1065, 460)","(1080, 469)","(1065, 477)","(1046, 475)","(933, 586)","(954, 587)","(971, 588)","(984, 594)","(997, 592)","(1016, 595)","(1036, 599)","(1015, 614)","(996, 618)","(982, 617)","(968, 614)","(951, 603)","(943, 589)","(970, 598)","(983, 602)","(996, 602)","(1027, 600)","(996, 602)","(983, 602)","(970, 598)",0.33,0.85,34.0,0.37,0.12,0.38,0.01,-19.5,0.07,0.36,24.7,40.0,80.9,14.95,24.3,68.85,23.29,33.82,56.88
1866,393216,87,-56,-1,-1,0,"(857, 426)","(854, 465)","(853, 503)","(858, 540)","(872, 575)","(893, 606)","(919, 633)","(949, 654)","(983, 664)","(1018, 661)","(1050, 644)","(1079, 619)","(1101, 589)","(1116, 555)","(1124, 520)","(1129, 484)","(1130, 449)","(890, 409)","(911, 400)","(935, 402)","(958, 410)","(980, 423)","(1021, 429)","(1044, 419)","(1068, 415)","(1091, 418)","(1108, 429)","(999, 453)","(997, 477)","(994, 501)","(992, 526)","(965, 536)","(977, 545)","(992, 551)","(1007, 547)","(1021, 541)","(917, 440)","(932, 434)","(950, 436)","(964, 448)","(947, 452)","(929, 450)","(1031, 455)","(1048, 446)","(1066, 447)","(1080, 455)","(1066, 463)","(1048, 462)","(941, 575)","(961, 574)","(979, 574)","(992, 579)","(1004, 577)","(1023, 579)","(1042, 584)","(1022, 599)","(1004, 603)","(990, 604)","(976, 601)","(959, 592)","(950, 578)","(978, 584)","(991, 586)","(1004, 586)","(1034, 585)","(1004, 588)","(992, 588)","(979, 585)",0.32,0.84,34.0,0.35,0.07,0.36,0.02,-17.5,0.08,0.34,25.8,40.4,84.1,16.45,26.9,71.95,25.76,36.76,60.35
2133,-524288,87,-56,-1,-1,0,"(1067, 255)","(1066, 280)","(1067, 305)","(1071, 330)","(1079, 353)","(1092, 373)","(1108, 391)","(1127, 405)","(1148, 410)","(1171, 408)","(1193, 397)","(1214, 383)","(1231, 365)","(1243, 344)","(1249, 319)","(1252, 294)","(1254, 270)","(1086, 239)","(1097, 229)","(1114, 227)","(1131, 230)","(1147, 239)","(1173, 243)","(1189, 236)","(1206, 234)","(1223, 238)","(1235, 249)","(1157, 260)","(1155, 275)","(1154, 291)","(1152, 307)","(1133, 318)","(1142, 322)","(1152, 325)","(1163, 323)","(1173, 320)","(1104, 258)","(1114, 254)","(1126, 254)","(1136, 261)","(1125, 263)","(1113, 262)","(1181, 264)","(1192, 259)","(1204, 260)","(1214, 265)","(1204, 268)","(1192, 268)","(1118, 346)","(1131, 342)","(1143, 340)","(1152, 343)","(1162, 341)","(1176, 344)","(1190, 350)","(1176, 363)","(1162, 368)","(1152, 369)","(1142, 367)","(1130, 360)","(1124, 347)","(1143, 347)","(1152, 349)","(1162, 348)","(1184, 350)","(1162, 357)","(1153, 357)","(1143, 355)",0.25,0.91,34.0,0.34,0.04,0.38,0.03,-9.0,0.08,0.31,17.5,29.4,66.4,20.25,32.35,77.75,10.41,18.76,40.0
2166,-589824,87,-56,-1,-1,0,"(1084, 249)","(1082, 273)","(1083, 296)","(1086, 318)","(1094, 340)","(1106, 359)","(1122, 375)","(1139, 388)","(1160, 394)","(1182, 392)","(1203, 383)","(1223, 370)","(1240, 353)","(1252, 333)","(1259, 310)","(1262, 286)","(1265, 262)","(1099, 229)","(1110, 219)","(1127, 216)","(1144, 219)","(1160, 228)","(1186, 230)","(1203, 224)","(1220, 222)","(1236, 227)","(1247, 238)","(1170, 248)","(1168, 263)","(1166, 277)","(1164, 292)","(1146, 304)","(1155, 308)","(1164, 311)","(1174, 309)","(1184, 306)","(1116, 248)","(1127, 244)","(1138, 244)","(1149, 251)","(1137, 253)","(1126, 252)","(1194, 254)","(1205, 249)","(1216, 250)","(1226, 255)","(1216, 258)","(1204, 257)","(1130, 333)","(1143, 328)","(1155, 326)","(1164, 329)","(1174, 327)","(1187, 330)","(1201, 337)","(1187, 350)","(1173, 354)","(1163, 354)","(1154, 353)","(1142, 347)","(1136, 334)","(1155, 333)","(1164, 334)","(1173, 334)","(1196, 337)","(1173, 343)","(1164, 343)","(1155, 342)",0.25,0.89,34.0,0.35,0.05,0.39,0.04,-9.0,0.07,0.3,17.2,29.0,64.4,20.35,33.2,78.8,8.7,17.11,37.29
2200,-327680,87,-56,-1,-1,0,"(1109, 244)","(1107, 265)","(1106, 286)","(1107, 308)","(1113, 329)","(1124, 348)","(1137, 365)","(1154, 378)","(1173, 383)","(1194, 381)","(1215, 371)","(1233, 357)","(1247, 339)","(1257, 319)","(1262, 297)","(1264, 274)","(1266, 252)","(1120, 228)","(1128, 219)","(1142, 216)","(1157, 218)","(1170, 226)","(1193, 227)","(1208, 221)","(1224, 219)","(1239, 223)","(1248, 234)","(1179, 243)","(1178, 257)","(1176, 271)","(1174, 285)","(1158, 293)","(1166, 298)","(1175, 301)","(1185, 299)","(1194, 295)","(1135, 244)","(1143, 241)","(1153, 241)","(1162, 245)","(1152, 247)","(1143, 247)","(1202, 247)","(1211, 243)","(1221, 244)","(1229, 248)","(1220, 251)","(1211, 250)","(1144, 323)","(1154, 317)","(1166, 315)","(1175, 318)","(1185, 316)","(1198, 319)","(1211, 326)","(1198, 340)","(1185, 345)","(1174, 345)","(1164, 344)","(1153, 337)","(1149, 323)","(1166, 321)","(1175, 322)","(1185, 322)","(1206, 326)","(1185, 335)","(1175, 336)","(1165, 334)",0.26,0.95,34.0,0.34,0.04,0.42,0.06,-7.0,0.09,0.3,17.7,28.9,65.0,18.1,29.95,75.5,11.52,21.29,47.29
2233,-589824,87,-56,-1,-1,0,"(1109, 240)","(1108, 262)","(1110, 284)","(1114, 305)","(1122, 325)","(1134, 342)","(1149, 357)","(1165, 369)","(1185, 373)","(1205, 370)","(1223, 360)","(1240, 347)","(1253, 331)","(1262, 312)","(1266, 290)","(1268, 269)","(1269, 247)","(1123, 223)","(1133, 214)","(1148, 211)","(1163, 213)","(1177, 220)","(1202, 222)","(1216, 216)","(1231, 214)","(1245, 218)","(1255, 228)","(1188, 238)","(1187, 251)","(1186, 264)","(1185, 278)","(1169, 288)","(1176, 291)","(1185, 294)","(1194, 292)","(1203, 289)","(1139, 239)","(1148, 236)","(1158, 236)","(1168, 241)","(1157, 243)","(1147, 243)","(1209, 242)","(1218, 238)","(1228, 238)","(1237, 243)","(1228, 245)","(1218, 245)","(1154, 316)","(1165, 311)","(1177, 309)","(1186, 311)","(1195, 309)","(1208, 312)","(1220, 318)","(1208, 331)","(1195, 335)","(1186, 336)","(1176, 335)","(1165, 329)","(1159, 317)","(1177, 315)","(1186, 316)","(1195, 315)","(1215, 318)","(1195, 325)","(1186, 326)","(1177, 325)",0.24,0.9,34.0,0.35,0.02,0.41,0.04,-7.0,0.09,0.29,17.5,29.9,67.4,19.0,31.4,75.7,8.35,17.17,37.58
2266,-786432,87,-56,-1,-1,0,"(1124, 237)","(1124, 257)","(1126, 278)","(1130, 298)","(1138, 316)","(1149, 333)","(1163, 347)","(1179, 359)","(1198, 363)","(1218, 360)","(1236, 350)","(1252, 336)","(1265, 321)","(1274, 302)","(1278, 282)","(1280, 261)","(1281, 240)","(1140, 221)","(1149, 212)","(1162, 208)","(1176, 209)","(1189, 216)","(1211, 217)","(1224, 211)","(1239, 209)","(1253, 213)","(1264, 222)","(1199, 232)","(1198, 244)","(1197, 257)","(1196, 270)","(1181, 279)","(1188, 282)","(1197, 285)","(1206, 283)","(1215, 279)","(1154, 234)","(1163, 230)","(1172, 230)","(1181, 235)","(1171, 236)","(1162, 236)","(1219, 235)","(1228, 231)","(1238, 231)","(1246, 235)","(1237, 237)","(1228, 237)","(1167, 305)","(1178, 299)","(1189, 296)","(1198, 298)","(1207, 296)","(1220, 298)","(1232, 306)","(1220, 320)","(1208, 325)","(1198, 326)","(1189, 325)","(1178, 319)","(1172, 306)","(1189, 302)","(1198, 303)","(1207, 302)","(1227, 306)","(1208, 315)","(1199, 316)","(1190, 315)",0.22,0.91,34.0,0.34,-0.0,0.41,0.05,-6.0,0.1,0.29,17.8,30.2,68.4,17.05,29.65,72.2,10.29,17.94,40.29
2300,-458752,87,-56,-1,-1,0,"(1145, 228)","(1142, 247)","(1141, 267)","(1143, 287)","(1149, 305)","(1159, 323)","(1172, 338)","(1186, 351)","(1204, 357)","(1224, 355)","(1242, 345)","(1260, 332)","(1274, 316)","(1283, 297)","(1288, 277)","(1291, 257)","(1292, 236)","(1155, 214)","(1162, 206)","(1175, 203)","(1188, 206)","(1200, 213)","(1223, 215)","(1237, 209)","(1252, 207)","(1266, 211)","(1276, 220)","(1210, 230)","(1208, 243)","(1207, 255)","(1205, 269)","(1190, 275)","(1197, 279)","(1206, 283)","(1215, 280)","(1224, 277)","(1168, 228)","(1175, 225)","(1185, 226)","(1193, 230)","(1184, 232)","(1175, 232)","(1231, 233)","(1240, 229)","(1250, 230)","(1258, 234)","(1249, 236)","(1240, 235)","(1177, 300)","(1187, 295)","(1198, 295)","(1206, 297)","(1215, 295)","(1228, 298)","(1240, 304)","(1227, 317)","(1214, 321)","(1205, 322)","(1196, 320)","(1186, 314)","(1181, 300)","(1198, 300)","(1206, 301)","(1215, 301)","(1235, 304)","(1215, 312)","(1206, 313)","(1197, 311)",0.22,0.96,34.0,0.35,0.03,0.42,0.05,-7.0,0.09,0.3,18.0,30.9,71.6,16.95,27.45,70.05,9.58,18.82,41.23
2333,0,87,-56,-1,-1,0,"(1146, 236)","(1146, 256)","(1147, 275)","(1149, 295)","(1155, 313)","(1165, 329)","(1179, 342)","(1194, 353)","(1212, 356)","(1230, 354)","(1247, 346)","(1264, 334)","(1277, 319)","(1286, 302)","(1291, 283)","(1295, 264)","(1297, 244)","(1160, 220)","(1169, 211)","(1182, 208)","(1196, 210)","(1209, 216)","(1231, 218)","(1244, 213)","(1259, 212)","(1272, 216)","(1282, 225)","(1219, 232)","(1218, 244)","(1217, 257)","(1215, 270)","(1200, 278)","(1207, 282)","(1215, 285)","(1223, 282)","(1231, 279)","(1175, 233)","(1183, 229)","(1192, 229)","(1201, 234)","(1191, 236)","(1182, 236)","(1238, 236)","(1247, 232)","(1256, 232)","(1264, 237)","(1256, 239)","(1247, 239)","(1185, 304)","(1196, 299)","(1207, 297)","(1215, 299)","(1223, 297)","(1234, 300)","(1245, 305)","(1234, 317)","(1222, 321)","(1214, 321)","(1206, 321)","(1195, 316)","(1190, 304)","(1207, 302)","(1215, 303)","(1223, 302)","(1240, 305)","(1223, 312)","(1215, 313)","(1206, 312)",0.26,0.86,34.0,0.34,0.02,0.39,0.04,-7.0,0.07,0.3,15.0,28.3,63.7,14.8,25.75,69.35,9.23,16.58,37.58
2366,-1114112,87,-56,-1,-1,0,"(1150, 238)","(1150, 258)","(1150, 278)","(1151, 298)","(1157, 316)","(1167, 332)","(1181, 345)","(1197, 355)","(1215, 359)","(1234, 357)","(1251, 349)","(1267, 337)","(1280, 323)","(1289, 305)","(1294, 287)","(1297, 268)","(1299, 248)","(1165, 223)","(1174, 215)","(1187, 213)","(1201, 215)","(1214, 222)","(1236, 225)","(1249, 220)","(1263, 218)","(1276, 222)","(1285, 231)","(1223, 239)","(1222, 251)","(1221, 263)","(1220, 276)","(1204, 283)","(1211, 287)","(1219, 291)","(1228, 289)","(1235, 286)","(1180, 238)","(1188, 234)","(1197, 234)","(1206, 240)","(1196, 242)","(1187, 241)","(1242, 243)","(1251, 238)","(1261, 239)","(1268, 244)","(1260, 247)","(1251, 246)","(1190, 307)","(1201, 303)","(1212, 302)","(1219, 304)","(1227, 303)","(1238, 305)","(1249, 311)","(1238, 321)","(1226, 325)","(1218, 325)","(1210, 324)","(1200, 319)","(1195, 308)","(1211, 307)","(1219, 308)","(1227, 307)","(1244, 311)","(1227, 317)","(1219, 317)","(1211, 316)",0.3,0.88,34.0,0.34,0.05,0.39,0.04,-8.5,0.08,0.3,15.7,27.3,64.5,17.55,28.25,72.35,9.47,18.52,37.41
2400,-589824,87,-56,-1,-1,0,"(1159, 246)","(1157, 265)","(1157, 284)","(1160, 302)","(1166, 319)","(1175, 335)","(1188, 349)","(1203, 360)","(1220, 364)","(1238, 362)","(1255, 353)","(1269, 340)","(1280, 325)","(1288, 308)","(1291, 290)","(1293, 271)","(1293, 253)","(1172, 235)","(1180, 228)","(1192, 226)","(1205, 229)","(1216, 235)","(1236, 237)","(1248, 231)","(1261, 229)","(1273, 231)","(1281, 239)","(1225, 251)","(1224, 263)","(1223, 275)","(1223, 288)","(1208, 295)","(1215, 298)","(1222, 301)","(1230, 299)","(1238, 296)","(1185, 249)","(1192, 245)","(1201, 245)","(1208, 251)","(1200, 253)","(1191, 253)","(1243, 253)","(1251, 247)","(1260, 247)","(1266, 252)","(1260, 256)","(1251, 255)","(1196, 317)","(1206, 314)","(1215, 313)","(1222, 315)","(1229, 313)","(1239, 315)","(1250, 319)","(1240, 328)","(1230, 332)","(1222, 333)","(1214, 332)","(1205, 327)","(1201, 318)","(1215, 318)","(1222, 319)","(1229, 318)","(1245, 319)","(1229, 323)","(1222, 324)","(1215, 323)",0.36,0.89,34.0,0.34,0.02,0.4,0.03,-8.5,0.09,0.32,15.7,28.4,66.4,19.05,31.75,73.7,13.35,23.82,47.35
2433,-262144,87,-56,-1,-1,0,"(1159, 260)","(1159, 280)","(1160, 298)","(1163, 317)","(1169, 335)","(1179, 351)","(1192, 365)","(1208, 374)","(1227, 377)","(1247, 375)","(1266, 366)","(1282, 353)","(1295, 337)","(1302, 319)","(1306, 299)","(1307, 280)","(1307, 260)","(1171, 249)","(1179, 240)","(1192, 237)","(1205, 239)","(1218, 245)","(1238, 246)","(1251, 239)","(1266, 236)","(1281, 239)","(1291, 248)","(1227, 261)","(1227, 273)","(1226, 285)","(1225, 298)","(1211, 307)","(1218, 310)","(1226, 313)","(1234, 310)","(1243, 307)","(1186, 261)","(1193, 256)","(1203, 256)","(1212, 263)","(1203, 266)","(1193, 266)","(1247, 263)","(1256, 256)","(1266, 256)","(1274, 261)","(1266, 266)","(1256, 266)","(1200, 330)","(1210, 326)","(1220, 325)","(1227, 327)","(1234, 325)","(1245, 326)","(1257, 330)","(1245, 339)","(1234, 343)","(1227, 343)","(1220, 343)","(1210, 339)","(1205, 330)","(1220, 330)","(1227, 331)","(1234, 330)","(1251, 330)","(1234, 335)","(1227, 335)","(1220, 334)",0.36,0.89,34.0,0.35,-0.02,0.38,0.02,-10.0,0.1,0.31,16.3,28.3,68.2,16.75,28.6,71.05,17.94,29.64,56.47
2466,458752,87,-56,-1,-1,0,"(1160, 270)","(1159, 288)","(1160, 306)","(1162, 324)","(1169, 341)","(1179, 355)","(1192, 367)","(1207, 377)","(1224, 379)","(1241, 377)","(1257, 368)","(1270, 357)","(1281, 343)","(1289, 327)","(1292, 309)","(1293, 292)","(1294, 274)","(1173, 260)","(1182, 252)","(1195, 250)","(1207, 253)","(1220, 258)","(1239, 259)","(1250, 254)","(1263, 252)","(1275, 254)","(1283, 262)","(1228, 272)","(1227, 284)","(1227, 296)","(1226, 308)","(1212, 315)","(1219, 318)","(1226, 321)","(1234, 318)","(1241, 315)","(1187, 271)","(1195, 267)","(1204, 267)","(1211, 273)","(1203, 275)","(1194, 275)","(1244, 274)","(1253, 268)","(1262, 268)","(1269, 272)","(1262, 276)","(1253, 276)","(1200, 335)","(1210, 333)","(1220, 332)","(1226, 333)","(1233, 332)","(1243, 333)","(1253, 336)","(1244, 345)","(1234, 349)","(1227, 350)","(1219, 349)","(1210, 345)","(1205, 336)","(1220, 337)","(1226, 337)","(1233, 337)","(1249, 337)","(1233, 341)","(1227, 342)","(1220, 341)",0.31,0.86,34.0,0.36,0.01,0.39,0.03,-8.0,0.09,0.33,14.8,25.7,63.4,17.75,28.3,70.15,14.41,24.64,48.76
2500,1900544,87,-56,-1,-1,0,"(1161, 275)","(1159, 293)","(1159, 311)","(1162, 329)","(1167, 346)","(1177, 361)","(1190, 374)","(1206, 383)","(1223, 386)","(1240, 384)","(1255, 375)","(1269, 363)","(1280, 349)","(1288, 333)","(1291, 316)","(1293, 298)","(1293, 281)","(1174, 266)","(1182, 258)","(1195, 256)","(1208, 259)","(1219, 265)","(1239, 266)","(1251, 260)","(1263, 258)","(1275, 260)","(1283, 268)","(1228, 279)","(1227, 290)","(1226, 302)","(1226, 314)","(1212, 321)","(1218, 325)","(1225, 327)","(1233, 325)","(1240, 322)","(1187, 277)","(1195, 273)","(1204, 273)","(1211, 279)","(1203, 281)","(1194, 281)","(1245, 280)","(1253, 275)","(1262, 275)","(1269, 279)","(1262, 283)","(1253, 282)","(1200, 343)","(1210, 340)","(1219, 339)","(1226, 341)","(1232, 339)","(1242, 340)","(1252, 343)","(1242, 352)","(1232, 356)","(1225, 356)","(1218, 355)","(1210, 352)","(1205, 343)","(1219, 344)","(1226, 345)","(1232, 344)","(1247, 344)","(1232, 348)","(1226, 348)","(1219, 348)",0.31,0.86,34.0,0.36,0.01,0.39,0.02,-8.0,0.09,0.32,15.1,26.0,63.0,16.9,26.55,68.05,13.17,22.76,46.7
2533,1179648,87,-56,-1,-1,0,"(1162, 278)","(1160, 296)","(1160, 314)","(1162, 332)","(1168, 349)","(1177, 365)","(1190, 377)","(1205, 387)","(1222, 390)","(1239, 388)","(1255, 379)","(1269, 367)","(1280, 353)","(1287, 336)","(1291, 319)","(1292, 302)","(1293, 284)","(1174, 268)","(1182, 261)","(1195, 259)","(1208, 262)","(1219, 268)","(1240, 269)","(1252, 264)","(1264, 262)","(1276, 264)","(1284, 272)","(1228, 283)","(1227, 295)","(1226, 306)","(1226, 319)","(1212, 326)","(1218, 329)","(1225, 331)","(1233, 330)","(1240, 326)","(1187, 280)","(1195, 276)","(1204, 276)","(1212, 283)","(1203, 285)","(1194, 284)","(1245, 284)","(1254, 278)","(1263, 278)","(1269, 283)","(1263, 287)","(1254, 287)","(1200, 347)","(1210, 345)","(1219, 344)","(1225, 345)","(1231, 344)","(1241, 345)","(1251, 349)","(1241, 357)","(1231, 361)","(1225, 361)","(1218, 360)","(1209, 356)","(1205, 348)","(1219, 349)","(1225, 349)","(1231, 349)","(1246, 349)","(1231, 353)","(1225, 353)","(1219, 352)",0.37,0.87,34.0,0.37,0.03,0.38,0.03,-9.0,0.09,0.33,15.8,27.4,64.1,13.7,23.95,64.4,15.17,25.7,51.05
2566,-327680,87,-56,-1,-1,0,"(1160, 278)","(1158, 296)","(1158, 314)","(1159, 332)","(1165, 350)","(1174, 365)","(1187, 379)","(1202, 389)","(1219, 393)","(1236, 391)","(1252, 381)","(1267, 369)","(1278, 354)","(1286, 337)","(1290, 320)","(1292, 302)","(1292, 284)","(1172, 269)","(1181, 262)","(1193, 260)","(1206, 263)","(1217, 269)","(1239, 271)","(1251, 266)","(1263, 263)","(1275, 266)","(1283, 273)","(1227, 284)","(1226, 297)","(1225, 309)","(1224, 322)","(1210, 327)","(1216, 331)","(1223, 334)","(1231, 332)","(1238, 329)","(1185, 282)","(1193, 278)","(1202, 278)","(1210, 284)","(1201, 286)","(1192, 285)","(1244, 285)","(1253, 281)","(1262, 281)","(1268, 285)","(1262, 288)","(1253, 288)","(1198, 348)","(1208, 347)","(1217, 346)","(1223, 349)","(1229, 347)","(1239, 348)","(1248, 350)","(1238, 358)","(1229, 362)","(1222, 362)","(1215, 361)","(1207, 357)","(1203, 349)","(1216, 352)","(1223, 353)","(1229, 352)","(1244, 351)","(1229, 354)","(1223, 354)","(1216, 353)",0.29,0.85,34.0,0.37,0.02,0.37,0.01,-7.5,0.08,0.34,13.1,25.7,62.0,11.1,19.05,56.2,14.64,24.88,51.41
2600,-655360,87,-56,-1,-1,0,"(1166, 273)","(1164, 291)","(1163, 308)","(1164, 326)","(1168, 343)","(1176, 359)","(1187, 373)","(1200, 385)","(1217, 389)","(1233, 388)","(1250, 379)","(1264, 367)","(1276, 353)","(1284, 336)","(1288, 319)","(1291, 302)","(1292, 284)","(1175, 267)","(1183, 261)","(1195, 261)","(1206, 264)","(1217, 271)","(1238, 273)","(1249, 268)","(1262, 266)","(1274, 268)","(1282, 275)","(1226, 285)","(1224, 297)","(1223, 309)","(1221, 322)","(1209, 327)","(1214, 331)","(1221, 333)","(1228, 332)","(1235, 329)","(1188, 280)","(1195, 277)","(1204, 278)","(1211, 284)","(1202, 285)","(1194, 285)","(1243, 286)","(1251, 281)","(1260, 282)","(1267, 286)","(1260, 290)","(1251, 289)","(1198, 346)","(1206, 345)","(1215, 345)","(1221, 347)","(1227, 346)","(1236, 348)","(1246, 350)","(1236, 359)","(1226, 363)","(1220, 363)","(1213, 362)","(1205, 357)","(1202, 348)","(1215, 350)","(1221, 351)","(1227, 351)","(1242, 351)","(1227, 355)","(1220, 355)","(1214, 354)",0.33,0.91,34.0,0.37,0.07,0.38,0.03,-8.5,0.07,0.35,15.6,27.5,63.9,13.05,21.6,61.55,14.29,24.94,52.58
2633,-720896,87,-56,-1,-1,0,"(1164, 270)","(1163, 288)","(1162, 306)","(1163, 324)","(1168, 342)","(1176, 358)","(1188, 372)","(1202, 383)","(1218, 387)","(1235, 385)","(1251, 376)","(1266, 364)","(1277, 349)","(1284, 332)","(1288, 315)","(1290, 297)","(1291, 279)","(1173, 264)","(1181, 259)","(1193, 258)","(1204, 262)","(1215, 268)","(1236, 270)","(1248, 264)","(1260, 262)","(1273, 264)","(1281, 270)","(1224, 282)","(1223, 295)","(1222, 307)","(1220, 321)","(1208, 325)","(1214, 328)","(1220, 331)","(1228, 329)","(1234, 326)","(1186, 277)","(1193, 273)","(1202, 274)","(1209, 281)","(1201, 282)","(1192, 281)","(1241, 282)","(1250, 277)","(1259, 277)","(1266, 282)","(1259, 286)","(1250, 285)","(1198, 344)","(1206, 343)","(1214, 343)","(1220, 345)","(1227, 344)","(1236, 345)","(1246, 348)","(1236, 357)","(1226, 361)","(1219, 361)","(1213, 360)","(1205, 355)","(1202, 346)","(1214, 348)","(1220, 349)","(1227, 349)","(1242, 348)","(1227, 352)","(1220, 353)","(1214, 351)",0.34,0.93,34.0,0.37,0.04,0.37,0.03,-9.0,0.07,0.37,14.9,27.3,61.5,11.75,20.95,60.65,13.29,23.29,51.35
2666,-524288,87,-56,-1,-1,0,"(1146, 266)","(1146, 286)","(1147, 305)","(1149, 324)","(1156, 342)","(1167, 357)","(1181, 370)","(1197, 381)","(1214, 383)","(1231, 381)","(1246, 371)","(1259, 358)","(1269, 343)","(1276, 326)","(1279, 308)","(1281, 291)","(1281, 273)","(1161, 260)","(1171, 253)","(1184, 251)","(1197, 255)","(1209, 261)","(1230, 262)","(1241, 257)","(1253, 254)","(1265, 256)","(1273, 263)","(1219, 275)","(1218, 288)","(1218, 301)","(1218, 315)","(1203, 320)","(1210, 323)","(1217, 326)","(1224, 324)","(1231, 321)","(1176, 272)","(1184, 268)","(1194, 269)","(1201, 275)","(1193, 277)","(1183, 276)","(1234, 276)","(1243, 270)","(1252, 270)","(1259, 275)","(1252, 279)","(1243, 279)","(1190, 340)","(1201, 339)","(1210, 339)","(1217, 341)","(1223, 339)","(1232, 340)","(1242, 342)","(1233, 352)","(1224, 356)","(1217, 357)","(1209, 356)","(1200, 351)","(1195, 341)","(1210, 343)","(1217, 344)","(1223, 343)","(1238, 343)","(1224, 348)","(1217, 348)","(1210, 347)",0.35,0.82,34.0,0.37,0.02,0.38,0.03,-9.0,0.08,0.37,15.4,27.3,66.7,13.75,23.3,63.4,12.05,20.76,46.11
2700,-458752,87,-56,-1,-1,0,"(1139, 258)","(1140, 279)","(1142, 299)","(1144, 318)","(1150, 337)","(1160, 354)","(1174, 368)","(1189, 380)","(1207, 383)","(1225, 381)","(1241, 371)","(1257, 358)","(1269, 343)","(1277, 325)","(1282, 306)","(1285, 286)","(1287, 266)","(1152, 254)","(1163, 247)","(1176, 246)","(1190, 250)","(1203, 256)","(1225, 257)","(1237, 252)","(1251, 249)","(1264, 251)","(1274, 258)","(1212, 270)","(1211, 285)","(1210, 299)","(1209, 315)","(1195, 318)","(1202, 322)","(1210, 325)","(1218, 323)","(1225, 319)","(1169, 266)","(1177, 262)","(1187, 263)","(1195, 270)","(1186, 272)","(1176, 271)","(1231, 271)","(1239, 264)","(1250, 264)","(1257, 269)","(1250, 274)","(1240, 274)","(1184, 339)","(1194, 339)","(1203, 338)","(1210, 340)","(1217, 339)","(1226, 339)","(1237, 340)","(1227, 349)","(1217, 354)","(1210, 354)","(1203, 354)","(1194, 349)","(1189, 340)","(1203, 343)","(1210, 344)","(1217, 343)","(1232, 341)","(1217, 345)","(1210, 346)","(1203, 345)",0.38,0.85,34.0,0.35,0.02,0.35,0.02,-10.0,0.08,0.39,13.6,25.9,61.3,10.3,18.95,57.6,11.94,20.64,46.17
2733,-524288,87,-56,-1,-1,0,"(1133, 251)","(1133, 273)","(1134, 293)","(1137, 313)","(1143, 333)","(1153, 351)","(1167, 366)","(1182, 379)","(1200, 383)","(1219, 380)","(1237, 369)","(1253, 355)","(1265, 338)","(1274, 319)","(1278, 300)","(1281, 279)","(1283, 259)","(1143, 248)","(1152, 240)","(1166, 239)","(1180, 243)","(1193, 250)","(1218, 251)","(1232, 244)","(1247, 241)","(1261, 243)","(1271, 251)","(1205, 266)","(1204, 280)","(1203, 294)","(1201, 309)","(1188, 314)","(1194, 318)","(1202, 321)","(1210, 319)","(1218, 316)","(1159, 262)","(1168, 257)","(1179, 258)","(1188, 265)","(1177, 268)","(1166, 267)","(1225, 267)","(1234, 259)","(1245, 259)","(1254, 265)","(1246, 270)","(1235, 270)","(1175, 336)","(1185, 335)","(1196, 334)","(1202, 336)","(1209, 334)","(1220, 336)","(1232, 338)","(1221, 350)","(1210, 355)","(1202, 356)","(1194, 355)","(1184, 349)","(1180, 338)","(1195, 339)","(1202, 340)","(1210, 339)","(1227, 339)","(1210, 346)","(1202, 347)","(1195, 345)",0.37,0.91,34.0,0.38,0.01,0.38,0.04,-11.0,0.08,0.36,17.6,29.1,68.7,16.4,26.4,69.3,12.11,22.58,48.23
2766,-196608,87,-56,-1,-1,0,"(1118, 245)","(1117, 267)","(1118, 289)","(1122, 310)","(1130, 331)","(1140, 350)","(1153, 368)","(1168, 384)","(1187, 389)","(1207, 387)","(1226, 376)","(1244, 361)","(1259, 343)","(1270, 323)","(1276, 301)","(1279, 279)","(1282, 255)","(1129, 239)","(1139, 232)","(1154, 232)","(1169, 236)","(1183, 244)","(1211, 247)","(1225, 240)","(1241, 237)","(1257, 239)","(1268, 247)","(1195, 264)","(1193, 280)","(1192, 296)","(1190, 312)","(1175, 315)","(1182, 320)","(1191, 324)","(1200, 321)","(1210, 317)","(1146, 257)","(1155, 252)","(1167, 254)","(1177, 262)","(1166, 265)","(1154, 264)","(1218, 265)","(1228, 257)","(1240, 257)","(1249, 263)","(1240, 269)","(1228, 269)","(1162, 336)","(1173, 336)","(1184, 336)","(1192, 339)","(1200, 337)","(1212, 338)","(1226, 340)","(1212, 354)","(1200, 360)","(1191, 360)","(1182, 359)","(1172, 351)","(1168, 338)","(1184, 341)","(1191, 343)","(1199, 342)","(1220, 341)","(1200, 350)","(1191, 350)","(1184, 348)",0.38,0.92,34.0,0.38,0.04,0.39,0.03,-12.5,0.09,0.38,19.5,33.7,73.4,16.2,26.7,69.0,10.29,19.64,44.76
2800,-458752,87,-56,-1,-1,0,"(1098, 247)","(1098, 272)","(1099, 295)","(1103, 317)","(1111, 339)","(1123, 360)","(1137, 380)","(1154, 397)","(1174, 403)","(1196, 401)","(1216, 388)","(1233, 371)","(1249, 353)","(1260, 332)","(1266, 309)","(1270, 285)","(1273, 261)","(1114, 245)","(1126, 239)","(1142, 240)","(1156, 245)","(1171, 253)","(1198, 254)","(1212, 248)","(1228, 244)","(1243, 245)","(1255, 253)","(1182, 269)","(1181, 286)","(1179, 303)","(1178, 321)","(1161, 324)","(1169, 329)","(1178, 333)","(1188, 330)","(1198, 326)","(1132, 262)","(1142, 259)","(1154, 260)","(1163, 267)","(1152, 270)","(1141, 268)","(1205, 270)","(1215, 264)","(1226, 263)","(1236, 268)","(1227, 273)","(1216, 273)","(1148, 345)","(1159, 345)","(1170, 346)","(1179, 348)","(1188, 347)","(1200, 347)","(1215, 349)","(1201, 364)","(1188, 370)","(1178, 371)","(1169, 369)","(1158, 361)","(1153, 347)","(1170, 351)","(1179, 353)","(1188, 352)","(1209, 350)","(1188, 359)","(1179, 360)","(1170, 357)",0.3,0.93,34.0,0.35,0.06,0.38,0.03,-10.0,0.09,0.38,17.1,29.5,68.1,16.0,26.25,68.85,9.47,17.82,40.52
2833,-655360,88,-56,-1,-1,0,"(1074, 268)","(1071, 297)","(1069, 324)","(1071, 352)","(1079, 380)","(1093, 406)","(1112, 430)","(1133, 450)","(1159, 459)","(1187, 457)","(1213, 442)","(1235, 423)","(1255, 401)","(1269, 375)","(1278, 348)","(1282, 320)","(1284, 291)","(1096, 251)","(1108, 243)","(1125, 244)","(1142, 249)","(1157, 260)","(1189, 263)","(1206, 255)","(1225, 253)","(1244, 257)","(1257, 268)","(1170, 281)","(1167, 300)","(1164, 319)","(1162, 339)","(1141, 347)","(1151, 353)","(1163, 359)","(1175, 356)","(1187, 351)","(1113, 274)","(1124, 269)","(1136, 271)","(1147, 280)","(1134, 282)","(1122, 280)","(1198, 286)","(1210, 278)","(1223, 279)","(1234, 286)","(1222, 290)","(1210, 289)","(1119, 375)","(1135, 374)","(1150, 374)","(1161, 378)","(1173, 376)","(1190, 378)","(1208, 383)","(1190, 400)","(1173, 406)","(1161, 407)","(1148, 404)","(1133, 395)","(1126, 378)","(1150, 381)","(1161, 383)","(1172, 383)","(1200, 384)","(1173, 395)","(1162, 395)","(1150, 392)",0.3,0.91,34.0,0.33,0.1,0.42,0.04,-12.5,0.08,0.32,18.2,31.1,71.4,17.0,28.5,73.15,17.41,27.29,51.88
2866,-458752,88,-56,-1,-1,0,"(1040, 311)","(1040, 341)","(1043, 371)","(1049, 400)","(1061, 428)","(1078, 453)","(1101, 474)","(1127, 490)","(1157, 494)","(1186, 489)","(1210, 470)","(1229, 446)","(1242, 419)","(1251, 390)","(1255, 361)","(1256, 333)","(1255, 304)","(1061, 282)","(1074, 270)","(1092, 265)","(1113, 266)","(1132, 274)","(1171, 276)","(1189, 267)","(1208, 264)","(1227, 267)","(1240, 279)","(1151, 299)","(1151, 318)","(1151, 337)","(1151, 358)","(1127, 370)","(1139, 376)","(1152, 380)","(1165, 375)","(1176, 370)","(1083, 303)","(1094, 296)","(1108, 295)","(1120, 303)","(1107, 306)","(1094, 307)","(1180, 303)","(1193, 294)","(1207, 294)","(1218, 300)","(1207, 305)","(1193, 305)","(1101, 407)","(1120, 402)","(1139, 400)","(1152, 402)","(1164, 400)","(1182, 401)","(1200, 405)","(1184, 425)","(1166, 433)","(1153, 435)","(1139, 434)","(1120, 426)","(1109, 409)","(1139, 408)","(1151, 409)","(1164, 407)","(1192, 406)","(1165, 420)","(1153, 422)","(1140, 420)",0.28,0.83,34.0,0.34,-0.03,0.46,0.04,-10.5,0.11,0.3,20.1,31.7,73.1,15.9,27.0,70.35,16.7,23.47,43.17
3100,1376256,88,-56,-1,-1,0,"(872, 459)","(867, 499)","(865, 540)","(869, 579)","(882, 617)","(902, 655)","(924, 693)","(953, 723)","(990, 733)","(1031, 730)","(1069, 711)","(1101, 682)","(1128, 648)","(1149, 611)","(1160, 571)","(1166, 531)","(1169, 492)","(910, 451)","(928, 440)","(953, 441)","(978, 450)","(1000, 464)","(1040, 466)","(1065, 457)","(1092, 453)","(1117, 457)","(1135, 471)","(1016, 492)","(1012, 521)","(1008, 550)","(1004, 580)","(974, 584)","(987, 595)","(1004, 602)","(1022, 597)","(1038, 589)","(938, 481)","(953, 476)","(970, 477)","(985, 488)","(968, 491)","(951, 489)","(1053, 494)","(1070, 486)","(1087, 488)","(1102, 495)","(1087, 501)","(1069, 500)","(950, 622)","(967, 621)","(987, 622)","(1001, 626)","(1016, 624)","(1038, 625)","(1059, 630)","(1037, 655)","(1015, 666)","(999, 667)","(983, 664)","(965, 650)","(958, 625)","(986, 631)","(1000, 634)","(1015, 633)","(1050, 632)","(1016, 647)","(1001, 648)","(986, 645)",0.27,0.94,34.0,0.32,0.09,0.36,0.04,-15.0,0.07,0.36,19.4,32.0,71.2,17.05,27.5,72.65,22.05,29.05,45.7
3133,0,88,-56,-1,-1,0,"(892, 471)","(890, 507)","(891, 543)","(896, 577)","(906, 610)","(922, 641)","(945, 666)","(971, 686)","(1001, 695)","(1033, 693)","(1065, 678)","(1095, 656)","(1117, 628)","(1132, 596)","(1140, 562)","(1145, 527)","(1148, 492)","(907, 455)","(924, 444)","(947, 445)","(969, 453)","(990, 466)","(1035, 472)","(1058, 463)","(1083, 459)","(1107, 462)","(1124, 476)","(1010, 495)","(1006, 518)","(1003, 541)","(1000, 566)","(979, 576)","(990, 583)","(1002, 587)","(1015, 585)","(1029, 581)","(934, 484)","(948, 479)","(964, 481)","(979, 493)","(962, 495)","(945, 493)","(1046, 500)","(1061, 491)","(1079, 492)","(1094, 500)","(1079, 507)","(1061, 506)","(962, 615)","(978, 614)","(993, 614)","(1004, 618)","(1015, 615)","(1034, 619)","(1054, 624)","(1035, 642)","(1016, 648)","(1003, 648)","(991, 645)","(976, 635)","(970, 618)","(992, 621)","(1004, 624)","(1015, 623)","(1046, 625)","(1016, 633)","(1004, 633)","(992, 630)",0.31,0.97,34.0,0.36,0.08,0.35,0.03,-16.0,0.07,0.35,21.1,33.8,72.9,15.0,24.25,66.15,20.76,30.76,55.0
3166,-262144,88,-56,-1,-1,0,"(891, 466)","(890, 503)","(891, 539)","(896, 574)","(907, 607)","(927, 638)","(951, 663)","(978, 684)","(1008, 692)","(1039, 688)","(1070, 671)","(1098, 648)","(1119, 619)","(1134, 586)","(1141, 552)","(1146, 518)","(1148, 483)","(910, 452)","(928, 443)","(951, 444)","(973, 452)","(994, 465)","(1034, 469)","(1057, 460)","(1081, 455)","(1106, 457)","(1123, 469)","(1012, 493)","(1009, 516)","(1007, 539)","(1004, 564)","(983, 575)","(994, 582)","(1006, 586)","(1019, 584)","(1032, 579)","(935, 483)","(949, 477)","(966, 479)","(981, 491)","(964, 494)","(947, 492)","(1046, 495)","(1061, 486)","(1079, 487)","(1094, 494)","(1079, 502)","(1062, 501)","(968, 617)","(983, 615)","(997, 614)","(1008, 618)","(1018, 615)","(1035, 618)","(1054, 622)","(1037, 637)","(1020, 643)","(1008, 644)","(997, 642)","(983, 633)","(976, 619)","(997, 623)","(1008, 625)","(1018, 624)","(1046, 623)","(1020, 628)","(1009, 629)","(998, 627)",0.31,0.95,34.0,0.36,0.07,0.33,0.02,-16.5,0.07,0.35,20.3,31.8,70.0,12.2,18.9,59.85,19.0,28.7,51.76
3200,-458752,88,-56,-1,-1,0,"(884, 456)","(882, 494)","(884, 530)","(889, 565)","(901, 598)","(920, 628)","(946, 651)","(976, 670)","(1009, 678)","(1042, 676)","(1073, 662)","(1100, 640)","(1121, 613)","(1136, 581)","(1144, 548)","(1150, 513)","(1153, 478)","(911, 437)","(931, 426)","(956, 426)","(980, 435)","(1003, 448)","(1043, 453)","(1067, 444)","(1092, 440)","(1116, 444)","(1133, 458)","(1021, 476)","(1018, 500)","(1016, 524)","(1014, 549)","(987, 560)","(1000, 567)","(1013, 572)","(1027, 569)","(1041, 564)","(938, 466)","(953, 460)","(971, 461)","(986, 474)","(969, 478)","(951, 476)","(1054, 481)","(1070, 471)","(1088, 472)","(1103, 481)","(1088, 488)","(1070, 487)","(966, 600)","(985, 598)","(1001, 597)","(1013, 601)","(1026, 598)","(1043, 601)","(1062, 606)","(1044, 619)","(1026, 624)","(1013, 624)","(1000, 622)","(984, 614)","(975, 602)","(1000, 606)","(1013, 608)","(1025, 608)","(1054, 607)","(1027, 608)","(1014, 609)","(1002, 606)",0.32,0.85,34.0,0.36,0.08,0.35,0.01,-17.5,0.07,0.36,20.0,32.8,73.4,13.4,22.05,64.05,22.58,31.82,55.94
3466,3801088,88,-56,-1,-1,0,"(1078, 261)","(1075, 285)","(1076, 309)","(1079, 333)","(1087, 355)","(1099, 377)","(1114, 396)","(1132, 412)","(1153, 419)","(1176, 417)","(1198, 406)","(1219, 391)","(1236, 372)","(1250, 351)","(1257, 327)","(1261, 302)","(1263, 276)","(1094, 243)","(1106, 235)","(1122, 233)","(1139, 238)","(1153, 247)","(1181, 252)","(1198, 245)","(1215, 243)","(1232, 247)","(1244, 257)","(1164, 269)","(1162, 285)","(1161, 301)","(1159, 318)","(1140, 326)","(1148, 331)","(1158, 336)","(1169, 333)","(1179, 329)","(1110, 263)","(1120, 260)","(1132, 261)","(1142, 268)","(1130, 270)","(1119, 269)","(1189, 273)","(1200, 268)","(1212, 268)","(1222, 274)","(1211, 278)","(1200, 276)","(1124, 354)","(1137, 351)","(1149, 350)","(1158, 353)","(1168, 351)","(1181, 354)","(1195, 361)","(1180, 374)","(1166, 379)","(1156, 379)","(1146, 377)","(1135, 369)","(1130, 355)","(1148, 357)","(1158, 358)","(1167, 358)","(1189, 361)","(1167, 367)","(1157, 367)","(1148, 365)",0.27,0.9,34.0,0.35,0.07,0.38,0.04,-10.0,0.08,0.32,18.1,31.9,73.0,16.8,28.15,73.15,10.11,18.82,42.7
3500,-1310720,88,-56,-1,-1,0,"(1086, 255)","(1085, 279)","(1087, 303)","(1091, 326)","(1100, 347)","(1113, 367)","(1128, 385)","(1145, 400)","(1165, 406)","(1186, 404)","(1207, 393)","(1226, 379)","(1243, 362)","(1255, 342)","(1262, 319)","(1267, 295)","(1270, 271)","(1104, 240)","(1117, 231)","(1133, 229)","(1150, 233)","(1165, 241)","(1190, 244)","(1206, 238)","(1223, 236)","(1240, 240)","(1252, 250)","(1175, 261)","(1173, 276)","(1172, 291)","(1171, 307)","(1151, 315)","(1160, 320)","(1170, 323)","(1180, 321)","(1190, 317)","(1122, 258)","(1132, 255)","(1143, 255)","(1153, 262)","(1142, 263)","(1131, 262)","(1198, 265)","(1209, 260)","(1220, 261)","(1230, 265)","(1220, 269)","(1209, 268)","(1135, 343)","(1148, 338)","(1161, 337)","(1170, 339)","(1179, 338)","(1193, 340)","(1206, 347)","(1193, 362)","(1179, 367)","(1169, 368)","(1159, 366)","(1147, 359)","(1141, 344)","(1160, 343)","(1169, 345)","(1179, 344)","(1201, 347)","(1179, 355)","(1170, 356)","(1160, 354)",0.25,0.9,34.0,0.34,0.05,0.38,0.04,-8.5,0.08,0.31,17.5,29.6,66.9,17.4,28.65,72.95,8.17,16.47,35.52
3533,-589824,88,-56,-1,-1,0,"(1103, 249)","(1102, 272)","(1103, 295)","(1107, 317)","(1116, 338)","(1127, 358)","(1141, 375)","(1157, 390)","(1177, 395)","(1198, 393)","(1218, 382)","(1237, 366)","(1253, 348)","(1264, 328)","(1271, 305)","(1275, 282)","(1278, 258)","(1117, 232)","(1128, 224)","(1143, 222)","(1159, 227)","(1173, 236)","(1199, 238)","(1215, 231)","(1232, 229)","(1248, 233)","(1260, 242)","(1184, 256)","(1182, 271)","(1181, 286)","(1179, 302)","(1161, 309)","(1169, 314)","(1179, 318)","(1189, 315)","(1199, 312)","(1133, 250)","(1142, 246)","(1154, 247)","(1164, 255)","(1152, 257)","(1141, 256)","(1208, 259)","(1218, 253)","(1230, 253)","(1240, 259)","(1230, 263)","(1218, 262)","(1147, 336)","(1159, 332)","(1171, 331)","(1179, 334)","(1188, 332)","(1201, 335)","(1214, 340)","(1201, 355)","(1188, 360)","(1178, 361)","(1169, 359)","(1158, 351)","(1153, 337)","(1170, 337)","(1179, 339)","(1187, 338)","(1208, 341)","(1188, 349)","(1179, 349)","(1170, 347)",0.29,0.92,34.0,0.36,0.06,0.38,0.04,-10.5,0.08,0.33,17.9,31.9,71.3,17.6,27.75,72.45,9.41,17.82,40.7
3566,-262144,88,-56,-1,-1,0,"(1123, 246)","(1122, 267)","(1122, 288)","(1125, 309)","(1131, 329)","(1141, 347)","(1154, 363)","(1169, 377)","(1188, 383)","(1208, 381)","(1227, 370)","(1245, 356)","(1260, 339)","(1270, 320)","(1276, 299)","(1280, 277)","(1282, 255)","(1136, 230)","(1146, 223)","(1159, 222)","(1173, 226)","(1185, 233)","(1207, 235)","(1221, 229)","(1236, 227)","(1251, 230)","(1262, 238)","(1194, 249)","(1192, 264)","(1191, 278)","(1189, 294)","(1173, 299)","(1181, 304)","(1189, 308)","(1199, 305)","(1208, 302)","(1150, 247)","(1158, 244)","(1167, 244)","(1176, 250)","(1166, 251)","(1157, 251)","(1216, 252)","(1225, 248)","(1235, 248)","(1243, 253)","(1235, 256)","(1225, 255)","(1161, 325)","(1171, 321)","(1182, 320)","(1190, 322)","(1198, 321)","(1210, 324)","(1223, 329)","(1210, 343)","(1198, 348)","(1189, 348)","(1180, 346)","(1170, 339)","(1166, 326)","(1181, 326)","(1190, 327)","(1198, 327)","(1217, 330)","(1198, 336)","(1189, 337)","(1181, 335)",0.27,0.95,34.0,0.33,0.05,0.38,0.05,-7.5,0.08,0.33,17.9,31.6,72.3,18.1,28.0,71.05,9.64,19.52,44.23
3600,458752,88,-56,-1,-1,0,"(1128, 238)","(1127, 259)","(1129, 280)","(1133, 300)","(1140, 320)","(1151, 338)","(1164, 354)","(1180, 367)","(1198, 371)","(1218, 369)","(1236, 358)","(1253, 343)","(1266, 327)","(1275, 307)","(1280, 287)","(1283, 266)","(1283, 244)","(1142, 225)","(1151, 217)","(1165, 214)","(1179, 217)","(1193, 225)","(1216, 227)","(1230, 220)","(1244, 218)","(1258, 221)","(1269, 229)","(1203, 242)","(1202, 256)","(1201, 269)","(1200, 283)","(1184, 291)","(1191, 295)","(1200, 298)","(1209, 295)","(1217, 292)","(1156, 240)","(1165, 237)","(1175, 237)","(1184, 243)","(1174, 245)","(1164, 244)","(1223, 244)","(1233, 240)","(1242, 240)","(1251, 244)","(1242, 247)","(1232, 247)","(1171, 316)","(1181, 312)","(1192, 310)","(1200, 312)","(1208, 310)","(1220, 313)","(1232, 318)","(1220, 331)","(1209, 336)","(1200, 337)","(1191, 336)","(1181, 330)","(1176, 317)","(1192, 316)","(1200, 317)","(1208, 317)","(1227, 318)","(1208, 326)","(1200, 326)","(1192, 325)",0.25,0.92,34.0,0.36,0.01,0.39,0.04,-7.5,0.09,0.31,19.3,31.8,72.3,16.7,26.75,69.05,8.29,15.64,36.88
3633,1900544,88,-56,-1,-1,0,"(1143, 235)","(1141, 255)","(1141, 276)","(1144, 295)","(1150, 314)","(1160, 331)","(1173, 346)","(1188, 360)","(1205, 365)","(1224, 363)","(1242, 353)","(1259, 340)","(1274, 325)","(1284, 307)","(1291, 287)","(1295, 266)","(1296, 245)","(1154, 219)","(1164, 212)","(1176, 211)","(1190, 214)","(1202, 222)","(1227, 225)","(1240, 219)","(1255, 217)","(1269, 220)","(1280, 229)","(1212, 240)","(1211, 254)","(1209, 267)","(1207, 281)","(1193, 288)","(1200, 292)","(1208, 296)","(1216, 294)","(1225, 291)","(1168, 236)","(1176, 232)","(1186, 233)","(1195, 240)","(1185, 242)","(1175, 241)","(1234, 243)","(1243, 237)","(1254, 238)","(1262, 243)","(1254, 247)","(1243, 247)","(1179, 312)","(1190, 308)","(1200, 307)","(1208, 309)","(1215, 308)","(1227, 311)","(1239, 317)","(1226, 330)","(1214, 334)","(1206, 334)","(1198, 333)","(1188, 326)","(1184, 313)","(1200, 312)","(1207, 314)","(1215, 314)","(1234, 317)","(1215, 324)","(1207, 324)","(1199, 322)",0.33,0.93,34.0,0.36,0.06,0.39,0.04,-10.0,0.08,0.32,18.7,31.4,73.1,14.3,25.1,66.8,9.7,17.23,37.58
3666,1572864,88,-56,-1,-1,0,"(1147, 238)","(1146, 259)","(1147, 279)","(1149, 299)","(1155, 318)","(1165, 335)","(1178, 349)","(1193, 361)","(1211, 366)","(1230, 364)","(1248, 354)","(1264, 342)","(1277, 326)","(1287, 307)","(1292, 288)","(1295, 268)","(1297, 248)","(1158, 226)","(1168, 219)","(1181, 217)","(1195, 220)","(1207, 228)","(1232, 230)","(1246, 224)","(1260, 222)","(1274, 225)","(1284, 234)","(1218, 246)","(1217, 260)","(1216, 274)","(1215, 288)","(1199, 294)","(1206, 298)","(1214, 301)","(1223, 299)","(1230, 296)","(1173, 243)","(1181, 238)","(1192, 239)","(1200, 246)","(1190, 249)","(1180, 248)","(1239, 249)","(1248, 243)","(1258, 244)","(1266, 249)","(1258, 254)","(1248, 253)","(1187, 317)","(1197, 315)","(1207, 314)","(1214, 316)","(1221, 315)","(1232, 317)","(1243, 321)","(1232, 332)","(1220, 336)","(1213, 336)","(1205, 335)","(1196, 330)","(1192, 318)","(1207, 319)","(1214, 320)","(1221, 320)","(1238, 322)","(1221, 327)","(1213, 327)","(1206, 326)",0.37,0.91,34.0,0.36,0.05,0.37,0.04,-11.0,0.08,0.35,17.4,29.3,68.1,15.95,26.1,67.65,8.64,16.41,35.47
3699,-131072,88,-56,-1,-1,0,"(1148, 248)","(1147, 269)","(1147, 290)","(1148, 310)","(1154, 330)","(1164, 346)","(1178, 360)","(1194, 370)","(1213, 374)","(1233, 371)","(1251, 362)","(1267, 349)","(1279, 334)","(1288, 316)","(1292, 298)","(1296, 278)","(1299, 258)","(1163, 240)","(1173, 231)","(1187, 229)","(1201, 232)","(1215, 239)","(1235, 241)","(1249, 235)","(1263, 233)","(1277, 236)","(1286, 245)","(1224, 255)","(1222, 268)","(1221, 280)","(1220, 294)","(1204, 301)","(1211, 305)","(1219, 308)","(1227, 306)","(1235, 303)","(1178, 253)","(1187, 248)","(1198, 248)","(1206, 256)","(1196, 258)","(1186, 258)","(1241, 258)","(1250, 251)","(1261, 251)","(1268, 257)","(1261, 262)","(1250, 261)","(1190, 325)","(1202, 323)","(1212, 321)","(1218, 323)","(1225, 322)","(1235, 324)","(1246, 327)","(1235, 336)","(1225, 340)","(1217, 340)","(1210, 339)","(1200, 335)","(1196, 326)","(1211, 327)","(1218, 327)","(1225, 327)","(1241, 328)","(1225, 331)","(1218, 332)","(1211, 331)",0.38,0.82,34.0,0.36,0.02,0.37,0.02,-10.5,0.07,0.32,14.0,26.4,63.3,15.05,25.2,67.0,10.47,18.29,38.05
3733,-655360,88,-56,-1,-1,0,"(1149, 252)","(1147, 273)","(1147, 294)","(1148, 315)","(1154, 334)","(1164, 351)","(1179, 365)","(1196, 376)","(1215, 379)","(1234, 376)","(1251, 367)","(1267, 354)","(1279, 339)","(1288, 321)","(1293, 302)","(1296, 282)","(1298, 263)","(1163, 243)","(1174, 235)","(1187, 234)","(1201, 237)","(1214, 245)","(1238, 247)","(1251, 241)","(1264, 239)","(1277, 242)","(1286, 250)","(1224, 261)","(1223, 275)","(1222, 288)","(1221, 301)","(1205, 308)","(1212, 312)","(1220, 315)","(1228, 313)","(1236, 309)","(1178, 257)","(1187, 253)","(1197, 253)","(1205, 261)","(1196, 263)","(1185, 263)","(1242, 263)","(1251, 257)","(1261, 257)","(1269, 263)","(1261, 267)","(1251, 267)","(1191, 331)","(1202, 328)","(1212, 328)","(1219, 330)","(1227, 329)","(1237, 330)","(1247, 334)","(1236, 342)","(1226, 346)","(1218, 346)","(1210, 345)","(1201, 341)","(1196, 331)","(1212, 333)","(1219, 334)","(1226, 334)","(1242, 334)","(1226, 338)","(1219, 338)","(1212, 337)",0.37,0.83,34.0,0.36,0.05,0.37,0.02,-10.0,0.08,0.33,17.5,29.3,68.9,14.7,23.85,65.4,10.52,18.58,38.52
3766,-720896,88,-56,-1,-1,0,"(1162, 265)","(1161, 283)","(1161, 302)","(1163, 319)","(1169, 337)","(1178, 352)","(1190, 365)","(1204, 376)","(1220, 379)","(1237, 377)","(1253, 368)","(1267, 356)","(1278, 341)","(1286, 325)","(1290, 308)","(1293, 290)","(1294, 272)","(1174, 257)","(1183, 251)","(1195, 250)","(1206, 253)","(1218, 259)","(1238, 260)","(1249, 254)","(1261, 252)","(1274, 253)","(1283, 260)","(1227, 272)","(1226, 285)","(1225, 297)","(1224, 310)","(1210, 316)","(1216, 319)","(1223, 322)","(1231, 320)","(1238, 317)","(1187, 269)","(1195, 265)","(1204, 265)","(1212, 272)","(1203, 274)","(1194, 274)","(1243, 273)","(1252, 267)","(1261, 267)","(1268, 271)","(1261, 275)","(1252, 275)","(1199, 337)","(1208, 335)","(1217, 334)","(1224, 336)","(1230, 334)","(1240, 335)","(1250, 338)","(1240, 347)","(1230, 352)","(1223, 352)","(1216, 352)","(1207, 347)","(1203, 338)","(1217, 339)","(1223, 340)","(1230, 339)","(1245, 339)","(1230, 343)","(1223, 344)","(1217, 343)",0.31,0.89,34.0,0.38,0.02,0.38,0.03,-8.5,0.08,0.35,14.4,26.0,63.1,12.75,22.85,63.75,14.82,24.0,51.11
3800,-655360,88,-56,-1,-1,0,"(1161, 269)","(1160, 288)","(1160, 306)","(1162, 324)","(1168, 341)","(1177, 357)","(1189, 370)","(1203, 381)","(1220, 384)","(1236, 382)","(1252, 373)","(1266, 361)","(1278, 347)","(1286, 331)","(1290, 313)","(1292, 295)","(1293, 277)","(1174, 262)","(1183, 256)","(1195, 255)","(1207, 258)","(1219, 264)","(1238, 264)","(1250, 259)","(1262, 257)","(1274, 259)","(1282, 266)","(1227, 277)","(1226, 290)","(1225, 302)","(1224, 315)","(1210, 321)","(1217, 324)","(1224, 327)","(1231, 325)","(1238, 322)","(1188, 275)","(1196, 271)","(1205, 271)","(1212, 277)","(1204, 279)","(1195, 279)","(1244, 278)","(1252, 273)","(1261, 273)","(1268, 277)","(1261, 281)","(1252, 281)","(1199, 342)","(1209, 340)","(1217, 340)","(1223, 342)","(1229, 340)","(1238, 341)","(1248, 343)","(1238, 351)","(1229, 355)","(1222, 356)","(1216, 355)","(1208, 350)","(1203, 342)","(1217, 345)","(1223, 346)","(1229, 345)","(1244, 344)","(1229, 347)","(1223, 348)","(1217, 347)",0.33,0.85,34.0,0.36,0.04,0.37,0.02,-8.0,0.08,0.35,16.1,26.2,64.3,11.1,20.45,61.55,12.64,23.17,49.41
3833,-458752,88,-56,-1,-1,0,"(1162, 270)","(1161, 289)","(1160, 306)","(1162, 324)","(1168, 342)","(1177, 357)","(1189, 371)","(1203, 382)","(1219, 386)","(1236, 384)","(1252, 375)","(1266, 363)","(1277, 348)","(1285, 332)","(1289, 315)","(1291, 297)","(1292, 279)","(1175, 263)","(1184, 257)","(1195, 256)","(1207, 260)","(1218, 266)","(1239, 267)","(1250, 262)","(1262, 260)","(1274, 261)","(1282, 268)","(1227, 280)","(1226, 292)","(1225, 305)","(1224, 318)","(1211, 323)","(1217, 327)","(1223, 329)","(1231, 327)","(1238, 324)","(1188, 276)","(1196, 272)","(1205, 273)","(1212, 279)","(1204, 281)","(1195, 280)","(1244, 281)","(1252, 275)","(1261, 275)","(1268, 280)","(1261, 284)","(1252, 283)","(1199, 343)","(1208, 342)","(1217, 342)","(1223, 344)","(1230, 343)","(1239, 343)","(1248, 345)","(1239, 355)","(1229, 358)","(1222, 359)","(1216, 358)","(1207, 353)","(1203, 344)","(1217, 347)","(1223, 348)","(1229, 347)","(1244, 346)","(1229, 350)","(1223, 351)","(1217, 349)",0.35,0.86,34.0,0.36,0.04,0.37,0.02,-9.0,0.08,0.35,16.1,26.0,63.7,10.7,20.5,61.15,13.17,23.47,50.58
3866,-524288,88,-56,-1,-1,0,"(1161, 270)","(1160, 288)","(1160, 306)","(1162, 324)","(1167, 341)","(1177, 357)","(1189, 370)","(1203, 381)","(1220, 385)","(1236, 383)","(1253, 375)","(1267, 363)","(1278, 348)","(1286, 332)","(1289, 315)","(1291, 298)","(1292, 280)","(1173, 262)","(1182, 257)","(1194, 256)","(1206, 260)","(1217, 266)","(1239, 267)","(1251, 262)","(1263, 260)","(1275, 262)","(1283, 269)","(1227, 280)","(1226, 291)","(1225, 303)","(1223, 316)","(1210, 321)","(1216, 325)","(1223, 328)","(1231, 326)","(1238, 323)","(1187, 276)","(1194, 272)","(1203, 273)","(1211, 279)","(1202, 281)","(1193, 280)","(1244, 281)","(1252, 276)","(1261, 276)","(1269, 281)","(1262, 284)","(1253, 284)","(1198, 342)","(1208, 340)","(1217, 339)","(1223, 341)","(1230, 340)","(1239, 342)","(1249, 345)","(1239, 354)","(1229, 358)","(1222, 358)","(1215, 357)","(1207, 352)","(1203, 343)","(1217, 344)","(1223, 346)","(1230, 345)","(1245, 345)","(1230, 350)","(1223, 350)","(1216, 348)",0.32,0.85,34.0,0.37,0.06,0.38,0.02,-8.5,0.08,0.34,15.3,26.8,63.8,13.45,22.0,63.45,11.35,21.58,46.94
3900,-262144,88,-56,-1,-1,0,"(1162, 272)","(1161, 290)","(1161, 308)","(1162, 325)","(1168, 342)","(1177, 357)","(1190, 370)","(1204, 381)","(1220, 384)","(1236, 382)","(1252, 373)","(1266, 361)","(1277, 347)","(1285, 331)","(1288, 314)","(1290, 297)","(1291, 280)","(1173, 264)","(1182, 258)","(1193, 257)","(1205, 260)","(1216, 266)","(1238, 267)","(1249, 262)","(1261, 260)","(1273, 262)","(1281, 268)","(1226, 280)","(1225, 292)","(1223, 304)","(1222, 316)","(1210, 323)","(1216, 326)","(1222, 329)","(1229, 327)","(1236, 324)","(1186, 277)","(1194, 274)","(1203, 274)","(1210, 280)","(1202, 282)","(1193, 281)","(1243, 281)","(1251, 276)","(1260, 276)","(1267, 280)","(1260, 284)","(1251, 284)","(1198, 343)","(1207, 341)","(1216, 341)","(1222, 342)","(1228, 341)","(1238, 342)","(1247, 345)","(1238, 354)","(1228, 358)","(1222, 358)","(1215, 357)","(1207, 353)","(1203, 344)","(1216, 346)","(1222, 347)","(1228, 346)","(1243, 345)","(1228, 349)","(1222, 350)","(1216, 349)",0.33,0.89,34.0,0.37,0.03,0.37,0.02,-8.0,0.07,0.34,15.8,26.7,64.2,12.7,21.55,60.55,12.94,23.23,49.23
3933,-655360,88,-56,-1,-1,0,"(1165, 270)","(1163, 288)","(1163, 305)","(1164, 323)","(1169, 340)","(1178, 355)","(1189, 369)","(1203, 381)","(1219, 385)","(1235, 383)","(1251, 374)","(1265, 361)","(1276, 347)","(1284, 330)","(1288, 313)","(1290, 296)","(1291, 278)","(1173, 261)","(1181, 256)","(1193, 256)","(1204, 260)","(1214, 266)","(1236, 267)","(1247, 262)","(1260, 260)","(1272, 262)","(1280, 268)","(1224, 279)","(1223, 291)","(1222, 303)","(1220, 316)","(1208, 321)","(1214, 324)","(1220, 327)","(1228, 326)","(1234, 323)","(1185, 274)","(1193, 270)","(1202, 271)","(1209, 278)","(1200, 279)","(1192, 278)","(1241, 280)","(1249, 274)","(1258, 275)","(1266, 279)","(1259, 283)","(1250, 282)","(1196, 341)","(1205, 339)","(1214, 339)","(1220, 341)","(1226, 340)","(1236, 341)","(1246, 344)","(1236, 354)","(1226, 359)","(1219, 359)","(1212, 358)","(1204, 352)","(1200, 342)","(1214, 344)","(1220, 345)","(1226, 344)","(1242, 345)","(1227, 350)","(1220, 351)","(1213, 349)",0.32,0.91,34.0,0.39,0.07,0.39,0.03,-9.0,0.07,0.34,14.4,26.8,63.0,12.9,22.3,63.5,12.41,22.88,50.47
3966,-786432,88,-56,-1,-1,0,"(1160, 265)","(1159, 283)","(1159, 301)","(1160, 319)","(1166, 336)","(1175, 352)","(1186, 366)","(1200, 378)","(1215, 383)","(1232, 380)","(1249, 371)","(1263, 358)","(1275, 344)","(1284, 327)","(1288, 309)","(1291, 291)","(1292, 272)","(1170, 257)","(1179, 252)","(1190, 253)","(1201, 256)","(1211, 262)","(1232, 263)","(1244, 258)","(1256, 255)","(1269, 256)","(1279, 262)","(1221, 275)","(1220, 288)","(1218, 301)","(1217, 315)","(1205, 318)","(1210, 322)","(1217, 326)","(1225, 323)","(1232, 320)","(1182, 270)","(1190, 267)","(1198, 268)","(1206, 274)","(1197, 276)","(1188, 275)","(1239, 276)","(1247, 270)","(1256, 270)","(1263, 274)","(1256, 278)","(1247, 278)","(1193, 337)","(1202, 337)","(1211, 336)","(1217, 338)","(1224, 337)","(1234, 338)","(1245, 340)","(1235, 351)","(1224, 356)","(1217, 357)","(1209, 355)","(1201, 349)","(1197, 339)","(1211, 341)","(1217, 342)","(1224, 342)","(1241, 341)","(1224, 347)","(1217, 348)","(1210, 346)",0.33,0.93,34.0,0.36,0.04,0.39,0.04,-8.5,0.08,0.37,14.6,26.0,62.5,13.6,22.8,63.95,9.88,19.0,46.88
4000,2686976,88,-56,-1,-1,0,"(1148, 260)","(1147, 279)","(1147, 298)","(1149, 317)","(1154, 336)","(1164, 353)","(1178, 367)","(1194, 378)","(1211, 383)","(1230, 381)","(1249, 372)","(1266, 359)","(1278, 343)","(1286, 325)","(1289, 306)","(1292, 287)","(1293, 267)","(1157, 252)","(1166, 245)","(1178, 244)","(1191, 247)","(1203, 254)","(1229, 255)","(1242, 249)","(1256, 247)","(1270, 250)","(1280, 257)","(1215, 270)","(1214, 282)","(1213, 294)","(1212, 307)","(1199, 314)","(1205, 318)","(1212, 321)","(1220, 319)","(1227, 316)","(1172, 266)","(1180, 262)","(1190, 263)","(1199, 269)","(1189, 272)","(1179, 271)","(1235, 271)","(1244, 265)","(1255, 265)","(1263, 270)","(1255, 274)","(1244, 274)","(1186, 338)","(1196, 335)","(1206, 333)","(1213, 335)","(1219, 334)","(1230, 336)","(1242, 340)","(1230, 350)","(1220, 354)","(1212, 355)","(1205, 353)","(1195, 348)","(1192, 339)","(1206, 339)","(1212, 340)","(1219, 340)","(1236, 340)","(1220, 345)","(1213, 346)","(1206, 344)",0.32,0.91,34.0,0.38,0.04,0.38,0.03,-9.5,0.08,0.32,17.9,31.3,70.1,14.15,23.2,64.9,15.35,25.05,53.11
4033,-2621440,88,-56,-1,-1,0,"(1135, 252)","(1135, 274)","(1136, 294)","(1140, 314)","(1147, 334)","(1157, 352)","(1171, 367)","(1187, 380)","(1205, 384)","(1223, 381)","(1240, 370)","(1256, 356)","(1268, 340)","(1276, 321)","(1280, 302)","(1283, 282)","(1284, 262)","(1146, 247)","(1156, 241)","(1170, 240)","(1184, 244)","(1197, 251)","(1223, 252)","(1236, 247)","(1250, 244)","(1264, 246)","(1274, 253)","(1209, 267)","(1208, 281)","(1207, 295)","(1206, 309)","(1192, 314)","(1199, 318)","(1206, 322)","(1215, 319)","(1222, 316)","(1162, 262)","(1171, 258)","(1182, 259)","(1191, 266)","(1181, 268)","(1170, 267)","(1228, 268)","(1238, 262)","(1249, 262)","(1257, 267)","(1249, 271)","(1238, 271)","(1178, 336)","(1189, 334)","(1199, 334)","(1206, 336)","(1214, 334)","(1225, 335)","(1236, 338)","(1225, 350)","(1214, 356)","(1206, 356)","(1198, 355)","(1188, 349)","(1183, 337)","(1199, 339)","(1206, 340)","(1214, 339)","(1231, 339)","(1214, 346)","(1207, 347)","(1199, 345)",0.31,0.88,34.0,0.39,0.04,0.38,0.04,-9.5,0.08,0.35,17.0,29.5,68.2,15.1,24.15,65.95,10.64,21.35,47.88
4066,-589824,88,-56,-1,-1,0,"(1125, 251)","(1125, 273)","(1127, 294)","(1131, 315)","(1137, 335)","(1148, 354)","(1162, 370)","(1178, 384)","(1197, 389)","(1217, 385)","(1235, 373)","(1252, 358)","(1265, 340)","(1273, 320)","(1277, 299)","(1279, 278)","(1280, 256)","(1135, 246)","(1146, 239)","(1160, 238)","(1173, 242)","(1187, 249)","(1213, 250)","(1227, 244)","(1242, 241)","(1257, 242)","(1268, 249)","(1200, 265)","(1199, 280)","(1198, 294)","(1197, 310)","(1182, 315)","(1189, 319)","(1198, 322)","(1206, 320)","(1214, 316)","(1151, 261)","(1160, 256)","(1171, 257)","(1181, 264)","(1170, 266)","(1159, 266)","(1220, 265)","(1230, 258)","(1241, 259)","(1250, 264)","(1242, 268)","(1231, 268)","(1169, 337)","(1180, 336)","(1191, 335)","(1198, 337)","(1206, 335)","(1218, 336)","(1230, 339)","(1218, 353)","(1206, 358)","(1198, 359)","(1189, 358)","(1179, 351)","(1174, 338)","(1190, 341)","(1198, 342)","(1206, 341)","(1224, 340)","(1206, 348)","(1198, 349)","(1190, 347)",0.31,0.9,34.0,0.38,0.01,0.39,0.03,-10.0,0.09,0.36,18.0,30.1,70.0,13.15,23.7,66.0,12.29,22.29,50.41
4100,-327680,88,-56,-1,-1,0,"(1105, 258)","(1107, 282)","(1110, 304)","(1114, 326)","(1121, 347)","(1132, 367)","(1145, 385)","(1163, 398)","(1184, 402)","(1206, 400)","(1227, 389)","(1245, 374)","(1259, 355)","(1269, 334)","(1274, 311)","(1278, 288)","(1280, 264)","(1119, 251)","(1130, 243)","(1145, 241)","(1161, 245)","(1176, 252)","(1202, 252)","(1218, 245)","(1234, 242)","(1251, 243)","(1264, 252)","(1188, 267)","(1187, 283)","(1185, 299)","(1184, 316)","(1169, 323)","(1176, 327)","(1185, 330)","(1195, 327)","(1204, 323)","(1137, 267)","(1146, 261)","(1158, 261)","(1169, 269)","(1158, 272)","(1145, 272)","(1211, 269)","(1222, 261)","(1234, 261)","(1244, 267)","(1234, 272)","(1222, 272)","(1156, 349)","(1167, 347)","(1178, 346)","(1186, 348)","(1194, 346)","(1206, 347)","(1219, 350)","(1206, 361)","(1194, 366)","(1186, 367)","(1177, 366)","(1167, 360)","(1162, 350)","(1178, 351)","(1186, 352)","(1194, 351)","(1213, 351)","(1194, 355)","(1186, 356)","(1178, 355)",0.33,0.89,34.0,0.37,0.0,0.36,0.03,-11.0,0.09,0.36,18.1,30.4,70.8,14.4,24.3,68.6,13.58,22.7,49.76
4133,0,88,-56,-1,-1,0,"(1087, 257)","(1087, 282)","(1089, 307)","(1094, 331)","(1102, 354)","(1115, 375)","(1131, 394)","(1149, 410)","(1171, 415)","(1193, 412)","(1214, 398)","(1232, 381)","(1247, 362)","(1257, 340)","(1262, 316)","(1265, 292)","(1267, 267)","(1103, 250)","(1115, 243)","(1131, 243)","(1147, 248)","(1162, 256)","(1191, 259)","(1206, 252)","(1223, 248)","(1239, 250)","(1251, 258)","(1175, 275)","(1174, 291)","(1173, 307)","(1172, 324)","(1155, 331)","(1163, 336)","(1172, 339)","(1182, 337)","(1191, 333)","(1121, 268)","(1132, 263)","(1145, 264)","(1155, 273)","(1143, 276)","(1130, 275)","(1198, 276)","(1209, 268)","(1221, 268)","(1231, 274)","(1222, 280)","(1209, 280)","(1140, 356)","(1152, 354)","(1165, 353)","(1173, 356)","(1181, 354)","(1194, 356)","(1208, 360)","(1195, 373)","(1182, 379)","(1172, 380)","(1163, 378)","(1152, 371)","(1146, 358)","(1164, 360)","(1173, 361)","(1181, 361)","(1202, 360)","(1182, 367)","(1173, 368)","(1164, 366)",0.36,0.9,34.0,0.37,0.04,0.37,0.03,-12.5,0.08,0.35,19.7,32.7,74.5,14.5,25.0,68.9,11.35,20.76,46.47
4166,1048576,88,-56,-1,-1,0,"(1057, 293)","(1057, 324)","(1060, 354)","(1067, 385)","(1079, 413)","(1096, 440)","(1116, 465)","(1140, 484)","(1170, 489)","(1199, 484)","(1224, 464)","(1244, 439)","(1260, 412)","(1272, 383)","(1277, 353)","(1279, 323)","(1278, 294)","(1079, 271)","(1093, 260)","(1111, 256)","(1130, 260)","(1148, 269)","(1184, 270)","(1201, 261)","(1220, 257)","(1239, 260)","(1254, 271)","(1166, 293)","(1166, 312)","(1167, 332)","(1167, 353)","(1145, 365)","(1156, 370)","(1168, 374)","(1181, 370)","(1192, 365)","(1102, 292)","(1113, 284)","(1128, 284)","(1140, 294)","(1127, 298)","(1113, 297)","(1195, 294)","(1207, 284)","(1221, 283)","(1233, 291)","(1222, 297)","(1208, 297)","(1123, 400)","(1140, 394)","(1158, 392)","(1170, 394)","(1182, 392)","(1201, 394)","(1217, 401)","(1202, 425)","(1184, 435)","(1171, 437)","(1157, 435)","(1139, 424)","(1131, 402)","(1158, 400)","(1171, 402)","(1183, 401)","(1210, 403)","(1183, 420)","(1170, 421)","(1158, 419)",0.35,0.89,34.0,0.34,-0.0,0.42,0.06,-13.5,0.11,0.3,21.8,34.2,76.8,14.05,24.85,65.55,19.29,28.88,53.11
4400,-393216,88,-56,-1,-1,0,"(881, 451)","(879, 490)","(879, 528)","(885, 564)","(899, 598)","(920, 628)","(945, 653)","(973, 674)","(1004, 683)","(1037, 680)","(1067, 662)","(1095, 638)","(1117, 611)","(1134, 579)","(1143, 545)","(1148, 509)","(1152, 474)","(908, 434)","(929, 423)","(953, 424)","(978, 432)","(1000, 446)","(1039, 451)","(1063, 442)","(1087, 438)","(1111, 442)","(1127, 455)","(1017, 473)","(1014, 497)","(1011, 521)","(1009, 546)","(982, 556)","(995, 564)","(1009, 570)","(1024, 567)","(1038, 561)","(936, 463)","(951, 456)","(969, 458)","(984, 471)","(967, 474)","(949, 472)","(1050, 477)","(1066, 468)","(1084, 469)","(1099, 478)","(1084, 485)","(1066, 484)","(962, 598)","(981, 595)","(997, 594)","(1010, 598)","(1022, 596)","(1040, 600)","(1059, 607)","(1040, 623)","(1021, 629)","(1008, 629)","(995, 626)","(979, 616)","(970, 600)","(997, 603)","(1009, 606)","(1021, 606)","(1051, 607)","(1022, 612)","(1009, 612)","(997, 609)",0.32,0.88,34.0,0.35,0.08,0.35,0.02,-17.5,0.07,0.34,22.1,36.6,78.7,15.3,25.95,69.55,21.7,31.52,54.58
4433,-524288,88,-56,-1,-1,0,"(881, 454)","(878, 493)","(880, 531)","(885, 568)","(899, 603)","(919, 635)","(944, 661)","(972, 684)","(1002, 693)","(1035, 689)","(1066, 670)","(1095, 645)","(1118, 615)","(1134, 581)","(1142, 545)","(1147, 508)","(1150, 470)","(902, 442)","(920, 431)","(945, 433)","(969, 442)","(991, 456)","(1030, 460)","(1055, 450)","(1080, 445)","(1106, 447)","(1124, 460)","(1009, 483)","(1006, 510)","(1003, 536)","(1001, 564)","(977, 571)","(988, 579)","(1002, 585)","(1017, 582)","(1031, 576)","(931, 471)","(945, 466)","(962, 467)","(977, 479)","(960, 482)","(942, 481)","(1044, 485)","(1060, 476)","(1078, 477)","(1092, 485)","(1078, 493)","(1060, 492)","(963, 610)","(979, 611)","(993, 611)","(1005, 616)","(1016, 614)","(1033, 616)","(1052, 618)","(1034, 633)","(1016, 638)","(1004, 638)","(992, 635)","(978, 626)","(971, 612)","(993, 619)","(1004, 622)","(1016, 622)","(1044, 619)","(1016, 623)","(1005, 623)","(993, 619)",0.33,0.91,34.0,0.35,0.07,0.33,0.01,-16.5,0.08,0.38,19.1,32.1,70.4,10.6,17.15,58.15,22.35,32.88,56.64
4466,-196608,88,-56,-1,-1,0,"(879, 444)","(877, 484)","(877, 522)","(882, 559)","(895, 593)","(914, 624)","(939, 650)","(966, 672)","(997, 682)","(1030, 679)","(1062, 662)","(1092, 640)","(1116, 612)","(1134, 579)","(1143, 544)","(1150, 506)","(1153, 469)","(900, 430)","(920, 421)","(945, 423)","(968, 433)","(990, 447)","(1031, 451)","(1055, 442)","(1081, 438)","(1106, 441)","(1125, 454)","(1008, 474)","(1005, 499)","(1002, 524)","(999, 550)","(974, 559)","(986, 567)","(1000, 573)","(1015, 570)","(1030, 565)","(927, 461)","(942, 455)","(961, 457)","(976, 471)","(958, 474)","(939, 471)","(1043, 478)","(1060, 468)","(1078, 469)","(1094, 478)","(1078, 486)","(1060, 485)","(956, 599)","(974, 598)","(990, 598)","(1001, 602)","(1013, 600)","(1032, 603)","(1052, 609)","(1032, 625)","(1013, 629)","(1000, 629)","(987, 626)","(972, 617)","(964, 602)","(989, 607)","(1001, 610)","(1013, 609)","(1044, 609)","(1013, 613)","(1001, 613)","(989, 610)",0.33,0.92,34.0,0.36,0.1,0.35,0.02,-18.5,0.08,0.36,22.9,36.6,78.1,15.0,24.1,67.9,22.58,32.11,54.82
4766,1572864,88,-56,-1,-1,0,"(1060, 262)","(1059, 288)","(1061, 313)","(1064, 338)","(1073, 362)","(1086, 383)","(1102, 402)","(1121, 417)","(1143, 422)","(1166, 420)","(1189, 408)","(1209, 393)","(1225, 374)","(1237, 352)","(1243, 327)","(1247, 302)","(1248, 277)","(1075, 248)","(1088, 238)","(1106, 237)","(1124, 241)","(1141, 250)","(1169, 253)","(1186, 247)","(1204, 245)","(1221, 249)","(1233, 260)","(1152, 271)","(1151, 287)","(1149, 303)","(1148, 319)","(1127, 329)","(1137, 334)","(1147, 338)","(1158, 335)","(1169, 332)","(1093, 267)","(1104, 264)","(1117, 264)","(1128, 271)","(1115, 273)","(1103, 272)","(1177, 275)","(1189, 270)","(1201, 271)","(1211, 276)","(1201, 279)","(1188, 278)","(1111, 359)","(1125, 356)","(1138, 354)","(1147, 357)","(1156, 355)","(1170, 359)","(1183, 364)","(1169, 376)","(1156, 381)","(1145, 381)","(1135, 379)","(1123, 372)","(1118, 360)","(1137, 361)","(1146, 363)","(1156, 363)","(1177, 365)","(1156, 368)","(1146, 369)","(1137, 367)",0.23,0.86,34.0,0.36,0.06,0.38,0.03,-9.0,0.09,0.31,16.8,28.5,63.6,16.85,28.3,74.65,10.05,18.94,39.23
4800,393216,88,-56,-1,-1,0,"(1078, 260)","(1076, 283)","(1077, 306)","(1080, 329)","(1088, 351)","(1100, 370)","(1115, 388)","(1131, 403)","(1151, 408)","(1173, 407)","(1195, 396)","(1216, 383)","(1233, 365)","(1246, 345)","(1254, 322)","(1258, 297)","(1261, 273)","(1094, 244)","(1105, 235)","(1121, 233)","(1137, 237)","(1152, 244)","(1179, 248)","(1195, 241)","(1213, 240)","(1229, 243)","(1242, 253)","(1162, 264)","(1160, 279)","(1159, 294)","(1157, 310)","(1138, 319)","(1147, 323)","(1156, 327)","(1167, 325)","(1177, 321)","(1109, 262)","(1119, 258)","(1130, 259)","(1141, 265)","(1129, 267)","(1118, 266)","(1187, 268)","(1198, 263)","(1209, 264)","(1220, 269)","(1209, 272)","(1198, 271)","(1122, 347)","(1135, 342)","(1147, 341)","(1156, 344)","(1165, 342)","(1179, 345)","(1193, 352)","(1178, 365)","(1164, 370)","(1154, 371)","(1144, 369)","(1133, 361)","(1128, 348)","(1146, 348)","(1155, 350)","(1164, 349)","(1187, 352)","(1164, 358)","(1155, 359)","(1146, 357)",0.24,0.91,34.0,0.35,0.03,0.38,0.04,-9.0,0.08,0.31,18.5,30.2,69.2,16.2,27.95,73.3,9.23,17.47,39.0
4833,-393216,88,-56,-1,-1,0,"(1090, 256)","(1089, 278)","(1090, 300)","(1094, 321)","(1103, 342)","(1115, 360)","(1131, 377)","(1148, 390)","(1168, 394)","(1189, 391)","(1208, 379)","(1225, 364)","(1238, 346)","(1247, 325)","(1251, 304)","(1251, 282)","(1251, 260)","(1107, 242)","(1116, 234)","(1130, 231)","(1145, 234)","(1158, 240)","(1181, 242)","(1194, 236)","(1209, 234)","(1223, 236)","(1234, 245)","(1168, 258)","(1168, 272)","(1167, 285)","(1167, 299)","(1150, 308)","(1158, 312)","(1167, 315)","(1176, 312)","(1185, 308)","(1122, 257)","(1130, 254)","(1140, 254)","(1149, 259)","(1139, 260)","(1130, 260)","(1189, 260)","(1198, 255)","(1208, 256)","(1216, 259)","(1207, 262)","(1198, 262)","(1136, 335)","(1147, 329)","(1159, 327)","(1167, 329)","(1176, 327)","(1188, 329)","(1199, 336)","(1188, 350)","(1176, 356)","(1167, 357)","(1158, 356)","(1147, 349)","(1141, 336)","(1158, 334)","(1167, 335)","(1175, 334)","(1194, 336)","(1176, 345)","(1168, 346)","(1159, 345)",0.24,0.88,34.0,0.33,0.0,0.39,0.04,-6.5,0.1,0.3,18.3,30.9,70.7,14.7,24.95,68.4,10.94,19.82,44.58
4866,-524288,88,-56,-1,-1,0,"(1105, 248)","(1104, 268)","(1105, 290)","(1109, 310)","(1118, 329)","(1129, 347)","(1143, 362)","(1159, 376)","(1178, 380)","(1199, 377)","(1217, 366)","(1234, 351)","(1247, 334)","(1257, 315)","(1262, 293)","(1264, 272)","(1264, 250)","(1120, 233)","(1130, 226)","(1143, 224)","(1157, 227)","(1169, 234)","(1192, 235)","(1205, 229)","(1219, 226)","(1234, 228)","(1245, 235)","(1179, 249)","(1178, 264)","(1178, 278)","(1177, 292)","(1161, 299)","(1168, 303)","(1177, 307)","(1187, 303)","(1195, 299)","(1134, 247)","(1142, 244)","(1152, 244)","(1161, 250)","(1151, 252)","(1141, 251)","(1201, 251)","(1210, 246)","(1219, 246)","(1228, 250)","(1219, 253)","(1210, 253)","(1148, 325)","(1159, 320)","(1170, 318)","(1178, 320)","(1186, 318)","(1198, 320)","(1210, 325)","(1198, 339)","(1187, 344)","(1178, 345)","(1169, 344)","(1158, 338)","(1153, 325)","(1169, 324)","(1177, 325)","(1186, 324)","(1204, 326)","(1186, 334)","(1178, 335)","(1170, 333)",0.25,0.89,34.0,0.34,0.01,0.38,0.04,-7.5,0.1,0.32,18.1,31.3,72.4,15.4,24.9,68.3,9.76,18.82,44.35
4900,-524288,88,-56,-1,-1,0,"(1111, 237)","(1111, 259)","(1113, 281)","(1118, 301)","(1127, 321)","(1139, 338)","(1153, 354)","(1169, 366)","(1188, 370)","(1207, 366)","(1224, 354)","(1239, 340)","(1252, 323)","(1261, 304)","(1265, 283)","(1267, 263)","(1267, 242)","(1125, 225)","(1136, 217)","(1150, 216)","(1165, 219)","(1178, 226)","(1202, 227)","(1215, 220)","(1229, 217)","(1243, 219)","(1253, 226)","(1189, 242)","(1188, 256)","(1188, 270)","(1187, 284)","(1171, 292)","(1179, 296)","(1187, 299)","(1196, 295)","(1204, 291)","(1140, 242)","(1149, 238)","(1159, 238)","(1169, 243)","(1159, 246)","(1148, 246)","(1208, 244)","(1218, 239)","(1227, 239)","(1236, 242)","(1228, 246)","(1218, 246)","(1158, 318)","(1169, 314)","(1180, 312)","(1187, 313)","(1195, 311)","(1206, 312)","(1217, 316)","(1207, 330)","(1197, 336)","(1188, 337)","(1180, 336)","(1169, 331)","(1164, 319)","(1180, 318)","(1187, 318)","(1195, 317)","(1212, 317)","(1196, 325)","(1188, 326)","(1181, 325)",0.25,0.86,34.0,0.36,-0.0,0.37,0.04,-7.5,0.09,0.32,19.0,32.3,73.1,15.7,25.65,67.9,8.88,15.76,36.11
4933,-524288,88,-56,-1,-1,0,"(1132, 232)","(1130, 253)","(1131, 273)","(1134, 293)","(1140, 312)","(1150, 330)","(1162, 346)","(1176, 360)","(1193, 365)","(1212, 362)","(1230, 352)","(1247, 338)","(1261, 321)","(1272, 302)","(1277, 282)","(1281, 261)","(1283, 239)","(1141, 222)","(1150, 216)","(1162, 215)","(1175, 219)","(1187, 226)","(1212, 227)","(1225, 221)","(1239, 218)","(1254, 220)","(1265, 227)","(1198, 242)","(1196, 256)","(1194, 270)","(1193, 285)","(1179, 290)","(1185, 295)","(1194, 299)","(1203, 296)","(1211, 292)","(1154, 238)","(1162, 233)","(1172, 234)","(1181, 241)","(1171, 243)","(1161, 242)","(1220, 243)","(1228, 237)","(1239, 237)","(1247, 242)","(1239, 246)","(1229, 245)","(1168, 314)","(1177, 312)","(1187, 311)","(1194, 313)","(1201, 311)","(1213, 313)","(1225, 316)","(1213, 329)","(1202, 334)","(1193, 335)","(1186, 333)","(1176, 327)","(1173, 315)","(1187, 316)","(1194, 317)","(1201, 316)","(1220, 316)","(1202, 324)","(1194, 325)","(1187, 324)",0.31,0.97,34.0,0.35,0.04,0.37,0.04,-9.5,0.08,0.34,18.8,31.3,73.5,15.4,25.15,68.9,7.94,16.35,38.0
4966,-458752,88,-56,-1,-1,0,"(1135, 234)","(1134, 255)","(1135, 275)","(1138, 294)","(1144, 313)","(1153, 330)","(1166, 346)","(1180, 359)","(1197, 364)","(1216, 361)","(1234, 350)","(1250, 337)","(1263, 320)","(1273, 301)","(1278, 282)","(1281, 261)","(1283, 240)","(1143, 225)","(1152, 218)","(1164, 217)","(1177, 221)","(1189, 228)","(1214, 229)","(1227, 223)","(1241, 220)","(1256, 221)","(1267, 229)","(1200, 244)","(1199, 259)","(1198, 273)","(1196, 288)","(1182, 293)","(1189, 297)","(1197, 300)","(1206, 297)","(1214, 294)","(1157, 241)","(1165, 237)","(1175, 237)","(1184, 244)","(1174, 247)","(1163, 246)","(1222, 245)","(1231, 239)","(1241, 239)","(1249, 244)","(1241, 248)","(1231, 248)","(1171, 316)","(1181, 314)","(1191, 313)","(1198, 315)","(1205, 313)","(1216, 314)","(1228, 316)","(1217, 329)","(1206, 334)","(1198, 335)","(1190, 334)","(1181, 328)","(1177, 317)","(1190, 318)","(1198, 319)","(1205, 318)","(1223, 317)","(1205, 324)","(1198, 325)","(1191, 324)",0.33,0.91,34.0,0.36,0.03,0.38,0.04,-9.5,0.09,0.36,18.8,30.9,69.7,15.0,25.05,68.0,7.58,14.76,33.88
5000,-655360,88,-56,-1,-1,0,"(1145, 244)","(1144, 262)","(1145, 280)","(1147, 298)","(1152, 316)","(1161, 332)","(1172, 347)","(1186, 359)","(1203, 364)","(1222, 361)","(1239, 350)","(1253, 337)","(1265, 321)","(1272, 304)","(1276, 285)","(1277, 266)","(1278, 247)","(1153, 234)","(1160, 228)","(1171, 227)","(1183, 229)","(1193, 235)","(1216, 236)","(1227, 230)","(1240, 228)","(1253, 230)","(1263, 237)","(1204, 250)","(1203, 262)","(1202, 273)","(1201, 286)","(1188, 292)","(1195, 296)","(1202, 299)","(1210, 297)","(1217, 294)","(1165, 247)","(1172, 243)","(1182, 243)","(1190, 250)","(1181, 252)","(1171, 251)","(1223, 251)","(1231, 245)","(1240, 245)","(1248, 250)","(1241, 254)","(1231, 254)","(1177, 315)","(1186, 311)","(1196, 310)","(1202, 312)","(1209, 310)","(1221, 312)","(1232, 316)","(1221, 329)","(1210, 334)","(1202, 335)","(1195, 333)","(1186, 328)","(1182, 316)","(1196, 316)","(1202, 317)","(1210, 316)","(1227, 317)","(1210, 324)","(1203, 325)","(1196, 323)",0.36,0.97,34.0,0.37,0.02,0.41,0.04,-9.0,0.09,0.31,16.4,28.1,67.1,14.6,24.1,65.9,10.76,19.35,45.35
5033,-327680,88,-56,-1,-1,0,"(1148, 246)","(1146, 264)","(1147, 282)","(1149, 299)","(1154, 317)","(1163, 333)","(1175, 348)","(1188, 360)","(1205, 365)","(1223, 362)","(1240, 352)","(1254, 339)","(1266, 323)","(1273, 306)","(1276, 288)","(1278, 270)","(1278, 251)","(1155, 237)","(1162, 231)","(1173, 230)","(1185, 233)","(1195, 239)","(1219, 240)","(1230, 235)","(1243, 233)","(1256, 235)","(1265, 242)","(1206, 254)","(1205, 266)","(1204, 277)","(1203, 290)","(1190, 296)","(1197, 300)","(1204, 303)","(1212, 300)","(1219, 297)","(1167, 250)","(1174, 246)","(1184, 247)","(1192, 254)","(1183, 256)","(1173, 255)","(1224, 256)","(1233, 249)","(1242, 249)","(1250, 254)","(1243, 258)","(1233, 258)","(1179, 317)","(1188, 314)","(1198, 313)","(1205, 315)","(1211, 314)","(1223, 315)","(1234, 319)","(1223, 331)","(1212, 336)","(1204, 337)","(1197, 335)","(1187, 330)","(1184, 318)","(1198, 319)","(1204, 320)","(1211, 319)","(1229, 319)","(1212, 327)","(1205, 327)","(1198, 326)",0.34,0.96,34.0,0.39,0.04,0.42,0.04,-9.5,0.1,0.32,16.1,29.5,70.2,13.35,23.1,64.95,11.0,19.58,44.47
5066,-589824,88,-56,-1,-1,0,"(1147, 252)","(1146, 271)","(1147, 289)","(1149, 307)","(1154, 324)","(1163, 340)","(1175, 354)","(1188, 365)","(1205, 369)","(1222, 367)","(1238, 357)","(1253, 345)","(1265, 330)","(1273, 313)","(1277, 295)","(1279, 276)","(1280, 257)","(1157, 245)","(1165, 239)","(1176, 238)","(1188, 241)","(1199, 246)","(1219, 247)","(1231, 241)","(1244, 239)","(1257, 241)","(1266, 248)","(1208, 260)","(1207, 272)","(1205, 285)","(1204, 298)","(1192, 303)","(1198, 307)","(1205, 310)","(1213, 307)","(1220, 304)","(1170, 257)","(1177, 253)","(1186, 254)","(1194, 260)","(1185, 262)","(1176, 262)","(1226, 261)","(1234, 255)","(1243, 255)","(1251, 259)","(1244, 263)","(1234, 263)","(1181, 324)","(1190, 323)","(1199, 322)","(1205, 324)","(1212, 322)","(1222, 323)","(1233, 326)","(1223, 336)","(1213, 341)","(1205, 341)","(1198, 340)","(1190, 335)","(1186, 326)","(1199, 327)","(1205, 328)","(1212, 327)","(1228, 326)","(1212, 332)","(1206, 332)","(1199, 331)",0.32,0.93,34.0,0.37,0.02,0.39,0.03,-8.5,0.09,0.34,14.2,26.2,64.5,13.3,23.25,65.6,12.58,21.7,45.52
5100,-655360,88,-56,-1,-1,0,"(1148, 255)","(1147, 274)","(1147, 291)","(1149, 309)","(1154, 327)","(1163, 343)","(1175, 357)","(1189, 368)","(1206, 372)","(1223, 370)","(1240, 360)","(1254, 348)","(1266, 332)","(1273, 315)","(1277, 297)","(1279, 278)","(1280, 260)","(1157, 249)","(1165, 243)","(1176, 242)","(1188, 244)","(1199, 250)","(1220, 250)","(1231, 244)","(1244, 242)","(1256, 243)","(1266, 250)","(1208, 263)","(1207, 275)","(1206, 288)","(1205, 301)","(1193, 306)","(1199, 310)","(1206, 313)","(1213, 310)","(1220, 307)","(1170, 261)","(1177, 257)","(1186, 257)","(1194, 263)","(1186, 265)","(1177, 265)","(1226, 263)","(1234, 257)","(1243, 257)","(1251, 262)","(1244, 266)","(1235, 266)","(1182, 328)","(1191, 326)","(1200, 325)","(1206, 327)","(1213, 326)","(1223, 326)","(1233, 329)","(1223, 339)","(1213, 343)","(1206, 344)","(1199, 343)","(1191, 338)","(1187, 329)","(1200, 330)","(1206, 331)","(1213, 330)","(1229, 330)","(1213, 335)","(1206, 335)","(1200, 334)",0.36,0.91,34.0,0.37,0.01,0.38,0.03,-8.5,0.09,0.34,13.9,25.6,61.2,13.95,23.15,64.95,13.88,22.52,46.64
5133,524288,88,-56,-1,-1,0,"(1147, 258)","(1146, 277)","(1146, 295)","(1148, 312)","(1153, 330)","(1162, 346)","(1174, 359)","(1188, 370)","(1205, 374)","(1222, 372)","(1239, 363)","(1254, 350)","(1265, 335)","(1272, 318)","(1276, 300)","(1278, 281)","(1279, 263)","(1157, 250)","(1164, 243)","(1176, 242)","(1187, 245)","(1199, 250)","(1220, 251)","(1231, 245)","(1244, 243)","(1256, 245)","(1266, 252)","(1208, 264)","(1207, 277)","(1206, 289)","(1205, 302)","(1193, 308)","(1199, 312)","(1206, 314)","(1213, 312)","(1220, 309)","(1170, 262)","(1177, 258)","(1186, 258)","(1194, 264)","(1185, 267)","(1176, 266)","(1226, 265)","(1234, 259)","(1243, 259)","(1251, 264)","(1244, 268)","(1234, 268)","(1182, 330)","(1191, 327)","(1200, 327)","(1206, 328)","(1213, 327)","(1223, 328)","(1233, 331)","(1223, 340)","(1213, 344)","(1206, 345)","(1199, 344)","(1190, 340)","(1186, 330)","(1199, 332)","(1206, 333)","(1213, 332)","(1229, 332)","(1213, 336)","(1206, 337)","(1199, 335)",0.36,0.9,34.0,0.37,0.01,0.38,0.02,-9.0,0.09,0.34,15.0,27.3,66.2,13.8,22.55,64.55,11.58,21.11,45.29
5166,-655360,88,-56,-1,-1,0,"(1147, 260)","(1146, 278)","(1146, 296)","(1148, 314)","(1153, 332)","(1163, 348)","(1175, 362)","(1190, 373)","(1207, 377)","(1224, 375)","(1241, 365)","(1255, 352)","(1266, 337)","(1273, 319)","(1276, 302)","(1277, 284)","(1278, 266)","(1156, 253)","(1163, 246)","(1175, 245)","(1187, 247)","(1198, 253)","(1221, 254)","(1232, 249)","(1245, 247)","(1257, 249)","(1266, 256)","(1209, 267)","(1208, 279)","(1207, 291)","(1207, 303)","(1194, 309)","(1200, 313)","(1207, 316)","(1214, 314)","(1221, 311)","(1169, 264)","(1176, 260)","(1186, 261)","(1194, 267)","(1185, 269)","(1176, 269)","(1226, 268)","(1234, 262)","(1244, 262)","(1251, 267)","(1244, 271)","(1234, 271)","(1182, 331)","(1191, 328)","(1201, 327)","(1207, 329)","(1214, 327)","(1224, 329)","(1235, 332)","(1225, 343)","(1214, 348)","(1207, 348)","(1199, 347)","(1190, 342)","(1186, 331)","(1200, 332)","(1207, 333)","(1214, 333)","(1230, 333)","(1214, 339)","(1207, 339)","(1200, 338)",0.35,0.91,34.0,0.38,0.02,0.4,0.04,-9.0,0.09,0.32,16.9,29.0,69.6,14.35,23.1,65.55,12.05,21.7,46.23
5200,-720896,88,-56,-1,-1,0,"(1147, 269)","(1146, 287)","(1147, 305)","(1149, 322)","(1154, 339)","(1163, 355)","(1175, 368)","(1189, 378)","(1205, 382)","(1222, 379)","(1238, 370)","(1252, 358)","(1263, 344)","(1271, 327)","(1275, 310)","(1277, 292)","(1278, 274)","(1156, 260)","(1165, 253)","(1176, 252)","(1188, 255)","(1199, 260)","(1220, 261)","(1232, 256)","(1244, 254)","(1257, 255)","(1265, 262)","(1209, 274)","(1208, 286)","(1207, 299)","(1206, 312)","(1193, 317)","(1199, 321)","(1206, 323)","(1213, 321)","(1220, 318)","(1170, 271)","(1177, 267)","(1186, 268)","(1194, 274)","(1185, 276)","(1176, 275)","(1226, 275)","(1234, 269)","(1243, 269)","(1251, 273)","(1244, 277)","(1235, 277)","(1182, 337)","(1191, 336)","(1200, 335)","(1206, 337)","(1212, 335)","(1222, 337)","(1233, 339)","(1223, 349)","(1213, 354)","(1206, 354)","(1199, 353)","(1190, 348)","(1186, 339)","(1199, 340)","(1206, 341)","(1213, 340)","(1228, 340)","(1213, 345)","(1206, 346)","(1200, 345)",0.32,0.92,34.0,0.37,0.01,0.38,0.03,-8.5,0.08,0.35,15.3,27.0,62.8,13.3,22.5,63.8,10.35,19.58,46.29
5233,-393216,88,-56,-1,-1,0,"(1145, 264)","(1145, 283)","(1145, 301)","(1147, 320)","(1153, 337)","(1163, 353)","(1175, 367)","(1189, 379)","(1205, 382)","(1222, 379)","(1238, 369)","(1252, 355)","(1264, 340)","(1271, 323)","(1275, 305)","(1277, 287)","(1278, 268)","(1153, 259)","(1162, 253)","(1174, 253)","(1186, 256)","(1197, 261)","(1218, 262)","(1230, 256)","(1243, 253)","(1255, 254)","(1265, 260)","(1207, 274)","(1206, 288)","(1205, 301)","(1204, 315)","(1191, 319)","(1198, 322)","(1205, 326)","(1213, 323)","(1220, 319)","(1167, 271)","(1175, 267)","(1184, 268)","(1191, 274)","(1183, 275)","(1174, 275)","(1225, 274)","(1233, 268)","(1242, 268)","(1250, 272)","(1243, 276)","(1233, 276)","(1180, 337)","(1189, 337)","(1199, 337)","(1205, 339)","(1212, 337)","(1223, 337)","(1234, 338)","(1223, 351)","(1213, 356)","(1205, 356)","(1198, 355)","(1189, 349)","(1184, 339)","(1199, 341)","(1205, 342)","(1212, 341)","(1229, 340)","(1213, 347)","(1205, 348)","(1198, 346)",0.32,0.93,34.0,0.37,0.0,0.4,0.04,-8.0,0.09,0.37,15.4,25.3,63.4,13.95,22.4,64.25,10.17,18.17,44.64
5266,-131072,88,-56,-1,-1,0,"(1136, 261)","(1137, 280)","(1139, 299)","(1142, 318)","(1148, 336)","(1158, 353)","(1171, 367)","(1185, 379)","(1202, 383)","(1219, 380)","(1234, 369)","(1248, 355)","(1258, 339)","(1265, 322)","(1269, 304)","(1271, 286)","(1272, 267)","(1147, 256)","(1156, 250)","(1169, 249)","(1181, 252)","(1193, 258)","(1215, 259)","(1226, 253)","(1238, 250)","(1251, 251)","(1260, 258)","(1203, 271)","(1203, 284)","(1202, 298)","(1201, 313)","(1188, 316)","(1194, 320)","(1202, 323)","(1210, 320)","(1216, 317)","(1162, 268)","(1170, 264)","(1179, 264)","(1187, 271)","(1178, 272)","(1169, 272)","(1221, 271)","(1229, 265)","(1238, 265)","(1246, 269)","(1239, 273)","(1229, 273)","(1175, 336)","(1185, 335)","(1195, 335)","(1202, 337)","(1209, 335)","(1219, 335)","(1230, 337)","(1220, 349)","(1210, 355)","(1202, 356)","(1194, 355)","(1185, 349)","(1180, 338)","(1195, 339)","(1202, 341)","(1209, 340)","(1225, 338)","(1210, 345)","(1202, 346)","(1195, 345)",0.32,0.88,34.0,0.36,0.01,0.4,0.04,-8.0,0.09,0.37,15.2,26.4,62.7,13.95,22.55,63.55,10.88,19.88,49.17
5300,524288,88,-56,-1,-1,0,"(1123, 260)","(1124, 281)","(1127, 301)","(1131, 321)","(1139, 339)","(1149, 357)","(1162, 372)","(1178, 384)","(1196, 387)","(1214, 383)","(1231, 372)","(1245, 357)","(1257, 341)","(1265, 322)","(1269, 303)","(1271, 283)","(1273, 263)","(1135, 255)","(1145, 248)","(1158, 247)","(1172, 250)","(1185, 256)","(1208, 256)","(1221, 250)","(1234, 247)","(1248, 248)","(1259, 255)","(1196, 270)","(1196, 285)","(1195, 299)","(1194, 314)","(1180, 319)","(1187, 323)","(1195, 326)","(1204, 323)","(1211, 319)","(1152, 267)","(1160, 263)","(1170, 263)","(1179, 270)","(1170, 272)","(1159, 272)","(1215, 270)","(1224, 263)","(1234, 262)","(1242, 267)","(1235, 272)","(1225, 272)","(1169, 341)","(1179, 340)","(1189, 339)","(1196, 341)","(1203, 339)","(1214, 339)","(1225, 340)","(1215, 352)","(1205, 357)","(1197, 358)","(1189, 357)","(1179, 352)","(1174, 342)","(1189, 344)","(1196, 345)","(1203, 344)","(1220, 342)","(1204, 348)","(1197, 349)","(1190, 348)",0.35,0.9,34.0,0.36,0.0,0.37,0.03,-9.0,0.1,0.37,15.6,27.0,64.9,13.9,22.5,64.45,8.41,16.47,41.64
5333,1572864,88,-56,-1,-1,0,"(1117, 258)","(1117, 279)","(1120, 299)","(1124, 319)","(1131, 338)","(1141, 357)","(1155, 373)","(1170, 386)","(1189, 390)","(1208, 386)","(1226, 375)","(1242, 360)","(1255, 343)","(1263, 324)","(1266, 304)","(1268, 283)","(1268, 262)","(1126, 250)","(1136, 243)","(1149, 242)","(1163, 245)","(1176, 252)","(1204, 253)","(1217, 247)","(1231, 244)","(1245, 245)","(1256, 253)","(1189, 268)","(1189, 282)","(1188, 296)","(1187, 310)","(1173, 317)","(1180, 321)","(1188, 324)","(1196, 321)","(1204, 318)","(1142, 266)","(1151, 261)","(1162, 261)","(1171, 269)","(1161, 271)","(1150, 271)","(1210, 270)","(1220, 263)","(1231, 263)","(1240, 268)","(1231, 273)","(1220, 272)","(1159, 340)","(1170, 337)","(1181, 336)","(1188, 338)","(1196, 336)","(1208, 338)","(1220, 341)","(1209, 354)","(1197, 360)","(1189, 361)","(1181, 360)","(1170, 353)","(1165, 341)","(1181, 342)","(1188, 343)","(1196, 342)","(1214, 341)","(1197, 349)","(1189, 350)","(1181, 349)",0.31,0.91,34.0,0.39,0.01,0.4,0.04,-10.0,0.09,0.34,17.3,31.5,73.2,13.7,22.8,64.8,10.05,19.88,47.23
5366,786432,88,-56,-1,-1,0,"(1100, 259)","(1101, 282)","(1104, 304)","(1109, 326)","(1118, 346)","(1130, 365)","(1144, 382)","(1161, 395)","(1180, 399)","(1200, 395)","(1218, 382)","(1233, 367)","(1246, 349)","(1254, 329)","(1258, 308)","(1260, 286)","(1260, 265)","(1115, 254)","(1125, 247)","(1140, 246)","(1154, 249)","(1168, 255)","(1193, 256)","(1207, 250)","(1221, 246)","(1236, 247)","(1246, 255)","(1180, 271)","(1179, 286)","(1179, 301)","(1178, 317)","(1163, 322)","(1171, 327)","(1179, 330)","(1188, 327)","(1196, 323)","(1133, 268)","(1142, 263)","(1153, 264)","(1162, 271)","(1152, 274)","(1141, 273)","(1200, 271)","(1210, 264)","(1221, 264)","(1229, 269)","(1221, 274)","(1210, 274)","(1150, 346)","(1161, 345)","(1172, 344)","(1180, 346)","(1187, 344)","(1199, 344)","(1211, 346)","(1201, 360)","(1189, 366)","(1181, 367)","(1172, 366)","(1161, 360)","(1156, 348)","(1172, 349)","(1180, 350)","(1188, 349)","(1206, 348)","(1189, 355)","(1181, 356)","(1173, 355)",0.34,0.9,34.0,0.36,0.0,0.38,0.04,-10.5,0.1,0.35,17.1,29.0,68.5,13.45,24.25,67.6,9.7,18.58,44.05
5400,-262144,88,-56,-1,-1,0,"(1087, 259)","(1087, 284)","(1088, 307)","(1092, 329)","(1100, 352)","(1111, 373)","(1125, 391)","(1143, 406)","(1164, 412)","(1186, 408)","(1207, 396)","(1226, 379)","(1241, 360)","(1251, 339)","(1256, 316)","(1259, 292)","(1261, 268)","(1099, 253)","(1111, 246)","(1126, 246)","(1142, 251)","(1156, 259)","(1185, 260)","(1200, 253)","(1217, 250)","(1233, 251)","(1246, 259)","(1169, 277)","(1168, 293)","(1166, 310)","(1165, 327)","(1149, 332)","(1157, 337)","(1166, 341)","(1176, 338)","(1185, 334)","(1117, 270)","(1127, 265)","(1139, 266)","(1150, 275)","(1138, 278)","(1125, 277)","(1193, 277)","(1203, 270)","(1216, 269)","(1226, 275)","(1216, 281)","(1204, 281)","(1135, 357)","(1147, 355)","(1159, 355)","(1166, 357)","(1175, 355)","(1187, 357)","(1200, 359)","(1187, 372)","(1175, 378)","(1166, 379)","(1157, 377)","(1146, 370)","(1141, 358)","(1158, 361)","(1166, 362)","(1174, 362)","(1194, 360)","(1175, 366)","(1166, 367)","(1158, 365)",0.34,0.87,34.0,0.38,0.04,0.37,0.03,-12.0,0.09,0.37,18.2,32.0,73.7,14.4,24.65,69.85,11.52,20.11,44.94
5433,-458752,88,-56,-1,-1,0,"(1069, 275)","(1069, 300)","(1071, 325)","(1075, 349)","(1084, 372)","(1096, 393)","(1111, 412)","(1128, 428)","(1150, 433)","(1173, 430)","(1194, 416)","(1213, 400)","(1229, 380)","(1241, 358)","(1246, 334)","(1250, 309)","(1252, 284)","(1083, 265)","(1096, 257)","(1112, 257)","(1128, 262)","(1143, 269)","(1172, 271)","(1188, 264)","(1204, 260)","(1221, 262)","(1234, 270)","(1156, 288)","(1155, 305)","(1153, 322)","(1152, 340)","(1135, 346)","(1143, 351)","(1153, 355)","(1163, 352)","(1173, 348)","(1102, 283)","(1113, 277)","(1126, 278)","(1136, 287)","(1124, 291)","(1111, 290)","(1180, 289)","(1191, 281)","(1204, 281)","(1214, 287)","(1205, 293)","(1192, 293)","(1121, 374)","(1133, 372)","(1145, 371)","(1153, 374)","(1162, 372)","(1175, 373)","(1189, 376)","(1175, 389)","(1162, 395)","(1153, 396)","(1144, 394)","(1132, 388)","(1127, 375)","(1145, 378)","(1153, 379)","(1162, 378)","(1182, 378)","(1162, 383)","(1153, 384)","(1145, 382)",0.35,0.9,34.0,0.37,0.02,0.37,0.03,-13.0,0.09,0.35,19.4,32.0,73.9,14.45,25.05,70.4,10.52,19.58,43.41
5466,-458752,88,-56,-1,-1,0,"(1048, 299)","(1048, 327)","(1050, 355)","(1055, 383)","(1065, 410)","(1078, 436)","(1095, 461)","(1116, 480)","(1143, 485)","(1171, 481)","(1197, 464)","(1218, 441)","(1233, 415)","(1244, 387)","(1249, 358)","(1252, 328)","(1252, 300)","(1063, 281)","(1074, 272)","(1092, 270)","(1109, 274)","(1126, 282)","(1159, 283)","(1176, 275)","(1195, 271)","(1214, 273)","(1228, 284)","(1141, 303)","(1139, 322)","(1138, 341)","(1137, 360)","(1119, 371)","(1129, 376)","(1140, 380)","(1151, 376)","(1162, 371)","(1084, 301)","(1094, 294)","(1108, 294)","(1119, 303)","(1106, 307)","(1093, 307)","(1169, 304)","(1180, 294)","(1194, 294)","(1206, 301)","(1195, 308)","(1181, 308)","(1105, 406)","(1118, 402)","(1131, 400)","(1141, 403)","(1150, 401)","(1166, 402)","(1183, 406)","(1168, 423)","(1153, 430)","(1142, 431)","(1132, 430)","(1119, 422)","(1112, 407)","(1131, 408)","(1141, 409)","(1151, 408)","(1175, 408)","(1152, 417)","(1142, 418)","(1132, 416)",0.37,0.96,33.0,0.35,0.01,0.38,0.03,-13.5,0.1,0.31,20.9,34.0,76.0,16.95,28.05,76.15,12.64,19.41,40.23
