milliseconds, ECG, ECG HR, PPG, PPG HR, SpO2, PI
1523624281149,-458752,86,-56,-1,-1,0
1523624281149,-393216,86,-56,-1,-1,0
1523624281149,-393216,86,-56,-1,-1,0
1523624281149,-327680,86,-56,-1,-1,0
1523624281149,-262144,86,-56,-1,-1,0
1523624281190,-131072,86,-56,-1,-1,0
1523624281190,-65536,86,-56,-1,-1,0
1523624281190,0,86,-56,-1,-1,0
1523624281190,65536,86,-56,-1,-1,0
1523624281190,196608,86,-56,-1,-1,0
1523624281230,393216,86,-56,-1,-1,0
1523624281230,589824,86,-56,-1,-1,0
1523624281230,917504,86,-56,-1,-1,0
1523624281230,1179648,86,-56,-1,-1,0
1523624281230,1441792,86,-56,-1,-1,0
1523624281269,1638400,86,-56,-1,-1,0
1523624281269,1769472,86,-56,-1,-1,0
1523624281269,1703936,86,-56,-1,-1,0
1523624281269,1638400,86,-56,-1,-1,0
1523624281269,1507328,86,-56,-1,-1,0
1523624281309,1310720,86,-56,-1,-1,0
1523624281309,983040,86,-56,-1,-1,0
1523624281309,655360,86,-56,-1,-1,0
1523624281309,327680,86,-56,-1,-1,0
1523624281309,65536,86,-56,-1,-1,0
1523624281349,-65536,86,-56,-1,-1,0
1523624281349,-196608,86,-56,-1,-1,0
1523624281349,-196608,86,-56,-1,-1,0
1523624281349,-262144,86,-56,-1,-1,0
1523624281349,-327680,86,-56,-1,-1,0
1523624281389,-327680,86,-56,-1,-1,0
1523624281389,-327680,86,-56,-1,-1,0
1523624281389,-327680,86,-56,-1,-1,0
1523624281389,-327680,86,-56,-1,-1,0
1523624281389,-327680,86,-56,-1,-1,0
1523624281429,-327680,86,-56,-1,-1,0
1523624281429,-327680,86,-56,-1,-1,0
1523624281429,-327680,86,-56,-1,-1,0
1523624281429,-393216,86,-56,-1,-1,0
1523624281429,-393216,86,-56,-1,-1,0
1523624281469,-393216,86,-56,-1,-1,0
1523624281469,-393216,86,-56,-1,-1,0
1523624281469,-393216,86,-56,-1,-1,0
1523624281469,-393216,86,-56,-1,-1,0
1523624281469,-393216,86,-56,-1,-1,0
1523624281509,-327680,86,-56,-1,-1,0
1523624281509,-393216,86,-56,-1,-1,0
1523624281509,-393216,86,-56,-1,-1,0
1523624281509,-393216,86,-56,-1,-1,0
1523624281509,-458752,86,-56,-1,-1,0
1523624281549,-458752,86,-56,-1,-1,0
1523624281549,-458752,86,-56,-1,-1,0
1523624281549,-524288,86,-56,-1,-1,0
1523624281549,-589824,86,-56,-1,-1,0
1523624281549,-655360,86,-56,-1,-1,0
1523624281589,-655360,86,-56,-1,-1,0
1523624281589,-524288,86,-56,-1,-1,0
1523624281589,-393216,86,-56,-1,-1,0
1523624281589,-262144,86,-56,-1,-1,0
1523624281589,-262144,86,-56,-1,-1,0
1523624281629,-262144,86,-56,-1,-1,0
1523624281629,-327680,86,-56,-1,-1,0
1523624281629,-458752,86,-56,-1,-1,0
1523624281629,-524288,86,-56,-1,-1,0
1523624281629,-589824,86,-56,-1,-1,0
1523624281669,-589824,86,-56,-1,-1,0
1523624281669,-655360,86,-56,-1,-1,0
1523624281669,-655360,86,-56,-1,-1,0
1523624281669,-720896,86,-56,-1,-1,0
1523624281669,-720896,86,-56,-1,-1,0
1523624281709,-655360,86,-56,-1,-1,0
1523624281709,-655360,86,-56,-1,-1,0
1523624281709,-655360,86,-56,-1,-1,0
1523624281709,-327680,86,-56,-1,-1,0
1523624281709,1441792,86,-56,-1,-1,0
1523624281750,5308416,87,-56,-1,-1,0
1523624281750,8585216,87,-56,-1,-1,0
1523624281750,7077888,87,-56,-1,-1,0
1523624281750,2097152,87,-56,-1,-1,0
1523624281750,-1310720,87,-56,-1,-1,0
1523624281789,-1900544,87,-56,-1,-1,0
1523624281789,-1507328,87,-56,-1,-1,0
1523624281789,-1179648,87,-56,-1,-1,0
1523624281789,-917504,87,-56,-1,-1,0
1523624281789,-786432,87,-56,-1,-1,0
1523624281831,-720896,87,-56,-1,-1,0
1523624281831,-655360,87,-56,-1,-1,0
1523624281831,-655360,87,-56,-1,-1,0
1523624281831,-589824,87,-56,-1,-1,0
1523624281831,-524288,87,-56,-1,-1,0
1523624281869,-458752,87,-56,-1,-1,0
1523624281869,-458752,87,-56,-1,-1,0
1523624281869,-393216,87,-56,-1,-1,0
1523624281869,-262144,87,-56,-1,-1,0
1523624281869,-131072,87,-56,-1,-1,0
1523624281909,-65536,87,-56,-1,-1,0
1523624281909,0,87,-56,-1,-1,0
1523624281909,131072,87,-56,-1,-1,0
1523624281909,327680,87,-56,-1,-1,0
1523624281909,524288,87,-56,-1,-1,0
1523624281949,786432,87,-56,-1,-1,0
1523624281949,1048576,87,-56,-1,-1,0
1523624281949,1310720,87,-56,-1,-1,0
1523624281949,1441792,87,-56,-1,-1,0
1523624281949,1507328,87,-56,-1,-1,0
1523624281989,1507328,87,-56,-1,-1,0
1523624281989,1441792,87,-56,-1,-1,0
1523624281989,1310720,87,-56,-1,-1,0
1523624281989,1048576,87,-56,-1,-1,0
1523624281989,786432,87,-56,-1,-1,0
1523624282029,458752,87,-56,-1,-1,0
1523624282029,196608,87,-56,-1,-1,0
1523624282029,0,87,-56,-1,-1,0
1523624282029,-196608,87,-56,-1,-1,0
1523624282029,-327680,87,-56,-1,-1,0
1523624282070,-393216,87,-56,-1,-1,0
1523624282070,-458752,87,-56,-1,-1,0
1523624282070,-524288,87,-56,-1,-1,0
1523624282070,-524288,87,-56,-1,-1,0
1523624282070,-524288,87,-56,-1,-1,0
1523624282109,-524288,87,-56,-1,-1,0
1523624282109,-524288,87,-56,-1,-1,0
1523624282109,-524288,87,-56,-1,-1,0
1523624282109,-524288,87,-56,-1,-1,0
1523624282109,-524288,87,-56,-1,-1,0
1523624282149,-524288,87,-56,-1,-1,0
1523624282149,-524288,87,-56,-1,-1,0
1523624282149,-524288,87,-56,-1,-1,0
1523624282149,-524288,87,-56,-1,-1,0
1523624282149,-524288,87,-56,-1,-1,0
1523624282189,-524288,87,-56,-1,-1,0
1523624282189,-524288,87,-56,-1,-1,0
1523624282189,-524288,87,-56,-1,-1,0
1523624282189,-524288,87,-56,-1,-1,0
1523624282189,-524288,87,-56,-1,-1,0
1523624282230,-524288,87,-56,-1,-1,0
1523624282230,-524288,87,-56,-1,-1,0
1523624282230,-524288,87,-56,-1,-1,0
1523624282230,-524288,87,-56,-1,-1,0
1523624282230,-524288,87,-56,-1,-1,0
1523624282269,-589824,87,-56,-1,-1,0
1523624282269,-589824,87,-56,-1,-1,0
1523624282269,-589824,87,-56,-1,-1,0
1523624282269,-589824,87,-56,-1,-1,0
1523624282269,-655360,87,-56,-1,-1,0
1523624282309,-720896,87,-56,-1,-1,0
1523624282309,-720896,87,-56,-1,-1,0
1523624282309,-589824,87,-56,-1,-1,0
1523624282309,-458752,87,-56,-1,-1,0
1523624282309,-327680,87,-56,-1,-1,0
1523624282349,-262144,87,-56,-1,-1,0
1523624282349,-327680,87,-56,-1,-1,0
1523624282349,-393216,87,-56,-1,-1,0
1523624282349,-524288,87,-56,-1,-1,0
1523624282349,-655360,87,-56,-1,-1,0
1523624282389,-720896,87,-56,-1,-1,0
1523624282389,-720896,87,-56,-1,-1,0
1523624282389,-720896,87,-56,-1,-1,0
1523624282389,-786432,87,-56,-1,-1,0
1523624282389,-786432,87,-56,-1,-1,0
1523624282429,-786432,87,-56,-1,-1,0
1523624282429,-786432,87,-56,-1,-1,0
1523624282429,-786432,87,-56,-1,-1,0
1523624282429,-720896,87,-56,-1,-1,0
1523624282429,-131072,87,-56,-1,-1,0
1523624282470,2293760,87,-56,-1,-1,0
1523624282470,6553600,87,-56,-1,-1,0
1523624282470,8781824,87,-56,-1,-1,0
1523624282470,5898240,87,-56,-1,-1,0
1523624282470,917504,87,-56,-1,-1,0
1523624282509,-1572864,87,-56,-1,-1,0
1523624282509,-1769472,87,-56,-1,-1,0
1523624282509,-1376256,87,-56,-1,-1,0
1523624282509,-1048576,87,-56,-1,-1,0
1523624282509,-851968,87,-56,-1,-1,0
1523624282549,-786432,87,-56,-1,-1,0
1523624282549,-720896,87,-56,-1,-1,0
1523624282549,-655360,87,-56,-1,-1,0
1523624282549,-589824,87,-56,-1,-1,0
1523624282549,-524288,87,-56,-1,-1,0
1523624282589,-524288,87,-56,-1,-1,0
1523624282589,-458752,87,-56,-1,-1,0
1523624282589,-393216,87,-56,-1,-1,0
1523624282589,-393216,87,-56,-1,-1,0
1523624282589,-262144,87,-56,-1,-1,0
1523624282629,-196608,87,-56,-1,-1,0
1523624282629,-131072,87,-56,-1,-1,0
1523624282629,0,87,-56,-1,-1,0
1523624282629,131072,87,-56,-1,-1,0
1523624282629,327680,87,-56,-1,-1,0
1523624282669,589824,87,-56,-1,-1,0
1523624282669,851968,87,-56,-1,-1,0
1523624282669,1114112,87,-56,-1,-1,0
1523624282669,1310720,87,-56,-1,-1,0
1523624282669,1441792,87,-56,-1,-1,0
1523624282710,1572864,87,-56,-1,-1,0
1523624282710,1572864,87,-56,-1,-1,0
1523624282710,1507328,87,-56,-1,-1,0
1523624282710,1310720,87,-56,-1,-1,0
1523624282710,1114112,87,-56,-1,-1,0
1523624282749,786432,87,-56,-1,-1,0
1523624282749,458752,87,-56,-1,-1,0
1523624282749,196608,87,-56,-1,-1,0
1523624282749,0,87,-56,-1,-1,0
1523624282749,-131072,87,-56,-1,-1,0
1523624282789,-262144,87,-56,-1,-1,0
1523624282789,-327680,87,-56,-1,-1,0
1523624282789,-327680,87,-56,-1,-1,0
1523624282789,-327680,87,-56,-1,-1,0
1523624282789,-327680,87,-56,-1,-1,0
1523624282829,-327680,87,-56,-1,-1,0
1523624282829,-393216,87,-56,-1,-1,0
1523624282829,-393216,87,-56,-1,-1,0
1523624282829,-458752,87,-56,-1,-1,0
1523624282829,-393216,87,-56,-1,-1,0
1523624282869,-393216,87,-56,-1,-1,0
1523624282869,-393216,87,-56,-1,-1,0
1523624282869,-327680,87,-56,-1,-1,0
1523624282869,-327680,87,-56,-1,-1,0
1523624282869,-327680,87,-56,-1,-1,0
1523624282909,-327680,87,-56,-1,-1,0
1523624282909,-327680,87,-56,-1,-1,0
1523624282909,-327680,87,-56,-1,-1,0
1523624282909,-327680,87,-56,-1,-1,0
1523624282909,-393216,87,-56,-1,-1,0
1523624282949,-393216,87,-56,-1,-1,0
1523624282949,-458752,87,-56,-1,-1,0
1523624282949,-458752,87,-56,-1,-1,0
1523624282949,-458752,87,-56,-1,-1,0
1523624282949,-458752,87,-56,-1,-1,0
1523624282989,-458752,87,-56,-1,-1,0
1523624282989,-458752,87,-56,-1,-1,0
1523624282989,-458752,87,-56,-1,-1,0
1523624282989,-458752,87,-56,-1,-1,0
1523624282989,-524288,87,-56,-1,-1,0
1523624283029,-524288,87,-56,-1,-1,0
1523624283029,-589824,87,-56,-1,-1,0
1523624283029,-524288,87,-56,-1,-1,0
1523624283029,-458752,87,-56,-1,-1,0
1523624283029,-327680,87,-56,-1,-1,0
1523624283069,-196608,87,-56,-1,-1,0
1523624283069,-196608,87,-56,-1,-1,0
1523624283069,-196608,87,-56,-1,-1,0
1523624283069,-262144,87,-56,-1,-1,0
1523624283069,-393216,87,-56,-1,-1,0
1523624283110,-458752,87,-56,-1,-1,0
1523624283110,-458752,87,-56,-1,-1,0
1523624283110,-524288,87,-56,-1,-1,0
1523624283110,-524288,87,-56,-1,-1,0
1523624283110,-589824,87,-56,-1,-1,0
1523624283149,-589824,87,-56,-1,-1,0
1523624283149,-655360,87,-56,-1,-1,0
1523624283149,-589824,87,-56,-1,-1,0
1523624283149,-655360,87,-56,-1,-1,0
1523624283149,-655360,87,-56,-1,-1,0
1523624283189,-393216,87,-56,-1,-1,0
1523624283189,1310720,87,-56,-1,-1,0
1523624283189,5177344,87,-56,-1,-1,0
1523624283189,8650752,87,-56,-1,-1,0
1523624283189,7471104,87,-56,-1,-1,0
1523624283229,2555904,87,-56,-1,-1,0
1523624283229,-1114112,87,-56,-1,-1,0
1523624283229,-1835008,87,-56,-1,-1,0
1523624283229,-1441792,87,-56,-1,-1,0
1523624283229,-1114112,87,-56,-1,-1,0
1523624283269,-851968,87,-56,-1,-1,0
1523624283269,-720896,87,-56,-1,-1,0
1523624283269,-655360,87,-56,-1,-1,0
1523624283269,-655360,87,-56,-1,-1,0
1523624283269,-589824,87,-56,-1,-1,0
1523624283309,-524288,87,-56,-1,-1,0
1523624283309,-458752,87,-56,-1,-1,0
1523624283309,-458752,87,-56,-1,-1,0
1523624283309,-393216,87,-56,-1,-1,0
1523624283309,-262144,87,-56,-1,-1,0
1523624283349,-196608,87,-56,-1,-1,0
1523624283349,-65536,87,-56,-1,-1,0
1523624283349,0,87,-56,-1,-1,0
1523624283349,131072,87,-56,-1,-1,0
1523624283349,262144,87,-56,-1,-1,0
1523624283389,393216,87,-56,-1,-1,0
1523624283389,589824,87,-56,-1,-1,0
1523624283389,917504,87,-56,-1,-1,0
1523624283389,1179648,87,-56,-1,-1,0
1523624283389,1441792,87,-56,-1,-1,0
1523624283429,1638400,87,-56,-1,-1,0
1523624283429,1769472,87,-56,-1,-1,0
1523624283429,1769472,87,-56,-1,-1,0
1523624283429,1703936,87,-56,-1,-1,0
1523624283429,1507328,87,-56,-1,-1,0
1523624283469,1310720,87,-56,-1,-1,0
1523624283469,1114112,87,-56,-1,-1,0
1523624283469,786432,87,-56,-1,-1,0
1523624283469,458752,87,-56,-1,-1,0
1523624283469,196608,87,-56,-1,-1,0
1523624283509,0,87,-56,-1,-1,0
1523624283509,0,87,-56,-1,-1,0
1523624283509,-131072,87,-56,-1,-1,0
1523624283509,-196608,87,-56,-1,-1,0
1523624283509,-262144,87,-56,-1,-1,0
1523624283549,-262144,87,-56,-1,-1,0
1523624283549,-262144,87,-56,-1,-1,0
1523624283549,-327680,87,-56,-1,-1,0
1523624283549,-393216,87,-56,-1,-1,0
1523624283549,-393216,87,-56,-1,-1,0
1523624283589,-327680,87,-56,-1,-1,0
1523624283589,-393216,87,-56,-1,-1,0
1523624283589,-327680,87,-56,-1,-1,0
1523624283589,-327680,87,-56,-1,-1,0
1523624283589,-327680,87,-56,-1,-1,0
1523624283629,-393216,87,-56,-1,-1,0
1523624283629,-327680,87,-56,-1,-1,0
1523624283629,-327680,87,-56,-1,-1,0
1523624283629,-393216,87,-56,-1,-1,0
1523624283629,-458752,87,-56,-1,-1,0
1523624283669,-458752,87,-56,-1,-1,0
1523624283669,-524288,87,-56,-1,-1,0
1523624283669,-458752,87,-56,-1,-1,0
1523624283669,-458752,87,-56,-1,-1,0
1523624283669,-458752,87,-56,-1,-1,0
1523624283709,-524288,87,-56,-1,-1,0
1523624283709,-524288,87,-56,-1,-1,0
1523624283709,-524288,87,-56,-1,-1,0
1523624283709,-524288,87,-56,-1,-1,0
1523624283709,-589824,87,-56,-1,-1,0
1523624283750,-589824,87,-56,-1,-1,0
1523624283750,-655360,87,-56,-1,-1,0
1523624283750,-655360,87,-56,-1,-1,0
1523624283750,-524288,87,-56,-1,-1,0
1523624283750,-393216,87,-56,-1,-1,0
1523624283789,-327680,87,-56,-1,-1,0
1523624283789,-262144,87,-56,-1,-1,0
1523624283789,-327680,87,-56,-1,-1,0
1523624283789,-393216,87,-56,-1,-1,0
1523624283789,-524288,87,-56,-1,-1,0
1523624283829,-589824,87,-56,-1,-1,0
1523624283829,-786432,87,-56,-1,-1,0
1523624283829,-851968,87,-56,-1,-1,0
1523624283829,-786432,87,-56,-1,-1,0
1523624283829,-720896,87,-56,-1,-1,0
1523624283869,-786432,87,-56,-1,-1,0
1523624283869,-851968,87,-56,-1,-1,0
1523624283869,-851968,87,-56,-1,-1,0
1523624283869,-917504,87,-56,-1,-1,0
1523624283869,-917504,87,-56,-1,-1,0
1523624283909,-458752,87,-56,-1,-1,0
1523624283909,1310720,87,-56,-1,-1,0
1523624283909,4718592,87,-56,-1,-1,0
1523624283909,6815744,87,-56,-1,-1,0
1523624283909,4521984,87,-56,-1,-1,0
1523624283949,0,87,-56,-1,-1,0
1523624283949,-2424832,87,-56,-1,-1,0
1523624283949,-2555904,87,-56,-1,-1,0
1523624283949,-1966080,87,-56,-1,-1,0
1523624283949,-1507328,87,-56,-1,-1,0
1523624283989,-1114112,87,-56,-1,-1,0
1523624283989,-917504,87,-56,-1,-1,0
1523624283989,-720896,87,-56,-1,-1,0
1523624283989,-655360,87,-56,-1,-1,0
1523624283989,-655360,87,-56,-1,-1,0
1523624284029,-589824,87,-56,-1,-1,0
1523624284029,-524288,87,-56,-1,-1,0
1523624284029,-524288,87,-56,-1,-1,0
1523624284029,-524288,87,-56,-1,-1,0
1523624284029,-393216,87,-56,-1,-1,0
1523624284069,-262144,87,-56,-1,-1,0
1523624284069,-131072,87,-56,-1,-1,0
1523624284069,0,87,-56,-1,-1,0
1523624284069,65536,87,-56,-1,-1,0
1523624284069,262144,87,-56,-1,-1,0
1523624284109,458752,87,-56,-1,-1,0
1523624284109,786432,87,-56,-1,-1,0
1523624284109,1048576,87,-56,-1,-1,0
1523624284109,1376256,87,-56,-1,-1,0
1523624284109,1703936,87,-56,-1,-1,0
1523624284149,1900544,87,-56,-1,-1,0
1523624284149,1966080,87,-56,-1,-1,0
1523624284149,1900544,87,-56,-1,-1,0
1523624284149,1769472,87,-56,-1,-1,0
1523624284149,1507328,87,-56,-1,-1,0
1523624284189,1179648,87,-56,-1,-1,0
1523624284189,786432,87,-56,-1,-1,0
1523624284189,393216,87,-56,-1,-1,0
1523624284189,65536,87,-56,-1,-1,0
1523624284189,-131072,87,-56,-1,-1,0
1523624284229,-327680,87,-56,-1,-1,0
1523624284229,-458752,87,-56,-1,-1,0
1523624284229,-589824,87,-56,-1,-1,0
1523624284229,-655360,87,-56,-1,-1,0
1523624284229,-655360,87,-56,-1,-1,0
1523624284269,-655360,87,-56,-1,-1,0
1523624284269,-655360,87,-56,-1,-1,0
1523624284269,-720896,87,-56,-1,-1,0
1523624284269,-720896,87,-56,-1,-1,0
1523624284269,-720896,87,-56,-1,-1,0
1523624284309,-720896,87,-56,-1,-1,0
1523624284309,-655360,87,-56,-1,-1,0
1523624284309,-589824,87,-56,-1,-1,0
1523624284309,-589824,87,-56,-1,-1,0
1523624284309,-524288,87,-56,-1,-1,0
1523624284349,-524288,87,-56,-1,-1,0
1523624284349,-458752,87,-56,-1,-1,0
1523624284349,-458752,87,-56,-1,-1,0
1523624284349,-458752,87,-56,-1,-1,0
1523624284349,-458752,87,-56,-1,-1,0
1523624284390,-458752,87,-56,-1,-1,0
1523624284390,-458752,87,-56,-1,-1,0
1523624284390,-458752,87,-56,-1,-1,0
1523624284390,-458752,87,-56,-1,-1,0
1523624284390,-458752,87,-56,-1,-1,0
1523624284429,-524288,87,-56,-1,-1,0
1523624284429,-524288,87,-56,-1,-1,0
1523624284429,-458752,87,-56,-1,-1,0
1523624284429,-393216,87,-56,-1,-1,0
1523624284429,-262144,87,-56,-1,-1,0
1523624284469,-196608,87,-56,-1,-1,0
1523624284469,-131072,87,-56,-1,-1,0
1523624284469,-196608,87,-56,-1,-1,0
1523624284469,-327680,87,-56,-1,-1,0
1523624284469,-393216,87,-56,-1,-1,0
1523624284509,-458752,87,-56,-1,-1,0
1523624284509,-458752,87,-56,-1,-1,0
1523624284509,-524288,87,-56,-1,-1,0
1523624284509,-589824,87,-56,-1,-1,0
1523624284509,-655360,87,-56,-1,-1,0
1523624284549,-655360,88,-56,-1,-1,0
1523624284549,-589824,88,-56,-1,-1,0
1523624284549,-589824,88,-56,-1,-1,0
1523624284549,-524288,88,-56,-1,-1,0
1523624284549,-589824,88,-56,-1,-1,0
1523624284589,-458752,88,-56,-1,-1,0
1523624284589,327680,88,-56,-1,-1,0
1523624284589,3080192,88,-56,-1,-1,0
1523624284589,6946816,88,-56,-1,-1,0
1523624284589,7798784,88,-56,-1,-1,0
1523624284629,3997696,88,-56,-1,-1,0
1523624284629,-524288,88,-56,-1,-1,0
1523624284629,-2162688,88,-56,-1,-1,0
1523624284629,-1900544,88,-56,-1,-1,0
1523624284629,-1376256,88,-56,-1,-1,0
1523624284669,-917504,88,-56,-1,-1,0
1523624284669,-720896,88,-56,-1,-1,0
1523624284669,-589824,88,-56,-1,-1,0
1523624284669,-524288,88,-56,-1,-1,0
1523624284669,-458752,88,-56,-1,-1,0
1523624284709,-393216,88,-56,-1,-1,0
1523624284709,-393216,88,-56,-1,-1,0
1523624284709,-327680,88,-56,-1,-1,0
1523624284709,-262144,88,-56,-1,-1,0
1523624284709,-196608,88,-56,-1,-1,0
1523624284749,-131072,88,-56,-1,-1,0
1523624284749,-65536,88,-56,-1,-1,0
1523624284749,0,88,-56,-1,-1,0
1523624284749,131072,88,-56,-1,-1,0
1523624284749,196608,88,-56,-1,-1,0
1523624284789,393216,88,-56,-1,-1,0
1523624284789,589824,88,-56,-1,-1,0
1523624284789,851968,88,-56,-1,-1,0
1523624284789,1179648,88,-56,-1,-1,0
1523624284789,1507328,88,-56,-1,-1,0
1523624284829,1703936,88,-56,-1,-1,0
1523624284829,1900544,88,-56,-1,-1,0
1523624284829,1900544,88,-56,-1,-1,0
1523624284829,1835008,88,-56,-1,-1,0
1523624284829,1638400,88,-56,-1,-1,0
1523624284869,1376256,88,-56,-1,-1,0
1523624284869,1048576,88,-56,-1,-1,0
1523624284869,720896,88,-56,-1,-1,0
1523624284869,393216,88,-56,-1,-1,0
1523624284869,196608,88,-56,-1,-1,0
1523624284909,0,88,-56,-1,-1,0
1523624284909,-131072,88,-56,-1,-1,0
1523624284909,-196608,88,-56,-1,-1,0
1523624284909,-262144,88,-56,-1,-1,0
1523624284909,-262144,88,-56,-1,-1,0
1523624284949,-262144,88,-56,-1,-1,0
1523624284949,-327680,88,-56,-1,-1,0
1523624284949,-393216,88,-56,-1,-1,0
1523624284949,-458752,88,-56,-1,-1,0
1523624284949,-458752,88,-56,-1,-1,0
1523624284989,-458752,88,-56,-1,-1,0
1523624284989,-458752,88,-56,-1,-1,0
1523624284989,-458752,88,-56,-1,-1,0
1523624284989,-458752,88,-56,-1,-1,0
1523624284989,-393216,88,-56,-1,-1,0
1523624285030,-393216,88,-56,-1,-1,0
1523624285030,-327680,88,-56,-1,-1,0
1523624285030,-393216,88,-56,-1,-1,0
1523624285030,-393216,88,-56,-1,-1,0
1523624285030,-393216,88,-56,-1,-1,0
1523624285069,-393216,88,-56,-1,-1,0
1523624285069,-458752,88,-56,-1,-1,0
1523624285069,-458752,88,-56,-1,-1,0
1523624285069,-458752,88,-56,-1,-1,0
1523624285069,-524288,88,-56,-1,-1,0
1523624285109,-589824,88,-56,-1,-1,0
1523624285109,-589824,88,-56,-1,-1,0
1523624285109,-524288,88,-56,-1,-1,0
1523624285109,-393216,88,-56,-1,-1,0
1523624285109,-262144,88,-56,-1,-1,0
1523624285149,-196608,88,-56,-1,-1,0
1523624285149,-262144,88,-56,-1,-1,0
1523624285149,-327680,88,-56,-1,-1,0
1523624285149,-393216,88,-56,-1,-1,0
1523624285149,-524288,88,-56,-1,-1,0
1523624285189,-655360,88,-56,-1,-1,0
1523624285189,-720896,88,-56,-1,-1,0
1523624285189,-720896,88,-56,-1,-1,0
1523624285189,-786432,88,-56,-1,-1,0
1523624285189,-786432,88,-56,-1,-1,0
1523624285229,-851968,88,-56,-1,-1,0
1523624285229,-917504,88,-56,-1,-1,0
1523624285229,-851968,88,-56,-1,-1,0
1523624285229,-851968,88,-56,-1,-1,0
1523624285229,-851968,88,-56,-1,-1,0
1523624285269,-720896,88,-56,-1,-1,0
1523624285269,-131072,88,-56,-1,-1,0
1523624285269,1900544,88,-56,-1,-1,0
1523624285269,5373952,88,-56,-1,-1,0
1523624285269,6881280,88,-56,-1,-1,0
1523624285309,3801088,88,-56,-1,-1,0
1523624285309,-720896,88,-56,-1,-1,0
1523624285309,-2752512,88,-56,-1,-1,0
1523624285309,-2555904,88,-56,-1,-1,0
1523624285309,-1900544,88,-56,-1,-1,0
1523624285349,-1310720,88,-56,-1,-1,0
1523624285349,-917504,88,-56,-1,-1,0
1523624285349,-786432,88,-56,-1,-1,0
1523624285349,-655360,88,-56,-1,-1,0
1523624285349,-589824,88,-56,-1,-1,0
1523624285389,-589824,88,-56,-1,-1,0
1523624285389,-589824,88,-56,-1,-1,0
1523624285389,-393216,88,-56,-1,-1,0
1523624285389,-327680,88,-56,-1,-1,0
1523624285389,-327680,88,-56,-1,-1,0
1523624285429,-262144,88,-56,-1,-1,0
1523624285429,-131072,88,-56,-1,-1,0
1523624285429,0,88,-56,-1,-1,0
1523624285429,65536,88,-56,-1,-1,0
1523624285429,196608,88,-56,-1,-1,0
1523624285469,458752,88,-56,-1,-1,0
1523624285469,655360,88,-56,-1,-1,0
1523624285469,983040,88,-56,-1,-1,0
1523624285469,1310720,88,-56,-1,-1,0
1523624285469,1638400,88,-56,-1,-1,0
1523624285509,1900544,88,-56,-1,-1,0
1523624285509,2031616,88,-56,-1,-1,0
1523624285509,2031616,88,-56,-1,-1,0
1523624285509,1966080,88,-56,-1,-1,0
1523624285509,1835008,88,-56,-1,-1,0
1523624285549,1572864,88,-56,-1,-1,0
1523624285549,1114112,88,-56,-1,-1,0
1523624285549,720896,88,-56,-1,-1,0
1523624285549,327680,88,-56,-1,-1,0
1523624285549,65536,88,-56,-1,-1,0
1523624285589,-131072,88,-56,-1,-1,0
1523624285589,-327680,88,-56,-1,-1,0
1523624285589,-524288,88,-56,-1,-1,0
1523624285589,-589824,88,-56,-1,-1,0
1523624285589,-655360,88,-56,-1,-1,0
1523624285629,-655360,88,-56,-1,-1,0
1523624285629,-720896,88,-56,-1,-1,0
1523624285629,-720896,88,-56,-1,-1,0
1523624285629,-720896,88,-56,-1,-1,0
1523624285629,-655360,88,-56,-1,-1,0
1523624285670,-720896,88,-56,-1,-1,0
1523624285670,-720896,88,-56,-1,-1,0
1523624285670,-720896,88,-56,-1,-1,0
1523624285670,-655360,88,-56,-1,-1,0
1523624285670,-655360,88,-56,-1,-1,0
1523624285709,-655360,88,-56,-1,-1,0
1523624285709,-655360,88,-56,-1,-1,0
1523624285709,-589824,88,-56,-1,-1,0
1523624285709,-589824,88,-56,-1,-1,0
1523624285709,-524288,88,-56,-1,-1,0
1523624285749,-458752,88,-56,-1,-1,0
1523624285749,-524288,88,-56,-1,-1,0
1523624285749,-524288,88,-56,-1,-1,0
1523624285749,-589824,88,-56,-1,-1,0
1523624285749,-589824,88,-56,-1,-1,0
1523624285789,-524288,88,-56,-1,-1,0
1523624285789,-458752,88,-56,-1,-1,0
1523624285789,-327680,88,-56,-1,-1,0
1523624285789,-196608,88,-56,-1,-1,0
1523624285789,-196608,88,-56,-1,-1,0
1523624285829,-262144,88,-56,-1,-1,0
1523624285829,-393216,88,-56,-1,-1,0
1523624285829,-524288,88,-56,-1,-1,0
1523624285829,-589824,88,-56,-1,-1,0
1523624285829,-655360,88,-56,-1,-1,0
1523624285869,-655360,88,-56,-1,-1,0
1523624285869,-655360,88,-56,-1,-1,0
1523624285869,-655360,88,-56,-1,-1,0
1523624285869,-655360,88,-56,-1,-1,0
1523624285869,-720896,88,-56,-1,-1,0
1523624285909,-786432,88,-56,-1,-1,0
1523624285909,-786432,88,-56,-1,-1,0
1523624285909,-720896,88,-56,-1,-1,0
1523624285909,-524288,88,-56,-1,-1,0
1523624285909,262144,88,-56,-1,-1,0
1523624285949,2686976,88,-56,-1,-1,0
1523624285949,6029312,88,-56,-1,-1,0
1523624285949,6291456,88,-56,-1,-1,0
1523624285949,2490368,88,-56,-1,-1,0
1523624285949,-1507328,88,-56,-1,-1,0
1523624285989,-2621440,88,-56,-1,-1,0
1523624285989,-2162688,88,-56,-1,-1,0
1523624285989,-1507328,88,-56,-1,-1,0
1523624285989,-1048576,88,-56,-1,-1,0
1523624285989,-786432,88,-56,-1,-1,0
1523624286029,-589824,88,-56,-1,-1,0
1523624286029,-524288,88,-56,-1,-1,0
1523624286029,-458752,88,-56,-1,-1,0
1523624286029,-393216,88,-56,-1,-1,0
1523624286029,-393216,88,-56,-1,-1,0
1523624286069,-327680,88,-56,-1,-1,0
1523624286069,-262144,88,-56,-1,-1,0
1523624286069,-196608,88,-56,-1,-1,0
1523624286069,-131072,88,-56,-1,-1,0
1523624286069,0,88,-56,-1,-1,0
1523624286109,0,88,-56,-1,-1,0
1523624286109,131072,88,-56,-1,-1,0
1523624286109,262144,88,-56,-1,-1,0
1523624286109,524288,88,-56,-1,-1,0
1523624286109,786432,88,-56,-1,-1,0
1523624286149,1048576,88,-56,-1,-1,0
1523624286149,1310720,88,-56,-1,-1,0
1523624286149,1572864,88,-56,-1,-1,0
1523624286149,1769472,88,-56,-1,-1,0
1523624286149,1900544,88,-56,-1,-1,0
1523624286189,1900544,88,-56,-1,-1,0
1523624286189,1769472,88,-56,-1,-1,0
1523624286189,1572864,88,-56,-1,-1,0
1523624286189,1310720,88,-56,-1,-1,0
1523624286189,983040,88,-56,-1,-1,0
1523624286229,589824,88,-56,-1,-1,0
1523624286229,262144,88,-56,-1,-1,0
1523624286229,0,88,-56,-1,-1,0
1523624286229,-131072,88,-56,-1,-1,0
1523624286229,-262144,88,-56,-1,-1,0
1523624286269,-327680,88,-56,-1,-1,0
1523624286269,-327680,88,-56,-1,-1,0
1523624286269,-393216,88,-56,-1,-1,0
1523624286269,-458752,88,-56,-1,-1,0
1523624286269,-524288,88,-56,-1,-1,0
1523624286310,-524288,88,-56,-1,-1,0
1523624286310,-524288,88,-56,-1,-1,0
1523624286310,-458752,88,-56,-1,-1,0
1523624286310,-458752,88,-56,-1,-1,0
1523624286310,-524288,88,-56,-1,-1,0
1523624286349,-458752,88,-56,-1,-1,0
1523624286349,-458752,88,-56,-1,-1,0
1523624286349,-393216,88,-56,-1,-1,0
1523624286349,-393216,88,-56,-1,-1,0
1523624286349,-327680,88,-56,-1,-1,0
1523624286389,-327680,88,-56,-1,-1,0
1523624286389,-262144,88,-56,-1,-1,0
1523624286389,-327680,88,-56,-1,-1,0
1523624286389,-393216,88,-56,-1,-1,0
1523624286389,-393216,88,-56,-1,-1,0
1523624286429,-393216,88,-56,-1,-1,0
1523624286429,-393216,88,-56,-1,-1,0
1523624286429,-458752,88,-56,-1,-1,0
1523624286429,-524288,88,-56,-1,-1,0
1523624286429,-524288,88,-56,-1,-1,0
1523624286469,-524288,88,-56,-1,-1,0
1523624286469,-393216,88,-56,-1,-1,0
1523624286469,-262144,88,-56,-1,-1,0
1523624286469,-196608,88,-56,-1,-1,0
1523624286469,-196608,88,-56,-1,-1,0
1523624286509,-196608,88,-56,-1,-1,0
1523624286509,-327680,88,-56,-1,-1,0
1523624286509,-393216,88,-56,-1,-1,0
1523624286509,-458752,88,-56,-1,-1,0
1523624286509,-524288,88,-56,-1,-1,0
1523624286549,-589824,88,-56,-1,-1,0
1523624286549,-655360,88,-56,-1,-1,0
1523624286549,-655360,88,-56,-1,-1,0
1523624286549,-655360,88,-56,-1,-1,0
1523624286549,-655360,88,-56,-1,-1,0
1523624286589,-655360,88,-56,-1,-1,0
1523624286589,-655360,88,-56,-1,-1,0
1523624286589,-655360,88,-56,-1,-1,0
1523624286589,-524288,88,-56,-1,-1,0
1523624286589,589824,88,-56,-1,-1,0
1523624286629,3735552,88,-56,-1,-1,0
1523624286629,7405568,88,-56,-1,-1,0
1523624286629,7405568,88,-56,-1,-1,0
1523624286629,3211264,88,-56,-1,-1,0
1523624286629,-786432,88,-56,-1,-1,0
1523624286669,-1966080,88,-56,-1,-1,0
1523624286669,-1638400,88,-56,-1,-1,0
1523624286669,-1245184,88,-56,-1,-1,0
1523624286669,-917504,88,-56,-1,-1,0
1523624286669,-786432,88,-56,-1,-1,0
1523624286709,-655360,88,-56,-1,-1,0
1523624286709,-589824,88,-56,-1,-1,0
1523624286709,-524288,88,-56,-1,-1,0
1523624286709,-524288,88,-56,-1,-1,0
1523624286709,-458752,88,-56,-1,-1,0
1523624286749,-393216,88,-56,-1,-1,0
1523624286749,-327680,88,-56,-1,-1,0
1523624286749,-262144,88,-56,-1,-1,0
1523624286749,-262144,88,-56,-1,-1,0
1523624286749,-196608,88,-56,-1,-1,0
1523624286789,-65536,88,-56,-1,-1,0
1523624286789,0,88,-56,-1,-1,0
1523624286789,131072,88,-56,-1,-1,0
1523624286789,327680,88,-56,-1,-1,0
1523624286789,524288,88,-56,-1,-1,0
1523624286829,720896,88,-56,-1,-1,0
1523624286829,983040,88,-56,-1,-1,0
1523624286829,1245184,88,-56,-1,-1,0
1523624286829,1441792,88,-56,-1,-1,0
1523624286829,1507328,88,-56,-1,-1,0
1523624286869,1572864,88,-56,-1,-1,0
1523624286869,1507328,88,-56,-1,-1,0
1523624286869,1310720,88,-56,-1,-1,0
1523624286869,1048576,88,-56,-1,-1,0
1523624286869,720896,88,-56,-1,-1,0
1523624286909,393216,88,-56,-1,-1,0
1523624286909,131072,88,-56,-1,-1,0
1523624286909,0,88,-56,-1,-1,0
1523624286909,-196608,88,-56,-1,-1,0
1523624286909,-327680,88,-56,-1,-1,0
1523624286950,-393216,88,-56,-1,-1,0
1523624286950,-458752,88,-56,-1,-1,0
1523624286950,-458752,88,-56,-1,-1,0
1523624286950,-458752,88,-56,-1,-1,0
1523624286950,-524288,88,-56,-1,-1,0
1523624286989,-524288,88,-56,-1,-1,0
1523624286989,-524288,88,-56,-1,-1,0
1523624286989,-524288,88,-56,-1,-1,0
1523624286989,-524288,88,-56,-1,-1,0
1523624286989,-524288,88,-56,-1,-1,0
1523624287029,-524288,88,-56,-1,-1,0
1523624287029,-524288,88,-56,-1,-1,0
1523624287029,-524288,88,-56,-1,-1,0
1523624287029,-524288,88,-56,-1,-1,0
1523624287029,-524288,88,-56,-1,-1,0
1523624287069,-524288,88,-56,-1,-1,0
1523624287069,-458752,88,-56,-1,-1,0
1523624287069,-458752,88,-56,-1,-1,0
1523624287069,-458752,88,-56,-1,-1,0
1523624287069,-458752,88,-56,-1,-1,0
1523624287109,-458752,88,-56,-1,-1,0
1523624287109,-393216,88,-56,-1,-1,0
1523624287109,-458752,88,-56,-1,-1,0
1523624287109,-524288,88,-56,-1,-1,0
1523624287109,-589824,88,-56,-1,-1,0
1523624287149,-655360,88,-56,-1,-1,0
1523624287149,-655360,88,-56,-1,-1,0
1523624287149,-589824,88,-56,-1,-1,0
1523624287149,-458752,88,-56,-1,-1,0
1523624287149,-393216,88,-56,-1,-1,0
1523624287189,-327680,88,-56,-1,-1,0
1523624287189,-327680,88,-56,-1,-1,0
1523624287189,-393216,88,-56,-1,-1,0
1523624287189,-458752,88,-56,-1,-1,0
1523624287189,-524288,88,-56,-1,-1,0
1523624287229,-589824,88,-56,-1,-1,0
1523624287229,-589824,88,-56,-1,-1,0
1523624287229,-655360,88,-56,-1,-1,0
1523624287229,-655360,88,-56,-1,-1,0
1523624287229,-655360,88,-56,-1,-1,0
1523624287269,-655360,88,-56,-1,-1,0
1523624287269,-655360,88,-56,-1,-1,0
1523624287269,-655360,88,-56,-1,-1,0
1523624287269,-655360,88,-56,-1,-1,0
1523624287269,-524288,88,-56,-1,-1,0
1523624287309,524288,88,-56,-1,-1,0
1523624287309,3604480,88,-56,-1,-1,0
1523624287309,7340032,88,-56,-1,-1,0
1523624287309,7471104,88,-56,-1,-1,0
1523624287309,3342336,88,-56,-1,-1,0
1523624287349,-655360,88,-56,-1,-1,0
1523624287349,-1966080,88,-56,-1,-1,0
1523624287349,-1703936,88,-56,-1,-1,0
1523624287349,-1245184,88,-56,-1,-1,0
1523624287349,-851968,88,-56,-1,-1,0
1523624287389,-720896,88,-56,-1,-1,0
1523624287389,-655360,88,-56,-1,-1,0
1523624287389,-589824,88,-56,-1,-1,0
1523624287389,-524288,88,-56,-1,-1,0
1523624287389,-458752,88,-56,-1,-1,0
1523624287429,-393216,88,-56,-1,-1,0
1523624287429,-393216,88,-56,-1,-1,0
1523624287429,-327680,88,-56,-1,-1,0
1523624287429,-327680,88,-56,-1,-1,0
1523624287429,-196608,88,-56,-1,-1,0
1523624287469,-131072,88,-56,-1,-1,0
1523624287469,0,88,-56,-1,-1,0
1523624287469,0,88,-56,-1,-1,0
1523624287469,131072,88,-56,-1,-1,0
1523624287469,327680,88,-56,-1,-1,0
1523624287509,524288,88,-56,-1,-1,0
1523624287509,851968,88,-56,-1,-1,0
1523624287509,1114112,88,-56,-1,-1,0
1523624287509,1310720,88,-56,-1,-1,0
1523624287509,1507328,88,-56,-1,-1,0
1523624287549,1572864,88,-56,-1,-1,0
1523624287549,1572864,88,-56,-1,-1,0
1523624287549,1507328,88,-56,-1,-1,0
1523624287549,1310720,88,-56,-1,-1,0
1523624287549,1048576,88,-56,-1,-1,0
1523624287591,786432,88,-56,-1,-1,0
1523624287591,524288,88,-56,-1,-1,0
1523624287591,196608,88,-56,-1,-1,0
1523624287591,0,88,-56,-1,-1,0
1523624287591,-131072,88,-56,-1,-1,0
1523624287629,-262144,88,-56,-1,-1,0
1523624287629,-327680,88,-56,-1,-1,0
1523624287629,-393216,88,-56,-1,-1,0
1523624287629,-458752,88,-56,-1,-1,0
1523624287629,-458752,88,-56,-1,-1,0
1523624287669,-458752,88,-56,-1,-1,0
1523624287669,-458752,88,-56,-1,-1,0
1523624287669,-458752,88,-56,-1,-1,0
1523624287669,-458752,88,-56,-1,-1,0
1523624287669,-458752,88,-56,-1,-1,0
1523624287709,-458752,88,-56,-1,-1,0
1523624287709,-458752,88,-56,-1,-1,0
1523624287709,-458752,88,-56,-1,-1,0
1523624287709,-458752,88,-56,-1,-1,0
1523624287709,-458752,88,-56,-1,-1,0
1523624287749,-393216,88,-56,-1,-1,0
1523624287749,-393216,88,-56,-1,-1,0
1523624287749,-393216,88,-56,-1,-1,0
1523624287749,-393216,88,-56,-1,-1,0
1523624287749,-393216,88,-56,-1,-1,0
1523624287789,-393216,88,-56,-1,-1,0
1523624287789,-393216,88,-56,-1,-1,0
1523624287789,-458752,88,-56,-1,-1,0
1523624287789,-458752,88,-56,-1,-1,0
1523624287789,-458752,88,-56,-1,-1,0
1523624287829,-458752,88,-56,-1,-1,0
1523624287829,-458752,88,-56,-1,-1,0
1523624287829,-458752,88,-56,-1,-1,0
1523624287829,-524288,88,-56,-1,-1,0
1523624287829,-524288,88,-56,-1,-1,0
1523624287869,-524288,88,-56,-1,-1,0
1523624287869,-589824,88,-56,-1,-1,0
1523624287869,-458752,88,-56,-1,-1,0
1523624287869,-393216,88,-56,-1,-1,0
1523624287869,-262144,88,-56,-1,-1,0
1523624287909,-262144,88,-56,-1,-1,0
1523624287909,-262144,88,-56,-1,-1,0
1523624287909,-393216,88,-56,-1,-1,0
1523624287909,-458752,88,-56,-1,-1,0
1523624287909,-524288,88,-56,-1,-1,0
1523624287949,-524288,88,-56,-1,-1,0
1523624287949,-589824,88,-56,-1,-1,0
1523624287949,-589824,88,-56,-1,-1,0
1523624287949,-655360,88,-56,-1,-1,0
1523624287949,-655360,88,-56,-1,-1,0
1523624287990,-655360,88,-56,-1,-1,0
1523624287990,-655360,88,-56,-1,-1,0
1523624287990,-589824,88,-56,-1,-1,0
1523624287990,-458752,88,-56,-1,-1,0
1523624287990,524288,88,-56,-1,-1,0
1523624288029,3604480,87,-56,-1,-1,0
1523624288029,7340032,87,-56,-1,-1,0
1523624288029,7471104,87,-56,-1,-1,0
1523624288029,3407872,87,-56,-1,-1,0
1523624288029,-589824,87,-56,-1,-1,0
1523624288069,-1900544,87,-56,-1,-1,0
1523624288069,-1638400,87,-56,-1,-1,0
1523624288069,-1245184,87,-56,-1,-1,0
1523624288069,-917504,87,-56,-1,-1,0
1523624288069,-786432,87,-56,-1,-1,0
1523624288109,-720896,87,-56,-1,-1,0
1523624288109,-655360,87,-56,-1,-1,0
1523624288109,-524288,87,-56,-1,-1,0
1523624288109,-524288,87,-56,-1,-1,0
1523624288109,-458752,87,-56,-1,-1,0
1523624288149,-393216,87,-56,-1,-1,0
1523624288149,-393216,87,-56,-1,-1,0
1523624288149,-327680,87,-56,-1,-1,0
1523624288149,-262144,87,-56,-1,-1,0
1523624288149,-196608,87,-56,-1,-1,0
1523624288189,-65536,87,-56,-1,-1,0
1523624288189,0,87,-56,-1,-1,0
1523624288189,65536,87,-56,-1,-1,0
1523624288189,196608,87,-56,-1,-1,0
1523624288189,458752,87,-56,-1,-1,0
1523624288231,720896,87,-56,-1,-1,0
1523624288231,917504,87,-56,-1,-1,0
1523624288231,1179648,87,-56,-1,-1,0
1523624288231,1310720,87,-56,-1,-1,0
1523624288231,1441792,87,-56,-1,-1,0
1523624288269,1441792,87,-56,-1,-1,0
1523624288269,1376256,87,-56,-1,-1,0
1523624288269,1179648,87,-56,-1,-1,0
1523624288269,983040,87,-56,-1,-1,0
1523624288269,720896,87,-56,-1,-1,0
1523624288309,458752,87,-56,-1,-1,0
1523624288309,196608,87,-56,-1,-1,0
1523624288309,0,87,-56,-1,-1,0
1523624288309,-131072,87,-56,-1,-1,0
1523624288309,-262144,87,-56,-1,-1,0
1523624288349,-327680,87,-56,-1,-1,0
1523624288349,-458752,87,-56,-1,-1,0
1523624288349,-458752,87,-56,-1,-1,0
1523624288349,-524288,87,-56,-1,-1,0
1523624288349,-524288,87,-56,-1,-1,0
1523624288389,-524288,87,-56,-1,-1,0
1523624288389,-524288,87,-56,-1,-1,0
1523624288389,-524288,87,-56,-1,-1,0
1523624288389,-524288,87,-56,-1,-1,0
1523624288389,-524288,87,-56,-1,-1,0
1523624288429,-524288,87,-56,-1,-1,0
1523624288429,-524288,87,-56,-1,-1,0
1523624288429,-458752,87,-56,-1,-1,0
1523624288429,-458752,87,-56,-1,-1,0
1523624288429,-458752,87,-56,-1,-1,0
1523624288469,-393216,87,-56,-1,-1,0
1523624288469,-327680,87,-56,-1,-1,0
1523624288469,-327680,87,-56,-1,-1,0
1523624288469,-393216,87,-56,-1,-1,0
1523624288469,-393216,87,-56,-1,-1,0
1523624288509,-393216,87,-56,-1,-1,0
1523624288509,-393216,87,-56,-1,-1,0
1523624288509,-458752,87,-56,-1,-1,0
1523624288509,-458752,87,-56,-1,-1,0
1523624288509,-458752,87,-56,-1,-1,0
1523624288549,-524288,87,-56,-1,-1,0
1523624288549,-524288,87,-56,-1,-1,0
1523624288549,-524288,87,-56,-1,-1,0
1523624288549,-524288,87,-56,-1,-1,0
1523624288549,-524288,87,-56,-1,-1,0
1523624288589,-524288,87,-56,-1,-1,0
1523624288589,-589824,87,-56,-1,-1,0
1523624288589,-589824,87,-56,-1,-1,0
1523624288589,-458752,87,-56,-1,-1,0
1523624288589,-393216,87,-56,-1,-1,0
1523624288629,-262144,87,-56,-1,-1,0
1523624288629,-262144,87,-56,-1,-1,0
1523624288629,-262144,87,-56,-1,-1,0
1523624288629,-327680,87,-56,-1,-1,0
1523624288629,-458752,87,-56,-1,-1,0
1523624288669,-524288,87,-56,-1,-1,0
1523624288669,-524288,87,-56,-1,-1,0
1523624288669,-589824,87,-56,-1,-1,0
1523624288669,-589824,87,-56,-1,-1,0
1523624288669,-589824,87,-56,-1,-1,0
1523624288709,-589824,87,-56,-1,-1,0
1523624288709,-589824,87,-56,-1,-1,0
1523624288709,-589824,87,-56,-1,-1,0
1523624288709,-589824,87,-56,-1,-1,0
1523624288709,-524288,87,-56,-1,-1,0
1523624288749,0,87,-56,-1,-1,0
1523624288749,2490368,87,-56,-1,-1,0
1523624288749,6553600,87,-56,-1,-1,0
1523624288749,8388608,87,-56,-1,-1,0
1523624288749,5308416,87,-56,-1,-1,0
1523624288789,524288,86,-56,-1,-1,0
1523624288789,-1703936,86,-56,-1,-1,0
1523624288789,-1769472,86,-56,-1,-1,0
1523624288789,-1310720,86,-56,-1,-1,0
1523624288789,-983040,86,-56,-1,-1,0
1523624288829,-786432,86,-56,-1,-1,0
1523624288829,-655360,86,-56,-1,-1,0
1523624288829,-589824,86,-56,-1,-1,0
1523624288829,-524288,86,-56,-1,-1,0
1523624288829,-458752,86,-56,-1,-1,0
1523624288870,-393216,86,-56,-1,-1,0
1523624288870,-393216,86,-56,-1,-1,0
1523624288870,-327680,86,-56,-1,-1,0
1523624288870,-327680,86,-56,-1,-1,0
1523624288870,-196608,86,-56,-1,-1,0
1523624288909,-131072,86,-56,-1,-1,0
1523624288909,-65536,86,-56,-1,-1,0
1523624288909,0,86,-56,-1,-1,0
1523624288909,131072,86,-56,-1,-1,0
1523624288909,262144,86,-56,-1,-1,0
1523624288949,458752,86,-56,-1,-1,0
1523624288949,720896,86,-56,-1,-1,0
1523624288949,917504,86,-56,-1,-1,0
1523624288949,1179648,86,-56,-1,-1,0
1523624288949,1376256,86,-56,-1,-1,0
1523624288989,1572864,86,-56,-1,-1,0
1523624288989,1638400,86,-56,-1,-1,0
1523624288989,1572864,86,-56,-1,-1,0
1523624288989,1441792,86,-56,-1,-1,0
1523624288989,1245184,86,-56,-1,-1,0
1523624289029,983040,86,-56,-1,-1,0
1523624289029,655360,86,-56,-1,-1,0
1523624289029,327680,86,-56,-1,-1,0
1523624289029,131072,86,-56,-1,-1,0
1523624289029,-65536,86,-56,-1,-1,0
1523624289069,-196608,86,-56,-1,-1,0
1523624289069,-327680,86,-56,-1,-1,0
1523624289069,-458752,86,-56,-1,-1,0
1523624289069,-524288,86,-56,-1,-1,0
1523624289069,-720896,86,-56,-1,-1,0
1523624289109,-851968,86,-56,-1,-1,0
1523624289109,-589824,86,-56,-1,-1,0
1523624289109,-327680,86,-56,-1,-1,0
1523624289109,-327680,86,-56,-1,-1,0
1523624289109,-196608,86,-56,-1,-1,0
1523624289149,-131072,86,-56,-1,-1,0
1523624289149,-327680,86,-56,-1,-1,0
1523624289149,-262144,86,-56,-1,-1,0
1523624289149,-65536,86,-56,-1,-1,0
1523624289149,-131072,86,-56,-1,-1,0
1523624289189,-327680,86,-56,-1,-1,0
1523624289189,-589824,86,-56,-1,-1,0
1523624289189,-589824,86,-56,-1,-1,0
1523624289189,-262144,86,-56,-1,-1,0
1523624289189,-131072,86,-56,-1,-1,0
1523624289229,-655360,86,-56,-1,-1,0
1523624289229,-1048576,86,-56,-1,-1,0
1523624289229,-917504,86,-56,-1,-1,0
1523624289229,-655360,86,-56,-1,-1,0
1523624289229,-589824,86,-56,-1,-1,0
1523624289269,-458752,86,-56,-1,-1,0
1523624289269,-393216,86,-56,-1,-1,0
1523624289269,-786432,86,-56,-1,-1,0
1523624289269,-1048576,86,-56,-1,-1,0
1523624289269,-1245184,86,-56,-1,-1,0
1523624289309,-1179648,86,-56,-1,-1,0
1523624289309,-1179648,86,-56,-1,-1,0
1523624289309,-851968,86,-56,-1,-1,0
1523624289309,-655360,86,-56,-1,-1,0
1523624289309,-720896,86,-56,-1,-1,0
1523624289349,-589824,86,-56,-1,-1,0
1523624289349,-393216,86,-56,-1,-1,0
1523624289349,-589824,86,-56,-1,-1,0
1523624289349,-917504,86,-56,-1,-1,0
1523624289349,-655360,86,-56,-1,-1,0
1523624289389,-131072,86,-56,-1,-1,0
1523624289389,-131072,86,-56,-1,-1,0
1523624289389,-196608,86,-56,-1,-1,0
1523624289389,-65536,86,-56,-1,-1,0
1523624289389,0,86,-56,-1,-1,0
1523624289429,-327680,86,-56,-1,-1,0
1523624289429,-393216,86,-56,-1,-1,0
1523624289429,-458752,86,-56,-1,-1,0
1523624289429,-393216,86,-56,-1,-1,0
1523624289429,-589824,86,-56,-1,-1,0
1523624289469,-589824,86,-56,-1,-1,0
1523624289469,-196608,86,-56,-1,-1,0
1523624289469,-131072,86,-56,-1,-1,0
1523624289469,-589824,86,-56,-1,-1,0
1523624289469,131072,86,-56,-1,-1,0
1523624289510,3014656,86,-56,-1,-1,0
1523624289510,7143424,86,-56,-1,-1,0
1523624289510,7995392,86,-56,-1,-1,0
1523624289510,4063232,86,-56,-1,-1,0
1523624289510,-589824,86,-56,-1,-1,0
1523624289549,-2228224,86,-56,-1,-1,0
1523624289549,-2097152,86,-56,-1,-1,0
1523624289549,-1638400,86,-56,-1,-1,0
1523624289549,-917504,86,-56,-1,-1,0
1523624289549,-262144,86,-56,-1,-1,0
1523624289589,-196608,86,-56,-1,-1,0
1523624289589,-458752,86,-56,-1,-1,0
1523624289589,-720896,86,-56,-1,-1,0
1523624289589,-589824,86,-56,-1,-1,0
1523624289589,-196608,86,-56,-1,-1,0
1523624289629,65536,86,-56,-1,-1,0
1523624289629,0,86,-56,-1,-1,0
1523624289629,-65536,86,-56,-1,-1,0
1523624289629,-196608,86,-56,-1,-1,0
1523624289629,-196608,86,-56,-1,-1,0
1523624289669,-65536,86,-56,-1,-1,0
1523624289669,327680,86,-56,-1,-1,0
1523624289669,720896,86,-56,-1,-1,0
1523624289669,851968,86,-56,-1,-1,0
1523624289669,786432,86,-56,-1,-1,0
1523624289709,983040,86,-56,-1,-1,0
1523624289709,1179648,86,-56,-1,-1,0
1523624289709,1376256,86,-56,-1,-1,0
1523624289709,1835008,86,-56,-1,-1,0
1523624289709,2162688,86,-56,-1,-1,0
1523624289749,2097152,86,-56,-1,-1,0
1523624289749,1769472,86,-56,-1,-1,0
1523624289749,1638400,86,-56,-1,-1,0
1523624289749,1638400,86,-56,-1,-1,0
1523624289749,1310720,86,-56,-1,-1,0
1523624289789,720896,86,-56,-1,-1,0
1523624289789,196608,86,-56,-1,-1,0
1523624289789,-196608,86,-56,-1,-1,0
1523624289789,-393216,86,-56,-1,-1,0
1523624289789,-196608,86,-56,-1,-1,0
1523624289829,-131072,86,-56,-1,-1,0
1523624289829,-327680,86,-56,-1,-1,0
1523624289829,-524288,86,-56,-1,-1,0
1523624289829,-327680,86,-56,-1,-1,0
1523624289829,196608,86,-56,-1,-1,0
1523624289869,65536,86,-56,-1,-1,0
1523624289869,-655360,86,-56,-1,-1,0
1523624289869,-786432,86,-56,-1,-1,0
1523624289869,-393216,86,-56,-1,-1,0
1523624289869,-196608,86,-56,-1,-1,0
1523624289909,-196608,86,-56,-1,-1,0
1523624289909,-262144,86,-56,-1,-1,0
1523624289909,-327680,86,-56,-1,-1,0
1523624289909,-458752,86,-56,-1,-1,0
1523624289909,-917504,86,-56,-1,-1,0
1523624289949,-917504,86,-56,-1,-1,0
1523624289949,-655360,86,-56,-1,-1,0
1523624289949,-393216,86,-56,-1,-1,0
1523624289949,-327680,86,-56,-1,-1,0
1523624289949,-458752,86,-56,-1,-1,0
1523624289989,-524288,86,-56,-1,-1,0
1523624289989,-393216,86,-56,-1,-1,0
1523624289989,-393216,86,-56,-1,-1,0
1523624289989,-655360,86,-56,-1,-1,0
1523624289989,-851968,86,-56,-1,-1,0
1523624290029,-720896,86,-56,-1,-1,0
1523624290029,-655360,86,-56,-1,-1,0
1523624290029,-655360,86,-56,-1,-1,0
1523624290029,-655360,86,-56,-1,-1,0
1523624290029,-851968,86,-56,-1,-1,0
1523624290069,-917504,86,-56,-1,-1,0
1523624290069,-851968,86,-56,-1,-1,0
1523624290069,-655360,86,-56,-1,-1,0
1523624290069,-524288,86,-56,-1,-1,0
1523624290069,-524288,86,-56,-1,-1,0
1523624290109,-589824,86,-56,-1,-1,0
1523624290109,-720896,86,-56,-1,-1,0
1523624290109,-786432,86,-56,-1,-1,0
1523624290109,-851968,86,-56,-1,-1,0
1523624290109,-983040,86,-56,-1,-1,0
1523624290150,-1114112,86,-56,-1,-1,0
1523624290150,-1179648,86,-56,-1,-1,0
1523624290150,-917504,86,-56,-1,-1,0
1523624290150,-589824,86,-56,-1,-1,0
1523624290150,-786432,86,-56,-1,-1,0
1523624290189,-1179648,85,-56,-1,-1,0
1523624290189,-1179648,85,-56,-1,-1,0
1523624290189,-1245184,85,-56,-1,-1,0
1523624290189,-720896,85,-56,-1,-1,0
1523624290189,1703936,85,-56,-1,-1,0
1523624290229,6029312,85,-56,-1,-1,0
1523624290229,8388608,85,-56,-1,-1,0
1523624290229,5570560,85,-56,-1,-1,0
1523624290229,458752,85,-56,-1,-1,0
1523624290229,-2162688,85,-56,-1,-1,0
1523624290269,-2359296,85,-56,-1,-1,0
1523624290269,-1835008,85,-56,-1,-1,0
1523624290269,-1441792,85,-56,-1,-1,0
1523624290269,-1179648,85,-56,-1,-1,0
1523624290269,-1179648,85,-56,-1,-1,0
1523624290309,-983040,85,-56,-1,-1,0
1523624290309,-851968,85,-56,-1,-1,0
1523624290309,-851968,85,-56,-1,-1,0
1523624290309,-917504,85,-56,-1,-1,0
1523624290309,-655360,85,-56,-1,-1,0
1523624290349,-327680,85,-56,-1,-1,0
1523624290349,-65536,85,-56,-1,-1,0
1523624290349,-131072,85,-56,-1,-1,0
1523624290349,-65536,85,-56,-1,-1,0
1523624290349,0,85,-56,-1,-1,0
1523624290389,196608,85,-56,-1,-1,0
1523624290389,262144,85,-56,-1,-1,0
1523624290389,327680,85,-56,-1,-1,0
1523624290389,458752,85,-56,-1,-1,0
1523624290389,851968,85,-56,-1,-1,0
1523624290429,1245184,85,-56,-1,-1,0
1523624290429,1572864,85,-56,-1,-1,0
1523624290429,1900544,85,-56,-1,-1,0
1523624290429,2162688,85,-56,-1,-1,0
1523624290429,2293760,85,-56,-1,-1,0
1523624290469,2293760,85,-56,-1,-1,0
1523624290469,2162688,85,-56,-1,-1,0
1523624290469,1835008,85,-56,-1,-1,0
1523624290469,1572864,85,-56,-1,-1,0
1523624290469,1179648,85,-56,-1,-1,0
1523624290509,655360,85,-56,-1,-1,0
1523624290509,0,85,-56,-1,-1,0
1523624290509,-262144,85,-56,-1,-1,0
1523624290509,-196608,85,-56,-1,-1,0
1523624290509,-131072,85,-56,-1,-1,0
1523624290549,-327680,85,-56,-1,-1,0
1523624290549,-524288,85,-56,-1,-1,0
1523624290549,-589824,85,-56,-1,-1,0
1523624290549,-589824,85,-56,-1,-1,0
1523624290549,-720896,85,-56,-1,-1,0
1523624290589,-851968,85,-56,-1,-1,0
1523624290589,-983040,85,-56,-1,-1,0
1523624290589,-1048576,85,-56,-1,-1,0
1523624290589,-851968,85,-56,-1,-1,0
1523624290589,-589824,85,-56,-1,-1,0
1523624290629,-393216,85,-56,-1,-1,0
1523624290629,-393216,85,-56,-1,-1,0
1523624290629,-524288,85,-56,-1,-1,0
1523624290629,-458752,85,-56,-1,-1,0
1523624290629,-327680,85,-56,-1,-1,0
1523624290669,-262144,85,-56,-1,-1,0
1523624290669,-262144,85,-56,-1,-1,0
1523624290669,-131072,85,-56,-1,-1,0
1523624290669,-65536,85,-56,-1,-1,0
1523624290669,-65536,85,-56,-1,-1,0
1523624290709,-65536,85,-56,-1,-1,0
1523624290709,-131072,85,-56,-1,-1,0
1523624290709,-196608,85,-56,-1,-1,0
1523624290709,-327680,85,-56,-1,-1,0
1523624290709,-524288,85,-56,-1,-1,0
1523624290749,-786432,85,-56,-1,-1,0
1523624290749,-917504,85,-56,-1,-1,0
1523624290749,-851968,85,-56,-1,-1,0
1523624290749,-589824,85,-56,-1,-1,0
1523624290749,-327680,85,-56,-1,-1,0
1523624290790,-131072,85,-56,-1,-1,0
1523624290790,-65536,85,-56,-1,-1,0
1523624290790,-65536,85,-56,-1,-1,0
1523624290790,-196608,85,-56,-1,-1,0
1523624290790,-458752,85,-56,-1,-1,0
1523624290829,-655360,85,-56,-1,-1,0
1523624290829,-720896,85,-56,-1,-1,0
1523624290829,-720896,85,-56,-1,-1,0
1523624290829,-655360,85,-56,-1,-1,0
1523624290829,-589824,85,-56,-1,-1,0
1523624290869,-589824,85,-56,-1,-1,0
1523624290869,-655360,85,-56,-1,-1,0
1523624290869,-655360,85,-56,-1,-1,0
1523624290869,-720896,85,-56,-1,-1,0
1523624290869,-786432,85,-56,-1,-1,0
1523624290909,-655360,85,-56,-1,-1,0
1523624290909,524288,85,-56,-1,-1,0
1523624290909,3735552,85,-56,-1,-1,0
1523624290909,7602176,85,-56,-1,-1,0
1523624290909,7602176,85,-56,-1,-1,0
1523624290949,3014656,85,-56,-1,-1,0
1523624290949,-1441792,85,-56,-1,-1,0
1523624290949,-2555904,85,-56,-1,-1,0
1523624290949,-2097152,85,-56,-1,-1,0
1523624290949,-1572864,85,-56,-1,-1,0
1523624290989,-1114112,85,-56,-1,-1,0
1523624290989,-917504,85,-56,-1,-1,0
1523624290989,-655360,85,-56,-1,-1,0
1523624290989,-393216,85,-56,-1,-1,0
1523624290989,-327680,85,-56,-1,-1,0
1523624291029,-262144,85,-56,-1,-1,0
1523624291029,-262144,85,-56,-1,-1,0
1523624291029,-196608,85,-56,-1,-1,0
1523624291029,65536,85,-56,-1,-1,0
1523624291029,0,85,-56,-1,-1,0
1523624291069,-393216,85,-56,-1,-1,0
1523624291069,-589824,85,-56,-1,-1,0
1523624291069,-196608,85,-56,-1,-1,0
1523624291069,393216,85,-56,-1,-1,0
1523624291069,655360,85,-56,-1,-1,0
1523624291109,851968,85,-56,-1,-1,0
1523624291109,1245184,85,-56,-1,-1,0
1523624291109,1507328,85,-56,-1,-1,0
1523624291109,1310720,85,-56,-1,-1,0
1523624291109,1114112,85,-56,-1,-1,0
1523624291149,1441792,85,-56,-1,-1,0
1523624291149,2031616,85,-56,-1,-1,0
1523624291149,2162688,85,-56,-1,-1,0
1523624291149,2097152,85,-56,-1,-1,0
1523624291149,2031616,85,-56,-1,-1,0
1523624291189,1572864,85,-56,-1,-1,0
1523624291189,983040,85,-56,-1,-1,0
1523624291189,589824,85,-56,-1,-1,0
1523624291189,327680,85,-56,-1,-1,0
1523624291189,0,85,-56,-1,-1,0
1523624291229,-131072,85,-56,-1,-1,0
1523624291229,-65536,85,-56,-1,-1,0
1523624291229,-196608,85,-56,-1,-1,0
1523624291229,-720896,85,-56,-1,-1,0
1523624291229,-1245184,85,-56,-1,-1,0
1523624291269,-1245184,85,-56,-1,-1,0
1523624291269,-786432,85,-56,-1,-1,0
1523624291269,-393216,85,-56,-1,-1,0
1523624291269,-262144,85,-56,-1,-1,0
1523624291269,-524288,85,-56,-1,-1,0
1523624291309,-720896,85,-56,-1,-1,0
1523624291309,-851968,85,-56,-1,-1,0
1523624291309,-720896,85,-56,-1,-1,0
1523624291309,-851968,85,-56,-1,-1,0
1523624291309,-917504,85,-56,-1,-1,0
1523624291349,-524288,85,-56,-1,-1,0
1523624291349,131072,85,-56,-1,-1,0
1523624291349,65536,85,-56,-1,-1,0
1523624291349,-327680,85,-56,-1,-1,0
1523624291349,-524288,85,-56,-1,-1,0
1523624291389,-589824,85,-56,-1,-1,0
1523624291389,-1048576,85,-56,-1,-1,0
1523624291389,-1114112,85,-56,-1,-1,0
1523624291389,-327680,85,-56,-1,-1,0
1523624291389,196608,85,-56,-1,-1,0
1523624291430,-65536,85,-56,-1,-1,0
1523624291430,-393216,85,-56,-1,-1,0
1523624291430,-131072,85,-56,-1,-1,0
1523624291430,0,85,-56,-1,-1,0
1523624291430,-262144,85,-56,-1,-1,0
1523624291469,-524288,85,-56,-1,-1,0
1523624291469,-589824,85,-56,-1,-1,0
1523624291469,-458752,85,-56,-1,-1,0
1523624291469,-196608,85,-56,-1,-1,0
1523624291469,-262144,85,-56,-1,-1,0
1523624291509,-655360,85,-56,-1,-1,0
1523624291509,-917504,85,-56,-1,-1,0
1523624291509,-917504,85,-56,-1,-1,0
1523624291509,-786432,85,-56,-1,-1,0
1523624291509,-851968,85,-56,-1,-1,0
1523624291549,-1114112,85,-56,-1,-1,0
1523624291549,-1048576,85,-56,-1,-1,0
1523624291549,-720896,85,-56,-1,-1,0
1523624291549,-589824,85,-56,-1,-1,0
1523624291549,-393216,85,-56,-1,-1,0
1523624291589,1507328,85,-56,-1,-1,0
1523624291589,4849664,85,-56,-1,-1,0
1523624291589,6684672,85,-56,-1,-1,0
1523624291589,4063232,85,-56,-1,-1,0
1523624291589,-655360,85,-56,-1,-1,0
1523624291629,-3473408,85,-56,-1,-1,0
1523624291629,-3670016,85,-56,-1,-1,0
1523624291629,-2752512,85,-56,-1,-1,0
1523624291629,-1572864,85,-56,-1,-1,0
1523624291629,-393216,85,-56,-1,-1,0
1523624291669,-196608,85,-56,-1,-1,0
1523624291669,-458752,85,-56,-1,-1,0
1523624291669,-655360,85,-56,-1,-1,0
1523624291669,-851968,85,-56,-1,-1,0
1523624291669,-720896,85,-56,-1,-1,0
1523624291709,-458752,85,-56,-1,-1,0
1523624291709,-131072,85,-56,-1,-1,0
1523624291709,-196608,85,-56,-1,-1,0
1523624291709,-131072,85,-56,-1,-1,0
1523624291709,0,85,-56,-1,-1,0
1523624291749,327680,85,-56,-1,-1,0
1523624291749,262144,85,-56,-1,-1,0
1523624291749,327680,85,-56,-1,-1,0
1523624291749,720896,85,-56,-1,-1,0
1523624291749,851968,85,-56,-1,-1,0
1523624291789,1048576,85,-56,-1,-1,0
1523624291789,1507328,85,-56,-1,-1,0
1523624291789,2293760,85,-56,-1,-1,0
1523624291789,2621440,85,-56,-1,-1,0
1523624291789,2424832,85,-56,-1,-1,0
1523624291829,2424832,85,-56,-1,-1,0
1523624291829,2359296,85,-56,-1,-1,0
1523624291829,2228224,85,-56,-1,-1,0
1523624291829,1900544,85,-56,-1,-1,0
1523624291829,1441792,85,-56,-1,-1,0
1523624291869,786432,85,-56,-1,-1,0
1523624291869,262144,85,-56,-1,-1,0
1523624291869,262144,85,-56,-1,-1,0
1523624291869,196608,85,-56,-1,-1,0
1523624291869,0,85,-56,-1,-1,0
1523624291909,-196608,85,-56,-1,-1,0
1523624291909,-524288,85,-56,-1,-1,0
1523624291909,-786432,85,-56,-1,-1,0
1523624291909,-851968,85,-56,-1,-1,0
1523624291909,-786432,85,-56,-1,-1,0
1523624291949,-851968,85,-56,-1,-1,0
1523624291949,-851968,85,-56,-1,-1,0
1523624291949,-786432,85,-56,-1,-1,0
1523624291949,-655360,85,-56,-1,-1,0
1523624291949,-655360,85,-56,-1,-1,0
1523624291989,-524288,85,-56,-1,-1,0
1523624291989,-393216,85,-56,-1,-1,0
1523624291989,-393216,85,-56,-1,-1,0
1523624291989,-458752,85,-56,-1,-1,0
1523624291989,-720896,85,-56,-1,-1,0
1523624292029,-851968,85,-56,-1,-1,0
1523624292029,-851968,85,-56,-1,-1,0
1523624292029,-1048576,85,-56,-1,-1,0
1523624292029,-786432,85,-56,-1,-1,0
1523624292029,-393216,85,-56,-1,-1,0
1523624292070,-262144,85,-56,-1,-1,0
1523624292070,-458752,85,-56,-1,-1,0
1523624292070,-524288,85,-56,-1,-1,0
1523624292070,-524288,85,-56,-1,-1,0
1523624292070,-327680,85,-56,-1,-1,0
1523624292109,-262144,85,-56,-1,-1,0
1523624292109,-393216,85,-56,-1,-1,0
1523624292109,-524288,85,-56,-1,-1,0
1523624292109,-655360,85,-56,-1,-1,0
1523624292109,-851968,85,-56,-1,-1,0
1523624292149,-851968,85,-56,-1,-1,0
1523624292149,-720896,85,-56,-1,-1,0
1523624292149,-589824,85,-56,-1,-1,0
1523624292149,-458752,85,-56,-1,-1,0
1523624292149,-524288,85,-56,-1,-1,0
1523624292189,-851968,86,-56,-1,-1,0
1523624292189,-983040,86,-56,-1,-1,0
1523624292189,-1048576,86,-56,-1,-1,0
1523624292189,-1048576,86,-56,-1,-1,0
1523624292189,-1179648,86,-56,-1,-1,0
1523624292229,-917504,86,-56,-1,-1,0
1523624292229,-65536,86,-56,-1,-1,0
1523624292229,1966080,86,-56,-1,-1,0
1523624292229,5177344,86,-56,-1,-1,0
1523624292229,7143424,86,-56,-1,-1,0
1523624292269,4784128,86,-56,-1,-1,0
1523624292269,196608,86,-56,-1,-1,0
1523624292269,-2359296,86,-56,-1,-1,0
1523624292269,-2490368,86,-56,-1,-1,0
1523624292269,-1769472,86,-56,-1,-1,0
1523624292309,-1245184,86,-56,-1,-1,0
1523624292309,-983040,86,-56,-1,-1,0
1523624292309,-983040,86,-56,-1,-1,0
1523624292309,-917504,86,-56,-1,-1,0
1523624292309,-851968,86,-56,-1,-1,0
1523624292349,-786432,86,-56,-1,-1,0
1523624292349,-786432,86,-56,-1,-1,0
1523624292349,-786432,86,-56,-1,-1,0
1523624292349,-655360,86,-56,-1,-1,0
1523624292349,-524288,86,-56,-1,-1,0
1523624292389,-524288,86,-56,-1,-1,0
1523624292389,-589824,86,-56,-1,-1,0
1523624292389,-589824,86,-56,-1,-1,0
1523624292389,-327680,86,-56,-1,-1,0
1523624292389,-131072,86,-56,-1,-1,0
1523624292429,0,86,-56,-1,-1,0
1523624292429,65536,86,-56,-1,-1,0
1523624292429,327680,86,-56,-1,-1,0
1523624292429,589824,86,-56,-1,-1,0
1523624292429,917504,86,-56,-1,-1,0
1523624292469,1179648,86,-56,-1,-1,0
1523624292469,1376256,86,-56,-1,-1,0
1523624292469,1441792,86,-56,-1,-1,0
1523624292469,1376256,86,-56,-1,-1,0
1523624292469,1245184,86,-56,-1,-1,0
1523624292509,1114112,86,-56,-1,-1,0
1523624292509,851968,86,-56,-1,-1,0
1523624292509,458752,86,-56,-1,-1,0
1523624292509,0,86,-56,-1,-1,0
1523624292509,-524288,86,-56,-1,-1,0
1523624292549,-983040,86,-56,-1,-1,0
1523624292549,-1048576,86,-56,-1,-1,0
1523624292549,-851968,86,-56,-1,-1,0
1523624292549,-655360,86,-56,-1,-1,0
1523624292549,-655360,86,-56,-1,-1,0
1523624292589,-786432,86,-56,-1,-1,0
1523624292589,-851968,86,-56,-1,-1,0
1523624292589,-786432,86,-56,-1,-1,0
1523624292589,-786432,86,-56,-1,-1,0
1523624292589,-786432,86,-56,-1,-1,0
1523624292629,-851968,86,-56,-1,-1,0
1523624292629,-917504,86,-56,-1,-1,0
1523624292629,-851968,86,-56,-1,-1,0
1523624292629,-655360,86,-56,-1,-1,0
1523624292629,-458752,86,-56,-1,-1,0
1523624292669,-393216,86,-56,-1,-1,0
1523624292669,-327680,86,-56,-1,-1,0
1523624292669,-393216,86,-56,-1,-1,0
1523624292669,-589824,86,-56,-1,-1,0
1523624292669,-524288,86,-56,-1,-1,0
1523624292710,-196608,86,-56,-1,-1,0
1523624292710,131072,86,-56,-1,-1,0
1523624292710,196608,86,-56,-1,-1,0
1523624292710,65536,86,-56,-1,-1,0
1523624292710,-65536,86,-56,-1,-1,0
1523624292749,0,86,-56,-1,-1,0
1523624292749,196608,86,-56,-1,-1,0
1523624292749,327680,86,-56,-1,-1,0
1523624292749,327680,86,-56,-1,-1,0
1523624292749,0,86,-56,-1,-1,0
1523624292789,-196608,87,-56,-1,-1,0
1523624292789,-262144,87,-56,-1,-1,0
1523624292789,-131072,87,-56,-1,-1,0
1523624292789,-131072,87,-56,-1,-1,0
1523624292789,-131072,87,-56,-1,-1,0
1523624292829,-65536,87,-56,-1,-1,0
1523624292829,0,87,-56,-1,-1,0
1523624292829,-393216,87,-56,-1,-1,0
1523624292829,-786432,87,-56,-1,-1,0
1523624292829,-851968,87,-56,-1,-1,0
1523624292869,-589824,87,-56,-1,-1,0
1523624292869,-524288,87,-56,-1,-1,0
1523624292869,0,87,-56,-1,-1,0
1523624292869,2097152,87,-56,-1,-1,0
1523624292869,6225920,87,-56,-1,-1,0
1523624292910,8781824,87,-56,-1,-1,0
1523624292910,5832704,87,-56,-1,-1,0
1523624292910,327680,87,-56,-1,-1,0
1523624292910,-2162688,87,-56,-1,-1,0
1523624292910,-2097152,87,-56,-1,-1,0
1523624292949,-1703936,87,-56,-1,-1,0
1523624292949,-1245184,87,-56,-1,-1,0
1523624292949,-720896,87,-56,-1,-1,0
1523624292949,-524288,87,-56,-1,-1,0
1523624292949,-393216,87,-56,-1,-1,0
1523624292991,-196608,87,-56,-1,-1,0
1523624292991,0,87,-56,-1,-1,0
1523624292991,65536,87,-56,-1,-1,0
1523624292991,65536,87,-56,-1,-1,0
1523624292991,0,87,-56,-1,-1,0
1523624293029,-262144,87,-56,-1,-1,0
1523624293029,-327680,87,-56,-1,-1,0
1523624293029,0,87,-56,-1,-1,0
1523624293029,393216,87,-56,-1,-1,0
1523624293029,655360,87,-56,-1,-1,0
1523624293069,917504,87,-56,-1,-1,0
1523624293069,1179648,87,-56,-1,-1,0
1523624293069,1114112,87,-56,-1,-1,0
1523624293069,1048576,87,-56,-1,-1,0
1523624293069,1376256,87,-56,-1,-1,0
1523624293109,1769472,87,-56,-1,-1,0
1523624293109,2162688,87,-56,-1,-1,0
1523624293109,2555904,87,-56,-1,-1,0
1523624293109,2949120,87,-56,-1,-1,0
1523624293109,2949120,87,-56,-1,-1,0
1523624293149,2555904,87,-56,-1,-1,0
1523624293149,1900544,87,-56,-1,-1,0
1523624293149,1245184,87,-56,-1,-1,0
1523624293149,655360,87,-56,-1,-1,0
1523624293149,262144,87,-56,-1,-1,0
1523624293191,196608,87,-56,-1,-1,0
1523624293191,262144,87,-56,-1,-1,0
1523624293191,262144,87,-56,-1,-1,0
1523624293191,262144,87,-56,-1,-1,0
1523624293191,65536,87,-56,-1,-1,0
1523624293229,-65536,87,-56,-1,-1,0
1523624293229,-262144,87,-56,-1,-1,0
1523624293229,-524288,87,-56,-1,-1,0
1523624293229,-983040,87,-56,-1,-1,0
1523624293229,-983040,87,-56,-1,-1,0
1523624293269,-655360,87,-56,-1,-1,0
1523624293269,-458752,87,-56,-1,-1,0
1523624293269,-655360,87,-56,-1,-1,0
1523624293269,-589824,87,-56,-1,-1,0
1523624293269,-458752,87,-56,-1,-1,0
1523624293309,-524288,87,-56,-1,-1,0
1523624293309,-655360,87,-56,-1,-1,0
1523624293309,-655360,87,-56,-1,-1,0
1523624293309,-524288,87,-56,-1,-1,0
1523624293309,-327680,87,-56,-1,-1,0
1523624293350,-393216,87,-56,-1,-1,0
1523624293350,-720896,87,-56,-1,-1,0
1523624293350,-655360,87,-56,-1,-1,0
1523624293350,-65536,87,-56,-1,-1,0
1523624293350,131072,87,-56,-1,-1,0
1523624293389,65536,87,-56,-1,-1,0
1523624293389,-65536,87,-56,-1,-1,0
1523624293389,-393216,87,-56,-1,-1,0
1523624293389,-524288,87,-56,-1,-1,0
1523624293389,-196608,87,-56,-1,-1,0
1523624293429,-327680,87,-56,-1,-1,0
1523624293429,-983040,87,-56,-1,-1,0
1523624293429,-1179648,87,-56,-1,-1,0
1523624293429,-589824,87,-56,-1,-1,0
1523624293429,-327680,87,-56,-1,-1,0
1523624293469,-458752,87,-56,-1,-1,0
1523624293469,-393216,87,-56,-1,-1,0
1523624293469,-393216,87,-56,-1,-1,0
1523624293469,-983040,87,-56,-1,-1,0
1523624293469,-1376256,87,-56,-1,-1,0
1523624293509,-786432,87,-56,-1,-1,0
1523624293509,1507328,87,-56,-1,-1,0
1523624293509,5570560,87,-56,-1,-1,0
1523624293509,8192000,87,-56,-1,-1,0
1523624293509,5308416,87,-56,-1,-1,0
1523624293549,0,87,-56,-1,-1,0
1523624293549,-2883584,87,-56,-1,-1,0
1523624293549,-3080192,87,-56,-1,-1,0
1523624293549,-2621440,87,-56,-1,-1,0
1523624293549,-2097152,87,-56,-1,-1,0
1523624293589,-1376256,87,-56,-1,-1,0
1523624293589,-589824,87,-56,-1,-1,0
1523624293589,65536,87,-56,-1,-1,0
1523624293589,0,87,-56,-1,-1,0
1523624293589,-196608,87,-56,-1,-1,0
1523624293629,-327680,87,-56,-1,-1,0
1523624293629,-655360,87,-56,-1,-1,0
1523624293629,-720896,87,-56,-1,-1,0
1523624293629,0,87,-56,-1,-1,0
1523624293629,327680,87,-56,-1,-1,0
1523624293669,131072,87,-56,-1,-1,0
1523624293669,196608,87,-56,-1,-1,0
1523624293669,65536,87,-56,-1,-1,0
1523624293669,131072,87,-56,-1,-1,0
1523624293669,393216,87,-56,-1,-1,0
1523624293709,851968,87,-56,-1,-1,0
1523624293709,1507328,87,-56,-1,-1,0
1523624293709,2293760,87,-56,-1,-1,0
1523624293709,2686976,87,-56,-1,-1,0
1523624293709,2359296,87,-56,-1,-1,0
1523624293749,2293760,87,-56,-1,-1,0
1523624293749,2490368,87,-56,-1,-1,0
1523624293749,2424832,87,-56,-1,-1,0
1523624293749,2162688,87,-56,-1,-1,0
1523624293749,2293760,87,-56,-1,-1,0
1523624293789,2359296,87,-56,-1,-1,0
1523624293789,2293760,87,-56,-1,-1,0
1523624293789,2031616,87,-56,-1,-1,0
1523624293789,1376256,87,-56,-1,-1,0
1523624293789,786432,87,-56,-1,-1,0
1523624293829,393216,87,-56,-1,-1,0
1523624293829,262144,87,-56,-1,-1,0
1523624293829,524288,87,-56,-1,-1,0
1523624293829,0,87,-56,-1,-1,0
1523624293829,-589824,87,-56,-1,-1,0
1523624293869,-327680,87,-56,-1,-1,0
1523624293869,917504,87,-56,-1,-1,0
1523624293869,1572864,87,-56,-1,-1,0
1523624293869,720896,87,-56,-1,-1,0
1523624293869,-786432,87,-56,-1,-1,0
1523624293909,-1114112,87,-56,-1,-1,0
1523624293909,-458752,87,-56,-1,-1,0
1523624293909,-196608,87,-56,-1,-1,0
1523624293909,-262144,87,-56,-1,-1,0
1523624293909,0,87,-56,-1,-1,0
1523624293949,131072,87,-56,-1,-1,0
1523624293949,-196608,87,-56,-1,-1,0
1523624293949,-917504,87,-56,-1,-1,0
1523624293949,-1703936,87,-56,-1,-1,0
1523624293949,-1703936,87,-56,-1,-1,0
1523624293990,-1376256,87,-56,-1,-1,0
1523624293990,-851968,87,-56,-1,-1,0
1523624293990,-524288,87,-56,-1,-1,0
1523624293990,-262144,87,-56,-1,-1,0
1523624293990,-327680,87,-56,-1,-1,0
1523624294029,131072,88,-56,-1,-1,0
1523624294029,131072,88,-56,-1,-1,0
1523624294029,-458752,88,-56,-1,-1,0
1523624294029,-1245184,88,-56,-1,-1,0
1523624294029,-917504,88,-56,-1,-1,0
1523624294069,-393216,88,-56,-1,-1,0
1523624294069,-1179648,88,-56,-1,-1,0
1523624294069,-1900544,88,-56,-1,-1,0
1523624294069,-1900544,88,-56,-1,-1,0
1523624294069,-1507328,88,-56,-1,-1,0
1523624294109,-983040,88,-56,-1,-1,0
1523624294109,0,88,-56,-1,-1,0
1523624294109,131072,88,-56,-1,-1,0
1523624294109,-131072,88,-56,-1,-1,0
1523624294109,720896,88,-56,-1,-1,0
1523624294149,3866624,88,-56,-1,-1,0
1523624294149,6488064,88,-56,-1,-1,0
1523624294149,4587520,88,-56,-1,-1,0
1523624294149,262144,88,-56,-1,-1,0
1523624294149,-1835008,88,-56,-1,-1,0
1523624294189,-1638400,88,-56,-1,-1,0
1523624294189,-1245184,88,-56,-1,-1,0
1523624294189,-1376256,88,-56,-1,-1,0
1523624294189,-1179648,88,-56,-1,-1,0
1523624294189,-1376256,88,-56,-1,-1,0
1523624294229,-1900544,88,-56,-1,-1,0
1523624294229,-2490368,88,-56,-1,-1,0
1523624294229,-1900544,88,-56,-1,-1,0
1523624294229,-1048576,88,-56,-1,-1,0
1523624294229,-851968,88,-56,-1,-1,0
1523624294271,-786432,88,-56,-1,-1,0
1523624294271,-327680,88,-56,-1,-1,0
1523624294271,0,88,-56,-1,-1,0
1523624294271,-131072,88,-56,-1,-1,0
1523624294271,-458752,88,-56,-1,-1,0
1523624294309,-917504,88,-56,-1,-1,0
1523624294309,-1114112,88,-56,-1,-1,0
1523624294309,-786432,88,-56,-1,-1,0
1523624294309,-327680,88,-56,-1,-1,0
1523624294309,-65536,88,-56,-1,-1,0
1523624294349,327680,88,-56,-1,-1,0
1523624294349,458752,88,-56,-1,-1,0
1523624294349,196608,88,-56,-1,-1,0
1523624294349,393216,88,-56,-1,-1,0
1523624294349,786432,88,-56,-1,-1,0
1523624294389,589824,88,-56,-1,-1,0
1523624294389,262144,88,-56,-1,-1,0
1523624294389,458752,88,-56,-1,-1,0
1523624294389,720896,88,-56,-1,-1,0
1523624294389,393216,88,-56,-1,-1,0
1523624294429,0,88,-56,-1,-1,0
1523624294429,-131072,88,-56,-1,-1,0
1523624294429,-65536,88,-56,-1,-1,0
1523624294429,-393216,88,-56,-1,-1,0
1523624294429,-786432,88,-56,-1,-1,0
1523624294469,-983040,88,-56,-1,-1,0
1523624294469,-983040,88,-56,-1,-1,0
1523624294469,-1114112,88,-56,-1,-1,0
1523624294469,-1179648,88,-56,-1,-1,0
1523624294469,-1376256,88,-56,-1,-1,0
1523624294509,-1441792,88,-56,-1,-1,0
1523624294509,-1441792,88,-56,-1,-1,0
1523624294509,-1245184,88,-56,-1,-1,0
1523624294509,-1114112,88,-56,-1,-1,0
1523624294509,-589824,88,-56,-1,-1,0
1523624294549,-458752,88,-56,-1,-1,0
1523624294549,-1114112,88,-56,-1,-1,0
1523624294549,-1638400,88,-56,-1,-1,0
1523624294549,-1441792,88,-56,-1,-1,0
1523624294549,-1310720,88,-56,-1,-1,0
1523624294589,-1310720,88,-56,-1,-1,0
1523624294589,-1245184,88,-56,-1,-1,0
1523624294589,-1245184,88,-56,-1,-1,0
1523624294589,-1179648,88,-56,-1,-1,0
1523624294589,-1048576,88,-56,-1,-1,0
1523624294630,-983040,89,-56,-1,-1,0
1523624294630,-786432,89,-56,-1,-1,0
1523624294630,-720896,89,-56,-1,-1,0
1523624294630,-917504,89,-56,-1,-1,0
1523624294630,-1441792,89,-56,-1,-1,0
1523624294669,-1376256,89,-56,-1,-1,0
1523624294669,-1179648,89,-56,-1,-1,0
1523624294669,-1114112,89,-56,-1,-1,0
1523624294669,-1441792,89,-56,-1,-1,0
1523624294669,-1507328,89,-56,-1,-1,0
1523624294709,-1638400,89,-56,-1,-1,0
1523624294709,-1507328,89,-56,-1,-1,0
1523624294709,-1310720,89,-56,-1,-1,0
1523624294709,-1179648,89,-56,-1,-1,0
1523624294709,-1048576,89,-56,-1,-1,0
1523624294749,-262144,89,-56,-1,-1,0
1523624294749,2097152,89,-56,-1,-1,0
1523624294749,6160384,89,-56,-1,-1,0
1523624294749,8060928,89,-56,-1,-1,0
1523624294749,5177344,89,-56,-1,-1,0
1523624294789,262144,89,-56,-1,-1,0
1523624294789,-1900544,89,-56,-1,-1,0
1523624294789,-1703936,89,-56,-1,-1,0
1523624294789,-917504,89,-56,-1,-1,0
1523624294789,-393216,89,-56,-1,-1,0
1523624294829,-196608,89,-56,-1,-1,0
1523624294829,-131072,89,-56,-1,-1,0
1523624294829,-65536,89,-56,-1,-1,0
1523624294829,0,89,-56,-1,-1,0
1523624294829,131072,89,-56,-1,-1,0
1523624294869,65536,89,-56,-1,-1,0
1523624294869,0,89,-56,-1,-1,0
1523624294869,0,89,-56,-1,-1,0
1523624294869,65536,89,-56,-1,-1,0
1523624294869,131072,89,-56,-1,-1,0
1523624294909,262144,89,-56,-1,-1,0
1523624294909,393216,89,-56,-1,-1,0
1523624294909,524288,89,-56,-1,-1,0
1523624294909,655360,89,-56,-1,-1,0
1523624294909,1179648,89,-56,-1,-1,0
1523624294949,1179648,89,-56,-1,-1,0
1523624294949,917504,89,-56,-1,-1,0
1523624294949,1179648,89,-56,-1,-1,0
1523624294949,1966080,89,-56,-1,-1,0
1523624294949,2293760,89,-56,-1,-1,0
1523624294989,2228224,89,-56,-1,-1,0
1523624294989,2031616,89,-56,-1,-1,0
1523624294989,1703936,89,-56,-1,-1,0
1523624294989,1310720,89,-56,-1,-1,0
1523624294989,1245184,89,-56,-1,-1,0
1523624295029,1245184,89,-56,-1,-1,0
1523624295029,786432,89,-56,-1,-1,0
1523624295029,262144,89,-56,-1,-1,0
1523624295029,262144,89,-56,-1,-1,0
1523624295029,524288,89,-56,-1,-1,0
1523624295069,327680,89,-56,-1,-1,0
1523624295069,65536,89,-56,-1,-1,0
1523624295069,-65536,89,-56,-1,-1,0
1523624295069,0,89,-56,-1,-1,0
1523624295069,-131072,89,-56,-1,-1,0
1523624295109,-65536,89,-56,-1,-1,0
1523624295109,0,89,-56,-1,-1,0
1523624295109,-131072,89,-56,-1,-1,0
1523624295109,-524288,89,-56,-1,-1,0
1523624295109,-589824,89,-56,-1,-1,0
1523624295149,-458752,89,-56,-1,-1,0
1523624295149,-720896,89,-56,-1,-1,0
1523624295149,-983040,89,-56,-1,-1,0
1523624295149,-1179648,89,-56,-1,-1,0
1523624295149,-1114112,89,-56,-1,-1,0
1523624295191,-655360,90,-56,-1,-1,0
1523624295191,-131072,90,-56,-1,-1,0
1523624295191,393216,90,-56,-1,-1,0
1523624295191,458752,90,-56,-1,-1,0
1523624295191,-131072,90,-56,-1,-1,0
1523624295230,-1310720,90,-56,-1,-1,0
1523624295230,-1572864,90,-56,-1,-1,0
1523624295230,-655360,90,-56,-1,-1,0
1523624295230,-131072,90,-56,-1,-1,0
1523624295230,-458752,90,-56,-1,-1,0
1523624295270,-1048576,90,-56,-1,-1,0
1523624295270,-1048576,90,-56,-1,-1,0
1523624295270,-786432,90,-56,-1,-1,0
1523624295270,-1114112,90,-56,-1,-1,0
1523624295270,-1638400,90,-56,-1,-1,0
1523624295310,-1572864,90,-56,-1,-1,0
1523624295310,-1114112,90,-56,-1,-1,0
1523624295310,-983040,90,-56,-1,-1,0
1523624295310,0,90,-56,-1,-1,0
1523624295310,2686976,90,-56,-1,-1,0
1523624295350,5898240,90,-56,-1,-1,0
1523624295350,6422528,90,-56,-1,-1,0
1523624295350,2818048,90,-56,-1,-1,0
1523624295350,-1900544,90,-56,-1,-1,0
1523624295350,-3801088,90,-56,-1,-1,0
1523624295390,-3407872,90,-56,-1,-1,0
1523624295390,-2490368,90,-56,-1,-1,0
1523624295390,-1310720,90,-56,-1,-1,0
1523624295390,-655360,90,-56,-1,-1,0
1523624295390,-327680,90,-56,-1,-1,0
1523624295430,0,90,-56,-1,-1,0
1523624295430,524288,90,-56,-1,-1,0
1523624295430,524288,90,-56,-1,-1,0
1523624295430,0,90,-56,-1,-1,0
1523624295430,131072,90,-56,-1,-1,0
1523624295470,655360,90,-56,-1,-1,0
1523624295470,589824,90,-56,-1,-1,0
1523624295470,458752,90,-56,-1,-1,0
1523624295470,1048576,90,-56,-1,-1,0
1523624295470,1310720,90,-56,-1,-1,0
1523624295510,1048576,90,-56,-1,-1,0
1523624295510,983040,90,-56,-1,-1,0
1523624295510,1441792,90,-56,-1,-1,0
1523624295510,1507328,90,-56,-1,-1,0
1523624295510,1835008,90,-56,-1,-1,0
1523624295550,2031616,90,-56,-1,-1,0
1523624295550,1703936,90,-56,-1,-1,0
1523624295550,1048576,90,-56,-1,-1,0
1523624295550,1441792,90,-56,-1,-1,0
1523624295550,2359296,90,-56,-1,-1,0
1523624295591,2686976,90,-56,-1,-1,0
1523624295591,2555904,90,-56,-1,-1,0
1523624295591,1835008,90,-56,-1,-1,0
1523624295591,2359296,90,-56,-1,-1,0
1523624295591,2818048,90,-56,-1,-1,0
1523624295630,589824,90,-56,-1,-1,0
1523624295630,-2949120,90,-56,-1,-1,0
1523624295630,-3670016,90,-56,-1,-1,0
1523624295630,-1048576,90,-56,-1,-1,0
1523624295630,-458752,90,-56,-1,-1,0
1523624295670,-65536,90,-56,-1,-1,0
1523624295670,-327680,90,-56,-1,-1,0
1523624295670,720896,90,-56,-1,-1,0
1523624295670,1507328,90,-56,-1,-1,0
1523624295670,655360,90,-56,-1,-1,0
1523624295710,-458752,90,-56,-1,-1,0
1523624295710,524288,90,-56,-1,-1,0
1523624295710,1441792,90,-56,-1,-1,0
1523624295710,655360,90,-56,-1,-1,0
1523624295710,-65536,90,-56,-1,-1,0
1523624295750,1310720,90,-56,-1,-1,0
1523624295750,1966080,90,-56,-1,-1,0
1523624295750,-1048576,90,-56,-1,-1,0
1523624295750,-2883584,90,-56,-1,-1,0
1523624295750,-1900544,90,-56,-1,-1,0
1523624295790,0,90,-56,-1,-1,0
1523624295790,786432,90,-56,-1,-1,0
1523624295790,786432,90,-56,-1,-1,0
1523624295790,327680,90,-56,-1,-1,0
1523624295790,-458752,90,-56,-1,-1,0
1523624295830,-327680,90,-56,-1,-1,0
1523624295830,131072,90,-56,-1,-1,0
1523624295830,589824,90,-56,-1,-1,0
1523624295830,0,90,-56,-1,-1,0
1523624295830,-1114112,90,-56,-1,-1,0
1523624295870,-1572864,90,-56,-1,-1,0
1523624295870,-1179648,90,-56,-1,-1,0
1523624295870,-720896,90,-56,-1,-1,0
1523624295870,-393216,90,-56,-1,-1,0
1523624295870,-720896,90,-56,-1,-1,0
1523624295910,-1441792,90,-56,-1,-1,0
1523624295910,-655360,90,-56,-1,-1,0
1523624295910,196608,90,-56,-1,-1,0
1523624295910,1114112,90,-56,-1,-1,0
1523624295910,3604480,90,-56,-1,-1,0
1523624295950,6881280,90,-56,-1,-1,0
1523624295950,6094848,90,-56,-1,-1,0
1523624295950,1900544,90,-56,-1,-1,0
1523624295950,-1310720,90,-56,-1,-1,0
1523624295950,-1769472,90,-56,-1,-1,0
1523624295990,-1441792,90,-56,-1,-1,0
1523624295990,-1572864,90,-56,-1,-1,0
1523624295990,-1769472,90,-56,-1,-1,0
1523624295990,-1310720,90,-56,-1,-1,0
1523624295990,-262144,90,-56,-1,-1,0
1523624296030,0,90,-56,-1,-1,0
1523624296030,-524288,90,-56,-1,-1,0
1523624296030,-655360,90,-56,-1,-1,0
1523624296030,-327680,90,-56,-1,-1,0
1523624296030,393216,90,-56,-1,-1,0
1523624296070,983040,90,-56,-1,-1,0
1523624296070,1441792,90,-56,-1,-1,0
1523624296070,1245184,90,-56,-1,-1,0
1523624296070,720896,90,-56,-1,-1,0
1523624296070,-65536,90,-56,-1,-1,0
1523624296110,-458752,90,-56,-1,-1,0
1523624296110,-196608,90,-56,-1,-1,0
1523624296110,0,90,-56,-1,-1,0
1523624296110,65536,90,-56,-1,-1,0
1523624296110,65536,90,-56,-1,-1,0
1523624296150,262144,90,-56,-1,-1,0
1523624296150,327680,90,-56,-1,-1,0
1523624296150,327680,90,-56,-1,-1,0
1523624296150,458752,90,-56,-1,-1,0
1523624296150,393216,90,-56,-1,-1,0
1523624296190,-196608,90,-56,-1,-1,0
1523624296190,-1114112,90,-56,-1,-1,0
1523624296190,-1179648,90,-56,-1,-1,0
1523624296190,-983040,90,-56,-1,-1,0
1523624296190,-131072,90,-56,-1,-1,0
1523624296230,-196608,90,-56,-1,-1,0
1523624296230,-1048576,90,-56,-1,-1,0
1523624296230,-2752512,90,-56,-1,-1,0
1523624296230,-3014656,90,-56,-1,-1,0
1523624296230,-1966080,90,-56,-1,-1,0
1523624296270,-1703936,90,-56,-1,-1,0
1523624296270,-2031616,90,-56,-1,-1,0
1523624296270,-2490368,90,-56,-1,-1,0
1523624296270,-2621440,90,-56,-1,-1,0
1523624296270,-2490368,90,-56,-1,-1,0
1523624296310,-2162688,90,-56,-1,-1,0
1523624296310,-2097152,90,-56,-1,-1,0
1523624296310,-2097152,90,-56,-1,-1,0
1523624296310,-2228224,90,-56,-1,-1,0
1523624296310,-2097152,90,-56,-1,-1,0
1523624296350,-1835008,90,-56,-1,-1,0
1523624296350,-1507328,90,-56,-1,-1,0
1523624296350,-1507328,90,-56,-1,-1,0
1523624296350,-1572864,90,-56,-1,-1,0
1523624296350,-1376256,90,-56,-1,-1,0
1523624296390,-983040,92,-56,-1,-1,0
1523624296390,-1114112,92,-56,-1,-1,0
1523624296390,-1638400,92,-56,-1,-1,0
1523624296390,-1769472,92,-56,-1,-1,0
1523624296390,-1507328,92,-56,-1,-1,0
1523624296430,-1179648,92,-56,-1,-1,0
1523624296430,-1114112,92,-56,-1,-1,0
1523624296430,-1245184,92,-56,-1,-1,0
1523624296430,-1310720,92,-56,-1,-1,0
1523624296430,-1376256,92,-56,-1,-1,0
1523624296470,-1441792,92,-56,-1,-1,0
1523624296470,-1376256,92,-56,-1,-1,0
1523624296470,-1048576,92,-56,-1,-1,0
1523624296470,-786432,92,-56,-1,-1,0
1523624296470,-655360,92,-56,-1,-1,0
1523624296510,655360,92,-56,-1,-1,0
1523624296510,3997696,92,-56,-1,-1,0
1523624296510,6881280,92,-56,-1,-1,0
1523624296510,5636096,92,-56,-1,-1,0
1523624296510,1048576,92,-56,-1,-1,0
1523624296552,-2293760,92,-56,-1,-1,0
1523624296552,-2883584,92,-56,-1,-1,0
1523624296552,-2359296,92,-56,-1,-1,0
1523624296552,-2097152,92,-56,-1,-1,0
1523624296552,-1703936,92,-56,-1,-1,0
1523624296590,-1245184,92,-56,-1,-1,0
1523624296590,-1179648,92,-56,-1,-1,0
1523624296590,-1572864,92,-56,-1,-1,0
1523624296590,-1835008,92,-56,-1,-1,0
1523624296590,-1441792,92,-56,-1,-1,0
1523624296630,-458752,92,-56,-1,-1,0
1523624296630,458752,92,-56,-1,-1,0
1523624296630,524288,92,-56,-1,-1,0
1523624296630,131072,92,-56,-1,-1,0
1523624296630,-327680,92,-56,-1,-1,0
1523624296670,-327680,92,-56,-1,-1,0
1523624296670,-65536,92,-56,-1,-1,0
1523624296670,0,92,-56,-1,-1,0
1523624296670,0,92,-56,-1,-1,0
1523624296670,458752,92,-56,-1,-1,0
1523624296710,917504,92,-56,-1,-1,0
1523624296710,983040,92,-56,-1,-1,0
1523624296710,917504,92,-56,-1,-1,0
1523624296710,917504,92,-56,-1,-1,0
1523624296710,851968,92,-56,-1,-1,0
1523624296750,589824,92,-56,-1,-1,0
1523624296750,851968,92,-56,-1,-1,0
1523624296750,1245184,92,-56,-1,-1,0
1523624296750,589824,92,-56,-1,-1,0
1523624296750,-131072,92,-56,-1,-1,0
1523624296790,-262144,92,-56,-1,-1,0
1523624296790,-262144,92,-56,-1,-1,0
1523624296790,-655360,92,-56,-1,-1,0
1523624296790,-786432,92,-56,-1,-1,0
1523624296790,-589824,92,-56,-1,-1,0
1523624296830,-524288,92,-56,-1,-1,0
1523624296830,-851968,92,-56,-1,-1,0
1523624296830,-655360,92,-56,-1,-1,0
1523624296830,-393216,92,-56,-1,-1,0
1523624296830,-786432,92,-56,-1,-1,0
1523624296870,-720896,92,-56,-1,-1,0
1523624296870,0,92,-56,-1,-1,0
1523624296870,65536,92,-56,-1,-1,0
1523624296870,-65536,92,-56,-1,-1,0
1523624296870,0,92,-56,-1,-1,0
1523624296910,65536,94,-56,-1,-1,0
1523624296910,262144,94,-56,-1,-1,0
1523624296910,458752,94,-56,-1,-1,0
1523624296910,720896,94,-56,-1,-1,0
1523624296910,1179648,94,-56,-1,-1,0
1523624296950,1245184,94,-56,-1,-1,0
1523624296950,393216,94,-56,-1,-1,0
1523624296950,393216,94,-56,-1,-1,0
1523624296950,1179648,94,-56,-1,-1,0
1523624296950,1507328,94,-56,-1,-1,0
1523624296990,1179648,94,-56,-1,-1,0
1523624296990,1310720,94,-56,-1,-1,0
1523624296990,720896,94,-56,-1,-1,0
1523624296990,-262144,94,-56,-1,-1,0
1523624296990,-917504,94,-56,-1,-1,0
1523624297030,-655360,94,-56,-1,-1,0
1523624297030,-65536,94,-56,-1,-1,0
1523624297030,-589824,94,-56,-1,-1,0
1523624297030,-1114112,94,-56,-1,-1,0
1523624297030,-917504,94,-56,-1,-1,0
1523624297070,0,94,-56,-1,-1,0
1523624297070,2752512,94,-56,-1,-1,0
1523624297070,6750208,94,-56,-1,-1,0
1523624297070,7864320,94,-56,-1,-1,0
1523624297070,5505024,94,-56,-1,-1,0
1523624297110,1703936,94,-56,-1,-1,0
1523624297110,-262144,94,-56,-1,-1,0
1523624297110,-3211264,94,-56,-1,-1,0
1523624297110,-3211264,94,-56,-1,-1,0
1523624297110,-327680,94,-56,-1,-1,0
1523624297150,2097152,94,-56,-1,-1,0
1523624297150,1835008,94,-56,-1,-1,0
1523624297150,-327680,94,-56,-1,-1,0
1523624297150,-1048576,94,-56,-1,-1,0
1523624297150,917504,94,-56,-1,-1,0
1523624297192,2555904,94,-56,-1,-1,0
1523624297192,1507328,94,-56,-1,-1,0
1523624297192,-458752,94,-56,-1,-1,0
1523624297192,262144,94,-56,-1,-1,0
1523624297192,1114112,94,-56,-1,-1,0
1523624297230,1114112,94,-56,-1,-1,0
1523624297230,1572864,94,-56,-1,-1,0
1523624297230,1507328,94,-56,-1,-1,0
1523624297230,1048576,94,-56,-1,-1,0
1523624297230,0,94,-56,-1,-1,0
1523624297270,-589824,94,-56,-1,-1,0
1523624297270,327680,94,-56,-1,-1,0
1523624297270,1572864,94,-56,-1,-1,0
1523624297270,1507328,94,-56,-1,-1,0
1523624297270,1245184,94,-56,-1,-1,0
1523624297310,1179648,94,-56,-1,-1,0
1523624297310,458752,94,-56,-1,-1,0
1523624297310,-917504,94,-56,-1,-1,0
1523624297310,-983040,94,-56,-1,-1,0
1523624297310,-458752,94,-56,-1,-1,0
1523624297351,-458752,94,-56,-1,-1,0
1523624297351,0,94,-56,-1,-1,0
1523624297351,1441792,94,-56,-1,-1,0
1523624297351,1638400,94,-56,-1,-1,0
1523624297351,-327680,94,-56,-1,-1,0
1523624297392,-1179648,94,-56,-1,-1,0
1523624297392,-786432,94,-56,-1,-1,0
1523624297392,-524288,94,-56,-1,-1,0
1523624297392,-458752,94,-56,-1,-1,0
1523624297392,-327680,94,-56,-1,-1,0
1523624297430,-196608,94,-56,-1,-1,0
1523624297430,-196608,94,-56,-1,-1,0
1523624297430,-393216,94,-56,-1,-1,0
1523624297430,-393216,94,-56,-1,-1,0
1523624297430,-524288,94,-56,-1,-1,0
1523624297470,-1179648,96,-56,-1,-1,0
1523624297470,-983040,96,-56,-1,-1,0
1523624297470,-262144,96,-56,-1,-1,0
1523624297470,327680,96,-56,-1,-1,0
1523624297470,524288,96,-56,-1,-1,0
1523624297510,589824,96,-56,-1,-1,0
1523624297510,851968,96,-56,-1,-1,0
1523624297510,983040,96,-56,-1,-1,0
1523624297510,524288,96,-56,-1,-1,0
1523624297510,131072,96,-56,-1,-1,0
1523624297550,-327680,96,-56,-1,-1,0
1523624297550,-720896,96,-56,-1,-1,0
1523624297550,-1179648,96,-56,-1,-1,0
1523624297550,-1114112,96,-56,-1,-1,0
1523624297550,-1507328,96,-56,-1,-1,0
1523624297590,-1835008,96,-56,-1,-1,0
1523624297590,-1572864,96,-56,-1,-1,0
1523624297590,-1507328,96,-56,-1,-1,0
1523624297590,-2162688,96,-56,-1,-1,0
1523624297590,-2359296,96,-56,-1,-1,0
1523624297632,-1507328,96,-56,-1,-1,0
1523624297632,327680,96,-56,-1,-1,0
1523624297632,3342336,96,-56,-1,-1,0
1523624297632,4653056,96,-56,-1,-1,0
1523624297632,1703936,96,-56,-1,-1,0
1523624297670,-2228224,96,-56,-1,-1,0
1523624297670,-3604480,96,-56,-1,-1,0
1523624297670,-3604480,96,-56,-1,-1,0
1523624297670,-3407872,96,-56,-1,-1,0
1523624297670,-3014656,96,-56,-1,-1,0
1523624297710,-2424832,96,-56,-1,-1,0
1523624297710,-1966080,96,-56,-1,-1,0
1523624297710,-1703936,96,-56,-1,-1,0
1523624297710,-1638400,96,-56,-1,-1,0
1523624297710,-1703936,96,-56,-1,-1,0
1523624297750,-1769472,96,-56,-1,-1,0
1523624297750,-1572864,96,-56,-1,-1,0
1523624297750,-1310720,96,-56,-1,-1,0
1523624297750,-1114112,96,-56,-1,-1,0
1523624297750,-851968,96,-56,-1,-1,0
1523624297790,-458752,96,-56,-1,-1,0
1523624297790,-196608,96,-56,-1,-1,0
1523624297790,-65536,96,-56,-1,-1,0
1523624297790,-196608,96,-56,-1,-1,0
1523624297790,-327680,96,-56,-1,-1,0
1523624297832,-196608,97,-56,-1,-1,0
1523624297832,524288,97,-56,-1,-1,0
1523624297832,1310720,97,-56,-1,-1,0
1523624297832,2031616,97,-56,-1,-1,0
1523624297832,2293760,97,-56,-1,-1,0
1523624297870,2162688,97,-56,-1,-1,0
1523624297870,1966080,97,-56,-1,-1,0
1523624297870,1769472,97,-56,-1,-1,0
1523624297870,1441792,97,-56,-1,-1,0
1523624297870,1376256,97,-56,-1,-1,0
1523624297910,1245184,97,-56,-1,-1,0
1523624297910,786432,97,-56,-1,-1,0
1523624297910,196608,97,-56,-1,-1,0
1523624297910,-196608,97,-56,-1,-1,0
1523624297910,-458752,97,-56,-1,-1,0
1523624297950,-851968,97,-56,-1,-1,0
1523624297950,-720896,97,-56,-1,-1,0
1523624297950,-65536,97,-56,-1,-1,0
1523624297950,-196608,97,-56,-1,-1,0
1523624297950,-720896,97,-56,-1,-1,0
1523624297990,-655360,97,-56,-1,-1,0
1523624297990,-589824,97,-56,-1,-1,0
1523624297990,-851968,97,-56,-1,-1,0
1523624297990,-851968,97,-56,-1,-1,0
1523624297990,-1376256,97,-56,-1,-1,0
1523624298030,-1638400,97,-56,-1,-1,0
1523624298030,-917504,97,-56,-1,-1,0
1523624298030,0,97,-56,-1,-1,0
1523624298030,65536,97,-56,-1,-1,0
1523624298030,-65536,97,-56,-1,-1,0
1523624298070,65536,97,-56,-1,-1,0
1523624298070,196608,97,-56,-1,-1,0
1523624298070,-65536,97,-56,-1,-1,0
1523624298070,-720896,97,-56,-1,-1,0
1523624298070,-655360,97,-56,-1,-1,0
1523624298110,-720896,97,-56,-1,-1,0
1523624298110,-1179648,97,-56,-1,-1,0
1523624298110,-1245184,97,-56,-1,-1,0
1523624298110,-851968,97,-56,-1,-1,0
1523624298110,-786432,97,-56,-1,-1,0
1523624298150,-1572864,97,-56,-1,-1,0
1523624298150,-2162688,97,-56,-1,-1,0
1523624298150,-1966080,97,-56,-1,-1,0
1523624298150,-917504,97,-56,-1,-1,0
1523624298150,131072,97,-56,-1,-1,0
1523624298190,1966080,97,-56,-1,-1,0
1523624298190,4587520,97,-56,-1,-1,0
1523624298190,4784128,97,-56,-1,-1,0
1523624298190,1114112,97,-56,-1,-1,0
1523624298190,-2883584,97,-56,-1,-1,0
1523624298230,-3997696,97,-56,-1,-1,0
1523624298230,-3014656,97,-56,-1,-1,0
1523624298230,-2097152,97,-56,-1,-1,0
1523624298230,-1572864,97,-56,-1,-1,0
1523624298230,-851968,97,-56,-1,-1,0
1523624298270,-720896,97,-56,-1,-1,0
1523624298270,-1048576,97,-56,-1,-1,0
1523624298270,-327680,97,-56,-1,-1,0
1523624298270,655360,97,-56,-1,-1,0
1523624298270,917504,97,-56,-1,-1,0
1523624298310,655360,97,-56,-1,-1,0
1523624298310,786432,97,-56,-1,-1,0
1523624298310,1441792,97,-56,-1,-1,0
1523624298310,1835008,97,-56,-1,-1,0
1523624298310,1966080,97,-56,-1,-1,0
1523624298350,2359296,97,-56,-1,-1,0
1523624298350,2555904,97,-56,-1,-1,0
1523624298350,2555904,97,-56,-1,-1,0
1523624298350,2752512,97,-56,-1,-1,0
1523624298350,3473408,97,-56,-1,-1,0
1523624298392,3866624,97,-56,-1,-1,0
1523624298392,3604480,97,-56,-1,-1,0
1523624298392,2752512,97,-56,-1,-1,0
1523624298392,2097152,97,-56,-1,-1,0
1523624298392,1769472,97,-56,-1,-1,0
1523624298430,458752,97,-56,-1,-1,0
1523624298430,-983040,97,-56,-1,-1,0
1523624298430,-589824,97,-56,-1,-1,0
1523624298430,2097152,97,-56,-1,-1,0
1523624298430,2883584,97,-56,-1,-1,0
1523624298470,1638400,97,-56,-1,-1,0
1523624298470,1441792,97,-56,-1,-1,0
1523624298470,4325376,97,-56,-1,-1,0
1523624298470,4521984,97,-56,-1,-1,0
1523624298470,2162688,97,-56,-1,-1,0
1523624298510,1245184,97,-56,-1,-1,0
1523624298510,1376256,97,-56,-1,-1,0
1523624298510,1835008,97,-56,-1,-1,0
1523624298510,-917504,97,-56,-1,-1,0
1523624298510,-1835008,97,-56,-1,-1,0
1523624298550,196608,99,-56,-1,-1,0
1523624298550,3014656,99,-56,-1,-1,0
1523624298550,3276800,99,-56,-1,-1,0
1523624298550,2490368,99,-56,-1,-1,0
1523624298550,2555904,99,-56,-1,-1,0
1523624298590,1835008,99,-56,-1,-1,0
1523624298590,1048576,99,-56,-1,-1,0
1523624298590,458752,99,-56,-1,-1,0
1523624298590,65536,99,-56,-1,-1,0
1523624298590,-393216,99,-56,-1,-1,0
1523624298630,720896,99,-56,-1,-1,0
1523624298630,1507328,99,-56,-1,-1,0
1523624298630,393216,99,-56,-1,-1,0
1523624298630,-917504,99,-56,-1,-1,0
1523624298630,65536,99,-56,-1,-1,0
1523624298670,1310720,99,-56,-1,-1,0
1523624298670,131072,99,-56,-1,-1,0
1523624298670,-2097152,99,-56,-1,-1,0
1523624298670,-1376256,99,-56,-1,-1,0
1523624298670,-327680,99,-56,-1,-1,0
1523624298710,458752,99,-56,-1,-1,0
1523624298710,1441792,99,-56,-1,-1,0
1523624298710,262144,99,-56,-1,-1,0
1523624298710,-720896,99,-56,-1,-1,0
1523624298710,1900544,99,-56,-1,-1,0
1523624298750,6291456,99,-56,-1,-1,0
1523624298750,5373952,99,-56,-1,-1,0
1523624298750,458752,99,-56,-1,-1,0
1523624298750,-1703936,99,-56,-1,-1,0
1523624298750,-983040,99,-56,-1,-1,0
1523624298790,-1245184,99,-56,-1,-1,0
1523624298790,-2621440,99,-56,-1,-1,0
1523624298790,-2424832,99,-56,-1,-1,0
1523624298790,-851968,99,-56,-1,-1,0
1523624298790,-131072,99,-56,-1,-1,0
1523624298830,-196608,99,-56,-1,-1,0
1523624298830,-65536,99,-56,-1,-1,0
1523624298830,-262144,99,-56,-1,-1,0
1523624298830,-655360,99,-56,-1,-1,0
1523624298830,-720896,99,-56,-1,-1,0
1523624298870,0,99,-56,-1,-1,0
1523624298870,-196608,99,-56,-1,-1,0
1523624298870,-720896,99,-56,-1,-1,0
1523624298870,-524288,99,-56,-1,-1,0
1523624298870,786432,99,-56,-1,-1,0
1523624298910,1310720,99,-56,-1,-1,0
1523624298910,1048576,99,-56,-1,-1,0
1523624298910,327680,99,-56,-1,-1,0
1523624298910,327680,99,-56,-1,-1,0
1523624298910,131072,99,-56,-1,-1,0
1523624298950,-655360,99,-56,-1,-1,0
1523624298950,-786432,99,-56,-1,-1,0
1523624298950,65536,99,-56,-1,-1,0
1523624298950,1769472,99,-56,-1,-1,0
1523624298950,2031616,99,-56,-1,-1,0
1523624298990,1048576,99,-56,-1,-1,0
1523624298990,-393216,99,-56,-1,-1,0
1523624298990,-1114112,99,-56,-1,-1,0
1523624298990,-2031616,99,-56,-1,-1,0
1523624298990,-3538944,99,-56,-1,-1,0
1523624299030,-3801088,99,-56,-1,-1,0
1523624299030,-2555904,99,-56,-1,-1,0
1523624299030,-1966080,99,-56,-1,-1,0
1523624299030,-2686976,99,-56,-1,-1,0
1523624299030,-3276800,99,-56,-1,-1,0
1523624299070,-3080192,99,-56,-1,-1,0
1523624299070,-2752512,99,-56,-1,-1,0
1523624299070,-2359296,99,-56,-1,-1,0
1523624299070,-1900544,99,-56,-1,-1,0
1523624299070,-983040,99,-56,-1,-1,0
1523624299111,-786432,99,-56,-1,-1,0
1523624299111,-851968,99,-56,-1,-1,0
1523624299111,-983040,99,-56,-1,-1,0
1523624299111,-655360,99,-56,-1,-1,0
1523624299111,-589824,99,-56,-1,-1,0
1523624299153,-720896,99,-56,-1,-1,0
1523624299153,-1114112,99,-56,-1,-1,0
1523624299153,-1179648,99,-56,-1,-1,0
1523624299153,-720896,99,-56,-1,-1,0
1523624299153,-589824,99,-56,-1,-1,0
1523624299190,-1310720,99,-56,-1,-1,0
1523624299190,-1769472,99,-56,-1,-1,0
1523624299190,-1572864,99,-56,-1,-1,0
1523624299190,-851968,99,-56,-1,-1,0
1523624299190,-589824,99,-56,-1,-1,0
1523624299230,-589824,101,-56,-1,-1,0
1523624299230,-720896,101,-56,-1,-1,0
1523624299230,-655360,101,-56,-1,-1,0
1523624299230,-655360,101,-56,-1,-1,0
1523624299230,-786432,101,-56,-1,-1,0
1523624299270,131072,101,-56,-1,-1,0
1523624299270,3276800,101,-56,-1,-1,0
1523624299270,5963776,101,-56,-1,-1,0
1523624299270,4390912,101,-56,-1,-1,0
1523624299270,262144,101,-56,-1,-1,0
1523624299310,-2162688,101,-56,-1,-1,0
1523624299310,-2162688,101,-56,-1,-1,0
1523624299310,-1769472,101,-56,-1,-1,0
1523624299310,-2097152,101,-56,-1,-1,0
1523624299310,-2621440,101,-56,-1,-1,0
1523624299350,-2752512,101,-56,-1,-1,0
1523624299350,-1835008,101,-56,-1,-1,0
1523624299350,-1245184,101,-56,-1,-1,0
1523624299350,-1245184,101,-56,-1,-1,0
1523624299350,-1245184,101,-56,-1,-1,0
1523624299390,-917504,101,-56,-1,-1,0
1523624299390,-196608,101,-56,-1,-1,0
1523624299390,458752,101,-56,-1,-1,0
1523624299390,720896,101,-56,-1,-1,0
1523624299390,327680,101,-56,-1,-1,0
1523624299430,0,101,-56,-1,-1,0
1523624299430,-131072,101,-56,-1,-1,0
1523624299430,-196608,101,-56,-1,-1,0
1523624299430,0,101,-56,-1,-1,0
1523624299430,262144,101,-56,-1,-1,0
1523624299471,720896,101,-56,-1,-1,0
1523624299471,917504,101,-56,-1,-1,0
1523624299471,851968,101,-56,-1,-1,0
1523624299471,720896,101,-56,-1,-1,0
1523624299471,458752,101,-56,-1,-1,0
1523624299510,262144,101,-56,-1,-1,0
1523624299510,-262144,101,-56,-1,-1,0
1523624299510,-720896,101,-56,-1,-1,0
1523624299510,-589824,101,-56,-1,-1,0
1523624299510,-262144,101,-56,-1,-1,0
1523624299550,-655360,101,-56,-1,-1,0
1523624299550,-851968,101,-56,-1,-1,0
1523624299550,-655360,101,-56,-1,-1,0
1523624299550,-393216,101,-56,-1,-1,0
1523624299550,-196608,101,-56,-1,-1,0
1523624299590,-65536,101,-56,-1,-1,0
1523624299590,-393216,101,-56,-1,-1,0
1523624299590,-458752,101,-56,-1,-1,0
1523624299590,-131072,101,-56,-1,-1,0
1523624299590,65536,101,-56,-1,-1,0
1523624299630,327680,103,-56,-1,-1,0
1523624299630,983040,103,-56,-1,-1,0
1523624299630,1441792,103,-56,-1,-1,0
1523624299630,1441792,103,-56,-1,-1,0
1523624299630,1769472,103,-56,-1,-1,0
1523624299670,1835008,103,-56,-1,-1,0
1523624299670,1900544,103,-56,-1,-1,0
1523624299670,1638400,103,-56,-1,-1,0
1523624299670,1572864,103,-56,-1,-1,0
1523624299670,1572864,103,-56,-1,-1,0
1523624299710,1900544,103,-56,-1,-1,0
1523624299710,2097152,103,-56,-1,-1,0
1523624299710,1835008,103,-56,-1,-1,0
1523624299710,1572864,103,-56,-1,-1,0
1523624299710,1245184,103,-56,-1,-1,0
1523624299751,983040,103,-56,-1,-1,0
1523624299751,1703936,103,-56,-1,-1,0
1523624299751,2359296,103,-56,-1,-1,0
1523624299751,1769472,103,-56,-1,-1,0
1523624299751,2031616,103,-56,-1,-1,0
1523624299790,1114112,103,-56,-1,-1,0
1523624299790,-393216,103,-56,-1,-1,0
1523624299790,65536,103,-56,-1,-1,0
1523624299790,4849664,103,-56,-1,-1,0
1523624299790,8388608,103,-56,-1,-1,0
1523624299830,7077888,103,-56,-1,-1,0
1523624299830,2490368,103,-56,-1,-1,0
1523624299830,-327680,103,-56,-1,-1,0
1523624299830,-1507328,103,-56,-1,-1,0
1523624299830,-983040,103,-56,-1,-1,0
1523624299870,65536,103,-56,-1,-1,0
1523624299870,393216,103,-56,-1,-1,0
1523624299870,196608,103,-56,-1,-1,0
1523624299870,-262144,103,-56,-1,-1,0
1523624299870,-1114112,103,-56,-1,-1,0
1523624299910,-1638400,103,-56,-1,-1,0
1523624299910,589824,103,-56,-1,-1,0
1523624299910,3080192,103,-56,-1,-1,0
1523624299910,2359296,103,-56,-1,-1,0
1523624299910,458752,103,-56,-1,-1,0
1523624299950,131072,103,-56,-1,-1,0
1523624299950,-917504,103,-56,-1,-1,0
1523624299950,-2818048,103,-56,-1,-1,0
1523624299950,-1900544,103,-56,-1,-1,0
1523624299950,327680,103,-56,-1,-1,0
1523624299990,1441792,103,-56,-1,-1,0
1523624299990,1769472,103,-56,-1,-1,0
1523624299990,327680,103,-56,-1,-1,0
1523624299990,-1376256,103,-56,-1,-1,0
1523624299990,-393216,103,-56,-1,-1,0
1523624300030,1507328,103,-56,-1,-1,0
1523624300030,3145728,103,-56,-1,-1,0
1523624300030,2228224,103,-56,-1,-1,0
1523624300030,393216,103,-56,-1,-1,0
1523624300030,-327680,103,-56,-1,-1,0
1523624300070,-786432,103,-56,-1,-1,0
1523624300070,-1441792,103,-56,-1,-1,0
1523624300070,-786432,103,-56,-1,-1,0
1523624300070,131072,103,-56,-1,-1,0
1523624300070,262144,103,-56,-1,-1,0
1523624300110,-458752,103,-56,-1,-1,0
1523624300110,-1376256,103,-56,-1,-1,0
1523624300110,-1703936,103,-56,-1,-1,0
1523624300110,-1966080,103,-56,-1,-1,0
1523624300110,-2162688,103,-56,-1,-1,0
1523624300150,-1900544,105,-56,-1,-1,0
1523624300150,-1048576,105,-56,-1,-1,0
1523624300150,-655360,105,-56,-1,-1,0
1523624300150,-1048576,105,-56,-1,-1,0
1523624300150,-1507328,105,-56,-1,-1,0
1523624300190,-1245184,105,-56,-1,-1,0
1523624300190,-720896,105,-56,-1,-1,0
1523624300190,-458752,105,-56,-1,-1,0
1523624300190,-524288,105,-56,-1,-1,0
1523624300190,-458752,105,-56,-1,-1,0
1523624300230,-458752,105,-56,-1,-1,0
1523624300230,-720896,105,-56,-1,-1,0
1523624300230,-1114112,105,-56,-1,-1,0
1523624300230,-1441792,105,-56,-1,-1,0
1523624300230,-1507328,105,-56,-1,-1,0
1523624300270,-1966080,105,-56,-1,-1,0
1523624300270,-2949120,105,-56,-1,-1,0
1523624300270,-3801088,105,-56,-1,-1,0
1523624300270,-3866624,105,-56,-1,-1,0
1523624300270,-3932160,105,-56,-1,-1,0
1523624300310,-3538944,105,-56,-1,-1,0
1523624300310,-2686976,105,-56,-1,-1,0
1523624300310,-2031616,105,-56,-1,-1,0
1523624300310,-720896,105,-56,-1,-1,0
1523624300310,1310720,105,-56,-1,-1,0
1523624300351,1900544,105,-56,-1,-1,0
1523624300351,-1114112,105,-56,-1,-1,0
1523624300351,-4653056,105,-56,-1,-1,0
1523624300351,-5832704,105,-56,-1,-1,0
1523624300351,-4980736,105,-56,-1,-1,0
1523624300393,-4325376,105,-56,-1,-1,0
1523624300393,-3473408,105,-56,-1,-1,0
1523624300393,-2424832,105,-56,-1,-1,0
1523624300393,-1638400,105,-56,-1,-1,0
1523624300393,-1310720,105,-56,-1,-1,0
1523624300430,-1114112,105,-56,-1,-1,0
1523624300430,-720896,105,-56,-1,-1,0
1523624300430,-524288,105,-56,-1,-1,0
1523624300430,-196608,105,-56,-1,-1,0
1523624300430,131072,105,-56,-1,-1,0
1523624300470,393216,105,-56,-1,-1,0
1523624300470,262144,105,-56,-1,-1,0
1523624300470,262144,105,-56,-1,-1,0
1523624300470,262144,105,-56,-1,-1,0
1523624300470,196608,105,-56,-1,-1,0
1523624300510,65536,105,-56,-1,-1,0
1523624300510,131072,105,-56,-1,-1,0
1523624300510,524288,105,-56,-1,-1,0
1523624300510,851968,105,-56,-1,-1,0
1523624300510,1048576,105,-56,-1,-1,0
1523624300550,1245184,105,-56,-1,-1,0
1523624300550,1310720,105,-56,-1,-1,0
1523624300550,1441792,105,-56,-1,-1,0
1523624300550,1441792,105,-56,-1,-1,0
1523624300550,1245184,105,-56,-1,-1,0
1523624300591,1048576,105,-56,-1,-1,0
1523624300591,851968,105,-56,-1,-1,0
1523624300591,524288,105,-56,-1,-1,0
1523624300591,0,105,-56,-1,-1,0
1523624300591,-458752,105,-56,-1,-1,0
1523624300630,-1048576,107,-56,-1,-1,0
1523624300630,-1703936,107,-56,-1,-1,0
1523624300630,-2097152,107,-56,-1,-1,0
1523624300630,-1900544,107,-56,-1,-1,0
1523624300630,-1376256,107,-56,-1,-1,0
1523624300670,-1048576,107,-56,-1,-1,0
1523624300670,-983040,107,-56,-1,-1,0
1523624300670,-1245184,107,-56,-1,-1,0
1523624300670,-1441792,107,-56,-1,-1,0
1523624300670,-786432,107,-56,-1,-1,0
1523624300710,-131072,107,-56,-1,-1,0
1523624300710,196608,107,-56,-1,-1,0
1523624300710,262144,107,-56,-1,-1,0
1523624300710,458752,107,-56,-1,-1,0
1523624300710,851968,107,-56,-1,-1,0
1523624300750,1245184,107,-56,-1,-1,0
1523624300750,851968,107,-56,-1,-1,0
1523624300750,-786432,107,-56,-1,-1,0
1523624300750,-1572864,107,-56,-1,-1,0
1523624300750,-589824,107,-56,-1,-1,0
1523624300790,196608,107,-56,-1,-1,0
1523624300790,-524288,107,-56,-1,-1,0
1523624300790,-1572864,107,-56,-1,-1,0
1523624300790,-1900544,107,-56,-1,-1,0
1523624300790,-1638400,107,-56,-1,-1,0
1523624300830,-1835008,107,-56,-1,-1,0
1523624300830,-2424832,107,-56,-1,-1,0
1523624300830,-1703936,107,-56,-1,-1,0
1523624300830,196608,107,-56,-1,-1,0
1523624300830,3145728,107,-56,-1,-1,0
1523624300870,5832704,107,-56,-1,-1,0
1523624300870,5308416,107,-56,-1,-1,0
1523624300870,1114112,107,-56,-1,-1,0
1523624300870,-2621440,107,-56,-1,-1,0
1523624300870,-3342336,107,-56,-1,-1,0
1523624300910,-2555904,107,-56,-1,-1,0
1523624300910,-1310720,107,-56,-1,-1,0
1523624300910,-393216,107,-56,-1,-1,0
1523624300910,-327680,107,-56,-1,-1,0
1523624300910,-262144,107,-56,-1,-1,0
1523624300950,458752,107,-56,-1,-1,0
1523624300950,1245184,107,-56,-1,-1,0
1523624300950,1114112,107,-56,-1,-1,0
1523624300950,917504,107,-56,-1,-1,0
1523624300950,1179648,107,-56,-1,-1,0
1523624300990,1507328,107,-56,-1,-1,0
1523624300990,1507328,107,-56,-1,-1,0
1523624300990,1048576,107,-56,-1,-1,0
1523624300990,851968,107,-56,-1,-1,0
1523624300990,1376256,107,-56,-1,-1,0
1523624301031,1900544,107,-56,-1,-1,0
1523624301031,2097152,107,-56,-1,-1,0
1523624301031,2359296,107,-56,-1,-1,0
1523624301031,2818048,107,-56,-1,-1,0
1523624301031,2555904,107,-56,-1,-1,0
1523624301070,1835008,107,-56,-1,-1,0
1523624301070,2424832,107,-56,-1,-1,0
1523624301070,2883584,107,-56,-1,-1,0
1523624301070,2555904,107,-56,-1,-1,0
1523624301070,1638400,107,-56,-1,-1,0
1523624301110,1966080,107,-56,-1,-1,0
1523624301110,3932160,107,-56,-1,-1,0
1523624301110,5373952,107,-56,-1,-1,0
1523624301110,3670016,107,-56,-1,-1,0
1523624301110,2031616,107,-56,-1,-1,0
1523624301150,1441792,107,-56,-1,-1,0
1523624301150,2162688,107,-56,-1,-1,0
1523624301150,2424832,107,-56,-1,-1,0
1523624301150,2031616,107,-56,-1,-1,0
1523624301150,2031616,107,-56,-1,-1,0
1523624301190,983040,109,-56,-1,-1,0
1523624301190,-589824,109,-56,-1,-1,0
1523624301190,-1179648,109,-56,-1,-1,0
1523624301190,983040,109,-56,-1,-1,0
1523624301190,983040,109,-56,-1,-1,0
1523624301230,-1245184,109,-56,-1,-1,0
1523624301230,-983040,109,-56,-1,-1,0
1523624301230,655360,109,-56,-1,-1,0
1523624301230,589824,109,-56,-1,-1,0
1523624301230,-1441792,109,-56,-1,-1,0
1523624301270,-1572864,109,-56,-1,-1,0
1523624301270,-2162688,109,-56,-1,-1,0
1523624301270,-2359296,109,-56,-1,-1,0
1523624301270,-1507328,109,-56,-1,-1,0
1523624301270,-1441792,109,-56,-1,-1,0
1523624301310,-1769472,109,-56,-1,-1,0
1523624301310,-1310720,109,-56,-1,-1,0
1523624301310,-1376256,109,-56,-1,-1,0
1523624301310,-720896,109,-56,-1,-1,0
1523624301310,-196608,109,-56,-1,-1,0
1523624301350,-1048576,109,-56,-1,-1,0
1523624301350,-2752512,109,-56,-1,-1,0
1523624301350,-3342336,109,-56,-1,-1,0
1523624301350,-1179648,109,-56,-1,-1,0
1523624301350,3342336,109,-56,-1,-1,0
1523624301390,5636096,109,-56,-1,-1,0
1523624301390,4521984,109,-56,-1,-1,0
1523624301390,1966080,109,-56,-1,-1,0
1523624301390,-851968,109,-56,-1,-1,0
1523624301390,-2359296,109,-56,-1,-1,0
1523624301430,-2818048,109,-56,-1,-1,0
1523624301430,-3080192,109,-56,-1,-1,0
1523624301430,-2359296,109,-56,-1,-1,0
1523624301430,-1114112,109,-56,-1,-1,0
1523624301430,-262144,109,-56,-1,-1,0
1523624301470,-524288,109,-56,-1,-1,0
1523624301470,-983040,109,-56,-1,-1,0
1523624301470,-1179648,109,-56,-1,-1,0
1523624301470,-1572864,109,-56,-1,-1,0
1523624301470,-1835008,109,-56,-1,-1,0
1523624301510,-2424832,109,-56,-1,-1,0
1523624301510,-2490368,109,-56,-1,-1,0
1523624301510,-2621440,109,-56,-1,-1,0
1523624301510,-2621440,109,-56,-1,-1,0
1523624301510,-1900544,109,-56,-1,-1,0
1523624301550,-458752,109,-56,-1,-1,0
1523624301550,0,109,-56,-1,-1,0
1523624301550,-786432,109,-56,-1,-1,0
1523624301550,-1114112,109,-56,-1,-1,0
1523624301550,-1441792,109,-56,-1,-1,0
1523624301590,-1769472,109,-56,-1,-1,0
1523624301590,-1441792,109,-56,-1,-1,0
1523624301590,-1114112,109,-56,-1,-1,0
1523624301590,-1048576,109,-56,-1,-1,0
1523624301590,-1572864,109,-56,-1,-1,0
1523624301630,-1572864,109,-56,-1,-1,0
1523624301630,-2293760,109,-56,-1,-1,0
1523624301630,-3276800,109,-56,-1,-1,0
1523624301630,-3866624,109,-56,-1,-1,0
1523624301630,-2949120,109,-56,-1,-1,0
1523624301671,-2359296,109,-56,-1,-1,0
1523624301671,-2162688,109,-56,-1,-1,0
1523624301671,-2359296,109,-56,-1,-1,0
1523624301671,-2228224,109,-56,-1,-1,0
1523624301671,-1900544,109,-56,-1,-1,0
1523624301710,-1441792,111,-56,-1,-1,0
1523624301710,-1310720,111,-56,-1,-1,0
1523624301710,-1114112,111,-56,-1,-1,0
1523624301710,-524288,111,-56,-1,-1,0
1523624301710,131072,111,-56,-1,-1,0
1523624301750,524288,111,-56,-1,-1,0
1523624301750,524288,111,-56,-1,-1,0
1523624301750,786432,111,-56,-1,-1,0
1523624301750,917504,111,-56,-1,-1,0
1523624301750,262144,111,-56,-1,-1,0
1523624301790,65536,111,-56,-1,-1,0
1523624301790,458752,111,-56,-1,-1,0
1523624301790,851968,111,-56,-1,-1,0
1523624301790,786432,111,-56,-1,-1,0
1523624301790,131072,111,-56,-1,-1,0
1523624301830,-262144,111,-56,-1,-1,0
1523624301830,-393216,111,-56,-1,-1,0
1523624301830,-589824,111,-56,-1,-1,0
1523624301830,-851968,111,-56,-1,-1,0
1523624301830,-917504,111,-56,-1,-1,0
1523624301870,-851968,111,-56,-1,-1,0
1523624301870,-917504,111,-56,-1,-1,0
1523624301870,-131072,111,-56,-1,-1,0
1523624301870,2293760,111,-56,-1,-1,0
1523624301870,5963776,111,-56,-1,-1,0
1523624301910,7995392,111,-56,-1,-1,0
1523624301910,5242880,111,-56,-1,-1,0
1523624301910,196608,111,-56,-1,-1,0
1523624301910,-2686976,111,-56,-1,-1,0
1523624301910,-2883584,111,-56,-1,-1,0
1523624301950,-2293760,111,-56,-1,-1,0
1523624301950,-1114112,111,-56,-1,-1,0
1523624301950,65536,111,-56,-1,-1,0
1523624301950,786432,111,-56,-1,-1,0
1523624301950,851968,111,-56,-1,-1,0
1523624301991,0,111,-56,-1,-1,0
1523624301991,-983040,111,-56,-1,-1,0
1523624301991,-720896,111,-56,-1,-1,0
1523624301991,131072,111,-56,-1,-1,0
1523624301991,524288,111,-56,-1,-1,0
1523624302030,655360,111,-56,-1,-1,0
1523624302030,720896,111,-56,-1,-1,0
1523624302030,458752,111,-56,-1,-1,0
1523624302030,458752,111,-56,-1,-1,0
1523624302030,327680,111,-56,-1,-1,0
1523624302071,-65536,111,-56,-1,-1,0
1523624302071,-131072,111,-56,-1,-1,0
1523624302071,458752,111,-56,-1,-1,0
1523624302071,720896,111,-56,-1,-1,0
1523624302071,327680,111,-56,-1,-1,0
1523624302110,393216,111,-56,-1,-1,0
1523624302110,1048576,111,-56,-1,-1,0
1523624302110,1179648,111,-56,-1,-1,0
1523624302110,589824,111,-56,-1,-1,0
1523624302110,131072,111,-56,-1,-1,0
1523624302150,524288,111,-56,-1,-1,0
1523624302150,983040,111,-56,-1,-1,0
1523624302150,1179648,111,-56,-1,-1,0
1523624302150,1114112,111,-56,-1,-1,0
1523624302150,917504,111,-56,-1,-1,0
1523624302190,786432,112,-56,-1,-1,0
1523624302190,851968,112,-56,-1,-1,0
1523624302190,589824,112,-56,-1,-1,0
1523624302190,458752,112,-56,-1,-1,0
1523624302190,524288,112,-56,-1,-1,0
1523624302231,524288,112,-56,-1,-1,0
1523624302231,655360,112,-56,-1,-1,0
1523624302231,1441792,112,-56,-1,-1,0
1523624302231,2097152,112,-56,-1,-1,0
1523624302231,1835008,112,-56,-1,-1,0
1523624302295,1769472,112,-56,-1,-1,0
1523624302295,2293760,112,-56,-1,-1,0
1523624302295,3211264,112,-56,-1,-1,0
1523624302295,3145728,112,-56,-1,-1,0
1523624302295,2752512,112,-56,-1,-1,0
1523624302310,2949120,112,-56,-1,-1,0
1523624302310,3080192,112,-56,-1,-1,0
1523624302310,2949120,112,-56,-1,-1,0
1523624302310,2752512,112,-56,-1,-1,0
1523624302310,3276800,112,-56,-1,-1,0
1523624302350,2949120,112,-56,-1,-1,0
1523624302350,2228224,112,-56,-1,-1,0
1523624302350,1507328,112,-56,-1,-1,0
1523624302350,917504,112,-56,-1,-1,0
1523624302350,1769472,112,-56,-1,-1,0
1523624302390,3604480,112,-56,-1,-1,0
1523624302390,3997696,112,-56,-1,-1,0
1523624302390,5963776,112,-56,-1,-1,0
1523624302390,9895936,112,-56,-1,-1,0
1523624302390,11468800,112,-56,-1,-1,0
1523624302430,7536640,112,-56,-1,-1,0
1523624302430,2162688,112,-56,-1,-1,0
1523624302430,-196608,112,-56,-1,-1,0
1523624302430,-786432,112,-56,-1,-1,0
1523624302430,-983040,112,-56,-1,-1,0
1523624302470,-851968,112,-56,-1,-1,0
1523624302470,-1441792,112,-56,-1,-1,0
1523624302470,-2490368,112,-56,-1,-1,0
1523624302470,-1966080,112,-56,-1,-1,0
1523624302470,327680,112,-56,-1,-1,0
1523624302510,131072,112,-56,-1,-1,0
1523624302510,-196608,112,-56,-1,-1,0
1523624302510,393216,112,-56,-1,-1,0
1523624302510,0,112,-56,-1,-1,0
1523624302510,-2031616,112,-56,-1,-1,0
1523624302550,-2752512,112,-56,-1,-1,0
1523624302550,-1441792,112,-56,-1,-1,0
1523624302550,-983040,112,-56,-1,-1,0
1523624302550,-1376256,112,-56,-1,-1,0
1523624302550,-786432,112,-56,-1,-1,0
1523624302590,-262144,112,-56,-1,-1,0
1523624302590,524288,112,-56,-1,-1,0
1523624302590,524288,112,-56,-1,-1,0
1523624302590,-851968,112,-56,-1,-1,0
1523624302590,-1048576,112,-56,-1,-1,0
1523624302630,-196608,112,-56,-1,-1,0
1523624302630,720896,112,-56,-1,-1,0
1523624302630,-327680,112,-56,-1,-1,0
1523624302630,-1048576,112,-56,-1,-1,0
1523624302630,-786432,112,-56,-1,-1,0
1523624302670,-131072,112,-56,-1,-1,0
1523624302670,-589824,112,-56,-1,-1,0
1523624302670,-786432,112,-56,-1,-1,0
1523624302670,-327680,112,-56,-1,-1,0
1523624302670,458752,112,-56,-1,-1,0
1523624302710,393216,112,-56,-1,-1,0
1523624302710,-589824,112,-56,-1,-1,0
1523624302710,-1048576,112,-56,-1,-1,0
1523624302710,-720896,112,-56,-1,-1,0
1523624302710,-524288,112,-56,-1,-1,0
1523624302750,-983040,112,-56,-1,-1,0
1523624302750,-1245184,112,-56,-1,-1,0
1523624302750,-1769472,112,-56,-1,-1,0
1523624302750,-1900544,112,-56,-1,-1,0
1523624302750,-1703936,112,-56,-1,-1,0
1523624302790,-983040,112,-56,-1,-1,0
1523624302790,-1048576,112,-56,-1,-1,0
1523624302790,-1179648,112,-56,-1,-1,0
1523624302790,-1114112,112,-56,-1,-1,0
1523624302790,-983040,112,-56,-1,-1,0
1523624302830,-851968,112,-56,-1,-1,0
1523624302830,-524288,112,-56,-1,-1,0
1523624302830,-262144,112,-56,-1,-1,0
1523624302830,-65536,112,-56,-1,-1,0
1523624302830,-131072,112,-56,-1,-1,0
1523624302870,-655360,112,-56,-1,-1,0
1523624302870,-983040,112,-56,-1,-1,0
1523624302870,-1900544,112,-56,-1,-1,0
1523624302870,-2818048,112,-56,-1,-1,0
1523624302870,-3407872,112,-56,-1,-1,0
1523624302910,-2424832,112,-56,-1,-1,0
1523624302910,0,112,-56,-1,-1,0
1523624302910,3801088,112,-56,-1,-1,0
1523624302910,5439488,112,-56,-1,-1,0
1523624302910,2097152,112,-56,-1,-1,0
1523624302952,-2818048,112,-56,-1,-1,0
1523624302952,-5046272,112,-56,-1,-1,0
1523624302952,-5111808,112,-56,-1,-1,0
1523624302952,-4521984,112,-56,-1,-1,0
1523624302952,-3997696,112,-56,-1,-1,0
1523624302990,-3473408,112,-56,-1,-1,0
1523624302990,-3080192,112,-56,-1,-1,0
1523624302990,-2818048,112,-56,-1,-1,0
1523624302990,-2949120,112,-56,-1,-1,0
1523624302990,-2686976,112,-56,-1,-1,0
1523624303030,-2162688,112,-56,-1,-1,0
1523624303030,-1900544,112,-56,-1,-1,0
1523624303030,-2162688,112,-56,-1,-1,0
1523624303030,-2162688,112,-56,-1,-1,0
1523624303030,-1245184,112,-56,-1,-1,0
1523624303070,-327680,112,-56,-1,-1,0
1523624303070,131072,112,-56,-1,-1,0
1523624303070,720896,112,-56,-1,-1,0
1523624303070,1048576,112,-56,-1,-1,0
1523624303070,917504,112,-56,-1,-1,0
1523624303110,786432,112,-56,-1,-1,0
1523624303110,983040,112,-56,-1,-1,0
1523624303110,1310720,112,-56,-1,-1,0
1523624303110,1441792,112,-56,-1,-1,0
1523624303110,1310720,112,-56,-1,-1,0
1523624303150,1376256,112,-56,-1,-1,0
1523624303150,1638400,112,-56,-1,-1,0
1523624303150,1966080,112,-56,-1,-1,0
1523624303150,1835008,112,-56,-1,-1,0
1523624303150,1376256,112,-56,-1,-1,0
1523624303190,917504,114,-56,-1,-1,0
1523624303190,327680,114,-56,-1,-1,0
1523624303190,65536,114,-56,-1,-1,0
1523624303190,131072,114,-56,-1,-1,0
1523624303190,-196608,114,-56,-1,-1,0
1523624303230,-1179648,114,-56,-1,-1,0
1523624303230,-1638400,114,-56,-1,-1,0
1523624303230,-1769472,114,-56,-1,-1,0
1523624303230,-1441792,114,-56,-1,-1,0
1523624303230,-917504,114,-56,-1,-1,0
1523624303272,-786432,114,-56,-1,-1,0
1523624303272,-1114112,114,-56,-1,-1,0
1523624303272,-720896,114,-56,-1,-1,0
1523624303272,196608,114,-56,-1,-1,0
1523624303272,786432,114,-56,-1,-1,0
1523624303310,917504,114,-56,-1,-1,0
1523624303310,720896,114,-56,-1,-1,0
1523624303310,851968,114,-56,-1,-1,0
1523624303310,851968,114,-56,-1,-1,0
1523624303310,786432,114,-56,-1,-1,0
1523624303350,524288,114,-56,-1,-1,0
1523624303350,0,114,-56,-1,-1,0
1523624303350,-589824,114,-56,-1,-1,0
1523624303350,-65536,114,-56,-1,-1,0
1523624303350,0,114,-56,-1,-1,0
1523624303390,196608,114,-56,-1,-1,0
1523624303390,196608,114,-56,-1,-1,0
1523624303390,131072,114,-56,-1,-1,0
1523624303390,458752,114,-56,-1,-1,0
1523624303390,2949120,114,-56,-1,-1,0
1523624303430,6422528,114,-56,-1,-1,0
1523624303430,5963776,114,-56,-1,-1,0
1523624303430,1245184,114,-56,-1,-1,0
1523624303430,-3014656,114,-56,-1,-1,0
1523624303430,-2752512,114,-56,-1,-1,0
1523624303471,-1507328,114,-56,-1,-1,0
1523624303471,-1441792,114,-56,-1,-1,0
1523624303471,-1245184,114,-56,-1,-1,0
1523624303471,-1114112,114,-56,-1,-1,0
1523624303471,-1376256,114,-56,-1,-1,0
1523624303510,-1048576,114,-56,-1,-1,0
1523624303510,65536,114,-56,-1,-1,0
1523624303510,327680,114,-56,-1,-1,0
1523624303510,524288,114,-56,-1,-1,0
1523624303510,917504,114,-56,-1,-1,0
1523624303550,1179648,114,-56,-1,-1,0
1523624303550,524288,114,-56,-1,-1,0
1523624303550,589824,114,-56,-1,-1,0
1523624303550,1441792,114,-56,-1,-1,0
1523624303550,2424832,114,-56,-1,-1,0
1523624303591,2359296,114,-56,-1,-1,0
1523624303591,2228224,114,-56,-1,-1,0
1523624303591,3014656,114,-56,-1,-1,0
1523624303591,3538944,114,-56,-1,-1,0
1523624303591,3080192,114,-56,-1,-1,0
1523624303630,2883584,114,-56,-1,-1,0
1523624303630,3211264,114,-56,-1,-1,0
1523624303630,3080192,114,-56,-1,-1,0
1523624303630,2228224,114,-56,-1,-1,0
1523624303630,2228224,114,-56,-1,-1,0
1523624303670,2031616,115,-56,-1,-1,0
1523624303670,458752,115,-56,-1,-1,0
1523624303670,0,115,-56,-1,-1,0
1523624303670,1507328,115,-56,-1,-1,0
1523624303670,2490368,115,-56,-1,-1,0
1523624303710,1769472,115,-56,-1,-1,0
1523624303710,2097152,115,-56,-1,-1,0
1523624303710,3932160,115,-56,-1,-1,0
1523624303710,3538944,115,-56,-1,-1,0
1523624303710,2031616,115,-56,-1,-1,0
1523624303750,-524288,115,-56,-1,-1,0
1523624303750,-393216,115,-56,-1,-1,0
1523624303750,1245184,115,-56,-1,-1,0
1523624303750,2883584,115,-56,-1,-1,0
1523624303750,589824,115,-56,-1,-1,0
1523624303790,-1376256,115,-56,-1,-1,0
1523624303790,-2883584,115,-56,-1,-1,0
1523624303790,-1507328,115,-56,-1,-1,0
1523624303790,-786432,115,-56,-1,-1,0
1523624303790,-524288,115,-56,-1,-1,0
1523624303830,-983040,115,-56,-1,-1,0
1523624303830,-786432,115,-56,-1,-1,0
1523624303830,393216,115,-56,-1,-1,0
1523624303830,-262144,115,-56,-1,-1,0
1523624303830,-2424832,115,-56,-1,-1,0
1523624303870,-3276800,115,-56,-1,-1,0
1523624303870,-3801088,115,-56,-1,-1,0
1523624303870,-3997696,115,-56,-1,-1,0
1523624303870,-3866624,115,-56,-1,-1,0
1523624303870,-1900544,115,-56,-1,-1,0
1523624303910,-458752,115,-56,-1,-1,0
1523624303910,1310720,115,-56,-1,-1,0
1523624303910,4063232,115,-56,-1,-1,0
1523624303910,4456448,115,-56,-1,-1,0
1523624303910,589824,115,-56,-1,-1,0
1523624303950,-4063232,115,-56,-1,-1,0
1523624303950,-5832704,115,-56,-1,-1,0
1523624303950,-4325376,115,-56,-1,-1,0
1523624303950,-2490368,115,-56,-1,-1,0
1523624303950,-1638400,115,-56,-1,-1,0
1523624303990,-2359296,115,-56,-1,-1,0
1523624303990,-2752512,115,-56,-1,-1,0
1523624303990,-2752512,115,-56,-1,-1,0
1523624303990,-2621440,115,-56,-1,-1,0
1523624303990,-2228224,115,-56,-1,-1,0
1523624304030,-1769472,115,-56,-1,-1,0
1523624304030,-1703936,115,-56,-1,-1,0
1523624304030,-1900544,115,-56,-1,-1,0
1523624304030,-2162688,115,-56,-1,-1,0
1523624304030,-2490368,115,-56,-1,-1,0
1523624304070,-2228224,115,-56,-1,-1,0
1523624304070,-1835008,115,-56,-1,-1,0
1523624304070,-1179648,115,-56,-1,-1,0
1523624304070,-589824,115,-56,-1,-1,0
1523624304070,-720896,115,-56,-1,-1,0
1523624304110,-917504,115,-56,-1,-1,0
1523624304110,-655360,115,-56,-1,-1,0
1523624304110,-720896,115,-56,-1,-1,0
1523624304110,-1441792,115,-56,-1,-1,0
1523624304110,-2555904,115,-56,-1,-1,0
1523624304150,-2818048,115,-56,-1,-1,0
1523624304150,-2359296,115,-56,-1,-1,0
1523624304150,-1703936,115,-56,-1,-1,0
1523624304150,-1441792,115,-56,-1,-1,0
1523624304150,-851968,115,-56,-1,-1,0
1523624304190,-1114112,115,-56,-1,-1,0
1523624304190,-2228224,115,-56,-1,-1,0
1523624304190,-2883584,115,-56,-1,-1,0
1523624304190,-2752512,115,-56,-1,-1,0
1523624304190,-2490368,115,-56,-1,-1,0
1523624304231,-2097152,115,-56,-1,-1,0
1523624304231,-1441792,115,-56,-1,-1,0
1523624304231,-1310720,115,-56,-1,-1,0
1523624304231,-1441792,115,-56,-1,-1,0
1523624304231,-1769472,115,-56,-1,-1,0
1523624304270,-2031616,115,-56,-1,-1,0
1523624304270,-1572864,115,-56,-1,-1,0
1523624304270,-851968,115,-56,-1,-1,0
1523624304270,-327680,115,-56,-1,-1,0
1523624304270,-196608,115,-56,-1,-1,0
1523624304310,-524288,116,-56,-1,-1,0
1523624304310,-655360,116,-56,-1,-1,0
1523624304310,-655360,116,-56,-1,-1,0
1523624304310,-1245184,116,-56,-1,-1,0
1523624304310,-1572864,116,-56,-1,-1,0
1523624304350,-1507328,116,-56,-1,-1,0
1523624304350,-1966080,116,-56,-1,-1,0
1523624304350,-2686976,116,-56,-1,-1,0
1523624304350,-1900544,116,-56,-1,-1,0
1523624304350,-720896,116,-56,-1,-1,0
1523624304390,-393216,116,-56,-1,-1,0
1523624304390,-720896,116,-56,-1,-1,0
1523624304390,196608,116,-56,-1,-1,0
1523624304390,3473408,116,-56,-1,-1,0
1523624304390,7077888,116,-56,-1,-1,0
1523624304433,7798784,116,-56,-1,-1,0
1523624304433,4194304,116,-56,-1,-1,0
1523624304433,-458752,116,-56,-1,-1,0
1523624304433,-2424832,116,-56,-1,-1,0
1523624304433,-1966080,116,-56,-1,-1,0
1523624304470,-1179648,116,-56,-1,-1,0
1523624304470,-524288,116,-56,-1,-1,0
1523624304470,-327680,116,-56,-1,-1,0
1523624304470,-851968,116,-56,-1,-1,0
1523624304470,-917504,116,-56,-1,-1,0
1523624304510,-720896,116,-56,-1,-1,0
1523624304510,-851968,116,-56,-1,-1,0
1523624304510,-1114112,116,-56,-1,-1,0
1523624304510,-851968,116,-56,-1,-1,0
1523624304510,-327680,116,-56,-1,-1,0
1523624304550,0,116,-56,-1,-1,0
1523624304550,-65536,116,-56,-1,-1,0
1523624304550,0,116,-56,-1,-1,0
1523624304550,327680,116,-56,-1,-1,0
1523624304550,786432,116,-56,-1,-1,0
1523624304591,655360,116,-56,-1,-1,0
1523624304591,786432,116,-56,-1,-1,0
1523624304591,851968,116,-56,-1,-1,0
1523624304591,851968,116,-56,-1,-1,0
1523624304591,720896,116,-56,-1,-1,0
1523624304630,589824,116,-56,-1,-1,0
1523624304630,393216,116,-56,-1,-1,0
1523624304630,327680,116,-56,-1,-1,0
1523624304630,720896,116,-56,-1,-1,0
1523624304630,1245184,116,-56,-1,-1,0
1523624304670,983040,117,-56,-1,-1,0
1523624304670,786432,117,-56,-1,-1,0
1523624304670,1114112,117,-56,-1,-1,0
1523624304670,1310720,117,-56,-1,-1,0
1523624304670,1048576,117,-56,-1,-1,0
1523624304710,917504,117,-56,-1,-1,0
1523624304710,589824,117,-56,-1,-1,0
1523624304710,458752,117,-56,-1,-1,0
1523624304710,786432,117,-56,-1,-1,0
1523624304710,1245184,117,-56,-1,-1,0
1523624304750,1114112,117,-56,-1,-1,0
1523624304750,917504,117,-56,-1,-1,0
1523624304750,1245184,117,-56,-1,-1,0
1523624304750,1572864,117,-56,-1,-1,0
1523624304750,983040,117,-56,-1,-1,0
1523624304791,851968,117,-56,-1,-1,0
1523624304791,1376256,117,-56,-1,-1,0
1523624304791,1900544,117,-56,-1,-1,0
1523624304791,1900544,117,-56,-1,-1,0
1523624304791,1900544,117,-56,-1,-1,0
1523624304830,1966080,117,-56,-1,-1,0
1523624304830,2621440,117,-56,-1,-1,0
1523624304830,3538944,117,-56,-1,-1,0
1523624304830,3735552,117,-56,-1,-1,0
1523624304830,3538944,117,-56,-1,-1,0
1523624304870,3866624,117,-56,-1,-1,0
1523624304870,4063232,117,-56,-1,-1,0
1523624304870,3932160,117,-56,-1,-1,0
1523624304870,4259840,117,-56,-1,-1,0
1523624304870,6225920,117,-56,-1,-1,0
1523624304910,9306112,117,-56,-1,-1,0
1523624304910,10944512,117,-56,-1,-1,0
1523624304910,8192000,117,-56,-1,-1,0
1523624304910,3080192,117,-56,-1,-1,0
1523624304910,1048576,117,-56,-1,-1,0
1523624304950,1310720,117,-56,-1,-1,0
1523624304950,458752,117,-56,-1,-1,0
1523624304950,-589824,117,-56,-1,-1,0
1523624304950,393216,117,-56,-1,-1,0
1523624304950,655360,117,-56,-1,-1,0
1523624304990,458752,117,-56,-1,-1,0
1523624304990,983040,117,-56,-1,-1,0
1523624304990,4718592,117,-56,-1,-1,0
1523624304990,7077888,117,-56,-1,-1,0
1523624304990,5046272,117,-56,-1,-1,0
1523624305030,524288,117,-56,-1,-1,0
1523624305030,655360,117,-56,-1,-1,0
1523624305030,2097152,117,-56,-1,-1,0
1523624305030,393216,117,-56,-1,-1,0
1523624305030,-1638400,117,-56,-1,-1,0
1523624305070,458752,117,-56,-1,-1,0
1523624305070,2031616,117,-56,-1,-1,0
1523624305070,-196608,117,-56,-1,-1,0
1523624305070,-3145728,117,-56,-1,-1,0
1523624305070,-3538944,117,-56,-1,-1,0
1523624305110,-2883584,117,-56,-1,-1,0
1523624305110,-1572864,117,-56,-1,-1,0
1523624305110,-655360,117,-56,-1,-1,0
1523624305110,-589824,117,-56,-1,-1,0
1523624305110,-1441792,117,-56,-1,-1,0
1523624305150,-1703936,117,-56,-1,-1,0
1523624305150,-1245184,117,-56,-1,-1,0
1523624305150,-917504,117,-56,-1,-1,0
1523624305150,-1179648,117,-56,-1,-1,0
1523624305150,-1572864,117,-56,-1,-1,0
1523624305190,-1376256,117,-56,-1,-1,0
1523624305190,-589824,117,-56,-1,-1,0
1523624305190,-524288,117,-56,-1,-1,0
1523624305190,-786432,117,-56,-1,-1,0
1523624305190,-2162688,117,-56,-1,-1,0
1523624305230,-3211264,117,-56,-1,-1,0
1523624305230,-3014656,117,-56,-1,-1,0
1523624305230,-2555904,117,-56,-1,-1,0
1523624305230,-2490368,117,-56,-1,-1,0
1523624305230,-1638400,117,-56,-1,-1,0
1523624305270,-1114112,117,-56,-1,-1,0
1523624305270,-1769472,117,-56,-1,-1,0
1523624305270,-2490368,117,-56,-1,-1,0
1523624305270,-2686976,117,-56,-1,-1,0
1523624305270,-2359296,117,-56,-1,-1,0
1523624305310,-3014656,117,-56,-1,-1,0
1523624305310,-3866624,117,-56,-1,-1,0
1523624305310,-4390912,117,-56,-1,-1,0
1523624305310,-3932160,117,-56,-1,-1,0
1523624305310,-3670016,117,-56,-1,-1,0
1523624305350,-3735552,117,-56,-1,-1,0
1523624305350,-3866624,117,-56,-1,-1,0
1523624305350,-3538944,117,-56,-1,-1,0
1523624305350,-2424832,117,-56,-1,-1,0
1523624305350,-65536,117,-56,-1,-1,0
1523624305390,3604480,117,-56,-1,-1,0
1523624305390,5505024,117,-56,-1,-1,0
1523624305390,2621440,117,-56,-1,-1,0
1523624305390,-2686976,117,-56,-1,-1,0
1523624305390,-5636096,117,-56,-1,-1,0
1523624305430,-5308416,117,-56,-1,-1,0
1523624305430,-3801088,117,-56,-1,-1,0
1523624305430,-2949120,117,-56,-1,-1,0
1523624305430,-2818048,117,-56,-1,-1,0
1523624305430,-2686976,117,-56,-1,-1,0
1523624305470,-2883584,117,-56,-1,-1,0
1523624305470,-3080192,117,-56,-1,-1,0
1523624305470,-2621440,117,-56,-1,-1,0
1523624305470,-2490368,117,-56,-1,-1,0
1523624305470,-3014656,117,-56,-1,-1,0
1523624305511,-3145728,117,-56,-1,-1,0
1523624305511,-2949120,117,-56,-1,-1,0
1523624305511,-3145728,117,-56,-1,-1,0
1523624305511,-3342336,117,-56,-1,-1,0
1523624305511,-3604480,117,-56,-1,-1,0
1523624305550,-3866624,117,-56,-1,-1,0
1523624305550,-3997696,117,-56,-1,-1,0
1523624305550,-3735552,117,-56,-1,-1,0
1523624305550,-2949120,117,-56,-1,-1,0
1523624305550,-1900544,117,-56,-1,-1,0
1523624305590,-1114112,117,-56,-1,-1,0
1523624305590,-458752,117,-56,-1,-1,0
1523624305590,327680,117,-56,-1,-1,0
1523624305590,1114112,117,-56,-1,-1,0
1523624305590,1835008,117,-56,-1,-1,0
1523624305630,2097152,117,-56,-1,-1,0
1523624305630,2228224,117,-56,-1,-1,0
1523624305630,2555904,117,-56,-1,-1,0
1523624305630,2686976,117,-56,-1,-1,0
1523624305630,2490368,117,-56,-1,-1,0
1523624305670,2359296,117,-56,-1,-1,0
1523624305670,2228224,117,-56,-1,-1,0
1523624305670,1703936,117,-56,-1,-1,0
1523624305670,589824,117,-56,-1,-1,0
1523624305670,-262144,117,-56,-1,-1,0
1523624305710,-786432,117,-56,-1,-1,0
1523624305710,-327680,117,-56,-1,-1,0
1523624305710,0,117,-56,-1,-1,0
1523624305710,262144,117,-56,-1,-1,0
1523624305710,655360,117,-56,-1,-1,0
1523624305750,524288,117,-56,-1,-1,0
1523624305750,0,117,-56,-1,-1,0
1523624305750,-327680,117,-56,-1,-1,0
1523624305750,-327680,117,-56,-1,-1,0
1523624305750,-524288,117,-56,-1,-1,0
1523624305790,-917504,117,-56,-1,-1,0
1523624305790,-1114112,117,-56,-1,-1,0
1523624305790,-1114112,117,-56,-1,-1,0
1523624305790,-655360,117,-56,-1,-1,0
1523624305790,-196608,117,-56,-1,-1,0
1523624305830,-589824,117,-56,-1,-1,0
1523624305830,-1048576,117,-56,-1,-1,0
1523624305830,-589824,117,-56,-1,-1,0
1523624305830,1769472,117,-56,-1,-1,0
1523624305830,6291456,117,-56,-1,-1,0
1523624305870,8781824,117,-56,-1,-1,0
1523624305870,5636096,117,-56,-1,-1,0
1523624305870,458752,117,-56,-1,-1,0
1523624305870,-1900544,117,-56,-1,-1,0
1523624305870,-1572864,117,-56,-1,-1,0
1523624305910,-917504,117,-56,-1,-1,0
1523624305910,-720896,117,-56,-1,-1,0
1523624305910,-851968,117,-56,-1,-1,0
1523624305910,-720896,117,-56,-1,-1,0
1523624305910,-327680,117,-56,-1,-1,0
1523624305950,-393216,117,-56,-1,-1,0
1523624305950,-393216,117,-56,-1,-1,0
1523624305950,327680,117,-56,-1,-1,0
1523624305950,655360,117,-56,-1,-1,0
1523624305950,65536,117,-56,-1,-1,0
1523624305990,-262144,117,-56,-1,-1,0
1523624305990,-327680,117,-56,-1,-1,0
1523624305990,-589824,117,-56,-1,-1,0
1523624305990,-720896,117,-56,-1,-1,0
1523624305990,-393216,117,-56,-1,-1,0
1523624306030,196608,117,-56,-1,-1,0
1523624306030,655360,117,-56,-1,-1,0
1523624306030,851968,117,-56,-1,-1,0
1523624306030,786432,117,-56,-1,-1,0
1523624306030,1245184,117,-56,-1,-1,0
1523624306070,1638400,118,-56,-1,-1,0
1523624306070,1507328,118,-56,-1,-1,0
1523624306070,1048576,118,-56,-1,-1,0
1523624306070,1441792,118,-56,-1,-1,0
1523624306070,2424832,118,-56,-1,-1,0
1523624306114,3080192,118,-56,-1,-1,0
1523624306114,2686976,118,-56,-1,-1,0
1523624306114,2293760,118,-56,-1,-1,0
1523624306114,2752512,118,-56,-1,-1,0
1523624306114,3538944,118,-56,-1,-1,0
1523624306150,3080192,118,-56,-1,-1,0
1523624306150,3473408,118,-56,-1,-1,0
1523624306150,3866624,118,-56,-1,-1,0
1523624306150,3407872,118,-56,-1,-1,0
1523624306150,2686976,118,-56,-1,-1,0
1523624306190,2752512,118,-56,-1,-1,0
1523624306190,3211264,118,-56,-1,-1,0
1523624306190,3276800,118,-56,-1,-1,0
1523624306190,3670016,118,-56,-1,-1,0
1523624306190,3932160,118,-56,-1,-1,0
1523624306230,3735552,118,-56,-1,-1,0
1523624306230,2686976,118,-56,-1,-1,0
1523624306230,1638400,118,-56,-1,-1,0
1523624306230,1376256,118,-56,-1,-1,0
1523624306230,1376256,118,-56,-1,-1,0
1523624306272,1703936,118,-56,-1,-1,0
1523624306272,2490368,118,-56,-1,-1,0
1523624306272,3735552,118,-56,-1,-1,0
1523624306272,4128768,118,-56,-1,-1,0
1523624306272,5242880,118,-56,-1,-1,0
1523624306310,5701632,118,-56,-1,-1,0
1523624306310,3997696,118,-56,-1,-1,0
1523624306310,2818048,118,-56,-1,-1,0
1523624306310,3604480,118,-56,-1,-1,0
1523624306310,6356992,118,-56,-1,-1,0
1523624306350,8912896,118,-56,-1,-1,0
1523624306350,6750208,118,-56,-1,-1,0
1523624306350,2162688,118,-56,-1,-1,0
1523624306350,-1179648,118,-56,-1,-1,0
1523624306350,-2555904,118,-56,-1,-1,0
1523624306390,-2031616,118,-56,-1,-1,0
1523624306390,-3538944,118,-56,-1,-1,0
1523624306390,-3670016,118,-56,-1,-1,0
1523624306390,-1310720,118,-56,-1,-1,0
1523624306390,65536,118,-56,-1,-1,0
1523624306430,-851968,118,-56,-1,-1,0
1523624306430,-1441792,118,-56,-1,-1,0
1523624306430,-1900544,118,-56,-1,-1,0
1523624306430,-2949120,118,-56,-1,-1,0
1523624306430,-2949120,118,-56,-1,-1,0
1523624306470,-917504,118,-56,-1,-1,0
1523624306470,-589824,118,-56,-1,-1,0
1523624306470,-1835008,118,-56,-1,-1,0
1523624306470,-2752512,118,-56,-1,-1,0
1523624306470,-2555904,118,-56,-1,-1,0
1523624306510,-3276800,118,-56,-1,-1,0
1523624306510,-3473408,118,-56,-1,-1,0
1523624306510,-2424832,118,-56,-1,-1,0
1523624306510,-2097152,118,-56,-1,-1,0
1523624306510,-1769472,118,-56,-1,-1,0
1523624306550,-2949120,119,-56,-1,-1,0
1523624306550,-3932160,119,-56,-1,-1,0
1523624306550,-4128768,119,-56,-1,-1,0
1523624306550,-3014656,119,-56,-1,-1,0
1523624306550,-2555904,119,-56,-1,-1,0
1523624306590,-2752512,119,-56,-1,-1,0
1523624306590,-2621440,119,-56,-1,-1,0
1523624306590,-2752512,119,-56,-1,-1,0
1523624306590,-2490368,119,-56,-1,-1,0
1523624306590,-2162688,119,-56,-1,-1,0
1523624306630,-1769472,119,-56,-1,-1,0
1523624306630,-1835008,119,-56,-1,-1,0
1523624306630,-1769472,119,-56,-1,-1,0
1523624306630,-1900544,119,-56,-1,-1,0
1523624306630,-2162688,119,-56,-1,-1,0
1523624306670,-2490368,119,-56,-1,-1,0
1523624306670,-2686976,119,-56,-1,-1,0
1523624306670,-1835008,119,-56,-1,-1,0
1523624306670,-786432,119,-56,-1,-1,0
1523624306670,-851968,119,-56,-1,-1,0
1523624306710,-1441792,119,-56,-1,-1,0
1523624306710,-1245184,119,-56,-1,-1,0
1523624306710,-720896,119,-56,-1,-1,0
1523624306710,-720896,119,-56,-1,-1,0
1523624306710,-1507328,119,-56,-1,-1,0
1523624306750,-2359296,119,-56,-1,-1,0
1523624306750,-2621440,119,-56,-1,-1,0
1523624306750,-2555904,119,-56,-1,-1,0
1523624306750,-2162688,119,-56,-1,-1,0
1523624306750,-1507328,119,-56,-1,-1,0
1523624306791,458752,119,-56,-1,-1,0
1523624306791,3670016,119,-56,-1,-1,0
1523624306791,6488064,119,-56,-1,-1,0
1523624306791,5242880,119,-56,-1,-1,0
1523624306791,720896,119,-56,-1,-1,0
1523624306830,-2359296,119,-56,-1,-1,0
1523624306830,-3080192,119,-56,-1,-1,0
1523624306830,-2752512,119,-56,-1,-1,0
1523624306830,-2752512,119,-56,-1,-1,0
1523624306830,-2424832,119,-56,-1,-1,0
1523624306870,-2162688,119,-56,-1,-1,0
1523624306870,-1966080,119,-56,-1,-1,0
1523624306870,-1769472,119,-56,-1,-1,0
1523624306870,-1703936,119,-56,-1,-1,0
1523624306870,-1376256,119,-56,-1,-1,0
1523624306915,-524288,119,-56,-1,-1,0
1523624306915,196608,119,-56,-1,-1,0
1523624306915,524288,119,-56,-1,-1,0
1523624306915,262144,119,-56,-1,-1,0
1523624306915,196608,119,-56,-1,-1,0
1523624306950,262144,119,-56,-1,-1,0
1523624306950,393216,119,-56,-1,-1,0
1523624306950,131072,119,-56,-1,-1,0
