milliseconds, ECG, ECG HR, PPG, PPG HR, SpO2, PI
1523629242481,-1703936,-119,-56,-1,-1,0
1523629242481,-1835008,-119,-56,-1,-1,0
1523629242481,-1769472,-119,-56,-1,-1,0
1523629242481,-1703936,-119,-56,-1,-1,0
1523629242481,-1900544,-119,-56,-1,-1,0
1523629242530,-2162688,-119,-56,-1,-1,0
1523629242530,-2031616,-119,-56,-1,-1,0
1523629242530,-1376256,-119,-56,-1,-1,0
1523629242530,-1048576,-119,-56,-1,-1,0
1523629242530,-1310720,-119,-56,-1,-1,0
1523629242561,-1769472,-119,-56,-1,-1,0
1523629242561,-1769472,-119,-56,-1,-1,0
1523629242561,-1310720,-119,-56,-1,-1,0
1523629242561,-589824,-119,-56,-1,-1,0
1523629242561,-131072,-119,-56,-1,-1,0
1523629242602,-196608,-119,-56,-1,-1,0
1523629242602,-327680,-119,-56,-1,-1,0
1523629242602,-458752,-119,-56,-1,-1,0
1523629242602,-458752,-119,-56,-1,-1,0
1523629242602,-196608,-119,-56,-1,-1,0
1523629242642,-131072,-119,-56,-1,-1,0
1523629242642,0,-119,-56,-1,-1,0
1523629242642,262144,-119,-56,-1,-1,0
1523629242642,393216,-119,-56,-1,-1,0
1523629242642,196608,-119,-56,-1,-1,0
1523629242682,65536,-119,-56,-1,-1,0
1523629242682,0,-119,-56,-1,-1,0
1523629242682,0,-119,-56,-1,-1,0
1523629242682,0,-119,-56,-1,-1,0
1523629242682,65536,-119,-56,-1,-1,0
1523629242722,131072,-119,-56,-1,-1,0
1523629242722,0,-119,-56,-1,-1,0
1523629242722,-262144,-119,-56,-1,-1,0
1523629242722,-655360,-119,-56,-1,-1,0
1523629242722,-655360,-119,-56,-1,-1,0
1523629242762,-655360,-119,-56,-1,-1,0
1523629242762,-458752,-119,-56,-1,-1,0
1523629242762,-262144,-119,-56,-1,-1,0
1523629242762,-524288,-119,-56,-1,-1,0
1523629242762,-1376256,-119,-56,-1,-1,0
1523629242802,-1179648,-119,-56,-1,-1,0
1523629242802,2228224,-119,-56,-1,-1,0
1523629242802,8585216,-119,-56,-1,-1,0
1523629242802,14090240,-119,-56,-1,-1,0
1523629242802,12910592,-119,-56,-1,-1,0
1523629242841,6029312,-119,-56,-1,-1,0
1523629242841,131072,-119,-56,-1,-1,0
1523629242841,-1114112,-119,-56,-1,-1,0
1523629242841,-1310720,-119,-56,-1,-1,0
1523629242841,-1835008,-119,-56,-1,-1,0
1523629242881,-2228224,-119,-56,-1,-1,0
1523629242881,-2097152,-119,-56,-1,-1,0
1523629242881,-2490368,-119,-56,-1,-1,0
1523629242881,-3014656,-119,-56,-1,-1,0
1523629242881,-2686976,-119,-56,-1,-1,0
1523629242921,-1769472,-119,-56,-1,-1,0
1523629242921,-1245184,-119,-56,-1,-1,0
1523629242921,-1245184,-119,-56,-1,-1,0
1523629242921,-1769472,-119,-56,-1,-1,0
1523629242921,-1966080,-119,-56,-1,-1,0
1523629242961,-1638400,-119,-56,-1,-1,0
1523629242961,-1245184,-119,-56,-1,-1,0
1523629242961,-851968,-119,-56,-1,-1,0
1523629242961,-851968,-119,-56,-1,-1,0
1523629242961,-1114112,-119,-56,-1,-1,0
1523629243001,-983040,-119,-56,-1,-1,0
1523629243001,-327680,-119,-56,-1,-1,0
1523629243001,65536,-119,-56,-1,-1,0
1523629243001,0,-119,-56,-1,-1,0
1523629243001,-327680,-119,-56,-1,-1,0
1523629243041,-524288,-119,-56,-1,-1,0
1523629243041,-1048576,-119,-56,-1,-1,0
1523629243041,-1376256,-119,-56,-1,-1,0
1523629243041,-1114112,-119,-56,-1,-1,0
1523629243041,65536,-119,-56,-1,-1,0
1523629243081,655360,-119,-56,-1,-1,0
1523629243081,393216,-119,-56,-1,-1,0
1523629243081,327680,-119,-56,-1,-1,0
1523629243081,524288,-119,-56,-1,-1,0
1523629243081,262144,-119,-56,-1,-1,0
1523629243121,-458752,-119,-56,-1,-1,0
1523629243121,-851968,-119,-56,-1,-1,0
1523629243121,-589824,-119,-56,-1,-1,0
1523629243121,-196608,-119,-56,-1,-1,0
1523629243121,0,-119,-56,-1,-1,0
1523629243166,0,-119,-56,-1,-1,0
1523629243166,0,-119,-56,-1,-1,0
1523629243166,-327680,-119,-56,-1,-1,0
1523629243166,-524288,-119,-56,-1,-1,0
1523629243166,-589824,-119,-56,-1,-1,0
1523629243201,-655360,-119,-56,-1,-1,0
1523629243201,-1048576,-119,-56,-1,-1,0
1523629243201,-983040,-119,-56,-1,-1,0
1523629243201,-983040,-119,-56,-1,-1,0
1523629243201,-917504,-119,-56,-1,-1,0
1523629243241,393216,-119,-56,-1,-1,0
1523629243241,4456448,-119,-56,-1,-1,0
1523629243241,10485760,-119,-56,-1,-1,0
1523629243241,14221312,-119,-56,-1,-1,0
1523629243241,10878976,-119,-56,-1,-1,0
1523629243281,3670016,-119,-56,-1,-1,0
1523629243281,-131072,-119,-56,-1,-1,0
1523629243281,-524288,-119,-56,-1,-1,0
1523629243281,-851968,-119,-56,-1,-1,0
1523629243281,-1310720,-119,-56,-1,-1,0
1523629243321,-851968,-119,-56,-1,-1,0
1523629243321,-524288,-119,-56,-1,-1,0
1523629243321,-327680,-119,-56,-1,-1,0
1523629243321,-327680,-119,-56,-1,-1,0
1523629243321,-65536,-119,-56,-1,-1,0
1523629243363,-196608,-119,-56,-1,-1,0
1523629243363,-655360,-119,-56,-1,-1,0
1523629243363,-983040,-119,-56,-1,-1,0
1523629243363,-1114112,-119,-56,-1,-1,0
1523629243363,-1245184,-119,-56,-1,-1,0
1523629243401,-1114112,-119,-56,-1,-1,0
1523629243401,-458752,-119,-56,-1,-1,0
1523629243401,-131072,-119,-56,-1,-1,0
1523629243401,-327680,-119,-56,-1,-1,0
1523629243401,-851968,-119,-56,-1,-1,0
1523629243441,-1114112,-119,-56,-1,-1,0
1523629243441,-851968,-119,-56,-1,-1,0
1523629243441,-589824,-119,-56,-1,-1,0
1523629243441,-917504,-119,-56,-1,-1,0
1523629243441,-1179648,-119,-56,-1,-1,0
1523629243481,-1114112,-119,-56,-1,-1,0
1523629243481,-983040,-119,-56,-1,-1,0
1523629243481,-983040,-119,-56,-1,-1,0
1523629243481,-786432,-119,-56,-1,-1,0
1523629243481,-917504,-119,-56,-1,-1,0
1523629243521,-1441792,-119,-56,-1,-1,0
1523629243521,-1638400,-119,-56,-1,-1,0
1523629243521,-1376256,-119,-56,-1,-1,0
1523629243521,-1048576,-119,-56,-1,-1,0
1523629243521,-1048576,-119,-56,-1,-1,0
1523629243561,-1048576,-119,-56,-1,-1,0
1523629243561,-1572864,-119,-56,-1,-1,0
1523629243561,-1703936,-119,-56,-1,-1,0
1523629243561,-1441792,-119,-56,-1,-1,0
1523629243561,-917504,-119,-56,-1,-1,0
1523629243601,-851968,-119,-56,-1,-1,0
1523629243601,-1507328,-119,-56,-1,-1,0
1523629243601,-1966080,-119,-56,-1,-1,0
1523629243601,-1769472,-119,-56,-1,-1,0
1523629243601,-1900544,-119,-56,-1,-1,0
1523629243641,-1966080,-119,-56,-1,-1,0
1523629243641,-1179648,-119,-56,-1,-1,0
1523629243641,-589824,-119,-56,-1,-1,0
1523629243641,-1572864,-119,-56,-1,-1,0
1523629243641,-2555904,-119,-56,-1,-1,0
1523629243681,-65536,-119,-56,-1,-1,0
1523629243681,6553600,-119,-56,-1,-1,0
1523629243681,14548992,-119,-56,-1,-1,0
1523629243681,17760256,-119,-56,-1,-1,0
1523629243681,12582912,-119,-56,-1,-1,0
1523629243721,3735552,-119,-56,-1,-1,0
1523629243721,-1835008,-119,-56,-1,-1,0
1523629243721,-2949120,-119,-56,-1,-1,0
1523629243721,-2555904,-119,-56,-1,-1,0
1523629243721,-2293760,-119,-56,-1,-1,0
1523629243761,-2424832,-119,-56,-1,-1,0
1523629243761,-2686976,-119,-56,-1,-1,0
1523629243761,-2490368,-119,-56,-1,-1,0
1523629243761,-2424832,-119,-56,-1,-1,0
1523629243761,-2686976,-119,-56,-1,-1,0
1523629243806,-2752512,-119,-56,-1,-1,0
1523629243806,-1966080,-119,-56,-1,-1,0
1523629243806,-1703936,-119,-56,-1,-1,0
1523629243806,-1966080,-119,-56,-1,-1,0
1523629243806,-2097152,-119,-56,-1,-1,0
1523629243841,-1966080,-119,-56,-1,-1,0
1523629243841,-2228224,-119,-56,-1,-1,0
1523629243841,-2752512,-119,-56,-1,-1,0
1523629243841,-3014656,-119,-56,-1,-1,0
1523629243841,-2555904,-119,-56,-1,-1,0
1523629243881,-1900544,-119,-56,-1,-1,0
1523629243881,-1966080,-119,-56,-1,-1,0
1523629243881,-1900544,-119,-56,-1,-1,0
1523629243881,-1441792,-119,-56,-1,-1,0
1523629243881,-1114112,-119,-56,-1,-1,0
1523629243921,-1769472,-119,-56,-1,-1,0
1523629243921,-2359296,-119,-56,-1,-1,0
1523629243921,-2228224,-119,-56,-1,-1,0
1523629243921,-1376256,-119,-56,-1,-1,0
1523629243921,-1245184,-119,-56,-1,-1,0
1523629243961,-1900544,-119,-56,-1,-1,0
1523629243961,-2424832,-119,-56,-1,-1,0
1523629243961,-2293760,-119,-56,-1,-1,0
1523629243961,-2031616,-119,-56,-1,-1,0
1523629243961,-1900544,-119,-56,-1,-1,0
1523629244002,-2424832,-119,-56,-1,-1,0
1523629244002,-2752512,-119,-56,-1,-1,0
1523629244002,-2883584,-119,-56,-1,-1,0
1523629244002,-3080192,-119,-56,-1,-1,0
1523629244002,-3080192,-119,-56,-1,-1,0
1523629244041,-2162688,-119,-56,-1,-1,0
1523629244041,-1114112,-119,-56,-1,-1,0
1523629244041,-589824,-119,-56,-1,-1,0
1523629244041,-589824,-119,-56,-1,-1,0
1523629244041,-1048576,-119,-56,-1,-1,0
1523629244081,-1769472,-119,-56,-1,-1,0
1523629244081,-1900544,-119,-56,-1,-1,0
1523629244081,-1441792,-119,-56,-1,-1,0
1523629244081,-1245184,-119,-56,-1,-1,0
1523629244081,-1835008,-119,-56,-1,-1,0
1523629244123,-2031616,-119,-56,-1,-1,0
1523629244123,65536,-119,-56,-1,-1,0
1523629244123,5963776,-119,-56,-1,-1,0
1523629244123,13959168,-119,-56,-1,-1,0
1523629244123,18219008,-119,-56,-1,-1,0
1523629244163,13565952,-119,-56,-1,-1,0
1523629244163,4718592,-119,-56,-1,-1,0
1523629244163,-393216,-119,-56,-1,-1,0
1523629244163,-1179648,-119,-56,-1,-1,0
1523629244163,-1572864,-119,-56,-1,-1,0
1523629244201,-2031616,-119,-56,-1,-1,0
1523629244201,-2162688,-119,-56,-1,-1,0
1523629244201,-1966080,-119,-56,-1,-1,0
1523629244201,-1376256,-119,-56,-1,-1,0
1523629244201,-1048576,-119,-56,-1,-1,0
1523629244241,-1376256,-119,-56,-1,-1,0
1523629244241,-1900544,-119,-56,-1,-1,0
1523629244241,-1835008,-119,-56,-1,-1,0
1523629244241,-1572864,-119,-56,-1,-1,0
1523629244241,-1572864,-119,-56,-1,-1,0
1523629244281,-1507328,-119,-56,-1,-1,0
1523629244281,-1114112,-119,-56,-1,-1,0
1523629244281,-720896,-119,-56,-1,-1,0
1523629244281,-393216,-119,-56,-1,-1,0
1523629244281,-131072,-119,-56,-1,-1,0
1523629244321,-196608,-119,-56,-1,-1,0
1523629244321,-196608,-119,-56,-1,-1,0
1523629244321,-65536,-119,-56,-1,-1,0
1523629244321,0,-119,-56,-1,-1,0
1523629244321,-262144,-119,-56,-1,-1,0
1523629244361,-196608,-119,-56,-1,-1,0
1523629244361,196608,-119,-56,-1,-1,0
1523629244361,458752,-119,-56,-1,-1,0
1523629244361,131072,-119,-56,-1,-1,0
1523629244361,-262144,-119,-56,-1,-1,0
1523629244401,-393216,-119,-56,-1,-1,0
1523629244401,-65536,-119,-56,-1,-1,0
1523629244401,393216,-119,-56,-1,-1,0
1523629244401,786432,-119,-56,-1,-1,0
1523629244401,917504,-119,-56,-1,-1,0
1523629244446,655360,-119,-56,-1,-1,0
1523629244446,327680,-119,-56,-1,-1,0
1523629244446,917504,-119,-56,-1,-1,0
1523629244446,1835008,-119,-56,-1,-1,0
1523629244446,2228224,-119,-56,-1,-1,0
1523629244481,1703936,-119,-56,-1,-1,0
1523629244481,1376256,-119,-56,-1,-1,0
1523629244481,1179648,-119,-56,-1,-1,0
1523629244481,917504,-119,-56,-1,-1,0
1523629244481,589824,-119,-56,-1,-1,0
1523629244521,655360,-119,-56,-1,-1,0
1523629244521,983040,-119,-56,-1,-1,0
1523629244521,1048576,-119,-56,-1,-1,0
1523629244521,917504,-119,-56,-1,-1,0
1523629244521,655360,-119,-56,-1,-1,0
1523629244561,131072,-119,-56,-1,-1,0
1523629244561,655360,-119,-56,-1,-1,0
1523629244561,3604480,-119,-56,-1,-1,0
1523629244561,8192000,-119,-56,-1,-1,0
1523629244561,11993088,-119,-56,-1,-1,0
1523629244601,11075584,-119,-56,-1,-1,0
1523629244601,5111808,-119,-56,-1,-1,0
1523629244601,65536,-119,-56,-1,-1,0
1523629244601,-1048576,-119,-56,-1,-1,0
1523629244601,-1048576,-119,-56,-1,-1,0
1523629244641,-1114112,-119,-56,-1,-1,0
1523629244641,-983040,-119,-56,-1,-1,0
1523629244641,-917504,-119,-56,-1,-1,0
1523629244641,-1179648,-119,-56,-1,-1,0
1523629244641,-1376256,-119,-56,-1,-1,0
1523629244681,-1638400,-119,-56,-1,-1,0
1523629244681,-1769472,-119,-56,-1,-1,0
1523629244681,-917504,-119,-56,-1,-1,0
1523629244681,393216,-119,-56,-1,-1,0
1523629244681,458752,-119,-56,-1,-1,0
1523629244721,-655360,-119,-56,-1,-1,0
1523629244721,-1179648,-119,-56,-1,-1,0
1523629244721,-131072,-119,-56,-1,-1,0
1523629244721,786432,-119,-56,-1,-1,0
1523629244721,720896,-119,-56,-1,-1,0
1523629244761,131072,-119,-56,-1,-1,0
1523629244761,-65536,-119,-56,-1,-1,0
1523629244761,327680,-119,-56,-1,-1,0
1523629244761,983040,-119,-56,-1,-1,0
1523629244761,1179648,-119,-56,-1,-1,0
1523629244801,655360,-119,-56,-1,-1,0
1523629244801,327680,-119,-56,-1,-1,0
1523629244801,65536,-119,-56,-1,-1,0
1523629244801,65536,-119,-56,-1,-1,0
1523629244801,131072,-119,-56,-1,-1,0
1523629244841,-65536,-119,-56,-1,-1,0
1523629244841,-983040,-119,-56,-1,-1,0
1523629244841,-524288,-119,-56,-1,-1,0
1523629244841,851968,-119,-56,-1,-1,0
1523629244841,1638400,-119,-56,-1,-1,0
1523629244881,1507328,-119,-56,-1,-1,0
1523629244881,1048576,-119,-56,-1,-1,0
1523629244881,196608,-119,-56,-1,-1,0
1523629244881,-327680,-119,-56,-1,-1,0
1523629244881,-196608,-119,-56,-1,-1,0
1523629244921,65536,-119,-56,-1,-1,0
1523629244921,0,-119,-56,-1,-1,0
1523629244921,-131072,-119,-56,-1,-1,0
1523629244921,-655360,-119,-56,-1,-1,0
1523629244921,-458752,-119,-56,-1,-1,0
1523629244961,65536,-119,-56,-1,-1,0
1523629244961,-131072,-119,-56,-1,-1,0
1523629244961,-1310720,-119,-56,-1,-1,0
1523629244961,-1572864,-119,-56,-1,-1,0
1523629244961,-1310720,-119,-56,-1,-1,0
1523629245001,-1507328,-119,-56,-1,-1,0
1523629245001,-983040,-119,-56,-1,-1,0
1523629245001,2293760,-119,-56,-1,-1,0
1523629245001,8257536,-119,-56,-1,-1,0
1523629245001,12713984,-119,-56,-1,-1,0
1523629245041,11010048,-119,-56,-1,-1,0
1523629245041,4521984,-119,-56,-1,-1,0
1523629245041,-131072,-119,-56,-1,-1,0
1523629245041,-851968,-119,-56,-1,-1,0
1523629245041,-917504,-119,-56,-1,-1,0
1523629245090,-1507328,-119,-56,-1,-1,0
1523629245090,-1900544,-119,-56,-1,-1,0
1523629245090,-1835008,-119,-56,-1,-1,0
1523629245090,-1703936,-119,-56,-1,-1,0
1523629245090,-1835008,-119,-56,-1,-1,0
1523629245121,-1966080,-119,-56,-1,-1,0
1523629245121,-1835008,-119,-56,-1,-1,0
1523629245121,-1638400,-119,-56,-1,-1,0
1523629245121,-1835008,-119,-56,-1,-1,0
1523629245121,-2162688,-119,-56,-1,-1,0
1523629245163,-1769472,-119,-56,-1,-1,0
1523629245163,-1310720,-119,-56,-1,-1,0
1523629245163,-1572864,-119,-56,-1,-1,0
1523629245163,-2031616,-119,-56,-1,-1,0
1523629245163,-2031616,-119,-56,-1,-1,0
1523629245201,-1310720,-119,-56,-1,-1,0
1523629245201,-1114112,-119,-56,-1,-1,0
1523629245201,-1179648,-119,-56,-1,-1,0
1523629245201,-1769472,-119,-56,-1,-1,0
1523629245201,-2359296,-119,-56,-1,-1,0
1523629245241,-2162688,-119,-56,-1,-1,0
1523629245241,-1507328,-119,-56,-1,-1,0
1523629245241,-1376256,-119,-56,-1,-1,0
1523629245241,-1769472,-119,-56,-1,-1,0
1523629245241,-2031616,-119,-56,-1,-1,0
1523629245281,-1900544,-119,-56,-1,-1,0
1523629245281,-1638400,-119,-56,-1,-1,0
1523629245281,-1638400,-119,-56,-1,-1,0
1523629245281,-1703936,-119,-56,-1,-1,0
1523629245281,-1638400,-119,-56,-1,-1,0
1523629245321,-1835008,-119,-56,-1,-1,0
1523629245321,-1703936,-119,-56,-1,-1,0
1523629245321,-1441792,-119,-56,-1,-1,0
1523629245321,-1572864,-119,-56,-1,-1,0
1523629245321,-2097152,-119,-56,-1,-1,0
1523629245361,-1507328,-119,-56,-1,-1,0
1523629245361,-1441792,-119,-56,-1,-1,0
1523629245361,-1507328,-119,-56,-1,-1,0
1523629245361,-1310720,-119,-56,-1,-1,0
1523629245361,-524288,-119,-56,-1,-1,0
1523629245401,-720896,-119,-56,-1,-1,0
1523629245401,-1835008,-119,-56,-1,-1,0
1523629245401,-2424832,-119,-56,-1,-1,0
1523629245401,-1572864,-119,-56,-1,-1,0
1523629245401,-917504,-119,-56,-1,-1,0
1523629245441,-1441792,-119,-56,-1,-1,0
1523629245441,-720896,-119,-56,-1,-1,0
1523629245441,3670016,-119,-56,-1,-1,0
1523629245441,11337728,-119,-56,-1,-1,0
1523629245441,16711680,-119,-56,-1,-1,0
1523629245481,14090240,-119,-56,-1,-1,0
1523629245481,6356992,-119,-56,-1,-1,0
1523629245481,983040,-119,-56,-1,-1,0
1523629245481,-786432,-119,-56,-1,-1,0
1523629245481,-1441792,-119,-56,-1,-1,0
1523629245521,-1638400,-119,-56,-1,-1,0
1523629245521,-1769472,-119,-56,-1,-1,0
1523629245521,-2097152,-119,-56,-1,-1,0
1523629245521,-1835008,-119,-56,-1,-1,0
1523629245521,-1507328,-119,-56,-1,-1,0
1523629245561,-1245184,-119,-56,-1,-1,0
1523629245561,-1114112,-119,-56,-1,-1,0
1523629245561,-1507328,-119,-56,-1,-1,0
1523629245561,-1703936,-119,-56,-1,-1,0
1523629245561,-1179648,-119,-56,-1,-1,0
1523629245601,-851968,-119,-56,-1,-1,0
1523629245601,-786432,-119,-56,-1,-1,0
1523629245601,0,-119,-56,-1,-1,0
1523629245601,0,-119,-56,-1,-1,0
1523629245601,-458752,-119,-56,-1,-1,0
1523629245641,-786432,-119,-56,-1,-1,0
1523629245641,-720896,-119,-56,-1,-1,0
1523629245641,-524288,-119,-56,-1,-1,0
1523629245641,-131072,-119,-56,-1,-1,0
1523629245641,65536,-119,-56,-1,-1,0
1523629245681,65536,-119,-56,-1,-1,0
1523629245681,196608,-119,-56,-1,-1,0
1523629245681,393216,-119,-56,-1,-1,0
1523629245681,131072,-119,-56,-1,-1,0
1523629245681,0,-119,-56,-1,-1,0
1523629245726,131072,-119,-56,-1,-1,0
1523629245726,-196608,-119,-56,-1,-1,0
1523629245726,-262144,-119,-56,-1,-1,0
1523629245726,196608,-119,-56,-1,-1,0
1523629245726,589824,-119,-56,-1,-1,0
1523629245761,262144,-119,-56,-1,-1,0
1523629245761,327680,-119,-56,-1,-1,0
1523629245761,589824,-119,-56,-1,-1,0
1523629245761,327680,-119,-56,-1,-1,0
1523629245761,0,-119,-56,-1,-1,0
1523629245801,0,-119,-56,-1,-1,0
1523629245801,589824,-119,-56,-1,-1,0
1523629245801,983040,-119,-56,-1,-1,0
1523629245801,720896,-119,-56,-1,-1,0
1523629245801,720896,-119,-56,-1,-1,0
1523629245841,786432,-119,-56,-1,-1,0
1523629245841,458752,-119,-56,-1,-1,0
1523629245841,327680,-119,-56,-1,-1,0
1523629245841,524288,-119,-56,-1,-1,0
1523629245841,262144,-119,-56,-1,-1,0
1523629245881,-327680,-119,-56,-1,-1,0
1523629245881,-524288,-119,-56,-1,-1,0
1523629245881,1310720,-119,-56,-1,-1,0
1523629245881,6225920,-119,-56,-1,-1,0
1523629245881,13762560,-119,-56,-1,-1,0
1523629245921,19529728,-119,-56,-1,-1,0
1523629245921,17432576,-119,-56,-1,-1,0
1523629245921,8519680,-119,-56,-1,-1,0
1523629245921,1310720,-119,-56,-1,-1,0
1523629245921,-131072,-119,-56,-1,-1,0
1523629245961,-131072,-119,-56,-1,-1,0
1523629245961,-327680,-119,-56,-1,-1,0
1523629245961,-524288,-119,-56,-1,-1,0
1523629245961,-458752,-119,-56,-1,-1,0
1523629245961,-196608,-119,-56,-1,-1,0
1523629246001,-131072,-119,-56,-1,-1,0
1523629246001,-65536,-119,-56,-1,-1,0
1523629246001,-131072,-119,-56,-1,-1,0
1523629246001,-131072,-119,-56,-1,-1,0
1523629246001,65536,-119,-56,-1,-1,0
1523629246041,458752,-119,-56,-1,-1,0
1523629246041,655360,-119,-56,-1,-1,0
1523629246041,655360,-119,-56,-1,-1,0
1523629246041,786432,-119,-56,-1,-1,0
1523629246041,917504,-119,-56,-1,-1,0
1523629246081,917504,-119,-56,-1,-1,0
1523629246081,851968,-119,-56,-1,-1,0
1523629246081,786432,-119,-56,-1,-1,0
1523629246081,720896,-119,-56,-1,-1,0
1523629246081,851968,-119,-56,-1,-1,0
1523629246121,983040,-119,-56,-1,-1,0
1523629246121,327680,-119,-56,-1,-1,0
1523629246121,-655360,-119,-56,-1,-1,0
1523629246121,-1114112,-119,-56,-1,-1,0
1523629246121,-917504,-119,-56,-1,-1,0
1523629246163,-524288,-119,-56,-1,-1,0
1523629246163,-131072,-119,-56,-1,-1,0
1523629246163,131072,-119,-56,-1,-1,0
1523629246163,589824,-119,-56,-1,-1,0
1523629246163,524288,-119,-56,-1,-1,0
1523629246201,262144,-119,-56,-1,-1,0
1523629246201,131072,-119,-56,-1,-1,0
1523629246201,-196608,-119,-56,-1,-1,0
1523629246201,-589824,-119,-56,-1,-1,0
1523629246201,-196608,-119,-56,-1,-1,0
1523629246243,589824,-119,-56,-1,-1,0
1523629246243,720896,-119,-56,-1,-1,0
1523629246243,262144,-119,-56,-1,-1,0
1523629246243,-196608,-119,-56,-1,-1,0
1523629246243,-524288,-119,-56,-1,-1,0
1523629246281,-524288,-119,-56,-1,-1,0
1523629246281,-393216,-119,-56,-1,-1,0
1523629246281,-524288,-119,-56,-1,-1,0
1523629246281,-327680,-119,-56,-1,-1,0
1523629246281,196608,-119,-56,-1,-1,0
1523629246321,131072,-119,-56,-1,-1,0
1523629246321,-524288,-119,-56,-1,-1,0
1523629246321,65536,-119,-56,-1,-1,0
1523629246321,3211264,-119,-56,-1,-1,0
1523629246321,8388608,-119,-56,-1,-1,0
1523629246366,13041664,-119,-56,-1,-1,0
1523629246366,12451840,-119,-56,-1,-1,0
1523629246366,6684672,-119,-56,-1,-1,0
1523629246366,1507328,-119,-56,-1,-1,0
1523629246366,0,-119,-56,-1,-1,0
1523629246401,-262144,-119,-56,-1,-1,0
1523629246401,-262144,-119,-56,-1,-1,0
1523629246401,-196608,-119,-56,-1,-1,0
1523629246401,-327680,-119,-56,-1,-1,0
1523629246401,-327680,-119,-56,-1,-1,0
1523629246441,-327680,-119,-56,-1,-1,0
1523629246441,-655360,-119,-56,-1,-1,0
1523629246441,-983040,-119,-56,-1,-1,0
1523629246441,-1048576,-119,-56,-1,-1,0
1523629246441,-720896,-119,-56,-1,-1,0
1523629246481,-458752,-119,-56,-1,-1,0
1523629246481,-655360,-119,-56,-1,-1,0
1523629246481,-786432,-119,-56,-1,-1,0
1523629246481,-524288,-119,-56,-1,-1,0
1523629246481,-524288,-119,-56,-1,-1,0
1523629246521,-655360,-120,-56,-1,-1,0
1523629246521,-393216,-120,-56,-1,-1,0
1523629246521,-393216,-120,-56,-1,-1,0
1523629246521,-524288,-120,-56,-1,-1,0
1523629246521,-786432,-120,-56,-1,-1,0
1523629246561,-1114112,-120,-56,-1,-1,0
1523629246561,-1441792,-120,-56,-1,-1,0
1523629246561,-1310720,-120,-56,-1,-1,0
1523629246561,-1114112,-120,-56,-1,-1,0
1523629246561,-2097152,-120,-56,-1,-1,0
1523629246601,-3276800,-120,-56,-1,-1,0
1523629246601,-2752512,-120,-56,-1,-1,0
1523629246601,-1376256,-120,-56,-1,-1,0
1523629246601,-917504,-120,-56,-1,-1,0
1523629246601,-1441792,-120,-56,-1,-1,0
1523629246641,-1703936,-120,-56,-1,-1,0
1523629246641,-1703936,-120,-56,-1,-1,0
1523629246641,-1769472,-120,-56,-1,-1,0
1523629246641,-1638400,-120,-56,-1,-1,0
1523629246641,-1245184,-120,-56,-1,-1,0
1523629246681,-1441792,-120,-56,-1,-1,0
1523629246681,-2359296,-120,-56,-1,-1,0
1523629246681,-2752512,-120,-56,-1,-1,0
1523629246681,-2949120,-120,-56,-1,-1,0
1523629246681,-2555904,-120,-56,-1,-1,0
1523629246721,-2162688,-120,-56,-1,-1,0
1523629246721,-1835008,-120,-56,-1,-1,0
1523629246721,-1900544,-120,-56,-1,-1,0
1523629246721,-2031616,-120,-56,-1,-1,0
1523629246721,-2621440,-120,-56,-1,-1,0
1523629246761,-2424832,-120,-56,-1,-1,0
1523629246761,-2031616,-120,-56,-1,-1,0
1523629246761,-2752512,-120,-56,-1,-1,0
1523629246761,-2621440,-120,-56,-1,-1,0
1523629246761,1441792,-120,-56,-1,-1,0
1523629246801,8323072,-120,-56,-1,-1,0
1523629246801,12779520,-120,-56,-1,-1,0
1523629246801,10027008,-120,-56,-1,-1,0
1523629246801,2883584,-120,-56,-1,-1,0
1523629246801,-2162688,-120,-56,-1,-1,0
1523629246841,-3080192,-120,-56,-1,-1,0
1523629246841,-3080192,-120,-56,-1,-1,0
1523629246841,-3735552,-120,-56,-1,-1,0
1523629246841,-4259840,-120,-56,-1,-1,0
1523629246841,-4063232,-120,-56,-1,-1,0
1523629246881,-3211264,-120,-56,-1,-1,0
1523629246881,-3014656,-120,-56,-1,-1,0
1523629246881,-3276800,-120,-56,-1,-1,0
1523629246881,-3670016,-120,-56,-1,-1,0
1523629246881,-3801088,-120,-56,-1,-1,0
1523629246921,-3932160,-120,-56,-1,-1,0
1523629246921,-3276800,-120,-56,-1,-1,0
1523629246921,-2293760,-120,-56,-1,-1,0
1523629246921,-2359296,-120,-56,-1,-1,0
1523629246921,-3211264,-120,-56,-1,-1,0
1523629246961,-3735552,-120,-56,-1,-1,0
1523629246961,-3145728,-120,-56,-1,-1,0
1523629246961,-2490368,-120,-56,-1,-1,0
1523629246961,-2752512,-120,-56,-1,-1,0
1523629246961,-3604480,-120,-56,-1,-1,0
1523629247006,-3342336,-120,-56,-1,-1,0
1523629247006,-2949120,-120,-56,-1,-1,0
1523629247006,-2818048,-120,-56,-1,-1,0
1523629247006,-3211264,-120,-56,-1,-1,0
1523629247006,-3342336,-120,-56,-1,-1,0
1523629247041,-2949120,-120,-56,-1,-1,0
1523629247041,-2555904,-120,-56,-1,-1,0
1523629247041,-2490368,-120,-56,-1,-1,0
1523629247041,-3014656,-120,-56,-1,-1,0
1523629247041,-3145728,-120,-56,-1,-1,0
1523629247081,-2621440,-120,-56,-1,-1,0
1523629247081,-2097152,-120,-56,-1,-1,0
1523629247081,-2424832,-120,-56,-1,-1,0
1523629247081,-3080192,-120,-56,-1,-1,0
1523629247081,-3080192,-120,-56,-1,-1,0
1523629247121,-2752512,-120,-56,-1,-1,0
1523629247121,-2490368,-120,-56,-1,-1,0
1523629247121,-2228224,-120,-56,-1,-1,0
1523629247121,-1179648,-120,-56,-1,-1,0
1523629247121,-851968,-120,-56,-1,-1,0
1523629247161,-1966080,-120,-56,-1,-1,0
1523629247161,-2490368,-120,-56,-1,-1,0
1523629247161,-1835008,-120,-56,-1,-1,0
1523629247161,-1703936,-120,-56,-1,-1,0
1523629247161,-2359296,-120,-56,-1,-1,0
1523629247201,-1900544,-120,-56,-1,-1,0
1523629247201,-1572864,-120,-56,-1,-1,0
1523629247201,-2686976,-120,-56,-1,-1,0
1523629247201,-2818048,-120,-56,-1,-1,0
1523629247201,786432,-120,-56,-1,-1,0
1523629247241,7077888,-120,-56,-1,-1,0
1523629247241,13434880,-120,-56,-1,-1,0
1523629247241,16187392,-120,-56,-1,-1,0
1523629247241,11206656,-120,-56,-1,-1,0
1523629247241,3080192,-120,-56,-1,-1,0
1523629247281,-1376256,-120,-56,-1,-1,0
1523629247281,-2293760,-120,-56,-1,-1,0
1523629247281,-2686976,-120,-56,-1,-1,0
1523629247281,-2883584,-120,-56,-1,-1,0
1523629247281,-2621440,-120,-56,-1,-1,0
1523629247321,-2818048,-120,-56,-1,-1,0
1523629247321,-2490368,-120,-56,-1,-1,0
1523629247321,-2031616,-120,-56,-1,-1,0
1523629247321,-983040,-120,-56,-1,-1,0
1523629247321,-917504,-120,-56,-1,-1,0
1523629247362,-1048576,-120,-56,-1,-1,0
1523629247362,-1376256,-120,-56,-1,-1,0
1523629247362,-1900544,-120,-56,-1,-1,0
1523629247362,-1703936,-120,-56,-1,-1,0
1523629247362,-851968,-120,-56,-1,-1,0
1523629247401,-327680,-120,-56,-1,-1,0
1523629247401,-327680,-120,-56,-1,-1,0
1523629247401,-589824,-120,-56,-1,-1,0
1523629247401,-655360,-120,-56,-1,-1,0
1523629247401,-458752,-120,-56,-1,-1,0
1523629247442,-65536,-120,-56,-1,-1,0
1523629247442,-131072,-120,-56,-1,-1,0
1523629247442,-196608,-120,-56,-1,-1,0
1523629247442,-327680,-120,-56,-1,-1,0
1523629247442,-458752,-120,-56,-1,-1,0
1523629247481,-458752,-120,-56,-1,-1,0
1523629247481,65536,-120,-56,-1,-1,0
1523629247481,851968,-120,-56,-1,-1,0
1523629247481,786432,-120,-56,-1,-1,0
1523629247481,327680,-120,-56,-1,-1,0
1523629247521,65536,-120,-56,-1,-1,0
1523629247521,196608,-120,-56,-1,-1,0
1523629247521,196608,-120,-56,-1,-1,0
1523629247521,131072,-120,-56,-1,-1,0
1523629247521,131072,-120,-56,-1,-1,0
1523629247561,327680,-120,-56,-1,-1,0
1523629247561,589824,-120,-56,-1,-1,0
1523629247561,983040,-120,-56,-1,-1,0
1523629247561,786432,-120,-56,-1,-1,0
1523629247561,327680,-120,-56,-1,-1,0
1523629247601,0,-120,-56,-1,-1,0
1523629247601,262144,-120,-56,-1,-1,0
1523629247601,589824,-120,-56,-1,-1,0
1523629247601,0,-120,-56,-1,-1,0
1523629247601,-524288,-120,-56,-1,-1,0
1523629247646,0,-120,-56,-1,-1,0
1523629247646,458752,-120,-56,-1,-1,0
1523629247646,0,-120,-56,-1,-1,0
1523629247646,-589824,-120,-56,-1,-1,0
1523629247646,458752,-120,-56,-1,-1,0
1523629247681,4390912,-120,-56,-1,-1,0
1523629247681,10747904,-120,-56,-1,-1,0
1523629247681,16384000,-120,-56,-1,-1,0
1523629247681,15073280,-120,-56,-1,-1,0
1523629247681,7864320,-120,-56,-1,-1,0
1523629247721,1638400,-120,-56,-1,-1,0
1523629247721,0,-120,-56,-1,-1,0
1523629247721,-196608,-120,-56,-1,-1,0
1523629247721,-524288,-120,-56,-1,-1,0
1523629247721,-851968,-120,-56,-1,-1,0
1523629247761,-786432,-120,-56,-1,-1,0
1523629247761,-393216,-120,-56,-1,-1,0
1523629247761,-458752,-120,-56,-1,-1,0
1523629247761,-393216,-120,-56,-1,-1,0
1523629247761,-196608,-120,-56,-1,-1,0
1523629247801,-65536,-120,-56,-1,-1,0
1523629247801,0,-120,-56,-1,-1,0
1523629247801,65536,-120,-56,-1,-1,0
1523629247801,393216,-120,-56,-1,-1,0
1523629247801,720896,-120,-56,-1,-1,0
1523629247841,1114112,-120,-56,-1,-1,0
1523629247841,1310720,-120,-56,-1,-1,0
1523629247841,1507328,-120,-56,-1,-1,0
1523629247841,1507328,-120,-56,-1,-1,0
1523629247841,1507328,-120,-56,-1,-1,0
1523629247881,1507328,-120,-56,-1,-1,0
1523629247881,1507328,-120,-56,-1,-1,0
1523629247881,1245184,-120,-56,-1,-1,0
1523629247881,851968,-120,-56,-1,-1,0
1523629247881,786432,-120,-56,-1,-1,0
1523629247921,1114112,-120,-56,-1,-1,0
1523629247921,1376256,-120,-56,-1,-1,0
1523629247921,1310720,-120,-56,-1,-1,0
1523629247921,917504,-120,-56,-1,-1,0
1523629247921,589824,-120,-56,-1,-1,0
1523629247961,327680,-120,-56,-1,-1,0
1523629247961,196608,-120,-56,-1,-1,0
1523629247961,327680,-120,-56,-1,-1,0
1523629247961,327680,-120,-56,-1,-1,0
1523629247961,131072,-120,-56,-1,-1,0
1523629248001,0,-120,-56,-1,-1,0
1523629248001,131072,-120,-56,-1,-1,0
1523629248001,458752,-120,-56,-1,-1,0
1523629248001,917504,-120,-56,-1,-1,0
1523629248001,1048576,-120,-56,-1,-1,0
1523629248041,851968,-120,-56,-1,-1,0
1523629248041,327680,-120,-56,-1,-1,0
1523629248041,131072,-120,-56,-1,-1,0
1523629248041,458752,-120,-56,-1,-1,0
1523629248041,786432,-120,-56,-1,-1,0
1523629248081,589824,-120,-56,-1,-1,0
1523629248081,327680,-120,-56,-1,-1,0
1523629248081,131072,-120,-56,-1,-1,0
1523629248081,-524288,-120,-56,-1,-1,0
1523629248081,-655360,-120,-56,-1,-1,0
1523629248121,1703936,-120,-56,-1,-1,0
1523629248121,7733248,-120,-56,-1,-1,0
1523629248121,15400960,-120,-56,-1,-1,0
1523629248121,18415616,-120,-56,-1,-1,0
1523629248121,12779520,-120,-56,-1,-1,0
1523629248161,4390912,-120,-56,-1,-1,0
1523629248161,262144,-120,-56,-1,-1,0
1523629248161,0,-120,-56,-1,-1,0
1523629248161,-131072,-120,-56,-1,-1,0
1523629248161,-458752,-120,-56,-1,-1,0
1523629248201,-524288,-120,-56,-1,-1,0
1523629248201,-524288,-120,-56,-1,-1,0
1523629248201,-458752,-120,-56,-1,-1,0
1523629248201,-720896,-120,-56,-1,-1,0
1523629248201,-851968,-120,-56,-1,-1,0
1523629248241,-720896,-120,-56,-1,-1,0
1523629248241,-655360,-120,-56,-1,-1,0
1523629248241,-589824,-120,-56,-1,-1,0
1523629248241,-262144,-120,-56,-1,-1,0
1523629248241,-131072,-120,-56,-1,-1,0
1523629248286,-262144,-120,-56,-1,-1,0
1523629248286,-458752,-120,-56,-1,-1,0
1523629248286,-589824,-120,-56,-1,-1,0
1523629248286,-786432,-120,-56,-1,-1,0
1523629248286,-1245184,-120,-56,-1,-1,0
1523629248321,-1835008,-120,-56,-1,-1,0
1523629248321,-2424832,-120,-56,-1,-1,0
1523629248321,-2949120,-120,-56,-1,-1,0
1523629248321,-3276800,-120,-56,-1,-1,0
1523629248321,-3145728,-120,-56,-1,-1,0
1523629248361,-2949120,-120,-56,-1,-1,0
1523629248361,-3014656,-120,-56,-1,-1,0
1523629248361,-3407872,-120,-56,-1,-1,0
1523629248361,-3276800,-120,-56,-1,-1,0
1523629248361,-2818048,-120,-56,-1,-1,0
1523629248401,-2818048,-120,-56,-1,-1,0
1523629248401,-3211264,-120,-56,-1,-1,0
1523629248401,-3473408,-120,-56,-1,-1,0
1523629248401,-3538944,-120,-56,-1,-1,0
1523629248401,-3342336,-120,-56,-1,-1,0
1523629248441,-3145728,-120,-56,-1,-1,0
1523629248441,-3276800,-120,-56,-1,-1,0
1523629248441,-3276800,-120,-56,-1,-1,0
1523629248441,-2949120,-120,-56,-1,-1,0
1523629248441,-3014656,-120,-56,-1,-1,0
1523629248481,-3211264,-120,-56,-1,-1,0
1523629248481,-3211264,-120,-56,-1,-1,0
1523629248481,-3145728,-120,-56,-1,-1,0
1523629248481,-3735552,-120,-56,-1,-1,0
1523629248481,-4128768,-120,-56,-1,-1,0
1523629248521,-3997696,-120,-56,-1,-1,0
1523629248521,-3538944,-120,-56,-1,-1,0
1523629248521,-3080192,-120,-56,-1,-1,0
1523629248521,-3145728,-120,-56,-1,-1,0
1523629248521,-3735552,-120,-56,-1,-1,0
1523629248561,-3145728,-120,-56,-1,-1,0
1523629248561,786432,-120,-56,-1,-1,0
1523629248561,7143424,-120,-56,-1,-1,0
1523629248561,11337728,-120,-56,-1,-1,0
1523629248561,8519680,-120,-56,-1,-1,0
1523629248601,720896,-120,-56,-1,-1,0
1523629248601,-3735552,-120,-56,-1,-1,0
1523629248601,-3670016,-120,-56,-1,-1,0
1523629248601,-3342336,-120,-56,-1,-1,0
1523629248601,-2621440,-120,-56,-1,-1,0
1523629248641,-2555904,-120,-56,-1,-1,0
1523629248641,-3276800,-120,-56,-1,-1,0
1523629248641,-4521984,-120,-56,-1,-1,0
1523629248641,-4456448,-120,-56,-1,-1,0
1523629248641,-4128768,-120,-56,-1,-1,0
1523629248681,-3670016,-120,-56,-1,-1,0
1523629248681,-3538944,-120,-56,-1,-1,0
1523629248681,-3604480,-120,-56,-1,-1,0
1523629248681,-3538944,-120,-56,-1,-1,0
1523629248681,-2883584,-120,-56,-1,-1,0
1523629248721,-2555904,-120,-56,-1,-1,0
1523629248721,-2752512,-120,-56,-1,-1,0
1523629248721,-2621440,-120,-56,-1,-1,0
1523629248721,-2293760,-120,-56,-1,-1,0
1523629248721,-2490368,-120,-56,-1,-1,0
1523629248761,-2883584,-120,-56,-1,-1,0
1523629248761,-2949120,-120,-56,-1,-1,0
1523629248761,-2359296,-120,-56,-1,-1,0
1523629248761,-1900544,-120,-56,-1,-1,0
1523629248761,-1507328,-120,-56,-1,-1,0
1523629248801,-1703936,-120,-56,-1,-1,0
1523629248801,-2031616,-120,-56,-1,-1,0
1523629248801,-1572864,-120,-56,-1,-1,0
1523629248801,-1048576,-120,-56,-1,-1,0
1523629248801,-1245184,-120,-56,-1,-1,0
1523629248841,-1638400,-120,-56,-1,-1,0
1523629248841,-1245184,-120,-56,-1,-1,0
1523629248841,-720896,-120,-56,-1,-1,0
1523629248841,-720896,-120,-56,-1,-1,0
1523629248841,-1376256,-120,-56,-1,-1,0
1523629248881,-1572864,-120,-56,-1,-1,0
1523629248881,-983040,-120,-56,-1,-1,0
1523629248881,-524288,-120,-56,-1,-1,0
1523629248881,-589824,-120,-56,-1,-1,0
1523629248881,-458752,-120,-56,-1,-1,0
1523629248926,0,-120,-56,-1,-1,0
1523629248926,393216,-120,-56,-1,-1,0
1523629248926,0,-120,-56,-1,-1,0
1523629248926,-458752,-120,-56,-1,-1,0
1523629248926,-1114112,-120,-56,-1,-1,0
1523629248961,-1376256,-120,-56,-1,-1,0
1523629248961,-1507328,-120,-56,-1,-1,0
1523629248961,-1048576,-120,-56,-1,-1,0
1523629248961,-851968,-120,-56,-1,-1,0
1523629248961,-655360,-120,-56,-1,-1,0
1523629249002,-393216,-120,-56,-1,-1,0
1523629249002,655360,-120,-56,-1,-1,0
1523629249002,4390912,-120,-56,-1,-1,0
1523629249002,10878976,-120,-56,-1,-1,0
1523629249002,15925248,-120,-56,-1,-1,0
1523629249041,13303808,-120,-56,-1,-1,0
1523629249041,5832704,-120,-56,-1,-1,0
1523629249041,589824,-120,-56,-1,-1,0
1523629249041,-655360,-120,-56,-1,-1,0
1523629249041,-983040,-120,-56,-1,-1,0
1523629249081,-786432,-120,-56,-1,-1,0
1523629249081,-655360,-120,-56,-1,-1,0
1523629249081,-1376256,-120,-56,-1,-1,0
1523629249081,-1310720,-120,-56,-1,-1,0
1523629249081,-196608,-120,-56,-1,-1,0
1523629249121,-196608,-120,-56,-1,-1,0
1523629249121,-786432,-120,-56,-1,-1,0
1523629249121,-458752,-120,-56,-1,-1,0
1523629249121,-65536,-120,-56,-1,-1,0
1523629249121,-65536,-120,-56,-1,-1,0
1523629249161,-393216,-120,-56,-1,-1,0
1523629249161,-327680,-120,-56,-1,-1,0
1523629249161,393216,-120,-56,-1,-1,0
1523629249161,1310720,-120,-56,-1,-1,0
1523629249161,1507328,-120,-56,-1,-1,0
1523629249201,1179648,-120,-56,-1,-1,0
1523629249201,786432,-120,-56,-1,-1,0
1523629249201,0,-120,-56,-1,-1,0
1523629249201,-65536,-120,-56,-1,-1,0
1523629249201,196608,-120,-56,-1,-1,0
1523629249241,-196608,-120,-56,-1,-1,0
1523629249241,-196608,-120,-56,-1,-1,0
1523629249241,917504,-120,-56,-1,-1,0
1523629249241,1310720,-120,-56,-1,-1,0
1523629249241,720896,-120,-56,-1,-1,0
1523629249281,786432,-120,-56,-1,-1,0
1523629249281,851968,-120,-56,-1,-1,0
1523629249281,0,-120,-56,-1,-1,0
1523629249281,0,-120,-56,-1,-1,0
1523629249281,917504,-120,-56,-1,-1,0
1523629249321,1245184,-120,-56,-1,-1,0
1523629249321,393216,-120,-56,-1,-1,0
1523629249321,262144,-120,-56,-1,-1,0
1523629249321,1376256,-120,-56,-1,-1,0
1523629249321,1638400,-120,-56,-1,-1,0
1523629249361,720896,-120,-56,-1,-1,0
1523629249361,458752,-120,-56,-1,-1,0
1523629249361,524288,-120,-56,-1,-1,0
1523629249361,65536,-120,-56,-1,-1,0
1523629249361,-131072,-120,-56,-1,-1,0
1523629249401,458752,-120,-56,-1,-1,0
1523629249401,786432,-120,-56,-1,-1,0
1523629249401,393216,-120,-56,-1,-1,0
1523629249401,-131072,-120,-56,-1,-1,0
1523629249401,-196608,-120,-56,-1,-1,0
1523629249442,-655360,-120,-56,-1,-1,0
1523629249442,-196608,-120,-56,-1,-1,0
1523629249442,3211264,-120,-56,-1,-1,0
1523629249442,9437184,-120,-56,-1,-1,0
1523629249442,16121856,-120,-56,-1,-1,0
1523629249481,17039360,-120,-56,-1,-1,0
1523629249481,10289152,-120,-56,-1,-1,0
1523629249481,2686976,-120,-56,-1,-1,0
1523629249481,-65536,-120,-56,-1,-1,0
1523629249481,0,-120,-56,-1,-1,0
1523629249521,262144,-120,-56,-1,-1,0
1523629249521,-327680,-120,-56,-1,-1,0
1523629249521,-1507328,-120,-56,-1,-1,0
1523629249521,-1441792,-120,-56,-1,-1,0
1523629249521,-589824,-120,-56,-1,-1,0
1523629249566,-983040,-120,-56,-1,-1,0
1523629249566,-1114112,-120,-56,-1,-1,0
1523629249566,-851968,-120,-56,-1,-1,0
1523629249566,-262144,-120,-56,-1,-1,0
1523629249566,-262144,-120,-56,-1,-1,0
1523629249601,-196608,-120,-56,-1,-1,0
1523629249601,-458752,-120,-56,-1,-1,0
1523629249601,-589824,-120,-56,-1,-1,0
1523629249601,-524288,-120,-56,-1,-1,0
1523629249601,-458752,-120,-56,-1,-1,0
1523629249641,-131072,-120,-56,-1,-1,0
1523629249641,0,-120,-56,-1,-1,0
1523629249641,-196608,-120,-56,-1,-1,0
1523629249641,-524288,-120,-56,-1,-1,0
1523629249641,-458752,-120,-56,-1,-1,0
1523629249681,-262144,-120,-56,-1,-1,0
1523629249681,-196608,-120,-56,-1,-1,0
1523629249681,-196608,-120,-56,-1,-1,0
1523629249681,-196608,-120,-56,-1,-1,0
1523629249681,-327680,-120,-56,-1,-1,0
1523629249721,-393216,-120,-56,-1,-1,0
1523629249721,-393216,-120,-56,-1,-1,0
1523629249721,-327680,-120,-56,-1,-1,0
1523629249721,-393216,-120,-56,-1,-1,0
1523629249721,-393216,-120,-56,-1,-1,0
1523629249761,-655360,-120,-56,-1,-1,0
1523629249761,-851968,-120,-56,-1,-1,0
1523629249761,-1048576,-120,-56,-1,-1,0
1523629249761,-1048576,-120,-56,-1,-1,0
1523629249761,-1114112,-120,-56,-1,-1,0
1523629249801,-1048576,-120,-56,-1,-1,0
1523629249801,-851968,-120,-56,-1,-1,0
1523629249801,-720896,-120,-56,-1,-1,0
1523629249801,-655360,-120,-56,-1,-1,0
1523629249801,-589824,-120,-56,-1,-1,0
1523629249841,-851968,-120,-56,-1,-1,0
1523629249841,-1441792,-120,-56,-1,-1,0
1523629249841,-1900544,-120,-56,-1,-1,0
1523629249841,-2162688,-120,-56,-1,-1,0
1523629249841,-2555904,-120,-56,-1,-1,0
1523629249881,-2621440,-120,-56,-1,-1,0
1523629249881,-2293760,-120,-56,-1,-1,0
1523629249881,-1507328,-120,-56,-1,-1,0
1523629249881,1114112,-120,-56,-1,-1,0
1523629249881,7208960,-120,-56,-1,-1,0
1523629249921,14745600,-120,-56,-1,-1,0
1523629249921,16842752,-120,-56,-1,-1,0
1523629249921,10420224,-120,-56,-1,-1,0
1523629249921,2031616,-120,-56,-1,-1,0
1523629249921,-1703936,-120,-56,-1,-1,0
1523629249961,-2359296,-120,-56,-1,-1,0
1523629249961,-2490368,-120,-56,-1,-1,0
1523629249961,-2621440,-120,-56,-1,-1,0
1523629249961,-2752512,-120,-56,-1,-1,0
1523629249961,-2818048,-120,-56,-1,-1,0
1523629250001,-2752512,-120,-56,-1,-1,0
1523629250001,-2555904,-120,-56,-1,-1,0
1523629250001,-2228224,-120,-56,-1,-1,0
1523629250001,-2293760,-120,-56,-1,-1,0
1523629250001,-2424832,-120,-56,-1,-1,0
1523629250041,-2359296,-120,-56,-1,-1,0
1523629250041,-2097152,-120,-56,-1,-1,0
1523629250041,-1900544,-120,-56,-1,-1,0
1523629250041,-1835008,-120,-56,-1,-1,0
1523629250041,-2031616,-120,-56,-1,-1,0
1523629250081,-2031616,-120,-56,-1,-1,0
1523629250081,-1769472,-120,-56,-1,-1,0
1523629250081,-1638400,-120,-56,-1,-1,0
1523629250081,-2097152,-120,-56,-1,-1,0
1523629250081,-2359296,-120,-56,-1,-1,0
1523629250121,-1835008,-120,-56,-1,-1,0
1523629250121,-1441792,-120,-56,-1,-1,0
1523629250121,-1572864,-120,-56,-1,-1,0
1523629250121,-1900544,-120,-56,-1,-1,0
1523629250121,-2097152,-120,-56,-1,-1,0
1523629250161,-2293760,-120,-56,-1,-1,0
1523629250161,-1966080,-120,-56,-1,-1,0
1523629250161,-1638400,-120,-56,-1,-1,0
1523629250161,-1900544,-120,-56,-1,-1,0
1523629250161,-2424832,-120,-56,-1,-1,0
1523629250206,-2752512,-120,-56,-1,-1,0
1523629250206,-2359296,-120,-56,-1,-1,0
1523629250206,-1638400,-120,-56,-1,-1,0
1523629250206,-1376256,-120,-56,-1,-1,0
1523629250206,-1572864,-120,-56,-1,-1,0
1523629250241,-1966080,-120,-56,-1,-1,0
1523629250241,-2097152,-120,-56,-1,-1,0
1523629250241,-1769472,-120,-56,-1,-1,0
1523629250241,-1310720,-120,-56,-1,-1,0
1523629250241,-1245184,-120,-56,-1,-1,0
1523629250281,-1572864,-120,-56,-1,-1,0
1523629250281,-2031616,-120,-56,-1,-1,0
1523629250281,-2424832,-120,-56,-1,-1,0
1523629250281,-2097152,-120,-56,-1,-1,0
1523629250281,-1441792,-120,-56,-1,-1,0
1523629250321,-983040,-120,-56,-1,-1,0
1523629250321,-1376256,-120,-56,-1,-1,0
1523629250321,-2097152,-120,-56,-1,-1,0
1523629250321,-1179648,-120,-56,-1,-1,0
1523629250321,2162688,-120,-56,-1,-1,0
1523629250361,7864320,-120,-56,-1,-1,0
1523629250361,13500416,-120,-56,-1,-1,0
1523629250361,12845056,-120,-56,-1,-1,0
1523629250361,5832704,-120,-56,-1,-1,0
1523629250361,-196608,-120,-56,-1,-1,0
1523629250401,-1507328,-120,-56,-1,-1,0
1523629250401,-1572864,-120,-56,-1,-1,0
1523629250401,-2097152,-120,-56,-1,-1,0
1523629250401,-2752512,-120,-56,-1,-1,0
1523629250401,-2949120,-120,-56,-1,-1,0
1523629250441,-2490368,-120,-56,-1,-1,0
1523629250441,-1966080,-120,-56,-1,-1,0
1523629250441,-1835008,-120,-56,-1,-1,0
1523629250441,-1376256,-120,-56,-1,-1,0
1523629250441,-655360,-120,-56,-1,-1,0
1523629250481,-458752,-120,-56,-1,-1,0
1523629250481,-589824,-120,-56,-1,-1,0
1523629250481,-983040,-120,-56,-1,-1,0
1523629250481,-1114112,-120,-56,-1,-1,0
1523629250481,-327680,-120,-56,-1,-1,0
1523629250521,720896,-120,-56,-1,-1,0
1523629250521,1048576,-120,-56,-1,-1,0
1523629250521,720896,-120,-56,-1,-1,0
1523629250521,131072,-120,-56,-1,-1,0
1523629250521,0,-120,-56,-1,-1,0
1523629250561,0,-120,-56,-1,-1,0
1523629250561,131072,-120,-56,-1,-1,0
1523629250561,262144,-120,-56,-1,-1,0
1523629250561,327680,-120,-56,-1,-1,0
1523629250561,524288,-120,-56,-1,-1,0
1523629250601,589824,-120,-56,-1,-1,0
1523629250601,327680,-120,-56,-1,-1,0
1523629250601,131072,-120,-56,-1,-1,0
1523629250601,327680,-120,-56,-1,-1,0
1523629250601,524288,-120,-56,-1,-1,0
1523629250641,458752,-120,-56,-1,-1,0
1523629250641,393216,-120,-56,-1,-1,0
1523629250641,262144,-120,-56,-1,-1,0
1523629250641,196608,-120,-56,-1,-1,0
1523629250641,458752,-120,-56,-1,-1,0
1523629250682,720896,-120,-56,-1,-1,0
1523629250682,655360,-120,-56,-1,-1,0
1523629250682,655360,-120,-56,-1,-1,0
1523629250682,589824,-120,-56,-1,-1,0
1523629250682,524288,-120,-56,-1,-1,0
1523629250721,393216,-120,-56,-1,-1,0
1523629250721,458752,-120,-56,-1,-1,0
1523629250721,1114112,-120,-56,-1,-1,0
1523629250721,1507328,-120,-56,-1,-1,0
1523629250721,1048576,-120,-56,-1,-1,0
1523629250761,196608,-120,-56,-1,-1,0
1523629250761,262144,-120,-56,-1,-1,0
1523629250761,196608,-120,-56,-1,-1,0
1523629250761,-327680,-120,-56,-1,-1,0
1523629250761,851968,-120,-56,-1,-1,0
1523629250801,4915200,-120,-56,-1,-1,0
1523629250801,10289152,-120,-56,-1,-1,0
1523629250801,13369344,-120,-56,-1,-1,0
1523629250801,10420224,-120,-56,-1,-1,0
1523629250801,4128768,-120,-56,-1,-1,0
1523629250846,-131072,-120,-56,-1,-1,0
1523629250846,-1048576,-120,-56,-1,-1,0
1523629250846,-1048576,-120,-56,-1,-1,0
1523629250846,-851968,-120,-56,-1,-1,0
1523629250846,-786432,-120,-56,-1,-1,0
1523629250881,-589824,-120,-56,-1,-1,0
1523629250881,-131072,-120,-56,-1,-1,0
1523629250881,0,-120,-56,-1,-1,0
1523629250881,-196608,-120,-56,-1,-1,0
1523629250881,-458752,-120,-56,-1,-1,0
1523629250921,-786432,-120,-56,-1,-1,0
1523629250921,-786432,-120,-56,-1,-1,0
1523629250921,-786432,-120,-56,-1,-1,0
1523629250921,-1048576,-120,-56,-1,-1,0
1523629250921,-458752,-120,-56,-1,-1,0
1523629250961,458752,-120,-56,-1,-1,0
1523629250961,262144,-120,-56,-1,-1,0
1523629250961,-131072,-120,-56,-1,-1,0
1523629250961,65536,-120,-56,-1,-1,0
1523629250961,131072,-120,-56,-1,-1,0
1523629251001,-1048576,-120,-56,-1,-1,0
1523629251001,-1245184,-120,-56,-1,-1,0
1523629251001,-786432,-120,-56,-1,-1,0
1523629251001,-458752,-120,-56,-1,-1,0
1523629251001,-1114112,-120,-56,-1,-1,0
1523629251041,-1376256,-120,-56,-1,-1,0
1523629251041,-1310720,-120,-56,-1,-1,0
1523629251041,-1179648,-120,-56,-1,-1,0
1523629251041,-1179648,-120,-56,-1,-1,0
1523629251041,-1179648,-120,-56,-1,-1,0
1523629251081,-1179648,-120,-56,-1,-1,0
1523629251081,-1441792,-120,-56,-1,-1,0
1523629251081,-1441792,-120,-56,-1,-1,0
1523629251081,-983040,-120,-56,-1,-1,0
1523629251081,-524288,-120,-56,-1,-1,0
1523629251121,-720896,-120,-56,-1,-1,0
1523629251121,-655360,-120,-56,-1,-1,0
1523629251121,-1048576,-120,-56,-1,-1,0
1523629251121,-1310720,-120,-56,-1,-1,0
1523629251121,-1376256,-120,-56,-1,-1,0
1523629251161,-1114112,-120,-56,-1,-1,0
1523629251161,-1638400,-120,-56,-1,-1,0
1523629251161,-1835008,-120,-56,-1,-1,0
1523629251161,-1441792,-120,-56,-1,-1,0
1523629251161,-1703936,-120,-56,-1,-1,0
1523629251201,-1900544,-120,-56,-1,-1,0
1523629251201,-1900544,-120,-56,-1,-1,0
1523629251201,-1900544,-120,-56,-1,-1,0
1523629251201,-2031616,-120,-56,-1,-1,0
1523629251201,-2293760,-120,-56,-1,-1,0
1523629251241,-851968,-120,-56,-1,-1,0
1523629251241,4849664,-120,-56,-1,-1,0
1523629251241,12910592,-120,-56,-1,-1,0
1523629251241,16777216,-120,-56,-1,-1,0
1523629251241,12189696,-120,-56,-1,-1,0
1523629251281,4128768,-120,-56,-1,-1,0
1523629251281,-1048576,-120,-56,-1,-1,0
1523629251281,-2162688,-120,-56,-1,-1,0
1523629251281,-2031616,-120,-56,-1,-1,0
1523629251281,-2097152,-120,-56,-1,-1,0
1523629251321,-2883584,-120,-56,-1,-1,0
1523629251321,-3276800,-120,-56,-1,-1,0
1523629251321,-3014656,-120,-56,-1,-1,0
1523629251321,-2555904,-120,-56,-1,-1,0
1523629251321,-2490368,-120,-56,-1,-1,0
1523629251361,-2424832,-120,-56,-1,-1,0
1523629251361,-2293760,-120,-56,-1,-1,0
1523629251361,-1966080,-120,-56,-1,-1,0
1523629251361,-2293760,-120,-56,-1,-1,0
1523629251361,-2752512,-120,-56,-1,-1,0
1523629251401,-2490368,-120,-56,-1,-1,0
1523629251401,-1966080,-120,-56,-1,-1,0
1523629251401,-1900544,-120,-56,-1,-1,0
1523629251401,-2097152,-120,-56,-1,-1,0
1523629251401,-2162688,-120,-56,-1,-1,0
1523629251441,-2097152,-120,-56,-1,-1,0
1523629251441,-2359296,-120,-56,-1,-1,0
1523629251441,-2293760,-120,-56,-1,-1,0
1523629251441,-1966080,-120,-56,-1,-1,0
1523629251441,-1638400,-120,-56,-1,-1,0
1523629251486,-1900544,-120,-56,-1,-1,0
1523629251486,-1900544,-120,-56,-1,-1,0
1523629251486,-1769472,-120,-56,-1,-1,0
1523629251486,-1572864,-120,-56,-1,-1,0
1523629251486,-1507328,-120,-56,-1,-1,0
1523629251521,-1441792,-120,-56,-1,-1,0
1523629251521,-1507328,-120,-56,-1,-1,0
1523629251521,-1572864,-120,-56,-1,-1,0
1523629251521,-1703936,-120,-56,-1,-1,0
1523629251521,-1703936,-120,-56,-1,-1,0
1523629251561,-1769472,-120,-56,-1,-1,0
1523629251561,-1703936,-120,-56,-1,-1,0
1523629251561,-1572864,-120,-56,-1,-1,0
1523629251561,-1507328,-120,-56,-1,-1,0
1523629251561,-1441792,-120,-56,-1,-1,0
1523629251601,-1310720,-120,-56,-1,-1,0
1523629251601,-1114112,-120,-56,-1,-1,0
1523629251601,-851968,-120,-56,-1,-1,0
1523629251601,-786432,-120,-56,-1,-1,0
1523629251601,-1048576,-120,-56,-1,-1,0
1523629251641,-1245184,-120,-56,-1,-1,0
1523629251641,-1310720,-120,-56,-1,-1,0
1523629251641,-1310720,-120,-56,-1,-1,0
1523629251641,-1310720,-120,-56,-1,-1,0
1523629251641,-1376256,-120,-56,-1,-1,0
1523629251681,-1966080,-120,-56,-1,-1,0
1523629251681,-2097152,-120,-56,-1,-1,0
1523629251681,196608,-120,-56,-1,-1,0
1523629251681,6291456,-120,-56,-1,-1,0
1523629251681,14024704,-120,-56,-1,-1,0
1523629251721,17367040,-120,-56,-1,-1,0
1523629251721,11927552,-120,-56,-1,-1,0
1523629251721,3538944,-120,-56,-1,-1,0
1523629251721,-786432,-120,-56,-1,-1,0
1523629251721,-1638400,-120,-56,-1,-1,0
1523629251761,-1966080,-120,-56,-1,-1,0
1523629251761,-1900544,-120,-56,-1,-1,0
1523629251761,-1638400,-120,-56,-1,-1,0
1523629251761,-1376256,-120,-56,-1,-1,0
1523629251761,-1179648,-120,-56,-1,-1,0
1523629251801,-1441792,-120,-56,-1,-1,0
1523629251801,-1703936,-120,-56,-1,-1,0
1523629251801,-1638400,-120,-56,-1,-1,0
1523629251801,-1048576,-120,-56,-1,-1,0
1523629251801,-524288,-120,-56,-1,-1,0
1523629251841,-327680,-120,-56,-1,-1,0
1523629251841,-524288,-120,-56,-1,-1,0
1523629251841,-458752,-120,-56,-1,-1,0
1523629251841,-65536,-120,-56,-1,-1,0
1523629251841,327680,-120,-56,-1,-1,0
1523629251881,458752,-121,-56,-1,-1,0
1523629251881,196608,-121,-56,-1,-1,0
1523629251881,131072,-121,-56,-1,-1,0
1523629251881,131072,-121,-56,-1,-1,0
1523629251881,393216,-121,-56,-1,-1,0
1523629251921,589824,-121,-56,-1,-1,0
1523629251921,720896,-121,-56,-1,-1,0
1523629251921,786432,-121,-56,-1,-1,0
1523629251921,851968,-121,-56,-1,-1,0
1523629251921,917504,-121,-56,-1,-1,0
1523629251961,1048576,-121,-56,-1,-1,0
1523629251961,1048576,-121,-56,-1,-1,0
1523629251961,851968,-121,-56,-1,-1,0
1523629251961,655360,-121,-56,-1,-1,0
1523629251961,655360,-121,-56,-1,-1,0
1523629252001,655360,-121,-56,-1,-1,0
1523629252001,720896,-121,-56,-1,-1,0
1523629252001,786432,-121,-56,-1,-1,0
1523629252001,917504,-121,-56,-1,-1,0
1523629252001,655360,-121,-56,-1,-1,0
1523629252041,327680,-121,-56,-1,-1,0
1523629252041,524288,-121,-56,-1,-1,0
1523629252041,720896,-121,-56,-1,-1,0
1523629252041,655360,-121,-56,-1,-1,0
1523629252041,589824,-121,-56,-1,-1,0
1523629252081,524288,-121,-56,-1,-1,0
1523629252081,262144,-121,-56,-1,-1,0
1523629252081,327680,-121,-56,-1,-1,0
1523629252081,393216,-121,-56,-1,-1,0
1523629252081,262144,-121,-56,-1,-1,0
1523629252126,-262144,-121,-56,-1,-1,0
1523629252126,-262144,-121,-56,-1,-1,0
1523629252126,524288,-121,-56,-1,-1,0
1523629252126,2555904,-121,-56,-1,-1,0
1523629252126,6291456,-121,-56,-1,-1,0
1523629252162,11468800,-121,-56,-1,-1,0
1523629252162,13500416,-121,-56,-1,-1,0
1523629252162,9109504,-121,-56,-1,-1,0
1523629252162,2883584,-121,-56,-1,-1,0
1523629252162,-393216,-121,-56,-1,-1,0
1523629252201,-1048576,-121,-56,-1,-1,0
1523629252201,-983040,-121,-56,-1,-1,0
1523629252201,-786432,-121,-56,-1,-1,0
1523629252201,-655360,-121,-56,-1,-1,0
1523629252201,-458752,-121,-56,-1,-1,0
1523629252241,-65536,-121,-56,-1,-1,0
1523629252241,-131072,-121,-56,-1,-1,0
1523629252241,-262144,-121,-56,-1,-1,0
1523629252241,-327680,-121,-56,-1,-1,0
1523629252241,196608,-121,-56,-1,-1,0
1523629252281,196608,-121,-56,-1,-1,0
1523629252281,0,-121,-56,-1,-1,0
1523629252281,-196608,-121,-56,-1,-1,0
1523629252281,327680,-121,-56,-1,-1,0
1523629252281,655360,-121,-56,-1,-1,0
1523629252321,720896,-121,-56,-1,-1,0
1523629252321,851968,-121,-56,-1,-1,0
1523629252321,589824,-121,-56,-1,-1,0
1523629252321,65536,-121,-56,-1,-1,0
1523629252321,131072,-121,-56,-1,-1,0
1523629252361,655360,-121,-56,-1,-1,0
1523629252361,786432,-121,-56,-1,-1,0
1523629252361,393216,-121,-56,-1,-1,0
1523629252361,393216,-121,-56,-1,-1,0
1523629252361,851968,-121,-56,-1,-1,0
1523629252401,720896,-121,-56,-1,-1,0
1523629252401,0,-121,-56,-1,-1,0
1523629252401,-65536,-121,-56,-1,-1,0
1523629252401,131072,-121,-56,-1,-1,0
1523629252401,262144,-121,-56,-1,-1,0
1523629252441,327680,-121,-56,-1,-1,0
1523629252441,458752,-121,-56,-1,-1,0
1523629252441,393216,-121,-56,-1,-1,0
1523629252441,196608,-121,-56,-1,-1,0
1523629252441,0,-121,-56,-1,-1,0
1523629252481,-196608,-121,-56,-1,-1,0
1523629252481,-65536,-121,-56,-1,-1,0
1523629252481,-65536,-121,-56,-1,-1,0
1523629252481,-655360,-121,-56,-1,-1,0
1523629252481,-983040,-121,-56,-1,-1,0
1523629252521,-655360,-121,-56,-1,-1,0
1523629252521,-589824,-121,-56,-1,-1,0
1523629252521,-786432,-121,-56,-1,-1,0
1523629252521,-655360,-121,-56,-1,-1,0
1523629252521,-589824,-121,-56,-1,-1,0
1523629252561,-786432,-121,-56,-1,-1,0
1523629252561,-1114112,-121,-56,-1,-1,0
1523629252561,-1507328,-121,-56,-1,-1,0
1523629252561,-1703936,-121,-56,-1,-1,0
1523629252561,-262144,-121,-56,-1,-1,0
1523629252601,3997696,-121,-56,-1,-1,0
1523629252601,9633792,-121,-56,-1,-1,0
1523629252601,12320768,-121,-56,-1,-1,0
1523629252601,8323072,-121,-56,-1,-1,0
1523629252601,1769472,-121,-56,-1,-1,0
1523629252641,-1376256,-121,-56,-1,-1,0
1523629252641,-1507328,-121,-56,-1,-1,0
1523629252641,-2228224,-121,-56,-1,-1,0
1523629252641,-3080192,-121,-56,-1,-1,0
1523629252641,-2293760,-121,-56,-1,-1,0
1523629252681,-1245184,-121,-56,-1,-1,0
1523629252681,-1769472,-121,-56,-1,-1,0
1523629252681,-2752512,-121,-56,-1,-1,0
1523629252681,-2621440,-121,-56,-1,-1,0
1523629252681,-2752512,-121,-56,-1,-1,0
1523629252721,-3407872,-121,-56,-1,-1,0
1523629252721,-3473408,-121,-56,-1,-1,0
1523629252721,-3080192,-121,-56,-1,-1,0
1523629252721,-2752512,-121,-56,-1,-1,0
1523629252721,-2424832,-121,-56,-1,-1,0
1523629252766,-2162688,-121,-56,-1,-1,0
1523629252766,-2883584,-121,-56,-1,-1,0
1523629252766,-3538944,-121,-56,-1,-1,0
1523629252766,-3670016,-121,-56,-1,-1,0
1523629252766,-2818048,-121,-56,-1,-1,0
1523629252801,-2097152,-121,-56,-1,-1,0
1523629252801,-2949120,-121,-56,-1,-1,0
1523629252801,-3801088,-121,-56,-1,-1,0
1523629252801,-3080192,-121,-56,-1,-1,0
1523629252801,-2293760,-121,-56,-1,-1,0
1523629252841,-3407872,-121,-56,-1,-1,0
1523629252841,-4456448,-121,-56,-1,-1,0
1523629252841,-3211264,-121,-56,-1,-1,0
1523629252841,-1835008,-121,-56,-1,-1,0
1523629252841,-1900544,-121,-56,-1,-1,0
1523629252881,-2490368,-121,-56,-1,-1,0
1523629252881,-2031616,-121,-56,-1,-1,0
1523629252881,-2359296,-121,-56,-1,-1,0
1523629252881,-3145728,-121,-56,-1,-1,0
1523629252881,-3145728,-121,-56,-1,-1,0
1523629252921,-2949120,-121,-56,-1,-1,0
1523629252921,-2818048,-121,-56,-1,-1,0
1523629252921,-2162688,-121,-56,-1,-1,0
1523629252921,-1572864,-121,-56,-1,-1,0
1523629252921,-1966080,-121,-56,-1,-1,0
1523629252961,-2031616,-121,-56,-1,-1,0
1523629252961,-2031616,-121,-56,-1,-1,0
1523629252961,-2359296,-121,-56,-1,-1,0
1523629252961,-2752512,-121,-56,-1,-1,0
1523629252961,-2424832,-121,-56,-1,-1,0
1523629253001,-1966080,-121,-56,-1,-1,0
1523629253001,-1769472,-121,-56,-1,-1,0
1523629253001,-2031616,-121,-56,-1,-1,0
1523629253001,-2949120,-121,-56,-1,-1,0
1523629253001,-3080192,-121,-56,-1,-1,0
1523629253041,-1638400,-121,-56,-1,-1,0
1523629253041,2293760,-121,-56,-1,-1,0
1523629253041,10027008,-121,-56,-1,-1,0
1523629253041,16515072,-121,-56,-1,-1,0
1523629253041,14614528,-121,-56,-1,-1,0
1523629253081,6356992,-121,-56,-1,-1,0
1523629253081,655360,-121,-56,-1,-1,0
1523629253081,-1048576,-121,-56,-1,-1,0
1523629253081,-2424832,-121,-56,-1,-1,0
1523629253081,-3670016,-121,-56,-1,-1,0
1523629253121,-3014656,-121,-56,-1,-1,0
1523629253121,-2424832,-121,-56,-1,-1,0
1523629253121,-2621440,-121,-56,-1,-1,0
1523629253121,-2686976,-121,-56,-1,-1,0
1523629253121,-2293760,-121,-56,-1,-1,0
1523629253161,-2293760,-121,-56,-1,-1,0
1523629253161,-2359296,-121,-56,-1,-1,0
1523629253161,-2359296,-121,-56,-1,-1,0
1523629253161,-1900544,-121,-56,-1,-1,0
1523629253161,-917504,-121,-56,-1,-1,0
1523629253201,-1245184,-121,-56,-1,-1,0
1523629253201,-2162688,-121,-56,-1,-1,0
1523629253201,-1703936,-121,-56,-1,-1,0
1523629253201,-393216,-121,-56,-1,-1,0
1523629253201,-458752,-121,-56,-1,-1,0
1523629253241,-1310720,-121,-56,-1,-1,0
1523629253241,-1441792,-121,-56,-1,-1,0
1523629253241,-589824,-121,-56,-1,-1,0
1523629253241,0,-121,-56,-1,-1,0
1523629253241,-262144,-121,-56,-1,-1,0
1523629253281,-1048576,-121,-56,-1,-1,0
1523629253281,-655360,-121,-56,-1,-1,0
1523629253281,196608,-121,-56,-1,-1,0
1523629253281,196608,-121,-56,-1,-1,0
1523629253281,-131072,-121,-56,-1,-1,0
1523629253321,-262144,-121,-56,-1,-1,0
1523629253321,-262144,-121,-56,-1,-1,0
1523629253321,0,-121,-56,-1,-1,0
1523629253321,0,-121,-56,-1,-1,0
1523629253321,-327680,-121,-56,-1,-1,0
1523629253361,-524288,-121,-56,-1,-1,0
1523629253361,-327680,-121,-56,-1,-1,0
1523629253361,-131072,-121,-56,-1,-1,0
1523629253361,-131072,-121,-56,-1,-1,0
1523629253361,-65536,-121,-56,-1,-1,0
1523629253406,0,-121,-56,-1,-1,0
1523629253406,65536,-121,-56,-1,-1,0
1523629253406,0,-121,-56,-1,-1,0
1523629253406,0,-121,-56,-1,-1,0
1523629253406,0,-121,-56,-1,-1,0
1523629253441,0,-121,-56,-1,-1,0
1523629253441,-131072,-121,-56,-1,-1,0
1523629253441,-196608,-121,-56,-1,-1,0
1523629253441,0,-121,-56,-1,-1,0
1523629253441,65536,-121,-56,-1,-1,0
1523629253481,-458752,-121,-56,-1,-1,0
1523629253481,-1114112,-121,-56,-1,-1,0
1523629253481,-131072,-121,-56,-1,-1,0
1523629253481,4128768,-121,-56,-1,-1,0
1523629253481,11010048,-121,-56,-1,-1,0
1523629253521,16777216,-121,-56,-1,-1,0
1523629253521,15204352,-121,-56,-1,-1,0
1523629253521,7667712,-121,-56,-1,-1,0
1523629253521,1179648,-121,-56,-1,-1,0
1523629253521,-524288,-121,-56,-1,-1,0
1523629253561,-917504,-121,-56,-1,-1,0
1523629253561,-1114112,-121,-56,-1,-1,0
1523629253561,-1245184,-121,-56,-1,-1,0
1523629253561,-1310720,-121,-56,-1,-1,0
1523629253561,-1310720,-121,-56,-1,-1,0
1523629253601,-1245184,-121,-56,-1,-1,0
1523629253601,-983040,-121,-56,-1,-1,0
1523629253601,-786432,-121,-56,-1,-1,0
1523629253601,-720896,-121,-56,-1,-1,0
1523629253601,-589824,-121,-56,-1,-1,0
1523629253641,-393216,-121,-56,-1,-1,0
1523629253641,-196608,-121,-56,-1,-1,0
1523629253641,-65536,-121,-56,-1,-1,0
1523629253641,131072,-121,-56,-1,-1,0
1523629253641,393216,-121,-56,-1,-1,0
1523629253681,524288,-121,-56,-1,-1,0
1523629253681,458752,-121,-56,-1,-1,0
1523629253681,196608,-121,-56,-1,-1,0
1523629253681,65536,-121,-56,-1,-1,0
1523629253681,131072,-121,-56,-1,-1,0
1523629253721,196608,-121,-56,-1,-1,0
1523629253721,65536,-121,-56,-1,-1,0
1523629253721,0,-121,-56,-1,-1,0
1523629253721,0,-121,-56,-1,-1,0
1523629253721,65536,-121,-56,-1,-1,0
1523629253761,262144,-121,-56,-1,-1,0
1523629253761,196608,-121,-56,-1,-1,0
1523629253761,131072,-121,-56,-1,-1,0
1523629253761,0,-121,-56,-1,-1,0
1523629253761,-131072,-121,-56,-1,-1,0
1523629253801,-65536,-121,-56,-1,-1,0
1523629253801,0,-121,-56,-1,-1,0
1523629253801,-65536,-121,-56,-1,-1,0
1523629253801,-327680,-121,-56,-1,-1,0
1523629253801,-196608,-121,-56,-1,-1,0
1523629253841,131072,-121,-56,-1,-1,0
1523629253841,458752,-121,-56,-1,-1,0
1523629253841,589824,-121,-56,-1,-1,0
1523629253841,720896,-121,-56,-1,-1,0
1523629253841,786432,-121,-56,-1,-1,0
1523629253881,589824,-121,-56,-1,-1,0
1523629253881,327680,-121,-56,-1,-1,0
1523629253881,262144,-121,-56,-1,-1,0
1523629253881,327680,-121,-56,-1,-1,0
1523629253881,393216,-121,-56,-1,-1,0
1523629253921,393216,-121,-56,-1,-1,0
1523629253921,196608,-121,-56,-1,-1,0
1523629253921,-65536,-121,-56,-1,-1,0
1523629253921,589824,-121,-56,-1,-1,0
1523629253921,3538944,-121,-56,-1,-1,0
1523629253961,8323072,-121,-56,-1,-1,0
1523629253961,12517376,-121,-56,-1,-1,0
1523629253961,11665408,-121,-56,-1,-1,0
1523629253961,5898240,-121,-56,-1,-1,0
1523629253961,589824,-121,-56,-1,-1,0
1523629254001,-458752,-121,-56,-1,-1,0
1523629254001,0,-121,-56,-1,-1,0
1523629254001,131072,-121,-56,-1,-1,0
1523629254001,65536,-121,-56,-1,-1,0
1523629254001,0,-121,-56,-1,-1,0
1523629254046,0,-121,-56,-1,-1,0
1523629254046,65536,-121,-56,-1,-1,0
1523629254046,131072,-121,-56,-1,-1,0
1523629254046,196608,-121,-56,-1,-1,0
1523629254046,327680,-121,-56,-1,-1,0
1523629254081,458752,-121,-56,-1,-1,0
1523629254081,589824,-121,-56,-1,-1,0
1523629254081,720896,-121,-56,-1,-1,0
1523629254081,786432,-121,-56,-1,-1,0
1523629254081,458752,-121,-56,-1,-1,0
1523629254121,0,-121,-56,-1,-1,0
1523629254121,131072,-121,-56,-1,-1,0
1523629254121,720896,-121,-56,-1,-1,0
1523629254121,917504,-121,-56,-1,-1,0
1523629254121,327680,-121,-56,-1,-1,0
1523629254161,65536,-121,-56,-1,-1,0
1523629254161,327680,-121,-56,-1,-1,0
1523629254161,720896,-121,-56,-1,-1,0
1523629254161,524288,-121,-56,-1,-1,0
1523629254161,65536,-121,-56,-1,-1,0
1523629254201,-196608,-121,-56,-1,-1,0
1523629254201,-327680,-121,-56,-1,-1,0
1523629254201,-589824,-121,-56,-1,-1,0
1523629254201,-589824,-121,-56,-1,-1,0
1523629254201,-524288,-121,-56,-1,-1,0
1523629254241,-589824,-121,-56,-1,-1,0
1523629254241,-720896,-121,-56,-1,-1,0
1523629254241,-851968,-121,-56,-1,-1,0
1523629254241,-851968,-121,-56,-1,-1,0
1523629254241,-720896,-121,-56,-1,-1,0
1523629254281,-524288,-121,-56,-1,-1,0
1523629254281,-851968,-121,-56,-1,-1,0
1523629254281,-1245184,-121,-56,-1,-1,0
1523629254281,-1572864,-121,-56,-1,-1,0
1523629254281,-1703936,-121,-56,-1,-1,0
1523629254321,-1376256,-121,-56,-1,-1,0
1523629254321,-1310720,-121,-56,-1,-1,0
1523629254321,-1638400,-121,-56,-1,-1,0
1523629254321,-1638400,-121,-56,-1,-1,0
1523629254321,-1310720,-121,-56,-1,-1,0
1523629254361,-1048576,-121,-56,-1,-1,0
1523629254361,-1310720,-121,-56,-1,-1,0
1523629254361,-1572864,-121,-56,-1,-1,0
1523629254361,-1966080,-121,-56,-1,-1,0
1523629254361,-1900544,-121,-56,-1,-1,0
1523629254401,-65536,-121,-56,-1,-1,0
1523629254401,4325376,-121,-56,-1,-1,0
1523629254401,10092544,-121,-56,-1,-1,0
1523629254401,12451840,-121,-56,-1,-1,0
1523629254401,8060928,-121,-56,-1,-1,0
1523629254441,1179648,-121,-56,-1,-1,0
1523629254441,-2097152,-121,-56,-1,-1,0
1523629254441,-2097152,-121,-56,-1,-1,0
1523629254441,-2228224,-121,-56,-1,-1,0
1523629254441,-2818048,-121,-56,-1,-1,0
1523629254481,-3145728,-121,-56,-1,-1,0
1523629254481,-2818048,-121,-56,-1,-1,0
1523629254481,-2621440,-121,-56,-1,-1,0
1523629254481,-2621440,-121,-56,-1,-1,0
1523629254481,-2883584,-121,-56,-1,-1,0
1523629254521,-2621440,-121,-56,-1,-1,0
1523629254521,-2097152,-121,-56,-1,-1,0
1523629254521,-2097152,-121,-56,-1,-1,0
1523629254521,-2818048,-121,-56,-1,-1,0
1523629254521,-3080192,-121,-56,-1,-1,0
1523629254562,-2752512,-121,-56,-1,-1,0
1523629254562,-2490368,-121,-56,-1,-1,0
1523629254562,-2818048,-121,-56,-1,-1,0
1523629254562,-3473408,-121,-56,-1,-1,0
1523629254562,-3735552,-121,-56,-1,-1,0
1523629254601,-3604480,-121,-56,-1,-1,0
1523629254601,-2949120,-121,-56,-1,-1,0
1523629254601,-2490368,-121,-56,-1,-1,0
1523629254601,-2555904,-121,-56,-1,-1,0
1523629254601,-3080192,-121,-56,-1,-1,0
1523629254641,-3145728,-121,-56,-1,-1,0
1523629254641,-3080192,-121,-56,-1,-1,0
1523629254641,-3211264,-121,-56,-1,-1,0
1523629254641,-3342336,-121,-56,-1,-1,0
1523629254641,-3014656,-121,-56,-1,-1,0
1523629254686,-2621440,-121,-56,-1,-1,0
1523629254686,-2949120,-121,-56,-1,-1,0
1523629254686,-3407872,-121,-56,-1,-1,0
1523629254686,-2686976,-121,-56,-1,-1,0
1523629254686,-2490368,-121,-56,-1,-1,0
1523629254721,-3407872,-121,-56,-1,-1,0
1523629254721,-3670016,-121,-56,-1,-1,0
1523629254721,-2949120,-121,-56,-1,-1,0
1523629254721,-2621440,-121,-56,-1,-1,0
1523629254721,-2490368,-121,-56,-1,-1,0
1523629254761,-2228224,-121,-56,-1,-1,0
1523629254761,-2097152,-121,-56,-1,-1,0
1523629254761,-1900544,-121,-56,-1,-1,0
1523629254761,-1966080,-121,-56,-1,-1,0
1523629254761,-2359296,-121,-56,-1,-1,0
1523629254801,-2490368,-121,-56,-1,-1,0
1523629254801,-2097152,-121,-56,-1,-1,0
1523629254801,-1376256,-121,-56,-1,-1,0
1523629254801,-1441792,-121,-56,-1,-1,0
1523629254801,-1769472,-121,-56,-1,-1,0
1523629254841,-1900544,-121,-56,-1,-1,0
1523629254841,-2097152,-121,-56,-1,-1,0
1523629254841,-1376256,-121,-56,-1,-1,0
1523629254841,2031616,-121,-56,-1,-1,0
1523629254841,7864320,-121,-56,-1,-1,0
1523629254881,13762560,-121,-56,-1,-1,0
1523629254881,14548992,-121,-56,-1,-1,0
1523629254881,8716288,-121,-56,-1,-1,0
1523629254881,1769472,-121,-56,-1,-1,0
1523629254881,-786432,-121,-56,-1,-1,0
1523629254921,-983040,-121,-56,-1,-1,0
1523629254921,-786432,-121,-56,-1,-1,0
1523629254921,-1048576,-121,-56,-1,-1,0
1523629254921,-1310720,-121,-56,-1,-1,0
1523629254921,-1048576,-121,-56,-1,-1,0
1523629254961,-720896,-121,-56,-1,-1,0
1523629254961,-655360,-121,-56,-1,-1,0
1523629254961,-720896,-121,-56,-1,-1,0
1523629254961,-720896,-121,-56,-1,-1,0
1523629254961,393216,-121,-56,-1,-1,0
1523629255001,917504,-121,-56,-1,-1,0
1523629255001,196608,-121,-56,-1,-1,0
1523629255001,0,-121,-56,-1,-1,0
1523629255001,786432,-121,-56,-1,-1,0
1523629255001,1245184,-121,-56,-1,-1,0
1523629255041,1179648,-121,-56,-1,-1,0
1523629255041,1114112,-121,-56,-1,-1,0
1523629255041,1048576,-121,-56,-1,-1,0
1523629255041,983040,-121,-56,-1,-1,0
1523629255041,917504,-121,-56,-1,-1,0
1523629255081,458752,-121,-56,-1,-1,0
1523629255081,720896,-121,-56,-1,-1,0
1523629255081,1900544,-121,-56,-1,-1,0
1523629255081,2555904,-121,-56,-1,-1,0
1523629255081,2162688,-121,-56,-1,-1,0
1523629255121,1638400,-121,-56,-1,-1,0
1523629255121,1376256,-121,-56,-1,-1,0
1523629255121,917504,-121,-56,-1,-1,0
1523629255121,983040,-121,-56,-1,-1,0
1523629255121,1572864,-121,-56,-1,-1,0
1523629255163,1638400,-121,-56,-1,-1,0
1523629255163,1179648,-121,-56,-1,-1,0
1523629255163,1114112,-121,-56,-1,-1,0
1523629255163,1310720,-121,-56,-1,-1,0
1523629255163,1179648,-121,-56,-1,-1,0
1523629255201,720896,-121,-56,-1,-1,0
1523629255201,720896,-121,-56,-1,-1,0
1523629255201,851968,-121,-56,-1,-1,0
1523629255201,1048576,-121,-56,-1,-1,0
1523629255201,1048576,-121,-56,-1,-1,0
1523629255241,1441792,-121,-56,-1,-1,0
1523629255241,1376256,-121,-56,-1,-1,0
1523629255241,1179648,-121,-56,-1,-1,0
1523629255241,1048576,-121,-56,-1,-1,0
1523629255241,917504,-121,-56,-1,-1,0
1523629255281,458752,-121,-56,-1,-1,0
1523629255281,327680,-121,-56,-1,-1,0
1523629255281,393216,-121,-56,-1,-1,0
1523629255281,196608,-121,-56,-1,-1,0
1523629255281,655360,-121,-56,-1,-1,0
1523629255326,3670016,-121,-56,-1,-1,0
1523629255326,9764864,-121,-56,-1,-1,0
1523629255326,15728640,-121,-56,-1,-1,0
1523629255326,16056320,-121,-56,-1,-1,0
1523629255326,9961472,-121,-56,-1,-1,0
1523629255361,3473408,-121,-56,-1,-1,0
1523629255361,720896,-121,-56,-1,-1,0
1523629255361,65536,-121,-56,-1,-1,0
1523629255361,0,-121,-56,-1,-1,0
1523629255361,131072,-121,-56,-1,-1,0
1523629255401,196608,-121,-56,-1,-1,0
1523629255401,0,-121,-56,-1,-1,0
1523629255401,0,-121,-56,-1,-1,0
1523629255401,262144,-121,-56,-1,-1,0
1523629255401,458752,-121,-56,-1,-1,0
1523629255441,327680,-121,-56,-1,-1,0
1523629255441,327680,-121,-56,-1,-1,0
1523629255441,524288,-121,-56,-1,-1,0
1523629255441,851968,-121,-56,-1,-1,0
1523629255441,1114112,-121,-56,-1,-1,0
1523629255482,1310720,-121,-56,-1,-1,0
1523629255482,1572864,-121,-56,-1,-1,0
1523629255482,1769472,-121,-56,-1,-1,0
1523629255482,1638400,-121,-56,-1,-1,0
1523629255482,1441792,-121,-56,-1,-1,0
1523629255521,1245184,-123,-56,-1,-1,0
1523629255521,1245184,-123,-56,-1,-1,0
1523629255521,1245184,-123,-56,-1,-1,0
1523629255521,1114112,-123,-56,-1,-1,0
1523629255521,786432,-123,-56,-1,-1,0
1523629255561,589824,-123,-56,-1,-1,0
1523629255561,524288,-123,-56,-1,-1,0
1523629255561,720896,-123,-56,-1,-1,0
1523629255561,786432,-123,-56,-1,-1,0
1523629255561,786432,-123,-56,-1,-1,0
1523629255601,589824,-123,-56,-1,-1,0
1523629255601,262144,-123,-56,-1,-1,0
1523629255601,0,-123,-56,-1,-1,0
1523629255601,-131072,-123,-56,-1,-1,0
1523629255601,-393216,-123,-56,-1,-1,0
1523629255641,-720896,-123,-56,-1,-1,0
1523629255641,-851968,-123,-56,-1,-1,0
1523629255641,-720896,-123,-56,-1,-1,0
1523629255641,-589824,-123,-56,-1,-1,0
1523629255641,-655360,-123,-56,-1,-1,0
1523629255682,-524288,-123,-56,-1,-1,0
1523629255682,-458752,-123,-56,-1,-1,0
1523629255682,-393216,-123,-56,-1,-1,0
1523629255682,-524288,-123,-56,-1,-1,0
1523629255682,-851968,-123,-56,-1,-1,0
1523629255721,-1048576,-123,-56,-1,-1,0
1523629255721,-720896,-123,-56,-1,-1,0
1523629255721,-262144,-123,-56,-1,-1,0
1523629255721,-458752,-123,-56,-1,-1,0
1523629255721,-1245184,-123,-56,-1,-1,0
1523629255761,-2424832,-123,-56,-1,-1,0
1523629255761,-2162688,-123,-56,-1,-1,0
1523629255761,1835008,-123,-56,-1,-1,0
1523629255761,9109504,-123,-56,-1,-1,0
1523629255761,15269888,-123,-56,-1,-1,0
1523629255801,14483456,-123,-56,-1,-1,0
1523629255801,7208960,-123,-56,-1,-1,0
1523629255801,393216,-123,-56,-1,-1,0
1523629255801,-1507328,-123,-56,-1,-1,0
1523629255801,-1507328,-123,-56,-1,-1,0
1523629255841,-1572864,-123,-56,-1,-1,0
1523629255841,-2228224,-123,-56,-1,-1,0
1523629255841,-2752512,-123,-56,-1,-1,0
1523629255841,-2686976,-123,-56,-1,-1,0
1523629255841,-1966080,-123,-56,-1,-1,0
1523629255881,-1507328,-123,-56,-1,-1,0
1523629255881,-1966080,-123,-56,-1,-1,0
1523629255881,-2555904,-123,-56,-1,-1,0
1523629255881,-2293760,-123,-56,-1,-1,0
1523629255881,-1769472,-123,-56,-1,-1,0
1523629255921,-1835008,-123,-56,-1,-1,0
1523629255921,-2097152,-123,-56,-1,-1,0
1523629255921,-1966080,-123,-56,-1,-1,0
1523629255921,-1835008,-123,-56,-1,-1,0
1523629255921,-1769472,-123,-56,-1,-1,0
1523629255966,-2097152,-123,-56,-1,-1,0
1523629255966,-2228224,-123,-56,-1,-1,0
1523629255966,-1900544,-123,-56,-1,-1,0
1523629255966,-1638400,-123,-56,-1,-1,0
1523629255966,-2162688,-123,-56,-1,-1,0
1523629256001,-2883584,-123,-56,-1,-1,0
1523629256001,-3211264,-123,-56,-1,-1,0
1523629256001,-2883584,-123,-56,-1,-1,0
1523629256001,-2686976,-123,-56,-1,-1,0
1523629256001,-2883584,-123,-56,-1,-1,0
1523629256041,-3145728,-123,-56,-1,-1,0
1523629256041,-3211264,-123,-56,-1,-1,0
1523629256041,-3407872,-123,-56,-1,-1,0
1523629256041,-3538944,-123,-56,-1,-1,0
1523629256041,-3538944,-123,-56,-1,-1,0
1523629256081,-3735552,-123,-56,-1,-1,0
1523629256081,-3866624,-123,-56,-1,-1,0
1523629256081,-3801088,-123,-56,-1,-1,0
1523629256081,-3538944,-123,-56,-1,-1,0
1523629256081,-3342336,-123,-56,-1,-1,0
1523629256121,-3211264,-123,-56,-1,-1,0
1523629256121,-3080192,-123,-56,-1,-1,0
1523629256121,-2752512,-123,-56,-1,-1,0
1523629256121,-2752512,-123,-56,-1,-1,0
1523629256121,-2752512,-123,-56,-1,-1,0
1523629256161,-2621440,-123,-56,-1,-1,0
1523629256161,-2621440,-123,-56,-1,-1,0
1523629256161,-3080192,-123,-56,-1,-1,0
1523629256161,-3276800,-123,-56,-1,-1,0
1523629256161,-3014656,-123,-56,-1,-1,0
1523629256201,-2818048,-123,-56,-1,-1,0
1523629256201,-3211264,-123,-56,-1,-1,0
1523629256201,-3342336,-123,-56,-1,-1,0
1523629256201,-1376256,-123,-56,-1,-1,0
1523629256201,3407872,-123,-56,-1,-1,0
1523629256241,9764864,-123,-56,-1,-1,0
1523629256241,12976128,-123,-56,-1,-1,0
1523629256241,8912896,-123,-56,-1,-1,0
1523629256241,1507328,-123,-56,-1,-1,0
1523629256241,-2490368,-123,-56,-1,-1,0
1523629256281,-2686976,-123,-56,-1,-1,0
1523629256281,-2621440,-123,-56,-1,-1,0
1523629256281,-2883584,-123,-56,-1,-1,0
1523629256281,-3014656,-123,-56,-1,-1,0
1523629256281,-3014656,-123,-56,-1,-1,0
1523629256321,-3211264,-123,-56,-1,-1,0
1523629256321,-3014656,-123,-56,-1,-1,0
1523629256321,-2031616,-123,-56,-1,-1,0
1523629256321,-1310720,-123,-56,-1,-1,0
1523629256321,-1441792,-123,-56,-1,-1,0
1523629256361,-1638400,-123,-56,-1,-1,0
1523629256361,-1769472,-123,-56,-1,-1,0
1523629256361,-1835008,-123,-56,-1,-1,0
1523629256361,-1703936,-123,-56,-1,-1,0
1523629256361,-1441792,-123,-56,-1,-1,0
1523629256401,-1114112,-123,-56,-1,-1,0
1523629256401,-851968,-123,-56,-1,-1,0
1523629256401,-524288,-123,-56,-1,-1,0
1523629256401,-196608,-123,-56,-1,-1,0
1523629256401,-65536,-123,-56,-1,-1,0
1523629256441,-262144,-123,-56,-1,-1,0
1523629256441,-589824,-123,-56,-1,-1,0
1523629256441,-1048576,-123,-56,-1,-1,0
1523629256441,-1114112,-123,-56,-1,-1,0
1523629256441,-786432,-123,-56,-1,-1,0
1523629256481,-589824,-123,-56,-1,-1,0
1523629256481,-327680,-123,-56,-1,-1,0
1523629256481,-196608,-123,-56,-1,-1,0
1523629256481,-65536,-123,-56,-1,-1,0
1523629256481,-327680,-123,-56,-1,-1,0
1523629256522,-327680,-123,-56,-1,-1,0
1523629256522,0,-123,-56,-1,-1,0
1523629256522,262144,-123,-56,-1,-1,0
1523629256522,65536,-123,-56,-1,-1,0
1523629256522,-327680,-123,-56,-1,-1,0
1523629256561,-589824,-123,-56,-1,-1,0
1523629256561,0,-123,-56,-1,-1,0
1523629256561,720896,-123,-56,-1,-1,0
1523629256561,851968,-123,-56,-1,-1,0
1523629256561,917504,-123,-56,-1,-1,0
1523629256606,786432,-123,-56,-1,-1,0
1523629256606,65536,-123,-56,-1,-1,0
1523629256606,-655360,-123,-56,-1,-1,0
1523629256606,-327680,-123,-56,-1,-1,0
1523629256606,131072,-123,-56,-1,-1,0
1523629256642,0,-123,-56,-1,-1,0
1523629256642,-262144,-123,-56,-1,-1,0
1523629256642,-524288,-123,-56,-1,-1,0
1523629256642,-589824,-123,-56,-1,-1,0
1523629256642,327680,-123,-56,-1,-1,0
1523629256681,2949120,-123,-56,-1,-1,0
1523629256681,7733248,-123,-56,-1,-1,0
1523629256681,13107200,-123,-56,-1,-1,0
1523629256681,13369344,-123,-56,-1,-1,0
1523629256681,7208960,-123,-56,-1,-1,0
1523629256721,983040,-123,-56,-1,-1,0
1523629256721,-851968,-123,-56,-1,-1,0
1523629256721,-393216,-123,-56,-1,-1,0
1523629256721,-524288,-123,-56,-1,-1,0
1523629256721,-655360,-123,-56,-1,-1,0
1523629256762,-983040,-123,-56,-1,-1,0
1523629256762,-720896,-123,-56,-1,-1,0
1523629256762,-983040,-123,-56,-1,-1,0
1523629256762,-917504,-123,-56,-1,-1,0
1523629256762,-393216,-123,-56,-1,-1,0
1523629256801,262144,-123,-56,-1,-1,0
1523629256801,393216,-123,-56,-1,-1,0
1523629256801,327680,-123,-56,-1,-1,0
1523629256801,589824,-123,-56,-1,-1,0
1523629256801,524288,-123,-56,-1,-1,0
1523629256841,458752,-123,-56,-1,-1,0
1523629256841,458752,-123,-56,-1,-1,0
1523629256841,655360,-123,-56,-1,-1,0
1523629256841,589824,-123,-56,-1,-1,0
1523629256841,458752,-123,-56,-1,-1,0
1523629256881,983040,-123,-56,-1,-1,0
1523629256881,1310720,-123,-56,-1,-1,0
1523629256881,917504,-123,-56,-1,-1,0
1523629256881,327680,-123,-56,-1,-1,0
1523629256881,65536,-123,-56,-1,-1,0
1523629256921,0,-123,-56,-1,-1,0
1523629256921,65536,-123,-56,-1,-1,0
1523629256921,-327680,-123,-56,-1,-1,0
1523629256921,-196608,-123,-56,-1,-1,0
1523629256921,458752,-123,-56,-1,-1,0
1523629256961,1048576,-123,-56,-1,-1,0
1523629256961,393216,-123,-56,-1,-1,0
1523629256961,-393216,-123,-56,-1,-1,0
1523629256961,-655360,-123,-56,-1,-1,0
1523629256961,-327680,-123,-56,-1,-1,0
1523629257001,-131072,-123,-56,-1,-1,0
1523629257001,-131072,-123,-56,-1,-1,0
1523629257001,-327680,-123,-56,-1,-1,0
1523629257001,-720896,-123,-56,-1,-1,0
1523629257001,-393216,-123,-56,-1,-1,0
1523629257041,-262144,-123,-56,-1,-1,0
1523629257041,-655360,-123,-56,-1,-1,0
1523629257041,-589824,-123,-56,-1,-1,0
1523629257041,-65536,-123,-56,-1,-1,0
1523629257041,-524288,-123,-56,-1,-1,0
1523629257081,-1114112,-123,-56,-1,-1,0
1523629257081,-786432,-123,-56,-1,-1,0
1523629257081,-655360,-123,-56,-1,-1,0
1523629257081,-1048576,-123,-56,-1,-1,0
1523629257081,-1638400,-123,-56,-1,-1,0
1523629257121,-2031616,-123,-56,-1,-1,0
1523629257121,-196608,-123,-56,-1,-1,0
1523629257121,5046272,-123,-56,-1,-1,0
1523629257121,12386304,-123,-56,-1,-1,0
1523629257121,16449536,-123,-56,-1,-1,0
1523629257161,13238272,-123,-56,-1,-1,0
1523629257161,5767168,-123,-56,-1,-1,0
1523629257161,327680,-123,-56,-1,-1,0
1523629257161,-1179648,-123,-56,-1,-1,0
1523629257161,-1900544,-123,-56,-1,-1,0
1523629257201,-2424832,-123,-56,-1,-1,0
1523629257201,-2359296,-123,-56,-1,-1,0
1523629257201,-2031616,-123,-56,-1,-1,0
1523629257201,-2097152,-123,-56,-1,-1,0
1523629257201,-1572864,-123,-56,-1,-1,0
1523629257246,-1114112,-123,-56,-1,-1,0
1523629257246,-1507328,-123,-56,-1,-1,0
1523629257246,-1900544,-123,-56,-1,-1,0
1523629257246,-1966080,-123,-56,-1,-1,0
1523629257246,-2097152,-123,-56,-1,-1,0
1523629257281,-1900544,-123,-56,-1,-1,0
1523629257281,-1376256,-123,-56,-1,-1,0
1523629257281,-1245184,-123,-56,-1,-1,0
1523629257281,-1376256,-123,-56,-1,-1,0
1523629257281,-1245184,-123,-56,-1,-1,0
1523629257321,-1376256,-123,-56,-1,-1,0
1523629257321,-1703936,-123,-56,-1,-1,0
1523629257321,-1441792,-123,-56,-1,-1,0
1523629257321,-851968,-123,-56,-1,-1,0
1523629257321,-786432,-123,-56,-1,-1,0
1523629257361,-1245184,-123,-56,-1,-1,0
1523629257361,-1638400,-123,-56,-1,-1,0
1523629257361,-1638400,-123,-56,-1,-1,0
1523629257361,-1441792,-123,-56,-1,-1,0
1523629257361,-1310720,-123,-56,-1,-1,0
1523629257401,-1245184,-123,-56,-1,-1,0
1523629257401,-1245184,-123,-56,-1,-1,0
1523629257401,-1376256,-123,-56,-1,-1,0
1523629257401,-1507328,-123,-56,-1,-1,0
1523629257401,-1638400,-123,-56,-1,-1,0
1523629257441,-1507328,-123,-56,-1,-1,0
1523629257441,-1441792,-123,-56,-1,-1,0
1523629257441,-1638400,-123,-56,-1,-1,0
1523629257441,-1835008,-123,-56,-1,-1,0
1523629257441,-1769472,-123,-56,-1,-1,0
1523629257481,-1507328,-123,-56,-1,-1,0
1523629257481,-1245184,-123,-56,-1,-1,0
1523629257481,-1179648,-123,-56,-1,-1,0
1523629257481,-1310720,-123,-56,-1,-1,0
1523629257481,-1441792,-123,-56,-1,-1,0
1523629257521,-1572864,-123,-56,-1,-1,0
1523629257521,-1703936,-123,-56,-1,-1,0
1523629257521,-1769472,-123,-56,-1,-1,0
1523629257521,-1966080,-123,-56,-1,-1,0
1523629257521,-2359296,-123,-56,-1,-1,0
1523629257561,-2686976,-123,-56,-1,-1,0
1523629257561,-2883584,-123,-56,-1,-1,0
1523629257561,-3014656,-123,-56,-1,-1,0
1523629257561,-1835008,-123,-56,-1,-1,0
1523629257561,2293760,-123,-56,-1,-1,0
1523629257601,9633792,-123,-56,-1,-1,0
1523629257601,16318464,-123,-56,-1,-1,0
1523629257601,15794176,-123,-56,-1,-1,0
1523629257601,8192000,-123,-56,-1,-1,0
1523629257601,1179648,-123,-56,-1,-1,0
1523629257641,-1179648,-123,-56,-1,-1,0
1523629257641,-1769472,-123,-56,-1,-1,0
1523629257641,-1966080,-123,-56,-1,-1,0
1523629257641,-1900544,-123,-56,-1,-1,0
1523629257641,-1835008,-123,-56,-1,-1,0
1523629257682,-2031616,-123,-56,-1,-1,0
1523629257682,-2359296,-123,-56,-1,-1,0
1523629257682,-2424832,-123,-56,-1,-1,0
1523629257682,-1900544,-123,-56,-1,-1,0
1523629257682,-1310720,-123,-56,-1,-1,0
1523629257721,-1114112,-123,-56,-1,-1,0
1523629257721,-1179648,-123,-56,-1,-1,0
1523629257721,-1048576,-123,-56,-1,-1,0
1523629257721,-720896,-123,-56,-1,-1,0
1523629257721,-196608,-123,-56,-1,-1,0
1523629257761,131072,-123,-56,-1,-1,0
1523629257761,0,-123,-56,-1,-1,0
1523629257761,-393216,-123,-56,-1,-1,0
1523629257761,-327680,-123,-56,-1,-1,0
1523629257761,-65536,-123,-56,-1,-1,0
1523629257801,-131072,-123,-56,-1,-1,0
1523629257801,-131072,-123,-56,-1,-1,0
1523629257801,131072,-123,-56,-1,-1,0
1523629257801,196608,-123,-56,-1,-1,0
1523629257801,0,-123,-56,-1,-1,0
1523629257841,65536,-123,-56,-1,-1,0
1523629257841,196608,-123,-56,-1,-1,0
1523629257841,131072,-123,-56,-1,-1,0
1523629257841,131072,-123,-56,-1,-1,0
1523629257841,262144,-123,-56,-1,-1,0
1523629257886,524288,-123,-56,-1,-1,0
1523629257886,524288,-123,-56,-1,-1,0
1523629257886,327680,-123,-56,-1,-1,0
1523629257886,131072,-123,-56,-1,-1,0
1523629257886,65536,-123,-56,-1,-1,0
1523629257921,131072,-123,-56,-1,-1,0
1523629257921,196608,-123,-56,-1,-1,0
1523629257921,327680,-123,-56,-1,-1,0
1523629257921,262144,-123,-56,-1,-1,0
1523629257921,327680,-123,-56,-1,-1,0
1523629257961,0,-123,-56,-1,-1,0
1523629257961,-393216,-123,-56,-1,-1,0
1523629257961,-393216,-123,-56,-1,-1,0
1523629257961,-65536,-123,-56,-1,-1,0
1523629257961,0,-123,-56,-1,-1,0
1523629258001,196608,-123,-56,-1,-1,0
1523629258001,458752,-123,-56,-1,-1,0
1523629258001,327680,-123,-56,-1,-1,0
1523629258001,-131072,-123,-56,-1,-1,0
1523629258001,-196608,-123,-56,-1,-1,0
1523629258041,1507328,-123,-56,-1,-1,0
1523629258041,6029312,-123,-56,-1,-1,0
1523629258041,11468800,-123,-56,-1,-1,0
1523629258041,13172736,-123,-56,-1,-1,0
1523629258041,8716288,-123,-56,-1,-1,0
1523629258081,2490368,-123,-56,-1,-1,0
1523629258081,-917504,-123,-56,-1,-1,0
1523629258081,-1245184,-123,-56,-1,-1,0
1523629258081,-851968,-123,-56,-1,-1,0
1523629258081,-524288,-123,-56,-1,-1,0
1523629258121,-393216,-123,-56,-1,-1,0
1523629258121,-524288,-123,-56,-1,-1,0
1523629258121,-720896,-123,-56,-1,-1,0
1523629258121,-786432,-123,-56,-1,-1,0
1523629258121,-524288,-123,-56,-1,-1,0
1523629258161,-524288,-123,-56,-1,-1,0
1523629258161,-393216,-123,-56,-1,-1,0
1523629258161,-262144,-123,-56,-1,-1,0
1523629258161,-65536,-123,-56,-1,-1,0
1523629258161,262144,-123,-56,-1,-1,0
1523629258201,1114112,-123,-56,-1,-1,0
1523629258201,1507328,-123,-56,-1,-1,0
1523629258201,1703936,-123,-56,-1,-1,0
1523629258201,1638400,-123,-56,-1,-1,0
1523629258201,1048576,-123,-56,-1,-1,0
1523629258241,917504,-123,-56,-1,-1,0
1523629258241,1048576,-123,-56,-1,-1,0
1523629258241,655360,-123,-56,-1,-1,0
1523629258241,327680,-123,-56,-1,-1,0
1523629258241,524288,-123,-56,-1,-1,0
1523629258281,786432,-123,-56,-1,-1,0
1523629258281,786432,-123,-56,-1,-1,0
1523629258281,655360,-123,-56,-1,-1,0
1523629258281,917504,-123,-56,-1,-1,0
1523629258281,917504,-123,-56,-1,-1,0
1523629258321,1114112,-123,-56,-1,-1,0
1523629258321,1245184,-123,-56,-1,-1,0
1523629258321,1310720,-123,-56,-1,-1,0
1523629258321,720896,-123,-56,-1,-1,0
1523629258321,393216,-123,-56,-1,-1,0
1523629258361,65536,-123,-56,-1,-1,0
1523629258361,65536,-123,-56,-1,-1,0
1523629258361,655360,-123,-56,-1,-1,0
1523629258361,1441792,-123,-56,-1,-1,0
1523629258361,1507328,-123,-56,-1,-1,0
1523629258401,589824,-123,-56,-1,-1,0
1523629258401,0,-123,-56,-1,-1,0
1523629258401,-65536,-123,-56,-1,-1,0
1523629258401,393216,-123,-56,-1,-1,0
1523629258401,262144,-123,-56,-1,-1,0
1523629258441,-65536,-123,-56,-1,-1,0
1523629258441,-131072,-123,-56,-1,-1,0
1523629258441,131072,-123,-56,-1,-1,0
1523629258441,-327680,-123,-56,-1,-1,0
1523629258441,-1179648,-123,-56,-1,-1,0
1523629258481,-1048576,-123,-56,-1,-1,0
1523629258481,720896,-123,-56,-1,-1,0
1523629258481,4849664,-123,-56,-1,-1,0
1523629258481,10485760,-123,-56,-1,-1,0
1523629258481,13238272,-123,-56,-1,-1,0
1523629258527,9306112,-123,-56,-1,-1,0
1523629258527,3145728,-123,-56,-1,-1,0
1523629258527,-262144,-123,-56,-1,-1,0
1523629258527,-917504,-123,-56,-1,-1,0
1523629258527,-1114112,-123,-56,-1,-1,0
1523629258561,-1310720,-123,-56,-1,-1,0
1523629258561,-1441792,-123,-56,-1,-1,0
1523629258561,-1441792,-123,-56,-1,-1,0
1523629258561,-1114112,-123,-56,-1,-1,0
1523629258561,-1245184,-123,-56,-1,-1,0
1523629258601,-1376256,-123,-56,-1,-1,0
1523629258601,-1769472,-123,-56,-1,-1,0
1523629258601,-1638400,-123,-56,-1,-1,0
1523629258601,-1245184,-123,-56,-1,-1,0
1523629258601,-1703936,-123,-56,-1,-1,0
1523629258641,-2490368,-123,-56,-1,-1,0
1523629258641,-2228224,-123,-56,-1,-1,0
1523629258641,-1507328,-123,-56,-1,-1,0
1523629258641,-1507328,-123,-56,-1,-1,0
1523629258641,-1769472,-123,-56,-1,-1,0
1523629258681,-2228224,-123,-56,-1,-1,0
1523629258681,-2818048,-123,-56,-1,-1,0
1523629258681,-3080192,-123,-56,-1,-1,0
1523629258681,-3080192,-123,-56,-1,-1,0
1523629258681,-3211264,-123,-56,-1,-1,0
1523629258721,-3473408,-123,-56,-1,-1,0
1523629258721,-3670016,-123,-56,-1,-1,0
1523629258721,-3145728,-123,-56,-1,-1,0
1523629258721,-2621440,-123,-56,-1,-1,0
1523629258721,-2228224,-123,-56,-1,-1,0
1523629258764,-2031616,-123,-56,-1,-1,0
1523629258764,-2293760,-123,-56,-1,-1,0
1523629258764,-2818048,-123,-56,-1,-1,0
1523629258764,-3211264,-123,-56,-1,-1,0
1523629258764,-2621440,-123,-56,-1,-1,0
1523629258801,-2162688,-123,-56,-1,-1,0
1523629258801,-2359296,-123,-56,-1,-1,0
1523629258801,-2424832,-123,-56,-1,-1,0
1523629258801,-2424832,-123,-56,-1,-1,0
1523629258801,-2818048,-123,-56,-1,-1,0
1523629258841,-3342336,-123,-56,-1,-1,0
1523629258841,-2818048,-123,-56,-1,-1,0
1523629258841,-2359296,-123,-56,-1,-1,0
1523629258841,-2097152,-123,-56,-1,-1,0
1523629258841,-2228224,-123,-56,-1,-1,0
1523629258881,-2293760,-123,-56,-1,-1,0
1523629258881,-2752512,-123,-56,-1,-1,0
1523629258881,-3014656,-123,-56,-1,-1,0
1523629258881,-3211264,-123,-56,-1,-1,0
1523629258881,-3276800,-123,-56,-1,-1,0
1523629258921,-3407872,-123,-56,-1,-1,0
1523629258921,-3407872,-123,-56,-1,-1,0
1523629258921,-2228224,-123,-56,-1,-1,0
1523629258921,1572864,-123,-56,-1,-1,0
1523629258921,8257536,-123,-56,-1,-1,0
1523629258961,13500416,-123,-56,-1,-1,0
1523629258961,11927552,-123,-56,-1,-1,0
1523629258961,5308416,-123,-56,-1,-1,0
1523629258961,-393216,-123,-56,-1,-1,0
1523629258961,-2621440,-123,-56,-1,-1,0
1523629259001,-3145728,-123,-56,-1,-1,0
1523629259001,-3670016,-123,-56,-1,-1,0
1523629259001,-4063232,-123,-56,-1,-1,0
1523629259001,-3932160,-123,-56,-1,-1,0
1523629259001,-3342336,-123,-56,-1,-1,0
1523629259041,-3342336,-123,-56,-1,-1,0
1523629259041,-3276800,-123,-56,-1,-1,0
1523629259041,-3342336,-123,-56,-1,-1,0
1523629259041,-3407872,-123,-56,-1,-1,0
1523629259041,-3145728,-123,-56,-1,-1,0
1523629259081,-3473408,-123,-56,-1,-1,0
1523629259081,-3604480,-123,-56,-1,-1,0
1523629259081,-2686976,-123,-56,-1,-1,0
1523629259081,-2031616,-123,-56,-1,-1,0
1523629259081,-2686976,-123,-56,-1,-1,0
1523629259121,-3014656,-123,-56,-1,-1,0
1523629259121,-2555904,-123,-56,-1,-1,0
1523629259121,-1966080,-123,-56,-1,-1,0
1523629259121,-2228224,-123,-56,-1,-1,0
1523629259121,-2621440,-123,-56,-1,-1,0
1523629259166,-2555904,-123,-56,-1,-1,0
1523629259166,-1769472,-123,-56,-1,-1,0
1523629259166,-1507328,-123,-56,-1,-1,0
1523629259166,-1835008,-123,-56,-1,-1,0
1523629259166,-1769472,-123,-56,-1,-1,0
1523629259201,-1245184,-123,-56,-1,-1,0
1523629259201,-983040,-123,-56,-1,-1,0
1523629259201,-1114112,-123,-56,-1,-1,0
1523629259201,-1441792,-123,-56,-1,-1,0
1523629259201,-1638400,-123,-56,-1,-1,0
1523629259241,-1900544,-123,-56,-1,-1,0
1523629259241,-1966080,-123,-56,-1,-1,0
1523629259241,-1179648,-123,-56,-1,-1,0
1523629259241,-458752,-123,-56,-1,-1,0
1523629259241,-786432,-123,-56,-1,-1,0
1523629259281,-1245184,-123,-56,-1,-1,0
1523629259281,-1376256,-123,-56,-1,-1,0
1523629259281,-1179648,-123,-56,-1,-1,0
1523629259281,-917504,-123,-56,-1,-1,0
1523629259281,-786432,-123,-56,-1,-1,0
1523629259321,-720896,-123,-56,-1,-1,0
1523629259321,-786432,-123,-56,-1,-1,0
1523629259321,-917504,-123,-56,-1,-1,0
1523629259321,-917504,-123,-56,-1,-1,0
1523629259321,-720896,-123,-56,-1,-1,0
1523629259361,-655360,-123,-56,-1,-1,0
1523629259361,-720896,-123,-56,-1,-1,0
1523629259361,-917504,-123,-56,-1,-1,0
1523629259361,-1441792,-123,-56,-1,-1,0
1523629259361,-786432,-123,-56,-1,-1,0
1523629259401,2883584,-123,-56,-1,-1,0
1523629259401,9961472,-123,-56,-1,-1,0
1523629259401,17039360,-123,-56,-1,-1,0
1523629259401,17432576,-123,-56,-1,-1,0
1523629259401,10092544,-123,-56,-1,-1,0
1523629259441,2818048,-123,-56,-1,-1,0
1523629259441,262144,-123,-56,-1,-1,0
1523629259441,-196608,-123,-56,-1,-1,0
1523629259441,-786432,-123,-56,-1,-1,0
1523629259441,-1114112,-123,-56,-1,-1,0
1523629259481,-983040,-123,-56,-1,-1,0
1523629259481,-524288,-123,-56,-1,-1,0
1523629259481,0,-123,-56,-1,-1,0
1523629259481,-65536,-123,-56,-1,-1,0
1523629259481,-524288,-123,-56,-1,-1,0
1523629259521,-851968,-123,-56,-1,-1,0
1523629259521,-655360,-123,-56,-1,-1,0
1523629259521,-262144,-123,-56,-1,-1,0
1523629259521,65536,-123,-56,-1,-1,0
1523629259521,262144,-123,-56,-1,-1,0
1523629259561,327680,-124,-56,-1,-1,0
1523629259561,393216,-124,-56,-1,-1,0
1523629259561,655360,-124,-56,-1,-1,0
1523629259561,917504,-124,-56,-1,-1,0
1523629259561,1114112,-124,-56,-1,-1,0
1523629259601,1179648,-124,-56,-1,-1,0
1523629259601,917504,-124,-56,-1,-1,0
1523629259601,589824,-124,-56,-1,-1,0
1523629259601,327680,-124,-56,-1,-1,0
1523629259601,196608,-124,-56,-1,-1,0
1523629259642,65536,-124,-56,-1,-1,0
1523629259642,196608,-124,-56,-1,-1,0
1523629259642,524288,-124,-56,-1,-1,0
1523629259642,917504,-124,-56,-1,-1,0
1523629259642,786432,-124,-56,-1,-1,0
1523629259681,458752,-124,-56,-1,-1,0
1523629259681,655360,-124,-56,-1,-1,0
1523629259681,1179648,-124,-56,-1,-1,0
1523629259681,1441792,-124,-56,-1,-1,0
1523629259681,1376256,-124,-56,-1,-1,0
1523629259721,1179648,-124,-56,-1,-1,0
1523629259721,983040,-124,-56,-1,-1,0
1523629259721,1048576,-124,-56,-1,-1,0
1523629259721,1310720,-124,-56,-1,-1,0
1523629259721,1376256,-124,-56,-1,-1,0
1523629259761,1572864,-124,-56,-1,-1,0
1523629259761,2031616,-124,-56,-1,-1,0
1523629259761,2031616,-124,-56,-1,-1,0
1523629259761,1179648,-124,-56,-1,-1,0
1523629259761,589824,-124,-56,-1,-1,0
1523629259806,655360,-124,-56,-1,-1,0
1523629259806,851968,-124,-56,-1,-1,0
1523629259806,851968,-124,-56,-1,-1,0
1523629259806,786432,-124,-56,-1,-1,0
1523629259806,262144,-124,-56,-1,-1,0
1523629259841,196608,-124,-56,-1,-1,0
1523629259841,2097152,-124,-56,-1,-1,0
1523629259841,5832704,-124,-56,-1,-1,0
1523629259841,10092544,-124,-56,-1,-1,0
1523629259841,11862016,-124,-56,-1,-1,0
1523629259881,7995392,-124,-56,-1,-1,0
1523629259881,2359296,-124,-56,-1,-1,0
1523629259881,-393216,-124,-56,-1,-1,0
1523629259881,-983040,-124,-56,-1,-1,0
1523629259881,-1310720,-124,-56,-1,-1,0
1523629259921,-851968,-124,-56,-1,-1,0
1523629259921,0,-124,-56,-1,-1,0
1523629259921,131072,-124,-56,-1,-1,0
1523629259921,0,-124,-56,-1,-1,0
1523629259921,0,-124,-56,-1,-1,0
1523629259961,131072,-124,-56,-1,-1,0
1523629259961,65536,-124,-56,-1,-1,0
1523629259961,0,-124,-56,-1,-1,0
1523629259961,0,-124,-56,-1,-1,0
1523629259961,327680,-124,-56,-1,-1,0
1523629260001,458752,-124,-56,-1,-1,0
1523629260001,655360,-124,-56,-1,-1,0
1523629260001,786432,-124,-56,-1,-1,0
1523629260001,1048576,-124,-56,-1,-1,0
1523629260001,1507328,-124,-56,-1,-1,0
1523629260041,1376256,-124,-56,-1,-1,0
1523629260041,524288,-124,-56,-1,-1,0
1523629260041,-262144,-124,-56,-1,-1,0
1523629260041,-393216,-124,-56,-1,-1,0
1523629260041,-65536,-124,-56,-1,-1,0
1523629260081,131072,-124,-56,-1,-1,0
1523629260081,0,-124,-56,-1,-1,0
1523629260081,-131072,-124,-56,-1,-1,0
1523629260081,-131072,-124,-56,-1,-1,0
1523629260081,-393216,-124,-56,-1,-1,0
1523629260121,-720896,-124,-56,-1,-1,0
1523629260121,-655360,-124,-56,-1,-1,0
1523629260121,-327680,-124,-56,-1,-1,0
1523629260121,-65536,-124,-56,-1,-1,0
1523629260121,65536,-124,-56,-1,-1,0
1523629260161,-65536,-124,-56,-1,-1,0
1523629260161,-589824,-124,-56,-1,-1,0
1523629260161,-655360,-124,-56,-1,-1,0
1523629260161,-589824,-124,-56,-1,-1,0
1523629260161,-589824,-124,-56,-1,-1,0
1523629260201,-655360,-124,-56,-1,-1,0
1523629260201,-589824,-124,-56,-1,-1,0
1523629260201,-786432,-124,-56,-1,-1,0
1523629260201,-851968,-124,-56,-1,-1,0
1523629260201,-983040,-124,-56,-1,-1,0
1523629260241,-1376256,-124,-56,-1,-1,0
1523629260241,-1769472,-124,-56,-1,-1,0
1523629260241,-1507328,-124,-56,-1,-1,0
1523629260241,-851968,-124,-56,-1,-1,0
1523629260241,-917504,-124,-56,-1,-1,0
1523629260281,-1966080,-124,-56,-1,-1,0
1523629260281,-2686976,-124,-56,-1,-1,0
1523629260281,-1441792,-124,-56,-1,-1,0
1523629260281,2949120,-124,-56,-1,-1,0
1523629260281,9043968,-124,-56,-1,-1,0
1523629260321,12648448,-124,-56,-1,-1,0
1523629260321,9633792,-124,-56,-1,-1,0
1523629260321,3211264,-124,-56,-1,-1,0
1523629260321,-983040,-124,-56,-1,-1,0
1523629260321,-1507328,-124,-56,-1,-1,0
1523629260361,-1769472,-124,-56,-1,-1,0
1523629260361,-2621440,-124,-56,-1,-1,0
1523629260361,-3473408,-124,-56,-1,-1,0
1523629260361,-3473408,-124,-56,-1,-1,0
1523629260361,-2686976,-124,-56,-1,-1,0
1523629260401,-2228224,-124,-56,-1,-1,0
1523629260401,-2293760,-124,-56,-1,-1,0
1523629260401,-2424832,-124,-56,-1,-1,0
1523629260401,-2359296,-124,-56,-1,-1,0
1523629260401,-2621440,-124,-56,-1,-1,0
1523629260446,-2818048,-124,-56,-1,-1,0
1523629260446,-2752512,-124,-56,-1,-1,0
1523629260446,-3014656,-124,-56,-1,-1,0
1523629260446,-2686976,-124,-56,-1,-1,0
1523629260446,-2162688,-124,-56,-1,-1,0
1523629260481,-2097152,-124,-56,-1,-1,0
1523629260481,-2555904,-124,-56,-1,-1,0
1523629260481,-3211264,-124,-56,-1,-1,0
1523629260481,-3407872,-124,-56,-1,-1,0
1523629260481,-2883584,-124,-56,-1,-1,0
1523629260521,-2555904,-124,-56,-1,-1,0
1523629260521,-2949120,-124,-56,-1,-1,0
1523629260521,-3014656,-124,-56,-1,-1,0
1523629260521,-3276800,-124,-56,-1,-1,0
1523629260521,-4128768,-124,-56,-1,-1,0
1523629260561,-3997696,-124,-56,-1,-1,0
1523629260561,-3145728,-124,-56,-1,-1,0
1523629260561,-2490368,-124,-56,-1,-1,0
1523629260561,-3014656,-124,-56,-1,-1,0
1523629260561,-3538944,-124,-56,-1,-1,0
1523629260601,-3342336,-124,-56,-1,-1,0
1523629260601,-2883584,-124,-56,-1,-1,0
1523629260601,-2949120,-124,-56,-1,-1,0
1523629260601,-3604480,-124,-56,-1,-1,0
1523629260601,-3473408,-124,-56,-1,-1,0
1523629260641,-3014656,-124,-56,-1,-1,0
1523629260641,-2621440,-124,-56,-1,-1,0
1523629260641,-2621440,-124,-56,-1,-1,0
1523629260641,-2818048,-124,-56,-1,-1,0
1523629260641,-2949120,-124,-56,-1,-1,0
1523629260681,-2818048,-124,-56,-1,-1,0
1523629260681,-2490368,-124,-56,-1,-1,0
1523629260681,-2162688,-124,-56,-1,-1,0
1523629260681,-2228224,-124,-56,-1,-1,0
1523629260681,-2293760,-124,-56,-1,-1,0
1523629260721,-2490368,-124,-56,-1,-1,0
1523629260721,-3080192,-124,-56,-1,-1,0
1523629260721,-3735552,-124,-56,-1,-1,0
1523629260721,-2293760,-124,-56,-1,-1,0
1523629260721,2031616,-124,-56,-1,-1,0
1523629260761,9109504,-124,-56,-1,-1,0
1523629260761,15728640,-124,-56,-1,-1,0
1523629260761,15007744,-124,-56,-1,-1,0
1523629260761,6815744,-124,-56,-1,-1,0
1523629260761,-393216,-124,-56,-1,-1,0
1523629260801,-2490368,-124,-56,-1,-1,0
1523629260801,-2097152,-124,-56,-1,-1,0
1523629260801,-1376256,-124,-56,-1,-1,0
1523629260801,-1114112,-124,-56,-1,-1,0
1523629260801,-1835008,-124,-56,-1,-1,0
1523629260841,-2424832,-124,-56,-1,-1,0
1523629260841,-2686976,-124,-56,-1,-1,0
1523629260841,-2097152,-124,-56,-1,-1,0
1523629260841,-1114112,-124,-56,-1,-1,0
1523629260841,-786432,-124,-56,-1,-1,0
1523629260881,-1376256,-124,-56,-1,-1,0
1523629260881,-1441792,-124,-56,-1,-1,0
1523629260881,-1114112,-124,-56,-1,-1,0
1523629260881,-1114112,-124,-56,-1,-1,0
1523629260881,-1114112,-124,-56,-1,-1,0
1523629260921,-458752,-124,-56,-1,-1,0
1523629260921,-262144,-124,-56,-1,-1,0
1523629260921,-458752,-124,-56,-1,-1,0
1523629260921,-458752,-124,-56,-1,-1,0
1523629260921,-458752,-124,-56,-1,-1,0
1523629260961,-524288,-124,-56,-1,-1,0
1523629260961,-458752,-124,-56,-1,-1,0
1523629260961,-393216,-124,-56,-1,-1,0
1523629260961,-327680,-124,-56,-1,-1,0
1523629260961,-131072,-124,-56,-1,-1,0
1523629261001,0,-124,-56,-1,-1,0
1523629261001,458752,-124,-56,-1,-1,0
1523629261001,720896,-124,-56,-1,-1,0
1523629261001,458752,-124,-56,-1,-1,0
1523629261001,0,-124,-56,-1,-1,0
1523629261042,0,-124,-56,-1,-1,0
1523629261042,131072,-124,-56,-1,-1,0
1523629261042,131072,-124,-56,-1,-1,0
1523629261042,131072,-124,-56,-1,-1,0
1523629261042,196608,-124,-56,-1,-1,0
1523629261087,65536,-124,-56,-1,-1,0
1523629261087,196608,-124,-56,-1,-1,0
1523629261087,589824,-124,-56,-1,-1,0
1523629261087,917504,-124,-56,-1,-1,0
1523629261087,589824,-124,-56,-1,-1,0
1523629261121,262144,-124,-56,-1,-1,0
1523629261121,524288,-124,-56,-1,-1,0
1523629261121,655360,-124,-56,-1,-1,0
1523629261121,524288,-124,-56,-1,-1,0
1523629261121,458752,-124,-56,-1,-1,0
1523629261161,458752,-124,-56,-1,-1,0
1523629261161,131072,-124,-56,-1,-1,0
1523629261161,-131072,-124,-56,-1,-1,0
1523629261161,-196608,-124,-56,-1,-1,0
1523629261161,-262144,-124,-56,-1,-1,0
1523629261201,262144,-124,-56,-1,-1,0
1523629261201,3407872,-124,-56,-1,-1,0
1523629261201,10027008,-124,-56,-1,-1,0
1523629261201,17301504,-124,-56,-1,-1,0
1523629261201,18481152,-124,-56,-1,-1,0
1523629261241,11337728,-124,-56,-1,-1,0
1523629261241,3473408,-124,-56,-1,-1,0
1523629261241,589824,-124,-56,-1,-1,0
1523629261241,131072,-124,-56,-1,-1,0
1523629261241,-196608,-124,-56,-1,-1,0
1523629261281,-393216,-124,-56,-1,-1,0
1523629261281,-524288,-124,-56,-1,-1,0
1523629261281,-458752,-124,-56,-1,-1,0
1523629261281,-327680,-124,-56,-1,-1,0
1523629261281,-327680,-124,-56,-1,-1,0
1523629261321,-262144,-124,-56,-1,-1,0
1523629261321,0,-124,-56,-1,-1,0
1523629261321,393216,-124,-56,-1,-1,0
1523629261321,851968,-124,-56,-1,-1,0
1523629261321,1245184,-124,-56,-1,-1,0
1523629261361,1310720,-124,-56,-1,-1,0
1523629261361,1376256,-124,-56,-1,-1,0
1523629261361,1245184,-124,-56,-1,-1,0
1523629261361,1179648,-124,-56,-1,-1,0
1523629261361,1179648,-124,-56,-1,-1,0
1523629261401,1245184,-124,-56,-1,-1,0
1523629261401,1245184,-124,-56,-1,-1,0
1523629261401,1114112,-124,-56,-1,-1,0
1523629261401,851968,-124,-56,-1,-1,0
1523629261401,458752,-124,-56,-1,-1,0
1523629261441,196608,-124,-56,-1,-1,0
1523629261441,458752,-124,-56,-1,-1,0
1523629261441,786432,-124,-56,-1,-1,0
1523629261441,720896,-124,-56,-1,-1,0
1523629261441,393216,-124,-56,-1,-1,0
1523629261481,327680,-124,-56,-1,-1,0
1523629261481,458752,-124,-56,-1,-1,0
1523629261481,589824,-124,-56,-1,-1,0
1523629261481,720896,-124,-56,-1,-1,0
1523629261481,1048576,-124,-56,-1,-1,0
1523629261521,917504,-124,-56,-1,-1,0
1523629261521,524288,-124,-56,-1,-1,0
1523629261521,589824,-124,-56,-1,-1,0
1523629261521,1048576,-124,-56,-1,-1,0
1523629261521,1441792,-124,-56,-1,-1,0
1523629261562,1638400,-124,-56,-1,-1,0
1523629261562,1572864,-124,-56,-1,-1,0
1523629261562,1441792,-124,-56,-1,-1,0
1523629261562,1441792,-124,-56,-1,-1,0
1523629261562,1310720,-124,-56,-1,-1,0
1523629261601,1048576,-124,-56,-1,-1,0
1523629261601,786432,-124,-56,-1,-1,0
1523629261601,917504,-124,-56,-1,-1,0
1523629261601,983040,-124,-56,-1,-1,0
1523629261601,1114112,-124,-56,-1,-1,0
1523629261641,1114112,-124,-56,-1,-1,0
1523629261641,983040,-124,-56,-1,-1,0
1523629261641,2490368,-124,-56,-1,-1,0
1523629261641,7208960,-124,-56,-1,-1,0
1523629261641,13434880,-124,-56,-1,-1,0
1523629261681,15794176,-124,-56,-1,-1,0
1523629261681,11010048,-124,-56,-1,-1,0
1523629261681,4194304,-124,-56,-1,-1,0
1523629261681,1245184,-124,-56,-1,-1,0
1523629261681,983040,-124,-56,-1,-1,0
1523629261726,458752,-124,-56,-1,-1,0
1523629261726,0,-124,-56,-1,-1,0
1523629261726,0,-124,-56,-1,-1,0
1523629261726,-131072,-124,-56,-1,-1,0
1523629261726,0,-124,-56,-1,-1,0
1523629261761,65536,-124,-56,-1,-1,0
1523629261761,65536,-124,-56,-1,-1,0
1523629261761,0,-124,-56,-1,-1,0
1523629261761,131072,-124,-56,-1,-1,0
1523629261761,393216,-124,-56,-1,-1,0
1523629261801,327680,-124,-56,-1,-1,0
1523629261801,262144,-124,-56,-1,-1,0
1523629261801,327680,-124,-56,-1,-1,0
1523629261801,458752,-124,-56,-1,-1,0
1523629261801,0,-124,-56,-1,-1,0
1523629261841,-327680,-124,-56,-1,-1,0
1523629261841,-458752,-124,-56,-1,-1,0
1523629261841,-655360,-124,-56,-1,-1,0
1523629261841,-1179648,-124,-56,-1,-1,0
1523629261841,-1245184,-124,-56,-1,-1,0
1523629261881,-1048576,-124,-56,-1,-1,0
1523629261881,-1179648,-124,-56,-1,-1,0
1523629261881,-1900544,-124,-56,-1,-1,0
1523629261881,-2621440,-124,-56,-1,-1,0
1523629261881,-2621440,-124,-56,-1,-1,0
1523629261921,-2359296,-124,-56,-1,-1,0
1523629261921,-2621440,-124,-56,-1,-1,0
1523629261921,-2883584,-124,-56,-1,-1,0
1523629261921,-2359296,-124,-56,-1,-1,0
1523629261921,-1966080,-124,-56,-1,-1,0
1523629261961,-2162688,-124,-56,-1,-1,0
1523629261961,-2883584,-124,-56,-1,-1,0
1523629261961,-3211264,-124,-56,-1,-1,0
1523629261961,-2883584,-124,-56,-1,-1,0
1523629261961,-2752512,-124,-56,-1,-1,0
1523629262001,-3145728,-124,-56,-1,-1,0
1523629262001,-3538944,-124,-56,-1,-1,0
1523629262001,-3080192,-124,-56,-1,-1,0
1523629262001,-2686976,-124,-56,-1,-1,0
1523629262001,-2555904,-124,-56,-1,-1,0
1523629262041,-2490368,-124,-56,-1,-1,0
1523629262041,-2686976,-124,-56,-1,-1,0
1523629262041,-2949120,-124,-56,-1,-1,0
1523629262041,-2949120,-124,-56,-1,-1,0
1523629262041,-2883584,-124,-56,-1,-1,0
1523629262081,-2818048,-124,-56,-1,-1,0
1523629262081,-3342336,-124,-56,-1,-1,0
1523629262081,-3604480,-124,-56,-1,-1,0
1523629262081,-2883584,-124,-56,-1,-1,0
1523629262081,917504,-124,-56,-1,-1,0
1523629262121,7602176,-124,-56,-1,-1,0
1523629262121,13565952,-124,-56,-1,-1,0
1523629262121,12386304,-124,-56,-1,-1,0
1523629262121,4653056,-124,-56,-1,-1,0
1523629262121,-1966080,-124,-56,-1,-1,0
1523629262161,-3997696,-124,-56,-1,-1,0
1523629262161,-3866624,-124,-56,-1,-1,0
1523629262161,-3604480,-124,-56,-1,-1,0
1523629262161,-3735552,-124,-56,-1,-1,0
1523629262161,-3997696,-124,-56,-1,-1,0
1523629262201,-3801088,-124,-56,-1,-1,0
1523629262201,-3276800,-124,-56,-1,-1,0
1523629262201,-2949120,-124,-56,-1,-1,0
1523629262201,-2424832,-124,-56,-1,-1,0
1523629262201,-2490368,-124,-56,-1,-1,0
1523629262241,-3145728,-124,-56,-1,-1,0
1523629262241,-3604480,-124,-56,-1,-1,0
1523629262241,-3342336,-124,-56,-1,-1,0
1523629262241,-3014656,-124,-56,-1,-1,0
1523629262241,-2752512,-124,-56,-1,-1,0
1523629262281,-2752512,-124,-56,-1,-1,0
1523629262281,-3014656,-124,-56,-1,-1,0
1523629262281,-3342336,-124,-56,-1,-1,0
1523629262281,-3080192,-124,-56,-1,-1,0
1523629262281,-2883584,-124,-56,-1,-1,0
1523629262321,-2883584,-124,-56,-1,-1,0
1523629262321,-2752512,-124,-56,-1,-1,0
1523629262321,-2097152,-124,-56,-1,-1,0
1523629262321,-2162688,-124,-56,-1,-1,0
1523629262321,-2883584,-124,-56,-1,-1,0
1523629262366,-3276800,-124,-56,-1,-1,0
1523629262366,-3211264,-124,-56,-1,-1,0
1523629262366,-3014656,-124,-56,-1,-1,0
1523629262366,-2621440,-124,-56,-1,-1,0
1523629262366,-2097152,-124,-56,-1,-1,0
1523629262401,-1835008,-124,-56,-1,-1,0
1523629262401,-2228224,-124,-56,-1,-1,0
1523629262401,-2686976,-124,-56,-1,-1,0
1523629262401,-2883584,-124,-56,-1,-1,0
1523629262401,-2359296,-124,-56,-1,-1,0
1523629262441,-2031616,-124,-56,-1,-1,0
1523629262441,-2424832,-124,-56,-1,-1,0
1523629262441,-3211264,-124,-56,-1,-1,0
1523629262441,-3080192,-124,-56,-1,-1,0
1523629262441,-2686976,-124,-56,-1,-1,0
1523629262481,-2293760,-124,-56,-1,-1,0
1523629262481,-1441792,-124,-56,-1,-1,0
1523629262481,-1376256,-124,-56,-1,-1,0
1523629262481,-1769472,-124,-56,-1,-1,0
1523629262481,-1310720,-124,-56,-1,-1,0
1523629262521,-655360,-124,-56,-1,-1,0
1523629262521,-1114112,-124,-56,-1,-1,0
1523629262521,-1966080,-124,-56,-1,-1,0
1523629262521,-2555904,-124,-56,-1,-1,0
1523629262521,-3014656,-124,-56,-1,-1,0
1523629262561,-2359296,-124,-56,-1,-1,0
1523629262561,131072,-124,-56,-1,-1,0
1523629262561,5963776,-124,-56,-1,-1,0
1523629262561,13172736,-124,-56,-1,-1,0
1523629262561,15269888,-124,-56,-1,-1,0
1523629262601,9568256,-124,-56,-1,-1,0
1523629262601,2162688,-124,-56,-1,-1,0
1523629262601,-1507328,-124,-56,-1,-1,0
1523629262601,-1638400,-124,-56,-1,-1,0
1523629262601,-1507328,-124,-56,-1,-1,0
1523629262641,-1769472,-124,-56,-1,-1,0
1523629262641,-1703936,-124,-56,-1,-1,0
1523629262641,-1703936,-124,-56,-1,-1,0
1523629262641,-1703936,-124,-56,-1,-1,0
1523629262641,-1507328,-124,-56,-1,-1,0
1523629262681,-1769472,-124,-56,-1,-1,0
1523629262681,-1966080,-124,-56,-1,-1,0
1523629262681,-1507328,-124,-56,-1,-1,0
1523629262681,-1114112,-124,-56,-1,-1,0
1523629262681,-1114112,-124,-56,-1,-1,0
1523629262721,-1179648,-124,-56,-1,-1,0
1523629262721,-1507328,-124,-56,-1,-1,0
1523629262721,-1441792,-124,-56,-1,-1,0
1523629262721,-1048576,-124,-56,-1,-1,0
1523629262721,-983040,-124,-56,-1,-1,0
1523629262761,-983040,-124,-56,-1,-1,0
1523629262761,-1310720,-124,-56,-1,-1,0
1523629262761,-1703936,-124,-56,-1,-1,0
1523629262761,-1769472,-124,-56,-1,-1,0
1523629262761,-1114112,-124,-56,-1,-1,0
1523629262801,-851968,-124,-56,-1,-1,0
1523629262801,-917504,-124,-56,-1,-1,0
1523629262801,-917504,-124,-56,-1,-1,0
1523629262801,-786432,-124,-56,-1,-1,0
1523629262801,-851968,-124,-56,-1,-1,0
1523629262841,-917504,-124,-56,-1,-1,0
1523629262841,-917504,-124,-56,-1,-1,0
1523629262841,-851968,-124,-56,-1,-1,0
1523629262841,-720896,-124,-56,-1,-1,0
1523629262841,-917504,-124,-56,-1,-1,0
1523629262881,-1310720,-124,-56,-1,-1,0
1523629262881,-1245184,-124,-56,-1,-1,0
1523629262881,-983040,-124,-56,-1,-1,0
1523629262881,-851968,-124,-56,-1,-1,0
1523629262881,-1245184,-124,-56,-1,-1,0
1523629262921,-1703936,-124,-56,-1,-1,0
1523629262921,-1703936,-124,-56,-1,-1,0
1523629262921,-1245184,-124,-56,-1,-1,0
1523629262921,-458752,-124,-56,-1,-1,0
1523629262921,-262144,-124,-56,-1,-1,0
1523629262961,-720896,-124,-56,-1,-1,0
1523629262961,-917504,-124,-56,-1,-1,0
1523629262961,-786432,-124,-56,-1,-1,0
1523629262961,-1048576,-124,-56,-1,-1,0
1523629262961,-1441792,-124,-56,-1,-1,0
1523629263006,-1441792,-124,-56,-1,-1,0
1523629263006,-1441792,-124,-56,-1,-1,0
1523629263006,-1376256,-124,-56,-1,-1,0
1523629263006,1179648,-124,-56,-1,-1,0
1523629263006,7733248,-124,-56,-1,-1,0
1523629263041,15532032,-124,-56,-1,-1,0
1523629263041,17825792,-124,-56,-1,-1,0
1523629263041,11534336,-124,-56,-1,-1,0
1523629263041,2949120,-124,-56,-1,-1,0
1523629263041,-917504,-124,-56,-1,-1,0
1523629263081,-1179648,-124,-56,-1,-1,0
1523629263081,-1048576,-124,-56,-1,-1,0
1523629263081,-983040,-124,-56,-1,-1,0
1523629263081,-1179648,-124,-56,-1,-1,0
1523629263081,-1441792,-124,-56,-1,-1,0
1523629263121,-1310720,-124,-56,-1,-1,0
1523629263121,-1179648,-124,-56,-1,-1,0
1523629263121,-1048576,-124,-56,-1,-1,0
1523629263121,-917504,-124,-56,-1,-1,0
1523629263121,-655360,-124,-56,-1,-1,0
1523629263161,-458752,-124,-56,-1,-1,0
1523629263161,-196608,-124,-56,-1,-1,0
1523629263161,131072,-124,-56,-1,-1,0
1523629263161,720896,-124,-56,-1,-1,0
1523629263161,1048576,-124,-56,-1,-1,0
1523629263202,786432,-124,-56,-1,-1,0
1523629263202,327680,-124,-56,-1,-1,0
1523629263202,196608,-124,-56,-1,-1,0
1523629263202,196608,-124,-56,-1,-1,0
1523629263202,196608,-124,-56,-1,-1,0
1523629263241,458752,-124,-56,-1,-1,0
1523629263241,786432,-124,-56,-1,-1,0
1523629263241,1048576,-124,-56,-1,-1,0
1523629263241,1245184,-124,-56,-1,-1,0
1523629263241,1376256,-124,-56,-1,-1,0
1523629263281,1441792,-124,-56,-1,-1,0
1523629263281,1376256,-124,-56,-1,-1,0
1523629263281,1114112,-124,-56,-1,-1,0
1523629263281,786432,-124,-56,-1,-1,0
1523629263281,720896,-124,-56,-1,-1,0
1523629263321,1245184,-124,-56,-1,-1,0
1523629263321,1376256,-124,-56,-1,-1,0
1523629263321,1048576,-124,-56,-1,-1,0
1523629263321,1179648,-124,-56,-1,-1,0
1523629263321,1572864,-124,-56,-1,-1,0
1523629263361,851968,-124,-56,-1,-1,0
1523629263361,-131072,-124,-56,-1,-1,0
1523629263361,0,-124,-56,-1,-1,0
1523629263361,1245184,-124,-56,-1,-1,0
1523629263361,1638400,-124,-56,-1,-1,0
1523629263405,1048576,-124,-56,-1,-1,0
1523629263405,327680,-124,-56,-1,-1,0
1523629263405,131072,-124,-56,-1,-1,0
1523629263405,327680,-124,-56,-1,-1,0
1523629263405,589824,-124,-56,-1,-1,0
1523629263441,458752,-124,-56,-1,-1,0
1523629263441,458752,-124,-56,-1,-1,0
1523629263441,393216,-124,-56,-1,-1,0
1523629263441,196608,-124,-56,-1,-1,0
1523629263441,1507328,-124,-56,-1,-1,0
1523629263481,6029312,-124,-56,-1,-1,0
1523629263481,12124160,-124,-56,-1,-1,0
1523629263481,15532032,-124,-56,-1,-1,0
1523629263481,12255232,-124,-56,-1,-1,0
1523629263481,5570560,-124,-56,-1,-1,0
1523629263521,1572864,-124,-56,-1,-1,0
1523629263521,851968,-124,-56,-1,-1,0
1523629263521,786432,-124,-56,-1,-1,0
1523629263521,917504,-124,-56,-1,-1,0
1523629263521,851968,-124,-56,-1,-1,0
1523629263561,589824,-124,-56,-1,-1,0
1523629263561,1048576,-124,-56,-1,-1,0
1523629263561,1638400,-124,-56,-1,-1,0
1523629263561,1703936,-124,-56,-1,-1,0
1523629263561,1310720,-124,-56,-1,-1,0
1523629263601,1245184,-124,-56,-1,-1,0
1523629263601,1703936,-124,-56,-1,-1,0
1523629263601,2228224,-124,-56,-1,-1,0
1523629263601,2031616,-124,-56,-1,-1,0
1523629263601,1638400,-124,-56,-1,-1,0
1523629263646,2031616,-124,-56,-1,-1,0
1523629263646,2752512,-124,-56,-1,-1,0
1523629263646,2949120,-124,-56,-1,-1,0
1523629263646,2359296,-124,-56,-1,-1,0
1523629263646,1638400,-124,-56,-1,-1,0
1523629263681,1114112,-124,-56,-1,-1,0
1523629263681,1179648,-124,-56,-1,-1,0
1523629263681,1507328,-124,-56,-1,-1,0
1523629263681,1179648,-124,-56,-1,-1,0
1523629263681,262144,-124,-56,-1,-1,0
1523629263721,-65536,-124,-56,-1,-1,0
1523629263721,0,-124,-56,-1,-1,0
1523629263721,65536,-124,-56,-1,-1,0
1523629263721,0,-124,-56,-1,-1,0
1523629263721,0,-124,-56,-1,-1,0
1523629263761,0,-124,-56,-1,-1,0
1523629263761,131072,-124,-56,-1,-1,0
1523629263761,0,-124,-56,-1,-1,0
1523629263761,-786432,-124,-56,-1,-1,0
1523629263761,-1441792,-124,-56,-1,-1,0
1523629263801,-1310720,-124,-56,-1,-1,0
1523629263801,-655360,-124,-56,-1,-1,0
1523629263801,-524288,-124,-56,-1,-1,0
1523629263801,-720896,-124,-56,-1,-1,0
1523629263801,-1769472,-124,-56,-1,-1,0
1523629263841,-2752512,-124,-56,-1,-1,0
1523629263841,-2490368,-124,-56,-1,-1,0
1523629263841,-1769472,-124,-56,-1,-1,0
1523629263841,-1638400,-124,-56,-1,-1,0
1523629263841,-1703936,-124,-56,-1,-1,0
1523629263881,-1769472,-124,-56,-1,-1,0
1523629263881,-1966080,-124,-56,-1,-1,0
1523629263881,-2228224,-124,-56,-1,-1,0
1523629263881,-2752512,-124,-56,-1,-1,0
1523629263881,-3866624,-124,-56,-1,-1,0
1523629263922,-3342336,-124,-56,-1,-1,0
1523629263922,-196608,-124,-56,-1,-1,0
1523629263922,6160384,-124,-56,-1,-1,0
1523629263922,11993088,-124,-56,-1,-1,0
1523629263922,11141120,-124,-56,-1,-1,0
1523629263961,4128768,-124,-56,-1,-1,0
1523629263961,-1835008,-124,-56,-1,-1,0
1523629263961,-3538944,-124,-56,-1,-1,0
1523629263961,-3932160,-124,-56,-1,-1,0
1523629263961,-4259840,-124,-56,-1,-1,0
1523629264001,-4259840,-124,-56,-1,-1,0
1523629264001,-4128768,-124,-56,-1,-1,0
1523629264001,-3932160,-124,-56,-1,-1,0
1523629264001,-3866624,-124,-56,-1,-1,0
1523629264001,-3866624,-124,-56,-1,-1,0
1523629264041,-3866624,-124,-56,-1,-1,0
1523629264041,-3997696,-124,-56,-1,-1,0
1523629264041,-4063232,-124,-56,-1,-1,0
1523629264041,-4194304,-124,-56,-1,-1,0
1523629264041,-3932160,-124,-56,-1,-1,0
1523629264081,-3735552,-124,-56,-1,-1,0
1523629264081,-3670016,-124,-56,-1,-1,0
1523629264081,-3604480,-124,-56,-1,-1,0
1523629264081,-3997696,-124,-56,-1,-1,0
1523629264081,-4456448,-124,-56,-1,-1,0
1523629264121,-4390912,-124,-56,-1,-1,0
1523629264121,-4521984,-124,-56,-1,-1,0
1523629264121,-4915200,-124,-56,-1,-1,0
1523629264121,-4915200,-124,-56,-1,-1,0
1523629264121,-4456448,-124,-56,-1,-1,0
1523629264161,-3997696,-124,-56,-1,-1,0
1523629264161,-3866624,-124,-56,-1,-1,0
1523629264161,-3866624,-124,-56,-1,-1,0
1523629264161,-4128768,-124,-56,-1,-1,0
1523629264161,-4128768,-124,-56,-1,-1,0
1523629264201,-3735552,-124,-56,-1,-1,0
1523629264201,-3407872,-124,-56,-1,-1,0
1523629264201,-3473408,-124,-56,-1,-1,0
1523629264201,-3670016,-124,-56,-1,-1,0
1523629264201,-3670016,-124,-56,-1,-1,0
1523629264241,-3604480,-124,-56,-1,-1,0
1523629264241,-3342336,-124,-56,-1,-1,0
1523629264241,-2686976,-124,-56,-1,-1,0
1523629264241,-2293760,-124,-56,-1,-1,0
1523629264241,-2097152,-124,-56,-1,-1,0
1523629264286,-2293760,-124,-56,-1,-1,0
1523629264286,-2424832,-124,-56,-1,-1,0
1523629264286,-2359296,-124,-56,-1,-1,0
1523629264286,-2359296,-124,-56,-1,-1,0
1523629264286,-2293760,-124,-56,-1,-1,0
1523629264321,-1835008,-124,-56,-1,-1,0
1523629264321,-1441792,-124,-56,-1,-1,0
1523629264321,-1966080,-124,-56,-1,-1,0
1523629264321,-1966080,-124,-56,-1,-1,0
1523629264321,-1441792,-124,-56,-1,-1,0
1523629264362,-1572864,-124,-56,-1,-1,0
1523629264362,-2097152,-124,-56,-1,-1,0
1523629264362,-524288,-124,-56,-1,-1,0
1523629264362,4390912,-124,-56,-1,-1,0
1523629264362,11141120,-124,-56,-1,-1,0
1523629264401,15269888,-124,-56,-1,-1,0
1523629264401,12058624,-124,-56,-1,-1,0
1523629264401,4849664,-124,-56,-1,-1,0
1523629264401,65536,-124,-56,-1,-1,0
1523629264401,-524288,-124,-56,-1,-1,0
1523629264441,-393216,-124,-56,-1,-1,0
1523629264441,-589824,-124,-56,-1,-1,0
1523629264441,-1048576,-124,-56,-1,-1,0
1523629264441,-1572864,-124,-56,-1,-1,0
1523629264441,-1376256,-124,-56,-1,-1,0
1523629264481,-1310720,-124,-56,-1,-1,0
1523629264481,-1638400,-124,-56,-1,-1,0
1523629264481,-1507328,-124,-56,-1,-1,0
1523629264481,-786432,-124,-56,-1,-1,0
1523629264481,-262144,-124,-56,-1,-1,0
1523629264521,-458752,-124,-56,-1,-1,0
1523629264521,-524288,-124,-56,-1,-1,0
1523629264521,-262144,-124,-56,-1,-1,0
1523629264521,65536,-124,-56,-1,-1,0
1523629264521,0,-124,-56,-1,-1,0
1523629264561,-131072,-124,-56,-1,-1,0
1523629264561,393216,-124,-56,-1,-1,0
1523629264561,786432,-124,-56,-1,-1,0
1523629264561,589824,-124,-56,-1,-1,0
1523629264561,262144,-124,-56,-1,-1,0
1523629264601,589824,-124,-56,-1,-1,0
1523629264601,458752,-124,-56,-1,-1,0
1523629264601,-131072,-124,-56,-1,-1,0
1523629264601,-131072,-124,-56,-1,-1,0
1523629264601,589824,-124,-56,-1,-1,0
1523629264641,327680,-124,-56,-1,-1,0
1523629264641,-327680,-124,-56,-1,-1,0
1523629264641,-65536,-124,-56,-1,-1,0
1523629264641,1245184,-124,-56,-1,-1,0
1523629264641,1900544,-124,-56,-1,-1,0
1523629264681,1245184,-124,-56,-1,-1,0
1523629264681,655360,-124,-56,-1,-1,0
1523629264681,262144,-124,-56,-1,-1,0
1523629264681,65536,-124,-56,-1,-1,0
1523629264681,458752,-124,-56,-1,-1,0
1523629264721,1835008,-124,-56,-1,-1,0
1523629264721,1703936,-124,-56,-1,-1,0
1523629264721,720896,-124,-56,-1,-1,0
1523629264721,131072,-124,-56,-1,-1,0
1523629264721,524288,-124,-56,-1,-1,0
1523629264761,589824,-124,-56,-1,-1,0
1523629264761,589824,-124,-56,-1,-1,0
1523629264761,851968,-124,-56,-1,-1,0
1523629264761,655360,-124,-56,-1,-1,0
1523629264761,-262144,-124,-56,-1,-1,0
1523629264801,-720896,-124,-56,-1,-1,0
1523629264801,-65536,-124,-56,-1,-1,0
1523629264801,0,-124,-56,-1,-1,0
1523629264801,131072,-124,-56,-1,-1,0
1523629264801,2686976,-124,-56,-1,-1,0
1523629264841,8257536,-124,-56,-1,-1,0
1523629264841,14286848,-124,-56,-1,-1,0
1523629264841,15204352,-124,-56,-1,-1,0
1523629264841,9830400,-124,-56,-1,-1,0
1523629264841,2752512,-124,-56,-1,-1,0
1523629264881,-458752,-124,-56,-1,-1,0
1523629264881,-524288,-124,-56,-1,-1,0
1523629264881,-262144,-124,-56,-1,-1,0
1523629264881,-524288,-124,-56,-1,-1,0
1523629264881,-851968,-124,-56,-1,-1,0
1523629264926,-851968,-124,-56,-1,-1,0
1523629264926,-720896,-124,-56,-1,-1,0
1523629264926,-393216,-124,-56,-1,-1,0
1523629264926,-327680,-124,-56,-1,-1,0
1523629264926,-196608,-124,-56,-1,-1,0
1523629264961,-131072,-124,-56,-1,-1,0
1523629264961,131072,-124,-56,-1,-1,0
1523629264961,131072,-124,-56,-1,-1,0
1523629264961,262144,-124,-56,-1,-1,0
1523629264961,655360,-124,-56,-1,-1,0
1523629265001,917504,-124,-56,-1,-1,0
1523629265001,917504,-124,-56,-1,-1,0
1523629265001,983040,-124,-56,-1,-1,0
1523629265001,1048576,-124,-56,-1,-1,0
1523629265001,393216,-124,-56,-1,-1,0
1523629265041,-65536,-124,-56,-1,-1,0
1523629265041,327680,-124,-56,-1,-1,0
1523629265041,983040,-124,-56,-1,-1,0
1523629265041,720896,-124,-56,-1,-1,0
1523629265041,458752,-124,-56,-1,-1,0
1523629265081,393216,-124,-56,-1,-1,0
1523629265081,262144,-124,-56,-1,-1,0
1523629265081,393216,-124,-56,-1,-1,0
1523629265081,589824,-124,-56,-1,-1,0
1523629265081,720896,-124,-56,-1,-1,0
1523629265121,720896,-124,-56,-1,-1,0
1523629265121,720896,-124,-56,-1,-1,0
1523629265121,786432,-124,-56,-1,-1,0
1523629265121,786432,-124,-56,-1,-1,0
1523629265121,786432,-124,-56,-1,-1,0
1523629265161,720896,-124,-56,-1,-1,0
1523629265161,655360,-124,-56,-1,-1,0
1523629265161,786432,-124,-56,-1,-1,0
1523629265161,983040,-124,-56,-1,-1,0
1523629265161,1114112,-124,-56,-1,-1,0
1523629265201,1048576,-124,-56,-1,-1,0
1523629265201,851968,-124,-56,-1,-1,0
1523629265201,589824,-124,-56,-1,-1,0
1523629265201,524288,-124,-56,-1,-1,0
1523629265201,524288,-124,-56,-1,-1,0
1523629265241,393216,-124,-56,-1,-1,0
1523629265241,196608,-124,-56,-1,-1,0
1523629265241,196608,-124,-56,-1,-1,0
1523629265241,65536,-124,-56,-1,-1,0
1523629265241,-196608,-124,-56,-1,-1,0
1523629265281,851968,-124,-56,-1,-1,0
1523629265281,5046272,-124,-56,-1,-1,0
1523629265281,11337728,-124,-56,-1,-1,0
1523629265281,15794176,-124,-56,-1,-1,0
1523629265281,13565952,-124,-56,-1,-1,0
1523629265321,6684672,-124,-56,-1,-1,0
1523629265321,1376256,-124,-56,-1,-1,0
1523629265321,65536,-124,-56,-1,-1,0
1523629265321,-196608,-124,-56,-1,-1,0
1523629265321,-589824,-124,-56,-1,-1,0
1523629265361,-851968,-124,-56,-1,-1,0
1523629265361,-983040,-124,-56,-1,-1,0
1523629265361,-851968,-124,-56,-1,-1,0
1523629265361,-524288,-124,-56,-1,-1,0
1523629265361,-327680,-124,-56,-1,-1,0
1523629265401,-327680,-124,-56,-1,-1,0
1523629265401,-196608,-124,-56,-1,-1,0
1523629265401,0,-124,-56,-1,-1,0
1523629265401,196608,-124,-56,-1,-1,0
1523629265401,131072,-124,-56,-1,-1,0
1523629265441,0,-124,-56,-1,-1,0
1523629265441,0,-124,-56,-1,-1,0
1523629265441,262144,-124,-56,-1,-1,0
1523629265441,655360,-124,-56,-1,-1,0
1523629265441,589824,-124,-56,-1,-1,0
1523629265481,65536,-124,-56,-1,-1,0
1523629265481,-393216,-124,-56,-1,-1,0
1523629265481,-458752,-124,-56,-1,-1,0
1523629265481,-458752,-124,-56,-1,-1,0
1523629265481,-458752,-124,-56,-1,-1,0
1523629265521,-458752,-124,-56,-1,-1,0
1523629265521,-655360,-124,-56,-1,-1,0
1523629265521,-1114112,-124,-56,-1,-1,0
1523629265521,-1441792,-124,-56,-1,-1,0
1523629265521,-1638400,-124,-56,-1,-1,0
1523629265566,-1703936,-124,-56,-1,-1,0
1523629265566,-1638400,-124,-56,-1,-1,0
1523629265566,-1638400,-124,-56,-1,-1,0
1523629265566,-2031616,-124,-56,-1,-1,0
1523629265566,-2293760,-124,-56,-1,-1,0
1523629265601,-2228224,-124,-56,-1,-1,0
1523629265601,-2293760,-124,-56,-1,-1,0
1523629265601,-2621440,-124,-56,-1,-1,0
1523629265601,-2424832,-124,-56,-1,-1,0
1523629265601,-1835008,-124,-56,-1,-1,0
1523629265641,-1703936,-124,-56,-1,-1,0
1523629265641,-2097152,-124,-56,-1,-1,0
1523629265641,-2031616,-124,-56,-1,-1,0
1523629265641,-1638400,-124,-56,-1,-1,0
1523629265641,-1703936,-124,-56,-1,-1,0
1523629265681,-2228224,-124,-56,-1,-1,0
1523629265681,-2621440,-124,-56,-1,-1,0
1523629265681,-2752512,-124,-56,-1,-1,0
1523629265681,-2818048,-124,-56,-1,-1,0
1523629265681,-2949120,-124,-56,-1,-1,0
1523629265721,-3407872,-124,-56,-1,-1,0
1523629265721,-3211264,-124,-56,-1,-1,0
1523629265721,-720896,-124,-56,-1,-1,0
1523629265721,4718592,-124,-56,-1,-1,0
1523629265721,10616832,-124,-56,-1,-1,0
1523629265761,11403264,-124,-56,-1,-1,0
1523629265761,5505024,-124,-56,-1,-1,0
1523629265761,-851968,-124,-56,-1,-1,0
1523629265761,-3473408,-124,-56,-1,-1,0
1523629265761,-3801088,-124,-56,-1,-1,0
1523629265801,-4194304,-124,-56,-1,-1,0
1523629265801,-4587520,-124,-56,-1,-1,0
1523629265801,-4718592,-124,-56,-1,-1,0
1523629265801,-4653056,-124,-56,-1,-1,0
1523629265801,-4456448,-124,-56,-1,-1,0
1523629265841,-4128768,-124,-56,-1,-1,0
1523629265841,-3866624,-124,-56,-1,-1,0
1523629265841,-3997696,-124,-56,-1,-1,0
1523629265841,-3997696,-124,-56,-1,-1,0
1523629265841,-3801088,-124,-56,-1,-1,0
1523629265881,-3538944,-124,-56,-1,-1,0
1523629265881,-3211264,-124,-56,-1,-1,0
1523629265881,-2949120,-124,-56,-1,-1,0
1523629265881,-3014656,-124,-56,-1,-1,0
1523629265881,-2752512,-124,-56,-1,-1,0
1523629265921,-2621440,-124,-56,-1,-1,0
1523629265921,-2818048,-124,-56,-1,-1,0
1523629265921,-2752512,-124,-56,-1,-1,0
1523629265921,-2293760,-124,-56,-1,-1,0
1523629265921,-2031616,-124,-56,-1,-1,0
1523629265961,-2228224,-124,-56,-1,-1,0
1523629265961,-2359296,-124,-56,-1,-1,0
1523629265961,-2424832,-124,-56,-1,-1,0
1523629265961,-2293760,-124,-56,-1,-1,0
1523629265961,-2359296,-124,-56,-1,-1,0
1523629266001,-2424832,-124,-56,-1,-1,0
1523629266001,-2097152,-124,-56,-1,-1,0
1523629266001,-1835008,-124,-56,-1,-1,0
1523629266001,-1638400,-124,-56,-1,-1,0
1523629266001,-1245184,-124,-56,-1,-1,0
1523629266041,-851968,-124,-56,-1,-1,0
1523629266041,-917504,-124,-56,-1,-1,0
1523629266041,-1114112,-124,-56,-1,-1,0
1523629266041,-1245184,-124,-56,-1,-1,0
1523629266041,-1441792,-124,-56,-1,-1,0
1523629266081,-1769472,-124,-56,-1,-1,0
1523629266081,-1835008,-124,-56,-1,-1,0
1523629266081,-1507328,-124,-56,-1,-1,0
1523629266081,-1179648,-124,-56,-1,-1,0
1523629266081,-917504,-124,-56,-1,-1,0
1523629266121,-1114112,-124,-56,-1,-1,0
1523629266121,-1179648,-124,-56,-1,-1,0
1523629266121,-1048576,-124,-56,-1,-1,0
1523629266121,-1048576,-124,-56,-1,-1,0
1523629266121,-1310720,-124,-56,-1,-1,0
1523629266161,-1572864,-124,-56,-1,-1,0
1523629266161,-1835008,-124,-56,-1,-1,0
1523629266161,-2293760,-124,-56,-1,-1,0
1523629266161,-1441792,-124,-56,-1,-1,0
1523629266161,2228224,-124,-56,-1,-1,0
1523629266206,8650752,-124,-56,-1,-1,0
1523629266206,14417920,-124,-56,-1,-1,0
1523629266206,13697024,-124,-56,-1,-1,0
1523629266206,6553600,-124,-56,-1,-1,0
1523629266206,589824,-124,-56,-1,-1,0
1523629266241,-851968,-124,-56,-1,-1,0
1523629266241,-917504,-124,-56,-1,-1,0
1523629266241,-1572864,-124,-56,-1,-1,0
1523629266241,-2228224,-124,-56,-1,-1,0
1523629266241,-2031616,-124,-56,-1,-1,0
1523629266281,-655360,-124,-56,-1,-1,0
1523629266281,524288,-124,-56,-1,-1,0
1523629266281,393216,-124,-56,-1,-1,0
1523629266281,-131072,-124,-56,-1,-1,0
1523629266281,-655360,-124,-56,-1,-1,0
1523629266321,-851968,-124,-56,-1,-1,0
1523629266321,-262144,-124,-56,-1,-1,0
1523629266321,262144,-124,-56,-1,-1,0
1523629266321,393216,-124,-56,-1,-1,0
1523629266321,589824,-124,-56,-1,-1,0
1523629266362,786432,-124,-56,-1,-1,0
1523629266362,524288,-124,-56,-1,-1,0
1523629266362,786432,-124,-56,-1,-1,0
1523629266362,851968,-124,-56,-1,-1,0
1523629266362,393216,-124,-56,-1,-1,0
1523629266401,262144,-124,-56,-1,-1,0
1523629266401,917504,-124,-56,-1,-1,0
1523629266401,851968,-124,-56,-1,-1,0
1523629266401,327680,-124,-56,-1,-1,0
1523629266401,720896,-124,-56,-1,-1,0
1523629266441,1048576,-124,-56,-1,-1,0
1523629266441,655360,-124,-56,-1,-1,0
1523629266441,524288,-124,-56,-1,-1,0
1523629266441,786432,-124,-56,-1,-1,0
1523629266441,917504,-124,-56,-1,-1,0
1523629266481,983040,-124,-56,-1,-1,0
1523629266481,589824,-124,-56,-1,-1,0
1523629266481,720896,-124,-56,-1,-1,0
1523629266481,1441792,-124,-56,-1,-1,0
1523629266481,1769472,-124,-56,-1,-1,0
1523629266521,1179648,-124,-56,-1,-1,0
1523629266521,1114112,-124,-56,-1,-1,0
1523629266521,1376256,-124,-56,-1,-1,0
1523629266521,1114112,-124,-56,-1,-1,0
1523629266521,1179648,-124,-56,-1,-1,0
1523629266561,1441792,-124,-56,-1,-1,0
1523629266561,1179648,-124,-56,-1,-1,0
1523629266561,655360,-124,-56,-1,-1,0
1523629266561,1114112,-124,-56,-1,-1,0
1523629266561,1245184,-124,-56,-1,-1,0
1523629266601,1179648,-124,-56,-1,-1,0
1523629266601,1114112,-124,-56,-1,-1,0
1523629266601,655360,-124,-56,-1,-1,0
1523629266601,0,-124,-56,-1,-1,0
1523629266601,983040,-124,-56,-1,-1,0
1523629266641,4259840,-124,-56,-1,-1,0
1523629266641,10223616,-124,-56,-1,-1,0
1523629266641,16449536,-124,-56,-1,-1,0
1523629266641,16777216,-124,-56,-1,-1,0
1523629266641,10223616,-124,-56,-1,-1,0
1523629266681,3407872,-124,-56,-1,-1,0
1523629266681,458752,-124,-56,-1,-1,0
1523629266681,262144,-124,-56,-1,-1,0
1523629266681,458752,-124,-56,-1,-1,0
1523629266681,393216,-124,-56,-1,-1,0
1523629266721,-196608,-124,-56,-1,-1,0
1523629266721,-458752,-124,-56,-1,-1,0
1523629266721,0,-124,-56,-1,-1,0
1523629266721,655360,-124,-56,-1,-1,0
1523629266721,917504,-124,-56,-1,-1,0
1523629266761,917504,-124,-56,-1,-1,0
1523629266761,917504,-124,-56,-1,-1,0
1523629266761,655360,-124,-56,-1,-1,0
1523629266761,655360,-124,-56,-1,-1,0
1523629266761,786432,-124,-56,-1,-1,0
1523629266801,1310720,-124,-56,-1,-1,0
1523629266801,1441792,-124,-56,-1,-1,0
1523629266801,1835008,-124,-56,-1,-1,0
1523629266801,1703936,-124,-56,-1,-1,0
1523629266801,851968,-124,-56,-1,-1,0
1523629266846,524288,-124,-56,-1,-1,0
1523629266846,327680,-124,-56,-1,-1,0
1523629266846,262144,-124,-56,-1,-1,0
1523629266846,327680,-124,-56,-1,-1,0
1523629266846,458752,-124,-56,-1,-1,0
1523629266881,393216,-124,-56,-1,-1,0
1523629266881,393216,-124,-56,-1,-1,0
1523629266881,65536,-124,-56,-1,-1,0
1523629266881,-131072,-124,-56,-1,-1,0
1523629266881,131072,-124,-56,-1,-1,0
1523629266921,720896,-124,-56,-1,-1,0
1523629266921,524288,-124,-56,-1,-1,0
1523629266921,65536,-124,-56,-1,-1,0
1523629266921,0,-124,-56,-1,-1,0
1523629266921,-196608,-124,-56,-1,-1,0
1523629266961,-589824,-124,-56,-1,-1,0
1523629266961,-851968,-124,-56,-1,-1,0
1523629266961,-851968,-124,-56,-1,-1,0
1523629266961,-786432,-124,-56,-1,-1,0
1523629266961,-196608,-124,-56,-1,-1,0
1523629267001,262144,-124,-56,-1,-1,0
1523629267001,327680,-124,-56,-1,-1,0
1523629267001,-65536,-124,-56,-1,-1,0
1523629267001,-655360,-124,-56,-1,-1,0
1523629267001,-851968,-124,-56,-1,-1,0
1523629267041,-458752,-124,-56,-1,-1,0
1523629267041,-655360,-124,-56,-1,-1,0
1523629267041,-1441792,-124,-56,-1,-1,0
1523629267041,-1572864,-124,-56,-1,-1,0
