milliseconds, ECG, ECG HR, PPG, PPG HR, SpO2, PI
0,9437184,102,-56,-1,-1,0
33,-1572864,102,-56,-1,-1,0
66,-983040,102,-56,-1,-1,0
100,-196608,102,-56,-1,-1,0
133,720896,102,-56,-1,-1,0
166,2818048,102,-56,-1,-1,0
200,4849664,102,-56,-1,-1,0
233,1835008,102,-56,-1,-1,0
266,65536,102,-56,-1,-1,0
300,-262144,102,-56,-1,-1,0
333,-655360,102,-56,-1,-1,0
366,-851968,102,-56,-1,-1,0
400,-983040,102,-56,-1,-1,0
433,-720896,102,-56,-1,-1,0
466,-983040,102,-56,-1,-1,0
500,-1114112,102,-56,-1,-1,0
533,-983040,102,-56,-1,-1,0
566,-1048576,102,-56,-1,-1,0
600,-1048576,102,-56,-1,-1,0
633,-1441792,102,-56,-1,-1,0
666,-65536,102,-56,-1,-1,0
700,-1245184,102,-56,-1,-1,0
733,8388608,102,-56,-1,-1,0
766,-1900544,102,-56,-1,-1,0
800,-1048576,102,-56,-1,-1,0
833,-196608,102,-56,-1,-1,0
866,262144,102,-56,-1,-1,0
900,2883584,102,-56,-1,-1,0
933,4784128,102,-56,-1,-1,0
966,2686976,102,-56,-1,-1,0
1000,458752,102,-56,-1,-1,0
1033,-393216,102,-56,-1,-1,0
1066,-196608,102,-56,-1,-1,0
1100,-1048576,102,-56,-1,-1,0
1133,-786432,102,-56,-1,-1,0
1166,-983040,102,-56,-1,-1,0
1200,-983040,102,-56,-1,-1,0
1233,-917504,102,-56,-1,-1,0
1266,-1245184,102,-56,-1,-1,0
1300,0,102,-56,-1,-1,0
1333,-1179648,102,-56,-1,-1,0
1366,9175040,102,-56,-1,-1,0
1400,-2686976,102,-56,-1,-1,0
1433,-917504,102,-56,-1,-1,0
1466,-458752,102,-56,-1,-1,0
1500,196608,102,-56,-1,-1,0
1533,2621440,102,-56,-1,-1,0
1566,4128768,102,-56,-1,-1,0
1600,1638400,102,-56,-1,-1,0
1633,0,102,-56,-1,-1,0
1666,-327680,102,-56,-1,-1,0
1700,-720896,102,-56,-1,-1,0
1733,-851968,102,-56,-1,-1,0
1766,-1048576,102,-56,-1,-1,0
1800,-1048576,102,-56,-1,-1,0
1833,-983040,102,-56,-1,-1,0
1866,-2097152,102,-56,-1,-1,0
1900,-524288,101,-56,-1,-1,0
1933,-1376256,101,-56,-1,-1,0
1966,4325376,101,-56,-1,-1,0
2000,-1572864,101,-56,-1,-1,0
2033,-1245184,101,-56,-1,-1,0
2066,-327680,101,-56,-1,-1,0
2100,655360,101,-56,-1,-1,0
2133,3080192,101,-56,-1,-1,0
2166,4128768,101,-56,-1,-1,0
2200,1179648,101,-56,-1,-1,0
2233,-327680,101,-56,-1,-1,0
2266,-655360,101,-56,-1,-1,0
2300,-1179648,101,-56,-1,-1,0
2333,-1114112,101,-56,-1,-1,0
2366,-1245184,101,-56,-1,-1,0
2400,-1769472,101,-56,-1,-1,0
2433,-851968,99,-56,-1,-1,0
2466,-1310720,99,-56,-1,-1,0
2500,7208960,99,-56,-1,-1,0
2533,-4194304,99,-56,-1,-1,0
2566,-1114112,99,-56,-1,-1,0
2600,-458752,99,-56,-1,-1,0
2633,327680,99,-56,-1,-1,0
2666,2162688,99,-56,-1,-1,0
2700,4456448,99,-56,-1,-1,0
2733,2228224,99,-56,-1,-1,0
2766,-65536,99,-56,-1,-1,0
2800,-851968,99,-56,-1,-1,0
2833,-589824,99,-56,-1,-1,0
2866,-1245184,99,-56,-1,-1,0
2900,-1048576,99,-56,-1,-1,0
2933,-1310720,99,-56,-1,-1,0
2966,-1900544,99,-56,-1,-1,0
3000,-720896,99,-56,-1,-1,0
3033,-1441792,98,-56,-1,-1,0
3066,-1310720,98,-56,-1,-1,0
3100,-1441792,98,-56,-1,-1,0
3133,-983040,98,-56,-1,-1,0
3166,-393216,98,-56,-1,-1,0
3200,1114112,98,-56,-1,-1,0
3233,3932160,98,-56,-1,-1,0
3266,4390912,98,-56,-1,-1,0
3300,655360,98,-56,-1,-1,0
3333,-458752,98,-56,-1,-1,0
3366,-720896,98,-56,-1,-1,0
3400,-851968,98,-56,-1,-1,0
3433,-1245184,98,-56,-1,-1,0
3466,-720896,98,-56,-1,-1,0
3500,-1376256,98,-56,-1,-1,0
3533,-2097152,98,-56,-1,-1,0
3566,-655360,95,-56,-1,-1,0
3600,-1376256,95,-56,-1,-1,0
3633,6291456,95,-56,-1,-1,0
3666,-2031616,95,-56,-1,-1,0
3699,-1310720,95,-56,-1,-1,0
3733,-720896,95,-56,-1,-1,0
3766,393216,95,-56,-1,-1,0
3800,3276800,95,-56,-1,-1,0
3833,4456448,95,-56,-1,-1,0
3866,1376256,95,-56,-1,-1,0
3900,-524288,95,-56,-1,-1,0
3933,-917504,95,-56,-1,-1,0
3966,-1114112,95,-56,-1,-1,0
4000,-786432,95,-56,-1,-1,0
4033,-1441792,95,-56,-1,-1,0
4066,-1507328,95,-56,-1,-1,0
4100,-983040,93,-56,-1,-1,0
4133,-1245184,93,-56,-1,-1,0
4166,2949120,93,-56,-1,-1,0
4200,-5177344,93,-56,-1,-1,0
4233,-1441792,93,-56,-1,-1,0
4266,-851968,93,-56,-1,-1,0
4300,65536,93,-56,-1,-1,0
4333,2162688,93,-56,-1,-1,0
4366,5177344,93,-56,-1,-1,0
4400,3342336,93,-56,-1,-1,0
4433,327680,93,-56,-1,-1,0
4466,-589824,93,-56,-1,-1,0
4500,-851968,93,-56,-1,-1,0
4533,-1179648,93,-56,-1,-1,0
4566,-1572864,93,-56,-1,-1,0
4600,-1835008,92,-56,-1,-1,0
4633,-1179648,92,-56,-1,-1,0
4666,-1310720,92,-56,-1,-1,0
4700,4456448,92,-56,-1,-1,0
4733,-6160384,92,-56,-1,-1,0
4766,-1507328,92,-56,-1,-1,0
4800,-1114112,92,-56,-1,-1,0
4833,131072,92,-56,-1,-1,0
4866,2162688,92,-56,-1,-1,0
4900,5308416,92,-56,-1,-1,0
4933,3080192,92,-56,-1,-1,0
4966,-131072,92,-56,-1,-1,0
5000,-655360,92,-56,-1,-1,0
5033,-786432,92,-56,-1,-1,0
5066,-1441792,92,-56,-1,-1,0
5100,-1507328,92,-56,-1,-1,0
5133,-2031616,92,-56,-1,-1,0
5166,-983040,92,-56,-1,-1,0
5200,-1179648,92,-56,-1,-1,0
5233,1376256,92,-56,-1,-1,0
5266,-1900544,92,-56,-1,-1,0
5300,-1245184,92,-56,-1,-1,0
5333,-393216,92,-56,-1,-1,0
5366,917504,92,-56,-1,-1,0
5400,3670016,92,-56,-1,-1,0
5433,4194304,92,-56,-1,-1,0
5466,655360,92,-56,-1,-1,0
5500,-655360,92,-56,-1,-1,0
5533,-589824,92,-56,-1,-1,0
5566,-786432,92,-56,-1,-1,0
5600,-1048576,92,-56,-1,-1,0
5633,-1835008,92,-56,-1,-1,0
5666,-458752,92,-56,-1,-1,0
5700,-1179648,92,-56,-1,-1,0
5733,9568256,92,-56,-1,-1,0
5766,-2752512,92,-56,-1,-1,0
5800,-1179648,92,-56,-1,-1,0
5833,-655360,92,-56,-1,-1,0
5866,196608,92,-56,-1,-1,0
5900,2359296,92,-56,-1,-1,0
5933,4194304,92,-56,-1,-1,0
5966,1507328,92,-56,-1,-1,0
6000,0,92,-56,-1,-1,0
6033,-393216,92,-56,-1,-1,0
6066,-655360,92,-56,-1,-1,0
6100,-655360,92,-56,-1,-1,0
6133,-1048576,92,-56,-1,-1,0
6166,-1835008,92,-56,-1,-1,0
6200,-393216,92,-56,-1,-1,0
6233,-1245184,92,-56,-1,-1,0
6266,8257536,92,-56,-1,-1,0
6300,-1900544,92,-56,-1,-1,0
6333,-1310720,92,-56,-1,-1,0
6366,-589824,92,-56,-1,-1,0
6400,589824,92,-56,-1,-1,0
6433,3342336,92,-56,-1,-1,0
6466,4784128,92,-56,-1,-1,0
6500,1114112,92,-56,-1,-1,0
6533,-458752,92,-56,-1,-1,0
6566,-851968,92,-56,-1,-1,0
6600,-1048576,92,-56,-1,-1,0
6633,-1310720,92,-56,-1,-1,0
6666,-1376256,92,-56,-1,-1,0
6700,-2031616,92,-56,-1,-1,0
6733,-917504,91,-56,-1,-1,0
6766,-1638400,91,-56,-1,-1,0
6800,9633792,91,-56,-1,-1,0
6833,-3473408,91,-56,-1,-1,0
6866,-1245184,91,-56,-1,-1,0
6899,-589824,91,-56,-1,-1,0
6933,655360,91,-56,-1,-1,0
6966,2818048,91,-56,-1,-1,0
7000,4456448,91,-56,-1,-1,0
7033,1572864,91,-56,-1,-1,0
7066,-196608,91,-56,-1,-1,0
7100,-393216,91,-56,-1,-1,0
7133,-655360,91,-56,-1,-1,0
7166,-1245184,91,-56,-1,-1,0
7200,-1245184,91,-56,-1,-1,0
7233,-1572864,91,-56,-1,-1,0
7266,-1572864,90,-56,-1,-1,0
7300,-1376256,90,-56,-1,-1,0
7333,2490368,90,-56,-1,-1,0
7366,-6619136,90,-56,-1,-1,0
7399,-1245184,90,-56,-1,-1,0
7433,-786432,90,-56,-1,-1,0
7466,327680,90,-56,-1,-1,0
7500,2162688,90,-56,-1,-1,0
7533,3538944,90,-56,-1,-1,0
7566,2686976,90,-56,-1,-1,0
7600,131072,90,-56,-1,-1,0
7633,-327680,90,-56,-1,-1,0
7666,-786432,90,-56,-1,-1,0
7700,-983040,90,-56,-1,-1,0
7733,-1179648,90,-56,-1,-1,0
7766,-1572864,90,-56,-1,-1,0
7800,-1638400,90,-56,-1,-1,0
7833,-1310720,92,-56,-1,-1,0
7866,1048576,92,-56,-1,-1,0
7899,-6881280,92,-56,-1,-1,0
7933,-1441792,92,-56,-1,-1,0
7966,-786432,92,-56,-1,-1,0
8000,196608,92,-56,-1,-1,0
8033,1835008,92,-56,-1,-1,0
8066,3670016,92,-56,-1,-1,0
8100,2818048,92,-56,-1,-1,0
8133,0,92,-56,-1,-1,0
8166,-393216,92,-56,-1,-1,0
8200,-720896,92,-56,-1,-1,0
8233,-917504,92,-56,-1,-1,0
8266,-1507328,92,-56,-1,-1,0
8300,-1376256,92,-56,-1,-1,0
8333,-1441792,92,-56,-1,-1,0
8366,-1703936,92,-56,-1,-1,0
8400,-1638400,92,-56,-1,-1,0
8433,2752512,91,-56,-1,-1,0
8466,-5505024,91,-56,-1,-1,0
8500,-1507328,91,-56,-1,-1,0
8533,-786432,91,-56,-1,-1,0
8566,0,91,-56,-1,-1,0
8600,1507328,91,-56,-1,-1,0
8633,4194304,91,-56,-1,-1,0
8666,3145728,91,-56,-1,-1,0
8700,393216,91,-56,-1,-1,0
8733,-262144,91,-56,-1,-1,0
8766,-655360,91,-56,-1,-1,0
8800,-1048576,91,-56,-1,-1,0
8833,-1114112,91,-56,-1,-1,0
8866,-1310720,91,-56,-1,-1,0
8900,-917504,91,-56,-1,-1,0
8933,-1835008,91,-56,-1,-1,0
8966,-983040,91,-56,-1,-1,0
9000,-1179648,91,-56,-1,-1,0
9033,8585216,91,-56,-1,-1,0
9066,-3342336,91,-56,-1,-1,0
9100,-1310720,91,-56,-1,-1,0
9133,-720896,91,-56,-1,-1,0
9166,131072,91,-56,-1,-1,0
9200,2031616,91,-56,-1,-1,0
9233,4784128,91,-56,-1,-1,0
9266,2555904,91,-56,-1,-1,0
9300,65536,91,-56,-1,-1,0
9333,-393216,91,-56,-1,-1,0
9366,-1048576,91,-56,-1,-1,0
9400,-1179648,91,-56,-1,-1,0
9433,-1310720,91,-56,-1,-1,0
9466,-1179648,91,-56,-1,-1,0
9500,-1441792,91,-56,-1,-1,0
9533,-1966080,91,-56,-1,-1,0
9566,-917504,91,-56,-1,-1,0
9600,-917504,91,-56,-1,-1,0
9633,-2818048,91,-56,-1,-1,0
9666,-1507328,91,-56,-1,-1,0
9700,-1048576,91,-56,-1,-1,0
9733,-262144,91,-56,-1,-1,0
9766,1441792,91,-56,-1,-1,0
9800,4128768,91,-56,-1,-1,0
9833,5242880,91,-56,-1,-1,0
9866,917504,91,-56,-1,-1,0
9900,-262144,91,-56,-1,-1,0
9933,-720896,91,-56,-1,-1,0
9966,-917504,91,-56,-1,-1,0
10000,-1179648,91,-56,-1,-1,0
10033,-1048576,91,-56,-1,-1,0
10066,-1703936,91,-56,-1,-1,0
10100,-393216,91,-56,-1,-1,0
10133,-1310720,91,-56,-1,-1,0
10166,9306112,91,-56,-1,-1,0
10200,-3735552,91,-56,-1,-1,0
10233,-1114112,91,-56,-1,-1,0
10266,-393216,91,-56,-1,-1,0
10300,786432,91,-56,-1,-1,0
10333,3080192,91,-56,-1,-1,0
10366,5308416,91,-56,-1,-1,0
10400,2359296,91,-56,-1,-1,0
10433,-65536,91,-56,-1,-1,0
10466,-851968,91,-56,-1,-1,0
10500,-1048576,91,-56,-1,-1,0
10533,-1441792,91,-56,-1,-1,0
10566,-1638400,91,-56,-1,-1,0
10600,-1769472,91,-56,-1,-1,0
10633,-1572864,92,-56,-1,-1,0
10666,-1638400,92,-56,-1,-1,0
10700,1638400,92,-56,-1,-1,0
10733,-7274496,92,-56,-1,-1,0
10766,-1572864,92,-56,-1,-1,0
10800,-1179648,92,-56,-1,-1,0
10833,0,92,-56,-1,-1,0
10866,1638400,92,-56,-1,-1,0
10900,4587520,92,-56,-1,-1,0
10933,3276800,92,-56,-1,-1,0
10966,65536,92,-56,-1,-1,0
11000,-655360,92,-56,-1,-1,0
11033,-851968,92,-56,-1,-1,0
11066,-1245184,92,-56,-1,-1,0
11100,-983040,92,-56,-1,-1,0
11133,-1441792,92,-56,-1,-1,0
11166,-1376256,92,-56,-1,-1,0
11200,-1179648,92,-56,-1,-1,0
11233,-983040,92,-56,-1,-1,0
11266,-2228224,92,-56,-1,-1,0
11300,-1441792,92,-56,-1,-1,0
11333,-1179648,92,-56,-1,-1,0
11366,-196608,92,-56,-1,-1,0
11400,1310720,92,-56,-1,-1,0
11433,4128768,92,-56,-1,-1,0
11466,4325376,92,-56,-1,-1,0
11500,524288,92,-56,-1,-1,0
11533,-393216,92,-56,-1,-1,0
11566,-1048576,92,-56,-1,-1,0
11600,-983040,92,-56,-1,-1,0
11633,-983040,92,-56,-1,-1,0
11666,-1376256,92,-56,-1,-1,0
11700,-983040,92,-56,-1,-1,0
11733,-983040,92,-56,-1,-1,0
11766,720896,92,-56,-1,-1,0
11800,-5832704,92,-56,-1,-1,0
11833,-1048576,92,-56,-1,-1,0
11866,-851968,92,-56,-1,-1,0
11900,65536,92,-56,-1,-1,0
11933,2031616,92,-56,-1,-1,0
11966,4915200,92,-56,-1,-1,0
12000,3866624,92,-56,-1,-1,0
12033,327680,92,-56,-1,-1,0
12066,-589824,92,-56,-1,-1,0
12100,-786432,92,-56,-1,-1,0
12133,-1048576,92,-56,-1,-1,0
12166,-1441792,92,-56,-1,-1,0
12200,-1376256,92,-56,-1,-1,0
12233,-2162688,92,-56,-1,-1,0
12266,-917504,92,-56,-1,-1,0
12300,-1835008,92,-56,-1,-1,0
12333,3932160,92,-56,-1,-1,0
12366,-2097152,92,-56,-1,-1,0
12400,-1441792,92,-56,-1,-1,0
12433,-983040,92,-56,-1,-1,0
12466,1245184,92,-56,-1,-1,0
12500,3276800,92,-56,-1,-1,0
12533,4915200,92,-56,-1,-1,0
12566,786432,92,-56,-1,-1,0
12600,-458752,92,-56,-1,-1,0
12633,-1179648,92,-56,-1,-1,0
12666,-1114112,92,-56,-1,-1,0
12700,-1769472,92,-56,-1,-1,0
12733,-2293760,92,-56,-1,-1,0
12766,-917504,92,-56,-1,-1,0
12800,-1507328,92,-56,-1,-1,0
12833,9568256,92,-56,-1,-1,0
12866,-3670016,92,-56,-1,-1,0
12900,-1376256,92,-56,-1,-1,0
12933,-524288,92,-56,-1,-1,0
12966,655360,92,-56,-1,-1,0
13000,3080192,92,-56,-1,-1,0
13033,4587520,92,-56,-1,-1,0
13066,1310720,92,-56,-1,-1,0
13100,-65536,92,-56,-1,-1,0
13133,-458752,92,-56,-1,-1,0
13166,-655360,92,-56,-1,-1,0
13200,-983040,92,-56,-1,-1,0
13233,-851968,92,-56,-1,-1,0
13266,-1507328,92,-56,-1,-1,0
13299,-458752,92,-56,-1,-1,0
13333,-917504,92,-56,-1,-1,0
13366,4784128,92,-56,-1,-1,0
13400,-1310720,92,-56,-1,-1,0
13433,-917504,92,-56,-1,-1,0
13466,-65536,92,-56,-1,-1,0
13500,1048576,92,-56,-1,-1,0
13533,3407872,92,-56,-1,-1,0
13566,3866624,92,-56,-1,-1,0
13600,524288,92,-56,-1,-1,0
13633,-393216,92,-56,-1,-1,0
13666,-720896,92,-56,-1,-1,0
13700,-1114112,92,-56,-1,-1,0
13733,-1310720,92,-56,-1,-1,0
13766,-1310720,92,-56,-1,-1,0
13799,-2031616,92,-56,-1,-1,0
13833,-983040,92,-56,-1,-1,0
13866,-1507328,92,-56,-1,-1,0
13900,6225920,92,-56,-1,-1,0
13933,-4915200,92,-56,-1,-1,0
13966,-1441792,92,-56,-1,-1,0
14000,-983040,92,-56,-1,-1,0
14033,131072,92,-56,-1,-1,0
14066,2228224,92,-56,-1,-1,0
14100,4456448,92,-56,-1,-1,0
14133,2162688,92,-56,-1,-1,0
14166,-262144,92,-56,-1,-1,0
14200,-655360,92,-56,-1,-1,0
14233,-917504,92,-56,-1,-1,0
14266,-1245184,92,-56,-1,-1,0
14299,-1376256,92,-56,-1,-1,0
14333,-1572864,92,-56,-1,-1,0
14366,-1900544,92,-56,-1,-1,0
14400,-983040,92,-56,-1,-1,0
14433,-983040,92,-56,-1,-1,0
14466,-2686976,92,-56,-1,-1,0
14500,-1376256,92,-56,-1,-1,0
14533,-851968,92,-56,-1,-1,0
14566,0,92,-56,-1,-1,0
14600,1376256,92,-56,-1,-1,0
14633,3735552,92,-56,-1,-1,0
14666,3538944,92,-56,-1,-1,0
14700,262144,92,-56,-1,-1,0
14733,-262144,92,-56,-1,-1,0
14766,-589824,92,-56,-1,-1,0
14799,-917504,92,-56,-1,-1,0
14833,-1048576,92,-56,-1,-1,0
14866,-1245184,92,-56,-1,-1,0
14900,-1769472,92,-56,-1,-1,0
14933,-1048576,92,-56,-1,-1,0
14966,-1048576,92,-56,-1,-1,0
15000,1114112,92,-56,-1,-1,0
15033,-1376256,92,-56,-1,-1,0
15066,-983040,92,-56,-1,-1,0
15100,-65536,92,-56,-1,-1,0
15133,1376256,92,-56,-1,-1,0
15166,3801088,92,-56,-1,-1,0
15200,3801088,92,-56,-1,-1,0
15233,458752,92,-56,-1,-1,0
15266,-458752,92,-56,-1,-1,0
15299,-720896,92,-56,-1,-1,0
15333,-851968,92,-56,-1,-1,0
15366,-1310720,92,-56,-1,-1,0
15400,-1245184,92,-56,-1,-1,0
15433,-1376256,92,-56,-1,-1,0
15466,-1638400,92,-56,-1,-1,0
15500,-1179648,92,-56,-1,-1,0
15533,393216,92,-56,-1,-1,0
15566,-6160384,92,-56,-1,-1,0
15600,-1441792,92,-56,-1,-1,0
15633,-917504,92,-56,-1,-1,0
15666,0,92,-56,-1,-1,0
15700,1835008,92,-56,-1,-1,0
15733,4259840,92,-56,-1,-1,0
15766,3801088,92,-56,-1,-1,0
15799,393216,92,-56,-1,-1,0
15833,-262144,92,-56,-1,-1,0
15866,-589824,92,-56,-1,-1,0
15900,-851968,92,-56,-1,-1,0
15933,-1114112,92,-56,-1,-1,0
15966,-1114112,92,-56,-1,-1,0
16000,-1245184,92,-56,-1,-1,0
16033,-1310720,92,-56,-1,-1,0
16066,-983040,92,-56,-1,-1,0
16100,-1179648,92,-56,-1,-1,0
16133,4325376,91,-56,-1,-1,0
16166,-5636096,91,-56,-1,-1,0
16200,-1310720,91,-56,-1,-1,0
16233,-786432,91,-56,-1,-1,0
16266,262144,91,-56,-1,-1,0
16300,2293760,91,-56,-1,-1,0
16333,4915200,91,-56,-1,-1,0
16366,3670016,91,-56,-1,-1,0
16400,393216,91,-56,-1,-1,0
16433,-262144,91,-56,-1,-1,0
16466,-589824,91,-56,-1,-1,0
16500,-851968,91,-56,-1,-1,0
16533,-1048576,91,-56,-1,-1,0
16566,-1048576,91,-56,-1,-1,0
16600,-1245184,91,-56,-1,-1,0
16633,-1572864,91,-56,-1,-1,0
16666,-851968,91,-56,-1,-1,0
16700,-1441792,91,-56,-1,-1,0
16733,8650752,91,-56,-1,-1,0
16766,-3997696,91,-56,-1,-1,0
16800,-1376256,91,-56,-1,-1,0
16833,-655360,91,-56,-1,-1,0
16866,524288,91,-56,-1,-1,0
16900,2621440,91,-56,-1,-1,0
16933,4718592,91,-56,-1,-1,0
16966,2293760,91,-56,-1,-1,0
17000,-196608,91,-56,-1,-1,0
17033,-458752,91,-56,-1,-1,0
17066,-917504,91,-56,-1,-1,0
17100,-1245184,91,-56,-1,-1,0
17133,-1245184,91,-56,-1,-1,0
17166,-1376256,91,-56,-1,-1,0
17200,-1835008,91,-56,-1,-1,0
17233,-1179648,91,-56,-1,-1,0
17266,-851968,91,-56,-1,-1,0
17300,-3866624,91,-56,-1,-1,0
17333,-1703936,91,-56,-1,-1,0
17366,-1048576,91,-56,-1,-1,0
17400,-65536,91,-56,-1,-1,0
17433,1441792,91,-56,-1,-1,0
17466,4063232,91,-56,-1,-1,0
17500,3866624,91,-56,-1,-1,0
17533,262144,91,-56,-1,-1,0
17566,-327680,91,-56,-1,-1,0
17600,-524288,91,-56,-1,-1,0
17633,-917504,91,-56,-1,-1,0
17666,-1048576,91,-56,-1,-1,0
17700,-1245184,91,-56,-1,-1,0
17733,-1376256,91,-56,-1,-1,0
17766,-1966080,91,-56,-1,-1,0
17800,-1114112,91,-56,-1,-1,0
17833,-983040,91,-56,-1,-1,0
17866,-3473408,91,-56,-1,-1,0
17900,-1572864,91,-56,-1,-1,0
17933,-983040,91,-56,-1,-1,0
17966,0,91,-56,-1,-1,0
18000,1638400,91,-56,-1,-1,0
18033,4259840,91,-56,-1,-1,0
18066,4456448,91,-56,-1,-1,0
18100,851968,91,-56,-1,-1,0
18133,-262144,91,-56,-1,-1,0
18166,-262144,91,-56,-1,-1,0
18200,-851968,91,-56,-1,-1,0
18233,-851968,91,-56,-1,-1,0
18266,-1114112,91,-56,-1,-1,0
18300,-1245184,91,-56,-1,-1,0
18333,-1835008,91,-56,-1,-1,0
18366,-851968,91,-56,-1,-1,0
18400,-1048576,91,-56,-1,-1,0
18433,-1703936,91,-56,-1,-1,0
18466,-1769472,91,-56,-1,-1,0
18500,-1179648,91,-56,-1,-1,0
18533,-196608,91,-56,-1,-1,0
18566,1376256,91,-56,-1,-1,0
18600,3932160,91,-56,-1,-1,0
18633,4194304,91,-56,-1,-1,0
18666,589824,91,-56,-1,-1,0
18700,-458752,91,-56,-1,-1,0
18733,-720896,91,-56,-1,-1,0
18766,-1048576,91,-56,-1,-1,0
18800,-1245184,91,-56,-1,-1,0
18833,-1245184,91,-56,-1,-1,0
18866,-1245184,91,-56,-1,-1,0
18900,-1507328,91,-56,-1,-1,0
18933,-1179648,91,-56,-1,-1,0
18966,393216,90,-56,-1,-1,0
19000,-5832704,90,-56,-1,-1,0
19033,-1441792,90,-56,-1,-1,0
19066,-786432,90,-56,-1,-1,0
19100,0,90,-56,-1,-1,0
19133,1769472,90,-56,-1,-1,0
19166,4259840,90,-56,-1,-1,0
19200,3538944,90,-56,-1,-1,0
19233,196608,90,-56,-1,-1,0
19266,-393216,90,-56,-1,-1,0
19300,-589824,90,-56,-1,-1,0
19333,-1048576,90,-56,-1,-1,0
19366,-1245184,90,-56,-1,-1,0
19400,-1376256,90,-56,-1,-1,0
19433,-1310720,90,-56,-1,-1,0
19466,-1507328,90,-56,-1,-1,0
19500,-786432,90,-56,-1,-1,0
19533,-1245184,90,-56,-1,-1,0
19566,8126464,90,-56,-1,-1,0
19600,-4194304,90,-56,-1,-1,0
19633,-1441792,90,-56,-1,-1,0
19666,-589824,90,-56,-1,-1,0
19700,458752,90,-56,-1,-1,0
19733,3080192,90,-56,-1,-1,0
19766,5046272,90,-56,-1,-1,0
19800,2686976,90,-56,-1,-1,0
19833,-65536,90,-56,-1,-1,0
19866,-393216,90,-56,-1,-1,0
19900,-917504,90,-56,-1,-1,0
19933,-1114112,90,-56,-1,-1,0
19966,-1310720,90,-56,-1,-1,0
20000,-1572864,90,-56,-1,-1,0
20033,-1114112,90,-56,-1,-1,0
20066,-1245184,90,-56,-1,-1,0
20100,2162688,90,-56,-1,-1,0
20133,-5898240,90,-56,-1,-1,0
20166,-1179648,90,-56,-1,-1,0
20200,-655360,90,-56,-1,-1,0
20233,327680,90,-56,-1,-1,0
20266,2293760,90,-56,-1,-1,0
20300,4653056,90,-56,-1,-1,0
20333,3080192,90,-56,-1,-1,0
20366,0,90,-56,-1,-1,0
20400,-393216,90,-56,-1,-1,0
20433,-720896,90,-56,-1,-1,0
20466,-1048576,90,-56,-1,-1,0
20500,-1310720,90,-56,-1,-1,0
20533,-1441792,90,-56,-1,-1,0
20566,-1769472,90,-56,-1,-1,0
20600,-1638400,90,-56,-1,-1,0
20633,-1376256,89,-56,-1,-1,0
20666,3080192,89,-56,-1,-1,0
20700,-6094848,89,-56,-1,-1,0
20733,-1572864,89,-56,-1,-1,0
20766,-851968,89,-56,-1,-1,0
20800,65536,89,-56,-1,-1,0
20833,2424832,89,-56,-1,-1,0
20866,4521984,89,-56,-1,-1,0
20900,3407872,89,-56,-1,-1,0
20933,0,89,-56,-1,-1,0
20966,-131072,89,-56,-1,-1,0
21000,-458752,89,-56,-1,-1,0
21033,-917504,89,-56,-1,-1,0
21066,-917504,89,-56,-1,-1,0
21100,-1245184,89,-56,-1,-1,0
21133,-1310720,89,-56,-1,-1,0
21166,-1114112,89,-56,-1,-1,0
21200,-1245184,89,-56,-1,-1,0
21233,4194304,89,-56,-1,-1,0
21266,-5701632,89,-56,-1,-1,0
21300,-1376256,89,-56,-1,-1,0
21333,-1048576,89,-56,-1,-1,0
21366,327680,89,-56,-1,-1,0
21400,2031616,89,-56,-1,-1,0
21433,4390912,89,-56,-1,-1,0
21466,2949120,89,-56,-1,-1,0
21500,0,89,-56,-1,-1,0
21533,-327680,89,-56,-1,-1,0
21566,-458752,89,-56,-1,-1,0
21600,-851968,89,-56,-1,-1,0
21633,-851968,89,-56,-1,-1,0
21666,-1245184,89,-56,-1,-1,0
21700,-1179648,89,-56,-1,-1,0
21733,-1638400,89,-56,-1,-1,0
21766,-851968,88,-56,-1,-1,0
21800,-196608,88,-56,-1,-1,0
21833,-4849664,88,-56,-1,-1,0
21866,-1310720,88,-56,-1,-1,0
21900,-1114112,88,-56,-1,-1,0
21933,-327680,88,-56,-1,-1,0
21966,1507328,88,-56,-1,-1,0
22000,4063232,88,-56,-1,-1,0
22033,4325376,88,-56,-1,-1,0
22066,524288,88,-56,-1,-1,0
22100,-262144,88,-56,-1,-1,0
22133,-589824,88,-56,-1,-1,0
22166,-851968,88,-56,-1,-1,0
22200,-1179648,88,-56,-1,-1,0
22233,-1376256,88,-56,-1,-1,0
22266,-1441792,88,-56,-1,-1,0
22300,-655360,88,-56,-1,-1,0
22333,-1245184,88,-56,-1,-1,0
22366,7471104,88,-56,-1,-1,0
22400,-2359296,88,-56,-1,-1,0
22433,-1310720,88,-56,-1,-1,0
22466,-327680,88,-56,-1,-1,0
22500,1048576,88,-56,-1,-1,0
22533,3670016,88,-56,-1,-1,0
22566,4915200,88,-56,-1,-1,0
22600,1572864,88,-56,-1,-1,0
22633,-262144,88,-56,-1,-1,0
22666,-655360,88,-56,-1,-1,0
22700,-917504,88,-56,-1,-1,0
22733,-1376256,88,-56,-1,-1,0
22766,-1507328,88,-56,-1,-1,0
22800,-1507328,88,-56,-1,-1,0
22833,-2293760,88,-56,-1,-1,0
22866,-1179648,88,-56,-1,-1,0
22900,-1703936,88,-56,-1,-1,0
22933,8192000,88,-56,-1,-1,0
22966,-2162688,88,-56,-1,-1,0
23000,-1245184,88,-56,-1,-1,0
23033,-589824,88,-56,-1,-1,0
23066,786432,88,-56,-1,-1,0
23100,3211264,88,-56,-1,-1,0
23133,4390912,88,-56,-1,-1,0
23166,1310720,88,-56,-1,-1,0
23200,-131072,88,-56,-1,-1,0
23233,-458752,88,-56,-1,-1,0
23266,-786432,88,-56,-1,-1,0
23300,-1048576,88,-56,-1,-1,0
23333,-1310720,88,-56,-1,-1,0
23366,-1441792,88,-56,-1,-1,0
23400,-1966080,88,-56,-1,-1,0
23433,-1048576,88,-56,-1,-1,0
23466,-851968,88,-56,-1,-1,0
23500,-2293760,88,-56,-1,-1,0
23533,-1441792,88,-56,-1,-1,0
23566,-983040,88,-56,-1,-1,0
23600,0,88,-56,-1,-1,0
23633,1507328,88,-56,-1,-1,0
23666,3538944,88,-56,-1,-1,0
23700,3670016,88,-56,-1,-1,0
23733,327680,88,-56,-1,-1,0
23766,-327680,88,-56,-1,-1,0
23800,-786432,88,-56,-1,-1,0
23833,-1048576,88,-56,-1,-1,0
23866,-1179648,88,-56,-1,-1,0
23900,-1179648,88,-56,-1,-1,0
23933,-1310720,88,-56,-1,-1,0
23966,-2031616,88,-56,-1,-1,0
24000,-720896,88,-56,-1,-1,0
24033,-917504,88,-56,-1,-1,0
24066,-131072,88,-56,-1,-1,0
24100,-1376256,88,-56,-1,-1,0
24133,-851968,88,-56,-1,-1,0
24166,-262144,88,-56,-1,-1,0
24200,1048576,88,-56,-1,-1,0
24233,3473408,88,-56,-1,-1,0
24266,4390912,88,-56,-1,-1,0
24300,1114112,88,-56,-1,-1,0
24333,-327680,88,-56,-1,-1,0
24366,-589824,88,-56,-1,-1,0
24400,-917504,88,-56,-1,-1,0
24433,-1048576,88,-56,-1,-1,0
24466,-1245184,88,-56,-1,-1,0
24500,-1179648,88,-56,-1,-1,0
24533,-1179648,88,-56,-1,-1,0
24566,-1179648,88,-56,-1,-1,0
24600,-983040,88,-56,-1,-1,0
24633,1507328,88,-56,-1,-1,0
24666,-6488064,88,-56,-1,-1,0
24700,-1376256,88,-56,-1,-1,0
24733,-917504,88,-56,-1,-1,0
24766,-262144,88,-56,-1,-1,0
24800,1835008,88,-56,-1,-1,0
24833,4456448,88,-56,-1,-1,0
24866,4063232,88,-56,-1,-1,0
24900,327680,88,-56,-1,-1,0
24933,-589824,88,-56,-1,-1,0
24966,-851968,88,-56,-1,-1,0
25000,-1179648,88,-56,-1,-1,0
25033,-1441792,88,-56,-1,-1,0
25066,-1703936,88,-56,-1,-1,0
25100,-1638400,88,-56,-1,-1,0
25133,-1441792,88,-56,-1,-1,0
25166,-1114112,88,-56,-1,-1,0
25200,-3211264,88,-56,-1,-1,0
25233,-1769472,88,-56,-1,-1,0
25266,-1114112,88,-56,-1,-1,0
25300,-393216,88,-56,-1,-1,0
25333,1376256,88,-56,-1,-1,0
25366,3801088,88,-56,-1,-1,0
25400,3997696,88,-56,-1,-1,0
25433,851968,88,-56,-1,-1,0
25466,-393216,88,-56,-1,-1,0
25500,-524288,88,-56,-1,-1,0
25533,-851968,88,-56,-1,-1,0
25566,-983040,88,-56,-1,-1,0
25600,-1114112,88,-56,-1,-1,0
25633,-1769472,88,-56,-1,-1,0
25666,-393216,88,-56,-1,-1,0
25700,-1310720,88,-56,-1,-1,0
25733,1769472,88,-56,-1,-1,0
25766,-1572864,88,-56,-1,-1,0
25800,-1179648,88,-56,-1,-1,0
25833,-65536,88,-56,-1,-1,0
25866,1245184,88,-56,-1,-1,0
25900,3342336,88,-56,-1,-1,0
25933,4653056,88,-56,-1,-1,0
25966,720896,88,-56,-1,-1,0
26000,-327680,88,-56,-1,-1,0
26033,-458752,88,-56,-1,-1,0
26066,-851968,88,-56,-1,-1,0
26099,-1048576,88,-56,-1,-1,0
26133,-1179648,88,-56,-1,-1,0
26166,-1572864,89,-56,-1,-1,0
26200,-786432,89,-56,-1,-1,0
26233,-1310720,89,-56,-1,-1,0
26266,5046272,89,-56,-1,-1,0
26300,-5636096,89,-56,-1,-1,0
26333,-1376256,89,-56,-1,-1,0
26366,-720896,89,-56,-1,-1,0
26400,196608,89,-56,-1,-1,0
26433,2490368,89,-56,-1,-1,0
26466,4653056,89,-56,-1,-1,0
26500,3014656,89,-56,-1,-1,0
26533,-196608,89,-56,-1,-1,0
26566,-655360,89,-56,-1,-1,0
26599,-1179648,89,-56,-1,-1,0
26633,-1376256,89,-56,-1,-1,0
26666,-1441792,89,-56,-1,-1,0
26700,-2424832,89,-56,-1,-1,0
26733,-1179648,89,-56,-1,-1,0
26766,-1245184,89,-56,-1,-1,0
26800,3407872,89,-56,-1,-1,0
26833,-1900544,89,-56,-1,-1,0
26866,-1441792,89,-56,-1,-1,0
26900,-458752,89,-56,-1,-1,0
26933,1048576,89,-56,-1,-1,0
26966,3407872,89,-56,-1,-1,0
27000,4194304,89,-56,-1,-1,0
27033,524288,89,-56,-1,-1,0
27066,-524288,89,-56,-1,-1,0
27099,-786432,89,-56,-1,-1,0
27133,-1048576,89,-56,-1,-1,0
27166,-1572864,89,-56,-1,-1,0
27200,-1703936,89,-56,-1,-1,0
27233,-1441792,89,-56,-1,-1,0
27266,-1179648,89,-56,-1,-1,0
27300,262144,89,-56,-1,-1,0
27333,-6291456,89,-56,-1,-1,0
27366,-1441792,89,-56,-1,-1,0
27400,-786432,89,-56,-1,-1,0
27433,196608,89,-56,-1,-1,0
27466,2359296,89,-56,-1,-1,0
27500,4456448,89,-56,-1,-1,0
27533,3014656,89,-56,-1,-1,0
27566,196608,89,-56,-1,-1,0
27599,-589824,89,-56,-1,-1,0
27633,-720896,89,-56,-1,-1,0
27666,-1441792,89,-56,-1,-1,0
27700,-1441792,89,-56,-1,-1,0
27733,-1966080,89,-56,-1,-1,0
27766,-524288,89,-56,-1,-1,0
27800,-1310720,90,-56,-1,-1,0
27833,10092544,90,-56,-1,-1,0
27866,-2490368,90,-56,-1,-1,0
27900,-1245184,90,-56,-1,-1,0
27933,-720896,90,-56,-1,-1,0
27966,786432,90,-56,-1,-1,0
28000,3080192,90,-56,-1,-1,0
28033,4784128,90,-56,-1,-1,0
28066,1638400,90,-56,-1,-1,0
28099,-196608,90,-56,-1,-1,0
28133,-524288,90,-56,-1,-1,0
28166,-1048576,90,-56,-1,-1,0
28200,-1376256,90,-56,-1,-1,0
28233,-1441792,90,-56,-1,-1,0
28266,-1638400,90,-56,-1,-1,0
28300,-1900544,90,-56,-1,-1,0
28333,-983040,89,-56,-1,-1,0
28366,-1507328,89,-56,-1,-1,0
28400,7208960,89,-56,-1,-1,0
28433,-2097152,89,-56,-1,-1,0
28466,-1376256,89,-56,-1,-1,0
28500,-458752,89,-56,-1,-1,0
28533,655360,89,-56,-1,-1,0
28566,3407872,89,-56,-1,-1,0
28599,4587520,89,-56,-1,-1,0
28633,1572864,89,-56,-1,-1,0
28666,-131072,89,-56,-1,-1,0
28700,-393216,89,-56,-1,-1,0
28733,-655360,89,-56,-1,-1,0
28766,-917504,89,-56,-1,-1,0
28800,-1179648,89,-56,-1,-1,0
28833,-1310720,89,-56,-1,-1,0
28866,-1245184,89,-56,-1,-1,0
28900,-1048576,89,-56,-1,-1,0
28933,131072,89,-56,-1,-1,0
28966,-6160384,89,-56,-1,-1,0
29000,-1507328,89,-56,-1,-1,0
29033,-1245184,89,-56,-1,-1,0
29066,-327680,89,-56,-1,-1,0
29099,1441792,89,-56,-1,-1,0
29133,4063232,89,-56,-1,-1,0
29166,3801088,89,-56,-1,-1,0
29200,393216,89,-56,-1,-1,0
29233,-262144,89,-56,-1,-1,0
29266,-196608,89,-56,-1,-1,0
29300,-655360,89,-56,-1,-1,0
29333,-720896,89,-56,-1,-1,0
29366,-851968,89,-56,-1,-1,0
29400,-1048576,89,-56,-1,-1,0
29433,-196608,90,-56,-1,-1,0
29466,-786432,90,-56,-1,-1,0
29500,7274496,90,-56,-1,-1,0
29533,-4390912,90,-56,-1,-1,0
29566,-917504,90,-56,-1,-1,0
29599,-327680,90,-56,-1,-1,0
29633,655360,90,-56,-1,-1,0
29666,2883584,90,-56,-1,-1,0
29700,5111808,90,-56,-1,-1,0
29733,3014656,90,-56,-1,-1,0
29766,65536,90,-56,-1,-1,0
29800,-393216,90,-56,-1,-1,0
29833,-851968,90,-56,-1,-1,0
29866,-1376256,90,-56,-1,-1,0
29900,-1507328,90,-56,-1,-1,0
29933,-1900544,90,-56,-1,-1,0
29966,-2097152,90,-56,-1,-1,0
30000,-1835008,90,-56,-1,-1,0
30033,-1507328,90,-56,-1,-1,0
30066,-4063232,90,-56,-1,-1,0
30099,-2686976,90,-56,-1,-1,0
30133,-1572864,90,-56,-1,-1,0
30166,-720896,90,-56,-1,-1,0
30200,1245184,90,-56,-1,-1,0
30233,3735552,90,-56,-1,-1,0
30266,4521984,90,-56,-1,-1,0
30300,-65536,90,-56,-1,-1,0
30333,-917504,90,-56,-1,-1,0
30366,-851968,90,-56,-1,-1,0
30400,-1245184,90,-56,-1,-1,0
30433,-1900544,90,-56,-1,-1,0
30466,-2162688,90,-56,-1,-1,0
30500,-786432,90,-56,-1,-1,0
30533,-1835008,90,-56,-1,-1,0
30566,10354688,90,-56,-1,-1,0
30599,-2555904,90,-56,-1,-1,0
30633,-1441792,90,-56,-1,-1,0
30666,-589824,90,-56,-1,-1,0
30700,720896,90,-56,-1,-1,0
30733,2883584,90,-56,-1,-1,0
30766,4456448,90,-56,-1,-1,0
30800,1310720,90,-56,-1,-1,0
30833,-327680,90,-56,-1,-1,0
30866,-589824,90,-56,-1,-1,0
30900,-851968,90,-56,-1,-1,0
30933,-1048576,90,-56,-1,-1,0
30966,-1572864,90,-56,-1,-1,0
31000,-458752,91,-56,-1,-1,0
31033,-1703936,91,-56,-1,-1,0
31066,5570560,91,-56,-1,-1,0
31099,-5439488,91,-56,-1,-1,0
31133,-1245184,91,-56,-1,-1,0
31166,-655360,91,-56,-1,-1,0
31200,393216,91,-56,-1,-1,0
31233,2752512,91,-56,-1,-1,0
31266,4718592,91,-56,-1,-1,0
31300,2686976,91,-56,-1,-1,0
31333,131072,91,-56,-1,-1,0
31366,-327680,91,-56,-1,-1,0
31400,-655360,91,-56,-1,-1,0
31433,-1179648,91,-56,-1,-1,0
31466,-1441792,91,-56,-1,-1,0
31500,-1835008,92,-56,-1,-1,0
31533,-720896,92,-56,-1,-1,0
31566,-1441792,92,-56,-1,-1,0
31599,6422528,92,-56,-1,-1,0
31633,-2424832,92,-56,-1,-1,0
31666,-1376256,92,-56,-1,-1,0
31700,-720896,92,-56,-1,-1,0
31733,655360,92,-56,-1,-1,0
31766,3276800,92,-56,-1,-1,0
31800,4653056,92,-56,-1,-1,0
31833,1245184,92,-56,-1,-1,0
31866,-458752,92,-56,-1,-1,0
31900,-655360,92,-56,-1,-1,0
31933,-1114112,92,-56,-1,-1,0
31966,-1245184,92,-56,-1,-1,0
32000,-1703936,92,-56,-1,-1,0
32033,-1703936,93,-56,-1,-1,0
32066,-1376256,93,-56,-1,-1,0
32100,-786432,93,-56,-1,-1,0
32133,-3538944,93,-56,-1,-1,0
32166,-1507328,93,-56,-1,-1,0
32200,-983040,93,-56,-1,-1,0
32233,-65536,93,-56,-1,-1,0
32266,1572864,93,-56,-1,-1,0
32299,4128768,93,-56,-1,-1,0
32333,3997696,93,-56,-1,-1,0
32366,720896,93,-56,-1,-1,0
32400,-393216,93,-56,-1,-1,0
32433,-589824,93,-56,-1,-1,0
32466,-917504,93,-56,-1,-1,0
32500,-983040,93,-56,-1,-1,0
32533,-1900544,94,-56,-1,-1,0
32566,-589824,94,-56,-1,-1,0
32600,-1507328,94,-56,-1,-1,0
32633,8519680,94,-56,-1,-1,0
32666,-4194304,94,-56,-1,-1,0
32700,-1507328,94,-56,-1,-1,0
32733,-589824,94,-56,-1,-1,0
32766,131072,94,-56,-1,-1,0
32800,2359296,94,-56,-1,-1,0
32833,4456448,94,-56,-1,-1,0
32866,1900544,94,-56,-1,-1,0
32900,-196608,94,-56,-1,-1,0
32933,-655360,94,-56,-1,-1,0
32966,-983040,94,-56,-1,-1,0
33000,-1310720,94,-56,-1,-1,0
33033,-1638400,94,-56,-1,-1,0
33066,-1179648,94,-56,-1,-1,0
33100,-1376256,94,-56,-1,-1,0
33133,589824,94,-56,-1,-1,0
33166,-5898240,94,-56,-1,-1,0
33200,-1441792,94,-56,-1,-1,0
33233,-983040,94,-56,-1,-1,0
33266,65536,94,-56,-1,-1,0
33300,1769472,94,-56,-1,-1,0
33333,4390912,94,-56,-1,-1,0
33366,3473408,94,-56,-1,-1,0
33400,131072,94,-56,-1,-1,0
33433,-262144,94,-56,-1,-1,0
33466,-589824,94,-56,-1,-1,0
33500,-851968,94,-56,-1,-1,0
33533,-1179648,94,-56,-1,-1,0
33566,-1114112,94,-56,-1,-1,0
33600,-1572864,94,-56,-1,-1,0
33633,-917504,94,-56,-1,-1,0
33666,-1376256,94,-56,-1,-1,0
33700,5701632,94,-56,-1,-1,0
33733,-4718592,94,-56,-1,-1,0
33766,-1441792,94,-56,-1,-1,0
33800,-851968,94,-56,-1,-1,0
33833,262144,94,-56,-1,-1,0
33866,2228224,94,-56,-1,-1,0
33900,4587520,94,-56,-1,-1,0
33933,3080192,94,-56,-1,-1,0
33966,196608,94,-56,-1,-1,0
34000,-327680,94,-56,-1,-1,0
34033,-655360,94,-56,-1,-1,0
34066,-1048576,94,-56,-1,-1,0
34100,-1114112,94,-56,-1,-1,0
34133,-1966080,94,-56,-1,-1,0
34166,-720896,94,-56,-1,-1,0
34200,-1376256,94,-56,-1,-1,0
34233,9175040,94,-56,-1,-1,0
34266,-3735552,94,-56,-1,-1,0
34300,-1245184,94,-56,-1,-1,0
34333,-589824,94,-56,-1,-1,0
34366,524288,94,-56,-1,-1,0
34400,3014656,94,-56,-1,-1,0
34433,4259840,94,-56,-1,-1,0
34466,1638400,94,-56,-1,-1,0
34500,-524288,94,-56,-1,-1,0
34533,-720896,94,-56,-1,-1,0
34566,-851968,94,-56,-1,-1,0
34600,-1310720,94,-56,-1,-1,0
34633,-1835008,94,-56,-1,-1,0
34666,-1835008,94,-56,-1,-1,0
34700,-1245184,94,-56,-1,-1,0
34733,-1048576,94,-56,-1,-1,0
34766,-1245184,94,-56,-1,-1,0
34800,-1638400,94,-56,-1,-1,0
34833,-1048576,94,-56,-1,-1,0
34866,-458752,94,-56,-1,-1,0
34900,1310720,94,-56,-1,-1,0
34933,4063232,94,-56,-1,-1,0
34966,3997696,94,-56,-1,-1,0
35000,393216,94,-56,-1,-1,0
35033,-720896,94,-56,-1,-1,0
35066,-983040,94,-56,-1,-1,0
35100,-1245184,94,-56,-1,-1,0
35133,-1507328,94,-56,-1,-1,0
35166,-2097152,94,-56,-1,-1,0
35200,-1245184,94,-56,-1,-1,0
35233,-1376256,94,-56,-1,-1,0
35266,9109504,94,-56,-1,-1,0
35300,-3276800,94,-56,-1,-1,0
35333,-1441792,94,-56,-1,-1,0
35366,-720896,94,-56,-1,-1,0
35400,786432,94,-56,-1,-1,0
35433,3014656,94,-56,-1,-1,0
35466,4653056,94,-56,-1,-1,0
35500,2162688,94,-56,-1,-1,0
35533,-65536,94,-56,-1,-1,0
35566,-196608,94,-56,-1,-1,0
35600,-720896,94,-56,-1,-1,0
35633,-851968,94,-56,-1,-1,0
35666,-1376256,94,-56,-1,-1,0
35700,-589824,94,-56,-1,-1,0
35733,-1048576,94,-56,-1,-1,0
35766,2752512,94,-56,-1,-1,0
35800,-6356992,94,-56,-1,-1,0
35833,-1310720,94,-56,-1,-1,0
35866,-524288,94,-56,-1,-1,0
35900,196608,94,-56,-1,-1,0
35933,2031616,94,-56,-1,-1,0
35966,4128768,94,-56,-1,-1,0
36000,2752512,94,-56,-1,-1,0
36033,-262144,94,-56,-1,-1,0
36066,-917504,94,-56,-1,-1,0
36100,-1179648,94,-56,-1,-1,0
36133,-1703936,94,-56,-1,-1,0
36166,-2162688,96,-56,-1,-1,0
36200,-1769472,96,-56,-1,-1,0
36233,-1835008,96,-56,-1,-1,0
36266,1703936,96,-56,-1,-1,0
36300,-7274496,96,-56,-1,-1,0
36333,-1835008,96,-56,-1,-1,0
36366,-1245184,96,-56,-1,-1,0
36400,-262144,96,-56,-1,-1,0
36433,1966080,96,-56,-1,-1,0
36466,4194304,96,-56,-1,-1,0
36500,3080192,96,-56,-1,-1,0
36533,65536,96,-56,-1,-1,0
36566,-393216,96,-56,-1,-1,0
36600,-458752,96,-56,-1,-1,0
36633,-917504,96,-56,-1,-1,0
36666,-1507328,96,-56,-1,-1,0
36700,-720896,96,-56,-1,-1,0
36733,-983040,96,-56,-1,-1,0
36766,9371648,96,-56,-1,-1,0
36800,-2097152,96,-56,-1,-1,0
36833,-655360,96,-56,-1,-1,0
36866,0,96,-56,-1,-1,0
36900,1114112,96,-56,-1,-1,0
36933,3538944,96,-56,-1,-1,0
36966,4718592,96,-56,-1,-1,0
37000,1376256,96,-56,-1,-1,0
37033,-262144,96,-56,-1,-1,0
37066,-720896,96,-56,-1,-1,0
37100,-1179648,96,-56,-1,-1,0
37133,-1900544,96,-56,-1,-1,0
37166,-1310720,96,-56,-1,-1,0
37200,-2424832,96,-56,-1,-1,0
37233,6160384,96,-56,-1,-1,0
37266,-6094848,96,-56,-1,-1,0
37300,-1507328,96,-56,-1,-1,0
37333,-1179648,96,-56,-1,-1,0
37366,0,96,-56,-1,-1,0
37400,2293760,96,-56,-1,-1,0
37433,3604480,96,-56,-1,-1,0
37466,1441792,96,-56,-1,-1,0
37500,-327680,96,-56,-1,-1,0
37533,-393216,96,-56,-1,-1,0
37566,-720896,96,-56,-1,-1,0
37600,-1310720,97,-56,-1,-1,0
37633,-1245184,97,-56,-1,-1,0
37666,-917504,97,-56,-1,-1,0
37700,-458752,97,-56,-1,-1,0
37733,-3145728,97,-56,-1,-1,0
37766,-786432,97,-56,-1,-1,0
37800,-393216,97,-56,-1,-1,0
37833,393216,97,-56,-1,-1,0
37866,2031616,97,-56,-1,-1,0
37900,3932160,97,-56,-1,-1,0
37933,3670016,97,-56,-1,-1,0
37966,720896,97,-56,-1,-1,0
38000,0,97,-56,-1,-1,0
38033,-524288,97,-56,-1,-1,0
38066,-917504,97,-56,-1,-1,0
38100,-1900544,98,-56,-1,-1,0
38133,-1572864,98,-56,-1,-1,0
38166,-1572864,98,-56,-1,-1,0
38200,2949120,98,-56,-1,-1,0
38233,-6750208,98,-56,-1,-1,0
38266,-2228224,98,-56,-1,-1,0
38300,-917504,98,-56,-1,-1,0
38333,65536,98,-56,-1,-1,0
38366,1900544,98,-56,-1,-1,0
38400,4063232,98,-56,-1,-1,0
38433,2883584,98,-56,-1,-1,0
38466,0,98,-56,-1,-1,0
38500,-393216,98,-56,-1,-1,0
38533,-655360,98,-56,-1,-1,0
38566,-1114112,98,-56,-1,-1,0
38600,-1507328,98,-56,-1,-1,0
38633,-983040,98,-56,-1,-1,0
38666,-1179648,98,-56,-1,-1,0
38700,2097152,98,-56,-1,-1,0
38733,-6619136,98,-56,-1,-1,0
38766,-1769472,98,-56,-1,-1,0
38800,-1048576,98,-56,-1,-1,0
38833,-262144,98,-56,-1,-1,0
38866,1376256,98,-56,-1,-1,0
38900,3932160,98,-56,-1,-1,0
38933,3014656,98,-56,-1,-1,0
38966,-131072,98,-56,-1,-1,0
39000,-786432,98,-56,-1,-1,0
39033,-1441792,98,-56,-1,-1,0
39066,-1835008,98,-56,-1,-1,0
39100,-2490368,98,-56,-1,-1,0
39133,-1572864,98,-56,-1,-1,0
39166,-2162688,98,-56,-1,-1,0
39200,1507328,98,-56,-1,-1,0
39233,-6488064,98,-56,-1,-1,0
39266,-1703936,98,-56,-1,-1,0
39300,-1048576,98,-56,-1,-1,0
39333,0,98,-56,-1,-1,0
39366,1900544,98,-56,-1,-1,0
39400,4128768,98,-56,-1,-1,0
39433,3211264,98,-56,-1,-1,0
39466,65536,98,-56,-1,-1,0
39500,-589824,98,-56,-1,-1,0
39533,-589824,98,-56,-1,-1,0
39566,-1179648,99,-56,-1,-1,0
39600,-1507328,99,-56,-1,-1,0
39633,-917504,99,-56,-1,-1,0
39666,-1179648,99,-56,-1,-1,0
39700,5505024,99,-56,-1,-1,0
39733,-2162688,99,-56,-1,-1,0
39766,-1048576,99,-56,-1,-1,0
39800,-458752,99,-56,-1,-1,0
39833,917504,99,-56,-1,-1,0
39866,2883584,99,-56,-1,-1,0
39900,4063232,99,-56,-1,-1,0
39933,983040,99,-56,-1,-1,0
39966,-393216,99,-56,-1,-1,0
40000,-1048576,99,-56,-1,-1,0
40033,-1572864,100,-56,-1,-1,0
40066,-1900544,100,-56,-1,-1,0
40100,-1245184,100,-56,-1,-1,0
40133,-1507328,100,-56,-1,-1,0
40166,3342336,100,-56,-1,-1,0
40200,-6291456,100,-56,-1,-1,0
40233,-1376256,100,-56,-1,-1,0
40266,-589824,100,-56,-1,-1,0
40300,524288,100,-56,-1,-1,0
40333,2162688,100,-56,-1,-1,0
40366,4063232,100,-56,-1,-1,0
40400,2490368,100,-56,-1,-1,0
40433,262144,100,-56,-1,-1,0
40466,-458752,100,-56,-1,-1,0
40500,-917504,100,-56,-1,-1,0
40533,-1245184,100,-56,-1,-1,0
40566,-1376256,100,-56,-1,-1,0
40600,-1245184,100,-56,-1,-1,0
40633,-1245184,100,-56,-1,-1,0
40666,-1245184,100,-56,-1,-1,0
40700,-1835008,100,-56,-1,-1,0
40733,-1245184,100,-56,-1,-1,0
40766,-327680,100,-56,-1,-1,0
40800,1179648,100,-56,-1,-1,0
40833,3538944,100,-56,-1,-1,0
40866,3801088,100,-56,-1,-1,0
40900,0,100,-56,-1,-1,0
40933,-458752,100,-56,-1,-1,0
40966,-1245184,100,-56,-1,-1,0
41000,-1638400,101,-56,-1,-1,0
41033,-2031616,101,-56,-1,-1,0
41066,-851968,101,-56,-1,-1,0
41100,-1441792,101,-56,-1,-1,0
41133,3932160,101,-56,-1,-1,0
41166,-5767168,101,-56,-1,-1,0
41200,-1376256,101,-56,-1,-1,0
41233,-524288,101,-56,-1,-1,0
41266,327680,101,-56,-1,-1,0
41300,2162688,101,-56,-1,-1,0
41333,4390912,101,-56,-1,-1,0
41366,2818048,101,-56,-1,-1,0
41400,65536,101,-56,-1,-1,0
41433,-131072,101,-56,-1,-1,0
41466,-589824,101,-56,-1,-1,0
41500,-1179648,102,-56,-1,-1,0
41533,-1507328,102,-56,-1,-1,0
41566,-1048576,102,-56,-1,-1,0
41600,-983040,102,-56,-1,-1,0
41633,720896,102,-56,-1,-1,0
41666,-2031616,102,-56,-1,-1,0
41700,-1376256,102,-56,-1,-1,0
41733,-983040,102,-56,-1,-1,0
41766,589824,102,-56,-1,-1,0
41800,3145728,102,-56,-1,-1,0
41833,3342336,102,-56,-1,-1,0
41866,65536,102,-56,-1,-1,0
41900,-917504,102,-56,-1,-1,0
41933,-917504,102,-56,-1,-1,0
41966,-1245184,102,-56,-1,-1,0
42000,-1966080,102,-56,-1,-1,0
42033,-851968,102,-56,-1,-1,0
42066,-1572864,102,-56,-1,-1,0
42100,7995392,102,-56,-1,-1,0
42133,-3670016,102,-56,-1,-1,0
42166,-1048576,102,-56,-1,-1,0
42200,-393216,102,-56,-1,-1,0
42233,655360,102,-56,-1,-1,0
42266,2228224,102,-56,-1,-1,0
42300,4194304,102,-56,-1,-1,0
42333,2162688,102,-56,-1,-1,0
42366,196608,102,-56,-1,-1,0
42400,-327680,102,-56,-1,-1,0
42433,-851968,102,-56,-1,-1,0
42466,-1441792,102,-56,-1,-1,0
42500,-1245184,102,-56,-1,-1,0
42533,-1376256,102,-56,-1,-1,0
42566,-524288,102,-56,-1,-1,0
42600,-4915200,102,-56,-1,-1,0
42633,-2097152,102,-56,-1,-1,0
42666,-1310720,102,-56,-1,-1,0
42700,-655360,102,-56,-1,-1,0
42733,589824,102,-56,-1,-1,0
42766,3145728,102,-56,-1,-1,0
42800,3145728,102,-56,-1,-1,0
42833,131072,102,-56,-1,-1,0
42866,-458752,102,-56,-1,-1,0
42900,-851968,102,-56,-1,-1,0
42933,-917504,103,-56,-1,-1,0
42966,-1769472,103,-56,-1,-1,0
43000,-458752,103,-56,-1,-1,0
43033,-786432,103,-56,-1,-1,0
43066,9437184,103,-56,-1,-1,0
43100,-2490368,103,-56,-1,-1,0
43133,-1048576,103,-56,-1,-1,0
43166,-655360,103,-56,-1,-1,0
43200,655360,103,-56,-1,-1,0
43233,2555904,103,-56,-1,-1,0
43266,4325376,103,-56,-1,-1,0
43300,1900544,103,-56,-1,-1,0
43333,-196608,103,-56,-1,-1,0
43366,-589824,103,-56,-1,-1,0
43400,-1114112,103,-56,-1,-1,0
43433,-1835008,103,-56,-1,-1,0
43466,-1114112,103,-56,-1,-1,0
43500,-1572864,103,-56,-1,-1,0
43533,1966080,103,-56,-1,-1,0
43566,-6881280,103,-56,-1,-1,0
43600,-1966080,103,-56,-1,-1,0
43633,-1310720,103,-56,-1,-1,0
43666,-393216,103,-56,-1,-1,0
43700,1310720,103,-56,-1,-1,0
43733,3801088,103,-56,-1,-1,0
43766,3014656,103,-56,-1,-1,0
43800,327680,103,-56,-1,-1,0
43833,-458752,103,-56,-1,-1,0
43866,-589824,104,-56,-1,-1,0
43900,-1441792,104,-56,-1,-1,0
43933,-917504,104,-56,-1,-1,0
43966,-1703936,104,-56,-1,-1,0
44000,1245184,104,-56,-1,-1,0
44033,-5570560,104,-56,-1,-1,0
44066,-1835008,104,-56,-1,-1,0
44100,-1179648,104,-56,-1,-1,0
44133,0,104,-56,-1,-1,0
44166,1769472,104,-56,-1,-1,0
44200,4194304,104,-56,-1,-1,0
44233,3014656,104,-56,-1,-1,0
44266,65536,104,-56,-1,-1,0
44300,-720896,104,-56,-1,-1,0
44333,-1245184,104,-56,-1,-1,0
44366,-2293760,104,-56,-1,-1,0
44400,-1441792,104,-56,-1,-1,0
44433,-2031616,104,-56,-1,-1,0
44466,8716288,104,-56,-1,-1,0
44500,-3407872,104,-56,-1,-1,0
44533,-1966080,104,-56,-1,-1,0
44566,-1376256,104,-56,-1,-1,0
44600,131072,104,-56,-1,-1,0
44633,2359296,104,-56,-1,-1,0
44666,3670016,104,-56,-1,-1,0
44700,851968,104,-56,-1,-1,0
44733,-524288,104,-56,-1,-1,0
44766,-851968,104,-56,-1,-1,0
44800,-1179648,104,-56,-1,-1,0
44833,-1769472,104,-56,-1,-1,0
44866,-720896,104,-56,-1,-1,0
44900,-1179648,104,-56,-1,-1,0
44933,5308416,104,-56,-1,-1,0
44966,-1638400,104,-56,-1,-1,0
45000,-983040,104,-56,-1,-1,0
45033,65536,104,-56,-1,-1,0
45066,917504,104,-56,-1,-1,0
45100,3473408,104,-56,-1,-1,0
45133,3997696,104,-56,-1,-1,0
45166,917504,104,-56,-1,-1,0
45200,-393216,104,-56,-1,-1,0
45233,-786432,104,-56,-1,-1,0
45266,-1572864,104,-56,-1,-1,0
45300,-1441792,104,-56,-1,-1,0
45333,-1769472,104,-56,-1,-1,0
45366,851968,104,-56,-1,-1,0
45400,-7471104,104,-56,-1,-1,0
45433,-2162688,104,-56,-1,-1,0
45466,-1507328,104,-56,-1,-1,0
45500,-458752,104,-56,-1,-1,0
45533,1245184,104,-56,-1,-1,0
45566,3473408,104,-56,-1,-1,0
45600,2490368,104,-56,-1,-1,0
45633,0,104,-56,-1,-1,0
45666,-589824,104,-56,-1,-1,0
45700,-851968,104,-56,-1,-1,0
45733,-1703936,104,-56,-1,-1,0
45766,-589824,104,-56,-1,-1,0
45800,-1048576,104,-56,-1,-1,0
45833,9895936,104,-56,-1,-1,0
45866,-2686976,104,-56,-1,-1,0
45900,-1179648,104,-56,-1,-1,0
45933,-458752,104,-56,-1,-1,0
45966,720896,104,-56,-1,-1,0
46000,2621440,104,-56,-1,-1,0
46033,4325376,104,-56,-1,-1,0
46066,1835008,104,-56,-1,-1,0
46100,-131072,104,-56,-1,-1,0
46133,-655360,104,-56,-1,-1,0
46166,-1441792,104,-56,-1,-1,0
46200,-1572864,104,-56,-1,-1,0
46233,-1703936,104,-56,-1,-1,0
46266,-393216,104,-56,-1,-1,0
46300,-7077888,104,-56,-1,-1,0
46333,-2293760,104,-56,-1,-1,0
46366,-1703936,104,-56,-1,-1,0
46400,-786432,104,-56,-1,-1,0
46433,1048576,104,-56,-1,-1,0
46466,3407872,104,-56,-1,-1,0
46500,2883584,104,-56,-1,-1,0
46533,327680,104,-56,-1,-1,0
46566,-262144,105,-56,-1,-1,0
46600,-786432,105,-56,-1,-1,0
46633,-1703936,105,-56,-1,-1,0
46666,-720896,105,-56,-1,-1,0
46700,-1114112,105,-56,-1,-1,0
46733,6225920,105,-56,-1,-1,0
46766,-2097152,105,-56,-1,-1,0
46800,-1048576,105,-56,-1,-1,0
46833,-131072,105,-56,-1,-1,0
46866,720896,105,-56,-1,-1,0
46900,2621440,105,-56,-1,-1,0
46933,3407872,105,-56,-1,-1,0
46966,851968,105,-56,-1,-1,0
47000,-327680,106,-56,-1,-1,0
47033,-655360,106,-56,-1,-1,0
47066,-1703936,106,-56,-1,-1,0
47100,-1048576,106,-56,-1,-1,0
47133,-1572864,106,-56,-1,-1,0
47166,6422528,106,-56,-1,-1,0
47200,-5570560,106,-56,-1,-1,0
47233,-1703936,106,-56,-1,-1,0
47266,-1048576,106,-56,-1,-1,0
47300,65536,106,-56,-1,-1,0
47333,1900544,106,-56,-1,-1,0
47366,3604480,106,-56,-1,-1,0
47400,1507328,106,-56,-1,-1,0
47433,-196608,106,-56,-1,-1,0
47466,-655360,107,-56,-1,-1,0
47500,-1048576,107,-56,-1,-1,0
47533,-1310720,107,-56,-1,-1,0
47566,-1114112,107,-56,-1,-1,0
47600,-458752,107,-56,-1,-1,0
47633,-4063232,107,-56,-1,-1,0
47666,-1376256,107,-56,-1,-1,0
47700,-917504,107,-56,-1,-1,0
47733,0,107,-56,-1,-1,0
47766,1179648,107,-56,-1,-1,0
47800,3407872,107,-56,-1,-1,0
47833,3211264,107,-56,-1,-1,0
47866,458752,107,-56,-1,-1,0
47900,-131072,107,-56,-1,-1,0
47933,-786432,107,-56,-1,-1,0
47966,-1507328,107,-56,-1,-1,0
48000,-720896,107,-56,-1,-1,0
48033,-1310720,107,-56,-1,-1,0
48066,7208960,107,-56,-1,-1,0
48100,-2883584,107,-56,-1,-1,0
48133,-1441792,107,-56,-1,-1,0
48166,-786432,107,-56,-1,-1,0
48200,262144,107,-56,-1,-1,0
48233,2097152,107,-56,-1,-1,0
48266,3473408,107,-56,-1,-1,0
48300,851968,107,-56,-1,-1,0
48333,-917504,107,-56,-1,-1,0
48366,-589824,107,-56,-1,-1,0
48400,-1245184,107,-56,-1,-1,0
48433,-2031616,107,-56,-1,-1,0
48466,-655360,107,-56,-1,-1,0
48500,-1310720,107,-56,-1,-1,0
48533,8585216,107,-56,-1,-1,0
48566,-3080192,107,-56,-1,-1,0
48600,-1245184,107,-56,-1,-1,0
48633,-851968,107,-56,-1,-1,0
48666,589824,107,-56,-1,-1,0
48700,2555904,107,-56,-1,-1,0
48733,4194304,107,-56,-1,-1,0
48766,1900544,107,-56,-1,-1,0
48800,327680,107,-56,-1,-1,0
48833,-196608,108,-56,-1,-1,0
48866,-917504,108,-56,-1,-1,0
48900,-1245184,108,-56,-1,-1,0
48933,-851968,108,-56,-1,-1,0
48966,-393216,108,-56,-1,-1,0
49000,-3997696,108,-56,-1,-1,0
49033,-1900544,108,-56,-1,-1,0
49066,-1507328,108,-56,-1,-1,0
49100,-786432,108,-56,-1,-1,0
49133,983040,108,-56,-1,-1,0
49166,2818048,108,-56,-1,-1,0
49200,2228224,108,-56,-1,-1,0
49233,-851968,108,-56,-1,-1,0
49266,-983040,109,-56,-1,-1,0
49300,-2031616,109,-56,-1,-1,0
49333,-1966080,109,-56,-1,-1,0
49366,-917504,109,-56,-1,-1,0
49400,-1835008,109,-56,-1,-1,0
49433,7471104,109,-56,-1,-1,0
49466,-5046272,109,-56,-1,-1,0
49500,-1441792,109,-56,-1,-1,0
49533,-655360,109,-56,-1,-1,0
49566,262144,109,-56,-1,-1,0
49600,2162688,109,-56,-1,-1,0
49633,3604480,109,-56,-1,-1,0
49666,2097152,109,-56,-1,-1,0
49700,393216,109,-56,-1,-1,0
49733,-196608,110,-56,-1,-1,0
49766,-327680,110,-56,-1,-1,0
49800,-983040,110,-56,-1,-1,0
49833,-458752,110,-56,-1,-1,0
49866,-262144,110,-56,-1,-1,0
49900,-1245184,110,-56,-1,-1,0
49933,-1376256,110,-56,-1,-1,0
49966,-917504,110,-56,-1,-1,0
50000,-262144,110,-56,-1,-1,0
