milliseconds, ECG, ECG HR, PPG, PPG HR, SpO2, PI
1523631713942,9437184,102,-56,-1,-1,0
1523631713942,1703936,102,-56,-1,-1,0
1523631713942,-4653056,102,-56,-1,-1,0
1523631713942,-4718592,102,-56,-1,-1,0
1523631713942,-2490368,102,-56,-1,-1,0
1523631713983,-1572864,102,-56,-1,-1,0
1523631713983,-1376256,102,-56,-1,-1,0
1523631713983,-1114112,102,-56,-1,-1,0
1523631713983,-786432,102,-56,-1,-1,0
1523631713983,-851968,102,-56,-1,-1,0
1523631714022,-983040,102,-56,-1,-1,0
1523631714022,-983040,102,-56,-1,-1,0
1523631714022,-917504,102,-56,-1,-1,0
1523631714022,-1048576,102,-56,-1,-1,0
1523631714022,-720896,102,-56,-1,-1,0
1523631714062,-196608,102,-56,-1,-1,0
1523631714062,0,102,-56,-1,-1,0
1523631714062,0,102,-56,-1,-1,0
1523631714062,65536,102,-56,-1,-1,0
1523631714062,393216,102,-56,-1,-1,0
1523631714102,720896,102,-56,-1,-1,0
1523631714102,983040,102,-56,-1,-1,0
1523631714102,1376256,102,-56,-1,-1,0
1523631714102,1769472,102,-56,-1,-1,0
1523631714102,2228224,102,-56,-1,-1,0
1523631714142,2818048,102,-56,-1,-1,0
1523631714142,3342336,102,-56,-1,-1,0
1523631714142,3604480,102,-56,-1,-1,0
1523631714142,3932160,102,-56,-1,-1,0
1523631714142,4521984,102,-56,-1,-1,0
1523631714182,4849664,102,-56,-1,-1,0
1523631714182,4587520,102,-56,-1,-1,0
1523631714182,4063232,102,-56,-1,-1,0
1523631714182,3407872,102,-56,-1,-1,0
1523631714182,2555904,102,-56,-1,-1,0
1523631714222,1835008,102,-56,-1,-1,0
1523631714222,1310720,102,-56,-1,-1,0
1523631714222,851968,102,-56,-1,-1,0
1523631714222,458752,102,-56,-1,-1,0
1523631714222,65536,102,-56,-1,-1,0
1523631714262,65536,102,-56,-1,-1,0
1523631714262,65536,102,-56,-1,-1,0
1523631714262,-65536,102,-56,-1,-1,0
1523631714262,-262144,102,-56,-1,-1,0
1523631714262,-262144,102,-56,-1,-1,0
1523631714302,-262144,102,-56,-1,-1,0
1523631714302,-327680,102,-56,-1,-1,0
1523631714302,-458752,102,-56,-1,-1,0
1523631714302,-524288,102,-56,-1,-1,0
1523631714302,-524288,102,-56,-1,-1,0
1523631714342,-655360,102,-56,-1,-1,0
1523631714342,-983040,102,-56,-1,-1,0
1523631714342,-851968,102,-56,-1,-1,0
1523631714342,-524288,102,-56,-1,-1,0
1523631714342,-524288,102,-56,-1,-1,0
1523631714382,-851968,102,-56,-1,-1,0
1523631714382,-983040,102,-56,-1,-1,0
1523631714382,-786432,102,-56,-1,-1,0
1523631714382,-851968,102,-56,-1,-1,0
1523631714382,-983040,102,-56,-1,-1,0
1523631714422,-983040,102,-56,-1,-1,0
1523631714422,-1114112,102,-56,-1,-1,0
1523631714422,-1310720,102,-56,-1,-1,0
1523631714422,-1114112,102,-56,-1,-1,0
1523631714422,-720896,102,-56,-1,-1,0
1523631714462,-720896,102,-56,-1,-1,0
1523631714462,-917504,102,-56,-1,-1,0
1523631714462,-1114112,102,-56,-1,-1,0
1523631714462,-1376256,102,-56,-1,-1,0
1523631714462,-1310720,102,-56,-1,-1,0
1523631714502,-983040,102,-56,-1,-1,0
1523631714502,-786432,102,-56,-1,-1,0
1523631714502,-917504,102,-56,-1,-1,0
1523631714502,-1048576,102,-56,-1,-1,0
1523631714502,-1114112,102,-56,-1,-1,0
1523631714542,-1114112,102,-56,-1,-1,0
1523631714542,-1310720,102,-56,-1,-1,0
1523631714542,-1441792,102,-56,-1,-1,0
1523631714542,-1114112,102,-56,-1,-1,0
1523631714542,-851968,102,-56,-1,-1,0
1523631714582,-983040,102,-56,-1,-1,0
1523631714582,-1114112,102,-56,-1,-1,0
1523631714582,-1114112,102,-56,-1,-1,0
1523631714582,-1179648,102,-56,-1,-1,0
1523631714582,-1114112,102,-56,-1,-1,0
1523631714623,-1048576,102,-56,-1,-1,0
1523631714623,-1179648,102,-56,-1,-1,0
1523631714623,-1376256,102,-56,-1,-1,0
1523631714623,-1179648,102,-56,-1,-1,0
1523631714623,-983040,102,-56,-1,-1,0
1523631714662,-1048576,102,-56,-1,-1,0
1523631714662,-1179648,102,-56,-1,-1,0
1523631714662,-1114112,102,-56,-1,-1,0
1523631714662,-1114112,102,-56,-1,-1,0
1523631714662,-1310720,102,-56,-1,-1,0
1523631714702,-1441792,102,-56,-1,-1,0
1523631714702,-1441792,102,-56,-1,-1,0
1523631714702,-1572864,102,-56,-1,-1,0
1523631714702,-1114112,102,-56,-1,-1,0
1523631714702,-589824,102,-56,-1,-1,0
1523631714742,-65536,102,-56,-1,-1,0
1523631714742,-65536,102,-56,-1,-1,0
1523631714742,-524288,102,-56,-1,-1,0
1523631714742,-983040,102,-56,-1,-1,0
1523631714742,-1114112,102,-56,-1,-1,0
1523631714782,-1245184,102,-56,-1,-1,0
1523631714782,-1376256,102,-56,-1,-1,0
1523631714782,-327680,102,-56,-1,-1,0
1523631714782,3604480,102,-56,-1,-1,0
1523631714782,8781824,102,-56,-1,-1,0
1523631714822,8388608,102,-56,-1,-1,0
1523631714822,1114112,102,-56,-1,-1,0
1523631714822,-5242880,102,-56,-1,-1,0
1523631714822,-5570560,102,-56,-1,-1,0
1523631714822,-3211264,102,-56,-1,-1,0
1523631714862,-1900544,102,-56,-1,-1,0
1523631714862,-1572864,102,-56,-1,-1,0
1523631714862,-1441792,102,-56,-1,-1,0
1523631714862,-1310720,102,-56,-1,-1,0
1523631714862,-1310720,102,-56,-1,-1,0
1523631714902,-1048576,102,-56,-1,-1,0
1523631714902,-720896,102,-56,-1,-1,0
1523631714902,-589824,102,-56,-1,-1,0
1523631714902,-589824,102,-56,-1,-1,0
1523631714902,-393216,102,-56,-1,-1,0
1523631714942,-196608,102,-56,-1,-1,0
1523631714942,0,102,-56,-1,-1,0
1523631714942,65536,102,-56,-1,-1,0
1523631714942,196608,102,-56,-1,-1,0
1523631714942,131072,102,-56,-1,-1,0
1523631714982,262144,102,-56,-1,-1,0
1523631714982,786432,102,-56,-1,-1,0
1523631714982,1441792,102,-56,-1,-1,0
1523631714982,1835008,102,-56,-1,-1,0
1523631714982,2359296,102,-56,-1,-1,0
1523631715022,2883584,102,-56,-1,-1,0
1523631715022,3407872,102,-56,-1,-1,0
1523631715022,3866624,102,-56,-1,-1,0
1523631715022,4194304,102,-56,-1,-1,0
1523631715022,4521984,102,-56,-1,-1,0
1523631715061,4784128,102,-56,-1,-1,0
1523631715061,4915200,102,-56,-1,-1,0
1523631715061,4784128,102,-56,-1,-1,0
1523631715061,4325376,102,-56,-1,-1,0
1523631715061,3473408,102,-56,-1,-1,0
1523631715101,2686976,102,-56,-1,-1,0
1523631715101,1835008,102,-56,-1,-1,0
1523631715101,1179648,102,-56,-1,-1,0
1523631715101,786432,102,-56,-1,-1,0
1523631715101,655360,102,-56,-1,-1,0
1523631715141,458752,102,-56,-1,-1,0
1523631715141,262144,102,-56,-1,-1,0
1523631715141,131072,102,-56,-1,-1,0
1523631715141,0,102,-56,-1,-1,0
1523631715141,-131072,102,-56,-1,-1,0
1523631715181,-393216,102,-56,-1,-1,0
1523631715181,-393216,102,-56,-1,-1,0
1523631715181,-262144,102,-56,-1,-1,0
1523631715181,-262144,102,-56,-1,-1,0
1523631715181,-262144,102,-56,-1,-1,0
1523631715221,-196608,102,-56,-1,-1,0
1523631715221,-262144,102,-56,-1,-1,0
1523631715221,-458752,102,-56,-1,-1,0
1523631715221,-720896,102,-56,-1,-1,0
1523631715221,-983040,102,-56,-1,-1,0
1523631715263,-1048576,102,-56,-1,-1,0
1523631715263,-917504,102,-56,-1,-1,0
1523631715263,-786432,102,-56,-1,-1,0
1523631715263,-786432,102,-56,-1,-1,0
1523631715263,-786432,102,-56,-1,-1,0
1523631715301,-786432,102,-56,-1,-1,0
1523631715301,-917504,102,-56,-1,-1,0
1523631715301,-917504,102,-56,-1,-1,0
1523631715301,-983040,102,-56,-1,-1,0
1523631715301,-1048576,102,-56,-1,-1,0
1523631715341,-983040,102,-56,-1,-1,0
1523631715341,-917504,102,-56,-1,-1,0
1523631715341,-851968,102,-56,-1,-1,0
1523631715341,-917504,102,-56,-1,-1,0
1523631715341,-983040,102,-56,-1,-1,0
1523631715381,-983040,102,-56,-1,-1,0
1523631715381,-1048576,102,-56,-1,-1,0
1523631715381,-1114112,102,-56,-1,-1,0
1523631715381,-983040,102,-56,-1,-1,0
1523631715381,-917504,102,-56,-1,-1,0
1523631715421,-917504,102,-56,-1,-1,0
1523631715421,-1048576,102,-56,-1,-1,0
1523631715421,-1245184,102,-56,-1,-1,0
1523631715421,-1441792,102,-56,-1,-1,0
1523631715421,-1507328,102,-56,-1,-1,0
1523631715461,-1245184,102,-56,-1,-1,0
1523631715461,-917504,102,-56,-1,-1,0
1523631715461,-524288,102,-56,-1,-1,0
1523631715461,-131072,102,-56,-1,-1,0
1523631715461,65536,102,-56,-1,-1,0
1523631715501,0,102,-56,-1,-1,0
1523631715501,-327680,102,-56,-1,-1,0
1523631715501,-655360,102,-56,-1,-1,0
1523631715501,-851968,102,-56,-1,-1,0
1523631715501,-1048576,102,-56,-1,-1,0
1523631715541,-1179648,102,-56,-1,-1,0
1523631715541,-1245184,102,-56,-1,-1,0
1523631715541,-589824,102,-56,-1,-1,0
1523631715541,2424832,102,-56,-1,-1,0
1523631715541,7798784,102,-56,-1,-1,0
1523631715581,9175040,102,-56,-1,-1,0
1523631715581,2949120,102,-56,-1,-1,0
1523631715581,-4784128,102,-56,-1,-1,0
1523631715581,-6684672,102,-56,-1,-1,0
1523631715581,-4587520,102,-56,-1,-1,0
1523631715621,-2686976,102,-56,-1,-1,0
1523631715621,-1900544,102,-56,-1,-1,0
1523631715621,-1441792,102,-56,-1,-1,0
1523631715621,-1114112,102,-56,-1,-1,0
1523631715621,-983040,102,-56,-1,-1,0
1523631715661,-917504,102,-56,-1,-1,0
1523631715661,-917504,102,-56,-1,-1,0
1523631715661,-851968,102,-56,-1,-1,0
1523631715661,-786432,102,-56,-1,-1,0
1523631715661,-655360,102,-56,-1,-1,0
1523631715701,-458752,102,-56,-1,-1,0
1523631715701,-262144,102,-56,-1,-1,0
1523631715701,0,102,-56,-1,-1,0
1523631715701,131072,102,-56,-1,-1,0
1523631715701,131072,102,-56,-1,-1,0
1523631715741,196608,102,-56,-1,-1,0
1523631715741,786432,102,-56,-1,-1,0
1523631715741,1441792,102,-56,-1,-1,0
1523631715741,1769472,102,-56,-1,-1,0
1523631715741,2162688,102,-56,-1,-1,0
1523631715781,2621440,102,-56,-1,-1,0
1523631715781,3080192,102,-56,-1,-1,0
1523631715781,3407872,102,-56,-1,-1,0
1523631715781,3473408,102,-56,-1,-1,0
1523631715781,3801088,102,-56,-1,-1,0
1523631715821,4128768,102,-56,-1,-1,0
1523631715821,4259840,102,-56,-1,-1,0
1523631715821,3997696,102,-56,-1,-1,0
1523631715821,3407872,102,-56,-1,-1,0
1523631715821,2490368,102,-56,-1,-1,0
1523631715861,1638400,102,-56,-1,-1,0
1523631715861,1048576,102,-56,-1,-1,0
1523631715861,393216,102,-56,-1,-1,0
1523631715861,-65536,102,-56,-1,-1,0
1523631715861,-131072,102,-56,-1,-1,0
1523631715903,0,102,-56,-1,-1,0
1523631715903,-65536,102,-56,-1,-1,0
1523631715903,-131072,102,-56,-1,-1,0
1523631715903,-65536,102,-56,-1,-1,0
1523631715903,-131072,102,-56,-1,-1,0
1523631715941,-327680,102,-56,-1,-1,0
1523631715941,-458752,102,-56,-1,-1,0
1523631715941,-589824,102,-56,-1,-1,0
1523631715941,-655360,102,-56,-1,-1,0
1523631715941,-720896,102,-56,-1,-1,0
1523631715981,-720896,102,-56,-1,-1,0
1523631715981,-786432,102,-56,-1,-1,0
1523631715981,-917504,102,-56,-1,-1,0
1523631715981,-1114112,102,-56,-1,-1,0
1523631715981,-983040,102,-56,-1,-1,0
1523631716021,-851968,102,-56,-1,-1,0
1523631716021,-917504,102,-56,-1,-1,0
1523631716021,-983040,102,-56,-1,-1,0
1523631716021,-851968,102,-56,-1,-1,0
1523631716021,-786432,102,-56,-1,-1,0
1523631716061,-1048576,102,-56,-1,-1,0
1523631716061,-1114112,102,-56,-1,-1,0
1523631716061,-1114112,102,-56,-1,-1,0
1523631716061,-1114112,102,-56,-1,-1,0
1523631716061,-1179648,102,-56,-1,-1,0
1523631716101,-1048576,102,-56,-1,-1,0
1523631716101,-983040,102,-56,-1,-1,0
1523631716101,-1114112,102,-56,-1,-1,0
1523631716101,-1114112,102,-56,-1,-1,0
1523631716101,-983040,102,-56,-1,-1,0
1523631716141,-983040,102,-56,-1,-1,0
1523631716141,-1245184,102,-56,-1,-1,0
1523631716141,-1441792,102,-56,-1,-1,0
1523631716141,-1769472,102,-56,-1,-1,0
1523631716141,-2031616,102,-56,-1,-1,0
1523631716181,-2097152,102,-56,-1,-1,0
1523631716181,-1572864,102,-56,-1,-1,0
1523631716181,-786432,102,-56,-1,-1,0
1523631716181,-196608,102,-56,-1,-1,0
1523631716181,-196608,102,-56,-1,-1,0
1523631716221,-524288,101,-56,-1,-1,0
1523631716221,-917504,101,-56,-1,-1,0
1523631716221,-1179648,101,-56,-1,-1,0
1523631716221,-1310720,101,-56,-1,-1,0
1523631716221,-1441792,101,-56,-1,-1,0
1523631716261,-1376256,101,-56,-1,-1,0
1523631716261,-655360,101,-56,-1,-1,0
1523631716261,2424832,101,-56,-1,-1,0
1523631716261,8192000,101,-56,-1,-1,0
1523631716261,10485760,101,-56,-1,-1,0
1523631716301,4325376,101,-56,-1,-1,0
1523631716301,-4128768,101,-56,-1,-1,0
1523631716301,-6553600,101,-56,-1,-1,0
1523631716301,-4456448,101,-56,-1,-1,0
1523631716301,-2490368,101,-56,-1,-1,0
1523631716341,-1572864,101,-56,-1,-1,0
1523631716341,-1310720,101,-56,-1,-1,0
1523631716341,-1376256,101,-56,-1,-1,0
1523631716341,-1310720,101,-56,-1,-1,0
1523631716341,-1179648,101,-56,-1,-1,0
1523631716381,-1245184,101,-56,-1,-1,0
1523631716381,-1048576,101,-56,-1,-1,0
1523631716381,-786432,101,-56,-1,-1,0
1523631716381,-655360,101,-56,-1,-1,0
1523631716381,-524288,101,-56,-1,-1,0
1523631716421,-327680,101,-56,-1,-1,0
1523631716421,-65536,101,-56,-1,-1,0
1523631716421,196608,101,-56,-1,-1,0
1523631716421,524288,101,-56,-1,-1,0
1523631716421,589824,101,-56,-1,-1,0
1523631716461,655360,101,-56,-1,-1,0
1523631716461,1048576,101,-56,-1,-1,0
1523631716461,1769472,101,-56,-1,-1,0
1523631716461,2359296,101,-56,-1,-1,0
1523631716461,2818048,101,-56,-1,-1,0
1523631716501,3080192,101,-56,-1,-1,0
1523631716501,3604480,101,-56,-1,-1,0
1523631716501,3997696,101,-56,-1,-1,0
1523631716501,4194304,101,-56,-1,-1,0
1523631716501,4259840,101,-56,-1,-1,0
1523631716543,4128768,101,-56,-1,-1,0
1523631716543,3604480,101,-56,-1,-1,0
1523631716543,3014656,101,-56,-1,-1,0
1523631716543,2359296,101,-56,-1,-1,0
1523631716543,1835008,101,-56,-1,-1,0
1523631716581,1179648,101,-56,-1,-1,0
1523631716581,458752,101,-56,-1,-1,0
1523631716581,0,101,-56,-1,-1,0
1523631716581,-131072,101,-56,-1,-1,0
1523631716581,-196608,101,-56,-1,-1,0
1523631716623,-327680,101,-56,-1,-1,0
1523631716623,-458752,101,-56,-1,-1,0
1523631716623,-589824,101,-56,-1,-1,0
1523631716623,-655360,101,-56,-1,-1,0
1523631716623,-720896,101,-56,-1,-1,0
1523631716661,-655360,101,-56,-1,-1,0
1523631716661,-589824,101,-56,-1,-1,0
1523631716661,-655360,101,-56,-1,-1,0
1523631716661,-917504,101,-56,-1,-1,0
1523631716661,-1114112,101,-56,-1,-1,0
1523631716701,-1179648,101,-56,-1,-1,0
1523631716701,-983040,101,-56,-1,-1,0
1523631716701,-917504,101,-56,-1,-1,0
1523631716701,-851968,101,-56,-1,-1,0
1523631716701,-983040,101,-56,-1,-1,0
1523631716741,-1114112,101,-56,-1,-1,0
1523631716741,-1376256,101,-56,-1,-1,0
1523631716741,-1376256,101,-56,-1,-1,0
1523631716741,-1245184,101,-56,-1,-1,0
1523631716741,-1245184,101,-56,-1,-1,0
1523631716781,-1245184,101,-56,-1,-1,0
1523631716781,-1048576,101,-56,-1,-1,0
1523631716781,-1048576,101,-56,-1,-1,0
1523631716781,-1179648,101,-56,-1,-1,0
1523631716781,-1376256,101,-56,-1,-1,0
1523631716821,-1769472,101,-56,-1,-1,0
1523631716821,-2097152,101,-56,-1,-1,0
1523631716821,-2162688,101,-56,-1,-1,0
1523631716821,-1966080,101,-56,-1,-1,0
1523631716821,-1507328,101,-56,-1,-1,0
1523631716861,-851968,99,-56,-1,-1,0
1523631716861,-458752,99,-56,-1,-1,0
1523631716861,-589824,99,-56,-1,-1,0
1523631716861,-917504,99,-56,-1,-1,0
1523631716861,-1179648,99,-56,-1,-1,0
1523631716901,-1310720,99,-56,-1,-1,0
1523631716901,-1245184,99,-56,-1,-1,0
1523631716901,-1245184,99,-56,-1,-1,0
1523631716901,-917504,99,-56,-1,-1,0
1523631716901,1572864,99,-56,-1,-1,0
1523631716941,7208960,99,-56,-1,-1,0
1523631716941,10092544,99,-56,-1,-1,0
1523631716941,4849664,99,-56,-1,-1,0
1523631716941,-3211264,99,-56,-1,-1,0
1523631716941,-5898240,99,-56,-1,-1,0
1523631716981,-4194304,99,-56,-1,-1,0
1523631716981,-2293760,99,-56,-1,-1,0
1523631716981,-1507328,99,-56,-1,-1,0
1523631716981,-1310720,99,-56,-1,-1,0
1523631716981,-1179648,99,-56,-1,-1,0
1523631717021,-1114112,99,-56,-1,-1,0
1523631717021,-1310720,99,-56,-1,-1,0
1523631717021,-1376256,99,-56,-1,-1,0
1523631717021,-983040,99,-56,-1,-1,0
1523631717021,-524288,99,-56,-1,-1,0
1523631717061,-458752,99,-56,-1,-1,0
1523631717061,-458752,99,-56,-1,-1,0
1523631717061,-327680,99,-56,-1,-1,0
1523631717061,-65536,99,-56,-1,-1,0
1523631717061,65536,99,-56,-1,-1,0
1523631717101,327680,99,-56,-1,-1,0
1523631717101,458752,99,-56,-1,-1,0
1523631717101,786432,99,-56,-1,-1,0
1523631717101,1245184,99,-56,-1,-1,0
1523631717101,1769472,99,-56,-1,-1,0
1523631717141,2162688,99,-56,-1,-1,0
1523631717141,2949120,99,-56,-1,-1,0
1523631717141,3538944,99,-56,-1,-1,0
1523631717141,3932160,99,-56,-1,-1,0
1523631717141,4194304,99,-56,-1,-1,0
1523631717183,4456448,99,-56,-1,-1,0
1523631717183,4521984,99,-56,-1,-1,0
1523631717183,4325376,99,-56,-1,-1,0
1523631717183,3670016,99,-56,-1,-1,0
1523631717183,2949120,99,-56,-1,-1,0
1523631717221,2228224,99,-56,-1,-1,0
1523631717221,1572864,99,-56,-1,-1,0
1523631717221,983040,99,-56,-1,-1,0
1523631717221,589824,99,-56,-1,-1,0
1523631717221,196608,99,-56,-1,-1,0
1523631717261,-65536,99,-56,-1,-1,0
1523631717261,-262144,99,-56,-1,-1,0
1523631717261,-327680,99,-56,-1,-1,0
1523631717261,-458752,99,-56,-1,-1,0
1523631717261,-655360,99,-56,-1,-1,0
1523631717301,-851968,99,-56,-1,-1,0
1523631717301,-786432,99,-56,-1,-1,0
1523631717301,-458752,99,-56,-1,-1,0
1523631717301,-393216,99,-56,-1,-1,0
1523631717301,-524288,99,-56,-1,-1,0
1523631717341,-589824,99,-56,-1,-1,0
1523631717341,-655360,99,-56,-1,-1,0
1523631717341,-786432,99,-56,-1,-1,0
1523631717341,-917504,99,-56,-1,-1,0
1523631717341,-1114112,99,-56,-1,-1,0
1523631717381,-1245184,99,-56,-1,-1,0
1523631717381,-1114112,99,-56,-1,-1,0
1523631717381,-851968,99,-56,-1,-1,0
1523631717381,-851968,99,-56,-1,-1,0
1523631717381,-917504,99,-56,-1,-1,0
1523631717421,-1048576,99,-56,-1,-1,0
1523631717421,-1048576,99,-56,-1,-1,0
1523631717421,-1114112,99,-56,-1,-1,0
1523631717421,-1245184,99,-56,-1,-1,0
1523631717421,-1310720,99,-56,-1,-1,0
1523631717461,-1310720,99,-56,-1,-1,0
1523631717461,-1245184,99,-56,-1,-1,0
1523631717461,-1376256,99,-56,-1,-1,0
1523631717461,-1703936,99,-56,-1,-1,0
1523631717461,-1900544,99,-56,-1,-1,0
1523631717501,-1900544,99,-56,-1,-1,0
1523631717501,-1572864,99,-56,-1,-1,0
1523631717501,-1114112,99,-56,-1,-1,0
1523631717501,-524288,99,-56,-1,-1,0
1523631717501,-393216,99,-56,-1,-1,0
1523631717541,-720896,99,-56,-1,-1,0
1523631717541,-1048576,99,-56,-1,-1,0
1523631717541,-1048576,99,-56,-1,-1,0
1523631717541,-1179648,99,-56,-1,-1,0
1523631717541,-1441792,99,-56,-1,-1,0
1523631717581,-1441792,98,-56,-1,-1,0
1523631717581,65536,98,-56,-1,-1,0
1523631717581,4915200,98,-56,-1,-1,0
1523631717581,9568256,98,-56,-1,-1,0
1523631717581,6946816,98,-56,-1,-1,0
1523631717621,-1310720,98,-56,-1,-1,0
1523631717621,-6422528,98,-56,-1,-1,0
1523631717621,-5439488,98,-56,-1,-1,0
1523631717621,-2949120,98,-56,-1,-1,0
1523631717621,-1769472,98,-56,-1,-1,0
1523631717663,-1441792,98,-56,-1,-1,0
1523631717663,-1441792,98,-56,-1,-1,0
1523631717663,-1376256,98,-56,-1,-1,0
1523631717663,-1245184,98,-56,-1,-1,0
1523631717663,-1114112,98,-56,-1,-1,0
1523631717701,-983040,98,-56,-1,-1,0
1523631717701,-851968,98,-56,-1,-1,0
1523631717701,-720896,98,-56,-1,-1,0
1523631717701,-655360,98,-56,-1,-1,0
1523631717701,-589824,98,-56,-1,-1,0
1523631717741,-393216,98,-56,-1,-1,0
1523631717741,-65536,98,-56,-1,-1,0
1523631717741,262144,98,-56,-1,-1,0
1523631717741,458752,98,-56,-1,-1,0
1523631717741,720896,98,-56,-1,-1,0
1523631717781,1114112,98,-56,-1,-1,0
1523631717781,1638400,98,-56,-1,-1,0
1523631717781,2162688,98,-56,-1,-1,0
1523631717781,2883584,98,-56,-1,-1,0
1523631717781,3473408,98,-56,-1,-1,0
1523631717823,3932160,98,-56,-1,-1,0
1523631717823,4390912,98,-56,-1,-1,0
1523631717823,4784128,98,-56,-1,-1,0
1523631717823,4849664,98,-56,-1,-1,0
1523631717823,4718592,98,-56,-1,-1,0
1523631717861,4390912,98,-56,-1,-1,0
1523631717861,3735552,98,-56,-1,-1,0
1523631717861,2883584,98,-56,-1,-1,0
1523631717861,2097152,98,-56,-1,-1,0
1523631717861,1310720,98,-56,-1,-1,0
1523631717901,655360,98,-56,-1,-1,0
1523631717901,131072,98,-56,-1,-1,0
1523631717901,0,98,-56,-1,-1,0
1523631717901,-196608,98,-56,-1,-1,0
1523631717901,-327680,98,-56,-1,-1,0
1523631717941,-458752,98,-56,-1,-1,0
1523631717941,-524288,98,-56,-1,-1,0
1523631717941,-655360,98,-56,-1,-1,0
1523631717941,-720896,98,-56,-1,-1,0
1523631717941,-786432,98,-56,-1,-1,0
1523631717982,-720896,98,-56,-1,-1,0
1523631717982,-786432,98,-56,-1,-1,0
1523631717982,-917504,98,-56,-1,-1,0
1523631717982,-1114112,98,-56,-1,-1,0
1523631717982,-1048576,98,-56,-1,-1,0
1523631718021,-851968,98,-56,-1,-1,0
1523631718021,-786432,98,-56,-1,-1,0
1523631718021,-1114112,98,-56,-1,-1,0
1523631718021,-1376256,98,-56,-1,-1,0
1523631718021,-1310720,98,-56,-1,-1,0
1523631718061,-1245184,98,-56,-1,-1,0
1523631718061,-1376256,98,-56,-1,-1,0
1523631718061,-1507328,98,-56,-1,-1,0
1523631718061,-1245184,98,-56,-1,-1,0
1523631718061,-786432,98,-56,-1,-1,0
1523631718101,-720896,98,-56,-1,-1,0
1523631718101,-1179648,98,-56,-1,-1,0
1523631718101,-1507328,98,-56,-1,-1,0
1523631718101,-1507328,98,-56,-1,-1,0
1523631718101,-1376256,98,-56,-1,-1,0
1523631718141,-1376256,98,-56,-1,-1,0
1523631718141,-1507328,98,-56,-1,-1,0
1523631718141,-1507328,98,-56,-1,-1,0
1523631718141,-1441792,98,-56,-1,-1,0
1523631718141,-1638400,98,-56,-1,-1,0
1523631718181,-2097152,98,-56,-1,-1,0
1523631718181,-2097152,98,-56,-1,-1,0
1523631718181,-1507328,98,-56,-1,-1,0
1523631718181,-720896,98,-56,-1,-1,0
1523631718181,-524288,98,-56,-1,-1,0
1523631718221,-655360,95,-56,-1,-1,0
1523631718221,-983040,95,-56,-1,-1,0
1523631718221,-1179648,95,-56,-1,-1,0
1523631718221,-1376256,95,-56,-1,-1,0
1523631718221,-1376256,95,-56,-1,-1,0
1523631718261,-1376256,95,-56,-1,-1,0
1523631718261,-1245184,95,-56,-1,-1,0
1523631718261,655360,95,-56,-1,-1,0
1523631718261,5898240,95,-56,-1,-1,0
1523631718261,10027008,95,-56,-1,-1,0
1523631718301,6291456,95,-56,-1,-1,0
1523631718301,-1835008,95,-56,-1,-1,0
1523631718301,-5963776,95,-56,-1,-1,0
1523631718301,-4784128,95,-56,-1,-1,0
1523631718301,-2818048,95,-56,-1,-1,0
1523631718341,-2031616,95,-56,-1,-1,0
1523631718341,-1769472,95,-56,-1,-1,0
1523631718341,-1507328,95,-56,-1,-1,0
1523631718341,-1310720,95,-56,-1,-1,0
1523631718341,-1310720,95,-56,-1,-1,0
1523631718381,-1310720,95,-56,-1,-1,0
1523631718381,-1310720,95,-56,-1,-1,0
1523631718381,-1245184,95,-56,-1,-1,0
1523631718381,-1114112,95,-56,-1,-1,0
1523631718381,-851968,95,-56,-1,-1,0
1523631718421,-720896,95,-56,-1,-1,0
1523631718421,-589824,95,-56,-1,-1,0
1523631718421,-327680,95,-56,-1,-1,0
1523631718421,-65536,95,-56,-1,-1,0
1523631718421,65536,95,-56,-1,-1,0
1523631718463,393216,95,-56,-1,-1,0
1523631718463,851968,95,-56,-1,-1,0
1523631718463,1441792,95,-56,-1,-1,0
1523631718463,1835008,95,-56,-1,-1,0
1523631718463,2424832,95,-56,-1,-1,0
1523631718501,3276800,95,-56,-1,-1,0
1523631718501,4128768,95,-56,-1,-1,0
1523631718501,4653056,95,-56,-1,-1,0
1523631718501,4980736,95,-56,-1,-1,0
1523631718501,4784128,95,-56,-1,-1,0
1523631718541,4456448,95,-56,-1,-1,0
1523631718541,4194304,95,-56,-1,-1,0
1523631718541,3670016,95,-56,-1,-1,0
1523631718541,2949120,95,-56,-1,-1,0
1523631718541,2097152,95,-56,-1,-1,0
1523631718581,1376256,95,-56,-1,-1,0
1523631718581,720896,95,-56,-1,-1,0
1523631718581,131072,95,-56,-1,-1,0
1523631718581,-131072,95,-56,-1,-1,0
1523631718581,-327680,95,-56,-1,-1,0
1523631718621,-524288,95,-56,-1,-1,0
1523631718621,-589824,95,-56,-1,-1,0
1523631718621,-458752,95,-56,-1,-1,0
1523631718621,-327680,95,-56,-1,-1,0
1523631718621,-589824,95,-56,-1,-1,0
1523631718661,-917504,95,-56,-1,-1,0
1523631718661,-1114112,95,-56,-1,-1,0
1523631718661,-1048576,95,-56,-1,-1,0
1523631718661,-983040,95,-56,-1,-1,0
1523631718661,-983040,95,-56,-1,-1,0
1523631718701,-1114112,95,-56,-1,-1,0
1523631718701,-1179648,95,-56,-1,-1,0
1523631718701,-1048576,95,-56,-1,-1,0
1523631718701,-851968,95,-56,-1,-1,0
1523631718701,-851968,95,-56,-1,-1,0
1523631718741,-786432,95,-56,-1,-1,0
1523631718741,-851968,95,-56,-1,-1,0
1523631718741,-917504,95,-56,-1,-1,0
1523631718741,-1179648,95,-56,-1,-1,0
1523631718741,-1441792,95,-56,-1,-1,0
1523631718781,-1441792,95,-56,-1,-1,0
1523631718781,-1245184,95,-56,-1,-1,0
1523631718781,-983040,95,-56,-1,-1,0
1523631718781,-786432,95,-56,-1,-1,0
1523631718781,-983040,95,-56,-1,-1,0
1523631718821,-1507328,95,-56,-1,-1,0
1523631718821,-2097152,95,-56,-1,-1,0
1523631718821,-2490368,95,-56,-1,-1,0
1523631718821,-2293760,95,-56,-1,-1,0
1523631718821,-1703936,95,-56,-1,-1,0
1523631718861,-983040,93,-56,-1,-1,0
1523631718861,-393216,93,-56,-1,-1,0
1523631718861,-327680,93,-56,-1,-1,0
1523631718861,-589824,93,-56,-1,-1,0
1523631718861,-917504,93,-56,-1,-1,0
1523631718901,-1245184,93,-56,-1,-1,0
1523631718901,-1376256,93,-56,-1,-1,0
1523631718901,-1376256,93,-56,-1,-1,0
1523631718901,-1179648,93,-56,-1,-1,0
1523631718901,-458752,93,-56,-1,-1,0
1523631718941,2949120,93,-56,-1,-1,0
1523631718941,8454144,93,-56,-1,-1,0
1523631718941,8978432,93,-56,-1,-1,0
1523631718941,2031616,93,-56,-1,-1,0
1523631718941,-4521984,93,-56,-1,-1,0
1523631718981,-5177344,93,-56,-1,-1,0
1523631718981,-3014656,93,-56,-1,-1,0
1523631718981,-1835008,93,-56,-1,-1,0
1523631718981,-1572864,93,-56,-1,-1,0
1523631718981,-1572864,93,-56,-1,-1,0
1523631719021,-1441792,93,-56,-1,-1,0
1523631719021,-1310720,93,-56,-1,-1,0
1523631719021,-1245184,93,-56,-1,-1,0
1523631719021,-1048576,93,-56,-1,-1,0
1523631719021,-851968,93,-56,-1,-1,0
1523631719061,-851968,93,-56,-1,-1,0
1523631719061,-917504,93,-56,-1,-1,0
1523631719061,-851968,93,-56,-1,-1,0
1523631719061,-589824,93,-56,-1,-1,0
1523631719061,-262144,93,-56,-1,-1,0
1523631719103,65536,93,-56,-1,-1,0
1523631719103,458752,93,-56,-1,-1,0
1523631719103,851968,93,-56,-1,-1,0
1523631719103,1179648,93,-56,-1,-1,0
1523631719103,1638400,93,-56,-1,-1,0
1523631719141,2162688,93,-56,-1,-1,0
1523631719141,2686976,93,-56,-1,-1,0
1523631719141,3342336,93,-56,-1,-1,0
1523631719141,3997696,93,-56,-1,-1,0
1523631719141,4653056,93,-56,-1,-1,0
1523631719181,5177344,93,-56,-1,-1,0
1523631719181,5505024,93,-56,-1,-1,0
1523631719181,5505024,93,-56,-1,-1,0
1523631719181,5111808,93,-56,-1,-1,0
1523631719181,4259840,93,-56,-1,-1,0
1523631719221,3342336,93,-56,-1,-1,0
1523631719221,2490368,93,-56,-1,-1,0
1523631719221,1703936,93,-56,-1,-1,0
1523631719221,917504,93,-56,-1,-1,0
1523631719221,524288,93,-56,-1,-1,0
1523631719261,327680,93,-56,-1,-1,0
1523631719261,65536,93,-56,-1,-1,0
1523631719261,-131072,93,-56,-1,-1,0
1523631719261,-327680,93,-56,-1,-1,0
1523631719261,-458752,93,-56,-1,-1,0
1523631719301,-589824,93,-56,-1,-1,0
1523631719301,-589824,93,-56,-1,-1,0
1523631719301,-720896,93,-56,-1,-1,0
1523631719301,-917504,93,-56,-1,-1,0
1523631719301,-917504,93,-56,-1,-1,0
1523631719341,-851968,93,-56,-1,-1,0
1523631719341,-786432,93,-56,-1,-1,0
1523631719341,-851968,93,-56,-1,-1,0
1523631719341,-983040,93,-56,-1,-1,0
1523631719341,-1114112,93,-56,-1,-1,0
1523631719381,-1179648,93,-56,-1,-1,0
1523631719381,-1179648,93,-56,-1,-1,0
1523631719381,-1114112,93,-56,-1,-1,0
1523631719381,-1245184,93,-56,-1,-1,0
1523631719381,-1507328,93,-56,-1,-1,0
1523631719421,-1572864,93,-56,-1,-1,0
1523631719421,-1441792,93,-56,-1,-1,0
1523631719421,-1179648,93,-56,-1,-1,0
1523631719421,-983040,93,-56,-1,-1,0
1523631719421,-1245184,93,-56,-1,-1,0
1523631719461,-1835008,92,-56,-1,-1,0
1523631719461,-2228224,92,-56,-1,-1,0
1523631719461,-2097152,92,-56,-1,-1,0
1523631719461,-1966080,92,-56,-1,-1,0
1523631719461,-1638400,92,-56,-1,-1,0
1523631719501,-1179648,92,-56,-1,-1,0
1523631719501,-655360,92,-56,-1,-1,0
1523631719501,-655360,92,-56,-1,-1,0
1523631719501,-1048576,92,-56,-1,-1,0
1523631719501,-1310720,92,-56,-1,-1,0
1523631719541,-1310720,92,-56,-1,-1,0
1523631719541,-1310720,92,-56,-1,-1,0
1523631719541,-1376256,92,-56,-1,-1,0
1523631719541,-1376256,92,-56,-1,-1,0
1523631719541,65536,92,-56,-1,-1,0
1523631719581,4456448,92,-56,-1,-1,0
1523631719581,8781824,92,-56,-1,-1,0
1523631719581,6094848,92,-56,-1,-1,0
1523631719581,-1966080,92,-56,-1,-1,0
1523631719581,-7143424,92,-56,-1,-1,0
1523631719621,-6160384,92,-56,-1,-1,0
1523631719621,-3670016,92,-56,-1,-1,0
1523631719621,-2228224,92,-56,-1,-1,0
1523631719621,-1638400,92,-56,-1,-1,0
1523631719621,-1572864,92,-56,-1,-1,0
1523631719661,-1507328,92,-56,-1,-1,0
1523631719661,-1441792,92,-56,-1,-1,0
1523631719661,-1245184,92,-56,-1,-1,0
1523631719661,-1179648,92,-56,-1,-1,0
1523631719661,-1114112,92,-56,-1,-1,0
1523631719701,-1114112,92,-56,-1,-1,0
1523631719701,-917504,92,-56,-1,-1,0
1523631719701,-720896,92,-56,-1,-1,0
1523631719701,-458752,92,-56,-1,-1,0
1523631719701,-196608,92,-56,-1,-1,0
1523631719742,131072,92,-56,-1,-1,0
1523631719742,458752,92,-56,-1,-1,0
1523631719742,720896,92,-56,-1,-1,0
1523631719742,1048576,92,-56,-1,-1,0
1523631719742,1572864,92,-56,-1,-1,0
1523631719781,2162688,92,-56,-1,-1,0
1523631719781,2949120,92,-56,-1,-1,0
1523631719781,3801088,92,-56,-1,-1,0
1523631719781,4456448,92,-56,-1,-1,0
1523631719781,4980736,92,-56,-1,-1,0
1523631719821,5308416,92,-56,-1,-1,0
1523631719821,5373952,92,-56,-1,-1,0
1523631719821,5046272,92,-56,-1,-1,0
1523631719821,4456448,92,-56,-1,-1,0
1523631719821,3801088,92,-56,-1,-1,0
1523631719861,3080192,92,-56,-1,-1,0
1523631719861,2228224,92,-56,-1,-1,0
1523631719861,1310720,92,-56,-1,-1,0
1523631719861,524288,92,-56,-1,-1,0
1523631719861,65536,92,-56,-1,-1,0
1523631719901,-131072,92,-56,-1,-1,0
1523631719901,-393216,92,-56,-1,-1,0
1523631719901,-524288,92,-56,-1,-1,0
1523631719901,-589824,92,-56,-1,-1,0
1523631719901,-589824,92,-56,-1,-1,0
1523631719941,-655360,92,-56,-1,-1,0
1523631719941,-786432,92,-56,-1,-1,0
1523631719941,-917504,92,-56,-1,-1,0
1523631719941,-983040,92,-56,-1,-1,0
1523631719941,-851968,92,-56,-1,-1,0
1523631719981,-786432,92,-56,-1,-1,0
1523631719981,-1048576,92,-56,-1,-1,0
1523631719981,-1245184,92,-56,-1,-1,0
1523631719981,-1310720,92,-56,-1,-1,0
1523631719981,-1310720,92,-56,-1,-1,0
1523631720021,-1441792,92,-56,-1,-1,0
1523631720021,-1507328,92,-56,-1,-1,0
1523631720021,-1441792,92,-56,-1,-1,0
1523631720021,-1179648,92,-56,-1,-1,0
1523631720021,-1179648,92,-56,-1,-1,0
1523631720061,-1507328,92,-56,-1,-1,0
1523631720061,-2031616,92,-56,-1,-1,0
1523631720061,-2097152,92,-56,-1,-1,0
1523631720061,-2031616,92,-56,-1,-1,0
1523631720061,-2031616,92,-56,-1,-1,0
1523631720101,-2031616,92,-56,-1,-1,0
1523631720101,-1703936,92,-56,-1,-1,0
1523631720101,-1245184,92,-56,-1,-1,0
1523631720101,-983040,92,-56,-1,-1,0
1523631720101,-917504,92,-56,-1,-1,0
1523631720141,-983040,92,-56,-1,-1,0
1523631720141,-1179648,92,-56,-1,-1,0
1523631720141,-1310720,92,-56,-1,-1,0
1523631720141,-1376256,92,-56,-1,-1,0
1523631720141,-1245184,92,-56,-1,-1,0
1523631720181,-1179648,92,-56,-1,-1,0
1523631720181,-458752,92,-56,-1,-1,0
1523631720181,2883584,92,-56,-1,-1,0
1523631720181,8323072,92,-56,-1,-1,0
1523631720181,8585216,92,-56,-1,-1,0
1523631720221,1376256,92,-56,-1,-1,0
1523631720221,-5439488,92,-56,-1,-1,0
1523631720221,-5963776,92,-56,-1,-1,0
1523631720221,-3670016,92,-56,-1,-1,0
1523631720221,-2162688,92,-56,-1,-1,0
1523631720262,-1900544,92,-56,-1,-1,0
1523631720262,-1835008,92,-56,-1,-1,0
1523631720262,-1507328,92,-56,-1,-1,0
1523631720262,-1179648,92,-56,-1,-1,0
1523631720262,-1245184,92,-56,-1,-1,0
1523631720301,-1245184,92,-56,-1,-1,0
1523631720301,-1114112,92,-56,-1,-1,0
1523631720301,-786432,92,-56,-1,-1,0
1523631720301,-589824,92,-56,-1,-1,0
1523631720301,-393216,92,-56,-1,-1,0
1523631720342,-393216,92,-56,-1,-1,0
1523631720342,-327680,92,-56,-1,-1,0
1523631720342,-196608,92,-56,-1,-1,0
1523631720342,131072,92,-56,-1,-1,0
1523631720342,458752,92,-56,-1,-1,0
1523631720382,917504,92,-56,-1,-1,0
1523631720382,1376256,92,-56,-1,-1,0
1523631720382,1900544,92,-56,-1,-1,0
1523631720382,2228224,92,-56,-1,-1,0
1523631720382,2818048,92,-56,-1,-1,0
1523631720422,3670016,92,-56,-1,-1,0
1523631720422,4128768,92,-56,-1,-1,0
1523631720422,4325376,92,-56,-1,-1,0
1523631720422,4521984,92,-56,-1,-1,0
1523631720422,4587520,92,-56,-1,-1,0
1523631720462,4194304,92,-56,-1,-1,0
1523631720462,3473408,92,-56,-1,-1,0
1523631720462,2686976,92,-56,-1,-1,0
1523631720462,1966080,92,-56,-1,-1,0
1523631720462,1310720,92,-56,-1,-1,0
1523631720501,655360,92,-56,-1,-1,0
1523631720501,196608,92,-56,-1,-1,0
1523631720501,-65536,92,-56,-1,-1,0
1523631720501,-327680,92,-56,-1,-1,0
1523631720501,-589824,92,-56,-1,-1,0
1523631720541,-655360,92,-56,-1,-1,0
1523631720541,-393216,92,-56,-1,-1,0
1523631720541,-327680,92,-56,-1,-1,0
1523631720541,-458752,92,-56,-1,-1,0
1523631720541,-524288,92,-56,-1,-1,0
1523631720581,-589824,92,-56,-1,-1,0
1523631720581,-851968,92,-56,-1,-1,0
1523631720581,-917504,92,-56,-1,-1,0
1523631720581,-786432,92,-56,-1,-1,0
1523631720581,-720896,92,-56,-1,-1,0
1523631720621,-786432,92,-56,-1,-1,0
1523631720621,-983040,92,-56,-1,-1,0
1523631720621,-1179648,92,-56,-1,-1,0
1523631720621,-1179648,92,-56,-1,-1,0
1523631720621,-1114112,92,-56,-1,-1,0
1523631720661,-1048576,92,-56,-1,-1,0
1523631720661,-1048576,92,-56,-1,-1,0
1523631720661,-1245184,92,-56,-1,-1,0
1523631720661,-1507328,92,-56,-1,-1,0
1523631720661,-1703936,92,-56,-1,-1,0
1523631720701,-1835008,92,-56,-1,-1,0
1523631720701,-1900544,92,-56,-1,-1,0
1523631720701,-1638400,92,-56,-1,-1,0
1523631720701,-1048576,92,-56,-1,-1,0
1523631720701,-589824,92,-56,-1,-1,0
1523631720741,-458752,92,-56,-1,-1,0
1523631720741,-720896,92,-56,-1,-1,0
1523631720741,-983040,92,-56,-1,-1,0
1523631720741,-1245184,92,-56,-1,-1,0
1523631720741,-1245184,92,-56,-1,-1,0
1523631720782,-1179648,92,-56,-1,-1,0
1523631720782,-1179648,92,-56,-1,-1,0
1523631720782,-1114112,92,-56,-1,-1,0
1523631720782,524288,92,-56,-1,-1,0
1523631720782,5308416,92,-56,-1,-1,0
1523631720821,9568256,92,-56,-1,-1,0
1523631720821,6750208,92,-56,-1,-1,0
1523631720821,-983040,92,-56,-1,-1,0
1523631720821,-5570560,92,-56,-1,-1,0
1523631720821,-4784128,92,-56,-1,-1,0
1523631720861,-2752512,92,-56,-1,-1,0
1523631720861,-1638400,92,-56,-1,-1,0
1523631720861,-1310720,92,-56,-1,-1,0
1523631720861,-1310720,92,-56,-1,-1,0
1523631720861,-1245184,92,-56,-1,-1,0
1523631720901,-1179648,92,-56,-1,-1,0
1523631720901,-1048576,92,-56,-1,-1,0
1523631720901,-917504,92,-56,-1,-1,0
1523631720901,-786432,92,-56,-1,-1,0
1523631720901,-786432,92,-56,-1,-1,0
1523631720941,-655360,92,-56,-1,-1,0
1523631720941,-458752,92,-56,-1,-1,0
1523631720941,-131072,92,-56,-1,-1,0
1523631720941,0,92,-56,-1,-1,0
1523631720941,131072,92,-56,-1,-1,0
1523631720982,196608,92,-56,-1,-1,0
1523631720982,458752,92,-56,-1,-1,0
1523631720982,1179648,92,-56,-1,-1,0
1523631720982,1835008,92,-56,-1,-1,0
1523631720982,2097152,92,-56,-1,-1,0
1523631721023,2359296,92,-56,-1,-1,0
1523631721023,2752512,92,-56,-1,-1,0
1523631721023,3211264,92,-56,-1,-1,0
1523631721023,3670016,92,-56,-1,-1,0
1523631721023,4063232,92,-56,-1,-1,0
1523631721061,4194304,92,-56,-1,-1,0
1523631721061,3997696,92,-56,-1,-1,0
1523631721061,3604480,92,-56,-1,-1,0
1523631721061,3014656,92,-56,-1,-1,0
1523631721061,2359296,92,-56,-1,-1,0
1523631721101,1507328,92,-56,-1,-1,0
1523631721101,720896,92,-56,-1,-1,0
1523631721101,393216,92,-56,-1,-1,0
1523631721101,262144,92,-56,-1,-1,0
1523631721101,131072,92,-56,-1,-1,0
1523631721142,0,92,-56,-1,-1,0
1523631721142,-65536,92,-56,-1,-1,0
1523631721142,-131072,92,-56,-1,-1,0
1523631721142,-196608,92,-56,-1,-1,0
1523631721142,-327680,92,-56,-1,-1,0
1523631721182,-393216,92,-56,-1,-1,0
1523631721182,-327680,92,-56,-1,-1,0
1523631721182,-327680,92,-56,-1,-1,0
1523631721182,-458752,92,-56,-1,-1,0
1523631721182,-524288,92,-56,-1,-1,0
1523631721221,-655360,92,-56,-1,-1,0
1523631721221,-655360,92,-56,-1,-1,0
1523631721221,-720896,92,-56,-1,-1,0
1523631721221,-851968,92,-56,-1,-1,0
1523631721221,-786432,92,-56,-1,-1,0
1523631721261,-655360,92,-56,-1,-1,0
1523631721261,-720896,92,-56,-1,-1,0
1523631721261,-917504,92,-56,-1,-1,0
1523631721261,-1048576,92,-56,-1,-1,0
1523631721261,-1048576,92,-56,-1,-1,0
1523631721301,-1048576,92,-56,-1,-1,0
1523631721301,-1114112,92,-56,-1,-1,0
1523631721301,-1310720,92,-56,-1,-1,0
1523631721301,-1572864,92,-56,-1,-1,0
1523631721301,-1769472,92,-56,-1,-1,0
1523631721341,-1835008,92,-56,-1,-1,0
1523631721341,-1703936,92,-56,-1,-1,0
1523631721341,-1310720,92,-56,-1,-1,0
1523631721341,-786432,92,-56,-1,-1,0
1523631721341,-393216,92,-56,-1,-1,0
1523631721382,-393216,92,-56,-1,-1,0
1523631721382,-720896,92,-56,-1,-1,0
1523631721382,-1048576,92,-56,-1,-1,0
1523631721382,-1179648,92,-56,-1,-1,0
1523631721382,-1179648,92,-56,-1,-1,0
1523631721421,-1245184,92,-56,-1,-1,0
1523631721421,-1310720,92,-56,-1,-1,0
1523631721421,-196608,92,-56,-1,-1,0
1523631721421,3866624,92,-56,-1,-1,0
1523631721421,9043968,92,-56,-1,-1,0
1523631721462,8257536,92,-56,-1,-1,0
1523631721462,917504,92,-56,-1,-1,0
1523631721462,-5046272,92,-56,-1,-1,0
1523631721462,-5177344,92,-56,-1,-1,0
1523631721462,-3080192,92,-56,-1,-1,0
1523631721501,-1900544,92,-56,-1,-1,0
1523631721501,-1507328,92,-56,-1,-1,0
1523631721501,-1507328,92,-56,-1,-1,0
1523631721501,-1376256,92,-56,-1,-1,0
1523631721501,-1376256,92,-56,-1,-1,0
1523631721542,-1310720,92,-56,-1,-1,0
1523631721542,-1310720,92,-56,-1,-1,0
1523631721542,-1179648,92,-56,-1,-1,0
1523631721542,-1048576,92,-56,-1,-1,0
1523631721542,-786432,92,-56,-1,-1,0
1523631721581,-589824,92,-56,-1,-1,0
1523631721581,-393216,92,-56,-1,-1,0
1523631721581,-196608,92,-56,-1,-1,0
1523631721581,0,92,-56,-1,-1,0
1523631721581,262144,92,-56,-1,-1,0
1523631721622,589824,92,-56,-1,-1,0
1523631721622,917504,92,-56,-1,-1,0
1523631721622,1376256,92,-56,-1,-1,0
1523631721622,2031616,92,-56,-1,-1,0
1523631721622,2752512,92,-56,-1,-1,0
1523631721662,3342336,92,-56,-1,-1,0
1523631721662,3801088,92,-56,-1,-1,0
1523631721662,4259840,92,-56,-1,-1,0
1523631721662,4653056,92,-56,-1,-1,0
1523631721662,4915200,92,-56,-1,-1,0
1523631721701,4784128,92,-56,-1,-1,0
1523631721701,4456448,92,-56,-1,-1,0
1523631721701,3801088,92,-56,-1,-1,0
1523631721701,3014656,92,-56,-1,-1,0
1523631721701,2031616,92,-56,-1,-1,0
1523631721741,1114112,92,-56,-1,-1,0
1523631721741,589824,92,-56,-1,-1,0
1523631721741,327680,92,-56,-1,-1,0
1523631721741,0,92,-56,-1,-1,0
1523631721741,-196608,92,-56,-1,-1,0
1523631721782,-458752,92,-56,-1,-1,0
1523631721782,-589824,92,-56,-1,-1,0
1523631721782,-655360,92,-56,-1,-1,0
1523631721782,-655360,92,-56,-1,-1,0
1523631721782,-720896,92,-56,-1,-1,0
1523631721821,-851968,92,-56,-1,-1,0
1523631721821,-917504,92,-56,-1,-1,0
1523631721821,-983040,92,-56,-1,-1,0
1523631721821,-1114112,92,-56,-1,-1,0
1523631721821,-1048576,92,-56,-1,-1,0
1523631721861,-1048576,92,-56,-1,-1,0
1523631721861,-1179648,92,-56,-1,-1,0
1523631721861,-1245184,92,-56,-1,-1,0
1523631721861,-1245184,92,-56,-1,-1,0
1523631721861,-1245184,92,-56,-1,-1,0
1523631721902,-1310720,92,-56,-1,-1,0
1523631721902,-1310720,92,-56,-1,-1,0
1523631721902,-1441792,92,-56,-1,-1,0
1523631721902,-1441792,92,-56,-1,-1,0
1523631721902,-1441792,92,-56,-1,-1,0
1523631721942,-1376256,92,-56,-1,-1,0
1523631721942,-1310720,92,-56,-1,-1,0
1523631721942,-1376256,92,-56,-1,-1,0
1523631721942,-1507328,92,-56,-1,-1,0
1523631721942,-1769472,92,-56,-1,-1,0
1523631721982,-2031616,92,-56,-1,-1,0
1523631721982,-2031616,92,-56,-1,-1,0
1523631721982,-1966080,92,-56,-1,-1,0
1523631721982,-1703936,92,-56,-1,-1,0
1523631721982,-1310720,92,-56,-1,-1,0
1523631722022,-917504,91,-56,-1,-1,0
1523631722022,-851968,91,-56,-1,-1,0
1523631722022,-1114112,91,-56,-1,-1,0
1523631722022,-1572864,91,-56,-1,-1,0
1523631722022,-1769472,91,-56,-1,-1,0
1523631722062,-1638400,91,-56,-1,-1,0
1523631722062,-1376256,91,-56,-1,-1,0
1523631722062,-983040,91,-56,-1,-1,0
1523631722062,917504,91,-56,-1,-1,0
1523631722062,5963776,91,-56,-1,-1,0
1523631722102,9633792,91,-56,-1,-1,0
1523631722102,5832704,91,-56,-1,-1,0
1523631722102,-2424832,91,-56,-1,-1,0
1523631722102,-6881280,91,-56,-1,-1,0
1523631722102,-5898240,91,-56,-1,-1,0
1523631722141,-3473408,91,-56,-1,-1,0
1523631722141,-2031616,91,-56,-1,-1,0
1523631722141,-1572864,91,-56,-1,-1,0
1523631722141,-1572864,91,-56,-1,-1,0
1523631722141,-1441792,91,-56,-1,-1,0
1523631722182,-1245184,91,-56,-1,-1,0
1523631722182,-1048576,91,-56,-1,-1,0
1523631722182,-983040,91,-56,-1,-1,0
1523631722182,-917504,91,-56,-1,-1,0
1523631722182,-720896,91,-56,-1,-1,0
1523631722221,-589824,91,-56,-1,-1,0
1523631722221,-458752,91,-56,-1,-1,0
1523631722221,-196608,91,-56,-1,-1,0
1523631722221,0,91,-56,-1,-1,0
1523631722221,262144,91,-56,-1,-1,0
1523631722262,655360,91,-56,-1,-1,0
1523631722262,1114112,91,-56,-1,-1,0
1523631722262,1441792,91,-56,-1,-1,0
1523631722262,1835008,91,-56,-1,-1,0
1523631722262,2293760,91,-56,-1,-1,0
1523631722303,2818048,91,-56,-1,-1,0
1523631722303,3276800,91,-56,-1,-1,0
1523631722303,3801088,91,-56,-1,-1,0
1523631722303,4194304,91,-56,-1,-1,0
1523631722303,4390912,91,-56,-1,-1,0
1523631722342,4456448,91,-56,-1,-1,0
1523631722342,4259840,91,-56,-1,-1,0
1523631722342,3866624,91,-56,-1,-1,0
1523631722342,3145728,91,-56,-1,-1,0
1523631722342,2359296,91,-56,-1,-1,0
1523631722382,1572864,91,-56,-1,-1,0
1523631722382,1114112,91,-56,-1,-1,0
1523631722382,524288,91,-56,-1,-1,0
1523631722382,0,91,-56,-1,-1,0
1523631722382,-262144,91,-56,-1,-1,0
1523631722422,-196608,91,-56,-1,-1,0
1523631722422,-196608,91,-56,-1,-1,0
1523631722422,-262144,91,-56,-1,-1,0
1523631722422,-458752,91,-56,-1,-1,0
1523631722422,-458752,91,-56,-1,-1,0
1523631722462,-393216,91,-56,-1,-1,0
1523631722462,-327680,91,-56,-1,-1,0
1523631722462,-524288,91,-56,-1,-1,0
1523631722462,-524288,91,-56,-1,-1,0
1523631722462,-524288,91,-56,-1,-1,0
1523631722502,-655360,91,-56,-1,-1,0
1523631722502,-720896,91,-56,-1,-1,0
1523631722502,-786432,91,-56,-1,-1,0
1523631722502,-917504,91,-56,-1,-1,0
1523631722502,-1114112,91,-56,-1,-1,0
1523631722542,-1245184,91,-56,-1,-1,0
1523631722542,-1114112,91,-56,-1,-1,0
1523631722542,-917504,91,-56,-1,-1,0
1523631722542,-983040,91,-56,-1,-1,0
1523631722542,-1114112,91,-56,-1,-1,0
1523631722582,-1245184,91,-56,-1,-1,0
1523631722582,-1310720,91,-56,-1,-1,0
1523631722582,-1179648,91,-56,-1,-1,0
1523631722582,-1245184,91,-56,-1,-1,0
1523631722582,-1441792,91,-56,-1,-1,0
1523631722622,-1572864,91,-56,-1,-1,0
1523631722622,-1572864,91,-56,-1,-1,0
1523631722622,-1703936,91,-56,-1,-1,0
1523631722622,-1900544,91,-56,-1,-1,0
1523631722622,-1835008,91,-56,-1,-1,0
1523631722662,-1572864,90,-56,-1,-1,0
1523631722662,-1114112,90,-56,-1,-1,0
1523631722662,-917504,90,-56,-1,-1,0
1523631722662,-983040,90,-56,-1,-1,0
1523631722662,-1179648,90,-56,-1,-1,0
1523631722702,-1376256,90,-56,-1,-1,0
1523631722702,-1310720,90,-56,-1,-1,0
1523631722702,-1114112,90,-56,-1,-1,0
1523631722702,-983040,90,-56,-1,-1,0
1523631722702,-589824,90,-56,-1,-1,0
1523631722742,2490368,90,-56,-1,-1,0
1523631722742,8585216,90,-56,-1,-1,0
1523631722742,10747904,90,-56,-1,-1,0
1523631722742,4128768,90,-56,-1,-1,0
1523631722742,-4259840,90,-56,-1,-1,0
1523631722782,-6619136,90,-56,-1,-1,0
1523631722782,-4390912,90,-56,-1,-1,0
1523631722782,-2359296,90,-56,-1,-1,0
1523631722782,-1507328,90,-56,-1,-1,0
1523631722782,-1376256,90,-56,-1,-1,0
1523631722821,-1245184,90,-56,-1,-1,0
1523631722821,-1048576,90,-56,-1,-1,0
1523631722821,-917504,90,-56,-1,-1,0
1523631722821,-917504,90,-56,-1,-1,0
1523631722821,-851968,90,-56,-1,-1,0
1523631722862,-786432,90,-56,-1,-1,0
1523631722862,-524288,90,-56,-1,-1,0
1523631722862,-196608,90,-56,-1,-1,0
1523631722862,0,90,-56,-1,-1,0
1523631722862,131072,90,-56,-1,-1,0
1523631722902,327680,90,-56,-1,-1,0
1523631722902,458752,90,-56,-1,-1,0
1523631722902,458752,90,-56,-1,-1,0
1523631722902,786432,90,-56,-1,-1,0
1523631722902,1507328,90,-56,-1,-1,0
1523631722943,2162688,90,-56,-1,-1,0
1523631722943,2490368,90,-56,-1,-1,0
1523631722943,2883584,90,-56,-1,-1,0
1523631722943,3276800,90,-56,-1,-1,0
1523631722943,3473408,90,-56,-1,-1,0
1523631722982,3538944,90,-56,-1,-1,0
1523631722982,3735552,90,-56,-1,-1,0
1523631722982,3997696,90,-56,-1,-1,0
1523631722982,3997696,90,-56,-1,-1,0
1523631722982,3407872,90,-56,-1,-1,0
1523631723022,2686976,90,-56,-1,-1,0
1523631723022,1900544,90,-56,-1,-1,0
1523631723022,1114112,90,-56,-1,-1,0
1523631723022,589824,90,-56,-1,-1,0
1523631723022,327680,90,-56,-1,-1,0
1523631723062,131072,90,-56,-1,-1,0
1523631723062,-196608,90,-56,-1,-1,0
1523631723062,-327680,90,-56,-1,-1,0
1523631723062,-393216,90,-56,-1,-1,0
1523631723062,-393216,90,-56,-1,-1,0
1523631723102,-327680,90,-56,-1,-1,0
1523631723102,-262144,90,-56,-1,-1,0
1523631723102,-393216,90,-56,-1,-1,0
1523631723102,-524288,90,-56,-1,-1,0
1523631723102,-655360,90,-56,-1,-1,0
1523631723141,-786432,90,-56,-1,-1,0
1523631723141,-720896,90,-56,-1,-1,0
1523631723141,-655360,90,-56,-1,-1,0
1523631723141,-720896,90,-56,-1,-1,0
1523631723141,-917504,90,-56,-1,-1,0
1523631723182,-983040,90,-56,-1,-1,0
1523631723182,-983040,90,-56,-1,-1,0
1523631723182,-1048576,90,-56,-1,-1,0
1523631723182,-1114112,90,-56,-1,-1,0
1523631723182,-1114112,90,-56,-1,-1,0
1523631723222,-1179648,90,-56,-1,-1,0
1523631723222,-1376256,90,-56,-1,-1,0
1523631723222,-1245184,90,-56,-1,-1,0
1523631723222,-1048576,90,-56,-1,-1,0
1523631723222,-1245184,90,-56,-1,-1,0
1523631723262,-1572864,90,-56,-1,-1,0
1523631723262,-1703936,90,-56,-1,-1,0
1523631723262,-1703936,90,-56,-1,-1,0
1523631723262,-1966080,90,-56,-1,-1,0
1523631723262,-2031616,90,-56,-1,-1,0
1523631723302,-1638400,90,-56,-1,-1,0
1523631723302,-1114112,90,-56,-1,-1,0
1523631723302,-851968,90,-56,-1,-1,0
1523631723302,-917504,90,-56,-1,-1,0
1523631723302,-1048576,90,-56,-1,-1,0
1523631723342,-1310720,92,-56,-1,-1,0
1523631723342,-1376256,92,-56,-1,-1,0
1523631723342,-1310720,92,-56,-1,-1,0
1523631723342,-1245184,92,-56,-1,-1,0
1523631723342,-1179648,92,-56,-1,-1,0
1523631723382,1048576,92,-56,-1,-1,0
1523631723382,6684672,92,-56,-1,-1,0
1523631723382,10747904,92,-56,-1,-1,0
1523631723382,6553600,92,-56,-1,-1,0
1523631723382,-2359296,92,-56,-1,-1,0
1523631723422,-6881280,92,-56,-1,-1,0
1523631723422,-5373952,92,-56,-1,-1,0
1523631723422,-2686976,92,-56,-1,-1,0
1523631723422,-1441792,92,-56,-1,-1,0
1523631723422,-1376256,92,-56,-1,-1,0
1523631723462,-1441792,92,-56,-1,-1,0
1523631723462,-1179648,92,-56,-1,-1,0
1523631723462,-983040,92,-56,-1,-1,0
1523631723462,-983040,92,-56,-1,-1,0
1523631723462,-851968,92,-56,-1,-1,0
1523631723502,-786432,92,-56,-1,-1,0
1523631723502,-851968,92,-56,-1,-1,0
1523631723502,-786432,92,-56,-1,-1,0
1523631723502,-393216,92,-56,-1,-1,0
1523631723502,0,92,-56,-1,-1,0
1523631723542,196608,92,-56,-1,-1,0
1523631723542,393216,92,-56,-1,-1,0
1523631723542,655360,92,-56,-1,-1,0
1523631723542,851968,92,-56,-1,-1,0
1523631723542,1310720,92,-56,-1,-1,0
1523631723583,1835008,92,-56,-1,-1,0
1523631723583,2359296,92,-56,-1,-1,0
1523631723583,2621440,92,-56,-1,-1,0
1523631723583,2883584,92,-56,-1,-1,0
1523631723583,3276800,92,-56,-1,-1,0
1523631723622,3670016,92,-56,-1,-1,0
1523631723622,3866624,92,-56,-1,-1,0
1523631723622,3801088,92,-56,-1,-1,0
1523631723622,3735552,92,-56,-1,-1,0
1523631723622,3538944,92,-56,-1,-1,0
1523631723662,2818048,92,-56,-1,-1,0
1523631723662,1966080,92,-56,-1,-1,0
1523631723662,1310720,92,-56,-1,-1,0
1523631723662,786432,92,-56,-1,-1,0
1523631723662,327680,92,-56,-1,-1,0
1523631723702,0,92,-56,-1,-1,0
1523631723702,-262144,92,-56,-1,-1,0
1523631723702,-393216,92,-56,-1,-1,0
1523631723702,-327680,92,-56,-1,-1,0
1523631723702,-327680,92,-56,-1,-1,0
1523631723742,-393216,92,-56,-1,-1,0
1523631723742,-524288,92,-56,-1,-1,0
1523631723742,-655360,92,-56,-1,-1,0
1523631723742,-786432,92,-56,-1,-1,0
1523631723742,-786432,92,-56,-1,-1,0
1523631723782,-720896,92,-56,-1,-1,0
1523631723782,-786432,92,-56,-1,-1,0
1523631723782,-917504,92,-56,-1,-1,0
1523631723782,-983040,92,-56,-1,-1,0
1523631723782,-983040,92,-56,-1,-1,0
1523631723822,-917504,92,-56,-1,-1,0
1523631723822,-851968,92,-56,-1,-1,0
1523631723822,-983040,92,-56,-1,-1,0
1523631723822,-1245184,92,-56,-1,-1,0
1523631723822,-1507328,92,-56,-1,-1,0
1523631723862,-1507328,92,-56,-1,-1,0
1523631723862,-1441792,92,-56,-1,-1,0
1523631723862,-1376256,92,-56,-1,-1,0
1523631723862,-1310720,92,-56,-1,-1,0
1523631723862,-1245184,92,-56,-1,-1,0
1523631723902,-1376256,92,-56,-1,-1,0
1523631723902,-1441792,92,-56,-1,-1,0
1523631723902,-1376256,92,-56,-1,-1,0
1523631723902,-1376256,92,-56,-1,-1,0
1523631723902,-1507328,92,-56,-1,-1,0
1523631723943,-1441792,92,-56,-1,-1,0
1523631723943,-1441792,92,-56,-1,-1,0
1523631723943,-1769472,92,-56,-1,-1,0
1523631723943,-2097152,92,-56,-1,-1,0
1523631723943,-2162688,92,-56,-1,-1,0
1523631723982,-1703936,92,-56,-1,-1,0
1523631723982,-1114112,92,-56,-1,-1,0
1523631723982,-589824,92,-56,-1,-1,0
1523631723982,-720896,92,-56,-1,-1,0
1523631723982,-1245184,92,-56,-1,-1,0
1523631724022,-1638400,92,-56,-1,-1,0
1523631724022,-1703936,92,-56,-1,-1,0
1523631724022,-1638400,92,-56,-1,-1,0
1523631724022,-1376256,92,-56,-1,-1,0
1523631724022,-393216,92,-56,-1,-1,0
1523631724061,2752512,91,-56,-1,-1,0
1523631724061,8519680,91,-56,-1,-1,0
1523631724061,11010048,91,-56,-1,-1,0
1523631724061,5373952,91,-56,-1,-1,0
1523631724061,-2818048,91,-56,-1,-1,0
1523631724101,-5505024,91,-56,-1,-1,0
1523631724101,-3604480,91,-56,-1,-1,0
1523631724101,-1835008,91,-56,-1,-1,0
1523631724101,-1310720,91,-56,-1,-1,0
1523631724101,-1310720,91,-56,-1,-1,0
1523631724141,-1507328,91,-56,-1,-1,0
1523631724141,-1507328,91,-56,-1,-1,0
1523631724141,-1376256,91,-56,-1,-1,0
1523631724141,-1114112,91,-56,-1,-1,0
1523631724141,-983040,91,-56,-1,-1,0
1523631724181,-786432,91,-56,-1,-1,0
1523631724181,-458752,91,-56,-1,-1,0
1523631724181,-196608,91,-56,-1,-1,0
1523631724181,-196608,91,-56,-1,-1,0
1523631724181,-196608,91,-56,-1,-1,0
1523631724223,0,91,-56,-1,-1,0
1523631724223,196608,91,-56,-1,-1,0
1523631724223,589824,91,-56,-1,-1,0
1523631724223,917504,91,-56,-1,-1,0
1523631724223,1114112,91,-56,-1,-1,0
1523631724261,1507328,91,-56,-1,-1,0
1523631724261,2359296,91,-56,-1,-1,0
1523631724261,3080192,91,-56,-1,-1,0
1523631724261,3473408,91,-56,-1,-1,0
1523631724261,3801088,91,-56,-1,-1,0
1523631724301,4194304,91,-56,-1,-1,0
1523631724301,4456448,91,-56,-1,-1,0
1523631724301,4521984,91,-56,-1,-1,0
1523631724301,4390912,91,-56,-1,-1,0
1523631724301,3932160,91,-56,-1,-1,0
1523631724341,3145728,91,-56,-1,-1,0
1523631724341,2359296,91,-56,-1,-1,0
1523631724341,1769472,91,-56,-1,-1,0
1523631724341,1179648,91,-56,-1,-1,0
1523631724341,786432,91,-56,-1,-1,0
1523631724381,393216,91,-56,-1,-1,0
1523631724381,0,91,-56,-1,-1,0
1523631724381,-327680,91,-56,-1,-1,0
1523631724381,-393216,91,-56,-1,-1,0
1523631724381,-327680,91,-56,-1,-1,0
1523631724421,-262144,91,-56,-1,-1,0
1523631724421,-327680,91,-56,-1,-1,0
1523631724421,-393216,91,-56,-1,-1,0
1523631724421,-524288,91,-56,-1,-1,0
1523631724421,-655360,91,-56,-1,-1,0
1523631724461,-655360,91,-56,-1,-1,0
1523631724461,-720896,91,-56,-1,-1,0
1523631724461,-917504,91,-56,-1,-1,0
1523631724461,-1114112,91,-56,-1,-1,0
1523631724461,-1114112,91,-56,-1,-1,0
1523631724501,-1048576,91,-56,-1,-1,0
1523631724501,-983040,91,-56,-1,-1,0
1523631724501,-1048576,91,-56,-1,-1,0
1523631724501,-1179648,91,-56,-1,-1,0
1523631724501,-1179648,91,-56,-1,-1,0
1523631724541,-1114112,91,-56,-1,-1,0
1523631724541,-1114112,91,-56,-1,-1,0
1523631724541,-1245184,91,-56,-1,-1,0
1523631724541,-1310720,91,-56,-1,-1,0
1523631724541,-1310720,91,-56,-1,-1,0
1523631724581,-1310720,91,-56,-1,-1,0
1523631724581,-1441792,91,-56,-1,-1,0
1523631724581,-1572864,91,-56,-1,-1,0
1523631724581,-1376256,91,-56,-1,-1,0
1523631724581,-983040,91,-56,-1,-1,0
1523631724621,-917504,91,-56,-1,-1,0
1523631724621,-1179648,91,-56,-1,-1,0
1523631724621,-1376256,91,-56,-1,-1,0
1523631724621,-1507328,91,-56,-1,-1,0
1523631724621,-1638400,91,-56,-1,-1,0
1523631724661,-1835008,91,-56,-1,-1,0
1523631724661,-1900544,91,-56,-1,-1,0
1523631724661,-1835008,91,-56,-1,-1,0
1523631724661,-1835008,91,-56,-1,-1,0
1523631724661,-1441792,91,-56,-1,-1,0
1523631724701,-983040,91,-56,-1,-1,0
1523631724701,-720896,91,-56,-1,-1,0
1523631724701,-786432,91,-56,-1,-1,0
1523631724701,-983040,91,-56,-1,-1,0
1523631724701,-1179648,91,-56,-1,-1,0
1523631724741,-1179648,91,-56,-1,-1,0
1523631724741,-1245184,91,-56,-1,-1,0
1523631724741,-1245184,91,-56,-1,-1,0
1523631724741,-393216,91,-56,-1,-1,0
1523631724741,3014656,91,-56,-1,-1,0
1523631724781,8585216,91,-56,-1,-1,0
1523631724781,9699328,91,-56,-1,-1,0
1523631724781,3276800,91,-56,-1,-1,0
1523631724781,-3866624,91,-56,-1,-1,0
1523631724781,-5308416,91,-56,-1,-1,0
1523631724821,-3342336,91,-56,-1,-1,0
1523631724821,-1966080,91,-56,-1,-1,0
1523631724821,-1507328,91,-56,-1,-1,0
1523631724821,-1507328,91,-56,-1,-1,0
1523631724821,-1441792,91,-56,-1,-1,0
1523631724863,-1310720,91,-56,-1,-1,0
1523631724863,-1179648,91,-56,-1,-1,0
1523631724863,-1179648,91,-56,-1,-1,0
1523631724863,-1114112,91,-56,-1,-1,0
1523631724863,-917504,91,-56,-1,-1,0
1523631724901,-720896,91,-56,-1,-1,0
1523631724901,-589824,91,-56,-1,-1,0
1523631724901,-458752,91,-56,-1,-1,0
1523631724901,-196608,91,-56,-1,-1,0
1523631724901,0,91,-56,-1,-1,0
1523631724943,131072,91,-56,-1,-1,0
1523631724943,458752,91,-56,-1,-1,0
1523631724943,917504,91,-56,-1,-1,0
1523631724943,1310720,91,-56,-1,-1,0
1523631724943,1572864,91,-56,-1,-1,0
1523631724981,2031616,91,-56,-1,-1,0
1523631724981,2752512,91,-56,-1,-1,0
1523631724981,3473408,91,-56,-1,-1,0
1523631724981,3932160,91,-56,-1,-1,0
1523631724981,4390912,91,-56,-1,-1,0
1523631725021,4784128,91,-56,-1,-1,0
1523631725021,4980736,91,-56,-1,-1,0
1523631725021,4718592,91,-56,-1,-1,0
1523631725021,4194304,91,-56,-1,-1,0
1523631725021,3407872,91,-56,-1,-1,0
1523631725061,2555904,91,-56,-1,-1,0
1523631725061,1769472,91,-56,-1,-1,0
1523631725061,1179648,91,-56,-1,-1,0
1523631725061,655360,91,-56,-1,-1,0
1523631725061,327680,91,-56,-1,-1,0
1523631725101,65536,91,-56,-1,-1,0
1523631725101,-196608,91,-56,-1,-1,0
1523631725101,-458752,91,-56,-1,-1,0
1523631725101,-655360,91,-56,-1,-1,0
1523631725101,-524288,91,-56,-1,-1,0
1523631725141,-393216,91,-56,-1,-1,0
1523631725141,-524288,91,-56,-1,-1,0
1523631725141,-720896,91,-56,-1,-1,0
1523631725141,-917504,91,-56,-1,-1,0
1523631725141,-1048576,91,-56,-1,-1,0
1523631725181,-1048576,91,-56,-1,-1,0
1523631725181,-917504,91,-56,-1,-1,0
1523631725181,-851968,91,-56,-1,-1,0
1523631725181,-851968,91,-56,-1,-1,0
1523631725181,-983040,91,-56,-1,-1,0
1523631725221,-1179648,91,-56,-1,-1,0
1523631725221,-1376256,91,-56,-1,-1,0
1523631725221,-1245184,91,-56,-1,-1,0
1523631725221,-1114112,91,-56,-1,-1,0
1523631725221,-1179648,91,-56,-1,-1,0
1523631725261,-1310720,91,-56,-1,-1,0
1523631725261,-1310720,91,-56,-1,-1,0
1523631725261,-1245184,91,-56,-1,-1,0
1523631725261,-1245184,91,-56,-1,-1,0
1523631725261,-1245184,91,-56,-1,-1,0
1523631725301,-1179648,91,-56,-1,-1,0
1523631725301,-1310720,91,-56,-1,-1,0
1523631725301,-1376256,91,-56,-1,-1,0
1523631725301,-1441792,91,-56,-1,-1,0
1523631725301,-1441792,91,-56,-1,-1,0
1523631725341,-1441792,91,-56,-1,-1,0
1523631725341,-1376256,91,-56,-1,-1,0
1523631725341,-1376256,91,-56,-1,-1,0
1523631725341,-1638400,91,-56,-1,-1,0
1523631725341,-1900544,91,-56,-1,-1,0
1523631725381,-1966080,91,-56,-1,-1,0
1523631725381,-1769472,91,-56,-1,-1,0
1523631725381,-1310720,91,-56,-1,-1,0
1523631725381,-786432,91,-56,-1,-1,0
1523631725381,-589824,91,-56,-1,-1,0
1523631725421,-917504,91,-56,-1,-1,0
1523631725421,-1310720,91,-56,-1,-1,0
1523631725421,-1310720,91,-56,-1,-1,0
1523631725421,-1310720,91,-56,-1,-1,0
1523631725421,-1310720,91,-56,-1,-1,0
1523631725461,-917504,91,-56,-1,-1,0
1523631725461,1376256,91,-56,-1,-1,0
1523631725461,6684672,91,-56,-1,-1,0
1523631725461,9961472,91,-56,-1,-1,0
1523631725461,5505024,91,-56,-1,-1,0
1523631725503,-2818048,91,-56,-1,-1,0
1523631725503,-6684672,91,-56,-1,-1,0
1523631725503,-5111808,91,-56,-1,-1,0
1523631725503,-2752512,91,-56,-1,-1,0
1523631725503,-1769472,91,-56,-1,-1,0
1523631725541,-1507328,91,-56,-1,-1,0
1523631725541,-1441792,91,-56,-1,-1,0
1523631725541,-1376256,91,-56,-1,-1,0
1523631725541,-1441792,91,-56,-1,-1,0
1523631725541,-1245184,91,-56,-1,-1,0
1523631725581,-1048576,91,-56,-1,-1,0
1523631725581,-851968,91,-56,-1,-1,0
1523631725581,-720896,91,-56,-1,-1,0
1523631725581,-458752,91,-56,-1,-1,0
1523631725581,-327680,91,-56,-1,-1,0
1523631725621,-262144,91,-56,-1,-1,0
1523631725621,-65536,91,-56,-1,-1,0
1523631725621,131072,91,-56,-1,-1,0
1523631725621,458752,91,-56,-1,-1,0
1523631725621,917504,91,-56,-1,-1,0
1523631725661,1441792,91,-56,-1,-1,0
1523631725661,1966080,91,-56,-1,-1,0
1523631725661,2555904,91,-56,-1,-1,0
1523631725661,3080192,91,-56,-1,-1,0
1523631725661,3604480,91,-56,-1,-1,0
1523631725701,4128768,91,-56,-1,-1,0
1523631725701,4784128,91,-56,-1,-1,0
1523631725701,5308416,91,-56,-1,-1,0
1523631725701,5439488,91,-56,-1,-1,0
1523631725701,5439488,91,-56,-1,-1,0
1523631725741,5242880,91,-56,-1,-1,0
1523631725741,4653056,91,-56,-1,-1,0
1523631725741,3538944,91,-56,-1,-1,0
1523631725741,2359296,91,-56,-1,-1,0
1523631725741,1507328,91,-56,-1,-1,0
1523631725782,917504,91,-56,-1,-1,0
1523631725782,524288,91,-56,-1,-1,0
1523631725782,131072,91,-56,-1,-1,0
1523631725782,-65536,91,-56,-1,-1,0
1523631725782,-262144,91,-56,-1,-1,0
1523631725821,-262144,91,-56,-1,-1,0
1523631725821,-262144,91,-56,-1,-1,0
1523631725821,-458752,91,-56,-1,-1,0
1523631725821,-720896,91,-56,-1,-1,0
1523631725821,-786432,91,-56,-1,-1,0
1523631725861,-720896,91,-56,-1,-1,0
1523631725861,-720896,91,-56,-1,-1,0
1523631725861,-589824,91,-56,-1,-1,0
1523631725861,-589824,91,-56,-1,-1,0
1523631725861,-720896,91,-56,-1,-1,0
1523631725901,-917504,91,-56,-1,-1,0
1523631725901,-917504,91,-56,-1,-1,0
1523631725901,-983040,91,-56,-1,-1,0
1523631725901,-1179648,91,-56,-1,-1,0
1523631725901,-1114112,91,-56,-1,-1,0
1523631725941,-1179648,91,-56,-1,-1,0
1523631725941,-1245184,91,-56,-1,-1,0
1523631725941,-1179648,91,-56,-1,-1,0
1523631725941,-1114112,91,-56,-1,-1,0
1523631725941,-1114112,91,-56,-1,-1,0
1523631725981,-1048576,91,-56,-1,-1,0
1523631725981,-1114112,91,-56,-1,-1,0
1523631725981,-1245184,91,-56,-1,-1,0
1523631725981,-1376256,91,-56,-1,-1,0
1523631725981,-1572864,91,-56,-1,-1,0
1523631726023,-1703936,91,-56,-1,-1,0
1523631726023,-1835008,91,-56,-1,-1,0
1523631726023,-1966080,91,-56,-1,-1,0
1523631726023,-1572864,91,-56,-1,-1,0
1523631726023,-917504,91,-56,-1,-1,0
1523631726061,-393216,91,-56,-1,-1,0
1523631726061,-327680,91,-56,-1,-1,0
1523631726061,-720896,91,-56,-1,-1,0
1523631726061,-1179648,91,-56,-1,-1,0
1523631726061,-1376256,91,-56,-1,-1,0
1523631726101,-1310720,91,-56,-1,-1,0
1523631726101,-1179648,91,-56,-1,-1,0
1523631726101,-917504,91,-56,-1,-1,0
1523631726101,524288,91,-56,-1,-1,0
1523631726101,4849664,91,-56,-1,-1,0
1523631726143,9306112,91,-56,-1,-1,0
1523631726143,7143424,91,-56,-1,-1,0
1523631726143,-983040,91,-56,-1,-1,0
1523631726143,-6815744,91,-56,-1,-1,0
1523631726143,-6422528,91,-56,-1,-1,0
1523631726181,-3735552,91,-56,-1,-1,0
1523631726181,-2031616,91,-56,-1,-1,0
1523631726181,-1441792,91,-56,-1,-1,0
1523631726181,-1245184,91,-56,-1,-1,0
1523631726181,-1048576,91,-56,-1,-1,0
1523631726221,-1114112,91,-56,-1,-1,0
1523631726221,-1114112,91,-56,-1,-1,0
1523631726221,-983040,91,-56,-1,-1,0
1523631726221,-851968,91,-56,-1,-1,0
1523631726221,-655360,91,-56,-1,-1,0
1523631726261,-393216,91,-56,-1,-1,0
1523631726261,-131072,91,-56,-1,-1,0
1523631726261,0,91,-56,-1,-1,0
1523631726261,262144,91,-56,-1,-1,0
1523631726261,458752,91,-56,-1,-1,0
1523631726301,786432,91,-56,-1,-1,0
1523631726301,1048576,91,-56,-1,-1,0
1523631726301,1310720,91,-56,-1,-1,0
1523631726301,1769472,91,-56,-1,-1,0
1523631726301,2424832,91,-56,-1,-1,0
1523631726341,3080192,91,-56,-1,-1,0
1523631726341,3735552,91,-56,-1,-1,0
1523631726341,4325376,91,-56,-1,-1,0
1523631726341,4718592,91,-56,-1,-1,0
1523631726341,5046272,91,-56,-1,-1,0
1523631726381,5308416,91,-56,-1,-1,0
1523631726381,5242880,91,-56,-1,-1,0
1523631726381,4915200,91,-56,-1,-1,0
1523631726381,4259840,91,-56,-1,-1,0
1523631726381,3342336,91,-56,-1,-1,0
1523631726421,2359296,91,-56,-1,-1,0
1523631726421,1507328,91,-56,-1,-1,0
1523631726421,786432,91,-56,-1,-1,0
1523631726421,262144,91,-56,-1,-1,0
1523631726421,0,91,-56,-1,-1,0
1523631726461,-65536,91,-56,-1,-1,0
1523631726461,-196608,91,-56,-1,-1,0
1523631726461,-262144,91,-56,-1,-1,0
1523631726461,-327680,91,-56,-1,-1,0
1523631726461,-524288,91,-56,-1,-1,0
1523631726501,-851968,91,-56,-1,-1,0
1523631726501,-917504,91,-56,-1,-1,0
1523631726501,-786432,91,-56,-1,-1,0
1523631726501,-720896,91,-56,-1,-1,0
1523631726501,-851968,91,-56,-1,-1,0
1523631726541,-1048576,91,-56,-1,-1,0
1523631726541,-1114112,91,-56,-1,-1,0
1523631726541,-1048576,91,-56,-1,-1,0
1523631726541,-1048576,91,-56,-1,-1,0
1523631726541,-1310720,91,-56,-1,-1,0
1523631726581,-1441792,91,-56,-1,-1,0
1523631726581,-1507328,91,-56,-1,-1,0
1523631726581,-1507328,91,-56,-1,-1,0
1523631726581,-1638400,91,-56,-1,-1,0
1523631726581,-1703936,91,-56,-1,-1,0
1523631726621,-1638400,91,-56,-1,-1,0
1523631726621,-1703936,91,-56,-1,-1,0
1523631726621,-1703936,91,-56,-1,-1,0
1523631726621,-1441792,91,-56,-1,-1,0
1523631726621,-1507328,91,-56,-1,-1,0
1523631726661,-1769472,91,-56,-1,-1,0
1523631726661,-2031616,91,-56,-1,-1,0
1523631726661,-2228224,91,-56,-1,-1,0
1523631726661,-2228224,91,-56,-1,-1,0
1523631726661,-2031616,91,-56,-1,-1,0
1523631726701,-1572864,92,-56,-1,-1,0
1523631726701,-1245184,92,-56,-1,-1,0
1523631726701,-1048576,92,-56,-1,-1,0
1523631726701,-1179648,92,-56,-1,-1,0
1523631726701,-1507328,92,-56,-1,-1,0
1523631726741,-1638400,92,-56,-1,-1,0
1523631726741,-1703936,92,-56,-1,-1,0
1523631726741,-1638400,92,-56,-1,-1,0
1523631726741,-1572864,92,-56,-1,-1,0
1523631726741,-983040,92,-56,-1,-1,0
1523631726783,1638400,92,-56,-1,-1,0
1523631726783,6946816,92,-56,-1,-1,0
1523631726783,8716288,92,-56,-1,-1,0
1523631726783,2883584,92,-56,-1,-1,0
1523631726783,-4849664,92,-56,-1,-1,0
1523631726821,-7274496,92,-56,-1,-1,0
1523631726821,-5242880,92,-56,-1,-1,0
1523631726821,-3014656,92,-56,-1,-1,0
1523631726821,-2162688,92,-56,-1,-1,0
1523631726821,-1835008,92,-56,-1,-1,0
1523631726861,-1572864,92,-56,-1,-1,0
1523631726861,-1441792,92,-56,-1,-1,0
1523631726861,-1376256,92,-56,-1,-1,0
1523631726861,-1310720,92,-56,-1,-1,0
1523631726861,-1245184,92,-56,-1,-1,0
1523631726901,-1179648,92,-56,-1,-1,0
1523631726901,-1048576,92,-56,-1,-1,0
1523631726901,-655360,92,-56,-1,-1,0
1523631726901,-262144,92,-56,-1,-1,0
1523631726901,-65536,92,-56,-1,-1,0
1523631726941,0,92,-56,-1,-1,0
1523631726941,65536,92,-56,-1,-1,0
1523631726941,327680,92,-56,-1,-1,0
1523631726941,851968,92,-56,-1,-1,0
1523631726941,1179648,92,-56,-1,-1,0
1523631726981,1638400,92,-56,-1,-1,0
1523631726981,2293760,92,-56,-1,-1,0
1523631726981,3145728,92,-56,-1,-1,0
1523631726981,3735552,92,-56,-1,-1,0
1523631726981,4194304,92,-56,-1,-1,0
1523631727021,4587520,92,-56,-1,-1,0
1523631727021,4915200,92,-56,-1,-1,0
1523631727021,4915200,92,-56,-1,-1,0
1523631727021,4653056,92,-56,-1,-1,0
1523631727021,4063232,92,-56,-1,-1,0
1523631727061,3276800,92,-56,-1,-1,0
1523631727061,2424832,92,-56,-1,-1,0
1523631727061,1638400,92,-56,-1,-1,0
1523631727061,917504,92,-56,-1,-1,0
1523631727061,393216,92,-56,-1,-1,0
1523631727101,65536,92,-56,-1,-1,0
1523631727101,-262144,92,-56,-1,-1,0
1523631727101,-524288,92,-56,-1,-1,0
1523631727101,-589824,92,-56,-1,-1,0
1523631727101,-589824,92,-56,-1,-1,0
1523631727141,-655360,92,-56,-1,-1,0
1523631727141,-786432,92,-56,-1,-1,0
1523631727141,-851968,92,-56,-1,-1,0
1523631727141,-917504,92,-56,-1,-1,0
1523631727141,-917504,92,-56,-1,-1,0
1523631727181,-851968,92,-56,-1,-1,0
1523631727181,-983040,92,-56,-1,-1,0
1523631727181,-1048576,92,-56,-1,-1,0
1523631727181,-1114112,92,-56,-1,-1,0
1523631727181,-1179648,92,-56,-1,-1,0
1523631727221,-1245184,92,-56,-1,-1,0
1523631727221,-1310720,92,-56,-1,-1,0
1523631727221,-1376256,92,-56,-1,-1,0
1523631727221,-1376256,92,-56,-1,-1,0
1523631727221,-1179648,92,-56,-1,-1,0
1523631727261,-983040,92,-56,-1,-1,0
1523631727261,-983040,92,-56,-1,-1,0
1523631727261,-1114112,92,-56,-1,-1,0
1523631727261,-1245184,92,-56,-1,-1,0
1523631727261,-1310720,92,-56,-1,-1,0
1523631727301,-1441792,92,-56,-1,-1,0
1523631727301,-1835008,92,-56,-1,-1,0
1523631727301,-2031616,92,-56,-1,-1,0
1523631727301,-1900544,92,-56,-1,-1,0
1523631727301,-1703936,92,-56,-1,-1,0
1523631727341,-1376256,92,-56,-1,-1,0
1523631727341,-1114112,92,-56,-1,-1,0
1523631727341,-786432,92,-56,-1,-1,0
1523631727341,-786432,92,-56,-1,-1,0
1523631727341,-1048576,92,-56,-1,-1,0
1523631727381,-1179648,92,-56,-1,-1,0
1523631727381,-1179648,92,-56,-1,-1,0
1523631727381,-1179648,92,-56,-1,-1,0
1523631727381,-1310720,92,-56,-1,-1,0
1523631727381,-1376256,92,-56,-1,-1,0
1523631727423,-983040,92,-56,-1,-1,0
1523631727423,1310720,92,-56,-1,-1,0
1523631727423,6750208,92,-56,-1,-1,0
1523631727423,10223616,92,-56,-1,-1,0
1523631727423,5898240,92,-56,-1,-1,0
1523631727461,-2228224,92,-56,-1,-1,0
1523631727461,-5832704,92,-56,-1,-1,0
1523631727461,-4456448,92,-56,-1,-1,0
1523631727461,-2490368,92,-56,-1,-1,0
1523631727461,-1638400,92,-56,-1,-1,0
1523631727501,-1441792,92,-56,-1,-1,0
1523631727501,-1376256,92,-56,-1,-1,0
1523631727501,-1245184,92,-56,-1,-1,0
1523631727501,-1114112,92,-56,-1,-1,0
1523631727501,-1114112,92,-56,-1,-1,0
1523631727541,-1179648,92,-56,-1,-1,0
1523631727541,-1114112,92,-56,-1,-1,0
1523631727541,-851968,92,-56,-1,-1,0
1523631727541,-524288,92,-56,-1,-1,0
1523631727541,-327680,92,-56,-1,-1,0
1523631727581,-196608,92,-56,-1,-1,0
1523631727581,0,92,-56,-1,-1,0
1523631727581,196608,92,-56,-1,-1,0
1523631727581,524288,92,-56,-1,-1,0
1523631727581,851968,92,-56,-1,-1,0
1523631727621,1310720,92,-56,-1,-1,0
1523631727621,1835008,92,-56,-1,-1,0
1523631727621,2293760,92,-56,-1,-1,0
1523631727621,2818048,92,-56,-1,-1,0
1523631727621,3538944,92,-56,-1,-1,0
1523631727661,4128768,92,-56,-1,-1,0
1523631727661,4521984,92,-56,-1,-1,0
1523631727661,4784128,92,-56,-1,-1,0
1523631727661,4980736,92,-56,-1,-1,0
1523631727661,4849664,92,-56,-1,-1,0
1523631727701,4325376,92,-56,-1,-1,0
1523631727701,3407872,92,-56,-1,-1,0
1523631727701,2490368,92,-56,-1,-1,0
1523631727701,1835008,92,-56,-1,-1,0
1523631727701,1245184,92,-56,-1,-1,0
1523631727741,524288,92,-56,-1,-1,0
1523631727741,65536,92,-56,-1,-1,0
1523631727741,-131072,92,-56,-1,-1,0
1523631727741,-196608,92,-56,-1,-1,0
1523631727741,-327680,92,-56,-1,-1,0
1523631727781,-393216,92,-56,-1,-1,0
1523631727781,-589824,92,-56,-1,-1,0
1523631727781,-720896,92,-56,-1,-1,0
1523631727781,-786432,92,-56,-1,-1,0
1523631727781,-1048576,92,-56,-1,-1,0
1523631727821,-1048576,92,-56,-1,-1,0
1523631727821,-786432,92,-56,-1,-1,0
1523631727821,-589824,92,-56,-1,-1,0
1523631727821,-720896,92,-56,-1,-1,0
1523631727821,-851968,92,-56,-1,-1,0
1523631727861,-983040,92,-56,-1,-1,0
1523631727861,-1048576,92,-56,-1,-1,0
1523631727861,-1114112,92,-56,-1,-1,0
1523631727861,-1114112,92,-56,-1,-1,0
1523631727861,-1048576,92,-56,-1,-1,0
1523631727901,-983040,92,-56,-1,-1,0
1523631727901,-917504,92,-56,-1,-1,0
1523631727901,-1114112,92,-56,-1,-1,0
1523631727901,-1310720,92,-56,-1,-1,0
1523631727901,-1376256,92,-56,-1,-1,0
1523631727941,-1376256,92,-56,-1,-1,0
1523631727941,-1572864,92,-56,-1,-1,0
1523631727941,-1835008,92,-56,-1,-1,0
1523631727941,-1835008,92,-56,-1,-1,0
1523631727941,-1572864,92,-56,-1,-1,0
1523631727981,-983040,92,-56,-1,-1,0
1523631727981,-393216,92,-56,-1,-1,0
1523631727981,-65536,92,-56,-1,-1,0
1523631727981,-196608,92,-56,-1,-1,0
1523631727981,-655360,92,-56,-1,-1,0
1523631728021,-983040,92,-56,-1,-1,0
1523631728021,-1048576,92,-56,-1,-1,0
1523631728021,-1048576,92,-56,-1,-1,0
1523631728021,-1114112,92,-56,-1,-1,0
1523631728021,-983040,92,-56,-1,-1,0
1523631728063,720896,92,-56,-1,-1,0
1523631728063,5570560,92,-56,-1,-1,0
1523631728063,9502720,92,-56,-1,-1,0
1523631728063,6422528,92,-56,-1,-1,0
1523631728063,-1376256,92,-56,-1,-1,0
1523631728101,-5832704,92,-56,-1,-1,0
1523631728101,-4915200,92,-56,-1,-1,0
1523631728101,-2621440,92,-56,-1,-1,0
1523631728101,-1441792,92,-56,-1,-1,0
1523631728101,-1048576,92,-56,-1,-1,0
1523631728141,-1048576,92,-56,-1,-1,0
1523631728141,-1114112,92,-56,-1,-1,0
1523631728141,-1114112,92,-56,-1,-1,0
1523631728141,-1048576,92,-56,-1,-1,0
1523631728141,-1048576,92,-56,-1,-1,0
1523631728181,-851968,92,-56,-1,-1,0
1523631728181,-589824,92,-56,-1,-1,0
1523631728181,-327680,92,-56,-1,-1,0
1523631728181,-196608,92,-56,-1,-1,0
1523631728181,-65536,92,-56,-1,-1,0
1523631728221,65536,92,-56,-1,-1,0
1523631728221,327680,92,-56,-1,-1,0
1523631728221,655360,92,-56,-1,-1,0
1523631728221,1114112,92,-56,-1,-1,0
1523631728221,1507328,92,-56,-1,-1,0
1523631728261,2031616,92,-56,-1,-1,0
1523631728261,2555904,92,-56,-1,-1,0
1523631728261,3080192,92,-56,-1,-1,0
1523631728261,3670016,92,-56,-1,-1,0
1523631728261,4325376,92,-56,-1,-1,0
1523631728301,4915200,92,-56,-1,-1,0
1523631728301,5177344,92,-56,-1,-1,0
1523631728301,5308416,92,-56,-1,-1,0
1523631728301,5177344,92,-56,-1,-1,0
1523631728301,4718592,92,-56,-1,-1,0
1523631728341,3866624,92,-56,-1,-1,0
1523631728341,2883584,92,-56,-1,-1,0
1523631728341,2097152,92,-56,-1,-1,0
1523631728341,1376256,92,-56,-1,-1,0
1523631728341,786432,92,-56,-1,-1,0
1523631728381,327680,92,-56,-1,-1,0
1523631728381,65536,92,-56,-1,-1,0
1523631728381,-131072,92,-56,-1,-1,0
1523631728381,-327680,92,-56,-1,-1,0
1523631728381,-458752,92,-56,-1,-1,0
1523631728421,-589824,92,-56,-1,-1,0
1523631728421,-589824,92,-56,-1,-1,0
1523631728421,-589824,92,-56,-1,-1,0
1523631728421,-655360,92,-56,-1,-1,0
1523631728421,-720896,92,-56,-1,-1,0
1523631728461,-786432,92,-56,-1,-1,0
1523631728461,-917504,92,-56,-1,-1,0
1523631728461,-983040,92,-56,-1,-1,0
1523631728461,-983040,92,-56,-1,-1,0
1523631728461,-983040,92,-56,-1,-1,0
1523631728501,-1048576,92,-56,-1,-1,0
1523631728501,-1179648,92,-56,-1,-1,0
1523631728501,-1179648,92,-56,-1,-1,0
1523631728501,-1245184,92,-56,-1,-1,0
1523631728501,-1310720,92,-56,-1,-1,0
1523631728541,-1441792,92,-56,-1,-1,0
1523631728541,-1572864,92,-56,-1,-1,0
1523631728541,-1376256,92,-56,-1,-1,0
1523631728541,-1179648,92,-56,-1,-1,0
1523631728541,-1245184,92,-56,-1,-1,0
1523631728581,-1376256,92,-56,-1,-1,0
1523631728581,-1441792,92,-56,-1,-1,0
1523631728581,-1507328,92,-56,-1,-1,0
1523631728581,-1703936,92,-56,-1,-1,0
1523631728581,-1966080,92,-56,-1,-1,0
1523631728621,-2162688,92,-56,-1,-1,0
1523631728621,-2162688,92,-56,-1,-1,0
1523631728621,-1769472,92,-56,-1,-1,0
1523631728621,-1179648,92,-56,-1,-1,0
1523631728621,-851968,92,-56,-1,-1,0
1523631728661,-917504,92,-56,-1,-1,0
1523631728661,-1114112,92,-56,-1,-1,0
1523631728661,-1310720,92,-56,-1,-1,0
1523631728661,-1441792,92,-56,-1,-1,0
1523631728661,-1572864,92,-56,-1,-1,0
1523631728703,-1835008,92,-56,-1,-1,0
1523631728703,-1376256,92,-56,-1,-1,0
1523631728703,1572864,92,-56,-1,-1,0
1523631728703,7340032,92,-56,-1,-1,0
1523631728703,9568256,92,-56,-1,-1,0
1523631728741,3932160,92,-56,-1,-1,0
1523631728741,-4194304,92,-56,-1,-1,0
1523631728741,-7012352,92,-56,-1,-1,0
1523631728741,-5308416,92,-56,-1,-1,0
1523631728741,-3145728,92,-56,-1,-1,0
1523631728781,-2097152,92,-56,-1,-1,0
1523631728781,-1769472,92,-56,-1,-1,0
1523631728781,-1703936,92,-56,-1,-1,0
1523631728781,-1703936,92,-56,-1,-1,0
1523631728781,-1703936,92,-56,-1,-1,0
1523631728821,-1441792,92,-56,-1,-1,0
1523631728821,-1179648,92,-56,-1,-1,0
1523631728821,-983040,92,-56,-1,-1,0
1523631728821,-983040,92,-56,-1,-1,0
1523631728821,-983040,92,-56,-1,-1,0
1523631728861,-983040,92,-56,-1,-1,0
1523631728861,-655360,92,-56,-1,-1,0
1523631728861,-196608,92,-56,-1,-1,0
1523631728861,262144,92,-56,-1,-1,0
1523631728861,786432,92,-56,-1,-1,0
1523631728901,1245184,92,-56,-1,-1,0
1523631728901,1507328,92,-56,-1,-1,0
1523631728901,1966080,92,-56,-1,-1,0
1523631728901,2490368,92,-56,-1,-1,0
1523631728901,2949120,92,-56,-1,-1,0
1523631728941,3276800,92,-56,-1,-1,0
1523631728941,3866624,92,-56,-1,-1,0
1523631728941,4718592,92,-56,-1,-1,0
1523631728941,5373952,92,-56,-1,-1,0
1523631728941,5308416,92,-56,-1,-1,0
1523631728981,4915200,92,-56,-1,-1,0
1523631728981,4259840,92,-56,-1,-1,0
1523631728981,3407872,92,-56,-1,-1,0
1523631728981,2359296,92,-56,-1,-1,0
1523631728981,1376256,92,-56,-1,-1,0
1523631729021,786432,92,-56,-1,-1,0
1523631729021,327680,92,-56,-1,-1,0
1523631729021,-131072,92,-56,-1,-1,0
1523631729021,-458752,92,-56,-1,-1,0
1523631729021,-393216,92,-56,-1,-1,0
1523631729061,-458752,92,-56,-1,-1,0
1523631729061,-655360,92,-56,-1,-1,0
1523631729061,-655360,92,-56,-1,-1,0
1523631729061,-720896,92,-56,-1,-1,0
1523631729061,-983040,92,-56,-1,-1,0
1523631729101,-1179648,92,-56,-1,-1,0
1523631729101,-1179648,92,-56,-1,-1,0
1523631729101,-1245184,92,-56,-1,-1,0
1523631729101,-1179648,92,-56,-1,-1,0
1523631729101,-1048576,92,-56,-1,-1,0
1523631729141,-1114112,92,-56,-1,-1,0
1523631729141,-1441792,92,-56,-1,-1,0
1523631729141,-1638400,92,-56,-1,-1,0
1523631729141,-1638400,92,-56,-1,-1,0
1523631729141,-1703936,92,-56,-1,-1,0
1523631729181,-1769472,92,-56,-1,-1,0
1523631729181,-1638400,92,-56,-1,-1,0
1523631729181,-1507328,92,-56,-1,-1,0
1523631729181,-1769472,92,-56,-1,-1,0
1523631729181,-2097152,92,-56,-1,-1,0
1523631729221,-2293760,92,-56,-1,-1,0
1523631729221,-2424832,92,-56,-1,-1,0
1523631729221,-2359296,92,-56,-1,-1,0
1523631729221,-1900544,92,-56,-1,-1,0
1523631729221,-1245184,92,-56,-1,-1,0
1523631729261,-917504,92,-56,-1,-1,0
1523631729261,-1114112,92,-56,-1,-1,0
1523631729261,-1507328,92,-56,-1,-1,0
1523631729261,-1769472,92,-56,-1,-1,0
1523631729261,-1703936,92,-56,-1,-1,0
1523631729301,-1507328,92,-56,-1,-1,0
1523631729301,-1441792,92,-56,-1,-1,0
1523631729301,-1376256,92,-56,-1,-1,0
1523631729301,393216,92,-56,-1,-1,0
1523631729301,5439488,92,-56,-1,-1,0
1523631729343,9568256,92,-56,-1,-1,0
1523631729343,6225920,92,-56,-1,-1,0
1523631729343,-2228224,92,-56,-1,-1,0
1523631729343,-7077888,92,-56,-1,-1,0
1523631729343,-6094848,92,-56,-1,-1,0
1523631729381,-3670016,92,-56,-1,-1,0
1523631729381,-2359296,92,-56,-1,-1,0
1523631729381,-1835008,92,-56,-1,-1,0
1523631729381,-1638400,92,-56,-1,-1,0
1523631729381,-1507328,92,-56,-1,-1,0
1523631729421,-1376256,92,-56,-1,-1,0
1523631729421,-1114112,92,-56,-1,-1,0
1523631729421,-983040,92,-56,-1,-1,0
1523631729421,-917504,92,-56,-1,-1,0
1523631729421,-786432,92,-56,-1,-1,0
1523631729461,-524288,92,-56,-1,-1,0
1523631729461,-262144,92,-56,-1,-1,0
1523631729461,-65536,92,-56,-1,-1,0
1523631729461,0,92,-56,-1,-1,0
1523631729461,262144,92,-56,-1,-1,0
1523631729502,655360,92,-56,-1,-1,0
1523631729502,1114112,92,-56,-1,-1,0
1523631729502,1572864,92,-56,-1,-1,0
1523631729502,2162688,92,-56,-1,-1,0
1523631729502,2555904,92,-56,-1,-1,0
1523631729541,3080192,92,-56,-1,-1,0
1523631729541,3538944,92,-56,-1,-1,0
1523631729541,3932160,92,-56,-1,-1,0
1523631729541,4390912,92,-56,-1,-1,0
1523631729541,4653056,92,-56,-1,-1,0
1523631729581,4587520,92,-56,-1,-1,0
1523631729581,4259840,92,-56,-1,-1,0
1523631729581,3735552,92,-56,-1,-1,0
1523631729581,3014656,92,-56,-1,-1,0
1523631729581,2162688,92,-56,-1,-1,0
1523631729621,1310720,92,-56,-1,-1,0
1523631729621,720896,92,-56,-1,-1,0
1523631729621,327680,92,-56,-1,-1,0
1523631729621,0,92,-56,-1,-1,0
1523631729621,-65536,92,-56,-1,-1,0
1523631729661,-65536,92,-56,-1,-1,0
1523631729661,-327680,92,-56,-1,-1,0
1523631729661,-655360,92,-56,-1,-1,0
1523631729661,-524288,92,-56,-1,-1,0
1523631729661,-327680,92,-56,-1,-1,0
1523631729701,-458752,92,-56,-1,-1,0
1523631729701,-720896,92,-56,-1,-1,0
1523631729701,-720896,92,-56,-1,-1,0
1523631729701,-655360,92,-56,-1,-1,0
1523631729701,-655360,92,-56,-1,-1,0
1523631729741,-655360,92,-56,-1,-1,0
1523631729741,-655360,92,-56,-1,-1,0
1523631729741,-786432,92,-56,-1,-1,0
1523631729741,-983040,92,-56,-1,-1,0
1523631729741,-983040,92,-56,-1,-1,0
1523631729782,-983040,92,-56,-1,-1,0
1523631729782,-1048576,92,-56,-1,-1,0
1523631729782,-983040,92,-56,-1,-1,0
1523631729782,-983040,92,-56,-1,-1,0
1523631729782,-917504,92,-56,-1,-1,0
1523631729821,-851968,92,-56,-1,-1,0
1523631729821,-1048576,92,-56,-1,-1,0
1523631729821,-1310720,92,-56,-1,-1,0
1523631729821,-1376256,92,-56,-1,-1,0
1523631729821,-1441792,92,-56,-1,-1,0
1523631729861,-1507328,92,-56,-1,-1,0
1523631729861,-1310720,92,-56,-1,-1,0
1523631729861,-786432,92,-56,-1,-1,0
1523631729861,-393216,92,-56,-1,-1,0
1523631729861,-196608,92,-56,-1,-1,0
1523631729901,-458752,92,-56,-1,-1,0
1523631729901,-720896,92,-56,-1,-1,0
1523631729901,-917504,92,-56,-1,-1,0
1523631729901,-917504,92,-56,-1,-1,0
1523631729901,-983040,92,-56,-1,-1,0
1523631729941,-917504,92,-56,-1,-1,0
1523631729941,-196608,92,-56,-1,-1,0
1523631729941,3211264,92,-56,-1,-1,0
1523631729941,9240576,92,-56,-1,-1,0
1523631729941,11206656,92,-56,-1,-1,0
1523631729982,4784128,92,-56,-1,-1,0
1523631729982,-3276800,92,-56,-1,-1,0
1523631729982,-5308416,92,-56,-1,-1,0
1523631729982,-3145728,92,-56,-1,-1,0
1523631729982,-1638400,92,-56,-1,-1,0
1523631730021,-1310720,92,-56,-1,-1,0
1523631730021,-1245184,92,-56,-1,-1,0
1523631730021,-1179648,92,-56,-1,-1,0
1523631730021,-1048576,92,-56,-1,-1,0
1523631730021,-983040,92,-56,-1,-1,0
1523631730061,-917504,92,-56,-1,-1,0
1523631730061,-786432,92,-56,-1,-1,0
1523631730061,-655360,92,-56,-1,-1,0
1523631730061,-524288,92,-56,-1,-1,0
1523631730061,-393216,92,-56,-1,-1,0
1523631730101,-65536,92,-56,-1,-1,0
1523631730101,65536,92,-56,-1,-1,0
1523631730101,196608,92,-56,-1,-1,0
1523631730101,393216,92,-56,-1,-1,0
1523631730101,720896,92,-56,-1,-1,0
1523631730141,1048576,92,-56,-1,-1,0
1523631730141,1441792,92,-56,-1,-1,0
1523631730141,1900544,92,-56,-1,-1,0
1523631730141,2424832,92,-56,-1,-1,0
1523631730141,2949120,92,-56,-1,-1,0
1523631730182,3407872,92,-56,-1,-1,0
1523631730182,3735552,92,-56,-1,-1,0
1523631730182,3932160,92,-56,-1,-1,0
1523631730182,4128768,92,-56,-1,-1,0
1523631730182,4194304,92,-56,-1,-1,0
1523631730221,3866624,92,-56,-1,-1,0
1523631730221,3145728,92,-56,-1,-1,0
1523631730221,2424832,92,-56,-1,-1,0
1523631730221,1769472,92,-56,-1,-1,0
1523631730221,1048576,92,-56,-1,-1,0
1523631730261,524288,92,-56,-1,-1,0
1523631730261,196608,92,-56,-1,-1,0
1523631730261,0,92,-56,-1,-1,0
1523631730261,-131072,92,-56,-1,-1,0
1523631730261,-196608,92,-56,-1,-1,0
1523631730301,-393216,92,-56,-1,-1,0
1523631730301,-589824,92,-56,-1,-1,0
1523631730301,-655360,92,-56,-1,-1,0
1523631730301,-589824,92,-56,-1,-1,0
1523631730301,-589824,92,-56,-1,-1,0
1523631730341,-720896,92,-56,-1,-1,0
1523631730341,-786432,92,-56,-1,-1,0
1523631730341,-720896,92,-56,-1,-1,0
1523631730341,-851968,92,-56,-1,-1,0
1523631730341,-1048576,92,-56,-1,-1,0
1523631730381,-1114112,92,-56,-1,-1,0
1523631730381,-1114112,92,-56,-1,-1,0
1523631730381,-1179648,92,-56,-1,-1,0
1523631730381,-1245184,92,-56,-1,-1,0
1523631730381,-1310720,92,-56,-1,-1,0
1523631730421,-1310720,92,-56,-1,-1,0
1523631730421,-1245184,92,-56,-1,-1,0
1523631730421,-1245184,92,-56,-1,-1,0
1523631730421,-1441792,92,-56,-1,-1,0
1523631730421,-1441792,92,-56,-1,-1,0
1523631730461,-1310720,92,-56,-1,-1,0
1523631730461,-1310720,92,-56,-1,-1,0
1523631730461,-1441792,92,-56,-1,-1,0
1523631730461,-1572864,92,-56,-1,-1,0
1523631730461,-1769472,92,-56,-1,-1,0
1523631730501,-2031616,92,-56,-1,-1,0
1523631730501,-2031616,92,-56,-1,-1,0
1523631730501,-1966080,92,-56,-1,-1,0
1523631730501,-1769472,92,-56,-1,-1,0
1523631730501,-1376256,92,-56,-1,-1,0
1523631730541,-983040,92,-56,-1,-1,0
1523631730541,-851968,92,-56,-1,-1,0
1523631730541,-983040,92,-56,-1,-1,0
1523631730541,-1179648,92,-56,-1,-1,0
1523631730541,-1376256,92,-56,-1,-1,0
1523631730581,-1507328,92,-56,-1,-1,0
1523631730581,-1507328,92,-56,-1,-1,0
1523631730581,-1572864,92,-56,-1,-1,0
1523631730581,-1441792,92,-56,-1,-1,0
1523631730581,786432,92,-56,-1,-1,0
1523631730622,6225920,92,-56,-1,-1,0
1523631730622,9568256,92,-56,-1,-1,0
1523631730622,5439488,92,-56,-1,-1,0
1523631730622,-2490368,92,-56,-1,-1,0
1523631730622,-6160384,92,-56,-1,-1,0
1523631730661,-4915200,92,-56,-1,-1,0
1523631730661,-2818048,92,-56,-1,-1,0
1523631730661,-2031616,92,-56,-1,-1,0
1523631730661,-1835008,92,-56,-1,-1,0
1523631730661,-1638400,92,-56,-1,-1,0
1523631730701,-1441792,92,-56,-1,-1,0
1523631730701,-1376256,92,-56,-1,-1,0
1523631730701,-1310720,92,-56,-1,-1,0
1523631730701,-1245184,92,-56,-1,-1,0
1523631730701,-1179648,92,-56,-1,-1,0
1523631730741,-983040,92,-56,-1,-1,0
1523631730741,-720896,92,-56,-1,-1,0
1523631730741,-655360,92,-56,-1,-1,0
1523631730741,-524288,92,-56,-1,-1,0
1523631730741,-196608,92,-56,-1,-1,0
1523631730781,131072,92,-56,-1,-1,0
1523631730781,524288,92,-56,-1,-1,0
1523631730781,917504,92,-56,-1,-1,0
1523631730781,1179648,92,-56,-1,-1,0
1523631730781,1638400,92,-56,-1,-1,0
1523631730821,2228224,92,-56,-1,-1,0
1523631730821,2686976,92,-56,-1,-1,0
1523631730821,3145728,92,-56,-1,-1,0
1523631730821,3801088,92,-56,-1,-1,0
1523631730821,4194304,92,-56,-1,-1,0
1523631730861,4456448,92,-56,-1,-1,0
1523631730861,4521984,92,-56,-1,-1,0
1523631730861,4390912,92,-56,-1,-1,0
1523631730861,3932160,92,-56,-1,-1,0
1523631730861,3145728,92,-56,-1,-1,0
1523631730901,2162688,92,-56,-1,-1,0
1523631730901,1310720,92,-56,-1,-1,0
1523631730901,851968,92,-56,-1,-1,0
1523631730901,393216,92,-56,-1,-1,0
1523631730901,0,92,-56,-1,-1,0
1523631730941,-262144,92,-56,-1,-1,0
1523631730941,-458752,92,-56,-1,-1,0
1523631730941,-655360,92,-56,-1,-1,0
1523631730941,-720896,92,-56,-1,-1,0
1523631730941,-655360,92,-56,-1,-1,0
1523631730981,-655360,92,-56,-1,-1,0
1523631730981,-655360,92,-56,-1,-1,0
1523631730981,-720896,92,-56,-1,-1,0
1523631730981,-851968,92,-56,-1,-1,0
1523631730981,-851968,92,-56,-1,-1,0
1523631731021,-917504,92,-56,-1,-1,0
1523631731021,-983040,92,-56,-1,-1,0
1523631731021,-1114112,92,-56,-1,-1,0
1523631731021,-1179648,92,-56,-1,-1,0
1523631731021,-1179648,92,-56,-1,-1,0
1523631731061,-1245184,92,-56,-1,-1,0
1523631731061,-1310720,92,-56,-1,-1,0
1523631731061,-1376256,92,-56,-1,-1,0
1523631731061,-1441792,92,-56,-1,-1,0
1523631731061,-1441792,92,-56,-1,-1,0
1523631731101,-1376256,92,-56,-1,-1,0
1523631731101,-1376256,92,-56,-1,-1,0
1523631731101,-1376256,92,-56,-1,-1,0
1523631731101,-1376256,92,-56,-1,-1,0
1523631731101,-1507328,92,-56,-1,-1,0
1523631731141,-1572864,92,-56,-1,-1,0
1523631731141,-1638400,92,-56,-1,-1,0
1523631731141,-1900544,92,-56,-1,-1,0
1523631731141,-2031616,92,-56,-1,-1,0
1523631731141,-2031616,92,-56,-1,-1,0
1523631731181,-1900544,92,-56,-1,-1,0
1523631731181,-1638400,92,-56,-1,-1,0
1523631731181,-1179648,92,-56,-1,-1,0
1523631731181,-917504,92,-56,-1,-1,0
1523631731181,-851968,92,-56,-1,-1,0
1523631731221,-983040,92,-56,-1,-1,0
1523631731221,-1245184,92,-56,-1,-1,0
1523631731221,-1376256,92,-56,-1,-1,0
1523631731221,-1376256,92,-56,-1,-1,0
1523631731221,-1310720,92,-56,-1,-1,0
1523631731263,-983040,92,-56,-1,-1,0
1523631731263,1114112,92,-56,-1,-1,0
1523631731263,6160384,92,-56,-1,-1,0
1523631731263,9306112,92,-56,-1,-1,0
1523631731263,5177344,92,-56,-1,-1,0
1523631731301,-2686976,92,-56,-1,-1,0
1523631731301,-6291456,92,-56,-1,-1,0
1523631731301,-4849664,92,-56,-1,-1,0
1523631731301,-2555904,92,-56,-1,-1,0
1523631731301,-1638400,92,-56,-1,-1,0
1523631731341,-1376256,92,-56,-1,-1,0
1523631731341,-1245184,92,-56,-1,-1,0
1523631731341,-1179648,92,-56,-1,-1,0
1523631731341,-1114112,92,-56,-1,-1,0
1523631731341,-983040,92,-56,-1,-1,0
1523631731381,-851968,92,-56,-1,-1,0
1523631731381,-851968,92,-56,-1,-1,0
1523631731381,-786432,92,-56,-1,-1,0
1523631731381,-458752,92,-56,-1,-1,0
1523631731381,-196608,92,-56,-1,-1,0
1523631731421,0,92,-56,-1,-1,0
1523631731421,196608,92,-56,-1,-1,0
1523631731421,524288,92,-56,-1,-1,0
1523631731421,655360,92,-56,-1,-1,0
1523631731421,917504,92,-56,-1,-1,0
1523631731461,1376256,92,-56,-1,-1,0
1523631731461,1900544,92,-56,-1,-1,0
1523631731461,2424832,92,-56,-1,-1,0
1523631731461,3014656,92,-56,-1,-1,0
1523631731461,3407872,92,-56,-1,-1,0
1523631731501,3735552,92,-56,-1,-1,0
1523631731501,4063232,92,-56,-1,-1,0
1523631731501,4325376,92,-56,-1,-1,0
1523631731501,4325376,92,-56,-1,-1,0
1523631731501,3997696,92,-56,-1,-1,0
1523631731541,3538944,92,-56,-1,-1,0
1523631731541,2818048,92,-56,-1,-1,0
1523631731541,2031616,92,-56,-1,-1,0
1523631731541,1441792,92,-56,-1,-1,0
1523631731541,851968,92,-56,-1,-1,0
1523631731581,262144,92,-56,-1,-1,0
1523631731581,0,92,-56,-1,-1,0
1523631731581,-131072,92,-56,-1,-1,0
1523631731581,-196608,92,-56,-1,-1,0
1523631731581,-262144,92,-56,-1,-1,0
1523631731621,-262144,92,-56,-1,-1,0
1523631731621,-393216,92,-56,-1,-1,0
1523631731621,-524288,92,-56,-1,-1,0
1523631731621,-589824,92,-56,-1,-1,0
1523631731621,-589824,92,-56,-1,-1,0
1523631731661,-589824,92,-56,-1,-1,0
1523631731661,-720896,92,-56,-1,-1,0
1523631731661,-851968,92,-56,-1,-1,0
1523631731661,-786432,92,-56,-1,-1,0
1523631731661,-786432,92,-56,-1,-1,0
1523631731701,-917504,92,-56,-1,-1,0
1523631731701,-851968,92,-56,-1,-1,0
1523631731701,-851968,92,-56,-1,-1,0
1523631731701,-983040,92,-56,-1,-1,0
1523631731701,-1114112,92,-56,-1,-1,0
1523631731741,-1048576,92,-56,-1,-1,0
1523631731741,-1114112,92,-56,-1,-1,0
1523631731741,-1310720,92,-56,-1,-1,0
1523631731741,-1310720,92,-56,-1,-1,0
1523631731741,-1114112,92,-56,-1,-1,0
1523631731781,-1245184,92,-56,-1,-1,0
1523631731781,-1572864,92,-56,-1,-1,0
1523631731781,-1900544,92,-56,-1,-1,0
1523631731781,-1966080,92,-56,-1,-1,0
1523631731781,-1835008,92,-56,-1,-1,0
1523631731821,-1769472,92,-56,-1,-1,0
1523631731821,-1441792,92,-56,-1,-1,0
1523631731821,-983040,92,-56,-1,-1,0
1523631731821,-655360,92,-56,-1,-1,0
1523631731821,-720896,92,-56,-1,-1,0
1523631731861,-1048576,92,-56,-1,-1,0
1523631731861,-1441792,92,-56,-1,-1,0
1523631731861,-1572864,92,-56,-1,-1,0
1523631731861,-1572864,92,-56,-1,-1,0
1523631731861,-1441792,92,-56,-1,-1,0
1523631731903,-1048576,92,-56,-1,-1,0
1523631731903,524288,92,-56,-1,-1,0
1523631731903,5373952,92,-56,-1,-1,0
1523631731903,10813440,92,-56,-1,-1,0
1523631731903,9437184,92,-56,-1,-1,0
1523631731941,1114112,92,-56,-1,-1,0
1523631731941,-5111808,92,-56,-1,-1,0
1523631731941,-5111808,92,-56,-1,-1,0
1523631731941,-2883584,92,-56,-1,-1,0
1523631731941,-1703936,92,-56,-1,-1,0
1523631731981,-1376256,92,-56,-1,-1,0
1523631731981,-1245184,92,-56,-1,-1,0
1523631731981,-1114112,92,-56,-1,-1,0
1523631731981,-983040,92,-56,-1,-1,0
1523631731981,-983040,92,-56,-1,-1,0
1523631732021,-983040,92,-56,-1,-1,0
1523631732021,-917504,92,-56,-1,-1,0
1523631732021,-720896,92,-56,-1,-1,0
1523631732021,-524288,92,-56,-1,-1,0
1523631732021,-262144,92,-56,-1,-1,0
1523631732061,-65536,92,-56,-1,-1,0
1523631732061,131072,92,-56,-1,-1,0
1523631732061,458752,92,-56,-1,-1,0
1523631732061,917504,92,-56,-1,-1,0
1523631732061,1245184,92,-56,-1,-1,0
1523631732101,1376256,92,-56,-1,-1,0
1523631732101,1703936,92,-56,-1,-1,0
1523631732101,2228224,92,-56,-1,-1,0
1523631732101,2818048,92,-56,-1,-1,0
1523631732101,3342336,92,-56,-1,-1,0
1523631732141,3801088,92,-56,-1,-1,0
1523631732141,4128768,92,-56,-1,-1,0
1523631732141,4456448,92,-56,-1,-1,0
1523631732141,4587520,92,-56,-1,-1,0
1523631732141,4390912,92,-56,-1,-1,0
1523631732181,3801088,92,-56,-1,-1,0
1523631732181,3080192,92,-56,-1,-1,0
1523631732181,2424832,92,-56,-1,-1,0
1523631732181,1703936,92,-56,-1,-1,0
1523631732181,983040,92,-56,-1,-1,0
1523631732221,458752,92,-56,-1,-1,0
1523631732221,196608,92,-56,-1,-1,0
1523631732221,65536,92,-56,-1,-1,0
1523631732221,65536,92,-56,-1,-1,0
1523631732221,-131072,92,-56,-1,-1,0
1523631732261,-458752,92,-56,-1,-1,0
1523631732261,-589824,92,-56,-1,-1,0
1523631732261,-589824,92,-56,-1,-1,0
1523631732261,-589824,92,-56,-1,-1,0
1523631732261,-655360,92,-56,-1,-1,0
1523631732301,-720896,92,-56,-1,-1,0
1523631732301,-786432,92,-56,-1,-1,0
1523631732301,-851968,92,-56,-1,-1,0
1523631732301,-851968,92,-56,-1,-1,0
1523631732301,-851968,92,-56,-1,-1,0
1523631732341,-851968,92,-56,-1,-1,0
1523631732341,-851968,92,-56,-1,-1,0
1523631732341,-851968,92,-56,-1,-1,0
1523631732341,-1048576,92,-56,-1,-1,0
1523631732341,-1310720,92,-56,-1,-1,0
1523631732381,-1310720,92,-56,-1,-1,0
1523631732381,-1245184,92,-56,-1,-1,0
1523631732381,-1245184,92,-56,-1,-1,0
1523631732381,-1245184,92,-56,-1,-1,0
1523631732381,-1179648,92,-56,-1,-1,0
1523631732421,-1245184,92,-56,-1,-1,0
1523631732421,-1310720,92,-56,-1,-1,0
1523631732421,-1245184,92,-56,-1,-1,0
1523631732421,-1245184,92,-56,-1,-1,0
1523631732421,-1245184,92,-56,-1,-1,0
1523631732461,-1376256,92,-56,-1,-1,0
1523631732461,-1441792,92,-56,-1,-1,0
1523631732461,-1638400,92,-56,-1,-1,0
1523631732461,-1769472,92,-56,-1,-1,0
1523631732461,-1835008,92,-56,-1,-1,0
1523631732501,-1638400,92,-56,-1,-1,0
1523631732501,-1245184,92,-56,-1,-1,0
1523631732501,-786432,92,-56,-1,-1,0
1523631732501,-655360,92,-56,-1,-1,0
1523631732501,-851968,92,-56,-1,-1,0
1523631732543,-1179648,92,-56,-1,-1,0
1523631732543,-1310720,92,-56,-1,-1,0
1523631732543,-1245184,92,-56,-1,-1,0
1523631732543,-1179648,92,-56,-1,-1,0
1523631732543,-1048576,92,-56,-1,-1,0
1523631732581,393216,92,-56,-1,-1,0
1523631732581,4915200,92,-56,-1,-1,0
1523631732581,9175040,92,-56,-1,-1,0
1523631732581,6553600,92,-56,-1,-1,0
1523631732581,-1376256,92,-56,-1,-1,0
1523631732621,-6160384,92,-56,-1,-1,0
1523631732621,-5308416,92,-56,-1,-1,0
1523631732621,-3080192,92,-56,-1,-1,0
1523631732621,-2031616,92,-56,-1,-1,0
1523631732621,-1638400,92,-56,-1,-1,0
1523631732661,-1441792,92,-56,-1,-1,0
1523631732661,-1310720,92,-56,-1,-1,0
1523631732661,-1245184,92,-56,-1,-1,0
1523631732661,-1114112,92,-56,-1,-1,0
1523631732661,-1048576,92,-56,-1,-1,0
1523631732701,-917504,92,-56,-1,-1,0
1523631732701,-720896,92,-56,-1,-1,0
1523631732701,-524288,92,-56,-1,-1,0
1523631732701,-393216,92,-56,-1,-1,0
1523631732701,-262144,92,-56,-1,-1,0
1523631732741,0,92,-56,-1,-1,0
1523631732741,262144,92,-56,-1,-1,0
1523631732741,524288,92,-56,-1,-1,0
1523631732741,983040,92,-56,-1,-1,0
1523631732741,1441792,92,-56,-1,-1,0
1523631732781,1835008,92,-56,-1,-1,0
1523631732781,2293760,92,-56,-1,-1,0
1523631732781,2752512,92,-56,-1,-1,0
1523631732781,3342336,92,-56,-1,-1,0
1523631732781,3801088,92,-56,-1,-1,0
1523631732821,4259840,92,-56,-1,-1,0
1523631732821,4587520,92,-56,-1,-1,0
1523631732821,4784128,92,-56,-1,-1,0
1523631732821,4784128,92,-56,-1,-1,0
1523631732821,4456448,92,-56,-1,-1,0
1523631732861,3801088,92,-56,-1,-1,0
1523631732861,2949120,92,-56,-1,-1,0
1523631732861,2162688,92,-56,-1,-1,0
1523631732861,1441792,92,-56,-1,-1,0
1523631732861,786432,92,-56,-1,-1,0
1523631732901,393216,92,-56,-1,-1,0
1523631732901,196608,92,-56,-1,-1,0
1523631732901,65536,92,-56,-1,-1,0
1523631732901,-65536,92,-56,-1,-1,0
1523631732901,-131072,92,-56,-1,-1,0
1523631732941,-262144,92,-56,-1,-1,0
1523631732941,-327680,92,-56,-1,-1,0
1523631732941,-393216,92,-56,-1,-1,0
1523631732941,-458752,92,-56,-1,-1,0
1523631732941,-524288,92,-56,-1,-1,0
1523631732981,-589824,92,-56,-1,-1,0
1523631732981,-655360,92,-56,-1,-1,0
1523631732981,-720896,92,-56,-1,-1,0
1523631732981,-786432,92,-56,-1,-1,0
1523631732981,-851968,92,-56,-1,-1,0
1523631733021,-851968,92,-56,-1,-1,0
1523631733021,-917504,92,-56,-1,-1,0
1523631733021,-917504,92,-56,-1,-1,0
1523631733021,-983040,92,-56,-1,-1,0
1523631733021,-1048576,92,-56,-1,-1,0
1523631733061,-1114112,92,-56,-1,-1,0
1523631733061,-1114112,92,-56,-1,-1,0
1523631733061,-1048576,92,-56,-1,-1,0
1523631733061,-1048576,92,-56,-1,-1,0
1523631733061,-1114112,92,-56,-1,-1,0
1523631733101,-1114112,92,-56,-1,-1,0
1523631733101,-1179648,92,-56,-1,-1,0
1523631733101,-1245184,92,-56,-1,-1,0
1523631733101,-1245184,92,-56,-1,-1,0
1523631733101,-1245184,92,-56,-1,-1,0
1523631733141,-1245184,92,-56,-1,-1,0
1523631733141,-1245184,92,-56,-1,-1,0
1523631733141,-1179648,92,-56,-1,-1,0
1523631733141,-1179648,92,-56,-1,-1,0
1523631733141,-1179648,92,-56,-1,-1,0
1523631733183,-1310720,92,-56,-1,-1,0
1523631733183,-1507328,92,-56,-1,-1,0
1523631733183,-1572864,92,-56,-1,-1,0
1523631733183,-1572864,92,-56,-1,-1,0
1523631733183,-1376256,92,-56,-1,-1,0
1523631733221,-983040,92,-56,-1,-1,0
1523631733221,-589824,92,-56,-1,-1,0
1523631733221,-458752,92,-56,-1,-1,0
1523631733221,-655360,92,-56,-1,-1,0
1523631733221,-983040,92,-56,-1,-1,0
1523631733261,-1179648,92,-56,-1,-1,0
1523631733261,-1245184,92,-56,-1,-1,0
1523631733261,-1179648,92,-56,-1,-1,0
1523631733261,-983040,92,-56,-1,-1,0
1523631733261,327680,92,-56,-1,-1,0
1523631733301,4325376,91,-56,-1,-1,0
1523631733301,8192000,91,-56,-1,-1,0
1523631733301,5898240,91,-56,-1,-1,0
1523631733301,-1310720,91,-56,-1,-1,0
1523631733301,-6094848,91,-56,-1,-1,0
1523631733341,-5636096,91,-56,-1,-1,0
1523631733341,-3407872,91,-56,-1,-1,0
1523631733341,-1966080,91,-56,-1,-1,0
1523631733341,-1507328,91,-56,-1,-1,0
1523631733341,-1441792,91,-56,-1,-1,0
1523631733381,-1310720,91,-56,-1,-1,0
1523631733381,-1179648,91,-56,-1,-1,0
1523631733381,-1048576,91,-56,-1,-1,0
1523631733381,-983040,91,-56,-1,-1,0
1523631733381,-851968,91,-56,-1,-1,0
1523631733421,-786432,91,-56,-1,-1,0
1523631733421,-589824,91,-56,-1,-1,0
1523631733421,-393216,91,-56,-1,-1,0
1523631733421,-131072,91,-56,-1,-1,0
1523631733421,0,91,-56,-1,-1,0
1523631733461,262144,91,-56,-1,-1,0
1523631733461,524288,91,-56,-1,-1,0
1523631733461,917504,91,-56,-1,-1,0
1523631733461,1310720,91,-56,-1,-1,0
1523631733461,1835008,91,-56,-1,-1,0
1523631733501,2293760,91,-56,-1,-1,0
1523631733501,2818048,91,-56,-1,-1,0
1523631733501,3407872,91,-56,-1,-1,0
1523631733501,3997696,91,-56,-1,-1,0
1523631733501,4521984,91,-56,-1,-1,0
1523631733541,4915200,91,-56,-1,-1,0
1523631733541,5111808,91,-56,-1,-1,0
1523631733541,5177344,91,-56,-1,-1,0
1523631733541,4980736,91,-56,-1,-1,0
1523631733541,4456448,91,-56,-1,-1,0
1523631733581,3670016,91,-56,-1,-1,0
1523631733581,2818048,91,-56,-1,-1,0
1523631733581,1966080,91,-56,-1,-1,0
1523631733581,1245184,91,-56,-1,-1,0
1523631733581,720896,91,-56,-1,-1,0
1523631733621,393216,91,-56,-1,-1,0
1523631733621,196608,91,-56,-1,-1,0
1523631733621,65536,91,-56,-1,-1,0
1523631733621,0,91,-56,-1,-1,0
1523631733621,-131072,91,-56,-1,-1,0
1523631733661,-262144,91,-56,-1,-1,0
1523631733661,-327680,91,-56,-1,-1,0
1523631733661,-393216,91,-56,-1,-1,0
1523631733661,-393216,91,-56,-1,-1,0
1523631733661,-524288,91,-56,-1,-1,0
1523631733701,-589824,91,-56,-1,-1,0
1523631733701,-655360,91,-56,-1,-1,0
1523631733701,-655360,91,-56,-1,-1,0
1523631733701,-655360,91,-56,-1,-1,0
1523631733701,-786432,91,-56,-1,-1,0
1523631733741,-851968,91,-56,-1,-1,0
1523631733741,-917504,91,-56,-1,-1,0
1523631733741,-917504,91,-56,-1,-1,0
1523631733741,-983040,91,-56,-1,-1,0
1523631733741,-983040,91,-56,-1,-1,0
1523631733781,-1048576,91,-56,-1,-1,0
1523631733781,-1179648,91,-56,-1,-1,0
1523631733781,-1114112,91,-56,-1,-1,0
1523631733781,-1048576,91,-56,-1,-1,0
1523631733781,-983040,91,-56,-1,-1,0
1523631733823,-1048576,91,-56,-1,-1,0
1523631733823,-1114112,91,-56,-1,-1,0
1523631733823,-1114112,91,-56,-1,-1,0
1523631733823,-1179648,91,-56,-1,-1,0
1523631733823,-1179648,91,-56,-1,-1,0
1523631733861,-1245184,91,-56,-1,-1,0
1523631733861,-1245184,91,-56,-1,-1,0
1523631733861,-1245184,91,-56,-1,-1,0
1523631733861,-1245184,91,-56,-1,-1,0
1523631733861,-1376256,91,-56,-1,-1,0
1523631733901,-1572864,91,-56,-1,-1,0
1523631733901,-1703936,91,-56,-1,-1,0
1523631733901,-1769472,91,-56,-1,-1,0
1523631733901,-1638400,91,-56,-1,-1,0
1523631733901,-1310720,91,-56,-1,-1,0
1523631733941,-851968,91,-56,-1,-1,0
1523631733941,-655360,91,-56,-1,-1,0
1523631733941,-786432,91,-56,-1,-1,0
1523631733941,-1114112,91,-56,-1,-1,0
1523631733941,-1310720,91,-56,-1,-1,0
1523631733981,-1441792,91,-56,-1,-1,0
1523631733981,-1441792,91,-56,-1,-1,0
1523631733981,-1245184,91,-56,-1,-1,0
1523631733981,0,91,-56,-1,-1,0
1523631733981,3866624,91,-56,-1,-1,0
1523631734021,8650752,91,-56,-1,-1,0
1523631734021,7733248,91,-56,-1,-1,0
1523631734021,458752,91,-56,-1,-1,0
1523631734021,-5767168,91,-56,-1,-1,0
1523631734021,-6225920,91,-56,-1,-1,0
1523631734061,-3997696,91,-56,-1,-1,0
1523631734061,-2359296,91,-56,-1,-1,0
1523631734061,-1703936,91,-56,-1,-1,0
1523631734061,-1638400,91,-56,-1,-1,0
1523631734061,-1507328,91,-56,-1,-1,0
1523631734101,-1376256,91,-56,-1,-1,0
1523631734101,-1245184,91,-56,-1,-1,0
1523631734101,-1114112,91,-56,-1,-1,0
1523631734101,-983040,91,-56,-1,-1,0
1523631734101,-786432,91,-56,-1,-1,0
1523631734141,-655360,91,-56,-1,-1,0
1523631734141,-589824,91,-56,-1,-1,0
1523631734141,-393216,91,-56,-1,-1,0
1523631734141,-65536,91,-56,-1,-1,0
1523631734141,196608,91,-56,-1,-1,0
1523631734181,524288,91,-56,-1,-1,0
1523631734181,851968,91,-56,-1,-1,0
1523631734181,1114112,91,-56,-1,-1,0
1523631734181,1441792,91,-56,-1,-1,0
1523631734181,1966080,91,-56,-1,-1,0
1523631734221,2621440,91,-56,-1,-1,0
1523631734221,3276800,91,-56,-1,-1,0
1523631734221,3735552,91,-56,-1,-1,0
1523631734221,4194304,91,-56,-1,-1,0
1523631734221,4521984,91,-56,-1,-1,0
1523631734261,4718592,91,-56,-1,-1,0
1523631734261,4784128,91,-56,-1,-1,0
1523631734261,4587520,91,-56,-1,-1,0
1523631734261,3997696,91,-56,-1,-1,0
1523631734261,3211264,91,-56,-1,-1,0
1523631734301,2293760,91,-56,-1,-1,0
1523631734301,1507328,91,-56,-1,-1,0
1523631734301,851968,91,-56,-1,-1,0
1523631734301,327680,91,-56,-1,-1,0
1523631734301,0,91,-56,-1,-1,0
1523631734341,-196608,91,-56,-1,-1,0
1523631734341,-327680,91,-56,-1,-1,0
1523631734341,-393216,91,-56,-1,-1,0
1523631734341,-458752,91,-56,-1,-1,0
1523631734341,-458752,91,-56,-1,-1,0
1523631734381,-458752,91,-56,-1,-1,0
1523631734381,-589824,91,-56,-1,-1,0
1523631734381,-720896,91,-56,-1,-1,0
1523631734381,-786432,91,-56,-1,-1,0
1523631734381,-851968,91,-56,-1,-1,0
1523631734421,-917504,91,-56,-1,-1,0
1523631734421,-983040,91,-56,-1,-1,0
1523631734421,-983040,91,-56,-1,-1,0
1523631734421,-1048576,91,-56,-1,-1,0
1523631734421,-1114112,91,-56,-1,-1,0
1523631734463,-1245184,91,-56,-1,-1,0
1523631734463,-1245184,91,-56,-1,-1,0
1523631734463,-1245184,91,-56,-1,-1,0
1523631734463,-1310720,91,-56,-1,-1,0
1523631734463,-1376256,91,-56,-1,-1,0
1523631734501,-1245184,91,-56,-1,-1,0
1523631734501,-1310720,91,-56,-1,-1,0
1523631734501,-1376256,91,-56,-1,-1,0
1523631734501,-1245184,91,-56,-1,-1,0
1523631734501,-1245184,91,-56,-1,-1,0
1523631734541,-1376256,91,-56,-1,-1,0
1523631734541,-1572864,91,-56,-1,-1,0
1523631734541,-1966080,91,-56,-1,-1,0
1523631734541,-2097152,91,-56,-1,-1,0
1523631734541,-2097152,91,-56,-1,-1,0
1523631734581,-1835008,91,-56,-1,-1,0
1523631734581,-1310720,91,-56,-1,-1,0
1523631734581,-655360,91,-56,-1,-1,0
1523631734581,-458752,91,-56,-1,-1,0
1523631734581,-786432,91,-56,-1,-1,0
1523631734621,-1179648,91,-56,-1,-1,0
1523631734621,-1441792,91,-56,-1,-1,0
1523631734621,-1572864,91,-56,-1,-1,0
1523631734621,-1441792,91,-56,-1,-1,0
1523631734621,-1376256,91,-56,-1,-1,0
1523631734661,-851968,91,-56,-1,-1,0
1523631734661,1638400,91,-56,-1,-1,0
1523631734661,7077888,91,-56,-1,-1,0
1523631734661,9699328,91,-56,-1,-1,0
1523631734661,4456448,91,-56,-1,-1,0
1523631734701,-3866624,91,-56,-1,-1,0
1523631734701,-7012352,91,-56,-1,-1,0
1523631734701,-5177344,91,-56,-1,-1,0
1523631734701,-2818048,91,-56,-1,-1,0
1523631734701,-1900544,91,-56,-1,-1,0
1523631734741,-1703936,91,-56,-1,-1,0
1523631734741,-1572864,91,-56,-1,-1,0
1523631734741,-1310720,91,-56,-1,-1,0
1523631734741,-1048576,91,-56,-1,-1,0
1523631734741,-1048576,91,-56,-1,-1,0
1523631734781,-1048576,91,-56,-1,-1,0
1523631734781,-917504,91,-56,-1,-1,0
1523631734781,-655360,91,-56,-1,-1,0
1523631734781,-458752,91,-56,-1,-1,0
1523631734781,-327680,91,-56,-1,-1,0
1523631734821,-65536,91,-56,-1,-1,0
1523631734821,196608,91,-56,-1,-1,0
1523631734821,458752,91,-56,-1,-1,0
1523631734821,786432,91,-56,-1,-1,0
1523631734821,1114112,91,-56,-1,-1,0
1523631734861,1441792,91,-56,-1,-1,0
1523631734861,2031616,91,-56,-1,-1,0
1523631734861,2621440,91,-56,-1,-1,0
1523631734861,3211264,91,-56,-1,-1,0
1523631734861,3670016,91,-56,-1,-1,0
1523631734901,4063232,91,-56,-1,-1,0
1523631734901,4325376,91,-56,-1,-1,0
1523631734901,4521984,91,-56,-1,-1,0
1523631734901,4521984,91,-56,-1,-1,0
1523631734901,4325376,91,-56,-1,-1,0
1523631734941,3866624,91,-56,-1,-1,0
1523631734941,3080192,91,-56,-1,-1,0
1523631734941,2162688,91,-56,-1,-1,0
1523631734941,1310720,91,-56,-1,-1,0
1523631734941,720896,91,-56,-1,-1,0
1523631734981,262144,91,-56,-1,-1,0
1523631734981,0,91,-56,-1,-1,0
1523631734981,-262144,91,-56,-1,-1,0
1523631734981,-393216,91,-56,-1,-1,0
1523631734981,-393216,91,-56,-1,-1,0
1523631735021,-327680,91,-56,-1,-1,0
1523631735021,-458752,91,-56,-1,-1,0
1523631735021,-589824,91,-56,-1,-1,0
1523631735021,-589824,91,-56,-1,-1,0
1523631735021,-589824,91,-56,-1,-1,0
1523631735061,-524288,91,-56,-1,-1,0
1523631735061,-524288,91,-56,-1,-1,0
1523631735061,-655360,91,-56,-1,-1,0
1523631735061,-786432,91,-56,-1,-1,0
1523631735061,-851968,91,-56,-1,-1,0
1523631735102,-917504,91,-56,-1,-1,0
1523631735102,-983040,91,-56,-1,-1,0
1523631735102,-983040,91,-56,-1,-1,0
1523631735102,-983040,91,-56,-1,-1,0
1523631735102,-1048576,91,-56,-1,-1,0
1523631735141,-1048576,91,-56,-1,-1,0
1523631735141,-1114112,91,-56,-1,-1,0
1523631735141,-1310720,91,-56,-1,-1,0
1523631735141,-1310720,91,-56,-1,-1,0
1523631735141,-1245184,91,-56,-1,-1,0
1523631735181,-1245184,91,-56,-1,-1,0
1523631735181,-1245184,91,-56,-1,-1,0
1523631735181,-1245184,91,-56,-1,-1,0
1523631735181,-1310720,91,-56,-1,-1,0
1523631735181,-1376256,91,-56,-1,-1,0
1523631735221,-1376256,91,-56,-1,-1,0
1523631735221,-1376256,91,-56,-1,-1,0
1523631735221,-1638400,91,-56,-1,-1,0
1523631735221,-1900544,91,-56,-1,-1,0
1523631735221,-2031616,91,-56,-1,-1,0
1523631735261,-1966080,91,-56,-1,-1,0
1523631735261,-1572864,91,-56,-1,-1,0
1523631735261,-1114112,91,-56,-1,-1,0
1523631735261,-786432,91,-56,-1,-1,0
1523631735261,-851968,91,-56,-1,-1,0
1523631735301,-1114112,91,-56,-1,-1,0
1523631735301,-1310720,91,-56,-1,-1,0
1523631735301,-1441792,91,-56,-1,-1,0
1523631735301,-1441792,91,-56,-1,-1,0
1523631735301,-1441792,91,-56,-1,-1,0
1523631735341,-983040,91,-56,-1,-1,0
1523631735341,1572864,91,-56,-1,-1,0
1523631735341,7012352,91,-56,-1,-1,0
1523631735341,9699328,91,-56,-1,-1,0
1523631735341,4521984,91,-56,-1,-1,0
1523631735381,-3473408,91,-56,-1,-1,0
1523631735381,-6291456,91,-56,-1,-1,0
1523631735381,-4587520,91,-56,-1,-1,0
1523631735381,-2621440,91,-56,-1,-1,0
1523631735381,-1835008,91,-56,-1,-1,0
1523631735421,-1572864,91,-56,-1,-1,0
1523631735421,-1441792,91,-56,-1,-1,0
1523631735421,-1310720,91,-56,-1,-1,0
1523631735421,-1114112,91,-56,-1,-1,0
1523631735421,-983040,91,-56,-1,-1,0
1523631735461,-983040,91,-56,-1,-1,0
1523631735461,-917504,91,-56,-1,-1,0
1523631735461,-720896,91,-56,-1,-1,0
1523631735461,-458752,91,-56,-1,-1,0
1523631735461,-196608,91,-56,-1,-1,0
1523631735501,0,91,-56,-1,-1,0
1523631735501,196608,91,-56,-1,-1,0
1523631735501,524288,91,-56,-1,-1,0
1523631735501,983040,91,-56,-1,-1,0
1523631735501,1441792,91,-56,-1,-1,0
1523631735541,1638400,91,-56,-1,-1,0
1523631735541,1966080,91,-56,-1,-1,0
1523631735541,2490368,91,-56,-1,-1,0
1523631735541,3145728,91,-56,-1,-1,0
1523631735541,3670016,91,-56,-1,-1,0
1523631735581,4259840,91,-56,-1,-1,0
1523631735581,4587520,91,-56,-1,-1,0
1523631735581,4915200,91,-56,-1,-1,0
1523631735581,4980736,91,-56,-1,-1,0
1523631735581,4915200,91,-56,-1,-1,0
1523631735621,4456448,91,-56,-1,-1,0
1523631735621,3670016,91,-56,-1,-1,0
1523631735621,2752512,91,-56,-1,-1,0
1523631735621,1900544,91,-56,-1,-1,0
1523631735621,1310720,91,-56,-1,-1,0
1523631735661,851968,91,-56,-1,-1,0
1523631735661,327680,91,-56,-1,-1,0
1523631735661,0,91,-56,-1,-1,0
1523631735661,-131072,91,-56,-1,-1,0
1523631735661,-262144,91,-56,-1,-1,0
1523631735701,-262144,91,-56,-1,-1,0
1523631735701,-196608,91,-56,-1,-1,0
1523631735701,-196608,91,-56,-1,-1,0
1523631735701,-262144,91,-56,-1,-1,0
1523631735701,-196608,91,-56,-1,-1,0
1523631735742,-262144,91,-56,-1,-1,0
1523631735742,-327680,91,-56,-1,-1,0
1523631735742,-458752,91,-56,-1,-1,0
1523631735742,-655360,91,-56,-1,-1,0
1523631735742,-786432,91,-56,-1,-1,0
1523631735781,-851968,91,-56,-1,-1,0
1523631735781,-786432,91,-56,-1,-1,0
1523631735781,-720896,91,-56,-1,-1,0
1523631735781,-720896,91,-56,-1,-1,0
1523631735781,-786432,91,-56,-1,-1,0
1523631735821,-851968,91,-56,-1,-1,0
1523631735821,-851968,91,-56,-1,-1,0
1523631735821,-917504,91,-56,-1,-1,0
1523631735821,-1048576,91,-56,-1,-1,0
1523631735821,-1179648,91,-56,-1,-1,0
1523631735861,-1114112,91,-56,-1,-1,0
1523631735861,-1179648,91,-56,-1,-1,0
1523631735861,-1048576,91,-56,-1,-1,0
1523631735861,-1048576,91,-56,-1,-1,0
1523631735861,-1114112,91,-56,-1,-1,0
1523631735901,-1245184,91,-56,-1,-1,0
1523631735901,-1310720,91,-56,-1,-1,0
1523631735901,-1572864,91,-56,-1,-1,0
1523631735901,-1835008,91,-56,-1,-1,0
1523631735901,-1900544,91,-56,-1,-1,0
1523631735941,-1835008,91,-56,-1,-1,0
1523631735941,-1572864,91,-56,-1,-1,0
1523631735941,-1048576,91,-56,-1,-1,0
1523631735941,-655360,91,-56,-1,-1,0
1523631735941,-589824,91,-56,-1,-1,0
1523631735981,-851968,91,-56,-1,-1,0
1523631735981,-1245184,91,-56,-1,-1,0
1523631735981,-1441792,91,-56,-1,-1,0
1523631735981,-1441792,91,-56,-1,-1,0
1523631735981,-1376256,91,-56,-1,-1,0
1523631736021,-1048576,91,-56,-1,-1,0
1523631736021,917504,91,-56,-1,-1,0
1523631736021,5767168,91,-56,-1,-1,0
1523631736021,9437184,91,-56,-1,-1,0
1523631736021,6160384,91,-56,-1,-1,0
1523631736061,-1703936,91,-56,-1,-1,0
1523631736061,-5963776,91,-56,-1,-1,0
1523631736061,-4980736,91,-56,-1,-1,0
1523631736061,-2883584,91,-56,-1,-1,0
1523631736061,-1966080,91,-56,-1,-1,0
1523631736101,-1769472,91,-56,-1,-1,0
1523631736101,-1638400,91,-56,-1,-1,0
1523631736101,-1507328,91,-56,-1,-1,0
1523631736101,-1441792,91,-56,-1,-1,0
1523631736101,-1310720,91,-56,-1,-1,0
1523631736141,-1179648,91,-56,-1,-1,0
1523631736141,-1048576,91,-56,-1,-1,0
1523631736141,-917504,91,-56,-1,-1,0
1523631736141,-720896,91,-56,-1,-1,0
1523631736141,-524288,91,-56,-1,-1,0
1523631736181,-196608,91,-56,-1,-1,0
1523631736181,0,91,-56,-1,-1,0
1523631736181,327680,91,-56,-1,-1,0
1523631736181,589824,91,-56,-1,-1,0
1523631736181,917504,91,-56,-1,-1,0
1523631736221,1376256,91,-56,-1,-1,0
1523631736221,1966080,91,-56,-1,-1,0
1523631736221,2490368,91,-56,-1,-1,0
1523631736221,3014656,91,-56,-1,-1,0
1523631736221,3538944,91,-56,-1,-1,0
1523631736261,3932160,91,-56,-1,-1,0
1523631736261,4259840,91,-56,-1,-1,0
1523631736261,4456448,91,-56,-1,-1,0
1523631736261,4587520,91,-56,-1,-1,0
1523631736261,4521984,91,-56,-1,-1,0
1523631736301,4194304,91,-56,-1,-1,0
1523631736301,3538944,91,-56,-1,-1,0
1523631736301,2686976,91,-56,-1,-1,0
1523631736301,1835008,91,-56,-1,-1,0
1523631736301,1114112,91,-56,-1,-1,0
1523631736341,589824,91,-56,-1,-1,0
1523631736341,196608,91,-56,-1,-1,0
1523631736341,0,91,-56,-1,-1,0
1523631736341,-262144,91,-56,-1,-1,0
1523631736341,-393216,91,-56,-1,-1,0
1523631736382,-458752,91,-56,-1,-1,0
1523631736382,-458752,91,-56,-1,-1,0
1523631736382,-458752,91,-56,-1,-1,0
1523631736382,-524288,91,-56,-1,-1,0
1523631736382,-655360,91,-56,-1,-1,0
1523631736422,-720896,91,-56,-1,-1,0
1523631736422,-655360,91,-56,-1,-1,0
1523631736422,-655360,91,-56,-1,-1,0
1523631736422,-786432,91,-56,-1,-1,0
1523631736422,-983040,91,-56,-1,-1,0
1523631736461,-1048576,91,-56,-1,-1,0
1523631736461,-1114112,91,-56,-1,-1,0
1523631736461,-1114112,91,-56,-1,-1,0
1523631736461,-1114112,91,-56,-1,-1,0
1523631736461,-1179648,91,-56,-1,-1,0
1523631736501,-1245184,91,-56,-1,-1,0
1523631736501,-1310720,91,-56,-1,-1,0
1523631736501,-1376256,91,-56,-1,-1,0
1523631736501,-1245184,91,-56,-1,-1,0
1523631736501,-1114112,91,-56,-1,-1,0
1523631736541,-1245184,91,-56,-1,-1,0
1523631736541,-1507328,91,-56,-1,-1,0
1523631736541,-1572864,91,-56,-1,-1,0
1523631736541,-1441792,91,-56,-1,-1,0
1523631736541,-1376256,91,-56,-1,-1,0
1523631736581,-1245184,91,-56,-1,-1,0
1523631736581,-1310720,91,-56,-1,-1,0
1523631736581,-1638400,91,-56,-1,-1,0
1523631736581,-1835008,91,-56,-1,-1,0
1523631736581,-1835008,91,-56,-1,-1,0
1523631736621,-1507328,91,-56,-1,-1,0
1523631736621,-1114112,91,-56,-1,-1,0
1523631736621,-917504,91,-56,-1,-1,0
1523631736621,-917504,91,-56,-1,-1,0
1523631736621,-1048576,91,-56,-1,-1,0
1523631736661,-1179648,91,-56,-1,-1,0
1523631736661,-1245184,91,-56,-1,-1,0
1523631736661,-1179648,91,-56,-1,-1,0
1523631736661,-1245184,91,-56,-1,-1,0
1523631736661,-1114112,91,-56,-1,-1,0
1523631736701,393216,90,-56,-1,-1,0
1523631736701,4915200,90,-56,-1,-1,0
1523631736701,8716288,90,-56,-1,-1,0
1523631736701,5963776,90,-56,-1,-1,0
1523631736701,-1507328,90,-56,-1,-1,0
1523631736741,-5832704,90,-56,-1,-1,0
1523631736741,-5111808,90,-56,-1,-1,0
1523631736741,-2949120,90,-56,-1,-1,0
1523631736741,-1900544,90,-56,-1,-1,0
1523631736741,-1507328,90,-56,-1,-1,0
1523631736781,-1441792,90,-56,-1,-1,0
1523631736781,-1441792,90,-56,-1,-1,0
1523631736781,-1441792,90,-56,-1,-1,0
1523631736781,-1179648,90,-56,-1,-1,0
1523631736781,-917504,90,-56,-1,-1,0
1523631736821,-786432,90,-56,-1,-1,0
1523631736821,-786432,90,-56,-1,-1,0
1523631736821,-655360,90,-56,-1,-1,0
1523631736821,-524288,90,-56,-1,-1,0
1523631736821,-196608,90,-56,-1,-1,0
1523631736861,0,90,-56,-1,-1,0
1523631736861,262144,90,-56,-1,-1,0
1523631736861,524288,90,-56,-1,-1,0
1523631736861,851968,90,-56,-1,-1,0
1523631736861,1245184,90,-56,-1,-1,0
1523631736901,1769472,90,-56,-1,-1,0
1523631736901,2228224,90,-56,-1,-1,0
1523631736901,2818048,90,-56,-1,-1,0
1523631736901,3342336,90,-56,-1,-1,0
1523631736901,3866624,90,-56,-1,-1,0
1523631736941,4259840,90,-56,-1,-1,0
1523631736941,4521984,90,-56,-1,-1,0
1523631736941,4587520,90,-56,-1,-1,0
1523631736941,4521984,90,-56,-1,-1,0
1523631736941,4194304,90,-56,-1,-1,0
1523631736981,3538944,90,-56,-1,-1,0
1523631736981,2752512,90,-56,-1,-1,0
1523631736981,1900544,90,-56,-1,-1,0
1523631736981,1179648,90,-56,-1,-1,0
1523631736981,655360,90,-56,-1,-1,0
1523631737022,196608,90,-56,-1,-1,0
1523631737022,-196608,90,-56,-1,-1,0
1523631737022,-393216,90,-56,-1,-1,0
1523631737022,-393216,90,-56,-1,-1,0
1523631737022,-327680,90,-56,-1,-1,0
1523631737061,-393216,90,-56,-1,-1,0
1523631737061,-458752,90,-56,-1,-1,0
1523631737061,-589824,90,-56,-1,-1,0
1523631737061,-655360,90,-56,-1,-1,0
1523631737061,-655360,90,-56,-1,-1,0
1523631737101,-589824,90,-56,-1,-1,0
1523631737101,-655360,90,-56,-1,-1,0
1523631737101,-786432,90,-56,-1,-1,0
1523631737101,-851968,90,-56,-1,-1,0
1523631737101,-983040,90,-56,-1,-1,0
1523631737141,-1048576,90,-56,-1,-1,0
1523631737141,-1114112,90,-56,-1,-1,0
1523631737141,-1114112,90,-56,-1,-1,0
1523631737141,-1179648,90,-56,-1,-1,0
1523631737141,-1245184,90,-56,-1,-1,0
1523631737181,-1245184,90,-56,-1,-1,0
1523631737181,-1310720,90,-56,-1,-1,0
1523631737181,-1310720,90,-56,-1,-1,0
1523631737181,-1310720,90,-56,-1,-1,0
1523631737181,-1376256,90,-56,-1,-1,0
1523631737221,-1376256,90,-56,-1,-1,0
1523631737221,-1310720,90,-56,-1,-1,0
1523631737221,-1310720,90,-56,-1,-1,0
1523631737221,-1376256,90,-56,-1,-1,0
1523631737221,-1310720,90,-56,-1,-1,0
1523631737261,-1310720,90,-56,-1,-1,0
1523631737261,-1310720,90,-56,-1,-1,0
1523631737261,-1376256,90,-56,-1,-1,0
1523631737261,-1441792,90,-56,-1,-1,0
1523631737261,-1441792,90,-56,-1,-1,0
1523631737301,-1507328,90,-56,-1,-1,0
1523631737301,-1638400,90,-56,-1,-1,0
1523631737301,-1769472,90,-56,-1,-1,0
1523631737301,-1572864,90,-56,-1,-1,0
1523631737301,-1179648,90,-56,-1,-1,0
1523631737341,-786432,90,-56,-1,-1,0
1523631737341,-589824,90,-56,-1,-1,0
1523631737341,-720896,90,-56,-1,-1,0
1523631737341,-983040,90,-56,-1,-1,0
1523631737341,-1114112,90,-56,-1,-1,0
1523631737381,-1245184,90,-56,-1,-1,0
1523631737381,-1245184,90,-56,-1,-1,0
1523631737381,-1245184,90,-56,-1,-1,0
1523631737381,-327680,90,-56,-1,-1,0
1523631737381,2949120,90,-56,-1,-1,0
1523631737421,8126464,90,-56,-1,-1,0
1523631737421,8716288,90,-56,-1,-1,0
1523631737421,2424832,90,-56,-1,-1,0
1523631737421,-4456448,90,-56,-1,-1,0
1523631737421,-5963776,90,-56,-1,-1,0
1523631737461,-4194304,90,-56,-1,-1,0
1523631737461,-2490368,90,-56,-1,-1,0
1523631737461,-1769472,90,-56,-1,-1,0
1523631737461,-1507328,90,-56,-1,-1,0
1523631737461,-1441792,90,-56,-1,-1,0
1523631737501,-1441792,90,-56,-1,-1,0
1523631737501,-1310720,90,-56,-1,-1,0
1523631737501,-1179648,90,-56,-1,-1,0
1523631737501,-983040,90,-56,-1,-1,0
1523631737501,-720896,90,-56,-1,-1,0
1523631737541,-589824,90,-56,-1,-1,0
1523631737541,-589824,90,-56,-1,-1,0
1523631737541,-393216,90,-56,-1,-1,0
1523631737541,-131072,90,-56,-1,-1,0
1523631737541,65536,90,-56,-1,-1,0
1523631737581,458752,90,-56,-1,-1,0
1523631737581,786432,90,-56,-1,-1,0
1523631737581,1310720,90,-56,-1,-1,0
1523631737581,1835008,90,-56,-1,-1,0
1523631737581,2555904,90,-56,-1,-1,0
1523631737621,3080192,90,-56,-1,-1,0
1523631737621,3407872,90,-56,-1,-1,0
1523631737621,3801088,90,-56,-1,-1,0
1523631737621,4325376,90,-56,-1,-1,0
1523631737621,4784128,90,-56,-1,-1,0
1523631737662,5046272,90,-56,-1,-1,0
1523631737662,5111808,90,-56,-1,-1,0
1523631737662,4849664,90,-56,-1,-1,0
1523631737662,4325376,90,-56,-1,-1,0
1523631737662,3604480,90,-56,-1,-1,0
1523631737701,2686976,90,-56,-1,-1,0
1523631737701,1769472,90,-56,-1,-1,0
1523631737701,1048576,90,-56,-1,-1,0
1523631737701,524288,90,-56,-1,-1,0
1523631737701,131072,90,-56,-1,-1,0
1523631737741,-65536,90,-56,-1,-1,0
1523631737741,-262144,90,-56,-1,-1,0
1523631737741,-393216,90,-56,-1,-1,0
1523631737741,-393216,90,-56,-1,-1,0
1523631737741,-327680,90,-56,-1,-1,0
1523631737781,-393216,90,-56,-1,-1,0
1523631737781,-524288,90,-56,-1,-1,0
1523631737781,-589824,90,-56,-1,-1,0
1523631737781,-589824,90,-56,-1,-1,0
1523631737781,-720896,90,-56,-1,-1,0
1523631737821,-917504,90,-56,-1,-1,0
1523631737821,-917504,90,-56,-1,-1,0
1523631737821,-917504,90,-56,-1,-1,0
1523631737821,-983040,90,-56,-1,-1,0
1523631737821,-1048576,90,-56,-1,-1,0
1523631737861,-1114112,90,-56,-1,-1,0
1523631737861,-1245184,90,-56,-1,-1,0
1523631737861,-1245184,90,-56,-1,-1,0
1523631737861,-1245184,90,-56,-1,-1,0
1523631737861,-1310720,90,-56,-1,-1,0
1523631737901,-1310720,90,-56,-1,-1,0
1523631737901,-1310720,90,-56,-1,-1,0
1523631737901,-1310720,90,-56,-1,-1,0
1523631737901,-1310720,90,-56,-1,-1,0
1523631737901,-1376256,90,-56,-1,-1,0
1523631737941,-1572864,90,-56,-1,-1,0
1523631737941,-1769472,90,-56,-1,-1,0
1523631737941,-1900544,90,-56,-1,-1,0
1523631737941,-2031616,90,-56,-1,-1,0
1523631737941,-1769472,90,-56,-1,-1,0
1523631737981,-1114112,90,-56,-1,-1,0
1523631737981,-524288,90,-56,-1,-1,0
1523631737981,-458752,90,-56,-1,-1,0
1523631737981,-786432,90,-56,-1,-1,0
1523631737981,-1114112,90,-56,-1,-1,0
1523631738021,-1245184,90,-56,-1,-1,0
1523631738021,-1245184,90,-56,-1,-1,0
1523631738021,-1179648,90,-56,-1,-1,0
1523631738021,-1179648,90,-56,-1,-1,0
1523631738021,-655360,90,-56,-1,-1,0
1523631738061,2162688,90,-56,-1,-1,0
1523631738061,7733248,90,-56,-1,-1,0
1523631738061,10027008,90,-56,-1,-1,0
1523631738061,4587520,90,-56,-1,-1,0
1523631738061,-3276800,90,-56,-1,-1,0
1523631738101,-5898240,90,-56,-1,-1,0
1523631738101,-4259840,90,-56,-1,-1,0
1523631738101,-2359296,90,-56,-1,-1,0
1523631738101,-1507328,90,-56,-1,-1,0
1523631738101,-1310720,90,-56,-1,-1,0
1523631738141,-1179648,90,-56,-1,-1,0
1523631738141,-1048576,90,-56,-1,-1,0
1523631738141,-917504,90,-56,-1,-1,0
1523631738141,-917504,90,-56,-1,-1,0
1523631738141,-786432,90,-56,-1,-1,0
1523631738181,-655360,90,-56,-1,-1,0
1523631738181,-524288,90,-56,-1,-1,0
1523631738181,-327680,90,-56,-1,-1,0
1523631738181,-131072,90,-56,-1,-1,0
1523631738181,65536,90,-56,-1,-1,0
1523631738221,327680,90,-56,-1,-1,0
1523631738221,655360,90,-56,-1,-1,0
1523631738221,983040,90,-56,-1,-1,0
1523631738221,1376256,90,-56,-1,-1,0
1523631738221,1835008,90,-56,-1,-1,0
1523631738261,2293760,90,-56,-1,-1,0
1523631738261,2883584,90,-56,-1,-1,0
1523631738261,3473408,90,-56,-1,-1,0
1523631738261,3997696,90,-56,-1,-1,0
1523631738261,4390912,90,-56,-1,-1,0
1523631738302,4653056,90,-56,-1,-1,0
1523631738302,4784128,90,-56,-1,-1,0
1523631738302,4718592,90,-56,-1,-1,0
1523631738302,4390912,90,-56,-1,-1,0
1523631738302,3866624,90,-56,-1,-1,0
1523631738341,3080192,90,-56,-1,-1,0
1523631738341,2293760,90,-56,-1,-1,0
1523631738341,1441792,90,-56,-1,-1,0
1523631738341,720896,90,-56,-1,-1,0
1523631738341,262144,90,-56,-1,-1,0
1523631738381,0,90,-56,-1,-1,0
1523631738381,-196608,90,-56,-1,-1,0
1523631738381,-327680,90,-56,-1,-1,0
1523631738381,-524288,90,-56,-1,-1,0
1523631738381,-524288,90,-56,-1,-1,0
1523631738421,-393216,90,-56,-1,-1,0
1523631738421,-393216,90,-56,-1,-1,0
1523631738421,-589824,90,-56,-1,-1,0
1523631738421,-655360,90,-56,-1,-1,0
1523631738421,-655360,90,-56,-1,-1,0
1523631738461,-720896,90,-56,-1,-1,0
1523631738461,-917504,90,-56,-1,-1,0
1523631738461,-917504,90,-56,-1,-1,0
1523631738461,-851968,90,-56,-1,-1,0
1523631738461,-851968,90,-56,-1,-1,0
1523631738502,-1048576,90,-56,-1,-1,0
1523631738502,-1245184,90,-56,-1,-1,0
1523631738502,-1310720,90,-56,-1,-1,0
1523631738502,-1310720,90,-56,-1,-1,0
1523631738502,-1310720,90,-56,-1,-1,0
1523631738541,-1310720,90,-56,-1,-1,0
1523631738541,-1376256,90,-56,-1,-1,0
1523631738541,-1572864,90,-56,-1,-1,0
1523631738541,-1638400,90,-56,-1,-1,0
1523631738541,-1507328,90,-56,-1,-1,0
1523631738581,-1441792,90,-56,-1,-1,0
1523631738581,-1441792,90,-56,-1,-1,0
1523631738581,-1507328,90,-56,-1,-1,0
1523631738581,-1572864,90,-56,-1,-1,0
1523631738581,-1572864,90,-56,-1,-1,0
1523631738621,-1769472,90,-56,-1,-1,0
1523631738621,-1966080,90,-56,-1,-1,0
1523631738621,-2162688,90,-56,-1,-1,0
1523631738621,-2228224,90,-56,-1,-1,0
1523631738621,-2097152,90,-56,-1,-1,0
1523631738661,-1638400,90,-56,-1,-1,0
1523631738661,-1114112,90,-56,-1,-1,0
1523631738661,-983040,90,-56,-1,-1,0
1523631738661,-1310720,90,-56,-1,-1,0
1523631738661,-1441792,90,-56,-1,-1,0
1523631738701,-1376256,89,-56,-1,-1,0
1523631738701,-1507328,89,-56,-1,-1,0
1523631738701,-1507328,89,-56,-1,-1,0
1523631738701,-1376256,89,-56,-1,-1,0
1523631738701,-393216,89,-56,-1,-1,0
1523631738741,3080192,89,-56,-1,-1,0
1523631738741,7995392,89,-56,-1,-1,0
1523631738741,7995392,89,-56,-1,-1,0
1523631738741,1245184,89,-56,-1,-1,0
1523631738741,-5111808,89,-56,-1,-1,0
1523631738781,-6094848,89,-56,-1,-1,0
1523631738781,-3997696,89,-56,-1,-1,0
1523631738781,-2424832,89,-56,-1,-1,0
1523631738781,-1769472,89,-56,-1,-1,0
1523631738781,-1769472,89,-56,-1,-1,0
1523631738821,-1572864,89,-56,-1,-1,0
1523631738821,-1376256,89,-56,-1,-1,0
1523631738821,-1376256,89,-56,-1,-1,0
1523631738821,-1310720,89,-56,-1,-1,0
1523631738821,-983040,89,-56,-1,-1,0
1523631738861,-851968,89,-56,-1,-1,0
1523631738861,-851968,89,-56,-1,-1,0
1523631738861,-720896,89,-56,-1,-1,0
1523631738861,-393216,89,-56,-1,-1,0
1523631738861,-196608,89,-56,-1,-1,0
1523631738901,65536,89,-56,-1,-1,0
1523631738901,196608,89,-56,-1,-1,0
1523631738901,196608,89,-56,-1,-1,0
1523631738901,851968,89,-56,-1,-1,0
1523631738901,1900544,89,-56,-1,-1,0
1523631738942,2424832,89,-56,-1,-1,0
1523631738942,2555904,89,-56,-1,-1,0
1523631738942,2883584,89,-56,-1,-1,0
1523631738942,3670016,89,-56,-1,-1,0
1523631738942,4325376,89,-56,-1,-1,0
1523631738981,4521984,89,-56,-1,-1,0
1523631738981,4456448,89,-56,-1,-1,0
1523631738981,4456448,89,-56,-1,-1,0
1523631738981,4456448,89,-56,-1,-1,0
1523631738981,4194304,89,-56,-1,-1,0
1523631739021,3407872,89,-56,-1,-1,0
1523631739021,2555904,89,-56,-1,-1,0
1523631739021,1638400,89,-56,-1,-1,0
1523631739021,917504,89,-56,-1,-1,0
1523631739021,262144,89,-56,-1,-1,0
1523631739061,0,89,-56,-1,-1,0
1523631739061,-65536,89,-56,-1,-1,0
1523631739061,-196608,89,-56,-1,-1,0
1523631739061,-196608,89,-56,-1,-1,0
1523631739061,-65536,89,-56,-1,-1,0
1523631739101,-131072,89,-56,-1,-1,0
1523631739101,-262144,89,-56,-1,-1,0
1523631739101,-131072,89,-56,-1,-1,0
1523631739101,-196608,89,-56,-1,-1,0
1523631739101,-458752,89,-56,-1,-1,0
1523631739141,-458752,89,-56,-1,-1,0
1523631739141,-262144,89,-56,-1,-1,0
1523631739141,-458752,89,-56,-1,-1,0
1523631739141,-655360,89,-56,-1,-1,0
1523631739141,-655360,89,-56,-1,-1,0
1523631739181,-917504,89,-56,-1,-1,0
1523631739181,-983040,89,-56,-1,-1,0
1523631739181,-786432,89,-56,-1,-1,0
1523631739181,-851968,89,-56,-1,-1,0
1523631739181,-1114112,89,-56,-1,-1,0
1523631739221,-917504,89,-56,-1,-1,0
1523631739221,-786432,89,-56,-1,-1,0
1523631739221,-983040,89,-56,-1,-1,0
1523631739221,-1179648,89,-56,-1,-1,0
1523631739221,-1245184,89,-56,-1,-1,0
1523631739261,-1245184,89,-56,-1,-1,0
1523631739261,-983040,89,-56,-1,-1,0
1523631739261,-851968,89,-56,-1,-1,0
1523631739261,-1048576,89,-56,-1,-1,0
1523631739261,-1179648,89,-56,-1,-1,0
1523631739301,-1310720,89,-56,-1,-1,0
1523631739301,-1769472,89,-56,-1,-1,0
1523631739301,-1835008,89,-56,-1,-1,0
1523631739301,-1638400,89,-56,-1,-1,0
1523631739301,-1507328,89,-56,-1,-1,0
1523631739341,-1114112,89,-56,-1,-1,0
1523631739341,-720896,89,-56,-1,-1,0
1523631739341,-655360,89,-56,-1,-1,0
1523631739341,-720896,89,-56,-1,-1,0
1523631739341,-917504,89,-56,-1,-1,0
1523631739381,-1245184,89,-56,-1,-1,0
1523631739381,-1310720,89,-56,-1,-1,0
1523631739381,-1179648,89,-56,-1,-1,0
1523631739381,-1245184,89,-56,-1,-1,0
1523631739381,-131072,89,-56,-1,-1,0
1523631739421,4194304,89,-56,-1,-1,0
1523631739421,9371648,89,-56,-1,-1,0
1523631739421,8650752,89,-56,-1,-1,0
1523631739421,1048576,89,-56,-1,-1,0
1523631739421,-5373952,89,-56,-1,-1,0
1523631739461,-5701632,89,-56,-1,-1,0
1523631739461,-3145728,89,-56,-1,-1,0
1523631739461,-2097152,89,-56,-1,-1,0
1523631739461,-1703936,89,-56,-1,-1,0
1523631739461,-1441792,89,-56,-1,-1,0
1523631739501,-1376256,89,-56,-1,-1,0
1523631739501,-1507328,89,-56,-1,-1,0
1523631739501,-1245184,89,-56,-1,-1,0
1523631739501,-1114112,89,-56,-1,-1,0
1523631739501,-1048576,89,-56,-1,-1,0
1523631739541,-1048576,89,-56,-1,-1,0
1523631739541,-851968,89,-56,-1,-1,0
1523631739541,-589824,89,-56,-1,-1,0
1523631739541,-65536,89,-56,-1,-1,0
1523631739541,131072,89,-56,-1,-1,0
1523631739582,327680,89,-56,-1,-1,0
1523631739582,524288,89,-56,-1,-1,0
1523631739582,851968,89,-56,-1,-1,0
1523631739582,1048576,89,-56,-1,-1,0
1523631739582,1507328,89,-56,-1,-1,0
1523631739621,2031616,89,-56,-1,-1,0
1523631739621,2555904,89,-56,-1,-1,0
1523631739621,3276800,89,-56,-1,-1,0
