milliseconds, ECG, ECG HR, PPG, PPG HR, SpO2, PI,Landmark_0,Landmark_1,Landmark_2,Landmark_3,Landmark_4,Landmark_5,Landmark_6,Landmark_7,Landmark_8,Landmark_9,Landmark_10,Landmark_11,Landmark_12,Landmark_13,Landmark_14,Landmark_15,Landmark_16,Landmark_17,Landmark_18,Landmark_19,Landmark_20,Landmark_21,Landmark_22,Landmark_23,Landmark_24,Landmark_25,Landmark_26,Landmark_27,Landmark_28,Landmark_29,Landmark_30,Landmark_31,Landmark_32,Landmark_33,Landmark_34,Landmark_35,Landmark_36,Landmark_37,Landmark_38,Landmark_39,Landmark_40,Landmark_41,Landmark_42,Landmark_43,Landmark_44,Landmark_45,Landmark_46,Landmark_47,Landmark_48,Landmark_49,Landmark_50,Landmark_51,Landmark_52,Landmark_53,Landmark_54,Landmark_55,Landmark_56,Landmark_57,Landmark_58,Landmark_59,Landmark_60,Landmark_61,Landmark_62,Landmark_63,Landmark_64,Landmark_65,Landmark_66,Landmark_67,EyeAspectRatio,MouthAspectRatio,LightIntensity,FaceWidthRatio,EyebrowHeight,LipsWidthRatio,LipsHeightRatio,EyeOpening,NoseWidthRatio,NoseHeightRatio,AvgRedForehead,AvgGreenForehead,AvgBlueForehead,AvgRedLips,AvgGreenLips,AvgBlueLips,AvgRedCheeks,AvgGreenCheeks,AvgBlueCheeks
0,393216,60,-56,-1,-1,0,"(1145, 458)","(1146, 499)","(1149, 541)","(1158, 579)","(1180, 612)","(1212, 637)","(1247, 657)","(1283, 670)","(1314, 674)","(1339, 665)","(1356, 642)","(1371, 616)","(1385, 587)","(1397, 558)","(1406, 527)","(1407, 496)","(1403, 467)","(1216, 432)","(1239, 419)","(1267, 413)","(1295, 415)","(1321, 424)","(1356, 425)","(1371, 415)","(1387, 410)","(1403, 411)","(1410, 422)","(1341, 461)","(1346, 484)","(1353, 506)","(1359, 528)","(1321, 549)","(1334, 552)","(1346, 555)","(1356, 553)","(1364, 548)","(1248, 461)","(1265, 455)","(1283, 453)","(1295, 464)","(1282, 469)","(1264, 469)","(1352, 462)","(1365, 451)","(1380, 450)","(1389, 457)","(1381, 466)","(1367, 466)","(1285, 592)","(1310, 583)","(1331, 579)","(1341, 583)","(1349, 581)","(1357, 587)","(1358, 597)","(1352, 610)","(1343, 617)","(1333, 617)","(1323, 615)","(1305, 607)","(1294, 591)","(1330, 591)","(1340, 592)","(1347, 593)","(1352, 597)","(1343, 600)","(1335, 601)","(1325, 600)",0.41,0.5,73.0,0.32,-0.06,0.28,0.03,-14.5,0.08,0.31,65.5,78.2,112.8,46.65,52.8,102.8,61.05,67.47,115.0
33,262144,60,-56,-1,-1,0,"(1127, 366)","(1128, 392)","(1131, 416)","(1137, 440)","(1145, 463)","(1158, 485)","(1174, 505)","(1194, 522)","(1217, 526)","(1242, 523)","(1265, 508)","(1287, 490)","(1304, 470)","(1316, 445)","(1322, 419)","(1325, 390)","(1327, 361)","(1132, 349)","(1143, 340)","(1159, 338)","(1176, 341)","(1192, 349)","(1234, 347)","(1251, 337)","(1271, 332)","(1290, 333)","(1306, 341)","(1213, 370)","(1212, 388)","(1211, 405)","(1210, 423)","(1194, 434)","(1203, 437)","(1213, 440)","(1224, 437)","(1234, 433)","(1155, 372)","(1166, 368)","(1179, 367)","(1191, 373)","(1179, 377)","(1165, 377)","(1244, 371)","(1256, 364)","(1270, 363)","(1283, 367)","(1271, 374)","(1257, 374)","(1183, 468)","(1194, 462)","(1205, 459)","(1214, 462)","(1223, 459)","(1236, 461)","(1252, 466)","(1238, 479)","(1225, 485)","(1215, 486)","(1206, 485)","(1194, 480)","(1190, 468)","(1206, 469)","(1214, 469)","(1223, 468)","(1245, 467)","(1224, 471)","(1214, 472)","(1206, 471)",0.26,0.94,74.0,0.37,-0.04,0.34,0.02,-9.5,0.1,0.33,63.2,82.3,127.9,63.25,74.8,144.6,43.41,56.23,98.88
66,196608,60,-56,-1,-1,0,"(1135, 348)","(1135, 375)","(1137, 399)","(1143, 423)","(1152, 447)","(1166, 469)","(1183, 489)","(1202, 505)","(1225, 510)","(1249, 506)","(1271, 490)","(1292, 472)","(1310, 452)","(1321, 428)","(1326, 402)","(1329, 375)","(1329, 347)","(1139, 336)","(1148, 325)","(1164, 321)","(1182, 323)","(1199, 331)","(1241, 331)","(1258, 322)","(1278, 319)","(1298, 322)","(1311, 333)","(1220, 356)","(1219, 373)","(1218, 389)","(1217, 406)","(1200, 418)","(1209, 422)","(1219, 424)","(1230, 421)","(1241, 418)","(1160, 357)","(1171, 354)","(1185, 354)","(1197, 360)","(1184, 363)","(1170, 363)","(1250, 359)","(1263, 352)","(1278, 352)","(1290, 355)","(1279, 362)","(1264, 362)","(1191, 453)","(1201, 447)","(1212, 444)","(1220, 447)","(1229, 444)","(1242, 447)","(1258, 452)","(1244, 465)","(1231, 471)","(1222, 472)","(1212, 471)","(1202, 466)","(1197, 453)","(1213, 453)","(1221, 454)","(1230, 453)","(1251, 452)","(1230, 458)","(1221, 459)","(1213, 458)",0.25,0.98,74.0,0.39,-0.02,0.34,0.02,-9.5,0.1,0.32,70.5,87.7,133.3,60.95,73.45,142.75,40.94,55.23,99.0
100,3342336,60,-56,-1,-1,0,"(1143, 345)","(1144, 370)","(1148, 394)","(1153, 418)","(1160, 440)","(1172, 461)","(1188, 479)","(1206, 494)","(1229, 498)","(1252, 494)","(1274, 481)","(1295, 465)","(1313, 446)","(1324, 423)","(1330, 397)","(1335, 370)","(1338, 342)","(1148, 328)","(1159, 318)","(1175, 315)","(1192, 317)","(1208, 324)","(1247, 322)","(1264, 313)","(1283, 309)","(1302, 311)","(1317, 321)","(1227, 344)","(1226, 362)","(1225, 379)","(1224, 396)","(1208, 408)","(1216, 411)","(1226, 413)","(1236, 410)","(1245, 407)","(1170, 349)","(1180, 344)","(1194, 344)","(1206, 351)","(1193, 354)","(1180, 354)","(1257, 349)","(1269, 341)","(1283, 340)","(1295, 344)","(1284, 350)","(1270, 351)","(1194, 441)","(1205, 436)","(1217, 432)","(1225, 435)","(1235, 432)","(1248, 435)","(1264, 440)","(1249, 452)","(1236, 458)","(1226, 459)","(1217, 458)","(1205, 453)","(1200, 441)","(1217, 441)","(1226, 442)","(1235, 441)","(1257, 440)","(1235, 444)","(1226, 445)","(1217, 444)",0.26,0.93,74.0,0.38,-0.04,0.35,0.02,-9.5,0.09,0.33,64.2,81.9,127.2,59.15,71.6,142.15,37.05,51.82,92.82
133,0,60,-56,-1,-1,0,"(1152, 340)","(1152, 364)","(1156, 388)","(1160, 411)","(1167, 433)","(1179, 454)","(1194, 471)","(1211, 484)","(1233, 488)","(1256, 484)","(1278, 471)","(1297, 456)","(1313, 437)","(1323, 415)","(1328, 390)","(1331, 365)","(1332, 339)","(1160, 319)","(1170, 310)","(1185, 307)","(1200, 309)","(1214, 316)","(1253, 315)","(1268, 307)","(1284, 303)","(1302, 305)","(1315, 314)","(1234, 336)","(1233, 353)","(1231, 369)","(1230, 385)","(1214, 398)","(1222, 401)","(1231, 403)","(1241, 400)","(1251, 398)","(1178, 342)","(1187, 337)","(1199, 336)","(1211, 342)","(1199, 345)","(1187, 345)","(1261, 341)","(1272, 333)","(1285, 333)","(1296, 337)","(1286, 342)","(1273, 342)","(1199, 431)","(1211, 425)","(1222, 421)","(1231, 424)","(1240, 421)","(1253, 425)","(1268, 430)","(1254, 442)","(1241, 447)","(1231, 448)","(1222, 448)","(1210, 443)","(1205, 431)","(1223, 431)","(1231, 432)","(1240, 431)","(1262, 431)","(1241, 434)","(1231, 435)","(1223, 434)",0.25,0.9,74.0,0.37,-0.03,0.38,0.02,-8.5,0.09,0.32,61.6,80.4,125.5,56.85,70.55,140.55,42.47,57.7,101.64
166,524288,60,-56,-1,-1,0,"(1159, 333)","(1159, 357)","(1163, 381)","(1167, 404)","(1174, 425)","(1185, 445)","(1200, 462)","(1217, 476)","(1239, 481)","(1262, 477)","(1282, 464)","(1301, 449)","(1317, 431)","(1327, 409)","(1333, 385)","(1337, 360)","(1339, 334)","(1167, 313)","(1178, 304)","(1193, 302)","(1209, 304)","(1223, 311)","(1257, 311)","(1272, 303)","(1289, 299)","(1307, 301)","(1320, 310)","(1240, 330)","(1239, 347)","(1238, 363)","(1236, 379)","(1221, 391)","(1229, 394)","(1238, 397)","(1247, 394)","(1256, 391)","(1185, 335)","(1195, 330)","(1207, 330)","(1219, 336)","(1207, 338)","(1195, 339)","(1267, 335)","(1278, 328)","(1290, 327)","(1301, 331)","(1291, 336)","(1279, 337)","(1207, 424)","(1218, 419)","(1229, 415)","(1238, 418)","(1246, 416)","(1259, 418)","(1274, 423)","(1260, 434)","(1248, 439)","(1238, 440)","(1229, 439)","(1218, 435)","(1212, 424)","(1230, 425)","(1238, 426)","(1247, 425)","(1268, 424)","(1247, 426)","(1238, 427)","(1230, 426)",0.26,0.93,73.0,0.37,-0.02,0.37,0.01,-8.0,0.08,0.32,61.1,80.0,122.6,52.1,64.0,136.2,42.11,57.88,103.23
200,655360,60,-56,-1,-1,0,"(1169, 328)","(1168, 351)","(1170, 374)","(1174, 397)","(1181, 419)","(1192, 438)","(1206, 455)","(1224, 468)","(1245, 473)","(1267, 469)","(1288, 457)","(1308, 441)","(1323, 423)","(1333, 401)","(1338, 377)","(1342, 352)","(1343, 326)","(1175, 309)","(1185, 300)","(1199, 298)","(1214, 300)","(1228, 307)","(1265, 305)","(1280, 297)","(1296, 293)","(1313, 295)","(1326, 304)","(1246, 326)","(1245, 342)","(1244, 358)","(1243, 373)","(1227, 386)","(1235, 389)","(1244, 391)","(1253, 388)","(1263, 385)","(1193, 331)","(1202, 327)","(1214, 326)","(1225, 332)","(1214, 334)","(1202, 335)","(1273, 330)","(1284, 323)","(1296, 323)","(1307, 327)","(1297, 332)","(1285, 332)","(1213, 417)","(1224, 412)","(1235, 409)","(1243, 411)","(1252, 409)","(1264, 412)","(1279, 417)","(1265, 429)","(1253, 433)","(1243, 434)","(1234, 433)","(1224, 429)","(1218, 417)","(1235, 417)","(1244, 418)","(1252, 418)","(1273, 417)","(1252, 420)","(1243, 421)","(1235, 420)",0.26,0.92,73.0,0.38,-0.02,0.37,0.02,-8.0,0.09,0.31,65.3,81.3,126.0,52.45,65.45,137.35,42.82,59.52,103.76
233,720896,60,-56,-1,-1,0,"(1174, 323)","(1174, 346)","(1176, 369)","(1180, 391)","(1187, 413)","(1198, 432)","(1213, 449)","(1230, 462)","(1251, 465)","(1273, 462)","(1293, 449)","(1312, 434)","(1327, 416)","(1337, 395)","(1342, 371)","(1345, 347)","(1346, 322)","(1182, 306)","(1192, 297)","(1206, 295)","(1221, 298)","(1235, 304)","(1269, 303)","(1283, 295)","(1300, 291)","(1317, 292)","(1330, 301)","(1252, 323)","(1251, 339)","(1250, 354)","(1248, 370)","(1233, 381)","(1241, 384)","(1250, 386)","(1259, 384)","(1268, 381)","(1200, 326)","(1209, 322)","(1221, 322)","(1231, 328)","(1220, 330)","(1209, 331)","(1278, 326)","(1289, 319)","(1301, 319)","(1311, 322)","(1302, 328)","(1290, 328)","(1220, 412)","(1231, 406)","(1242, 403)","(1249, 406)","(1258, 403)","(1270, 406)","(1284, 411)","(1271, 422)","(1259, 426)","(1250, 428)","(1241, 427)","(1231, 423)","(1225, 412)","(1242, 412)","(1250, 413)","(1258, 412)","(1278, 412)","(1258, 414)","(1250, 415)","(1242, 414)",0.27,0.91,73.0,0.37,-0.03,0.37,0.02,-8.5,0.09,0.33,58.2,77.4,122.4,51.5,63.75,135.55,42.05,58.52,101.76
266,917504,60,-56,-1,-1,0,"(1180, 320)","(1180, 344)","(1182, 367)","(1186, 388)","(1193, 409)","(1204, 427)","(1219, 443)","(1236, 456)","(1257, 460)","(1278, 456)","(1298, 444)","(1316, 429)","(1330, 412)","(1340, 391)","(1345, 368)","(1348, 344)","(1350, 319)","(1187, 302)","(1197, 294)","(1212, 291)","(1226, 294)","(1241, 300)","(1276, 299)","(1290, 291)","(1305, 288)","(1322, 289)","(1334, 298)","(1258, 319)","(1258, 334)","(1256, 349)","(1256, 365)","(1240, 376)","(1248, 379)","(1257, 381)","(1265, 379)","(1274, 376)","(1206, 322)","(1215, 318)","(1227, 318)","(1237, 324)","(1226, 326)","(1215, 326)","(1283, 322)","(1294, 316)","(1305, 315)","(1316, 319)","(1306, 324)","(1294, 324)","(1226, 405)","(1237, 401)","(1248, 398)","(1256, 401)","(1264, 398)","(1276, 401)","(1289, 405)","(1276, 417)","(1265, 421)","(1256, 422)","(1247, 421)","(1237, 417)","(1231, 406)","(1248, 407)","(1256, 408)","(1265, 407)","(1283, 406)","(1264, 408)","(1256, 409)","(1248, 408)",0.25,0.89,73.0,0.37,-0.02,0.37,0.02,-8.0,0.09,0.32,56.9,74.4,119.9,47.65,59.45,132.5,41.47,58.0,100.11
300,1310720,59,-56,-1,-1,0,"(1185, 315)","(1186, 338)","(1188, 361)","(1192, 382)","(1198, 403)","(1209, 421)","(1224, 436)","(1241, 449)","(1261, 453)","(1282, 450)","(1301, 437)","(1320, 423)","(1335, 405)","(1345, 384)","(1351, 362)","(1355, 338)","(1357, 314)","(1193, 299)","(1204, 291)","(1219, 289)","(1233, 291)","(1247, 297)","(1280, 296)","(1294, 288)","(1310, 285)","(1327, 286)","(1339, 294)","(1263, 315)","(1262, 330)","(1261, 345)","(1260, 360)","(1245, 371)","(1253, 374)","(1261, 376)","(1270, 374)","(1278, 371)","(1211, 318)","(1221, 314)","(1232, 314)","(1243, 320)","(1232, 323)","(1220, 323)","(1288, 319)","(1298, 312)","(1310, 311)","(1320, 315)","(1311, 321)","(1299, 321)","(1231, 400)","(1242, 396)","(1253, 393)","(1261, 395)","(1268, 393)","(1280, 396)","(1293, 400)","(1280, 411)","(1269, 415)","(1260, 416)","(1252, 415)","(1241, 411)","(1236, 401)","(1253, 401)","(1261, 402)","(1269, 401)","(1287, 401)","(1268, 403)","(1260, 404)","(1252, 403)",0.29,0.88,73.0,0.37,-0.03,0.36,0.02,-9.0,0.08,0.32,56.5,75.3,119.5,47.95,60.25,133.4,36.29,52.35,93.52
333,1703936,59,-56,-1,-1,0,"(1191, 312)","(1191, 334)","(1193, 357)","(1197, 378)","(1204, 397)","(1215, 415)","(1229, 431)","(1245, 443)","(1265, 447)","(1285, 444)","(1304, 432)","(1323, 418)","(1338, 401)","(1348, 382)","(1354, 359)","(1358, 336)","(1360, 312)","(1200, 296)","(1211, 288)","(1225, 286)","(1240, 289)","(1253, 295)","(1284, 295)","(1298, 287)","(1314, 283)","(1330, 284)","(1343, 292)","(1269, 312)","(1268, 327)","(1267, 342)","(1265, 357)","(1251, 367)","(1258, 370)","(1266, 372)","(1275, 370)","(1283, 367)","(1219, 315)","(1228, 310)","(1239, 310)","(1249, 316)","(1239, 319)","(1227, 319)","(1292, 315)","(1302, 308)","(1314, 308)","(1324, 312)","(1315, 317)","(1303, 318)","(1237, 395)","(1248, 391)","(1258, 389)","(1265, 391)","(1273, 389)","(1284, 391)","(1297, 395)","(1284, 406)","(1273, 410)","(1265, 411)","(1257, 410)","(1247, 406)","(1242, 396)","(1258, 396)","(1265, 397)","(1273, 397)","(1291, 396)","(1273, 398)","(1265, 399)","(1258, 398)",0.29,0.89,73.0,0.36,-0.03,0.35,0.02,-9.0,0.08,0.33,54.8,72.0,115.5,45.75,57.0,129.45,35.35,51.23,88.7
366,1245184,59,-56,-1,-1,0,"(1194, 309)","(1195, 332)","(1198, 353)","(1203, 374)","(1209, 393)","(1220, 411)","(1234, 426)","(1251, 438)","(1270, 442)","(1289, 438)","(1307, 426)","(1325, 413)","(1340, 397)","(1349, 378)","(1355, 356)","(1359, 334)","(1362, 310)","(1203, 295)","(1214, 287)","(1228, 285)","(1243, 287)","(1257, 293)","(1288, 291)","(1301, 285)","(1316, 282)","(1332, 283)","(1344, 290)","(1272, 309)","(1271, 324)","(1270, 339)","(1269, 353)","(1254, 364)","(1262, 367)","(1270, 369)","(1278, 367)","(1286, 364)","(1221, 312)","(1231, 308)","(1242, 308)","(1252, 314)","(1242, 317)","(1230, 317)","(1295, 313)","(1305, 306)","(1317, 305)","(1327, 309)","(1318, 315)","(1306, 315)","(1240, 392)","(1251, 387)","(1262, 384)","(1269, 386)","(1277, 384)","(1288, 387)","(1300, 391)","(1288, 402)","(1277, 406)","(1269, 407)","(1261, 406)","(1251, 403)","(1245, 392)","(1262, 392)","(1269, 393)","(1277, 392)","(1295, 392)","(1277, 394)","(1269, 395)","(1262, 394)",0.29,0.85,73.0,0.37,-0.02,0.35,0.02,-9.0,0.08,0.33,54.7,72.7,115.7,43.7,56.7,129.2,33.76,48.52,87.64
400,524288,59,-56,-1,-1,0,"(1203, 306)","(1202, 328)","(1204, 349)","(1207, 369)","(1212, 389)","(1222, 407)","(1236, 422)","(1252, 434)","(1271, 437)","(1291, 435)","(1311, 424)","(1329, 411)","(1342, 394)","(1352, 375)","(1357, 354)","(1361, 332)","(1363, 308)","(1210, 293)","(1220, 285)","(1234, 283)","(1248, 286)","(1262, 292)","(1293, 291)","(1308, 284)","(1323, 281)","(1339, 283)","(1351, 291)","(1277, 309)","(1276, 324)","(1274, 337)","(1273, 352)","(1258, 362)","(1266, 365)","(1273, 367)","(1281, 365)","(1290, 363)","(1227, 311)","(1236, 307)","(1247, 307)","(1257, 313)","(1246, 316)","(1235, 316)","(1299, 313)","(1310, 306)","(1321, 306)","(1331, 310)","(1322, 315)","(1311, 315)","(1243, 388)","(1254, 384)","(1265, 382)","(1272, 384)","(1279, 382)","(1290, 385)","(1302, 390)","(1290, 400)","(1279, 403)","(1271, 404)","(1263, 403)","(1253, 398)","(1249, 389)","(1265, 390)","(1272, 391)","(1279, 390)","(1297, 390)","(1279, 391)","(1271, 392)","(1264, 391)",0.28,0.87,72.0,0.38,-0.0,0.36,0.01,-9.0,0.08,0.33,53.6,70.4,113.3,43.15,55.25,129.65,34.94,51.41,89.17
433,131072,59,-56,-1,-1,0,"(1207, 306)","(1206, 327)","(1208, 347)","(1211, 368)","(1217, 386)","(1227, 404)","(1240, 418)","(1256, 430)","(1274, 434)","(1293, 431)","(1310, 420)","(1327, 407)","(1341, 391)","(1350, 373)","(1355, 352)","(1358, 331)","(1359, 309)","(1217, 292)","(1226, 285)","(1240, 283)","(1253, 286)","(1265, 292)","(1294, 291)","(1306, 284)","(1320, 281)","(1335, 282)","(1346, 289)","(1279, 307)","(1278, 321)","(1277, 336)","(1276, 350)","(1261, 359)","(1268, 362)","(1276, 364)","(1284, 362)","(1292, 360)","(1232, 309)","(1241, 304)","(1251, 304)","(1261, 311)","(1251, 313)","(1240, 313)","(1300, 310)","(1310, 303)","(1320, 303)","(1329, 307)","(1321, 312)","(1310, 312)","(1247, 386)","(1258, 382)","(1268, 379)","(1275, 381)","(1282, 379)","(1293, 382)","(1305, 386)","(1293, 396)","(1282, 400)","(1274, 401)","(1267, 400)","(1257, 396)","(1252, 386)","(1268, 387)","(1275, 388)","(1282, 387)","(1300, 387)","(1282, 388)","(1275, 389)","(1267, 388)",0.3,0.87,72.0,0.38,-0.01,0.38,0.01,-9.0,0.08,0.33,53.7,72.7,118.3,40.75,53.75,126.15,37.88,52.7,94.29
466,131072,59,-56,-1,-1,0,"(1211, 305)","(1210, 325)","(1212, 346)","(1215, 366)","(1221, 385)","(1230, 402)","(1243, 417)","(1259, 428)","(1277, 432)","(1296, 429)","(1314, 417)","(1330, 404)","(1343, 388)","(1351, 370)","(1356, 350)","(1359, 329)","(1360, 308)","(1218, 293)","(1228, 286)","(1242, 284)","(1255, 286)","(1268, 292)","(1296, 292)","(1308, 286)","(1322, 282)","(1336, 283)","(1347, 291)","(1282, 308)","(1281, 322)","(1279, 336)","(1278, 351)","(1264, 359)","(1271, 362)","(1279, 364)","(1287, 362)","(1294, 359)","(1235, 309)","(1243, 305)","(1254, 305)","(1263, 311)","(1253, 313)","(1243, 313)","(1302, 311)","(1312, 304)","(1322, 304)","(1331, 307)","(1323, 312)","(1313, 312)","(1250, 384)","(1260, 381)","(1270, 378)","(1277, 380)","(1285, 379)","(1295, 381)","(1307, 384)","(1295, 394)","(1285, 398)","(1277, 399)","(1269, 398)","(1260, 394)","(1254, 384)","(1270, 386)","(1277, 387)","(1285, 386)","(1302, 385)","(1285, 387)","(1277, 388)","(1270, 387)",0.27,0.87,72.0,0.38,-0.01,0.38,0.01,-8.0,0.08,0.34,52.5,70.4,114.4,38.65,49.95,124.0,37.47,53.05,94.7
500,65536,59,-56,-1,-1,0,"(1213, 305)","(1213, 325)","(1215, 346)","(1218, 365)","(1223, 383)","(1233, 400)","(1246, 415)","(1261, 426)","(1279, 429)","(1298, 426)","(1314, 415)","(1330, 403)","(1343, 387)","(1351, 370)","(1356, 350)","(1359, 329)","(1360, 308)","(1221, 292)","(1231, 285)","(1244, 284)","(1258, 286)","(1270, 292)","(1297, 292)","(1310, 286)","(1323, 282)","(1338, 283)","(1348, 291)","(1283, 308)","(1282, 322)","(1281, 336)","(1280, 350)","(1265, 358)","(1273, 361)","(1280, 363)","(1288, 361)","(1296, 358)","(1237, 308)","(1245, 304)","(1256, 304)","(1265, 311)","(1255, 313)","(1245, 313)","(1303, 311)","(1313, 304)","(1323, 303)","(1332, 307)","(1324, 312)","(1314, 312)","(1251, 383)","(1262, 379)","(1272, 377)","(1279, 379)","(1286, 377)","(1296, 379)","(1308, 383)","(1297, 393)","(1287, 397)","(1279, 398)","(1271, 397)","(1261, 393)","(1256, 383)","(1272, 384)","(1279, 385)","(1286, 384)","(1303, 384)","(1286, 386)","(1279, 387)","(1272, 386)",0.29,0.85,72.0,0.39,-0.0,0.38,0.02,-8.5,0.08,0.34,54.4,73.4,118.6,39.35,50.7,124.1,36.23,52.11,94.29
533,0,59,-56,-1,-1,0,"(1217, 306)","(1216, 326)","(1218, 346)","(1221, 365)","(1226, 383)","(1236, 399)","(1248, 414)","(1263, 425)","(1281, 429)","(1299, 426)","(1315, 415)","(1331, 402)","(1343, 387)","(1352, 370)","(1356, 350)","(1359, 330)","(1361, 310)","(1224, 293)","(1234, 286)","(1246, 285)","(1259, 287)","(1271, 293)","(1299, 293)","(1311, 287)","(1324, 284)","(1338, 285)","(1348, 293)","(1285, 309)","(1284, 323)","(1283, 337)","(1282, 351)","(1268, 359)","(1275, 361)","(1282, 364)","(1290, 362)","(1297, 359)","(1240, 309)","(1248, 304)","(1258, 305)","(1267, 312)","(1258, 313)","(1247, 313)","(1304, 312)","(1313, 305)","(1324, 304)","(1332, 309)","(1325, 313)","(1314, 313)","(1253, 382)","(1264, 379)","(1274, 377)","(1281, 379)","(1288, 377)","(1298, 380)","(1309, 383)","(1298, 392)","(1288, 396)","(1281, 397)","(1273, 396)","(1263, 392)","(1258, 383)","(1274, 384)","(1281, 385)","(1288, 384)","(1304, 384)","(1288, 386)","(1281, 387)","(1274, 386)",0.3,0.83,72.0,0.38,0.0,0.38,0.02,-8.5,0.08,0.35,55.7,74.5,117.9,36.45,47.05,121.8,37.41,53.76,96.0
566,0,59,-56,-1,-1,0,"(1218, 307)","(1218, 328)","(1220, 347)","(1223, 366)","(1228, 383)","(1238, 400)","(1250, 414)","(1265, 425)","(1282, 428)","(1300, 425)","(1316, 415)","(1332, 402)","(1344, 387)","(1352, 370)","(1356, 351)","(1359, 331)","(1361, 310)","(1225, 297)","(1234, 290)","(1247, 288)","(1260, 290)","(1272, 296)","(1301, 295)","(1312, 289)","(1326, 286)","(1339, 287)","(1349, 294)","(1286, 311)","(1285, 325)","(1284, 338)","(1283, 352)","(1269, 360)","(1276, 362)","(1283, 365)","(1291, 362)","(1298, 360)","(1241, 312)","(1250, 309)","(1259, 309)","(1268, 314)","(1259, 316)","(1249, 316)","(1306, 313)","(1315, 307)","(1325, 307)","(1333, 310)","(1326, 315)","(1316, 315)","(1256, 383)","(1266, 380)","(1275, 378)","(1282, 380)","(1289, 378)","(1299, 380)","(1310, 384)","(1299, 393)","(1290, 397)","(1282, 398)","(1274, 397)","(1265, 394)","(1260, 384)","(1275, 385)","(1282, 386)","(1289, 385)","(1305, 384)","(1289, 387)","(1282, 388)","(1275, 387)",0.29,0.87,72.0,0.37,-0.02,0.37,0.02,-7.5,0.08,0.35,54.7,73.6,117.7,39.35,48.55,123.8,37.94,53.47,96.7
600,-65536,59,-56,-1,-1,0,"(1221, 309)","(1221, 329)","(1222, 348)","(1225, 366)","(1230, 384)","(1239, 401)","(1251, 415)","(1266, 426)","(1283, 429)","(1301, 426)","(1317, 415)","(1332, 403)","(1344, 388)","(1351, 371)","(1355, 352)","(1358, 332)","(1360, 312)","(1227, 299)","(1236, 292)","(1249, 291)","(1261, 294)","(1273, 299)","(1301, 298)","(1313, 292)","(1326, 289)","(1339, 290)","(1349, 297)","(1287, 314)","(1286, 327)","(1285, 341)","(1284, 355)","(1270, 362)","(1277, 364)","(1285, 367)","(1292, 365)","(1299, 362)","(1243, 314)","(1251, 311)","(1261, 311)","(1269, 317)","(1260, 318)","(1250, 318)","(1306, 316)","(1316, 310)","(1325, 309)","(1333, 313)","(1326, 317)","(1316, 318)","(1257, 384)","(1267, 381)","(1276, 380)","(1283, 382)","(1290, 380)","(1300, 382)","(1311, 385)","(1300, 394)","(1291, 398)","(1283, 399)","(1275, 398)","(1266, 394)","(1261, 385)","(1276, 386)","(1283, 387)","(1290, 386)","(1306, 386)","(1290, 388)","(1283, 389)","(1276, 388)",0.29,0.88,72.0,0.38,-0.01,0.38,0.02,-7.0,0.08,0.35,52.5,72.1,116.3,37.3,48.65,122.0,39.0,54.88,96.82
633,-131072,59,-56,-1,-1,0,"(1223, 312)","(1222, 331)","(1224, 350)","(1226, 368)","(1231, 385)","(1240, 402)","(1252, 416)","(1267, 427)","(1285, 430)","(1303, 427)","(1320, 416)","(1334, 403)","(1346, 387)","(1352, 370)","(1356, 351)","(1359, 332)","(1360, 312)","(1228, 302)","(1237, 296)","(1249, 295)","(1261, 298)","(1273, 303)","(1302, 302)","(1313, 296)","(1326, 293)","(1340, 293)","(1350, 300)","(1287, 317)","(1286, 331)","(1285, 344)","(1285, 358)","(1271, 364)","(1278, 367)","(1285, 369)","(1293, 367)","(1300, 364)","(1243, 317)","(1252, 314)","(1261, 314)","(1270, 319)","(1261, 321)","(1251, 321)","(1307, 319)","(1316, 313)","(1326, 312)","(1334, 316)","(1327, 320)","(1317, 321)","(1259, 386)","(1269, 383)","(1278, 382)","(1285, 384)","(1292, 382)","(1302, 383)","(1313, 386)","(1302, 395)","(1293, 399)","(1285, 400)","(1278, 399)","(1268, 396)","(1263, 386)","(1278, 388)","(1285, 389)","(1292, 389)","(1308, 387)","(1292, 389)","(1285, 390)","(1278, 389)",0.29,0.87,72.0,0.39,-0.0,0.39,0.02,-7.0,0.09,0.36,48.9,68.4,114.3,33.85,45.4,118.5,39.29,54.64,94.29
666,-131072,59,-56,-1,-1,0,"(1222, 317)","(1222, 336)","(1223, 355)","(1226, 373)","(1231, 391)","(1240, 407)","(1252, 422)","(1267, 432)","(1286, 435)","(1304, 432)","(1319, 421)","(1333, 407)","(1344, 392)","(1351, 374)","(1354, 356)","(1357, 336)","(1357, 317)","(1228, 307)","(1237, 301)","(1249, 299)","(1261, 302)","(1273, 307)","(1301, 306)","(1313, 300)","(1325, 296)","(1338, 297)","(1347, 304)","(1287, 321)","(1287, 334)","(1286, 347)","(1286, 360)","(1271, 367)","(1278, 370)","(1286, 372)","(1294, 370)","(1301, 367)","(1244, 322)","(1252, 320)","(1261, 320)","(1270, 323)","(1261, 325)","(1252, 326)","(1306, 322)","(1315, 318)","(1324, 318)","(1332, 320)","(1325, 324)","(1316, 324)","(1258, 388)","(1268, 386)","(1278, 385)","(1285, 387)","(1292, 385)","(1302, 386)","(1313, 388)","(1302, 398)","(1293, 402)","(1285, 403)","(1277, 402)","(1268, 398)","(1263, 389)","(1278, 391)","(1285, 392)","(1292, 391)","(1308, 389)","(1293, 393)","(1285, 394)","(1278, 393)",0.23,0.86,72.0,0.38,-0.02,0.4,0.02,-5.5,0.1,0.34,50.0,68.9,114.6,37.85,50.0,121.4,36.88,53.82,91.35
700,-131072,59,-56,-1,-1,0,"(1227, 321)","(1226, 339)","(1227, 358)","(1229, 376)","(1234, 393)","(1242, 410)","(1254, 425)","(1268, 436)","(1286, 440)","(1305, 437)","(1321, 426)","(1335, 412)","(1346, 396)","(1353, 378)","(1357, 360)","(1358, 340)","(1359, 320)","(1232, 312)","(1240, 305)","(1251, 303)","(1263, 306)","(1274, 311)","(1301, 310)","(1313, 303)","(1326, 300)","(1338, 301)","(1347, 308)","(1287, 325)","(1287, 338)","(1286, 350)","(1286, 363)","(1272, 370)","(1279, 373)","(1286, 376)","(1294, 373)","(1301, 370)","(1247, 328)","(1254, 326)","(1262, 326)","(1271, 328)","(1263, 331)","(1254, 331)","(1306, 327)","(1315, 324)","(1324, 324)","(1332, 326)","(1324, 329)","(1315, 329)","(1259, 391)","(1269, 389)","(1278, 388)","(1285, 389)","(1293, 388)","(1303, 389)","(1314, 391)","(1303, 402)","(1293, 406)","(1285, 407)","(1277, 406)","(1268, 402)","(1264, 392)","(1278, 393)","(1285, 394)","(1293, 393)","(1309, 392)","(1293, 397)","(1285, 398)","(1278, 397)",0.19,0.88,72.0,0.37,-0.03,0.41,0.03,-5.0,0.1,0.33,50.0,68.7,115.0,40.5,54.35,123.55,40.52,57.41,94.58
733,-131072,59,-56,-1,-1,0,"(1225, 326)","(1226, 344)","(1227, 362)","(1231, 380)","(1236, 396)","(1246, 411)","(1258, 424)","(1272, 434)","(1289, 437)","(1306, 434)","(1321, 424)","(1335, 412)","(1346, 397)","(1354, 381)","(1358, 363)","(1360, 343)","(1360, 324)","(1233, 315)","(1241, 309)","(1252, 307)","(1263, 310)","(1274, 315)","(1302, 313)","(1313, 307)","(1325, 304)","(1337, 304)","(1347, 310)","(1288, 329)","(1288, 342)","(1287, 354)","(1287, 366)","(1274, 374)","(1280, 376)","(1287, 378)","(1294, 376)","(1301, 373)","(1248, 332)","(1256, 330)","(1264, 330)","(1272, 333)","(1264, 335)","(1256, 335)","(1307, 331)","(1315, 328)","(1324, 328)","(1332, 329)","(1324, 333)","(1315, 333)","(1263, 394)","(1272, 391)","(1281, 389)","(1287, 391)","(1294, 389)","(1303, 390)","(1313, 393)","(1303, 404)","(1294, 408)","(1287, 409)","(1280, 408)","(1272, 404)","(1267, 395)","(1281, 396)","(1287, 396)","(1294, 395)","(1308, 394)","(1294, 398)","(1287, 399)","(1281, 398)",0.19,0.86,72.0,0.36,-0.03,0.37,0.02,-5.0,0.09,0.34,46.6,64.8,110.1,38.9,51.4,121.95,39.7,56.23,95.52
766,-196608,59,-56,-1,-1,0,"(1227, 326)","(1227, 345)","(1228, 363)","(1231, 381)","(1236, 398)","(1246, 414)","(1257, 428)","(1271, 440)","(1289, 443)","(1307, 440)","(1323, 430)","(1337, 416)","(1349, 401)","(1356, 384)","(1359, 365)","(1361, 346)","(1362, 326)","(1234, 317)","(1241, 311)","(1252, 310)","(1263, 312)","(1274, 317)","(1301, 316)","(1313, 310)","(1325, 307)","(1338, 308)","(1348, 314)","(1288, 332)","(1288, 344)","(1287, 356)","(1286, 369)","(1274, 375)","(1280, 378)","(1287, 380)","(1294, 378)","(1301, 375)","(1249, 334)","(1256, 332)","(1265, 332)","(1273, 335)","(1264, 337)","(1256, 337)","(1307, 334)","(1315, 331)","(1324, 331)","(1332, 332)","(1324, 336)","(1316, 336)","(1262, 396)","(1271, 393)","(1280, 392)","(1286, 393)","(1293, 392)","(1303, 393)","(1313, 396)","(1303, 406)","(1294, 410)","(1287, 411)","(1280, 410)","(1271, 406)","(1267, 396)","(1280, 398)","(1286, 398)","(1293, 398)","(1308, 396)","(1294, 401)","(1287, 402)","(1280, 401)",0.2,0.9,72.0,0.36,-0.02,0.37,0.02,-5.0,0.09,0.33,51.5,69.2,114.7,39.55,52.25,121.65,43.82,62.11,100.23
800,-65536,59,-56,-1,-1,0,"(1228, 329)","(1228, 347)","(1229, 365)","(1232, 383)","(1237, 400)","(1245, 416)","(1257, 430)","(1272, 441)","(1290, 444)","(1308, 442)","(1324, 431)","(1339, 419)","(1350, 403)","(1356, 386)","(1359, 367)","(1361, 348)","(1362, 328)","(1233, 321)","(1241, 315)","(1252, 313)","(1264, 316)","(1275, 321)","(1302, 319)","(1314, 313)","(1327, 309)","(1341, 311)","(1350, 318)","(1288, 334)","(1288, 347)","(1287, 359)","(1287, 371)","(1274, 378)","(1281, 381)","(1288, 383)","(1295, 380)","(1302, 378)","(1248, 336)","(1256, 334)","(1265, 333)","(1273, 337)","(1265, 340)","(1256, 340)","(1308, 336)","(1317, 332)","(1326, 332)","(1334, 334)","(1326, 338)","(1317, 338)","(1264, 398)","(1272, 395)","(1281, 394)","(1287, 395)","(1294, 393)","(1304, 394)","(1314, 397)","(1305, 407)","(1295, 411)","(1287, 412)","(1280, 411)","(1272, 408)","(1268, 399)","(1281, 399)","(1287, 400)","(1294, 399)","(1310, 398)","(1295, 402)","(1287, 403)","(1281, 403)",0.23,0.93,72.0,0.38,-0.01,0.37,0.02,-6.0,0.1,0.33,48.2,65.9,112.9,40.4,52.0,122.45,43.29,61.47,99.52
833,-131072,59,-56,-1,-1,0,"(1228, 331)","(1228, 349)","(1229, 367)","(1231, 385)","(1236, 402)","(1245, 418)","(1257, 431)","(1272, 442)","(1290, 445)","(1308, 442)","(1324, 432)","(1339, 419)","(1350, 404)","(1357, 387)","(1360, 369)","(1361, 350)","(1362, 331)","(1233, 323)","(1240, 316)","(1252, 315)","(1264, 317)","(1275, 323)","(1302, 322)","(1315, 315)","(1327, 312)","(1341, 313)","(1351, 320)","(1289, 336)","(1288, 349)","(1287, 361)","(1287, 373)","(1274, 380)","(1281, 382)","(1287, 384)","(1295, 382)","(1302, 380)","(1248, 337)","(1256, 335)","(1264, 335)","(1273, 338)","(1264, 341)","(1255, 341)","(1308, 337)","(1317, 334)","(1326, 333)","(1334, 335)","(1327, 339)","(1318, 339)","(1263, 400)","(1272, 397)","(1280, 396)","(1287, 398)","(1294, 396)","(1303, 397)","(1314, 399)","(1304, 408)","(1295, 412)","(1287, 413)","(1280, 412)","(1272, 409)","(1267, 400)","(1280, 402)","(1287, 402)","(1294, 401)","(1309, 399)","(1294, 403)","(1287, 404)","(1280, 403)",0.21,0.89,72.0,0.38,-0.02,0.38,0.02,-5.5,0.09,0.33,52.1,70.1,115.8,36.15,48.1,120.15,42.41,61.64,99.7
866,-196608,59,-56,-1,-1,0,"(1227, 332)","(1228, 350)","(1230, 368)","(1232, 385)","(1237, 401)","(1247, 417)","(1258, 431)","(1273, 441)","(1291, 444)","(1309, 441)","(1324, 431)","(1338, 418)","(1349, 403)","(1355, 385)","(1358, 368)","(1360, 349)","(1360, 330)","(1233, 325)","(1240, 319)","(1252, 318)","(1264, 320)","(1275, 325)","(1302, 323)","(1313, 317)","(1326, 314)","(1339, 314)","(1349, 320)","(1289, 338)","(1288, 350)","(1288, 363)","(1287, 375)","(1274, 381)","(1281, 384)","(1288, 386)","(1296, 384)","(1303, 381)","(1248, 339)","(1256, 337)","(1264, 337)","(1272, 340)","(1264, 342)","(1255, 342)","(1308, 338)","(1316, 335)","(1325, 334)","(1333, 336)","(1326, 339)","(1317, 339)","(1263, 400)","(1272, 398)","(1281, 397)","(1288, 399)","(1295, 397)","(1304, 397)","(1315, 399)","(1305, 408)","(1295, 413)","(1288, 414)","(1280, 413)","(1272, 409)","(1267, 400)","(1281, 403)","(1288, 403)","(1295, 402)","(1311, 400)","(1295, 404)","(1288, 405)","(1281, 404)",0.18,0.87,72.0,0.36,-0.03,0.39,0.02,-4.5,0.1,0.34,46.6,65.6,112.4,33.9,45.65,116.2,40.35,59.35,98.05
900,2752512,59,-56,-1,-1,0,"(1228, 329)","(1228, 347)","(1229, 365)","(1232, 383)","(1237, 400)","(1245, 416)","(1257, 430)","(1272, 441)","(1289, 444)","(1307, 441)","(1322, 430)","(1336, 417)","(1347, 402)","(1355, 385)","(1358, 367)","(1360, 349)","(1360, 329)","(1234, 325)","(1242, 319)","(1253, 318)","(1265, 320)","(1277, 325)","(1303, 324)","(1314, 318)","(1327, 315)","(1340, 315)","(1349, 321)","(1290, 338)","(1289, 351)","(1288, 363)","(1288, 376)","(1274, 381)","(1281, 385)","(1288, 387)","(1296, 385)","(1303, 381)","(1249, 338)","(1256, 337)","(1265, 336)","(1273, 339)","(1265, 341)","(1256, 341)","(1309, 338)","(1317, 335)","(1326, 335)","(1334, 336)","(1327, 340)","(1318, 340)","(1263, 400)","(1272, 399)","(1281, 398)","(1287, 400)","(1294, 398)","(1303, 398)","(1314, 400)","(1304, 409)","(1295, 413)","(1288, 414)","(1280, 413)","(1272, 410)","(1267, 401)","(1281, 403)","(1288, 404)","(1294, 403)","(1309, 401)","(1294, 405)","(1287, 406)","(1281, 405)",0.2,0.88,72.0,0.37,-0.03,0.38,0.02,-4.5,0.09,0.35,49.8,68.6,114.2,33.2,42.9,115.9,41.05,58.52,95.52
933,-1507328,59,-56,-1,-1,0,"(1229, 332)","(1229, 350)","(1230, 367)","(1232, 384)","(1237, 401)","(1246, 417)","(1258, 431)","(1272, 442)","(1290, 445)","(1309, 442)","(1325, 431)","(1339, 419)","(1350, 403)","(1357, 386)","(1360, 369)","(1361, 350)","(1361, 331)","(1235, 326)","(1243, 320)","(1255, 318)","(1266, 320)","(1278, 326)","(1304, 324)","(1315, 318)","(1328, 315)","(1340, 316)","(1350, 321)","(1291, 338)","(1290, 350)","(1290, 362)","(1289, 375)","(1276, 381)","(1283, 384)","(1290, 386)","(1297, 384)","(1304, 381)","(1250, 339)","(1258, 336)","(1266, 336)","(1275, 339)","(1266, 341)","(1257, 342)","(1309, 338)","(1318, 334)","(1327, 334)","(1335, 336)","(1327, 339)","(1319, 340)","(1264, 400)","(1273, 398)","(1282, 398)","(1289, 399)","(1296, 397)","(1305, 398)","(1316, 399)","(1306, 408)","(1297, 413)","(1289, 414)","(1282, 413)","(1273, 409)","(1268, 400)","(1282, 403)","(1289, 404)","(1296, 403)","(1312, 400)","(1296, 404)","(1289, 405)","(1282, 404)",0.21,0.87,72.0,0.38,-0.03,0.39,0.01,-5.0,0.09,0.34,51.0,68.4,112.9,30.55,41.3,114.8,40.0,59.11,96.29
966,-131072,59,-56,-1,-1,0,"(1228, 331)","(1228, 350)","(1229, 368)","(1231, 385)","(1236, 402)","(1246, 418)","(1258, 431)","(1273, 442)","(1291, 445)","(1309, 441)","(1325, 431)","(1339, 419)","(1350, 404)","(1357, 387)","(1360, 368)","(1361, 350)","(1361, 330)","(1234, 326)","(1242, 320)","(1254, 318)","(1266, 320)","(1278, 325)","(1304, 323)","(1316, 317)","(1328, 314)","(1340, 315)","(1350, 320)","(1291, 337)","(1291, 349)","(1291, 360)","(1291, 372)","(1277, 380)","(1284, 383)","(1291, 385)","(1298, 383)","(1305, 379)","(1250, 338)","(1257, 336)","(1266, 336)","(1275, 339)","(1266, 341)","(1257, 341)","(1310, 337)","(1318, 333)","(1327, 333)","(1335, 335)","(1328, 338)","(1319, 339)","(1264, 400)","(1274, 398)","(1284, 397)","(1290, 399)","(1297, 397)","(1307, 398)","(1317, 399)","(1307, 409)","(1297, 413)","(1290, 414)","(1283, 413)","(1274, 409)","(1269, 400)","(1284, 402)","(1290, 403)","(1297, 402)","(1313, 400)","(1297, 404)","(1290, 405)","(1283, 405)",0.22,0.85,72.0,0.37,-0.04,0.39,0.02,-5.0,0.1,0.32,53.9,70.9,114.9,34.95,45.75,118.35,38.52,56.29,93.0
1000,0,59,-56,-1,-1,0,"(1228, 331)","(1227, 350)","(1229, 368)","(1232, 386)","(1237, 403)","(1246, 419)","(1258, 433)","(1273, 444)","(1292, 447)","(1311, 443)","(1327, 432)","(1341, 419)","(1352, 404)","(1358, 387)","(1361, 368)","(1362, 350)","(1362, 330)","(1235, 325)","(1243, 319)","(1254, 318)","(1267, 319)","(1279, 324)","(1305, 323)","(1317, 317)","(1329, 314)","(1342, 314)","(1352, 320)","(1292, 337)","(1292, 349)","(1291, 361)","(1291, 374)","(1277, 380)","(1284, 383)","(1291, 386)","(1299, 383)","(1306, 380)","(1250, 338)","(1258, 334)","(1267, 334)","(1276, 338)","(1267, 340)","(1258, 341)","(1310, 337)","(1319, 332)","(1328, 332)","(1336, 334)","(1329, 338)","(1320, 338)","(1265, 400)","(1275, 398)","(1284, 397)","(1291, 399)","(1298, 397)","(1307, 397)","(1318, 399)","(1308, 408)","(1298, 412)","(1291, 413)","(1284, 413)","(1274, 409)","(1269, 400)","(1284, 402)","(1291, 403)","(1298, 402)","(1313, 399)","(1298, 404)","(1291, 405)","(1284, 404)",0.23,0.85,72.0,0.38,-0.04,0.39,0.02,-6.0,0.1,0.33,52.1,70.6,113.2,35.35,46.05,117.15,39.41,57.47,92.7
1033,0,59,-56,-1,-1,0,"(1227, 330)","(1227, 349)","(1229, 367)","(1231, 384)","(1236, 401)","(1245, 418)","(1258, 431)","(1273, 442)","(1291, 445)","(1309, 442)","(1325, 431)","(1339, 418)","(1349, 403)","(1356, 386)","(1359, 368)","(1361, 349)","(1361, 330)","(1234, 324)","(1243, 318)","(1255, 316)","(1267, 319)","(1279, 324)","(1305, 323)","(1317, 316)","(1330, 313)","(1342, 314)","(1351, 320)","(1292, 336)","(1292, 349)","(1291, 361)","(1291, 374)","(1277, 380)","(1284, 383)","(1291, 385)","(1298, 383)","(1305, 380)","(1250, 336)","(1258, 333)","(1267, 333)","(1275, 338)","(1266, 340)","(1257, 340)","(1310, 336)","(1319, 331)","(1328, 331)","(1336, 334)","(1329, 338)","(1320, 338)","(1264, 399)","(1274, 398)","(1283, 397)","(1290, 399)","(1297, 397)","(1306, 398)","(1317, 399)","(1306, 408)","(1297, 412)","(1290, 413)","(1282, 412)","(1273, 408)","(1269, 400)","(1283, 402)","(1290, 403)","(1297, 402)","(1312, 400)","(1297, 403)","(1290, 404)","(1283, 403)",0.27,0.84,72.0,0.38,-0.03,0.39,0.02,-7.0,0.09,0.34,54.7,71.2,115.6,30.65,40.5,114.45,40.35,57.58,93.23
1066,131072,59,-56,-1,-1,0,"(1227, 330)","(1227, 349)","(1228, 367)","(1231, 385)","(1236, 402)","(1245, 418)","(1257, 432)","(1272, 442)","(1290, 445)","(1308, 442)","(1324, 432)","(1338, 419)","(1349, 403)","(1355, 386)","(1359, 368)","(1361, 349)","(1361, 330)","(1235, 323)","(1243, 317)","(1255, 316)","(1267, 318)","(1279, 323)","(1306, 322)","(1317, 316)","(1329, 313)","(1341, 313)","(1351, 319)","(1292, 336)","(1292, 349)","(1292, 361)","(1292, 374)","(1278, 380)","(1284, 383)","(1292, 385)","(1299, 383)","(1305, 380)","(1251, 336)","(1259, 333)","(1267, 333)","(1276, 337)","(1267, 339)","(1258, 339)","(1310, 336)","(1319, 332)","(1327, 331)","(1335, 333)","(1328, 338)","(1319, 338)","(1266, 399)","(1275, 397)","(1284, 397)","(1291, 398)","(1297, 397)","(1306, 398)","(1315, 400)","(1306, 408)","(1297, 412)","(1290, 413)","(1283, 412)","(1274, 408)","(1270, 400)","(1284, 402)","(1291, 403)","(1297, 402)","(1311, 400)","(1296, 403)","(1290, 404)","(1283, 403)",0.25,0.84,72.0,0.37,-0.03,0.36,0.01,-6.0,0.09,0.34,50.0,68.3,113.3,32.3,40.9,115.5,40.35,57.94,93.05
1100,458752,60,-56,-1,-1,0,"(1228, 329)","(1228, 348)","(1230, 366)","(1232, 384)","(1238, 402)","(1247, 418)","(1259, 431)","(1275, 441)","(1293, 444)","(1311, 441)","(1327, 430)","(1341, 417)","(1351, 402)","(1358, 385)","(1361, 367)","(1363, 348)","(1363, 328)","(1235, 322)","(1244, 316)","(1255, 315)","(1268, 317)","(1280, 322)","(1306, 321)","(1318, 315)","(1330, 312)","(1343, 312)","(1353, 318)","(1292, 335)","(1292, 348)","(1292, 360)","(1291, 372)","(1278, 379)","(1285, 382)","(1292, 384)","(1299, 382)","(1306, 379)","(1251, 335)","(1258, 332)","(1267, 332)","(1276, 336)","(1267, 338)","(1258, 338)","(1311, 335)","(1319, 330)","(1328, 329)","(1336, 332)","(1329, 336)","(1320, 337)","(1266, 399)","(1276, 397)","(1285, 396)","(1291, 398)","(1298, 396)","(1307, 397)","(1317, 399)","(1307, 407)","(1298, 411)","(1291, 412)","(1284, 411)","(1275, 408)","(1271, 399)","(1285, 401)","(1291, 402)","(1298, 401)","(1312, 399)","(1297, 402)","(1291, 403)","(1284, 402)",0.28,0.83,72.0,0.37,-0.03,0.37,0.02,-6.0,0.1,0.33,53.0,69.4,114.7,31.75,41.35,114.15,40.17,59.05,95.35
1133,851968,60,-56,-1,-1,0,"(1228, 329)","(1227, 348)","(1229, 366)","(1231, 385)","(1236, 403)","(1245, 419)","(1258, 433)","(1273, 443)","(1292, 446)","(1311, 443)","(1327, 433)","(1341, 419)","(1352, 403)","(1358, 386)","(1361, 367)","(1363, 348)","(1363, 328)","(1234, 322)","(1243, 316)","(1255, 315)","(1268, 317)","(1280, 322)","(1307, 321)","(1319, 314)","(1332, 311)","(1345, 312)","(1354, 319)","(1293, 335)","(1293, 347)","(1292, 359)","(1292, 372)","(1278, 379)","(1285, 382)","(1292, 384)","(1300, 382)","(1306, 379)","(1250, 335)","(1258, 331)","(1267, 331)","(1276, 336)","(1267, 338)","(1257, 338)","(1312, 335)","(1321, 329)","(1330, 329)","(1338, 332)","(1331, 336)","(1321, 336)","(1265, 400)","(1275, 397)","(1284, 396)","(1291, 398)","(1298, 396)","(1307, 397)","(1317, 399)","(1307, 408)","(1298, 411)","(1291, 412)","(1284, 412)","(1274, 408)","(1269, 400)","(1284, 402)","(1291, 403)","(1298, 402)","(1312, 399)","(1298, 403)","(1291, 404)","(1284, 403)",0.26,0.83,72.0,0.38,-0.02,0.38,0.01,-7.0,0.09,0.33,49.7,67.0,111.0,34.0,45.75,118.15,42.23,60.82,95.76
1166,983040,60,-56,-1,-1,0,"(1224, 335)","(1224, 354)","(1225, 372)","(1228, 389)","(1234, 406)","(1244, 422)","(1257, 434)","(1272, 444)","(1290, 447)","(1308, 443)","(1322, 432)","(1335, 419)","(1346, 404)","(1352, 388)","(1355, 370)","(1357, 352)","(1357, 333)","(1233, 321)","(1242, 315)","(1254, 313)","(1266, 315)","(1278, 321)","(1305, 320)","(1316, 314)","(1327, 311)","(1340, 312)","(1348, 319)","(1292, 334)","(1291, 346)","(1291, 359)","(1291, 371)","(1277, 378)","(1284, 381)","(1291, 383)","(1298, 381)","(1304, 379)","(1249, 334)","(1257, 331)","(1266, 331)","(1274, 336)","(1266, 338)","(1257, 338)","(1309, 335)","(1317, 330)","(1326, 329)","(1334, 333)","(1327, 337)","(1318, 337)","(1264, 399)","(1274, 397)","(1283, 395)","(1290, 397)","(1297, 395)","(1306, 397)","(1316, 399)","(1306, 408)","(1297, 412)","(1290, 413)","(1283, 412)","(1274, 409)","(1268, 400)","(1284, 401)","(1290, 402)","(1297, 401)","(1311, 400)","(1297, 403)","(1290, 404)","(1283, 403)",0.3,0.83,72.0,0.37,-0.01,0.39,0.02,-7.0,0.09,0.32,56.1,75.9,119.7,35.6,47.1,119.45,44.41,63.47,100.76
1200,0,60,-56,-1,-1,0,"(1226, 329)","(1225, 348)","(1227, 367)","(1229, 384)","(1235, 402)","(1244, 418)","(1256, 431)","(1271, 442)","(1289, 444)","(1306, 441)","(1321, 430)","(1335, 417)","(1346, 402)","(1353, 386)","(1356, 368)","(1358, 350)","(1359, 331)","(1232, 321)","(1241, 315)","(1254, 314)","(1266, 317)","(1279, 322)","(1306, 321)","(1317, 315)","(1329, 311)","(1342, 311)","(1350, 317)","(1292, 335)","(1292, 348)","(1291, 361)","(1291, 374)","(1276, 380)","(1283, 383)","(1291, 386)","(1298, 383)","(1305, 380)","(1249, 335)","(1257, 332)","(1266, 332)","(1274, 336)","(1265, 338)","(1256, 338)","(1310, 335)","(1319, 330)","(1328, 329)","(1336, 332)","(1329, 337)","(1320, 337)","(1263, 400)","(1273, 398)","(1283, 397)","(1289, 399)","(1296, 397)","(1306, 398)","(1316, 399)","(1306, 409)","(1297, 413)","(1290, 414)","(1283, 414)","(1273, 410)","(1268, 400)","(1283, 403)","(1290, 404)","(1297, 403)","(1312, 400)","(1296, 404)","(1290, 405)","(1283, 404)",0.28,0.85,72.0,0.38,-0.03,0.39,0.01,-6.5,0.09,0.35,50.0,67.8,113.3,34.0,44.6,116.75,44.23,62.7,103.76
1233,-262144,60,-56,-1,-1,0,"(1227, 327)","(1227, 346)","(1229, 364)","(1231, 382)","(1236, 400)","(1244, 416)","(1256, 431)","(1271, 442)","(1289, 445)","(1307, 442)","(1323, 431)","(1337, 419)","(1349, 403)","(1356, 386)","(1360, 367)","(1362, 348)","(1363, 328)","(1233, 322)","(1241, 315)","(1253, 314)","(1266, 316)","(1278, 321)","(1305, 320)","(1318, 314)","(1331, 311)","(1344, 311)","(1354, 318)","(1291, 335)","(1291, 348)","(1290, 361)","(1289, 375)","(1275, 381)","(1282, 384)","(1290, 386)","(1297, 384)","(1305, 381)","(1247, 335)","(1255, 332)","(1264, 332)","(1273, 336)","(1264, 339)","(1255, 339)","(1311, 335)","(1320, 330)","(1329, 329)","(1338, 332)","(1330, 337)","(1321, 337)","(1262, 400)","(1272, 399)","(1281, 398)","(1288, 400)","(1295, 398)","(1305, 399)","(1317, 400)","(1305, 409)","(1295, 413)","(1288, 414)","(1280, 413)","(1271, 409)","(1266, 401)","(1281, 403)","(1288, 405)","(1295, 404)","(1312, 401)","(1295, 404)","(1288, 405)","(1281, 404)",0.27,0.88,72.0,0.39,-0.03,0.4,0.01,-7.0,0.1,0.36,55.2,72.9,117.0,32.05,41.6,117.15,46.47,65.88,105.0
1266,-196608,60,-56,-1,-1,0,"(1226, 326)","(1226, 346)","(1227, 364)","(1229, 382)","(1234, 400)","(1243, 417)","(1256, 431)","(1271, 443)","(1289, 446)","(1308, 442)","(1324, 431)","(1338, 418)","(1350, 402)","(1357, 385)","(1360, 366)","(1362, 347)","(1363, 327)","(1231, 322)","(1239, 315)","(1251, 314)","(1264, 316)","(1276, 321)","(1304, 321)","(1316, 314)","(1329, 310)","(1343, 311)","(1353, 318)","(1290, 335)","(1289, 348)","(1289, 361)","(1288, 375)","(1274, 381)","(1281, 384)","(1288, 386)","(1296, 384)","(1303, 381)","(1246, 335)","(1254, 332)","(1264, 332)","(1272, 336)","(1263, 339)","(1254, 339)","(1309, 335)","(1318, 329)","(1328, 329)","(1336, 332)","(1329, 336)","(1319, 337)","(1261, 400)","(1271, 399)","(1280, 399)","(1287, 401)","(1294, 398)","(1304, 399)","(1316, 400)","(1305, 410)","(1295, 414)","(1287, 415)","(1279, 414)","(1270, 410)","(1265, 401)","(1280, 404)","(1287, 405)","(1295, 404)","(1311, 401)","(1294, 405)","(1287, 406)","(1280, 405)",0.27,0.89,72.0,0.38,-0.04,0.4,0.02,-7.0,0.09,0.36,54.5,73.1,119.1,32.8,44.2,119.25,43.88,63.35,102.23
1300,-131072,60,-56,-1,-1,0,"(1221, 327)","(1221, 347)","(1223, 366)","(1226, 384)","(1232, 401)","(1242, 417)","(1255, 431)","(1269, 443)","(1287, 446)","(1305, 442)","(1320, 431)","(1334, 417)","(1345, 402)","(1352, 385)","(1356, 366)","(1357, 347)","(1358, 328)","(1228, 320)","(1238, 314)","(1250, 313)","(1263, 316)","(1275, 321)","(1303, 320)","(1314, 314)","(1326, 310)","(1339, 310)","(1348, 317)","(1289, 335)","(1289, 348)","(1288, 362)","(1288, 375)","(1273, 381)","(1281, 384)","(1288, 387)","(1296, 384)","(1303, 381)","(1245, 334)","(1253, 331)","(1262, 331)","(1271, 336)","(1262, 338)","(1253, 338)","(1308, 335)","(1316, 329)","(1326, 329)","(1334, 331)","(1327, 336)","(1317, 336)","(1260, 401)","(1271, 399)","(1280, 398)","(1287, 400)","(1294, 398)","(1304, 399)","(1315, 400)","(1305, 411)","(1295, 415)","(1287, 416)","(1280, 416)","(1270, 411)","(1265, 402)","(1281, 404)","(1288, 405)","(1295, 404)","(1310, 401)","(1295, 405)","(1287, 406)","(1280, 406)",0.26,0.86,72.0,0.38,-0.02,0.4,0.02,-7.0,0.1,0.36,53.9,71.5,117.6,37.8,47.95,122.2,41.88,60.76,100.58
1333,-131072,60,-56,-1,-1,0,"(1221, 329)","(1222, 349)","(1224, 368)","(1227, 386)","(1232, 404)","(1242, 421)","(1254, 437)","(1270, 448)","(1290, 452)","(1310, 448)","(1328, 436)","(1343, 422)","(1355, 406)","(1362, 386)","(1365, 367)","(1366, 347)","(1367, 326)","(1226, 320)","(1234, 314)","(1246, 313)","(1259, 314)","(1272, 320)","(1301, 318)","(1314, 311)","(1328, 308)","(1342, 309)","(1353, 315)","(1286, 334)","(1286, 347)","(1286, 360)","(1285, 374)","(1272, 381)","(1279, 384)","(1287, 386)","(1294, 384)","(1301, 380)","(1243, 333)","(1250, 330)","(1260, 330)","(1270, 335)","(1260, 337)","(1250, 338)","(1307, 333)","(1317, 327)","(1327, 327)","(1335, 330)","(1328, 335)","(1317, 335)","(1260, 401)","(1269, 399)","(1279, 398)","(1285, 400)","(1292, 398)","(1303, 398)","(1315, 400)","(1304, 410)","(1294, 415)","(1286, 416)","(1279, 416)","(1269, 412)","(1264, 402)","(1279, 404)","(1286, 405)","(1293, 404)","(1309, 401)","(1293, 406)","(1286, 407)","(1279, 406)",0.28,0.94,72.0,0.37,-0.02,0.37,0.02,-7.5,0.1,0.33,53.1,71.9,116.7,37.75,47.55,122.55,46.17,65.35,102.0
1366,-262144,60,-56,-1,-1,0,"(1216, 325)","(1217, 345)","(1219, 364)","(1222, 383)","(1228, 401)","(1238, 417)","(1251, 431)","(1267, 443)","(1285, 446)","(1302, 442)","(1318, 430)","(1333, 417)","(1345, 401)","(1351, 383)","(1355, 364)","(1357, 345)","(1357, 325)","(1222, 318)","(1232, 311)","(1245, 310)","(1258, 313)","(1271, 319)","(1299, 318)","(1311, 311)","(1325, 307)","(1338, 307)","(1348, 313)","(1285, 332)","(1285, 346)","(1284, 360)","(1284, 374)","(1269, 380)","(1277, 383)","(1284, 386)","(1292, 384)","(1299, 380)","(1239, 332)","(1248, 329)","(1258, 329)","(1267, 334)","(1257, 336)","(1247, 336)","(1305, 333)","(1314, 327)","(1324, 326)","(1333, 329)","(1325, 334)","(1315, 335)","(1255, 400)","(1266, 399)","(1276, 398)","(1283, 401)","(1290, 398)","(1301, 399)","(1312, 400)","(1301, 410)","(1292, 415)","(1284, 416)","(1276, 415)","(1266, 411)","(1260, 401)","(1276, 405)","(1283, 406)","(1291, 405)","(1307, 401)","(1291, 405)","(1284, 406)","(1276, 405)",0.28,0.86,72.0,0.39,-0.04,0.4,0.01,-7.0,0.09,0.36,53.2,73.1,119.3,34.9,45.3,121.25,42.0,60.58,101.17
1400,-327680,60,-56,-1,-1,0,"(1214, 325)","(1214, 345)","(1217, 365)","(1220, 384)","(1227, 402)","(1237, 418)","(1250, 432)","(1266, 443)","(1283, 446)","(1301, 442)","(1317, 430)","(1332, 417)","(1344, 402)","(1351, 384)","(1354, 365)","(1356, 345)","(1356, 325)","(1220, 317)","(1229, 310)","(1242, 309)","(1256, 312)","(1268, 317)","(1297, 316)","(1309, 309)","(1323, 305)","(1337, 305)","(1347, 312)","(1283, 331)","(1283, 345)","(1282, 359)","(1282, 374)","(1267, 380)","(1275, 383)","(1283, 385)","(1290, 383)","(1297, 380)","(1237, 331)","(1245, 328)","(1255, 328)","(1264, 333)","(1255, 335)","(1245, 335)","(1303, 332)","(1313, 326)","(1323, 325)","(1331, 328)","(1324, 333)","(1314, 333)","(1253, 401)","(1264, 400)","(1274, 398)","(1281, 400)","(1289, 398)","(1299, 399)","(1311, 400)","(1300, 411)","(1290, 415)","(1282, 416)","(1274, 416)","(1264, 411)","(1258, 402)","(1274, 404)","(1282, 405)","(1289, 404)","(1306, 401)","(1289, 405)","(1282, 406)","(1274, 405)",0.26,0.85,72.0,0.38,-0.03,0.4,0.02,-7.0,0.09,0.37,55.9,74.6,121.9,32.2,43.95,118.95,42.88,61.88,104.35
1433,-393216,60,-56,-1,-1,0,"(1212, 325)","(1212, 346)","(1214, 366)","(1218, 385)","(1224, 403)","(1235, 419)","(1248, 434)","(1263, 445)","(1281, 448)","(1300, 444)","(1316, 432)","(1331, 419)","(1343, 403)","(1350, 385)","(1354, 365)","(1356, 344)","(1357, 324)","(1218, 316)","(1227, 310)","(1240, 308)","(1253, 311)","(1266, 316)","(1295, 315)","(1308, 308)","(1321, 304)","(1336, 304)","(1347, 310)","(1281, 331)","(1280, 345)","(1280, 359)","(1279, 373)","(1265, 381)","(1272, 383)","(1280, 386)","(1288, 383)","(1295, 380)","(1235, 332)","(1243, 328)","(1253, 328)","(1263, 333)","(1253, 336)","(1242, 336)","(1301, 332)","(1311, 325)","(1321, 324)","(1331, 327)","(1323, 333)","(1312, 333)","(1252, 403)","(1262, 400)","(1272, 399)","(1279, 401)","(1286, 398)","(1297, 400)","(1309, 402)","(1298, 412)","(1288, 417)","(1280, 418)","(1272, 417)","(1262, 413)","(1256, 403)","(1272, 405)","(1280, 406)","(1287, 405)","(1304, 403)","(1287, 406)","(1280, 407)","(1272, 406)",0.28,0.9,72.0,0.4,-0.04,0.39,0.02,-8.0,0.09,0.35,51.0,69.8,114.1,39.15,49.9,125.9,46.11,65.11,107.0
1466,-393216,60,-56,-1,-1,0,"(1209, 324)","(1209, 344)","(1210, 364)","(1213, 384)","(1220, 402)","(1230, 419)","(1243, 434)","(1258, 446)","(1277, 449)","(1296, 446)","(1313, 434)","(1329, 420)","(1341, 403)","(1349, 384)","(1353, 364)","(1355, 343)","(1355, 322)","(1215, 316)","(1224, 309)","(1237, 308)","(1250, 311)","(1263, 316)","(1293, 315)","(1306, 307)","(1319, 303)","(1334, 303)","(1345, 310)","(1278, 331)","(1277, 346)","(1277, 360)","(1276, 375)","(1261, 381)","(1268, 384)","(1277, 387)","(1285, 384)","(1293, 381)","(1230, 331)","(1239, 327)","(1249, 327)","(1259, 333)","(1249, 335)","(1238, 335)","(1299, 331)","(1309, 324)","(1319, 324)","(1328, 327)","(1320, 332)","(1310, 333)","(1248, 404)","(1259, 401)","(1269, 400)","(1276, 402)","(1284, 400)","(1294, 401)","(1306, 403)","(1295, 413)","(1284, 418)","(1276, 419)","(1268, 418)","(1258, 414)","(1253, 404)","(1269, 406)","(1276, 407)","(1284, 406)","(1301, 404)","(1284, 407)","(1276, 408)","(1269, 408)",0.29,0.85,73.0,0.39,-0.04,0.39,0.02,-8.0,0.1,0.37,54.2,72.8,117.8,37.45,48.8,122.2,44.7,63.23,105.35
1500,-327680,60,-56,-1,-1,0,"(1206, 327)","(1205, 347)","(1207, 368)","(1210, 387)","(1217, 406)","(1227, 423)","(1241, 437)","(1256, 449)","(1275, 453)","(1294, 449)","(1312, 438)","(1328, 424)","(1341, 407)","(1349, 388)","(1353, 367)","(1355, 346)","(1355, 324)","(1211, 316)","(1219, 309)","(1232, 308)","(1245, 310)","(1258, 316)","(1289, 314)","(1302, 307)","(1316, 303)","(1331, 303)","(1343, 310)","(1273, 331)","(1273, 346)","(1272, 360)","(1271, 375)","(1257, 382)","(1264, 386)","(1273, 388)","(1281, 385)","(1290, 382)","(1227, 332)","(1235, 328)","(1245, 328)","(1255, 333)","(1245, 336)","(1234, 336)","(1296, 332)","(1306, 325)","(1316, 325)","(1326, 328)","(1317, 333)","(1307, 333)","(1244, 406)","(1255, 403)","(1265, 401)","(1272, 404)","(1280, 401)","(1291, 402)","(1304, 404)","(1292, 415)","(1281, 420)","(1273, 421)","(1264, 420)","(1255, 416)","(1249, 406)","(1265, 408)","(1273, 409)","(1280, 408)","(1298, 405)","(1280, 409)","(1272, 410)","(1265, 409)",0.26,0.89,73.0,0.39,-0.03,0.4,0.02,-8.0,0.11,0.36,57.1,75.2,122.2,39.25,51.9,125.5,48.11,66.58,107.29
1533,-393216,60,-56,-1,-1,0,"(1200, 324)","(1200, 346)","(1202, 366)","(1205, 386)","(1211, 405)","(1222, 423)","(1235, 439)","(1251, 452)","(1271, 455)","(1291, 451)","(1309, 439)","(1325, 425)","(1339, 408)","(1348, 388)","(1352, 367)","(1354, 345)","(1355, 322)","(1204, 319)","(1213, 311)","(1227, 309)","(1241, 312)","(1255, 318)","(1287, 315)","(1300, 308)","(1315, 303)","(1331, 304)","(1342, 311)","(1271, 333)","(1270, 348)","(1270, 362)","(1269, 377)","(1254, 385)","(1262, 388)","(1270, 390)","(1279, 388)","(1287, 384)","(1222, 333)","(1231, 330)","(1242, 330)","(1252, 335)","(1242, 337)","(1231, 338)","(1294, 333)","(1304, 326)","(1315, 326)","(1325, 328)","(1316, 334)","(1305, 334)","(1240, 407)","(1252, 405)","(1262, 404)","(1269, 406)","(1277, 404)","(1288, 404)","(1301, 406)","(1289, 418)","(1278, 423)","(1270, 425)","(1262, 424)","(1251, 419)","(1245, 408)","(1262, 410)","(1270, 411)","(1277, 410)","(1296, 407)","(1277, 412)","(1270, 413)","(1262, 413)",0.25,0.87,73.0,0.39,-0.04,0.39,0.02,-7.5,0.1,0.36,51.2,69.9,116.0,42.6,54.35,128.95,45.23,63.47,103.94
1566,-393216,60,-56,-1,-1,0,"(1193, 326)","(1194, 348)","(1197, 369)","(1201, 390)","(1208, 408)","(1219, 426)","(1233, 441)","(1249, 453)","(1268, 457)","(1288, 453)","(1306, 441)","(1323, 427)","(1337, 410)","(1346, 391)","(1350, 370)","(1353, 348)","(1354, 325)","(1200, 318)","(1210, 311)","(1224, 309)","(1239, 312)","(1252, 319)","(1283, 317)","(1296, 310)","(1311, 305)","(1327, 305)","(1340, 312)","(1267, 334)","(1267, 350)","(1266, 365)","(1266, 380)","(1251, 388)","(1259, 390)","(1267, 393)","(1275, 390)","(1283, 387)","(1219, 334)","(1228, 330)","(1238, 330)","(1248, 336)","(1238, 339)","(1227, 339)","(1290, 335)","(1300, 327)","(1311, 326)","(1321, 330)","(1312, 335)","(1301, 336)","(1238, 410)","(1249, 408)","(1259, 406)","(1266, 408)","(1274, 406)","(1285, 407)","(1297, 409)","(1285, 421)","(1275, 426)","(1266, 427)","(1258, 426)","(1248, 421)","(1243, 411)","(1259, 413)","(1266, 414)","(1274, 413)","(1292, 410)","(1274, 414)","(1266, 415)","(1258, 414)",0.28,0.87,73.0,0.37,-0.03,0.36,0.02,-8.5,0.09,0.37,54.0,72.3,118.7,41.45,53.55,128.45,44.88,62.52,103.35
1600,-393216,60,-56,-1,-1,0,"(1191, 328)","(1191, 350)","(1193, 371)","(1196, 392)","(1203, 412)","(1214, 431)","(1228, 448)","(1245, 462)","(1266, 466)","(1287, 462)","(1306, 449)","(1323, 433)","(1337, 414)","(1346, 394)","(1349, 372)","(1351, 349)","(1350, 325)","(1196, 320)","(1204, 312)","(1219, 310)","(1233, 313)","(1247, 319)","(1280, 318)","(1294, 310)","(1310, 306)","(1326, 306)","(1338, 313)","(1263, 336)","(1263, 351)","(1262, 366)","(1262, 382)","(1247, 390)","(1255, 393)","(1263, 396)","(1272, 393)","(1281, 389)","(1214, 336)","(1223, 332)","(1233, 332)","(1244, 337)","(1233, 340)","(1222, 340)","(1287, 336)","(1297, 329)","(1309, 329)","(1319, 332)","(1310, 337)","(1299, 338)","(1233, 413)","(1244, 411)","(1254, 410)","(1262, 412)","(1270, 409)","(1282, 410)","(1295, 412)","(1283, 425)","(1272, 430)","(1263, 431)","(1254, 430)","(1243, 425)","(1238, 414)","(1254, 417)","(1263, 418)","(1271, 416)","(1289, 413)","(1271, 418)","(1263, 420)","(1254, 419)",0.26,0.91,73.0,0.39,-0.05,0.38,0.02,-8.0,0.11,0.35,54.6,72.3,118.2,44.6,57.1,130.4,47.23,66.17,105.17
1633,-196608,60,-56,-1,-1,0,"(1182, 331)","(1184, 354)","(1187, 376)","(1192, 397)","(1199, 416)","(1210, 435)","(1224, 452)","(1241, 465)","(1261, 468)","(1281, 464)","(1300, 450)","(1316, 435)","(1330, 418)","(1339, 398)","(1344, 376)","(1346, 353)","(1348, 329)","(1188, 322)","(1198, 314)","(1213, 312)","(1228, 315)","(1242, 321)","(1276, 319)","(1290, 311)","(1305, 307)","(1321, 307)","(1334, 314)","(1259, 337)","(1259, 353)","(1258, 369)","(1258, 386)","(1243, 393)","(1251, 397)","(1260, 399)","(1269, 396)","(1277, 392)","(1208, 338)","(1218, 334)","(1229, 334)","(1240, 340)","(1229, 342)","(1218, 343)","(1283, 338)","(1293, 330)","(1305, 329)","(1315, 333)","(1306, 338)","(1295, 339)","(1229, 417)","(1241, 415)","(1251, 414)","(1259, 416)","(1267, 413)","(1279, 414)","(1293, 415)","(1280, 427)","(1269, 433)","(1260, 434)","(1251, 433)","(1241, 428)","(1234, 417)","(1252, 420)","(1260, 421)","(1268, 420)","(1288, 416)","(1268, 421)","(1260, 423)","(1252, 422)",0.28,0.89,73.0,0.38,-0.05,0.38,0.02,-8.0,0.1,0.37,57.2,76.9,122.1,44.05,57.3,131.0,47.29,65.17,104.76
1666,-262144,60,-56,-1,-1,0,"(1178, 332)","(1179, 355)","(1183, 377)","(1187, 399)","(1194, 419)","(1205, 437)","(1220, 454)","(1237, 468)","(1257, 471)","(1278, 467)","(1297, 453)","(1314, 438)","(1329, 420)","(1338, 399)","(1342, 376)","(1345, 352)","(1346, 328)","(1184, 322)","(1195, 315)","(1209, 315)","(1223, 317)","(1237, 323)","(1272, 321)","(1286, 313)","(1301, 309)","(1318, 308)","(1331, 315)","(1255, 340)","(1254, 357)","(1254, 373)","(1253, 390)","(1238, 397)","(1246, 400)","(1255, 403)","(1264, 400)","(1273, 396)","(1204, 341)","(1213, 337)","(1224, 337)","(1235, 343)","(1224, 346)","(1212, 346)","(1280, 341)","(1290, 333)","(1302, 332)","(1313, 335)","(1304, 342)","(1292, 343)","(1225, 422)","(1236, 419)","(1247, 418)","(1255, 420)","(1263, 417)","(1274, 418)","(1288, 420)","(1276, 433)","(1264, 438)","(1255, 439)","(1247, 439)","(1236, 434)","(1230, 423)","(1247, 425)","(1255, 426)","(1263, 424)","(1282, 421)","(1263, 426)","(1255, 427)","(1247, 426)",0.3,0.89,73.0,0.38,-0.04,0.37,0.02,-9.0,0.1,0.38,57.7,76.8,122.5,46.0,59.7,134.0,46.76,64.41,107.29
1700,-393216,60,-56,-1,-1,0,"(1175, 338)","(1176, 361)","(1179, 383)","(1183, 404)","(1190, 424)","(1202, 443)","(1216, 460)","(1232, 474)","(1253, 477)","(1274, 473)","(1294, 460)","(1311, 445)","(1326, 427)","(1335, 406)","(1340, 383)","(1342, 358)","(1343, 333)","(1179, 327)","(1189, 318)","(1203, 317)","(1218, 319)","(1232, 326)","(1268, 324)","(1283, 315)","(1299, 311)","(1316, 311)","(1329, 319)","(1250, 343)","(1249, 360)","(1248, 377)","(1248, 394)","(1232, 401)","(1241, 405)","(1250, 407)","(1259, 404)","(1268, 400)","(1198, 344)","(1208, 340)","(1219, 340)","(1230, 346)","(1219, 349)","(1207, 349)","(1276, 344)","(1286, 336)","(1298, 336)","(1309, 339)","(1300, 345)","(1288, 346)","(1219, 426)","(1231, 424)","(1241, 422)","(1249, 424)","(1258, 422)","(1271, 423)","(1285, 424)","(1272, 438)","(1260, 443)","(1250, 445)","(1241, 444)","(1230, 439)","(1225, 427)","(1241, 429)","(1250, 431)","(1259, 429)","(1279, 426)","(1259, 431)","(1250, 432)","(1241, 431)",0.29,0.93,73.0,0.38,-0.05,0.39,0.02,-9.0,0.1,0.38,63.2,81.5,127.3,48.95,62.2,136.0,49.94,69.52,113.58
1733,-327680,60,-56,-1,-1,0,"(1170, 338)","(1170, 361)","(1173, 384)","(1177, 406)","(1184, 427)","(1196, 447)","(1211, 464)","(1228, 478)","(1249, 482)","(1271, 478)","(1291, 465)","(1309, 449)","(1324, 429)","(1333, 407)","(1338, 384)","(1339, 359)","(1340, 334)","(1173, 328)","(1183, 320)","(1198, 319)","(1213, 322)","(1228, 329)","(1264, 327)","(1279, 318)","(1296, 314)","(1313, 314)","(1327, 322)","(1245, 347)","(1245, 364)","(1244, 381)","(1243, 398)","(1227, 405)","(1235, 409)","(1245, 412)","(1255, 409)","(1265, 405)","(1192, 347)","(1202, 343)","(1213, 343)","(1225, 349)","(1213, 352)","(1201, 352)","(1273, 347)","(1283, 340)","(1296, 339)","(1307, 342)","(1297, 348)","(1285, 349)","(1215, 431)","(1226, 429)","(1237, 427)","(1245, 430)","(1254, 427)","(1267, 428)","(1281, 430)","(1268, 443)","(1255, 448)","(1246, 450)","(1236, 449)","(1225, 443)","(1220, 432)","(1237, 434)","(1245, 436)","(1254, 434)","(1275, 431)","(1255, 436)","(1246, 437)","(1237, 436)",0.26,0.93,74.0,0.39,-0.03,0.38,0.02,-8.5,0.11,0.37,60.9,80.7,126.1,48.15,62.5,135.55,50.58,69.41,114.47
1766,-327680,60,-56,-1,-1,0,"(1160, 345)","(1162, 369)","(1166, 393)","(1172, 415)","(1180, 435)","(1192, 455)","(1207, 472)","(1224, 486)","(1245, 490)","(1266, 485)","(1285, 471)","(1303, 455)","(1318, 437)","(1328, 416)","(1332, 392)","(1335, 367)","(1336, 341)","(1166, 330)","(1177, 323)","(1192, 322)","(1207, 326)","(1221, 333)","(1259, 331)","(1274, 322)","(1290, 317)","(1307, 317)","(1321, 324)","(1241, 351)","(1241, 368)","(1240, 386)","(1239, 403)","(1224, 412)","(1232, 415)","(1241, 417)","(1251, 414)","(1260, 411)","(1186, 351)","(1196, 347)","(1208, 347)","(1219, 354)","(1208, 356)","(1195, 356)","(1268, 352)","(1279, 344)","(1291, 343)","(1303, 346)","(1293, 352)","(1280, 353)","(1210, 439)","(1222, 436)","(1233, 433)","(1241, 436)","(1250, 433)","(1263, 434)","(1277, 437)","(1264, 450)","(1252, 456)","(1243, 457)","(1233, 456)","(1222, 451)","(1215, 439)","(1233, 441)","(1242, 442)","(1251, 441)","(1271, 438)","(1251, 442)","(1242, 444)","(1233, 443)",0.25,0.91,74.0,0.38,-0.02,0.38,0.02,-8.5,0.1,0.37,60.1,79.3,124.3,52.9,65.65,137.9,47.7,67.58,112.82
1800,-65536,60,-56,-1,-1,0,"(1155, 348)","(1156, 373)","(1159, 396)","(1164, 419)","(1172, 441)","(1184, 461)","(1199, 479)","(1217, 495)","(1239, 499)","(1262, 494)","(1282, 480)","(1301, 463)","(1316, 443)","(1325, 421)","(1330, 396)","(1332, 370)","(1333, 344)","(1160, 335)","(1171, 328)","(1186, 327)","(1201, 330)","(1216, 337)","(1254, 335)","(1269, 327)","(1286, 321)","(1304, 321)","(1318, 329)","(1235, 356)","(1235, 374)","(1234, 392)","(1233, 410)","(1217, 418)","(1226, 421)","(1235, 424)","(1245, 421)","(1254, 417)","(1180, 356)","(1190, 351)","(1202, 352)","(1213, 358)","(1202, 361)","(1189, 361)","(1263, 356)","(1274, 348)","(1287, 347)","(1298, 351)","(1288, 357)","(1276, 358)","(1204, 445)","(1216, 442)","(1227, 440)","(1235, 442)","(1245, 440)","(1258, 441)","(1272, 443)","(1259, 457)","(1247, 463)","(1237, 465)","(1227, 464)","(1216, 458)","(1210, 446)","(1227, 448)","(1236, 449)","(1245, 448)","(1267, 445)","(1246, 450)","(1236, 451)","(1227, 450)",0.28,0.91,74.0,0.38,-0.02,0.38,0.02,-9.5,0.1,0.37,59.5,78.9,125.3,53.85,67.35,140.2,49.23,69.29,114.0
1833,0,60,-56,-1,-1,0,"(1149, 352)","(1149, 376)","(1152, 401)","(1157, 424)","(1164, 447)","(1177, 468)","(1192, 487)","(1210, 503)","(1233, 508)","(1257, 503)","(1278, 489)","(1297, 471)","(1313, 450)","(1322, 427)","(1326, 401)","(1328, 375)","(1328, 348)","(1153, 339)","(1163, 331)","(1179, 331)","(1195, 334)","(1210, 342)","(1249, 340)","(1265, 331)","(1283, 326)","(1301, 326)","(1315, 334)","(1229, 361)","(1229, 380)","(1228, 398)","(1228, 416)","(1209, 423)","(1219, 428)","(1229, 431)","(1240, 427)","(1251, 423)","(1172, 361)","(1183, 357)","(1195, 357)","(1207, 364)","(1194, 366)","(1182, 367)","(1258, 362)","(1270, 355)","(1282, 354)","(1294, 357)","(1284, 363)","(1271, 364)","(1197, 452)","(1208, 449)","(1220, 447)","(1230, 450)","(1239, 447)","(1253, 448)","(1268, 451)","(1254, 466)","(1241, 472)","(1230, 474)","(1220, 473)","(1208, 466)","(1202, 453)","(1220, 455)","(1230, 456)","(1240, 455)","(1262, 452)","(1240, 459)","(1230, 460)","(1220, 459)",0.25,0.94,74.0,0.39,-0.01,0.39,0.03,-8.5,0.12,0.37,65.1,84.4,131.8,58.7,72.6,143.5,50.0,69.64,114.35
1866,0,60,-56,-1,-1,0,"(1143, 359)","(1143, 384)","(1146, 409)","(1151, 432)","(1159, 455)","(1171, 477)","(1187, 496)","(1205, 513)","(1228, 518)","(1252, 513)","(1275, 499)","(1296, 481)","(1312, 460)","(1323, 435)","(1328, 410)","(1331, 382)","(1331, 354)","(1145, 347)","(1155, 339)","(1171, 338)","(1187, 341)","(1203, 348)","(1245, 346)","(1262, 337)","(1280, 332)","(1299, 332)","(1314, 340)","(1224, 368)","(1223, 387)","(1223, 405)","(1222, 423)","(1204, 432)","(1214, 436)","(1224, 439)","(1235, 436)","(1245, 431)","(1166, 368)","(1176, 364)","(1189, 364)","(1202, 371)","(1189, 373)","(1176, 374)","(1254, 368)","(1267, 361)","(1280, 360)","(1293, 364)","(1282, 370)","(1268, 371)","(1191, 461)","(1203, 458)","(1215, 456)","(1224, 459)","(1234, 456)","(1249, 457)","(1265, 459)","(1250, 474)","(1236, 481)","(1225, 482)","(1215, 481)","(1203, 475)","(1197, 461)","(1215, 464)","(1225, 466)","(1234, 464)","(1258, 460)","(1235, 467)","(1225, 469)","(1215, 467)",0.25,0.96,74.0,0.4,-0.03,0.39,0.02,-9.0,0.11,0.36,64.5,83.5,129.2,59.25,72.75,144.0,53.88,74.05,117.23
1900,327680,60,-56,-1,-1,0,"(1133, 367)","(1134, 393)","(1138, 418)","(1143, 442)","(1152, 465)","(1165, 487)","(1180, 508)","(1199, 525)","(1223, 530)","(1248, 525)","(1271, 510)","(1292, 492)","(1308, 470)","(1319, 446)","(1324, 419)","(1327, 391)","(1328, 362)","(1138, 354)","(1149, 346)","(1165, 345)","(1182, 349)","(1198, 356)","(1238, 354)","(1256, 345)","(1274, 339)","(1293, 339)","(1310, 347)","(1218, 376)","(1218, 395)","(1217, 414)","(1217, 433)","(1199, 442)","(1208, 446)","(1218, 449)","(1229, 445)","(1239, 441)","(1159, 376)","(1170, 372)","(1183, 372)","(1195, 379)","(1182, 382)","(1169, 382)","(1248, 376)","(1260, 368)","(1274, 367)","(1287, 371)","(1276, 378)","(1262, 379)","(1186, 471)","(1198, 468)","(1210, 466)","(1219, 469)","(1229, 466)","(1243, 467)","(1258, 470)","(1244, 485)","(1230, 491)","(1219, 493)","(1209, 491)","(1198, 485)","(1192, 472)","(1210, 474)","(1219, 476)","(1229, 474)","(1252, 472)","(1229, 477)","(1219, 479)","(1209, 477)",0.28,0.93,74.0,0.38,-0.03,0.36,0.02,-10.0,0.1,0.37,63.6,82.3,130.1,57.25,72.05,144.75,49.35,71.11,115.58
1933,720896,60,-56,-1,-1,0,"(1128, 372)","(1127, 399)","(1129, 424)","(1135, 448)","(1144, 472)","(1158, 495)","(1174, 517)","(1193, 536)","(1218, 543)","(1244, 539)","(1268, 524)","(1291, 505)","(1309, 482)","(1321, 455)","(1326, 427)","(1328, 398)","(1328, 368)","(1131, 360)","(1140, 350)","(1156, 348)","(1174, 351)","(1190, 359)","(1235, 359)","(1253, 349)","(1273, 345)","(1293, 347)","(1308, 355)","(1212, 384)","(1212, 402)","(1211, 421)","(1211, 440)","(1192, 449)","(1202, 454)","(1213, 457)","(1225, 453)","(1237, 448)","(1151, 383)","(1163, 380)","(1176, 380)","(1189, 385)","(1176, 388)","(1162, 389)","(1244, 384)","(1258, 378)","(1272, 378)","(1285, 381)","(1273, 387)","(1259, 387)","(1181, 480)","(1193, 476)","(1205, 475)","(1214, 477)","(1225, 474)","(1240, 476)","(1257, 479)","(1241, 495)","(1227, 502)","(1215, 503)","(1205, 502)","(1193, 496)","(1187, 480)","(1205, 483)","(1215, 484)","(1225, 483)","(1249, 479)","(1226, 488)","(1215, 490)","(1205, 488)",0.22,0.97,74.0,0.39,-0.03,0.38,0.03,-8.5,0.12,0.35,75.2,93.6,141.0,62.6,76.85,148.6,52.47,72.7,116.05
1966,1048576,60,-56,-1,-1,0,"(1119, 384)","(1120, 411)","(1124, 437)","(1130, 463)","(1139, 487)","(1153, 509)","(1169, 529)","(1189, 546)","(1213, 551)","(1238, 547)","(1261, 531)","(1283, 513)","(1300, 491)","(1312, 465)","(1318, 438)","(1320, 408)","(1321, 378)","(1123, 369)","(1135, 361)","(1152, 361)","(1168, 364)","(1185, 372)","(1227, 370)","(1245, 360)","(1263, 355)","(1284, 354)","(1301, 362)","(1206, 393)","(1206, 413)","(1205, 432)","(1205, 452)","(1187, 461)","(1196, 466)","(1207, 469)","(1218, 465)","(1229, 461)","(1145, 393)","(1156, 388)","(1170, 389)","(1183, 396)","(1170, 399)","(1156, 399)","(1238, 394)","(1250, 385)","(1265, 384)","(1278, 388)","(1267, 395)","(1252, 396)","(1174, 493)","(1186, 489)","(1198, 486)","(1208, 489)","(1218, 486)","(1233, 488)","(1249, 491)","(1235, 506)","(1220, 513)","(1209, 514)","(1199, 513)","(1187, 507)","(1181, 494)","(1199, 496)","(1208, 497)","(1218, 495)","(1242, 492)","(1219, 498)","(1209, 499)","(1199, 498)",0.27,0.95,75.0,0.38,-0.02,0.37,0.02,-10.5,0.11,0.37,66.2,86.3,134.5,60.35,74.3,147.05,52.94,73.35,118.7
2000,524288,60,-56,-1,-1,0,"(1113, 391)","(1114, 418)","(1117, 445)","(1122, 471)","(1132, 495)","(1147, 518)","(1163, 539)","(1183, 557)","(1208, 562)","(1234, 557)","(1258, 541)","(1280, 521)","(1298, 498)","(1309, 471)","(1313, 443)","(1314, 413)","(1314, 383)","(1116, 378)","(1127, 369)","(1144, 369)","(1161, 373)","(1178, 380)","(1222, 379)","(1240, 369)","(1260, 363)","(1280, 363)","(1296, 371)","(1200, 403)","(1200, 423)","(1199, 443)","(1199, 463)","(1180, 472)","(1190, 476)","(1201, 480)","(1213, 476)","(1225, 471)","(1138, 402)","(1149, 398)","(1163, 398)","(1176, 405)","(1162, 408)","(1148, 408)","(1232, 403)","(1246, 395)","(1260, 394)","(1273, 397)","(1261, 404)","(1247, 405)","(1167, 502)","(1180, 500)","(1192, 498)","(1202, 501)","(1213, 497)","(1229, 498)","(1246, 501)","(1230, 517)","(1215, 524)","(1203, 526)","(1192, 524)","(1179, 517)","(1173, 503)","(1193, 506)","(1203, 508)","(1214, 506)","(1239, 502)","(1214, 510)","(1203, 511)","(1193, 510)",0.24,0.96,75.0,0.39,-0.03,0.39,0.02,-9.5,0.12,0.37,65.5,84.8,132.3,62.4,77.2,149.1,53.47,74.17,120.64
2033,0,60,-56,-1,-1,0,"(1104, 401)","(1106, 429)","(1110, 456)","(1116, 482)","(1125, 507)","(1140, 531)","(1156, 552)","(1176, 570)","(1201, 576)","(1227, 570)","(1250, 554)","(1271, 535)","(1289, 512)","(1301, 486)","(1306, 458)","(1309, 428)","(1310, 397)","(1107, 386)","(1120, 377)","(1137, 377)","(1155, 381)","(1172, 389)","(1215, 388)","(1233, 377)","(1252, 372)","(1273, 371)","(1290, 381)","(1194, 411)","(1194, 432)","(1193, 452)","(1193, 473)","(1174, 483)","(1184, 487)","(1195, 490)","(1206, 486)","(1218, 482)","(1131, 410)","(1142, 406)","(1156, 406)","(1170, 414)","(1156, 416)","(1142, 416)","(1226, 412)","(1239, 403)","(1254, 402)","(1267, 406)","(1255, 413)","(1241, 414)","(1161, 514)","(1173, 511)","(1186, 509)","(1196, 512)","(1206, 509)","(1222, 510)","(1240, 512)","(1224, 528)","(1209, 535)","(1198, 537)","(1187, 536)","(1174, 529)","(1167, 515)","(1186, 518)","(1196, 519)","(1207, 518)","(1233, 514)","(1208, 520)","(1197, 522)","(1187, 520)",0.26,0.98,75.0,0.39,-0.02,0.38,0.02,-10.0,0.11,0.37,69.6,88.9,136.7,62.3,75.6,149.95,52.29,73.17,118.82
2066,-65536,60,-56,-1,-1,0,"(1098, 410)","(1099, 438)","(1103, 466)","(1108, 492)","(1118, 518)","(1132, 543)","(1150, 565)","(1170, 583)","(1196, 589)","(1222, 584)","(1246, 567)","(1268, 547)","(1286, 522)","(1297, 495)","(1302, 466)","(1304, 437)","(1303, 406)","(1100, 394)","(1113, 385)","(1130, 385)","(1148, 389)","(1165, 398)","(1210, 396)","(1228, 386)","(1248, 380)","(1269, 380)","(1286, 389)","(1188, 420)","(1188, 441)","(1187, 461)","(1187, 482)","(1167, 491)","(1178, 496)","(1189, 500)","(1201, 496)","(1212, 492)","(1123, 419)","(1135, 415)","(1149, 415)","(1163, 422)","(1149, 425)","(1135, 426)","(1221, 421)","(1235, 413)","(1249, 412)","(1263, 416)","(1251, 423)","(1236, 424)","(1153, 524)","(1166, 521)","(1180, 520)","(1190, 523)","(1201, 519)","(1217, 521)","(1236, 524)","(1219, 541)","(1204, 548)","(1192, 550)","(1180, 548)","(1166, 541)","(1159, 525)","(1180, 529)","(1191, 530)","(1202, 529)","(1229, 525)","(1202, 533)","(1191, 535)","(1180, 533)",0.26,0.96,75.0,0.4,-0.01,0.4,0.03,-10.0,0.11,0.36,69.3,88.9,137.7,65.85,80.4,151.9,56.41,75.29,121.76
2100,-65536,60,-56,-1,-1,0,"(1092, 421)","(1092, 450)","(1095, 477)","(1101, 504)","(1112, 530)","(1126, 554)","(1145, 577)","(1165, 596)","(1192, 602)","(1219, 597)","(1245, 581)","(1269, 562)","(1289, 538)","(1302, 510)","(1308, 480)","(1310, 450)","(1310, 418)","(1092, 405)","(1103, 394)","(1121, 393)","(1140, 396)","(1158, 405)","(1206, 403)","(1226, 393)","(1248, 388)","(1270, 390)","(1288, 400)","(1181, 429)","(1181, 447)","(1180, 465)","(1179, 484)","(1159, 496)","(1170, 501)","(1182, 505)","(1195, 501)","(1209, 496)","(1116, 430)","(1128, 426)","(1142, 426)","(1157, 432)","(1143, 435)","(1128, 435)","(1217, 431)","(1231, 423)","(1247, 423)","(1262, 427)","(1248, 433)","(1232, 433)","(1148, 533)","(1160, 527)","(1174, 524)","(1184, 526)","(1195, 523)","(1213, 526)","(1232, 533)","(1215, 551)","(1198, 559)","(1186, 561)","(1174, 559)","(1160, 551)","(1155, 533)","(1174, 533)","(1185, 534)","(1196, 533)","(1224, 533)","(1197, 544)","(1185, 545)","(1174, 544)",0.22,1.02,75.0,0.39,-0.01,0.38,0.04,-9.5,0.12,0.31,75.0,93.2,141.4,75.6,91.25,159.75,56.17,75.64,122.17
2133,0,60,-56,-1,-1,0,"(1083, 428)","(1084, 457)","(1088, 485)","(1093, 512)","(1103, 538)","(1118, 564)","(1135, 588)","(1155, 609)","(1182, 615)","(1210, 611)","(1237, 594)","(1263, 574)","(1284, 549)","(1298, 521)","(1305, 490)","(1308, 457)","(1308, 422)","(1084, 414)","(1096, 404)","(1115, 404)","(1134, 409)","(1152, 418)","(1198, 416)","(1219, 405)","(1241, 398)","(1265, 398)","(1284, 407)","(1175, 440)","(1174, 463)","(1173, 485)","(1172, 507)","(1153, 516)","(1163, 521)","(1175, 525)","(1188, 521)","(1201, 516)","(1109, 439)","(1121, 435)","(1136, 435)","(1151, 442)","(1136, 445)","(1121, 445)","(1212, 441)","(1226, 433)","(1242, 432)","(1257, 435)","(1244, 442)","(1228, 443)","(1140, 547)","(1153, 546)","(1166, 544)","(1177, 548)","(1188, 544)","(1206, 546)","(1226, 548)","(1208, 565)","(1190, 572)","(1178, 573)","(1166, 572)","(1153, 564)","(1147, 549)","(1167, 554)","(1177, 556)","(1189, 554)","(1218, 549)","(1189, 556)","(1178, 557)","(1167, 556)",0.22,1.02,75.0,0.38,-0.02,0.38,0.02,-9.5,0.11,0.38,68.3,88.0,135.4,65.65,80.0,153.3,57.23,75.58,124.88
2166,0,60,-56,-1,-1,0,"(1076, 437)","(1076, 467)","(1078, 495)","(1083, 524)","(1094, 551)","(1110, 577)","(1128, 601)","(1148, 622)","(1175, 629)","(1205, 625)","(1233, 608)","(1259, 588)","(1281, 562)","(1295, 533)","(1302, 501)","(1304, 467)","(1303, 433)","(1078, 422)","(1088, 412)","(1106, 412)","(1125, 417)","(1143, 426)","(1192, 424)","(1214, 413)","(1237, 407)","(1260, 408)","(1278, 418)","(1168, 451)","(1167, 472)","(1166, 492)","(1165, 513)","(1144, 524)","(1155, 529)","(1168, 533)","(1182, 529)","(1195, 524)","(1101, 448)","(1113, 445)","(1128, 445)","(1142, 452)","(1127, 455)","(1112, 455)","(1205, 451)","(1220, 444)","(1236, 443)","(1251, 447)","(1237, 453)","(1221, 454)","(1132, 559)","(1145, 556)","(1159, 554)","(1170, 557)","(1182, 554)","(1200, 556)","(1221, 560)","(1202, 578)","(1184, 586)","(1171, 587)","(1158, 585)","(1145, 577)","(1139, 560)","(1159, 563)","(1171, 565)","(1182, 564)","(1213, 561)","(1182, 570)","(1170, 571)","(1159, 569)",0.21,1.01,76.0,0.38,-0.0,0.39,0.03,-9.5,0.11,0.34,73.9,93.0,140.8,70.4,85.1,156.6,55.94,74.05,121.82
2200,-131072,60,-56,-1,-1,0,"(1067, 447)","(1067, 478)","(1070, 506)","(1076, 534)","(1086, 562)","(1101, 588)","(1119, 614)","(1139, 637)","(1166, 644)","(1196, 640)","(1223, 623)","(1250, 601)","(1272, 575)","(1286, 545)","(1293, 513)","(1296, 479)","(1297, 444)","(1068, 432)","(1081, 422)","(1099, 422)","(1119, 427)","(1138, 437)","(1186, 436)","(1207, 425)","(1229, 419)","(1253, 419)","(1272, 429)","(1161, 461)","(1160, 484)","(1159, 506)","(1157, 529)","(1138, 538)","(1148, 543)","(1160, 548)","(1174, 544)","(1188, 539)","(1093, 458)","(1106, 455)","(1122, 456)","(1136, 463)","(1121, 466)","(1106, 466)","(1199, 462)","(1214, 455)","(1230, 454)","(1245, 458)","(1231, 465)","(1215, 465)","(1125, 571)","(1138, 570)","(1152, 569)","(1163, 573)","(1175, 570)","(1193, 571)","(1214, 573)","(1195, 591)","(1177, 599)","(1164, 600)","(1152, 598)","(1138, 590)","(1132, 573)","(1152, 579)","(1163, 581)","(1176, 579)","(1206, 574)","(1176, 582)","(1164, 584)","(1152, 581)",0.22,1.01,76.0,0.38,-0.0,0.38,0.02,-10.5,0.11,0.37,72.2,92.1,140.4,68.3,83.0,155.35,59.76,77.23,128.88
2233,0,60,-56,-1,-1,0,"(1059, 457)","(1058, 488)","(1061, 518)","(1067, 548)","(1078, 576)","(1094, 603)","(1112, 628)","(1132, 652)","(1160, 660)","(1189, 655)","(1216, 637)","(1242, 615)","(1265, 589)","(1280, 558)","(1288, 525)","(1290, 491)","(1290, 456)","(1061, 442)","(1073, 432)","(1091, 433)","(1110, 438)","(1128, 448)","(1180, 447)","(1201, 436)","(1225, 430)","(1248, 431)","(1267, 441)","(1153, 474)","(1152, 496)","(1150, 518)","(1148, 541)","(1127, 549)","(1139, 556)","(1152, 560)","(1166, 556)","(1181, 551)","(1084, 470)","(1097, 466)","(1112, 467)","(1127, 475)","(1112, 478)","(1096, 478)","(1192, 476)","(1207, 467)","(1224, 467)","(1240, 471)","(1225, 478)","(1208, 479)","(1115, 584)","(1128, 581)","(1142, 580)","(1154, 584)","(1166, 581)","(1186, 582)","(1206, 587)","(1188, 608)","(1169, 616)","(1155, 618)","(1142, 615)","(1128, 605)","(1122, 585)","(1143, 589)","(1154, 591)","(1167, 590)","(1198, 588)","(1168, 600)","(1155, 601)","(1143, 599)",0.23,1.05,76.0,0.39,0.01,0.39,0.04,-11.5,0.12,0.36,73.8,93.0,141.5,74.1,90.3,159.65,60.05,78.58,129.52
2266,-65536,60,-56,-1,-1,0,"(1045, 472)","(1043, 503)","(1044, 534)","(1051, 563)","(1064, 592)","(1081, 621)","(1099, 648)","(1120, 670)","(1146, 679)","(1175, 673)","(1202, 656)","(1227, 633)","(1250, 607)","(1267, 578)","(1276, 546)","(1279, 512)","(1279, 477)","(1053, 454)","(1064, 443)","(1082, 440)","(1102, 443)","(1120, 453)","(1172, 454)","(1193, 445)","(1216, 442)","(1238, 446)","(1254, 459)","(1145, 485)","(1144, 504)","(1143, 522)","(1143, 541)","(1118, 556)","(1131, 561)","(1144, 565)","(1158, 562)","(1172, 558)","(1074, 482)","(1088, 479)","(1104, 479)","(1118, 487)","(1102, 490)","(1086, 489)","(1181, 488)","(1196, 481)","(1212, 482)","(1227, 486)","(1213, 492)","(1196, 492)","(1105, 597)","(1119, 588)","(1134, 585)","(1145, 588)","(1156, 585)","(1175, 589)","(1192, 598)","(1176, 621)","(1157, 631)","(1145, 632)","(1133, 630)","(1118, 620)","(1113, 597)","(1134, 596)","(1145, 597)","(1156, 596)","(1184, 598)","(1157, 613)","(1145, 614)","(1134, 612)",0.22,0.98,76.0,0.38,0.02,0.37,0.05,-11.0,0.11,0.28,85.4,105.7,155.5,82.65,100.95,166.15,55.82,70.11,119.35
2300,-131072,60,-56,-1,-1,0,"(1038, 481)","(1038, 514)","(1043, 545)","(1050, 575)","(1063, 603)","(1079, 629)","(1098, 654)","(1118, 677)","(1144, 686)","(1172, 682)","(1202, 664)","(1231, 643)","(1255, 616)","(1272, 585)","(1282, 551)","(1287, 515)","(1290, 477)","(1039, 464)","(1052, 455)","(1071, 457)","(1091, 463)","(1109, 473)","(1165, 473)","(1188, 462)","(1212, 456)","(1236, 457)","(1258, 465)","(1137, 501)","(1135, 525)","(1134, 549)","(1132, 574)","(1113, 582)","(1123, 588)","(1135, 592)","(1149, 588)","(1163, 583)","(1065, 495)","(1079, 492)","(1096, 492)","(1112, 501)","(1095, 504)","(1078, 504)","(1177, 502)","(1193, 494)","(1211, 493)","(1228, 497)","(1212, 505)","(1194, 506)","(1102, 615)","(1115, 615)","(1128, 613)","(1138, 617)","(1150, 614)","(1168, 615)","(1189, 617)","(1170, 637)","(1151, 645)","(1139, 646)","(1128, 644)","(1115, 635)","(1110, 618)","(1128, 623)","(1139, 625)","(1150, 623)","(1181, 619)","(1150, 628)","(1139, 629)","(1128, 627)",0.23,1.04,76.0,0.39,0.02,0.34,0.02,-11.5,0.1,0.39,73.7,92.5,139.9,67.95,81.9,156.4,57.76,77.17,126.7
2333,-262144,60,-56,-1,-1,0,"(1027, 494)","(1027, 527)","(1029, 556)","(1037, 586)","(1050, 615)","(1066, 643)","(1084, 669)","(1106, 692)","(1133, 700)","(1162, 695)","(1191, 678)","(1218, 656)","(1242, 631)","(1258, 601)","(1265, 569)","(1268, 534)","(1269, 499)","(1030, 478)","(1043, 467)","(1063, 466)","(1085, 471)","(1105, 480)","(1158, 482)","(1181, 473)","(1205, 469)","(1229, 471)","(1247, 482)","(1130, 512)","(1128, 531)","(1127, 550)","(1126, 570)","(1103, 585)","(1116, 590)","(1129, 593)","(1144, 590)","(1158, 586)","(1056, 508)","(1070, 505)","(1087, 506)","(1102, 512)","(1086, 516)","(1069, 515)","(1170, 513)","(1186, 507)","(1203, 508)","(1219, 512)","(1204, 518)","(1186, 518)","(1094, 625)","(1106, 618)","(1120, 615)","(1131, 618)","(1143, 615)","(1162, 619)","(1179, 628)","(1163, 647)","(1145, 655)","(1132, 657)","(1120, 655)","(1106, 645)","(1102, 625)","(1121, 626)","(1131, 626)","(1143, 625)","(1171, 627)","(1144, 637)","(1132, 638)","(1121, 636)",0.21,1.03,76.0,0.39,0.01,0.35,0.04,-11.0,0.11,0.3,81.7,100.8,150.5,78.6,94.1,163.4,54.58,68.35,120.05
2366,-196608,60,-56,-1,-1,0,"(1023, 511)","(1024, 543)","(1029, 573)","(1038, 602)","(1050, 631)","(1067, 658)","(1086, 684)","(1106, 708)","(1134, 716)","(1164, 712)","(1193, 694)","(1222, 671)","(1245, 643)","(1261, 610)","(1268, 575)","(1271, 538)","(1271, 501)","(1022, 489)","(1035, 481)","(1055, 482)","(1075, 488)","(1095, 499)","(1146, 498)","(1169, 487)","(1193, 480)","(1218, 480)","(1241, 487)","(1121, 525)","(1120, 550)","(1118, 575)","(1117, 600)","(1099, 608)","(1109, 614)","(1122, 618)","(1136, 614)","(1150, 608)","(1049, 519)","(1062, 516)","(1078, 517)","(1094, 525)","(1077, 528)","(1061, 527)","(1162, 525)","(1178, 517)","(1195, 517)","(1212, 521)","(1197, 528)","(1179, 529)","(1087, 639)","(1101, 640)","(1115, 640)","(1126, 643)","(1138, 640)","(1157, 640)","(1180, 640)","(1160, 660)","(1141, 669)","(1128, 670)","(1116, 668)","(1102, 659)","(1095, 642)","(1115, 649)","(1126, 651)","(1138, 649)","(1171, 642)","(1139, 652)","(1127, 653)","(1116, 651)",0.23,1.03,76.0,0.38,0.01,0.37,0.02,-11.5,0.11,0.39,71.8,91.9,140.9,65.55,79.65,155.9,62.94,80.05,133.05
2400,-196608,60,-56,-1,-1,0,"(1016, 514)","(1017, 547)","(1021, 577)","(1029, 607)","(1042, 636)","(1061, 664)","(1080, 690)","(1100, 715)","(1128, 724)","(1159, 719)","(1190, 701)","(1219, 678)","(1243, 649)","(1259, 616)","(1266, 581)","(1269, 545)","(1268, 507)","(1013, 499)","(1027, 490)","(1047, 493)","(1068, 499)","(1088, 510)","(1140, 510)","(1165, 497)","(1191, 491)","(1217, 491)","(1239, 499)","(1115, 537)","(1114, 560)","(1112, 584)","(1111, 608)","(1090, 617)","(1102, 623)","(1115, 627)","(1130, 623)","(1146, 618)","(1039, 529)","(1053, 526)","(1071, 527)","(1087, 535)","(1070, 539)","(1052, 538)","(1158, 536)","(1174, 528)","(1193, 527)","(1210, 531)","(1194, 539)","(1175, 540)","(1081, 651)","(1095, 651)","(1108, 650)","(1119, 654)","(1132, 651)","(1152, 652)","(1175, 652)","(1155, 673)","(1135, 681)","(1122, 682)","(1110, 680)","(1096, 670)","(1089, 653)","(1109, 660)","(1120, 662)","(1132, 661)","(1166, 654)","(1133, 664)","(1121, 664)","(1110, 662)",0.23,1.07,75.0,0.39,0.01,0.37,0.02,-12.0,0.12,0.37,67.3,86.5,135.6,64.1,78.75,155.45,63.23,80.17,132.58
2433,131072,60,-56,-1,-1,0,"(1013, 529)","(1012, 560)","(1016, 590)","(1024, 619)","(1037, 648)","(1054, 675)","(1073, 702)","(1094, 727)","(1122, 735)","(1153, 729)","(1183, 711)","(1211, 687)","(1234, 660)","(1249, 629)","(1256, 596)","(1258, 562)","(1257, 526)","(1010, 509)","(1023, 498)","(1042, 498)","(1063, 502)","(1083, 512)","(1138, 512)","(1162, 502)","(1187, 498)","(1210, 500)","(1230, 510)","(1110, 541)","(1110, 560)","(1109, 579)","(1109, 598)","(1086, 613)","(1099, 618)","(1112, 621)","(1126, 617)","(1141, 613)","(1036, 539)","(1050, 535)","(1066, 536)","(1083, 544)","(1066, 547)","(1049, 546)","(1150, 545)","(1166, 538)","(1184, 538)","(1201, 542)","(1185, 548)","(1167, 548)","(1073, 650)","(1087, 642)","(1103, 638)","(1114, 641)","(1127, 637)","(1148, 641)","(1168, 651)","(1150, 679)","(1130, 690)","(1116, 692)","(1103, 689)","(1087, 678)","(1081, 651)","(1103, 649)","(1115, 650)","(1127, 648)","(1160, 651)","(1129, 672)","(1115, 673)","(1103, 672)",0.19,1.04,75.0,0.4,0.0,0.38,0.06,-11.0,0.12,0.29,84.3,104.0,154.0,80.45,98.4,165.65,64.0,78.05,132.23
2466,-131072,60,-56,-1,-1,0,"(1004, 533)","(1006, 565)","(1012, 594)","(1022, 624)","(1035, 652)","(1053, 680)","(1071, 706)","(1090, 732)","(1117, 741)","(1147, 738)","(1177, 720)","(1207, 698)","(1232, 671)","(1249, 639)","(1258, 604)","(1262, 567)","(1262, 528)","(1002, 512)","(1017, 503)","(1038, 505)","(1059, 512)","(1078, 524)","(1130, 523)","(1153, 511)","(1178, 505)","(1205, 504)","(1228, 512)","(1104, 551)","(1102, 578)","(1101, 604)","(1100, 630)","(1081, 637)","(1092, 643)","(1104, 648)","(1118, 643)","(1133, 638)","(1029, 543)","(1043, 540)","(1060, 541)","(1076, 549)","(1058, 552)","(1042, 551)","(1146, 551)","(1162, 543)","(1180, 543)","(1198, 547)","(1181, 554)","(1163, 554)","(1071, 666)","(1085, 667)","(1097, 668)","(1108, 671)","(1120, 668)","(1140, 669)","(1163, 670)","(1142, 689)","(1122, 696)","(1109, 697)","(1098, 695)","(1085, 686)","(1079, 669)","(1097, 677)","(1108, 679)","(1120, 677)","(1155, 672)","(1121, 679)","(1109, 680)","(1098, 677)",0.21,1.08,75.0,0.38,0.02,0.35,0.01,-11.5,0.11,0.41,71.3,91.4,141.8,57.65,70.6,152.9,69.47,87.52,137.23
2500,-262144,60,-56,-1,-1,0,"(1004, 529)","(1004, 563)","(1010, 595)","(1019, 625)","(1032, 656)","(1051, 684)","(1070, 709)","(1090, 734)","(1116, 743)","(1147, 739)","(1179, 721)","(1211, 699)","(1238, 672)","(1257, 639)","(1266, 603)","(1271, 564)","(1273, 523)","(996, 513)","(1011, 504)","(1032, 506)","(1054, 513)","(1075, 523)","(1130, 523)","(1156, 512)","(1184, 506)","(1213, 507)","(1239, 515)","(1101, 554)","(1100, 581)","(1097, 607)","(1095, 634)","(1077, 640)","(1088, 646)","(1100, 650)","(1115, 646)","(1131, 641)","(1024, 544)","(1039, 541)","(1057, 543)","(1074, 553)","(1055, 556)","(1037, 555)","(1148, 555)","(1166, 545)","(1186, 544)","(1206, 548)","(1188, 558)","(1167, 559)","(1068, 669)","(1081, 671)","(1093, 671)","(1104, 675)","(1116, 672)","(1137, 673)","(1162, 673)","(1139, 693)","(1118, 700)","(1105, 701)","(1093, 698)","(1081, 689)","(1076, 672)","(1094, 680)","(1105, 683)","(1117, 681)","(1153, 675)","(1117, 682)","(1105, 683)","(1094, 680)",0.24,1.13,75.0,0.4,0.02,0.34,0.01,-14.0,0.11,0.42,82.7,101.0,147.3,53.1,64.8,150.1,59.52,75.58,126.58
2533,1769472,60,-56,-1,-1,0,"(1007, 540)","(1008, 572)","(1013, 602)","(1021, 631)","(1032, 660)","(1048, 689)","(1065, 716)","(1085, 742)","(1113, 750)","(1144, 746)","(1174, 726)","(1202, 702)","(1225, 674)","(1240, 642)","(1246, 608)","(1248, 572)","(1247, 536)","(1006, 521)","(1018, 511)","(1037, 512)","(1056, 518)","(1075, 528)","(1124, 528)","(1146, 516)","(1170, 510)","(1196, 510)","(1217, 521)","(1100, 556)","(1098, 582)","(1097, 607)","(1095, 632)","(1077, 640)","(1088, 646)","(1100, 651)","(1115, 646)","(1129, 641)","(1030, 550)","(1042, 544)","(1059, 546)","(1074, 556)","(1058, 559)","(1041, 558)","(1140, 557)","(1155, 546)","(1173, 546)","(1189, 552)","(1175, 559)","(1157, 560)","(1069, 672)","(1081, 673)","(1094, 673)","(1105, 676)","(1116, 673)","(1136, 675)","(1160, 676)","(1139, 695)","(1120, 702)","(1107, 703)","(1095, 700)","(1082, 691)","(1076, 675)","(1095, 682)","(1105, 684)","(1117, 683)","(1152, 678)","(1118, 685)","(1106, 685)","(1095, 683)",0.27,1.12,75.0,0.39,0.01,0.37,0.02,-14.0,0.12,0.39,69.2,89.5,141.7,50.3,62.55,146.65,66.41,82.0,132.05
2566,-393216,60,-56,-1,-1,0,"(1009, 537)","(1009, 568)","(1014, 598)","(1022, 627)","(1034, 657)","(1050, 684)","(1068, 710)","(1088, 735)","(1114, 743)","(1144, 740)","(1173, 722)","(1200, 700)","(1224, 673)","(1240, 642)","(1247, 608)","(1250, 573)","(1249, 536)","(1009, 514)","(1022, 506)","(1041, 509)","(1060, 516)","(1077, 527)","(1125, 526)","(1148, 515)","(1172, 510)","(1197, 511)","(1217, 521)","(1102, 555)","(1100, 580)","(1098, 605)","(1096, 630)","(1077, 637)","(1088, 644)","(1100, 649)","(1115, 645)","(1129, 641)","(1032, 548)","(1045, 543)","(1061, 545)","(1076, 555)","(1059, 557)","(1043, 556)","(1142, 557)","(1157, 547)","(1174, 547)","(1190, 553)","(1176, 560)","(1158, 560)","(1069, 673)","(1082, 673)","(1094, 672)","(1104, 676)","(1115, 673)","(1135, 676)","(1157, 678)","(1137, 696)","(1118, 702)","(1106, 702)","(1095, 700)","(1082, 691)","(1076, 676)","(1094, 682)","(1104, 684)","(1116, 683)","(1149, 679)","(1117, 685)","(1105, 685)","(1095, 682)",0.27,1.11,75.0,0.38,0.06,0.36,0.02,-13.5,0.11,0.39,79.5,98.3,150.9,52.6,63.25,148.95,64.52,80.23,135.76
2600,196608,60,-56,-1,-1,0,"(1014, 539)","(1015, 570)","(1019, 599)","(1027, 628)","(1038, 657)","(1054, 685)","(1070, 711)","(1089, 736)","(1116, 744)","(1146, 740)","(1176, 722)","(1204, 700)","(1227, 673)","(1243, 642)","(1250, 608)","(1253, 573)","(1253, 537)","(1012, 513)","(1025, 505)","(1044, 507)","(1063, 514)","(1080, 525)","(1129, 525)","(1152, 514)","(1176, 508)","(1201, 509)","(1222, 519)","(1105, 553)","(1103, 579)","(1100, 605)","(1098, 630)","(1081, 637)","(1091, 643)","(1104, 648)","(1118, 644)","(1133, 639)","(1036, 546)","(1048, 542)","(1064, 544)","(1079, 554)","(1063, 555)","(1047, 554)","(1147, 555)","(1161, 546)","(1179, 546)","(1195, 551)","(1180, 557)","(1163, 558)","(1073, 670)","(1085, 670)","(1097, 669)","(1107, 673)","(1119, 671)","(1139, 673)","(1162, 675)","(1141, 695)","(1122, 702)","(1109, 702)","(1098, 700)","(1085, 690)","(1080, 673)","(1098, 679)","(1108, 682)","(1120, 681)","(1153, 677)","(1121, 684)","(1109, 684)","(1098, 682)",0.24,1.14,75.0,0.38,0.05,0.37,0.02,-12.0,0.11,0.4,79.1,99.7,148.5,55.45,68.65,150.15,58.58,75.47,128.17
2633,458752,60,-56,-1,-1,0,"(1023, 540)","(1023, 569)","(1028, 599)","(1034, 627)","(1045, 655)","(1060, 682)","(1076, 707)","(1095, 730)","(1121, 739)","(1150, 736)","(1181, 719)","(1211, 698)","(1236, 672)","(1252, 641)","(1262, 608)","(1266, 572)","(1266, 535)","(1021, 512)","(1033, 502)","(1051, 504)","(1069, 511)","(1086, 522)","(1134, 522)","(1157, 511)","(1182, 506)","(1208, 507)","(1230, 517)","(1110, 550)","(1107, 575)","(1105, 600)","(1102, 625)","(1087, 633)","(1096, 639)","(1107, 644)","(1121, 640)","(1136, 636)","(1044, 544)","(1056, 539)","(1071, 541)","(1086, 552)","(1070, 553)","(1054, 552)","(1153, 553)","(1167, 543)","(1185, 543)","(1202, 549)","(1187, 556)","(1169, 556)","(1078, 666)","(1090, 666)","(1101, 666)","(1111, 669)","(1123, 667)","(1143, 669)","(1167, 671)","(1144, 689)","(1125, 695)","(1112, 695)","(1101, 693)","(1090, 684)","(1085, 669)","(1102, 675)","(1112, 678)","(1124, 677)","(1158, 673)","(1124, 678)","(1112, 678)","(1102, 675)",0.26,1.16,75.0,0.37,0.05,0.36,0.01,-13.5,0.1,0.39,80.5,101.0,150.8,58.1,70.8,152.8,66.05,87.41,140.0
2666,917504,60,-56,-1,-1,0,"(1027, 525)","(1025, 556)","(1027, 586)","(1033, 616)","(1044, 646)","(1059, 676)","(1076, 704)","(1096, 728)","(1124, 735)","(1154, 730)","(1183, 714)","(1211, 694)","(1234, 670)","(1251, 640)","(1259, 607)","(1262, 573)","(1263, 538)","(1028, 507)","(1039, 497)","(1058, 498)","(1077, 504)","(1094, 514)","(1144, 513)","(1167, 504)","(1191, 501)","(1215, 504)","(1232, 516)","(1117, 543)","(1115, 561)","(1113, 579)","(1111, 598)","(1090, 613)","(1102, 618)","(1115, 621)","(1129, 618)","(1143, 614)","(1051, 538)","(1064, 534)","(1079, 535)","(1093, 543)","(1078, 546)","(1062, 545)","(1156, 544)","(1172, 537)","(1188, 539)","(1203, 545)","(1188, 549)","(1171, 548)","(1083, 657)","(1093, 649)","(1106, 644)","(1115, 647)","(1126, 644)","(1145, 648)","(1163, 657)","(1149, 676)","(1132, 685)","(1120, 687)","(1109, 685)","(1095, 677)","(1091, 657)","(1107, 655)","(1116, 656)","(1126, 655)","(1156, 656)","(1130, 668)","(1119, 669)","(1110, 668)",0.22,1.11,75.0,0.37,0.06,0.33,0.04,-12.0,0.11,0.28,82.2,102.1,153.0,79.7,96.0,166.45,58.29,73.64,121.7
2700,1179648,60,-56,-1,-1,0,"(1034, 512)","(1033, 544)","(1036, 575)","(1042, 604)","(1053, 633)","(1069, 661)","(1087, 688)","(1106, 713)","(1134, 724)","(1166, 721)","(1198, 705)","(1229, 684)","(1255, 656)","(1272, 624)","(1282, 590)","(1287, 552)","(1289, 513)","(1031, 494)","(1043, 487)","(1061, 489)","(1080, 496)","(1099, 507)","(1153, 506)","(1177, 495)","(1203, 491)","(1228, 492)","(1251, 500)","(1126, 535)","(1123, 559)","(1121, 584)","(1118, 608)","(1100, 615)","(1110, 622)","(1123, 626)","(1138, 623)","(1153, 618)","(1056, 526)","(1069, 524)","(1085, 525)","(1100, 533)","(1084, 536)","(1067, 535)","(1169, 536)","(1185, 529)","(1203, 529)","(1220, 533)","(1204, 540)","(1185, 540)","(1092, 647)","(1103, 647)","(1115, 647)","(1126, 651)","(1138, 648)","(1158, 650)","(1181, 653)","(1159, 671)","(1139, 677)","(1127, 678)","(1115, 674)","(1103, 665)","(1099, 649)","(1116, 657)","(1126, 660)","(1138, 659)","(1172, 654)","(1138, 660)","(1127, 660)","(1116, 657)",0.21,1.15,75.0,0.37,0.06,0.34,0.01,-11.5,0.1,0.38,74.7,94.3,141.8,66.7,80.35,156.45,62.41,81.64,129.88
2733,2031616,60,-56,-1,-1,0,"(1039, 504)","(1040, 537)","(1045, 568)","(1053, 598)","(1065, 627)","(1082, 654)","(1099, 681)","(1119, 707)","(1146, 716)","(1177, 713)","(1208, 697)","(1236, 676)","(1260, 649)","(1278, 618)","(1288, 583)","(1293, 546)","(1296, 507)","(1039, 485)","(1052, 477)","(1071, 478)","(1090, 485)","(1108, 496)","(1162, 495)","(1186, 485)","(1211, 480)","(1237, 481)","(1260, 490)","(1134, 523)","(1133, 548)","(1131, 572)","(1128, 596)","(1111, 604)","(1121, 610)","(1133, 614)","(1147, 610)","(1161, 605)","(1066, 516)","(1079, 513)","(1095, 514)","(1110, 523)","(1093, 525)","(1077, 524)","(1177, 525)","(1193, 517)","(1210, 517)","(1228, 521)","(1211, 529)","(1193, 529)","(1101, 636)","(1113, 635)","(1125, 634)","(1136, 638)","(1148, 635)","(1167, 637)","(1190, 640)","(1169, 658)","(1150, 665)","(1138, 666)","(1126, 664)","(1114, 655)","(1109, 638)","(1126, 644)","(1136, 646)","(1148, 645)","(1181, 641)","(1149, 649)","(1138, 649)","(1127, 647)",0.23,1.11,75.0,0.37,0.05,0.34,0.02,-12.0,0.1,0.37,74.4,92.7,140.6,66.7,82.3,157.3,61.94,82.64,129.58
2766,2621440,60,-56,-1,-1,0,"(1047, 495)","(1048, 528)","(1053, 558)","(1063, 588)","(1074, 616)","(1090, 644)","(1108, 671)","(1129, 694)","(1157, 703)","(1188, 700)","(1217, 685)","(1245, 664)","(1266, 638)","(1283, 607)","(1292, 573)","(1298, 537)","(1301, 500)","(1050, 473)","(1063, 464)","(1083, 465)","(1102, 472)","(1120, 482)","(1172, 482)","(1195, 472)","(1220, 468)","(1245, 470)","(1267, 479)","(1144, 509)","(1143, 532)","(1141, 555)","(1139, 578)","(1121, 588)","(1131, 594)","(1143, 598)","(1157, 594)","(1170, 589)","(1077, 502)","(1090, 499)","(1106, 500)","(1121, 509)","(1104, 512)","(1088, 511)","(1185, 511)","(1201, 503)","(1218, 504)","(1235, 509)","(1219, 515)","(1201, 515)","(1112, 623)","(1123, 620)","(1135, 619)","(1146, 622)","(1157, 619)","(1175, 621)","(1198, 626)","(1178, 641)","(1161, 648)","(1149, 649)","(1137, 647)","(1125, 640)","(1119, 625)","(1136, 628)","(1146, 630)","(1158, 629)","(1189, 626)","(1160, 631)","(1148, 633)","(1138, 630)",0.23,1.11,75.0,0.37,0.04,0.33,0.02,-12.5,0.1,0.35,75.7,93.6,142.1,68.1,83.5,156.15,58.29,76.11,122.0
2800,2490368,60,-56,-1,-1,0,"(1059, 476)","(1058, 507)","(1061, 537)","(1068, 566)","(1079, 594)","(1094, 622)","(1111, 650)","(1132, 674)","(1160, 683)","(1191, 681)","(1221, 666)","(1248, 645)","(1271, 619)","(1287, 588)","(1296, 554)","(1300, 518)","(1301, 482)","(1061, 457)","(1075, 450)","(1094, 451)","(1113, 458)","(1131, 469)","(1182, 469)","(1204, 459)","(1227, 454)","(1252, 456)","(1272, 465)","(1155, 494)","(1153, 516)","(1150, 539)","(1148, 562)","(1129, 570)","(1140, 576)","(1152, 580)","(1166, 576)","(1179, 571)","(1087, 487)","(1100, 484)","(1116, 485)","(1130, 492)","(1114, 496)","(1099, 495)","(1194, 495)","(1210, 489)","(1227, 490)","(1242, 494)","(1227, 501)","(1210, 500)","(1120, 605)","(1131, 602)","(1143, 601)","(1154, 604)","(1165, 602)","(1183, 604)","(1204, 609)","(1185, 624)","(1168, 630)","(1155, 631)","(1144, 628)","(1132, 621)","(1128, 606)","(1143, 610)","(1154, 612)","(1165, 611)","(1195, 609)","(1167, 614)","(1155, 615)","(1145, 612)",0.22,1.1,75.0,0.37,0.06,0.34,0.02,-12.0,0.09,0.35,70.2,89.5,137.8,70.05,85.25,156.85,57.35,74.05,119.88
2833,1900544,60,-56,-1,-1,0,"(1059, 458)","(1057, 488)","(1059, 517)","(1067, 546)","(1079, 574)","(1097, 601)","(1117, 625)","(1138, 648)","(1165, 657)","(1193, 653)","(1220, 637)","(1247, 616)","(1270, 590)","(1285, 562)","(1293, 530)","(1296, 497)","(1296, 464)","(1071, 439)","(1086, 432)","(1105, 432)","(1124, 438)","(1143, 448)","(1193, 451)","(1214, 441)","(1237, 437)","(1258, 439)","(1275, 448)","(1167, 478)","(1165, 498)","(1163, 517)","(1162, 537)","(1141, 549)","(1152, 554)","(1164, 558)","(1177, 556)","(1190, 551)","(1095, 470)","(1110, 468)","(1125, 468)","(1139, 476)","(1124, 479)","(1108, 478)","(1203, 479)","(1218, 473)","(1234, 474)","(1249, 477)","(1235, 485)","(1218, 484)","(1130, 586)","(1143, 582)","(1156, 580)","(1165, 584)","(1175, 581)","(1192, 584)","(1210, 590)","(1193, 605)","(1177, 611)","(1166, 612)","(1156, 610)","(1143, 602)","(1138, 587)","(1156, 590)","(1165, 592)","(1175, 591)","(1202, 589)","(1177, 596)","(1166, 597)","(1157, 594)",0.23,1.0,75.0,0.38,0.04,0.33,0.02,-11.5,0.09,0.32,75.9,94.5,142.6,70.75,85.55,157.4,48.94,63.35,108.29
2866,1966080,60,-56,-1,-1,0,"(1084, 444)","(1085, 474)","(1088, 502)","(1093, 530)","(1102, 557)","(1116, 583)","(1132, 608)","(1153, 629)","(1179, 636)","(1208, 633)","(1235, 618)","(1260, 598)","(1280, 574)","(1294, 545)","(1302, 515)","(1306, 483)","(1308, 450)","(1089, 428)","(1101, 419)","(1119, 419)","(1137, 425)","(1155, 434)","(1203, 435)","(1224, 426)","(1245, 422)","(1267, 423)","(1286, 432)","(1178, 458)","(1176, 479)","(1174, 501)","(1172, 523)","(1154, 532)","(1163, 537)","(1174, 541)","(1187, 537)","(1200, 533)","(1112, 453)","(1124, 450)","(1139, 451)","(1153, 459)","(1138, 461)","(1123, 461)","(1214, 461)","(1228, 454)","(1244, 454)","(1259, 459)","(1245, 465)","(1229, 465)","(1140, 566)","(1153, 563)","(1165, 561)","(1175, 565)","(1186, 562)","(1202, 564)","(1221, 569)","(1204, 584)","(1188, 590)","(1176, 591)","(1165, 589)","(1153, 582)","(1147, 567)","(1165, 571)","(1176, 573)","(1186, 571)","(1213, 569)","(1187, 574)","(1177, 575)","(1166, 573)",0.24,1.0,75.0,0.38,0.02,0.36,0.02,-11.0,0.09,0.36,69.7,89.7,140.3,71.9,85.9,156.75,53.7,72.05,120.05
2900,1966080,60,-56,-1,-1,0,"(1095, 424)","(1095, 453)","(1098, 480)","(1103, 507)","(1112, 533)","(1125, 559)","(1141, 583)","(1160, 604)","(1186, 611)","(1213, 609)","(1239, 594)","(1264, 575)","(1285, 551)","(1299, 524)","(1307, 494)","(1311, 463)","(1313, 431)","(1101, 409)","(1114, 401)","(1132, 401)","(1150, 407)","(1167, 416)","(1215, 417)","(1234, 408)","(1254, 404)","(1275, 405)","(1292, 413)","(1189, 441)","(1187, 461)","(1185, 481)","(1183, 501)","(1164, 511)","(1174, 516)","(1185, 520)","(1198, 516)","(1210, 512)","(1124, 436)","(1136, 432)","(1151, 433)","(1164, 441)","(1150, 443)","(1135, 443)","(1223, 443)","(1237, 436)","(1252, 436)","(1266, 440)","(1253, 447)","(1237, 447)","(1151, 545)","(1164, 541)","(1176, 540)","(1186, 543)","(1196, 541)","(1211, 543)","(1229, 548)","(1213, 562)","(1197, 569)","(1186, 569)","(1175, 568)","(1163, 560)","(1158, 546)","(1176, 549)","(1186, 551)","(1196, 550)","(1221, 548)","(1197, 553)","(1186, 554)","(1176, 552)",0.25,0.97,74.0,0.38,0.02,0.35,0.02,-11.0,0.09,0.35,67.9,88.6,138.9,70.9,85.25,155.5,50.41,69.23,117.0
2933,1769472,60,-56,-1,-1,0,"(1109, 406)","(1108, 435)","(1111, 462)","(1115, 489)","(1123, 515)","(1136, 540)","(1152, 562)","(1171, 582)","(1196, 589)","(1223, 586)","(1250, 572)","(1275, 553)","(1295, 530)","(1309, 503)","(1317, 474)","(1322, 444)","(1324, 412)","(1114, 392)","(1126, 384)","(1144, 383)","(1161, 389)","(1178, 398)","(1225, 399)","(1244, 390)","(1265, 386)","(1286, 387)","(1303, 395)","(1199, 421)","(1198, 441)","(1196, 461)","(1194, 481)","(1175, 491)","(1184, 495)","(1195, 499)","(1208, 496)","(1220, 492)","(1135, 418)","(1148, 415)","(1162, 416)","(1176, 423)","(1161, 426)","(1146, 425)","(1234, 425)","(1248, 418)","(1263, 418)","(1277, 422)","(1264, 429)","(1248, 429)","(1162, 524)","(1174, 521)","(1187, 519)","(1196, 522)","(1206, 520)","(1221, 522)","(1239, 527)","(1222, 541)","(1207, 547)","(1196, 548)","(1185, 546)","(1173, 539)","(1169, 525)","(1186, 528)","(1196, 530)","(1206, 529)","(1231, 527)","(1206, 532)","(1196, 533)","(1186, 531)",0.25,0.97,74.0,0.39,0.02,0.35,0.02,-11.0,0.09,0.35,67.9,88.4,136.9,69.05,83.05,153.9,49.35,68.17,114.41
2966,1310720,60,-56,-1,-1,0,"(1118, 393)","(1118, 421)","(1121, 447)","(1126, 473)","(1134, 498)","(1147, 522)","(1163, 544)","(1181, 563)","(1205, 569)","(1231, 566)","(1256, 552)","(1281, 535)","(1300, 513)","(1314, 488)","(1323, 460)","(1328, 430)","(1332, 399)","(1124, 377)","(1138, 369)","(1155, 369)","(1172, 374)","(1189, 383)","(1233, 384)","(1252, 375)","(1272, 371)","(1293, 372)","(1310, 380)","(1209, 405)","(1207, 425)","(1205, 445)","(1203, 465)","(1185, 474)","(1194, 478)","(1204, 482)","(1216, 479)","(1228, 475)","(1147, 402)","(1159, 398)","(1173, 399)","(1186, 407)","(1172, 410)","(1158, 409)","(1242, 409)","(1255, 402)","(1270, 402)","(1284, 406)","(1271, 413)","(1256, 412)","(1172, 507)","(1184, 503)","(1196, 501)","(1205, 504)","(1214, 501)","(1229, 504)","(1245, 509)","(1230, 522)","(1215, 528)","(1205, 529)","(1195, 527)","(1184, 521)","(1179, 507)","(1196, 510)","(1205, 512)","(1214, 510)","(1238, 509)","(1215, 513)","(1205, 514)","(1196, 512)",0.25,0.96,74.0,0.38,0.02,0.34,0.02,-11.5,0.08,0.36,64.3,83.8,132.5,65.85,80.0,151.2,46.17,64.64,110.52
3000,1114112,60,-56,-1,-1,0,"(1130, 377)","(1129, 404)","(1131, 430)","(1135, 455)","(1143, 479)","(1156, 503)","(1171, 524)","(1189, 543)","(1213, 549)","(1238, 547)","(1262, 533)","(1285, 516)","(1304, 496)","(1318, 471)","(1326, 444)","(1331, 415)","(1333, 386)","(1137, 361)","(1149, 353)","(1166, 354)","(1183, 359)","(1199, 369)","(1241, 370)","(1259, 361)","(1278, 356)","(1298, 358)","(1314, 366)","(1218, 391)","(1216, 410)","(1214, 429)","(1212, 448)","(1194, 456)","(1203, 461)","(1213, 465)","(1225, 462)","(1236, 458)","(1158, 387)","(1170, 384)","(1184, 385)","(1196, 392)","(1183, 394)","(1169, 394)","(1249, 394)","(1263, 388)","(1277, 388)","(1289, 392)","(1278, 398)","(1263, 398)","(1181, 488)","(1193, 485)","(1205, 483)","(1213, 486)","(1223, 484)","(1237, 486)","(1253, 491)","(1237, 504)","(1223, 510)","(1213, 511)","(1203, 509)","(1192, 503)","(1188, 489)","(1205, 492)","(1213, 494)","(1223, 493)","(1246, 492)","(1223, 495)","(1214, 496)","(1205, 494)",0.25,0.95,74.0,0.38,0.03,0.35,0.02,-10.0,0.08,0.36,65.7,85.7,134.0,64.5,78.15,149.85,44.88,61.17,106.41
3033,655360,60,-56,-1,-1,0,"(1142, 367)","(1141, 393)","(1143, 418)","(1146, 442)","(1154, 466)","(1167, 488)","(1183, 508)","(1201, 525)","(1223, 531)","(1247, 527)","(1270, 514)","(1293, 497)","(1311, 476)","(1325, 452)","(1333, 426)","(1337, 399)","(1339, 371)","(1148, 352)","(1159, 344)","(1175, 342)","(1191, 347)","(1206, 355)","(1249, 356)","(1266, 347)","(1285, 344)","(1303, 346)","(1318, 354)","(1226, 379)","(1224, 397)","(1223, 414)","(1221, 432)","(1204, 441)","(1212, 445)","(1222, 448)","(1233, 445)","(1244, 442)","(1169, 378)","(1181, 376)","(1193, 376)","(1205, 381)","(1192, 384)","(1179, 383)","(1255, 382)","(1268, 378)","(1282, 379)","(1294, 381)","(1282, 386)","(1268, 386)","(1192, 472)","(1203, 468)","(1214, 467)","(1223, 469)","(1232, 467)","(1245, 470)","(1260, 474)","(1246, 488)","(1232, 494)","(1222, 494)","(1213, 493)","(1202, 486)","(1199, 473)","(1214, 475)","(1223, 476)","(1232, 476)","(1253, 475)","(1232, 480)","(1223, 481)","(1214, 479)",0.19,0.95,74.0,0.38,0.01,0.34,0.02,-8.0,0.09,0.34,64.0,83.9,130.9,64.8,76.8,145.7,43.47,60.11,104.0
3066,393216,60,-56,-1,-1,0,"(1149, 357)","(1149, 383)","(1152, 408)","(1156, 432)","(1164, 455)","(1176, 476)","(1192, 494)","(1209, 509)","(1231, 514)","(1254, 512)","(1276, 499)","(1299, 483)","(1317, 465)","(1330, 442)","(1337, 416)","(1342, 389)","(1346, 361)","(1156, 343)","(1168, 334)","(1184, 333)","(1201, 337)","(1216, 346)","(1253, 347)","(1270, 338)","(1290, 334)","(1309, 335)","(1324, 344)","(1234, 369)","(1232, 386)","(1231, 402)","(1229, 419)","(1212, 429)","(1220, 432)","(1230, 435)","(1241, 433)","(1251, 429)","(1178, 368)","(1190, 367)","(1202, 368)","(1213, 371)","(1202, 375)","(1189, 374)","(1262, 373)","(1274, 369)","(1287, 369)","(1299, 371)","(1288, 377)","(1274, 377)","(1200, 460)","(1211, 456)","(1222, 454)","(1230, 456)","(1239, 454)","(1251, 456)","(1266, 461)","(1252, 474)","(1239, 478)","(1230, 479)","(1221, 478)","(1211, 473)","(1207, 461)","(1222, 462)","(1230, 463)","(1239, 462)","(1259, 461)","(1239, 465)","(1230, 465)","(1222, 464)",0.21,0.93,74.0,0.36,0.0,0.33,0.02,-8.0,0.08,0.34,61.6,80.8,129.0,59.55,70.25,140.65,40.58,55.94,98.7
3100,327680,60,-56,-1,-1,0,"(1159, 347)","(1159, 372)","(1160, 397)","(1164, 421)","(1171, 443)","(1183, 464)","(1198, 481)","(1215, 496)","(1236, 501)","(1259, 498)","(1280, 485)","(1301, 470)","(1318, 452)","(1329, 430)","(1336, 405)","(1341, 379)","(1343, 353)","(1167, 332)","(1179, 323)","(1194, 322)","(1210, 327)","(1224, 335)","(1260, 336)","(1277, 328)","(1295, 324)","(1312, 325)","(1326, 334)","(1241, 357)","(1240, 374)","(1238, 390)","(1236, 407)","(1220, 417)","(1228, 420)","(1237, 423)","(1247, 421)","(1257, 418)","(1187, 358)","(1198, 356)","(1210, 356)","(1221, 361)","(1209, 363)","(1197, 363)","(1268, 362)","(1279, 358)","(1292, 358)","(1303, 360)","(1292, 365)","(1280, 365)","(1206, 447)","(1218, 443)","(1229, 440)","(1237, 443)","(1246, 441)","(1258, 443)","(1272, 449)","(1258, 462)","(1246, 467)","(1236, 468)","(1227, 467)","(1216, 461)","(1212, 448)","(1229, 449)","(1237, 450)","(1246, 449)","(1265, 449)","(1246, 454)","(1237, 454)","(1228, 453)",0.2,0.9,73.0,0.37,0.01,0.35,0.02,-7.0,0.08,0.34,62.8,82.8,131.3,58.2,68.45,135.35,40.76,54.47,96.47
3133,0,60,-56,-1,-1,0,"(1165, 338)","(1165, 363)","(1167, 387)","(1171, 410)","(1177, 431)","(1189, 451)","(1204, 468)","(1221, 483)","(1242, 488)","(1264, 485)","(1285, 473)","(1306, 458)","(1323, 440)","(1335, 419)","(1343, 396)","(1348, 371)","(1352, 345)","(1174, 324)","(1185, 316)","(1201, 314)","(1216, 319)","(1231, 327)","(1266, 327)","(1282, 319)","(1300, 315)","(1318, 317)","(1332, 325)","(1247, 347)","(1246, 364)","(1244, 381)","(1242, 398)","(1226, 407)","(1234, 410)","(1243, 413)","(1253, 410)","(1262, 408)","(1194, 348)","(1205, 346)","(1216, 346)","(1227, 351)","(1216, 353)","(1204, 353)","(1274, 352)","(1286, 347)","(1298, 347)","(1310, 350)","(1299, 355)","(1286, 355)","(1211, 435)","(1223, 432)","(1234, 429)","(1242, 432)","(1251, 430)","(1263, 432)","(1277, 436)","(1264, 450)","(1251, 456)","(1242, 457)","(1233, 456)","(1222, 450)","(1217, 436)","(1234, 438)","(1242, 439)","(1251, 438)","(1271, 437)","(1251, 442)","(1242, 443)","(1234, 442)",0.22,0.9,73.0,0.36,0.01,0.35,0.02,-7.5,0.08,0.36,57.4,77.5,124.2,55.05,66.0,131.1,38.47,51.11,93.41
3166,-393216,60,-56,-1,-1,0,"(1174, 327)","(1173, 351)","(1174, 375)","(1177, 398)","(1184, 420)","(1195, 440)","(1210, 457)","(1227, 472)","(1248, 477)","(1269, 474)","(1290, 462)","(1309, 447)","(1325, 429)","(1336, 409)","(1342, 385)","(1346, 361)","(1349, 336)","(1184, 314)","(1195, 306)","(1210, 306)","(1225, 310)","(1239, 318)","(1273, 319)","(1288, 311)","(1305, 307)","(1322, 309)","(1335, 317)","(1255, 338)","(1253, 355)","(1251, 371)","(1250, 388)","(1233, 397)","(1241, 400)","(1250, 403)","(1260, 401)","(1269, 398)","(1201, 337)","(1211, 335)","(1223, 335)","(1234, 341)","(1222, 343)","(1210, 342)","(1281, 343)","(1292, 337)","(1304, 337)","(1315, 340)","(1305, 345)","(1293, 345)","(1218, 425)","(1230, 422)","(1241, 419)","(1249, 422)","(1258, 420)","(1270, 423)","(1284, 427)","(1270, 440)","(1258, 445)","(1249, 446)","(1240, 444)","(1229, 438)","(1223, 426)","(1241, 428)","(1249, 429)","(1258, 429)","(1278, 428)","(1258, 431)","(1249, 432)","(1241, 431)",0.23,0.89,73.0,0.38,0.02,0.37,0.02,-8.0,0.08,0.35,59.9,79.4,126.1,53.45,64.15,131.6,40.64,53.05,96.35
3200,-524288,60,-56,-1,-1,0,"(1178, 321)","(1178, 345)","(1180, 369)","(1183, 391)","(1189, 413)","(1200, 432)","(1215, 449)","(1232, 464)","(1253, 468)","(1274, 465)","(1294, 453)","(1313, 439)","(1328, 422)","(1339, 402)","(1345, 379)","(1350, 355)","(1353, 330)","(1188, 308)","(1199, 300)","(1215, 299)","(1230, 303)","(1244, 311)","(1279, 311)","(1293, 305)","(1310, 301)","(1326, 303)","(1339, 312)","(1261, 330)","(1259, 347)","(1257, 363)","(1256, 380)","(1239, 389)","(1247, 392)","(1256, 395)","(1265, 393)","(1274, 390)","(1206, 330)","(1217, 327)","(1228, 327)","(1239, 333)","(1228, 335)","(1216, 335)","(1285, 335)","(1297, 329)","(1309, 329)","(1319, 333)","(1309, 337)","(1297, 337)","(1223, 416)","(1235, 413)","(1246, 411)","(1255, 414)","(1263, 412)","(1275, 414)","(1288, 419)","(1275, 430)","(1263, 435)","(1254, 436)","(1245, 434)","(1234, 429)","(1228, 417)","(1246, 419)","(1255, 421)","(1263, 420)","(1282, 419)","(1263, 422)","(1255, 423)","(1246, 421)",0.23,0.88,73.0,0.38,0.03,0.37,0.02,-8.0,0.07,0.36,57.2,76.8,123.9,51.9,63.3,133.95,37.05,48.76,90.29
3233,-1048576,60,-56,-1,-1,0,"(1186, 315)","(1185, 338)","(1186, 361)","(1189, 384)","(1194, 405)","(1205, 425)","(1220, 442)","(1238, 456)","(1258, 461)","(1280, 458)","(1300, 445)","(1320, 430)","(1335, 412)","(1345, 391)","(1350, 368)","(1354, 345)","(1356, 320)","(1195, 303)","(1206, 296)","(1221, 295)","(1236, 299)","(1249, 307)","(1283, 307)","(1297, 300)","(1314, 295)","(1330, 296)","(1343, 305)","(1265, 325)","(1264, 342)","(1262, 358)","(1261, 374)","(1244, 382)","(1252, 386)","(1261, 389)","(1270, 386)","(1279, 383)","(1213, 324)","(1223, 321)","(1234, 321)","(1244, 327)","(1233, 329)","(1222, 329)","(1290, 328)","(1301, 323)","(1313, 323)","(1323, 326)","(1313, 331)","(1301, 331)","(1230, 410)","(1242, 407)","(1252, 405)","(1260, 407)","(1268, 405)","(1279, 408)","(1292, 412)","(1279, 422)","(1268, 426)","(1259, 427)","(1250, 426)","(1240, 421)","(1235, 410)","(1252, 413)","(1260, 414)","(1268, 413)","(1286, 412)","(1268, 414)","(1259, 414)","(1251, 413)",0.24,0.86,73.0,0.37,0.02,0.36,0.01,-8.0,0.08,0.36,55.8,74.8,121.2,47.7,59.85,133.2,39.41,52.41,90.94
3266,-1310720,60,-56,-1,-1,0,"(1191, 309)","(1190, 333)","(1192, 356)","(1195, 378)","(1201, 399)","(1212, 418)","(1226, 436)","(1243, 450)","(1262, 454)","(1283, 451)","(1303, 439)","(1321, 424)","(1337, 407)","(1347, 387)","(1353, 365)","(1358, 342)","(1360, 317)","(1200, 299)","(1211, 292)","(1226, 291)","(1241, 296)","(1255, 303)","(1287, 303)","(1302, 295)","(1318, 292)","(1334, 293)","(1346, 301)","(1270, 321)","(1269, 337)","(1267, 353)","(1265, 370)","(1249, 377)","(1257, 381)","(1266, 383)","(1275, 381)","(1283, 378)","(1218, 319)","(1228, 316)","(1240, 316)","(1249, 323)","(1239, 325)","(1227, 325)","(1294, 324)","(1305, 317)","(1317, 317)","(1326, 322)","(1317, 326)","(1305, 326)","(1235, 404)","(1246, 400)","(1256, 399)","(1264, 401)","(1272, 399)","(1283, 402)","(1295, 406)","(1283, 417)","(1272, 420)","(1263, 421)","(1254, 420)","(1245, 415)","(1240, 404)","(1256, 406)","(1264, 408)","(1272, 407)","(1289, 407)","(1272, 408)","(1263, 409)","(1255, 407)",0.28,0.88,72.0,0.37,0.01,0.35,0.01,-9.0,0.07,0.36,55.0,75.0,122.0,47.8,60.05,134.35,35.58,50.11,88.76
3300,917504,60,-56,-1,-1,0,"(1195, 307)","(1195, 330)","(1197, 353)","(1200, 375)","(1207, 395)","(1218, 414)","(1232, 431)","(1248, 444)","(1268, 449)","(1288, 446)","(1306, 434)","(1325, 420)","(1339, 403)","(1350, 383)","(1356, 361)","(1360, 337)","(1362, 314)","(1205, 295)","(1217, 288)","(1232, 288)","(1247, 293)","(1260, 300)","(1289, 301)","(1303, 294)","(1318, 290)","(1334, 291)","(1347, 298)","(1274, 317)","(1273, 333)","(1272, 349)","(1271, 365)","(1255, 373)","(1262, 376)","(1271, 379)","(1279, 377)","(1287, 374)","(1223, 315)","(1233, 311)","(1244, 312)","(1254, 319)","(1243, 321)","(1232, 320)","(1296, 320)","(1307, 313)","(1318, 314)","(1328, 317)","(1319, 322)","(1307, 322)","(1240, 399)","(1252, 396)","(1262, 394)","(1269, 397)","(1277, 395)","(1287, 397)","(1299, 401)","(1287, 411)","(1277, 415)","(1269, 416)","(1261, 415)","(1251, 410)","(1246, 400)","(1262, 402)","(1269, 403)","(1277, 403)","(1294, 402)","(1277, 403)","(1269, 403)","(1262, 402)",0.26,0.83,72.0,0.37,0.01,0.35,0.02,-9.5,0.07,0.36,58.1,77.8,124.8,44.45,56.2,130.3,33.35,47.35,85.58
3333,-3801088,60,-56,-1,-1,0,"(1206, 303)","(1204, 325)","(1204, 347)","(1206, 368)","(1212, 388)","(1222, 407)","(1235, 424)","(1250, 438)","(1270, 443)","(1290, 440)","(1310, 428)","(1328, 414)","(1342, 396)","(1352, 377)","(1358, 356)","(1362, 333)","(1364, 310)","(1212, 295)","(1222, 288)","(1237, 287)","(1251, 291)","(1265, 298)","(1296, 298)","(1311, 291)","(1327, 287)","(1343, 289)","(1354, 298)","(1279, 315)","(1278, 331)","(1276, 346)","(1274, 361)","(1257, 368)","(1265, 372)","(1274, 375)","(1283, 373)","(1292, 370)","(1229, 312)","(1238, 310)","(1249, 310)","(1259, 316)","(1248, 318)","(1237, 318)","(1302, 317)","(1313, 312)","(1324, 312)","(1334, 315)","(1324, 320)","(1313, 320)","(1243, 394)","(1254, 392)","(1265, 390)","(1272, 393)","(1280, 391)","(1291, 393)","(1303, 397)","(1290, 407)","(1280, 410)","(1271, 411)","(1262, 410)","(1253, 405)","(1248, 395)","(1264, 397)","(1272, 399)","(1280, 398)","(1297, 397)","(1280, 399)","(1271, 399)","(1263, 398)",0.24,0.86,72.0,0.39,0.02,0.37,0.01,-8.0,0.08,0.35,57.6,76.7,121.4,44.3,55.9,131.05,36.76,53.11,92.52
3366,-1507328,60,-56,-1,-1,0,"(1209, 302)","(1209, 324)","(1210, 346)","(1213, 367)","(1219, 387)","(1229, 405)","(1241, 421)","(1257, 434)","(1276, 438)","(1295, 435)","(1314, 424)","(1331, 410)","(1345, 394)","(1355, 375)","(1361, 354)","(1365, 332)","(1367, 309)","(1216, 295)","(1226, 287)","(1241, 287)","(1255, 290)","(1269, 297)","(1301, 296)","(1315, 289)","(1330, 287)","(1346, 288)","(1357, 297)","(1283, 314)","(1282, 330)","(1280, 345)","(1279, 360)","(1263, 367)","(1271, 370)","(1279, 373)","(1287, 371)","(1296, 368)","(1233, 312)","(1243, 309)","(1254, 309)","(1264, 316)","(1253, 317)","(1242, 317)","(1306, 316)","(1317, 310)","(1328, 310)","(1337, 314)","(1328, 319)","(1317, 319)","(1249, 392)","(1260, 389)","(1270, 387)","(1278, 390)","(1285, 388)","(1295, 390)","(1306, 394)","(1294, 403)","(1284, 407)","(1276, 407)","(1268, 406)","(1259, 402)","(1255, 392)","(1270, 394)","(1277, 396)","(1285, 395)","(1301, 394)","(1284, 395)","(1277, 396)","(1269, 395)",0.28,0.83,72.0,0.39,0.02,0.36,0.01,-8.5,0.08,0.37,59.8,79.6,125.1,39.55,50.6,126.95,35.58,51.94,90.7
3400,-1572864,60,-56,-1,-1,0,"(1214, 302)","(1214, 324)","(1215, 345)","(1217, 365)","(1223, 384)","(1232, 402)","(1245, 417)","(1261, 430)","(1279, 435)","(1298, 432)","(1316, 422)","(1333, 409)","(1348, 393)","(1357, 374)","(1363, 354)","(1367, 333)","(1370, 310)","(1221, 295)","(1231, 288)","(1245, 287)","(1259, 291)","(1273, 297)","(1304, 297)","(1319, 291)","(1333, 288)","(1348, 289)","(1359, 297)","(1287, 314)","(1286, 329)","(1285, 343)","(1284, 358)","(1268, 365)","(1275, 368)","(1283, 371)","(1291, 369)","(1299, 366)","(1238, 311)","(1248, 308)","(1258, 309)","(1268, 315)","(1257, 316)","(1247, 316)","(1309, 316)","(1319, 310)","(1330, 310)","(1340, 313)","(1331, 318)","(1320, 318)","(1253, 389)","(1264, 386)","(1274, 385)","(1281, 388)","(1289, 386)","(1298, 388)","(1309, 391)","(1298, 401)","(1288, 404)","(1280, 405)","(1272, 403)","(1263, 399)","(1258, 389)","(1274, 392)","(1281, 393)","(1288, 393)","(1304, 391)","(1288, 393)","(1280, 393)","(1273, 392)",0.25,0.82,72.0,0.39,0.01,0.35,0.02,-8.0,0.07,0.36,50.3,70.2,115.9,37.05,48.4,124.5,34.11,50.17,88.29
3433,-1441792,60,-56,-1,-1,0,"(1218, 302)","(1217, 323)","(1219, 344)","(1221, 364)","(1227, 383)","(1236, 400)","(1250, 415)","(1265, 428)","(1284, 432)","(1303, 429)","(1321, 418)","(1338, 405)","(1352, 389)","(1360, 371)","(1366, 351)","(1370, 330)","(1372, 308)","(1224, 296)","(1234, 289)","(1248, 288)","(1262, 291)","(1276, 298)","(1306, 297)","(1320, 291)","(1335, 287)","(1350, 289)","(1361, 297)","(1290, 314)","(1289, 329)","(1287, 344)","(1286, 359)","(1271, 365)","(1279, 368)","(1286, 371)","(1295, 369)","(1302, 366)","(1242, 312)","(1251, 308)","(1261, 309)","(1271, 315)","(1261, 317)","(1250, 317)","(1311, 315)","(1321, 309)","(1332, 309)","(1341, 313)","(1333, 318)","(1322, 318)","(1258, 388)","(1269, 386)","(1278, 385)","(1285, 387)","(1292, 385)","(1302, 387)","(1313, 390)","(1301, 398)","(1292, 402)","(1284, 403)","(1277, 402)","(1268, 398)","(1263, 389)","(1278, 391)","(1285, 392)","(1292, 391)","(1307, 390)","(1292, 391)","(1284, 392)","(1277, 391)",0.3,0.84,72.0,0.38,0.01,0.35,0.01,-9.0,0.07,0.38,53.8,72.1,116.7,36.0,45.65,121.45,34.52,49.58,86.76
3466,-983040,60,-56,-1,-1,0,"(1221, 303)","(1221, 324)","(1222, 344)","(1225, 364)","(1231, 383)","(1241, 399)","(1253, 414)","(1268, 425)","(1285, 429)","(1303, 426)","(1320, 416)","(1336, 403)","(1349, 388)","(1358, 370)","(1363, 351)","(1367, 330)","(1368, 309)","(1229, 295)","(1239, 289)","(1253, 289)","(1266, 292)","(1278, 299)","(1307, 298)","(1319, 292)","(1333, 289)","(1347, 289)","(1358, 296)","(1291, 314)","(1290, 328)","(1289, 343)","(1288, 357)","(1273, 364)","(1280, 367)","(1288, 369)","(1296, 367)","(1304, 364)","(1245, 311)","(1253, 308)","(1263, 308)","(1272, 315)","(1262, 316)","(1252, 316)","(1312, 315)","(1322, 309)","(1332, 309)","(1341, 312)","(1333, 317)","(1322, 317)","(1260, 387)","(1271, 384)","(1280, 383)","(1287, 385)","(1294, 383)","(1303, 385)","(1313, 388)","(1302, 397)","(1293, 400)","(1286, 401)","(1278, 400)","(1270, 396)","(1265, 388)","(1280, 389)","(1287, 390)","(1293, 390)","(1308, 389)","(1293, 389)","(1286, 390)","(1279, 389)",0.27,0.8,72.0,0.38,0.02,0.36,0.02,-8.0,0.08,0.37,51.6,69.8,118.6,34.2,45.0,121.8,34.17,48.58,88.47
3500,-458752,60,-56,-1,-1,0,"(1224, 304)","(1223, 325)","(1225, 345)","(1227, 364)","(1233, 382)","(1243, 399)","(1256, 413)","(1270, 424)","(1288, 428)","(1305, 425)","(1322, 414)","(1337, 402)","(1350, 387)","(1359, 369)","(1364, 350)","(1367, 330)","(1369, 310)","(1232, 295)","(1242, 289)","(1255, 289)","(1269, 293)","(1280, 299)","(1308, 299)","(1321, 292)","(1334, 289)","(1349, 289)","(1359, 296)","(1294, 314)","(1292, 328)","(1291, 342)","(1290, 357)","(1275, 363)","(1283, 366)","(1290, 369)","(1298, 367)","(1305, 364)","(1247, 311)","(1256, 308)","(1266, 308)","(1275, 315)","(1265, 316)","(1254, 316)","(1314, 315)","(1323, 308)","(1333, 308)","(1342, 312)","(1334, 317)","(1324, 317)","(1263, 386)","(1273, 384)","(1283, 382)","(1289, 385)","(1296, 383)","(1305, 385)","(1316, 387)","(1305, 395)","(1295, 399)","(1288, 400)","(1281, 399)","(1272, 395)","(1268, 386)","(1282, 388)","(1289, 390)","(1296, 389)","(1311, 388)","(1295, 388)","(1288, 389)","(1282, 388)",0.32,0.83,72.0,0.38,0.01,0.36,0.01,-8.5,0.07,0.37,52.4,70.8,117.4,35.05,43.9,120.6,34.52,47.35,86.88
3533,393216,60,-56,-1,-1,0,"(1225, 304)","(1224, 324)","(1226, 343)","(1228, 363)","(1234, 381)","(1244, 397)","(1257, 411)","(1272, 422)","(1289, 426)","(1307, 423)","(1323, 413)","(1338, 400)","(1351, 385)","(1359, 368)","(1364, 349)","(1367, 330)","(1369, 310)","(1233, 296)","(1244, 290)","(1257, 290)","(1270, 294)","(1282, 300)","(1309, 299)","(1322, 293)","(1335, 290)","(1349, 290)","(1360, 297)","(1295, 314)","(1294, 328)","(1293, 342)","(1292, 356)","(1277, 362)","(1285, 366)","(1292, 368)","(1300, 366)","(1307, 363)","(1249, 311)","(1258, 308)","(1268, 309)","(1276, 315)","(1267, 317)","(1256, 316)","(1315, 315)","(1324, 309)","(1335, 308)","(1343, 312)","(1335, 317)","(1325, 317)","(1264, 384)","(1275, 383)","(1284, 381)","(1291, 383)","(1298, 381)","(1307, 383)","(1317, 386)","(1307, 394)","(1297, 397)","(1290, 398)","(1283, 397)","(1274, 393)","(1269, 385)","(1284, 387)","(1291, 389)","(1297, 388)","(1313, 386)","(1297, 387)","(1290, 388)","(1284, 387)",0.3,0.81,72.0,0.38,0.02,0.36,0.01,-8.5,0.08,0.37,51.1,69.8,115.4,34.8,43.55,119.2,30.41,43.41,83.94
3566,458752,60,-56,-1,-1,0,"(1227, 304)","(1226, 324)","(1228, 344)","(1231, 363)","(1237, 381)","(1247, 397)","(1260, 411)","(1274, 422)","(1291, 425)","(1308, 423)","(1324, 412)","(1339, 399)","(1351, 385)","(1359, 368)","(1364, 349)","(1367, 330)","(1369, 310)","(1235, 297)","(1246, 291)","(1259, 291)","(1272, 294)","(1284, 300)","(1311, 300)","(1323, 294)","(1336, 290)","(1350, 291)","(1360, 298)","(1297, 314)","(1296, 329)","(1295, 342)","(1294, 357)","(1280, 362)","(1287, 365)","(1294, 368)","(1302, 366)","(1309, 363)","(1251, 312)","(1260, 309)","(1270, 309)","(1278, 315)","(1269, 317)","(1259, 316)","(1317, 316)","(1326, 309)","(1336, 309)","(1344, 313)","(1337, 317)","(1327, 317)","(1266, 384)","(1277, 382)","(1286, 381)","(1293, 383)","(1299, 381)","(1308, 383)","(1319, 385)","(1308, 394)","(1299, 398)","(1292, 398)","(1285, 397)","(1276, 393)","(1271, 385)","(1286, 387)","(1293, 388)","(1299, 387)","(1314, 386)","(1299, 387)","(1292, 388)","(1286, 387)",0.29,0.81,72.0,0.38,0.01,0.37,0.01,-8.0,0.08,0.38,53.5,71.5,119.2,35.3,45.8,120.1,31.35,44.05,84.05
3600,-458752,60,-56,-1,-1,0,"(1229, 305)","(1229, 325)","(1231, 344)","(1234, 363)","(1240, 380)","(1250, 396)","(1262, 409)","(1276, 420)","(1293, 423)","(1310, 420)","(1325, 410)","(1340, 398)","(1351, 383)","(1359, 367)","(1364, 348)","(1367, 329)","(1369, 309)","(1236, 298)","(1246, 292)","(1259, 291)","(1272, 294)","(1284, 300)","(1312, 300)","(1324, 294)","(1336, 290)","(1350, 291)","(1361, 297)","(1297, 315)","(1296, 328)","(1295, 342)","(1295, 356)","(1281, 362)","(1287, 365)","(1294, 367)","(1302, 365)","(1309, 362)","(1252, 312)","(1260, 309)","(1270, 310)","(1279, 316)","(1269, 318)","(1259, 317)","(1316, 316)","(1325, 309)","(1336, 309)","(1344, 312)","(1337, 317)","(1326, 318)","(1267, 383)","(1278, 381)","(1287, 380)","(1293, 382)","(1299, 380)","(1308, 382)","(1319, 384)","(1308, 392)","(1299, 396)","(1293, 397)","(1286, 396)","(1277, 392)","(1272, 384)","(1287, 386)","(1293, 387)","(1299, 386)","(1314, 385)","(1299, 386)","(1293, 386)","(1286, 386)",0.3,0.82,72.0,0.39,-0.0,0.37,0.01,-8.5,0.08,0.37,51.6,71.2,117.0,33.1,43.85,118.1,33.05,45.94,86.94
