milliseconds, ECG, ECG HR, PPG, PPG HR, SpO2, PI
0,-655360,105,-56,-1,-1,0
33,-1048576,105,-56,-1,-1,0
66,-1114112,105,-56,-1,-1,0
100,-720896,105,-56,-1,-1,0
133,-1179648,105,-56,-1,-1,0
166,-1310720,105,-56,-1,-1,0
200,2490368,105,-56,-1,-1,0
233,-1441792,105,-56,-1,-1,0
266,-524288,105,-56,-1,-1,0
300,0,105,-56,-1,-1,0
333,1572864,105,-56,-1,-1,0
366,1769472,105,-56,-1,-1,0
400,983040,105,-56,-1,-1,0
433,720896,105,-56,-1,-1,0
466,786432,105,-56,-1,-1,0
500,720896,105,-56,-1,-1,0
533,262144,105,-56,-1,-1,0
566,720896,104,-56,-1,-1,0
600,65536,104,-56,-1,-1,0
633,720896,104,-56,-1,-1,0
666,2293760,104,-56,-1,-1,0
700,-327680,104,-56,-1,-1,0
733,-196608,104,-56,-1,-1,0
766,-65536,104,-56,-1,-1,0
800,655360,104,-56,-1,-1,0
833,589824,104,-56,-1,-1,0
866,0,104,-56,-1,-1,0
900,0,104,-56,-1,-1,0
933,-65536,104,-56,-1,-1,0
966,-262144,104,-56,-1,-1,0
1000,-327680,104,-56,-1,-1,0
1033,-327680,104,-56,-1,-1,0
1066,-327680,104,-56,-1,-1,0
1100,-65536,104,-56,-1,-1,0
1133,-262144,102,-56,-1,-1,0
1166,1179648,102,-56,-1,-1,0
1200,131072,102,-56,-1,-1,0
1233,-458752,102,-56,-1,-1,0
1266,-131072,102,-56,-1,-1,0
1300,262144,102,-56,-1,-1,0
1333,1048576,102,-56,-1,-1,0
1366,1048576,102,-56,-1,-1,0
1400,0,102,-56,-1,-1,0
1433,0,102,-56,-1,-1,0
1466,0,102,-56,-1,-1,0
1500,-262144,102,-56,-1,-1,0
1533,-655360,102,-56,-1,-1,0
1566,-917504,102,-56,-1,-1,0
1600,-1114112,102,-56,-1,-1,0
1633,-1376256,102,-56,-1,-1,0
1666,-1310720,101,-56,-1,-1,0
1700,-1310720,101,-56,-1,-1,0
1733,1703936,101,-56,-1,-1,0
1766,-1179648,101,-56,-1,-1,0
1800,-1572864,101,-56,-1,-1,0
1833,-1310720,101,-56,-1,-1,0
1866,-720896,101,-56,-1,-1,0
1900,393216,101,-56,-1,-1,0
1933,-65536,101,-56,-1,-1,0
1966,-655360,101,-56,-1,-1,0
2000,-524288,101,-56,-1,-1,0
2033,-393216,101,-56,-1,-1,0
2066,-589824,101,-56,-1,-1,0
2100,-589824,101,-56,-1,-1,0
2133,-655360,101,-56,-1,-1,0
2166,-655360,101,-56,-1,-1,0
2200,-327680,101,-56,-1,-1,0
2233,-327680,100,-56,-1,-1,0
2266,4063232,100,-56,-1,-1,0
2300,-65536,100,-56,-1,-1,0
2333,-262144,100,-56,-1,-1,0
2366,0,100,-56,-1,-1,0
2400,655360,100,-56,-1,-1,0
2433,1572864,100,-56,-1,-1,0
2466,917504,100,-56,-1,-1,0
2500,327680,100,-56,-1,-1,0
2533,393216,100,-56,-1,-1,0
2566,327680,100,-56,-1,-1,0
2600,-131072,100,-56,-1,-1,0
2633,-196608,100,-56,-1,-1,0
2666,-524288,100,-56,-1,-1,0
2700,-720896,100,-56,-1,-1,0
2733,-851968,100,-56,-1,-1,0
2766,-851968,100,-56,-1,-1,0
2800,-851968,100,-56,-1,-1,0
2833,4849664,100,-56,-1,-1,0
2866,-1179648,98,-56,-1,-1,0
2900,-1179648,98,-56,-1,-1,0
2933,-1179648,98,-56,-1,-1,0
2966,-589824,98,-56,-1,-1,0
3000,131072,98,-56,-1,-1,0
3033,-262144,98,-56,-1,-1,0
3066,-720896,98,-56,-1,-1,0
3100,-589824,98,-56,-1,-1,0
3133,-720896,98,-56,-1,-1,0
3166,-917504,98,-56,-1,-1,0
3200,-1048576,98,-56,-1,-1,0
3233,-1114112,98,-56,-1,-1,0
3266,-1179648,98,-56,-1,-1,0
3300,-1179648,98,-56,-1,-1,0
3333,-1179648,98,-56,-1,-1,0
3366,-1245184,98,-56,-1,-1,0
3400,-851968,98,-56,-1,-1,0
3433,-1179648,98,-56,-1,-1,0
3466,-1114112,98,-56,-1,-1,0
3500,5111808,98,-56,-1,-1,0
3533,-1048576,96,-56,-1,-1,0
3566,-851968,96,-56,-1,-1,0
3600,-393216,96,-56,-1,-1,0
3633,589824,96,-56,-1,-1,0
3666,983040,96,-56,-1,-1,0
3699,262144,96,-56,-1,-1,0
3733,131072,96,-56,-1,-1,0
3766,262144,96,-56,-1,-1,0
3800,0,96,-56,-1,-1,0
3833,-65536,96,-56,-1,-1,0
3866,-196608,96,-56,-1,-1,0
3900,-196608,96,-56,-1,-1,0
3933,-196608,96,-56,-1,-1,0
3966,-196608,96,-56,-1,-1,0
4000,-196608,96,-56,-1,-1,0
4033,-262144,96,-56,-1,-1,0
4066,-458752,96,-56,-1,-1,0
4100,-524288,96,-56,-1,-1,0
4133,7208960,96,-56,-1,-1,0
4166,-1048576,96,-56,-1,-1,0
4200,-1114112,96,-56,-1,-1,0
4233,-983040,96,-56,-1,-1,0
4266,-65536,96,-56,-1,-1,0
4300,786432,96,-56,-1,-1,0
4333,65536,96,-56,-1,-1,0
4366,-589824,96,-56,-1,-1,0
4400,-196608,96,-56,-1,-1,0
4433,-196608,96,-56,-1,-1,0
4466,-655360,96,-56,-1,-1,0
4500,-917504,96,-56,-1,-1,0
4533,-983040,96,-56,-1,-1,0
4566,-1179648,96,-56,-1,-1,0
4600,-1310720,96,-56,-1,-1,0
4633,-1245184,96,-56,-1,-1,0
4666,-1310720,96,-56,-1,-1,0
4700,-1245184,96,-56,-1,-1,0
4733,3801088,95,-56,-1,-1,0
4766,-1703936,95,-56,-1,-1,0
4800,-1507328,95,-56,-1,-1,0
4833,-1245184,95,-56,-1,-1,0
4866,-524288,95,-56,-1,-1,0
4900,327680,95,-56,-1,-1,0
4933,-327680,95,-56,-1,-1,0
4966,-917504,95,-56,-1,-1,0
5000,-720896,95,-56,-1,-1,0
5033,-589824,95,-56,-1,-1,0
5066,-589824,95,-56,-1,-1,0
5100,-524288,95,-56,-1,-1,0
5133,-524288,95,-56,-1,-1,0
5166,-458752,95,-56,-1,-1,0
5200,-327680,95,-56,-1,-1,0
5233,-262144,95,-56,-1,-1,0
5266,-196608,94,-56,-1,-1,0
5300,-65536,94,-56,-1,-1,0
5333,5701632,94,-56,-1,-1,0
5366,720896,94,-56,-1,-1,0
5400,1114112,94,-56,-1,-1,0
5433,1376256,94,-56,-1,-1,0
5466,2097152,94,-56,-1,-1,0
5500,3407872,94,-56,-1,-1,0
5533,2818048,94,-56,-1,-1,0
5566,1638400,94,-56,-1,-1,0
5600,1376256,94,-56,-1,-1,0
5633,851968,94,-56,-1,-1,0
5666,458752,94,-56,-1,-1,0
5700,0,94,-56,-1,-1,0
5733,-720896,94,-56,-1,-1,0
5766,-851968,94,-56,-1,-1,0
5800,-1310720,93,-56,-1,-1,0
5833,-1572864,93,-56,-1,-1,0
5866,-589824,93,-56,-1,-1,0
5900,-917504,93,-56,-1,-1,0
5933,-1900544,93,-56,-1,-1,0
5966,-2097152,93,-56,-1,-1,0
6000,-1441792,93,-56,-1,-1,0
6033,-196608,93,-56,-1,-1,0
6066,720896,93,-56,-1,-1,0
6100,-393216,93,-56,-1,-1,0
6133,-524288,93,-56,-1,-1,0
6166,458752,93,-56,-1,-1,0
6200,262144,93,-56,-1,-1,0
6233,327680,93,-56,-1,-1,0
6266,524288,93,-56,-1,-1,0
6300,786432,92,-56,-1,-1,0
6333,393216,92,-56,-1,-1,0
6366,393216,92,-56,-1,-1,0
6400,7995392,92,-56,-1,-1,0
6433,-720896,92,-56,-1,-1,0
6466,-524288,92,-56,-1,-1,0
6500,-65536,92,-56,-1,-1,0
6533,720896,92,-56,-1,-1,0
6566,1245184,92,-56,-1,-1,0
6600,196608,92,-56,-1,-1,0
6633,-327680,92,-56,-1,-1,0
6666,-393216,92,-56,-1,-1,0
6700,-131072,92,-56,-1,-1,0
6733,-589824,92,-56,-1,-1,0
6766,-720896,92,-56,-1,-1,0
6800,-655360,92,-56,-1,-1,0
6833,-1179648,92,-56,-1,-1,0
6866,-1048576,92,-56,-1,-1,0
6899,5963776,92,-56,-1,-1,0
6933,-1179648,92,-56,-1,-1,0
6966,-1638400,92,-56,-1,-1,0
7000,-655360,92,-56,-1,-1,0
7033,0,92,-56,-1,-1,0
7066,655360,92,-56,-1,-1,0
7100,-393216,92,-56,-1,-1,0
7133,-786432,92,-56,-1,-1,0
7166,-327680,92,-56,-1,-1,0
7200,-458752,92,-56,-1,-1,0
7233,-786432,92,-56,-1,-1,0
7266,-786432,92,-56,-1,-1,0
7300,-393216,92,-56,-1,-1,0
7333,-589824,92,-56,-1,-1,0
7366,-524288,92,-56,-1,-1,0
7399,7405568,92,-56,-1,-1,0
7433,-655360,92,-56,-1,-1,0
7466,-720896,92,-56,-1,-1,0
7500,-327680,92,-56,-1,-1,0
7533,524288,92,-56,-1,-1,0
7566,1638400,92,-56,-1,-1,0
7600,458752,92,-56,-1,-1,0
7633,0,92,-56,-1,-1,0
7666,-327680,92,-56,-1,-1,0
7700,-262144,92,-56,-1,-1,0
7733,-458752,92,-56,-1,-1,0
7766,-786432,92,-56,-1,-1,0
7800,-851968,92,-56,-1,-1,0
7833,-589824,92,-56,-1,-1,0
7866,-917504,92,-56,-1,-1,0
7899,-851968,92,-56,-1,-1,0
7933,6488064,92,-56,-1,-1,0
7966,-1048576,92,-56,-1,-1,0
8000,-1114112,92,-56,-1,-1,0
8033,-720896,92,-56,-1,-1,0
8066,393216,92,-56,-1,-1,0
8100,1310720,92,-56,-1,-1,0
8133,327680,92,-56,-1,-1,0
8166,-131072,92,-56,-1,-1,0
8200,0,92,-56,-1,-1,0
8233,-65536,92,-56,-1,-1,0
8266,-65536,92,-56,-1,-1,0
8300,-131072,92,-56,-1,-1,0
8333,0,92,-56,-1,-1,0
8366,-65536,92,-56,-1,-1,0
8400,131072,92,-56,-1,-1,0
8433,-196608,92,-56,-1,-1,0
8466,65536,92,-56,-1,-1,0
8500,7995392,90,-56,-1,-1,0
8533,131072,90,-56,-1,-1,0
8566,131072,90,-56,-1,-1,0
8600,65536,90,-56,-1,-1,0
8633,1048576,90,-56,-1,-1,0
8666,1900544,90,-56,-1,-1,0
8700,983040,90,-56,-1,-1,0
8733,458752,90,-56,-1,-1,0
8766,65536,90,-56,-1,-1,0
8800,-131072,90,-56,-1,-1,0
8833,65536,90,-56,-1,-1,0
8866,-458752,90,-56,-1,-1,0
8900,-393216,90,-56,-1,-1,0
8933,-983040,90,-56,-1,-1,0
8966,-917504,90,-56,-1,-1,0
9000,-1114112,90,-56,-1,-1,0
9033,-1048576,90,-56,-1,-1,0
9066,-1441792,90,-56,-1,-1,0
9100,262144,90,-56,-1,-1,0
9133,-917504,88,-56,-1,-1,0
9166,-2031616,88,-56,-1,-1,0
9200,-1900544,88,-56,-1,-1,0
9233,-1048576,88,-56,-1,-1,0
9266,458752,88,-56,-1,-1,0
9300,458752,88,-56,-1,-1,0
9333,-393216,88,-56,-1,-1,0
9366,-393216,88,-56,-1,-1,0
9400,-393216,88,-56,-1,-1,0
9433,-262144,88,-56,-1,-1,0
9466,-524288,88,-56,-1,-1,0
9500,-786432,88,-56,-1,-1,0
9533,-1048576,88,-56,-1,-1,0
9566,-851968,88,-56,-1,-1,0
9600,-917504,88,-56,-1,-1,0
9633,-917504,88,-56,-1,-1,0
9666,-917504,88,-56,-1,-1,0
9700,-983040,88,-56,-1,-1,0
9733,3932160,88,-56,-1,-1,0
9766,-1179648,87,-56,-1,-1,0
9800,-1114112,87,-56,-1,-1,0
9833,-983040,87,-56,-1,-1,0
9866,-262144,87,-56,-1,-1,0
9900,983040,87,-56,-1,-1,0
9933,655360,87,-56,-1,-1,0
9966,0,87,-56,-1,-1,0
10000,-65536,87,-56,-1,-1,0
10033,-131072,87,-56,-1,-1,0
10066,-131072,87,-56,-1,-1,0
10100,-393216,87,-56,-1,-1,0
10133,-589824,87,-56,-1,-1,0
10166,-524288,87,-56,-1,-1,0
10200,-720896,87,-56,-1,-1,0
10233,-458752,87,-56,-1,-1,0
10266,-720896,87,-56,-1,-1,0
10300,-393216,87,-56,-1,-1,0
10333,-720896,87,-56,-1,-1,0
10366,-131072,85,-56,-1,-1,0
10400,1900544,85,-56,-1,-1,0
10433,-1310720,85,-56,-1,-1,0
10466,-1310720,85,-56,-1,-1,0
10500,-786432,85,-56,-1,-1,0
10533,327680,85,-56,-1,-1,0
10566,720896,85,-56,-1,-1,0
10600,-327680,85,-56,-1,-1,0
10633,-524288,85,-56,-1,-1,0
10666,-65536,85,-56,-1,-1,0
10700,-131072,85,-56,-1,-1,0
10733,-458752,85,-56,-1,-1,0
10766,-458752,85,-56,-1,-1,0
10800,-589824,85,-56,-1,-1,0
10833,-655360,85,-56,-1,-1,0
10866,-589824,85,-56,-1,-1,0
10900,-327680,85,-56,-1,-1,0
10933,-589824,85,-56,-1,-1,0
10966,393216,85,-56,-1,-1,0
11000,1769472,85,-56,-1,-1,0
11033,-458752,85,-56,-1,-1,0
11066,-327680,85,-56,-1,-1,0
11100,0,85,-56,-1,-1,0
11133,1245184,85,-56,-1,-1,0
11166,1441792,85,-56,-1,-1,0
11200,458752,85,-56,-1,-1,0
11233,262144,85,-56,-1,-1,0
11266,393216,85,-56,-1,-1,0
11300,262144,85,-56,-1,-1,0
11333,131072,85,-56,-1,-1,0
11366,131072,85,-56,-1,-1,0
11400,196608,85,-56,-1,-1,0
11433,196608,85,-56,-1,-1,0
11466,131072,85,-56,-1,-1,0
11500,524288,85,-56,-1,-1,0
11533,131072,85,-56,-1,-1,0
11566,0,85,-56,-1,-1,0
11600,6684672,85,-56,-1,-1,0
11633,-327680,85,-56,-1,-1,0
11666,-393216,85,-56,-1,-1,0
11700,-262144,85,-56,-1,-1,0
11733,720896,85,-56,-1,-1,0
11766,1245184,85,-56,-1,-1,0
11800,327680,85,-56,-1,-1,0
11833,-65536,85,-56,-1,-1,0
11866,-131072,85,-56,-1,-1,0
11900,-196608,85,-56,-1,-1,0
11933,-589824,85,-56,-1,-1,0
11966,-851968,85,-56,-1,-1,0
12000,-786432,85,-56,-1,-1,0
12033,-917504,85,-56,-1,-1,0
12066,-458752,85,-56,-1,-1,0
12100,-786432,85,-56,-1,-1,0
12133,-786432,85,-56,-1,-1,0
12166,7798784,85,-56,-1,-1,0
12200,-786432,85,-56,-1,-1,0
12233,-786432,85,-56,-1,-1,0
12266,-458752,85,-56,-1,-1,0
12300,393216,85,-56,-1,-1,0
12333,1376256,85,-56,-1,-1,0
12366,589824,85,-56,-1,-1,0
12400,0,85,-56,-1,-1,0
12433,131072,85,-56,-1,-1,0
12466,0,85,-56,-1,-1,0
12500,-65536,85,-56,-1,-1,0
12533,-458752,85,-56,-1,-1,0
12566,-655360,85,-56,-1,-1,0
12600,-720896,85,-56,-1,-1,0
12633,-720896,85,-56,-1,-1,0
12666,-720896,85,-56,-1,-1,0
12700,-917504,86,-56,-1,-1,0
12733,1245184,86,-56,-1,-1,0
12766,-655360,86,-56,-1,-1,0
12800,-983040,86,-56,-1,-1,0
12833,-851968,86,-56,-1,-1,0
12866,-393216,86,-56,-1,-1,0
12900,720896,86,-56,-1,-1,0
12933,851968,86,-56,-1,-1,0
12966,0,86,-56,-1,-1,0
13000,65536,86,-56,-1,-1,0
13033,65536,86,-56,-1,-1,0
13066,-65536,86,-56,-1,-1,0
13100,-393216,86,-56,-1,-1,0
13133,-524288,86,-56,-1,-1,0
13166,-589824,86,-56,-1,-1,0
13200,-851968,86,-56,-1,-1,0
13233,-458752,87,-56,-1,-1,0
13266,-786432,87,-56,-1,-1,0
13299,-131072,87,-56,-1,-1,0
13333,1507328,87,-56,-1,-1,0
13366,-1048576,87,-56,-1,-1,0
13400,-1048576,87,-56,-1,-1,0
13433,-524288,87,-56,-1,-1,0
13466,655360,87,-56,-1,-1,0
13500,655360,87,-56,-1,-1,0
13533,-327680,87,-56,-1,-1,0
13566,-589824,87,-56,-1,-1,0
13600,-196608,87,-56,-1,-1,0
13633,-393216,87,-56,-1,-1,0
13666,-589824,87,-56,-1,-1,0
13700,-589824,87,-56,-1,-1,0
13733,-720896,87,-56,-1,-1,0
13766,-262144,87,-56,-1,-1,0
13799,-655360,87,-56,-1,-1,0
13833,-589824,87,-56,-1,-1,0
13866,5963776,87,-56,-1,-1,0
13900,-851968,87,-56,-1,-1,0
13933,-655360,87,-56,-1,-1,0
13966,-262144,87,-56,-1,-1,0
14000,720896,87,-56,-1,-1,0
14033,1245184,87,-56,-1,-1,0
14066,196608,87,-56,-1,-1,0
14100,-262144,87,-56,-1,-1,0
14133,-65536,87,-56,-1,-1,0
14166,-196608,87,-56,-1,-1,0
14200,-524288,87,-56,-1,-1,0
14233,-655360,87,-56,-1,-1,0
14266,-720896,87,-56,-1,-1,0
14299,-262144,87,-56,-1,-1,0
14333,-458752,87,-56,-1,-1,0
14366,-458752,87,-56,-1,-1,0
14400,7733248,87,-56,-1,-1,0
14433,-655360,87,-56,-1,-1,0
14466,-655360,87,-56,-1,-1,0
14500,-458752,87,-56,-1,-1,0
14533,393216,87,-56,-1,-1,0
14566,1179648,87,-56,-1,-1,0
14600,393216,87,-56,-1,-1,0
14633,-196608,87,-56,-1,-1,0
14666,-131072,87,-56,-1,-1,0
14700,-196608,87,-56,-1,-1,0
14733,-524288,87,-56,-1,-1,0
14766,-720896,87,-56,-1,-1,0
14799,-917504,87,-56,-1,-1,0
14833,-1048576,87,-56,-1,-1,0
14866,-589824,87,-56,-1,-1,0
14900,-983040,87,-56,-1,-1,0
14933,-983040,86,-56,-1,-1,0
14966,6881280,86,-56,-1,-1,0
15000,-1114112,86,-56,-1,-1,0
15033,-1179648,86,-56,-1,-1,0
15066,-983040,86,-56,-1,-1,0
15100,-262144,86,-56,-1,-1,0
15133,720896,86,-56,-1,-1,0
15166,196608,86,-56,-1,-1,0
15200,-589824,86,-56,-1,-1,0
15233,-589824,86,-56,-1,-1,0
15266,-262144,86,-56,-1,-1,0
15299,-393216,86,-56,-1,-1,0
15333,-524288,86,-56,-1,-1,0
15366,-589824,86,-56,-1,-1,0
15400,-524288,86,-56,-1,-1,0
15433,-524288,86,-56,-1,-1,0
15466,-327680,86,-56,-1,-1,0
15500,-524288,86,-56,-1,-1,0
15533,655360,86,-56,-1,-1,0
15566,589824,86,-56,-1,-1,0
15600,-655360,86,-56,-1,-1,0
15633,-458752,86,-56,-1,-1,0
15666,-131072,86,-56,-1,-1,0
15700,786432,86,-56,-1,-1,0
15733,983040,86,-56,-1,-1,0
15766,-196608,86,-56,-1,-1,0
15799,-393216,86,-56,-1,-1,0
15833,-196608,86,-56,-1,-1,0
15866,-131072,86,-56,-1,-1,0
15900,-458752,86,-56,-1,-1,0
15933,-524288,86,-56,-1,-1,0
15966,-589824,86,-56,-1,-1,0
16000,-720896,86,-56,-1,-1,0
16033,-131072,86,-56,-1,-1,0
16066,-524288,86,-56,-1,-1,0
16100,-655360,86,-56,-1,-1,0
16133,3538944,86,-56,-1,-1,0
16166,-786432,85,-56,-1,-1,0
16200,-524288,85,-56,-1,-1,0
16233,-720896,85,-56,-1,-1,0
16266,-65536,85,-56,-1,-1,0
16300,851968,85,-56,-1,-1,0
16333,983040,85,-56,-1,-1,0
16366,196608,85,-56,-1,-1,0
16400,0,85,-56,-1,-1,0
16433,262144,85,-56,-1,-1,0
16466,65536,85,-56,-1,-1,0
16500,-196608,85,-56,-1,-1,0
16533,-393216,85,-56,-1,-1,0
16566,-655360,85,-56,-1,-1,0
16600,-589824,85,-56,-1,-1,0
16633,-851968,85,-56,-1,-1,0
16666,-851968,85,-56,-1,-1,0
16700,-851968,85,-56,-1,-1,0
16733,-524288,85,-56,-1,-1,0
16766,3735552,85,-56,-1,-1,0
16800,-524288,85,-56,-1,-1,0
16833,-327680,85,-56,-1,-1,0
16866,-196608,85,-56,-1,-1,0
16900,196608,85,-56,-1,-1,0
16933,983040,85,-56,-1,-1,0
16966,720896,85,-56,-1,-1,0
17000,0,85,-56,-1,-1,0
17033,-131072,85,-56,-1,-1,0
17066,327680,85,-56,-1,-1,0
17100,393216,85,-56,-1,-1,0
17133,196608,85,-56,-1,-1,0
17166,131072,85,-56,-1,-1,0
17200,131072,85,-56,-1,-1,0
17233,196608,85,-56,-1,-1,0
17266,458752,85,-56,-1,-1,0
17300,-65536,85,-56,-1,-1,0
17333,-262144,85,-56,-1,-1,0
17366,6422528,85,-56,-1,-1,0
17400,-786432,85,-56,-1,-1,0
17433,-851968,85,-56,-1,-1,0
17466,-655360,85,-56,-1,-1,0
17500,0,85,-56,-1,-1,0
17533,786432,85,-56,-1,-1,0
17566,0,85,-56,-1,-1,0
17600,-524288,85,-56,-1,-1,0
17633,-393216,85,-56,-1,-1,0
17666,-327680,85,-56,-1,-1,0
17700,-589824,85,-56,-1,-1,0
17733,-786432,85,-56,-1,-1,0
17766,-786432,85,-56,-1,-1,0
17800,-983040,85,-56,-1,-1,0
17833,-524288,85,-56,-1,-1,0
17866,-917504,86,-56,-1,-1,0
17900,-720896,86,-56,-1,-1,0
17933,4587520,86,-56,-1,-1,0
17966,-720896,86,-56,-1,-1,0
18000,-655360,86,-56,-1,-1,0
18033,-327680,86,-56,-1,-1,0
18066,786432,86,-56,-1,-1,0
18100,1310720,86,-56,-1,-1,0
18133,393216,86,-56,-1,-1,0
18166,65536,86,-56,-1,-1,0
18200,131072,86,-56,-1,-1,0
18233,196608,86,-56,-1,-1,0
18266,0,86,-56,-1,-1,0
18300,-65536,86,-56,-1,-1,0
18333,-196608,86,-56,-1,-1,0
18366,0,86,-56,-1,-1,0
18400,0,86,-56,-1,-1,0
18433,-327680,86,-56,-1,-1,0
18466,1638400,86,-56,-1,-1,0
18500,-131072,86,-56,-1,-1,0
18533,-851968,86,-56,-1,-1,0
18566,-983040,86,-56,-1,-1,0
18600,-851968,86,-56,-1,-1,0
18633,131072,86,-56,-1,-1,0
18666,196608,86,-56,-1,-1,0
18700,-327680,86,-56,-1,-1,0
18733,-458752,86,-56,-1,-1,0
18766,-262144,86,-56,-1,-1,0
18800,-393216,86,-56,-1,-1,0
18833,-589824,86,-56,-1,-1,0
18866,-720896,86,-56,-1,-1,0
18900,-720896,86,-56,-1,-1,0
18933,-262144,86,-56,-1,-1,0
18966,-524288,86,-56,-1,-1,0
19000,-327680,87,-56,-1,-1,0
19033,5898240,87,-56,-1,-1,0
19066,-262144,87,-56,-1,-1,0
19100,-131072,87,-56,-1,-1,0
19133,0,87,-56,-1,-1,0
19166,458752,87,-56,-1,-1,0
19200,1310720,87,-56,-1,-1,0
19233,786432,87,-56,-1,-1,0
19266,65536,87,-56,-1,-1,0
19300,131072,87,-56,-1,-1,0
19333,65536,87,-56,-1,-1,0
19366,-196608,87,-56,-1,-1,0
19400,-458752,87,-56,-1,-1,0
19433,-589824,87,-56,-1,-1,0
19466,-720896,87,-56,-1,-1,0
19500,-393216,87,-56,-1,-1,0
19533,-786432,87,-56,-1,-1,0
19566,-917504,87,-56,-1,-1,0
19600,6488064,87,-56,-1,-1,0
19633,-917504,87,-56,-1,-1,0
19666,-917504,87,-56,-1,-1,0
19700,-720896,87,-56,-1,-1,0
19733,0,87,-56,-1,-1,0
19766,917504,87,-56,-1,-1,0
19800,327680,87,-56,-1,-1,0
19833,-262144,87,-56,-1,-1,0
19866,-196608,87,-56,-1,-1,0
19900,-196608,87,-56,-1,-1,0
19933,-393216,87,-56,-1,-1,0
19966,-655360,87,-56,-1,-1,0
20000,-786432,87,-56,-1,-1,0
20033,-393216,87,-56,-1,-1,0
20066,-720896,88,-56,-1,-1,0
20100,-786432,88,-56,-1,-1,0
20133,6094848,88,-56,-1,-1,0
20166,-917504,88,-56,-1,-1,0
20200,-851968,88,-56,-1,-1,0
20233,-589824,88,-56,-1,-1,0
20266,65536,88,-56,-1,-1,0
20300,1048576,88,-56,-1,-1,0
20333,589824,88,-56,-1,-1,0
20366,0,88,-56,-1,-1,0
20400,0,88,-56,-1,-1,0
20433,65536,88,-56,-1,-1,0
20466,-131072,88,-56,-1,-1,0
20500,-262144,88,-56,-1,-1,0
20533,-327680,88,-56,-1,-1,0
20566,-131072,88,-56,-1,-1,0
20600,-262144,88,-56,-1,-1,0
20633,-393216,88,-56,-1,-1,0
20666,3735552,88,-56,-1,-1,0
20700,-720896,88,-56,-1,-1,0
20733,-720896,88,-56,-1,-1,0
20766,-589824,88,-56,-1,-1,0
20800,-65536,88,-56,-1,-1,0
20833,917504,88,-56,-1,-1,0
20866,720896,88,-56,-1,-1,0
20900,-131072,88,-56,-1,-1,0
20933,-196608,88,-56,-1,-1,0
20966,-65536,88,-56,-1,-1,0
21000,-262144,88,-56,-1,-1,0
21033,-458752,88,-56,-1,-1,0
21066,-524288,88,-56,-1,-1,0
21100,-458752,88,-56,-1,-1,0
21133,-393216,88,-56,-1,-1,0
21166,-327680,89,-56,-1,-1,0
21200,1769472,89,-56,-1,-1,0
21233,-524288,89,-56,-1,-1,0
21266,-458752,89,-56,-1,-1,0
21300,-393216,89,-56,-1,-1,0
21333,65536,89,-56,-1,-1,0
21366,1114112,89,-56,-1,-1,0
21400,1114112,89,-56,-1,-1,0
21433,196608,89,-56,-1,-1,0
21466,131072,89,-56,-1,-1,0
21500,393216,89,-56,-1,-1,0
21533,196608,89,-56,-1,-1,0
21566,0,89,-56,-1,-1,0
21600,-131072,89,-56,-1,-1,0
21633,-327680,89,-56,-1,-1,0
21666,0,89,-56,-1,-1,0
21700,-327680,89,-56,-1,-1,0
21733,-393216,89,-56,-1,-1,0
21766,7012352,89,-56,-1,-1,0
21800,-655360,89,-56,-1,-1,0
21833,-720896,89,-56,-1,-1,0
21866,-524288,89,-56,-1,-1,0
21900,196608,89,-56,-1,-1,0
21933,851968,89,-56,-1,-1,0
21966,131072,89,-56,-1,-1,0
22000,-327680,89,-56,-1,-1,0
22033,-131072,89,-56,-1,-1,0
22066,-262144,89,-56,-1,-1,0
22100,-393216,89,-56,-1,-1,0
22133,-655360,89,-56,-1,-1,0
22166,-786432,89,-56,-1,-1,0
22200,-786432,89,-56,-1,-1,0
22233,-917504,89,-56,-1,-1,0
22266,-524288,89,-56,-1,-1,0
22300,-917504,89,-56,-1,-1,0
22333,-983040,89,-56,-1,-1,0
22366,7340032,88,-56,-1,-1,0
22400,-983040,88,-56,-1,-1,0
22433,-1048576,88,-56,-1,-1,0
22466,-917504,88,-56,-1,-1,0
22500,-65536,88,-56,-1,-1,0
22533,589824,88,-56,-1,-1,0
22566,131072,88,-56,-1,-1,0
22600,-524288,88,-56,-1,-1,0
22633,-458752,88,-56,-1,-1,0
22666,-393216,88,-56,-1,-1,0
22700,-655360,88,-56,-1,-1,0
22733,-983040,88,-56,-1,-1,0
22766,-917504,88,-56,-1,-1,0
22800,-1245184,88,-56,-1,-1,0
22833,-1245184,88,-56,-1,-1,0
22866,-851968,88,-56,-1,-1,0
22900,-1114112,88,-56,-1,-1,0
22933,-1114112,88,-56,-1,-1,0
22966,7536640,88,-56,-1,-1,0
23000,-1048576,88,-56,-1,-1,0
23033,-1048576,88,-56,-1,-1,0
23066,-655360,88,-56,-1,-1,0
23100,196608,88,-56,-1,-1,0
23133,1245184,88,-56,-1,-1,0
23166,524288,88,-56,-1,-1,0
23200,0,88,-56,-1,-1,0
23233,0,88,-56,-1,-1,0
23266,65536,88,-56,-1,-1,0
23300,-65536,88,-56,-1,-1,0
23333,-327680,88,-56,-1,-1,0
23366,-589824,88,-56,-1,-1,0
23400,-655360,88,-56,-1,-1,0
23433,-917504,88,-56,-1,-1,0
23466,-655360,88,-56,-1,-1,0
23500,-917504,88,-56,-1,-1,0
23533,-917504,88,-56,-1,-1,0
23566,3735552,88,-56,-1,-1,0
23600,-1179648,88,-56,-1,-1,0
23633,-917504,87,-56,-1,-1,0
23666,-720896,87,-56,-1,-1,0
23700,-65536,87,-56,-1,-1,0
23733,917504,87,-56,-1,-1,0
23766,851968,87,-56,-1,-1,0
23800,0,87,-56,-1,-1,0
23833,-131072,87,-56,-1,-1,0
23866,65536,87,-56,-1,-1,0
23900,0,87,-56,-1,-1,0
23933,-65536,87,-56,-1,-1,0
23966,-196608,87,-56,-1,-1,0
24000,-327680,87,-56,-1,-1,0
24033,-458752,87,-56,-1,-1,0
24066,-393216,87,-56,-1,-1,0
24100,-589824,87,-56,-1,-1,0
24133,-393216,87,-56,-1,-1,0
24166,-655360,87,-56,-1,-1,0
24200,-655360,87,-56,-1,-1,0
24233,6225920,87,-56,-1,-1,0
24266,-917504,87,-56,-1,-1,0
24300,-917504,87,-56,-1,-1,0
24333,-786432,87,-56,-1,-1,0
24366,-327680,87,-56,-1,-1,0
24400,983040,87,-56,-1,-1,0
24433,589824,87,-56,-1,-1,0
24466,-196608,87,-56,-1,-1,0
24500,-393216,87,-56,-1,-1,0
24533,-196608,87,-56,-1,-1,0
24566,-196608,87,-56,-1,-1,0
24600,-393216,87,-56,-1,-1,0
24633,-589824,87,-56,-1,-1,0
24666,-655360,87,-56,-1,-1,0
24700,-720896,87,-56,-1,-1,0
24733,-720896,87,-56,-1,-1,0
24766,-851968,87,-56,-1,-1,0
24800,-458752,87,-56,-1,-1,0
24833,-720896,87,-56,-1,-1,0
24866,-786432,87,-56,-1,-1,0
24900,8912896,87,-56,-1,-1,0
24933,-720896,87,-56,-1,-1,0
24966,-917504,87,-56,-1,-1,0
25000,-655360,87,-56,-1,-1,0
25033,0,87,-56,-1,-1,0
25066,1179648,87,-56,-1,-1,0
25100,655360,87,-56,-1,-1,0
25133,-65536,87,-56,-1,-1,0
25166,-65536,87,-56,-1,-1,0
25200,0,87,-56,-1,-1,0
25233,0,87,-56,-1,-1,0
25266,-196608,87,-56,-1,-1,0
25300,-327680,87,-56,-1,-1,0
25333,-262144,87,-56,-1,-1,0
25366,-196608,87,-56,-1,-1,0
25400,-65536,87,-56,-1,-1,0
25433,65536,87,-56,-1,-1,0
25466,0,87,-56,-1,-1,0
25500,393216,87,-56,-1,-1,0
25533,0,87,-56,-1,-1,0
25566,0,87,-56,-1,-1,0
25600,5373952,87,-56,-1,-1,0
25633,-393216,87,-56,-1,-1,0
25666,-458752,87,-56,-1,-1,0
25700,-131072,87,-56,-1,-1,0
25733,655360,87,-56,-1,-1,0
25766,1310720,87,-56,-1,-1,0
25800,524288,87,-56,-1,-1,0
25833,-65536,87,-56,-1,-1,0
25866,-65536,87,-56,-1,-1,0
25900,-65536,87,-56,-1,-1,0
25933,-262144,87,-56,-1,-1,0
25966,-524288,87,-56,-1,-1,0
26000,-786432,87,-56,-1,-1,0
26033,-851968,87,-56,-1,-1,0
26066,-1048576,87,-56,-1,-1,0
26099,-1048576,87,-56,-1,-1,0
26133,-1179648,87,-56,-1,-1,0
26166,-851968,87,-56,-1,-1,0
26200,-1048576,87,-56,-1,-1,0
26233,-327680,87,-56,-1,-1,0
26266,1638400,85,-56,-1,-1,0
26300,-917504,85,-56,-1,-1,0
26333,-720896,85,-56,-1,-1,0
26366,-327680,85,-56,-1,-1,0
26400,720896,85,-56,-1,-1,0
26433,1245184,85,-56,-1,-1,0
26466,327680,85,-56,-1,-1,0
26500,0,85,-56,-1,-1,0
26533,262144,85,-56,-1,-1,0
26566,327680,85,-56,-1,-1,0
26599,65536,85,-56,-1,-1,0
26633,-131072,85,-56,-1,-1,0
26666,-327680,85,-56,-1,-1,0
26700,-458752,85,-56,-1,-1,0
26733,-786432,85,-56,-1,-1,0
26766,-196608,85,-56,-1,-1,0
26800,-327680,85,-56,-1,-1,0
26833,-327680,83,-56,-1,-1,0
26866,6094848,83,-56,-1,-1,0
26900,0,83,-56,-1,-1,0
26933,262144,83,-56,-1,-1,0
26966,589824,83,-56,-1,-1,0
27000,1179648,83,-56,-1,-1,0
27033,2228224,83,-56,-1,-1,0
27066,1900544,83,-56,-1,-1,0
27099,917504,83,-56,-1,-1,0
27133,524288,83,-56,-1,-1,0
27166,458752,83,-56,-1,-1,0
27200,131072,83,-56,-1,-1,0
27233,-262144,83,-56,-1,-1,0
27266,-655360,83,-56,-1,-1,0
27300,-983040,83,-56,-1,-1,0
27333,-1114112,83,-56,-1,-1,0
27366,-917504,83,-56,-1,-1,0
27400,-1245184,83,-56,-1,-1,0
27433,-1310720,83,-56,-1,-1,0
27466,4128768,83,-56,-1,-1,0
27500,-1441792,83,-56,-1,-1,0
27533,-1441792,83,-56,-1,-1,0
27566,-983040,83,-56,-1,-1,0
27599,0,83,-56,-1,-1,0
27633,851968,83,-56,-1,-1,0
27666,-65536,83,-56,-1,-1,0
27700,-655360,83,-56,-1,-1,0
27733,-589824,83,-56,-1,-1,0
27766,-458752,83,-56,-1,-1,0
27800,-524288,83,-56,-1,-1,0
27833,-786432,83,-56,-1,-1,0
27866,-786432,83,-56,-1,-1,0
27900,-917504,83,-56,-1,-1,0
27933,-655360,83,-56,-1,-1,0
27966,-851968,83,-56,-1,-1,0
28000,-851968,83,-56,-1,-1,0
28033,4390912,83,-56,-1,-1,0
28066,-1179648,83,-56,-1,-1,0
28099,-1179648,83,-56,-1,-1,0
28133,-983040,83,-56,-1,-1,0
28166,-65536,83,-56,-1,-1,0
28200,589824,83,-56,-1,-1,0
28233,-262144,83,-56,-1,-1,0
28266,-720896,83,-56,-1,-1,0
28300,-589824,83,-56,-1,-1,0
28333,-589824,83,-56,-1,-1,0
28366,-589824,83,-56,-1,-1,0
28400,-524288,83,-56,-1,-1,0
28433,-524288,83,-56,-1,-1,0
28466,-720896,83,-56,-1,-1,0
28500,0,83,-56,-1,-1,0
28533,262144,83,-56,-1,-1,0
28566,262144,82,-56,-1,-1,0
28599,1376256,82,-56,-1,-1,0
28633,1769472,82,-56,-1,-1,0
28666,-196608,82,-56,-1,-1,0
28700,-65536,82,-56,-1,-1,0
28733,327680,82,-56,-1,-1,0
28766,1245184,82,-56,-1,-1,0
28800,1900544,82,-56,-1,-1,0
28833,655360,82,-56,-1,-1,0
28866,589824,82,-56,-1,-1,0
28900,786432,82,-56,-1,-1,0
28933,655360,82,-56,-1,-1,0
28966,589824,82,-56,-1,-1,0
29000,524288,82,-56,-1,-1,0
29033,327680,82,-56,-1,-1,0
29066,720896,82,-56,-1,-1,0
29099,65536,82,-56,-1,-1,0
29133,65536,82,-56,-1,-1,0
29166,8847360,82,-56,-1,-1,0
29200,-65536,82,-56,-1,-1,0
29233,-262144,82,-56,-1,-1,0
29266,0,82,-56,-1,-1,0
29300,327680,82,-56,-1,-1,0
29333,1441792,82,-56,-1,-1,0
29366,524288,82,-56,-1,-1,0
29400,-262144,82,-56,-1,-1,0
29433,-327680,82,-56,-1,-1,0
29466,-65536,82,-56,-1,-1,0
29500,-196608,82,-56,-1,-1,0
29533,-655360,82,-56,-1,-1,0
29566,-655360,82,-56,-1,-1,0
29599,-851968,82,-56,-1,-1,0
29633,-524288,82,-56,-1,-1,0
29666,-983040,82,-56,-1,-1,0
29700,-983040,82,-56,-1,-1,0
29733,4784128,82,-56,-1,-1,0
29766,-1245184,82,-56,-1,-1,0
29800,-1179648,82,-56,-1,-1,0
29833,-1114112,82,-56,-1,-1,0
29866,-786432,82,-56,-1,-1,0
29900,262144,82,-56,-1,-1,0
29933,0,82,-56,-1,-1,0
29966,-917504,82,-56,-1,-1,0
30000,-1114112,82,-56,-1,-1,0
30033,-983040,82,-56,-1,-1,0
30066,-1114112,82,-56,-1,-1,0
30099,-1179648,82,-56,-1,-1,0
30133,-1310720,82,-56,-1,-1,0
30166,-1048576,82,-56,-1,-1,0
30200,-1048576,82,-56,-1,-1,0
30233,-720896,82,-56,-1,-1,0
30266,-655360,82,-56,-1,-1,0
30300,-589824,82,-56,-1,-1,0
30333,1310720,82,-56,-1,-1,0
30366,0,82,-56,-1,-1,0
30400,-589824,82,-56,-1,-1,0
30433,-524288,82,-56,-1,-1,0
30466,0,82,-56,-1,-1,0
30500,851968,82,-56,-1,-1,0
30533,1310720,82,-56,-1,-1,0
30566,393216,82,-56,-1,-1,0
30599,65536,82,-56,-1,-1,0
30633,65536,82,-56,-1,-1,0
30666,-65536,82,-56,-1,-1,0
30700,-327680,82,-56,-1,-1,0
30733,-524288,82,-56,-1,-1,0
30766,-786432,82,-56,-1,-1,0
30800,-851968,82,-56,-1,-1,0
30833,-917504,82,-56,-1,-1,0
30866,-786432,82,-56,-1,-1,0
30900,-983040,82,-56,-1,-1,0
30933,-1245184,82,-56,-1,-1,0
30966,3080192,81,-56,-1,-1,0
31000,-1638400,81,-56,-1,-1,0
31033,-1638400,81,-56,-1,-1,0
31066,-1769472,81,-56,-1,-1,0
31099,-1441792,81,-56,-1,-1,0
31133,-262144,81,-56,-1,-1,0
31166,-65536,81,-56,-1,-1,0
31200,-1048576,81,-56,-1,-1,0
31233,-1048576,81,-56,-1,-1,0
31266,-589824,81,-56,-1,-1,0
31300,-393216,81,-56,-1,-1,0
31333,-393216,81,-56,-1,-1,0
31366,-524288,81,-56,-1,-1,0
31400,-327680,81,-56,-1,-1,0
31433,-196608,81,-56,-1,-1,0
31466,327680,81,-56,-1,-1,0
31500,0,81,-56,-1,-1,0
31533,0,81,-56,-1,-1,0
31566,8716288,82,-56,-1,-1,0
31599,-65536,82,-56,-1,-1,0
31633,0,82,-56,-1,-1,0
31666,65536,82,-56,-1,-1,0
31700,589824,82,-56,-1,-1,0
31733,1638400,82,-56,-1,-1,0
31766,1310720,82,-56,-1,-1,0
31800,655360,82,-56,-1,-1,0
31833,589824,82,-56,-1,-1,0
31866,655360,82,-56,-1,-1,0
31900,524288,82,-56,-1,-1,0
31933,327680,82,-56,-1,-1,0
31966,196608,82,-56,-1,-1,0
32000,131072,82,-56,-1,-1,0
32033,65536,82,-56,-1,-1,0
32066,393216,82,-56,-1,-1,0
32100,196608,82,-56,-1,-1,0
32133,131072,82,-56,-1,-1,0
32166,3932160,82,-56,-1,-1,0
32200,0,82,-56,-1,-1,0
32233,0,82,-56,-1,-1,0
32266,-196608,82,-56,-1,-1,0
32299,0,82,-56,-1,-1,0
32333,720896,82,-56,-1,-1,0
32366,917504,82,-56,-1,-1,0
32400,-65536,82,-56,-1,-1,0
32433,-393216,82,-56,-1,-1,0
32466,-327680,82,-56,-1,-1,0
32500,-524288,82,-56,-1,-1,0
32533,-720896,82,-56,-1,-1,0
32566,-851968,82,-56,-1,-1,0
32600,-1048576,82,-56,-1,-1,0
32633,-1179648,82,-56,-1,-1,0
32666,-720896,82,-56,-1,-1,0
32700,-1245184,82,-56,-1,-1,0
32733,-1310720,83,-56,-1,-1,0
32766,6488064,83,-56,-1,-1,0
32800,-1441792,83,-56,-1,-1,0
32833,-1376256,83,-56,-1,-1,0
32866,-1179648,83,-56,-1,-1,0
32900,-524288,83,-56,-1,-1,0
32933,524288,83,-56,-1,-1,0
32966,131072,83,-56,-1,-1,0
33000,-589824,83,-56,-1,-1,0
33033,-655360,83,-56,-1,-1,0
33066,-393216,83,-56,-1,-1,0
33100,-524288,83,-56,-1,-1,0
33133,-720896,83,-56,-1,-1,0
33166,-851968,83,-56,-1,-1,0
33200,-851968,83,-56,-1,-1,0
33233,-393216,83,-56,-1,-1,0
33266,-589824,83,-56,-1,-1,0
33300,-589824,83,-56,-1,-1,0
33333,3211264,83,-56,-1,-1,0
33366,-720896,83,-56,-1,-1,0
33400,-786432,83,-56,-1,-1,0
33433,-655360,83,-56,-1,-1,0
33466,-327680,83,-56,-1,-1,0
33500,655360,83,-56,-1,-1,0
33533,851968,83,-56,-1,-1,0
33566,0,83,-56,-1,-1,0
33600,-65536,83,-56,-1,-1,0
33633,0,83,-56,-1,-1,0
33666,-131072,83,-56,-1,-1,0
33700,-327680,83,-56,-1,-1,0
33733,-393216,83,-56,-1,-1,0
33766,-458752,83,-56,-1,-1,0
33800,-262144,83,-56,-1,-1,0
33833,-327680,83,-56,-1,-1,0
33866,-393216,84,-56,-1,-1,0
33900,1966080,84,-56,-1,-1,0
33933,-131072,84,-56,-1,-1,0
33966,-589824,84,-56,-1,-1,0
34000,-524288,84,-56,-1,-1,0
34033,-262144,84,-56,-1,-1,0
34066,589824,84,-56,-1,-1,0
34100,983040,84,-56,-1,-1,0
34133,65536,84,-56,-1,-1,0
34166,-196608,84,-56,-1,-1,0
34200,-131072,84,-56,-1,-1,0
34233,-196608,84,-56,-1,-1,0
34266,-458752,84,-56,-1,-1,0
34300,-720896,84,-56,-1,-1,0
34333,-983040,84,-56,-1,-1,0
34366,-589824,84,-56,-1,-1,0
34400,-1048576,84,-56,-1,-1,0
34433,-1048576,85,-56,-1,-1,0
34466,7208960,85,-56,-1,-1,0
34500,-1245184,85,-56,-1,-1,0
34533,-1376256,85,-56,-1,-1,0
34566,-1245184,85,-56,-1,-1,0
34600,-655360,85,-56,-1,-1,0
34633,458752,85,-56,-1,-1,0
34666,131072,85,-56,-1,-1,0
34700,-524288,85,-56,-1,-1,0
34733,-524288,85,-56,-1,-1,0
34766,-327680,85,-56,-1,-1,0
34800,-393216,85,-56,-1,-1,0
34833,-720896,85,-56,-1,-1,0
34866,-786432,85,-56,-1,-1,0
34900,-851968,85,-56,-1,-1,0
34933,-327680,85,-56,-1,-1,0
34966,-524288,85,-56,-1,-1,0
35000,-524288,86,-56,-1,-1,0
35033,5308416,86,-56,-1,-1,0
35066,-589824,86,-56,-1,-1,0
35100,-655360,86,-56,-1,-1,0
35133,-524288,86,-56,-1,-1,0
35166,-131072,86,-56,-1,-1,0
35200,851968,86,-56,-1,-1,0
35233,983040,86,-56,-1,-1,0
35266,65536,86,-56,-1,-1,0
35300,0,86,-56,-1,-1,0
35333,65536,86,-56,-1,-1,0
35366,0,86,-56,-1,-1,0
35400,-196608,86,-56,-1,-1,0
35433,-524288,86,-56,-1,-1,0
35466,-720896,86,-56,-1,-1,0
35500,-524288,86,-56,-1,-1,0
35533,-655360,86,-56,-1,-1,0
35566,-720896,86,-56,-1,-1,0
35600,1114112,86,-56,-1,-1,0
35633,-393216,86,-56,-1,-1,0
35666,-1114112,86,-56,-1,-1,0
35700,-983040,86,-56,-1,-1,0
35733,-655360,86,-56,-1,-1,0
35766,393216,86,-56,-1,-1,0
35800,786432,86,-56,-1,-1,0
35833,0,86,-56,-1,-1,0
35866,-327680,86,-56,-1,-1,0
35900,327680,86,-56,-1,-1,0
35933,720896,86,-56,-1,-1,0
35966,327680,86,-56,-1,-1,0
36000,131072,86,-56,-1,-1,0
36033,131072,86,-56,-1,-1,0
36066,458752,86,-56,-1,-1,0
36100,0,86,-56,-1,-1,0
36133,0,86,-56,-1,-1,0
36166,7733248,86,-56,-1,-1,0
36200,-196608,86,-56,-1,-1,0
36233,-458752,86,-56,-1,-1,0
36266,-327680,86,-56,-1,-1,0
36300,0,86,-56,-1,-1,0
36333,983040,86,-56,-1,-1,0
36366,393216,86,-56,-1,-1,0
36400,-393216,86,-56,-1,-1,0
36433,-327680,86,-56,-1,-1,0
36466,-262144,86,-56,-1,-1,0
36500,-655360,86,-56,-1,-1,0
36533,-720896,86,-56,-1,-1,0
36566,-720896,86,-56,-1,-1,0
36600,-786432,86,-56,-1,-1,0
36633,-589824,86,-56,-1,-1,0
36666,-589824,87,-56,-1,-1,0
36700,-262144,87,-56,-1,-1,0
36733,3670016,87,-56,-1,-1,0
36766,-786432,87,-56,-1,-1,0
36800,-196608,87,-56,-1,-1,0
36833,0,87,-56,-1,-1,0
36866,851968,87,-56,-1,-1,0
36900,1835008,87,-56,-1,-1,0
36933,1179648,87,-56,-1,-1,0
36966,851968,87,-56,-1,-1,0
37000,1114112,87,-56,-1,-1,0
37033,851968,87,-56,-1,-1,0
37066,655360,87,-56,-1,-1,0
37100,655360,87,-56,-1,-1,0
37133,786432,87,-56,-1,-1,0
37166,1310720,87,-56,-1,-1,0
37200,851968,87,-56,-1,-1,0
37233,917504,87,-56,-1,-1,0
37266,8192000,87,-56,-1,-1,0
37300,589824,87,-56,-1,-1,0
37333,393216,87,-56,-1,-1,0
37366,393216,87,-56,-1,-1,0
37400,786432,87,-56,-1,-1,0
37433,1376256,87,-56,-1,-1,0
37466,655360,87,-56,-1,-1,0
37500,-393216,87,-56,-1,-1,0
37533,-720896,87,-56,-1,-1,0
37566,-1048576,87,-56,-1,-1,0
37600,-1572864,87,-56,-1,-1,0
37633,-2031616,87,-56,-1,-1,0
37666,-2490368,87,-56,-1,-1,0
37700,-2162688,87,-56,-1,-1,0
37733,-2490368,87,-56,-1,-1,0
37766,-2621440,87,-56,-1,-1,0
37800,3080192,87,-56,-1,-1,0
37833,-3014656,87,-56,-1,-1,0
37866,-2818048,87,-56,-1,-1,0
37900,-2686976,87,-56,-1,-1,0
37933,-1638400,87,-56,-1,-1,0
37966,-786432,87,-56,-1,-1,0
38000,-1572864,87,-56,-1,-1,0
38033,-1900544,87,-56,-1,-1,0
38066,-1638400,87,-56,-1,-1,0
38100,-1835008,87,-56,-1,-1,0
38133,-1572864,87,-56,-1,-1,0
38166,-1900544,87,-56,-1,-1,0
38200,-1441792,88,-56,-1,-1,0
38233,-1507328,88,-56,-1,-1,0
38266,-1703936,88,-56,-1,-1,0
38300,5242880,88,-56,-1,-1,0
38333,-2228224,88,-56,-1,-1,0
38366,-1638400,88,-56,-1,-1,0
38400,-1245184,88,-56,-1,-1,0
38433,-327680,88,-56,-1,-1,0
38466,655360,88,-56,-1,-1,0
38500,720896,88,-56,-1,-1,0
38533,196608,88,-56,-1,-1,0
38566,262144,88,-56,-1,-1,0
38600,262144,88,-56,-1,-1,0
38633,262144,88,-56,-1,-1,0
38666,65536,88,-56,-1,-1,0
38700,393216,88,-56,-1,-1,0
38733,196608,88,-56,-1,-1,0
38766,65536,88,-56,-1,-1,0
38800,6946816,88,-56,-1,-1,0
38833,0,88,-56,-1,-1,0
38866,0,88,-56,-1,-1,0
38900,393216,88,-56,-1,-1,0
38933,983040,88,-56,-1,-1,0
38966,1441792,88,-56,-1,-1,0
39000,1507328,88,-56,-1,-1,0
39033,589824,88,-56,-1,-1,0
39066,786432,88,-56,-1,-1,0
39100,720896,89,-56,-1,-1,0
39133,524288,89,-56,-1,-1,0
39166,458752,89,-56,-1,-1,0
39200,0,89,-56,-1,-1,0
39233,-458752,89,-56,-1,-1,0
39266,2752512,89,-56,-1,-1,0
39300,-1441792,89,-56,-1,-1,0
39333,-1376256,89,-56,-1,-1,0
39366,-1507328,89,-56,-1,-1,0
39400,-1245184,89,-56,-1,-1,0
39433,-589824,89,-56,-1,-1,0
39466,-589824,89,-56,-1,-1,0
39500,-1441792,89,-56,-1,-1,0
39533,-1114112,89,-56,-1,-1,0
39566,-720896,89,-56,-1,-1,0
39600,-1310720,89,-56,-1,-1,0
39633,-917504,89,-56,-1,-1,0
39666,-1376256,89,-56,-1,-1,0
39700,-1507328,89,-56,-1,-1,0
39733,4718592,89,-56,-1,-1,0
39766,-1114112,89,-56,-1,-1,0
39800,-983040,89,-56,-1,-1,0
39833,-458752,89,-56,-1,-1,0
39866,65536,89,-56,-1,-1,0
39900,1048576,89,-56,-1,-1,0
39933,393216,89,-56,-1,-1,0
39966,327680,89,-56,-1,-1,0
40000,655360,90,-56,-1,-1,0
40033,524288,90,-56,-1,-1,0
40066,851968,90,-56,-1,-1,0
40100,524288,90,-56,-1,-1,0
40133,458752,90,-56,-1,-1,0
40166,1376256,90,-56,-1,-1,0
40200,2293760,90,-56,-1,-1,0
40233,393216,90,-56,-1,-1,0
40266,262144,90,-56,-1,-1,0
40300,524288,90,-56,-1,-1,0
40333,1376256,90,-56,-1,-1,0
40366,1376256,90,-56,-1,-1,0
40400,720896,90,-56,-1,-1,0
40433,262144,90,-56,-1,-1,0
40466,589824,92,-56,-1,-1,0
40500,589824,92,-56,-1,-1,0
40533,720896,92,-56,-1,-1,0
40566,0,92,-56,-1,-1,0
40600,-131072,92,-56,-1,-1,0
40633,7471104,92,-56,-1,-1,0
40666,-589824,92,-56,-1,-1,0
40700,-655360,92,-56,-1,-1,0
40733,-786432,92,-56,-1,-1,0
40766,-196608,92,-56,-1,-1,0
40800,0,92,-56,-1,-1,0
40833,-131072,92,-56,-1,-1,0
40866,-655360,92,-56,-1,-1,0
40900,-720896,92,-56,-1,-1,0
40933,-1048576,94,-56,-1,-1,0
40966,-1310720,94,-56,-1,-1,0
41000,-1507328,94,-56,-1,-1,0
41033,-1703936,94,-56,-1,-1,0
41066,65536,94,-56,-1,-1,0
41100,-1638400,94,-56,-1,-1,0
41133,-1900544,94,-56,-1,-1,0
41166,-1769472,94,-56,-1,-1,0
41200,-1441792,94,-56,-1,-1,0
41233,-458752,94,-56,-1,-1,0
41266,-131072,94,-56,-1,-1,0
41300,-917504,94,-56,-1,-1,0
41333,-917504,94,-56,-1,-1,0
41366,-786432,94,-56,-1,-1,0
41400,-1179648,96,-56,-1,-1,0
41433,-1048576,96,-56,-1,-1,0
41466,-1769472,96,-56,-1,-1,0
41500,-2031616,96,-56,-1,-1,0
41533,6356992,96,-56,-1,-1,0
41566,-1900544,96,-56,-1,-1,0
41600,-2031616,96,-56,-1,-1,0
41633,-1769472,96,-56,-1,-1,0
41666,-1179648,96,-56,-1,-1,0
41700,-524288,96,-56,-1,-1,0
41733,-917504,96,-56,-1,-1,0
41766,-1048576,96,-56,-1,-1,0
41800,-589824,96,-56,-1,-1,0
41833,-393216,96,-56,-1,-1,0
41866,-196608,96,-56,-1,-1,0
41900,0,99,-56,-1,-1,0
41933,327680,99,-56,-1,-1,0
41966,720896,99,-56,-1,-1,0
42000,5701632,99,-56,-1,-1,0
42033,983040,99,-56,-1,-1,0
42066,1179648,99,-56,-1,-1,0
42100,1245184,99,-56,-1,-1,0
42133,1507328,99,-56,-1,-1,0
42166,2162688,99,-56,-1,-1,0
42200,2097152,99,-56,-1,-1,0
42233,1441792,99,-56,-1,-1,0
42266,1245184,99,-56,-1,-1,0
42300,1179648,99,-56,-1,-1,0
42333,851968,99,-56,-1,-1,0
42366,720896,99,-56,-1,-1,0
42400,786432,99,-56,-1,-1,0
42433,458752,100,-56,-1,-1,0
42466,196608,100,-56,-1,-1,0
42500,6553600,100,-56,-1,-1,0
42533,-131072,100,-56,-1,-1,0
42566,-393216,100,-56,-1,-1,0
42600,-524288,100,-56,-1,-1,0
42633,-196608,100,-56,-1,-1,0
42666,458752,100,-56,-1,-1,0
42700,196608,100,-56,-1,-1,0
42733,-458752,100,-56,-1,-1,0
42766,-458752,100,-56,-1,-1,0
42800,-327680,100,-56,-1,-1,0
42833,-458752,100,-56,-1,-1,0
42866,-655360,100,-56,-1,-1,0
42900,-917504,100,-56,-1,-1,0
42933,-851968,100,-56,-1,-1,0
42966,-917504,100,-56,-1,-1,0
43000,-983040,100,-56,-1,-1,0
43033,2031616,100,-56,-1,-1,0
43066,-983040,100,-56,-1,-1,0
43100,-1048576,100,-56,-1,-1,0
43133,-917504,100,-56,-1,-1,0
43166,-720896,100,-56,-1,-1,0
43200,0,100,-56,-1,-1,0
43233,0,100,-56,-1,-1,0
43266,-393216,100,-56,-1,-1,0
43300,-786432,100,-56,-1,-1,0
43333,-851968,100,-56,-1,-1,0
43366,-917504,100,-56,-1,-1,0
43400,-1048576,100,-56,-1,-1,0
43433,-983040,100,-56,-1,-1,0
43466,-851968,100,-56,-1,-1,0
43500,-655360,100,-56,-1,-1,0
43533,-851968,100,-56,-1,-1,0
43566,-655360,100,-56,-1,-1,0
43600,7274496,100,-56,-1,-1,0
43633,-917504,100,-56,-1,-1,0
43666,-1048576,100,-56,-1,-1,0
43700,-786432,100,-56,-1,-1,0
43733,-327680,100,-56,-1,-1,0
43766,524288,100,-56,-1,-1,0
43800,393216,100,-56,-1,-1,0
43833,-393216,100,-56,-1,-1,0
43866,-393216,100,-56,-1,-1,0
43900,-65536,100,-56,-1,-1,0
43933,-393216,100,-56,-1,-1,0
43966,-524288,100,-56,-1,-1,0
44000,-589824,100,-56,-1,-1,0
44033,-196608,100,-56,-1,-1,0
44066,0,100,-56,-1,-1,0
44100,65536,100,-56,-1,-1,0
44133,4849664,100,-56,-1,-1,0
44166,-131072,100,-56,-1,-1,0
44200,0,100,-56,-1,-1,0
44233,65536,100,-56,-1,-1,0
44266,327680,100,-56,-1,-1,0
44300,1245184,100,-56,-1,-1,0
44333,1179648,100,-56,-1,-1,0
44366,393216,100,-56,-1,-1,0
44400,393216,100,-56,-1,-1,0
44433,393216,100,-56,-1,-1,0
44466,327680,100,-56,-1,-1,0
44500,196608,100,-56,-1,-1,0
44533,-196608,100,-56,-1,-1,0
44566,-196608,100,-56,-1,-1,0
44600,0,100,-56,-1,-1,0
44633,-458752,100,-56,-1,-1,0
44666,-786432,100,-56,-1,-1,0
44700,6029312,100,-56,-1,-1,0
44733,-1048576,100,-56,-1,-1,0
44766,-917504,100,-56,-1,-1,0
44800,-786432,100,-56,-1,-1,0
44833,-262144,100,-56,-1,-1,0
44866,524288,100,-56,-1,-1,0
44900,-65536,100,-56,-1,-1,0
44933,-393216,100,-56,-1,-1,0
44966,-262144,100,-56,-1,-1,0
45000,-262144,100,-56,-1,-1,0
45033,-720896,100,-56,-1,-1,0
45066,-983040,100,-56,-1,-1,0
45100,-1048576,100,-56,-1,-1,0
45133,-1179648,100,-56,-1,-1,0
45166,-1179648,100,-56,-1,-1,0
45200,-786432,100,-56,-1,-1,0
45233,-1048576,100,-56,-1,-1,0
45266,-917504,100,-56,-1,-1,0
45300,3670016,100,-56,-1,-1,0
45333,-1441792,100,-56,-1,-1,0
45366,-1507328,100,-56,-1,-1,0
45400,-1245184,100,-56,-1,-1,0
45433,-393216,100,-56,-1,-1,0
45466,131072,100,-56,-1,-1,0
45500,-262144,100,-56,-1,-1,0
45533,-720896,100,-56,-1,-1,0
45566,-524288,100,-56,-1,-1,0
45600,-327680,100,-56,-1,-1,0
45633,-524288,100,-56,-1,-1,0
45666,-589824,100,-56,-1,-1,0
45700,-524288,100,-56,-1,-1,0
45733,-327680,100,-56,-1,-1,0
45766,-327680,100,-56,-1,-1,0
45800,-196608,100,-56,-1,-1,0
45833,6094848,100,-56,-1,-1,0
45866,-393216,100,-56,-1,-1,0
45900,-458752,100,-56,-1,-1,0
45933,-393216,100,-56,-1,-1,0
45966,0,100,-56,-1,-1,0
46000,917504,100,-56,-1,-1,0
46033,786432,100,-56,-1,-1,0
46066,131072,100,-56,-1,-1,0
46100,196608,100,-56,-1,-1,0
46133,327680,100,-56,-1,-1,0
46166,327680,100,-56,-1,-1,0
46200,196608,100,-56,-1,-1,0
46233,327680,100,-56,-1,-1,0
46266,196608,100,-56,-1,-1,0
46300,524288,100,-56,-1,-1,0
46333,0,99,-56,-1,-1,0
46366,131072,99,-56,-1,-1,0
46400,4849664,99,-56,-1,-1,0
46433,-196608,99,-56,-1,-1,0
46466,-196608,99,-56,-1,-1,0
46500,-262144,99,-56,-1,-1,0
46533,327680,99,-56,-1,-1,0
46566,1114112,99,-56,-1,-1,0
46600,1245184,99,-56,-1,-1,0
46633,393216,99,-56,-1,-1,0
46666,262144,99,-56,-1,-1,0
46700,393216,99,-56,-1,-1,0
46733,131072,99,-56,-1,-1,0
46766,0,99,-56,-1,-1,0
46800,-393216,99,-56,-1,-1,0
46833,-786432,99,-56,-1,-1,0
46866,-786432,98,-56,-1,-1,0
46900,-1179648,98,-56,-1,-1,0
46933,-196608,98,-56,-1,-1,0
46966,327680,98,-56,-1,-1,0
47000,-1703936,98,-56,-1,-1,0
47033,-1703936,98,-56,-1,-1,0
47066,-1441792,98,-56,-1,-1,0
47100,-589824,98,-56,-1,-1,0
47133,0,98,-56,-1,-1,0
47166,-589824,98,-56,-1,-1,0
47200,-917504,98,-56,-1,-1,0
47233,-786432,98,-56,-1,-1,0
47266,-851968,98,-56,-1,-1,0
47300,-983040,98,-56,-1,-1,0
47333,-851968,98,-56,-1,-1,0
47366,-1245184,98,-56,-1,-1,0
47400,-786432,98,-56,-1,-1,0
47433,-1245184,95,-56,-1,-1,0
47466,-1245184,95,-56,-1,-1,0
47500,5177344,95,-56,-1,-1,0
47533,-1310720,95,-56,-1,-1,0
47566,-1245184,95,-56,-1,-1,0
47600,-1048576,95,-56,-1,-1,0
47633,-196608,95,-56,-1,-1,0
47666,720896,95,-56,-1,-1,0
47700,196608,95,-56,-1,-1,0
47733,0,95,-56,-1,-1,0
47766,65536,95,-56,-1,-1,0
47800,327680,95,-56,-1,-1,0
47833,196608,95,-56,-1,-1,0
47866,131072,95,-56,-1,-1,0
47900,131072,93,-56,-1,-1,0
47933,393216,93,-56,-1,-1,0
47966,0,93,-56,-1,-1,0
48000,0,93,-56,-1,-1,0
48033,7471104,93,-56,-1,-1,0
48066,-262144,93,-56,-1,-1,0
48100,-393216,93,-56,-1,-1,0
48133,-262144,93,-56,-1,-1,0
48166,262144,93,-56,-1,-1,0
48200,983040,93,-56,-1,-1,0
48233,786432,93,-56,-1,-1,0
48266,-131072,93,-56,-1,-1,0
48300,-393216,93,-56,-1,-1,0
48333,0,93,-56,-1,-1,0
48366,-131072,93,-56,-1,-1,0
48400,-327680,93,-56,-1,-1,0
48433,-393216,93,-56,-1,-1,0
48466,-393216,92,-56,-1,-1,0
48500,4718592,92,-56,-1,-1,0
48533,-589824,92,-56,-1,-1,0
48566,-458752,92,-56,-1,-1,0
48600,-327680,92,-56,-1,-1,0
48633,131072,92,-56,-1,-1,0
48666,1179648,92,-56,-1,-1,0
48700,1114112,92,-56,-1,-1,0
48733,196608,92,-56,-1,-1,0
48766,65536,92,-56,-1,-1,0
48800,327680,92,-56,-1,-1,0
48833,65536,92,-56,-1,-1,0
48866,-262144,92,-56,-1,-1,0
48900,-524288,92,-56,-1,-1,0
48933,-786432,92,-56,-1,-1,0
48966,-983040,92,-56,-1,-1,0
49000,-524288,92,-56,-1,-1,0
49033,-1048576,92,-56,-1,-1,0
49066,-1179648,92,-56,-1,-1,0
49100,6356992,92,-56,-1,-1,0
49133,-1310720,92,-56,-1,-1,0
49166,-1245184,92,-56,-1,-1,0
49200,-917504,92,-56,-1,-1,0
49233,-327680,92,-56,-1,-1,0
49266,262144,92,-56,-1,-1,0
49300,0,92,-56,-1,-1,0
49333,-589824,92,-56,-1,-1,0
49366,-524288,92,-56,-1,-1,0
49400,-327680,92,-56,-1,-1,0
49433,-393216,92,-56,-1,-1,0
49466,-524288,92,-56,-1,-1,0
49500,-655360,92,-56,-1,-1,0
49533,-458752,92,-56,-1,-1,0
49566,-720896,92,-56,-1,-1,0
49600,-720896,92,-56,-1,-1,0
49633,7471104,92,-56,-1,-1,0
49666,-786432,92,-56,-1,-1,0
49700,-917504,92,-56,-1,-1,0
49733,-720896,92,-56,-1,-1,0
49766,-131072,92,-56,-1,-1,0
49800,655360,92,-56,-1,-1,0
49833,393216,92,-56,-1,-1,0
49866,-196608,92,-56,-1,-1,0
49900,-327680,92,-56,-1,-1,0
49933,-65536,92,-56,-1,-1,0
49966,-131072,92,-56,-1,-1,0
50000,-262144,92,-56,-1,-1,0
