milliseconds, ECG, ECG HR, PPG, PPG HR, SpO2, PI
0,1048576,106,-56,-1,-1,0
33,-196608,106,-56,-1,-1,0
66,-458752,106,-56,-1,-1,0
100,-327680,106,-56,-1,-1,0
133,-458752,106,-56,-1,-1,0
166,-589824,106,-56,-1,-1,0
200,-720896,104,-56,-1,-1,0
233,-589824,104,-56,-1,-1,0
266,-786432,104,-56,-1,-1,0
300,-917504,104,-56,-1,-1,0
333,6356992,104,-56,-1,-1,0
366,-655360,104,-56,-1,-1,0
400,-458752,104,-56,-1,-1,0
433,65536,104,-56,-1,-1,0
466,1310720,104,-56,-1,-1,0
500,1441792,104,-56,-1,-1,0
533,-65536,104,-56,-1,-1,0
566,-393216,104,-56,-1,-1,0
600,-327680,104,-56,-1,-1,0
633,-524288,104,-56,-1,-1,0
666,-720896,103,-56,-1,-1,0
700,-786432,103,-56,-1,-1,0
733,-851968,103,-56,-1,-1,0
766,-983040,103,-56,-1,-1,0
800,3211264,103,-56,-1,-1,0
833,-1048576,103,-56,-1,-1,0
866,-720896,103,-56,-1,-1,0
900,-393216,103,-56,-1,-1,0
933,524288,103,-56,-1,-1,0
966,1638400,103,-56,-1,-1,0
1000,196608,103,-56,-1,-1,0
1033,-786432,103,-56,-1,-1,0
1066,-720896,103,-56,-1,-1,0
1100,-655360,103,-56,-1,-1,0
1133,-786432,103,-56,-1,-1,0
1166,-983040,102,-56,-1,-1,0
1200,-720896,102,-56,-1,-1,0
1233,-983040,102,-56,-1,-1,0
1266,-983040,102,-56,-1,-1,0
1300,4456448,102,-56,-1,-1,0
1333,-720896,102,-56,-1,-1,0
1366,-524288,102,-56,-1,-1,0
1400,65536,102,-56,-1,-1,0
1433,1376256,102,-56,-1,-1,0
1466,983040,102,-56,-1,-1,0
1500,-262144,102,-56,-1,-1,0
1533,-524288,102,-56,-1,-1,0
1566,-458752,102,-56,-1,-1,0
1600,-524288,102,-56,-1,-1,0
1633,-720896,102,-56,-1,-1,0
1666,-720896,102,-56,-1,-1,0
1700,-786432,102,-56,-1,-1,0
1733,-851968,102,-56,-1,-1,0
1766,3932160,102,-56,-1,-1,0
1800,-720896,102,-56,-1,-1,0
1833,-786432,102,-56,-1,-1,0
1866,-393216,102,-56,-1,-1,0
1900,458752,102,-56,-1,-1,0
1933,1376256,102,-56,-1,-1,0
1966,131072,102,-56,-1,-1,0
2000,-589824,102,-56,-1,-1,0
2033,-589824,102,-56,-1,-1,0
2066,-524288,102,-56,-1,-1,0
2100,-655360,102,-56,-1,-1,0
2133,-851968,102,-56,-1,-1,0
2166,-589824,102,-56,-1,-1,0
2200,-917504,102,-56,-1,-1,0
2233,-1048576,102,-56,-1,-1,0
2266,5177344,102,-56,-1,-1,0
2300,-720896,102,-56,-1,-1,0
2333,-524288,102,-56,-1,-1,0
2366,65536,102,-56,-1,-1,0
2400,1441792,102,-56,-1,-1,0
2433,1245184,102,-56,-1,-1,0
2466,-131072,102,-56,-1,-1,0
2500,-327680,102,-56,-1,-1,0
2533,-262144,102,-56,-1,-1,0
2566,-327680,102,-56,-1,-1,0
2600,-393216,102,-56,-1,-1,0
2633,-589824,102,-56,-1,-1,0
2666,-524288,102,-56,-1,-1,0
2700,-720896,102,-56,-1,-1,0
2733,983040,102,-56,-1,-1,0
2766,0,102,-56,-1,-1,0
2800,-655360,102,-56,-1,-1,0
2833,-393216,102,-56,-1,-1,0
2866,327680,102,-56,-1,-1,0
2900,1441792,102,-56,-1,-1,0
2933,393216,102,-56,-1,-1,0
2966,-524288,102,-56,-1,-1,0
3000,-524288,102,-56,-1,-1,0
3033,-524288,102,-56,-1,-1,0
3066,-655360,102,-56,-1,-1,0
3100,-720896,102,-56,-1,-1,0
3133,-917504,101,-56,-1,-1,0
3166,-720896,101,-56,-1,-1,0
3200,-917504,101,-56,-1,-1,0
3233,-851968,101,-56,-1,-1,0
3266,2949120,101,-56,-1,-1,0
3300,-851968,101,-56,-1,-1,0
3333,-589824,101,-56,-1,-1,0
3366,0,101,-56,-1,-1,0
3400,1245184,101,-56,-1,-1,0
3433,786432,101,-56,-1,-1,0
3466,-393216,101,-56,-1,-1,0
3500,-589824,101,-56,-1,-1,0
3533,-524288,101,-56,-1,-1,0
3566,-589824,101,-56,-1,-1,0
3600,-589824,100,-56,-1,-1,0
3633,-720896,100,-56,-1,-1,0
3666,-524288,100,-56,-1,-1,0
3699,-720896,100,-56,-1,-1,0
3733,589824,100,-56,-1,-1,0
3766,524288,100,-56,-1,-1,0
3800,-458752,100,-56,-1,-1,0
3833,-196608,100,-56,-1,-1,0
3866,589824,100,-56,-1,-1,0
3900,1835008,100,-56,-1,-1,0
3933,720896,100,-56,-1,-1,0
3966,-327680,100,-56,-1,-1,0
4000,-393216,100,-56,-1,-1,0
4033,-458752,100,-56,-1,-1,0
4066,-589824,100,-56,-1,-1,0
4100,-786432,100,-56,-1,-1,0
4133,-524288,100,-56,-1,-1,0
4166,-851968,100,-56,-1,-1,0
4200,-917504,100,-56,-1,-1,0
4233,5701632,100,-56,-1,-1,0
4266,-851968,100,-56,-1,-1,0
4300,-589824,100,-56,-1,-1,0
4333,0,100,-56,-1,-1,0
4366,1572864,100,-56,-1,-1,0
4400,1245184,100,-56,-1,-1,0
4433,-524288,100,-56,-1,-1,0
4466,-917504,100,-56,-1,-1,0
4500,-720896,100,-56,-1,-1,0
4533,-720896,100,-56,-1,-1,0
4566,-917504,101,-56,-1,-1,0
4600,-917504,101,-56,-1,-1,0
4633,-1048576,101,-56,-1,-1,0
4666,-1048576,101,-56,-1,-1,0
4700,7077888,101,-56,-1,-1,0
4733,-917504,101,-56,-1,-1,0
4766,-589824,101,-56,-1,-1,0
4800,-131072,101,-56,-1,-1,0
4833,1179648,101,-56,-1,-1,0
4866,1638400,101,-56,-1,-1,0
4900,0,101,-56,-1,-1,0
4933,-589824,101,-56,-1,-1,0
4966,-524288,101,-56,-1,-1,0
5000,-393216,101,-56,-1,-1,0
5033,-524288,101,-56,-1,-1,0
5066,-720896,101,-56,-1,-1,0
5100,-589824,101,-56,-1,-1,0
5133,-851968,101,-56,-1,-1,0
5166,327680,101,-56,-1,-1,0
5200,720896,101,-56,-1,-1,0
5233,-720896,101,-56,-1,-1,0
5266,-393216,101,-56,-1,-1,0
5300,327680,101,-56,-1,-1,0
5333,1572864,101,-56,-1,-1,0
5366,589824,101,-56,-1,-1,0
5400,-524288,101,-56,-1,-1,0
5433,-589824,101,-56,-1,-1,0
5466,-589824,101,-56,-1,-1,0
5500,-720896,101,-56,-1,-1,0
5533,-720896,101,-56,-1,-1,0
5566,-786432,102,-56,-1,-1,0
5600,-917504,102,-56,-1,-1,0
5633,-983040,102,-56,-1,-1,0
5666,4259840,102,-56,-1,-1,0
5700,-786432,102,-56,-1,-1,0
5733,-720896,102,-56,-1,-1,0
5766,-262144,102,-56,-1,-1,0
5800,786432,102,-56,-1,-1,0
5833,1835008,102,-56,-1,-1,0
5866,262144,102,-56,-1,-1,0
5900,-393216,102,-56,-1,-1,0
5933,-393216,102,-56,-1,-1,0
5966,-327680,102,-56,-1,-1,0
6000,-458752,102,-56,-1,-1,0
6033,-655360,102,-56,-1,-1,0
6066,-393216,102,-56,-1,-1,0
6100,-655360,102,-56,-1,-1,0
6133,-786432,102,-56,-1,-1,0
6166,7667712,102,-56,-1,-1,0
6200,-786432,102,-56,-1,-1,0
6233,-458752,102,-56,-1,-1,0
6266,65536,102,-56,-1,-1,0
6300,1507328,102,-56,-1,-1,0
6333,1703936,102,-56,-1,-1,0
6366,-65536,102,-56,-1,-1,0
6400,-655360,102,-56,-1,-1,0
6433,-524288,102,-56,-1,-1,0
6466,-524288,102,-56,-1,-1,0
6500,-786432,102,-56,-1,-1,0
6533,-917504,102,-56,-1,-1,0
6566,-720896,102,-56,-1,-1,0
6600,-983040,102,-56,-1,-1,0
6633,-983040,102,-56,-1,-1,0
6666,3604480,102,-56,-1,-1,0
6700,-851968,102,-56,-1,-1,0
6733,-524288,102,-56,-1,-1,0
6766,131072,102,-56,-1,-1,0
6800,1703936,102,-56,-1,-1,0
6833,1048576,102,-56,-1,-1,0
6866,-589824,102,-56,-1,-1,0
6899,-786432,102,-56,-1,-1,0
6933,-655360,102,-56,-1,-1,0
6966,-589824,102,-56,-1,-1,0
7000,-720896,102,-56,-1,-1,0
7033,-851968,102,-56,-1,-1,0
7066,-589824,102,-56,-1,-1,0
7100,-851968,102,-56,-1,-1,0
7133,-589824,102,-56,-1,-1,0
7166,2686976,102,-56,-1,-1,0
7200,-720896,102,-56,-1,-1,0
7233,-393216,102,-56,-1,-1,0
7266,131072,102,-56,-1,-1,0
7300,1638400,102,-56,-1,-1,0
7333,851968,102,-56,-1,-1,0
7366,-393216,102,-56,-1,-1,0
7399,-589824,102,-56,-1,-1,0
7433,-458752,102,-56,-1,-1,0
7466,-524288,102,-56,-1,-1,0
7500,-589824,102,-56,-1,-1,0
7533,-720896,102,-56,-1,-1,0
7566,-720896,102,-56,-1,-1,0
7600,-786432,102,-56,-1,-1,0
7633,-851968,102,-56,-1,-1,0
7666,5439488,102,-56,-1,-1,0
7700,-720896,102,-56,-1,-1,0
7733,-655360,102,-56,-1,-1,0
7766,-262144,102,-56,-1,-1,0
7800,720896,102,-56,-1,-1,0
7833,1769472,102,-56,-1,-1,0
7866,131072,102,-56,-1,-1,0
7899,-458752,102,-56,-1,-1,0
7933,-458752,102,-56,-1,-1,0
7966,-458752,102,-56,-1,-1,0
8000,-655360,102,-56,-1,-1,0
8033,-655360,102,-56,-1,-1,0
8066,-720896,102,-56,-1,-1,0
8100,-524288,102,-56,-1,-1,0
8133,-851968,102,-56,-1,-1,0
8166,393216,102,-56,-1,-1,0
8200,524288,102,-56,-1,-1,0
8233,-720896,102,-56,-1,-1,0
8266,-458752,102,-56,-1,-1,0
8300,458752,102,-56,-1,-1,0
8333,2031616,102,-56,-1,-1,0
8366,786432,102,-56,-1,-1,0
8400,-524288,102,-56,-1,-1,0
8433,-655360,102,-56,-1,-1,0
8466,-524288,102,-56,-1,-1,0
8500,-655360,102,-56,-1,-1,0
8533,-720896,102,-56,-1,-1,0
8566,-851968,102,-56,-1,-1,0
8600,-786432,102,-56,-1,-1,0
8633,-983040,102,-56,-1,-1,0
8666,196608,102,-56,-1,-1,0
8700,327680,102,-56,-1,-1,0
8733,-786432,102,-56,-1,-1,0
8766,-524288,102,-56,-1,-1,0
8800,393216,102,-56,-1,-1,0
8833,2097152,102,-56,-1,-1,0
8866,851968,102,-56,-1,-1,0
8900,-524288,102,-56,-1,-1,0
8933,-589824,102,-56,-1,-1,0
8966,-524288,102,-56,-1,-1,0
9000,-524288,102,-56,-1,-1,0
9033,-786432,102,-56,-1,-1,0
9066,-786432,102,-56,-1,-1,0
9100,-851968,102,-56,-1,-1,0
9133,-983040,102,-56,-1,-1,0
9166,3735552,102,-56,-1,-1,0
9200,-851968,102,-56,-1,-1,0
9233,-786432,102,-56,-1,-1,0
9266,-393216,102,-56,-1,-1,0
9300,655360,102,-56,-1,-1,0
9333,1900544,102,-56,-1,-1,0
9366,131072,102,-56,-1,-1,0
9400,-720896,102,-56,-1,-1,0
9433,-786432,102,-56,-1,-1,0
9466,-589824,102,-56,-1,-1,0
9500,-655360,102,-56,-1,-1,0
9533,-786432,102,-56,-1,-1,0
9566,-983040,102,-56,-1,-1,0
9600,-786432,102,-56,-1,-1,0
9633,-851968,102,-56,-1,-1,0
9666,196608,102,-56,-1,-1,0
9700,786432,102,-56,-1,-1,0
9733,-720896,102,-56,-1,-1,0
9766,-524288,102,-56,-1,-1,0
9800,393216,102,-56,-1,-1,0
9833,1966080,102,-56,-1,-1,0
9866,786432,102,-56,-1,-1,0
9900,-524288,102,-56,-1,-1,0
9933,-655360,102,-56,-1,-1,0
9966,-458752,102,-56,-1,-1,0
10000,-524288,102,-56,-1,-1,0
10033,-655360,102,-56,-1,-1,0
10066,-720896,101,-56,-1,-1,0
10100,-720896,101,-56,-1,-1,0
10133,-851968,101,-56,-1,-1,0
10166,786432,101,-56,-1,-1,0
10200,196608,101,-56,-1,-1,0
10233,-720896,101,-56,-1,-1,0
10266,-262144,101,-56,-1,-1,0
10300,458752,101,-56,-1,-1,0
10333,2097152,101,-56,-1,-1,0
10366,720896,101,-56,-1,-1,0
10400,-458752,101,-56,-1,-1,0
10433,-524288,101,-56,-1,-1,0
10466,-458752,101,-56,-1,-1,0
10500,-393216,101,-56,-1,-1,0
10533,-458752,101,-56,-1,-1,0
10566,-720896,101,-56,-1,-1,0
10600,-524288,101,-56,-1,-1,0
10633,-786432,101,-56,-1,-1,0
10666,-983040,101,-56,-1,-1,0
10700,5570560,101,-56,-1,-1,0
10733,-786432,101,-56,-1,-1,0
10766,-589824,101,-56,-1,-1,0
10800,0,101,-56,-1,-1,0
10833,1507328,101,-56,-1,-1,0
10866,1376256,101,-56,-1,-1,0
10900,-393216,101,-56,-1,-1,0
10933,-720896,101,-56,-1,-1,0
10966,-589824,101,-56,-1,-1,0
11000,-524288,101,-56,-1,-1,0
11033,-655360,101,-56,-1,-1,0
11066,-786432,101,-56,-1,-1,0
11100,-655360,101,-56,-1,-1,0
11133,-851968,101,-56,-1,-1,0
11166,-917504,101,-56,-1,-1,0
11200,7733248,101,-56,-1,-1,0
11233,-720896,101,-56,-1,-1,0
11266,-589824,101,-56,-1,-1,0
11300,-65536,101,-56,-1,-1,0
11333,1310720,101,-56,-1,-1,0
11366,1638400,101,-56,-1,-1,0
11400,-65536,101,-56,-1,-1,0
11433,-458752,101,-56,-1,-1,0
11466,-393216,101,-56,-1,-1,0
11500,-327680,101,-56,-1,-1,0
11533,-458752,101,-56,-1,-1,0
11566,-589824,101,-56,-1,-1,0
11600,-589824,100,-56,-1,-1,0
11633,-720896,100,-56,-1,-1,0
11666,-851968,100,-56,-1,-1,0
11700,4915200,100,-56,-1,-1,0
11733,-720896,100,-56,-1,-1,0
11766,-720896,100,-56,-1,-1,0
11800,-327680,100,-56,-1,-1,0
11833,655360,100,-56,-1,-1,0
11866,1769472,100,-56,-1,-1,0
11900,65536,100,-56,-1,-1,0
11933,-655360,100,-56,-1,-1,0
11966,-655360,100,-56,-1,-1,0
12000,-655360,100,-56,-1,-1,0
12033,-720896,100,-56,-1,-1,0
12066,-851968,100,-56,-1,-1,0
12100,-983040,100,-56,-1,-1,0
12133,-917504,100,-56,-1,-1,0
12166,-1048576,100,-56,-1,-1,0
12200,3080192,100,-56,-1,-1,0
12233,-720896,100,-56,-1,-1,0
12266,-917504,100,-56,-1,-1,0
12300,-458752,100,-56,-1,-1,0
12333,589824,100,-56,-1,-1,0
12366,1769472,100,-56,-1,-1,0
12400,131072,100,-56,-1,-1,0
12433,-655360,100,-56,-1,-1,0
12466,-589824,100,-56,-1,-1,0
12500,-589824,100,-56,-1,-1,0
12533,-720896,100,-56,-1,-1,0
12566,-851968,100,-56,-1,-1,0
12600,-851968,100,-56,-1,-1,0
12633,-851968,100,-56,-1,-1,0
12666,-917504,100,-56,-1,-1,0
12700,4128768,100,-56,-1,-1,0
12733,-720896,100,-56,-1,-1,0
12766,-655360,100,-56,-1,-1,0
12800,-327680,100,-56,-1,-1,0
12833,786432,100,-56,-1,-1,0
12866,1900544,100,-56,-1,-1,0
12900,196608,100,-56,-1,-1,0
12933,-458752,100,-56,-1,-1,0
12966,-458752,100,-56,-1,-1,0
13000,-458752,100,-56,-1,-1,0
13033,-589824,100,-56,-1,-1,0
13066,-786432,100,-56,-1,-1,0
13100,-589824,100,-56,-1,-1,0
13133,-851968,100,-56,-1,-1,0
13166,-720896,100,-56,-1,-1,0
13200,2621440,100,-56,-1,-1,0
13233,-720896,100,-56,-1,-1,0
13266,-589824,100,-56,-1,-1,0
13299,196608,100,-56,-1,-1,0
13333,1703936,100,-56,-1,-1,0
13366,786432,100,-56,-1,-1,0
13400,-524288,100,-56,-1,-1,0
13433,-655360,100,-56,-1,-1,0
13466,-589824,100,-56,-1,-1,0
13500,-655360,100,-56,-1,-1,0
13533,-851968,100,-56,-1,-1,0
13566,-655360,100,-56,-1,-1,0
13600,-983040,100,-56,-1,-1,0
13633,-1114112,100,-56,-1,-1,0
13666,6160384,100,-56,-1,-1,0
13700,-851968,100,-56,-1,-1,0
13733,-720896,100,-56,-1,-1,0
13766,-65536,100,-56,-1,-1,0
13799,1310720,100,-56,-1,-1,0
13833,1179648,100,-56,-1,-1,0
13866,-262144,100,-56,-1,-1,0
13900,-458752,100,-56,-1,-1,0
13933,-458752,100,-56,-1,-1,0
13966,-589824,100,-56,-1,-1,0
14000,-720896,100,-56,-1,-1,0
14033,-655360,100,-56,-1,-1,0
14066,-851968,100,-56,-1,-1,0
14100,-786432,100,-56,-1,-1,0
14133,2752512,100,-56,-1,-1,0
14166,-720896,100,-56,-1,-1,0
14200,-262144,100,-56,-1,-1,0
14233,655360,100,-56,-1,-1,0
14266,2359296,100,-56,-1,-1,0
14299,1114112,100,-56,-1,-1,0
14333,-524288,100,-56,-1,-1,0
14366,-851968,100,-56,-1,-1,0
14400,-786432,100,-56,-1,-1,0
14433,-851968,100,-56,-1,-1,0
14466,-983040,100,-56,-1,-1,0
14500,-1179648,100,-56,-1,-1,0
14533,-1179648,100,-56,-1,-1,0
14566,6029312,100,-56,-1,-1,0
14600,-1114112,100,-56,-1,-1,0
14633,-851968,100,-56,-1,-1,0
14666,-262144,100,-56,-1,-1,0
14700,851968,100,-56,-1,-1,0
14733,1572864,100,-56,-1,-1,0
14766,-196608,100,-56,-1,-1,0
14799,-720896,100,-56,-1,-1,0
14833,-589824,100,-56,-1,-1,0
14866,-524288,100,-56,-1,-1,0
14900,-786432,100,-56,-1,-1,0
14933,-655360,100,-56,-1,-1,0
14966,-917504,100,-56,-1,-1,0
15000,-720896,100,-56,-1,-1,0
15033,3080192,100,-56,-1,-1,0
15066,-786432,100,-56,-1,-1,0
15100,-458752,100,-56,-1,-1,0
15133,196608,100,-56,-1,-1,0
15166,1703936,100,-56,-1,-1,0
15200,917504,100,-56,-1,-1,0
15233,-458752,100,-56,-1,-1,0
15266,-458752,100,-56,-1,-1,0
15299,-262144,100,-56,-1,-1,0
15333,-327680,100,-56,-1,-1,0
15366,-393216,100,-56,-1,-1,0
15400,-655360,100,-56,-1,-1,0
15433,-851968,100,-56,-1,-1,0
15466,5832704,100,-56,-1,-1,0
15500,-917504,100,-56,-1,-1,0
15533,-851968,100,-56,-1,-1,0
15566,-524288,100,-56,-1,-1,0
15600,720896,100,-56,-1,-1,0
15633,1310720,100,-56,-1,-1,0
15666,-458752,100,-56,-1,-1,0
15700,-1048576,100,-56,-1,-1,0
15733,-983040,100,-56,-1,-1,0
15766,-983040,102,-56,-1,-1,0
15799,-1114112,102,-56,-1,-1,0
15833,-851968,102,-56,-1,-1,0
15866,-1114112,102,-56,-1,-1,0
15900,-720896,102,-56,-1,-1,0
15933,1703936,102,-56,-1,-1,0
15966,-851968,102,-56,-1,-1,0
16000,-524288,102,-56,-1,-1,0
16033,458752,102,-56,-1,-1,0
16066,2162688,102,-56,-1,-1,0
16100,1114112,102,-56,-1,-1,0
16133,-327680,102,-56,-1,-1,0
16166,-327680,102,-56,-1,-1,0
16200,-327680,102,-56,-1,-1,0
16233,-524288,102,-56,-1,-1,0
16266,-589824,102,-56,-1,-1,0
16300,-720896,102,-56,-1,-1,0
16333,-786432,102,-56,-1,-1,0
16366,6684672,102,-56,-1,-1,0
16400,-1179648,102,-56,-1,-1,0
16433,-786432,102,-56,-1,-1,0
16466,-262144,102,-56,-1,-1,0
16500,1179648,102,-56,-1,-1,0
16533,1769472,102,-56,-1,-1,0
16566,-327680,102,-56,-1,-1,0
16600,-917504,102,-56,-1,-1,0
16633,-851968,102,-56,-1,-1,0
16666,-786432,102,-56,-1,-1,0
16700,-917504,104,-56,-1,-1,0
16733,-786432,104,-56,-1,-1,0
16766,-1114112,104,-56,-1,-1,0
16800,-1245184,104,-56,-1,-1,0
16833,5570560,104,-56,-1,-1,0
16866,-983040,104,-56,-1,-1,0
16900,-655360,104,-56,-1,-1,0
16933,0,104,-56,-1,-1,0
16966,1769472,104,-56,-1,-1,0
17000,1245184,104,-56,-1,-1,0
17033,-458752,104,-56,-1,-1,0
17066,-786432,104,-56,-1,-1,0
17100,-589824,104,-56,-1,-1,0
17133,-458752,104,-56,-1,-1,0
17166,-589824,104,-56,-1,-1,0
17200,-524288,104,-56,-1,-1,0
17233,-786432,104,-56,-1,-1,0
17266,-851968,104,-56,-1,-1,0
17300,7471104,104,-56,-1,-1,0
17333,-720896,104,-56,-1,-1,0
17366,-589824,104,-56,-1,-1,0
17400,0,104,-56,-1,-1,0
17433,1507328,104,-56,-1,-1,0
17466,1441792,104,-56,-1,-1,0
17500,-262144,104,-56,-1,-1,0
17533,-589824,104,-56,-1,-1,0
17566,-589824,104,-56,-1,-1,0
17600,-458752,104,-56,-1,-1,0
17633,-458752,104,-56,-1,-1,0
17666,-720896,104,-56,-1,-1,0
17700,-589824,104,-56,-1,-1,0
17733,-851968,104,-56,-1,-1,0
17766,-917504,104,-56,-1,-1,0
17800,7274496,104,-56,-1,-1,0
17833,-655360,104,-56,-1,-1,0
17866,-524288,104,-56,-1,-1,0
17900,0,104,-56,-1,-1,0
17933,1703936,104,-56,-1,-1,0
17966,1507328,104,-56,-1,-1,0
18000,-131072,104,-56,-1,-1,0
18033,-524288,104,-56,-1,-1,0
18066,-458752,104,-56,-1,-1,0
18100,-327680,104,-56,-1,-1,0
18133,-393216,104,-56,-1,-1,0
18166,-655360,104,-56,-1,-1,0
18200,-786432,104,-56,-1,-1,0
18233,-786432,104,-56,-1,-1,0
18266,-917504,104,-56,-1,-1,0
18300,2359296,104,-56,-1,-1,0
18333,-196608,104,-56,-1,-1,0
18366,-720896,104,-56,-1,-1,0
18400,-458752,104,-56,-1,-1,0
18433,589824,104,-56,-1,-1,0
18466,1900544,104,-56,-1,-1,0
18500,327680,104,-56,-1,-1,0
18533,-524288,104,-56,-1,-1,0
18566,-851968,104,-56,-1,-1,0
18600,-655360,104,-56,-1,-1,0
18633,-655360,104,-56,-1,-1,0
18666,-917504,104,-56,-1,-1,0
18700,-917504,104,-56,-1,-1,0
18733,-786432,104,-56,-1,-1,0
18766,-1048576,104,-56,-1,-1,0
18800,-983040,104,-56,-1,-1,0
18833,7208960,104,-56,-1,-1,0
18866,-786432,104,-56,-1,-1,0
18900,-655360,104,-56,-1,-1,0
18933,-131072,104,-56,-1,-1,0
18966,1179648,104,-56,-1,-1,0
19000,1769472,104,-56,-1,-1,0
19033,-262144,104,-56,-1,-1,0
19066,-655360,104,-56,-1,-1,0
19100,-655360,104,-56,-1,-1,0
19133,-524288,104,-56,-1,-1,0
19166,-589824,104,-56,-1,-1,0
19200,-786432,104,-56,-1,-1,0
19233,-786432,104,-56,-1,-1,0
19266,-851968,104,-56,-1,-1,0
19300,-1048576,104,-56,-1,-1,0
19333,6225920,104,-56,-1,-1,0
19366,-917504,104,-56,-1,-1,0
19400,-786432,104,-56,-1,-1,0
19433,-262144,104,-56,-1,-1,0
19466,983040,104,-56,-1,-1,0
19500,1900544,104,-56,-1,-1,0
19533,-65536,104,-56,-1,-1,0
19566,-655360,104,-56,-1,-1,0
19600,-524288,104,-56,-1,-1,0
19633,-393216,104,-56,-1,-1,0
19666,-524288,104,-56,-1,-1,0
19700,-589824,104,-56,-1,-1,0
19733,-786432,104,-56,-1,-1,0
19766,-786432,104,-56,-1,-1,0
19800,-851968,104,-56,-1,-1,0
19833,5242880,104,-56,-1,-1,0
19866,-851968,104,-56,-1,-1,0
19900,-720896,104,-56,-1,-1,0
19933,-262144,104,-56,-1,-1,0
19966,1048576,104,-56,-1,-1,0
20000,1966080,104,-56,-1,-1,0
20033,0,104,-56,-1,-1,0
20066,-720896,104,-56,-1,-1,0
20100,-655360,104,-56,-1,-1,0
20133,-524288,104,-56,-1,-1,0
20166,-720896,104,-56,-1,-1,0
20200,-786432,104,-56,-1,-1,0
20233,-851968,104,-56,-1,-1,0
20266,-786432,104,-56,-1,-1,0
20300,-917504,104,-56,-1,-1,0
20333,4718592,104,-56,-1,-1,0
20366,-655360,104,-56,-1,-1,0
20400,-589824,104,-56,-1,-1,0
20433,-65536,104,-56,-1,-1,0
20466,1245184,104,-56,-1,-1,0
20500,2424832,104,-56,-1,-1,0
20533,393216,104,-56,-1,-1,0
20566,-393216,104,-56,-1,-1,0
20600,-393216,104,-56,-1,-1,0
20633,-327680,104,-56,-1,-1,0
20666,-458752,105,-56,-1,-1,0
20700,-720896,105,-56,-1,-1,0
20733,-655360,105,-56,-1,-1,0
20766,-917504,105,-56,-1,-1,0
20800,131072,105,-56,-1,-1,0
20833,-262144,105,-56,-1,-1,0
20866,-917504,105,-56,-1,-1,0
20900,-524288,105,-56,-1,-1,0
20933,458752,105,-56,-1,-1,0
20966,2097152,105,-56,-1,-1,0
21000,458752,105,-56,-1,-1,0
21033,-720896,105,-56,-1,-1,0
21066,-851968,105,-56,-1,-1,0
21100,-655360,105,-56,-1,-1,0
21133,-720896,105,-56,-1,-1,0
21166,-917504,105,-56,-1,-1,0
21200,-786432,105,-56,-1,-1,0
21233,-983040,105,-56,-1,-1,0
21266,-1114112,105,-56,-1,-1,0
21300,5177344,105,-56,-1,-1,0
21333,-917504,105,-56,-1,-1,0
21366,-655360,105,-56,-1,-1,0
21400,0,105,-56,-1,-1,0
21433,1638400,105,-56,-1,-1,0
21466,1114112,105,-56,-1,-1,0
21500,-458752,105,-56,-1,-1,0
21533,-786432,105,-56,-1,-1,0
21566,-655360,105,-56,-1,-1,0
21600,-589824,105,-56,-1,-1,0
21633,-720896,105,-56,-1,-1,0
21666,-655360,105,-56,-1,-1,0
21700,-917504,105,-56,-1,-1,0
21733,-917504,105,-56,-1,-1,0
21766,7798784,105,-56,-1,-1,0
21800,-786432,105,-56,-1,-1,0
21833,-655360,105,-56,-1,-1,0
21866,-131072,105,-56,-1,-1,0
21900,1376256,105,-56,-1,-1,0
21933,1703936,105,-56,-1,-1,0
21966,-196608,105,-56,-1,-1,0
22000,-589824,105,-56,-1,-1,0
22033,-589824,105,-56,-1,-1,0
22066,-524288,105,-56,-1,-1,0
22100,-589824,105,-56,-1,-1,0
22133,-720896,104,-56,-1,-1,0
22166,-655360,104,-56,-1,-1,0
22200,-786432,104,-56,-1,-1,0
22233,65536,104,-56,-1,-1,0
22266,917504,104,-56,-1,-1,0
22300,-655360,104,-56,-1,-1,0
22333,-327680,104,-56,-1,-1,0
22366,524288,104,-56,-1,-1,0
22400,2097152,104,-56,-1,-1,0
22433,786432,104,-56,-1,-1,0
22466,-524288,104,-56,-1,-1,0
22500,-524288,104,-56,-1,-1,0
22533,-524288,104,-56,-1,-1,0
22566,-393216,104,-56,-1,-1,0
22600,-524288,104,-56,-1,-1,0
22633,-786432,104,-56,-1,-1,0
22666,-589824,104,-56,-1,-1,0
22700,-917504,104,-56,-1,-1,0
22733,2883584,104,-56,-1,-1,0
22766,-917504,104,-56,-1,-1,0
22800,-1048576,104,-56,-1,-1,0
22833,-458752,104,-56,-1,-1,0
22866,655360,104,-56,-1,-1,0
22900,1900544,104,-56,-1,-1,0
22933,262144,104,-56,-1,-1,0
22966,-524288,104,-56,-1,-1,0
23000,-524288,104,-56,-1,-1,0
23033,-458752,104,-56,-1,-1,0
23066,-393216,104,-56,-1,-1,0
23100,-262144,103,-56,-1,-1,0
23133,-131072,103,-56,-1,-1,0
23166,-458752,103,-56,-1,-1,0
23200,-327680,103,-56,-1,-1,0
23233,4390912,103,-56,-1,-1,0
23266,-524288,103,-56,-1,-1,0
23300,-917504,103,-56,-1,-1,0
23333,720896,103,-56,-1,-1,0
23366,1179648,103,-56,-1,-1,0
23400,1638400,103,-56,-1,-1,0
23433,524288,103,-56,-1,-1,0
23466,0,103,-56,-1,-1,0
23500,-262144,103,-56,-1,-1,0
23533,-262144,103,-56,-1,-1,0
23566,-65536,102,-56,-1,-1,0
23600,-786432,102,-56,-1,-1,0
23633,-262144,102,-56,-1,-1,0
23666,-851968,102,-56,-1,-1,0
23700,-786432,102,-56,-1,-1,0
23733,5636096,102,-56,-1,-1,0
23766,-589824,102,-56,-1,-1,0
23800,-65536,102,-56,-1,-1,0
23833,393216,102,-56,-1,-1,0
23866,1966080,102,-56,-1,-1,0
23900,2031616,102,-56,-1,-1,0
23933,-196608,102,-56,-1,-1,0
23966,-851968,102,-56,-1,-1,0
24000,-1114112,102,-56,-1,-1,0
24033,-1179648,102,-56,-1,-1,0
24066,-1507328,102,-56,-1,-1,0
24100,-1376256,102,-56,-1,-1,0
24133,-1507328,102,-56,-1,-1,0
24166,-1507328,102,-56,-1,-1,0
24200,1572864,102,-56,-1,-1,0
24233,-1179648,102,-56,-1,-1,0
24266,-983040,102,-56,-1,-1,0
24300,65536,102,-56,-1,-1,0
24333,1703936,102,-56,-1,-1,0
24366,720896,102,-56,-1,-1,0
24400,-983040,102,-56,-1,-1,0
24433,-1179648,102,-56,-1,-1,0
24466,-917504,102,-56,-1,-1,0
24500,-720896,102,-56,-1,-1,0
24533,-1048576,102,-56,-1,-1,0
24566,-655360,102,-56,-1,-1,0
24600,-786432,102,-56,-1,-1,0
24633,-1048576,102,-56,-1,-1,0
24666,6291456,102,-56,-1,-1,0
24700,-655360,102,-56,-1,-1,0
24733,-786432,102,-56,-1,-1,0
24766,-131072,102,-56,-1,-1,0
24800,1310720,102,-56,-1,-1,0
24833,1376256,102,-56,-1,-1,0
24866,-262144,102,-56,-1,-1,0
24900,-655360,102,-56,-1,-1,0
24933,-655360,102,-56,-1,-1,0
24966,-524288,102,-56,-1,-1,0
25000,-720896,102,-56,-1,-1,0
25033,-720896,102,-56,-1,-1,0
25066,-786432,102,-56,-1,-1,0
25100,-1048576,102,-56,-1,-1,0
25133,7733248,102,-56,-1,-1,0
25166,-983040,102,-56,-1,-1,0
25200,-786432,102,-56,-1,-1,0
25233,-196608,102,-56,-1,-1,0
25266,1245184,102,-56,-1,-1,0
25300,1703936,102,-56,-1,-1,0
25333,-196608,102,-56,-1,-1,0
25366,-655360,102,-56,-1,-1,0
25400,-655360,102,-56,-1,-1,0
25433,-524288,102,-56,-1,-1,0
25466,-589824,102,-56,-1,-1,0
25500,-720896,102,-56,-1,-1,0
25533,-589824,102,-56,-1,-1,0
25566,-851968,102,-56,-1,-1,0
25600,-917504,102,-56,-1,-1,0
25633,3735552,102,-56,-1,-1,0
25666,-851968,102,-56,-1,-1,0
25700,-524288,102,-56,-1,-1,0
25733,131072,102,-56,-1,-1,0
25766,1835008,102,-56,-1,-1,0
25800,1114112,102,-56,-1,-1,0
25833,-327680,102,-56,-1,-1,0
25866,-524288,102,-56,-1,-1,0
25900,-458752,102,-56,-1,-1,0
25933,-327680,102,-56,-1,-1,0
25966,-458752,102,-56,-1,-1,0
26000,-720896,102,-56,-1,-1,0
26033,-393216,102,-56,-1,-1,0
26066,-655360,102,-56,-1,-1,0
26099,-65536,102,-56,-1,-1,0
26133,1638400,102,-56,-1,-1,0
26166,-524288,102,-56,-1,-1,0
26200,-327680,102,-56,-1,-1,0
26233,458752,102,-56,-1,-1,0
26266,2228224,102,-56,-1,-1,0
26300,851968,102,-56,-1,-1,0
26333,-655360,102,-56,-1,-1,0
26366,-851968,102,-56,-1,-1,0
26400,-720896,102,-56,-1,-1,0
26433,-655360,102,-56,-1,-1,0
26466,-720896,102,-56,-1,-1,0
26500,-851968,102,-56,-1,-1,0
26533,-786432,102,-56,-1,-1,0
26566,-1048576,102,-56,-1,-1,0
26599,-393216,102,-56,-1,-1,0
26633,1703936,102,-56,-1,-1,0
26666,-851968,102,-56,-1,-1,0
26700,-589824,102,-56,-1,-1,0
26733,196608,102,-56,-1,-1,0
26766,1900544,102,-56,-1,-1,0
26800,786432,102,-56,-1,-1,0
26833,-655360,102,-56,-1,-1,0
26866,-851968,102,-56,-1,-1,0
26900,-851968,102,-56,-1,-1,0
26933,-720896,102,-56,-1,-1,0
26966,-917504,102,-56,-1,-1,0
27000,-1179648,102,-56,-1,-1,0
27033,-983040,102,-56,-1,-1,0
27066,-1179648,102,-56,-1,-1,0
27099,-917504,102,-56,-1,-1,0
27133,2555904,102,-56,-1,-1,0
27166,-983040,102,-56,-1,-1,0
27200,-720896,102,-56,-1,-1,0
27233,65536,102,-56,-1,-1,0
27266,1835008,102,-56,-1,-1,0
27300,983040,102,-56,-1,-1,0
27333,-327680,102,-56,-1,-1,0
27366,-393216,102,-56,-1,-1,0
27400,-458752,102,-56,-1,-1,0
27433,-196608,102,-56,-1,-1,0
27466,-327680,102,-56,-1,-1,0
27500,-458752,102,-56,-1,-1,0
27533,-327680,102,-56,-1,-1,0
27566,-524288,102,-56,-1,-1,0
27599,-131072,102,-56,-1,-1,0
27633,2359296,102,-56,-1,-1,0
27666,-589824,102,-56,-1,-1,0
27700,-327680,102,-56,-1,-1,0
27733,524288,102,-56,-1,-1,0
27766,2424832,102,-56,-1,-1,0
27800,1048576,102,-56,-1,-1,0
27833,-655360,102,-56,-1,-1,0
27866,-851968,102,-56,-1,-1,0
27900,-786432,102,-56,-1,-1,0
27933,-655360,102,-56,-1,-1,0
27966,-720896,102,-56,-1,-1,0
28000,-851968,102,-56,-1,-1,0
28033,-720896,102,-56,-1,-1,0
28066,-983040,102,-56,-1,-1,0
28099,-1114112,102,-56,-1,-1,0
28133,5963776,102,-56,-1,-1,0
28166,-720896,102,-56,-1,-1,0
28200,-524288,102,-56,-1,-1,0
28233,65536,102,-56,-1,-1,0
28266,1966080,102,-56,-1,-1,0
28300,1572864,102,-56,-1,-1,0
28333,-327680,102,-56,-1,-1,0
28366,-589824,102,-56,-1,-1,0
28400,-589824,102,-56,-1,-1,0
28433,-393216,102,-56,-1,-1,0
28466,-458752,102,-56,-1,-1,0
28500,-655360,102,-56,-1,-1,0
28533,-655360,102,-56,-1,-1,0
28566,-720896,102,-56,-1,-1,0
28599,-851968,102,-56,-1,-1,0
28633,5308416,102,-56,-1,-1,0
28666,-851968,102,-56,-1,-1,0
28700,-720896,102,-56,-1,-1,0
28733,-327680,102,-56,-1,-1,0
28766,917504,102,-56,-1,-1,0
28800,2228224,102,-56,-1,-1,0
28833,131072,102,-56,-1,-1,0
28866,-720896,102,-56,-1,-1,0
28900,-786432,102,-56,-1,-1,0
28933,-720896,102,-56,-1,-1,0
28966,-589824,102,-56,-1,-1,0
29000,-720896,102,-56,-1,-1,0
29033,-917504,102,-56,-1,-1,0
29066,-720896,101,-56,-1,-1,0
29099,-983040,101,-56,-1,-1,0
29133,-786432,101,-56,-1,-1,0
29166,2686976,101,-56,-1,-1,0
29200,-851968,101,-56,-1,-1,0
29233,-655360,101,-56,-1,-1,0
29266,196608,101,-56,-1,-1,0
29300,2031616,101,-56,-1,-1,0
29333,1048576,101,-56,-1,-1,0
29366,-524288,101,-56,-1,-1,0
29400,-851968,101,-56,-1,-1,0
29433,-720896,101,-56,-1,-1,0
29466,-655360,101,-56,-1,-1,0
29500,-655360,101,-56,-1,-1,0
29533,-917504,101,-56,-1,-1,0
29566,-786432,101,-56,-1,-1,0
29599,-983040,101,-56,-1,-1,0
29633,-983040,101,-56,-1,-1,0
29666,8192000,101,-56,-1,-1,0
29700,-786432,101,-56,-1,-1,0
29733,-720896,101,-56,-1,-1,0
29766,-131072,101,-56,-1,-1,0
29800,1441792,101,-56,-1,-1,0
29833,1769472,101,-56,-1,-1,0
29866,-262144,101,-56,-1,-1,0
29900,-655360,101,-56,-1,-1,0
29933,-720896,101,-56,-1,-1,0
29966,-655360,101,-56,-1,-1,0
30000,-655360,101,-56,-1,-1,0
30033,-786432,101,-56,-1,-1,0
30066,-851968,100,-56,-1,-1,0
30099,-983040,100,-56,-1,-1,0
30133,-1048576,100,-56,-1,-1,0
30166,3670016,100,-56,-1,-1,0
30200,-720896,100,-56,-1,-1,0
30233,-786432,100,-56,-1,-1,0
30266,-458752,100,-56,-1,-1,0
30300,655360,100,-56,-1,-1,0
30333,2031616,100,-56,-1,-1,0
30366,262144,100,-56,-1,-1,0
30400,-655360,100,-56,-1,-1,0
30433,-524288,100,-56,-1,-1,0
30466,-524288,100,-56,-1,-1,0
30500,-393216,100,-56,-1,-1,0
30533,-655360,100,-56,-1,-1,0
30566,-589824,100,-56,-1,-1,0
30599,-589824,100,-56,-1,-1,0
30633,-851968,100,-56,-1,-1,0
30666,1179648,100,-56,-1,-1,0
30700,-196608,100,-56,-1,-1,0
30733,-589824,100,-56,-1,-1,0
30766,-196608,100,-56,-1,-1,0
30800,983040,100,-56,-1,-1,0
30833,3014656,100,-56,-1,-1,0
30866,983040,100,-56,-1,-1,0
30900,-458752,100,-56,-1,-1,0
30933,-786432,100,-56,-1,-1,0
30966,-720896,100,-56,-1,-1,0
31000,-524288,100,-56,-1,-1,0
31033,-851968,100,-56,-1,-1,0
31066,-851968,100,-56,-1,-1,0
31099,-917504,100,-56,-1,-1,0
31133,-1048576,100,-56,-1,-1,0
31166,-524288,100,-56,-1,-1,0
31200,1638400,100,-56,-1,-1,0
31233,-786432,100,-56,-1,-1,0
31266,-720896,100,-56,-1,-1,0
31300,262144,100,-56,-1,-1,0
31333,2228224,100,-56,-1,-1,0
31366,1048576,100,-56,-1,-1,0
31400,-655360,100,-56,-1,-1,0
31433,-786432,100,-56,-1,-1,0
31466,-851968,100,-56,-1,-1,0
31500,-655360,100,-56,-1,-1,0
31533,-720896,100,-56,-1,-1,0
31566,-786432,100,-56,-1,-1,0
31599,-917504,100,-56,-1,-1,0
31633,-786432,100,-56,-1,-1,0
31666,-917504,100,-56,-1,-1,0
31700,-524288,100,-56,-1,-1,0
31733,2490368,100,-56,-1,-1,0
31766,-655360,100,-56,-1,-1,0
31800,-458752,100,-56,-1,-1,0
31833,262144,100,-56,-1,-1,0
31866,2293760,100,-56,-1,-1,0
31900,1245184,100,-56,-1,-1,0
31933,-524288,100,-56,-1,-1,0
31966,-655360,100,-56,-1,-1,0
32000,-655360,100,-56,-1,-1,0
32033,-589824,100,-56,-1,-1,0
32066,-589824,100,-56,-1,-1,0
32100,-851968,100,-56,-1,-1,0
32133,-983040,100,-56,-1,-1,0
32166,-786432,100,-56,-1,-1,0
32200,-1114112,99,-56,-1,-1,0
32233,-1048576,99,-56,-1,-1,0
32266,4390912,99,-56,-1,-1,0
32299,-917504,99,-56,-1,-1,0
32333,-720896,99,-56,-1,-1,0
32366,0,99,-56,-1,-1,0
32400,1769472,99,-56,-1,-1,0
32433,1245184,99,-56,-1,-1,0
32466,-720896,99,-56,-1,-1,0
32500,-917504,99,-56,-1,-1,0
32533,-917504,99,-56,-1,-1,0
32566,-786432,99,-56,-1,-1,0
32600,-917504,99,-56,-1,-1,0
32633,-917504,99,-56,-1,-1,0
32666,-1048576,99,-56,-1,-1,0
32700,-1114112,99,-56,-1,-1,0
32733,-983040,99,-56,-1,-1,0
32766,-1114112,99,-56,-1,-1,0
32800,3997696,99,-56,-1,-1,0
32833,-786432,99,-56,-1,-1,0
32866,-917504,99,-56,-1,-1,0
32900,-458752,99,-56,-1,-1,0
32933,655360,99,-56,-1,-1,0
32966,2293760,99,-56,-1,-1,0
33000,720896,99,-56,-1,-1,0
33033,-524288,99,-56,-1,-1,0
33066,-262144,99,-56,-1,-1,0
33100,-327680,99,-56,-1,-1,0
33133,0,99,-56,-1,-1,0
33166,-196608,99,-56,-1,-1,0
33200,-262144,99,-56,-1,-1,0
33233,-327680,99,-56,-1,-1,0
33266,-65536,99,-56,-1,-1,0
33300,-327680,98,-56,-1,-1,0
33333,-393216,98,-56,-1,-1,0
33366,5046272,98,-56,-1,-1,0
33400,-196608,98,-56,-1,-1,0
33433,-65536,98,-56,-1,-1,0
33466,589824,98,-56,-1,-1,0
33500,2424832,98,-56,-1,-1,0
33533,1835008,98,-56,-1,-1,0
33566,-65536,98,-56,-1,-1,0
33600,-458752,98,-56,-1,-1,0
33633,-458752,98,-56,-1,-1,0
33666,-393216,98,-56,-1,-1,0
33700,-393216,98,-56,-1,-1,0
33733,-524288,98,-56,-1,-1,0
33766,-786432,98,-56,-1,-1,0
33800,-524288,98,-56,-1,-1,0
33833,-786432,98,-56,-1,-1,0
33866,-983040,98,-56,-1,-1,0
33900,8388608,98,-56,-1,-1,0
33933,-851968,98,-56,-1,-1,0
33966,-655360,98,-56,-1,-1,0
34000,-327680,98,-56,-1,-1,0
34033,1179648,98,-56,-1,-1,0
34066,1703936,98,-56,-1,-1,0
34100,-458752,98,-56,-1,-1,0
34133,-917504,98,-56,-1,-1,0
34166,-720896,98,-56,-1,-1,0
34200,-851968,98,-56,-1,-1,0
34233,-786432,98,-56,-1,-1,0
34266,-917504,98,-56,-1,-1,0
34300,-1179648,98,-56,-1,-1,0
34333,-983040,97,-56,-1,-1,0
34366,-1114112,97,-56,-1,-1,0
34400,-1310720,97,-56,-1,-1,0
34433,7995392,97,-56,-1,-1,0
34466,-1048576,97,-56,-1,-1,0
34500,-786432,97,-56,-1,-1,0
34533,-196608,97,-56,-1,-1,0
34566,1703936,97,-56,-1,-1,0
34600,2097152,97,-56,-1,-1,0
34633,-393216,97,-56,-1,-1,0
34666,-1048576,97,-56,-1,-1,0
34700,-1048576,97,-56,-1,-1,0
34733,-917504,97,-56,-1,-1,0
34766,-917504,97,-56,-1,-1,0
34800,-1114112,97,-56,-1,-1,0
34833,-1114112,97,-56,-1,-1,0
34866,-1245184,96,-56,-1,-1,0
34900,-1245184,96,-56,-1,-1,0
34933,5111808,96,-56,-1,-1,0
34966,-1376256,96,-56,-1,-1,0
35000,-786432,96,-56,-1,-1,0
35033,-262144,96,-56,-1,-1,0
35066,1048576,96,-56,-1,-1,0
35100,2686976,96,-56,-1,-1,0
35133,327680,96,-56,-1,-1,0
35166,-655360,96,-56,-1,-1,0
35200,-655360,96,-56,-1,-1,0
35233,-524288,96,-56,-1,-1,0
35266,-393216,96,-56,-1,-1,0
35300,-458752,96,-56,-1,-1,0
35333,-655360,96,-56,-1,-1,0
35366,-524288,96,-56,-1,-1,0
35400,-720896,96,-56,-1,-1,0
35433,-720896,96,-56,-1,-1,0
35466,7602176,96,-56,-1,-1,0
35500,-851968,96,-56,-1,-1,0
35533,-655360,96,-56,-1,-1,0
35566,-262144,96,-56,-1,-1,0
35600,1114112,96,-56,-1,-1,0
35633,2293760,96,-56,-1,-1,0
35666,65536,96,-56,-1,-1,0
35700,-720896,96,-56,-1,-1,0
35733,-786432,96,-56,-1,-1,0
35766,-655360,96,-56,-1,-1,0
35800,-589824,96,-56,-1,-1,0
35833,-720896,96,-56,-1,-1,0
35866,-917504,96,-56,-1,-1,0
35900,-720896,95,-56,-1,-1,0
35933,-1048576,95,-56,-1,-1,0
35966,-1114112,95,-56,-1,-1,0
36000,6422528,95,-56,-1,-1,0
36033,-851968,95,-56,-1,-1,0
36066,-655360,95,-56,-1,-1,0
36100,0,95,-56,-1,-1,0
36133,1703936,95,-56,-1,-1,0
36166,1638400,95,-56,-1,-1,0
36200,-327680,95,-56,-1,-1,0
36233,-655360,95,-56,-1,-1,0
36266,-524288,95,-56,-1,-1,0
36300,-393216,95,-56,-1,-1,0
36333,-524288,95,-56,-1,-1,0
36366,-655360,95,-56,-1,-1,0
36400,-786432,95,-56,-1,-1,0
36433,-589824,95,-56,-1,-1,0
36466,-851968,94,-56,-1,-1,0
36500,-851968,94,-56,-1,-1,0
36533,5439488,94,-56,-1,-1,0
36566,-720896,94,-56,-1,-1,0
36600,-458752,94,-56,-1,-1,0
36633,65536,94,-56,-1,-1,0
36666,1900544,94,-56,-1,-1,0
36700,1638400,94,-56,-1,-1,0
36733,-262144,94,-56,-1,-1,0
36766,-458752,94,-56,-1,-1,0
36800,-524288,94,-56,-1,-1,0
36833,-393216,94,-56,-1,-1,0
36866,-458752,94,-56,-1,-1,0
36900,-589824,94,-56,-1,-1,0
36933,-786432,94,-56,-1,-1,0
36966,-589824,94,-56,-1,-1,0
37000,-917504,94,-56,-1,-1,0
37033,-983040,94,-56,-1,-1,0
37066,8060928,94,-56,-1,-1,0
37100,-786432,94,-56,-1,-1,0
37133,-720896,94,-56,-1,-1,0
37166,-262144,94,-56,-1,-1,0
37200,1245184,94,-56,-1,-1,0
37233,1900544,94,-56,-1,-1,0
37266,-131072,94,-56,-1,-1,0
37300,-655360,94,-56,-1,-1,0
37333,-589824,94,-56,-1,-1,0
37366,-524288,94,-56,-1,-1,0
37400,-589824,94,-56,-1,-1,0
37433,-720896,94,-56,-1,-1,0
37466,-851968,94,-56,-1,-1,0
37500,-851968,94,-56,-1,-1,0
37533,-851968,93,-56,-1,-1,0
37566,-983040,93,-56,-1,-1,0
37600,2883584,93,-56,-1,-1,0
37633,-589824,93,-56,-1,-1,0
37666,-851968,93,-56,-1,-1,0
37700,-524288,93,-56,-1,-1,0
37733,458752,93,-56,-1,-1,0
37766,2162688,93,-56,-1,-1,0
37800,589824,93,-56,-1,-1,0
37833,-655360,93,-56,-1,-1,0
37866,-655360,93,-56,-1,-1,0
37900,-589824,93,-56,-1,-1,0
37933,-655360,93,-56,-1,-1,0
37966,-655360,93,-56,-1,-1,0
38000,-786432,93,-56,-1,-1,0
38033,-917504,93,-56,-1,-1,0
38066,-655360,93,-56,-1,-1,0
38100,-917504,93,-56,-1,-1,0
38133,-1048576,93,-56,-1,-1,0
38166,5767168,93,-56,-1,-1,0
38200,-786432,93,-56,-1,-1,0
38233,-655360,93,-56,-1,-1,0
38266,-65536,93,-56,-1,-1,0
38300,1638400,93,-56,-1,-1,0
38333,1572864,93,-56,-1,-1,0
38366,-458752,93,-56,-1,-1,0
38400,-786432,93,-56,-1,-1,0
38433,-655360,93,-56,-1,-1,0
38466,-524288,93,-56,-1,-1,0
38500,-655360,93,-56,-1,-1,0
38533,-655360,93,-56,-1,-1,0
38566,-983040,93,-56,-1,-1,0
38600,-786432,93,-56,-1,-1,0
38633,-917504,93,-56,-1,-1,0
38666,-851968,93,-56,-1,-1,0
38700,5373952,93,-56,-1,-1,0
38733,-655360,93,-56,-1,-1,0
38766,-327680,93,-56,-1,-1,0
38800,262144,93,-56,-1,-1,0
38833,2359296,93,-56,-1,-1,0
38866,2228224,93,-56,-1,-1,0
38900,-131072,93,-56,-1,-1,0
38933,-589824,93,-56,-1,-1,0
38966,-524288,93,-56,-1,-1,0
39000,-196608,93,-56,-1,-1,0
39033,-589824,93,-56,-1,-1,0
39066,-720896,93,-56,-1,-1,0
39100,-851968,93,-56,-1,-1,0
39133,-1048576,93,-56,-1,-1,0
39166,1310720,93,-56,-1,-1,0
39200,-851968,93,-56,-1,-1,0
39233,-786432,93,-56,-1,-1,0
39266,-458752,93,-56,-1,-1,0
39300,655360,93,-56,-1,-1,0
39333,2818048,93,-56,-1,-1,0
39366,655360,93,-56,-1,-1,0
39400,-786432,93,-56,-1,-1,0
39433,-983040,93,-56,-1,-1,0
39466,-851968,93,-56,-1,-1,0
39500,-851968,93,-56,-1,-1,0
39533,-917504,93,-56,-1,-1,0
39566,-1179648,93,-56,-1,-1,0
39600,-851968,93,-56,-1,-1,0
39633,-1114112,93,-56,-1,-1,0
39666,-1245184,93,-56,-1,-1,0
39700,5439488,93,-56,-1,-1,0
39733,-917504,93,-56,-1,-1,0
39766,-589824,93,-56,-1,-1,0
39800,0,93,-56,-1,-1,0
39833,2228224,93,-56,-1,-1,0
39866,2031616,93,-56,-1,-1,0
39900,-393216,93,-56,-1,-1,0
39933,-786432,93,-56,-1,-1,0
39966,-655360,93,-56,-1,-1,0
40000,-524288,93,-56,-1,-1,0
40033,-589824,93,-56,-1,-1,0
40066,-720896,93,-56,-1,-1,0
40100,-655360,93,-56,-1,-1,0
40133,-786432,93,-56,-1,-1,0
40166,-983040,93,-56,-1,-1,0
40200,5308416,93,-56,-1,-1,0
40233,-1048576,93,-56,-1,-1,0
40266,-655360,93,-56,-1,-1,0
40300,-196608,93,-56,-1,-1,0
40333,1048576,93,-56,-1,-1,0
40366,2752512,93,-56,-1,-1,0
40400,327680,93,-56,-1,-1,0
40433,-524288,93,-56,-1,-1,0
40466,-917504,93,-56,-1,-1,0
40500,-524288,93,-56,-1,-1,0
40533,-458752,93,-56,-1,-1,0
40566,-458752,93,-56,-1,-1,0
40600,-589824,93,-56,-1,-1,0
40633,-458752,93,-56,-1,-1,0
40666,-786432,94,-56,-1,-1,0
40700,-589824,94,-56,-1,-1,0
40733,3145728,94,-56,-1,-1,0
40766,-851968,94,-56,-1,-1,0
40800,-524288,94,-56,-1,-1,0
40833,327680,94,-56,-1,-1,0
40866,2424832,94,-56,-1,-1,0
40900,1507328,94,-56,-1,-1,0
40933,-655360,94,-56,-1,-1,0
40966,-786432,94,-56,-1,-1,0
41000,-917504,94,-56,-1,-1,0
41033,-720896,94,-56,-1,-1,0
41066,-655360,94,-56,-1,-1,0
41100,-917504,94,-56,-1,-1,0
41133,-1048576,94,-56,-1,-1,0
41166,-851968,94,-56,-1,-1,0
41200,-1048576,94,-56,-1,-1,0
41233,-1114112,94,-56,-1,-1,0
41266,8454144,94,-56,-1,-1,0
41300,-1114112,94,-56,-1,-1,0
41333,-851968,94,-56,-1,-1,0
41366,-262144,94,-56,-1,-1,0
41400,1376256,94,-56,-1,-1,0
41433,2490368,94,-56,-1,-1,0
41466,-65536,94,-56,-1,-1,0
41500,-851968,94,-56,-1,-1,0
41533,-983040,94,-56,-1,-1,0
41566,-720896,94,-56,-1,-1,0
41600,-720896,94,-56,-1,-1,0
41633,-851968,94,-56,-1,-1,0
41666,-851968,94,-56,-1,-1,0
41700,-983040,94,-56,-1,-1,0
41733,-720896,94,-56,-1,-1,0
41766,-917504,94,-56,-1,-1,0
41800,-1114112,94,-56,-1,-1,0
41833,6946816,94,-56,-1,-1,0
41866,-786432,94,-56,-1,-1,0
41900,-720896,94,-56,-1,-1,0
41933,65536,94,-56,-1,-1,0
41966,1900544,94,-56,-1,-1,0
42000,2293760,94,-56,-1,-1,0
42033,-131072,94,-56,-1,-1,0
42066,-655360,94,-56,-1,-1,0
42100,-655360,94,-56,-1,-1,0
42133,-524288,94,-56,-1,-1,0
42166,-524288,94,-56,-1,-1,0
42200,-655360,94,-56,-1,-1,0
42233,-589824,94,-56,-1,-1,0
42266,-786432,94,-56,-1,-1,0
42300,-524288,94,-56,-1,-1,0
42333,-655360,94,-56,-1,-1,0
42366,-655360,94,-56,-1,-1,0
42400,5242880,93,-56,-1,-1,0
42433,-589824,93,-56,-1,-1,0
42466,-655360,93,-56,-1,-1,0
42500,-262144,93,-56,-1,-1,0
42533,786432,93,-56,-1,-1,0
42566,2818048,93,-56,-1,-1,0
42600,655360,93,-56,-1,-1,0
42633,-655360,93,-56,-1,-1,0
42666,-720896,93,-56,-1,-1,0
42700,-786432,93,-56,-1,-1,0
42733,-655360,93,-56,-1,-1,0
42766,-655360,93,-56,-1,-1,0
42800,-917504,93,-56,-1,-1,0
42833,-851968,93,-56,-1,-1,0
42866,-1048576,93,-56,-1,-1,0
42900,-589824,93,-56,-1,-1,0
42933,-983040,93,-56,-1,-1,0
42966,-1114112,93,-56,-1,-1,0
43000,8847360,93,-56,-1,-1,0
43033,-851968,93,-56,-1,-1,0
43066,-720896,93,-56,-1,-1,0
43100,-196608,93,-56,-1,-1,0
43133,1310720,93,-56,-1,-1,0
43166,2228224,93,-56,-1,-1,0
43200,0,93,-56,-1,-1,0
43233,-720896,93,-56,-1,-1,0
43266,-655360,93,-56,-1,-1,0
43300,-589824,93,-56,-1,-1,0
43333,-524288,93,-56,-1,-1,0
43366,-524288,93,-56,-1,-1,0
43400,-589824,93,-56,-1,-1,0
43433,-655360,93,-56,-1,-1,0
43466,-720896,93,-56,-1,-1,0
43500,-589824,93,-56,-1,-1,0
43533,-786432,93,-56,-1,-1,0
43566,-524288,92,-56,-1,-1,0
43600,3342336,92,-56,-1,-1,0
43633,-720896,92,-56,-1,-1,0
43666,-524288,92,-56,-1,-1,0
43700,65536,92,-56,-1,-1,0
43733,1900544,92,-56,-1,-1,0
43766,1507328,92,-56,-1,-1,0
43800,-327680,92,-56,-1,-1,0
43833,-655360,92,-56,-1,-1,0
43866,-655360,92,-56,-1,-1,0
43900,-524288,92,-56,-1,-1,0
43933,-524288,92,-56,-1,-1,0
43966,-655360,92,-56,-1,-1,0
44000,-589824,92,-56,-1,-1,0
44033,-851968,92,-56,-1,-1,0
44066,-655360,92,-56,-1,-1,0
44100,-851968,92,-56,-1,-1,0
44133,-851968,92,-56,-1,-1,0
44166,8388608,92,-56,-1,-1,0
44200,-720896,92,-56,-1,-1,0
44233,-720896,92,-56,-1,-1,0
44266,-327680,92,-56,-1,-1,0
44300,983040,92,-56,-1,-1,0
44333,2228224,92,-56,-1,-1,0
44366,65536,92,-56,-1,-1,0
44400,-589824,92,-56,-1,-1,0
44433,-655360,92,-56,-1,-1,0
44466,-524288,92,-56,-1,-1,0
44500,-458752,92,-56,-1,-1,0
44533,-524288,92,-56,-1,-1,0
44566,-655360,92,-56,-1,-1,0
44600,-655360,92,-56,-1,-1,0
44633,-655360,92,-56,-1,-1,0
44666,-720896,92,-56,-1,-1,0
44700,-851968,90,-56,-1,-1,0
44733,2949120,90,-56,-1,-1,0
44766,-393216,90,-56,-1,-1,0
44800,-720896,90,-56,-1,-1,0
44833,-458752,90,-56,-1,-1,0
44866,524288,90,-56,-1,-1,0
44900,2424832,90,-56,-1,-1,0
44933,720896,90,-56,-1,-1,0
44966,-524288,90,-56,-1,-1,0
45000,-589824,90,-56,-1,-1,0
45033,-393216,90,-56,-1,-1,0
45066,-393216,90,-56,-1,-1,0
45100,-589824,90,-56,-1,-1,0
45133,-786432,90,-56,-1,-1,0
45166,-917504,90,-56,-1,-1,0
45200,-655360,90,-56,-1,-1,0
45233,-851968,90,-56,-1,-1,0
45266,-917504,90,-56,-1,-1,0
45300,7929856,90,-56,-1,-1,0
45333,-786432,90,-56,-1,-1,0
45366,-655360,90,-56,-1,-1,0
45400,-131072,90,-56,-1,-1,0
45433,1179648,90,-56,-1,-1,0
45466,2424832,90,-56,-1,-1,0
45500,262144,90,-56,-1,-1,0
45533,-524288,90,-56,-1,-1,0
45566,-524288,90,-56,-1,-1,0
45600,-393216,90,-56,-1,-1,0
45633,-393216,90,-56,-1,-1,0
45666,-589824,90,-56,-1,-1,0
45700,-720896,90,-56,-1,-1,0
45733,-655360,90,-56,-1,-1,0
45766,-851968,90,-56,-1,-1,0
45800,-851968,90,-56,-1,-1,0
45833,7274496,90,-56,-1,-1,0
45866,-917504,90,-56,-1,-1,0
45900,-720896,90,-56,-1,-1,0
45933,-327680,90,-56,-1,-1,0
45966,1179648,90,-56,-1,-1,0
46000,2490368,90,-56,-1,-1,0
46033,327680,90,-56,-1,-1,0
46066,-589824,90,-56,-1,-1,0
46100,-589824,90,-56,-1,-1,0
46133,-524288,90,-56,-1,-1,0
46166,-589824,90,-56,-1,-1,0
46200,-720896,90,-56,-1,-1,0
46233,-917504,90,-56,-1,-1,0
46266,-786432,90,-56,-1,-1,0
46300,-1048576,90,-56,-1,-1,0
46333,-262144,90,-56,-1,-1,0
46366,655360,90,-56,-1,-1,0
46400,-1048576,90,-56,-1,-1,0
46433,-720896,90,-56,-1,-1,0
46466,65536,90,-56,-1,-1,0
46500,2162688,90,-56,-1,-1,0
46533,1114112,90,-56,-1,-1,0
46566,-655360,90,-56,-1,-1,0
46600,-1048576,90,-56,-1,-1,0
46633,-786432,90,-56,-1,-1,0
46666,-655360,90,-56,-1,-1,0
46700,-655360,90,-56,-1,-1,0
46733,-851968,91,-56,-1,-1,0
46766,-720896,91,-56,-1,-1,0
46800,-1048576,91,-56,-1,-1,0
46833,-655360,91,-56,-1,-1,0
46866,2162688,91,-56,-1,-1,0
46900,-786432,91,-56,-1,-1,0
46933,-458752,91,-56,-1,-1,0
46966,327680,91,-56,-1,-1,0
47000,2752512,91,-56,-1,-1,0
47033,1900544,91,-56,-1,-1,0
47066,-393216,91,-56,-1,-1,0
47100,-720896,91,-56,-1,-1,0
47133,-720896,91,-56,-1,-1,0
47166,-524288,91,-56,-1,-1,0
47200,-720896,91,-56,-1,-1,0
47233,-720896,91,-56,-1,-1,0
47266,-1048576,91,-56,-1,-1,0
47300,-1048576,91,-56,-1,-1,0
47333,6225920,91,-56,-1,-1,0
47366,-1376256,91,-56,-1,-1,0
47400,-851968,91,-56,-1,-1,0
47433,-458752,91,-56,-1,-1,0
47466,1179648,91,-56,-1,-1,0
47500,2883584,91,-56,-1,-1,0
47533,131072,91,-56,-1,-1,0
47566,-917504,91,-56,-1,-1,0
47600,-1114112,91,-56,-1,-1,0
47633,-1048576,91,-56,-1,-1,0
47666,-851968,91,-56,-1,-1,0
47700,-983040,91,-56,-1,-1,0
47733,-1114112,91,-56,-1,-1,0
47766,-1245184,91,-56,-1,-1,0
47800,65536,91,-56,-1,-1,0
47833,327680,91,-56,-1,-1,0
47866,-983040,91,-56,-1,-1,0
47900,-720896,91,-56,-1,-1,0
47933,196608,91,-56,-1,-1,0
47966,2228224,91,-56,-1,-1,0
48000,917504,91,-56,-1,-1,0
48033,-786432,91,-56,-1,-1,0
48066,-917504,91,-56,-1,-1,0
48100,-851968,91,-56,-1,-1,0
48133,-720896,91,-56,-1,-1,0
48166,-720896,91,-56,-1,-1,0
48200,-917504,91,-56,-1,-1,0
48233,-655360,91,-56,-1,-1,0
48266,-983040,91,-56,-1,-1,0
48300,-917504,91,-56,-1,-1,0
48333,6881280,91,-56,-1,-1,0
48366,-655360,91,-56,-1,-1,0
48400,-524288,91,-56,-1,-1,0
48433,-65536,91,-56,-1,-1,0
48466,1572864,91,-56,-1,-1,0
48500,1966080,91,-56,-1,-1,0
48533,-131072,91,-56,-1,-1,0
48566,-524288,91,-56,-1,-1,0
48600,-524288,91,-56,-1,-1,0
48633,-458752,91,-56,-1,-1,0
48666,-458752,91,-56,-1,-1,0
48700,-589824,91,-56,-1,-1,0
48733,-655360,91,-56,-1,-1,0
48766,-720896,91,-56,-1,-1,0
48800,-524288,91,-56,-1,-1,0
48833,-917504,91,-56,-1,-1,0
48866,-851968,90,-56,-1,-1,0
48900,4784128,90,-56,-1,-1,0
48933,-720896,90,-56,-1,-1,0
48966,-524288,90,-56,-1,-1,0
49000,131072,90,-56,-1,-1,0
49033,1900544,90,-56,-1,-1,0
49066,2031616,90,-56,-1,-1,0
49100,0,90,-56,-1,-1,0
49133,-393216,90,-56,-1,-1,0
49166,-393216,90,-56,-1,-1,0
49200,-393216,90,-56,-1,-1,0
49233,-524288,90,-56,-1,-1,0
49266,-589824,90,-56,-1,-1,0
49300,-655360,90,-56,-1,-1,0
49333,-720896,90,-56,-1,-1,0
49366,-589824,90,-56,-1,-1,0
49400,-720896,90,-56,-1,-1,0
49433,-851968,89,-56,-1,-1,0
49466,7667712,89,-56,-1,-1,0
49500,-851968,89,-56,-1,-1,0
49533,-589824,89,-56,-1,-1,0
49566,-65536,89,-56,-1,-1,0
49600,1310720,89,-56,-1,-1,0
49633,3145728,89,-56,-1,-1,0
49666,524288,89,-56,-1,-1,0
49700,-262144,89,-56,-1,-1,0
49733,-458752,89,-56,-1,-1,0
49766,-327680,89,-56,-1,-1,0
49800,-589824,89,-56,-1,-1,0
49833,-589824,89,-56,-1,-1,0
49866,-786432,89,-56,-1,-1,0
49900,-917504,89,-56,-1,-1,0
49933,-1114112,89,-56,-1,-1,0
49966,-851968,89,-56,-1,-1,0
