milliseconds, ECG, ECG HR, PPG, PPG HR, SpO2, PI
1523610740917,-1245184,89,-56,-1,-1,0
1523610740917,-1179648,89,-56,-1,-1,0
1523610740917,-1114112,89,-56,-1,-1,0
1523610740917,-1179648,89,-56,-1,-1,0
1523610740917,-1179648,89,-56,-1,-1,0
1523610740973,-1179648,89,-56,-1,-1,0
1523610740973,-1114112,89,-56,-1,-1,0
1523610740973,-1048576,89,-56,-1,-1,0
1523610740973,-1048576,89,-56,-1,-1,0
1523610740973,-1048576,89,-56,-1,-1,0
1523610740997,-1048576,89,-56,-1,-1,0
1523610740997,-1114112,89,-56,-1,-1,0
1523610740997,-1114112,89,-56,-1,-1,0
1523610740997,-1114112,89,-56,-1,-1,0
1523610740997,-1114112,89,-56,-1,-1,0
1523610741037,-1048576,89,-56,-1,-1,0
1523610741037,-851968,89,-56,-1,-1,0
1523610741037,-786432,89,-56,-1,-1,0
1523610741037,-851968,89,-56,-1,-1,0
1523610741037,-917504,89,-56,-1,-1,0
1523610741077,-917504,89,-56,-1,-1,0
1523610741077,-917504,89,-56,-1,-1,0
1523610741077,-851968,89,-56,-1,-1,0
1523610741077,-786432,89,-56,-1,-1,0
1523610741077,-589824,89,-56,-1,-1,0
1523610741117,-524288,89,-56,-1,-1,0
1523610741117,-589824,89,-56,-1,-1,0
1523610741117,-589824,89,-56,-1,-1,0
1523610741117,-589824,89,-56,-1,-1,0
1523610741117,-524288,89,-56,-1,-1,0
1523610741157,-524288,89,-56,-1,-1,0
1523610741157,-458752,89,-56,-1,-1,0
1523610741157,-327680,89,-56,-1,-1,0
1523610741157,-327680,89,-56,-1,-1,0
1523610741157,-262144,89,-56,-1,-1,0
1523610741197,-196608,89,-56,-1,-1,0
1523610741197,-65536,89,-56,-1,-1,0
1523610741197,327680,89,-56,-1,-1,0
1523610741197,1900544,89,-56,-1,-1,0
1523610741197,5505024,89,-56,-1,-1,0
1523610741237,10027008,89,-56,-1,-1,0
1523610741237,10158080,89,-56,-1,-1,0
1523610741237,4980736,89,-56,-1,-1,0
1523610741237,196608,89,-56,-1,-1,0
1523610741237,-458752,89,-56,-1,-1,0
1523610741277,131072,89,-56,-1,-1,0
1523610741277,393216,89,-56,-1,-1,0
1523610741277,393216,89,-56,-1,-1,0
1523610741277,458752,89,-56,-1,-1,0
1523610741277,524288,89,-56,-1,-1,0
1523610741319,524288,89,-56,-1,-1,0
1523610741319,589824,89,-56,-1,-1,0
1523610741319,786432,89,-56,-1,-1,0
1523610741319,917504,89,-56,-1,-1,0
1523610741319,1048576,89,-56,-1,-1,0
1523610741357,1179648,89,-56,-1,-1,0
1523610741357,1376256,89,-56,-1,-1,0
1523610741357,1572864,89,-56,-1,-1,0
1523610741357,1769472,89,-56,-1,-1,0
1523610741357,2031616,89,-56,-1,-1,0
1523610741397,2359296,89,-56,-1,-1,0
1523610741397,2621440,89,-56,-1,-1,0
1523610741397,2818048,89,-56,-1,-1,0
1523610741397,2949120,89,-56,-1,-1,0
1523610741397,3080192,89,-56,-1,-1,0
1523610741437,3145728,89,-56,-1,-1,0
1523610741437,3014656,89,-56,-1,-1,0
1523610741437,2818048,89,-56,-1,-1,0
1523610741437,2555904,89,-56,-1,-1,0
1523610741437,2097152,89,-56,-1,-1,0
1523610741477,1507328,89,-56,-1,-1,0
1523610741477,1048576,89,-56,-1,-1,0
1523610741477,786432,89,-56,-1,-1,0
1523610741477,589824,89,-56,-1,-1,0
1523610741477,524288,89,-56,-1,-1,0
1523610741517,458752,89,-56,-1,-1,0
1523610741517,196608,89,-56,-1,-1,0
1523610741517,-196608,89,-56,-1,-1,0
1523610741517,-655360,89,-56,-1,-1,0
1523610741517,-983040,89,-56,-1,-1,0
1523610741557,-983040,89,-56,-1,-1,0
1523610741557,-983040,89,-56,-1,-1,0
1523610741557,-851968,89,-56,-1,-1,0
1523610741557,-655360,89,-56,-1,-1,0
1523610741557,-589824,89,-56,-1,-1,0
1523610741599,-720896,89,-56,-1,-1,0
1523610741599,-1114112,89,-56,-1,-1,0
1523610741599,-1376256,89,-56,-1,-1,0
1523610741599,-1441792,89,-56,-1,-1,0
1523610741599,-1376256,89,-56,-1,-1,0
1523610741637,-1310720,89,-56,-1,-1,0
1523610741637,-1245184,89,-56,-1,-1,0
1523610741637,-1245184,89,-56,-1,-1,0
1523610741637,-1310720,89,-56,-1,-1,0
1523610741637,-1441792,89,-56,-1,-1,0
1523610741678,-1703936,89,-56,-1,-1,0
1523610741678,-1900544,89,-56,-1,-1,0
1523610741678,-1966080,89,-56,-1,-1,0
1523610741678,-1966080,89,-56,-1,-1,0
1523610741678,-2097152,89,-56,-1,-1,0
1523610741717,-2162688,89,-56,-1,-1,0
1523610741717,-2162688,89,-56,-1,-1,0
1523610741717,-2031616,89,-56,-1,-1,0
1523610741717,-1966080,89,-56,-1,-1,0
1523610741717,-1703936,89,-56,-1,-1,0
1523610741757,-1441792,89,-56,-1,-1,0
1523610741757,-1376256,89,-56,-1,-1,0
1523610741757,-1638400,89,-56,-1,-1,0
1523610741757,-1900544,89,-56,-1,-1,0
1523610741757,-2031616,89,-56,-1,-1,0
1523610741797,-2031616,89,-56,-1,-1,0
1523610741797,-2031616,89,-56,-1,-1,0
1523610741797,-1900544,89,-56,-1,-1,0
1523610741797,-1769472,89,-56,-1,-1,0
1523610741797,-1638400,89,-56,-1,-1,0
1523610741837,-1572864,89,-56,-1,-1,0
1523610741837,-1507328,89,-56,-1,-1,0
1523610741837,-1572864,89,-56,-1,-1,0
1523610741837,-1179648,89,-56,-1,-1,0
1523610741837,655360,89,-56,-1,-1,0
1523610741877,4849664,89,-56,-1,-1,0
1523610741877,9043968,89,-56,-1,-1,0
1523610741877,7929856,89,-56,-1,-1,0
1523610741877,2162688,89,-56,-1,-1,0
1523610741877,-1966080,89,-56,-1,-1,0
1523610741917,-2162688,89,-56,-1,-1,0
1523610741917,-1638400,89,-56,-1,-1,0
1523610741917,-1507328,89,-56,-1,-1,0
1523610741917,-1441792,89,-56,-1,-1,0
1523610741917,-1376256,89,-56,-1,-1,0
1523610741957,-1245184,89,-56,-1,-1,0
1523610741957,-1245184,89,-56,-1,-1,0
1523610741957,-1245184,89,-56,-1,-1,0
1523610741957,-1114112,89,-56,-1,-1,0
1523610741957,-917504,89,-56,-1,-1,0
1523610741997,-786432,89,-56,-1,-1,0
1523610741997,-655360,89,-56,-1,-1,0
1523610741997,-458752,89,-56,-1,-1,0
1523610741997,-131072,89,-56,-1,-1,0
1523610741997,196608,89,-56,-1,-1,0
1523610742037,327680,89,-56,-1,-1,0
1523610742037,327680,89,-56,-1,-1,0
1523610742037,524288,89,-56,-1,-1,0
1523610742037,786432,89,-56,-1,-1,0
1523610742037,1048576,89,-56,-1,-1,0
1523610742077,1310720,89,-56,-1,-1,0
1523610742077,1310720,89,-56,-1,-1,0
1523610742077,1179648,89,-56,-1,-1,0
1523610742077,983040,89,-56,-1,-1,0
1523610742077,655360,89,-56,-1,-1,0
1523610742117,131072,89,-56,-1,-1,0
1523610742117,-327680,89,-56,-1,-1,0
1523610742117,-720896,89,-56,-1,-1,0
1523610742117,-983040,89,-56,-1,-1,0
1523610742117,-1114112,89,-56,-1,-1,0
1523610742157,-1114112,89,-56,-1,-1,0
1523610742157,-1114112,89,-56,-1,-1,0
1523610742157,-1048576,89,-56,-1,-1,0
1523610742157,-983040,89,-56,-1,-1,0
1523610742157,-917504,89,-56,-1,-1,0
1523610742197,-851968,89,-56,-1,-1,0
1523610742197,-786432,89,-56,-1,-1,0
1523610742197,-720896,89,-56,-1,-1,0
1523610742197,-720896,89,-56,-1,-1,0
1523610742197,-720896,89,-56,-1,-1,0
1523610742238,-655360,89,-56,-1,-1,0
1523610742238,-589824,89,-56,-1,-1,0
1523610742238,-589824,89,-56,-1,-1,0
1523610742238,-589824,89,-56,-1,-1,0
1523610742238,-655360,89,-56,-1,-1,0
1523610742277,-589824,89,-56,-1,-1,0
1523610742277,-589824,89,-56,-1,-1,0
1523610742277,-589824,89,-56,-1,-1,0
1523610742277,-589824,89,-56,-1,-1,0
1523610742277,-655360,89,-56,-1,-1,0
1523610742317,-655360,89,-56,-1,-1,0
1523610742317,-589824,89,-56,-1,-1,0
1523610742317,-589824,89,-56,-1,-1,0
1523610742317,-720896,89,-56,-1,-1,0
1523610742317,-917504,89,-56,-1,-1,0
1523610742357,-1048576,89,-56,-1,-1,0
1523610742357,-983040,89,-56,-1,-1,0
1523610742357,-786432,89,-56,-1,-1,0
1523610742357,-589824,89,-56,-1,-1,0
1523610742357,-393216,89,-56,-1,-1,0
1523610742397,-196608,89,-56,-1,-1,0
1523610742397,-327680,89,-56,-1,-1,0
1523610742397,-524288,89,-56,-1,-1,0
1523610742397,-589824,89,-56,-1,-1,0
1523610742397,-589824,89,-56,-1,-1,0
1523610742437,-589824,89,-56,-1,-1,0
1523610742437,-458752,89,-56,-1,-1,0
1523610742437,-393216,89,-56,-1,-1,0
1523610742437,-327680,89,-56,-1,-1,0
1523610742437,-262144,89,-56,-1,-1,0
1523610742477,-262144,89,-56,-1,-1,0
1523610742477,-262144,89,-56,-1,-1,0
1523610742477,0,89,-56,-1,-1,0
1523610742477,1572864,89,-56,-1,-1,0
1523610742477,5373952,89,-56,-1,-1,0
1523610742517,10158080,89,-56,-1,-1,0
1523610742517,10485760,89,-56,-1,-1,0
1523610742517,5111808,89,-56,-1,-1,0
1523610742517,-131072,89,-56,-1,-1,0
1523610742517,-1114112,89,-56,-1,-1,0
1523610742557,-458752,89,-56,-1,-1,0
1523610742557,-262144,89,-56,-1,-1,0
1523610742557,-327680,89,-56,-1,-1,0
1523610742557,-393216,89,-56,-1,-1,0
1523610742557,-393216,89,-56,-1,-1,0
1523610742597,-524288,89,-56,-1,-1,0
1523610742597,-589824,89,-56,-1,-1,0
1523610742597,-524288,89,-56,-1,-1,0
1523610742597,-458752,89,-56,-1,-1,0
1523610742597,-393216,89,-56,-1,-1,0
1523610742637,-327680,89,-56,-1,-1,0
1523610742637,-196608,89,-56,-1,-1,0
1523610742637,-65536,89,-56,-1,-1,0
1523610742637,131072,89,-56,-1,-1,0
1523610742637,327680,89,-56,-1,-1,0
1523610742677,589824,89,-56,-1,-1,0
1523610742677,851968,89,-56,-1,-1,0
1523610742677,1179648,89,-56,-1,-1,0
1523610742677,1376256,89,-56,-1,-1,0
1523610742677,1507328,89,-56,-1,-1,0
1523610742717,1507328,89,-56,-1,-1,0
1523610742717,1376256,89,-56,-1,-1,0
1523610742717,1114112,89,-56,-1,-1,0
1523610742717,786432,89,-56,-1,-1,0
1523610742717,327680,89,-56,-1,-1,0
1523610742757,-65536,89,-56,-1,-1,0
1523610742757,-393216,89,-56,-1,-1,0
1523610742757,-589824,89,-56,-1,-1,0
1523610742757,-851968,89,-56,-1,-1,0
1523610742757,-1048576,89,-56,-1,-1,0
1523610742797,-1114112,89,-56,-1,-1,0
1523610742797,-1179648,89,-56,-1,-1,0
1523610742797,-1114112,89,-56,-1,-1,0
1523610742797,-1114112,89,-56,-1,-1,0
1523610742797,-1114112,89,-56,-1,-1,0
1523610742837,-1114112,89,-56,-1,-1,0
1523610742837,-1114112,89,-56,-1,-1,0
1523610742837,-1114112,89,-56,-1,-1,0
1523610742837,-1114112,89,-56,-1,-1,0
1523610742837,-1179648,89,-56,-1,-1,0
1523610742878,-1179648,89,-56,-1,-1,0
1523610742878,-1245184,89,-56,-1,-1,0
1523610742878,-1245184,89,-56,-1,-1,0
1523610742878,-1310720,89,-56,-1,-1,0
1523610742878,-1310720,89,-56,-1,-1,0
1523610742917,-1245184,89,-56,-1,-1,0
1523610742917,-1245184,89,-56,-1,-1,0
1523610742917,-1245184,89,-56,-1,-1,0
1523610742917,-1245184,89,-56,-1,-1,0
1523610742917,-1245184,89,-56,-1,-1,0
1523610742957,-1179648,89,-56,-1,-1,0
1523610742957,-1179648,89,-56,-1,-1,0
1523610742957,-1179648,89,-56,-1,-1,0
1523610742957,-1179648,89,-56,-1,-1,0
1523610742957,-1245184,89,-56,-1,-1,0
1523610742997,-1245184,89,-56,-1,-1,0
1523610742997,-1245184,89,-56,-1,-1,0
1523610742997,-1179648,89,-56,-1,-1,0
1523610742997,-1048576,89,-56,-1,-1,0
1523610742997,-786432,89,-56,-1,-1,0
1523610743037,-524288,89,-56,-1,-1,0
1523610743037,-393216,89,-56,-1,-1,0
1523610743037,-458752,89,-56,-1,-1,0
1523610743037,-589824,89,-56,-1,-1,0
1523610743037,-720896,89,-56,-1,-1,0
1523610743077,-720896,89,-56,-1,-1,0
1523610743077,-720896,89,-56,-1,-1,0
1523610743077,-720896,89,-56,-1,-1,0
1523610743077,-720896,89,-56,-1,-1,0
1523610743077,-720896,89,-56,-1,-1,0
1523610743117,-720896,90,-56,-1,-1,0
1523610743117,-720896,90,-56,-1,-1,0
1523610743117,-786432,90,-56,-1,-1,0
1523610743117,-458752,90,-56,-1,-1,0
1523610743117,851968,90,-56,-1,-1,0
1523610743157,4194304,90,-56,-1,-1,0
1523610743157,8847360,90,-56,-1,-1,0
1523610743157,9961472,90,-56,-1,-1,0
1523610743157,5373952,90,-56,-1,-1,0
1523610743157,65536,90,-56,-1,-1,0
1523610743197,-1310720,90,-56,-1,-1,0
1523610743197,-786432,90,-56,-1,-1,0
1523610743197,-458752,90,-56,-1,-1,0
1523610743197,-393216,90,-56,-1,-1,0
1523610743197,-262144,90,-56,-1,-1,0
1523610743237,-65536,90,-56,-1,-1,0
1523610743237,0,90,-56,-1,-1,0
1523610743237,0,90,-56,-1,-1,0
1523610743237,196608,90,-56,-1,-1,0
1523610743237,327680,90,-56,-1,-1,0
1523610743277,524288,90,-56,-1,-1,0
1523610743277,786432,90,-56,-1,-1,0
1523610743277,1048576,90,-56,-1,-1,0
1523610743277,1310720,90,-56,-1,-1,0
1523610743277,1638400,90,-56,-1,-1,0
1523610743317,2031616,90,-56,-1,-1,0
1523610743317,2424832,90,-56,-1,-1,0
1523610743317,2818048,90,-56,-1,-1,0
1523610743317,3080192,90,-56,-1,-1,0
1523610743317,3342336,90,-56,-1,-1,0
1523610743357,3473408,90,-56,-1,-1,0
1523610743357,3604480,90,-56,-1,-1,0
1523610743357,3604480,90,-56,-1,-1,0
1523610743357,3473408,90,-56,-1,-1,0
1523610743357,3145728,90,-56,-1,-1,0
1523610743397,2752512,90,-56,-1,-1,0
1523610743397,2359296,90,-56,-1,-1,0
1523610743397,1900544,90,-56,-1,-1,0
1523610743397,1572864,90,-56,-1,-1,0
1523610743397,1376256,90,-56,-1,-1,0
1523610743438,1245184,90,-56,-1,-1,0
1523610743438,1179648,90,-56,-1,-1,0
1523610743438,1114112,90,-56,-1,-1,0
1523610743438,1048576,90,-56,-1,-1,0
1523610743438,1048576,90,-56,-1,-1,0
1523610743477,1048576,90,-56,-1,-1,0
1523610743477,983040,90,-56,-1,-1,0
1523610743477,917504,90,-56,-1,-1,0
1523610743477,917504,90,-56,-1,-1,0
1523610743477,786432,90,-56,-1,-1,0
1523610743518,720896,90,-56,-1,-1,0
1523610743518,655360,90,-56,-1,-1,0
1523610743518,655360,90,-56,-1,-1,0
1523610743518,589824,90,-56,-1,-1,0
1523610743518,458752,90,-56,-1,-1,0
1523610743557,393216,90,-56,-1,-1,0
1523610743557,327680,90,-56,-1,-1,0
1523610743557,196608,90,-56,-1,-1,0
1523610743557,131072,90,-56,-1,-1,0
1523610743557,65536,90,-56,-1,-1,0
1523610743597,0,90,-56,-1,-1,0
1523610743597,-196608,90,-56,-1,-1,0
1523610743597,-458752,90,-56,-1,-1,0
1523610743597,-720896,90,-56,-1,-1,0
1523610743597,-1114112,90,-56,-1,-1,0
1523610743638,-1507328,90,-56,-1,-1,0
1523610743638,-1900544,90,-56,-1,-1,0
1523610743638,-1966080,90,-56,-1,-1,0
1523610743638,-1900544,90,-56,-1,-1,0
1523610743638,-1703936,90,-56,-1,-1,0
1523610743677,-1507328,90,-56,-1,-1,0
1523610743677,-1310720,90,-56,-1,-1,0
1523610743677,-1179648,90,-56,-1,-1,0
1523610743677,-1048576,90,-56,-1,-1,0
1523610743677,-983040,90,-56,-1,-1,0
1523610743717,-1048576,90,-56,-1,-1,0
1523610743717,-1245184,90,-56,-1,-1,0
1523610743717,-1376256,90,-56,-1,-1,0
1523610743717,-1441792,90,-56,-1,-1,0
1523610743717,-1507328,90,-56,-1,-1,0
1523610743757,-1507328,90,-56,-1,-1,0
1523610743757,-1441792,90,-56,-1,-1,0
1523610743757,-1441792,90,-56,-1,-1,0
1523610743757,-1441792,90,-56,-1,-1,0
1523610743757,-1507328,90,-56,-1,-1,0
1523610743797,-1572864,90,-56,-1,-1,0
1523610743797,-1441792,90,-56,-1,-1,0
1523610743797,-786432,90,-56,-1,-1,0
1523610743797,1245184,90,-56,-1,-1,0
1523610743797,5373952,90,-56,-1,-1,0
1523610743837,8781824,90,-56,-1,-1,0
1523610743837,6750208,90,-56,-1,-1,0
1523610743837,851968,90,-56,-1,-1,0
1523610743837,-2818048,90,-56,-1,-1,0
1523610743837,-2752512,90,-56,-1,-1,0
1523610743877,-2162688,90,-56,-1,-1,0
1523610743877,-1900544,90,-56,-1,-1,0
1523610743877,-1835008,90,-56,-1,-1,0
1523610743877,-1769472,90,-56,-1,-1,0
1523610743877,-1769472,90,-56,-1,-1,0
1523610743917,-1835008,90,-56,-1,-1,0
1523610743917,-2031616,90,-56,-1,-1,0
1523610743917,-2162688,90,-56,-1,-1,0
1523610743917,-2097152,90,-56,-1,-1,0
1523610743917,-1769472,90,-56,-1,-1,0
1523610743957,-1376256,90,-56,-1,-1,0
1523610743957,-1114112,90,-56,-1,-1,0
1523610743957,-851968,90,-56,-1,-1,0
1523610743957,-655360,90,-56,-1,-1,0
1523610743957,-393216,90,-56,-1,-1,0
1523610743997,-65536,90,-56,-1,-1,0
1523610743997,262144,90,-56,-1,-1,0
1523610743997,655360,90,-56,-1,-1,0
1523610743997,851968,90,-56,-1,-1,0
1523610743997,983040,90,-56,-1,-1,0
1523610744037,983040,90,-56,-1,-1,0
1523610744037,786432,90,-56,-1,-1,0
1523610744037,655360,90,-56,-1,-1,0
1523610744037,458752,90,-56,-1,-1,0
1523610744037,65536,90,-56,-1,-1,0
1523610744077,-393216,90,-56,-1,-1,0
1523610744077,-720896,90,-56,-1,-1,0
1523610744077,-917504,90,-56,-1,-1,0
1523610744077,-1048576,90,-56,-1,-1,0
1523610744077,-1048576,90,-56,-1,-1,0
1523610744117,-1179648,90,-56,-1,-1,0
1523610744117,-1310720,90,-56,-1,-1,0
1523610744117,-1441792,90,-56,-1,-1,0
1523610744117,-1376256,90,-56,-1,-1,0
1523610744117,-1114112,90,-56,-1,-1,0
1523610744158,-983040,90,-56,-1,-1,0
1523610744158,-917504,90,-56,-1,-1,0
1523610744158,-786432,90,-56,-1,-1,0
1523610744158,-655360,90,-56,-1,-1,0
1523610744158,-589824,90,-56,-1,-1,0
1523610744197,-589824,90,-56,-1,-1,0
1523610744197,-524288,90,-56,-1,-1,0
1523610744197,-458752,90,-56,-1,-1,0
1523610744197,-458752,90,-56,-1,-1,0
1523610744197,-458752,90,-56,-1,-1,0
1523610744237,-524288,90,-56,-1,-1,0
1523610744237,-524288,90,-56,-1,-1,0
1523610744237,-524288,90,-56,-1,-1,0
1523610744237,-524288,90,-56,-1,-1,0
1523610744237,-589824,90,-56,-1,-1,0
1523610744277,-655360,90,-56,-1,-1,0
1523610744277,-655360,90,-56,-1,-1,0
1523610744277,-720896,90,-56,-1,-1,0
1523610744277,-786432,90,-56,-1,-1,0
1523610744277,-851968,90,-56,-1,-1,0
1523610744317,-851968,90,-56,-1,-1,0
1523610744317,-917504,90,-56,-1,-1,0
1523610744317,-983040,90,-56,-1,-1,0
1523610744317,-983040,90,-56,-1,-1,0
1523610744317,-983040,90,-56,-1,-1,0
1523610744357,-917504,90,-56,-1,-1,0
1523610744357,-786432,90,-56,-1,-1,0
1523610744357,-589824,90,-56,-1,-1,0
1523610744357,-524288,90,-56,-1,-1,0
1523610744357,-589824,90,-56,-1,-1,0
1523610744397,-655360,90,-56,-1,-1,0
1523610744397,-655360,90,-56,-1,-1,0
1523610744397,-720896,90,-56,-1,-1,0
1523610744397,-720896,90,-56,-1,-1,0
1523610744397,-786432,90,-56,-1,-1,0
1523610744437,-786432,90,-56,-1,-1,0
1523610744437,-786432,90,-56,-1,-1,0
1523610744437,-851968,90,-56,-1,-1,0
1523610744437,-851968,90,-56,-1,-1,0
1523610744437,-851968,90,-56,-1,-1,0
1523610744477,-589824,90,-56,-1,-1,0
1523610744477,917504,90,-56,-1,-1,0
1523610744477,4587520,90,-56,-1,-1,0
1523610744477,9371648,90,-56,-1,-1,0
1523610744477,9764864,90,-56,-1,-1,0
1523610744517,4521984,90,-56,-1,-1,0
1523610744517,-786432,90,-56,-1,-1,0
1523610744517,-1900544,90,-56,-1,-1,0
1523610744517,-1179648,90,-56,-1,-1,0
1523610744517,-720896,90,-56,-1,-1,0
1523610744557,-786432,90,-56,-1,-1,0
1523610744557,-786432,90,-56,-1,-1,0
1523610744557,-786432,90,-56,-1,-1,0
1523610744557,-786432,90,-56,-1,-1,0
1523610744557,-786432,90,-56,-1,-1,0
1523610744598,-720896,90,-56,-1,-1,0
1523610744598,-655360,90,-56,-1,-1,0
1523610744598,-393216,90,-56,-1,-1,0
1523610744598,-262144,90,-56,-1,-1,0
1523610744598,-131072,90,-56,-1,-1,0
1523610744637,0,90,-56,-1,-1,0
1523610744637,196608,90,-56,-1,-1,0
1523610744637,458752,90,-56,-1,-1,0
1523610744637,851968,90,-56,-1,-1,0
1523610744637,1245184,90,-56,-1,-1,0
1523610744677,1638400,90,-56,-1,-1,0
1523610744677,1900544,90,-56,-1,-1,0
1523610744677,2097152,90,-56,-1,-1,0
1523610744677,2228224,90,-56,-1,-1,0
1523610744677,2293760,90,-56,-1,-1,0
1523610744717,2228224,90,-56,-1,-1,0
1523610744717,2162688,90,-56,-1,-1,0
1523610744717,1966080,90,-56,-1,-1,0
1523610744717,1638400,90,-56,-1,-1,0
1523610744717,1245184,90,-56,-1,-1,0
1523610744757,786432,90,-56,-1,-1,0
1523610744757,393216,90,-56,-1,-1,0
1523610744757,65536,90,-56,-1,-1,0
1523610744757,-196608,90,-56,-1,-1,0
1523610744757,-393216,90,-56,-1,-1,0
1523610744798,-524288,90,-56,-1,-1,0
1523610744798,-589824,90,-56,-1,-1,0
1523610744798,-786432,90,-56,-1,-1,0
1523610744798,-851968,90,-56,-1,-1,0
1523610744798,-917504,90,-56,-1,-1,0
1523610744837,-983040,90,-56,-1,-1,0
1523610744837,-1114112,90,-56,-1,-1,0
1523610744837,-1245184,90,-56,-1,-1,0
1523610744837,-1310720,90,-56,-1,-1,0
1523610744837,-1441792,90,-56,-1,-1,0
1523610744877,-1441792,90,-56,-1,-1,0
1523610744877,-1507328,90,-56,-1,-1,0
1523610744877,-1507328,90,-56,-1,-1,0
1523610744877,-1572864,90,-56,-1,-1,0
1523610744877,-1572864,90,-56,-1,-1,0
1523610744917,-1638400,90,-56,-1,-1,0
1523610744917,-1638400,90,-56,-1,-1,0
1523610744917,-1638400,90,-56,-1,-1,0
1523610744917,-1572864,90,-56,-1,-1,0
1523610744917,-1638400,90,-56,-1,-1,0
1523610744957,-1769472,90,-56,-1,-1,0
1523610744957,-1835008,90,-56,-1,-1,0
1523610744957,-1703936,90,-56,-1,-1,0
1523610744957,-1572864,90,-56,-1,-1,0
1523610744957,-1638400,90,-56,-1,-1,0
1523610744997,-1638400,90,-56,-1,-1,0
1523610744997,-1769472,90,-56,-1,-1,0
1523610744997,-1835008,90,-56,-1,-1,0
1523610744997,-1835008,90,-56,-1,-1,0
1523610744997,-1769472,90,-56,-1,-1,0
1523610745037,-1703936,90,-56,-1,-1,0
1523610745037,-1638400,90,-56,-1,-1,0
1523610745037,-1507328,90,-56,-1,-1,0
1523610745037,-1310720,90,-56,-1,-1,0
1523610745037,-1048576,90,-56,-1,-1,0
1523610745077,-983040,90,-56,-1,-1,0
1523610745077,-1114112,90,-56,-1,-1,0
1523610745077,-1245184,90,-56,-1,-1,0
1523610745077,-1310720,90,-56,-1,-1,0
1523610745077,-1310720,90,-56,-1,-1,0
1523610745117,-1310720,90,-56,-1,-1,0
1523610745117,-1310720,90,-56,-1,-1,0
1523610745117,-1376256,90,-56,-1,-1,0
1523610745117,-1441792,90,-56,-1,-1,0
1523610745117,-1310720,90,-56,-1,-1,0
1523610745157,-851968,90,-56,-1,-1,0
1523610745157,196608,90,-56,-1,-1,0
1523610745157,3211264,90,-56,-1,-1,0
1523610745157,7929856,90,-56,-1,-1,0
1523610745157,10289152,90,-56,-1,-1,0
1523610745198,6488064,90,-56,-1,-1,0
1523610745198,655360,90,-56,-1,-1,0
1523610745198,-1441792,90,-56,-1,-1,0
1523610745198,-589824,90,-56,-1,-1,0
1523610745198,65536,90,-56,-1,-1,0
1523610745237,65536,90,-56,-1,-1,0
1523610745237,65536,90,-56,-1,-1,0
1523610745237,262144,90,-56,-1,-1,0
1523610745237,458752,90,-56,-1,-1,0
1523610745237,393216,90,-56,-1,-1,0
1523610745277,393216,90,-56,-1,-1,0
1523610745277,655360,90,-56,-1,-1,0
1523610745277,1179648,90,-56,-1,-1,0
1523610745277,1835008,90,-56,-1,-1,0
1523610745277,2162688,90,-56,-1,-1,0
1523610745317,1966080,90,-56,-1,-1,0
1523610745317,1966080,90,-56,-1,-1,0
1523610745317,2555904,90,-56,-1,-1,0
1523610745317,3080192,90,-56,-1,-1,0
1523610745317,3473408,90,-56,-1,-1,0
1523610745357,3538944,90,-56,-1,-1,0
1523610745357,3670016,90,-56,-1,-1,0
1523610745357,3735552,90,-56,-1,-1,0
1523610745357,4063232,90,-56,-1,-1,0
1523610745357,4390912,90,-56,-1,-1,0
1523610745397,4587520,90,-56,-1,-1,0
1523610745397,4390912,90,-56,-1,-1,0
1523610745397,3932160,90,-56,-1,-1,0
1523610745397,3342336,90,-56,-1,-1,0
1523610745397,2752512,90,-56,-1,-1,0
1523610745438,2949120,90,-56,-1,-1,0
1523610745438,3211264,90,-56,-1,-1,0
1523610745438,2621440,90,-56,-1,-1,0
1523610745438,1835008,90,-56,-1,-1,0
1523610745438,1769472,90,-56,-1,-1,0
1523610745477,1900544,90,-56,-1,-1,0
1523610745477,1507328,90,-56,-1,-1,0
1523610745477,1376256,90,-56,-1,-1,0
1523610745477,1769472,90,-56,-1,-1,0
1523610745477,2031616,90,-56,-1,-1,0
1523610745517,1966080,90,-56,-1,-1,0
1523610745517,2228224,90,-56,-1,-1,0
1523610745517,2621440,90,-56,-1,-1,0
1523610745517,2621440,90,-56,-1,-1,0
1523610745517,2949120,90,-56,-1,-1,0
1523610745557,3211264,90,-56,-1,-1,0
1523610745557,2818048,90,-56,-1,-1,0
1523610745557,3276800,90,-56,-1,-1,0
1523610745557,3538944,90,-56,-1,-1,0
1523610745557,3276800,90,-56,-1,-1,0
1523610745598,2818048,90,-56,-1,-1,0
1523610745598,2752512,90,-56,-1,-1,0
1523610745598,2097152,90,-56,-1,-1,0
1523610745598,1966080,90,-56,-1,-1,0
1523610745598,3342336,90,-56,-1,-1,0
1523610745637,3604480,90,-56,-1,-1,0
1523610745637,2752512,90,-56,-1,-1,0
1523610745637,2162688,90,-56,-1,-1,0
1523610745637,2752512,90,-56,-1,-1,0
1523610745637,3014656,90,-56,-1,-1,0
1523610745677,2752512,90,-56,-1,-1,0
1523610745677,2752512,90,-56,-1,-1,0
1523610745677,3145728,90,-56,-1,-1,0
1523610745677,2949120,90,-56,-1,-1,0
1523610745677,2359296,90,-56,-1,-1,0
1523610745717,2359296,90,-56,-1,-1,0
1523610745717,2555904,90,-56,-1,-1,0
1523610745717,2752512,90,-56,-1,-1,0
1523610745717,2424832,90,-56,-1,-1,0
1523610745717,2490368,90,-56,-1,-1,0
1523610745757,3276800,90,-56,-1,-1,0
1523610745757,3604480,90,-56,-1,-1,0
1523610745757,3473408,90,-56,-1,-1,0
1523610745757,3538944,90,-56,-1,-1,0
1523610745757,3866624,90,-56,-1,-1,0
1523610745797,3407872,90,-56,-1,-1,0
1523610745797,3801088,90,-56,-1,-1,0
1523610745797,4390912,90,-56,-1,-1,0
1523610745797,3866624,90,-56,-1,-1,0
1523610745797,3014656,90,-56,-1,-1,0
1523610745837,3538944,90,-56,-1,-1,0
1523610745837,3604480,90,-56,-1,-1,0
1523610745837,2293760,90,-56,-1,-1,0
1523610745837,1376256,90,-56,-1,-1,0
1523610745837,3801088,90,-56,-1,-1,0
1523610745877,7143424,90,-56,-1,-1,0
1523610745877,10878976,90,-56,-1,-1,0
1523610745877,10944512,90,-56,-1,-1,0
1523610745877,6356992,90,-56,-1,-1,0
1523610745877,851968,90,-56,-1,-1,0
1523610745917,-851968,90,-56,-1,-1,0
1523610745917,-393216,90,-56,-1,-1,0
1523610745917,655360,90,-56,-1,-1,0
1523610745917,655360,90,-56,-1,-1,0
1523610745917,-524288,90,-56,-1,-1,0
1523610745957,-1048576,90,-56,-1,-1,0
1523610745957,-524288,90,-56,-1,-1,0
1523610745957,-393216,90,-56,-1,-1,0
1523610745957,-1114112,90,-56,-1,-1,0
1523610745957,-1179648,90,-56,-1,-1,0
1523610745997,-458752,90,-56,-1,-1,0
1523610745997,131072,90,-56,-1,-1,0
1523610745997,-131072,90,-56,-1,-1,0
1523610745997,-65536,90,-56,-1,-1,0
1523610745997,393216,90,-56,-1,-1,0
1523610746037,-327680,90,-56,-1,-1,0
1523610746037,-1245184,90,-56,-1,-1,0
1523610746037,-655360,90,-56,-1,-1,0
1523610746037,393216,90,-56,-1,-1,0
1523610746037,1376256,90,-56,-1,-1,0
1523610746078,917504,90,-56,-1,-1,0
1523610746078,589824,90,-56,-1,-1,0
1523610746078,196608,90,-56,-1,-1,0
1523610746078,65536,90,-56,-1,-1,0
1523610746078,-393216,90,-56,-1,-1,0
1523610746117,-983040,90,-56,-1,-1,0
1523610746117,-1703936,90,-56,-1,-1,0
1523610746117,-2031616,90,-56,-1,-1,0
1523610746117,-2097152,90,-56,-1,-1,0
1523610746117,-2490368,90,-56,-1,-1,0
1523610746157,-3014656,90,-56,-1,-1,0
1523610746157,-2752512,90,-56,-1,-1,0
1523610746157,-2162688,90,-56,-1,-1,0
1523610746157,-2752512,90,-56,-1,-1,0
1523610746157,-3866624,90,-56,-1,-1,0
1523610746197,-3932160,90,-56,-1,-1,0
1523610746197,-3538944,90,-56,-1,-1,0
1523610746197,-3145728,90,-56,-1,-1,0
1523610746197,-2818048,90,-56,-1,-1,0
1523610746197,-2490368,90,-56,-1,-1,0
1523610746237,-2752512,90,-56,-1,-1,0
1523610746237,-3211264,90,-56,-1,-1,0
1523610746237,-3080192,90,-56,-1,-1,0
1523610746237,-2621440,90,-56,-1,-1,0
1523610746237,-2686976,90,-56,-1,-1,0
1523610746277,-2818048,90,-56,-1,-1,0
1523610746277,-3014656,90,-56,-1,-1,0
1523610746277,-3211264,90,-56,-1,-1,0
1523610746277,-3407872,90,-56,-1,-1,0
1523610746277,-3276800,90,-56,-1,-1,0
1523610746317,-2621440,90,-56,-1,-1,0
1523610746317,-2424832,90,-56,-1,-1,0
1523610746317,-3145728,90,-56,-1,-1,0
1523610746317,-3538944,90,-56,-1,-1,0
1523610746317,-3080192,90,-56,-1,-1,0
1523610746357,-2686976,90,-56,-1,-1,0
1523610746357,-3014656,90,-56,-1,-1,0
1523610746357,-2949120,90,-56,-1,-1,0
1523610746357,-3014656,90,-56,-1,-1,0
1523610746357,-3014656,90,-56,-1,-1,0
1523610746398,-3014656,90,-56,-1,-1,0
1523610746398,-2359296,90,-56,-1,-1,0
1523610746398,-2228224,90,-56,-1,-1,0
1523610746398,-2490368,90,-56,-1,-1,0
1523610746398,-2686976,90,-56,-1,-1,0
1523610746437,-2424832,90,-56,-1,-1,0
1523610746437,-2359296,90,-56,-1,-1,0
1523610746437,-2621440,90,-56,-1,-1,0
1523610746437,-2818048,90,-56,-1,-1,0
1523610746437,-2752512,90,-56,-1,-1,0
1523610746477,-2818048,90,-56,-1,-1,0
1523610746477,-2752512,90,-56,-1,-1,0
1523610746477,-2490368,90,-56,-1,-1,0
1523610746477,-2424832,90,-56,-1,-1,0
1523610746477,-2752512,90,-56,-1,-1,0
1523610746517,-2883584,90,-56,-1,-1,0
1523610746517,-2621440,90,-56,-1,-1,0
1523610746517,-2555904,90,-56,-1,-1,0
1523610746517,-2752512,90,-56,-1,-1,0
1523610746517,-2686976,90,-56,-1,-1,0
1523610746557,-1769472,90,-56,-1,-1,0
1523610746557,0,90,-56,-1,-1,0
1523610746557,3080192,90,-56,-1,-1,0
1523610746557,6750208,90,-56,-1,-1,0
1523610746557,5963776,90,-56,-1,-1,0
1523610746597,983040,90,-56,-1,-1,0
1523610746597,-2949120,90,-56,-1,-1,0
1523610746597,-3473408,90,-56,-1,-1,0
1523610746597,-2490368,90,-56,-1,-1,0
1523610746597,-1900544,90,-56,-1,-1,0
1523610746638,-1966080,90,-56,-1,-1,0
1523610746638,-2359296,90,-56,-1,-1,0
1523610746638,-2555904,90,-56,-1,-1,0
1523610746638,-2359296,90,-56,-1,-1,0
1523610746638,-1966080,90,-56,-1,-1,0
1523610746677,-1769472,90,-56,-1,-1,0
1523610746677,-1703936,90,-56,-1,-1,0
1523610746677,-1376256,90,-56,-1,-1,0
1523610746677,-1048576,90,-56,-1,-1,0
1523610746677,-983040,90,-56,-1,-1,0
1523610746718,-589824,90,-56,-1,-1,0
1523610746718,0,90,-56,-1,-1,0
1523610746718,720896,90,-56,-1,-1,0
1523610746718,917504,90,-56,-1,-1,0
1523610746718,655360,90,-56,-1,-1,0
1523610746757,327680,90,-56,-1,-1,0
1523610746757,524288,90,-56,-1,-1,0
1523610746757,851968,90,-56,-1,-1,0
1523610746757,1048576,90,-56,-1,-1,0
1523610746757,917504,90,-56,-1,-1,0
1523610746797,589824,90,-56,-1,-1,0
1523610746797,196608,90,-56,-1,-1,0
1523610746797,-131072,90,-56,-1,-1,0
1523610746797,-458752,90,-56,-1,-1,0
1523610746797,-1114112,90,-56,-1,-1,0
1523610746838,-1769472,90,-56,-1,-1,0
1523610746838,-2031616,90,-56,-1,-1,0
1523610746838,-2097152,90,-56,-1,-1,0
1523610746838,-2162688,90,-56,-1,-1,0
1523610746838,-2293760,90,-56,-1,-1,0
1523610746877,-2293760,90,-56,-1,-1,0
1523610746877,-2162688,90,-56,-1,-1,0
1523610746877,-2031616,90,-56,-1,-1,0
1523610746877,-2097152,90,-56,-1,-1,0
1523610746877,-2359296,90,-56,-1,-1,0
1523610746919,-2490368,90,-56,-1,-1,0
1523610746919,-2424832,90,-56,-1,-1,0
1523610746919,-2359296,90,-56,-1,-1,0
1523610746919,-2293760,90,-56,-1,-1,0
1523610746919,-2228224,90,-56,-1,-1,0
1523610746957,-2162688,90,-56,-1,-1,0
1523610746957,-2228224,90,-56,-1,-1,0
1523610746957,-2228224,90,-56,-1,-1,0
1523610746957,-2228224,90,-56,-1,-1,0
1523610746957,-2424832,90,-56,-1,-1,0
1523610746997,-2555904,90,-56,-1,-1,0
1523610746997,-2621440,90,-56,-1,-1,0
1523610746997,-2621440,90,-56,-1,-1,0
1523610746997,-2293760,90,-56,-1,-1,0
1523610746997,-1966080,90,-56,-1,-1,0
1523610747037,-1900544,90,-56,-1,-1,0
1523610747037,-2031616,90,-56,-1,-1,0
1523610747037,-2031616,90,-56,-1,-1,0
1523610747037,-2031616,90,-56,-1,-1,0
1523610747037,-1966080,90,-56,-1,-1,0
1523610747077,-1900544,90,-56,-1,-1,0
1523610747077,-1900544,90,-56,-1,-1,0
1523610747077,-1835008,90,-56,-1,-1,0
1523610747077,-1638400,90,-56,-1,-1,0
1523610747077,-1638400,90,-56,-1,-1,0
1523610747117,-1703936,90,-56,-1,-1,0
1523610747117,-1638400,90,-56,-1,-1,0
1523610747117,-1638400,90,-56,-1,-1,0
1523610747117,-1507328,90,-56,-1,-1,0
1523610747117,-1376256,90,-56,-1,-1,0
1523610747157,-1441792,90,-56,-1,-1,0
1523610747157,-1572864,90,-56,-1,-1,0
1523610747157,-1638400,90,-56,-1,-1,0
1523610747157,-1572864,90,-56,-1,-1,0
1523610747157,-1572864,90,-56,-1,-1,0
1523610747197,-1507328,90,-56,-1,-1,0
1523610747197,-1572864,90,-56,-1,-1,0
1523610747197,-1769472,90,-56,-1,-1,0
1523610747197,-2031616,90,-56,-1,-1,0
1523610747197,-2228224,90,-56,-1,-1,0
1523610747237,-2293760,90,-56,-1,-1,0
1523610747237,-2228224,90,-56,-1,-1,0
1523610747237,-2293760,90,-56,-1,-1,0
1523610747237,-2293760,90,-56,-1,-1,0
1523610747237,-2359296,90,-56,-1,-1,0
1523610747277,-2424832,90,-56,-1,-1,0
1523610747277,-2359296,90,-56,-1,-1,0
1523610747277,-2228224,90,-56,-1,-1,0
1523610747277,-1835008,90,-56,-1,-1,0
1523610747277,-327680,90,-56,-1,-1,0
1523610747317,3145728,89,-56,-1,-1,0
1523610747317,7667712,89,-56,-1,-1,0
1523610747317,8126464,89,-56,-1,-1,0
1523610747317,3080192,89,-56,-1,-1,0
1523610747317,-1703936,89,-56,-1,-1,0
1523610747358,-2555904,89,-56,-1,-1,0
1523610747358,-1835008,89,-56,-1,-1,0
1523610747358,-1376256,89,-56,-1,-1,0
1523610747358,-1245184,89,-56,-1,-1,0
1523610747358,-1114112,89,-56,-1,-1,0
1523610747397,-917504,89,-56,-1,-1,0
1523610747397,-720896,89,-56,-1,-1,0
1523610747397,-524288,89,-56,-1,-1,0
1523610747397,-262144,89,-56,-1,-1,0
1523610747397,0,89,-56,-1,-1,0
1523610747437,196608,89,-56,-1,-1,0
1523610747437,393216,89,-56,-1,-1,0
1523610747437,589824,89,-56,-1,-1,0
1523610747437,786432,89,-56,-1,-1,0
1523610747437,1114112,89,-56,-1,-1,0
1523610747477,1441792,89,-56,-1,-1,0
1523610747477,1703936,89,-56,-1,-1,0
1523610747477,2097152,89,-56,-1,-1,0
1523610747477,2490368,89,-56,-1,-1,0
1523610747477,2752512,89,-56,-1,-1,0
1523610747517,2949120,89,-56,-1,-1,0
1523610747517,3080192,89,-56,-1,-1,0
1523610747517,3014656,89,-56,-1,-1,0
1523610747517,2818048,89,-56,-1,-1,0
1523610747517,2424832,89,-56,-1,-1,0
1523610747557,2097152,89,-56,-1,-1,0
1523610747557,1835008,89,-56,-1,-1,0
1523610747557,1507328,89,-56,-1,-1,0
1523610747557,917504,89,-56,-1,-1,0
1523610747557,524288,89,-56,-1,-1,0
1523610747597,327680,89,-56,-1,-1,0
1523610747597,196608,89,-56,-1,-1,0
1523610747597,196608,89,-56,-1,-1,0
1523610747597,262144,89,-56,-1,-1,0
1523610747597,524288,89,-56,-1,-1,0
1523610747637,983040,89,-56,-1,-1,0
1523610747637,1179648,89,-56,-1,-1,0
1523610747637,1245184,89,-56,-1,-1,0
1523610747637,1048576,89,-56,-1,-1,0
1523610747637,983040,89,-56,-1,-1,0
1523610747677,851968,89,-56,-1,-1,0
1523610747677,917504,89,-56,-1,-1,0
1523610747677,1114112,89,-56,-1,-1,0
1523610747677,1376256,89,-56,-1,-1,0
1523610747677,1441792,89,-56,-1,-1,0
1523610747717,1179648,89,-56,-1,-1,0
1523610747717,983040,89,-56,-1,-1,0
1523610747717,1245184,89,-56,-1,-1,0
1523610747717,1507328,89,-56,-1,-1,0
1523610747717,1245184,89,-56,-1,-1,0
1523610747757,983040,89,-56,-1,-1,0
1523610747757,1245184,89,-56,-1,-1,0
1523610747757,1507328,89,-56,-1,-1,0
1523610747757,1376256,89,-56,-1,-1,0
1523610747757,1048576,89,-56,-1,-1,0
1523610747797,720896,89,-56,-1,-1,0
1523610747797,524288,89,-56,-1,-1,0
1523610747797,720896,89,-56,-1,-1,0
1523610747797,786432,89,-56,-1,-1,0
1523610747797,393216,89,-56,-1,-1,0
1523610747837,65536,89,-56,-1,-1,0
1523610747837,-65536,89,-56,-1,-1,0
1523610747837,-393216,89,-56,-1,-1,0
1523610747837,-196608,89,-56,-1,-1,0
1523610747837,-589824,89,-56,-1,-1,0
1523610747877,-1048576,89,-56,-1,-1,0
1523610747877,-720896,89,-56,-1,-1,0
1523610747877,0,89,-56,-1,-1,0
1523610747877,65536,89,-56,-1,-1,0
1523610747877,-524288,89,-56,-1,-1,0
1523610747917,-786432,89,-56,-1,-1,0
1523610747917,-196608,89,-56,-1,-1,0
1523610747917,65536,89,-56,-1,-1,0
1523610747917,131072,89,-56,-1,-1,0
1523610747917,-458752,89,-56,-1,-1,0
1523610747957,-917504,89,-56,-1,-1,0
1523610747957,-786432,89,-56,-1,-1,0
1523610747957,-131072,89,-56,-1,-1,0
1523610747957,-131072,89,-56,-1,-1,0
1523610747957,-393216,89,-56,-1,-1,0
1523610747998,-655360,89,-56,-1,-1,0
1523610747998,-524288,89,-56,-1,-1,0
1523610747998,-393216,89,-56,-1,-1,0
1523610747998,-131072,89,-56,-1,-1,0
1523610747998,851968,89,-56,-1,-1,0
1523610748037,3342336,89,-56,-1,-1,0
1523610748037,7536640,89,-56,-1,-1,0
1523610748037,10223616,89,-56,-1,-1,0
1523610748037,7274496,89,-56,-1,-1,0
1523610748037,1376256,89,-56,-1,-1,0
1523610748077,-1769472,89,-56,-1,-1,0
1523610748077,-1703936,89,-56,-1,-1,0
1523610748077,-1114112,89,-56,-1,-1,0
1523610748077,-589824,89,-56,-1,-1,0
1523610748077,-393216,89,-56,-1,-1,0
1523610748118,-589824,89,-56,-1,-1,0
1523610748118,-327680,89,-56,-1,-1,0
1523610748118,-524288,89,-56,-1,-1,0
1523610748118,-720896,89,-56,-1,-1,0
1523610748118,-524288,89,-56,-1,-1,0
1523610748157,-196608,89,-56,-1,-1,0
1523610748157,-196608,89,-56,-1,-1,0
1523610748157,65536,89,-56,-1,-1,0
1523610748157,262144,89,-56,-1,-1,0
1523610748157,131072,89,-56,-1,-1,0
1523610748197,65536,89,-56,-1,-1,0
1523610748197,327680,89,-56,-1,-1,0
1523610748197,524288,89,-56,-1,-1,0
1523610748197,1114112,89,-56,-1,-1,0
1523610748197,1966080,89,-56,-1,-1,0
1523610748239,1966080,89,-56,-1,-1,0
1523610748239,1572864,89,-56,-1,-1,0
1523610748239,1769472,89,-56,-1,-1,0
1523610748239,2293760,89,-56,-1,-1,0
1523610748239,2162688,89,-56,-1,-1,0
1523610748277,1703936,89,-56,-1,-1,0
1523610748277,983040,89,-56,-1,-1,0
1523610748277,458752,89,-56,-1,-1,0
1523610748277,-65536,89,-56,-1,-1,0
1523610748277,-458752,89,-56,-1,-1,0
1523610748317,-851968,89,-56,-1,-1,0
1523610748317,-1179648,89,-56,-1,-1,0
1523610748317,-524288,89,-56,-1,-1,0
1523610748317,-65536,89,-56,-1,-1,0
1523610748317,-196608,89,-56,-1,-1,0
1523610748357,-458752,89,-56,-1,-1,0
1523610748357,-327680,89,-56,-1,-1,0
1523610748357,-262144,89,-56,-1,-1,0
1523610748357,-655360,89,-56,-1,-1,0
1523610748357,-917504,89,-56,-1,-1,0
1523610748397,-524288,89,-56,-1,-1,0
1523610748397,-655360,89,-56,-1,-1,0
1523610748397,-589824,89,-56,-1,-1,0
1523610748397,-65536,89,-56,-1,-1,0
1523610748397,65536,89,-56,-1,-1,0
1523610748437,-131072,89,-56,-1,-1,0
1523610748437,0,89,-56,-1,-1,0
1523610748437,-262144,89,-56,-1,-1,0
1523610748437,-851968,89,-56,-1,-1,0
1523610748437,-851968,89,-56,-1,-1,0
1523610748477,-524288,89,-56,-1,-1,0
1523610748477,-524288,89,-56,-1,-1,0
1523610748477,-1114112,89,-56,-1,-1,0
1523610748477,-1441792,89,-56,-1,-1,0
1523610748477,-1376256,89,-56,-1,-1,0
1523610748517,-720896,89,-56,-1,-1,0
1523610748517,-196608,89,-56,-1,-1,0
1523610748517,-458752,89,-56,-1,-1,0
1523610748517,-983040,89,-56,-1,-1,0
1523610748517,-786432,89,-56,-1,-1,0
1523610748557,-851968,89,-56,-1,-1,0
1523610748557,-917504,89,-56,-1,-1,0
1523610748557,-983040,89,-56,-1,-1,0
1523610748557,-983040,89,-56,-1,-1,0
1523610748557,-1179648,89,-56,-1,-1,0
1523610748597,-1179648,89,-56,-1,-1,0
1523610748597,-917504,89,-56,-1,-1,0
1523610748597,-917504,89,-56,-1,-1,0
1523610748597,-1048576,89,-56,-1,-1,0
1523610748597,-917504,89,-56,-1,-1,0
1523610748638,-327680,89,-56,-1,-1,0
1523610748638,0,89,-56,-1,-1,0
1523610748638,-65536,89,-56,-1,-1,0
1523610748638,-458752,89,-56,-1,-1,0
1523610748638,-524288,89,-56,-1,-1,0
1523610748677,-393216,89,-56,-1,-1,0
1523610748677,-327680,89,-56,-1,-1,0
1523610748677,0,89,-56,-1,-1,0
1523610748677,327680,89,-56,-1,-1,0
1523610748677,65536,89,-56,-1,-1,0
1523610748717,-196608,88,-56,-1,-1,0
1523610748717,-131072,88,-56,-1,-1,0
1523610748717,-196608,88,-56,-1,-1,0
1523610748717,-327680,88,-56,-1,-1,0
1523610748717,196608,88,-56,-1,-1,0
1523610748757,2162688,88,-56,-1,-1,0
1523610748757,6094848,88,-56,-1,-1,0
1523610748757,10158080,88,-56,-1,-1,0
1523610748757,9240576,88,-56,-1,-1,0
1523610748757,3801088,88,-56,-1,-1,0
1523610748798,-393216,88,-56,-1,-1,0
1523610748798,-786432,88,-56,-1,-1,0
1523610748798,-1179648,88,-56,-1,-1,0
1523610748798,-1638400,88,-56,-1,-1,0
1523610748798,-1114112,88,-56,-1,-1,0
1523610748837,0,88,-56,-1,-1,0
1523610748837,458752,88,-56,-1,-1,0
1523610748837,0,88,-56,-1,-1,0
1523610748837,-196608,88,-56,-1,-1,0
1523610748837,-720896,88,-56,-1,-1,0
1523610748877,-65536,88,-56,-1,-1,0
1523610748877,0,88,-56,-1,-1,0
1523610748877,-131072,88,-56,-1,-1,0
1523610748877,-589824,88,-56,-1,-1,0
1523610748877,0,88,-56,-1,-1,0
1523610748917,458752,88,-56,-1,-1,0
1523610748917,524288,88,-56,-1,-1,0
1523610748917,1048576,88,-56,-1,-1,0
1523610748917,1179648,88,-56,-1,-1,0
1523610748917,1179648,88,-56,-1,-1,0
1523610748957,1310720,88,-56,-1,-1,0
1523610748957,1507328,88,-56,-1,-1,0
1523610748957,1310720,88,-56,-1,-1,0
1523610748957,1376256,88,-56,-1,-1,0
1523610748957,1441792,88,-56,-1,-1,0
1523610748997,983040,88,-56,-1,-1,0
1523610748997,0,88,-56,-1,-1,0
1523610748997,720896,88,-56,-1,-1,0
1523610748997,458752,88,-56,-1,-1,0
1523610748997,-917504,88,-56,-1,-1,0
1523610749037,-1441792,88,-56,-1,-1,0
1523610749037,-1245184,88,-56,-1,-1,0
1523610749037,-1310720,88,-56,-1,-1,0
1523610749037,-1638400,88,-56,-1,-1,0
1523610749037,-1507328,88,-56,-1,-1,0
1523610749077,-1507328,88,-56,-1,-1,0
1523610749077,-1245184,88,-56,-1,-1,0
1523610749077,-1114112,88,-56,-1,-1,0
1523610749077,-1114112,88,-56,-1,-1,0
1523610749077,-1048576,88,-56,-1,-1,0
1523610749117,-720896,88,-56,-1,-1,0
1523610749117,-524288,88,-56,-1,-1,0
1523610749117,-917504,88,-56,-1,-1,0
1523610749117,-917504,88,-56,-1,-1,0
1523610749117,-851968,88,-56,-1,-1,0
1523610749157,-786432,88,-56,-1,-1,0
1523610749157,-851968,88,-56,-1,-1,0
1523610749157,-917504,88,-56,-1,-1,0
1523610749157,-917504,88,-56,-1,-1,0
1523610749157,-917504,88,-56,-1,-1,0
1523610749197,-1179648,88,-56,-1,-1,0
1523610749197,-1441792,88,-56,-1,-1,0
1523610749197,-1507328,88,-56,-1,-1,0
1523610749197,-720896,88,-56,-1,-1,0
1523610749197,-196608,88,-56,-1,-1,0
1523610749237,-720896,88,-56,-1,-1,0
1523610749237,-1441792,88,-56,-1,-1,0
1523610749237,-1310720,88,-56,-1,-1,0
1523610749237,-983040,88,-56,-1,-1,0
1523610749237,-917504,88,-56,-1,-1,0
1523610749278,-1179648,88,-56,-1,-1,0
1523610749278,-1310720,88,-56,-1,-1,0
1523610749278,-1310720,88,-56,-1,-1,0
1523610749278,-1245184,88,-56,-1,-1,0
1523610749278,-1310720,88,-56,-1,-1,0
1523610749317,-1245184,88,-56,-1,-1,0
1523610749317,-1179648,88,-56,-1,-1,0
1523610749317,-851968,88,-56,-1,-1,0
1523610749317,-720896,88,-56,-1,-1,0
1523610749317,-655360,88,-56,-1,-1,0
1523610749357,-917504,88,-56,-1,-1,0
1523610749357,-1048576,88,-56,-1,-1,0
1523610749357,-1179648,88,-56,-1,-1,0
1523610749357,-1310720,88,-56,-1,-1,0
1523610749357,-1376256,88,-56,-1,-1,0
1523610749397,-1310720,88,-56,-1,-1,0
1523610749397,-1245184,88,-56,-1,-1,0
1523610749397,-1376256,88,-56,-1,-1,0
1523610749397,-1376256,88,-56,-1,-1,0
1523610749397,-1376256,88,-56,-1,-1,0
1523610749437,-1376256,88,-56,-1,-1,0
1523610749437,-1114112,88,-56,-1,-1,0
1523610749437,458752,88,-56,-1,-1,0
1523610749437,4063232,88,-56,-1,-1,0
1523610749437,8650752,88,-56,-1,-1,0
1523610749477,9109504,88,-56,-1,-1,0
1523610749477,3997696,88,-56,-1,-1,0
1523610749477,-1179648,88,-56,-1,-1,0
1523610749477,-2293760,88,-56,-1,-1,0
1523610749477,-1703936,88,-56,-1,-1,0
1523610749517,-1310720,88,-56,-1,-1,0
1523610749517,-1376256,88,-56,-1,-1,0
1523610749517,-1376256,88,-56,-1,-1,0
1523610749517,-1310720,88,-56,-1,-1,0
1523610749517,-1179648,88,-56,-1,-1,0
1523610749557,-1048576,88,-56,-1,-1,0
1523610749557,-1048576,88,-56,-1,-1,0
1523610749557,-1048576,88,-56,-1,-1,0
1523610749557,-983040,88,-56,-1,-1,0
1523610749557,-851968,88,-56,-1,-1,0
1523610749597,-720896,88,-56,-1,-1,0
1523610749597,-589824,88,-56,-1,-1,0
1523610749597,-327680,88,-56,-1,-1,0
1523610749597,0,88,-56,-1,-1,0
1523610749597,196608,88,-56,-1,-1,0
1523610749637,458752,88,-56,-1,-1,0
1523610749637,851968,88,-56,-1,-1,0
1523610749637,1245184,88,-56,-1,-1,0
1523610749637,1507328,88,-56,-1,-1,0
1523610749637,1572864,88,-56,-1,-1,0
1523610749677,1638400,88,-56,-1,-1,0
1523610749677,1441792,88,-56,-1,-1,0
1523610749677,1245184,88,-56,-1,-1,0
1523610749677,851968,88,-56,-1,-1,0
1523610749677,393216,88,-56,-1,-1,0
1523610749717,0,88,-56,-1,-1,0
1523610749717,-458752,88,-56,-1,-1,0
1523610749717,-851968,88,-56,-1,-1,0
1523610749717,-1048576,88,-56,-1,-1,0
1523610749717,-1114112,88,-56,-1,-1,0
1523610749757,-1114112,88,-56,-1,-1,0
1523610749757,-1179648,88,-56,-1,-1,0
1523610749757,-1245184,88,-56,-1,-1,0
1523610749757,-1245184,88,-56,-1,-1,0
1523610749757,-1245184,88,-56,-1,-1,0
1523610749797,-1310720,88,-56,-1,-1,0
1523610749797,-1310720,88,-56,-1,-1,0
1523610749797,-1310720,88,-56,-1,-1,0
1523610749797,-1310720,88,-56,-1,-1,0
1523610749797,-1376256,88,-56,-1,-1,0
1523610749837,-1507328,88,-56,-1,-1,0
1523610749837,-1638400,88,-56,-1,-1,0
1523610749837,-1835008,88,-56,-1,-1,0
1523610749837,-1900544,88,-56,-1,-1,0
1523610749837,-1966080,88,-56,-1,-1,0
1523610749878,-1966080,88,-56,-1,-1,0
1523610749878,-2031616,88,-56,-1,-1,0
1523610749878,-2031616,88,-56,-1,-1,0
1523610749878,-2162688,88,-56,-1,-1,0
1523610749878,-2228224,88,-56,-1,-1,0
1523610749919,-2293760,88,-56,-1,-1,0
1523610749919,-2293760,88,-56,-1,-1,0
1523610749919,-2228224,88,-56,-1,-1,0
1523610749919,-2228224,88,-56,-1,-1,0
1523610749919,-2228224,88,-56,-1,-1,0
1523610749957,-2293760,88,-56,-1,-1,0
1523610749957,-2424832,88,-56,-1,-1,0
1523610749957,-2555904,88,-56,-1,-1,0
1523610749957,-2490368,88,-56,-1,-1,0
1523610749957,-2424832,88,-56,-1,-1,0
1523610749997,-2293760,88,-56,-1,-1,0
1523610749997,-2162688,88,-56,-1,-1,0
1523610749997,-1966080,88,-56,-1,-1,0
1523610749997,-1835008,88,-56,-1,-1,0
1523610749997,-1900544,88,-56,-1,-1,0
1523610750037,-2031616,88,-56,-1,-1,0
1523610750037,-2097152,88,-56,-1,-1,0
1523610750037,-2097152,88,-56,-1,-1,0
1523610750037,-2031616,88,-56,-1,-1,0
1523610750037,-2031616,88,-56,-1,-1,0
1523610750077,-2031616,88,-56,-1,-1,0
1523610750077,-2031616,88,-56,-1,-1,0
1523610750077,-2031616,88,-56,-1,-1,0
1523610750077,-1966080,88,-56,-1,-1,0
1523610750077,-1966080,88,-56,-1,-1,0
1523610750117,-1507328,88,-56,-1,-1,0
1523610750117,0,88,-56,-1,-1,0
1523610750117,3473408,88,-56,-1,-1,0
1523610750117,7995392,88,-56,-1,-1,0
1523610750117,8650752,88,-56,-1,-1,0
1523610750157,3670016,88,-56,-1,-1,0
1523610750157,-1376256,88,-56,-1,-1,0
1523610750157,-2424832,88,-56,-1,-1,0
1523610750157,-1769472,88,-56,-1,-1,0
1523610750157,-1376256,88,-56,-1,-1,0
1523610750197,-1245184,88,-56,-1,-1,0
1523610750197,-1179648,88,-56,-1,-1,0
1523610750197,-1048576,88,-56,-1,-1,0
1523610750197,-917504,88,-56,-1,-1,0
1523610750197,-786432,88,-56,-1,-1,0
1523610750237,-589824,88,-56,-1,-1,0
1523610750237,-393216,88,-56,-1,-1,0
1523610750237,-196608,88,-56,-1,-1,0
1523610750237,-65536,88,-56,-1,-1,0
1523610750237,131072,88,-56,-1,-1,0
1523610750277,327680,88,-56,-1,-1,0
1523610750277,589824,88,-56,-1,-1,0
1523610750277,851968,88,-56,-1,-1,0
1523610750277,1179648,88,-56,-1,-1,0
1523610750277,1572864,88,-56,-1,-1,0
1523610750317,1966080,88,-56,-1,-1,0
1523610750317,2293760,88,-56,-1,-1,0
1523610750317,2555904,88,-56,-1,-1,0
1523610750317,2686976,88,-56,-1,-1,0
1523610750317,2686976,88,-56,-1,-1,0
1523610750357,2555904,88,-56,-1,-1,0
1523610750357,2293760,88,-56,-1,-1,0
1523610750357,1900544,88,-56,-1,-1,0
1523610750357,1441792,88,-56,-1,-1,0
1523610750357,983040,88,-56,-1,-1,0
1523610750397,720896,88,-56,-1,-1,0
1523610750397,524288,88,-56,-1,-1,0
1523610750397,393216,88,-56,-1,-1,0
1523610750397,196608,88,-56,-1,-1,0
1523610750397,65536,88,-56,-1,-1,0
1523610750437,65536,88,-56,-1,-1,0
1523610750437,65536,88,-56,-1,-1,0
1523610750437,131072,88,-56,-1,-1,0
1523610750437,196608,88,-56,-1,-1,0
1523610750437,327680,88,-56,-1,-1,0
1523610750477,458752,88,-56,-1,-1,0
1523610750477,458752,88,-56,-1,-1,0
1523610750477,524288,88,-56,-1,-1,0
1523610750477,655360,88,-56,-1,-1,0
1523610750477,720896,88,-56,-1,-1,0
1523610750518,720896,88,-56,-1,-1,0
1523610750518,720896,88,-56,-1,-1,0
1523610750518,655360,88,-56,-1,-1,0
1523610750518,589824,88,-56,-1,-1,0
1523610750518,524288,88,-56,-1,-1,0
1523610750558,524288,88,-56,-1,-1,0
1523610750558,458752,88,-56,-1,-1,0
1523610750558,458752,88,-56,-1,-1,0
1523610750558,589824,88,-56,-1,-1,0
1523610750558,655360,88,-56,-1,-1,0
1523610750597,589824,88,-56,-1,-1,0
1523610750597,524288,88,-56,-1,-1,0
1523610750597,458752,88,-56,-1,-1,0
1523610750597,393216,88,-56,-1,-1,0
1523610750597,327680,88,-56,-1,-1,0
1523610750638,196608,88,-56,-1,-1,0
1523610750638,0,88,-56,-1,-1,0
1523610750638,-65536,88,-56,-1,-1,0
1523610750638,-131072,88,-56,-1,-1,0
1523610750638,-131072,88,-56,-1,-1,0
1523610750677,-65536,88,-56,-1,-1,0
1523610750677,0,88,-56,-1,-1,0
1523610750677,0,88,-56,-1,-1,0
1523610750677,-131072,88,-56,-1,-1,0
1523610750677,-393216,88,-56,-1,-1,0
1523610750718,-524288,88,-56,-1,-1,0
1523610750718,-589824,88,-56,-1,-1,0
1523610750718,-786432,88,-56,-1,-1,0
1523610750718,-983040,88,-56,-1,-1,0
1523610750718,-1114112,88,-56,-1,-1,0
1523610750757,-1114112,88,-56,-1,-1,0
1523610750757,-1245184,88,-56,-1,-1,0
1523610750757,-1245184,88,-56,-1,-1,0
1523610750757,-1179648,88,-56,-1,-1,0
1523610750757,-917504,88,-56,-1,-1,0
1523610750797,0,88,-56,-1,-1,0
1523610750797,2555904,88,-56,-1,-1,0
1523610750797,6881280,88,-56,-1,-1,0
1523610750797,9240576,88,-56,-1,-1,0
1523610750797,6029312,88,-56,-1,-1,0
1523610750837,393216,88,-56,-1,-1,0
1523610750837,-2162688,88,-56,-1,-1,0
1523610750837,-1900544,88,-56,-1,-1,0
1523610750837,-1441792,88,-56,-1,-1,0
1523610750837,-1441792,88,-56,-1,-1,0
1523610750877,-1376256,88,-56,-1,-1,0
1523610750877,-1376256,88,-56,-1,-1,0
1523610750877,-1310720,88,-56,-1,-1,0
1523610750877,-1310720,88,-56,-1,-1,0
1523610750877,-1245184,88,-56,-1,-1,0
1523610750917,-1245184,88,-56,-1,-1,0
1523610750917,-1114112,88,-56,-1,-1,0
1523610750917,-1048576,88,-56,-1,-1,0
1523610750917,-917504,88,-56,-1,-1,0
1523610750917,-786432,88,-56,-1,-1,0
1523610750957,-524288,88,-56,-1,-1,0
1523610750957,-262144,88,-56,-1,-1,0
1523610750957,0,88,-56,-1,-1,0
1523610750957,196608,88,-56,-1,-1,0
1523610750957,524288,88,-56,-1,-1,0
1523610750997,851968,88,-56,-1,-1,0
1523610750997,1048576,88,-56,-1,-1,0
1523610750997,1179648,88,-56,-1,-1,0
1523610750997,1179648,88,-56,-1,-1,0
1523610750997,1114112,88,-56,-1,-1,0
1523610751037,917504,88,-56,-1,-1,0
1523610751037,655360,88,-56,-1,-1,0
1523610751037,196608,88,-56,-1,-1,0
1523610751037,-196608,88,-56,-1,-1,0
1523610751037,-589824,88,-56,-1,-1,0
1523610751077,-851968,88,-56,-1,-1,0
1523610751077,-1114112,88,-56,-1,-1,0
1523610751077,-1179648,88,-56,-1,-1,0
1523610751077,-1310720,88,-56,-1,-1,0
1523610751077,-1310720,88,-56,-1,-1,0
1523610751117,-1310720,88,-56,-1,-1,0
1523610751117,-1245184,88,-56,-1,-1,0
1523610751117,-1245184,88,-56,-1,-1,0
1523610751117,-1245184,88,-56,-1,-1,0
1523610751117,-1179648,88,-56,-1,-1,0
1523610751157,-1245184,88,-56,-1,-1,0
1523610751157,-1245184,88,-56,-1,-1,0
1523610751157,-1245184,88,-56,-1,-1,0
1523610751157,-1114112,88,-56,-1,-1,0
1523610751157,-1114112,88,-56,-1,-1,0
1523610751198,-1179648,88,-56,-1,-1,0
1523610751198,-1179648,88,-56,-1,-1,0
1523610751198,-1245184,88,-56,-1,-1,0
1523610751198,-1245184,88,-56,-1,-1,0
1523610751198,-1245184,88,-56,-1,-1,0
1523610751238,-1310720,88,-56,-1,-1,0
1523610751238,-1245184,88,-56,-1,-1,0
1523610751238,-1245184,88,-56,-1,-1,0
1523610751238,-1245184,88,-56,-1,-1,0
1523610751238,-1245184,88,-56,-1,-1,0
1523610751277,-1245184,88,-56,-1,-1,0
1523610751277,-1245184,88,-56,-1,-1,0
1523610751277,-1245184,88,-56,-1,-1,0
1523610751277,-1179648,88,-56,-1,-1,0
1523610751277,-1114112,88,-56,-1,-1,0
1523610751317,-983040,88,-56,-1,-1,0
1523610751317,-786432,88,-56,-1,-1,0
1523610751317,-589824,88,-56,-1,-1,0
1523610751317,-327680,88,-56,-1,-1,0
1523610751317,-131072,88,-56,-1,-1,0
1523610751357,-131072,88,-56,-1,-1,0
1523610751357,-262144,88,-56,-1,-1,0
1523610751357,-327680,88,-56,-1,-1,0
1523610751357,-262144,88,-56,-1,-1,0
1523610751357,-262144,88,-56,-1,-1,0
1523610751397,-196608,88,-56,-1,-1,0
1523610751397,-196608,88,-56,-1,-1,0
1523610751397,-131072,88,-56,-1,-1,0
1523610751397,-65536,88,-56,-1,-1,0
1523610751397,0,88,-56,-1,-1,0
1523610751437,0,88,-56,-1,-1,0
1523610751437,196608,88,-56,-1,-1,0
1523610751437,1245184,88,-56,-1,-1,0
1523610751437,4194304,88,-56,-1,-1,0
1523610751437,9043968,88,-56,-1,-1,0
1523610751479,11796480,88,-56,-1,-1,0
1523610751479,8192000,88,-56,-1,-1,0
1523610751479,1966080,88,-56,-1,-1,0
1523610751479,-655360,88,-56,-1,-1,0
1523610751479,-196608,88,-56,-1,-1,0
1523610751517,262144,88,-56,-1,-1,0
1523610751517,327680,88,-56,-1,-1,0
1523610751517,393216,88,-56,-1,-1,0
1523610751517,458752,88,-56,-1,-1,0
1523610751517,524288,88,-56,-1,-1,0
1523610751557,655360,88,-56,-1,-1,0
1523610751557,851968,88,-56,-1,-1,0
1523610751557,851968,88,-56,-1,-1,0
1523610751557,983040,88,-56,-1,-1,0
1523610751557,1048576,88,-56,-1,-1,0
1523610751597,1245184,88,-56,-1,-1,0
1523610751597,1310720,88,-56,-1,-1,0
1523610751597,1572864,88,-56,-1,-1,0
1523610751597,1900544,88,-56,-1,-1,0
1523610751597,2228224,88,-56,-1,-1,0
1523610751637,2555904,88,-56,-1,-1,0
1523610751637,2883584,88,-56,-1,-1,0
1523610751637,3211264,88,-56,-1,-1,0
1523610751637,3407872,88,-56,-1,-1,0
1523610751637,3604480,88,-56,-1,-1,0
1523610751677,3604480,88,-56,-1,-1,0
1523610751677,3473408,88,-56,-1,-1,0
1523610751677,3211264,88,-56,-1,-1,0
1523610751677,2883584,88,-56,-1,-1,0
1523610751677,2424832,88,-56,-1,-1,0
1523610751717,1769472,88,-56,-1,-1,0
1523610751717,1245184,88,-56,-1,-1,0
1523610751717,917504,88,-56,-1,-1,0
1523610751717,720896,88,-56,-1,-1,0
1523610751717,589824,88,-56,-1,-1,0
1523610751757,524288,88,-56,-1,-1,0
1523610751757,393216,88,-56,-1,-1,0
1523610751757,262144,88,-56,-1,-1,0
1523610751757,262144,88,-56,-1,-1,0
1523610751757,262144,88,-56,-1,-1,0
1523610751797,262144,88,-56,-1,-1,0
1523610751797,196608,88,-56,-1,-1,0
1523610751797,196608,88,-56,-1,-1,0
1523610751797,196608,88,-56,-1,-1,0
1523610751797,196608,88,-56,-1,-1,0
1523610751838,131072,88,-56,-1,-1,0
1523610751838,0,88,-56,-1,-1,0
1523610751838,-131072,88,-56,-1,-1,0
1523610751838,-262144,88,-56,-1,-1,0
1523610751838,-458752,88,-56,-1,-1,0
1523610751877,-589824,88,-56,-1,-1,0
1523610751877,-786432,88,-56,-1,-1,0
1523610751877,-917504,88,-56,-1,-1,0
1523610751877,-1114112,88,-56,-1,-1,0
1523610751877,-1310720,88,-56,-1,-1,0
1523610751917,-1310720,88,-56,-1,-1,0
1523610751917,-1376256,88,-56,-1,-1,0
1523610751917,-1507328,88,-56,-1,-1,0
1523610751917,-1703936,88,-56,-1,-1,0
1523610751917,-1769472,88,-56,-1,-1,0
1523610751957,-1900544,88,-56,-1,-1,0
1523610751957,-1900544,88,-56,-1,-1,0
1523610751957,-1769472,88,-56,-1,-1,0
1523610751957,-1703936,88,-56,-1,-1,0
1523610751957,-1835008,88,-56,-1,-1,0
1523610751997,-2031616,88,-56,-1,-1,0
1523610751997,-2162688,88,-56,-1,-1,0
1523610751997,-2228224,88,-56,-1,-1,0
1523610751997,-2293760,88,-56,-1,-1,0
1523610751997,-2359296,88,-56,-1,-1,0
1523610752037,-2359296,88,-56,-1,-1,0
1523610752037,-2424832,88,-56,-1,-1,0
1523610752037,-2424832,88,-56,-1,-1,0
1523610752037,-2424832,88,-56,-1,-1,0
1523610752037,-2490368,88,-56,-1,-1,0
1523610752077,-2424832,88,-56,-1,-1,0
1523610752077,-1638400,88,-56,-1,-1,0
1523610752077,720896,88,-56,-1,-1,0
1523610752077,5111808,88,-56,-1,-1,0
1523610752077,8257536,88,-56,-1,-1,0
1523610752117,5636096,88,-56,-1,-1,0
1523610752117,-131072,88,-56,-1,-1,0
1523610752117,-3211264,88,-56,-1,-1,0
1523610752117,-2883584,88,-56,-1,-1,0
1523610752117,-2228224,88,-56,-1,-1,0
1523610752157,-2097152,88,-56,-1,-1,0
1523610752157,-2031616,88,-56,-1,-1,0
1523610752157,-1966080,88,-56,-1,-1,0
1523610752157,-1769472,88,-56,-1,-1,0
1523610752157,-1703936,88,-56,-1,-1,0
1523610752197,-1638400,88,-56,-1,-1,0
1523610752197,-1638400,88,-56,-1,-1,0
1523610752197,-1572864,88,-56,-1,-1,0
1523610752197,-1441792,88,-56,-1,-1,0
1523610752197,-1245184,88,-56,-1,-1,0
1523610752237,-1048576,88,-56,-1,-1,0
1523610752237,-851968,88,-56,-1,-1,0
1523610752237,-589824,88,-56,-1,-1,0
1523610752237,-262144,88,-56,-1,-1,0
1523610752237,0,88,-56,-1,-1,0
1523610752277,327680,88,-56,-1,-1,0
1523610752277,655360,88,-56,-1,-1,0
1523610752277,917504,88,-56,-1,-1,0
1523610752277,983040,88,-56,-1,-1,0
1523610752277,983040,88,-56,-1,-1,0
1523610752317,917504,88,-56,-1,-1,0
1523610752317,720896,88,-56,-1,-1,0
1523610752317,393216,88,-56,-1,-1,0
1523610752317,0,88,-56,-1,-1,0
1523610752317,-458752,88,-56,-1,-1,0
1523610752357,-786432,88,-56,-1,-1,0
1523610752357,-1048576,88,-56,-1,-1,0
1523610752357,-1245184,88,-56,-1,-1,0
1523610752357,-1310720,88,-56,-1,-1,0
1523610752357,-1376256,88,-56,-1,-1,0
1523610752397,-1376256,88,-56,-1,-1,0
1523610752397,-1376256,88,-56,-1,-1,0
1523610752397,-1245184,88,-56,-1,-1,0
1523610752397,-1179648,88,-56,-1,-1,0
1523610752397,-1048576,88,-56,-1,-1,0
1523610752437,-983040,88,-56,-1,-1,0
1523610752437,-917504,88,-56,-1,-1,0
1523610752437,-786432,88,-56,-1,-1,0
1523610752437,-720896,88,-56,-1,-1,0
1523610752437,-655360,88,-56,-1,-1,0
1523610752478,-589824,88,-56,-1,-1,0
1523610752478,-458752,88,-56,-1,-1,0
1523610752478,-393216,88,-56,-1,-1,0
1523610752478,-262144,88,-56,-1,-1,0
1523610752478,-131072,88,-56,-1,-1,0
1523610752517,-131072,88,-56,-1,-1,0
1523610752517,-196608,88,-56,-1,-1,0
1523610752517,-196608,88,-56,-1,-1,0
1523610752517,-131072,88,-56,-1,-1,0
1523610752517,-65536,88,-56,-1,-1,0
1523610752557,-131072,88,-56,-1,-1,0
1523610752557,-131072,88,-56,-1,-1,0
1523610752557,-131072,88,-56,-1,-1,0
1523610752557,-131072,88,-56,-1,-1,0
1523610752557,0,88,-56,-1,-1,0
1523610752597,131072,88,-56,-1,-1,0
1523610752597,393216,88,-56,-1,-1,0
1523610752597,589824,88,-56,-1,-1,0
1523610752597,655360,88,-56,-1,-1,0
1523610752597,589824,88,-56,-1,-1,0
1523610752637,458752,88,-56,-1,-1,0
1523610752637,327680,88,-56,-1,-1,0
1523610752637,327680,88,-56,-1,-1,0
1523610752637,327680,88,-56,-1,-1,0
1523610752637,327680,88,-56,-1,-1,0
1523610752677,327680,88,-56,-1,-1,0
1523610752677,393216,88,-56,-1,-1,0
1523610752677,393216,88,-56,-1,-1,0
1523610752677,393216,88,-56,-1,-1,0
1523610752677,458752,88,-56,-1,-1,0
1523610752717,720896,88,-56,-1,-1,0
1523610752717,1835008,88,-56,-1,-1,0
1523610752717,4784128,88,-56,-1,-1,0
1523610752717,9371648,88,-56,-1,-1,0
1523610752717,11665408,88,-56,-1,-1,0
1523610752757,8126464,88,-56,-1,-1,0
1523610752757,2359296,88,-56,-1,-1,0
1523610752757,0,88,-56,-1,-1,0
1523610752757,393216,88,-56,-1,-1,0
1523610752757,786432,88,-56,-1,-1,0
1523610752797,720896,88,-56,-1,-1,0
1523610752797,786432,88,-56,-1,-1,0
1523610752797,851968,88,-56,-1,-1,0
1523610752797,1048576,88,-56,-1,-1,0
1523610752797,1179648,88,-56,-1,-1,0
1523610752837,1310720,88,-56,-1,-1,0
1523610752837,1376256,88,-56,-1,-1,0
1523610752837,1507328,88,-56,-1,-1,0
1523610752837,1572864,88,-56,-1,-1,0
1523610752837,1703936,88,-56,-1,-1,0
1523610752877,1835008,88,-56,-1,-1,0
1523610752877,2097152,88,-56,-1,-1,0
1523610752877,2293760,88,-56,-1,-1,0
1523610752877,2490368,88,-56,-1,-1,0
1523610752877,2752512,88,-56,-1,-1,0
1523610752917,3014656,88,-56,-1,-1,0
1523610752917,3276800,88,-56,-1,-1,0
1523610752917,3407872,88,-56,-1,-1,0
1523610752917,3473408,88,-56,-1,-1,0
1523610752917,3407872,88,-56,-1,-1,0
1523610752957,3211264,88,-56,-1,-1,0
1523610752957,2883584,88,-56,-1,-1,0
1523610752957,2555904,88,-56,-1,-1,0
1523610752957,2097152,88,-56,-1,-1,0
1523610752957,1572864,88,-56,-1,-1,0
1523610752997,983040,88,-56,-1,-1,0
1523610752997,458752,88,-56,-1,-1,0
1523610752997,0,88,-56,-1,-1,0
1523610752997,-131072,88,-56,-1,-1,0
1523610752997,-262144,88,-56,-1,-1,0
1523610753037,-393216,88,-56,-1,-1,0
1523610753037,-589824,88,-56,-1,-1,0
1523610753037,-655360,88,-56,-1,-1,0
1523610753037,-720896,88,-56,-1,-1,0
1523610753037,-786432,88,-56,-1,-1,0
1523610753077,-851968,88,-56,-1,-1,0
1523610753077,-851968,88,-56,-1,-1,0
1523610753077,-917504,88,-56,-1,-1,0
1523610753077,-1048576,88,-56,-1,-1,0
1523610753077,-1179648,88,-56,-1,-1,0
1523610753118,-1376256,88,-56,-1,-1,0
1523610753118,-1507328,88,-56,-1,-1,0
1523610753118,-1572864,88,-56,-1,-1,0
1523610753118,-1638400,88,-56,-1,-1,0
1523610753118,-1638400,88,-56,-1,-1,0
1523610753157,-1769472,88,-56,-1,-1,0
1523610753157,-1769472,88,-56,-1,-1,0
1523610753157,-1769472,88,-56,-1,-1,0
1523610753157,-1835008,88,-56,-1,-1,0
1523610753157,-1900544,88,-56,-1,-1,0
1523610753197,-2031616,88,-56,-1,-1,0
1523610753197,-2162688,88,-56,-1,-1,0
1523610753197,-2162688,88,-56,-1,-1,0
1523610753197,-2097152,88,-56,-1,-1,0
1523610753197,-2031616,88,-56,-1,-1,0
1523610753237,-1966080,88,-56,-1,-1,0
1523610753237,-1835008,88,-56,-1,-1,0
1523610753237,-1769472,88,-56,-1,-1,0
1523610753237,-1835008,88,-56,-1,-1,0
1523610753237,-1966080,88,-56,-1,-1,0
1523610753277,-2031616,88,-56,-1,-1,0
1523610753277,-2031616,88,-56,-1,-1,0
1523610753277,-2031616,88,-56,-1,-1,0
1523610753277,-2031616,88,-56,-1,-1,0
1523610753277,-2031616,88,-56,-1,-1,0
1523610753317,-2097152,88,-56,-1,-1,0
1523610753317,-2031616,88,-56,-1,-1,0
1523610753317,-2031616,88,-56,-1,-1,0
1523610753317,-2097152,88,-56,-1,-1,0
1523610753317,-1900544,88,-56,-1,-1,0
1523610753357,-1048576,88,-56,-1,-1,0
1523610753357,1376256,88,-56,-1,-1,0
1523610753357,5767168,88,-56,-1,-1,0
1523610753357,8650752,88,-56,-1,-1,0
1523610753357,5832704,88,-56,-1,-1,0
1523610753397,65536,88,-56,-1,-1,0
1523610753397,-2752512,88,-56,-1,-1,0
1523610753397,-2359296,88,-56,-1,-1,0
1523610753397,-1769472,88,-56,-1,-1,0
1523610753397,-1638400,88,-56,-1,-1,0
1523610753437,-1572864,88,-56,-1,-1,0
1523610753437,-1638400,88,-56,-1,-1,0
1523610753437,-1507328,88,-56,-1,-1,0
1523610753437,-1441792,88,-56,-1,-1,0
1523610753437,-1245184,88,-56,-1,-1,0
1523610753477,-1179648,88,-56,-1,-1,0
1523610753477,-1179648,88,-56,-1,-1,0
1523610753477,-1114112,88,-56,-1,-1,0
1523610753477,-917504,88,-56,-1,-1,0
1523610753477,-720896,88,-56,-1,-1,0
1523610753517,-524288,88,-56,-1,-1,0
1523610753517,-393216,88,-56,-1,-1,0
1523610753517,-65536,88,-56,-1,-1,0
1523610753517,262144,88,-56,-1,-1,0
1523610753517,655360,88,-56,-1,-1,0
1523610753557,983040,88,-56,-1,-1,0
1523610753557,1310720,88,-56,-1,-1,0
1523610753557,1441792,88,-56,-1,-1,0
1523610753557,1507328,88,-56,-1,-1,0
1523610753557,1441792,88,-56,-1,-1,0
1523610753597,1310720,88,-56,-1,-1,0
1523610753597,1048576,88,-56,-1,-1,0
1523610753597,589824,88,-56,-1,-1,0
1523610753597,131072,88,-56,-1,-1,0
1523610753597,-131072,88,-56,-1,-1,0
1523610753637,-458752,88,-56,-1,-1,0
1523610753637,-589824,88,-56,-1,-1,0
1523610753637,-589824,88,-56,-1,-1,0
1523610753637,-524288,88,-56,-1,-1,0
1523610753637,-524288,88,-56,-1,-1,0
1523610753677,-458752,88,-56,-1,-1,0
1523610753677,-393216,88,-56,-1,-1,0
1523610753677,-262144,88,-56,-1,-1,0
1523610753677,-196608,88,-56,-1,-1,0
1523610753677,-131072,88,-56,-1,-1,0
1523610753717,-65536,88,-56,-1,-1,0
1523610753717,0,88,-56,-1,-1,0
1523610753717,65536,88,-56,-1,-1,0
1523610753717,65536,88,-56,-1,-1,0
1523610753717,65536,88,-56,-1,-1,0
1523610753758,65536,88,-56,-1,-1,0
1523610753758,131072,88,-56,-1,-1,0
1523610753758,196608,88,-56,-1,-1,0
1523610753758,196608,88,-56,-1,-1,0
1523610753758,196608,88,-56,-1,-1,0
1523610753797,196608,88,-56,-1,-1,0
1523610753797,196608,88,-56,-1,-1,0
1523610753797,131072,88,-56,-1,-1,0
1523610753797,65536,88,-56,-1,-1,0
1523610753797,0,88,-56,-1,-1,0
1523610753837,0,88,-56,-1,-1,0
1523610753837,0,88,-56,-1,-1,0
1523610753837,0,88,-56,-1,-1,0
1523610753837,0,88,-56,-1,-1,0
1523610753837,262144,88,-56,-1,-1,0
1523610753877,393216,88,-56,-1,-1,0
1523610753877,393216,88,-56,-1,-1,0
1523610753877,262144,88,-56,-1,-1,0
1523610753877,131072,88,-56,-1,-1,0
1523610753877,65536,88,-56,-1,-1,0
1523610753917,131072,88,-56,-1,-1,0
1523610753917,131072,88,-56,-1,-1,0
1523610753917,131072,88,-56,-1,-1,0
1523610753917,131072,88,-56,-1,-1,0
1523610753917,65536,88,-56,-1,-1,0
1523610753957,0,88,-56,-1,-1,0
1523610753957,0,88,-56,-1,-1,0
1523610753957,0,88,-56,-1,-1,0
1523610753957,589824,88,-56,-1,-1,0
1523610753957,2883584,88,-56,-1,-1,0
1523610753997,7340032,88,-56,-1,-1,0
1523610753997,11075584,88,-56,-1,-1,0
1523610753997,8978432,88,-56,-1,-1,0
1523610753997,2949120,88,-56,-1,-1,0
1523610753997,-720896,88,-56,-1,-1,0
1523610754037,-589824,88,-56,-1,-1,0
1523610754037,0,88,-56,-1,-1,0
1523610754037,65536,88,-56,-1,-1,0
1523610754037,131072,88,-56,-1,-1,0
1523610754037,65536,88,-56,-1,-1,0
1523610754077,0,88,-56,-1,-1,0
1523610754077,0,88,-56,-1,-1,0
1523610754077,0,88,-56,-1,-1,0
1523610754077,0,88,-56,-1,-1,0
1523610754077,65536,88,-56,-1,-1,0
1523610754117,196608,88,-56,-1,-1,0
1523610754117,262144,88,-56,-1,-1,0
1523610754117,327680,88,-56,-1,-1,0
1523610754117,458752,88,-56,-1,-1,0
1523610754117,589824,88,-56,-1,-1,0
1523610754158,720896,88,-56,-1,-1,0
1523610754158,983040,88,-56,-1,-1,0
1523610754158,1179648,88,-56,-1,-1,0
1523610754158,1441792,88,-56,-1,-1,0
1523610754158,1572864,88,-56,-1,-1,0
1523610754197,1638400,88,-56,-1,-1,0
1523610754197,1572864,88,-56,-1,-1,0
1523610754197,1376256,88,-56,-1,-1,0
1523610754197,1114112,88,-56,-1,-1,0
1523610754197,720896,88,-56,-1,-1,0
1523610754237,196608,88,-56,-1,-1,0
1523610754237,-196608,88,-56,-1,-1,0
1523610754237,-589824,88,-56,-1,-1,0
1523610754237,-917504,88,-56,-1,-1,0
1523610754237,-1179648,88,-56,-1,-1,0
1523610754277,-1310720,88,-56,-1,-1,0
1523610754277,-1441792,88,-56,-1,-1,0
1523610754277,-1507328,88,-56,-1,-1,0
1523610754277,-1572864,88,-56,-1,-1,0
1523610754277,-1572864,88,-56,-1,-1,0
1523610754317,-1638400,88,-56,-1,-1,0
1523610754317,-1572864,88,-56,-1,-1,0
1523610754317,-1572864,88,-56,-1,-1,0
1523610754317,-1638400,88,-56,-1,-1,0
1523610754317,-1638400,88,-56,-1,-1,0
1523610754357,-1638400,88,-56,-1,-1,0
1523610754357,-1638400,88,-56,-1,-1,0
1523610754357,-1638400,88,-56,-1,-1,0
1523610754357,-1703936,88,-56,-1,-1,0
1523610754357,-1769472,88,-56,-1,-1,0
1523610754398,-1769472,88,-56,-1,-1,0
1523610754398,-1835008,88,-56,-1,-1,0
1523610754398,-1769472,88,-56,-1,-1,0
1523610754398,-1769472,88,-56,-1,-1,0
1523610754398,-1769472,88,-56,-1,-1,0
1523610754437,-1769472,88,-56,-1,-1,0
1523610754437,-1769472,88,-56,-1,-1,0
1523610754437,-1703936,88,-56,-1,-1,0
1523610754437,-1703936,88,-56,-1,-1,0
1523610754437,-1835008,88,-56,-1,-1,0
1523610754477,-1835008,88,-56,-1,-1,0
1523610754477,-1703936,88,-56,-1,-1,0
1523610754477,-1572864,88,-56,-1,-1,0
1523610754477,-1376256,88,-56,-1,-1,0
1523610754477,-1179648,88,-56,-1,-1,0
1523610754517,-1114112,88,-56,-1,-1,0
1523610754517,-1179648,88,-56,-1,-1,0
1523610754517,-1310720,88,-56,-1,-1,0
1523610754517,-1376256,88,-56,-1,-1,0
1523610754517,-1441792,88,-56,-1,-1,0
1523610754557,-1507328,89,-56,-1,-1,0
1523610754557,-1441792,89,-56,-1,-1,0
1523610754557,-1441792,89,-56,-1,-1,0
1523610754557,-1507328,89,-56,-1,-1,0
1523610754557,-1507328,89,-56,-1,-1,0
1523610754597,-1507328,89,-56,-1,-1,0
1523610754597,-1441792,89,-56,-1,-1,0
1523610754597,-1114112,89,-56,-1,-1,0
1523610754597,262144,89,-56,-1,-1,0
1523610754597,3473408,89,-56,-1,-1,0
1523610754637,7995392,89,-56,-1,-1,0
1523610754637,9175040,89,-56,-1,-1,0
1523610754637,4718592,89,-56,-1,-1,0
1523610754637,-458752,89,-56,-1,-1,0
1523610754637,-2031616,89,-56,-1,-1,0
1523610754677,-1507328,89,-56,-1,-1,0
1523610754677,-1245184,89,-56,-1,-1,0
1523610754677,-1310720,89,-56,-1,-1,0
1523610754677,-1310720,89,-56,-1,-1,0
1523610754677,-1245184,89,-56,-1,-1,0
1523610754717,-1114112,89,-56,-1,-1,0
1523610754717,-983040,89,-56,-1,-1,0
1523610754717,-851968,89,-56,-1,-1,0
1523610754717,-655360,89,-56,-1,-1,0
1523610754717,-524288,89,-56,-1,-1,0
1523610754758,-393216,89,-56,-1,-1,0
1523610754758,-196608,89,-56,-1,-1,0
1523610754758,0,89,-56,-1,-1,0
1523610754758,196608,89,-56,-1,-1,0
1523610754758,524288,89,-56,-1,-1,0
1523610754797,851968,89,-56,-1,-1,0
1523610754797,1179648,89,-56,-1,-1,0
1523610754797,1441792,89,-56,-1,-1,0
1523610754797,1769472,89,-56,-1,-1,0
1523610754797,1966080,89,-56,-1,-1,0
1523610754837,2031616,89,-56,-1,-1,0
1523610754837,2031616,89,-56,-1,-1,0
1523610754837,2031616,89,-56,-1,-1,0
1523610754837,1900544,89,-56,-1,-1,0
1523610754837,1572864,89,-56,-1,-1,0
1523610754877,1179648,89,-56,-1,-1,0
1523610754877,720896,89,-56,-1,-1,0
1523610754877,393216,89,-56,-1,-1,0
1523610754877,196608,89,-56,-1,-1,0
1523610754877,65536,89,-56,-1,-1,0
1523610754917,0,89,-56,-1,-1,0
1523610754917,0,89,-56,-1,-1,0
1523610754917,0,89,-56,-1,-1,0
1523610754917,0,89,-56,-1,-1,0
1523610754917,0,89,-56,-1,-1,0
1523610754957,0,89,-56,-1,-1,0
1523610754957,65536,89,-56,-1,-1,0
1523610754957,131072,89,-56,-1,-1,0
1523610754957,196608,89,-56,-1,-1,0
1523610754957,196608,89,-56,-1,-1,0
1523610754997,196608,89,-56,-1,-1,0
1523610754997,196608,89,-56,-1,-1,0
1523610754997,131072,89,-56,-1,-1,0
1523610754997,65536,89,-56,-1,-1,0
1523610754997,131072,89,-56,-1,-1,0
1523610755039,131072,89,-56,-1,-1,0
1523610755039,196608,89,-56,-1,-1,0
1523610755039,196608,89,-56,-1,-1,0
1523610755039,196608,89,-56,-1,-1,0
1523610755039,196608,89,-56,-1,-1,0
1523610755077,131072,89,-56,-1,-1,0
1523610755077,131072,89,-56,-1,-1,0
1523610755077,0,89,-56,-1,-1,0
1523610755077,-131072,89,-56,-1,-1,0
1523610755077,-196608,89,-56,-1,-1,0
1523610755117,-131072,89,-56,-1,-1,0
1523610755117,-131072,89,-56,-1,-1,0
1523610755117,-131072,89,-56,-1,-1,0
1523610755117,0,89,-56,-1,-1,0
1523610755117,131072,89,-56,-1,-1,0
1523610755157,65536,89,-56,-1,-1,0
1523610755157,-131072,89,-56,-1,-1,0
1523610755157,-393216,89,-56,-1,-1,0
1523610755157,-589824,89,-56,-1,-1,0
1523610755157,-524288,89,-56,-1,-1,0
1523610755197,-524288,90,-56,-1,-1,0
1523610755197,-524288,90,-56,-1,-1,0
1523610755197,-655360,90,-56,-1,-1,0
1523610755197,-786432,90,-56,-1,-1,0
1523610755197,-917504,90,-56,-1,-1,0
1523610755237,-1048576,90,-56,-1,-1,0
1523610755237,-1114112,90,-56,-1,-1,0
1523610755237,-851968,90,-56,-1,-1,0
1523610755237,458752,90,-56,-1,-1,0
1523610755237,3801088,90,-56,-1,-1,0
1523610755277,8257536,90,-56,-1,-1,0
1523610755277,8978432,90,-56,-1,-1,0
1523610755277,4063232,90,-56,-1,-1,0
1523610755277,-983040,90,-56,-1,-1,0
1523610755277,-2097152,90,-56,-1,-1,0
1523610755317,-1507328,90,-56,-1,-1,0
1523610755317,-1245184,90,-56,-1,-1,0
1523610755317,-1245184,90,-56,-1,-1,0
1523610755317,-1310720,90,-56,-1,-1,0
1523610755317,-1376256,90,-56,-1,-1,0
1523610755357,-1441792,90,-56,-1,-1,0
1523610755357,-1376256,90,-56,-1,-1,0
1523610755357,-1310720,90,-56,-1,-1,0
1523610755357,-1310720,90,-56,-1,-1,0
1523610755357,-1245184,90,-56,-1,-1,0
1523610755397,-1114112,90,-56,-1,-1,0
1523610755397,-983040,90,-56,-1,-1,0
1523610755397,-786432,90,-56,-1,-1,0
1523610755397,-589824,90,-56,-1,-1,0
1523610755397,-327680,90,-56,-1,-1,0
1523610755437,-65536,90,-56,-1,-1,0
1523610755437,196608,90,-56,-1,-1,0
1523610755437,524288,90,-56,-1,-1,0
1523610755437,720896,90,-56,-1,-1,0
1523610755437,917504,90,-56,-1,-1,0
1523610755477,983040,90,-56,-1,-1,0
1523610755477,983040,90,-56,-1,-1,0
1523610755477,851968,90,-56,-1,-1,0
1523610755477,589824,90,-56,-1,-1,0
1523610755477,196608,90,-56,-1,-1,0
1523610755517,-262144,90,-56,-1,-1,0
1523610755517,-655360,90,-56,-1,-1,0
1523610755517,-917504,90,-56,-1,-1,0
1523610755517,-1179648,90,-56,-1,-1,0
1523610755517,-1376256,90,-56,-1,-1,0
1523610755557,-1441792,90,-56,-1,-1,0
1523610755557,-1441792,90,-56,-1,-1,0
1523610755557,-1441792,90,-56,-1,-1,0
1523610755557,-1441792,90,-56,-1,-1,0
1523610755557,-1376256,90,-56,-1,-1,0
1523610755597,-1376256,90,-56,-1,-1,0
1523610755597,-1310720,90,-56,-1,-1,0
1523610755597,-1245184,90,-56,-1,-1,0
1523610755597,-1114112,90,-56,-1,-1,0
1523610755597,-1048576,90,-56,-1,-1,0
1523610755637,-1048576,90,-56,-1,-1,0
1523610755637,-1048576,90,-56,-1,-1,0
1523610755637,-1048576,90,-56,-1,-1,0
1523610755637,-983040,90,-56,-1,-1,0
1523610755637,-983040,90,-56,-1,-1,0
1523610755678,-1048576,90,-56,-1,-1,0
1523610755678,-1114112,90,-56,-1,-1,0
1523610755678,-1114112,90,-56,-1,-1,0
1523610755678,-1048576,90,-56,-1,-1,0
1523610755678,-983040,90,-56,-1,-1,0
1523610755717,-917504,90,-56,-1,-1,0
1523610755717,-917504,90,-56,-1,-1,0
1523610755717,-1048576,90,-56,-1,-1,0
1523610755717,-1114112,90,-56,-1,-1,0
1523610755717,-1048576,90,-56,-1,-1,0
1523610755757,-917504,90,-56,-1,-1,0
1523610755757,-786432,90,-56,-1,-1,0
1523610755757,-589824,90,-56,-1,-1,0
1523610755757,-458752,90,-56,-1,-1,0
1523610755757,-458752,90,-56,-1,-1,0
1523610755797,-589824,90,-56,-1,-1,0
1523610755797,-720896,90,-56,-1,-1,0
1523610755797,-720896,90,-56,-1,-1,0
1523610755797,-655360,90,-56,-1,-1,0
1523610755797,-589824,90,-56,-1,-1,0
1523610755837,-524288,90,-56,-1,-1,0
1523610755837,-524288,90,-56,-1,-1,0
1523610755837,-458752,90,-56,-1,-1,0
1523610755837,-393216,90,-56,-1,-1,0
1523610755837,-458752,90,-56,-1,-1,0
1523610755877,-458752,90,-56,-1,-1,0
1523610755877,0,90,-56,-1,-1,0
1523610755877,1835008,90,-56,-1,-1,0
1523610755877,5767168,90,-56,-1,-1,0
1523610755877,10551296,90,-56,-1,-1,0
1523610755917,10616832,90,-56,-1,-1,0
1523610755917,5177344,90,-56,-1,-1,0
1523610755917,131072,90,-56,-1,-1,0
1523610755917,-589824,90,-56,-1,-1,0
1523610755917,65536,90,-56,-1,-1,0
1523610755957,393216,90,-56,-1,-1,0
1523610755957,458752,90,-56,-1,-1,0
1523610755957,458752,90,-56,-1,-1,0
1523610755957,524288,90,-56,-1,-1,0
1523610755957,524288,90,-56,-1,-1,0
1523610755997,524288,90,-56,-1,-1,0
1523610755997,589824,90,-56,-1,-1,0
1523610755997,589824,90,-56,-1,-1,0
1523610755997,655360,90,-56,-1,-1,0
1523610755997,786432,90,-56,-1,-1,0
1523610756037,917504,90,-56,-1,-1,0
1523610756037,1048576,90,-56,-1,-1,0
1523610756037,1245184,90,-56,-1,-1,0
1523610756037,1507328,90,-56,-1,-1,0
1523610756037,1835008,90,-56,-1,-1,0
1523610756077,2162688,90,-56,-1,-1,0
1523610756077,2424832,90,-56,-1,-1,0
1523610756077,2621440,90,-56,-1,-1,0
1523610756077,2752512,90,-56,-1,-1,0
1523610756077,2752512,90,-56,-1,-1,0
1523610756117,2686976,90,-56,-1,-1,0
1523610756117,2424832,90,-56,-1,-1,0
1523610756117,2162688,90,-56,-1,-1,0
1523610756117,1703936,90,-56,-1,-1,0
1523610756117,1179648,90,-56,-1,-1,0
1523610756157,720896,90,-56,-1,-1,0
1523610756157,393216,90,-56,-1,-1,0
1523610756157,196608,90,-56,-1,-1,0
1523610756157,-65536,90,-56,-1,-1,0
1523610756157,-327680,90,-56,-1,-1,0
1523610756197,-458752,90,-56,-1,-1,0
1523610756197,-524288,90,-56,-1,-1,0
1523610756197,-589824,90,-56,-1,-1,0
1523610756197,-655360,90,-56,-1,-1,0
1523610756197,-655360,90,-56,-1,-1,0
1523610756237,-720896,90,-56,-1,-1,0
1523610756237,-786432,90,-56,-1,-1,0
1523610756237,-917504,90,-56,-1,-1,0
1523610756237,-983040,90,-56,-1,-1,0
1523610756237,-1114112,90,-56,-1,-1,0
1523610756277,-1179648,90,-56,-1,-1,0
1523610756277,-1245184,90,-56,-1,-1,0
1523610756277,-1376256,90,-56,-1,-1,0
1523610756277,-1572864,90,-56,-1,-1,0
1523610756277,-1638400,90,-56,-1,-1,0
1523610756318,-1703936,90,-56,-1,-1,0
1523610756318,-1769472,90,-56,-1,-1,0
1523610756318,-1835008,90,-56,-1,-1,0
1523610756318,-1900544,90,-56,-1,-1,0
1523610756318,-1966080,90,-56,-1,-1,0
1523610756357,-2097152,90,-56,-1,-1,0
1523610756357,-2293760,90,-56,-1,-1,0
1523610756357,-2424832,90,-56,-1,-1,0
1523610756357,-2490368,90,-56,-1,-1,0
1523610756357,-2424832,90,-56,-1,-1,0
1523610756397,-2359296,90,-56,-1,-1,0
1523610756397,-2162688,90,-56,-1,-1,0
1523610756397,-2031616,90,-56,-1,-1,0
1523610756397,-1966080,90,-56,-1,-1,0
1523610756397,-2097152,90,-56,-1,-1,0
1523610756437,-2228224,90,-56,-1,-1,0
1523610756437,-2293760,90,-56,-1,-1,0
1523610756437,-2293760,90,-56,-1,-1,0
1523610756437,-2424832,90,-56,-1,-1,0
1523610756437,-2490368,90,-56,-1,-1,0
1523610756477,-2490368,92,-56,-1,-1,0
1523610756477,-2424832,92,-56,-1,-1,0
1523610756477,-2424832,92,-56,-1,-1,0
1523610756477,-2424832,92,-56,-1,-1,0
1523610756477,-2424832,92,-56,-1,-1,0
1523610756517,-2162688,92,-56,-1,-1,0
1523610756517,-983040,92,-56,-1,-1,0
1523610756517,1966080,92,-56,-1,-1,0
1523610756517,6553600,92,-56,-1,-1,0
1523610756517,8585216,92,-56,-1,-1,0
1523610756557,4718592,92,-56,-1,-1,0
1523610756557,-720896,92,-56,-1,-1,0
1523610756557,-2686976,92,-56,-1,-1,0
1523610756557,-2097152,92,-56,-1,-1,0
1523610756557,-1703936,92,-56,-1,-1,0
1523610756597,-1638400,92,-56,-1,-1,0
1523610756597,-1638400,92,-56,-1,-1,0
1523610756597,-1572864,92,-56,-1,-1,0
1523610756597,-1507328,92,-56,-1,-1,0
1523610756597,-1376256,92,-56,-1,-1,0
1523610756637,-1179648,92,-56,-1,-1,0
1523610756637,-1048576,92,-56,-1,-1,0
1523610756637,-917504,92,-56,-1,-1,0
1523610756637,-786432,92,-56,-1,-1,0
1523610756637,-524288,92,-56,-1,-1,0
1523610756677,-327680,92,-56,-1,-1,0
1523610756677,-131072,92,-56,-1,-1,0
1523610756677,0,92,-56,-1,-1,0
1523610756677,327680,92,-56,-1,-1,0
1523610756677,655360,92,-56,-1,-1,0
1523610756717,917504,92,-56,-1,-1,0
1523610756717,1245184,92,-56,-1,-1,0
1523610756717,1441792,92,-56,-1,-1,0
1523610756717,1507328,92,-56,-1,-1,0
1523610756717,1572864,92,-56,-1,-1,0
1523610756757,1441792,92,-56,-1,-1,0
1523610756757,1179648,92,-56,-1,-1,0
1523610756757,851968,92,-56,-1,-1,0
1523610756757,458752,92,-56,-1,-1,0
1523610756757,131072,92,-56,-1,-1,0
1523610756797,-131072,92,-56,-1,-1,0
1523610756797,-393216,92,-56,-1,-1,0
1523610756797,-589824,92,-56,-1,-1,0
1523610756797,-589824,92,-56,-1,-1,0
1523610756797,-589824,92,-56,-1,-1,0
1523610756837,-589824,92,-56,-1,-1,0
1523610756837,-524288,92,-56,-1,-1,0
1523610756837,-458752,92,-56,-1,-1,0
1523610756837,-327680,92,-56,-1,-1,0
1523610756837,-196608,92,-56,-1,-1,0
1523610756877,-131072,92,-56,-1,-1,0
1523610756877,-131072,92,-56,-1,-1,0
1523610756877,-65536,92,-56,-1,-1,0
1523610756877,0,92,-56,-1,-1,0
1523610756877,65536,92,-56,-1,-1,0
1523610756917,131072,92,-56,-1,-1,0
1523610756917,131072,92,-56,-1,-1,0
1523610756917,196608,92,-56,-1,-1,0
1523610756917,196608,92,-56,-1,-1,0
1523610756917,131072,92,-56,-1,-1,0
1523610756958,131072,92,-56,-1,-1,0
1523610756958,196608,92,-56,-1,-1,0
1523610756958,196608,92,-56,-1,-1,0
1523610756958,196608,92,-56,-1,-1,0
1523610756958,262144,92,-56,-1,-1,0
1523610756997,327680,92,-56,-1,-1,0
1523610756997,262144,92,-56,-1,-1,0
1523610756997,196608,92,-56,-1,-1,0
1523610756997,131072,92,-56,-1,-1,0
1523610756997,131072,92,-56,-1,-1,0
1523610757037,196608,92,-56,-1,-1,0
1523610757037,393216,92,-56,-1,-1,0
1523610757037,458752,92,-56,-1,-1,0
1523610757037,589824,92,-56,-1,-1,0
1523610757037,720896,92,-56,-1,-1,0
1523610757077,655360,92,-56,-1,-1,0
1523610757077,458752,92,-56,-1,-1,0
1523610757077,262144,92,-56,-1,-1,0
1523610757077,196608,92,-56,-1,-1,0
1523610757077,196608,92,-56,-1,-1,0
1523610757117,196608,92,-56,-1,-1,0
1523610757117,196608,92,-56,-1,-1,0
1523610757117,196608,92,-56,-1,-1,0
1523610757117,196608,92,-56,-1,-1,0
1523610757117,196608,92,-56,-1,-1,0
1523610757157,131072,92,-56,-1,-1,0
1523610757157,0,92,-56,-1,-1,0
1523610757157,196608,92,-56,-1,-1,0
1523610757157,1245184,92,-56,-1,-1,0
1523610757157,4128768,92,-56,-1,-1,0
1523610757197,8585216,92,-56,-1,-1,0
1523610757197,10289152,92,-56,-1,-1,0
1523610757197,6225920,92,-56,-1,-1,0
1523610757197,458752,92,-56,-1,-1,0
1523610757197,-1572864,92,-56,-1,-1,0
1523610757237,-1114112,92,-56,-1,-1,0
1523610757237,-720896,92,-56,-1,-1,0
1523610757237,-720896,92,-56,-1,-1,0
1523610757237,-720896,92,-56,-1,-1,0
1523610757237,-720896,92,-56,-1,-1,0
1523610757277,-655360,92,-56,-1,-1,0
1523610757277,-655360,92,-56,-1,-1,0
1523610757277,-589824,92,-56,-1,-1,0
1523610757277,-458752,92,-56,-1,-1,0
1523610757277,-327680,92,-56,-1,-1,0
1523610757317,-262144,92,-56,-1,-1,0
1523610757317,-131072,92,-56,-1,-1,0
1523610757317,0,92,-56,-1,-1,0
1523610757317,131072,92,-56,-1,-1,0
1523610757317,262144,92,-56,-1,-1,0
1523610757357,524288,92,-56,-1,-1,0
1523610757357,720896,92,-56,-1,-1,0
1523610757357,983040,92,-56,-1,-1,0
1523610757357,1179648,92,-56,-1,-1,0
1523610757357,1310720,92,-56,-1,-1,0
1523610757397,1310720,92,-56,-1,-1,0
1523610757397,1179648,92,-56,-1,-1,0
1523610757397,983040,92,-56,-1,-1,0
1523610757397,720896,92,-56,-1,-1,0
1523610757397,327680,92,-56,-1,-1,0
1523610757437,-65536,92,-56,-1,-1,0
1523610757437,-524288,92,-56,-1,-1,0
1523610757437,-851968,92,-56,-1,-1,0
1523610757437,-1179648,92,-56,-1,-1,0
1523610757437,-1441792,92,-56,-1,-1,0
1523610757477,-1572864,92,-56,-1,-1,0
1523610757477,-1703936,92,-56,-1,-1,0
1523610757477,-1638400,92,-56,-1,-1,0
1523610757477,-1638400,92,-56,-1,-1,0
1523610757477,-1572864,92,-56,-1,-1,0
1523610757517,-1507328,92,-56,-1,-1,0
1523610757517,-1441792,92,-56,-1,-1,0
1523610757517,-1310720,92,-56,-1,-1,0
1523610757517,-1310720,92,-56,-1,-1,0
1523610757517,-1310720,92,-56,-1,-1,0
1523610757557,-1245184,92,-56,-1,-1,0
1523610757557,-1245184,92,-56,-1,-1,0
1523610757557,-1245184,92,-56,-1,-1,0
1523610757557,-1310720,92,-56,-1,-1,0
1523610757557,-1376256,92,-56,-1,-1,0
1523610757598,-1441792,92,-56,-1,-1,0
1523610757598,-1441792,92,-56,-1,-1,0
1523610757598,-1441792,92,-56,-1,-1,0
1523610757598,-1376256,92,-56,-1,-1,0
1523610757598,-1245184,92,-56,-1,-1,0
1523610757637,-1179648,92,-56,-1,-1,0
1523610757637,-1245184,92,-56,-1,-1,0
1523610757637,-1310720,92,-56,-1,-1,0
1523610757637,-1310720,92,-56,-1,-1,0
1523610757637,-1376256,92,-56,-1,-1,0
1523610757677,-1441792,92,-56,-1,-1,0
1523610757677,-1441792,92,-56,-1,-1,0
1523610757677,-1376256,92,-56,-1,-1,0
1523610757677,-1310720,92,-56,-1,-1,0
1523610757677,-1245184,92,-56,-1,-1,0
1523610757717,-1048576,92,-56,-1,-1,0
1523610757717,-851968,92,-56,-1,-1,0
1523610757717,-917504,92,-56,-1,-1,0
1523610757717,-983040,92,-56,-1,-1,0
1523610757717,-983040,92,-56,-1,-1,0
1523610757757,-917504,93,-56,-1,-1,0
1523610757757,-917504,93,-56,-1,-1,0
1523610757757,-851968,93,-56,-1,-1,0
1523610757757,-786432,93,-56,-1,-1,0
1523610757757,-786432,93,-56,-1,-1,0
1523610757797,-786432,93,-56,-1,-1,0
1523610757797,-720896,93,-56,-1,-1,0
1523610757797,-589824,93,-56,-1,-1,0
1523610757797,-262144,93,-56,-1,-1,0
1523610757797,786432,93,-56,-1,-1,0
1523610757837,3735552,93,-56,-1,-1,0
1523610757837,8585216,93,-56,-1,-1,0
1523610757837,11403264,93,-56,-1,-1,0
1523610757837,7929856,93,-56,-1,-1,0
1523610757837,1835008,93,-56,-1,-1,0
1523610757877,-851968,93,-56,-1,-1,0
1523610757877,-327680,93,-56,-1,-1,0
1523610757877,196608,93,-56,-1,-1,0
1523610757877,262144,93,-56,-1,-1,0
1523610757877,262144,93,-56,-1,-1,0
1523610757917,327680,93,-56,-1,-1,0
1523610757917,393216,93,-56,-1,-1,0
1523610757917,393216,93,-56,-1,-1,0
1523610757917,524288,93,-56,-1,-1,0
1523610757917,589824,93,-56,-1,-1,0
1523610757957,589824,93,-56,-1,-1,0
1523610757957,524288,93,-56,-1,-1,0
1523610757957,655360,93,-56,-1,-1,0
1523610757957,851968,93,-56,-1,-1,0
1523610757957,1048576,93,-56,-1,-1,0
1523610757997,1310720,93,-56,-1,-1,0
1523610757997,1638400,93,-56,-1,-1,0
1523610757997,1900544,93,-56,-1,-1,0
1523610757997,2228224,93,-56,-1,-1,0
1523610757997,2555904,93,-56,-1,-1,0
1523610758037,2818048,93,-56,-1,-1,0
1523610758037,2883584,93,-56,-1,-1,0
1523610758037,2818048,93,-56,-1,-1,0
1523610758037,2621440,93,-56,-1,-1,0
1523610758037,2359296,93,-56,-1,-1,0
1523610758077,1966080,93,-56,-1,-1,0
1523610758077,1441792,93,-56,-1,-1,0
1523610758077,917504,93,-56,-1,-1,0
1523610758077,393216,93,-56,-1,-1,0
1523610758077,65536,93,-56,-1,-1,0
1523610758117,0,93,-56,-1,-1,0
1523610758117,-65536,93,-56,-1,-1,0
1523610758117,-196608,93,-56,-1,-1,0
1523610758117,-262144,93,-56,-1,-1,0
1523610758117,-327680,93,-56,-1,-1,0
1523610758157,-393216,93,-56,-1,-1,0
1523610758157,-458752,93,-56,-1,-1,0
1523610758157,-458752,93,-56,-1,-1,0
1523610758157,-458752,93,-56,-1,-1,0
1523610758157,-524288,93,-56,-1,-1,0
1523610758197,-524288,93,-56,-1,-1,0
1523610758197,-720896,93,-56,-1,-1,0
1523610758197,-917504,93,-56,-1,-1,0
1523610758197,-983040,93,-56,-1,-1,0
1523610758197,-1048576,93,-56,-1,-1,0
1523610758238,-1114112,93,-56,-1,-1,0
1523610758238,-1245184,93,-56,-1,-1,0
1523610758238,-1376256,93,-56,-1,-1,0
1523610758238,-1441792,93,-56,-1,-1,0
1523610758238,-1507328,93,-56,-1,-1,0
1523610758277,-1572864,93,-56,-1,-1,0
1523610758277,-1638400,93,-56,-1,-1,0
1523610758277,-1703936,93,-56,-1,-1,0
1523610758277,-1835008,93,-56,-1,-1,0
1523610758277,-1966080,93,-56,-1,-1,0
1523610758317,-2162688,93,-56,-1,-1,0
1523610758317,-2228224,93,-56,-1,-1,0
1523610758317,-2228224,93,-56,-1,-1,0
1523610758317,-2162688,93,-56,-1,-1,0
1523610758317,-2031616,93,-56,-1,-1,0
1523610758357,-1835008,93,-56,-1,-1,0
1523610758357,-1703936,93,-56,-1,-1,0
1523610758357,-1703936,93,-56,-1,-1,0
1523610758357,-1703936,93,-56,-1,-1,0
1523610758357,-1835008,93,-56,-1,-1,0
1523610758397,-1835008,93,-56,-1,-1,0
1523610758397,-1835008,93,-56,-1,-1,0
1523610758397,-1835008,93,-56,-1,-1,0
1523610758397,-1835008,93,-56,-1,-1,0
1523610758397,-1900544,93,-56,-1,-1,0
1523610758437,-2097152,93,-56,-1,-1,0
1523610758437,-2162688,93,-56,-1,-1,0
1523610758437,-2293760,93,-56,-1,-1,0
1523610758437,-2293760,93,-56,-1,-1,0
1523610758437,-1703936,93,-56,-1,-1,0
1523610758477,524288,93,-56,-1,-1,0
1523610758477,4718592,93,-56,-1,-1,0
1523610758477,8388608,93,-56,-1,-1,0
1523610758477,6619136,93,-56,-1,-1,0
1523610758477,655360,93,-56,-1,-1,0
1523610758517,-3276800,93,-56,-1,-1,0
1523610758517,-3342336,93,-56,-1,-1,0
1523610758517,-2818048,93,-56,-1,-1,0
1523610758517,-2818048,93,-56,-1,-1,0
1523610758517,-2818048,93,-56,-1,-1,0
1523610758557,-2883584,93,-56,-1,-1,0
1523610758557,-2818048,93,-56,-1,-1,0
1523610758557,-2883584,93,-56,-1,-1,0
1523610758557,-2818048,93,-56,-1,-1,0
1523610758557,-2752512,93,-56,-1,-1,0
1523610758597,-2621440,93,-56,-1,-1,0
1523610758597,-2555904,93,-56,-1,-1,0
1523610758597,-2359296,93,-56,-1,-1,0
1523610758597,-2097152,93,-56,-1,-1,0
1523610758597,-1703936,93,-56,-1,-1,0
1523610758637,-1245184,93,-56,-1,-1,0
1523610758637,-720896,93,-56,-1,-1,0
1523610758637,-196608,93,-56,-1,-1,0
1523610758637,65536,93,-56,-1,-1,0
1523610758637,393216,93,-56,-1,-1,0
1523610758677,589824,93,-56,-1,-1,0
1523610758677,720896,93,-56,-1,-1,0
1523610758677,786432,93,-56,-1,-1,0
1523610758677,917504,93,-56,-1,-1,0
1523610758677,851968,93,-56,-1,-1,0
1523610758717,655360,93,-56,-1,-1,0
1523610758717,327680,93,-56,-1,-1,0
1523610758717,0,93,-56,-1,-1,0
1523610758717,-327680,93,-56,-1,-1,0
1523610758717,-655360,93,-56,-1,-1,0
1523610758757,-851968,93,-56,-1,-1,0
1523610758757,-983040,93,-56,-1,-1,0
1523610758757,-1179648,93,-56,-1,-1,0
1523610758757,-1376256,93,-56,-1,-1,0
1523610758757,-1376256,93,-56,-1,-1,0
1523610758797,-1179648,93,-56,-1,-1,0
1523610758797,-1048576,93,-56,-1,-1,0
1523610758797,-1048576,93,-56,-1,-1,0
1523610758797,-983040,93,-56,-1,-1,0
1523610758797,-917504,93,-56,-1,-1,0
1523610758837,-851968,93,-56,-1,-1,0
1523610758837,-851968,93,-56,-1,-1,0
1523610758837,-786432,93,-56,-1,-1,0
1523610758837,-720896,93,-56,-1,-1,0
1523610758837,-720896,93,-56,-1,-1,0
1523610758878,-655360,93,-56,-1,-1,0
1523610758878,-655360,93,-56,-1,-1,0
1523610758878,-720896,93,-56,-1,-1,0
1523610758878,-851968,93,-56,-1,-1,0
1523610758878,-917504,93,-56,-1,-1,0
1523610758917,-917504,93,-56,-1,-1,0
1523610758917,-851968,93,-56,-1,-1,0
1523610758917,-786432,93,-56,-1,-1,0
1523610758917,-655360,93,-56,-1,-1,0
1523610758917,-589824,93,-56,-1,-1,0
1523610758957,-589824,93,-56,-1,-1,0
1523610758957,-524288,93,-56,-1,-1,0
1523610758957,-589824,93,-56,-1,-1,0
1523610758957,-589824,93,-56,-1,-1,0
1523610758957,-458752,93,-56,-1,-1,0
1523610758997,-327680,93,-56,-1,-1,0
1523610758997,-196608,93,-56,-1,-1,0
1523610758997,0,93,-56,-1,-1,0
1523610758997,196608,93,-56,-1,-1,0
1523610758997,327680,93,-56,-1,-1,0
1523610759037,327680,93,-56,-1,-1,0
1523610759037,327680,93,-56,-1,-1,0
1523610759037,393216,93,-56,-1,-1,0
1523610759037,458752,93,-56,-1,-1,0
1523610759037,524288,93,-56,-1,-1,0
1523610759077,589824,93,-56,-1,-1,0
1523610759077,589824,93,-56,-1,-1,0
1523610759077,655360,93,-56,-1,-1,0
1523610759077,655360,93,-56,-1,-1,0
1523610759077,720896,93,-56,-1,-1,0
1523610759117,786432,93,-56,-1,-1,0
1523610759117,1179648,93,-56,-1,-1,0
1523610759117,2686976,93,-56,-1,-1,0
1523610759117,6094848,93,-56,-1,-1,0
1523610759117,10485760,93,-56,-1,-1,0
1523610759157,10944512,93,-56,-1,-1,0
1523610759157,6094848,93,-56,-1,-1,0
1523610759157,1245184,93,-56,-1,-1,0
1523610759157,196608,93,-56,-1,-1,0
1523610759157,851968,93,-56,-1,-1,0
1523610759197,1048576,93,-56,-1,-1,0
1523610759197,983040,93,-56,-1,-1,0
1523610759197,983040,93,-56,-1,-1,0
1523610759197,1048576,93,-56,-1,-1,0
1523610759197,1114112,93,-56,-1,-1,0
1523610759237,1179648,93,-56,-1,-1,0
1523610759237,1179648,93,-56,-1,-1,0
1523610759237,1245184,93,-56,-1,-1,0
1523610759237,1245184,93,-56,-1,-1,0
1523610759237,1310720,93,-56,-1,-1,0
1523610759277,1310720,93,-56,-1,-1,0
1523610759277,1376256,93,-56,-1,-1,0
1523610759277,1572864,93,-56,-1,-1,0
1523610759277,1769472,93,-56,-1,-1,0
1523610759277,2031616,93,-56,-1,-1,0
1523610759317,2162688,93,-56,-1,-1,0
1523610759317,2359296,93,-56,-1,-1,0
1523610759317,2424832,93,-56,-1,-1,0
1523610759317,2555904,93,-56,-1,-1,0
1523610759317,2621440,93,-56,-1,-1,0
1523610759357,2490368,93,-56,-1,-1,0
1523610759357,2359296,93,-56,-1,-1,0
1523610759357,2228224,93,-56,-1,-1,0
1523610759357,1900544,93,-56,-1,-1,0
1523610759357,1507328,93,-56,-1,-1,0
1523610759397,1048576,93,-56,-1,-1,0
1523610759397,720896,93,-56,-1,-1,0
1523610759397,458752,93,-56,-1,-1,0
1523610759397,196608,93,-56,-1,-1,0
1523610759397,131072,93,-56,-1,-1,0
1523610759437,131072,93,-56,-1,-1,0
1523610759437,131072,93,-56,-1,-1,0
1523610759437,65536,93,-56,-1,-1,0
1523610759437,0,93,-56,-1,-1,0
1523610759437,0,93,-56,-1,-1,0
1523610759477,65536,93,-56,-1,-1,0
1523610759477,65536,93,-56,-1,-1,0
1523610759477,0,93,-56,-1,-1,0
1523610759477,0,93,-56,-1,-1,0
1523610759477,0,93,-56,-1,-1,0
1523610759518,0,93,-56,-1,-1,0
1523610759518,-131072,93,-56,-1,-1,0
1523610759518,-262144,93,-56,-1,-1,0
1523610759518,-262144,93,-56,-1,-1,0
1523610759518,-262144,93,-56,-1,-1,0
1523610759557,-327680,93,-56,-1,-1,0
1523610759557,-327680,93,-56,-1,-1,0
1523610759557,-262144,93,-56,-1,-1,0
1523610759557,-262144,93,-56,-1,-1,0
1523610759557,-196608,93,-56,-1,-1,0
1523610759597,-196608,93,-56,-1,-1,0
1523610759597,-262144,93,-56,-1,-1,0
1523610759597,-393216,93,-56,-1,-1,0
1523610759597,-458752,93,-56,-1,-1,0
1523610759597,-458752,93,-56,-1,-1,0
1523610759637,-327680,93,-56,-1,-1,0
1523610759637,-262144,93,-56,-1,-1,0
1523610759637,-65536,93,-56,-1,-1,0
1523610759637,0,93,-56,-1,-1,0
1523610759637,-65536,93,-56,-1,-1,0
1523610759677,-196608,93,-56,-1,-1,0
1523610759677,-327680,93,-56,-1,-1,0
1523610759677,-393216,93,-56,-1,-1,0
1523610759677,-327680,93,-56,-1,-1,0
1523610759677,-262144,93,-56,-1,-1,0
1523610759717,-327680,93,-56,-1,-1,0
1523610759717,-393216,93,-56,-1,-1,0
1523610759717,-393216,93,-56,-1,-1,0
1523610759717,-524288,93,-56,-1,-1,0
1523610759717,-655360,93,-56,-1,-1,0
1523610759757,-786432,93,-56,-1,-1,0
1523610759757,-524288,93,-56,-1,-1,0
1523610759757,655360,93,-56,-1,-1,0
1523610759757,3866624,93,-56,-1,-1,0
1523610759757,8650752,93,-56,-1,-1,0
1523610759797,10223616,93,-56,-1,-1,0
1523610759797,5767168,93,-56,-1,-1,0
1523610759797,0,93,-56,-1,-1,0
1523610759797,-1835008,93,-56,-1,-1,0
1523610759797,-1245184,93,-56,-1,-1,0
1523610759837,-786432,93,-56,-1,-1,0
1523610759837,-655360,93,-56,-1,-1,0
1523610759837,-524288,93,-56,-1,-1,0
1523610759837,-458752,93,-56,-1,-1,0
1523610759837,-393216,93,-56,-1,-1,0
1523610759877,-327680,93,-56,-1,-1,0
1523610759877,-196608,93,-56,-1,-1,0
1523610759877,-131072,93,-56,-1,-1,0
1523610759877,-131072,93,-56,-1,-1,0
1523610759877,-196608,93,-56,-1,-1,0
1523610759917,-131072,93,-56,-1,-1,0
1523610759917,0,93,-56,-1,-1,0
1523610759917,131072,93,-56,-1,-1,0
1523610759917,262144,93,-56,-1,-1,0
1523610759917,524288,93,-56,-1,-1,0
1523610759957,851968,93,-56,-1,-1,0
1523610759957,1114112,93,-56,-1,-1,0
1523610759957,1310720,93,-56,-1,-1,0
1523610759957,1507328,93,-56,-1,-1,0
1523610759957,1507328,93,-56,-1,-1,0
1523610759997,1441792,93,-56,-1,-1,0
1523610759997,1245184,93,-56,-1,-1,0
1523610759997,983040,93,-56,-1,-1,0
1523610759997,524288,93,-56,-1,-1,0
1523610759997,0,93,-56,-1,-1,0
1523610760037,-393216,93,-56,-1,-1,0
1523610760037,-786432,93,-56,-1,-1,0
1523610760037,-1114112,93,-56,-1,-1,0
1523610760037,-1310720,93,-56,-1,-1,0
1523610760037,-1441792,93,-56,-1,-1,0
1523610760077,-1507328,93,-56,-1,-1,0
1523610760077,-1572864,93,-56,-1,-1,0
1523610760077,-1638400,93,-56,-1,-1,0
1523610760077,-1703936,93,-56,-1,-1,0
1523610760077,-1703936,93,-56,-1,-1,0
1523610760117,-1703936,93,-56,-1,-1,0
1523610760117,-1638400,93,-56,-1,-1,0
1523610760117,-1638400,93,-56,-1,-1,0
1523610760117,-1638400,93,-56,-1,-1,0
1523610760117,-1638400,93,-56,-1,-1,0
1523610760158,-1703936,93,-56,-1,-1,0
1523610760158,-1703936,93,-56,-1,-1,0
1523610760158,-1769472,93,-56,-1,-1,0
1523610760158,-1835008,93,-56,-1,-1,0
1523610760158,-1769472,93,-56,-1,-1,0
1523610760197,-1769472,93,-56,-1,-1,0
1523610760197,-1769472,93,-56,-1,-1,0
1523610760197,-1703936,93,-56,-1,-1,0
1523610760197,-1638400,93,-56,-1,-1,0
1523610760197,-1638400,93,-56,-1,-1,0
1523610760237,-1769472,93,-56,-1,-1,0
1523610760237,-1769472,93,-56,-1,-1,0
1523610760237,-1703936,93,-56,-1,-1,0
1523610760237,-1638400,93,-56,-1,-1,0
1523610760237,-1572864,93,-56,-1,-1,0
1523610760278,-1310720,93,-56,-1,-1,0
1523610760278,-1048576,93,-56,-1,-1,0
1523610760278,-1048576,93,-56,-1,-1,0
1523610760278,-1179648,93,-56,-1,-1,0
1523610760278,-1310720,93,-56,-1,-1,0
1523610760315,-1310720,94,-56,-1,-1,0
1523610760315,-1245184,94,-56,-1,-1,0
1523610760315,-1179648,94,-56,-1,-1,0
1523610760315,-1114112,94,-56,-1,-1,0
1523610760315,-1114112,94,-56,-1,-1,0
1523610760357,-1179648,94,-56,-1,-1,0
1523610760357,-1179648,94,-56,-1,-1,0
1523610760357,-1114112,94,-56,-1,-1,0
1523610760357,-1114112,94,-56,-1,-1,0
1523610760357,-983040,94,-56,-1,-1,0
1523610760397,-65536,94,-56,-1,-1,0
1523610760397,2752512,94,-56,-1,-1,0
1523610760397,7536640,94,-56,-1,-1,0
1523610760397,10223616,94,-56,-1,-1,0
1523610760397,6750208,94,-56,-1,-1,0
1523610760437,720896,94,-56,-1,-1,0
1523610760437,-1900544,94,-56,-1,-1,0
1523610760437,-1507328,94,-56,-1,-1,0
1523610760437,-1048576,94,-56,-1,-1,0
1523610760437,-983040,94,-56,-1,-1,0
1523610760477,-851968,94,-56,-1,-1,0
1523610760477,-786432,94,-56,-1,-1,0
1523610760477,-655360,94,-56,-1,-1,0
1523610760477,-655360,94,-56,-1,-1,0
1523610760477,-589824,94,-56,-1,-1,0
1523610760517,-589824,94,-56,-1,-1,0
1523610760517,-589824,94,-56,-1,-1,0
1523610760517,-524288,94,-56,-1,-1,0
1523610760517,-262144,94,-56,-1,-1,0
1523610760517,-131072,94,-56,-1,-1,0
1523610760557,0,94,-56,-1,-1,0
1523610760557,262144,94,-56,-1,-1,0
1523610760557,589824,94,-56,-1,-1,0
1523610760557,917504,94,-56,-1,-1,0
1523610760557,1245184,94,-56,-1,-1,0
1523610760597,1572864,94,-56,-1,-1,0
1523610760597,1835008,94,-56,-1,-1,0
1523610760597,1900544,94,-56,-1,-1,0
1523610760597,1900544,94,-56,-1,-1,0
1523610760597,1835008,94,-56,-1,-1,0
1523610760637,1638400,94,-56,-1,-1,0
1523610760637,1376256,94,-56,-1,-1,0
1523610760637,983040,94,-56,-1,-1,0
1523610760637,524288,94,-56,-1,-1,0
1523610760637,131072,94,-56,-1,-1,0
1523610760677,-65536,94,-56,-1,-1,0
1523610760677,-262144,94,-56,-1,-1,0
1523610760677,-327680,94,-56,-1,-1,0
1523610760677,-327680,94,-56,-1,-1,0
1523610760677,-393216,94,-56,-1,-1,0
1523610760716,-393216,94,-56,-1,-1,0
1523610760716,-393216,94,-56,-1,-1,0
1523610760716,-262144,94,-56,-1,-1,0
1523610760716,-196608,94,-56,-1,-1,0
1523610760716,-131072,94,-56,-1,-1,0
1523610760756,-65536,94,-56,-1,-1,0
1523610760756,-131072,94,-56,-1,-1,0
1523610760756,-65536,94,-56,-1,-1,0
1523610760756,-65536,94,-56,-1,-1,0
1523610760756,-65536,94,-56,-1,-1,0
1523610760798,-131072,94,-56,-1,-1,0
1523610760798,-131072,94,-56,-1,-1,0
1523610760798,-131072,94,-56,-1,-1,0
1523610760798,-65536,94,-56,-1,-1,0
1523610760798,-65536,94,-56,-1,-1,0
1523610760836,-131072,94,-56,-1,-1,0
1523610760836,-196608,94,-56,-1,-1,0
1523610760836,-262144,94,-56,-1,-1,0
1523610760836,-262144,94,-56,-1,-1,0
1523610760836,-327680,94,-56,-1,-1,0
1523610760876,-393216,94,-56,-1,-1,0
1523610760876,-393216,94,-56,-1,-1,0
1523610760876,-458752,94,-56,-1,-1,0
1523610760876,-393216,94,-56,-1,-1,0
1523610760876,-131072,94,-56,-1,-1,0
1523610760916,65536,94,-56,-1,-1,0
1523610760916,0,94,-56,-1,-1,0
1523610760916,-262144,94,-56,-1,-1,0
1523610760916,-458752,94,-56,-1,-1,0
1523610760916,-458752,94,-56,-1,-1,0
1523610760956,-393216,94,-56,-1,-1,0
1523610760956,-393216,94,-56,-1,-1,0
1523610760956,-393216,94,-56,-1,-1,0
1523610760956,-393216,94,-56,-1,-1,0
1523610760956,-393216,94,-56,-1,-1,0
1523610760996,-327680,94,-56,-1,-1,0
1523610760996,-262144,94,-56,-1,-1,0
1523610760996,-327680,94,-56,-1,-1,0
1523610760996,-131072,94,-56,-1,-1,0
1523610760996,1114112,94,-56,-1,-1,0
1523610761036,4325376,94,-56,-1,-1,0
1523610761036,8978432,94,-56,-1,-1,0
1523610761036,10420224,94,-56,-1,-1,0
1523610761036,6029312,94,-56,-1,-1,0
1523610761036,393216,94,-56,-1,-1,0
1523610761077,-1310720,94,-56,-1,-1,0
1523610761077,-786432,94,-56,-1,-1,0
1523610761077,-524288,94,-56,-1,-1,0
1523610761077,-655360,94,-56,-1,-1,0
1523610761077,-655360,94,-56,-1,-1,0
1523610761116,-589824,94,-56,-1,-1,0
1523610761116,-589824,94,-56,-1,-1,0
1523610761116,-655360,94,-56,-1,-1,0
1523610761116,-589824,94,-56,-1,-1,0
1523610761116,-589824,94,-56,-1,-1,0
1523610761156,-589824,94,-56,-1,-1,0
1523610761156,-589824,94,-56,-1,-1,0
1523610761156,-524288,94,-56,-1,-1,0
1523610761156,-262144,94,-56,-1,-1,0
1523610761156,0,94,-56,-1,-1,0
1523610761196,196608,94,-56,-1,-1,0
1523610761196,524288,94,-56,-1,-1,0
1523610761196,851968,94,-56,-1,-1,0
1523610761196,1179648,94,-56,-1,-1,0
1523610761196,1507328,94,-56,-1,-1,0
1523610761236,1703936,94,-56,-1,-1,0
1523610761236,1703936,94,-56,-1,-1,0
1523610761236,1638400,94,-56,-1,-1,0
1523610761236,1507328,94,-56,-1,-1,0
1523610761236,1245184,94,-56,-1,-1,0
1523610761276,917504,94,-56,-1,-1,0
1523610761276,458752,94,-56,-1,-1,0
1523610761276,65536,94,-56,-1,-1,0
1523610761276,-196608,94,-56,-1,-1,0
1523610761276,-458752,94,-56,-1,-1,0
1523610761316,-589824,94,-56,-1,-1,0
1523610761316,-786432,94,-56,-1,-1,0
1523610761316,-851968,94,-56,-1,-1,0
1523610761316,-917504,94,-56,-1,-1,0
1523610761316,-917504,94,-56,-1,-1,0
1523610761356,-917504,94,-56,-1,-1,0
1523610761356,-851968,94,-56,-1,-1,0
1523610761356,-851968,94,-56,-1,-1,0
1523610761356,-917504,94,-56,-1,-1,0
1523610761356,-917504,94,-56,-1,-1,0
1523610761397,-983040,94,-56,-1,-1,0
1523610761397,-983040,94,-56,-1,-1,0
1523610761397,-1048576,94,-56,-1,-1,0
1523610761397,-1179648,94,-56,-1,-1,0
1523610761397,-1245184,94,-56,-1,-1,0
1523610761438,-1245184,94,-56,-1,-1,0
1523610761438,-1179648,94,-56,-1,-1,0
1523610761438,-1179648,94,-56,-1,-1,0
1523610761438,-1245184,94,-56,-1,-1,0
1523610761438,-1310720,94,-56,-1,-1,0
1523610761476,-1310720,94,-56,-1,-1,0
1523610761476,-1310720,94,-56,-1,-1,0
1523610761476,-1310720,94,-56,-1,-1,0
1523610761476,-1310720,94,-56,-1,-1,0
1523610761476,-1310720,94,-56,-1,-1,0
1523610761516,-1179648,94,-56,-1,-1,0
1523610761516,-1048576,94,-56,-1,-1,0
1523610761516,-983040,94,-56,-1,-1,0
1523610761516,-851968,94,-56,-1,-1,0
1523610761516,-720896,94,-56,-1,-1,0
1523610761556,-655360,94,-56,-1,-1,0
1523610761556,-655360,94,-56,-1,-1,0
1523610761556,-655360,94,-56,-1,-1,0
1523610761556,-655360,94,-56,-1,-1,0
1523610761556,-655360,94,-56,-1,-1,0
1523610761596,-589824,94,-56,-1,-1,0
1523610761596,-524288,94,-56,-1,-1,0
1523610761596,-524288,94,-56,-1,-1,0
1523610761596,-458752,94,-56,-1,-1,0
1523610761596,-327680,94,-56,-1,-1,0
1523610761636,-327680,94,-56,-1,-1,0
1523610761636,-262144,94,-56,-1,-1,0
1523610761636,196608,94,-56,-1,-1,0
1523610761636,2097152,94,-56,-1,-1,0
1523610761636,6029312,94,-56,-1,-1,0
1523610761676,10092544,94,-56,-1,-1,0
1523610761676,9240576,94,-56,-1,-1,0
1523610761676,3604480,94,-56,-1,-1,0
1523610761676,-589824,94,-56,-1,-1,0
1523610761676,-851968,94,-56,-1,-1,0
1523610761716,-262144,94,-56,-1,-1,0
1523610761716,-131072,94,-56,-1,-1,0
1523610761716,-131072,94,-56,-1,-1,0
1523610761716,-65536,94,-56,-1,-1,0
1523610761716,65536,94,-56,-1,-1,0
1523610761756,131072,94,-56,-1,-1,0
1523610761756,262144,94,-56,-1,-1,0
1523610761756,393216,94,-56,-1,-1,0
1523610761756,458752,94,-56,-1,-1,0
1523610761756,589824,94,-56,-1,-1,0
1523610761796,786432,94,-56,-1,-1,0
1523610761796,983040,94,-56,-1,-1,0
1523610761796,1048576,94,-56,-1,-1,0
1523610761796,1179648,94,-56,-1,-1,0
1523610761796,1376256,94,-56,-1,-1,0
1523610761836,1638400,94,-56,-1,-1,0
1523610761836,1966080,94,-56,-1,-1,0
1523610761836,2228224,94,-56,-1,-1,0
1523610761836,2490368,94,-56,-1,-1,0
1523610761836,2621440,94,-56,-1,-1,0
1523610761876,2621440,94,-56,-1,-1,0
1523610761876,2490368,94,-56,-1,-1,0
1523610761876,2359296,94,-56,-1,-1,0
1523610761876,2031616,94,-56,-1,-1,0
1523610761876,1507328,94,-56,-1,-1,0
1523610761916,983040,94,-56,-1,-1,0
1523610761916,458752,94,-56,-1,-1,0
1523610761916,65536,94,-56,-1,-1,0
1523610761916,-65536,94,-56,-1,-1,0
1523610761916,-196608,94,-56,-1,-1,0
1523610761956,-393216,94,-56,-1,-1,0
1523610761956,-524288,94,-56,-1,-1,0
1523610761956,-589824,94,-56,-1,-1,0
1523610761956,-589824,94,-56,-1,-1,0
1523610761956,-589824,94,-56,-1,-1,0
1523610761997,-655360,94,-56,-1,-1,0
1523610761997,-720896,94,-56,-1,-1,0
1523610761997,-720896,94,-56,-1,-1,0
1523610761997,-720896,94,-56,-1,-1,0
1523610761997,-786432,94,-56,-1,-1,0
1523610762036,-851968,94,-56,-1,-1,0
1523610762036,-917504,94,-56,-1,-1,0
1523610762036,-983040,94,-56,-1,-1,0
1523610762036,-1114112,94,-56,-1,-1,0
1523610762036,-1179648,94,-56,-1,-1,0
1523610762078,-1245184,94,-56,-1,-1,0
1523610762078,-1310720,94,-56,-1,-1,0
1523610762078,-1376256,94,-56,-1,-1,0
1523610762078,-1441792,94,-56,-1,-1,0
1523610762078,-1507328,94,-56,-1,-1,0
1523610762116,-1638400,94,-56,-1,-1,0
1523610762116,-1703936,94,-56,-1,-1,0
1523610762116,-1769472,94,-56,-1,-1,0
1523610762116,-1769472,94,-56,-1,-1,0
1523610762116,-1835008,94,-56,-1,-1,0
1523610762156,-1703936,94,-56,-1,-1,0
1523610762156,-1507328,94,-56,-1,-1,0
1523610762156,-1310720,94,-56,-1,-1,0
1523610762156,-1310720,94,-56,-1,-1,0
1523610762156,-1441792,94,-56,-1,-1,0
1523610762196,-1507328,94,-56,-1,-1,0
1523610762196,-1441792,94,-56,-1,-1,0
1523610762196,-1441792,94,-56,-1,-1,0
1523610762196,-1441792,94,-56,-1,-1,0
1523610762196,-1441792,94,-56,-1,-1,0
1523610762237,-1376256,94,-56,-1,-1,0
1523610762237,-1310720,94,-56,-1,-1,0
1523610762237,-1179648,94,-56,-1,-1,0
1523610762237,-1114112,94,-56,-1,-1,0
1523610762237,-1048576,94,-56,-1,-1,0
1523610762276,-589824,94,-56,-1,-1,0
1523610762276,1048576,94,-56,-1,-1,0
1523610762276,4915200,94,-56,-1,-1,0
1523610762276,9306112,94,-56,-1,-1,0
1523610762276,8781824,94,-56,-1,-1,0
1523610762317,3145728,94,-56,-1,-1,0
1523610762317,-1507328,94,-56,-1,-1,0
1523610762317,-1966080,94,-56,-1,-1,0
1523610762317,-1310720,94,-56,-1,-1,0
1523610762317,-1114112,94,-56,-1,-1,0
1523610762356,-1179648,94,-56,-1,-1,0
1523610762356,-1114112,94,-56,-1,-1,0
1523610762356,-1048576,94,-56,-1,-1,0
1523610762356,-1179648,94,-56,-1,-1,0
1523610762356,-1114112,94,-56,-1,-1,0
1523610762396,-1048576,94,-56,-1,-1,0
1523610762396,-851968,94,-56,-1,-1,0
1523610762396,-720896,94,-56,-1,-1,0
1523610762396,-655360,94,-56,-1,-1,0
1523610762396,-524288,94,-56,-1,-1,0
1523610762436,-393216,94,-56,-1,-1,0
1523610762436,-196608,94,-56,-1,-1,0
1523610762436,131072,94,-56,-1,-1,0
1523610762436,458752,94,-56,-1,-1,0
1523610762436,655360,94,-56,-1,-1,0
1523610762476,786432,94,-56,-1,-1,0
1523610762476,851968,94,-56,-1,-1,0
1523610762476,983040,94,-56,-1,-1,0
1523610762476,1048576,94,-56,-1,-1,0
1523610762476,983040,94,-56,-1,-1,0
1523610762516,786432,94,-56,-1,-1,0
1523610762516,589824,94,-56,-1,-1,0
1523610762516,327680,94,-56,-1,-1,0
1523610762516,0,94,-56,-1,-1,0
1523610762516,-131072,94,-56,-1,-1,0
1523610762556,-196608,94,-56,-1,-1,0
1523610762556,-262144,94,-56,-1,-1,0
1523610762556,-327680,94,-56,-1,-1,0
1523610762556,-327680,94,-56,-1,-1,0
1523610762556,-262144,94,-56,-1,-1,0
1523610762597,-131072,94,-56,-1,-1,0
1523610762597,0,94,-56,-1,-1,0
1523610762597,65536,94,-56,-1,-1,0
1523610762597,65536,94,-56,-1,-1,0
1523610762597,65536,94,-56,-1,-1,0
1523610762637,196608,94,-56,-1,-1,0
1523610762637,327680,94,-56,-1,-1,0
1523610762637,262144,94,-56,-1,-1,0
1523610762637,196608,94,-56,-1,-1,0
1523610762637,262144,94,-56,-1,-1,0
1523610762677,327680,94,-56,-1,-1,0
1523610762677,393216,94,-56,-1,-1,0
1523610762677,327680,94,-56,-1,-1,0
1523610762677,327680,94,-56,-1,-1,0
1523610762677,393216,94,-56,-1,-1,0
1523610762718,458752,94,-56,-1,-1,0
1523610762718,458752,94,-56,-1,-1,0
1523610762718,458752,94,-56,-1,-1,0
1523610762718,458752,94,-56,-1,-1,0
1523610762718,393216,94,-56,-1,-1,0
1523610762756,262144,94,-56,-1,-1,0
1523610762756,196608,94,-56,-1,-1,0
1523610762756,131072,94,-56,-1,-1,0
1523610762756,262144,94,-56,-1,-1,0
1523610762756,458752,94,-56,-1,-1,0
1523610762796,720896,94,-56,-1,-1,0
1523610762796,786432,94,-56,-1,-1,0
1523610762796,655360,94,-56,-1,-1,0
1523610762796,589824,94,-56,-1,-1,0
1523610762796,589824,94,-56,-1,-1,0
1523610762836,131072,94,-56,-1,-1,0
1523610762836,-458752,94,-56,-1,-1,0
1523610762836,-851968,94,-56,-1,-1,0
1523610762836,-917504,94,-56,-1,-1,0
1523610762836,-917504,94,-56,-1,-1,0
1523610762877,-1048576,94,-56,-1,-1,0
1523610762877,-1179648,94,-56,-1,-1,0
1523610762877,-1310720,94,-56,-1,-1,0
1523610762877,-1245184,94,-56,-1,-1,0
1523610762877,-851968,94,-56,-1,-1,0
1523610762916,589824,94,-56,-1,-1,0
1523610762916,3735552,94,-56,-1,-1,0
1523610762916,7077888,94,-56,-1,-1,0
1523610762916,6356992,94,-56,-1,-1,0
1523610762916,1638400,94,-56,-1,-1,0
1523610762956,-1900544,94,-56,-1,-1,0
1523610762956,-2293760,94,-56,-1,-1,0
1523610762956,-1769472,94,-56,-1,-1,0
1523610762956,-1572864,94,-56,-1,-1,0
1523610762956,-1507328,94,-56,-1,-1,0
1523610762996,-1572864,94,-56,-1,-1,0
1523610762996,-1507328,94,-56,-1,-1,0
1523610762996,-1507328,94,-56,-1,-1,0
1523610762996,-1376256,94,-56,-1,-1,0
1523610762996,-1179648,94,-56,-1,-1,0
1523610763037,-983040,94,-56,-1,-1,0
1523610763037,-851968,94,-56,-1,-1,0
1523610763037,-786432,94,-56,-1,-1,0
1523610763037,-655360,94,-56,-1,-1,0
1523610763037,-393216,94,-56,-1,-1,0
1523610763077,-131072,94,-56,-1,-1,0
1523610763077,0,94,-56,-1,-1,0
1523610763077,65536,94,-56,-1,-1,0
1523610763077,262144,94,-56,-1,-1,0
1523610763077,524288,94,-56,-1,-1,0
1523610763116,655360,94,-56,-1,-1,0
1523610763116,786432,94,-56,-1,-1,0
1523610763116,786432,94,-56,-1,-1,0
1523610763116,851968,94,-56,-1,-1,0
1523610763116,720896,94,-56,-1,-1,0
1523610763157,589824,94,-56,-1,-1,0
1523610763157,262144,94,-56,-1,-1,0
1523610763157,-131072,94,-56,-1,-1,0
1523610763157,-458752,94,-56,-1,-1,0
1523610763157,-720896,94,-56,-1,-1,0
1523610763196,-917504,94,-56,-1,-1,0
1523610763196,-983040,94,-56,-1,-1,0
1523610763196,-1048576,94,-56,-1,-1,0
1523610763196,-1048576,94,-56,-1,-1,0
1523610763196,-1048576,94,-56,-1,-1,0
1523610763236,-1048576,94,-56,-1,-1,0
1523610763236,-1114112,94,-56,-1,-1,0
1523610763236,-1114112,94,-56,-1,-1,0
1523610763236,-1048576,94,-56,-1,-1,0
1523610763236,-1048576,94,-56,-1,-1,0
1523610763276,-983040,94,-56,-1,-1,0
1523610763276,-917504,94,-56,-1,-1,0
1523610763276,-851968,94,-56,-1,-1,0
1523610763276,-851968,94,-56,-1,-1,0
1523610763276,-851968,94,-56,-1,-1,0
1523610763316,-720896,94,-56,-1,-1,0
1523610763316,-524288,94,-56,-1,-1,0
1523610763316,-458752,94,-56,-1,-1,0
1523610763316,-524288,94,-56,-1,-1,0
1523610763316,-655360,94,-56,-1,-1,0
1523610763358,-720896,94,-56,-1,-1,0
1523610763358,-720896,94,-56,-1,-1,0
1523610763358,-786432,94,-56,-1,-1,0
1523610763358,-786432,94,-56,-1,-1,0
1523610763358,-720896,94,-56,-1,-1,0
1523610763396,-589824,94,-56,-1,-1,0
1523610763396,-458752,94,-56,-1,-1,0
1523610763396,-327680,94,-56,-1,-1,0
1523610763396,-65536,94,-56,-1,-1,0
1523610763396,-65536,94,-56,-1,-1,0
1523610763436,-327680,94,-56,-1,-1,0
1523610763436,-393216,94,-56,-1,-1,0
1523610763436,-393216,94,-56,-1,-1,0
1523610763436,-458752,94,-56,-1,-1,0
1523610763436,-524288,94,-56,-1,-1,0
1523610763476,-589824,94,-56,-1,-1,0
1523610763476,-589824,94,-56,-1,-1,0
1523610763476,-589824,94,-56,-1,-1,0
1523610763476,-524288,94,-56,-1,-1,0
1523610763476,-524288,94,-56,-1,-1,0
1523610763516,-458752,94,-56,-1,-1,0
1523610763516,-65536,94,-56,-1,-1,0
1523610763516,1179648,94,-56,-1,-1,0
1523610763516,4194304,94,-56,-1,-1,0
1523610763516,8323072,94,-56,-1,-1,0
1523610763556,9109504,94,-56,-1,-1,0
1523610763556,4915200,94,-56,-1,-1,0
1523610763556,196608,94,-56,-1,-1,0
1523610763556,-917504,94,-56,-1,-1,0
1523610763556,-393216,94,-56,-1,-1,0
1523610763596,-196608,94,-56,-1,-1,0
1523610763596,-262144,94,-56,-1,-1,0
1523610763596,-262144,94,-56,-1,-1,0
1523610763596,-262144,94,-56,-1,-1,0
1523610763596,-131072,94,-56,-1,-1,0
1523610763636,0,94,-56,-1,-1,0
1523610763636,262144,94,-56,-1,-1,0
1523610763636,327680,94,-56,-1,-1,0
1523610763636,458752,94,-56,-1,-1,0
1523610763636,589824,94,-56,-1,-1,0
1523610763676,786432,94,-56,-1,-1,0
1523610763676,983040,94,-56,-1,-1,0
1523610763676,1179648,94,-56,-1,-1,0
1523610763676,1376256,94,-56,-1,-1,0
1523610763676,1638400,94,-56,-1,-1,0
1523610763716,1900544,94,-56,-1,-1,0
1523610763716,2293760,94,-56,-1,-1,0
1523610763716,2555904,94,-56,-1,-1,0
1523610763716,2752512,94,-56,-1,-1,0
1523610763716,2818048,94,-56,-1,-1,0
1523610763756,2818048,94,-56,-1,-1,0
1523610763756,2621440,94,-56,-1,-1,0
1523610763756,2162688,94,-56,-1,-1,0
1523610763756,1638400,94,-56,-1,-1,0
1523610763756,1245184,94,-56,-1,-1,0
1523610763796,917504,94,-56,-1,-1,0
1523610763796,524288,94,-56,-1,-1,0
1523610763796,131072,94,-56,-1,-1,0
1523610763796,-131072,94,-56,-1,-1,0
1523610763796,-393216,94,-56,-1,-1,0
1523610763836,-524288,94,-56,-1,-1,0
1523610763836,-655360,94,-56,-1,-1,0
1523610763836,-720896,94,-56,-1,-1,0
1523610763836,-851968,94,-56,-1,-1,0
1523610763836,-983040,94,-56,-1,-1,0
1523610763876,-1048576,94,-56,-1,-1,0
1523610763876,-1179648,94,-56,-1,-1,0
1523610763876,-1310720,94,-56,-1,-1,0
1523610763876,-1441792,94,-56,-1,-1,0
1523610763876,-1572864,94,-56,-1,-1,0
1523610763916,-1572864,94,-56,-1,-1,0
1523610763916,-1638400,94,-56,-1,-1,0
1523610763916,-1703936,94,-56,-1,-1,0
1523610763916,-1769472,94,-56,-1,-1,0
1523610763916,-1769472,94,-56,-1,-1,0
1523610763957,-1769472,94,-56,-1,-1,0
1523610763957,-1900544,94,-56,-1,-1,0
1523610763957,-2031616,94,-56,-1,-1,0
1523610763957,-2097152,94,-56,-1,-1,0
1523610763957,-2228224,94,-56,-1,-1,0
1523610763998,-2359296,94,-56,-1,-1,0
1523610763998,-2293760,94,-56,-1,-1,0
1523610763998,-2228224,94,-56,-1,-1,0
1523610763998,-2162688,94,-56,-1,-1,0
1523610763998,-2031616,94,-56,-1,-1,0
1523610764036,-1900544,94,-56,-1,-1,0
1523610764036,-1769472,94,-56,-1,-1,0
1523610764036,-1769472,94,-56,-1,-1,0
1523610764036,-1835008,94,-56,-1,-1,0
1523610764036,-1900544,94,-56,-1,-1,0
1523610764077,-1900544,94,-56,-1,-1,0
1523610764077,-1769472,94,-56,-1,-1,0
1523610764077,-1703936,94,-56,-1,-1,0
1523610764077,-1572864,94,-56,-1,-1,0
1523610764077,-1572864,94,-56,-1,-1,0
1523610764116,-1507328,94,-56,-1,-1,0
1523610764116,-1507328,94,-56,-1,-1,0
1523610764116,-1376256,94,-56,-1,-1,0
1523610764116,-1048576,94,-56,-1,-1,0
1523610764116,65536,94,-56,-1,-1,0
1523610764157,3014656,94,-56,-1,-1,0
1523610764157,7274496,94,-56,-1,-1,0
1523610764157,8519680,94,-56,-1,-1,0
1523610764157,4325376,94,-56,-1,-1,0
1523610764157,-655360,94,-56,-1,-1,0
1523610764196,-2031616,94,-56,-1,-1,0
1523610764196,-1376256,94,-56,-1,-1,0
1523610764196,-1048576,94,-56,-1,-1,0
1523610764196,-1048576,94,-56,-1,-1,0
1523610764196,-983040,94,-56,-1,-1,0
1523610764236,-851968,94,-56,-1,-1,0
1523610764236,-851968,94,-56,-1,-1,0
1523610764236,-851968,94,-56,-1,-1,0
1523610764236,-720896,94,-56,-1,-1,0
1523610764236,-589824,94,-56,-1,-1,0
1523610764276,-524288,94,-56,-1,-1,0
1523610764276,-393216,94,-56,-1,-1,0
1523610764276,-196608,94,-56,-1,-1,0
1523610764276,-131072,94,-56,-1,-1,0
1523610764276,0,94,-56,-1,-1,0
1523610764316,196608,94,-56,-1,-1,0
1523610764316,524288,94,-56,-1,-1,0
1523610764316,786432,94,-56,-1,-1,0
1523610764316,1114112,94,-56,-1,-1,0
1523610764316,1376256,94,-56,-1,-1,0
1523610764356,1572864,94,-56,-1,-1,0
1523610764356,1638400,94,-56,-1,-1,0
1523610764356,1572864,94,-56,-1,-1,0
1523610764356,1441792,94,-56,-1,-1,0
1523610764356,1310720,94,-56,-1,-1,0
1523610764396,1048576,94,-56,-1,-1,0
1523610764396,655360,94,-56,-1,-1,0
1523610764396,327680,94,-56,-1,-1,0
1523610764396,0,94,-56,-1,-1,0
1523610764396,-65536,94,-56,-1,-1,0
1523610764436,-196608,94,-56,-1,-1,0
1523610764436,-327680,94,-56,-1,-1,0
1523610764436,-393216,94,-56,-1,-1,0
1523610764436,-458752,94,-56,-1,-1,0
1523610764436,-458752,94,-56,-1,-1,0
1523610764476,-393216,94,-56,-1,-1,0
1523610764476,-327680,94,-56,-1,-1,0
1523610764476,-262144,94,-56,-1,-1,0
1523610764476,-131072,94,-56,-1,-1,0
1523610764476,-65536,94,-56,-1,-1,0
1523610764516,0,94,-56,-1,-1,0
1523610764516,0,94,-56,-1,-1,0
1523610764516,0,94,-56,-1,-1,0
1523610764516,0,94,-56,-1,-1,0
1523610764516,0,94,-56,-1,-1,0
1523610764556,0,94,-56,-1,-1,0
1523610764556,0,94,-56,-1,-1,0
1523610764556,0,94,-56,-1,-1,0
1523610764556,0,94,-56,-1,-1,0
1523610764556,-65536,94,-56,-1,-1,0
1523610764596,-131072,94,-56,-1,-1,0
1523610764596,-196608,94,-56,-1,-1,0
1523610764596,-131072,94,-56,-1,-1,0
1523610764596,0,94,-56,-1,-1,0
1523610764596,131072,94,-56,-1,-1,0
1523610764638,262144,94,-56,-1,-1,0
1523610764638,458752,94,-56,-1,-1,0
1523610764638,589824,94,-56,-1,-1,0
1523610764638,524288,94,-56,-1,-1,0
1523610764638,393216,94,-56,-1,-1,0
1523610764676,262144,94,-56,-1,-1,0
1523610764676,196608,94,-56,-1,-1,0
1523610764676,196608,94,-56,-1,-1,0
1523610764676,196608,94,-56,-1,-1,0
1523610764676,196608,94,-56,-1,-1,0
1523610764716,196608,94,-56,-1,-1,0
1523610764716,196608,94,-56,-1,-1,0
1523610764716,65536,94,-56,-1,-1,0
1523610764716,0,94,-56,-1,-1,0
1523610764716,262144,94,-56,-1,-1,0
1523610764757,1703936,94,-56,-1,-1,0
1523610764757,5046272,94,-56,-1,-1,0
1523610764757,9568256,94,-56,-1,-1,0
1523610764757,10354688,94,-56,-1,-1,0
1523610764757,5439488,94,-56,-1,-1,0
1523610764796,0,94,-56,-1,-1,0
1523610764796,-1245184,94,-56,-1,-1,0
1523610764796,-655360,94,-56,-1,-1,0
1523610764796,-262144,94,-56,-1,-1,0
1523610764796,-262144,94,-56,-1,-1,0
1523610764836,-327680,94,-56,-1,-1,0
1523610764836,-393216,94,-56,-1,-1,0
1523610764836,-327680,94,-56,-1,-1,0
1523610764836,-262144,94,-56,-1,-1,0
1523610764836,-327680,94,-56,-1,-1,0
1523610764876,-393216,94,-56,-1,-1,0
1523610764876,-262144,94,-56,-1,-1,0
1523610764876,-196608,94,-56,-1,-1,0
1523610764876,-65536,94,-56,-1,-1,0
1523610764876,-65536,94,-56,-1,-1,0
1523610764918,0,94,-56,-1,-1,0
1523610764918,65536,94,-56,-1,-1,0
1523610764918,262144,94,-56,-1,-1,0
1523610764918,458752,94,-56,-1,-1,0
1523610764918,655360,94,-56,-1,-1,0
1523610764955,851968,94,-56,-1,-1,0
1523610764955,983040,94,-56,-1,-1,0
1523610764955,917504,94,-56,-1,-1,0
1523610764955,786432,94,-56,-1,-1,0
1523610764955,589824,94,-56,-1,-1,0
1523610764996,327680,94,-56,-1,-1,0
1523610764996,0,94,-56,-1,-1,0
1523610764996,-458752,94,-56,-1,-1,0
1523610764996,-851968,94,-56,-1,-1,0
1523610764996,-1245184,94,-56,-1,-1,0
1523610765037,-1507328,94,-56,-1,-1,0
1523610765037,-1638400,94,-56,-1,-1,0
1523610765037,-1703936,94,-56,-1,-1,0
1523610765037,-1703936,94,-56,-1,-1,0
1523610765037,-1769472,94,-56,-1,-1,0
1523610765076,-1769472,94,-56,-1,-1,0
1523610765076,-1703936,94,-56,-1,-1,0
1523610765076,-1638400,94,-56,-1,-1,0
1523610765076,-1572864,94,-56,-1,-1,0
1523610765076,-1507328,94,-56,-1,-1,0
1523610765116,-1441792,94,-56,-1,-1,0
1523610765116,-1376256,94,-56,-1,-1,0
1523610765116,-1310720,94,-56,-1,-1,0
1523610765116,-1245184,94,-56,-1,-1,0
1523610765116,-1179648,94,-56,-1,-1,0
1523610765156,-1114112,94,-56,-1,-1,0
1523610765156,-1048576,94,-56,-1,-1,0
1523610765156,-1048576,94,-56,-1,-1,0
1523610765156,-1114112,94,-56,-1,-1,0
1523610765156,-1179648,94,-56,-1,-1,0
1523610765197,-1310720,94,-56,-1,-1,0
1523610765197,-1441792,94,-56,-1,-1,0
1523610765197,-1507328,94,-56,-1,-1,0
1523610765197,-1507328,94,-56,-1,-1,0
1523610765197,-1441792,94,-56,-1,-1,0
1523610765237,-1376256,94,-56,-1,-1,0
1523610765237,-1245184,94,-56,-1,-1,0
1523610765237,-1114112,94,-56,-1,-1,0
1523610765237,-1245184,94,-56,-1,-1,0
1523610765237,-1441792,94,-56,-1,-1,0
1523610765278,-1638400,94,-56,-1,-1,0
1523610765278,-1769472,94,-56,-1,-1,0
1523610765278,-1769472,94,-56,-1,-1,0
1523610765278,-1703936,94,-56,-1,-1,0
1523610765278,-1638400,94,-56,-1,-1,0
1523610765317,-1572864,94,-56,-1,-1,0
1523610765317,-1638400,94,-56,-1,-1,0
1523610765317,-1638400,94,-56,-1,-1,0
1523610765317,-1703936,94,-56,-1,-1,0
1523610765317,-1441792,94,-56,-1,-1,0
1523610765356,-131072,94,-56,-1,-1,0
1523610765356,3080192,94,-56,-1,-1,0
1523610765356,8192000,94,-56,-1,-1,0
1523610765356,10223616,94,-56,-1,-1,0
1523610765356,5963776,94,-56,-1,-1,0
1523610765396,0,94,-56,-1,-1,0
1523610765396,-2031616,94,-56,-1,-1,0
1523610765396,-1376256,94,-56,-1,-1,0
1523610765396,-983040,94,-56,-1,-1,0
1523610765396,-917504,94,-56,-1,-1,0
1523610765436,-851968,94,-56,-1,-1,0
1523610765436,-851968,94,-56,-1,-1,0
1523610765436,-720896,94,-56,-1,-1,0
1523610765436,-655360,94,-56,-1,-1,0
1523610765436,-524288,94,-56,-1,-1,0
1523610765476,-393216,94,-56,-1,-1,0
1523610765476,-262144,94,-56,-1,-1,0
1523610765476,-131072,94,-56,-1,-1,0
1523610765476,0,94,-56,-1,-1,0
1523610765476,131072,94,-56,-1,-1,0
1523610765516,393216,94,-56,-1,-1,0
1523610765516,589824,94,-56,-1,-1,0
1523610765516,917504,94,-56,-1,-1,0
1523610765516,1245184,94,-56,-1,-1,0
1523610765516,1507328,94,-56,-1,-1,0
1523610765556,1703936,94,-56,-1,-1,0
1523610765556,1900544,94,-56,-1,-1,0
1523610765556,1900544,94,-56,-1,-1,0
1523610765556,1835008,94,-56,-1,-1,0
1523610765556,1638400,94,-56,-1,-1,0
1523610765596,1376256,94,-56,-1,-1,0
1523610765596,1114112,94,-56,-1,-1,0
1523610765596,786432,94,-56,-1,-1,0
1523610765596,458752,94,-56,-1,-1,0
1523610765596,262144,94,-56,-1,-1,0
1523610765636,0,94,-56,-1,-1,0
1523610765636,-65536,94,-56,-1,-1,0
1523610765636,-65536,94,-56,-1,-1,0
1523610765636,0,94,-56,-1,-1,0
1523610765636,0,94,-56,-1,-1,0
1523610765676,0,94,-56,-1,-1,0
1523610765676,-65536,94,-56,-1,-1,0
1523610765676,-131072,94,-56,-1,-1,0
1523610765676,-131072,94,-56,-1,-1,0
1523610765676,-131072,94,-56,-1,-1,0
1523610765716,-196608,94,-56,-1,-1,0
1523610765716,-196608,94,-56,-1,-1,0
1523610765716,-262144,94,-56,-1,-1,0
1523610765716,-327680,94,-56,-1,-1,0
1523610765716,-393216,94,-56,-1,-1,0
1523610765756,-327680,94,-56,-1,-1,0
1523610765756,-393216,94,-56,-1,-1,0
1523610765756,-589824,94,-56,-1,-1,0
1523610765756,-720896,94,-56,-1,-1,0
1523610765756,-720896,94,-56,-1,-1,0
1523610765797,-786432,94,-56,-1,-1,0
1523610765797,-851968,94,-56,-1,-1,0
1523610765797,-851968,94,-56,-1,-1,0
1523610765797,-851968,94,-56,-1,-1,0
1523610765797,-851968,94,-56,-1,-1,0
1523610765837,-720896,94,-56,-1,-1,0
1523610765837,-589824,94,-56,-1,-1,0
1523610765837,-458752,94,-56,-1,-1,0
1523610765837,-327680,94,-56,-1,-1,0
1523610765837,-458752,94,-56,-1,-1,0
1523610765877,-720896,95,-56,-1,-1,0
1523610765877,-917504,95,-56,-1,-1,0
1523610765877,-1048576,95,-56,-1,-1,0
1523610765877,-1114112,95,-56,-1,-1,0
1523610765877,-1245184,95,-56,-1,-1,0
1523610765918,-1310720,95,-56,-1,-1,0
1523610765918,-1376256,95,-56,-1,-1,0
1523610765918,-1441792,95,-56,-1,-1,0
1523610765918,-1441792,95,-56,-1,-1,0
1523610765918,-1441792,95,-56,-1,-1,0
1523610765957,-1048576,95,-56,-1,-1,0
1523610765957,524288,95,-56,-1,-1,0
1523610765957,4194304,95,-56,-1,-1,0
1523610765957,8716288,95,-56,-1,-1,0
1523610765957,8978432,95,-56,-1,-1,0
1523610765996,3801088,95,-56,-1,-1,0
1523610765996,-1048576,95,-56,-1,-1,0
1523610765996,-1900544,95,-56,-1,-1,0
1523610765996,-1310720,95,-56,-1,-1,0
1523610765996,-1114112,95,-56,-1,-1,0
1523610766037,-1179648,95,-56,-1,-1,0
1523610766037,-1179648,95,-56,-1,-1,0
1523610766037,-1114112,95,-56,-1,-1,0
1523610766037,-917504,95,-56,-1,-1,0
1523610766037,-851968,95,-56,-1,-1,0
1523610766077,-786432,95,-56,-1,-1,0
1523610766077,-786432,95,-56,-1,-1,0
1523610766077,-655360,95,-56,-1,-1,0
1523610766077,-524288,95,-56,-1,-1,0
1523610766077,-262144,95,-56,-1,-1,0
1523610766116,-65536,95,-56,-1,-1,0
1523610766116,0,95,-56,-1,-1,0
1523610766116,327680,95,-56,-1,-1,0
1523610766116,655360,95,-56,-1,-1,0
1523610766116,917504,95,-56,-1,-1,0
1523610766156,1179648,95,-56,-1,-1,0
1523610766156,1376256,95,-56,-1,-1,0
1523610766156,1507328,95,-56,-1,-1,0
1523610766156,1507328,95,-56,-1,-1,0
1523610766156,1507328,95,-56,-1,-1,0
1523610766196,1310720,95,-56,-1,-1,0
1523610766196,1048576,95,-56,-1,-1,0
1523610766196,589824,95,-56,-1,-1,0
1523610766196,65536,95,-56,-1,-1,0
1523610766196,-262144,95,-56,-1,-1,0
1523610766237,-589824,95,-56,-1,-1,0
1523610766237,-851968,95,-56,-1,-1,0
1523610766237,-1048576,95,-56,-1,-1,0
1523610766237,-1179648,95,-56,-1,-1,0
1523610766237,-1179648,95,-56,-1,-1,0
1523610766277,-1179648,95,-56,-1,-1,0
1523610766277,-1179648,95,-56,-1,-1,0
1523610766277,-1114112,95,-56,-1,-1,0
1523610766277,-983040,95,-56,-1,-1,0
1523610766277,-851968,95,-56,-1,-1,0
1523610766317,-851968,95,-56,-1,-1,0
1523610766317,-851968,95,-56,-1,-1,0
1523610766317,-851968,95,-56,-1,-1,0
1523610766317,-720896,95,-56,-1,-1,0
1523610766317,-589824,95,-56,-1,-1,0
1523610766357,-524288,95,-56,-1,-1,0
1523610766357,-524288,95,-56,-1,-1,0
1523610766357,-524288,95,-56,-1,-1,0
1523610766357,-393216,95,-56,-1,-1,0
1523610766357,-327680,95,-56,-1,-1,0
1523610766397,-327680,95,-56,-1,-1,0
1523610766397,-393216,95,-56,-1,-1,0
1523610766397,-458752,95,-56,-1,-1,0
1523610766397,-655360,95,-56,-1,-1,0
1523610766397,-655360,95,-56,-1,-1,0
1523610766437,-458752,95,-56,-1,-1,0
1523610766437,-262144,95,-56,-1,-1,0
1523610766437,-131072,95,-56,-1,-1,0
1523610766437,0,95,-56,-1,-1,0
1523610766437,0,95,-56,-1,-1,0
1523610766477,-65536,96,-56,-1,-1,0
1523610766477,-196608,96,-56,-1,-1,0
1523610766477,-327680,96,-56,-1,-1,0
1523610766477,-458752,96,-56,-1,-1,0
1523610766477,-458752,96,-56,-1,-1,0
1523610766518,-458752,96,-56,-1,-1,0
1523610766518,-393216,96,-56,-1,-1,0
1523610766518,-393216,96,-56,-1,-1,0
1523610766518,-393216,96,-56,-1,-1,0
1523610766518,-393216,96,-56,-1,-1,0
1523610766559,-262144,96,-56,-1,-1,0
1523610766559,262144,96,-56,-1,-1,0
1523610766559,2097152,96,-56,-1,-1,0
1523610766559,5963776,96,-56,-1,-1,0
1523610766559,10485760,96,-56,-1,-1,0
1523610766597,10289152,96,-56,-1,-1,0
1523610766597,4587520,96,-56,-1,-1,0
1523610766597,-393216,96,-56,-1,-1,0
1523610766597,-1048576,96,-56,-1,-1,0
1523610766597,-262144,96,-56,-1,-1,0
1523610766637,-65536,96,-56,-1,-1,0
1523610766637,-131072,96,-56,-1,-1,0
1523610766637,-131072,96,-56,-1,-1,0
1523610766637,-65536,96,-56,-1,-1,0
1523610766637,-65536,96,-56,-1,-1,0
1523610766677,-65536,96,-56,-1,-1,0
1523610766677,-65536,96,-56,-1,-1,0
1523610766677,-65536,96,-56,-1,-1,0
1523610766677,0,96,-56,-1,-1,0
1523610766677,0,96,-56,-1,-1,0
1523610766717,131072,96,-56,-1,-1,0
1523610766717,196608,96,-56,-1,-1,0
1523610766717,458752,96,-56,-1,-1,0
1523610766717,720896,96,-56,-1,-1,0
1523610766717,983040,96,-56,-1,-1,0
1523610766757,1179648,96,-56,-1,-1,0
1523610766757,1441792,96,-56,-1,-1,0
1523610766757,1703936,96,-56,-1,-1,0
1523610766757,1835008,96,-56,-1,-1,0
1523610766757,1703936,96,-56,-1,-1,0
1523610766797,1507328,96,-56,-1,-1,0
1523610766797,1114112,96,-56,-1,-1,0
1523610766797,720896,96,-56,-1,-1,0
1523610766797,262144,96,-56,-1,-1,0
1523610766797,-65536,96,-56,-1,-1,0
1523610766837,-458752,96,-56,-1,-1,0
1523610766837,-851968,96,-56,-1,-1,0
1523610766837,-1245184,96,-56,-1,-1,0
1523610766837,-1441792,96,-56,-1,-1,0
1523610766837,-1507328,96,-56,-1,-1,0
1523610766877,-1507328,96,-56,-1,-1,0
1523610766877,-1638400,96,-56,-1,-1,0
1523610766877,-1703936,96,-56,-1,-1,0
1523610766877,-1638400,96,-56,-1,-1,0
1523610766877,-1572864,96,-56,-1,-1,0
