milliseconds, ECG, ECG HR, PPG, PPG HR, SpO2, PI
1523615813533,1245184,127,-56,-1,-1,0
1523615813533,1507328,127,-56,-1,-1,0
1523615813533,1572864,127,-56,-1,-1,0
1523615813533,1441792,127,-56,-1,-1,0
1523615813533,1179648,127,-56,-1,-1,0
1523615813573,786432,127,-56,-1,-1,0
1523615813573,393216,127,-56,-1,-1,0
1523615813573,0,127,-56,-1,-1,0
1523615813573,-196608,127,-56,-1,-1,0
1523615813573,-524288,127,-56,-1,-1,0
1523615813614,-786432,127,-56,-1,-1,0
1523615813614,-851968,127,-56,-1,-1,0
1523615813614,-851968,127,-56,-1,-1,0
1523615813614,-786432,127,-56,-1,-1,0
1523615813614,-786432,127,-56,-1,-1,0
1523615813654,-851968,127,-56,-1,-1,0
1523615813654,-917504,127,-56,-1,-1,0
1523615813654,-983040,127,-56,-1,-1,0
1523615813654,-983040,127,-56,-1,-1,0
1523615813654,-1048576,127,-56,-1,-1,0
1523615813703,-1048576,127,-56,-1,-1,0
1523615813703,-1114112,127,-56,-1,-1,0
1523615813703,-1179648,127,-56,-1,-1,0
1523615813703,-1245184,127,-56,-1,-1,0
1523615813703,-1310720,127,-56,-1,-1,0
1523615813734,-1376256,127,-56,-1,-1,0
1523615813734,-1376256,127,-56,-1,-1,0
1523615813734,-1310720,127,-56,-1,-1,0
1523615813734,-1310720,127,-56,-1,-1,0
1523615813734,-1245184,127,-56,-1,-1,0
1523615813774,-1179648,127,-56,-1,-1,0
1523615813774,-1179648,127,-56,-1,-1,0
1523615813774,-1245184,127,-56,-1,-1,0
1523615813774,-1310720,127,-56,-1,-1,0
1523615813774,-1376256,127,-56,-1,-1,0
1523615813814,-1376256,127,-56,-1,-1,0
1523615813814,-1376256,127,-56,-1,-1,0
1523615813814,-1376256,127,-56,-1,-1,0
1523615813814,-1376256,127,-56,-1,-1,0
1523615813814,-1441792,127,-56,-1,-1,0
1523615813854,-1245184,127,-56,-1,-1,0
1523615813854,393216,127,-56,-1,-1,0
1523615813854,3997696,127,-56,-1,-1,0
1523615813854,6684672,127,-56,-1,-1,0
1523615813854,5439488,127,-56,-1,-1,0
1523615813894,1441792,127,-56,-1,-1,0
1523615813894,-1572864,127,-56,-1,-1,0
1523615813894,-2162688,127,-56,-1,-1,0
1523615813894,-1835008,127,-56,-1,-1,0
1523615813894,-1572864,127,-56,-1,-1,0
1523615813934,-1441792,127,-56,-1,-1,0
1523615813934,-1376256,127,-56,-1,-1,0
1523615813934,-1310720,127,-56,-1,-1,0
1523615813934,-1245184,127,-56,-1,-1,0
1523615813934,-1048576,127,-56,-1,-1,0
1523615813974,-851968,127,-56,-1,-1,0
1523615813974,-655360,127,-56,-1,-1,0
1523615813974,-327680,127,-56,-1,-1,0
1523615813974,0,127,-56,-1,-1,0
1523615813974,458752,127,-56,-1,-1,0
1523615814014,983040,127,-56,-1,-1,0
1523615814014,1441792,127,-56,-1,-1,0
1523615814014,1703936,127,-56,-1,-1,0
1523615814014,1835008,127,-56,-1,-1,0
1523615814014,1703936,127,-56,-1,-1,0
1523615814053,1507328,127,-56,-1,-1,0
1523615814053,1114112,127,-56,-1,-1,0
1523615814053,720896,127,-56,-1,-1,0
1523615814053,327680,127,-56,-1,-1,0
1523615814053,0,127,-56,-1,-1,0
1523615814093,-131072,127,-56,-1,-1,0
1523615814093,-262144,127,-56,-1,-1,0
1523615814093,-393216,127,-56,-1,-1,0
1523615814093,-393216,127,-56,-1,-1,0
1523615814093,-458752,127,-56,-1,-1,0
1523615814134,-458752,127,-56,-1,-1,0
1523615814134,-458752,127,-56,-1,-1,0
1523615814134,-393216,127,-56,-1,-1,0
1523615814134,-393216,127,-56,-1,-1,0
1523615814134,-458752,127,-56,-1,-1,0
1523615814174,-458752,127,-56,-1,-1,0
1523615814174,-524288,127,-56,-1,-1,0
1523615814174,-589824,127,-56,-1,-1,0
1523615814174,-655360,127,-56,-1,-1,0
1523615814174,-720896,127,-56,-1,-1,0
1523615814214,-786432,127,-56,-1,-1,0
1523615814214,-851968,127,-56,-1,-1,0
1523615814214,-851968,127,-56,-1,-1,0
1523615814214,-851968,127,-56,-1,-1,0
1523615814214,-851968,127,-56,-1,-1,0
1523615814254,-786432,127,-56,-1,-1,0
1523615814254,-786432,127,-56,-1,-1,0
1523615814254,-720896,127,-56,-1,-1,0
1523615814254,-786432,127,-56,-1,-1,0
1523615814254,-851968,127,-56,-1,-1,0
1523615814294,-983040,127,-56,-1,-1,0
1523615814294,-983040,127,-56,-1,-1,0
1523615814294,-983040,127,-56,-1,-1,0
1523615814294,-917504,127,-56,-1,-1,0
1523615814294,-917504,127,-56,-1,-1,0
1523615814343,-1048576,127,-56,-1,-1,0
1523615814343,-720896,127,-56,-1,-1,0
1523615814343,1114112,127,-56,-1,-1,0
1523615814343,4653056,127,-56,-1,-1,0
1523615814343,6881280,127,-56,-1,-1,0
1523615814374,5111808,127,-56,-1,-1,0
1523615814374,1179648,127,-56,-1,-1,0
1523615814374,-1310720,127,-56,-1,-1,0
1523615814374,-1638400,127,-56,-1,-1,0
1523615814374,-1376256,127,-56,-1,-1,0
1523615814414,-1179648,127,-56,-1,-1,0
1523615814414,-1114112,127,-56,-1,-1,0
1523615814414,-1048576,127,-56,-1,-1,0
1523615814414,-917504,127,-56,-1,-1,0
1523615814414,-786432,127,-56,-1,-1,0
1523615814454,-655360,127,-56,-1,-1,0
1523615814454,-458752,127,-56,-1,-1,0
1523615814454,-262144,127,-56,-1,-1,0
1523615814454,0,127,-56,-1,-1,0
1523615814454,393216,127,-56,-1,-1,0
1523615814494,786432,127,-56,-1,-1,0
1523615814494,1245184,127,-56,-1,-1,0
1523615814494,1638400,127,-56,-1,-1,0
1523615814494,1900544,127,-56,-1,-1,0
1523615814494,1900544,127,-56,-1,-1,0
1523615814534,1769472,127,-56,-1,-1,0
1523615814534,1441792,127,-56,-1,-1,0
1523615814534,1114112,127,-56,-1,-1,0
1523615814534,720896,127,-56,-1,-1,0
1523615814534,327680,127,-56,-1,-1,0
1523615814574,65536,127,-56,-1,-1,0
1523615814574,-65536,127,-56,-1,-1,0
1523615814574,-196608,127,-56,-1,-1,0
1523615814574,-262144,127,-56,-1,-1,0
1523615814574,-262144,127,-56,-1,-1,0
1523615814614,-327680,126,-56,-1,-1,0
1523615814614,-327680,126,-56,-1,-1,0
1523615814614,-262144,126,-56,-1,-1,0
1523615814614,-262144,126,-56,-1,-1,0
1523615814614,-262144,126,-56,-1,-1,0
1523615814654,-327680,126,-56,-1,-1,0
1523615814654,-327680,126,-56,-1,-1,0
1523615814654,-327680,126,-56,-1,-1,0
1523615814654,-393216,126,-56,-1,-1,0
1523615814654,-458752,126,-56,-1,-1,0
1523615814694,-458752,126,-56,-1,-1,0
1523615814694,-524288,126,-56,-1,-1,0
1523615814694,-589824,126,-56,-1,-1,0
1523615814694,-655360,126,-56,-1,-1,0
1523615814694,-720896,126,-56,-1,-1,0
1523615814734,-720896,126,-56,-1,-1,0
1523615814734,-589824,126,-56,-1,-1,0
1523615814734,-524288,126,-56,-1,-1,0
1523615814734,-524288,126,-56,-1,-1,0
1523615814734,-524288,126,-56,-1,-1,0
1523615814774,-589824,126,-56,-1,-1,0
1523615814774,-720896,126,-56,-1,-1,0
1523615814774,-720896,126,-56,-1,-1,0
1523615814774,-720896,126,-56,-1,-1,0
1523615814774,-720896,126,-56,-1,-1,0
1523615814814,-655360,126,-56,-1,-1,0
1523615814814,-655360,126,-56,-1,-1,0
1523615814814,-720896,126,-56,-1,-1,0
1523615814814,131072,126,-56,-1,-1,0
1523615814814,2818048,126,-56,-1,-1,0
1523615814854,6029312,126,-56,-1,-1,0
1523615814854,6488064,126,-56,-1,-1,0
1523615814854,3473408,126,-56,-1,-1,0
1523615814854,131072,126,-56,-1,-1,0
1523615814854,-1114112,126,-56,-1,-1,0
1523615814894,-1114112,126,-56,-1,-1,0
1523615814894,-917504,126,-56,-1,-1,0
1523615814894,-786432,126,-56,-1,-1,0
1523615814894,-786432,126,-56,-1,-1,0
1523615814894,-720896,126,-56,-1,-1,0
1523615814934,-589824,126,-56,-1,-1,0
1523615814934,-458752,126,-56,-1,-1,0
1523615814934,-262144,126,-56,-1,-1,0
1523615814934,-65536,126,-56,-1,-1,0
1523615814934,65536,126,-56,-1,-1,0
1523615814983,393216,126,-56,-1,-1,0
1523615814983,786432,126,-56,-1,-1,0
1523615814983,1245184,126,-56,-1,-1,0
1523615814983,1703936,126,-56,-1,-1,0
1523615814983,2031616,126,-56,-1,-1,0
1523615815014,2228224,126,-56,-1,-1,0
1523615815014,2162688,126,-56,-1,-1,0
1523615815014,2031616,126,-56,-1,-1,0
1523615815014,1703936,126,-56,-1,-1,0
1523615815014,1441792,126,-56,-1,-1,0
1523615815054,1114112,126,-56,-1,-1,0
1523615815054,851968,126,-56,-1,-1,0
1523615815054,655360,126,-56,-1,-1,0
1523615815054,524288,126,-56,-1,-1,0
1523615815054,393216,126,-56,-1,-1,0
1523615815094,327680,126,-56,-1,-1,0
1523615815094,262144,126,-56,-1,-1,0
1523615815094,327680,126,-56,-1,-1,0
1523615815094,327680,126,-56,-1,-1,0
1523615815094,327680,126,-56,-1,-1,0
1523615815134,327680,126,-56,-1,-1,0
1523615815134,327680,126,-56,-1,-1,0
1523615815134,262144,126,-56,-1,-1,0
1523615815134,196608,126,-56,-1,-1,0
1523615815134,131072,126,-56,-1,-1,0
1523615815174,65536,126,-56,-1,-1,0
1523615815174,65536,126,-56,-1,-1,0
1523615815174,0,126,-56,-1,-1,0
1523615815174,0,126,-56,-1,-1,0
1523615815174,-131072,126,-56,-1,-1,0
1523615815214,-131072,126,-56,-1,-1,0
1523615815214,-196608,126,-56,-1,-1,0
1523615815214,-131072,126,-56,-1,-1,0
1523615815214,-65536,126,-56,-1,-1,0
1523615815214,0,126,-56,-1,-1,0
1523615815254,0,126,-56,-1,-1,0
1523615815254,0,126,-56,-1,-1,0
1523615815254,-65536,126,-56,-1,-1,0
1523615815254,-131072,126,-56,-1,-1,0
1523615815254,-196608,126,-56,-1,-1,0
1523615815294,-327680,126,-56,-1,-1,0
1523615815294,-327680,126,-56,-1,-1,0
1523615815294,-262144,126,-56,-1,-1,0
1523615815294,-262144,126,-56,-1,-1,0
1523615815294,-262144,126,-56,-1,-1,0
1523615815334,65536,126,-56,-1,-1,0
1523615815334,1966080,126,-56,-1,-1,0
1523615815334,5177344,126,-56,-1,-1,0
1523615815334,6881280,126,-56,-1,-1,0
1523615815334,4849664,126,-56,-1,-1,0
1523615815374,1114112,126,-56,-1,-1,0
1523615815374,-983040,126,-56,-1,-1,0
1523615815374,-1179648,126,-56,-1,-1,0
1523615815374,-851968,126,-56,-1,-1,0
1523615815374,-589824,126,-56,-1,-1,0
1523615815414,-524288,126,-56,-1,-1,0
1523615815414,-589824,126,-56,-1,-1,0
1523615815414,-589824,126,-56,-1,-1,0
1523615815414,-393216,126,-56,-1,-1,0
1523615815414,-131072,126,-56,-1,-1,0
1523615815454,0,126,-56,-1,-1,0
1523615815454,327680,126,-56,-1,-1,0
1523615815454,655360,126,-56,-1,-1,0
1523615815454,983040,126,-56,-1,-1,0
1523615815454,1376256,126,-56,-1,-1,0
1523615815494,1835008,126,-56,-1,-1,0
1523615815494,2162688,126,-56,-1,-1,0
1523615815494,2490368,126,-56,-1,-1,0
1523615815494,2555904,126,-56,-1,-1,0
1523615815494,2424832,126,-56,-1,-1,0
1523615815534,2228224,126,-56,-1,-1,0
1523615815534,1966080,126,-56,-1,-1,0
1523615815534,1638400,126,-56,-1,-1,0
1523615815534,1310720,126,-56,-1,-1,0
1523615815534,917504,126,-56,-1,-1,0
1523615815574,458752,126,-56,-1,-1,0
1523615815574,196608,126,-56,-1,-1,0
1523615815574,131072,126,-56,-1,-1,0
1523615815574,131072,126,-56,-1,-1,0
1523615815574,131072,126,-56,-1,-1,0
1523615815623,131072,126,-56,-1,-1,0
1523615815623,0,126,-56,-1,-1,0
1523615815623,0,126,-56,-1,-1,0
1523615815623,0,126,-56,-1,-1,0
1523615815623,-65536,126,-56,-1,-1,0
1523615815654,-131072,126,-56,-1,-1,0
1523615815654,-131072,126,-56,-1,-1,0
1523615815654,-196608,126,-56,-1,-1,0
1523615815654,-196608,126,-56,-1,-1,0
1523615815654,-262144,126,-56,-1,-1,0
1523615815694,-327680,126,-56,-1,-1,0
1523615815694,-524288,126,-56,-1,-1,0
1523615815694,-589824,126,-56,-1,-1,0
1523615815694,-589824,126,-56,-1,-1,0
1523615815694,-524288,126,-56,-1,-1,0
1523615815734,-524288,126,-56,-1,-1,0
1523615815734,-393216,126,-56,-1,-1,0
1523615815734,-327680,126,-56,-1,-1,0
1523615815734,-327680,126,-56,-1,-1,0
1523615815734,-524288,126,-56,-1,-1,0
1523615815774,-655360,126,-56,-1,-1,0
1523615815774,-720896,126,-56,-1,-1,0
1523615815774,-720896,126,-56,-1,-1,0
1523615815774,-786432,126,-56,-1,-1,0
1523615815774,-786432,126,-56,-1,-1,0
1523615815814,-851968,126,-56,-1,-1,0
1523615815814,-917504,126,-56,-1,-1,0
1523615815814,-458752,126,-56,-1,-1,0
1523615815814,1769472,126,-56,-1,-1,0
1523615815814,5373952,126,-56,-1,-1,0
1523615815854,7143424,126,-56,-1,-1,0
1523615815854,4653056,126,-56,-1,-1,0
1523615815854,458752,126,-56,-1,-1,0
1523615815854,-1835008,126,-56,-1,-1,0
1523615815854,-1966080,126,-56,-1,-1,0
1523615815894,-1572864,126,-56,-1,-1,0
1523615815894,-1376256,126,-56,-1,-1,0
1523615815894,-1245184,126,-56,-1,-1,0
1523615815894,-1245184,126,-56,-1,-1,0
1523615815894,-1114112,126,-56,-1,-1,0
1523615815934,-1048576,126,-56,-1,-1,0
1523615815934,-851968,126,-56,-1,-1,0
1523615815934,-655360,126,-56,-1,-1,0
1523615815934,-393216,126,-56,-1,-1,0
1523615815934,-131072,126,-56,-1,-1,0
1523615815973,196608,126,-56,-1,-1,0
1523615815973,589824,126,-56,-1,-1,0
1523615815973,1114112,126,-56,-1,-1,0
1523615815973,1638400,126,-56,-1,-1,0
1523615815973,2031616,126,-56,-1,-1,0
1523615816014,2031616,126,-56,-1,-1,0
1523615816014,1835008,126,-56,-1,-1,0
1523615816014,1507328,126,-56,-1,-1,0
1523615816014,1048576,126,-56,-1,-1,0
1523615816014,524288,126,-56,-1,-1,0
1523615816053,65536,126,-56,-1,-1,0
1523615816053,-262144,126,-56,-1,-1,0
1523615816053,-655360,126,-56,-1,-1,0
1523615816053,-851968,126,-56,-1,-1,0
1523615816053,-917504,126,-56,-1,-1,0
1523615816094,-917504,125,-56,-1,-1,0
1523615816094,-1048576,125,-56,-1,-1,0
1523615816094,-1114112,125,-56,-1,-1,0
1523615816094,-1179648,125,-56,-1,-1,0
1523615816094,-1179648,125,-56,-1,-1,0
1523615816134,-1179648,125,-56,-1,-1,0
1523615816134,-1179648,125,-56,-1,-1,0
1523615816134,-1245184,125,-56,-1,-1,0
1523615816134,-1376256,125,-56,-1,-1,0
1523615816134,-1507328,125,-56,-1,-1,0
1523615816174,-1572864,125,-56,-1,-1,0
1523615816174,-1572864,125,-56,-1,-1,0
1523615816174,-1703936,125,-56,-1,-1,0
1523615816174,-1769472,125,-56,-1,-1,0
1523615816174,-1769472,125,-56,-1,-1,0
1523615816214,-1769472,125,-56,-1,-1,0
1523615816214,-1769472,125,-56,-1,-1,0
1523615816214,-1703936,125,-56,-1,-1,0
1523615816214,-1703936,125,-56,-1,-1,0
1523615816214,-1769472,125,-56,-1,-1,0
1523615816263,-1900544,125,-56,-1,-1,0
1523615816263,-2031616,125,-56,-1,-1,0
1523615816263,-2097152,125,-56,-1,-1,0
1523615816263,-2097152,125,-56,-1,-1,0
1523615816263,-2097152,125,-56,-1,-1,0
1523615816294,-2097152,125,-56,-1,-1,0
1523615816294,-2228224,125,-56,-1,-1,0
1523615816294,-2162688,125,-56,-1,-1,0
1523615816294,-720896,125,-56,-1,-1,0
1523615816294,2621440,125,-56,-1,-1,0
1523615816334,5898240,125,-56,-1,-1,0
1523615816334,5439488,125,-56,-1,-1,0
1523615816334,1507328,125,-56,-1,-1,0
1523615816334,-2162688,125,-56,-1,-1,0
1523615816334,-3211264,125,-56,-1,-1,0
1523615816374,-2949120,125,-56,-1,-1,0
1523615816374,-2621440,125,-56,-1,-1,0
1523615816374,-2490368,125,-56,-1,-1,0
1523615816374,-2490368,125,-56,-1,-1,0
1523615816374,-2359296,125,-56,-1,-1,0
1523615816414,-2228224,125,-56,-1,-1,0
1523615816414,-2031616,125,-56,-1,-1,0
1523615816414,-1900544,125,-56,-1,-1,0
1523615816414,-1703936,125,-56,-1,-1,0
1523615816414,-1376256,125,-56,-1,-1,0
1523615816453,-1048576,125,-56,-1,-1,0
1523615816453,-720896,125,-56,-1,-1,0
1523615816453,-262144,125,-56,-1,-1,0
1523615816453,262144,125,-56,-1,-1,0
1523615816453,720896,125,-56,-1,-1,0
1523615816494,983040,125,-56,-1,-1,0
1523615816494,851968,125,-56,-1,-1,0
1523615816494,524288,125,-56,-1,-1,0
1523615816494,131072,125,-56,-1,-1,0
1523615816494,-262144,125,-56,-1,-1,0
1523615816533,-655360,125,-56,-1,-1,0
1523615816533,-1048576,125,-56,-1,-1,0
1523615816533,-1310720,125,-56,-1,-1,0
1523615816533,-1572864,125,-56,-1,-1,0
1523615816533,-1703936,125,-56,-1,-1,0
1523615816574,-1769472,125,-56,-1,-1,0
1523615816574,-1703936,125,-56,-1,-1,0
1523615816574,-1703936,125,-56,-1,-1,0
1523615816574,-1703936,125,-56,-1,-1,0
1523615816574,-1703936,125,-56,-1,-1,0
1523615816612,-1638400,125,-56,-1,-1,0
1523615816612,-1638400,125,-56,-1,-1,0
1523615816612,-1703936,125,-56,-1,-1,0
1523615816612,-1835008,125,-56,-1,-1,0
1523615816612,-1835008,125,-56,-1,-1,0
1523615816654,-1900544,125,-56,-1,-1,0
1523615816654,-1966080,125,-56,-1,-1,0
1523615816654,-1966080,125,-56,-1,-1,0
1523615816654,-2031616,125,-56,-1,-1,0
1523615816654,-2031616,125,-56,-1,-1,0
1523615816692,-1966080,125,-56,-1,-1,0
1523615816692,-1900544,125,-56,-1,-1,0
1523615816692,-1835008,125,-56,-1,-1,0
1523615816692,-1835008,125,-56,-1,-1,0
1523615816692,-1835008,125,-56,-1,-1,0
1523615816734,-1900544,125,-56,-1,-1,0
1523615816734,-2031616,125,-56,-1,-1,0
1523615816734,-2031616,125,-56,-1,-1,0
1523615816734,-2097152,125,-56,-1,-1,0
1523615816734,-2097152,125,-56,-1,-1,0
1523615816772,-2031616,125,-56,-1,-1,0
1523615816772,-2031616,125,-56,-1,-1,0
1523615816772,-2031616,125,-56,-1,-1,0
1523615816772,-1114112,125,-56,-1,-1,0
1523615816772,1769472,125,-56,-1,-1,0
1523615816814,5308416,125,-56,-1,-1,0
1523615816814,6094848,125,-56,-1,-1,0
1523615816814,2949120,125,-56,-1,-1,0
1523615816814,-851968,125,-56,-1,-1,0
1523615816814,-2424832,125,-56,-1,-1,0
1523615816852,-2424832,125,-56,-1,-1,0
1523615816852,-2097152,125,-56,-1,-1,0
1523615816852,-1966080,125,-56,-1,-1,0
1523615816852,-1900544,125,-56,-1,-1,0
1523615816852,-1835008,125,-56,-1,-1,0
1523615816905,-1638400,125,-56,-1,-1,0
1523615816905,-1441792,125,-56,-1,-1,0
1523615816905,-1245184,125,-56,-1,-1,0
1523615816905,-1048576,125,-56,-1,-1,0
1523615816905,-786432,125,-56,-1,-1,0
1523615816932,-393216,125,-56,-1,-1,0
1523615816932,0,125,-56,-1,-1,0
1523615816932,524288,125,-56,-1,-1,0
1523615816932,1179648,125,-56,-1,-1,0
1523615816932,1703936,125,-56,-1,-1,0
1523615816974,1966080,125,-56,-1,-1,0
1523615816974,1966080,125,-56,-1,-1,0
1523615816974,1769472,125,-56,-1,-1,0
1523615816974,1441792,125,-56,-1,-1,0
1523615816974,1048576,125,-56,-1,-1,0
1523615817012,589824,125,-56,-1,-1,0
1523615817012,262144,125,-56,-1,-1,0
1523615817012,65536,125,-56,-1,-1,0
1523615817012,0,125,-56,-1,-1,0
1523615817012,-65536,125,-56,-1,-1,0
1523615817054,-65536,125,-56,-1,-1,0
1523615817054,-65536,125,-56,-1,-1,0
1523615817054,0,125,-56,-1,-1,0
1523615817054,0,125,-56,-1,-1,0
1523615817054,65536,125,-56,-1,-1,0
1523615817092,65536,125,-56,-1,-1,0
1523615817092,65536,125,-56,-1,-1,0
1523615817092,65536,125,-56,-1,-1,0
1523615817092,0,125,-56,-1,-1,0
1523615817092,0,125,-56,-1,-1,0
1523615817132,0,125,-56,-1,-1,0
1523615817132,0,125,-56,-1,-1,0
1523615817132,0,125,-56,-1,-1,0
1523615817132,-65536,125,-56,-1,-1,0
1523615817132,-65536,125,-56,-1,-1,0
1523615817172,-65536,125,-56,-1,-1,0
1523615817172,0,125,-56,-1,-1,0
1523615817172,0,125,-56,-1,-1,0
1523615817172,65536,125,-56,-1,-1,0
1523615817172,131072,125,-56,-1,-1,0
1523615817214,131072,125,-56,-1,-1,0
1523615817214,0,125,-56,-1,-1,0
1523615817214,0,125,-56,-1,-1,0
1523615817214,-65536,125,-56,-1,-1,0
1523615817214,-131072,125,-56,-1,-1,0
1523615817252,-65536,125,-56,-1,-1,0
1523615817252,0,125,-56,-1,-1,0
1523615817252,0,125,-56,-1,-1,0
1523615817252,0,125,-56,-1,-1,0
1523615817252,1048576,125,-56,-1,-1,0
1523615817294,3932160,125,-56,-1,-1,0
1523615817294,7077888,125,-56,-1,-1,0
1523615817294,7274496,125,-56,-1,-1,0
1523615817294,4063232,125,-56,-1,-1,0
1523615817294,786432,125,-56,-1,-1,0
1523615817332,-327680,125,-56,-1,-1,0
1523615817332,-327680,125,-56,-1,-1,0
1523615817332,-131072,125,-56,-1,-1,0
1523615817332,-65536,125,-56,-1,-1,0
1523615817332,0,125,-56,-1,-1,0
1523615817374,0,125,-56,-1,-1,0
1523615817374,65536,125,-56,-1,-1,0
1523615817374,131072,125,-56,-1,-1,0
1523615817374,262144,125,-56,-1,-1,0
1523615817374,458752,125,-56,-1,-1,0
1523615817412,786432,125,-56,-1,-1,0
1523615817412,1114112,125,-56,-1,-1,0
1523615817412,1507328,125,-56,-1,-1,0
1523615817412,1966080,125,-56,-1,-1,0
1523615817412,2490368,125,-56,-1,-1,0
1523615817454,2883584,125,-56,-1,-1,0
1523615817454,3080192,125,-56,-1,-1,0
1523615817454,3080192,125,-56,-1,-1,0
1523615817454,2883584,125,-56,-1,-1,0
1523615817454,2555904,125,-56,-1,-1,0
1523615817492,2162688,125,-56,-1,-1,0
1523615817492,1769472,125,-56,-1,-1,0
1523615817492,1376256,125,-56,-1,-1,0
1523615817492,1179648,125,-56,-1,-1,0
1523615817492,983040,125,-56,-1,-1,0
1523615817545,917504,125,-56,-1,-1,0
1523615817545,786432,125,-56,-1,-1,0
1523615817545,786432,125,-56,-1,-1,0
1523615817545,786432,125,-56,-1,-1,0
1523615817545,851968,125,-56,-1,-1,0
1523615817572,786432,125,-56,-1,-1,0
1523615817572,720896,125,-56,-1,-1,0
1523615817572,655360,125,-56,-1,-1,0
1523615817572,655360,125,-56,-1,-1,0
1523615817572,655360,125,-56,-1,-1,0
1523615817612,655360,125,-56,-1,-1,0
1523615817612,524288,125,-56,-1,-1,0
1523615817612,393216,125,-56,-1,-1,0
1523615817612,327680,125,-56,-1,-1,0
1523615817612,196608,125,-56,-1,-1,0
1523615817652,131072,125,-56,-1,-1,0
1523615817652,65536,125,-56,-1,-1,0
1523615817652,65536,125,-56,-1,-1,0
1523615817652,65536,125,-56,-1,-1,0
1523615817652,131072,125,-56,-1,-1,0
1523615817692,196608,125,-56,-1,-1,0
1523615817692,131072,125,-56,-1,-1,0
1523615817692,0,125,-56,-1,-1,0
1523615817692,-131072,125,-56,-1,-1,0
1523615817692,-196608,125,-56,-1,-1,0
1523615817732,-262144,125,-56,-1,-1,0
1523615817732,-262144,125,-56,-1,-1,0
1523615817732,-262144,125,-56,-1,-1,0
1523615817732,-327680,125,-56,-1,-1,0
1523615817732,-393216,125,-56,-1,-1,0
1523615817774,131072,125,-56,-1,-1,0
1523615817774,2293760,125,-56,-1,-1,0
1523615817774,5505024,125,-56,-1,-1,0
1523615817774,7077888,125,-56,-1,-1,0
1523615817774,4915200,125,-56,-1,-1,0
1523615817812,1245184,125,-56,-1,-1,0
1523615817812,-917504,125,-56,-1,-1,0
1523615817812,-1179648,125,-56,-1,-1,0
1523615817812,-917504,125,-56,-1,-1,0
1523615817812,-720896,125,-56,-1,-1,0
1523615817853,-655360,125,-56,-1,-1,0
1523615817853,-589824,125,-56,-1,-1,0
1523615817853,-393216,125,-56,-1,-1,0
1523615817853,-327680,125,-56,-1,-1,0
1523615817853,-262144,125,-56,-1,-1,0
1523615817892,-65536,125,-56,-1,-1,0
1523615817892,131072,125,-56,-1,-1,0
1523615817892,393216,125,-56,-1,-1,0
1523615817892,720896,125,-56,-1,-1,0
1523615817892,1179648,125,-56,-1,-1,0
1523615817934,1703936,125,-56,-1,-1,0
1523615817934,2162688,125,-56,-1,-1,0
1523615817934,2424832,125,-56,-1,-1,0
1523615817934,2424832,125,-56,-1,-1,0
1523615817934,2293760,125,-56,-1,-1,0
1523615817972,1966080,125,-56,-1,-1,0
1523615817972,1572864,125,-56,-1,-1,0
1523615817972,1114112,125,-56,-1,-1,0
1523615817972,720896,125,-56,-1,-1,0
1523615817972,393216,125,-56,-1,-1,0
1523615818012,65536,125,-56,-1,-1,0
1523615818012,-65536,125,-56,-1,-1,0
1523615818012,-196608,125,-56,-1,-1,0
1523615818012,-262144,125,-56,-1,-1,0
1523615818012,-262144,125,-56,-1,-1,0
1523615818052,-196608,125,-56,-1,-1,0
1523615818052,-196608,125,-56,-1,-1,0
1523615818052,-262144,125,-56,-1,-1,0
1523615818052,-327680,125,-56,-1,-1,0
1523615818052,-393216,125,-56,-1,-1,0
1523615818092,-393216,125,-56,-1,-1,0
1523615818092,-524288,125,-56,-1,-1,0
1523615818092,-589824,125,-56,-1,-1,0
1523615818092,-655360,125,-56,-1,-1,0
1523615818092,-720896,125,-56,-1,-1,0
1523615818132,-786432,125,-56,-1,-1,0
1523615818132,-851968,125,-56,-1,-1,0
1523615818132,-917504,125,-56,-1,-1,0
1523615818132,-917504,125,-56,-1,-1,0
1523615818132,-983040,125,-56,-1,-1,0
1523615818185,-1048576,125,-56,-1,-1,0
1523615818185,-983040,125,-56,-1,-1,0
1523615818185,-917504,125,-56,-1,-1,0
1523615818185,-983040,125,-56,-1,-1,0
1523615818185,-1048576,125,-56,-1,-1,0
1523615818212,-1245184,125,-56,-1,-1,0
1523615818212,-1376256,125,-56,-1,-1,0
1523615818212,-1376256,125,-56,-1,-1,0
1523615818212,-1310720,125,-56,-1,-1,0
1523615818212,-1310720,125,-56,-1,-1,0
1523615818252,-1376256,125,-56,-1,-1,0
1523615818252,-1376256,125,-56,-1,-1,0
1523615818252,-196608,125,-56,-1,-1,0
1523615818252,2883584,125,-56,-1,-1,0
1523615818252,6291456,125,-56,-1,-1,0
1523615818294,6291456,125,-56,-1,-1,0
1523615818294,2621440,125,-56,-1,-1,0
1523615818294,-983040,125,-56,-1,-1,0
1523615818294,-2293760,125,-56,-1,-1,0
1523615818294,-2228224,125,-56,-1,-1,0
1523615818333,-1966080,125,-56,-1,-1,0
1523615818333,-1835008,125,-56,-1,-1,0
1523615818333,-1835008,125,-56,-1,-1,0
1523615818333,-1703936,125,-56,-1,-1,0
1523615818333,-1572864,125,-56,-1,-1,0
1523615818372,-1441792,125,-56,-1,-1,0
1523615818372,-1310720,125,-56,-1,-1,0
1523615818372,-1114112,125,-56,-1,-1,0
1523615818372,-917504,125,-56,-1,-1,0
1523615818372,-589824,125,-56,-1,-1,0
1523615818412,-196608,125,-56,-1,-1,0
1523615818412,262144,125,-56,-1,-1,0
1523615818412,786432,125,-56,-1,-1,0
1523615818412,1245184,125,-56,-1,-1,0
1523615818412,1441792,125,-56,-1,-1,0
1523615818452,1376256,125,-56,-1,-1,0
1523615818452,1179648,125,-56,-1,-1,0
1523615818452,786432,125,-56,-1,-1,0
1523615818452,458752,125,-56,-1,-1,0
1523615818452,0,125,-56,-1,-1,0
1523615818492,-327680,125,-56,-1,-1,0
1523615818492,-655360,125,-56,-1,-1,0
1523615818492,-851968,125,-56,-1,-1,0
1523615818492,-983040,125,-56,-1,-1,0
1523615818492,-1114112,125,-56,-1,-1,0
1523615818532,-1179648,123,-56,-1,-1,0
1523615818532,-1114112,123,-56,-1,-1,0
1523615818532,-1048576,123,-56,-1,-1,0
1523615818532,-1114112,123,-56,-1,-1,0
1523615818532,-1114112,123,-56,-1,-1,0
1523615818572,-1048576,123,-56,-1,-1,0
1523615818572,-1048576,123,-56,-1,-1,0
1523615818572,-1114112,123,-56,-1,-1,0
1523615818572,-1179648,123,-56,-1,-1,0
1523615818572,-1310720,123,-56,-1,-1,0
1523615818612,-1310720,123,-56,-1,-1,0
1523615818612,-1376256,123,-56,-1,-1,0
1523615818612,-1441792,123,-56,-1,-1,0
1523615818612,-1441792,123,-56,-1,-1,0
1523615818612,-1376256,123,-56,-1,-1,0
1523615818652,-1376256,123,-56,-1,-1,0
1523615818652,-1376256,123,-56,-1,-1,0
1523615818652,-1376256,123,-56,-1,-1,0
1523615818652,-1441792,123,-56,-1,-1,0
1523615818652,-1441792,123,-56,-1,-1,0
1523615818692,-1507328,123,-56,-1,-1,0
1523615818692,-1572864,123,-56,-1,-1,0
1523615818692,-1638400,123,-56,-1,-1,0
1523615818692,-1572864,123,-56,-1,-1,0
1523615818692,-1507328,123,-56,-1,-1,0
1523615818733,-1507328,123,-56,-1,-1,0
1523615818733,-1638400,123,-56,-1,-1,0
1523615818733,-1376256,123,-56,-1,-1,0
1523615818733,327680,123,-56,-1,-1,0
1523615818733,3866624,123,-56,-1,-1,0
1523615818772,6750208,123,-56,-1,-1,0
1523615818772,5505024,123,-56,-1,-1,0
1523615818772,1376256,123,-56,-1,-1,0
1523615818772,-1835008,123,-56,-1,-1,0
1523615818772,-2555904,123,-56,-1,-1,0
1523615818825,-2228224,123,-56,-1,-1,0
1523615818825,-1900544,123,-56,-1,-1,0
1523615818825,-1703936,123,-56,-1,-1,0
1523615818825,-1638400,123,-56,-1,-1,0
1523615818825,-1572864,123,-56,-1,-1,0
1523615818854,-1441792,123,-56,-1,-1,0
1523615818854,-1310720,123,-56,-1,-1,0
1523615818854,-1179648,123,-56,-1,-1,0
1523615818854,-917504,123,-56,-1,-1,0
1523615818854,-655360,123,-56,-1,-1,0
1523615818892,-196608,123,-56,-1,-1,0
1523615818892,131072,123,-56,-1,-1,0
1523615818892,720896,123,-56,-1,-1,0
1523615818892,1245184,123,-56,-1,-1,0
1523615818892,1703936,123,-56,-1,-1,0
1523615818932,1900544,123,-56,-1,-1,0
1523615818932,1769472,123,-56,-1,-1,0
1523615818932,1441792,123,-56,-1,-1,0
1523615818932,1048576,123,-56,-1,-1,0
1523615818932,589824,123,-56,-1,-1,0
1523615818972,196608,123,-56,-1,-1,0
1523615818972,0,123,-56,-1,-1,0
1523615818972,-262144,123,-56,-1,-1,0
1523615818972,-524288,123,-56,-1,-1,0
1523615818972,-655360,123,-56,-1,-1,0
1523615819012,-720896,123,-56,-1,-1,0
1523615819012,-655360,123,-56,-1,-1,0
1523615819012,-655360,123,-56,-1,-1,0
1523615819012,-589824,123,-56,-1,-1,0
1523615819012,-524288,123,-56,-1,-1,0
1523615819052,-524288,123,-56,-1,-1,0
1523615819052,-458752,123,-56,-1,-1,0
1523615819052,-458752,123,-56,-1,-1,0
1523615819052,-524288,123,-56,-1,-1,0
1523615819052,-589824,123,-56,-1,-1,0
1523615819092,-589824,123,-56,-1,-1,0
1523615819092,-655360,123,-56,-1,-1,0
1523615819092,-720896,123,-56,-1,-1,0
1523615819092,-786432,123,-56,-1,-1,0
1523615819092,-786432,123,-56,-1,-1,0
1523615819132,-786432,123,-56,-1,-1,0
1523615819132,-720896,123,-56,-1,-1,0
1523615819132,-655360,123,-56,-1,-1,0
1523615819132,-589824,123,-56,-1,-1,0
1523615819132,-524288,123,-56,-1,-1,0
1523615819172,-524288,123,-56,-1,-1,0
1523615819172,-655360,123,-56,-1,-1,0
1523615819172,-655360,123,-56,-1,-1,0
1523615819172,-655360,123,-56,-1,-1,0
1523615819172,-655360,123,-56,-1,-1,0
1523615819212,-655360,123,-56,-1,-1,0
1523615819212,-589824,123,-56,-1,-1,0
1523615819212,-655360,123,-56,-1,-1,0
1523615819212,-589824,123,-56,-1,-1,0
1523615819212,655360,123,-56,-1,-1,0
1523615819252,3997696,123,-56,-1,-1,0
1523615819252,7405568,123,-56,-1,-1,0
1523615819252,7274496,123,-56,-1,-1,0
1523615819252,3670016,123,-56,-1,-1,0
1523615819252,131072,123,-56,-1,-1,0
1523615819292,-1048576,123,-56,-1,-1,0
1523615819292,-1048576,123,-56,-1,-1,0
1523615819292,-786432,123,-56,-1,-1,0
1523615819292,-720896,123,-56,-1,-1,0
1523615819292,-720896,123,-56,-1,-1,0
1523615819332,-655360,123,-56,-1,-1,0
1523615819332,-524288,123,-56,-1,-1,0
1523615819332,-458752,123,-56,-1,-1,0
1523615819332,-262144,123,-56,-1,-1,0
1523615819332,-131072,123,-56,-1,-1,0
1523615819374,0,123,-56,-1,-1,0
1523615819374,327680,123,-56,-1,-1,0
1523615819374,720896,123,-56,-1,-1,0
1523615819374,1179648,123,-56,-1,-1,0
1523615819374,1638400,123,-56,-1,-1,0
1523615819412,2031616,123,-56,-1,-1,0
1523615819412,2228224,123,-56,-1,-1,0
1523615819412,2228224,123,-56,-1,-1,0
1523615819412,1966080,123,-56,-1,-1,0
1523615819412,1638400,123,-56,-1,-1,0
1523615819465,1245184,123,-56,-1,-1,0
1523615819465,786432,123,-56,-1,-1,0
1523615819465,458752,123,-56,-1,-1,0
1523615819465,262144,123,-56,-1,-1,0
1523615819465,131072,123,-56,-1,-1,0
1523615819492,0,123,-56,-1,-1,0
1523615819492,0,123,-56,-1,-1,0
1523615819492,0,123,-56,-1,-1,0
1523615819492,0,123,-56,-1,-1,0
1523615819492,0,123,-56,-1,-1,0
1523615819532,65536,123,-56,-1,-1,0
1523615819532,65536,123,-56,-1,-1,0
1523615819532,65536,123,-56,-1,-1,0
1523615819532,65536,123,-56,-1,-1,0
1523615819532,65536,123,-56,-1,-1,0
1523615819572,0,123,-56,-1,-1,0
1523615819572,0,123,-56,-1,-1,0
1523615819572,0,123,-56,-1,-1,0
1523615819572,-65536,123,-56,-1,-1,0
1523615819572,-131072,123,-56,-1,-1,0
1523615819612,-196608,123,-56,-1,-1,0
1523615819612,-196608,123,-56,-1,-1,0
1523615819612,-196608,123,-56,-1,-1,0
1523615819612,-196608,123,-56,-1,-1,0
1523615819612,-65536,123,-56,-1,-1,0
1523615819652,0,123,-56,-1,-1,0
1523615819652,-65536,123,-56,-1,-1,0
1523615819652,-65536,123,-56,-1,-1,0
1523615819652,-131072,123,-56,-1,-1,0
1523615819652,-196608,123,-56,-1,-1,0
1523615819692,-327680,123,-56,-1,-1,0
1523615819692,-327680,123,-56,-1,-1,0
1523615819692,-327680,123,-56,-1,-1,0
1523615819692,-327680,123,-56,-1,-1,0
1523615819692,-393216,123,-56,-1,-1,0
1523615819732,-327680,123,-56,-1,-1,0
1523615819732,786432,123,-56,-1,-1,0
1523615819732,3932160,123,-56,-1,-1,0
1523615819732,7012352,123,-56,-1,-1,0
1523615819732,6815744,123,-56,-1,-1,0
1523615819772,3473408,123,-56,-1,-1,0
1523615819772,196608,123,-56,-1,-1,0
1523615819772,-851968,123,-56,-1,-1,0
1523615819772,-786432,123,-56,-1,-1,0
1523615819772,-589824,123,-56,-1,-1,0
1523615819812,-589824,123,-56,-1,-1,0
1523615819812,-589824,123,-56,-1,-1,0
1523615819812,-524288,123,-56,-1,-1,0
1523615819812,-393216,123,-56,-1,-1,0
1523615819812,-262144,123,-56,-1,-1,0
1523615819852,-131072,123,-56,-1,-1,0
1523615819852,0,123,-56,-1,-1,0
1523615819852,196608,123,-56,-1,-1,0
1523615819852,458752,123,-56,-1,-1,0
1523615819852,851968,123,-56,-1,-1,0
1523615819892,1376256,123,-56,-1,-1,0
1523615819892,1835008,123,-56,-1,-1,0
1523615819892,2228224,123,-56,-1,-1,0
1523615819892,2424832,123,-56,-1,-1,0
1523615819892,2424832,123,-56,-1,-1,0
1523615819932,2228224,123,-56,-1,-1,0
1523615819932,1835008,123,-56,-1,-1,0
1523615819932,1376256,123,-56,-1,-1,0
1523615819932,983040,123,-56,-1,-1,0
1523615819932,655360,123,-56,-1,-1,0
1523615819972,393216,123,-56,-1,-1,0
1523615819972,131072,123,-56,-1,-1,0
1523615819972,0,123,-56,-1,-1,0
1523615819972,-65536,123,-56,-1,-1,0
1523615819972,-131072,123,-56,-1,-1,0
1523615820012,-65536,122,-56,-1,-1,0
1523615820012,-65536,122,-56,-1,-1,0
1523615820012,-65536,122,-56,-1,-1,0
1523615820012,-65536,122,-56,-1,-1,0
1523615820012,-131072,122,-56,-1,-1,0
1523615820052,-131072,122,-56,-1,-1,0
1523615820052,-196608,122,-56,-1,-1,0
1523615820052,-262144,122,-56,-1,-1,0
1523615820052,-327680,122,-56,-1,-1,0
1523615820052,-458752,122,-56,-1,-1,0
1523615820105,-524288,122,-56,-1,-1,0
1523615820105,-589824,122,-56,-1,-1,0
1523615820105,-655360,122,-56,-1,-1,0
1523615820105,-720896,122,-56,-1,-1,0
1523615820105,-786432,122,-56,-1,-1,0
1523615820132,-655360,122,-56,-1,-1,0
1523615820132,-655360,122,-56,-1,-1,0
1523615820132,-589824,122,-56,-1,-1,0
1523615820132,-655360,122,-56,-1,-1,0
1523615820132,-786432,122,-56,-1,-1,0
1523615820172,-786432,122,-56,-1,-1,0
1523615820172,-851968,122,-56,-1,-1,0
1523615820172,-917504,122,-56,-1,-1,0
1523615820172,-983040,122,-56,-1,-1,0
1523615820172,-983040,122,-56,-1,-1,0
1523615820212,-917504,122,-56,-1,-1,0
1523615820212,-983040,122,-56,-1,-1,0
1523615820212,-1179648,122,-56,-1,-1,0
1523615820212,-917504,122,-56,-1,-1,0
1523615820212,917504,122,-56,-1,-1,0
1523615820252,4653056,122,-56,-1,-1,0
1523615820252,7274496,122,-56,-1,-1,0
1523615820252,5570560,122,-56,-1,-1,0
1523615820252,1376256,122,-56,-1,-1,0
1523615820252,-1638400,122,-56,-1,-1,0
1523615820292,-2228224,122,-56,-1,-1,0
1523615820292,-1900544,122,-56,-1,-1,0
1523615820292,-1572864,122,-56,-1,-1,0
1523615820292,-1441792,122,-56,-1,-1,0
1523615820292,-1376256,122,-56,-1,-1,0
1523615820332,-1310720,122,-56,-1,-1,0
1523615820332,-1310720,122,-56,-1,-1,0
1523615820332,-1245184,122,-56,-1,-1,0
1523615820332,-1048576,122,-56,-1,-1,0
1523615820332,-786432,122,-56,-1,-1,0
1523615820372,-524288,122,-56,-1,-1,0
1523615820372,-131072,122,-56,-1,-1,0
1523615820372,196608,122,-56,-1,-1,0
1523615820372,720896,122,-56,-1,-1,0
1523615820372,1310720,122,-56,-1,-1,0
1523615820412,1703936,122,-56,-1,-1,0
1523615820412,1900544,122,-56,-1,-1,0
1523615820412,1769472,122,-56,-1,-1,0
1523615820412,1572864,122,-56,-1,-1,0
1523615820412,1114112,122,-56,-1,-1,0
1523615820452,589824,122,-56,-1,-1,0
1523615820452,65536,122,-56,-1,-1,0
1523615820452,-196608,122,-56,-1,-1,0
1523615820452,-524288,122,-56,-1,-1,0
1523615820452,-720896,122,-56,-1,-1,0
1523615820493,-917504,122,-56,-1,-1,0
1523615820493,-917504,122,-56,-1,-1,0
1523615820493,-983040,122,-56,-1,-1,0
1523615820493,-983040,122,-56,-1,-1,0
1523615820493,-917504,122,-56,-1,-1,0
1523615820532,-917504,122,-56,-1,-1,0
1523615820532,-917504,122,-56,-1,-1,0
1523615820532,-917504,122,-56,-1,-1,0
1523615820532,-917504,122,-56,-1,-1,0
1523615820532,-983040,122,-56,-1,-1,0
1523615820573,-1048576,122,-56,-1,-1,0
1523615820573,-1114112,122,-56,-1,-1,0
1523615820573,-1114112,122,-56,-1,-1,0
1523615820573,-1245184,122,-56,-1,-1,0
1523615820573,-1310720,122,-56,-1,-1,0
1523615820612,-1376256,122,-56,-1,-1,0
1523615820612,-1376256,122,-56,-1,-1,0
1523615820612,-1376256,122,-56,-1,-1,0
1523615820612,-1376256,122,-56,-1,-1,0
1523615820612,-1376256,122,-56,-1,-1,0
1523615820653,-1245184,122,-56,-1,-1,0
1523615820653,-1245184,122,-56,-1,-1,0
1523615820653,-1245184,122,-56,-1,-1,0
1523615820653,-1310720,122,-56,-1,-1,0
1523615820653,-1310720,122,-56,-1,-1,0
1523615820692,-1441792,122,-56,-1,-1,0
1523615820692,-1507328,122,-56,-1,-1,0
1523615820692,-1507328,122,-56,-1,-1,0
1523615820692,-1441792,122,-56,-1,-1,0
1523615820692,-1507328,122,-56,-1,-1,0
1523615820745,-1507328,122,-56,-1,-1,0
1523615820745,-196608,122,-56,-1,-1,0
1523615820745,3211264,122,-56,-1,-1,0
1523615820745,6750208,122,-56,-1,-1,0
1523615820745,6750208,122,-56,-1,-1,0
1523615820772,2949120,122,-56,-1,-1,0
1523615820772,-917504,122,-56,-1,-1,0
1523615820772,-2162688,122,-56,-1,-1,0
1523615820772,-2097152,122,-56,-1,-1,0
1523615820772,-1769472,122,-56,-1,-1,0
1523615820812,-1638400,122,-56,-1,-1,0
1523615820812,-1507328,122,-56,-1,-1,0
1523615820812,-1441792,122,-56,-1,-1,0
1523615820812,-1310720,122,-56,-1,-1,0
1523615820812,-1179648,122,-56,-1,-1,0
1523615820852,-983040,122,-56,-1,-1,0
1523615820852,-851968,122,-56,-1,-1,0
1523615820852,-589824,122,-56,-1,-1,0
1523615820852,-262144,122,-56,-1,-1,0
1523615820852,131072,122,-56,-1,-1,0
1523615820892,655360,122,-56,-1,-1,0
1523615820892,1179648,122,-56,-1,-1,0
1523615820892,1638400,122,-56,-1,-1,0
1523615820892,1835008,122,-56,-1,-1,0
1523615820892,1900544,122,-56,-1,-1,0
1523615820932,1703936,122,-56,-1,-1,0
1523615820932,1310720,122,-56,-1,-1,0
1523615820932,786432,122,-56,-1,-1,0
1523615820932,327680,122,-56,-1,-1,0
1523615820932,0,122,-56,-1,-1,0
1523615820973,-262144,122,-56,-1,-1,0
1523615820973,-458752,122,-56,-1,-1,0
1523615820973,-655360,122,-56,-1,-1,0
1523615820973,-720896,122,-56,-1,-1,0
1523615820973,-720896,122,-56,-1,-1,0
1523615821012,-720896,122,-56,-1,-1,0
1523615821012,-655360,122,-56,-1,-1,0
1523615821012,-655360,122,-56,-1,-1,0
1523615821012,-589824,122,-56,-1,-1,0
1523615821012,-655360,122,-56,-1,-1,0
1523615821052,-655360,122,-56,-1,-1,0
1523615821052,-720896,122,-56,-1,-1,0
1523615821052,-720896,122,-56,-1,-1,0
1523615821052,-786432,122,-56,-1,-1,0
1523615821052,-851968,122,-56,-1,-1,0
1523615821092,-917504,122,-56,-1,-1,0
1523615821092,-983040,122,-56,-1,-1,0
1523615821092,-1048576,122,-56,-1,-1,0
1523615821092,-1114112,122,-56,-1,-1,0
1523615821092,-1114112,122,-56,-1,-1,0
1523615821133,-1114112,122,-56,-1,-1,0
1523615821133,-1048576,122,-56,-1,-1,0
1523615821133,-983040,122,-56,-1,-1,0
1523615821133,-917504,122,-56,-1,-1,0
1523615821133,-851968,122,-56,-1,-1,0
1523615821172,-851968,122,-56,-1,-1,0
1523615821172,-983040,122,-56,-1,-1,0
1523615821172,-1048576,122,-56,-1,-1,0
1523615821172,-1114112,122,-56,-1,-1,0
1523615821172,-1114112,122,-56,-1,-1,0
1523615821213,-1114112,122,-56,-1,-1,0
1523615821213,-1048576,122,-56,-1,-1,0
1523615821213,-1114112,122,-56,-1,-1,0
1523615821213,-1114112,122,-56,-1,-1,0
1523615821213,-196608,122,-56,-1,-1,0
1523615821252,2752512,122,-56,-1,-1,0
1523615821252,6356992,122,-56,-1,-1,0
1523615821252,7208960,122,-56,-1,-1,0
1523615821252,4063232,122,-56,-1,-1,0
1523615821252,196608,122,-56,-1,-1,0
1523615821293,-1507328,122,-56,-1,-1,0
1523615821293,-1572864,122,-56,-1,-1,0
1523615821293,-1310720,122,-56,-1,-1,0
1523615821293,-1179648,122,-56,-1,-1,0
1523615821293,-1114112,122,-56,-1,-1,0
1523615821332,-1048576,122,-56,-1,-1,0
1523615821332,-983040,122,-56,-1,-1,0
1523615821332,-851968,122,-56,-1,-1,0
1523615821332,-720896,122,-56,-1,-1,0
1523615821332,-524288,122,-56,-1,-1,0
1523615821385,-327680,122,-56,-1,-1,0
1523615821385,0,122,-56,-1,-1,0
1523615821385,327680,122,-56,-1,-1,0
1523615821385,720896,122,-56,-1,-1,0
1523615821385,1245184,122,-56,-1,-1,0
1523615821412,1769472,122,-56,-1,-1,0
1523615821412,2031616,122,-56,-1,-1,0
1523615821412,1966080,122,-56,-1,-1,0
1523615821412,1703936,122,-56,-1,-1,0
1523615821412,1376256,122,-56,-1,-1,0
1523615821453,1048576,122,-56,-1,-1,0
1523615821453,655360,122,-56,-1,-1,0
1523615821453,327680,122,-56,-1,-1,0
1523615821453,65536,122,-56,-1,-1,0
1523615821453,0,122,-56,-1,-1,0
1523615821492,-65536,122,-56,-1,-1,0
1523615821492,-196608,122,-56,-1,-1,0
1523615821492,-196608,122,-56,-1,-1,0
1523615821492,-131072,122,-56,-1,-1,0
1523615821492,-131072,122,-56,-1,-1,0
1523615821533,-65536,122,-56,-1,-1,0
1523615821533,-65536,122,-56,-1,-1,0
1523615821533,0,122,-56,-1,-1,0
1523615821533,0,122,-56,-1,-1,0
1523615821533,-65536,122,-56,-1,-1,0
1523615821572,-65536,122,-56,-1,-1,0
1523615821572,-65536,122,-56,-1,-1,0
1523615821572,-131072,122,-56,-1,-1,0
1523615821572,-196608,122,-56,-1,-1,0
1523615821572,-196608,122,-56,-1,-1,0
1523615821613,-262144,122,-56,-1,-1,0
1523615821613,-327680,122,-56,-1,-1,0
1523615821613,-393216,122,-56,-1,-1,0
1523615821613,-393216,122,-56,-1,-1,0
1523615821613,-393216,122,-56,-1,-1,0
1523615821652,-393216,122,-56,-1,-1,0
1523615821652,-327680,122,-56,-1,-1,0
1523615821652,-196608,122,-56,-1,-1,0
1523615821652,-131072,122,-56,-1,-1,0
1523615821652,-196608,122,-56,-1,-1,0
1523615821693,-262144,122,-56,-1,-1,0
1523615821693,-393216,122,-56,-1,-1,0
1523615821693,-393216,122,-56,-1,-1,0
1523615821693,-262144,122,-56,-1,-1,0
1523615821693,-196608,122,-56,-1,-1,0
1523615821732,-262144,122,-56,-1,-1,0
1523615821732,-262144,122,-56,-1,-1,0
1523615821732,-393216,122,-56,-1,-1,0
1523615821732,0,122,-56,-1,-1,0
1523615821732,2162688,122,-56,-1,-1,0
1523615821773,5832704,122,-56,-1,-1,0
1523615821773,7733248,122,-56,-1,-1,0
1523615821773,5767168,122,-56,-1,-1,0
1523615821773,2031616,122,-56,-1,-1,0
1523615821773,-196608,122,-56,-1,-1,0
1523615821813,-720896,122,-56,-1,-1,0
1523615821813,-589824,122,-56,-1,-1,0
1523615821813,-458752,122,-56,-1,-1,0
1523615821813,-393216,122,-56,-1,-1,0
1523615821813,-327680,122,-56,-1,-1,0
1523615821853,-262144,122,-56,-1,-1,0
1523615821853,-196608,122,-56,-1,-1,0
1523615821853,-65536,122,-56,-1,-1,0
1523615821853,0,122,-56,-1,-1,0
1523615821853,65536,122,-56,-1,-1,0
1523615821893,327680,122,-56,-1,-1,0
1523615821893,720896,122,-56,-1,-1,0
1523615821893,1179648,122,-56,-1,-1,0
1523615821893,1572864,122,-56,-1,-1,0
1523615821893,1900544,122,-56,-1,-1,0
1523615821933,2162688,122,-56,-1,-1,0
1523615821933,2293760,122,-56,-1,-1,0
1523615821933,2228224,122,-56,-1,-1,0
1523615821933,1966080,122,-56,-1,-1,0
1523615821933,1572864,122,-56,-1,-1,0
1523615821973,1245184,122,-56,-1,-1,0
1523615821973,983040,122,-56,-1,-1,0
1523615821973,655360,122,-56,-1,-1,0
1523615821973,393216,122,-56,-1,-1,0
1523615821973,262144,122,-56,-1,-1,0
1523615822025,131072,122,-56,-1,-1,0
1523615822025,65536,122,-56,-1,-1,0
1523615822025,65536,122,-56,-1,-1,0
1523615822025,131072,122,-56,-1,-1,0
1523615822025,131072,122,-56,-1,-1,0
1523615822052,131072,121,-56,-1,-1,0
1523615822052,131072,121,-56,-1,-1,0
1523615822052,0,121,-56,-1,-1,0
1523615822052,0,121,-56,-1,-1,0
1523615822052,0,121,-56,-1,-1,0
1523615822093,-65536,121,-56,-1,-1,0
1523615822093,-131072,121,-56,-1,-1,0
1523615822093,-196608,121,-56,-1,-1,0
1523615822093,-262144,121,-56,-1,-1,0
1523615822093,-327680,121,-56,-1,-1,0
1523615822132,-393216,121,-56,-1,-1,0
1523615822132,-458752,121,-56,-1,-1,0
1523615822132,-458752,121,-56,-1,-1,0
1523615822132,-458752,121,-56,-1,-1,0
1523615822132,-458752,121,-56,-1,-1,0
1523615822173,-458752,121,-56,-1,-1,0
1523615822173,-393216,121,-56,-1,-1,0
1523615822173,-393216,121,-56,-1,-1,0
1523615822173,-393216,121,-56,-1,-1,0
1523615822173,-458752,121,-56,-1,-1,0
1523615822213,-589824,121,-56,-1,-1,0
1523615822213,-655360,121,-56,-1,-1,0
1523615822213,-655360,121,-56,-1,-1,0
1523615822213,-655360,121,-56,-1,-1,0
1523615822213,-655360,121,-56,-1,-1,0
1523615822253,-720896,121,-56,-1,-1,0
1523615822253,-851968,121,-56,-1,-1,0
1523615822253,-458752,121,-56,-1,-1,0
1523615822253,1507328,121,-56,-1,-1,0
1523615822253,5046272,121,-56,-1,-1,0
1523615822292,7077888,121,-56,-1,-1,0
1523615822292,5111808,121,-56,-1,-1,0
1523615822292,1114112,121,-56,-1,-1,0
1523615822292,-1441792,121,-56,-1,-1,0
1523615822292,-1769472,121,-56,-1,-1,0
1523615822333,-1441792,121,-56,-1,-1,0
1523615822333,-1245184,121,-56,-1,-1,0
1523615822333,-1114112,121,-56,-1,-1,0
1523615822333,-983040,121,-56,-1,-1,0
1523615822333,-917504,121,-56,-1,-1,0
1523615822373,-851968,121,-56,-1,-1,0
1523615822373,-720896,121,-56,-1,-1,0
1523615822373,-589824,121,-56,-1,-1,0
1523615822373,-327680,121,-56,-1,-1,0
1523615822373,0,121,-56,-1,-1,0
1523615822413,327680,121,-56,-1,-1,0
1523615822413,720896,121,-56,-1,-1,0
1523615822413,1114112,121,-56,-1,-1,0
1523615822413,1572864,121,-56,-1,-1,0
1523615822413,1966080,121,-56,-1,-1,0
1523615822453,2162688,121,-56,-1,-1,0
1523615822453,2162688,121,-56,-1,-1,0
1523615822453,1966080,121,-56,-1,-1,0
1523615822453,1507328,121,-56,-1,-1,0
1523615822453,1048576,121,-56,-1,-1,0
1523615822493,524288,121,-56,-1,-1,0
1523615822493,131072,121,-56,-1,-1,0
1523615822493,-65536,121,-56,-1,-1,0
1523615822493,-196608,121,-56,-1,-1,0
1523615822493,-393216,121,-56,-1,-1,0
1523615822533,-589824,121,-56,-1,-1,0
1523615822533,-655360,121,-56,-1,-1,0
1523615822533,-655360,121,-56,-1,-1,0
1523615822533,-589824,121,-56,-1,-1,0
1523615822533,-524288,121,-56,-1,-1,0
1523615822573,-524288,121,-56,-1,-1,0
1523615822573,-524288,121,-56,-1,-1,0
1523615822573,-655360,121,-56,-1,-1,0
1523615822573,-720896,121,-56,-1,-1,0
1523615822573,-786432,121,-56,-1,-1,0
1523615822613,-786432,121,-56,-1,-1,0
1523615822613,-851968,121,-56,-1,-1,0
1523615822613,-1048576,121,-56,-1,-1,0
1523615822613,-1114112,121,-56,-1,-1,0
1523615822613,-1114112,121,-56,-1,-1,0
1523615822665,-1179648,121,-56,-1,-1,0
1523615822665,-1179648,121,-56,-1,-1,0
1523615822665,-1179648,121,-56,-1,-1,0
1523615822665,-1179648,121,-56,-1,-1,0
1523615822665,-1114112,121,-56,-1,-1,0
1523615822692,-1114112,121,-56,-1,-1,0
1523615822692,-1179648,121,-56,-1,-1,0
1523615822692,-1310720,121,-56,-1,-1,0
1523615822692,-1441792,121,-56,-1,-1,0
1523615822692,-1507328,121,-56,-1,-1,0
1523615822733,-1507328,121,-56,-1,-1,0
1523615822733,-1441792,121,-56,-1,-1,0
1523615822733,-1441792,121,-56,-1,-1,0
1523615822733,-1572864,121,-56,-1,-1,0
1523615822733,-1441792,121,-56,-1,-1,0
1523615822773,131072,121,-56,-1,-1,0
1523615822773,3801088,121,-56,-1,-1,0
1523615822773,6881280,121,-56,-1,-1,0
1523615822773,5832704,121,-56,-1,-1,0
1523615822773,1703936,121,-56,-1,-1,0
1523615822813,-1638400,121,-56,-1,-1,0
1523615822813,-2490368,121,-56,-1,-1,0
1523615822813,-2293760,121,-56,-1,-1,0
1523615822813,-2031616,121,-56,-1,-1,0
1523615822813,-1835008,121,-56,-1,-1,0
1523615822853,-1703936,121,-56,-1,-1,0
1523615822853,-1638400,121,-56,-1,-1,0
1523615822853,-1572864,121,-56,-1,-1,0
1523615822853,-1441792,121,-56,-1,-1,0
1523615822853,-1310720,121,-56,-1,-1,0
1523615822893,-1048576,121,-56,-1,-1,0
1523615822893,-786432,121,-56,-1,-1,0
1523615822893,-393216,121,-56,-1,-1,0
1523615822893,0,121,-56,-1,-1,0
1523615822893,458752,121,-56,-1,-1,0
1523615822933,983040,121,-56,-1,-1,0
1523615822933,1507328,121,-56,-1,-1,0
1523615822933,1769472,121,-56,-1,-1,0
1523615822933,1638400,121,-56,-1,-1,0
1523615822933,1376256,121,-56,-1,-1,0
1523615822973,983040,121,-56,-1,-1,0
1523615822973,589824,121,-56,-1,-1,0
1523615822973,131072,121,-56,-1,-1,0
1523615822973,-196608,121,-56,-1,-1,0
1523615822973,-524288,121,-56,-1,-1,0
1523615823013,-786432,121,-56,-1,-1,0
1523615823013,-917504,121,-56,-1,-1,0
1523615823013,-1048576,121,-56,-1,-1,0
1523615823013,-1048576,121,-56,-1,-1,0
1523615823013,-1048576,121,-56,-1,-1,0
1523615823053,-983040,121,-56,-1,-1,0
1523615823053,-983040,121,-56,-1,-1,0
1523615823053,-917504,121,-56,-1,-1,0
1523615823053,-917504,121,-56,-1,-1,0
1523615823053,-917504,121,-56,-1,-1,0
1523615823093,-917504,121,-56,-1,-1,0
1523615823093,-917504,121,-56,-1,-1,0
1523615823093,-983040,121,-56,-1,-1,0
1523615823093,-1114112,121,-56,-1,-1,0
1523615823093,-1179648,121,-56,-1,-1,0
1523615823132,-1245184,121,-56,-1,-1,0
1523615823132,-1245184,121,-56,-1,-1,0
1523615823132,-1245184,121,-56,-1,-1,0
1523615823132,-1245184,121,-56,-1,-1,0
1523615823132,-1179648,121,-56,-1,-1,0
1523615823172,-1114112,121,-56,-1,-1,0
1523615823172,-1114112,121,-56,-1,-1,0
1523615823172,-1245184,121,-56,-1,-1,0
1523615823172,-1310720,121,-56,-1,-1,0
1523615823172,-1310720,121,-56,-1,-1,0
1523615823212,-1310720,121,-56,-1,-1,0
1523615823212,-1376256,121,-56,-1,-1,0
1523615823212,-1310720,121,-56,-1,-1,0
1523615823212,-1310720,121,-56,-1,-1,0
1523615823212,-1441792,121,-56,-1,-1,0
1523615823252,-1179648,121,-56,-1,-1,0
1523615823252,786432,121,-56,-1,-1,0
1523615823252,4653056,121,-56,-1,-1,0
1523615823252,7536640,121,-56,-1,-1,0
1523615823252,6094848,121,-56,-1,-1,0
1523615823305,1835008,121,-56,-1,-1,0
1523615823305,-1376256,121,-56,-1,-1,0
1523615823305,-2097152,121,-56,-1,-1,0
1523615823305,-1900544,121,-56,-1,-1,0
1523615823305,-1638400,121,-56,-1,-1,0
1523615823332,-1507328,121,-56,-1,-1,0
1523615823332,-1376256,121,-56,-1,-1,0
1523615823332,-1310720,121,-56,-1,-1,0
1523615823332,-1245184,121,-56,-1,-1,0
1523615823332,-1114112,121,-56,-1,-1,0
1523615823372,-917504,121,-56,-1,-1,0
1523615823372,-720896,121,-56,-1,-1,0
1523615823372,-458752,121,-56,-1,-1,0
1523615823372,-196608,121,-56,-1,-1,0
1523615823372,196608,121,-56,-1,-1,0
1523615823412,720896,121,-56,-1,-1,0
1523615823412,1245184,121,-56,-1,-1,0
1523615823412,1703936,121,-56,-1,-1,0
1523615823412,1900544,121,-56,-1,-1,0
1523615823412,1835008,121,-56,-1,-1,0
1523615823452,1572864,121,-56,-1,-1,0
1523615823452,1114112,121,-56,-1,-1,0
1523615823452,655360,121,-56,-1,-1,0
1523615823452,196608,121,-56,-1,-1,0
1523615823452,-65536,121,-56,-1,-1,0
1523615823492,-327680,121,-56,-1,-1,0
1523615823492,-524288,121,-56,-1,-1,0
1523615823492,-589824,121,-56,-1,-1,0
1523615823492,-655360,121,-56,-1,-1,0
1523615823492,-720896,121,-56,-1,-1,0
1523615823532,-720896,121,-56,-1,-1,0
1523615823532,-655360,121,-56,-1,-1,0
1523615823532,-589824,121,-56,-1,-1,0
1523615823532,-589824,121,-56,-1,-1,0
1523615823532,-524288,121,-56,-1,-1,0
1523615823572,-589824,121,-56,-1,-1,0
1523615823572,-589824,121,-56,-1,-1,0
1523615823572,-589824,121,-56,-1,-1,0
1523615823572,-589824,121,-56,-1,-1,0
1523615823572,-720896,121,-56,-1,-1,0
1523615823612,-786432,121,-56,-1,-1,0
1523615823612,-851968,121,-56,-1,-1,0
1523615823612,-851968,121,-56,-1,-1,0
1523615823612,-786432,121,-56,-1,-1,0
1523615823612,-786432,121,-56,-1,-1,0
1523615823652,-720896,121,-56,-1,-1,0
1523615823652,-655360,121,-56,-1,-1,0
1523615823652,-655360,121,-56,-1,-1,0
1523615823652,-720896,121,-56,-1,-1,0
1523615823652,-851968,121,-56,-1,-1,0
1523615823692,-917504,121,-56,-1,-1,0
1523615823692,-851968,121,-56,-1,-1,0
1523615823692,-851968,121,-56,-1,-1,0
1523615823692,-786432,121,-56,-1,-1,0
1523615823692,-851968,121,-56,-1,-1,0
1523615823732,-983040,121,-56,-1,-1,0
1523615823732,-458752,121,-56,-1,-1,0
1523615823732,1966080,121,-56,-1,-1,0
1523615823732,5832704,121,-56,-1,-1,0
1523615823732,7864320,121,-56,-1,-1,0
1523615823772,5701632,121,-56,-1,-1,0
1523615823772,1769472,121,-56,-1,-1,0
1523615823772,-655360,121,-56,-1,-1,0
1523615823772,-1245184,121,-56,-1,-1,0
1523615823772,-1114112,121,-56,-1,-1,0
1523615823812,-1048576,121,-56,-1,-1,0
1523615823812,-1048576,121,-56,-1,-1,0
1523615823812,-983040,121,-56,-1,-1,0
1523615823812,-917504,121,-56,-1,-1,0
1523615823812,-851968,121,-56,-1,-1,0
1523615823852,-720896,121,-56,-1,-1,0
1523615823852,-589824,121,-56,-1,-1,0
1523615823852,-393216,121,-56,-1,-1,0
1523615823852,-196608,121,-56,-1,-1,0
1523615823852,65536,121,-56,-1,-1,0
1523615823892,458752,121,-56,-1,-1,0
1523615823892,917504,121,-56,-1,-1,0
1523615823892,1376256,121,-56,-1,-1,0
1523615823892,1703936,121,-56,-1,-1,0
1523615823892,1769472,121,-56,-1,-1,0
1523615823945,1703936,121,-56,-1,-1,0
1523615823945,1441792,121,-56,-1,-1,0
1523615823945,1048576,121,-56,-1,-1,0
1523615823945,655360,121,-56,-1,-1,0
1523615823945,327680,121,-56,-1,-1,0
1523615823972,65536,121,-56,-1,-1,0
1523615823972,-65536,121,-56,-1,-1,0
1523615823972,-196608,121,-56,-1,-1,0
1523615823972,-262144,121,-56,-1,-1,0
1523615823972,-262144,121,-56,-1,-1,0
1523615824012,-327680,121,-56,-1,-1,0
1523615824012,-262144,121,-56,-1,-1,0
1523615824012,-196608,121,-56,-1,-1,0
1523615824012,-131072,121,-56,-1,-1,0
1523615824012,-131072,121,-56,-1,-1,0
1523615824052,-131072,121,-56,-1,-1,0
1523615824052,-131072,121,-56,-1,-1,0
1523615824052,-131072,121,-56,-1,-1,0
1523615824052,-131072,121,-56,-1,-1,0
1523615824052,-131072,121,-56,-1,-1,0
1523615824092,-196608,121,-56,-1,-1,0
1523615824092,-262144,121,-56,-1,-1,0
1523615824092,-327680,121,-56,-1,-1,0
1523615824092,-327680,121,-56,-1,-1,0
1523615824092,-393216,121,-56,-1,-1,0
1523615824132,-327680,121,-56,-1,-1,0
1523615824132,-196608,121,-56,-1,-1,0
1523615824132,-196608,121,-56,-1,-1,0
1523615824132,-262144,121,-56,-1,-1,0
1523615824132,-327680,121,-56,-1,-1,0
1523615824172,-393216,121,-56,-1,-1,0
1523615824172,-458752,121,-56,-1,-1,0
1523615824172,-458752,121,-56,-1,-1,0
1523615824172,-458752,121,-56,-1,-1,0
1523615824172,-458752,121,-56,-1,-1,0
1523615824212,-458752,121,-56,-1,-1,0
1523615824212,-524288,121,-56,-1,-1,0
1523615824212,-196608,121,-56,-1,-1,0
1523615824212,1703936,121,-56,-1,-1,0
1523615824212,5242880,121,-56,-1,-1,0
1523615824252,7471104,121,-56,-1,-1,0
1523615824252,5832704,121,-56,-1,-1,0
1523615824252,2162688,121,-56,-1,-1,0
1523615824252,-393216,121,-56,-1,-1,0
1523615824252,-917504,121,-56,-1,-1,0
1523615824292,-786432,121,-56,-1,-1,0
1523615824292,-655360,121,-56,-1,-1,0
1523615824292,-589824,121,-56,-1,-1,0
1523615824292,-524288,121,-56,-1,-1,0
1523615824292,-458752,121,-56,-1,-1,0
1523615824332,-327680,121,-56,-1,-1,0
1523615824332,-196608,121,-56,-1,-1,0
1523615824332,-65536,121,-56,-1,-1,0
1523615824332,65536,121,-56,-1,-1,0
1523615824332,393216,121,-56,-1,-1,0
1523615824372,786432,121,-56,-1,-1,0
1523615824372,1179648,121,-56,-1,-1,0
1523615824372,1703936,121,-56,-1,-1,0
1523615824372,2162688,121,-56,-1,-1,0
1523615824372,2490368,121,-56,-1,-1,0
1523615824412,2621440,121,-56,-1,-1,0
1523615824412,2621440,121,-56,-1,-1,0
1523615824412,2359296,121,-56,-1,-1,0
1523615824412,2031616,121,-56,-1,-1,0
1523615824412,1572864,121,-56,-1,-1,0
1523615824452,1114112,121,-56,-1,-1,0
1523615824452,720896,121,-56,-1,-1,0
1523615824452,393216,121,-56,-1,-1,0
1523615824452,131072,121,-56,-1,-1,0
1523615824452,0,121,-56,-1,-1,0
1523615824492,0,121,-56,-1,-1,0
1523615824492,0,121,-56,-1,-1,0
1523615824492,0,121,-56,-1,-1,0
1523615824492,65536,121,-56,-1,-1,0
1523615824492,65536,121,-56,-1,-1,0
1523615824532,0,121,-56,-1,-1,0
1523615824532,-65536,121,-56,-1,-1,0
1523615824532,-131072,121,-56,-1,-1,0
1523615824532,-65536,121,-56,-1,-1,0
1523615824532,-65536,121,-56,-1,-1,0
1523615824585,-131072,121,-56,-1,-1,0
1523615824585,-196608,121,-56,-1,-1,0
1523615824585,-393216,121,-56,-1,-1,0
1523615824585,-458752,121,-56,-1,-1,0
1523615824585,-524288,121,-56,-1,-1,0
1523615824612,-524288,121,-56,-1,-1,0
1523615824612,-393216,121,-56,-1,-1,0
1523615824612,-327680,121,-56,-1,-1,0
1523615824612,-458752,121,-56,-1,-1,0
1523615824612,-524288,121,-56,-1,-1,0
1523615824652,-655360,121,-56,-1,-1,0
1523615824652,-720896,121,-56,-1,-1,0
1523615824652,-851968,121,-56,-1,-1,0
1523615824652,-851968,121,-56,-1,-1,0
1523615824652,-786432,121,-56,-1,-1,0
1523615824692,-786432,121,-56,-1,-1,0
1523615824692,-851968,121,-56,-1,-1,0
1523615824692,-917504,121,-56,-1,-1,0
1523615824692,-327680,121,-56,-1,-1,0
1523615824692,2031616,121,-56,-1,-1,0
1523615824732,5767168,121,-56,-1,-1,0
1523615824732,7405568,121,-56,-1,-1,0
1523615824732,4784128,121,-56,-1,-1,0
1523615824732,524288,121,-56,-1,-1,0
1523615824732,-1835008,121,-56,-1,-1,0
1523615824772,-2031616,121,-56,-1,-1,0
1523615824772,-1638400,121,-56,-1,-1,0
1523615824772,-1310720,121,-56,-1,-1,0
1523615824772,-1179648,121,-56,-1,-1,0
1523615824772,-1179648,121,-56,-1,-1,0
1523615824812,-1048576,121,-56,-1,-1,0
1523615824812,-851968,121,-56,-1,-1,0
1523615824812,-786432,121,-56,-1,-1,0
1523615824812,-720896,121,-56,-1,-1,0
1523615824812,-524288,121,-56,-1,-1,0
1523615824852,-262144,121,-56,-1,-1,0
1523615824852,65536,121,-56,-1,-1,0
1523615824852,655360,121,-56,-1,-1,0
1523615824852,1310720,121,-56,-1,-1,0
1523615824852,1900544,121,-56,-1,-1,0
1523615824892,2228224,121,-56,-1,-1,0
1523615824892,2424832,121,-56,-1,-1,0
1523615824892,2228224,121,-56,-1,-1,0
1523615824892,1900544,121,-56,-1,-1,0
1523615824892,1441792,121,-56,-1,-1,0
1523615824932,983040,121,-56,-1,-1,0
1523615824932,458752,121,-56,-1,-1,0
1523615824932,0,121,-56,-1,-1,0
1523615824932,-327680,121,-56,-1,-1,0
1523615824932,-589824,121,-56,-1,-1,0
1523615824972,-720896,122,-56,-1,-1,0
1523615824972,-720896,122,-56,-1,-1,0
1523615824972,-851968,122,-56,-1,-1,0
1523615824972,-851968,122,-56,-1,-1,0
1523615824972,-851968,122,-56,-1,-1,0
1523615825012,-786432,122,-56,-1,-1,0
1523615825012,-786432,122,-56,-1,-1,0
1523615825012,-786432,122,-56,-1,-1,0
1523615825012,-851968,122,-56,-1,-1,0
1523615825012,-917504,122,-56,-1,-1,0
1523615825052,-983040,122,-56,-1,-1,0
1523615825052,-1114112,122,-56,-1,-1,0
1523615825052,-1245184,122,-56,-1,-1,0
1523615825052,-1245184,122,-56,-1,-1,0
1523615825052,-1245184,122,-56,-1,-1,0
1523615825092,-1245184,122,-56,-1,-1,0
1523615825092,-1245184,122,-56,-1,-1,0
1523615825092,-1310720,122,-56,-1,-1,0
1523615825092,-1376256,122,-56,-1,-1,0
1523615825092,-1441792,122,-56,-1,-1,0
1523615825132,-1441792,122,-56,-1,-1,0
1523615825132,-1572864,122,-56,-1,-1,0
1523615825132,-1572864,122,-56,-1,-1,0
1523615825132,-1572864,122,-56,-1,-1,0
1523615825132,-1507328,122,-56,-1,-1,0
1523615825172,-1507328,122,-56,-1,-1,0
1523615825172,-1703936,122,-56,-1,-1,0
1523615825172,-1703936,122,-56,-1,-1,0
1523615825172,-196608,122,-56,-1,-1,0
1523615825172,3276800,122,-56,-1,-1,0
1523615825225,6815744,122,-56,-1,-1,0
1523615825225,6488064,122,-56,-1,-1,0
1523615825225,2424832,122,-56,-1,-1,0
1523615825225,-1376256,122,-56,-1,-1,0
1523615825225,-2490368,122,-56,-1,-1,0
1523615825252,-2293760,122,-56,-1,-1,0
1523615825252,-1966080,122,-56,-1,-1,0
1523615825252,-1769472,122,-56,-1,-1,0
1523615825252,-1638400,122,-56,-1,-1,0
1523615825252,-1507328,122,-56,-1,-1,0
1523615825292,-1376256,122,-56,-1,-1,0
1523615825292,-1245184,122,-56,-1,-1,0
1523615825292,-1114112,122,-56,-1,-1,0
1523615825292,-983040,122,-56,-1,-1,0
1523615825292,-655360,122,-56,-1,-1,0
1523615825332,-327680,122,-56,-1,-1,0
1523615825332,65536,122,-56,-1,-1,0
1523615825332,589824,122,-56,-1,-1,0
1523615825332,1179648,122,-56,-1,-1,0
1523615825332,1638400,122,-56,-1,-1,0
1523615825372,1900544,122,-56,-1,-1,0
1523615825372,1900544,122,-56,-1,-1,0
1523615825372,1703936,122,-56,-1,-1,0
1523615825372,1310720,122,-56,-1,-1,0
1523615825372,786432,122,-56,-1,-1,0
1523615825412,327680,122,-56,-1,-1,0
1523615825412,0,122,-56,-1,-1,0
1523615825412,-262144,122,-56,-1,-1,0
1523615825412,-524288,122,-56,-1,-1,0
1523615825412,-786432,122,-56,-1,-1,0
1523615825452,-917504,122,-56,-1,-1,0
1523615825452,-917504,122,-56,-1,-1,0
1523615825452,-917504,122,-56,-1,-1,0
1523615825452,-917504,122,-56,-1,-1,0
1523615825452,-917504,122,-56,-1,-1,0
1523615825492,-917504,122,-56,-1,-1,0
1523615825492,-851968,122,-56,-1,-1,0
1523615825492,-851968,122,-56,-1,-1,0
1523615825492,-851968,122,-56,-1,-1,0
1523615825492,-917504,122,-56,-1,-1,0
1523615825532,-983040,122,-56,-1,-1,0
1523615825532,-1114112,122,-56,-1,-1,0
1523615825532,-1179648,122,-56,-1,-1,0
1523615825532,-1245184,122,-56,-1,-1,0
1523615825532,-1245184,122,-56,-1,-1,0
1523615825572,-1245184,122,-56,-1,-1,0
1523615825572,-1179648,122,-56,-1,-1,0
1523615825572,-1114112,122,-56,-1,-1,0
1523615825572,-1048576,122,-56,-1,-1,0
1523615825572,-1179648,122,-56,-1,-1,0
1523615825612,-1310720,122,-56,-1,-1,0
1523615825612,-1376256,122,-56,-1,-1,0
1523615825612,-1376256,122,-56,-1,-1,0
1523615825612,-1376256,122,-56,-1,-1,0
1523615825612,-1310720,122,-56,-1,-1,0
1523615825652,-1245184,122,-56,-1,-1,0
1523615825652,-1310720,122,-56,-1,-1,0
1523615825652,-1245184,122,-56,-1,-1,0
1523615825652,131072,122,-56,-1,-1,0
1523615825652,3670016,122,-56,-1,-1,0
1523615825692,7143424,122,-56,-1,-1,0
1523615825692,6881280,122,-56,-1,-1,0
1523615825692,3080192,122,-56,-1,-1,0
1523615825692,-524288,122,-56,-1,-1,0
1523615825692,-1769472,122,-56,-1,-1,0
1523615825732,-1703936,122,-56,-1,-1,0
1523615825732,-1572864,122,-56,-1,-1,0
1523615825732,-1441792,122,-56,-1,-1,0
1523615825732,-1310720,122,-56,-1,-1,0
1523615825732,-1179648,122,-56,-1,-1,0
1523615825772,-1048576,122,-56,-1,-1,0
1523615825772,-983040,122,-56,-1,-1,0
1523615825772,-851968,122,-56,-1,-1,0
1523615825772,-720896,122,-56,-1,-1,0
1523615825772,-458752,122,-56,-1,-1,0
1523615825812,-131072,122,-56,-1,-1,0
1523615825812,196608,122,-56,-1,-1,0
1523615825812,655360,122,-56,-1,-1,0
1523615825812,1179648,122,-56,-1,-1,0
1523615825812,1572864,122,-56,-1,-1,0
1523615825865,1835008,122,-56,-1,-1,0
1523615825865,1835008,122,-56,-1,-1,0
1523615825865,1638400,122,-56,-1,-1,0
1523615825865,1310720,122,-56,-1,-1,0
1523615825865,851968,122,-56,-1,-1,0
1523615825892,458752,122,-56,-1,-1,0
1523615825892,131072,122,-56,-1,-1,0
1523615825892,-131072,122,-56,-1,-1,0
1523615825892,-262144,122,-56,-1,-1,0
1523615825892,-327680,122,-56,-1,-1,0
1523615825932,-393216,122,-56,-1,-1,0
1523615825932,-393216,122,-56,-1,-1,0
1523615825932,-327680,122,-56,-1,-1,0
1523615825932,-327680,122,-56,-1,-1,0
1523615825932,-327680,122,-56,-1,-1,0
1523615825972,-262144,122,-56,-1,-1,0
1523615825972,-262144,122,-56,-1,-1,0
1523615825972,-262144,122,-56,-1,-1,0
1523615825972,-327680,122,-56,-1,-1,0
1523615825972,-327680,122,-56,-1,-1,0
1523615826012,-393216,122,-56,-1,-1,0
1523615826012,-458752,122,-56,-1,-1,0
1523615826012,-589824,122,-56,-1,-1,0
1523615826012,-589824,122,-56,-1,-1,0
1523615826012,-589824,122,-56,-1,-1,0
1523615826052,-589824,122,-56,-1,-1,0
1523615826052,-524288,122,-56,-1,-1,0
1523615826052,-458752,122,-56,-1,-1,0
1523615826052,-393216,122,-56,-1,-1,0
1523615826052,-393216,122,-56,-1,-1,0
1523615826092,-458752,122,-56,-1,-1,0
1523615826092,-524288,122,-56,-1,-1,0
1523615826092,-589824,122,-56,-1,-1,0
1523615826092,-589824,122,-56,-1,-1,0
1523615826092,-589824,122,-56,-1,-1,0
1523615826132,-589824,122,-56,-1,-1,0
1523615826132,-589824,122,-56,-1,-1,0
1523615826132,-655360,122,-56,-1,-1,0
1523615826132,-196608,122,-56,-1,-1,0
1523615826132,2162688,122,-56,-1,-1,0
1523615826172,5963776,122,-56,-1,-1,0
1523615826172,7995392,122,-56,-1,-1,0
1523615826172,5767168,122,-56,-1,-1,0
1523615826172,1835008,122,-56,-1,-1,0
1523615826172,-524288,122,-56,-1,-1,0
1523615826212,-1048576,122,-56,-1,-1,0
1523615826212,-917504,122,-56,-1,-1,0
1523615826212,-851968,122,-56,-1,-1,0
1523615826212,-786432,122,-56,-1,-1,0
1523615826212,-720896,122,-56,-1,-1,0
1523615826252,-655360,122,-56,-1,-1,0
1523615826252,-589824,122,-56,-1,-1,0
1523615826252,-458752,122,-56,-1,-1,0
1523615826252,-327680,122,-56,-1,-1,0
1523615826252,-131072,122,-56,-1,-1,0
1523615826292,0,122,-56,-1,-1,0
1523615826292,327680,122,-56,-1,-1,0
1523615826292,720896,122,-56,-1,-1,0
1523615826292,1179648,122,-56,-1,-1,0
1523615826292,1638400,122,-56,-1,-1,0
1523615826332,2031616,122,-56,-1,-1,0
1523615826332,2162688,122,-56,-1,-1,0
1523615826332,2097152,122,-56,-1,-1,0
1523615826332,1835008,122,-56,-1,-1,0
1523615826332,1507328,122,-56,-1,-1,0
1523615826372,1048576,122,-56,-1,-1,0
1523615826372,655360,122,-56,-1,-1,0
1523615826372,327680,122,-56,-1,-1,0
1523615826372,131072,122,-56,-1,-1,0
1523615826372,0,122,-56,-1,-1,0
1523615826412,-65536,122,-56,-1,-1,0
1523615826412,-131072,122,-56,-1,-1,0
1523615826412,-131072,122,-56,-1,-1,0
1523615826412,-131072,122,-56,-1,-1,0
1523615826412,-131072,122,-56,-1,-1,0
1523615826452,-65536,122,-56,-1,-1,0
1523615826452,-65536,122,-56,-1,-1,0
1523615826452,-131072,122,-56,-1,-1,0
1523615826452,-131072,122,-56,-1,-1,0
1523615826452,-131072,122,-56,-1,-1,0
1523615826505,-131072,122,-56,-1,-1,0
1523615826505,-196608,122,-56,-1,-1,0
1523615826505,-393216,122,-56,-1,-1,0
1523615826505,-524288,122,-56,-1,-1,0
1523615826505,-524288,122,-56,-1,-1,0
1523615826532,-524288,122,-56,-1,-1,0
1523615826532,-524288,122,-56,-1,-1,0
1523615826532,-524288,122,-56,-1,-1,0
1523615826532,-524288,122,-56,-1,-1,0
1523615826532,-458752,122,-56,-1,-1,0
1523615826572,-458752,122,-56,-1,-1,0
1523615826572,-524288,122,-56,-1,-1,0
1523615826572,-589824,122,-56,-1,-1,0
1523615826572,-655360,122,-56,-1,-1,0
1523615826572,-720896,122,-56,-1,-1,0
1523615826612,-786432,122,-56,-1,-1,0
1523615826612,-786432,122,-56,-1,-1,0
1523615826612,-720896,122,-56,-1,-1,0
1523615826612,-786432,122,-56,-1,-1,0
1523615826612,-786432,122,-56,-1,-1,0
1523615826652,262144,122,-56,-1,-1,0
1523615826652,3407872,122,-56,-1,-1,0
1523615826652,6750208,122,-56,-1,-1,0
1523615826652,7012352,122,-56,-1,-1,0
1523615826652,3735552,122,-56,-1,-1,0
1523615826692,131072,122,-56,-1,-1,0
1523615826692,-1310720,122,-56,-1,-1,0
1523615826692,-1507328,122,-56,-1,-1,0
1523615826692,-1310720,122,-56,-1,-1,0
1523615826692,-1245184,122,-56,-1,-1,0
1523615826732,-1114112,122,-56,-1,-1,0
1523615826732,-1048576,122,-56,-1,-1,0
1523615826732,-983040,122,-56,-1,-1,0
1523615826732,-917504,122,-56,-1,-1,0
1523615826732,-786432,122,-56,-1,-1,0
1523615826772,-589824,122,-56,-1,-1,0
1523615826772,-327680,122,-56,-1,-1,0
1523615826772,0,122,-56,-1,-1,0
1523615826772,262144,122,-56,-1,-1,0
1523615826772,655360,122,-56,-1,-1,0
1523615826812,1114112,122,-56,-1,-1,0
1523615826812,1507328,122,-56,-1,-1,0
1523615826812,1835008,122,-56,-1,-1,0
1523615826812,1900544,122,-56,-1,-1,0
1523615826812,1835008,122,-56,-1,-1,0
1523615826852,1507328,122,-56,-1,-1,0
1523615826852,1048576,122,-56,-1,-1,0
1523615826852,589824,122,-56,-1,-1,0
1523615826852,131072,122,-56,-1,-1,0
1523615826852,-131072,122,-56,-1,-1,0
1523615826892,-327680,122,-56,-1,-1,0
1523615826892,-458752,122,-56,-1,-1,0
1523615826892,-524288,122,-56,-1,-1,0
1523615826892,-524288,122,-56,-1,-1,0
1523615826892,-589824,122,-56,-1,-1,0
1523615826932,-589824,122,-56,-1,-1,0
1523615826932,-524288,122,-56,-1,-1,0
1523615826932,-458752,122,-56,-1,-1,0
1523615826932,-524288,122,-56,-1,-1,0
1523615826932,-589824,122,-56,-1,-1,0
1523615826972,-589824,122,-56,-1,-1,0
1523615826972,-589824,122,-56,-1,-1,0
1523615826972,-655360,122,-56,-1,-1,0
1523615826972,-720896,122,-56,-1,-1,0
1523615826972,-851968,122,-56,-1,-1,0
1523615827012,-917504,122,-56,-1,-1,0
1523615827012,-917504,122,-56,-1,-1,0
1523615827012,-983040,122,-56,-1,-1,0
1523615827012,-983040,122,-56,-1,-1,0
1523615827012,-917504,122,-56,-1,-1,0
1523615827052,-917504,122,-56,-1,-1,0
1523615827052,-917504,122,-56,-1,-1,0
1523615827052,-917504,122,-56,-1,-1,0
1523615827052,-983040,122,-56,-1,-1,0
1523615827052,-1048576,122,-56,-1,-1,0
1523615827092,-1114112,122,-56,-1,-1,0
1523615827092,-1179648,122,-56,-1,-1,0
1523615827092,-1179648,122,-56,-1,-1,0
1523615827092,-1179648,122,-56,-1,-1,0
1523615827092,-1179648,122,-56,-1,-1,0
1523615827145,-1310720,122,-56,-1,-1,0
1523615827145,-1245184,122,-56,-1,-1,0
1523615827145,0,122,-56,-1,-1,0
1523615827145,3145728,122,-56,-1,-1,0
1523615827145,6750208,122,-56,-1,-1,0
1523615827172,7012352,122,-56,-1,-1,0
1523615827172,3407872,122,-56,-1,-1,0
1523615827172,-524288,122,-56,-1,-1,0
1523615827172,-2031616,122,-56,-1,-1,0
1523615827172,-1966080,122,-56,-1,-1,0
1523615827212,-1572864,122,-56,-1,-1,0
1523615827212,-1441792,122,-56,-1,-1,0
1523615827212,-1376256,122,-56,-1,-1,0
1523615827212,-1376256,122,-56,-1,-1,0
1523615827212,-1310720,122,-56,-1,-1,0
1523615827252,-1245184,122,-56,-1,-1,0
1523615827252,-1114112,122,-56,-1,-1,0
1523615827252,-917504,122,-56,-1,-1,0
1523615827252,-655360,122,-56,-1,-1,0
1523615827252,-393216,122,-56,-1,-1,0
1523615827292,0,122,-56,-1,-1,0
1523615827292,458752,122,-56,-1,-1,0
1523615827292,1114112,122,-56,-1,-1,0
1523615827292,1638400,122,-56,-1,-1,0
1523615827292,1966080,122,-56,-1,-1,0
1523615827332,2097152,122,-56,-1,-1,0
1523615827332,1966080,122,-56,-1,-1,0
1523615827332,1572864,122,-56,-1,-1,0
1523615827332,1114112,122,-56,-1,-1,0
1523615827332,524288,122,-56,-1,-1,0
1523615827372,65536,122,-56,-1,-1,0
1523615827372,-262144,122,-56,-1,-1,0
1523615827372,-524288,122,-56,-1,-1,0
1523615827372,-720896,122,-56,-1,-1,0
1523615827372,-851968,122,-56,-1,-1,0
1523615827412,-851968,121,-56,-1,-1,0
1523615827412,-851968,121,-56,-1,-1,0
1523615827412,-851968,121,-56,-1,-1,0
1523615827412,-786432,121,-56,-1,-1,0
1523615827412,-655360,121,-56,-1,-1,0
1523615827452,-655360,121,-56,-1,-1,0
1523615827452,-655360,121,-56,-1,-1,0
1523615827452,-720896,121,-56,-1,-1,0
1523615827452,-720896,121,-56,-1,-1,0
1523615827452,-720896,121,-56,-1,-1,0
1523615827492,-786432,121,-56,-1,-1,0
1523615827492,-851968,121,-56,-1,-1,0
1523615827492,-917504,121,-56,-1,-1,0
1523615827492,-983040,121,-56,-1,-1,0
1523615827492,-1048576,121,-56,-1,-1,0
1523615827533,-1048576,121,-56,-1,-1,0
1523615827533,-1048576,121,-56,-1,-1,0
1523615827533,-1048576,121,-56,-1,-1,0
1523615827533,-1048576,121,-56,-1,-1,0
1523615827533,-983040,121,-56,-1,-1,0
1523615827572,-1048576,121,-56,-1,-1,0
1523615827572,-1179648,121,-56,-1,-1,0
1523615827572,-1245184,121,-56,-1,-1,0
1523615827572,-1245184,121,-56,-1,-1,0
1523615827572,-1310720,121,-56,-1,-1,0
1523615827612,-1310720,121,-56,-1,-1,0
1523615827612,-1245184,121,-56,-1,-1,0
1523615827612,-1310720,121,-56,-1,-1,0
1523615827612,-1376256,121,-56,-1,-1,0
1523615827612,-196608,121,-56,-1,-1,0
1523615827652,2949120,121,-56,-1,-1,0
1523615827652,6750208,121,-56,-1,-1,0
1523615827652,7143424,121,-56,-1,-1,0
1523615827652,3538944,121,-56,-1,-1,0
1523615827652,-524288,121,-56,-1,-1,0
1523615827693,-2162688,121,-56,-1,-1,0
1523615827693,-2162688,121,-56,-1,-1,0
1523615827693,-1835008,121,-56,-1,-1,0
1523615827693,-1572864,121,-56,-1,-1,0
1523615827693,-1507328,121,-56,-1,-1,0
1523615827732,-1441792,121,-56,-1,-1,0
1523615827732,-1441792,121,-56,-1,-1,0
1523615827732,-1310720,121,-56,-1,-1,0
1523615827732,-1114112,121,-56,-1,-1,0
1523615827732,-917504,121,-56,-1,-1,0
1523615827785,-720896,121,-56,-1,-1,0
1523615827785,-393216,121,-56,-1,-1,0
1523615827785,0,121,-56,-1,-1,0
1523615827785,458752,121,-56,-1,-1,0
1523615827785,1048576,121,-56,-1,-1,0
1523615827812,1572864,121,-56,-1,-1,0
1523615827812,1966080,121,-56,-1,-1,0
1523615827812,2097152,121,-56,-1,-1,0
1523615827812,1966080,121,-56,-1,-1,0
1523615827812,1572864,121,-56,-1,-1,0
1523615827852,1114112,121,-56,-1,-1,0
1523615827852,589824,121,-56,-1,-1,0
1523615827852,131072,121,-56,-1,-1,0
1523615827852,-196608,121,-56,-1,-1,0
1523615827852,-458752,121,-56,-1,-1,0
1523615827892,-589824,121,-56,-1,-1,0
1523615827892,-720896,121,-56,-1,-1,0
1523615827892,-786432,121,-56,-1,-1,0
1523615827892,-786432,121,-56,-1,-1,0
1523615827892,-720896,121,-56,-1,-1,0
1523615827932,-655360,121,-56,-1,-1,0
1523615827932,-655360,121,-56,-1,-1,0
1523615827932,-589824,121,-56,-1,-1,0
1523615827932,-589824,121,-56,-1,-1,0
1523615827932,-524288,121,-56,-1,-1,0
1523615827972,-524288,121,-56,-1,-1,0
1523615827972,-524288,121,-56,-1,-1,0
1523615827972,-589824,121,-56,-1,-1,0
1523615827972,-655360,121,-56,-1,-1,0
1523615827972,-720896,121,-56,-1,-1,0
1523615828012,-786432,121,-56,-1,-1,0
1523615828012,-851968,121,-56,-1,-1,0
1523615828012,-786432,121,-56,-1,-1,0
1523615828012,-786432,121,-56,-1,-1,0
1523615828012,-720896,121,-56,-1,-1,0
1523615828052,-655360,121,-56,-1,-1,0
1523615828052,-655360,121,-56,-1,-1,0
1523615828052,-720896,121,-56,-1,-1,0
1523615828052,-786432,121,-56,-1,-1,0
1523615828052,-851968,121,-56,-1,-1,0
1523615828092,-851968,121,-56,-1,-1,0
1523615828092,-851968,121,-56,-1,-1,0
1523615828092,-786432,121,-56,-1,-1,0
1523615828092,-786432,121,-56,-1,-1,0
1523615828092,-851968,121,-56,-1,-1,0
1523615828132,-393216,121,-56,-1,-1,0
1523615828132,1900544,121,-56,-1,-1,0
1523615828132,5832704,121,-56,-1,-1,0
1523615828132,8060928,121,-56,-1,-1,0
1523615828132,6029312,121,-56,-1,-1,0
1523615828172,2097152,121,-56,-1,-1,0
1523615828172,-458752,121,-56,-1,-1,0
1523615828172,-1114112,121,-56,-1,-1,0
1523615828172,-983040,121,-56,-1,-1,0
1523615828172,-786432,121,-56,-1,-1,0
1523615828212,-655360,121,-56,-1,-1,0
1523615828212,-589824,121,-56,-1,-1,0
1523615828212,-589824,121,-56,-1,-1,0
1523615828212,-524288,121,-56,-1,-1,0
1523615828212,-393216,121,-56,-1,-1,0
1523615828252,-262144,121,-56,-1,-1,0
1523615828252,-65536,121,-56,-1,-1,0
1523615828252,131072,121,-56,-1,-1,0
1523615828252,458752,121,-56,-1,-1,0
1523615828252,851968,121,-56,-1,-1,0
1523615828292,1310720,121,-56,-1,-1,0
1523615828292,1769472,121,-56,-1,-1,0
1523615828292,2162688,121,-56,-1,-1,0
1523615828292,2293760,121,-56,-1,-1,0
1523615828292,2162688,121,-56,-1,-1,0
1523615828332,1900544,121,-56,-1,-1,0
1523615828332,1507328,121,-56,-1,-1,0
1523615828332,1048576,121,-56,-1,-1,0
1523615828332,589824,121,-56,-1,-1,0
1523615828332,196608,121,-56,-1,-1,0
1523615828372,0,121,-56,-1,-1,0
1523615828372,-65536,121,-56,-1,-1,0
1523615828372,-196608,121,-56,-1,-1,0
1523615828372,-327680,121,-56,-1,-1,0
1523615828372,-327680,121,-56,-1,-1,0
1523615828425,-327680,121,-56,-1,-1,0
1523615828425,-327680,121,-56,-1,-1,0
1523615828425,-262144,121,-56,-1,-1,0
1523615828425,-196608,121,-56,-1,-1,0
1523615828425,-196608,121,-56,-1,-1,0
1523615828452,-196608,121,-56,-1,-1,0
1523615828452,-196608,121,-56,-1,-1,0
1523615828452,-196608,121,-56,-1,-1,0
1523615828452,-196608,121,-56,-1,-1,0
1523615828452,-262144,121,-56,-1,-1,0
1523615828492,-327680,121,-56,-1,-1,0
1523615828492,-393216,121,-56,-1,-1,0
1523615828492,-458752,121,-56,-1,-1,0
1523615828492,-458752,121,-56,-1,-1,0
1523615828492,-458752,121,-56,-1,-1,0
1523615828532,-393216,121,-56,-1,-1,0
1523615828532,-393216,121,-56,-1,-1,0
1523615828532,-458752,121,-56,-1,-1,0
1523615828532,-524288,121,-56,-1,-1,0
1523615828532,-589824,121,-56,-1,-1,0
1523615828572,-655360,121,-56,-1,-1,0
1523615828572,-655360,121,-56,-1,-1,0
1523615828572,-655360,121,-56,-1,-1,0
1523615828572,-655360,121,-56,-1,-1,0
1523615828572,-655360,121,-56,-1,-1,0
1523615828612,-720896,121,-56,-1,-1,0
1523615828612,-786432,121,-56,-1,-1,0
1523615828612,65536,121,-56,-1,-1,0
1523615828612,3014656,121,-56,-1,-1,0
1523615828612,6488064,121,-56,-1,-1,0
1523615828652,7077888,121,-56,-1,-1,0
1523615828652,3932160,121,-56,-1,-1,0
1523615828652,262144,121,-56,-1,-1,0
1523615828652,-1245184,121,-56,-1,-1,0
1523615828652,-1441792,121,-56,-1,-1,0
1523615828692,-1245184,121,-56,-1,-1,0
1523615828692,-1114112,121,-56,-1,-1,0
1523615828692,-1048576,121,-56,-1,-1,0
1523615828692,-917504,121,-56,-1,-1,0
1523615828692,-851968,121,-56,-1,-1,0
1523615828732,-786432,121,-56,-1,-1,0
1523615828732,-589824,121,-56,-1,-1,0
1523615828732,-393216,121,-56,-1,-1,0
1523615828732,-262144,121,-56,-1,-1,0
1523615828732,0,121,-56,-1,-1,0
1523615828772,327680,121,-56,-1,-1,0
1523615828772,851968,121,-56,-1,-1,0
1523615828772,1376256,121,-56,-1,-1,0
1523615828772,1966080,121,-56,-1,-1,0
1523615828772,2424832,121,-56,-1,-1,0
1523615828812,2621440,121,-56,-1,-1,0
1523615828812,2490368,121,-56,-1,-1,0
1523615828812,2162688,121,-56,-1,-1,0
1523615828812,1638400,121,-56,-1,-1,0
1523615828812,1114112,121,-56,-1,-1,0
1523615828852,720896,121,-56,-1,-1,0
1523615828852,393216,121,-56,-1,-1,0
1523615828852,196608,121,-56,-1,-1,0
1523615828852,0,121,-56,-1,-1,0
1523615828852,0,121,-56,-1,-1,0
1523615828892,-65536,121,-56,-1,-1,0
1523615828892,-65536,121,-56,-1,-1,0
1523615828892,-65536,121,-56,-1,-1,0
1523615828892,0,121,-56,-1,-1,0
1523615828892,0,121,-56,-1,-1,0
1523615828932,65536,121,-56,-1,-1,0
1523615828932,65536,121,-56,-1,-1,0
1523615828932,65536,121,-56,-1,-1,0
1523615828932,0,121,-56,-1,-1,0
1523615828932,-65536,121,-56,-1,-1,0
1523615828972,-65536,121,-56,-1,-1,0
1523615828972,-131072,121,-56,-1,-1,0
1523615828972,-196608,121,-56,-1,-1,0
1523615828972,-196608,121,-56,-1,-1,0
1523615828972,-327680,121,-56,-1,-1,0
1523615829012,-393216,121,-56,-1,-1,0
1523615829012,-327680,121,-56,-1,-1,0
1523615829012,-262144,121,-56,-1,-1,0
1523615829012,-196608,121,-56,-1,-1,0
1523615829012,-262144,121,-56,-1,-1,0
1523615829065,-458752,121,-56,-1,-1,0
1523615829065,-589824,121,-56,-1,-1,0
1523615829065,-655360,121,-56,-1,-1,0
1523615829065,-720896,121,-56,-1,-1,0
1523615829065,-720896,121,-56,-1,-1,0
1523615829092,-720896,121,-56,-1,-1,0
1523615829092,-720896,121,-56,-1,-1,0
1523615829092,-917504,121,-56,-1,-1,0
1523615829092,-458752,121,-56,-1,-1,0
1523615829092,1769472,121,-56,-1,-1,0
1523615829132,5701632,121,-56,-1,-1,0
1523615829132,7995392,121,-56,-1,-1,0
1523615829132,5832704,121,-56,-1,-1,0
1523615829132,1441792,121,-56,-1,-1,0
1523615829132,-1376256,121,-56,-1,-1,0
1523615829172,-1900544,121,-56,-1,-1,0
1523615829172,-1703936,121,-56,-1,-1,0
1523615829172,-1441792,121,-56,-1,-1,0
1523615829172,-1245184,121,-56,-1,-1,0
1523615829172,-1245184,121,-56,-1,-1,0
1523615829212,-1114112,121,-56,-1,-1,0
1523615829212,-1114112,121,-56,-1,-1,0
1523615829212,-983040,121,-56,-1,-1,0
1523615829212,-786432,121,-56,-1,-1,0
1523615829212,-589824,121,-56,-1,-1,0
1523615829252,-458752,121,-56,-1,-1,0
1523615829252,-196608,121,-56,-1,-1,0
1523615829252,262144,121,-56,-1,-1,0
1523615829252,917504,121,-56,-1,-1,0
1523615829252,1572864,121,-56,-1,-1,0
1523615829292,2031616,121,-56,-1,-1,0
1523615829292,2293760,121,-56,-1,-1,0
1523615829292,2228224,121,-56,-1,-1,0
1523615829292,1966080,121,-56,-1,-1,0
1523615829292,1441792,121,-56,-1,-1,0
1523615829332,851968,121,-56,-1,-1,0
1523615829332,262144,121,-56,-1,-1,0
1523615829332,-196608,121,-56,-1,-1,0
1523615829332,-589824,121,-56,-1,-1,0
1523615829332,-786432,121,-56,-1,-1,0
1523615829372,-983040,121,-56,-1,-1,0
1523615829372,-1179648,121,-56,-1,-1,0
1523615829372,-1310720,121,-56,-1,-1,0
1523615829372,-1310720,121,-56,-1,-1,0
1523615829372,-1179648,121,-56,-1,-1,0
1523615829412,-983040,121,-56,-1,-1,0
1523615829412,-1048576,121,-56,-1,-1,0
1523615829412,-1114112,121,-56,-1,-1,0
1523615829412,-1114112,121,-56,-1,-1,0
1523615829412,-1179648,121,-56,-1,-1,0
1523615829452,-1245184,121,-56,-1,-1,0
1523615829452,-1245184,121,-56,-1,-1,0
1523615829452,-1245184,121,-56,-1,-1,0
1523615829452,-1376256,121,-56,-1,-1,0
1523615829452,-1572864,121,-56,-1,-1,0
1523615829492,-1703936,121,-56,-1,-1,0
1523615829492,-1638400,121,-56,-1,-1,0
1523615829492,-1572864,121,-56,-1,-1,0
1523615829492,-1572864,121,-56,-1,-1,0
1523615829492,-1638400,121,-56,-1,-1,0
1523615829532,-1769472,121,-56,-1,-1,0
1523615829532,-1835008,121,-56,-1,-1,0
1523615829532,-1900544,121,-56,-1,-1,0
1523615829532,-2031616,121,-56,-1,-1,0
1523615829532,-2031616,121,-56,-1,-1,0
1523615829572,-1966080,121,-56,-1,-1,0
1523615829572,-2031616,121,-56,-1,-1,0
1523615829572,-2228224,121,-56,-1,-1,0
1523615829572,-2031616,121,-56,-1,-1,0
1523615829572,-131072,121,-56,-1,-1,0
1523615829612,3670016,121,-56,-1,-1,0
1523615829612,6815744,121,-56,-1,-1,0
1523615829612,5767168,121,-56,-1,-1,0
1523615829612,1441792,121,-56,-1,-1,0
1523615829612,-2097152,121,-56,-1,-1,0
1523615829652,-3014656,121,-56,-1,-1,0
1523615829652,-2883584,121,-56,-1,-1,0
1523615829652,-2686976,121,-56,-1,-1,0
1523615829652,-2490368,121,-56,-1,-1,0
1523615829652,-2359296,121,-56,-1,-1,0
1523615829705,-2228224,121,-56,-1,-1,0
1523615829705,-2097152,121,-56,-1,-1,0
1523615829705,-1900544,121,-56,-1,-1,0
1523615829705,-1769472,121,-56,-1,-1,0
1523615829705,-1572864,121,-56,-1,-1,0
1523615829732,-1376256,121,-56,-1,-1,0
1523615829732,-983040,121,-56,-1,-1,0
1523615829732,-589824,121,-56,-1,-1,0
1523615829732,-65536,121,-56,-1,-1,0
1523615829732,589824,121,-56,-1,-1,0
1523615829773,1179648,121,-56,-1,-1,0
1523615829773,1507328,121,-56,-1,-1,0
1523615829773,1638400,121,-56,-1,-1,0
1523615829773,1572864,121,-56,-1,-1,0
1523615829773,1179648,121,-56,-1,-1,0
1523615829812,655360,121,-56,-1,-1,0
1523615829812,131072,121,-56,-1,-1,0
1523615829812,-327680,121,-56,-1,-1,0
1523615829812,-720896,121,-56,-1,-1,0
1523615829812,-917504,121,-56,-1,-1,0
1523615829852,-1048576,122,-56,-1,-1,0
1523615829852,-983040,122,-56,-1,-1,0
1523615829852,-983040,122,-56,-1,-1,0
1523615829852,-983040,122,-56,-1,-1,0
1523615829852,-917504,122,-56,-1,-1,0
1523615829892,-851968,122,-56,-1,-1,0
1523615829892,-786432,122,-56,-1,-1,0
1523615829892,-786432,122,-56,-1,-1,0
1523615829892,-786432,122,-56,-1,-1,0
1523615829892,-786432,122,-56,-1,-1,0
1523615829932,-786432,122,-56,-1,-1,0
1523615829932,-786432,122,-56,-1,-1,0
1523615829932,-720896,122,-56,-1,-1,0
1523615829932,-720896,122,-56,-1,-1,0
1523615829932,-720896,122,-56,-1,-1,0
1523615829972,-786432,122,-56,-1,-1,0
1523615829972,-786432,122,-56,-1,-1,0
1523615829972,-720896,122,-56,-1,-1,0
1523615829972,-655360,122,-56,-1,-1,0
1523615829972,-655360,122,-56,-1,-1,0
1523615830012,-655360,122,-56,-1,-1,0
1523615830012,-720896,122,-56,-1,-1,0
1523615830012,-720896,122,-56,-1,-1,0
1523615830012,-655360,122,-56,-1,-1,0
1523615830012,-589824,122,-56,-1,-1,0
1523615830052,-524288,122,-56,-1,-1,0
1523615830052,-589824,122,-56,-1,-1,0
1523615830052,-720896,122,-56,-1,-1,0
1523615830052,-458752,122,-56,-1,-1,0
1523615830052,1310720,122,-56,-1,-1,0
1523615830092,5111808,122,-56,-1,-1,0
1523615830092,8126464,122,-56,-1,-1,0
1523615830092,7143424,122,-56,-1,-1,0
1523615830092,3145728,122,-56,-1,-1,0
1523615830092,-131072,122,-56,-1,-1,0
1523615830132,-1048576,122,-56,-1,-1,0
1523615830132,-851968,122,-56,-1,-1,0
1523615830132,-589824,122,-56,-1,-1,0
1523615830132,-458752,122,-56,-1,-1,0
1523615830132,-458752,122,-56,-1,-1,0
1523615830172,-458752,122,-56,-1,-1,0
1523615830172,-393216,122,-56,-1,-1,0
1523615830172,-262144,122,-56,-1,-1,0
1523615830172,-196608,122,-56,-1,-1,0
1523615830172,0,122,-56,-1,-1,0
1523615830212,196608,122,-56,-1,-1,0
1523615830212,524288,122,-56,-1,-1,0
1523615830212,917504,122,-56,-1,-1,0
1523615830212,1441792,122,-56,-1,-1,0
1523615830212,2031616,122,-56,-1,-1,0
1523615830252,2555904,122,-56,-1,-1,0
1523615830252,2883584,122,-56,-1,-1,0
1523615830252,2949120,122,-56,-1,-1,0
1523615830252,2818048,122,-56,-1,-1,0
1523615830252,2424832,122,-56,-1,-1,0
1523615830292,1900544,122,-56,-1,-1,0
1523615830292,1441792,122,-56,-1,-1,0
1523615830292,1048576,122,-56,-1,-1,0
1523615830292,655360,122,-56,-1,-1,0
1523615830292,393216,122,-56,-1,-1,0
1523615830345,262144,122,-56,-1,-1,0
1523615830345,131072,122,-56,-1,-1,0
1523615830345,0,122,-56,-1,-1,0
1523615830345,0,122,-56,-1,-1,0
1523615830345,-65536,122,-56,-1,-1,0
1523615830372,0,122,-56,-1,-1,0
1523615830372,0,122,-56,-1,-1,0
1523615830372,0,122,-56,-1,-1,0
1523615830372,0,122,-56,-1,-1,0
1523615830372,0,122,-56,-1,-1,0
1523615830412,0,122,-56,-1,-1,0
1523615830412,-131072,122,-56,-1,-1,0
1523615830412,-262144,122,-56,-1,-1,0
1523615830412,-393216,122,-56,-1,-1,0
1523615830412,-458752,122,-56,-1,-1,0
1523615830452,-458752,122,-56,-1,-1,0
1523615830452,-458752,122,-56,-1,-1,0
1523615830452,-458752,122,-56,-1,-1,0
1523615830452,-458752,122,-56,-1,-1,0
1523615830452,-458752,122,-56,-1,-1,0
1523615830492,-589824,122,-56,-1,-1,0
1523615830492,-655360,122,-56,-1,-1,0
1523615830492,-720896,122,-56,-1,-1,0
1523615830492,-786432,122,-56,-1,-1,0
1523615830492,-786432,122,-56,-1,-1,0
1523615830532,-786432,122,-56,-1,-1,0
1523615830532,-786432,122,-56,-1,-1,0
1523615830532,-851968,122,-56,-1,-1,0
1523615830532,-393216,122,-56,-1,-1,0
1523615830532,1900544,122,-56,-1,-1,0
1523615830572,5832704,122,-56,-1,-1,0
1523615830572,8060928,122,-56,-1,-1,0
1523615830572,6029312,122,-56,-1,-1,0
1523615830572,2162688,122,-56,-1,-1,0
1523615830572,-327680,122,-56,-1,-1,0
1523615830612,-1114112,122,-56,-1,-1,0
1523615830612,-1114112,122,-56,-1,-1,0
1523615830612,-1114112,122,-56,-1,-1,0
1523615830612,-1114112,122,-56,-1,-1,0
1523615830612,-1114112,122,-56,-1,-1,0
1523615830652,-1048576,122,-56,-1,-1,0
1523615830652,-1048576,122,-56,-1,-1,0
1523615830652,-983040,122,-56,-1,-1,0
1523615830652,-851968,122,-56,-1,-1,0
1523615830652,-720896,122,-56,-1,-1,0
1523615830692,-589824,122,-56,-1,-1,0
1523615830692,-393216,122,-56,-1,-1,0
1523615830692,-65536,122,-56,-1,-1,0
1523615830692,327680,122,-56,-1,-1,0
1523615830692,786432,122,-56,-1,-1,0
1523615830732,1245184,122,-56,-1,-1,0
1523615830732,1441792,122,-56,-1,-1,0
1523615830732,1441792,122,-56,-1,-1,0
1523615830732,1245184,122,-56,-1,-1,0
1523615830732,917504,122,-56,-1,-1,0
1523615830772,458752,122,-56,-1,-1,0
1523615830772,65536,122,-56,-1,-1,0
1523615830772,-131072,122,-56,-1,-1,0
1523615830772,-393216,122,-56,-1,-1,0
1523615830772,-524288,122,-56,-1,-1,0
1523615830812,-589824,122,-56,-1,-1,0
1523615830812,-655360,122,-56,-1,-1,0
1523615830812,-720896,122,-56,-1,-1,0
1523615830812,-655360,122,-56,-1,-1,0
1523615830812,-655360,122,-56,-1,-1,0
1523615830852,-589824,122,-56,-1,-1,0
1523615830852,-524288,122,-56,-1,-1,0
1523615830852,-524288,122,-56,-1,-1,0
1523615830852,-524288,122,-56,-1,-1,0
1523615830852,-524288,122,-56,-1,-1,0
1523615830892,-524288,122,-56,-1,-1,0
1523615830892,-589824,122,-56,-1,-1,0
1523615830892,-655360,122,-56,-1,-1,0
1523615830892,-720896,122,-56,-1,-1,0
1523615830892,-720896,122,-56,-1,-1,0
1523615830932,-720896,122,-56,-1,-1,0
1523615830932,-786432,122,-56,-1,-1,0
1523615830932,-720896,122,-56,-1,-1,0
1523615830932,-589824,122,-56,-1,-1,0
1523615830932,-589824,122,-56,-1,-1,0
1523615830985,-589824,122,-56,-1,-1,0
1523615830985,-720896,122,-56,-1,-1,0
1523615830985,-786432,122,-56,-1,-1,0
1523615830985,-851968,122,-56,-1,-1,0
1523615830985,-851968,122,-56,-1,-1,0
1523615831012,-786432,122,-56,-1,-1,0
1523615831012,-720896,122,-56,-1,-1,0
1523615831012,-720896,122,-56,-1,-1,0
1523615831012,-720896,122,-56,-1,-1,0
1523615831012,0,122,-56,-1,-1,0
1523615831052,2424832,122,-56,-1,-1,0
1523615831052,6225920,122,-56,-1,-1,0
1523615831052,8126464,122,-56,-1,-1,0
1523615831052,5701632,122,-56,-1,-1,0
1523615831052,1572864,122,-56,-1,-1,0
1523615831092,-851968,122,-56,-1,-1,0
1523615831092,-1245184,122,-56,-1,-1,0
1523615831092,-1048576,122,-56,-1,-1,0
1523615831092,-851968,122,-56,-1,-1,0
1523615831092,-786432,122,-56,-1,-1,0
1523615831132,-786432,122,-56,-1,-1,0
1523615831132,-720896,122,-56,-1,-1,0
1523615831132,-720896,122,-56,-1,-1,0
1523615831132,-524288,122,-56,-1,-1,0
1523615831132,-393216,122,-56,-1,-1,0
1523615831172,-196608,122,-56,-1,-1,0
1523615831172,0,122,-56,-1,-1,0
1523615831172,327680,122,-56,-1,-1,0
1523615831172,720896,122,-56,-1,-1,0
1523615831172,1310720,122,-56,-1,-1,0
1523615831212,1966080,122,-56,-1,-1,0
1523615831212,2424832,122,-56,-1,-1,0
1523615831212,2686976,122,-56,-1,-1,0
1523615831212,2621440,122,-56,-1,-1,0
1523615831212,2293760,122,-56,-1,-1,0
1523615831252,1835008,122,-56,-1,-1,0
1523615831252,1310720,122,-56,-1,-1,0
1523615831252,786432,122,-56,-1,-1,0
1523615831252,327680,122,-56,-1,-1,0
1523615831252,-65536,122,-56,-1,-1,0
1523615831292,-393216,122,-56,-1,-1,0
1523615831292,-655360,122,-56,-1,-1,0
1523615831292,-720896,122,-56,-1,-1,0
1523615831292,-720896,122,-56,-1,-1,0
1523615831292,-655360,122,-56,-1,-1,0
1523615831332,-655360,122,-56,-1,-1,0
1523615831332,-655360,122,-56,-1,-1,0
1523615831332,-655360,122,-56,-1,-1,0
1523615831332,-786432,122,-56,-1,-1,0
1523615831332,-917504,122,-56,-1,-1,0
1523615831372,-1048576,122,-56,-1,-1,0
1523615831372,-1048576,122,-56,-1,-1,0
1523615831372,-1114112,122,-56,-1,-1,0
1523615831372,-1245184,122,-56,-1,-1,0
1523615831372,-1310720,122,-56,-1,-1,0
1523615831412,-1376256,122,-56,-1,-1,0
1523615831412,-1376256,122,-56,-1,-1,0
1523615831412,-1376256,122,-56,-1,-1,0
1523615831412,-1376256,122,-56,-1,-1,0
1523615831412,-1376256,122,-56,-1,-1,0
1523615831452,-1441792,122,-56,-1,-1,0
1523615831452,-1572864,122,-56,-1,-1,0
1523615831452,-1703936,122,-56,-1,-1,0
1523615831452,-1900544,122,-56,-1,-1,0
1523615831452,-1900544,122,-56,-1,-1,0
1523615831492,-1900544,122,-56,-1,-1,0
1523615831492,-1835008,122,-56,-1,-1,0
1523615831492,-1900544,122,-56,-1,-1,0
1523615831492,-2031616,122,-56,-1,-1,0
1523615831492,-1638400,122,-56,-1,-1,0
1523615831532,589824,122,-56,-1,-1,0
1523615831532,4718592,122,-56,-1,-1,0
1523615831532,7274496,122,-56,-1,-1,0
1523615831532,5242880,122,-56,-1,-1,0
1523615831532,786432,122,-56,-1,-1,0
1523615831572,-2097152,122,-56,-1,-1,0
1523615831572,-2686976,122,-56,-1,-1,0
1523615831572,-2555904,122,-56,-1,-1,0
1523615831572,-2359296,122,-56,-1,-1,0
1523615831572,-2228224,122,-56,-1,-1,0
1523615831625,-2097152,122,-56,-1,-1,0
1523615831625,-2031616,122,-56,-1,-1,0
1523615831625,-1966080,122,-56,-1,-1,0
1523615831625,-1769472,122,-56,-1,-1,0
1523615831625,-1572864,122,-56,-1,-1,0
1523615831652,-1310720,122,-56,-1,-1,0
1523615831652,-1179648,122,-56,-1,-1,0
1523615831652,-917504,122,-56,-1,-1,0
1523615831652,-458752,122,-56,-1,-1,0
1523615831652,65536,122,-56,-1,-1,0
1523615831692,655360,122,-56,-1,-1,0
1523615831692,1114112,122,-56,-1,-1,0
1523615831692,1376256,122,-56,-1,-1,0
1523615831692,1507328,122,-56,-1,-1,0
1523615831692,1441792,122,-56,-1,-1,0
1523615831732,1114112,122,-56,-1,-1,0
1523615831732,589824,122,-56,-1,-1,0
1523615831732,65536,122,-56,-1,-1,0
1523615831732,-262144,122,-56,-1,-1,0
1523615831732,-589824,122,-56,-1,-1,0
1523615831772,-786432,123,-56,-1,-1,0
1523615831772,-917504,123,-56,-1,-1,0
1523615831772,-917504,123,-56,-1,-1,0
1523615831772,-917504,123,-56,-1,-1,0
1523615831772,-917504,123,-56,-1,-1,0
1523615831812,-851968,123,-56,-1,-1,0
1523615831812,-720896,123,-56,-1,-1,0
1523615831812,-655360,123,-56,-1,-1,0
1523615831812,-655360,123,-56,-1,-1,0
1523615831812,-720896,123,-56,-1,-1,0
1523615831853,-655360,123,-56,-1,-1,0
1523615831853,-655360,123,-56,-1,-1,0
1523615831853,-655360,123,-56,-1,-1,0
1523615831853,-655360,123,-56,-1,-1,0
1523615831853,-655360,123,-56,-1,-1,0
1523615831892,-655360,123,-56,-1,-1,0
1523615831892,-589824,123,-56,-1,-1,0
1523615831892,-589824,123,-56,-1,-1,0
1523615831892,-524288,123,-56,-1,-1,0
1523615831892,-458752,123,-56,-1,-1,0
1523615831933,-393216,123,-56,-1,-1,0
1523615831933,-458752,123,-56,-1,-1,0
1523615831933,-655360,123,-56,-1,-1,0
1523615831933,-655360,123,-56,-1,-1,0
1523615831933,-589824,123,-56,-1,-1,0
1523615831972,-458752,123,-56,-1,-1,0
1523615831972,-458752,123,-56,-1,-1,0
1523615831972,-524288,123,-56,-1,-1,0
1523615831972,-655360,123,-56,-1,-1,0
1523615831972,-458752,123,-56,-1,-1,0
1523615832012,1245184,123,-56,-1,-1,0
1523615832012,4915200,123,-56,-1,-1,0
1523615832012,8060928,123,-56,-1,-1,0
1523615832012,7143424,123,-56,-1,-1,0
1523615832012,3145728,123,-56,-1,-1,0
1523615832052,-196608,123,-56,-1,-1,0
1523615832052,-1179648,123,-56,-1,-1,0
1523615832052,-1048576,123,-56,-1,-1,0
1523615832052,-786432,123,-56,-1,-1,0
1523615832052,-655360,123,-56,-1,-1,0
1523615832092,-589824,123,-56,-1,-1,0
1523615832092,-524288,123,-56,-1,-1,0
1523615832092,-393216,123,-56,-1,-1,0
1523615832092,-262144,123,-56,-1,-1,0
1523615832092,-196608,123,-56,-1,-1,0
1523615832132,-65536,123,-56,-1,-1,0
1523615832132,65536,123,-56,-1,-1,0
1523615832132,327680,123,-56,-1,-1,0
1523615832132,655360,123,-56,-1,-1,0
1523615832132,1114112,123,-56,-1,-1,0
1523615832172,1572864,123,-56,-1,-1,0
1523615832172,2031616,123,-56,-1,-1,0
1523615832172,2359296,123,-56,-1,-1,0
1523615832172,2424832,123,-56,-1,-1,0
1523615832172,2162688,123,-56,-1,-1,0
1523615832212,1703936,123,-56,-1,-1,0
1523615832212,1179648,123,-56,-1,-1,0
1523615832212,720896,123,-56,-1,-1,0
1523615832212,262144,123,-56,-1,-1,0
1523615832212,0,123,-56,-1,-1,0
1523615832265,-262144,123,-56,-1,-1,0
1523615832265,-393216,123,-56,-1,-1,0
1523615832265,-524288,123,-56,-1,-1,0
1523615832265,-589824,123,-56,-1,-1,0
1523615832265,-655360,123,-56,-1,-1,0
1523615832292,-655360,123,-56,-1,-1,0
1523615832292,-589824,123,-56,-1,-1,0
1523615832292,-524288,123,-56,-1,-1,0
1523615832292,-524288,123,-56,-1,-1,0
1523615832292,-524288,123,-56,-1,-1,0
1523615832332,-524288,123,-56,-1,-1,0
1523615832332,-589824,123,-56,-1,-1,0
1523615832332,-589824,123,-56,-1,-1,0
1523615832332,-655360,123,-56,-1,-1,0
1523615832332,-786432,123,-56,-1,-1,0
1523615832372,-851968,123,-56,-1,-1,0
1523615832372,-851968,123,-56,-1,-1,0
1523615832372,-786432,123,-56,-1,-1,0
1523615832372,-720896,123,-56,-1,-1,0
1523615832372,-655360,123,-56,-1,-1,0
1523615832412,-589824,123,-56,-1,-1,0
1523615832412,-655360,123,-56,-1,-1,0
1523615832412,-851968,123,-56,-1,-1,0
1523615832412,-917504,123,-56,-1,-1,0
1523615832412,-917504,123,-56,-1,-1,0
1523615832452,-983040,123,-56,-1,-1,0
1523615832452,-983040,123,-56,-1,-1,0
1523615832452,-917504,123,-56,-1,-1,0
1523615832452,-917504,123,-56,-1,-1,0
1523615832452,-983040,123,-56,-1,-1,0
1523615832492,-589824,123,-56,-1,-1,0
1523615832492,1572864,123,-56,-1,-1,0
1523615832492,5373952,123,-56,-1,-1,0
1523615832492,7667712,123,-56,-1,-1,0
1523615832492,5767168,123,-56,-1,-1,0
1523615832532,1966080,123,-56,-1,-1,0
1523615832532,-524288,123,-56,-1,-1,0
1523615832532,-1179648,123,-56,-1,-1,0
1523615832532,-1179648,123,-56,-1,-1,0
1523615832532,-1114112,123,-56,-1,-1,0
1523615832572,-1048576,123,-56,-1,-1,0
1523615832572,-983040,123,-56,-1,-1,0
1523615832572,-851968,123,-56,-1,-1,0
1523615832572,-786432,123,-56,-1,-1,0
1523615832572,-720896,123,-56,-1,-1,0
1523615832612,-589824,123,-56,-1,-1,0
1523615832612,-393216,123,-56,-1,-1,0
1523615832612,-131072,123,-56,-1,-1,0
1523615832612,131072,123,-56,-1,-1,0
1523615832612,458752,123,-56,-1,-1,0
1523615832652,917504,123,-56,-1,-1,0
1523615832652,1507328,123,-56,-1,-1,0
1523615832652,1966080,123,-56,-1,-1,0
1523615832652,2162688,123,-56,-1,-1,0
1523615832652,2097152,123,-56,-1,-1,0
1523615832692,1966080,123,-56,-1,-1,0
1523615832692,1703936,123,-56,-1,-1,0
1523615832692,1310720,123,-56,-1,-1,0
1523615832692,851968,123,-56,-1,-1,0
1523615832692,524288,123,-56,-1,-1,0
1523615832732,262144,123,-56,-1,-1,0
1523615832732,131072,123,-56,-1,-1,0
1523615832732,65536,123,-56,-1,-1,0
1523615832732,65536,123,-56,-1,-1,0
1523615832732,65536,123,-56,-1,-1,0
1523615832772,65536,123,-56,-1,-1,0
1523615832772,65536,123,-56,-1,-1,0
1523615832772,131072,123,-56,-1,-1,0
1523615832772,196608,123,-56,-1,-1,0
1523615832772,196608,123,-56,-1,-1,0
1523615832812,196608,123,-56,-1,-1,0
1523615832812,131072,123,-56,-1,-1,0
1523615832812,65536,123,-56,-1,-1,0
1523615832812,0,123,-56,-1,-1,0
1523615832812,-65536,123,-56,-1,-1,0
1523615832852,-196608,123,-56,-1,-1,0
1523615832852,-262144,123,-56,-1,-1,0
1523615832852,-262144,123,-56,-1,-1,0
1523615832852,-327680,123,-56,-1,-1,0
1523615832852,-262144,123,-56,-1,-1,0
1523615832905,-196608,123,-56,-1,-1,0
1523615832905,-196608,123,-56,-1,-1,0
1523615832905,-262144,123,-56,-1,-1,0
1523615832905,-327680,123,-56,-1,-1,0
1523615832905,-393216,123,-56,-1,-1,0
1523615832932,-458752,123,-56,-1,-1,0
1523615832932,-458752,123,-56,-1,-1,0
1523615832932,-524288,123,-56,-1,-1,0
1523615832932,-524288,123,-56,-1,-1,0
1523615832932,-524288,123,-56,-1,-1,0
1523615832972,-589824,123,-56,-1,-1,0
1523615832972,-720896,123,-56,-1,-1,0
1523615832972,65536,123,-56,-1,-1,0
1523615832972,3014656,123,-56,-1,-1,0
1523615832972,6750208,123,-56,-1,-1,0
1523615833013,7798784,123,-56,-1,-1,0
1523615833013,4587520,123,-56,-1,-1,0
1523615833013,524288,123,-56,-1,-1,0
1523615833013,-1376256,123,-56,-1,-1,0
1523615833013,-1572864,123,-56,-1,-1,0
1523615833052,-1376256,123,-56,-1,-1,0
1523615833052,-1310720,123,-56,-1,-1,0
1523615833052,-1310720,123,-56,-1,-1,0
1523615833052,-1310720,123,-56,-1,-1,0
1523615833052,-1245184,123,-56,-1,-1,0
1523615833092,-1179648,123,-56,-1,-1,0
1523615833092,-1114112,123,-56,-1,-1,0
1523615833092,-983040,123,-56,-1,-1,0
1523615833092,-786432,123,-56,-1,-1,0
1523615833092,-589824,123,-56,-1,-1,0
1523615833132,-327680,123,-56,-1,-1,0
1523615833132,0,123,-56,-1,-1,0
1523615833132,524288,123,-56,-1,-1,0
1523615833132,983040,123,-56,-1,-1,0
1523615833132,1441792,123,-56,-1,-1,0
1523615833172,1638400,123,-56,-1,-1,0
1523615833172,1507328,123,-56,-1,-1,0
1523615833172,1179648,123,-56,-1,-1,0
1523615833172,786432,123,-56,-1,-1,0
1523615833172,327680,123,-56,-1,-1,0
1523615833212,-65536,123,-56,-1,-1,0
1523615833212,-393216,123,-56,-1,-1,0
1523615833212,-655360,123,-56,-1,-1,0
1523615833212,-917504,123,-56,-1,-1,0
1523615833212,-1114112,123,-56,-1,-1,0
1523615833252,-1114112,123,-56,-1,-1,0
1523615833252,-1048576,123,-56,-1,-1,0
1523615833252,-1048576,123,-56,-1,-1,0
1523615833252,-983040,123,-56,-1,-1,0
1523615833252,-983040,123,-56,-1,-1,0
1523615833292,-917504,123,-56,-1,-1,0
1523615833292,-917504,123,-56,-1,-1,0
1523615833292,-983040,123,-56,-1,-1,0
1523615833292,-1048576,123,-56,-1,-1,0
1523615833292,-1114112,123,-56,-1,-1,0
1523615833332,-1114112,123,-56,-1,-1,0
1523615833332,-1179648,123,-56,-1,-1,0
1523615833332,-1245184,123,-56,-1,-1,0
1523615833332,-1310720,123,-56,-1,-1,0
1523615833332,-1310720,123,-56,-1,-1,0
1523615833372,-1245184,123,-56,-1,-1,0
1523615833372,-1114112,123,-56,-1,-1,0
1523615833372,-1048576,123,-56,-1,-1,0
1523615833372,-1114112,123,-56,-1,-1,0
1523615833372,-1245184,123,-56,-1,-1,0
1523615833412,-1376256,123,-56,-1,-1,0
1523615833412,-1376256,123,-56,-1,-1,0
1523615833412,-1310720,123,-56,-1,-1,0
1523615833412,-1245184,123,-56,-1,-1,0
1523615833412,-1245184,123,-56,-1,-1,0
1523615833452,-1179648,123,-56,-1,-1,0
1523615833452,-1310720,123,-56,-1,-1,0
1523615833452,-1245184,123,-56,-1,-1,0
1523615833452,131072,123,-56,-1,-1,0
1523615833452,3670016,123,-56,-1,-1,0
1523615833492,7143424,123,-56,-1,-1,0
1523615833492,6946816,123,-56,-1,-1,0
1523615833492,3080192,123,-56,-1,-1,0
1523615833492,-655360,123,-56,-1,-1,0
1523615833492,-1900544,123,-56,-1,-1,0
1523615833545,-1769472,123,-56,-1,-1,0
1523615833545,-1441792,123,-56,-1,-1,0
1523615833545,-1245184,123,-56,-1,-1,0
1523615833545,-1114112,123,-56,-1,-1,0
1523615833545,-917504,123,-56,-1,-1,0
1523615833572,-786432,123,-56,-1,-1,0
1523615833572,-720896,123,-56,-1,-1,0
1523615833572,-589824,123,-56,-1,-1,0
1523615833572,-393216,123,-56,-1,-1,0
1523615833572,-131072,123,-56,-1,-1,0
1523615833612,131072,123,-56,-1,-1,0
1523615833612,524288,123,-56,-1,-1,0
1523615833612,1048576,123,-56,-1,-1,0
1523615833612,1703936,123,-56,-1,-1,0
1523615833612,2228224,123,-56,-1,-1,0
1523615833652,2555904,123,-56,-1,-1,0
1523615833652,2686976,123,-56,-1,-1,0
1523615833652,2555904,123,-56,-1,-1,0
1523615833652,2162688,123,-56,-1,-1,0
1523615833652,1638400,123,-56,-1,-1,0
1523615833692,1114112,123,-56,-1,-1,0
1523615833692,720896,123,-56,-1,-1,0
1523615833692,393216,123,-56,-1,-1,0
1523615833692,131072,123,-56,-1,-1,0
1523615833692,-65536,123,-56,-1,-1,0
1523615833732,-131072,123,-56,-1,-1,0
1523615833732,-196608,123,-56,-1,-1,0
1523615833732,-262144,123,-56,-1,-1,0
1523615833732,-196608,123,-56,-1,-1,0
1523615833732,-131072,123,-56,-1,-1,0
1523615833772,-65536,123,-56,-1,-1,0
1523615833772,-65536,123,-56,-1,-1,0
1523615833772,-131072,123,-56,-1,-1,0
1523615833772,-196608,123,-56,-1,-1,0
1523615833772,-196608,123,-56,-1,-1,0
1523615833812,-262144,123,-56,-1,-1,0
1523615833812,-393216,123,-56,-1,-1,0
1523615833812,-458752,123,-56,-1,-1,0
1523615833812,-524288,123,-56,-1,-1,0
1523615833812,-589824,123,-56,-1,-1,0
1523615833852,-655360,123,-56,-1,-1,0
1523615833852,-655360,123,-56,-1,-1,0
1523615833852,-720896,123,-56,-1,-1,0
1523615833852,-720896,123,-56,-1,-1,0
1523615833852,-720896,123,-56,-1,-1,0
1523615833892,-851968,123,-56,-1,-1,0
1523615833892,-983040,123,-56,-1,-1,0
1523615833892,-1048576,123,-56,-1,-1,0
1523615833892,-1048576,123,-56,-1,-1,0
1523615833892,-1114112,123,-56,-1,-1,0
1523615833932,-1179648,123,-56,-1,-1,0
1523615833932,-1245184,123,-56,-1,-1,0
1523615833932,-1376256,123,-56,-1,-1,0
1523615833932,-786432,123,-56,-1,-1,0
1523615833932,1835008,123,-56,-1,-1,0
1523615833972,5963776,123,-56,-1,-1,0
1523615833972,7929856,123,-56,-1,-1,0
1523615833972,5439488,123,-56,-1,-1,0
1523615833972,1179648,123,-56,-1,-1,0
1523615833972,-1245184,123,-56,-1,-1,0
1523615834012,-1835008,123,-56,-1,-1,0
1523615834012,-1703936,123,-56,-1,-1,0
1523615834012,-1638400,123,-56,-1,-1,0
1523615834012,-1572864,123,-56,-1,-1,0
1523615834012,-1572864,123,-56,-1,-1,0
1523615834052,-1441792,123,-56,-1,-1,0
1523615834052,-1376256,123,-56,-1,-1,0
1523615834052,-1310720,123,-56,-1,-1,0
1523615834052,-1179648,123,-56,-1,-1,0
1523615834052,-983040,123,-56,-1,-1,0
1523615834092,-720896,123,-56,-1,-1,0
1523615834092,-458752,123,-56,-1,-1,0
1523615834092,-65536,123,-56,-1,-1,0
1523615834092,327680,123,-56,-1,-1,0
1523615834092,720896,123,-56,-1,-1,0
1523615834132,1114112,123,-56,-1,-1,0
1523615834132,1376256,123,-56,-1,-1,0
1523615834132,1310720,123,-56,-1,-1,0
1523615834132,1048576,123,-56,-1,-1,0
1523615834132,655360,123,-56,-1,-1,0
1523615834185,327680,123,-56,-1,-1,0
1523615834185,0,123,-56,-1,-1,0
1523615834185,-196608,123,-56,-1,-1,0
1523615834185,-458752,123,-56,-1,-1,0
1523615834185,-655360,123,-56,-1,-1,0
1523615834212,-786432,123,-56,-1,-1,0
1523615834212,-851968,123,-56,-1,-1,0
1523615834212,-851968,123,-56,-1,-1,0
1523615834212,-786432,123,-56,-1,-1,0
1523615834212,-720896,123,-56,-1,-1,0
1523615834252,-655360,123,-56,-1,-1,0
1523615834252,-524288,123,-56,-1,-1,0
1523615834252,-458752,123,-56,-1,-1,0
1523615834252,-524288,123,-56,-1,-1,0
1523615834252,-524288,123,-56,-1,-1,0
1523615834292,-524288,123,-56,-1,-1,0
1523615834292,-589824,123,-56,-1,-1,0
1523615834292,-655360,123,-56,-1,-1,0
1523615834292,-720896,123,-56,-1,-1,0
1523615834292,-720896,123,-56,-1,-1,0
1523615834332,-655360,123,-56,-1,-1,0
1523615834332,-589824,123,-56,-1,-1,0
1523615834332,-458752,123,-56,-1,-1,0
1523615834332,-327680,123,-56,-1,-1,0
1523615834332,-327680,123,-56,-1,-1,0
1523615834372,-393216,123,-56,-1,-1,0
1523615834372,-393216,123,-56,-1,-1,0
1523615834372,-393216,123,-56,-1,-1,0
1523615834372,-327680,123,-56,-1,-1,0
1523615834372,-327680,123,-56,-1,-1,0
1523615834412,-327680,123,-56,-1,-1,0
1523615834412,-327680,123,-56,-1,-1,0
1523615834412,-393216,123,-56,-1,-1,0
1523615834412,-131072,123,-56,-1,-1,0
1523615834412,1507328,123,-56,-1,-1,0
1523615834452,4849664,123,-56,-1,-1,0
1523615834452,7274496,123,-56,-1,-1,0
1523615834452,6094848,123,-56,-1,-1,0
1523615834452,2621440,123,-56,-1,-1,0
1523615834452,0,123,-56,-1,-1,0
1523615834492,-720896,123,-56,-1,-1,0
1523615834492,-655360,123,-56,-1,-1,0
1523615834492,-589824,123,-56,-1,-1,0
1523615834492,-524288,123,-56,-1,-1,0
1523615834492,-393216,123,-56,-1,-1,0
1523615834532,-327680,123,-56,-1,-1,0
1523615834532,-262144,123,-56,-1,-1,0
1523615834532,-131072,123,-56,-1,-1,0
1523615834532,-65536,123,-56,-1,-1,0
1523615834532,0,123,-56,-1,-1,0
1523615834572,196608,123,-56,-1,-1,0
1523615834572,458752,123,-56,-1,-1,0
1523615834572,786432,123,-56,-1,-1,0
1523615834572,1114112,123,-56,-1,-1,0
1523615834572,1507328,123,-56,-1,-1,0
1523615834612,1900544,123,-56,-1,-1,0
1523615834612,2162688,123,-56,-1,-1,0
1523615834612,2162688,123,-56,-1,-1,0
1523615834612,1900544,123,-56,-1,-1,0
1523615834612,1441792,123,-56,-1,-1,0
1523615834652,917504,123,-56,-1,-1,0
1523615834652,458752,123,-56,-1,-1,0
1523615834652,65536,123,-56,-1,-1,0
1523615834652,-196608,123,-56,-1,-1,0
1523615834652,-458752,123,-56,-1,-1,0
1523615834692,-655360,123,-56,-1,-1,0
1523615834692,-655360,123,-56,-1,-1,0
1523615834692,-655360,123,-56,-1,-1,0
1523615834692,-655360,123,-56,-1,-1,0
1523615834692,-720896,123,-56,-1,-1,0
1523615834732,-786432,123,-56,-1,-1,0
1523615834732,-851968,123,-56,-1,-1,0
1523615834732,-851968,123,-56,-1,-1,0
1523615834732,-851968,123,-56,-1,-1,0
1523615834732,-917504,123,-56,-1,-1,0
1523615834772,-1048576,123,-56,-1,-1,0
1523615834772,-1179648,123,-56,-1,-1,0
1523615834772,-1179648,123,-56,-1,-1,0
1523615834772,-1179648,123,-56,-1,-1,0
1523615834772,-1245184,123,-56,-1,-1,0
1523615834825,-1310720,123,-56,-1,-1,0
1523615834825,-1310720,123,-56,-1,-1,0
1523615834825,-1245184,123,-56,-1,-1,0
1523615834825,-1114112,123,-56,-1,-1,0
1523615834825,-1048576,123,-56,-1,-1,0
1523615834852,-1179648,123,-56,-1,-1,0
1523615834852,-1376256,123,-56,-1,-1,0
1523615834852,-1441792,123,-56,-1,-1,0
1523615834852,-1441792,123,-56,-1,-1,0
1523615834852,-1441792,123,-56,-1,-1,0
1523615834892,-1441792,123,-56,-1,-1,0
1523615834892,-1441792,123,-56,-1,-1,0
1523615834892,-1507328,123,-56,-1,-1,0
1523615834892,-1245184,123,-56,-1,-1,0
1523615834892,458752,123,-56,-1,-1,0
1523615834932,4063232,123,-56,-1,-1,0
1523615834932,6946816,123,-56,-1,-1,0
1523615834932,5832704,123,-56,-1,-1,0
1523615834932,1966080,123,-56,-1,-1,0
1523615834932,-1179648,123,-56,-1,-1,0
1523615834972,-1966080,123,-56,-1,-1,0
1523615834972,-1835008,123,-56,-1,-1,0
1523615834972,-1638400,123,-56,-1,-1,0
1523615834972,-1441792,123,-56,-1,-1,0
1523615834972,-1310720,123,-56,-1,-1,0
1523615835012,-1245184,123,-56,-1,-1,0
1523615835012,-1179648,123,-56,-1,-1,0
1523615835012,-1114112,123,-56,-1,-1,0
1523615835012,-917504,123,-56,-1,-1,0
1523615835012,-720896,123,-56,-1,-1,0
1523615835052,-458752,123,-56,-1,-1,0
1523615835052,-131072,123,-56,-1,-1,0
1523615835052,262144,123,-56,-1,-1,0
1523615835052,917504,123,-56,-1,-1,0
1523615835052,1441792,123,-56,-1,-1,0
1523615835092,1966080,123,-56,-1,-1,0
1523615835092,2359296,123,-56,-1,-1,0
1523615835092,2555904,123,-56,-1,-1,0
1523615835092,2424832,123,-56,-1,-1,0
1523615835092,2162688,123,-56,-1,-1,0
1523615835132,1638400,123,-56,-1,-1,0
1523615835132,1179648,123,-56,-1,-1,0
1523615835132,786432,123,-56,-1,-1,0
1523615835132,393216,123,-56,-1,-1,0
1523615835132,196608,123,-56,-1,-1,0
1523615835172,131072,123,-56,-1,-1,0
1523615835172,65536,123,-56,-1,-1,0
1523615835172,0,123,-56,-1,-1,0
1523615835172,-65536,123,-56,-1,-1,0
1523615835172,-65536,123,-56,-1,-1,0
1523615835212,0,123,-56,-1,-1,0
1523615835212,0,123,-56,-1,-1,0
1523615835212,0,123,-56,-1,-1,0
1523615835212,0,123,-56,-1,-1,0
1523615835212,65536,123,-56,-1,-1,0
1523615835252,0,123,-56,-1,-1,0
1523615835252,-131072,123,-56,-1,-1,0
1523615835252,-327680,123,-56,-1,-1,0
1523615835252,-393216,123,-56,-1,-1,0
1523615835252,-458752,123,-56,-1,-1,0
1523615835292,-524288,123,-56,-1,-1,0
1523615835292,-524288,123,-56,-1,-1,0
1523615835292,-589824,123,-56,-1,-1,0
1523615835292,-589824,123,-56,-1,-1,0
1523615835292,-720896,123,-56,-1,-1,0
1523615835332,-786432,123,-56,-1,-1,0
1523615835332,-851968,123,-56,-1,-1,0
1523615835332,-1048576,123,-56,-1,-1,0
1523615835332,-1048576,123,-56,-1,-1,0
1523615835332,-1048576,123,-56,-1,-1,0
1523615835372,-983040,123,-56,-1,-1,0
1523615835372,-1114112,123,-56,-1,-1,0
1523615835372,-1048576,123,-56,-1,-1,0
1523615835372,524288,123,-56,-1,-1,0
1523615835372,4259840,123,-56,-1,-1,0
1523615835412,7471104,123,-56,-1,-1,0
1523615835412,6619136,123,-56,-1,-1,0
1523615835412,2359296,123,-56,-1,-1,0
1523615835412,-1179648,123,-56,-1,-1,0
1523615835412,-2162688,123,-56,-1,-1,0
1523615835465,-2031616,123,-56,-1,-1,0
1523615835465,-1900544,123,-56,-1,-1,0
1523615835465,-1769472,123,-56,-1,-1,0
1523615835465,-1769472,123,-56,-1,-1,0
1523615835465,-1703936,123,-56,-1,-1,0
1523615835492,-1572864,123,-56,-1,-1,0
1523615835492,-1441792,123,-56,-1,-1,0
1523615835492,-1310720,123,-56,-1,-1,0
1523615835492,-1179648,123,-56,-1,-1,0
1523615835492,-983040,123,-56,-1,-1,0
1523615835532,-720896,123,-56,-1,-1,0
1523615835532,-327680,123,-56,-1,-1,0
1523615835532,0,123,-56,-1,-1,0
1523615835532,393216,123,-56,-1,-1,0
1523615835532,786432,123,-56,-1,-1,0
1523615835572,1114112,123,-56,-1,-1,0
1523615835572,1114112,123,-56,-1,-1,0
1523615835572,917504,123,-56,-1,-1,0
1523615835572,589824,123,-56,-1,-1,0
1523615835572,196608,123,-56,-1,-1,0
1523615835612,-196608,123,-56,-1,-1,0
1523615835612,-589824,123,-56,-1,-1,0
1523615835612,-917504,123,-56,-1,-1,0
1523615835612,-1114112,123,-56,-1,-1,0
1523615835612,-1310720,123,-56,-1,-1,0
1523615835652,-1376256,123,-56,-1,-1,0
1523615835652,-1441792,123,-56,-1,-1,0
1523615835652,-1441792,123,-56,-1,-1,0
1523615835652,-1376256,123,-56,-1,-1,0
1523615835652,-1310720,123,-56,-1,-1,0
1523615835692,-1310720,123,-56,-1,-1,0
1523615835692,-1310720,123,-56,-1,-1,0
1523615835692,-1310720,123,-56,-1,-1,0
1523615835692,-1310720,123,-56,-1,-1,0
1523615835692,-1376256,123,-56,-1,-1,0
1523615835732,-1441792,123,-56,-1,-1,0
1523615835732,-1441792,123,-56,-1,-1,0
1523615835732,-1441792,123,-56,-1,-1,0
1523615835732,-1376256,123,-56,-1,-1,0
1523615835732,-1376256,123,-56,-1,-1,0
1523615835772,-1376256,123,-56,-1,-1,0
1523615835772,-1310720,123,-56,-1,-1,0
1523615835772,-1245184,123,-56,-1,-1,0
1523615835772,-1310720,123,-56,-1,-1,0
1523615835772,-1376256,123,-56,-1,-1,0
1523615835812,-1376256,123,-56,-1,-1,0
1523615835812,-1245184,123,-56,-1,-1,0
1523615835812,-1179648,123,-56,-1,-1,0
1523615835812,-1179648,123,-56,-1,-1,0
1523615835812,-1179648,123,-56,-1,-1,0
1523615835852,-1245184,123,-56,-1,-1,0
1523615835852,-851968,123,-56,-1,-1,0
1523615835852,1114112,123,-56,-1,-1,0
1523615835852,4849664,123,-56,-1,-1,0
1523615835852,7405568,123,-56,-1,-1,0
1523615835892,5832704,123,-56,-1,-1,0
1523615835892,1769472,123,-56,-1,-1,0
1523615835892,-1179648,123,-56,-1,-1,0
1523615835892,-1769472,123,-56,-1,-1,0
1523615835892,-1441792,123,-56,-1,-1,0
1523615835932,-1114112,123,-56,-1,-1,0
1523615835932,-917504,123,-56,-1,-1,0
1523615835932,-786432,123,-56,-1,-1,0
1523615835932,-589824,123,-56,-1,-1,0
1523615835932,-458752,123,-56,-1,-1,0
1523615835972,-327680,123,-56,-1,-1,0
1523615835972,-196608,123,-56,-1,-1,0
1523615835972,0,123,-56,-1,-1,0
1523615835972,196608,123,-56,-1,-1,0
1523615835972,524288,123,-56,-1,-1,0
1523615836014,983040,123,-56,-1,-1,0
1523615836014,1507328,123,-56,-1,-1,0
1523615836014,2097152,123,-56,-1,-1,0
1523615836014,2621440,123,-56,-1,-1,0
1523615836014,2818048,123,-56,-1,-1,0
1523615836052,2883584,123,-56,-1,-1,0
1523615836052,2686976,123,-56,-1,-1,0
1523615836052,2293760,123,-56,-1,-1,0
1523615836052,1835008,123,-56,-1,-1,0
1523615836052,1310720,123,-56,-1,-1,0
1523615836105,917504,123,-56,-1,-1,0
1523615836105,589824,123,-56,-1,-1,0
1523615836105,393216,123,-56,-1,-1,0
1523615836105,196608,123,-56,-1,-1,0
1523615836105,65536,123,-56,-1,-1,0
1523615836132,0,123,-56,-1,-1,0
1523615836132,0,123,-56,-1,-1,0
1523615836132,131072,123,-56,-1,-1,0
1523615836132,196608,123,-56,-1,-1,0
1523615836132,131072,123,-56,-1,-1,0
1523615836172,131072,123,-56,-1,-1,0
1523615836172,65536,123,-56,-1,-1,0
1523615836172,65536,123,-56,-1,-1,0
1523615836172,0,123,-56,-1,-1,0
1523615836172,0,123,-56,-1,-1,0
1523615836212,-65536,123,-56,-1,-1,0
1523615836212,-131072,123,-56,-1,-1,0
1523615836212,-196608,123,-56,-1,-1,0
1523615836212,-327680,123,-56,-1,-1,0
1523615836212,-327680,123,-56,-1,-1,0
1523615836252,-393216,123,-56,-1,-1,0
1523615836252,-458752,123,-56,-1,-1,0
1523615836252,-524288,123,-56,-1,-1,0
1523615836252,-655360,123,-56,-1,-1,0
1523615836252,-720896,123,-56,-1,-1,0
1523615836292,-720896,123,-56,-1,-1,0
1523615836292,-786432,123,-56,-1,-1,0
1523615836292,-786432,123,-56,-1,-1,0
1523615836292,-851968,123,-56,-1,-1,0
1523615836292,-983040,123,-56,-1,-1,0
1523615836332,-262144,123,-56,-1,-1,0
1523615836332,2359296,123,-56,-1,-1,0
1523615836332,6225920,123,-56,-1,-1,0
1523615836332,7602176,123,-56,-1,-1,0
1523615836332,4980736,123,-56,-1,-1,0
1523615836372,1310720,123,-56,-1,-1,0
1523615836372,-655360,123,-56,-1,-1,0
1523615836372,-1114112,123,-56,-1,-1,0
1523615836372,-1048576,123,-56,-1,-1,0
1523615836372,-1048576,123,-56,-1,-1,0
1523615836412,-983040,123,-56,-1,-1,0
1523615836412,-983040,123,-56,-1,-1,0
1523615836412,-851968,123,-56,-1,-1,0
1523615836412,-786432,123,-56,-1,-1,0
1523615836412,-589824,123,-56,-1,-1,0
1523615836452,-458752,123,-56,-1,-1,0
1523615836452,-327680,123,-56,-1,-1,0
1523615836452,-196608,123,-56,-1,-1,0
1523615836452,65536,123,-56,-1,-1,0
1523615836452,393216,123,-56,-1,-1,0
1523615836492,786432,123,-56,-1,-1,0
1523615836492,1179648,123,-56,-1,-1,0
1523615836492,1441792,123,-56,-1,-1,0
1523615836492,1638400,123,-56,-1,-1,0
1523615836492,1638400,123,-56,-1,-1,0
1523615836532,1507328,123,-56,-1,-1,0
1523615836532,1179648,123,-56,-1,-1,0
1523615836532,720896,123,-56,-1,-1,0
1523615836532,262144,123,-56,-1,-1,0
1523615836532,0,123,-56,-1,-1,0
1523615836572,-65536,125,-56,-1,-1,0
1523615836572,-196608,125,-56,-1,-1,0
1523615836572,-327680,125,-56,-1,-1,0
1523615836572,-393216,125,-56,-1,-1,0
1523615836572,-393216,125,-56,-1,-1,0
1523615836612,-393216,125,-56,-1,-1,0
1523615836612,-458752,125,-56,-1,-1,0
1523615836612,-458752,125,-56,-1,-1,0
1523615836612,-393216,125,-56,-1,-1,0
1523615836612,-327680,125,-56,-1,-1,0
1523615836652,-327680,125,-56,-1,-1,0
1523615836652,-327680,125,-56,-1,-1,0
1523615836652,-393216,125,-56,-1,-1,0
1523615836652,-393216,125,-56,-1,-1,0
1523615836652,-458752,125,-56,-1,-1,0
1523615836692,-524288,125,-56,-1,-1,0
1523615836692,-524288,125,-56,-1,-1,0
1523615836692,-589824,125,-56,-1,-1,0
1523615836692,-524288,125,-56,-1,-1,0
1523615836692,-458752,125,-56,-1,-1,0
1523615836745,-458752,125,-56,-1,-1,0
1523615836745,-458752,125,-56,-1,-1,0
1523615836745,-524288,125,-56,-1,-1,0
1523615836745,-524288,125,-56,-1,-1,0
1523615836745,-589824,125,-56,-1,-1,0
1523615836772,-655360,125,-56,-1,-1,0
1523615836772,-655360,125,-56,-1,-1,0
1523615836772,-589824,125,-56,-1,-1,0
1523615836772,-458752,125,-56,-1,-1,0
1523615836772,524288,125,-56,-1,-1,0
1523615836812,3407872,125,-56,-1,-1,0
1523615836812,6619136,125,-56,-1,-1,0
1523615836812,7012352,125,-56,-1,-1,0
1523615836812,3801088,125,-56,-1,-1,0
1523615836812,262144,125,-56,-1,-1,0
1523615836852,-1179648,125,-56,-1,-1,0
1523615836852,-1245184,125,-56,-1,-1,0
1523615836852,-917504,125,-56,-1,-1,0
1523615836852,-786432,125,-56,-1,-1,0
1523615836852,-786432,125,-56,-1,-1,0
1523615836892,-851968,125,-56,-1,-1,0
1523615836892,-720896,125,-56,-1,-1,0
1523615836892,-655360,125,-56,-1,-1,0
1523615836892,-458752,125,-56,-1,-1,0
1523615836892,-327680,125,-56,-1,-1,0
1523615836932,-131072,125,-56,-1,-1,0
1523615836932,65536,125,-56,-1,-1,0
1523615836932,393216,125,-56,-1,-1,0
1523615836932,720896,125,-56,-1,-1,0
1523615836932,1114112,125,-56,-1,-1,0
1523615836972,1507328,125,-56,-1,-1,0
1523615836972,1703936,125,-56,-1,-1,0
1523615836972,1769472,125,-56,-1,-1,0
1523615836972,1703936,125,-56,-1,-1,0
1523615836972,1441792,125,-56,-1,-1,0
1523615837012,983040,125,-56,-1,-1,0
1523615837012,458752,125,-56,-1,-1,0
1523615837012,0,125,-56,-1,-1,0
1523615837012,-327680,125,-56,-1,-1,0
1523615837012,-655360,125,-56,-1,-1,0
1523615837052,-851968,125,-56,-1,-1,0
1523615837052,-983040,125,-56,-1,-1,0
1523615837052,-1048576,125,-56,-1,-1,0
1523615837052,-1114112,125,-56,-1,-1,0
1523615837052,-1114112,125,-56,-1,-1,0
1523615837092,-1114112,125,-56,-1,-1,0
1523615837092,-1114112,125,-56,-1,-1,0
1523615837092,-1114112,125,-56,-1,-1,0
1523615837092,-1114112,125,-56,-1,-1,0
1523615837092,-1114112,125,-56,-1,-1,0
1523615837132,-1179648,125,-56,-1,-1,0
1523615837132,-1179648,125,-56,-1,-1,0
1523615837132,-1179648,125,-56,-1,-1,0
1523615837132,-1310720,125,-56,-1,-1,0
1523615837132,-1376256,125,-56,-1,-1,0
1523615837172,-1310720,125,-56,-1,-1,0
1523615837172,-1310720,125,-56,-1,-1,0
1523615837172,-1310720,125,-56,-1,-1,0
1523615837172,-1376256,125,-56,-1,-1,0
1523615837172,-1507328,125,-56,-1,-1,0
1523615837212,-1638400,125,-56,-1,-1,0
1523615837212,-1769472,125,-56,-1,-1,0
1523615837212,-1769472,125,-56,-1,-1,0
1523615837212,-1769472,125,-56,-1,-1,0
1523615837212,-1703936,125,-56,-1,-1,0
1523615837252,-1703936,125,-56,-1,-1,0
1523615837252,-1769472,125,-56,-1,-1,0
1523615837252,-1245184,125,-56,-1,-1,0
1523615837252,1048576,125,-56,-1,-1,0
1523615837252,5046272,125,-56,-1,-1,0
1523615837292,7405568,125,-56,-1,-1,0
1523615837292,5308416,125,-56,-1,-1,0
1523615837292,1048576,125,-56,-1,-1,0
1523615837292,-1769472,125,-56,-1,-1,0
1523615837292,-2359296,125,-56,-1,-1,0
1523615837332,-2097152,125,-56,-1,-1,0
1523615837332,-1835008,125,-56,-1,-1,0
1523615837332,-1703936,125,-56,-1,-1,0
1523615837332,-1638400,125,-56,-1,-1,0
1523615837332,-1507328,125,-56,-1,-1,0
1523615837385,-1441792,125,-56,-1,-1,0
1523615837385,-1310720,125,-56,-1,-1,0
1523615837385,-1245184,125,-56,-1,-1,0
1523615837385,-1048576,125,-56,-1,-1,0
1523615837385,-851968,125,-56,-1,-1,0
1523615837412,-524288,125,-56,-1,-1,0
1523615837412,-65536,125,-56,-1,-1,0
1523615837412,458752,125,-56,-1,-1,0
1523615837412,1048576,125,-56,-1,-1,0
1523615837412,1572864,125,-56,-1,-1,0
1523615837452,1835008,125,-56,-1,-1,0
1523615837452,1900544,125,-56,-1,-1,0
1523615837452,1769472,125,-56,-1,-1,0
1523615837452,1441792,125,-56,-1,-1,0
1523615837452,917504,125,-56,-1,-1,0
1523615837492,393216,125,-56,-1,-1,0
1523615837492,0,125,-56,-1,-1,0
1523615837492,-196608,125,-56,-1,-1,0
1523615837492,-393216,125,-56,-1,-1,0
1523615837492,-589824,125,-56,-1,-1,0
1523615837532,-786432,125,-56,-1,-1,0
1523615837532,-851968,125,-56,-1,-1,0
1523615837532,-786432,125,-56,-1,-1,0
1523615837532,-786432,125,-56,-1,-1,0
1523615837532,-786432,125,-56,-1,-1,0
1523615837572,-786432,125,-56,-1,-1,0
1523615837572,-720896,125,-56,-1,-1,0
1523615837572,-655360,125,-56,-1,-1,0
1523615837572,-589824,125,-56,-1,-1,0
1523615837572,-655360,125,-56,-1,-1,0
1523615837612,-720896,125,-56,-1,-1,0
1523615837612,-786432,125,-56,-1,-1,0
1523615837612,-786432,125,-56,-1,-1,0
1523615837612,-851968,125,-56,-1,-1,0
1523615837612,-917504,125,-56,-1,-1,0
1523615837652,-851968,125,-56,-1,-1,0
1523615837652,-851968,125,-56,-1,-1,0
1523615837652,-983040,125,-56,-1,-1,0
1523615837652,-1114112,125,-56,-1,-1,0
1523615837652,-1179648,125,-56,-1,-1,0
1523615837692,-1310720,125,-56,-1,-1,0
1523615837692,-1376256,125,-56,-1,-1,0
1523615837692,-1310720,125,-56,-1,-1,0
1523615837692,-1179648,125,-56,-1,-1,0
1523615837692,-1245184,125,-56,-1,-1,0
1523615837732,-1441792,125,-56,-1,-1,0
1523615837732,-851968,125,-56,-1,-1,0
1523615837732,1835008,125,-56,-1,-1,0
1523615837732,5898240,125,-56,-1,-1,0
1523615837732,7667712,125,-56,-1,-1,0
1523615837772,4849664,125,-56,-1,-1,0
1523615837772,589824,125,-56,-1,-1,0
1523615837772,-1703936,125,-56,-1,-1,0
1523615837772,-2031616,125,-56,-1,-1,0
1523615837772,-1835008,125,-56,-1,-1,0
1523615837812,-1769472,125,-56,-1,-1,0
1523615837812,-1638400,125,-56,-1,-1,0
1523615837812,-1572864,125,-56,-1,-1,0
1523615837812,-1507328,125,-56,-1,-1,0
1523615837812,-1441792,125,-56,-1,-1,0
1523615837852,-1310720,125,-56,-1,-1,0
1523615837852,-1179648,125,-56,-1,-1,0
1523615837852,-983040,125,-56,-1,-1,0
1523615837852,-786432,125,-56,-1,-1,0
1523615837852,-524288,125,-56,-1,-1,0
1523615837892,-65536,125,-56,-1,-1,0
1523615837892,327680,125,-56,-1,-1,0
1523615837892,720896,125,-56,-1,-1,0
1523615837892,1114112,125,-56,-1,-1,0
1523615837892,1310720,125,-56,-1,-1,0
1523615837932,1245184,125,-56,-1,-1,0
1523615837932,1048576,125,-56,-1,-1,0
1523615837932,720896,125,-56,-1,-1,0
1523615837932,327680,125,-56,-1,-1,0
1523615837932,0,125,-56,-1,-1,0
1523615837972,-262144,125,-56,-1,-1,0
1523615837972,-393216,125,-56,-1,-1,0
1523615837972,-524288,125,-56,-1,-1,0
1523615837972,-655360,125,-56,-1,-1,0
1523615837972,-589824,125,-56,-1,-1,0
1523615838025,-524288,125,-56,-1,-1,0
1523615838025,-458752,125,-56,-1,-1,0
1523615838025,-458752,125,-56,-1,-1,0
1523615838025,-458752,125,-56,-1,-1,0
1523615838025,-458752,125,-56,-1,-1,0
1523615838052,-458752,125,-56,-1,-1,0
1523615838052,-458752,125,-56,-1,-1,0
1523615838052,-458752,125,-56,-1,-1,0
1523615838052,-524288,125,-56,-1,-1,0
1523615838052,-589824,125,-56,-1,-1,0
1523615838092,-655360,125,-56,-1,-1,0
1523615838092,-655360,125,-56,-1,-1,0
1523615838092,-655360,125,-56,-1,-1,0
1523615838092,-589824,125,-56,-1,-1,0
1523615838092,-524288,125,-56,-1,-1,0
1523615838132,-458752,125,-56,-1,-1,0
1523615838132,-524288,125,-56,-1,-1,0
1523615838132,-655360,125,-56,-1,-1,0
1523615838132,-655360,125,-56,-1,-1,0
1523615838132,-655360,125,-56,-1,-1,0
1523615838172,-589824,125,-56,-1,-1,0
1523615838172,-524288,125,-56,-1,-1,0
1523615838172,-524288,125,-56,-1,-1,0
1523615838172,-589824,125,-56,-1,-1,0
1523615838172,-589824,125,-56,-1,-1,0
1523615838212,65536,125,-56,-1,-1,0
1523615838212,2555904,125,-56,-1,-1,0
1523615838212,5963776,125,-56,-1,-1,0
1523615838212,7208960,125,-56,-1,-1,0
1523615838212,4849664,125,-56,-1,-1,0
1523615838252,1376256,125,-56,-1,-1,0
1523615838252,-393216,125,-56,-1,-1,0
1523615838252,-655360,125,-56,-1,-1,0
1523615838252,-393216,125,-56,-1,-1,0
1523615838252,-327680,125,-56,-1,-1,0
1523615838292,-262144,125,-56,-1,-1,0
1523615838292,-196608,125,-56,-1,-1,0
1523615838292,-131072,125,-56,-1,-1,0
1523615838292,-65536,125,-56,-1,-1,0
1523615838292,0,125,-56,-1,-1,0
1523615838332,131072,125,-56,-1,-1,0
1523615838332,327680,125,-56,-1,-1,0
1523615838332,524288,125,-56,-1,-1,0
1523615838332,851968,125,-56,-1,-1,0
1523615838332,1245184,125,-56,-1,-1,0
1523615838372,1638400,125,-56,-1,-1,0
1523615838372,2031616,125,-56,-1,-1,0
1523615838372,2359296,125,-56,-1,-1,0
1523615838372,2555904,125,-56,-1,-1,0
1523615838372,2555904,125,-56,-1,-1,0
1523615838412,2293760,125,-56,-1,-1,0
1523615838412,1900544,125,-56,-1,-1,0
1523615838412,1441792,125,-56,-1,-1,0
1523615838412,917504,125,-56,-1,-1,0
1523615838412,524288,125,-56,-1,-1,0
1523615838452,327680,126,-56,-1,-1,0
1523615838452,196608,126,-56,-1,-1,0
1523615838452,65536,126,-56,-1,-1,0
1523615838452,0,126,-56,-1,-1,0
1523615838452,-131072,126,-56,-1,-1,0
1523615838492,-131072,126,-56,-1,-1,0
1523615838492,0,126,-56,-1,-1,0
1523615838492,0,126,-56,-1,-1,0
1523615838492,0,126,-56,-1,-1,0
1523615838492,0,126,-56,-1,-1,0
1523615838532,-131072,126,-56,-1,-1,0
1523615838532,-196608,126,-56,-1,-1,0
1523615838532,-327680,126,-56,-1,-1,0
1523615838532,-393216,126,-56,-1,-1,0
1523615838532,-458752,126,-56,-1,-1,0
1523615838572,-458752,126,-56,-1,-1,0
1523615838572,-458752,126,-56,-1,-1,0
1523615838572,-458752,126,-56,-1,-1,0
1523615838572,-458752,126,-56,-1,-1,0
1523615838572,-458752,126,-56,-1,-1,0
1523615838612,-589824,126,-56,-1,-1,0
1523615838612,-786432,126,-56,-1,-1,0
1523615838612,-983040,126,-56,-1,-1,0
1523615838612,-1048576,126,-56,-1,-1,0
1523615838612,-1114112,126,-56,-1,-1,0
1523615838665,-1048576,126,-56,-1,-1,0
1523615838665,-1114112,126,-56,-1,-1,0
1523615838665,-1245184,126,-56,-1,-1,0
1523615838665,-1310720,126,-56,-1,-1,0
1523615838665,-458752,126,-56,-1,-1,0
1523615838692,2359296,126,-56,-1,-1,0
1523615838692,5898240,126,-56,-1,-1,0
1523615838692,6815744,126,-56,-1,-1,0
1523615838692,3932160,126,-56,-1,-1,0
1523615838692,262144,126,-56,-1,-1,0
1523615838732,-1507328,126,-56,-1,-1,0
1523615838732,-1835008,126,-56,-1,-1,0
1523615838732,-1638400,126,-56,-1,-1,0
1523615838732,-1507328,126,-56,-1,-1,0
1523615838732,-1376256,126,-56,-1,-1,0
1523615838772,-1245184,126,-56,-1,-1,0
1523615838772,-1179648,126,-56,-1,-1,0
1523615838772,-1114112,126,-56,-1,-1,0
1523615838772,-983040,126,-56,-1,-1,0
1523615838772,-851968,126,-56,-1,-1,0
1523615838812,-655360,126,-56,-1,-1,0
1523615838812,-458752,126,-56,-1,-1,0
1523615838812,-65536,126,-56,-1,-1,0
1523615838812,327680,126,-56,-1,-1,0
1523615838812,917504,126,-56,-1,-1,0
1523615838852,1441792,126,-56,-1,-1,0
1523615838852,1769472,126,-56,-1,-1,0
1523615838852,1966080,126,-56,-1,-1,0
1523615838852,1900544,126,-56,-1,-1,0
