milliseconds, ECG, ECG HR, PPG, PPG HR, SpO2, PI
0,1114112,99,-56,-1,-1,0
33,-458752,99,-56,-1,-1,0
66,-851968,99,-56,-1,-1,0
100,-720896,99,-56,-1,-1,0
133,-655360,99,-56,-1,-1,0
166,-786432,99,-56,-1,-1,0
200,-1048576,99,-56,-1,-1,0
233,-1179648,99,-56,-1,-1,0
266,-786432,99,-56,-1,-1,0
300,-1114112,97,-56,-1,-1,0
333,-1048576,97,-56,-1,-1,0
366,7274496,97,-56,-1,-1,0
400,-917504,97,-56,-1,-1,0
433,-589824,97,-56,-1,-1,0
466,0,97,-56,-1,-1,0
500,1245184,97,-56,-1,-1,0
533,1507328,97,-56,-1,-1,0
566,-262144,97,-56,-1,-1,0
600,-786432,97,-56,-1,-1,0
633,-524288,97,-56,-1,-1,0
666,-655360,97,-56,-1,-1,0
700,-720896,97,-56,-1,-1,0
733,-917504,97,-56,-1,-1,0
766,-1245184,97,-56,-1,-1,0
800,-655360,97,-56,-1,-1,0
833,-1179648,94,-56,-1,-1,0
866,-1114112,94,-56,-1,-1,0
900,4128768,94,-56,-1,-1,0
933,-1638400,94,-56,-1,-1,0
966,-655360,94,-56,-1,-1,0
1000,-65536,94,-56,-1,-1,0
1033,786432,94,-56,-1,-1,0
1066,2031616,94,-56,-1,-1,0
1100,1114112,94,-56,-1,-1,0
1133,-65536,94,-56,-1,-1,0
1166,-196608,94,-56,-1,-1,0
1200,-196608,94,-56,-1,-1,0
1233,-262144,94,-56,-1,-1,0
1266,-393216,94,-56,-1,-1,0
1300,-655360,94,-56,-1,-1,0
1333,-327680,94,-56,-1,-1,0
1366,-458752,94,-56,-1,-1,0
1400,-327680,93,-56,-1,-1,0
1433,0,93,-56,-1,-1,0
1466,2555904,93,-56,-1,-1,0
1500,-327680,93,-56,-1,-1,0
1533,0,93,-56,-1,-1,0
1566,655360,93,-56,-1,-1,0
1600,1638400,93,-56,-1,-1,0
1633,1310720,93,-56,-1,-1,0
1666,-196608,93,-56,-1,-1,0
1700,-786432,93,-56,-1,-1,0
1733,-196608,93,-56,-1,-1,0
1766,-655360,93,-56,-1,-1,0
1800,-655360,93,-56,-1,-1,0
1833,-720896,93,-56,-1,-1,0
1866,-1114112,93,-56,-1,-1,0
1900,-524288,93,-56,-1,-1,0
1933,-786432,92,-56,-1,-1,0
1966,-720896,92,-56,-1,-1,0
2000,7208960,92,-56,-1,-1,0
2033,-1114112,92,-56,-1,-1,0
2066,-458752,92,-56,-1,-1,0
2100,-262144,92,-56,-1,-1,0
2133,851968,92,-56,-1,-1,0
2166,2097152,92,-56,-1,-1,0
2200,589824,92,-56,-1,-1,0
2233,-458752,92,-56,-1,-1,0
2266,-720896,92,-56,-1,-1,0
2300,-458752,92,-56,-1,-1,0
2333,-851968,92,-56,-1,-1,0
2366,-983040,92,-56,-1,-1,0
2400,-1048576,92,-56,-1,-1,0
2433,-851968,92,-56,-1,-1,0
2466,-983040,92,-56,-1,-1,0
2500,-1048576,92,-56,-1,-1,0
2533,2162688,92,-56,-1,-1,0
2566,-1638400,92,-56,-1,-1,0
2600,-655360,92,-56,-1,-1,0
2633,-262144,92,-56,-1,-1,0
2666,720896,92,-56,-1,-1,0
2700,1966080,92,-56,-1,-1,0
2733,1114112,92,-56,-1,-1,0
2766,-655360,92,-56,-1,-1,0
2800,-786432,92,-56,-1,-1,0
2833,-720896,92,-56,-1,-1,0
2866,-720896,92,-56,-1,-1,0
2900,-851968,92,-56,-1,-1,0
2933,-1114112,92,-56,-1,-1,0
2966,-917504,92,-56,-1,-1,0
3000,-1114112,92,-56,-1,-1,0
3033,-1114112,92,-56,-1,-1,0
3066,2621440,92,-56,-1,-1,0
3100,-2162688,92,-56,-1,-1,0
3133,-1048576,92,-56,-1,-1,0
3166,-524288,92,-56,-1,-1,0
3200,327680,92,-56,-1,-1,0
3233,1638400,92,-56,-1,-1,0
3266,655360,92,-56,-1,-1,0
3300,-851968,92,-56,-1,-1,0
3333,-983040,92,-56,-1,-1,0
3366,-1048576,92,-56,-1,-1,0
3400,-1114112,92,-56,-1,-1,0
3433,-1245184,92,-56,-1,-1,0
3466,-1376256,92,-56,-1,-1,0
3500,-1179648,92,-56,-1,-1,0
3533,-1245184,92,-56,-1,-1,0
3566,-1245184,92,-56,-1,-1,0
3600,1179648,92,-56,-1,-1,0
3633,-1048576,92,-56,-1,-1,0
3666,-917504,92,-56,-1,-1,0
3699,-393216,92,-56,-1,-1,0
3733,524288,92,-56,-1,-1,0
3766,1703936,92,-56,-1,-1,0
3800,1245184,92,-56,-1,-1,0
3833,-262144,92,-56,-1,-1,0
3866,-458752,92,-56,-1,-1,0
3900,-458752,92,-56,-1,-1,0
3933,-524288,92,-56,-1,-1,0
3966,-589824,92,-56,-1,-1,0
4000,-720896,92,-56,-1,-1,0
4033,-524288,92,-56,-1,-1,0
4066,-458752,93,-56,-1,-1,0
4100,-720896,93,-56,-1,-1,0
4133,589824,93,-56,-1,-1,0
4166,327680,93,-56,-1,-1,0
4200,-458752,93,-56,-1,-1,0
4233,-65536,93,-56,-1,-1,0
4266,786432,93,-56,-1,-1,0
4300,1966080,93,-56,-1,-1,0
4333,1441792,93,-56,-1,-1,0
4366,-262144,93,-56,-1,-1,0
4400,-655360,93,-56,-1,-1,0
4433,-524288,93,-56,-1,-1,0
4466,-524288,93,-56,-1,-1,0
4500,-655360,93,-56,-1,-1,0
4533,-786432,93,-56,-1,-1,0
4566,-851968,93,-56,-1,-1,0
4600,-720896,93,-56,-1,-1,0
4633,-786432,93,-56,-1,-1,0
4666,786432,93,-56,-1,-1,0
4700,-65536,93,-56,-1,-1,0
4733,-393216,93,-56,-1,-1,0
4766,0,93,-56,-1,-1,0
4800,720896,93,-56,-1,-1,0
4833,1835008,93,-56,-1,-1,0
4866,1310720,93,-56,-1,-1,0
4900,-393216,93,-56,-1,-1,0
4933,-786432,93,-56,-1,-1,0
4966,-720896,93,-56,-1,-1,0
5000,-655360,93,-56,-1,-1,0
5033,-851968,93,-56,-1,-1,0
5066,-851968,93,-56,-1,-1,0
5100,-1245184,93,-56,-1,-1,0
5133,-720896,93,-56,-1,-1,0
5166,-1179648,93,-56,-1,-1,0
5200,-1179648,93,-56,-1,-1,0
5233,9043968,93,-56,-1,-1,0
5266,-983040,93,-56,-1,-1,0
5300,-458752,93,-56,-1,-1,0
5333,458752,93,-56,-1,-1,0
5366,1638400,93,-56,-1,-1,0
5400,2490368,93,-56,-1,-1,0
5433,1179648,93,-56,-1,-1,0
5466,524288,93,-56,-1,-1,0
5500,0,93,-56,-1,-1,0
5533,-65536,93,-56,-1,-1,0
5566,-393216,93,-56,-1,-1,0
5600,-720896,93,-56,-1,-1,0
5633,-786432,93,-56,-1,-1,0
5666,-589824,93,-56,-1,-1,0
5700,-983040,93,-56,-1,-1,0
5733,-786432,93,-56,-1,-1,0
5766,2490368,93,-56,-1,-1,0
5800,-1310720,93,-56,-1,-1,0
5833,-1179648,93,-56,-1,-1,0
5866,-786432,93,-56,-1,-1,0
5900,262144,93,-56,-1,-1,0
5933,1048576,93,-56,-1,-1,0
5966,393216,93,-56,-1,-1,0
6000,-1245184,93,-56,-1,-1,0
6033,-1245184,93,-56,-1,-1,0
6066,-983040,93,-56,-1,-1,0
6100,-1179648,93,-56,-1,-1,0
6133,-1310720,93,-56,-1,-1,0
6166,-1572864,93,-56,-1,-1,0
6200,-1769472,93,-56,-1,-1,0
6233,-1245184,93,-56,-1,-1,0
6266,-1572864,93,-56,-1,-1,0
6300,-1769472,93,-56,-1,-1,0
6333,9437184,93,-56,-1,-1,0
6366,-1310720,93,-56,-1,-1,0
6400,-1179648,93,-56,-1,-1,0
6433,-524288,93,-56,-1,-1,0
6466,262144,93,-56,-1,-1,0
6500,1245184,93,-56,-1,-1,0
6533,-262144,93,-56,-1,-1,0
6566,-1114112,93,-56,-1,-1,0
6600,-851968,93,-56,-1,-1,0
6633,-458752,93,-56,-1,-1,0
6666,-655360,93,-56,-1,-1,0
6700,-327680,93,-56,-1,-1,0
6733,-327680,93,-56,-1,-1,0
6766,-458752,93,-56,-1,-1,0
6800,0,93,-56,-1,-1,0
6833,-131072,92,-56,-1,-1,0
6866,-393216,92,-56,-1,-1,0
6899,10420224,92,-56,-1,-1,0
6933,-393216,92,-56,-1,-1,0
6966,-196608,92,-56,-1,-1,0
7000,393216,92,-56,-1,-1,0
7033,1769472,92,-56,-1,-1,0
7066,2818048,92,-56,-1,-1,0
7100,393216,92,-56,-1,-1,0
7133,-524288,92,-56,-1,-1,0
7166,-720896,92,-56,-1,-1,0
7200,-917504,92,-56,-1,-1,0
7233,-1048576,92,-56,-1,-1,0
7266,-458752,92,-56,-1,-1,0
7300,-786432,92,-56,-1,-1,0
7333,-983040,92,-56,-1,-1,0
7366,-655360,92,-56,-1,-1,0
7399,-1245184,92,-56,-1,-1,0
7433,1966080,92,-56,-1,-1,0
7466,-1376256,92,-56,-1,-1,0
7500,-786432,92,-56,-1,-1,0
7533,-393216,92,-56,-1,-1,0
7566,720896,92,-56,-1,-1,0
7600,2293760,92,-56,-1,-1,0
7633,589824,92,-56,-1,-1,0
7666,-1179648,92,-56,-1,-1,0
7700,-1441792,92,-56,-1,-1,0
7733,-1507328,92,-56,-1,-1,0
7766,-1376256,92,-56,-1,-1,0
7800,-917504,92,-56,-1,-1,0
7833,-1507328,92,-56,-1,-1,0
7866,-1441792,92,-56,-1,-1,0
7899,-1179648,92,-56,-1,-1,0
7933,-1245184,92,-56,-1,-1,0
7966,-589824,92,-56,-1,-1,0
8000,2686976,92,-56,-1,-1,0
8033,-720896,92,-56,-1,-1,0
8066,-589824,92,-56,-1,-1,0
8100,-131072,92,-56,-1,-1,0
8133,851968,92,-56,-1,-1,0
8166,1114112,92,-56,-1,-1,0
8200,-196608,92,-56,-1,-1,0
8233,-655360,92,-56,-1,-1,0
8266,-851968,92,-56,-1,-1,0
8300,-917504,92,-56,-1,-1,0
8333,-917504,92,-56,-1,-1,0
8366,-917504,92,-56,-1,-1,0
8400,-458752,92,-56,-1,-1,0
8433,-458752,92,-56,-1,-1,0
8466,-327680,92,-56,-1,-1,0
8500,2490368,92,-56,-1,-1,0
8533,-524288,92,-56,-1,-1,0
8566,196608,92,-56,-1,-1,0
8600,720896,92,-56,-1,-1,0
8633,1114112,92,-56,-1,-1,0
8666,1638400,92,-56,-1,-1,0
8700,1048576,92,-56,-1,-1,0
8733,-196608,92,-56,-1,-1,0
8766,-131072,92,-56,-1,-1,0
8800,65536,92,-56,-1,-1,0
8833,0,92,-56,-1,-1,0
8866,-65536,92,-56,-1,-1,0
8900,-65536,92,-56,-1,-1,0
8933,458752,92,-56,-1,-1,0
8966,196608,92,-56,-1,-1,0
9000,196608,92,-56,-1,-1,0
9033,9371648,92,-56,-1,-1,0
9066,458752,92,-56,-1,-1,0
9100,786432,92,-56,-1,-1,0
9133,1245184,92,-56,-1,-1,0
9166,2686976,92,-56,-1,-1,0
9200,2621440,92,-56,-1,-1,0
9233,589824,92,-56,-1,-1,0
9266,-131072,92,-56,-1,-1,0
9300,-65536,92,-56,-1,-1,0
9333,-131072,92,-56,-1,-1,0
9366,-458752,92,-56,-1,-1,0
9400,-589824,92,-56,-1,-1,0
9433,-524288,92,-56,-1,-1,0
9466,-786432,92,-56,-1,-1,0
9500,-786432,92,-56,-1,-1,0
9533,8060928,92,-56,-1,-1,0
9566,-786432,92,-56,-1,-1,0
9600,-655360,92,-56,-1,-1,0
9633,0,92,-56,-1,-1,0
9666,1310720,92,-56,-1,-1,0
9700,1572864,92,-56,-1,-1,0
9733,-131072,92,-56,-1,-1,0
9766,-851968,92,-56,-1,-1,0
9800,-917504,92,-56,-1,-1,0
9833,-720896,92,-56,-1,-1,0
9866,-917504,92,-56,-1,-1,0
9900,-1179648,92,-56,-1,-1,0
9933,-1048576,93,-56,-1,-1,0
9966,-1310720,93,-56,-1,-1,0
10000,-1376256,93,-56,-1,-1,0
10033,8716288,93,-56,-1,-1,0
10066,-1048576,93,-56,-1,-1,0
10100,-917504,93,-56,-1,-1,0
10133,-196608,93,-56,-1,-1,0
10166,1310720,93,-56,-1,-1,0
10200,1638400,93,-56,-1,-1,0
10233,-458752,93,-56,-1,-1,0
10266,-1114112,93,-56,-1,-1,0
10300,-1048576,93,-56,-1,-1,0
10333,-1048576,93,-56,-1,-1,0
10366,-1048576,93,-56,-1,-1,0
10400,-1245184,93,-56,-1,-1,0
10433,-655360,93,-56,-1,-1,0
10466,-851968,93,-56,-1,-1,0
10500,-851968,93,-56,-1,-1,0
10533,10092544,93,-56,-1,-1,0
10566,-786432,93,-56,-1,-1,0
10600,-589824,93,-56,-1,-1,0
10633,-131072,93,-56,-1,-1,0
10666,1179648,93,-56,-1,-1,0
10700,1900544,93,-56,-1,-1,0
10733,0,93,-56,-1,-1,0
10766,-917504,93,-56,-1,-1,0
10800,-983040,93,-56,-1,-1,0
10833,-917504,93,-56,-1,-1,0
10866,-983040,93,-56,-1,-1,0
10900,-1114112,93,-56,-1,-1,0
10933,-851968,93,-56,-1,-1,0
10966,-786432,93,-56,-1,-1,0
11000,-720896,93,-56,-1,-1,0
11033,655360,93,-56,-1,-1,0
11066,393216,93,-56,-1,-1,0
11100,-720896,93,-56,-1,-1,0
11133,-458752,93,-56,-1,-1,0
11166,196608,93,-56,-1,-1,0
11200,1638400,93,-56,-1,-1,0
11233,1310720,93,-56,-1,-1,0
11266,-655360,93,-56,-1,-1,0
11300,-851968,93,-56,-1,-1,0
11333,-720896,93,-56,-1,-1,0
11366,-786432,93,-56,-1,-1,0
11400,-851968,93,-56,-1,-1,0
11433,-983040,93,-56,-1,-1,0
11466,-1048576,93,-56,-1,-1,0
11500,-786432,93,-56,-1,-1,0
11533,-983040,93,-56,-1,-1,0
11566,-917504,93,-56,-1,-1,0
11600,7405568,93,-56,-1,-1,0
11633,-983040,93,-56,-1,-1,0
11666,-524288,93,-56,-1,-1,0
11700,0,93,-56,-1,-1,0
11733,1245184,93,-56,-1,-1,0
11766,1703936,93,-56,-1,-1,0
11800,-65536,93,-56,-1,-1,0
11833,-655360,93,-56,-1,-1,0
11866,-524288,93,-56,-1,-1,0
11900,-458752,93,-56,-1,-1,0
11933,-524288,93,-56,-1,-1,0
11966,-589824,93,-56,-1,-1,0
12000,-720896,93,-56,-1,-1,0
12033,-917504,93,-56,-1,-1,0
12066,-393216,93,-56,-1,-1,0
12100,-786432,93,-56,-1,-1,0
12133,-655360,93,-56,-1,-1,0
12166,4194304,93,-56,-1,-1,0
12200,-1441792,93,-56,-1,-1,0
12233,-393216,93,-56,-1,-1,0
12266,0,93,-56,-1,-1,0
12300,851968,93,-56,-1,-1,0
12333,2228224,93,-56,-1,-1,0
12366,1310720,93,-56,-1,-1,0
12400,-262144,93,-56,-1,-1,0
12433,-589824,93,-56,-1,-1,0
12466,-458752,93,-56,-1,-1,0
12500,-458752,93,-56,-1,-1,0
12533,-851968,93,-56,-1,-1,0
12566,-786432,93,-56,-1,-1,0
12600,-917504,93,-56,-1,-1,0
12633,-1114112,93,-56,-1,-1,0
12666,-655360,93,-56,-1,-1,0
12700,-851968,93,-56,-1,-1,0
12733,-720896,93,-56,-1,-1,0
12766,1376256,93,-56,-1,-1,0
12800,-196608,92,-56,-1,-1,0
12833,-196608,92,-56,-1,-1,0
12866,0,92,-56,-1,-1,0
12900,917504,92,-56,-1,-1,0
12933,1900544,92,-56,-1,-1,0
12966,1376256,92,-56,-1,-1,0
13000,-196608,92,-56,-1,-1,0
13033,-458752,92,-56,-1,-1,0
13066,-393216,92,-56,-1,-1,0
13100,-458752,92,-56,-1,-1,0
13133,-458752,92,-56,-1,-1,0
13166,-589824,92,-56,-1,-1,0
13200,-720896,92,-56,-1,-1,0
13233,-851968,92,-56,-1,-1,0
13266,-1114112,92,-56,-1,-1,0
13299,-720896,92,-56,-1,-1,0
13333,-1048576,92,-56,-1,-1,0
13366,-983040,92,-56,-1,-1,0
13400,4521984,92,-56,-1,-1,0
13433,-1507328,92,-56,-1,-1,0
13466,-917504,92,-56,-1,-1,0
13500,-524288,92,-56,-1,-1,0
13533,196608,92,-56,-1,-1,0
13566,1310720,92,-56,-1,-1,0
13600,655360,92,-56,-1,-1,0
13633,-655360,92,-56,-1,-1,0
13666,-720896,92,-56,-1,-1,0
13700,-589824,92,-56,-1,-1,0
13733,-524288,92,-56,-1,-1,0
13766,-589824,92,-56,-1,-1,0
13799,-786432,92,-56,-1,-1,0
13833,-851968,92,-56,-1,-1,0
13866,-786432,92,-56,-1,-1,0
13900,-1245184,92,-56,-1,-1,0
13933,-655360,92,-56,-1,-1,0
13966,-851968,92,-56,-1,-1,0
14000,-851968,92,-56,-1,-1,0
14033,7077888,92,-56,-1,-1,0
14066,-1048576,92,-56,-1,-1,0
14100,-458752,92,-56,-1,-1,0
14133,0,92,-56,-1,-1,0
14166,851968,92,-56,-1,-1,0
14200,1900544,92,-56,-1,-1,0
14233,589824,92,-56,-1,-1,0
14266,-851968,92,-56,-1,-1,0
14299,-851968,92,-56,-1,-1,0
14333,-720896,92,-56,-1,-1,0
14366,-655360,92,-56,-1,-1,0
14400,-851968,92,-56,-1,-1,0
14433,-786432,92,-56,-1,-1,0
14466,-851968,92,-56,-1,-1,0
14500,-786432,92,-56,-1,-1,0
14533,-1179648,92,-56,-1,-1,0
14566,-655360,92,-56,-1,-1,0
14600,-851968,92,-56,-1,-1,0
14633,-917504,92,-56,-1,-1,0
14666,2686976,92,-56,-1,-1,0
14700,-1114112,92,-56,-1,-1,0
14733,-589824,92,-56,-1,-1,0
14766,-196608,92,-56,-1,-1,0
14799,458752,92,-56,-1,-1,0
14833,1900544,92,-56,-1,-1,0
14866,1441792,92,-56,-1,-1,0
14900,-262144,92,-56,-1,-1,0
14933,-589824,92,-56,-1,-1,0
14966,-393216,92,-56,-1,-1,0
15000,-524288,92,-56,-1,-1,0
15033,-524288,92,-56,-1,-1,0
15066,-589824,92,-56,-1,-1,0
15100,-655360,92,-56,-1,-1,0
15133,-655360,92,-56,-1,-1,0
15166,-851968,92,-56,-1,-1,0
15200,-983040,92,-56,-1,-1,0
15233,-458752,92,-56,-1,-1,0
15266,-851968,92,-56,-1,-1,0
15299,-983040,92,-56,-1,-1,0
15333,10027008,92,-56,-1,-1,0
15366,-720896,90,-56,-1,-1,0
15400,-589824,90,-56,-1,-1,0
15433,65536,90,-56,-1,-1,0
15466,1245184,90,-56,-1,-1,0
15500,1835008,90,-56,-1,-1,0
15533,65536,90,-56,-1,-1,0
15566,-917504,90,-56,-1,-1,0
15600,-786432,90,-56,-1,-1,0
15633,-720896,90,-56,-1,-1,0
15666,-720896,90,-56,-1,-1,0
15700,-720896,90,-56,-1,-1,0
15733,-655360,90,-56,-1,-1,0
15766,-720896,90,-56,-1,-1,0
15799,-655360,90,-56,-1,-1,0
15833,-720896,90,-56,-1,-1,0
15866,-458752,90,-56,-1,-1,0
15900,-524288,90,-56,-1,-1,0
15933,-524288,90,-56,-1,-1,0
15966,2031616,90,-56,-1,-1,0
16000,-786432,88,-56,-1,-1,0
16033,-262144,88,-56,-1,-1,0
16066,131072,88,-56,-1,-1,0
16100,1114112,88,-56,-1,-1,0
16133,2490368,88,-56,-1,-1,0
16166,1900544,88,-56,-1,-1,0
16200,0,88,-56,-1,-1,0
16233,-393216,88,-56,-1,-1,0
16266,-327680,88,-56,-1,-1,0
16300,-262144,88,-56,-1,-1,0
16333,-655360,88,-56,-1,-1,0
16366,-851968,88,-56,-1,-1,0
16400,-983040,88,-56,-1,-1,0
16433,-1114112,88,-56,-1,-1,0
16466,-1114112,88,-56,-1,-1,0
16500,-1441792,88,-56,-1,-1,0
16533,-917504,88,-56,-1,-1,0
16566,-1376256,88,-56,-1,-1,0
16600,-1114112,88,-56,-1,-1,0
16633,7798784,88,-56,-1,-1,0
16666,-983040,85,-56,-1,-1,0
16700,-720896,85,-56,-1,-1,0
16733,-262144,85,-56,-1,-1,0
16766,1048576,85,-56,-1,-1,0
16800,1638400,85,-56,-1,-1,0
16833,-196608,85,-56,-1,-1,0
16866,-917504,85,-56,-1,-1,0
16900,-786432,85,-56,-1,-1,0
16933,-720896,85,-56,-1,-1,0
16966,-589824,85,-56,-1,-1,0
17000,-655360,85,-56,-1,-1,0
17033,-655360,85,-56,-1,-1,0
17066,-655360,85,-56,-1,-1,0
17100,-524288,85,-56,-1,-1,0
17133,-720896,85,-56,-1,-1,0
17166,-524288,85,-56,-1,-1,0
17200,-589824,85,-56,-1,-1,0
17233,-720896,85,-56,-1,-1,0
17266,1376256,85,-56,-1,-1,0
17300,-393216,81,-56,-1,-1,0
17333,-524288,81,-56,-1,-1,0
17366,0,81,-56,-1,-1,0
17400,720896,81,-56,-1,-1,0
17433,2097152,81,-56,-1,-1,0
17466,1835008,81,-56,-1,-1,0
17500,-131072,81,-56,-1,-1,0
17533,-524288,81,-56,-1,-1,0
17566,-458752,81,-56,-1,-1,0
17600,-458752,81,-56,-1,-1,0
17633,-589824,81,-56,-1,-1,0
17666,-720896,81,-56,-1,-1,0
17700,-851968,81,-56,-1,-1,0
17733,-851968,81,-56,-1,-1,0
17766,-983040,81,-56,-1,-1,0
17800,-851968,81,-56,-1,-1,0
17833,-786432,81,-56,-1,-1,0
17866,-851968,81,-56,-1,-1,0
17900,983040,81,-56,-1,-1,0
17933,-655360,79,-56,-1,-1,0
17966,-524288,79,-56,-1,-1,0
18000,-131072,79,-56,-1,-1,0
18033,524288,79,-56,-1,-1,0
18066,2097152,79,-56,-1,-1,0
18100,1900544,79,-56,-1,-1,0
18133,-65536,79,-56,-1,-1,0
18166,-458752,79,-56,-1,-1,0
18200,-327680,79,-56,-1,-1,0
18233,-327680,79,-56,-1,-1,0
18266,-327680,79,-56,-1,-1,0
18300,-458752,79,-56,-1,-1,0
18333,-458752,79,-56,-1,-1,0
18366,-458752,79,-56,-1,-1,0
18400,-589824,79,-56,-1,-1,0
18433,-524288,79,-56,-1,-1,0
18466,-589824,79,-56,-1,-1,0
18500,-524288,79,-56,-1,-1,0
18533,524288,79,-56,-1,-1,0
18566,1900544,78,-56,-1,-1,0
18600,-589824,78,-56,-1,-1,0
18633,-393216,78,-56,-1,-1,0
18666,262144,78,-56,-1,-1,0
18700,1638400,78,-56,-1,-1,0
18733,1703936,78,-56,-1,-1,0
18766,-131072,78,-56,-1,-1,0
18800,-720896,78,-56,-1,-1,0
18833,-655360,78,-56,-1,-1,0
18866,-655360,78,-56,-1,-1,0
18900,-720896,78,-56,-1,-1,0
18933,-720896,78,-56,-1,-1,0
18966,-786432,78,-56,-1,-1,0
19000,-1048576,78,-56,-1,-1,0
19033,-1179648,78,-56,-1,-1,0
19066,-983040,78,-56,-1,-1,0
19100,-983040,78,-56,-1,-1,0
19133,-1048576,78,-56,-1,-1,0
19166,3538944,78,-56,-1,-1,0
19200,-1572864,78,-56,-1,-1,0
19233,-786432,78,-56,-1,-1,0
19266,-196608,78,-56,-1,-1,0
19300,655360,78,-56,-1,-1,0
19333,2162688,78,-56,-1,-1,0
19366,1572864,78,-56,-1,-1,0
19400,-393216,78,-56,-1,-1,0
19433,-589824,78,-56,-1,-1,0
19466,-524288,78,-56,-1,-1,0
19500,-393216,78,-56,-1,-1,0
19533,-458752,78,-56,-1,-1,0
19566,-524288,78,-56,-1,-1,0
19600,-524288,78,-56,-1,-1,0
19633,-589824,78,-56,-1,-1,0
19666,-851968,78,-56,-1,-1,0
19700,-458752,78,-56,-1,-1,0
19733,-589824,78,-56,-1,-1,0
19766,-720896,78,-56,-1,-1,0
19800,4587520,78,-56,-1,-1,0
19833,-1179648,78,-56,-1,-1,0
19866,-589824,78,-56,-1,-1,0
19900,-262144,78,-56,-1,-1,0
19933,524288,78,-56,-1,-1,0
19966,1703936,78,-56,-1,-1,0
20000,1114112,78,-56,-1,-1,0
20033,-786432,78,-56,-1,-1,0
20066,-1179648,78,-56,-1,-1,0
20100,-1048576,78,-56,-1,-1,0
20133,-983040,78,-56,-1,-1,0
20166,-1114112,78,-56,-1,-1,0
20200,-1245184,78,-56,-1,-1,0
20233,-1245184,78,-56,-1,-1,0
20266,-1310720,78,-56,-1,-1,0
20300,-1310720,78,-56,-1,-1,0
20333,-1507328,78,-56,-1,-1,0
20366,-917504,78,-56,-1,-1,0
20400,-1245184,78,-56,-1,-1,0
20433,-1245184,78,-56,-1,-1,0
20466,9830400,78,-56,-1,-1,0
20500,-1048576,78,-56,-1,-1,0
20533,-262144,78,-56,-1,-1,0
20566,524288,78,-56,-1,-1,0
20600,1769472,78,-56,-1,-1,0
20633,2949120,78,-56,-1,-1,0
20666,1441792,78,-56,-1,-1,0
20700,196608,78,-56,-1,-1,0
20733,0,78,-56,-1,-1,0
20766,0,78,-56,-1,-1,0
20800,-65536,78,-56,-1,-1,0
20833,-262144,78,-56,-1,-1,0
20866,-458752,78,-56,-1,-1,0
20900,-524288,78,-56,-1,-1,0
20933,-589824,78,-56,-1,-1,0
20966,-589824,78,-56,-1,-1,0
21000,-786432,78,-56,-1,-1,0
21033,-262144,78,-56,-1,-1,0
21066,-524288,78,-56,-1,-1,0
21100,-655360,78,-56,-1,-1,0
21133,10354688,78,-56,-1,-1,0
21166,-655360,77,-56,-1,-1,0
21200,-327680,77,-56,-1,-1,0
21233,196608,77,-56,-1,-1,0
21266,1310720,77,-56,-1,-1,0
21300,2424832,77,-56,-1,-1,0
21333,393216,77,-56,-1,-1,0
21366,-983040,77,-56,-1,-1,0
21400,-983040,77,-56,-1,-1,0
21433,-786432,77,-56,-1,-1,0
21466,-786432,77,-56,-1,-1,0
21500,-917504,77,-56,-1,-1,0
21533,-983040,77,-56,-1,-1,0
21566,-983040,77,-56,-1,-1,0
21600,-1048576,77,-56,-1,-1,0
21633,-1179648,77,-56,-1,-1,0
21666,-983040,77,-56,-1,-1,0
21700,-1048576,77,-56,-1,-1,0
21733,-917504,77,-56,-1,-1,0
21766,1638400,77,-56,-1,-1,0
21800,-917504,77,-56,-1,-1,0
21833,-524288,77,-56,-1,-1,0
21866,-131072,77,-56,-1,-1,0
21900,720896,77,-56,-1,-1,0
21933,1835008,77,-56,-1,-1,0
21966,1835008,77,-56,-1,-1,0
22000,-458752,77,-56,-1,-1,0
22033,-786432,77,-56,-1,-1,0
22066,-589824,77,-56,-1,-1,0
22100,-655360,77,-56,-1,-1,0
22133,-655360,77,-56,-1,-1,0
22166,-720896,77,-56,-1,-1,0
22200,-655360,77,-56,-1,-1,0
22233,-917504,77,-56,-1,-1,0
22266,-786432,77,-56,-1,-1,0
22300,-917504,77,-56,-1,-1,0
22333,-851968,77,-56,-1,-1,0
22366,-720896,77,-56,-1,-1,0
22400,-720896,77,-56,-1,-1,0
22433,-720896,77,-56,-1,-1,0
22466,4784128,76,-56,-1,-1,0
22500,-262144,76,-56,-1,-1,0
22533,-196608,76,-56,-1,-1,0
22566,327680,76,-56,-1,-1,0
22600,1507328,76,-56,-1,-1,0
22633,1703936,76,-56,-1,-1,0
22666,327680,76,-56,-1,-1,0
22700,-262144,76,-56,-1,-1,0
22733,-327680,76,-56,-1,-1,0
22766,-655360,76,-56,-1,-1,0
22800,-786432,76,-56,-1,-1,0
22833,-393216,76,-56,-1,-1,0
22866,-851968,76,-56,-1,-1,0
22900,-1048576,76,-56,-1,-1,0
22933,-786432,76,-56,-1,-1,0
22966,-1376256,76,-56,-1,-1,0
23000,-1114112,76,-56,-1,-1,0
23033,-720896,76,-56,-1,-1,0
23066,-131072,77,-56,-1,-1,0
23100,-458752,77,-56,-1,-1,0
23133,-1376256,77,-56,-1,-1,0
23166,-1179648,77,-56,-1,-1,0
23200,-131072,77,-56,-1,-1,0
23233,1310720,77,-56,-1,-1,0
23266,2097152,77,-56,-1,-1,0
23300,-720896,77,-56,-1,-1,0
23333,-1572864,77,-56,-1,-1,0
23366,-1179648,77,-56,-1,-1,0
23400,-983040,77,-56,-1,-1,0
23433,-786432,77,-56,-1,-1,0
23466,-786432,77,-56,-1,-1,0
23500,-917504,77,-56,-1,-1,0
23533,-786432,77,-56,-1,-1,0
23566,-589824,77,-56,-1,-1,0
23600,-720896,77,-56,-1,-1,0
23633,-786432,77,-56,-1,-1,0
23666,11206656,77,-56,-1,-1,0
23700,-393216,77,-56,-1,-1,0
23733,0,77,-56,-1,-1,0
23766,720896,77,-56,-1,-1,0
23800,2293760,77,-56,-1,-1,0
23833,3801088,77,-56,-1,-1,0
23866,1441792,77,-56,-1,-1,0
23900,0,77,-56,-1,-1,0
23933,-196608,77,-56,-1,-1,0
23966,-196608,77,-56,-1,-1,0
24000,-196608,77,-56,-1,-1,0
24033,-524288,77,-56,-1,-1,0
24066,-917504,77,-56,-1,-1,0
24100,-1310720,77,-56,-1,-1,0
24133,-983040,77,-56,-1,-1,0
24166,-1441792,77,-56,-1,-1,0
24200,-1572864,78,-56,-1,-1,0
24233,5111808,78,-56,-1,-1,0
24266,-2031616,78,-56,-1,-1,0
24300,-1114112,78,-56,-1,-1,0
24333,-655360,78,-56,-1,-1,0
24366,262144,78,-56,-1,-1,0
24400,2031616,78,-56,-1,-1,0
24433,1048576,78,-56,-1,-1,0
24466,-1114112,78,-56,-1,-1,0
24500,-1179648,78,-56,-1,-1,0
24533,-1114112,78,-56,-1,-1,0
24566,-1048576,78,-56,-1,-1,0
24600,-1048576,78,-56,-1,-1,0
24633,-1245184,78,-56,-1,-1,0
24666,-1507328,78,-56,-1,-1,0
24700,-983040,78,-56,-1,-1,0
24733,-1310720,78,-56,-1,-1,0
24766,-1310720,78,-56,-1,-1,0
24800,10485760,78,-56,-1,-1,0
24833,-983040,78,-56,-1,-1,0
24866,-655360,78,-56,-1,-1,0
24900,-131072,78,-56,-1,-1,0
24933,983040,78,-56,-1,-1,0
24966,2752512,78,-56,-1,-1,0
25000,917504,78,-56,-1,-1,0
25033,-655360,78,-56,-1,-1,0
25066,-786432,78,-56,-1,-1,0
25100,-786432,78,-56,-1,-1,0
25133,-720896,78,-56,-1,-1,0
25166,-851968,78,-56,-1,-1,0
25200,-1048576,78,-56,-1,-1,0
25233,-589824,78,-56,-1,-1,0
25266,-917504,78,-56,-1,-1,0
25300,-983040,79,-56,-1,-1,0
25333,9502720,79,-56,-1,-1,0
25366,-917504,79,-56,-1,-1,0
25400,-458752,79,-56,-1,-1,0
25433,0,79,-56,-1,-1,0
25466,1179648,79,-56,-1,-1,0
25500,2752512,79,-56,-1,-1,0
25533,1114112,79,-56,-1,-1,0
25566,-524288,79,-56,-1,-1,0
25600,-786432,79,-56,-1,-1,0
25633,-655360,79,-56,-1,-1,0
25666,-589824,79,-56,-1,-1,0
25700,-720896,79,-56,-1,-1,0
25733,-786432,79,-56,-1,-1,0
25766,-720896,79,-56,-1,-1,0
25800,-524288,79,-56,-1,-1,0
25833,-786432,79,-56,-1,-1,0
25866,-851968,80,-56,-1,-1,0
25900,11075584,80,-56,-1,-1,0
25933,-524288,80,-56,-1,-1,0
25966,-327680,80,-56,-1,-1,0
26000,327680,80,-56,-1,-1,0
26033,1703936,80,-56,-1,-1,0
26066,2949120,80,-56,-1,-1,0
26099,720896,80,-56,-1,-1,0
26133,-589824,80,-56,-1,-1,0
26166,-720896,80,-56,-1,-1,0
26200,-589824,80,-56,-1,-1,0
26233,-655360,80,-56,-1,-1,0
26266,-786432,80,-56,-1,-1,0
26300,-1048576,80,-56,-1,-1,0
26333,-1179648,80,-56,-1,-1,0
26366,-786432,80,-56,-1,-1,0
26400,-1048576,80,-56,-1,-1,0
26433,-983040,80,-56,-1,-1,0
26466,9961472,80,-56,-1,-1,0
26500,-917504,82,-56,-1,-1,0
26533,-589824,82,-56,-1,-1,0
26566,-131072,82,-56,-1,-1,0
26599,1114112,82,-56,-1,-1,0
26633,2555904,82,-56,-1,-1,0
26666,1114112,82,-56,-1,-1,0
26700,-458752,82,-56,-1,-1,0
26733,-589824,82,-56,-1,-1,0
26766,-458752,82,-56,-1,-1,0
26800,-458752,82,-56,-1,-1,0
26833,-655360,82,-56,-1,-1,0
26866,-655360,82,-56,-1,-1,0
26900,-786432,82,-56,-1,-1,0
26933,-851968,82,-56,-1,-1,0
26966,-917504,82,-56,-1,-1,0
27000,-393216,82,-56,-1,-1,0
27033,-786432,82,-56,-1,-1,0
27066,-786432,82,-56,-1,-1,0
27099,6422528,82,-56,-1,-1,0
27133,-1179648,82,-56,-1,-1,0
27166,-589824,81,-56,-1,-1,0
27200,-196608,81,-56,-1,-1,0
27233,655360,81,-56,-1,-1,0
27266,2228224,81,-56,-1,-1,0
27300,1507328,81,-56,-1,-1,0
27333,-524288,81,-56,-1,-1,0
27366,-983040,81,-56,-1,-1,0
27400,-720896,81,-56,-1,-1,0
27433,-720896,81,-56,-1,-1,0
27466,-720896,81,-56,-1,-1,0
27500,-917504,81,-56,-1,-1,0
27533,-983040,81,-56,-1,-1,0
27566,-917504,81,-56,-1,-1,0
27599,-1048576,81,-56,-1,-1,0
27633,-983040,81,-56,-1,-1,0
27666,-786432,81,-56,-1,-1,0
27700,-917504,81,-56,-1,-1,0
27733,-917504,81,-56,-1,-1,0
27766,10092544,81,-56,-1,-1,0
27800,-720896,81,-56,-1,-1,0
27833,-393216,81,-56,-1,-1,0
27866,196608,81,-56,-1,-1,0
27900,1572864,81,-56,-1,-1,0
27933,2818048,81,-56,-1,-1,0
27966,655360,81,-56,-1,-1,0
28000,-655360,81,-56,-1,-1,0
28033,-720896,81,-56,-1,-1,0
28066,-524288,81,-56,-1,-1,0
28099,-524288,81,-56,-1,-1,0
28133,-589824,81,-56,-1,-1,0
28166,-655360,81,-56,-1,-1,0
28200,-655360,81,-56,-1,-1,0
28233,-655360,81,-56,-1,-1,0
28266,-851968,81,-56,-1,-1,0
28300,-327680,81,-56,-1,-1,0
28333,-655360,81,-56,-1,-1,0
28366,-786432,81,-56,-1,-1,0
28400,2621440,81,-56,-1,-1,0
28433,-983040,81,-56,-1,-1,0
28466,-655360,81,-56,-1,-1,0
28500,-262144,81,-56,-1,-1,0
28533,524288,81,-56,-1,-1,0
28566,2162688,81,-56,-1,-1,0
28599,2228224,81,-56,-1,-1,0
28633,-262144,81,-56,-1,-1,0
28666,-720896,81,-56,-1,-1,0
28700,-720896,81,-56,-1,-1,0
28733,-589824,81,-56,-1,-1,0
28766,-655360,81,-56,-1,-1,0
28800,-786432,81,-56,-1,-1,0
28833,-851968,81,-56,-1,-1,0
28866,-983040,81,-56,-1,-1,0
28900,-1048576,81,-56,-1,-1,0
28933,-1048576,81,-56,-1,-1,0
28966,-1310720,81,-56,-1,-1,0
29000,-786432,81,-56,-1,-1,0
29033,-1179648,81,-56,-1,-1,0
29066,-1114112,81,-56,-1,-1,0
29099,10551296,81,-56,-1,-1,0
29133,-917504,81,-56,-1,-1,0
29166,-655360,81,-56,-1,-1,0
29200,-131072,81,-56,-1,-1,0
29233,917504,81,-56,-1,-1,0
29266,2293760,81,-56,-1,-1,0
29300,983040,81,-56,-1,-1,0
29333,-786432,81,-56,-1,-1,0
29366,-1114112,81,-56,-1,-1,0
29400,-1179648,81,-56,-1,-1,0
29433,-1245184,81,-56,-1,-1,0
29466,-1376256,81,-56,-1,-1,0
29500,-1572864,81,-56,-1,-1,0
29533,-1769472,81,-56,-1,-1,0
29566,-1966080,81,-56,-1,-1,0
29599,-2097152,81,-56,-1,-1,0
29633,-2359296,81,-56,-1,-1,0
29666,-2228224,81,-56,-1,-1,0
29700,-2555904,81,-56,-1,-1,0
29733,-2686976,81,-56,-1,-1,0
29766,-65536,81,-56,-1,-1,0
29800,-2162688,81,-56,-1,-1,0
29833,-2359296,81,-56,-1,-1,0
29866,-1966080,81,-56,-1,-1,0
29900,-983040,81,-56,-1,-1,0
29933,720896,81,-56,-1,-1,0
29966,1114112,81,-56,-1,-1,0
30000,-1179648,81,-56,-1,-1,0
30033,-1638400,81,-56,-1,-1,0
30066,-1376256,81,-56,-1,-1,0
30099,-917504,81,-56,-1,-1,0
30133,-589824,81,-56,-1,-1,0
30166,-458752,81,-56,-1,-1,0
30200,-327680,81,-56,-1,-1,0
30233,-131072,81,-56,-1,-1,0
30266,65536,81,-56,-1,-1,0
30300,65536,81,-56,-1,-1,0
30333,262144,81,-56,-1,-1,0
30366,720896,81,-56,-1,-1,0
30400,851968,81,-56,-1,-1,0
30433,1376256,81,-56,-1,-1,0
30466,8192000,81,-56,-1,-1,0
30500,1376256,81,-56,-1,-1,0
30533,1507328,81,-56,-1,-1,0
30566,2162688,81,-56,-1,-1,0
30599,3735552,81,-56,-1,-1,0
30633,4849664,81,-56,-1,-1,0
30666,2097152,81,-56,-1,-1,0
30700,786432,81,-56,-1,-1,0
30733,589824,81,-56,-1,-1,0
30766,458752,81,-56,-1,-1,0
30800,393216,81,-56,-1,-1,0
30833,0,81,-56,-1,-1,0
30866,-262144,81,-56,-1,-1,0
30900,-524288,81,-56,-1,-1,0
30933,-720896,81,-56,-1,-1,0
30966,-589824,81,-56,-1,-1,0
31000,-786432,81,-56,-1,-1,0
31033,-983040,81,-56,-1,-1,0
31066,2424832,81,-56,-1,-1,0
31099,-1507328,81,-56,-1,-1,0
31133,-983040,81,-56,-1,-1,0
31166,-720896,81,-56,-1,-1,0
31200,0,81,-56,-1,-1,0
31233,1900544,81,-56,-1,-1,0
31266,1966080,81,-56,-1,-1,0
31300,-786432,81,-56,-1,-1,0
31333,-1310720,81,-56,-1,-1,0
31366,-1441792,81,-56,-1,-1,0
31400,-1310720,81,-56,-1,-1,0
31433,-1048576,81,-56,-1,-1,0
31466,-1114112,81,-56,-1,-1,0
31500,-983040,81,-56,-1,-1,0
31533,-851968,81,-56,-1,-1,0
31566,-983040,81,-56,-1,-1,0
31599,-655360,81,-56,-1,-1,0
31633,-589824,81,-56,-1,-1,0
31666,-589824,81,-56,-1,-1,0
31700,2097152,81,-56,-1,-1,0
31733,131072,80,-56,-1,-1,0
31766,131072,80,-56,-1,-1,0
31800,393216,80,-56,-1,-1,0
31833,1114112,80,-56,-1,-1,0
31866,2293760,80,-56,-1,-1,0
31900,2490368,80,-56,-1,-1,0
31933,-327680,80,-56,-1,-1,0
31966,-1179648,80,-56,-1,-1,0
32000,-917504,80,-56,-1,-1,0
32033,-720896,80,-56,-1,-1,0
32066,-720896,80,-56,-1,-1,0
32100,-1507328,80,-56,-1,-1,0
32133,-1966080,80,-56,-1,-1,0
32166,-1966080,80,-56,-1,-1,0
32200,-2293760,80,-56,-1,-1,0
32233,-1703936,80,-56,-1,-1,0
32266,-1966080,80,-56,-1,-1,0
32299,-1703936,78,-56,-1,-1,0
32333,2686976,78,-56,-1,-1,0
32366,-1900544,78,-56,-1,-1,0
32400,-983040,78,-56,-1,-1,0
32433,-196608,78,-56,-1,-1,0
32466,851968,78,-56,-1,-1,0
32500,2621440,78,-56,-1,-1,0
32533,2555904,78,-56,-1,-1,0
32566,-393216,78,-56,-1,-1,0
32600,-720896,78,-56,-1,-1,0
32633,-786432,78,-56,-1,-1,0
32666,-655360,78,-56,-1,-1,0
32700,-720896,78,-56,-1,-1,0
32733,-917504,78,-56,-1,-1,0
32766,-1179648,78,-56,-1,-1,0
32800,-1114112,78,-56,-1,-1,0
32833,-1179648,78,-56,-1,-1,0
32866,-1245184,78,-56,-1,-1,0
32900,196608,78,-56,-1,-1,0
32933,196608,78,-56,-1,-1,0
32966,-851968,78,-56,-1,-1,0
33000,-458752,78,-56,-1,-1,0
33033,196608,78,-56,-1,-1,0
33066,2162688,78,-56,-1,-1,0
33100,2883584,78,-56,-1,-1,0
33133,-131072,78,-56,-1,-1,0
33166,-1179648,78,-56,-1,-1,0
33200,-1376256,78,-56,-1,-1,0
33233,-1245184,78,-56,-1,-1,0
33266,-1245184,78,-56,-1,-1,0
33300,-1507328,78,-56,-1,-1,0
33333,-1769472,78,-56,-1,-1,0
33366,-1769472,78,-56,-1,-1,0
33400,-1638400,78,-56,-1,-1,0
33433,-1900544,78,-56,-1,-1,0
33466,-1835008,78,-56,-1,-1,0
33500,10027008,78,-56,-1,-1,0
33533,-1835008,78,-56,-1,-1,0
33566,-1572864,78,-56,-1,-1,0
33600,-851968,78,-56,-1,-1,0
33633,393216,78,-56,-1,-1,0
33666,2490368,78,-56,-1,-1,0
33700,458752,78,-56,-1,-1,0
33733,-983040,78,-56,-1,-1,0
33766,-983040,78,-56,-1,-1,0
33800,-786432,78,-56,-1,-1,0
33833,-393216,78,-56,-1,-1,0
33866,-393216,78,-56,-1,-1,0
33900,-262144,78,-56,-1,-1,0
33933,-131072,78,-56,-1,-1,0
33966,-131072,78,-56,-1,-1,0
34000,131072,78,-56,-1,-1,0
34033,0,78,-56,-1,-1,0
34066,65536,78,-56,-1,-1,0
34100,11403264,78,-56,-1,-1,0
34133,-524288,78,-56,-1,-1,0
34166,-589824,78,-56,-1,-1,0
34200,-65536,78,-56,-1,-1,0
34233,1310720,78,-56,-1,-1,0
34266,2949120,78,-56,-1,-1,0
34300,458752,78,-56,-1,-1,0
34333,-1048576,78,-56,-1,-1,0
34366,-1310720,78,-56,-1,-1,0
34400,-1245184,78,-56,-1,-1,0
34433,-1245184,78,-56,-1,-1,0
34466,-1310720,78,-56,-1,-1,0
34500,-1245184,78,-56,-1,-1,0
34533,-1310720,78,-56,-1,-1,0
34566,-1310720,78,-56,-1,-1,0
34600,-1245184,78,-56,-1,-1,0
34633,-786432,78,-56,-1,-1,0
34666,-851968,78,-56,-1,-1,0
34700,-589824,78,-56,-1,-1,0
34733,7798784,78,-56,-1,-1,0
34766,-524288,78,-56,-1,-1,0
34800,131072,78,-56,-1,-1,0
34833,720896,78,-56,-1,-1,0
34866,1638400,78,-56,-1,-1,0
34900,2031616,78,-56,-1,-1,0
34933,-655360,78,-56,-1,-1,0
34966,-1245184,78,-56,-1,-1,0
35000,-1572864,78,-56,-1,-1,0
35033,-1572864,78,-56,-1,-1,0
35066,-851968,78,-56,-1,-1,0
35100,-720896,78,-56,-1,-1,0
35133,-524288,78,-56,-1,-1,0
35166,0,78,-56,-1,-1,0
35200,-131072,78,-56,-1,-1,0
35233,131072,78,-56,-1,-1,0
35266,0,78,-56,-1,-1,0
35300,65536,78,-56,-1,-1,0
35333,1179648,78,-56,-1,-1,0
35366,3211264,78,-56,-1,-1,0
35400,327680,78,-56,-1,-1,0
35433,393216,78,-56,-1,-1,0
35466,1245184,78,-56,-1,-1,0
35500,2490368,78,-56,-1,-1,0
35533,3538944,78,-56,-1,-1,0
35566,1179648,78,-56,-1,-1,0
35600,262144,78,-56,-1,-1,0
35633,393216,78,-56,-1,-1,0
35666,196608,78,-56,-1,-1,0
35700,262144,78,-56,-1,-1,0
35733,0,78,-56,-1,-1,0
35766,-196608,78,-56,-1,-1,0
35800,-327680,78,-56,-1,-1,0
35833,-458752,78,-56,-1,-1,0
35866,0,78,-56,-1,-1,0
35900,-65536,78,-56,-1,-1,0
35933,-458752,79,-56,-1,-1,0
35966,9568256,79,-56,-1,-1,0
36000,-458752,79,-56,-1,-1,0
36033,-65536,79,-56,-1,-1,0
36066,458752,79,-56,-1,-1,0
36100,1638400,79,-56,-1,-1,0
36133,2818048,79,-56,-1,-1,0
36166,1376256,79,-56,-1,-1,0
36200,-65536,79,-56,-1,-1,0
36233,-65536,79,-56,-1,-1,0
36266,196608,79,-56,-1,-1,0
36300,-131072,79,-56,-1,-1,0
36333,-196608,79,-56,-1,-1,0
36366,-393216,79,-56,-1,-1,0
36400,-655360,79,-56,-1,-1,0
36433,-393216,79,-56,-1,-1,0
36466,-786432,79,-56,-1,-1,0
36500,-1048576,80,-56,-1,-1,0
36533,3538944,80,-56,-1,-1,0
36566,-2097152,80,-56,-1,-1,0
36600,-917504,80,-56,-1,-1,0
36633,-720896,80,-56,-1,-1,0
36666,65536,80,-56,-1,-1,0
36700,2031616,80,-56,-1,-1,0
36733,1769472,80,-56,-1,-1,0
36766,-917504,80,-56,-1,-1,0
36800,-1638400,80,-56,-1,-1,0
36833,-1441792,80,-56,-1,-1,0
36866,-1114112,80,-56,-1,-1,0
36900,-1179648,80,-56,-1,-1,0
36933,-1441792,80,-56,-1,-1,0
36966,-1638400,80,-56,-1,-1,0
37000,-1376256,80,-56,-1,-1,0
37033,-1572864,81,-56,-1,-1,0
37066,-1638400,81,-56,-1,-1,0
37100,10027008,81,-56,-1,-1,0
37133,-1114112,81,-56,-1,-1,0
37166,-786432,81,-56,-1,-1,0
37200,-196608,81,-56,-1,-1,0
37233,1179648,81,-56,-1,-1,0
37266,3014656,81,-56,-1,-1,0
37300,1048576,81,-56,-1,-1,0
37333,-655360,81,-56,-1,-1,0
37366,-851968,81,-56,-1,-1,0
37400,-786432,81,-56,-1,-1,0
37433,-458752,81,-56,-1,-1,0
37466,-524288,81,-56,-1,-1,0
37500,-786432,81,-56,-1,-1,0
37533,-262144,81,-56,-1,-1,0
37566,-524288,82,-56,-1,-1,0
37600,-589824,82,-56,-1,-1,0
37633,7405568,82,-56,-1,-1,0
37666,-1900544,82,-56,-1,-1,0
37700,-1245184,82,-56,-1,-1,0
37733,-720896,82,-56,-1,-1,0
37766,131072,82,-56,-1,-1,0
37800,1966080,82,-56,-1,-1,0
37833,589824,82,-56,-1,-1,0
37866,-1900544,82,-56,-1,-1,0
37900,-2097152,82,-56,-1,-1,0
37933,-1966080,82,-56,-1,-1,0
37966,-1703936,82,-56,-1,-1,0
38000,-1441792,82,-56,-1,-1,0
38033,-1572864,82,-56,-1,-1,0
38066,-1245184,82,-56,-1,-1,0
38100,-1179648,82,-56,-1,-1,0
38133,-1114112,82,-56,-1,-1,0
38166,0,82,-56,-1,-1,0
38200,2162688,82,-56,-1,-1,0
38233,-327680,82,-56,-1,-1,0
38266,65536,82,-56,-1,-1,0
38300,720896,82,-56,-1,-1,0
38333,2359296,82,-56,-1,-1,0
38366,2949120,82,-56,-1,-1,0
38400,131072,82,-56,-1,-1,0
38433,-524288,82,-56,-1,-1,0
38466,-393216,82,-56,-1,-1,0
38500,-196608,82,-56,-1,-1,0
38533,-196608,82,-56,-1,-1,0
38566,-327680,82,-56,-1,-1,0
38600,-524288,82,-56,-1,-1,0
38633,-655360,82,-56,-1,-1,0
38666,-393216,82,-56,-1,-1,0
38700,-720896,82,-56,-1,-1,0
38733,-720896,82,-56,-1,-1,0
38766,11468800,84,-56,-1,-1,0
38800,-458752,84,-56,-1,-1,0
38833,-393216,84,-56,-1,-1,0
38866,0,84,-56,-1,-1,0
38900,1179648,84,-56,-1,-1,0
38933,2752512,84,-56,-1,-1,0
38966,1245184,84,-56,-1,-1,0
39000,-786432,84,-56,-1,-1,0
39033,-720896,84,-56,-1,-1,0
39066,-720896,84,-56,-1,-1,0
39100,-655360,84,-56,-1,-1,0
39133,-720896,84,-56,-1,-1,0
39166,-851968,84,-56,-1,-1,0
39200,-786432,84,-56,-1,-1,0
39233,-1048576,84,-56,-1,-1,0
39266,-589824,84,-56,-1,-1,0
39300,-786432,84,-56,-1,-1,0
39333,-851968,84,-56,-1,-1,0
39366,11403264,84,-56,-1,-1,0
39400,-524288,84,-56,-1,-1,0
39433,-262144,84,-56,-1,-1,0
39466,327680,84,-56,-1,-1,0
39500,1507328,84,-56,-1,-1,0
39533,3211264,84,-56,-1,-1,0
39566,1441792,84,-56,-1,-1,0
39600,-262144,84,-56,-1,-1,0
39633,-589824,84,-56,-1,-1,0
39666,-589824,84,-56,-1,-1,0
39700,-589824,84,-56,-1,-1,0
39733,-851968,84,-56,-1,-1,0
39766,-983040,84,-56,-1,-1,0
39800,-983040,84,-56,-1,-1,0
39833,-1179648,84,-56,-1,-1,0
39866,-983040,84,-56,-1,-1,0
39900,-917504,84,-56,-1,-1,0
39933,-1114112,84,-56,-1,-1,0
39966,-65536,84,-56,-1,-1,0
40000,1376256,84,-56,-1,-1,0
40033,-786432,84,-56,-1,-1,0
40066,-524288,84,-56,-1,-1,0
40100,131072,84,-56,-1,-1,0
40133,1638400,84,-56,-1,-1,0
40166,2555904,84,-56,-1,-1,0
40200,-131072,84,-56,-1,-1,0
40233,-917504,84,-56,-1,-1,0
40266,-851968,84,-56,-1,-1,0
40300,-720896,84,-56,-1,-1,0
40333,-786432,84,-56,-1,-1,0
40366,-786432,84,-56,-1,-1,0
40400,-983040,84,-56,-1,-1,0
40433,-983040,84,-56,-1,-1,0
40466,-1179648,84,-56,-1,-1,0
40500,-1376256,84,-56,-1,-1,0
40533,-720896,84,-56,-1,-1,0
40566,-1114112,84,-56,-1,-1,0
40600,-1114112,84,-56,-1,-1,0
40633,7077888,84,-56,-1,-1,0
40666,-1507328,84,-56,-1,-1,0
40700,-1048576,84,-56,-1,-1,0
40733,-655360,84,-56,-1,-1,0
40766,196608,84,-56,-1,-1,0
40800,1900544,84,-56,-1,-1,0
40833,1572864,84,-56,-1,-1,0
40866,-786432,84,-56,-1,-1,0
40900,-1048576,84,-56,-1,-1,0
40933,-983040,84,-56,-1,-1,0
40966,-983040,84,-56,-1,-1,0
41000,-1048576,84,-56,-1,-1,0
41033,-1048576,84,-56,-1,-1,0
41066,-917504,84,-56,-1,-1,0
41100,-983040,84,-56,-1,-1,0
41133,-851968,84,-56,-1,-1,0
41166,-1114112,84,-56,-1,-1,0
41200,-458752,84,-56,-1,-1,0
41233,-720896,84,-56,-1,-1,0
41266,-786432,84,-56,-1,-1,0
41300,10420224,84,-56,-1,-1,0
41333,-589824,83,-56,-1,-1,0
41366,-327680,83,-56,-1,-1,0
41400,0,83,-56,-1,-1,0
41433,1179648,83,-56,-1,-1,0
41466,2883584,83,-56,-1,-1,0
41500,2031616,83,-56,-1,-1,0
41533,-524288,83,-56,-1,-1,0
41566,-983040,83,-56,-1,-1,0
41600,-851968,83,-56,-1,-1,0
41633,-983040,83,-56,-1,-1,0
41666,-1179648,83,-56,-1,-1,0
41700,-1179648,83,-56,-1,-1,0
41733,-1179648,83,-56,-1,-1,0
41766,-1245184,83,-56,-1,-1,0
41800,-1376256,83,-56,-1,-1,0
41833,-917504,83,-56,-1,-1,0
41866,-1179648,83,-56,-1,-1,0
41900,-1179648,83,-56,-1,-1,0
41933,3866624,83,-56,-1,-1,0
41966,-1835008,82,-56,-1,-1,0
42000,-655360,82,-56,-1,-1,0
42033,-196608,82,-56,-1,-1,0
42066,786432,82,-56,-1,-1,0
42100,2490368,82,-56,-1,-1,0
42133,2228224,82,-56,-1,-1,0
42166,-393216,82,-56,-1,-1,0
42200,-851968,82,-56,-1,-1,0
42233,-917504,82,-56,-1,-1,0
42266,-655360,82,-56,-1,-1,0
42300,-786432,82,-56,-1,-1,0
42333,-1114112,82,-56,-1,-1,0
42366,-1179648,82,-56,-1,-1,0
42400,-1310720,82,-56,-1,-1,0
42433,-1310720,82,-56,-1,-1,0
42466,-1376256,82,-56,-1,-1,0
42500,-1114112,82,-56,-1,-1,0
42533,-1376256,82,-56,-1,-1,0
42566,-983040,82,-56,-1,-1,0
42600,5570560,82,-56,-1,-1,0
42633,-983040,82,-56,-1,-1,0
42666,-720896,82,-56,-1,-1,0
42700,0,82,-56,-1,-1,0
42733,1376256,82,-56,-1,-1,0
42766,2686976,82,-56,-1,-1,0
42800,458752,82,-56,-1,-1,0
42833,-655360,82,-56,-1,-1,0
42866,-786432,82,-56,-1,-1,0
42900,-589824,82,-56,-1,-1,0
42933,-524288,82,-56,-1,-1,0
42966,-458752,82,-56,-1,-1,0
43000,-524288,82,-56,-1,-1,0
43033,-589824,82,-56,-1,-1,0
43066,-851968,82,-56,-1,-1,0
43100,-655360,82,-56,-1,-1,0
43133,-917504,82,-56,-1,-1,0
43166,-983040,82,-56,-1,-1,0
43200,4784128,82,-56,-1,-1,0
43233,-1376256,82,-56,-1,-1,0
43266,-655360,82,-56,-1,-1,0
43300,-131072,82,-56,-1,-1,0
43333,851968,82,-56,-1,-1,0
43366,2555904,82,-56,-1,-1,0
43400,2621440,82,-56,-1,-1,0
43433,-131072,82,-56,-1,-1,0
43466,-655360,82,-56,-1,-1,0
43500,-589824,82,-56,-1,-1,0
43533,-393216,82,-56,-1,-1,0
43566,-393216,82,-56,-1,-1,0
43600,-655360,82,-56,-1,-1,0
43633,-655360,82,-56,-1,-1,0
43666,-786432,82,-56,-1,-1,0
43700,-655360,82,-56,-1,-1,0
43733,-655360,82,-56,-1,-1,0
43766,-786432,82,-56,-1,-1,0
43800,1507328,82,-56,-1,-1,0
43833,-327680,82,-56,-1,-1,0
43866,-458752,82,-56,-1,-1,0
43900,0,82,-56,-1,-1,0
43933,851968,82,-56,-1,-1,0
43966,2686976,82,-56,-1,-1,0
44000,3473408,82,-56,-1,-1,0
44033,393216,82,-56,-1,-1,0
44066,-524288,82,-56,-1,-1,0
44100,-524288,82,-56,-1,-1,0
44133,-720896,82,-56,-1,-1,0
44166,-786432,82,-56,-1,-1,0
44200,-983040,82,-56,-1,-1,0
44233,-1048576,82,-56,-1,-1,0
44266,-1376256,82,-56,-1,-1,0
44300,-1048576,82,-56,-1,-1,0
44333,-1245184,82,-56,-1,-1,0
44366,-1179648,82,-56,-1,-1,0
44400,1310720,82,-56,-1,-1,0
44433,-1376256,82,-56,-1,-1,0
44466,-851968,82,-56,-1,-1,0
44500,-393216,82,-56,-1,-1,0
44533,327680,82,-56,-1,-1,0
44566,2162688,82,-56,-1,-1,0
44600,2818048,82,-56,-1,-1,0
44633,0,82,-56,-1,-1,0
44666,-589824,82,-56,-1,-1,0
44700,-1245184,82,-56,-1,-1,0
44733,-983040,82,-56,-1,-1,0
44766,-1048576,82,-56,-1,-1,0
44800,-1114112,82,-56,-1,-1,0
44833,-1179648,82,-56,-1,-1,0
44866,-1376256,82,-56,-1,-1,0
44900,-1572864,82,-56,-1,-1,0
44933,-1310720,82,-56,-1,-1,0
44966,-1507328,82,-56,-1,-1,0
45000,-1572864,81,-56,-1,-1,0
45033,10223616,81,-56,-1,-1,0
45066,-1179648,81,-56,-1,-1,0
45100,-1114112,81,-56,-1,-1,0
45133,-589824,81,-56,-1,-1,0
45166,589824,81,-56,-1,-1,0
45200,2293760,81,-56,-1,-1,0
45233,983040,81,-56,-1,-1,0
45266,-720896,81,-56,-1,-1,0
45300,-786432,81,-56,-1,-1,0
45333,-655360,81,-56,-1,-1,0
45366,-589824,81,-56,-1,-1,0
45400,-720896,81,-56,-1,-1,0
45433,-851968,81,-56,-1,-1,0
45466,-1048576,81,-56,-1,-1,0
45500,-589824,81,-56,-1,-1,0
45533,-720896,81,-56,-1,-1,0
45566,-720896,81,-56,-1,-1,0
45600,1376256,81,-56,-1,-1,0
45633,-262144,81,-56,-1,-1,0
45666,-524288,81,-56,-1,-1,0
45700,-65536,81,-56,-1,-1,0
45733,720896,81,-56,-1,-1,0
45766,2293760,81,-56,-1,-1,0
45800,3014656,81,-56,-1,-1,0
45833,393216,81,-56,-1,-1,0
45866,-393216,81,-56,-1,-1,0
45900,-458752,81,-56,-1,-1,0
45933,-393216,81,-56,-1,-1,0
45966,-393216,81,-56,-1,-1,0
46000,-524288,81,-56,-1,-1,0
46033,-589824,81,-56,-1,-1,0
46066,-917504,81,-56,-1,-1,0
46100,-393216,81,-56,-1,-1,0
46133,-786432,81,-56,-1,-1,0
46166,-851968,81,-56,-1,-1,0
46200,10485760,81,-56,-1,-1,0
46233,-786432,81,-56,-1,-1,0
46266,-458752,81,-56,-1,-1,0
46300,0,81,-56,-1,-1,0
46333,983040,81,-56,-1,-1,0
46366,2818048,81,-56,-1,-1,0
46400,1638400,81,-56,-1,-1,0
46433,-589824,81,-56,-1,-1,0
46466,-851968,81,-56,-1,-1,0
46500,-720896,81,-56,-1,-1,0
46533,-524288,81,-56,-1,-1,0
46566,-655360,81,-56,-1,-1,0
46600,-851968,81,-56,-1,-1,0
46633,-1179648,81,-56,-1,-1,0
46666,-524288,81,-56,-1,-1,0
46700,-720896,81,-56,-1,-1,0
46733,-917504,81,-56,-1,-1,0
46766,8454144,81,-56,-1,-1,0
46800,-1310720,81,-56,-1,-1,0
46833,-458752,81,-56,-1,-1,0
46866,0,81,-56,-1,-1,0
46900,983040,81,-56,-1,-1,0
46933,2818048,81,-56,-1,-1,0
46966,1572864,81,-56,-1,-1,0
47000,-1114112,81,-56,-1,-1,0
47033,-1638400,81,-56,-1,-1,0
47066,-1441792,81,-56,-1,-1,0
47100,-1376256,81,-56,-1,-1,0
47133,-1572864,81,-56,-1,-1,0
47166,-1572864,81,-56,-1,-1,0
47200,-1900544,81,-56,-1,-1,0
47233,-1507328,81,-56,-1,-1,0
47266,-1835008,81,-56,-1,-1,0
47300,-1572864,81,-56,-1,-1,0
47333,5439488,81,-56,-1,-1,0
47366,-1507328,81,-56,-1,-1,0
47400,-1114112,81,-56,-1,-1,0
47433,-524288,81,-56,-1,-1,0
47466,1114112,81,-56,-1,-1,0
47500,2752512,81,-56,-1,-1,0
47533,0,81,-56,-1,-1,0
47566,-1245184,81,-56,-1,-1,0
47600,-1572864,81,-56,-1,-1,0
47633,-1441792,81,-56,-1,-1,0
47666,-1179648,81,-56,-1,-1,0
47700,-1245184,81,-56,-1,-1,0
47733,-1507328,81,-56,-1,-1,0
47766,-1048576,81,-56,-1,-1,0
47800,-1376256,81,-56,-1,-1,0
47833,-1310720,82,-56,-1,-1,0
47866,2949120,82,-56,-1,-1,0
47900,-2228224,82,-56,-1,-1,0
47933,-720896,82,-56,-1,-1,0
47966,-327680,82,-56,-1,-1,0
48000,655360,82,-56,-1,-1,0
48033,2818048,82,-56,-1,-1,0
48066,3211264,82,-56,-1,-1,0
48100,0,82,-56,-1,-1,0
48133,-458752,82,-56,-1,-1,0
48166,-524288,82,-56,-1,-1,0
48200,-327680,82,-56,-1,-1,0
48233,-262144,82,-56,-1,-1,0
48266,-524288,82,-56,-1,-1,0
48300,-655360,82,-56,-1,-1,0
48333,-524288,82,-56,-1,-1,0
48366,-851968,82,-56,-1,-1,0
48400,-983040,82,-56,-1,-1,0
48433,1048576,82,-56,-1,-1,0
48466,65536,83,-56,-1,-1,0
48500,-720896,83,-56,-1,-1,0
48533,-393216,83,-56,-1,-1,0
48566,327680,83,-56,-1,-1,0
48600,2031616,83,-56,-1,-1,0
48633,3145728,83,-56,-1,-1,0
48666,-65536,83,-56,-1,-1,0
48700,-983040,83,-56,-1,-1,0
48733,-786432,83,-56,-1,-1,0
48766,-720896,83,-56,-1,-1,0
48800,-655360,83,-56,-1,-1,0
48833,-720896,83,-56,-1,-1,0
48866,-983040,83,-56,-1,-1,0
48900,-917504,83,-56,-1,-1,0
48933,-1048576,83,-56,-1,-1,0
48966,-589824,83,-56,-1,-1,0
49000,-851968,83,-56,-1,-1,0
49033,-655360,83,-56,-1,-1,0
49066,1966080,83,-56,-1,-1,0
49100,-327680,83,-56,-1,-1,0
49133,-458752,83,-56,-1,-1,0
49166,-131072,83,-56,-1,-1,0
49200,655360,83,-56,-1,-1,0
49233,2228224,83,-56,-1,-1,0
49266,3276800,83,-56,-1,-1,0
49300,65536,83,-56,-1,-1,0
49333,-917504,83,-56,-1,-1,0
49366,-983040,83,-56,-1,-1,0
49400,-983040,83,-56,-1,-1,0
49433,-786432,83,-56,-1,-1,0
49466,-917504,83,-56,-1,-1,0
49500,-983040,83,-56,-1,-1,0
49533,-1048576,83,-56,-1,-1,0
49566,-1048576,83,-56,-1,-1,0
49600,-1179648,83,-56,-1,-1,0
49633,-851968,83,-56,-1,-1,0
49666,-1048576,83,-56,-1,-1,0
49700,-1114112,83,-56,-1,-1,0
49733,11796480,83,-56,-1,-1,0
49766,-655360,83,-56,-1,-1,0
49800,-589824,83,-56,-1,-1,0
49833,-65536,83,-56,-1,-1,0
49866,1179648,83,-56,-1,-1,0
49900,3014656,83,-56,-1,-1,0
49933,1507328,83,-56,-1,-1,0
49966,-589824,83,-56,-1,-1,0
50000,-786432,83,-56,-1,-1,0
