milliseconds, ECG, ECG HR, PPG, PPG HR, SpO2, PI
1523611147906,1114112,99,-56,-1,-1,0
1523611147906,851968,99,-56,-1,-1,0
1523611147906,393216,99,-56,-1,-1,0
1523611147906,0,99,-56,-1,-1,0
1523611147906,-196608,99,-56,-1,-1,0
1523611147950,-458752,99,-56,-1,-1,0
1523611147950,-655360,99,-56,-1,-1,0
1523611147950,-720896,99,-56,-1,-1,0
1523611147950,-786432,99,-56,-1,-1,0
1523611147950,-786432,99,-56,-1,-1,0
1523611147986,-851968,99,-56,-1,-1,0
1523611147986,-851968,99,-56,-1,-1,0
1523611147986,-786432,99,-56,-1,-1,0
1523611147986,-786432,99,-56,-1,-1,0
1523611147986,-786432,99,-56,-1,-1,0
1523611148026,-720896,99,-56,-1,-1,0
1523611148026,-720896,99,-56,-1,-1,0
1523611148026,-720896,99,-56,-1,-1,0
1523611148026,-655360,99,-56,-1,-1,0
1523611148026,-589824,99,-56,-1,-1,0
1523611148066,-655360,99,-56,-1,-1,0
1523611148066,-786432,99,-56,-1,-1,0
1523611148066,-851968,99,-56,-1,-1,0
1523611148066,-786432,99,-56,-1,-1,0
1523611148066,-786432,99,-56,-1,-1,0
1523611148106,-786432,99,-56,-1,-1,0
1523611148106,-851968,99,-56,-1,-1,0
1523611148106,-917504,99,-56,-1,-1,0
1523611148106,-917504,99,-56,-1,-1,0
1523611148106,-983040,99,-56,-1,-1,0
1523611148146,-1048576,99,-56,-1,-1,0
1523611148146,-1048576,99,-56,-1,-1,0
1523611148146,-1179648,99,-56,-1,-1,0
1523611148146,-1310720,99,-56,-1,-1,0
1523611148146,-1310720,99,-56,-1,-1,0
1523611148186,-1179648,99,-56,-1,-1,0
1523611148186,-1048576,99,-56,-1,-1,0
1523611148186,-851968,99,-56,-1,-1,0
1523611148186,-720896,99,-56,-1,-1,0
1523611148186,-720896,99,-56,-1,-1,0
1523611148226,-786432,99,-56,-1,-1,0
1523611148226,-917504,99,-56,-1,-1,0
1523611148226,-1048576,99,-56,-1,-1,0
1523611148226,-1114112,99,-56,-1,-1,0
1523611148226,-1114112,99,-56,-1,-1,0
1523611148266,-1114112,97,-56,-1,-1,0
1523611148266,-1114112,97,-56,-1,-1,0
1523611148266,-1114112,97,-56,-1,-1,0
1523611148266,-1179648,97,-56,-1,-1,0
1523611148266,-1245184,97,-56,-1,-1,0
1523611148306,-1048576,97,-56,-1,-1,0
1523611148306,-262144,97,-56,-1,-1,0
1523611148306,2228224,97,-56,-1,-1,0
1523611148306,6750208,97,-56,-1,-1,0
1523611148306,9961472,97,-56,-1,-1,0
1523611148346,7274496,97,-56,-1,-1,0
1523611148346,1441792,97,-56,-1,-1,0
1523611148346,-1507328,97,-56,-1,-1,0
1523611148346,-1310720,97,-56,-1,-1,0
1523611148346,-917504,97,-56,-1,-1,0
1523611148386,-917504,97,-56,-1,-1,0
1523611148386,-851968,97,-56,-1,-1,0
1523611148386,-851968,97,-56,-1,-1,0
1523611148386,-720896,97,-56,-1,-1,0
1523611148386,-720896,97,-56,-1,-1,0
1523611148426,-589824,97,-56,-1,-1,0
1523611148426,-524288,97,-56,-1,-1,0
1523611148426,-327680,97,-56,-1,-1,0
1523611148426,-196608,97,-56,-1,-1,0
1523611148426,-65536,97,-56,-1,-1,0
1523611148466,0,97,-56,-1,-1,0
1523611148466,262144,97,-56,-1,-1,0
1523611148466,524288,97,-56,-1,-1,0
1523611148466,786432,97,-56,-1,-1,0
1523611148466,983040,97,-56,-1,-1,0
1523611148506,1245184,97,-56,-1,-1,0
1523611148506,1441792,97,-56,-1,-1,0
1523611148506,1572864,97,-56,-1,-1,0
1523611148506,1572864,97,-56,-1,-1,0
1523611148506,1572864,97,-56,-1,-1,0
1523611148546,1507328,97,-56,-1,-1,0
1523611148546,1310720,97,-56,-1,-1,0
1523611148546,851968,97,-56,-1,-1,0
1523611148546,393216,97,-56,-1,-1,0
1523611148546,0,97,-56,-1,-1,0
1523611148587,-262144,97,-56,-1,-1,0
1523611148587,-458752,97,-56,-1,-1,0
1523611148587,-589824,97,-56,-1,-1,0
1523611148587,-655360,97,-56,-1,-1,0
1523611148587,-786432,97,-56,-1,-1,0
1523611148626,-786432,97,-56,-1,-1,0
1523611148626,-786432,97,-56,-1,-1,0
1523611148626,-786432,97,-56,-1,-1,0
1523611148626,-786432,97,-56,-1,-1,0
1523611148626,-655360,97,-56,-1,-1,0
1523611148666,-524288,97,-56,-1,-1,0
1523611148666,-458752,97,-56,-1,-1,0
1523611148666,-524288,97,-56,-1,-1,0
1523611148666,-720896,97,-56,-1,-1,0
1523611148666,-720896,97,-56,-1,-1,0
1523611148706,-655360,97,-56,-1,-1,0
1523611148706,-655360,97,-56,-1,-1,0
1523611148706,-786432,97,-56,-1,-1,0
1523611148706,-851968,97,-56,-1,-1,0
1523611148706,-851968,97,-56,-1,-1,0
1523611148746,-720896,97,-56,-1,-1,0
1523611148746,-655360,97,-56,-1,-1,0
1523611148746,-655360,97,-56,-1,-1,0
1523611148746,-786432,97,-56,-1,-1,0
1523611148746,-720896,97,-56,-1,-1,0
1523611148786,-917504,97,-56,-1,-1,0
1523611148786,-1114112,97,-56,-1,-1,0
1523611148786,-1048576,97,-56,-1,-1,0
1523611148786,-1114112,97,-56,-1,-1,0
1523611148786,-1179648,97,-56,-1,-1,0
1523611148826,-1245184,97,-56,-1,-1,0
1523611148826,-1245184,97,-56,-1,-1,0
1523611148826,-1048576,97,-56,-1,-1,0
1523611148826,-917504,97,-56,-1,-1,0
1523611148826,-851968,97,-56,-1,-1,0
1523611148866,-655360,97,-56,-1,-1,0
1523611148866,-524288,97,-56,-1,-1,0
1523611148866,-655360,97,-56,-1,-1,0
1523611148866,-983040,97,-56,-1,-1,0
1523611148866,-1114112,97,-56,-1,-1,0
1523611148906,-1179648,94,-56,-1,-1,0
1523611148906,-1114112,94,-56,-1,-1,0
1523611148906,-1048576,94,-56,-1,-1,0
1523611148906,-1048576,94,-56,-1,-1,0
1523611148906,-1048576,94,-56,-1,-1,0
1523611148946,-1114112,94,-56,-1,-1,0
1523611148946,-1245184,94,-56,-1,-1,0
1523611148946,-1245184,94,-56,-1,-1,0
1523611148946,-786432,94,-56,-1,-1,0
1523611148946,524288,94,-56,-1,-1,0
1523611148986,4128768,94,-56,-1,-1,0
1523611148986,8978432,94,-56,-1,-1,0
1523611148986,9764864,94,-56,-1,-1,0
1523611148986,4587520,94,-56,-1,-1,0
1523611148986,-720896,94,-56,-1,-1,0
1523611149026,-1638400,94,-56,-1,-1,0
1523611149026,-917504,94,-56,-1,-1,0
1523611149026,-589824,94,-56,-1,-1,0
1523611149026,-589824,94,-56,-1,-1,0
1523611149026,-655360,94,-56,-1,-1,0
1523611149066,-655360,94,-56,-1,-1,0
1523611149066,-720896,94,-56,-1,-1,0
1523611149066,-720896,94,-56,-1,-1,0
1523611149066,-524288,94,-56,-1,-1,0
1523611149066,-327680,94,-56,-1,-1,0
1523611149106,-65536,94,-56,-1,-1,0
1523611149106,196608,94,-56,-1,-1,0
1523611149106,327680,94,-56,-1,-1,0
1523611149106,262144,94,-56,-1,-1,0
1523611149106,393216,94,-56,-1,-1,0
1523611149146,786432,94,-56,-1,-1,0
1523611149146,1114112,94,-56,-1,-1,0
1523611149146,1441792,94,-56,-1,-1,0
1523611149146,1769472,94,-56,-1,-1,0
1523611149146,2031616,94,-56,-1,-1,0
1523611149186,2031616,94,-56,-1,-1,0
1523611149186,1966080,94,-56,-1,-1,0
1523611149186,1900544,94,-56,-1,-1,0
1523611149186,1900544,94,-56,-1,-1,0
1523611149186,1638400,94,-56,-1,-1,0
1523611149227,1114112,94,-56,-1,-1,0
1523611149227,524288,94,-56,-1,-1,0
1523611149227,262144,94,-56,-1,-1,0
1523611149227,0,94,-56,-1,-1,0
1523611149227,-65536,94,-56,-1,-1,0
1523611149266,-65536,94,-56,-1,-1,0
1523611149266,-131072,94,-56,-1,-1,0
1523611149266,-262144,94,-56,-1,-1,0
1523611149266,-327680,94,-56,-1,-1,0
1523611149266,-262144,94,-56,-1,-1,0
1523611149306,-196608,94,-56,-1,-1,0
1523611149306,0,94,-56,-1,-1,0
1523611149306,0,94,-56,-1,-1,0
1523611149306,-196608,94,-56,-1,-1,0
1523611149306,-262144,94,-56,-1,-1,0
1523611149346,-196608,94,-56,-1,-1,0
1523611149346,-196608,94,-56,-1,-1,0
1523611149346,-196608,94,-56,-1,-1,0
1523611149346,-196608,94,-56,-1,-1,0
1523611149346,-262144,94,-56,-1,-1,0
1523611149386,-262144,94,-56,-1,-1,0
1523611149386,-327680,94,-56,-1,-1,0
1523611149386,-327680,94,-56,-1,-1,0
1523611149386,-262144,94,-56,-1,-1,0
1523611149386,-327680,94,-56,-1,-1,0
1523611149426,-393216,94,-56,-1,-1,0
1523611149426,-262144,94,-56,-1,-1,0
1523611149426,-131072,94,-56,-1,-1,0
1523611149426,-327680,94,-56,-1,-1,0
1523611149426,-524288,94,-56,-1,-1,0
1523611149466,-655360,94,-56,-1,-1,0
1523611149466,-720896,94,-56,-1,-1,0
1523611149466,-851968,94,-56,-1,-1,0
1523611149466,-786432,94,-56,-1,-1,0
1523611149466,-655360,94,-56,-1,-1,0
1523611149506,-327680,94,-56,-1,-1,0
1523611149506,-196608,94,-56,-1,-1,0
1523611149506,-262144,94,-56,-1,-1,0
1523611149506,-393216,94,-56,-1,-1,0
1523611149506,-327680,94,-56,-1,-1,0
1523611149546,-458752,94,-56,-1,-1,0
1523611149546,-524288,94,-56,-1,-1,0
1523611149546,-589824,94,-56,-1,-1,0
1523611149546,-524288,94,-56,-1,-1,0
1523611149546,-393216,94,-56,-1,-1,0
1523611149586,-327680,93,-56,-1,-1,0
1523611149586,-327680,93,-56,-1,-1,0
1523611149586,-524288,93,-56,-1,-1,0
1523611149586,-720896,93,-56,-1,-1,0
1523611149586,-655360,93,-56,-1,-1,0
1523611149626,0,93,-56,-1,-1,0
1523611149626,2228224,93,-56,-1,-1,0
1523611149626,6946816,93,-56,-1,-1,0
1523611149626,11010048,93,-56,-1,-1,0
1523611149626,8847360,93,-56,-1,-1,0
1523611149666,2555904,93,-56,-1,-1,0
1523611149666,-1179648,93,-56,-1,-1,0
1523611149666,-1114112,93,-56,-1,-1,0
1523611149666,-524288,93,-56,-1,-1,0
1523611149666,-393216,93,-56,-1,-1,0
1523611149706,-327680,93,-56,-1,-1,0
1523611149706,-262144,93,-56,-1,-1,0
1523611149706,-131072,93,-56,-1,-1,0
1523611149706,0,93,-56,-1,-1,0
1523611149706,0,93,-56,-1,-1,0
1523611149746,0,93,-56,-1,-1,0
1523611149746,0,93,-56,-1,-1,0
1523611149746,0,93,-56,-1,-1,0
1523611149746,131072,93,-56,-1,-1,0
1523611149746,327680,93,-56,-1,-1,0
1523611149786,655360,93,-56,-1,-1,0
1523611149786,917504,93,-56,-1,-1,0
1523611149786,1310720,93,-56,-1,-1,0
1523611149786,1507328,93,-56,-1,-1,0
1523611149786,1572864,93,-56,-1,-1,0
1523611149826,1638400,93,-56,-1,-1,0
1523611149826,1966080,93,-56,-1,-1,0
1523611149826,2097152,93,-56,-1,-1,0
1523611149826,1835008,93,-56,-1,-1,0
1523611149826,1441792,93,-56,-1,-1,0
1523611149867,1310720,93,-56,-1,-1,0
1523611149867,1114112,93,-56,-1,-1,0
1523611149867,720896,93,-56,-1,-1,0
1523611149867,327680,93,-56,-1,-1,0
1523611149867,0,93,-56,-1,-1,0
1523611149906,-196608,93,-56,-1,-1,0
1523611149906,-327680,93,-56,-1,-1,0
1523611149906,-458752,93,-56,-1,-1,0
1523611149906,-524288,93,-56,-1,-1,0
1523611149906,-720896,93,-56,-1,-1,0
1523611149946,-786432,93,-56,-1,-1,0
1523611149946,-720896,93,-56,-1,-1,0
1523611149946,-589824,93,-56,-1,-1,0
1523611149946,-524288,93,-56,-1,-1,0
1523611149946,-393216,93,-56,-1,-1,0
1523611149986,-196608,93,-56,-1,-1,0
1523611149986,-65536,93,-56,-1,-1,0
1523611149986,-262144,93,-56,-1,-1,0
1523611149986,-524288,93,-56,-1,-1,0
1523611149986,-655360,93,-56,-1,-1,0
1523611150026,-655360,93,-56,-1,-1,0
1523611150026,-524288,93,-56,-1,-1,0
1523611150026,-524288,93,-56,-1,-1,0
1523611150026,-655360,93,-56,-1,-1,0
1523611150026,-720896,93,-56,-1,-1,0
1523611150066,-655360,93,-56,-1,-1,0
1523611150066,-393216,93,-56,-1,-1,0
1523611150066,-458752,93,-56,-1,-1,0
1523611150066,-589824,93,-56,-1,-1,0
1523611150066,-720896,93,-56,-1,-1,0
1523611150106,-720896,93,-56,-1,-1,0
1523611150106,-851968,93,-56,-1,-1,0
1523611150106,-786432,93,-56,-1,-1,0
1523611150106,-786432,93,-56,-1,-1,0
1523611150106,-851968,93,-56,-1,-1,0
1523611150146,-1114112,93,-56,-1,-1,0
1523611150146,-1048576,93,-56,-1,-1,0
1523611150146,-720896,93,-56,-1,-1,0
1523611150146,-524288,93,-56,-1,-1,0
1523611150146,-524288,93,-56,-1,-1,0
1523611150186,-524288,93,-56,-1,-1,0
1523611150186,-524288,93,-56,-1,-1,0
1523611150186,-655360,93,-56,-1,-1,0
1523611150186,-786432,93,-56,-1,-1,0
1523611150186,-851968,93,-56,-1,-1,0
1523611150226,-786432,92,-56,-1,-1,0
1523611150226,-720896,92,-56,-1,-1,0
1523611150226,-655360,92,-56,-1,-1,0
1523611150226,-589824,92,-56,-1,-1,0
1523611150226,-655360,92,-56,-1,-1,0
1523611150266,-720896,92,-56,-1,-1,0
1523611150266,-851968,92,-56,-1,-1,0
1523611150266,-655360,92,-56,-1,-1,0
1523611150266,0,92,-56,-1,-1,0
1523611150266,2621440,92,-56,-1,-1,0
1523611150306,7208960,92,-56,-1,-1,0
1523611150306,10485760,92,-56,-1,-1,0
1523611150306,7995392,92,-56,-1,-1,0
1523611150306,2097152,92,-56,-1,-1,0
1523611150306,-1114112,92,-56,-1,-1,0
1523611150346,-1114112,92,-56,-1,-1,0
1523611150346,-655360,92,-56,-1,-1,0
1523611150346,-589824,92,-56,-1,-1,0
1523611150346,-589824,92,-56,-1,-1,0
1523611150346,-589824,92,-56,-1,-1,0
1523611150386,-458752,92,-56,-1,-1,0
1523611150386,-393216,92,-56,-1,-1,0
1523611150386,-327680,92,-56,-1,-1,0
1523611150386,-393216,92,-56,-1,-1,0
1523611150386,-327680,92,-56,-1,-1,0
1523611150426,-262144,92,-56,-1,-1,0
1523611150426,-65536,92,-56,-1,-1,0
1523611150426,131072,92,-56,-1,-1,0
1523611150426,393216,92,-56,-1,-1,0
1523611150426,589824,92,-56,-1,-1,0
1523611150466,851968,92,-56,-1,-1,0
1523611150466,1114112,92,-56,-1,-1,0
1523611150466,1376256,92,-56,-1,-1,0
1523611150466,1703936,92,-56,-1,-1,0
1523611150466,1900544,92,-56,-1,-1,0
1523611150507,2097152,92,-56,-1,-1,0
1523611150507,1966080,92,-56,-1,-1,0
1523611150507,1572864,92,-56,-1,-1,0
1523611150507,1179648,92,-56,-1,-1,0
1523611150507,851968,92,-56,-1,-1,0
1523611150546,589824,92,-56,-1,-1,0
1523611150546,262144,92,-56,-1,-1,0
1523611150546,0,92,-56,-1,-1,0
1523611150546,-262144,92,-56,-1,-1,0
1523611150546,-393216,92,-56,-1,-1,0
1523611150587,-458752,92,-56,-1,-1,0
1523611150587,-524288,92,-56,-1,-1,0
1523611150587,-589824,92,-56,-1,-1,0
1523611150587,-720896,92,-56,-1,-1,0
1523611150587,-786432,92,-56,-1,-1,0
1523611150626,-720896,92,-56,-1,-1,0
1523611150626,-655360,92,-56,-1,-1,0
1523611150626,-589824,92,-56,-1,-1,0
1523611150626,-524288,92,-56,-1,-1,0
1523611150626,-393216,92,-56,-1,-1,0
1523611150666,-458752,92,-56,-1,-1,0
1523611150666,-655360,92,-56,-1,-1,0
1523611150666,-917504,92,-56,-1,-1,0
1523611150666,-851968,92,-56,-1,-1,0
1523611150666,-786432,92,-56,-1,-1,0
1523611150707,-851968,92,-56,-1,-1,0
1523611150707,-851968,92,-56,-1,-1,0
1523611150707,-917504,92,-56,-1,-1,0
1523611150707,-983040,92,-56,-1,-1,0
1523611150707,-983040,92,-56,-1,-1,0
1523611150746,-983040,92,-56,-1,-1,0
1523611150746,-851968,92,-56,-1,-1,0
1523611150746,-851968,92,-56,-1,-1,0
1523611150746,-917504,92,-56,-1,-1,0
1523611150746,-983040,92,-56,-1,-1,0
1523611150786,-1048576,92,-56,-1,-1,0
1523611150786,-1179648,92,-56,-1,-1,0
1523611150786,-1179648,92,-56,-1,-1,0
1523611150786,-1114112,92,-56,-1,-1,0
1523611150786,-983040,92,-56,-1,-1,0
1523611150826,-851968,92,-56,-1,-1,0
1523611150826,-655360,92,-56,-1,-1,0
1523611150826,-589824,92,-56,-1,-1,0
1523611150826,-720896,92,-56,-1,-1,0
1523611150826,-917504,92,-56,-1,-1,0
1523611150866,-983040,92,-56,-1,-1,0
1523611150866,-983040,92,-56,-1,-1,0
1523611150866,-983040,92,-56,-1,-1,0
1523611150866,-983040,92,-56,-1,-1,0
1523611150866,-1048576,92,-56,-1,-1,0
1523611150906,-1048576,92,-56,-1,-1,0
1523611150906,-983040,92,-56,-1,-1,0
1523611150906,-983040,92,-56,-1,-1,0
1523611150906,-917504,92,-56,-1,-1,0
1523611150906,-196608,92,-56,-1,-1,0
1523611150946,2162688,92,-56,-1,-1,0
1523611150946,6619136,92,-56,-1,-1,0
1523611150946,10289152,92,-56,-1,-1,0
1523611150946,7929856,92,-56,-1,-1,0
1523611150946,1835008,92,-56,-1,-1,0
1523611150986,-1638400,92,-56,-1,-1,0
1523611150986,-1376256,92,-56,-1,-1,0
1523611150986,-786432,92,-56,-1,-1,0
1523611150986,-720896,92,-56,-1,-1,0
1523611150986,-655360,92,-56,-1,-1,0
1523611151026,-655360,92,-56,-1,-1,0
1523611151026,-589824,92,-56,-1,-1,0
1523611151026,-589824,92,-56,-1,-1,0
1523611151026,-458752,92,-56,-1,-1,0
1523611151026,-393216,92,-56,-1,-1,0
1523611151066,-262144,92,-56,-1,-1,0
1523611151066,-131072,92,-56,-1,-1,0
1523611151066,0,92,-56,-1,-1,0
1523611151066,131072,92,-56,-1,-1,0
1523611151066,458752,92,-56,-1,-1,0
1523611151106,720896,92,-56,-1,-1,0
1523611151106,917504,92,-56,-1,-1,0
1523611151106,1310720,92,-56,-1,-1,0
1523611151106,1703936,92,-56,-1,-1,0
1523611151106,1835008,92,-56,-1,-1,0
1523611151147,1966080,92,-56,-1,-1,0
1523611151147,1966080,92,-56,-1,-1,0
1523611151147,1966080,92,-56,-1,-1,0
1523611151147,1703936,92,-56,-1,-1,0
1523611151147,1441792,92,-56,-1,-1,0
1523611151186,1114112,92,-56,-1,-1,0
1523611151186,720896,92,-56,-1,-1,0
1523611151186,458752,92,-56,-1,-1,0
1523611151186,131072,92,-56,-1,-1,0
1523611151186,-262144,92,-56,-1,-1,0
1523611151226,-655360,92,-56,-1,-1,0
1523611151226,-786432,92,-56,-1,-1,0
1523611151226,-786432,92,-56,-1,-1,0
1523611151226,-917504,92,-56,-1,-1,0
1523611151226,-917504,92,-56,-1,-1,0
1523611151266,-786432,92,-56,-1,-1,0
1523611151266,-655360,92,-56,-1,-1,0
1523611151266,-589824,92,-56,-1,-1,0
1523611151266,-589824,92,-56,-1,-1,0
1523611151266,-655360,92,-56,-1,-1,0
1523611151306,-720896,92,-56,-1,-1,0
1523611151306,-720896,92,-56,-1,-1,0
1523611151306,-720896,92,-56,-1,-1,0
1523611151306,-720896,92,-56,-1,-1,0
1523611151306,-720896,92,-56,-1,-1,0
1523611151346,-720896,92,-56,-1,-1,0
1523611151346,-786432,92,-56,-1,-1,0
1523611151346,-851968,92,-56,-1,-1,0
1523611151346,-851968,92,-56,-1,-1,0
1523611151346,-851968,92,-56,-1,-1,0
1523611151386,-851968,92,-56,-1,-1,0
1523611151386,-917504,92,-56,-1,-1,0
1523611151386,-917504,92,-56,-1,-1,0
1523611151386,-983040,92,-56,-1,-1,0
1523611151386,-1048576,92,-56,-1,-1,0
1523611151426,-1114112,92,-56,-1,-1,0
1523611151426,-1245184,92,-56,-1,-1,0
1523611151426,-1245184,92,-56,-1,-1,0
1523611151426,-1179648,92,-56,-1,-1,0
1523611151426,-1114112,92,-56,-1,-1,0
1523611151466,-917504,92,-56,-1,-1,0
1523611151466,-720896,92,-56,-1,-1,0
1523611151466,-720896,92,-56,-1,-1,0
1523611151466,-917504,92,-56,-1,-1,0
1523611151466,-1048576,92,-56,-1,-1,0
1523611151506,-1114112,92,-56,-1,-1,0
1523611151506,-1114112,92,-56,-1,-1,0
1523611151506,-1114112,92,-56,-1,-1,0
1523611151506,-1114112,92,-56,-1,-1,0
1523611151506,-1114112,92,-56,-1,-1,0
1523611151546,-1114112,92,-56,-1,-1,0
1523611151546,-1114112,92,-56,-1,-1,0
1523611151546,-1114112,92,-56,-1,-1,0
1523611151546,-983040,92,-56,-1,-1,0
1523611151546,-65536,92,-56,-1,-1,0
1523611151586,2621440,92,-56,-1,-1,0
1523611151586,7340032,92,-56,-1,-1,0
1523611151586,9830400,92,-56,-1,-1,0
1523611151586,6160384,92,-56,-1,-1,0
1523611151586,196608,92,-56,-1,-1,0
1523611151627,-2162688,92,-56,-1,-1,0
1523611151627,-1703936,92,-56,-1,-1,0
1523611151627,-1245184,92,-56,-1,-1,0
1523611151627,-1179648,92,-56,-1,-1,0
1523611151627,-1114112,92,-56,-1,-1,0
1523611151666,-1048576,92,-56,-1,-1,0
1523611151666,-917504,92,-56,-1,-1,0
1523611151666,-851968,92,-56,-1,-1,0
1523611151666,-720896,92,-56,-1,-1,0
1523611151666,-655360,92,-56,-1,-1,0
1523611151706,-524288,92,-56,-1,-1,0
1523611151706,-393216,92,-56,-1,-1,0
1523611151706,-262144,92,-56,-1,-1,0
1523611151706,-65536,92,-56,-1,-1,0
1523611151706,65536,92,-56,-1,-1,0
1523611151746,327680,92,-56,-1,-1,0
1523611151746,589824,92,-56,-1,-1,0
1523611151746,917504,92,-56,-1,-1,0
1523611151746,1245184,92,-56,-1,-1,0
1523611151746,1507328,92,-56,-1,-1,0
1523611151787,1638400,92,-56,-1,-1,0
1523611151787,1638400,92,-56,-1,-1,0
1523611151787,1441792,92,-56,-1,-1,0
1523611151787,1245184,92,-56,-1,-1,0
1523611151787,983040,92,-56,-1,-1,0
1523611151826,655360,92,-56,-1,-1,0
1523611151826,262144,92,-56,-1,-1,0
1523611151826,-131072,92,-56,-1,-1,0
1523611151826,-524288,92,-56,-1,-1,0
1523611151826,-655360,92,-56,-1,-1,0
1523611151866,-851968,92,-56,-1,-1,0
1523611151866,-917504,92,-56,-1,-1,0
1523611151866,-983040,92,-56,-1,-1,0
1523611151866,-983040,92,-56,-1,-1,0
1523611151866,-983040,92,-56,-1,-1,0
1523611151906,-983040,92,-56,-1,-1,0
1523611151906,-1114112,92,-56,-1,-1,0
1523611151906,-1048576,92,-56,-1,-1,0
1523611151906,-1048576,92,-56,-1,-1,0
1523611151906,-1048576,92,-56,-1,-1,0
1523611151946,-1048576,92,-56,-1,-1,0
1523611151946,-983040,92,-56,-1,-1,0
1523611151946,-917504,92,-56,-1,-1,0
1523611151946,-917504,92,-56,-1,-1,0
1523611151946,-983040,92,-56,-1,-1,0
1523611151986,-1114112,92,-56,-1,-1,0
1523611151986,-1179648,92,-56,-1,-1,0
1523611151986,-1179648,92,-56,-1,-1,0
1523611151986,-1114112,92,-56,-1,-1,0
1523611151986,-1179648,92,-56,-1,-1,0
1523611152026,-1245184,92,-56,-1,-1,0
1523611152026,-1310720,92,-56,-1,-1,0
1523611152026,-1310720,92,-56,-1,-1,0
1523611152026,-1310720,92,-56,-1,-1,0
1523611152026,-1310720,92,-56,-1,-1,0
1523611152066,-1376256,92,-56,-1,-1,0
1523611152066,-1507328,92,-56,-1,-1,0
1523611152066,-1507328,92,-56,-1,-1,0
1523611152066,-1441792,92,-56,-1,-1,0
1523611152066,-1310720,92,-56,-1,-1,0
1523611152106,-1179648,92,-56,-1,-1,0
1523611152106,-1048576,92,-56,-1,-1,0
1523611152106,-983040,92,-56,-1,-1,0
1523611152106,-1048576,92,-56,-1,-1,0
1523611152106,-1114112,92,-56,-1,-1,0
1523611152146,-1245184,92,-56,-1,-1,0
1523611152146,-1310720,92,-56,-1,-1,0
1523611152146,-1245184,92,-56,-1,-1,0
1523611152146,-1245184,92,-56,-1,-1,0
1523611152146,-1245184,92,-56,-1,-1,0
1523611152187,-1245184,92,-56,-1,-1,0
1523611152187,-1245184,92,-56,-1,-1,0
1523611152187,-1310720,92,-56,-1,-1,0
1523611152187,-1245184,92,-56,-1,-1,0
1523611152187,-720896,92,-56,-1,-1,0
1523611152226,1179648,92,-56,-1,-1,0
1523611152226,5177344,92,-56,-1,-1,0
1523611152226,9371648,92,-56,-1,-1,0
1523611152226,8585216,92,-56,-1,-1,0
1523611152226,3080192,92,-56,-1,-1,0
1523611152266,-1048576,92,-56,-1,-1,0
1523611152266,-1441792,92,-56,-1,-1,0
1523611152266,-983040,92,-56,-1,-1,0
1523611152266,-1048576,92,-56,-1,-1,0
1523611152266,-1048576,92,-56,-1,-1,0
1523611152307,-917504,92,-56,-1,-1,0
1523611152307,-786432,92,-56,-1,-1,0
1523611152307,-589824,92,-56,-1,-1,0
1523611152307,-458752,92,-56,-1,-1,0
1523611152307,-393216,92,-56,-1,-1,0
1523611152346,-393216,92,-56,-1,-1,0
1523611152346,-196608,92,-56,-1,-1,0
1523611152346,0,92,-56,-1,-1,0
1523611152346,196608,92,-56,-1,-1,0
1523611152346,327680,92,-56,-1,-1,0
1523611152387,524288,92,-56,-1,-1,0
1523611152387,786432,92,-56,-1,-1,0
1523611152387,1114112,92,-56,-1,-1,0
1523611152387,1310720,92,-56,-1,-1,0
1523611152387,1572864,92,-56,-1,-1,0
1523611152428,1703936,92,-56,-1,-1,0
1523611152428,1769472,92,-56,-1,-1,0
1523611152428,1638400,92,-56,-1,-1,0
1523611152428,1572864,92,-56,-1,-1,0
1523611152428,1441792,92,-56,-1,-1,0
1523611152466,1245184,92,-56,-1,-1,0
1523611152466,851968,92,-56,-1,-1,0
1523611152466,458752,92,-56,-1,-1,0
1523611152466,0,92,-56,-1,-1,0
1523611152466,-196608,92,-56,-1,-1,0
1523611152506,-262144,92,-56,-1,-1,0
1523611152506,-327680,92,-56,-1,-1,0
1523611152506,-458752,92,-56,-1,-1,0
1523611152506,-524288,92,-56,-1,-1,0
1523611152506,-524288,92,-56,-1,-1,0
1523611152546,-458752,92,-56,-1,-1,0
1523611152546,-393216,92,-56,-1,-1,0
1523611152546,-458752,92,-56,-1,-1,0
1523611152546,-524288,92,-56,-1,-1,0
1523611152546,-524288,92,-56,-1,-1,0
1523611152586,-458752,92,-56,-1,-1,0
1523611152586,-393216,92,-56,-1,-1,0
1523611152586,-393216,92,-56,-1,-1,0
1523611152586,-458752,92,-56,-1,-1,0
1523611152586,-524288,92,-56,-1,-1,0
1523611152626,-524288,92,-56,-1,-1,0
1523611152626,-524288,92,-56,-1,-1,0
1523611152626,-524288,92,-56,-1,-1,0
1523611152626,-524288,92,-56,-1,-1,0
1523611152626,-524288,92,-56,-1,-1,0
1523611152666,-589824,92,-56,-1,-1,0
1523611152666,-589824,92,-56,-1,-1,0
1523611152666,-589824,92,-56,-1,-1,0
1523611152666,-589824,92,-56,-1,-1,0
1523611152666,-655360,92,-56,-1,-1,0
1523611152706,-720896,92,-56,-1,-1,0
1523611152706,-720896,92,-56,-1,-1,0
1523611152706,-655360,92,-56,-1,-1,0
1523611152706,-655360,92,-56,-1,-1,0
1523611152706,-655360,92,-56,-1,-1,0
1523611152746,-524288,92,-56,-1,-1,0
1523611152746,-327680,92,-56,-1,-1,0
1523611152746,-131072,92,-56,-1,-1,0
1523611152746,-196608,92,-56,-1,-1,0
1523611152746,-327680,92,-56,-1,-1,0
1523611152786,-458752,93,-56,-1,-1,0
1523611152786,-524288,93,-56,-1,-1,0
1523611152786,-589824,93,-56,-1,-1,0
1523611152786,-589824,93,-56,-1,-1,0
1523611152786,-655360,93,-56,-1,-1,0
1523611152826,-720896,93,-56,-1,-1,0
1523611152826,-720896,93,-56,-1,-1,0
1523611152826,-655360,93,-56,-1,-1,0
1523611152826,-655360,93,-56,-1,-1,0
1523611152826,-393216,93,-56,-1,-1,0
1523611152866,589824,93,-56,-1,-1,0
1523611152866,3670016,93,-56,-1,-1,0
1523611152866,8257536,93,-56,-1,-1,0
1523611152866,9961472,93,-56,-1,-1,0
1523611152866,5832704,93,-56,-1,-1,0
1523611152906,327680,93,-56,-1,-1,0
1523611152906,-1441792,93,-56,-1,-1,0
1523611152906,-917504,93,-56,-1,-1,0
1523611152906,-524288,93,-56,-1,-1,0
1523611152906,-458752,93,-56,-1,-1,0
1523611152946,-458752,93,-56,-1,-1,0
1523611152946,-458752,93,-56,-1,-1,0
1523611152946,-327680,93,-56,-1,-1,0
1523611152946,-262144,93,-56,-1,-1,0
1523611152946,-131072,93,-56,-1,-1,0
1523611152986,-65536,93,-56,-1,-1,0
1523611152986,0,93,-56,-1,-1,0
1523611152986,196608,93,-56,-1,-1,0
1523611152986,393216,93,-56,-1,-1,0
1523611152986,524288,93,-56,-1,-1,0
1523611153027,786432,93,-56,-1,-1,0
1523611153027,1048576,93,-56,-1,-1,0
1523611153027,1310720,93,-56,-1,-1,0
1523611153027,1507328,93,-56,-1,-1,0
1523611153027,1769472,93,-56,-1,-1,0
1523611153068,1966080,93,-56,-1,-1,0
1523611153068,2031616,93,-56,-1,-1,0
1523611153068,2031616,93,-56,-1,-1,0
1523611153068,1900544,93,-56,-1,-1,0
1523611153068,1703936,93,-56,-1,-1,0
1523611153106,1441792,93,-56,-1,-1,0
1523611153106,1048576,93,-56,-1,-1,0
1523611153106,589824,93,-56,-1,-1,0
1523611153106,131072,93,-56,-1,-1,0
1523611153106,-65536,93,-56,-1,-1,0
1523611153146,-262144,93,-56,-1,-1,0
1523611153146,-458752,93,-56,-1,-1,0
1523611153146,-589824,93,-56,-1,-1,0
1523611153146,-655360,93,-56,-1,-1,0
1523611153146,-655360,93,-56,-1,-1,0
1523611153186,-655360,93,-56,-1,-1,0
1523611153186,-589824,93,-56,-1,-1,0
1523611153186,-524288,93,-56,-1,-1,0
1523611153186,-458752,93,-56,-1,-1,0
1523611153186,-524288,93,-56,-1,-1,0
1523611153226,-524288,93,-56,-1,-1,0
1523611153226,-524288,93,-56,-1,-1,0
1523611153226,-458752,93,-56,-1,-1,0
1523611153226,-524288,93,-56,-1,-1,0
1523611153226,-524288,93,-56,-1,-1,0
1523611153266,-524288,93,-56,-1,-1,0
1523611153266,-524288,93,-56,-1,-1,0
1523611153266,-589824,93,-56,-1,-1,0
1523611153266,-589824,93,-56,-1,-1,0
1523611153266,-655360,93,-56,-1,-1,0
1523611153306,-655360,93,-56,-1,-1,0
1523611153306,-720896,93,-56,-1,-1,0
1523611153306,-720896,93,-56,-1,-1,0
1523611153306,-786432,93,-56,-1,-1,0
1523611153306,-786432,93,-56,-1,-1,0
1523611153346,-786432,93,-56,-1,-1,0
1523611153346,-983040,93,-56,-1,-1,0
1523611153346,-1048576,93,-56,-1,-1,0
1523611153346,-983040,93,-56,-1,-1,0
1523611153346,-917504,93,-56,-1,-1,0
1523611153386,-851968,93,-56,-1,-1,0
1523611153386,-589824,93,-56,-1,-1,0
1523611153386,-458752,93,-56,-1,-1,0
1523611153386,-458752,93,-56,-1,-1,0
1523611153386,-589824,93,-56,-1,-1,0
1523611153426,-720896,93,-56,-1,-1,0
1523611153426,-720896,93,-56,-1,-1,0
1523611153426,-720896,93,-56,-1,-1,0
1523611153426,-720896,93,-56,-1,-1,0
1523611153426,-786432,93,-56,-1,-1,0
1523611153466,-786432,93,-56,-1,-1,0
1523611153466,-786432,93,-56,-1,-1,0
1523611153466,-786432,93,-56,-1,-1,0
1523611153466,-786432,93,-56,-1,-1,0
1523611153466,-524288,93,-56,-1,-1,0
1523611153506,786432,93,-56,-1,-1,0
1523611153506,4063232,93,-56,-1,-1,0
1523611153506,8716288,93,-56,-1,-1,0
1523611153506,9764864,93,-56,-1,-1,0
1523611153506,5177344,93,-56,-1,-1,0
1523611153546,-65536,93,-56,-1,-1,0
1523611153546,-1441792,93,-56,-1,-1,0
1523611153546,-851968,93,-56,-1,-1,0
1523611153546,-458752,93,-56,-1,-1,0
1523611153546,-458752,93,-56,-1,-1,0
1523611153586,-393216,93,-56,-1,-1,0
1523611153586,-327680,93,-56,-1,-1,0
1523611153586,-327680,93,-56,-1,-1,0
1523611153586,-196608,93,-56,-1,-1,0
1523611153586,-65536,93,-56,-1,-1,0
1523611153626,0,93,-56,-1,-1,0
1523611153626,65536,93,-56,-1,-1,0
1523611153626,196608,93,-56,-1,-1,0
1523611153626,393216,93,-56,-1,-1,0
1523611153626,458752,93,-56,-1,-1,0
1523611153666,720896,93,-56,-1,-1,0
1523611153666,983040,93,-56,-1,-1,0
1523611153666,1245184,93,-56,-1,-1,0
1523611153666,1507328,93,-56,-1,-1,0
1523611153666,1769472,93,-56,-1,-1,0
1523611153707,1835008,93,-56,-1,-1,0
1523611153707,1900544,93,-56,-1,-1,0
1523611153707,1835008,93,-56,-1,-1,0
1523611153707,1703936,93,-56,-1,-1,0
1523611153707,1507328,93,-56,-1,-1,0
1523611153746,1310720,93,-56,-1,-1,0
1523611153746,851968,93,-56,-1,-1,0
1523611153746,393216,93,-56,-1,-1,0
1523611153746,65536,93,-56,-1,-1,0
1523611153746,-131072,93,-56,-1,-1,0
1523611153786,-393216,93,-56,-1,-1,0
1523611153786,-655360,93,-56,-1,-1,0
1523611153786,-720896,93,-56,-1,-1,0
1523611153786,-720896,93,-56,-1,-1,0
1523611153786,-720896,93,-56,-1,-1,0
1523611153826,-786432,93,-56,-1,-1,0
1523611153826,-786432,93,-56,-1,-1,0
1523611153826,-720896,93,-56,-1,-1,0
1523611153826,-655360,93,-56,-1,-1,0
1523611153826,-720896,93,-56,-1,-1,0
1523611153866,-720896,93,-56,-1,-1,0
1523611153866,-720896,93,-56,-1,-1,0
1523611153866,-589824,93,-56,-1,-1,0
1523611153866,-589824,93,-56,-1,-1,0
1523611153866,-589824,93,-56,-1,-1,0
1523611153906,-655360,93,-56,-1,-1,0
1523611153906,-720896,93,-56,-1,-1,0
1523611153906,-786432,93,-56,-1,-1,0
1523611153906,-786432,93,-56,-1,-1,0
1523611153906,-786432,93,-56,-1,-1,0
1523611153946,-851968,93,-56,-1,-1,0
1523611153946,-851968,93,-56,-1,-1,0
1523611153946,-917504,93,-56,-1,-1,0
1523611153946,-917504,93,-56,-1,-1,0
1523611153946,-917504,93,-56,-1,-1,0
1523611153986,-851968,93,-56,-1,-1,0
1523611153986,-851968,93,-56,-1,-1,0
1523611153986,-917504,93,-56,-1,-1,0
1523611153986,-1048576,93,-56,-1,-1,0
1523611153986,-1179648,93,-56,-1,-1,0
1523611154026,-1245184,93,-56,-1,-1,0
1523611154026,-1179648,93,-56,-1,-1,0
1523611154026,-1048576,93,-56,-1,-1,0
1523611154026,-851968,93,-56,-1,-1,0
1523611154026,-786432,93,-56,-1,-1,0
1523611154066,-720896,93,-56,-1,-1,0
1523611154066,-786432,93,-56,-1,-1,0
1523611154066,-917504,93,-56,-1,-1,0
1523611154066,-1048576,93,-56,-1,-1,0
1523611154066,-1179648,93,-56,-1,-1,0
1523611154106,-1179648,93,-56,-1,-1,0
1523611154106,-1179648,93,-56,-1,-1,0
1523611154106,-1245184,93,-56,-1,-1,0
1523611154106,-1245184,93,-56,-1,-1,0
1523611154106,-1179648,93,-56,-1,-1,0
1523611154146,-1179648,93,-56,-1,-1,0
1523611154146,-1114112,93,-56,-1,-1,0
1523611154146,-655360,93,-56,-1,-1,0
1523611154146,851968,93,-56,-1,-1,0
1523611154146,4390912,93,-56,-1,-1,0
1523611154186,9043968,93,-56,-1,-1,0
1523611154186,9568256,93,-56,-1,-1,0
1523611154186,4521984,93,-56,-1,-1,0
1523611154186,-524288,93,-56,-1,-1,0
1523611154186,-1638400,93,-56,-1,-1,0
1523611154226,-983040,93,-56,-1,-1,0
1523611154226,-655360,93,-56,-1,-1,0
1523611154226,-524288,93,-56,-1,-1,0
1523611154226,-458752,93,-56,-1,-1,0
1523611154226,-458752,93,-56,-1,-1,0
1523611154266,-458752,93,-56,-1,-1,0
1523611154266,-393216,93,-56,-1,-1,0
1523611154266,-262144,93,-56,-1,-1,0
1523611154266,-65536,93,-56,-1,-1,0
1523611154266,131072,93,-56,-1,-1,0
1523611154306,458752,93,-56,-1,-1,0
1523611154306,786432,93,-56,-1,-1,0
1523611154306,851968,93,-56,-1,-1,0
1523611154306,917504,93,-56,-1,-1,0
1523611154306,1179648,93,-56,-1,-1,0
1523611154347,1638400,93,-56,-1,-1,0
1523611154347,1966080,93,-56,-1,-1,0
1523611154347,2162688,93,-56,-1,-1,0
1523611154347,2293760,93,-56,-1,-1,0
1523611154347,2424832,93,-56,-1,-1,0
1523611154386,2490368,93,-56,-1,-1,0
1523611154386,2424832,93,-56,-1,-1,0
1523611154386,2293760,93,-56,-1,-1,0
1523611154386,1900544,93,-56,-1,-1,0
1523611154386,1507328,93,-56,-1,-1,0
1523611154426,1179648,93,-56,-1,-1,0
1523611154426,851968,93,-56,-1,-1,0
1523611154426,458752,93,-56,-1,-1,0
1523611154426,262144,93,-56,-1,-1,0
1523611154426,393216,93,-56,-1,-1,0
1523611154466,524288,93,-56,-1,-1,0
1523611154466,393216,93,-56,-1,-1,0
1523611154466,131072,93,-56,-1,-1,0
1523611154466,65536,93,-56,-1,-1,0
1523611154466,65536,93,-56,-1,-1,0
1523611154506,0,93,-56,-1,-1,0
1523611154506,-65536,93,-56,-1,-1,0
1523611154506,-196608,93,-56,-1,-1,0
1523611154506,-196608,93,-56,-1,-1,0
1523611154506,-65536,93,-56,-1,-1,0
1523611154546,-65536,93,-56,-1,-1,0
1523611154546,-65536,93,-56,-1,-1,0
1523611154546,-131072,93,-56,-1,-1,0
1523611154546,-196608,93,-56,-1,-1,0
1523611154546,-196608,93,-56,-1,-1,0
1523611154586,-393216,93,-56,-1,-1,0
1523611154586,-589824,93,-56,-1,-1,0
1523611154586,-589824,93,-56,-1,-1,0
1523611154586,-589824,93,-56,-1,-1,0
1523611154586,-655360,93,-56,-1,-1,0
1523611154626,-720896,93,-56,-1,-1,0
1523611154626,-720896,93,-56,-1,-1,0
1523611154626,-720896,93,-56,-1,-1,0
1523611154626,-720896,93,-56,-1,-1,0
1523611154626,-786432,93,-56,-1,-1,0
1523611154666,-786432,93,-56,-1,-1,0
1523611154666,-851968,93,-56,-1,-1,0
1523611154666,-1048576,93,-56,-1,-1,0
1523611154666,-1114112,93,-56,-1,-1,0
1523611154666,-917504,93,-56,-1,-1,0
1523611154706,-589824,93,-56,-1,-1,0
1523611154706,-458752,93,-56,-1,-1,0
1523611154706,-589824,93,-56,-1,-1,0
1523611154706,-851968,93,-56,-1,-1,0
1523611154706,-917504,93,-56,-1,-1,0
1523611154745,-983040,93,-56,-1,-1,0
1523611154745,-1114112,93,-56,-1,-1,0
1523611154745,-1114112,93,-56,-1,-1,0
1523611154745,-983040,93,-56,-1,-1,0
1523611154745,-851968,93,-56,-1,-1,0
1523611154786,-786432,93,-56,-1,-1,0
1523611154786,-851968,93,-56,-1,-1,0
1523611154786,-983040,93,-56,-1,-1,0
1523611154786,-851968,93,-56,-1,-1,0
1523611154786,-65536,93,-56,-1,-1,0
1523611154825,2490368,93,-56,-1,-1,0
1523611154825,7208960,93,-56,-1,-1,0
1523611154825,10551296,93,-56,-1,-1,0
1523611154825,7733248,93,-56,-1,-1,0
1523611154825,1638400,93,-56,-1,-1,0
1523611154866,-1310720,93,-56,-1,-1,0
1523611154866,-983040,93,-56,-1,-1,0
1523611154866,-589824,93,-56,-1,-1,0
1523611154866,-851968,93,-56,-1,-1,0
1523611154866,-1114112,93,-56,-1,-1,0
1523611154906,-1179648,93,-56,-1,-1,0
1523611154906,-983040,93,-56,-1,-1,0
1523611154906,-851968,93,-56,-1,-1,0
1523611154906,-786432,93,-56,-1,-1,0
1523611154906,-851968,93,-56,-1,-1,0
1523611154946,-786432,93,-56,-1,-1,0
1523611154946,-524288,93,-56,-1,-1,0
1523611154946,-458752,93,-56,-1,-1,0
1523611154946,-393216,93,-56,-1,-1,0
1523611154946,-65536,93,-56,-1,-1,0
1523611154987,262144,93,-56,-1,-1,0
1523611154987,393216,93,-56,-1,-1,0
1523611154987,458752,93,-56,-1,-1,0
1523611154987,524288,93,-56,-1,-1,0
1523611154987,917504,93,-56,-1,-1,0
1523611155025,1048576,93,-56,-1,-1,0
1523611155025,983040,93,-56,-1,-1,0
1523611155025,786432,93,-56,-1,-1,0
1523611155025,720896,93,-56,-1,-1,0
1523611155025,589824,93,-56,-1,-1,0
1523611155065,393216,93,-56,-1,-1,0
1523611155065,131072,93,-56,-1,-1,0
1523611155065,-262144,93,-56,-1,-1,0
1523611155065,-655360,93,-56,-1,-1,0
1523611155065,-1048576,93,-56,-1,-1,0
1523611155106,-1245184,93,-56,-1,-1,0
1523611155106,-1376256,93,-56,-1,-1,0
1523611155106,-1441792,93,-56,-1,-1,0
1523611155106,-1441792,93,-56,-1,-1,0
1523611155106,-1310720,93,-56,-1,-1,0
1523611155146,-1245184,93,-56,-1,-1,0
1523611155146,-1245184,93,-56,-1,-1,0
1523611155146,-1245184,93,-56,-1,-1,0
1523611155146,-1245184,93,-56,-1,-1,0
1523611155146,-1179648,93,-56,-1,-1,0
1523611155186,-983040,93,-56,-1,-1,0
1523611155186,-1114112,93,-56,-1,-1,0
1523611155186,-1376256,93,-56,-1,-1,0
1523611155186,-1441792,93,-56,-1,-1,0
1523611155186,-1179648,93,-56,-1,-1,0
1523611155225,-1179648,93,-56,-1,-1,0
1523611155225,-1376256,93,-56,-1,-1,0
1523611155225,-1441792,93,-56,-1,-1,0
1523611155225,-1441792,93,-56,-1,-1,0
1523611155225,-1376256,93,-56,-1,-1,0
1523611155266,-1310720,93,-56,-1,-1,0
1523611155266,-1310720,93,-56,-1,-1,0
1523611155266,-1310720,93,-56,-1,-1,0
1523611155266,-1572864,93,-56,-1,-1,0
1523611155266,-1572864,93,-56,-1,-1,0
1523611155305,-1572864,93,-56,-1,-1,0
1523611155305,-1572864,93,-56,-1,-1,0
1523611155305,-1441792,93,-56,-1,-1,0
1523611155305,-1441792,93,-56,-1,-1,0
1523611155305,-1507328,93,-56,-1,-1,0
1523611155346,-1769472,93,-56,-1,-1,0
1523611155346,-1835008,93,-56,-1,-1,0
1523611155346,-1769472,93,-56,-1,-1,0
1523611155346,-1507328,93,-56,-1,-1,0
1523611155346,-1310720,93,-56,-1,-1,0
1523611155385,-1245184,93,-56,-1,-1,0
1523611155385,-1310720,93,-56,-1,-1,0
1523611155385,-1572864,93,-56,-1,-1,0
1523611155385,-1638400,93,-56,-1,-1,0
1523611155385,-1572864,93,-56,-1,-1,0
1523611155426,-1572864,93,-56,-1,-1,0
1523611155426,-1703936,93,-56,-1,-1,0
1523611155426,-1638400,93,-56,-1,-1,0
1523611155426,-1507328,93,-56,-1,-1,0
1523611155426,-1572864,93,-56,-1,-1,0
1523611155466,-1769472,93,-56,-1,-1,0
1523611155466,-1638400,93,-56,-1,-1,0
1523611155466,-589824,93,-56,-1,-1,0
1523611155466,2228224,93,-56,-1,-1,0
1523611155466,7012352,93,-56,-1,-1,0
1523611155506,9437184,93,-56,-1,-1,0
1523611155506,5832704,93,-56,-1,-1,0
1523611155506,65536,93,-56,-1,-1,0
1523611155506,-2031616,93,-56,-1,-1,0
1523611155506,-1638400,93,-56,-1,-1,0
1523611155546,-1310720,93,-56,-1,-1,0
1523611155546,-1376256,93,-56,-1,-1,0
1523611155546,-1507328,93,-56,-1,-1,0
1523611155546,-1507328,93,-56,-1,-1,0
1523611155546,-1376256,93,-56,-1,-1,0
1523611155586,-1179648,93,-56,-1,-1,0
1523611155586,-917504,93,-56,-1,-1,0
1523611155586,-786432,93,-56,-1,-1,0
1523611155586,-720896,93,-56,-1,-1,0
1523611155586,-720896,93,-56,-1,-1,0
1523611155627,-524288,93,-56,-1,-1,0
1523611155627,-524288,93,-56,-1,-1,0
1523611155627,-524288,93,-56,-1,-1,0
1523611155627,-327680,93,-56,-1,-1,0
1523611155627,0,93,-56,-1,-1,0
1523611155666,262144,93,-56,-1,-1,0
1523611155666,655360,93,-56,-1,-1,0
1523611155666,983040,93,-56,-1,-1,0
1523611155666,1310720,93,-56,-1,-1,0
1523611155666,1376256,93,-56,-1,-1,0
1523611155706,1245184,93,-56,-1,-1,0
1523611155706,983040,93,-56,-1,-1,0
1523611155706,720896,93,-56,-1,-1,0
1523611155706,393216,93,-56,-1,-1,0
1523611155706,0,93,-56,-1,-1,0
1523611155746,-262144,93,-56,-1,-1,0
1523611155746,-589824,93,-56,-1,-1,0
1523611155746,-851968,93,-56,-1,-1,0
1523611155746,-983040,93,-56,-1,-1,0
1523611155746,-1048576,93,-56,-1,-1,0
1523611155786,-1114112,93,-56,-1,-1,0
1523611155786,-983040,93,-56,-1,-1,0
1523611155786,-917504,93,-56,-1,-1,0
1523611155786,-917504,93,-56,-1,-1,0
1523611155786,-983040,93,-56,-1,-1,0
1523611155826,-851968,93,-56,-1,-1,0
1523611155826,-851968,93,-56,-1,-1,0
1523611155826,-720896,93,-56,-1,-1,0
1523611155826,-589824,93,-56,-1,-1,0
1523611155826,-458752,93,-56,-1,-1,0
1523611155866,-458752,93,-56,-1,-1,0
1523611155866,-589824,93,-56,-1,-1,0
1523611155866,-720896,93,-56,-1,-1,0
1523611155866,-786432,93,-56,-1,-1,0
1523611155866,-786432,93,-56,-1,-1,0
1523611155906,-655360,93,-56,-1,-1,0
1523611155906,-655360,93,-56,-1,-1,0
1523611155906,-524288,93,-56,-1,-1,0
1523611155906,-393216,93,-56,-1,-1,0
1523611155906,-262144,93,-56,-1,-1,0
1523611155947,-327680,93,-56,-1,-1,0
1523611155947,-327680,93,-56,-1,-1,0
1523611155947,-393216,93,-56,-1,-1,0
1523611155947,-327680,93,-56,-1,-1,0
1523611155947,-327680,93,-56,-1,-1,0
1523611155986,-327680,93,-56,-1,-1,0
1523611155986,-327680,93,-56,-1,-1,0
1523611155986,-262144,93,-56,-1,-1,0
1523611155986,-393216,93,-56,-1,-1,0
1523611155986,-458752,93,-56,-1,-1,0
1523611156025,-458752,93,-56,-1,-1,0
1523611156025,-327680,93,-56,-1,-1,0
1523611156025,-196608,93,-56,-1,-1,0
1523611156025,-65536,93,-56,-1,-1,0
1523611156025,0,93,-56,-1,-1,0
1523611156066,0,93,-56,-1,-1,0
1523611156066,0,93,-56,-1,-1,0
1523611156066,-131072,93,-56,-1,-1,0
1523611156066,-196608,93,-56,-1,-1,0
1523611156066,-131072,93,-56,-1,-1,0
1523611156105,-131072,92,-56,-1,-1,0
1523611156105,-262144,92,-56,-1,-1,0
1523611156105,-327680,92,-56,-1,-1,0
1523611156105,-327680,92,-56,-1,-1,0
1523611156105,-327680,92,-56,-1,-1,0
1523611156146,-393216,92,-56,-1,-1,0
1523611156146,-131072,92,-56,-1,-1,0
1523611156146,1114112,92,-56,-1,-1,0
1523611156146,4456448,92,-56,-1,-1,0
1523611156146,9240576,92,-56,-1,-1,0
1523611156186,10420224,92,-56,-1,-1,0
1523611156186,5767168,92,-56,-1,-1,0
1523611156186,327680,92,-56,-1,-1,0
1523611156186,-1114112,92,-56,-1,-1,0
1523611156186,-655360,92,-56,-1,-1,0
1523611156226,-393216,92,-56,-1,-1,0
1523611156226,-458752,92,-56,-1,-1,0
1523611156226,-458752,92,-56,-1,-1,0
1523611156226,-393216,92,-56,-1,-1,0
1523611156226,-327680,92,-56,-1,-1,0
1523611156267,-196608,92,-56,-1,-1,0
1523611156267,-65536,92,-56,-1,-1,0
1523611156267,0,92,-56,-1,-1,0
1523611156267,65536,92,-56,-1,-1,0
1523611156267,196608,92,-56,-1,-1,0
1523611156306,393216,92,-56,-1,-1,0
1523611156306,589824,92,-56,-1,-1,0
1523611156306,917504,92,-56,-1,-1,0
1523611156306,1310720,92,-56,-1,-1,0
1523611156306,1638400,92,-56,-1,-1,0
1523611156346,1769472,92,-56,-1,-1,0
1523611156346,1966080,92,-56,-1,-1,0
1523611156346,2228224,92,-56,-1,-1,0
1523611156346,2555904,92,-56,-1,-1,0
1523611156346,2752512,92,-56,-1,-1,0
1523611156386,2818048,92,-56,-1,-1,0
1523611156386,2686976,92,-56,-1,-1,0
1523611156386,2293760,92,-56,-1,-1,0
1523611156386,1507328,92,-56,-1,-1,0
1523611156386,720896,92,-56,-1,-1,0
1523611156426,393216,92,-56,-1,-1,0
1523611156426,196608,92,-56,-1,-1,0
1523611156426,0,92,-56,-1,-1,0
1523611156426,-327680,92,-56,-1,-1,0
1523611156426,-589824,92,-56,-1,-1,0
1523611156466,-524288,92,-56,-1,-1,0
1523611156466,-589824,92,-56,-1,-1,0
1523611156466,-983040,92,-56,-1,-1,0
1523611156466,-1179648,92,-56,-1,-1,0
1523611156466,-983040,92,-56,-1,-1,0
1523611156506,-720896,92,-56,-1,-1,0
1523611156506,-851968,92,-56,-1,-1,0
1523611156506,-1114112,92,-56,-1,-1,0
1523611156506,-1179648,92,-56,-1,-1,0
1523611156506,-983040,92,-56,-1,-1,0
1523611156546,-917504,92,-56,-1,-1,0
1523611156546,-851968,92,-56,-1,-1,0
1523611156546,-917504,92,-56,-1,-1,0
1523611156546,-851968,92,-56,-1,-1,0
1523611156546,-983040,92,-56,-1,-1,0
1523611156586,-1048576,92,-56,-1,-1,0
1523611156586,-1179648,92,-56,-1,-1,0
1523611156586,-1179648,92,-56,-1,-1,0
1523611156586,-983040,92,-56,-1,-1,0
1523611156586,-720896,92,-56,-1,-1,0
1523611156626,-458752,92,-56,-1,-1,0
1523611156626,-655360,92,-56,-1,-1,0
1523611156626,-1179648,92,-56,-1,-1,0
1523611156626,-1245184,92,-56,-1,-1,0
1523611156626,-983040,92,-56,-1,-1,0
1523611156666,-786432,92,-56,-1,-1,0
1523611156666,-983040,92,-56,-1,-1,0
1523611156666,-1179648,92,-56,-1,-1,0
1523611156666,-1441792,92,-56,-1,-1,0
1523611156666,-1179648,92,-56,-1,-1,0
1523611156706,-983040,92,-56,-1,-1,0
1523611156706,-786432,92,-56,-1,-1,0
1523611156706,-655360,92,-56,-1,-1,0
1523611156706,-393216,92,-56,-1,-1,0
1523611156706,-327680,92,-56,-1,-1,0
1523611156746,-655360,92,-56,-1,-1,0
1523611156746,-1114112,92,-56,-1,-1,0
1523611156746,-1245184,92,-56,-1,-1,0
1523611156746,-1310720,92,-56,-1,-1,0
1523611156746,-1245184,92,-56,-1,-1,0
1523611156786,-1245184,92,-56,-1,-1,0
1523611156786,-1114112,92,-56,-1,-1,0
1523611156786,-1048576,92,-56,-1,-1,0
1523611156786,-851968,92,-56,-1,-1,0
1523611156786,65536,92,-56,-1,-1,0
1523611156826,1966080,92,-56,-1,-1,0
1523611156826,5636096,92,-56,-1,-1,0
1523611156826,8781824,92,-56,-1,-1,0
1523611156826,7667712,92,-56,-1,-1,0
1523611156826,2490368,92,-56,-1,-1,0
1523611156866,-1376256,92,-56,-1,-1,0
1523611156866,-1703936,92,-56,-1,-1,0
1523611156866,-1179648,92,-56,-1,-1,0
1523611156866,-983040,92,-56,-1,-1,0
1523611156866,-917504,92,-56,-1,-1,0
1523611156907,-786432,92,-56,-1,-1,0
1523611156907,-786432,92,-56,-1,-1,0
1523611156907,-720896,92,-56,-1,-1,0
1523611156907,-589824,92,-56,-1,-1,0
1523611156907,-524288,92,-56,-1,-1,0
1523611156946,-393216,92,-56,-1,-1,0
1523611156946,-196608,92,-56,-1,-1,0
1523611156946,0,92,-56,-1,-1,0
1523611156946,131072,92,-56,-1,-1,0
1523611156946,327680,92,-56,-1,-1,0
1523611156986,720896,92,-56,-1,-1,0
1523611156986,983040,92,-56,-1,-1,0
1523611156986,983040,92,-56,-1,-1,0
1523611156986,1179648,92,-56,-1,-1,0
1523611156986,1900544,92,-56,-1,-1,0
1523611157026,2293760,92,-56,-1,-1,0
1523611157026,1769472,92,-56,-1,-1,0
1523611157026,1114112,92,-56,-1,-1,0
1523611157026,851968,92,-56,-1,-1,0
1523611157026,917504,92,-56,-1,-1,0
1523611157066,589824,92,-56,-1,-1,0
1523611157066,131072,92,-56,-1,-1,0
1523611157066,-262144,92,-56,-1,-1,0
1523611157066,-589824,92,-56,-1,-1,0
1523611157066,-917504,92,-56,-1,-1,0
1523611157106,-1179648,92,-56,-1,-1,0
1523611157106,-1310720,92,-56,-1,-1,0
1523611157106,-1441792,92,-56,-1,-1,0
1523611157106,-1441792,92,-56,-1,-1,0
1523611157106,-1441792,92,-56,-1,-1,0
1523611157146,-1441792,92,-56,-1,-1,0
1523611157146,-1572864,92,-56,-1,-1,0
1523611157146,-1507328,92,-56,-1,-1,0
1523611157146,-1441792,92,-56,-1,-1,0
1523611157146,-1507328,92,-56,-1,-1,0
1523611157186,-1507328,92,-56,-1,-1,0
1523611157186,-1441792,92,-56,-1,-1,0
1523611157186,-1376256,92,-56,-1,-1,0
1523611157186,-1376256,92,-56,-1,-1,0
1523611157186,-1376256,92,-56,-1,-1,0
1523611157226,-1376256,92,-56,-1,-1,0
1523611157226,-1441792,92,-56,-1,-1,0
1523611157226,-1376256,92,-56,-1,-1,0
1523611157226,-1245184,92,-56,-1,-1,0
1523611157226,-1048576,92,-56,-1,-1,0
1523611157266,-917504,92,-56,-1,-1,0
1523611157266,-1048576,92,-56,-1,-1,0
1523611157266,-1376256,92,-56,-1,-1,0
1523611157266,-1703936,92,-56,-1,-1,0
1523611157266,-1572864,92,-56,-1,-1,0
1523611157306,-1507328,92,-56,-1,-1,0
1523611157306,-1507328,92,-56,-1,-1,0
1523611157306,-1638400,92,-56,-1,-1,0
1523611157306,-1638400,92,-56,-1,-1,0
1523611157306,-1572864,92,-56,-1,-1,0
1523611157346,-1441792,92,-56,-1,-1,0
1523611157346,-1179648,92,-56,-1,-1,0
1523611157346,-1048576,92,-56,-1,-1,0
1523611157346,-1048576,92,-56,-1,-1,0
1523611157346,-1048576,92,-56,-1,-1,0
1523611157386,-1179648,92,-56,-1,-1,0
1523611157386,-1310720,92,-56,-1,-1,0
1523611157386,-1376256,92,-56,-1,-1,0
1523611157386,-1376256,92,-56,-1,-1,0
1523611157386,-1376256,92,-56,-1,-1,0
1523611157426,-1245184,92,-56,-1,-1,0
1523611157426,-1245184,92,-56,-1,-1,0
1523611157426,-1114112,92,-56,-1,-1,0
1523611157426,-983040,92,-56,-1,-1,0
1523611157426,-917504,92,-56,-1,-1,0
1523611157466,-589824,92,-56,-1,-1,0
1523611157466,720896,92,-56,-1,-1,0
1523611157466,3866624,92,-56,-1,-1,0
1523611157466,7536640,92,-56,-1,-1,0
1523611157466,7143424,92,-56,-1,-1,0
1523611157506,2686976,92,-56,-1,-1,0
1523611157506,-917504,92,-56,-1,-1,0
1523611157506,-1310720,92,-56,-1,-1,0
1523611157506,-851968,92,-56,-1,-1,0
1523611157506,-720896,92,-56,-1,-1,0
1523611157547,-720896,92,-56,-1,-1,0
1523611157547,-786432,92,-56,-1,-1,0
1523611157547,-851968,92,-56,-1,-1,0
1523611157547,-786432,92,-56,-1,-1,0
1523611157547,-589824,92,-56,-1,-1,0
1523611157586,-589824,92,-56,-1,-1,0
1523611157586,-589824,92,-56,-1,-1,0
1523611157586,-524288,92,-56,-1,-1,0
1523611157586,-327680,92,-56,-1,-1,0
1523611157586,-196608,92,-56,-1,-1,0
1523611157627,-131072,92,-56,-1,-1,0
1523611157627,0,92,-56,-1,-1,0
1523611157627,262144,92,-56,-1,-1,0
1523611157627,458752,92,-56,-1,-1,0
1523611157627,655360,92,-56,-1,-1,0
1523611157666,851968,92,-56,-1,-1,0
1523611157666,1114112,92,-56,-1,-1,0
1523611157666,1179648,92,-56,-1,-1,0
1523611157666,1114112,92,-56,-1,-1,0
1523611157666,1114112,92,-56,-1,-1,0
1523611157706,1114112,92,-56,-1,-1,0
1523611157706,917504,92,-56,-1,-1,0
1523611157706,458752,92,-56,-1,-1,0
1523611157706,131072,92,-56,-1,-1,0
1523611157706,0,92,-56,-1,-1,0
1523611157746,-196608,92,-56,-1,-1,0
1523611157746,-458752,92,-56,-1,-1,0
1523611157746,-524288,92,-56,-1,-1,0
1523611157746,-589824,92,-56,-1,-1,0
1523611157746,-589824,92,-56,-1,-1,0
1523611157786,-655360,92,-56,-1,-1,0
1523611157786,-851968,92,-56,-1,-1,0
1523611157786,-1048576,92,-56,-1,-1,0
1523611157786,-983040,92,-56,-1,-1,0
1523611157786,-851968,92,-56,-1,-1,0
1523611157826,-851968,92,-56,-1,-1,0
1523611157826,-851968,92,-56,-1,-1,0
1523611157826,-851968,92,-56,-1,-1,0
1523611157826,-917504,92,-56,-1,-1,0
1523611157826,-983040,92,-56,-1,-1,0
1523611157866,-917504,92,-56,-1,-1,0
1523611157866,-917504,92,-56,-1,-1,0
1523611157866,-917504,92,-56,-1,-1,0
1523611157866,-983040,92,-56,-1,-1,0
1523611157866,-983040,92,-56,-1,-1,0
1523611157906,-917504,92,-56,-1,-1,0
1523611157906,-851968,92,-56,-1,-1,0
1523611157906,-851968,92,-56,-1,-1,0
1523611157906,-851968,92,-56,-1,-1,0
1523611157906,-917504,92,-56,-1,-1,0
1523611157946,-917504,92,-56,-1,-1,0
1523611157946,-917504,92,-56,-1,-1,0
1523611157946,-851968,92,-56,-1,-1,0
1523611157946,-786432,92,-56,-1,-1,0
1523611157946,-655360,92,-56,-1,-1,0
1523611157986,-458752,92,-56,-1,-1,0
1523611157986,-262144,92,-56,-1,-1,0
1523611157986,-196608,92,-56,-1,-1,0
1523611157986,-327680,92,-56,-1,-1,0
1523611157986,-393216,92,-56,-1,-1,0
1523611158026,-458752,92,-56,-1,-1,0
1523611158026,-589824,92,-56,-1,-1,0
1523611158026,-524288,92,-56,-1,-1,0
1523611158026,-458752,92,-56,-1,-1,0
1523611158026,-393216,92,-56,-1,-1,0
1523611158066,-327680,92,-56,-1,-1,0
1523611158066,-393216,92,-56,-1,-1,0
1523611158066,-393216,92,-56,-1,-1,0
1523611158066,-262144,92,-56,-1,-1,0
1523611158066,393216,92,-56,-1,-1,0
1523611158106,2490368,92,-56,-1,-1,0
1523611158106,6291456,92,-56,-1,-1,0
1523611158106,9306112,92,-56,-1,-1,0
1523611158106,7340032,92,-56,-1,-1,0
1523611158106,2293760,92,-56,-1,-1,0
1523611158146,-524288,92,-56,-1,-1,0
1523611158146,-393216,92,-56,-1,-1,0
1523611158146,131072,92,-56,-1,-1,0
1523611158146,196608,92,-56,-1,-1,0
1523611158146,196608,92,-56,-1,-1,0
1523611158187,196608,92,-56,-1,-1,0
1523611158187,262144,92,-56,-1,-1,0
1523611158187,327680,92,-56,-1,-1,0
1523611158187,458752,92,-56,-1,-1,0
1523611158187,589824,92,-56,-1,-1,0
1523611158226,720896,92,-56,-1,-1,0
1523611158226,786432,92,-56,-1,-1,0
1523611158226,851968,92,-56,-1,-1,0
1523611158226,983040,92,-56,-1,-1,0
1523611158226,1048576,92,-56,-1,-1,0
1523611158266,1114112,92,-56,-1,-1,0
1523611158266,1114112,92,-56,-1,-1,0
1523611158266,1245184,92,-56,-1,-1,0
1523611158266,1376256,92,-56,-1,-1,0
1523611158266,1507328,92,-56,-1,-1,0
1523611158306,1638400,92,-56,-1,-1,0
1523611158306,1703936,92,-56,-1,-1,0
1523611158306,1638400,92,-56,-1,-1,0
1523611158306,1441792,92,-56,-1,-1,0
1523611158306,1245184,92,-56,-1,-1,0
1523611158346,1048576,92,-56,-1,-1,0
1523611158346,720896,92,-56,-1,-1,0
1523611158346,393216,92,-56,-1,-1,0
1523611158346,65536,92,-56,-1,-1,0
1523611158346,-131072,92,-56,-1,-1,0
1523611158386,-196608,92,-56,-1,-1,0
1523611158386,-262144,92,-56,-1,-1,0
1523611158386,-327680,92,-56,-1,-1,0
1523611158386,-393216,92,-56,-1,-1,0
1523611158386,-262144,92,-56,-1,-1,0
1523611158426,-131072,92,-56,-1,-1,0
1523611158426,-131072,92,-56,-1,-1,0
1523611158426,-131072,92,-56,-1,-1,0
1523611158426,-65536,92,-56,-1,-1,0
1523611158426,0,92,-56,-1,-1,0
1523611158466,65536,92,-56,-1,-1,0
1523611158466,131072,92,-56,-1,-1,0
1523611158466,131072,92,-56,-1,-1,0
1523611158466,131072,92,-56,-1,-1,0
1523611158466,131072,92,-56,-1,-1,0
1523611158506,0,92,-56,-1,-1,0
1523611158506,0,92,-56,-1,-1,0
1523611158506,65536,92,-56,-1,-1,0
1523611158506,0,92,-56,-1,-1,0
1523611158506,-65536,92,-56,-1,-1,0
1523611158546,-65536,92,-56,-1,-1,0
1523611158546,-65536,92,-56,-1,-1,0
1523611158546,-65536,92,-56,-1,-1,0
1523611158546,-196608,92,-56,-1,-1,0
1523611158546,-196608,92,-56,-1,-1,0
1523611158586,-65536,92,-56,-1,-1,0
1523611158586,131072,92,-56,-1,-1,0
1523611158586,327680,92,-56,-1,-1,0
1523611158586,524288,92,-56,-1,-1,0
1523611158586,524288,92,-56,-1,-1,0
1523611158626,458752,92,-56,-1,-1,0
1523611158626,327680,92,-56,-1,-1,0
1523611158626,262144,92,-56,-1,-1,0
1523611158626,262144,92,-56,-1,-1,0
1523611158626,262144,92,-56,-1,-1,0
1523611158666,196608,92,-56,-1,-1,0
1523611158666,196608,92,-56,-1,-1,0
1523611158666,196608,92,-56,-1,-1,0
1523611158666,262144,92,-56,-1,-1,0
1523611158666,196608,92,-56,-1,-1,0
1523611158706,196608,92,-56,-1,-1,0
1523611158706,655360,92,-56,-1,-1,0
1523611158706,2490368,92,-56,-1,-1,0
1523611158706,6488064,92,-56,-1,-1,0
1523611158706,10551296,92,-56,-1,-1,0
1523611158746,9371648,92,-56,-1,-1,0
1523611158746,3801088,92,-56,-1,-1,0
1523611158746,-196608,92,-56,-1,-1,0
1523611158746,-327680,92,-56,-1,-1,0
1523611158746,262144,92,-56,-1,-1,0
1523611158786,458752,92,-56,-1,-1,0
1523611158786,458752,92,-56,-1,-1,0
1523611158786,458752,92,-56,-1,-1,0
1523611158786,589824,92,-56,-1,-1,0
1523611158786,655360,92,-56,-1,-1,0
1523611158827,786432,92,-56,-1,-1,0
1523611158827,786432,92,-56,-1,-1,0
1523611158827,851968,92,-56,-1,-1,0
1523611158827,917504,92,-56,-1,-1,0
1523611158827,1048576,92,-56,-1,-1,0
1523611158866,1245184,92,-56,-1,-1,0
1523611158866,1507328,92,-56,-1,-1,0
1523611158866,1769472,92,-56,-1,-1,0
1523611158866,2097152,92,-56,-1,-1,0
1523611158866,2424832,92,-56,-1,-1,0
1523611158906,2686976,92,-56,-1,-1,0
1523611158906,2949120,92,-56,-1,-1,0
1523611158906,2949120,92,-56,-1,-1,0
1523611158906,2883584,92,-56,-1,-1,0
1523611158906,2752512,92,-56,-1,-1,0
1523611158947,2621440,92,-56,-1,-1,0
1523611158947,2424832,92,-56,-1,-1,0
1523611158947,2097152,92,-56,-1,-1,0
1523611158947,1572864,92,-56,-1,-1,0
1523611158947,1048576,92,-56,-1,-1,0
1523611158986,589824,92,-56,-1,-1,0
1523611158986,262144,92,-56,-1,-1,0
1523611158986,65536,92,-56,-1,-1,0
1523611158986,0,92,-56,-1,-1,0
1523611158986,-131072,92,-56,-1,-1,0
1523611159026,-131072,92,-56,-1,-1,0
1523611159026,-65536,92,-56,-1,-1,0
1523611159026,0,92,-56,-1,-1,0
1523611159026,0,92,-56,-1,-1,0
1523611159026,-65536,92,-56,-1,-1,0
1523611159066,-65536,92,-56,-1,-1,0
1523611159066,0,92,-56,-1,-1,0
1523611159066,0,92,-56,-1,-1,0
1523611159066,0,92,-56,-1,-1,0
1523611159066,0,92,-56,-1,-1,0
1523611159106,-131072,92,-56,-1,-1,0
1523611159106,-327680,92,-56,-1,-1,0
1523611159106,-327680,92,-56,-1,-1,0
1523611159106,-327680,92,-56,-1,-1,0
1523611159106,-393216,92,-56,-1,-1,0
1523611159146,-458752,92,-56,-1,-1,0
1523611159146,-458752,92,-56,-1,-1,0
1523611159146,-524288,92,-56,-1,-1,0
1523611159146,-589824,92,-56,-1,-1,0
1523611159146,-655360,92,-56,-1,-1,0
1523611159186,-589824,92,-56,-1,-1,0
1523611159186,-458752,92,-56,-1,-1,0
1523611159186,-458752,92,-56,-1,-1,0
1523611159186,-393216,92,-56,-1,-1,0
1523611159186,-327680,92,-56,-1,-1,0
1523611159226,-524288,92,-56,-1,-1,0
1523611159226,-720896,92,-56,-1,-1,0
1523611159226,-786432,92,-56,-1,-1,0
1523611159226,-720896,92,-56,-1,-1,0
1523611159226,-720896,92,-56,-1,-1,0
1523611159266,-786432,92,-56,-1,-1,0
1523611159266,-917504,92,-56,-1,-1,0
1523611159266,-851968,92,-56,-1,-1,0
1523611159266,-786432,92,-56,-1,-1,0
1523611159266,-786432,92,-56,-1,-1,0
1523611159306,-786432,92,-56,-1,-1,0
1523611159306,-262144,92,-56,-1,-1,0
1523611159306,1572864,92,-56,-1,-1,0
1523611159306,5439488,92,-56,-1,-1,0
1523611159306,9306112,92,-56,-1,-1,0
1523611159346,8060928,92,-56,-1,-1,0
1523611159346,2490368,92,-56,-1,-1,0
1523611159346,-1441792,92,-56,-1,-1,0
1523611159346,-1638400,92,-56,-1,-1,0
1523611159346,-983040,92,-56,-1,-1,0
1523611159386,-786432,92,-56,-1,-1,0
1523611159386,-786432,92,-56,-1,-1,0
1523611159386,-786432,92,-56,-1,-1,0
1523611159386,-786432,92,-56,-1,-1,0
1523611159386,-720896,92,-56,-1,-1,0
1523611159426,-655360,92,-56,-1,-1,0
1523611159426,-524288,92,-56,-1,-1,0
1523611159426,-327680,92,-56,-1,-1,0
1523611159426,-262144,92,-56,-1,-1,0
1523611159426,-65536,92,-56,-1,-1,0
1523611159467,0,92,-56,-1,-1,0
1523611159467,196608,92,-56,-1,-1,0
1523611159467,393216,92,-56,-1,-1,0
1523611159467,655360,92,-56,-1,-1,0
1523611159467,917504,92,-56,-1,-1,0
1523611159506,1310720,92,-56,-1,-1,0
1523611159506,1638400,92,-56,-1,-1,0
1523611159506,1835008,92,-56,-1,-1,0
1523611159506,1835008,92,-56,-1,-1,0
1523611159506,1703936,92,-56,-1,-1,0
1523611159546,1572864,92,-56,-1,-1,0
1523611159546,1376256,92,-56,-1,-1,0
1523611159546,1048576,92,-56,-1,-1,0
1523611159546,589824,92,-56,-1,-1,0
1523611159546,196608,92,-56,-1,-1,0
1523611159586,-131072,92,-56,-1,-1,0
1523611159586,-393216,92,-56,-1,-1,0
1523611159586,-589824,92,-56,-1,-1,0
1523611159586,-655360,92,-56,-1,-1,0
1523611159586,-655360,92,-56,-1,-1,0
1523611159626,-851968,92,-56,-1,-1,0
1523611159626,-983040,92,-56,-1,-1,0
1523611159626,-917504,92,-56,-1,-1,0
1523611159626,-851968,92,-56,-1,-1,0
1523611159626,-917504,92,-56,-1,-1,0
1523611159666,-917504,92,-56,-1,-1,0
1523611159666,-851968,92,-56,-1,-1,0
1523611159666,-786432,92,-56,-1,-1,0
1523611159666,-786432,92,-56,-1,-1,0
1523611159666,-786432,92,-56,-1,-1,0
1523611159706,-720896,92,-56,-1,-1,0
1523611159706,-720896,92,-56,-1,-1,0
1523611159706,-851968,92,-56,-1,-1,0
1523611159706,-917504,92,-56,-1,-1,0
1523611159706,-917504,92,-56,-1,-1,0
1523611159746,-917504,92,-56,-1,-1,0
1523611159746,-983040,92,-56,-1,-1,0
1523611159746,-1048576,92,-56,-1,-1,0
1523611159746,-1245184,92,-56,-1,-1,0
1523611159746,-1310720,92,-56,-1,-1,0
1523611159786,-1179648,92,-56,-1,-1,0
1523611159786,-1048576,92,-56,-1,-1,0
1523611159786,-917504,92,-56,-1,-1,0
1523611159786,-851968,92,-56,-1,-1,0
1523611159786,-917504,92,-56,-1,-1,0
1523611159826,-1048576,93,-56,-1,-1,0
1523611159826,-1179648,93,-56,-1,-1,0
1523611159826,-1310720,93,-56,-1,-1,0
1523611159826,-1310720,93,-56,-1,-1,0
1523611159826,-1310720,93,-56,-1,-1,0
1523611159866,-1310720,93,-56,-1,-1,0
1523611159866,-1310720,93,-56,-1,-1,0
1523611159866,-1376256,93,-56,-1,-1,0
1523611159866,-1376256,93,-56,-1,-1,0
1523611159866,-1441792,93,-56,-1,-1,0
1523611159906,-1376256,93,-56,-1,-1,0
1523611159906,-851968,93,-56,-1,-1,0
1523611159906,720896,93,-56,-1,-1,0
1523611159906,4456448,93,-56,-1,-1,0
1523611159906,8781824,93,-56,-1,-1,0
1523611159947,8716288,93,-56,-1,-1,0
1523611159947,3473408,93,-56,-1,-1,0
1523611159947,-1310720,93,-56,-1,-1,0
1523611159947,-2162688,93,-56,-1,-1,0
1523611159947,-1441792,93,-56,-1,-1,0
1523611159986,-1048576,93,-56,-1,-1,0
1523611159986,-1048576,93,-56,-1,-1,0
1523611159986,-1114112,93,-56,-1,-1,0
1523611159986,-1048576,93,-56,-1,-1,0
1523611159986,-983040,93,-56,-1,-1,0
1523611160026,-917504,93,-56,-1,-1,0
1523611160026,-851968,93,-56,-1,-1,0
1523611160026,-786432,93,-56,-1,-1,0
1523611160026,-524288,93,-56,-1,-1,0
1523611160026,-393216,93,-56,-1,-1,0
1523611160066,-196608,93,-56,-1,-1,0
1523611160066,-65536,93,-56,-1,-1,0
1523611160066,196608,93,-56,-1,-1,0
1523611160066,524288,93,-56,-1,-1,0
1523611160066,983040,93,-56,-1,-1,0
1523611160107,1310720,93,-56,-1,-1,0
1523611160107,1507328,93,-56,-1,-1,0
1523611160107,1572864,93,-56,-1,-1,0
1523611160107,1703936,93,-56,-1,-1,0
1523611160107,1769472,93,-56,-1,-1,0
1523611160146,1638400,93,-56,-1,-1,0
1523611160146,1441792,93,-56,-1,-1,0
1523611160146,1048576,93,-56,-1,-1,0
1523611160146,524288,93,-56,-1,-1,0
1523611160146,0,93,-56,-1,-1,0
1523611160186,-458752,93,-56,-1,-1,0
1523611160186,-786432,93,-56,-1,-1,0
1523611160186,-917504,93,-56,-1,-1,0
1523611160186,-1048576,93,-56,-1,-1,0
1523611160186,-1114112,93,-56,-1,-1,0
1523611160226,-1114112,93,-56,-1,-1,0
1523611160226,-1179648,93,-56,-1,-1,0
1523611160226,-1114112,93,-56,-1,-1,0
1523611160226,-1114112,93,-56,-1,-1,0
1523611160226,-1048576,93,-56,-1,-1,0
1523611160266,-1048576,93,-56,-1,-1,0
1523611160266,-1048576,93,-56,-1,-1,0
1523611160266,-983040,93,-56,-1,-1,0
1523611160266,-983040,93,-56,-1,-1,0
1523611160266,-1048576,93,-56,-1,-1,0
1523611160306,-1048576,93,-56,-1,-1,0
1523611160306,-983040,93,-56,-1,-1,0
1523611160306,-917504,93,-56,-1,-1,0
1523611160306,-917504,93,-56,-1,-1,0
1523611160306,-983040,93,-56,-1,-1,0
1523611160346,-1048576,93,-56,-1,-1,0
1523611160346,-1048576,93,-56,-1,-1,0
1523611160346,-1048576,93,-56,-1,-1,0
1523611160346,-1179648,93,-56,-1,-1,0
1523611160346,-1245184,93,-56,-1,-1,0
1523611160386,-1245184,93,-56,-1,-1,0
1523611160386,-1114112,93,-56,-1,-1,0
1523611160386,-917504,93,-56,-1,-1,0
1523611160386,-786432,93,-56,-1,-1,0
1523611160386,-655360,93,-56,-1,-1,0
1523611160426,-655360,93,-56,-1,-1,0
1523611160426,-720896,93,-56,-1,-1,0
1523611160426,-786432,93,-56,-1,-1,0
1523611160426,-851968,93,-56,-1,-1,0
1523611160426,-851968,93,-56,-1,-1,0
1523611160466,-851968,93,-56,-1,-1,0
1523611160466,-851968,93,-56,-1,-1,0
1523611160466,-917504,93,-56,-1,-1,0
1523611160466,-917504,93,-56,-1,-1,0
1523611160466,-851968,93,-56,-1,-1,0
1523611160506,-851968,93,-56,-1,-1,0
1523611160506,-851968,93,-56,-1,-1,0
1523611160506,-327680,93,-56,-1,-1,0
1523611160506,1835008,93,-56,-1,-1,0
1523611160506,6225920,93,-56,-1,-1,0
1523611160546,10092544,93,-56,-1,-1,0
1523611160546,8257536,93,-56,-1,-1,0
1523611160546,2293760,93,-56,-1,-1,0
1523611160546,-1376256,93,-56,-1,-1,0
1523611160546,-1376256,93,-56,-1,-1,0
1523611160586,-786432,93,-56,-1,-1,0
1523611160586,-655360,93,-56,-1,-1,0
1523611160586,-655360,93,-56,-1,-1,0
1523611160586,-655360,93,-56,-1,-1,0
1523611160586,-589824,93,-56,-1,-1,0
1523611160626,-589824,93,-56,-1,-1,0
1523611160626,-524288,93,-56,-1,-1,0
1523611160626,-458752,93,-56,-1,-1,0
1523611160626,-327680,93,-56,-1,-1,0
1523611160626,-262144,93,-56,-1,-1,0
1523611160666,-131072,93,-56,-1,-1,0
1523611160666,65536,93,-56,-1,-1,0
1523611160666,262144,93,-56,-1,-1,0
1523611160666,524288,93,-56,-1,-1,0
1523611160666,786432,93,-56,-1,-1,0
1523611160706,1179648,93,-56,-1,-1,0
1523611160706,1441792,93,-56,-1,-1,0
1523611160706,1638400,93,-56,-1,-1,0
1523611160706,1835008,93,-56,-1,-1,0
1523611160706,1966080,93,-56,-1,-1,0
1523611160747,1900544,93,-56,-1,-1,0
1523611160747,1769472,93,-56,-1,-1,0
1523611160747,1441792,93,-56,-1,-1,0
1523611160747,983040,93,-56,-1,-1,0
1523611160747,393216,93,-56,-1,-1,0
1523611160786,0,93,-56,-1,-1,0
1523611160786,-327680,93,-56,-1,-1,0
1523611160786,-458752,93,-56,-1,-1,0
1523611160786,-655360,93,-56,-1,-1,0
1523611160786,-851968,93,-56,-1,-1,0
1523611160826,-917504,93,-56,-1,-1,0
1523611160826,-1048576,93,-56,-1,-1,0
1523611160826,-1048576,93,-56,-1,-1,0
1523611160826,-983040,93,-56,-1,-1,0
1523611160826,-983040,93,-56,-1,-1,0
1523611160866,-983040,93,-56,-1,-1,0
1523611160866,-917504,93,-56,-1,-1,0
1523611160866,-917504,93,-56,-1,-1,0
1523611160866,-983040,93,-56,-1,-1,0
1523611160866,-983040,93,-56,-1,-1,0
1523611160906,-917504,93,-56,-1,-1,0
1523611160906,-851968,93,-56,-1,-1,0
1523611160906,-851968,93,-56,-1,-1,0
1523611160906,-851968,93,-56,-1,-1,0
1523611160906,-917504,93,-56,-1,-1,0
1523611160946,-983040,93,-56,-1,-1,0
1523611160946,-983040,93,-56,-1,-1,0
1523611160946,-1048576,93,-56,-1,-1,0
1523611160946,-1048576,93,-56,-1,-1,0
1523611160946,-1048576,93,-56,-1,-1,0
1523611160986,-1114112,93,-56,-1,-1,0
1523611160986,-1114112,93,-56,-1,-1,0
1523611160986,-1179648,93,-56,-1,-1,0
1523611160986,-1114112,93,-56,-1,-1,0
1523611160986,-1048576,93,-56,-1,-1,0
1523611161027,-851968,93,-56,-1,-1,0
1523611161027,-589824,93,-56,-1,-1,0
1523611161027,-458752,93,-56,-1,-1,0
1523611161027,-524288,93,-56,-1,-1,0
1523611161027,-655360,93,-56,-1,-1,0
1523611161066,-786432,93,-56,-1,-1,0
1523611161066,-851968,93,-56,-1,-1,0
1523611161066,-851968,93,-56,-1,-1,0
1523611161066,-851968,93,-56,-1,-1,0
1523611161066,-786432,93,-56,-1,-1,0
1523611161106,-720896,93,-56,-1,-1,0
1523611161106,-720896,93,-56,-1,-1,0
1523611161106,-786432,93,-56,-1,-1,0
1523611161106,-851968,93,-56,-1,-1,0
1523611161106,-524288,93,-56,-1,-1,0
1523611161146,655360,93,-56,-1,-1,0
1523611161146,3866624,93,-56,-1,-1,0
1523611161146,8650752,93,-56,-1,-1,0
1523611161146,10420224,93,-56,-1,-1,0
1523611161146,6160384,93,-56,-1,-1,0
1523611161186,393216,93,-56,-1,-1,0
1523611161186,-1572864,93,-56,-1,-1,0
1523611161186,-1048576,93,-56,-1,-1,0
1523611161186,-786432,93,-56,-1,-1,0
1523611161186,-851968,93,-56,-1,-1,0
1523611161226,-720896,93,-56,-1,-1,0
1523611161226,-720896,93,-56,-1,-1,0
1523611161226,-655360,93,-56,-1,-1,0
1523611161226,-655360,93,-56,-1,-1,0
1523611161226,-589824,93,-56,-1,-1,0
1523611161266,-458752,93,-56,-1,-1,0
1523611161266,-262144,93,-56,-1,-1,0
1523611161266,-131072,93,-56,-1,-1,0
1523611161266,0,93,-56,-1,-1,0
1523611161266,0,93,-56,-1,-1,0
1523611161306,196608,93,-56,-1,-1,0
1523611161306,393216,93,-56,-1,-1,0
1523611161306,786432,93,-56,-1,-1,0
1523611161306,1114112,93,-56,-1,-1,0
1523611161306,1376256,93,-56,-1,-1,0
1523611161346,1638400,93,-56,-1,-1,0
1523611161346,1769472,93,-56,-1,-1,0
1523611161346,1835008,93,-56,-1,-1,0
1523611161346,1835008,93,-56,-1,-1,0
1523611161346,1638400,93,-56,-1,-1,0
1523611161387,1310720,93,-56,-1,-1,0
1523611161387,851968,93,-56,-1,-1,0
1523611161387,327680,93,-56,-1,-1,0
1523611161387,-131072,93,-56,-1,-1,0
1523611161387,-458752,93,-56,-1,-1,0
1523611161425,-655360,93,-56,-1,-1,0
1523611161425,-720896,93,-56,-1,-1,0
1523611161425,-720896,93,-56,-1,-1,0
1523611161425,-786432,93,-56,-1,-1,0
1523611161425,-851968,93,-56,-1,-1,0
1523611161465,-851968,93,-56,-1,-1,0
1523611161465,-851968,93,-56,-1,-1,0
1523611161465,-851968,93,-56,-1,-1,0
1523611161465,-786432,93,-56,-1,-1,0
1523611161465,-786432,93,-56,-1,-1,0
1523611161505,-720896,93,-56,-1,-1,0
1523611161505,-655360,93,-56,-1,-1,0
1523611161505,-720896,93,-56,-1,-1,0
1523611161505,-786432,93,-56,-1,-1,0
1523611161505,-851968,93,-56,-1,-1,0
1523611161545,-786432,93,-56,-1,-1,0
1523611161545,-786432,93,-56,-1,-1,0
1523611161545,-720896,93,-56,-1,-1,0
1523611161545,-786432,93,-56,-1,-1,0
1523611161545,-851968,93,-56,-1,-1,0
1523611161585,-851968,93,-56,-1,-1,0
1523611161585,-917504,93,-56,-1,-1,0
1523611161585,-917504,93,-56,-1,-1,0
1523611161585,-917504,93,-56,-1,-1,0
1523611161585,-917504,93,-56,-1,-1,0
1523611161625,-983040,93,-56,-1,-1,0
1523611161625,-1048576,93,-56,-1,-1,0
1523611161625,-1179648,93,-56,-1,-1,0
1523611161625,-1179648,93,-56,-1,-1,0
1523611161625,-1114112,93,-56,-1,-1,0
1523611161665,-1048576,93,-56,-1,-1,0
1523611161665,-917504,93,-56,-1,-1,0
1523611161665,-720896,93,-56,-1,-1,0
1523611161665,-589824,93,-56,-1,-1,0
1523611161665,-655360,93,-56,-1,-1,0
1523611161705,-786432,93,-56,-1,-1,0
1523611161705,-983040,93,-56,-1,-1,0
1523611161705,-1048576,93,-56,-1,-1,0
1523611161705,-983040,93,-56,-1,-1,0
1523611161705,-917504,93,-56,-1,-1,0
1523611161745,-983040,93,-56,-1,-1,0
1523611161745,-983040,93,-56,-1,-1,0
1523611161745,-1048576,93,-56,-1,-1,0
1523611161745,-1048576,93,-56,-1,-1,0
1523611161745,-1114112,93,-56,-1,-1,0
1523611161785,-917504,93,-56,-1,-1,0
1523611161785,-65536,93,-56,-1,-1,0
1523611161785,2293760,93,-56,-1,-1,0
1523611161785,6750208,93,-56,-1,-1,0
1523611161785,9961472,93,-56,-1,-1,0
1523611161826,7405568,93,-56,-1,-1,0
1523611161826,1507328,93,-56,-1,-1,0
1523611161826,-1572864,93,-56,-1,-1,0
1523611161826,-1441792,93,-56,-1,-1,0
1523611161826,-983040,93,-56,-1,-1,0
1523611161865,-983040,93,-56,-1,-1,0
1523611161865,-983040,93,-56,-1,-1,0
1523611161865,-983040,93,-56,-1,-1,0
1523611161865,-851968,93,-56,-1,-1,0
1523611161865,-720896,93,-56,-1,-1,0
1523611161905,-524288,93,-56,-1,-1,0
1523611161905,-458752,93,-56,-1,-1,0
1523611161905,-327680,93,-56,-1,-1,0
1523611161905,-262144,93,-56,-1,-1,0
1523611161905,-131072,93,-56,-1,-1,0
1523611161945,0,93,-56,-1,-1,0
1523611161945,196608,93,-56,-1,-1,0
1523611161945,393216,93,-56,-1,-1,0
1523611161945,655360,93,-56,-1,-1,0
1523611161945,983040,93,-56,-1,-1,0
1523611161985,1245184,93,-56,-1,-1,0
1523611161985,1572864,93,-56,-1,-1,0
1523611161985,1769472,93,-56,-1,-1,0
1523611161985,1835008,93,-56,-1,-1,0
1523611161985,1769472,93,-56,-1,-1,0
1523611162027,1703936,93,-56,-1,-1,0
1523611162027,1507328,93,-56,-1,-1,0
1523611162027,1114112,93,-56,-1,-1,0
1523611162027,589824,93,-56,-1,-1,0
1523611162027,196608,93,-56,-1,-1,0
1523611162065,-65536,93,-56,-1,-1,0
1523611162065,-262144,93,-56,-1,-1,0
1523611162065,-458752,93,-56,-1,-1,0
1523611162065,-524288,93,-56,-1,-1,0
1523611162065,-589824,93,-56,-1,-1,0
1523611162105,-655360,93,-56,-1,-1,0
1523611162105,-589824,93,-56,-1,-1,0
1523611162105,-589824,93,-56,-1,-1,0
1523611162105,-524288,93,-56,-1,-1,0
1523611162105,-524288,93,-56,-1,-1,0
1523611162145,-524288,93,-56,-1,-1,0
1523611162145,-524288,93,-56,-1,-1,0
1523611162145,-524288,93,-56,-1,-1,0
1523611162145,-524288,93,-56,-1,-1,0
1523611162145,-458752,93,-56,-1,-1,0
1523611162185,-458752,93,-56,-1,-1,0
1523611162185,-393216,93,-56,-1,-1,0
1523611162185,-327680,93,-56,-1,-1,0
1523611162185,-393216,93,-56,-1,-1,0
1523611162185,-458752,93,-56,-1,-1,0
1523611162226,-524288,93,-56,-1,-1,0
1523611162226,-589824,93,-56,-1,-1,0
1523611162226,-524288,93,-56,-1,-1,0
1523611162226,-589824,93,-56,-1,-1,0
1523611162226,-655360,93,-56,-1,-1,0
1523611162265,-589824,93,-56,-1,-1,0
1523611162265,-655360,93,-56,-1,-1,0
1523611162265,-720896,93,-56,-1,-1,0
1523611162265,-720896,93,-56,-1,-1,0
1523611162265,-720896,93,-56,-1,-1,0
1523611162305,-720896,93,-56,-1,-1,0
1523611162305,-720896,93,-56,-1,-1,0
1523611162305,-720896,93,-56,-1,-1,0
1523611162305,-786432,93,-56,-1,-1,0
1523611162305,-851968,93,-56,-1,-1,0
1523611162345,-917504,93,-56,-1,-1,0
1523611162345,-917504,93,-56,-1,-1,0
1523611162345,-786432,93,-56,-1,-1,0
1523611162345,-720896,93,-56,-1,-1,0
1523611162345,-589824,93,-56,-1,-1,0
1523611162385,-393216,93,-56,-1,-1,0
1523611162385,-327680,93,-56,-1,-1,0
1523611162385,-458752,93,-56,-1,-1,0
1523611162385,-589824,93,-56,-1,-1,0
1523611162385,-720896,93,-56,-1,-1,0
1523611162425,-786432,93,-56,-1,-1,0
1523611162425,-786432,93,-56,-1,-1,0
1523611162425,-786432,93,-56,-1,-1,0
1523611162425,-720896,93,-56,-1,-1,0
1523611162425,-720896,93,-56,-1,-1,0
1523611162466,-655360,93,-56,-1,-1,0
1523611162466,-655360,93,-56,-1,-1,0
1523611162466,-655360,93,-56,-1,-1,0
1523611162466,-327680,93,-56,-1,-1,0
1523611162466,917504,93,-56,-1,-1,0
1523611162505,4194304,93,-56,-1,-1,0
1523611162505,8978432,93,-56,-1,-1,0
1523611162505,10158080,93,-56,-1,-1,0
1523611162505,5439488,93,-56,-1,-1,0
1523611162505,0,93,-56,-1,-1,0
1523611162546,-1441792,93,-56,-1,-1,0
1523611162546,-851968,93,-56,-1,-1,0
1523611162546,-524288,93,-56,-1,-1,0
1523611162546,-458752,93,-56,-1,-1,0
1523611162546,-458752,93,-56,-1,-1,0
1523611162585,-393216,93,-56,-1,-1,0
1523611162585,-262144,93,-56,-1,-1,0
1523611162585,-196608,93,-56,-1,-1,0
1523611162585,-131072,93,-56,-1,-1,0
1523611162585,-65536,93,-56,-1,-1,0
1523611162626,0,93,-56,-1,-1,0
1523611162626,65536,93,-56,-1,-1,0
1523611162626,262144,93,-56,-1,-1,0
1523611162626,393216,93,-56,-1,-1,0
1523611162626,589824,93,-56,-1,-1,0
1523611162667,851968,93,-56,-1,-1,0
1523611162667,1179648,93,-56,-1,-1,0
1523611162667,1507328,93,-56,-1,-1,0
1523611162667,1900544,93,-56,-1,-1,0
1523611162667,2097152,93,-56,-1,-1,0
1523611162706,2228224,93,-56,-1,-1,0
1523611162706,2293760,93,-56,-1,-1,0
1523611162706,2162688,93,-56,-1,-1,0
1523611162706,1966080,93,-56,-1,-1,0
1523611162706,1703936,93,-56,-1,-1,0
1523611162745,1310720,93,-56,-1,-1,0
1523611162745,786432,93,-56,-1,-1,0
1523611162745,327680,93,-56,-1,-1,0
1523611162745,65536,93,-56,-1,-1,0
1523611162745,-131072,93,-56,-1,-1,0
1523611162786,-262144,93,-56,-1,-1,0
1523611162786,-393216,93,-56,-1,-1,0
1523611162786,-458752,93,-56,-1,-1,0
1523611162786,-589824,93,-56,-1,-1,0
1523611162786,-589824,93,-56,-1,-1,0
1523611162825,-589824,93,-56,-1,-1,0
1523611162825,-589824,93,-56,-1,-1,0
1523611162825,-589824,93,-56,-1,-1,0
1523611162825,-524288,93,-56,-1,-1,0
1523611162825,-458752,93,-56,-1,-1,0
1523611162865,-458752,93,-56,-1,-1,0
1523611162865,-458752,93,-56,-1,-1,0
1523611162865,-458752,93,-56,-1,-1,0
1523611162865,-458752,93,-56,-1,-1,0
1523611162865,-458752,93,-56,-1,-1,0
1523611162905,-458752,93,-56,-1,-1,0
1523611162905,-589824,93,-56,-1,-1,0
1523611162905,-589824,93,-56,-1,-1,0
1523611162905,-655360,93,-56,-1,-1,0
1523611162905,-786432,93,-56,-1,-1,0
1523611162945,-851968,93,-56,-1,-1,0
1523611162945,-917504,93,-56,-1,-1,0
1523611162945,-851968,93,-56,-1,-1,0
1523611162945,-786432,93,-56,-1,-1,0
1523611162945,-720896,93,-56,-1,-1,0
1523611162985,-786432,93,-56,-1,-1,0
1523611162985,-917504,93,-56,-1,-1,0
1523611162985,-983040,93,-56,-1,-1,0
1523611162985,-983040,93,-56,-1,-1,0
1523611162985,-983040,93,-56,-1,-1,0
1523611163026,-917504,93,-56,-1,-1,0
1523611163026,-983040,93,-56,-1,-1,0
1523611163026,-983040,93,-56,-1,-1,0
1523611163026,-983040,93,-56,-1,-1,0
1523611163026,-983040,93,-56,-1,-1,0
1523611163065,-1114112,93,-56,-1,-1,0
1523611163065,-1245184,93,-56,-1,-1,0
1523611163065,-1179648,93,-56,-1,-1,0
1523611163065,-1048576,93,-56,-1,-1,0
1523611163065,-851968,93,-56,-1,-1,0
1523611163106,-655360,93,-56,-1,-1,0
1523611163106,-524288,93,-56,-1,-1,0
1523611163106,-524288,93,-56,-1,-1,0
1523611163106,-655360,93,-56,-1,-1,0
1523611163106,-786432,93,-56,-1,-1,0
1523611163145,-851968,93,-56,-1,-1,0
1523611163145,-851968,93,-56,-1,-1,0
1523611163145,-786432,93,-56,-1,-1,0
1523611163145,-720896,93,-56,-1,-1,0
1523611163145,-720896,93,-56,-1,-1,0
1523611163186,-720896,93,-56,-1,-1,0
1523611163186,-786432,93,-56,-1,-1,0
1523611163186,-786432,93,-56,-1,-1,0
1523611163186,-720896,93,-56,-1,-1,0
1523611163186,-262144,93,-56,-1,-1,0
1523611163225,1376256,93,-56,-1,-1,0
1523611163225,5046272,93,-56,-1,-1,0
1523611163225,9699328,93,-56,-1,-1,0
1523611163225,10027008,93,-56,-1,-1,0
1523611163225,4784128,93,-56,-1,-1,0
1523611163266,-196608,92,-56,-1,-1,0
1523611163266,-1114112,92,-56,-1,-1,0
1523611163266,-524288,92,-56,-1,-1,0
1523611163266,-262144,92,-56,-1,-1,0
1523611163266,-196608,92,-56,-1,-1,0
1523611163307,-196608,92,-56,-1,-1,0
1523611163307,-196608,92,-56,-1,-1,0
1523611163307,-196608,92,-56,-1,-1,0
1523611163307,-65536,92,-56,-1,-1,0
1523611163307,0,92,-56,-1,-1,0
1523611163346,0,92,-56,-1,-1,0
1523611163346,131072,92,-56,-1,-1,0
1523611163346,262144,92,-56,-1,-1,0
1523611163346,393216,92,-56,-1,-1,0
1523611163346,589824,92,-56,-1,-1,0
1523611163385,917504,92,-56,-1,-1,0
1523611163385,1179648,92,-56,-1,-1,0
1523611163385,1310720,92,-56,-1,-1,0
1523611163385,1441792,92,-56,-1,-1,0
1523611163385,1703936,92,-56,-1,-1,0
1523611163426,1900544,92,-56,-1,-1,0
1523611163426,2031616,92,-56,-1,-1,0
1523611163426,2097152,92,-56,-1,-1,0
1523611163426,2031616,92,-56,-1,-1,0
1523611163426,1769472,92,-56,-1,-1,0
1523611163465,1376256,92,-56,-1,-1,0
1523611163465,983040,92,-56,-1,-1,0
1523611163465,655360,92,-56,-1,-1,0
1523611163465,393216,92,-56,-1,-1,0
1523611163465,0,92,-56,-1,-1,0
1523611163506,-196608,92,-56,-1,-1,0
1523611163506,-262144,92,-56,-1,-1,0
1523611163506,-262144,92,-56,-1,-1,0
1523611163506,-393216,92,-56,-1,-1,0
1523611163506,-458752,92,-56,-1,-1,0
1523611163545,-458752,92,-56,-1,-1,0
1523611163545,-458752,92,-56,-1,-1,0
1523611163545,-458752,92,-56,-1,-1,0
1523611163545,-524288,92,-56,-1,-1,0
1523611163545,-458752,92,-56,-1,-1,0
1523611163586,-393216,92,-56,-1,-1,0
1523611163586,-327680,92,-56,-1,-1,0
1523611163586,-327680,92,-56,-1,-1,0
1523611163586,-393216,92,-56,-1,-1,0
1523611163586,-458752,92,-56,-1,-1,0
1523611163625,-458752,92,-56,-1,-1,0
1523611163625,-393216,92,-56,-1,-1,0
1523611163625,-393216,92,-56,-1,-1,0
1523611163625,-393216,92,-56,-1,-1,0
1523611163625,-393216,92,-56,-1,-1,0
1523611163666,-458752,92,-56,-1,-1,0
1523611163666,-458752,92,-56,-1,-1,0
1523611163666,-458752,92,-56,-1,-1,0
1523611163666,-458752,92,-56,-1,-1,0
1523611163666,-524288,92,-56,-1,-1,0
1523611163705,-589824,92,-56,-1,-1,0
1523611163705,-786432,92,-56,-1,-1,0
1523611163705,-786432,92,-56,-1,-1,0
1523611163705,-720896,92,-56,-1,-1,0
1523611163705,-720896,92,-56,-1,-1,0
1523611163746,-720896,92,-56,-1,-1,0
1523611163746,-786432,92,-56,-1,-1,0
1523611163746,-786432,92,-56,-1,-1,0
1523611163746,-917504,92,-56,-1,-1,0
1523611163746,-983040,92,-56,-1,-1,0
1523611163785,-851968,92,-56,-1,-1,0
1523611163785,-851968,92,-56,-1,-1,0
1523611163785,-983040,92,-56,-1,-1,0
1523611163785,-1114112,92,-56,-1,-1,0
1523611163785,-1114112,92,-56,-1,-1,0
1523611163826,-1114112,92,-56,-1,-1,0
1523611163826,-1179648,92,-56,-1,-1,0
1523611163826,-1179648,92,-56,-1,-1,0
1523611163826,-1048576,92,-56,-1,-1,0
1523611163826,-917504,92,-56,-1,-1,0
1523611163865,-720896,92,-56,-1,-1,0
1523611163865,-720896,92,-56,-1,-1,0
1523611163865,-851968,92,-56,-1,-1,0
1523611163865,-1048576,92,-56,-1,-1,0
1523611163865,-1048576,92,-56,-1,-1,0
1523611163906,-1048576,92,-56,-1,-1,0
1523611163906,-983040,92,-56,-1,-1,0
1523611163906,-983040,92,-56,-1,-1,0
1523611163906,-1048576,92,-56,-1,-1,0
1523611163906,-1048576,92,-56,-1,-1,0
1523611163947,-983040,92,-56,-1,-1,0
1523611163947,-1048576,92,-56,-1,-1,0
1523611163947,-1048576,92,-56,-1,-1,0
1523611163947,-655360,92,-56,-1,-1,0
1523611163947,917504,92,-56,-1,-1,0
1523611163986,4521984,92,-56,-1,-1,0
1523611163986,9043968,92,-56,-1,-1,0
1523611163986,9306112,92,-56,-1,-1,0
1523611163986,4325376,92,-56,-1,-1,0
1523611163986,-458752,92,-56,-1,-1,0
1523611164025,-1507328,92,-56,-1,-1,0
1523611164025,-1114112,92,-56,-1,-1,0
1523611164025,-983040,92,-56,-1,-1,0
1523611164025,-1048576,92,-56,-1,-1,0
1523611164025,-983040,92,-56,-1,-1,0
1523611164066,-917504,92,-56,-1,-1,0
1523611164066,-917504,92,-56,-1,-1,0
1523611164066,-917504,92,-56,-1,-1,0
1523611164066,-851968,92,-56,-1,-1,0
1523611164066,-720896,92,-56,-1,-1,0
1523611164105,-524288,92,-56,-1,-1,0
1523611164105,-393216,92,-56,-1,-1,0
1523611164105,-262144,92,-56,-1,-1,0
1523611164105,-65536,92,-56,-1,-1,0
1523611164105,0,92,-56,-1,-1,0
1523611164146,196608,92,-56,-1,-1,0
1523611164146,458752,92,-56,-1,-1,0
1523611164146,720896,92,-56,-1,-1,0
1523611164146,1048576,92,-56,-1,-1,0
1523611164146,1245184,92,-56,-1,-1,0
1523611164185,1310720,92,-56,-1,-1,0
1523611164185,1376256,92,-56,-1,-1,0
1523611164185,1441792,92,-56,-1,-1,0
1523611164185,1310720,92,-56,-1,-1,0
1523611164185,1114112,92,-56,-1,-1,0
1523611164226,655360,92,-56,-1,-1,0
1523611164226,196608,92,-56,-1,-1,0
1523611164226,-262144,92,-56,-1,-1,0
1523611164226,-458752,92,-56,-1,-1,0
1523611164226,-524288,92,-56,-1,-1,0
1523611164265,-655360,92,-56,-1,-1,0
1523611164265,-786432,92,-56,-1,-1,0
1523611164265,-851968,92,-56,-1,-1,0
1523611164265,-786432,92,-56,-1,-1,0
1523611164265,-786432,92,-56,-1,-1,0
1523611164306,-720896,92,-56,-1,-1,0
1523611164306,-720896,92,-56,-1,-1,0
1523611164306,-720896,92,-56,-1,-1,0
1523611164306,-786432,92,-56,-1,-1,0
1523611164306,-720896,92,-56,-1,-1,0
1523611164345,-589824,92,-56,-1,-1,0
1523611164345,-589824,92,-56,-1,-1,0
1523611164345,-589824,92,-56,-1,-1,0
1523611164345,-524288,92,-56,-1,-1,0
1523611164345,-458752,92,-56,-1,-1,0
1523611164386,-524288,92,-56,-1,-1,0
1523611164386,-589824,92,-56,-1,-1,0
1523611164386,-720896,92,-56,-1,-1,0
1523611164386,-655360,92,-56,-1,-1,0
1523611164386,-655360,92,-56,-1,-1,0
1523611164425,-589824,92,-56,-1,-1,0
1523611164425,-589824,92,-56,-1,-1,0
1523611164425,-655360,92,-56,-1,-1,0
1523611164425,-720896,92,-56,-1,-1,0
1523611164425,-786432,92,-56,-1,-1,0
1523611164466,-786432,92,-56,-1,-1,0
1523611164466,-720896,92,-56,-1,-1,0
1523611164466,-720896,92,-56,-1,-1,0
1523611164466,-786432,92,-56,-1,-1,0
1523611164466,-851968,92,-56,-1,-1,0
1523611164505,-851968,92,-56,-1,-1,0
1523611164505,-851968,92,-56,-1,-1,0
1523611164505,-786432,92,-56,-1,-1,0
1523611164505,-786432,92,-56,-1,-1,0
1523611164505,-720896,92,-56,-1,-1,0
1523611164546,-786432,92,-56,-1,-1,0
1523611164546,-851968,92,-56,-1,-1,0
1523611164546,-917504,92,-56,-1,-1,0
1523611164546,-983040,92,-56,-1,-1,0
1523611164546,-1114112,92,-56,-1,-1,0
1523611164587,-1245184,92,-56,-1,-1,0
1523611164587,-1179648,92,-56,-1,-1,0
1523611164587,-1114112,92,-56,-1,-1,0
1523611164587,-983040,92,-56,-1,-1,0
1523611164587,-786432,92,-56,-1,-1,0
1523611164626,-655360,92,-56,-1,-1,0
1523611164626,-655360,92,-56,-1,-1,0
1523611164626,-720896,92,-56,-1,-1,0
1523611164626,-851968,92,-56,-1,-1,0
1523611164626,-917504,92,-56,-1,-1,0
1523611164666,-851968,92,-56,-1,-1,0
1523611164666,-786432,92,-56,-1,-1,0
1523611164666,-851968,92,-56,-1,-1,0
1523611164666,-851968,92,-56,-1,-1,0
1523611164666,-851968,92,-56,-1,-1,0
1523611164706,-851968,92,-56,-1,-1,0
1523611164706,-917504,92,-56,-1,-1,0
1523611164706,-851968,92,-56,-1,-1,0
1523611164706,-65536,92,-56,-1,-1,0
1523611164706,2490368,92,-56,-1,-1,0
1523611164746,7077888,92,-56,-1,-1,0
1523611164746,10485760,92,-56,-1,-1,0
1523611164746,7995392,92,-56,-1,-1,0
1523611164746,2097152,92,-56,-1,-1,0
1523611164746,-1245184,92,-56,-1,-1,0
1523611164786,-1048576,92,-56,-1,-1,0
1523611164786,-524288,92,-56,-1,-1,0
1523611164786,-458752,92,-56,-1,-1,0
1523611164786,-393216,92,-56,-1,-1,0
1523611164786,-393216,92,-56,-1,-1,0
1523611164826,-458752,92,-56,-1,-1,0
1523611164826,-458752,92,-56,-1,-1,0
1523611164826,-327680,92,-56,-1,-1,0
1523611164826,-196608,92,-56,-1,-1,0
1523611164826,-65536,92,-56,-1,-1,0
1523611164866,0,92,-56,-1,-1,0
1523611164866,0,92,-56,-1,-1,0
1523611164866,131072,92,-56,-1,-1,0
1523611164866,327680,92,-56,-1,-1,0
1523611164866,589824,92,-56,-1,-1,0
1523611164906,851968,92,-56,-1,-1,0
1523611164906,1179648,92,-56,-1,-1,0
1523611164906,1441792,92,-56,-1,-1,0
1523611164906,1638400,92,-56,-1,-1,0
1523611164906,1835008,92,-56,-1,-1,0
1523611164946,1900544,92,-56,-1,-1,0
1523611164946,1835008,92,-56,-1,-1,0
1523611164946,1769472,92,-56,-1,-1,0
1523611164946,1441792,92,-56,-1,-1,0
1523611164946,1048576,92,-56,-1,-1,0
1523611164986,589824,92,-56,-1,-1,0
1523611164986,131072,92,-56,-1,-1,0
1523611164986,-131072,92,-56,-1,-1,0
1523611164986,-393216,92,-56,-1,-1,0
1523611164986,-655360,92,-56,-1,-1,0
1523611165026,-851968,92,-56,-1,-1,0
1523611165026,-851968,92,-56,-1,-1,0
1523611165026,-786432,92,-56,-1,-1,0
1523611165026,-786432,92,-56,-1,-1,0
1523611165026,-786432,92,-56,-1,-1,0
1523611165066,-851968,92,-56,-1,-1,0
1523611165066,-851968,92,-56,-1,-1,0
1523611165066,-786432,92,-56,-1,-1,0
1523611165066,-786432,92,-56,-1,-1,0
1523611165066,-786432,92,-56,-1,-1,0
1523611165106,-720896,92,-56,-1,-1,0
1523611165106,-786432,92,-56,-1,-1,0
1523611165106,-786432,92,-56,-1,-1,0
1523611165106,-786432,92,-56,-1,-1,0
1523611165106,-720896,92,-56,-1,-1,0
1523611165145,-655360,92,-56,-1,-1,0
1523611165145,-786432,92,-56,-1,-1,0
1523611165145,-851968,92,-56,-1,-1,0
1523611165145,-851968,92,-56,-1,-1,0
1523611165145,-851968,92,-56,-1,-1,0
1523611165186,-851968,92,-56,-1,-1,0
1523611165186,-851968,92,-56,-1,-1,0
1523611165186,-917504,92,-56,-1,-1,0
1523611165186,-983040,92,-56,-1,-1,0
1523611165186,-917504,92,-56,-1,-1,0
1523611165227,-786432,92,-56,-1,-1,0
1523611165227,-786432,92,-56,-1,-1,0
1523611165227,-851968,92,-56,-1,-1,0
1523611165227,-851968,92,-56,-1,-1,0
1523611165227,-917504,92,-56,-1,-1,0
1523611165266,-851968,92,-56,-1,-1,0
1523611165266,-917504,92,-56,-1,-1,0
1523611165266,-917504,92,-56,-1,-1,0
1523611165266,-917504,92,-56,-1,-1,0
1523611165266,-851968,92,-56,-1,-1,0
1523611165306,-786432,92,-56,-1,-1,0
1523611165306,-786432,92,-56,-1,-1,0
1523611165306,-917504,92,-56,-1,-1,0
1523611165306,-1048576,92,-56,-1,-1,0
1523611165306,-1114112,92,-56,-1,-1,0
1523611165346,-1179648,92,-56,-1,-1,0
1523611165346,-1245184,92,-56,-1,-1,0
1523611165346,-1245184,92,-56,-1,-1,0
1523611165346,-1114112,92,-56,-1,-1,0
1523611165346,-917504,92,-56,-1,-1,0
1523611165386,-655360,92,-56,-1,-1,0
1523611165386,-458752,92,-56,-1,-1,0
1523611165386,-524288,92,-56,-1,-1,0
1523611165386,-720896,92,-56,-1,-1,0
1523611165386,-851968,92,-56,-1,-1,0
1523611165426,-851968,92,-56,-1,-1,0
1523611165426,-786432,92,-56,-1,-1,0
1523611165426,-851968,92,-56,-1,-1,0
1523611165426,-851968,92,-56,-1,-1,0
1523611165426,-917504,92,-56,-1,-1,0
1523611165466,-917504,92,-56,-1,-1,0
1523611165466,-851968,92,-56,-1,-1,0
1523611165466,-851968,92,-56,-1,-1,0
1523611165466,-655360,92,-56,-1,-1,0
1523611165466,131072,92,-56,-1,-1,0
1523611165506,2686976,92,-56,-1,-1,0
1523611165506,7340032,92,-56,-1,-1,0
1523611165506,10551296,92,-56,-1,-1,0
1523611165506,8060928,92,-56,-1,-1,0
1523611165506,2097152,92,-56,-1,-1,0
1523611165546,-1114112,92,-56,-1,-1,0
1523611165546,-983040,92,-56,-1,-1,0
1523611165546,-589824,92,-56,-1,-1,0
1523611165546,-589824,92,-56,-1,-1,0
1523611165546,-589824,92,-56,-1,-1,0
1523611165586,-589824,92,-56,-1,-1,0
1523611165586,-589824,92,-56,-1,-1,0
1523611165586,-524288,92,-56,-1,-1,0
1523611165586,-393216,92,-56,-1,-1,0
1523611165586,-327680,92,-56,-1,-1,0
1523611165626,-196608,92,-56,-1,-1,0
1523611165626,-65536,92,-56,-1,-1,0
1523611165626,0,92,-56,-1,-1,0
1523611165626,196608,92,-56,-1,-1,0
1523611165626,262144,92,-56,-1,-1,0
1523611165666,458752,92,-56,-1,-1,0
1523611165666,720896,92,-56,-1,-1,0
1523611165666,1048576,92,-56,-1,-1,0
1523611165666,1376256,92,-56,-1,-1,0
1523611165666,1703936,92,-56,-1,-1,0
1523611165706,1900544,92,-56,-1,-1,0
1523611165706,2031616,92,-56,-1,-1,0
1523611165706,2031616,92,-56,-1,-1,0
1523611165706,1966080,92,-56,-1,-1,0
1523611165706,1769472,92,-56,-1,-1,0
1523611165746,1441792,92,-56,-1,-1,0
1523611165746,983040,92,-56,-1,-1,0
1523611165746,458752,92,-56,-1,-1,0
1523611165746,65536,92,-56,-1,-1,0
1523611165746,-131072,92,-56,-1,-1,0
1523611165786,-262144,92,-56,-1,-1,0
1523611165786,-393216,92,-56,-1,-1,0
1523611165786,-524288,92,-56,-1,-1,0
1523611165786,-589824,92,-56,-1,-1,0
1523611165786,-589824,92,-56,-1,-1,0
1523611165826,-589824,92,-56,-1,-1,0
1523611165826,-524288,92,-56,-1,-1,0
1523611165826,-524288,92,-56,-1,-1,0
1523611165826,-524288,92,-56,-1,-1,0
1523611165826,-458752,92,-56,-1,-1,0
1523611165867,-393216,92,-56,-1,-1,0
1523611165867,-327680,92,-56,-1,-1,0
1523611165867,-262144,92,-56,-1,-1,0
1523611165867,-262144,92,-56,-1,-1,0
1523611165867,-393216,92,-56,-1,-1,0
1523611165906,-524288,92,-56,-1,-1,0
1523611165906,-589824,92,-56,-1,-1,0
1523611165906,-524288,92,-56,-1,-1,0
1523611165906,-524288,92,-56,-1,-1,0
1523611165906,-524288,92,-56,-1,-1,0
1523611165946,-524288,92,-56,-1,-1,0
1523611165946,-524288,92,-56,-1,-1,0
1523611165946,-589824,92,-56,-1,-1,0
1523611165946,-589824,92,-56,-1,-1,0
1523611165946,-589824,92,-56,-1,-1,0
1523611165986,-589824,92,-56,-1,-1,0
1523611165986,-655360,92,-56,-1,-1,0
1523611165986,-655360,92,-56,-1,-1,0
1523611165986,-655360,92,-56,-1,-1,0
1523611165986,-655360,92,-56,-1,-1,0
1523611166026,-655360,92,-56,-1,-1,0
1523611166026,-655360,92,-56,-1,-1,0
1523611166026,-655360,92,-56,-1,-1,0
1523611166026,-655360,92,-56,-1,-1,0
1523611166026,-655360,92,-56,-1,-1,0
1523611166066,-655360,92,-56,-1,-1,0
1523611166066,-589824,92,-56,-1,-1,0
1523611166066,-589824,92,-56,-1,-1,0
1523611166066,-655360,92,-56,-1,-1,0
1523611166066,-720896,92,-56,-1,-1,0
1523611166106,-851968,92,-56,-1,-1,0
1523611166106,-917504,92,-56,-1,-1,0
1523611166106,-983040,92,-56,-1,-1,0
1523611166106,-1048576,92,-56,-1,-1,0
1523611166106,-1114112,92,-56,-1,-1,0
1523611166146,-983040,92,-56,-1,-1,0
1523611166146,-851968,92,-56,-1,-1,0
1523611166146,-720896,92,-56,-1,-1,0
1523611166146,-524288,92,-56,-1,-1,0
1523611166146,-393216,92,-56,-1,-1,0
1523611166186,-458752,92,-56,-1,-1,0
1523611166186,-655360,92,-56,-1,-1,0
1523611166186,-786432,92,-56,-1,-1,0
1523611166186,-786432,92,-56,-1,-1,0
1523611166186,-851968,92,-56,-1,-1,0
1523611166226,-851968,92,-56,-1,-1,0
1523611166226,-851968,92,-56,-1,-1,0
1523611166226,-917504,92,-56,-1,-1,0
1523611166226,-917504,92,-56,-1,-1,0
1523611166226,-983040,92,-56,-1,-1,0
1523611166266,-983040,92,-56,-1,-1,0
1523611166266,-589824,92,-56,-1,-1,0
1523611166266,786432,92,-56,-1,-1,0
1523611166266,4194304,92,-56,-1,-1,0
1523611166266,8847360,92,-56,-1,-1,0
1523611166306,10027008,92,-56,-1,-1,0
1523611166306,5439488,92,-56,-1,-1,0
1523611166306,131072,92,-56,-1,-1,0
1523611166306,-1310720,92,-56,-1,-1,0
1523611166306,-851968,92,-56,-1,-1,0
1523611166346,-720896,90,-56,-1,-1,0
1523611166346,-720896,90,-56,-1,-1,0
1523611166346,-786432,90,-56,-1,-1,0
1523611166346,-720896,90,-56,-1,-1,0
1523611166346,-655360,90,-56,-1,-1,0
1523611166386,-589824,90,-56,-1,-1,0
1523611166386,-393216,90,-56,-1,-1,0
1523611166386,-262144,90,-56,-1,-1,0
1523611166386,-131072,90,-56,-1,-1,0
1523611166386,0,90,-56,-1,-1,0
1523611166426,65536,90,-56,-1,-1,0
1523611166426,196608,90,-56,-1,-1,0
1523611166426,458752,90,-56,-1,-1,0
1523611166426,655360,90,-56,-1,-1,0
1523611166426,917504,90,-56,-1,-1,0
1523611166466,1245184,90,-56,-1,-1,0
1523611166466,1507328,90,-56,-1,-1,0
1523611166466,1769472,90,-56,-1,-1,0
1523611166466,1900544,90,-56,-1,-1,0
1523611166466,1966080,90,-56,-1,-1,0
1523611166507,1835008,90,-56,-1,-1,0
1523611166507,1572864,90,-56,-1,-1,0
1523611166507,1376256,90,-56,-1,-1,0
1523611166507,1048576,90,-56,-1,-1,0
1523611166507,524288,90,-56,-1,-1,0
1523611166546,65536,90,-56,-1,-1,0
1523611166546,-131072,90,-56,-1,-1,0
1523611166546,-327680,90,-56,-1,-1,0
1523611166546,-524288,90,-56,-1,-1,0
1523611166546,-720896,90,-56,-1,-1,0
1523611166586,-917504,90,-56,-1,-1,0
1523611166586,-983040,90,-56,-1,-1,0
1523611166586,-983040,90,-56,-1,-1,0
1523611166586,-851968,90,-56,-1,-1,0
1523611166586,-786432,90,-56,-1,-1,0
1523611166626,-786432,90,-56,-1,-1,0
1523611166626,-786432,90,-56,-1,-1,0
1523611166626,-720896,90,-56,-1,-1,0
1523611166626,-655360,90,-56,-1,-1,0
1523611166626,-720896,90,-56,-1,-1,0
1523611166666,-720896,90,-56,-1,-1,0
1523611166666,-720896,90,-56,-1,-1,0
1523611166666,-589824,90,-56,-1,-1,0
1523611166666,-524288,90,-56,-1,-1,0
1523611166666,-589824,90,-56,-1,-1,0
1523611166706,-720896,90,-56,-1,-1,0
1523611166706,-720896,90,-56,-1,-1,0
1523611166706,-720896,90,-56,-1,-1,0
1523611166706,-720896,90,-56,-1,-1,0
1523611166706,-720896,90,-56,-1,-1,0
1523611166746,-720896,90,-56,-1,-1,0
1523611166746,-720896,90,-56,-1,-1,0
1523611166746,-720896,90,-56,-1,-1,0
1523611166746,-655360,90,-56,-1,-1,0
1523611166746,-655360,90,-56,-1,-1,0
1523611166786,-655360,90,-56,-1,-1,0
1523611166786,-720896,90,-56,-1,-1,0
1523611166786,-720896,90,-56,-1,-1,0
1523611166786,-720896,90,-56,-1,-1,0
1523611166786,-720896,90,-56,-1,-1,0
1523611166826,-720896,90,-56,-1,-1,0
1523611166826,-720896,90,-56,-1,-1,0
1523611166826,-655360,90,-56,-1,-1,0
1523611166826,-655360,90,-56,-1,-1,0
1523611166826,-655360,90,-56,-1,-1,0
1523611166866,-655360,90,-56,-1,-1,0
1523611166866,-655360,90,-56,-1,-1,0
1523611166866,-589824,90,-56,-1,-1,0
1523611166866,-655360,90,-56,-1,-1,0
1523611166866,-655360,90,-56,-1,-1,0
1523611166906,-720896,90,-56,-1,-1,0
1523611166906,-851968,90,-56,-1,-1,0
1523611166906,-851968,90,-56,-1,-1,0
1523611166906,-786432,90,-56,-1,-1,0
1523611166906,-720896,90,-56,-1,-1,0
1523611166946,-458752,90,-56,-1,-1,0
1523611166946,-262144,90,-56,-1,-1,0
1523611166946,-196608,90,-56,-1,-1,0
1523611166946,-393216,90,-56,-1,-1,0
1523611166946,-458752,90,-56,-1,-1,0
1523611166986,-524288,90,-56,-1,-1,0
1523611166986,-524288,90,-56,-1,-1,0
1523611166986,-524288,90,-56,-1,-1,0
1523611166986,-524288,90,-56,-1,-1,0
1523611166986,-524288,90,-56,-1,-1,0
1523611167026,-524288,90,-56,-1,-1,0
1523611167026,-524288,90,-56,-1,-1,0
1523611167026,-458752,90,-56,-1,-1,0
1523611167026,-458752,90,-56,-1,-1,0
1523611167026,0,90,-56,-1,-1,0
1523611167066,2031616,90,-56,-1,-1,0
1523611167066,6225920,90,-56,-1,-1,0
1523611167066,10354688,90,-56,-1,-1,0
1523611167066,9175040,90,-56,-1,-1,0
1523611167066,3407872,90,-56,-1,-1,0
1523611167106,-786432,88,-56,-1,-1,0
1523611167106,-983040,88,-56,-1,-1,0
1523611167106,-327680,88,-56,-1,-1,0
1523611167106,-196608,88,-56,-1,-1,0
1523611167106,-262144,88,-56,-1,-1,0
1523611167147,-262144,88,-56,-1,-1,0
1523611167147,-131072,88,-56,-1,-1,0
1523611167147,-65536,88,-56,-1,-1,0
1523611167147,0,88,-56,-1,-1,0
1523611167147,65536,88,-56,-1,-1,0
1523611167186,131072,88,-56,-1,-1,0
1523611167186,327680,88,-56,-1,-1,0
1523611167186,524288,88,-56,-1,-1,0
1523611167186,720896,88,-56,-1,-1,0
1523611167186,917504,88,-56,-1,-1,0
1523611167226,1114112,88,-56,-1,-1,0
1523611167226,1376256,88,-56,-1,-1,0
1523611167226,1638400,88,-56,-1,-1,0
1523611167226,1835008,88,-56,-1,-1,0
1523611167226,2162688,88,-56,-1,-1,0
1523611167266,2490368,88,-56,-1,-1,0
1523611167266,2686976,88,-56,-1,-1,0
1523611167266,2621440,88,-56,-1,-1,0
1523611167266,2490368,88,-56,-1,-1,0
1523611167266,2228224,88,-56,-1,-1,0
1523611167306,1900544,88,-56,-1,-1,0
1523611167306,1507328,88,-56,-1,-1,0
1523611167306,1048576,88,-56,-1,-1,0
1523611167306,589824,88,-56,-1,-1,0
1523611167306,196608,88,-56,-1,-1,0
1523611167346,0,88,-56,-1,-1,0
1523611167346,-131072,88,-56,-1,-1,0
1523611167346,-196608,88,-56,-1,-1,0
1523611167346,-262144,88,-56,-1,-1,0
1523611167346,-327680,88,-56,-1,-1,0
1523611167386,-393216,88,-56,-1,-1,0
1523611167386,-393216,88,-56,-1,-1,0
1523611167386,-393216,88,-56,-1,-1,0
1523611167386,-393216,88,-56,-1,-1,0
1523611167386,-393216,88,-56,-1,-1,0
1523611167426,-327680,88,-56,-1,-1,0
1523611167426,-327680,88,-56,-1,-1,0
1523611167426,-393216,88,-56,-1,-1,0
1523611167426,-458752,88,-56,-1,-1,0
1523611167426,-327680,88,-56,-1,-1,0
1523611167466,-262144,88,-56,-1,-1,0
1523611167466,-327680,88,-56,-1,-1,0
1523611167466,-524288,88,-56,-1,-1,0
1523611167466,-524288,88,-56,-1,-1,0
1523611167466,-589824,88,-56,-1,-1,0
1523611167506,-655360,88,-56,-1,-1,0
1523611167506,-720896,88,-56,-1,-1,0
1523611167506,-720896,88,-56,-1,-1,0
1523611167506,-720896,88,-56,-1,-1,0
1523611167506,-786432,88,-56,-1,-1,0
1523611167546,-851968,88,-56,-1,-1,0
1523611167546,-917504,88,-56,-1,-1,0
1523611167546,-917504,88,-56,-1,-1,0
1523611167546,-917504,88,-56,-1,-1,0
1523611167546,-983040,88,-56,-1,-1,0
1523611167586,-983040,88,-56,-1,-1,0
1523611167586,-1048576,88,-56,-1,-1,0
1523611167586,-1048576,88,-56,-1,-1,0
1523611167586,-983040,88,-56,-1,-1,0
1523611167586,-983040,88,-56,-1,-1,0
1523611167626,-1114112,88,-56,-1,-1,0
1523611167626,-1114112,88,-56,-1,-1,0
1523611167626,-1048576,88,-56,-1,-1,0
1523611167626,-1048576,88,-56,-1,-1,0
1523611167626,-1048576,88,-56,-1,-1,0
1523611167666,-1114112,88,-56,-1,-1,0
1523611167666,-1245184,88,-56,-1,-1,0
1523611167666,-1310720,88,-56,-1,-1,0
1523611167666,-1376256,88,-56,-1,-1,0
1523611167666,-1376256,88,-56,-1,-1,0
1523611167706,-1441792,88,-56,-1,-1,0
1523611167706,-1310720,88,-56,-1,-1,0
1523611167706,-1179648,88,-56,-1,-1,0
1523611167706,-917504,88,-56,-1,-1,0
1523611167706,-851968,88,-56,-1,-1,0
1523611167746,-917504,88,-56,-1,-1,0
1523611167746,-1048576,88,-56,-1,-1,0
1523611167746,-1179648,88,-56,-1,-1,0
1523611167746,-1245184,88,-56,-1,-1,0
1523611167746,-1310720,88,-56,-1,-1,0
1523611167787,-1376256,88,-56,-1,-1,0
1523611167787,-1310720,88,-56,-1,-1,0
1523611167787,-1245184,88,-56,-1,-1,0
1523611167787,-1179648,88,-56,-1,-1,0
1523611167787,-1245184,88,-56,-1,-1,0
1523611167826,-1114112,88,-56,-1,-1,0
1523611167826,-393216,88,-56,-1,-1,0
1523611167826,1900544,88,-56,-1,-1,0
1523611167826,6225920,88,-56,-1,-1,0
1523611167826,9764864,88,-56,-1,-1,0
1523611167866,7798784,88,-56,-1,-1,0
1523611167866,2031616,88,-56,-1,-1,0
1523611167866,-1441792,88,-56,-1,-1,0
1523611167866,-1441792,88,-56,-1,-1,0
1523611167866,-1048576,88,-56,-1,-1,0
1523611167906,-983040,85,-56,-1,-1,0
1523611167906,-983040,85,-56,-1,-1,0
1523611167906,-983040,85,-56,-1,-1,0
1523611167906,-917504,85,-56,-1,-1,0
1523611167906,-851968,85,-56,-1,-1,0
1523611167946,-720896,85,-56,-1,-1,0
1523611167946,-720896,85,-56,-1,-1,0
1523611167946,-589824,85,-56,-1,-1,0
1523611167946,-524288,85,-56,-1,-1,0
1523611167946,-393216,85,-56,-1,-1,0
1523611167985,-262144,85,-56,-1,-1,0
1523611167985,0,85,-56,-1,-1,0
1523611167985,196608,85,-56,-1,-1,0
1523611167985,458752,85,-56,-1,-1,0
1523611167985,720896,85,-56,-1,-1,0
1523611168025,1048576,85,-56,-1,-1,0
1523611168025,1376256,85,-56,-1,-1,0
1523611168025,1507328,85,-56,-1,-1,0
1523611168025,1638400,85,-56,-1,-1,0
1523611168025,1638400,85,-56,-1,-1,0
1523611168065,1638400,85,-56,-1,-1,0
1523611168065,1441792,85,-56,-1,-1,0
1523611168065,1114112,85,-56,-1,-1,0
1523611168065,655360,85,-56,-1,-1,0
1523611168065,196608,85,-56,-1,-1,0
1523611168105,-196608,85,-56,-1,-1,0
1523611168105,-458752,85,-56,-1,-1,0
1523611168105,-589824,85,-56,-1,-1,0
1523611168105,-720896,85,-56,-1,-1,0
1523611168105,-851968,85,-56,-1,-1,0
1523611168145,-917504,85,-56,-1,-1,0
1523611168145,-917504,85,-56,-1,-1,0
1523611168145,-917504,85,-56,-1,-1,0
1523611168145,-917504,85,-56,-1,-1,0
1523611168145,-917504,85,-56,-1,-1,0
1523611168185,-786432,85,-56,-1,-1,0
1523611168185,-720896,85,-56,-1,-1,0
1523611168185,-655360,85,-56,-1,-1,0
1523611168185,-655360,85,-56,-1,-1,0
1523611168185,-720896,85,-56,-1,-1,0
1523611168225,-720896,85,-56,-1,-1,0
1523611168225,-655360,85,-56,-1,-1,0
1523611168225,-589824,85,-56,-1,-1,0
1523611168225,-589824,85,-56,-1,-1,0
1523611168225,-524288,85,-56,-1,-1,0
1523611168265,-589824,85,-56,-1,-1,0
1523611168265,-589824,85,-56,-1,-1,0
1523611168265,-524288,85,-56,-1,-1,0
1523611168265,-524288,85,-56,-1,-1,0
1523611168265,-589824,85,-56,-1,-1,0
1523611168305,-655360,85,-56,-1,-1,0
1523611168305,-655360,85,-56,-1,-1,0
1523611168305,-655360,85,-56,-1,-1,0
1523611168305,-655360,85,-56,-1,-1,0
1523611168305,-655360,85,-56,-1,-1,0
1523611168345,-655360,85,-56,-1,-1,0
1523611168345,-655360,85,-56,-1,-1,0
1523611168345,-720896,85,-56,-1,-1,0
1523611168345,-655360,85,-56,-1,-1,0
1523611168345,-655360,85,-56,-1,-1,0
1523611168385,-655360,85,-56,-1,-1,0
1523611168385,-655360,85,-56,-1,-1,0
1523611168385,-655360,85,-56,-1,-1,0
1523611168385,-589824,85,-56,-1,-1,0
1523611168385,-524288,85,-56,-1,-1,0
1523611168427,-524288,85,-56,-1,-1,0
1523611168427,-589824,85,-56,-1,-1,0
1523611168427,-589824,85,-56,-1,-1,0
1523611168427,-589824,85,-56,-1,-1,0
1523611168427,-655360,85,-56,-1,-1,0
1523611168465,-720896,85,-56,-1,-1,0
1523611168465,-851968,85,-56,-1,-1,0
1523611168465,-851968,85,-56,-1,-1,0
1523611168465,-786432,85,-56,-1,-1,0
1523611168465,-655360,85,-56,-1,-1,0
1523611168505,-524288,85,-56,-1,-1,0
1523611168505,-327680,85,-56,-1,-1,0
1523611168505,-196608,85,-56,-1,-1,0
1523611168505,-327680,85,-56,-1,-1,0
1523611168505,-524288,85,-56,-1,-1,0
1523611168545,-589824,85,-56,-1,-1,0
1523611168545,-655360,85,-56,-1,-1,0
1523611168545,-655360,85,-56,-1,-1,0
1523611168545,-720896,85,-56,-1,-1,0
1523611168545,-720896,85,-56,-1,-1,0
1523611168585,-720896,85,-56,-1,-1,0
1523611168585,-655360,85,-56,-1,-1,0
1523611168585,-655360,85,-56,-1,-1,0
1523611168585,-655360,85,-56,-1,-1,0
1523611168585,-262144,85,-56,-1,-1,0
1523611168625,1376256,85,-56,-1,-1,0
1523611168625,5177344,85,-56,-1,-1,0
1523611168625,9633792,85,-56,-1,-1,0
1523611168625,9502720,85,-56,-1,-1,0
1523611168625,4259840,85,-56,-1,-1,0
1523611168665,-393216,81,-56,-1,-1,0
1523611168665,-1179648,81,-56,-1,-1,0
1523611168665,-589824,81,-56,-1,-1,0
1523611168665,-458752,81,-56,-1,-1,0
1523611168665,-524288,81,-56,-1,-1,0
1523611168705,-524288,81,-56,-1,-1,0
1523611168705,-393216,81,-56,-1,-1,0
1523611168705,-327680,81,-56,-1,-1,0
1523611168705,-262144,81,-56,-1,-1,0
1523611168705,-131072,81,-56,-1,-1,0
1523611168745,0,81,-56,-1,-1,0
1523611168745,65536,81,-56,-1,-1,0
1523611168745,196608,81,-56,-1,-1,0
1523611168745,262144,81,-56,-1,-1,0
1523611168745,458752,81,-56,-1,-1,0
1523611168785,720896,81,-56,-1,-1,0
1523611168785,983040,81,-56,-1,-1,0
1523611168785,1245184,81,-56,-1,-1,0
1523611168785,1572864,81,-56,-1,-1,0
1523611168785,1900544,81,-56,-1,-1,0
1523611168825,2097152,81,-56,-1,-1,0
1523611168825,2228224,81,-56,-1,-1,0
1523611168825,2228224,81,-56,-1,-1,0
1523611168825,2228224,81,-56,-1,-1,0
1523611168825,2097152,81,-56,-1,-1,0
1523611168865,1835008,81,-56,-1,-1,0
1523611168865,1376256,81,-56,-1,-1,0
1523611168865,851968,81,-56,-1,-1,0
1523611168865,393216,81,-56,-1,-1,0
1523611168865,65536,81,-56,-1,-1,0
1523611168905,-131072,81,-56,-1,-1,0
1523611168905,-327680,81,-56,-1,-1,0
1523611168905,-458752,81,-56,-1,-1,0
1523611168905,-589824,81,-56,-1,-1,0
1523611168905,-589824,81,-56,-1,-1,0
1523611168945,-524288,81,-56,-1,-1,0
1523611168945,-524288,81,-56,-1,-1,0
1523611168945,-524288,81,-56,-1,-1,0
1523611168945,-524288,81,-56,-1,-1,0
1523611168945,-524288,81,-56,-1,-1,0
1523611168985,-458752,81,-56,-1,-1,0
1523611168985,-458752,81,-56,-1,-1,0
1523611168985,-458752,81,-56,-1,-1,0
1523611168985,-393216,81,-56,-1,-1,0
1523611168985,-393216,81,-56,-1,-1,0
1523611169025,-458752,81,-56,-1,-1,0
1523611169025,-589824,81,-56,-1,-1,0
1523611169025,-589824,81,-56,-1,-1,0
1523611169025,-589824,81,-56,-1,-1,0
1523611169025,-589824,81,-56,-1,-1,0
1523611169067,-589824,81,-56,-1,-1,0
1523611169067,-589824,81,-56,-1,-1,0
1523611169067,-655360,81,-56,-1,-1,0
1523611169067,-720896,81,-56,-1,-1,0
1523611169067,-720896,81,-56,-1,-1,0
1523611169105,-720896,81,-56,-1,-1,0
1523611169105,-720896,81,-56,-1,-1,0
1523611169105,-851968,81,-56,-1,-1,0
1523611169105,-851968,81,-56,-1,-1,0
1523611169105,-851968,81,-56,-1,-1,0
1523611169145,-851968,81,-56,-1,-1,0
1523611169145,-851968,81,-56,-1,-1,0
1523611169145,-851968,81,-56,-1,-1,0
1523611169145,-851968,81,-56,-1,-1,0
1523611169145,-851968,81,-56,-1,-1,0
1523611169185,-851968,81,-56,-1,-1,0
1523611169185,-786432,81,-56,-1,-1,0
1523611169185,-851968,81,-56,-1,-1,0
1523611169185,-917504,81,-56,-1,-1,0
1523611169185,-983040,81,-56,-1,-1,0
1523611169225,-983040,81,-56,-1,-1,0
1523611169225,-1048576,81,-56,-1,-1,0
1523611169225,-1114112,81,-56,-1,-1,0
1523611169225,-1048576,81,-56,-1,-1,0
1523611169225,-983040,81,-56,-1,-1,0
1523611169265,-851968,81,-56,-1,-1,0
1523611169265,-655360,81,-56,-1,-1,0
1523611169265,-589824,81,-56,-1,-1,0
1523611169265,-655360,81,-56,-1,-1,0
1523611169265,-786432,81,-56,-1,-1,0
1523611169305,-786432,81,-56,-1,-1,0
1523611169305,-720896,81,-56,-1,-1,0
1523611169305,-786432,81,-56,-1,-1,0
1523611169305,-851968,81,-56,-1,-1,0
1523611169305,-917504,81,-56,-1,-1,0
1523611169345,-851968,81,-56,-1,-1,0
1523611169345,-720896,81,-56,-1,-1,0
1523611169345,-720896,81,-56,-1,-1,0
1523611169345,-851968,81,-56,-1,-1,0
1523611169345,-524288,81,-56,-1,-1,0
1523611169385,983040,81,-56,-1,-1,0
1523611169385,4718592,81,-56,-1,-1,0
1523611169385,9306112,81,-56,-1,-1,0
1523611169385,9502720,81,-56,-1,-1,0
1523611169385,4259840,81,-56,-1,-1,0
1523611169425,-655360,79,-56,-1,-1,0
1523611169425,-1507328,79,-56,-1,-1,0
1523611169425,-917504,79,-56,-1,-1,0
1523611169425,-655360,79,-56,-1,-1,0
1523611169425,-589824,79,-56,-1,-1,0
1523611169465,-524288,79,-56,-1,-1,0
1523611169465,-458752,79,-56,-1,-1,0
1523611169465,-393216,79,-56,-1,-1,0
1523611169465,-327680,79,-56,-1,-1,0
1523611169465,-196608,79,-56,-1,-1,0
1523611169505,-131072,79,-56,-1,-1,0
1523611169505,0,79,-56,-1,-1,0
1523611169505,0,79,-56,-1,-1,0
1523611169505,131072,79,-56,-1,-1,0
1523611169505,327680,79,-56,-1,-1,0
1523611169545,524288,79,-56,-1,-1,0
1523611169545,786432,79,-56,-1,-1,0
1523611169545,1179648,79,-56,-1,-1,0
1523611169545,1441792,79,-56,-1,-1,0
1523611169545,1835008,79,-56,-1,-1,0
1523611169585,2097152,79,-56,-1,-1,0
1523611169585,2293760,79,-56,-1,-1,0
1523611169585,2359296,79,-56,-1,-1,0
1523611169585,2293760,79,-56,-1,-1,0
1523611169585,2162688,79,-56,-1,-1,0
1523611169625,1900544,79,-56,-1,-1,0
1523611169625,1441792,79,-56,-1,-1,0
1523611169625,917504,79,-56,-1,-1,0
1523611169625,393216,79,-56,-1,-1,0
1523611169625,0,79,-56,-1,-1,0
1523611169665,-65536,79,-56,-1,-1,0
1523611169665,-262144,79,-56,-1,-1,0
1523611169665,-393216,79,-56,-1,-1,0
1523611169665,-458752,79,-56,-1,-1,0
1523611169665,-458752,79,-56,-1,-1,0
1523611169707,-458752,79,-56,-1,-1,0
1523611169707,-458752,79,-56,-1,-1,0
1523611169707,-393216,79,-56,-1,-1,0
1523611169707,-393216,79,-56,-1,-1,0
1523611169707,-327680,79,-56,-1,-1,0
1523611169745,-327680,79,-56,-1,-1,0
1523611169745,-327680,79,-56,-1,-1,0
1523611169745,-262144,79,-56,-1,-1,0
1523611169745,-262144,79,-56,-1,-1,0
1523611169745,-262144,79,-56,-1,-1,0
1523611169785,-327680,79,-56,-1,-1,0
1523611169785,-262144,79,-56,-1,-1,0
1523611169785,-327680,79,-56,-1,-1,0
1523611169785,-327680,79,-56,-1,-1,0
1523611169785,-327680,79,-56,-1,-1,0
1523611169825,-327680,79,-56,-1,-1,0
1523611169825,-327680,79,-56,-1,-1,0
1523611169825,-262144,79,-56,-1,-1,0
1523611169825,-327680,79,-56,-1,-1,0
1523611169825,-393216,79,-56,-1,-1,0
1523611169865,-458752,79,-56,-1,-1,0
1523611169865,-458752,79,-56,-1,-1,0
1523611169865,-393216,79,-56,-1,-1,0
1523611169865,-458752,79,-56,-1,-1,0
1523611169865,-458752,79,-56,-1,-1,0
1523611169905,-458752,79,-56,-1,-1,0
1523611169905,-458752,79,-56,-1,-1,0
1523611169905,-393216,79,-56,-1,-1,0
1523611169905,-393216,79,-56,-1,-1,0
1523611169905,-393216,79,-56,-1,-1,0
1523611169945,-458752,79,-56,-1,-1,0
1523611169945,-458752,79,-56,-1,-1,0
1523611169945,-458752,79,-56,-1,-1,0
1523611169945,-458752,79,-56,-1,-1,0
1523611169945,-524288,79,-56,-1,-1,0
1523611169985,-589824,79,-56,-1,-1,0
1523611169985,-655360,79,-56,-1,-1,0
1523611169985,-720896,79,-56,-1,-1,0
1523611169985,-786432,79,-56,-1,-1,0
1523611169985,-655360,79,-56,-1,-1,0
1523611170025,-524288,79,-56,-1,-1,0
1523611170025,-393216,79,-56,-1,-1,0
1523611170025,-196608,79,-56,-1,-1,0
1523611170025,-196608,79,-56,-1,-1,0
1523611170025,-393216,79,-56,-1,-1,0
1523611170065,-589824,79,-56,-1,-1,0
1523611170065,-589824,79,-56,-1,-1,0
1523611170065,-524288,79,-56,-1,-1,0
1523611170065,-589824,79,-56,-1,-1,0
1523611170065,-589824,79,-56,-1,-1,0
1523611170105,-524288,79,-56,-1,-1,0
1523611170105,-524288,79,-56,-1,-1,0
1523611170105,-589824,79,-56,-1,-1,0
1523611170105,-655360,79,-56,-1,-1,0
1523611170105,-393216,79,-56,-1,-1,0
1523611170145,524288,79,-56,-1,-1,0
1523611170145,3211264,79,-56,-1,-1,0
1523611170145,7733248,79,-56,-1,-1,0
1523611170145,10616832,79,-56,-1,-1,0
1523611170145,7667712,79,-56,-1,-1,0
1523611170185,1900544,78,-56,-1,-1,0
1523611170185,-983040,78,-56,-1,-1,0
1523611170185,-786432,78,-56,-1,-1,0
1523611170185,-458752,78,-56,-1,-1,0
1523611170185,-589824,78,-56,-1,-1,0
1523611170225,-589824,78,-56,-1,-1,0
1523611170225,-589824,78,-56,-1,-1,0
1523611170225,-393216,78,-56,-1,-1,0
1523611170225,-393216,78,-56,-1,-1,0
1523611170225,-458752,78,-56,-1,-1,0
1523611170265,-393216,78,-56,-1,-1,0
1523611170265,-262144,78,-56,-1,-1,0
1523611170265,-65536,78,-56,-1,-1,0
1523611170265,0,78,-56,-1,-1,0
1523611170265,65536,78,-56,-1,-1,0
1523611170305,262144,78,-56,-1,-1,0
1523611170305,458752,78,-56,-1,-1,0
1523611170305,720896,78,-56,-1,-1,0
1523611170305,1048576,78,-56,-1,-1,0
1523611170305,1376256,78,-56,-1,-1,0
1523611170347,1638400,78,-56,-1,-1,0
1523611170347,1900544,78,-56,-1,-1,0
1523611170347,2031616,78,-56,-1,-1,0
1523611170347,2031616,78,-56,-1,-1,0
1523611170347,1900544,78,-56,-1,-1,0
1523611170387,1703936,78,-56,-1,-1,0
1523611170387,1441792,78,-56,-1,-1,0
1523611170387,1048576,78,-56,-1,-1,0
1523611170387,524288,78,-56,-1,-1,0
1523611170387,131072,78,-56,-1,-1,0
1523611170425,-131072,78,-56,-1,-1,0
1523611170425,-327680,78,-56,-1,-1,0
1523611170425,-524288,78,-56,-1,-1,0
1523611170425,-589824,78,-56,-1,-1,0
1523611170425,-720896,78,-56,-1,-1,0
1523611170465,-720896,78,-56,-1,-1,0
1523611170465,-720896,78,-56,-1,-1,0
1523611170465,-655360,78,-56,-1,-1,0
1523611170465,-589824,78,-56,-1,-1,0
1523611170465,-655360,78,-56,-1,-1,0
1523611170505,-655360,78,-56,-1,-1,0
1523611170505,-655360,78,-56,-1,-1,0
1523611170505,-655360,78,-56,-1,-1,0
1523611170505,-655360,78,-56,-1,-1,0
1523611170505,-655360,78,-56,-1,-1,0
1523611170545,-655360,78,-56,-1,-1,0
1523611170545,-655360,78,-56,-1,-1,0
1523611170545,-655360,78,-56,-1,-1,0
1523611170545,-589824,78,-56,-1,-1,0
1523611170545,-589824,78,-56,-1,-1,0
1523611170585,-720896,78,-56,-1,-1,0
1523611170585,-851968,78,-56,-1,-1,0
1523611170585,-851968,78,-56,-1,-1,0
1523611170585,-786432,78,-56,-1,-1,0
1523611170585,-720896,78,-56,-1,-1,0
1523611170625,-720896,78,-56,-1,-1,0
1523611170625,-851968,78,-56,-1,-1,0
1523611170625,-917504,78,-56,-1,-1,0
1523611170625,-851968,78,-56,-1,-1,0
1523611170625,-786432,78,-56,-1,-1,0
1523611170665,-786432,78,-56,-1,-1,0
1523611170665,-851968,78,-56,-1,-1,0
1523611170665,-983040,78,-56,-1,-1,0
1523611170665,-983040,78,-56,-1,-1,0
1523611170665,-983040,78,-56,-1,-1,0
1523611170705,-1048576,78,-56,-1,-1,0
1523611170705,-1048576,78,-56,-1,-1,0
1523611170705,-1048576,78,-56,-1,-1,0
1523611170705,-1048576,78,-56,-1,-1,0
1523611170705,-1114112,78,-56,-1,-1,0
1523611170745,-1179648,78,-56,-1,-1,0
1523611170745,-1245184,78,-56,-1,-1,0
1523611170745,-1245184,78,-56,-1,-1,0
1523611170745,-1245184,78,-56,-1,-1,0
1523611170745,-1179648,78,-56,-1,-1,0
1523611170785,-983040,78,-56,-1,-1,0
1523611170785,-720896,78,-56,-1,-1,0
1523611170785,-655360,78,-56,-1,-1,0
1523611170785,-786432,78,-56,-1,-1,0
1523611170785,-917504,78,-56,-1,-1,0
1523611170825,-983040,78,-56,-1,-1,0
1523611170825,-983040,78,-56,-1,-1,0
1523611170825,-983040,78,-56,-1,-1,0
1523611170825,-1048576,78,-56,-1,-1,0
1523611170825,-1048576,78,-56,-1,-1,0
1523611170865,-1048576,78,-56,-1,-1,0
1523611170865,-983040,78,-56,-1,-1,0
1523611170865,-917504,78,-56,-1,-1,0
1523611170865,-720896,78,-56,-1,-1,0
1523611170865,393216,78,-56,-1,-1,0
1523611170905,3538944,78,-56,-1,-1,0
1523611170905,8323072,78,-56,-1,-1,0
1523611170905,10485760,78,-56,-1,-1,0
1523611170905,6553600,78,-56,-1,-1,0
1523611170905,720896,78,-56,-1,-1,0
1523611170945,-1572864,78,-56,-1,-1,0
1523611170945,-1179648,78,-56,-1,-1,0
1523611170945,-720896,78,-56,-1,-1,0
1523611170945,-786432,78,-56,-1,-1,0
1523611170945,-786432,78,-56,-1,-1,0
1523611170987,-786432,78,-56,-1,-1,0
1523611170987,-655360,78,-56,-1,-1,0
1523611170987,-589824,78,-56,-1,-1,0
1523611170987,-458752,78,-56,-1,-1,0
1523611170987,-393216,78,-56,-1,-1,0
1523611171025,-196608,78,-56,-1,-1,0
1523611171025,-65536,78,-56,-1,-1,0
1523611171025,65536,78,-56,-1,-1,0
1523611171025,196608,78,-56,-1,-1,0
1523611171025,393216,78,-56,-1,-1,0
1523611171065,655360,78,-56,-1,-1,0
1523611171065,1048576,78,-56,-1,-1,0
1523611171065,1376256,78,-56,-1,-1,0
1523611171065,1703936,78,-56,-1,-1,0
1523611171065,1966080,78,-56,-1,-1,0
1523611171105,2162688,78,-56,-1,-1,0
1523611171105,2424832,78,-56,-1,-1,0
1523611171105,2424832,78,-56,-1,-1,0
1523611171105,2228224,78,-56,-1,-1,0
1523611171105,1966080,78,-56,-1,-1,0
1523611171145,1572864,78,-56,-1,-1,0
1523611171145,1114112,78,-56,-1,-1,0
1523611171145,589824,78,-56,-1,-1,0
1523611171145,131072,78,-56,-1,-1,0
1523611171145,-196608,78,-56,-1,-1,0
1523611171185,-393216,78,-56,-1,-1,0
1523611171185,-524288,78,-56,-1,-1,0
1523611171185,-655360,78,-56,-1,-1,0
1523611171185,-720896,78,-56,-1,-1,0
1523611171185,-655360,78,-56,-1,-1,0
1523611171225,-589824,78,-56,-1,-1,0
1523611171225,-655360,78,-56,-1,-1,0
1523611171225,-655360,78,-56,-1,-1,0
1523611171225,-655360,78,-56,-1,-1,0
1523611171225,-589824,78,-56,-1,-1,0
1523611171265,-524288,78,-56,-1,-1,0
1523611171265,-458752,78,-56,-1,-1,0
1523611171265,-458752,78,-56,-1,-1,0
1523611171265,-458752,78,-56,-1,-1,0
1523611171265,-393216,78,-56,-1,-1,0
1523611171305,-393216,78,-56,-1,-1,0
1523611171305,-327680,78,-56,-1,-1,0
1523611171305,-393216,78,-56,-1,-1,0
1523611171305,-458752,78,-56,-1,-1,0
1523611171305,-458752,78,-56,-1,-1,0
1523611171345,-458752,78,-56,-1,-1,0
1523611171345,-458752,78,-56,-1,-1,0
1523611171345,-458752,78,-56,-1,-1,0
1523611171345,-524288,78,-56,-1,-1,0
1523611171345,-589824,78,-56,-1,-1,0
1523611171385,-524288,78,-56,-1,-1,0
1523611171385,-524288,78,-56,-1,-1,0
1523611171385,-524288,78,-56,-1,-1,0
1523611171385,-589824,78,-56,-1,-1,0
1523611171385,-524288,78,-56,-1,-1,0
1523611171425,-524288,78,-56,-1,-1,0
1523611171425,-589824,78,-56,-1,-1,0
1523611171425,-655360,78,-56,-1,-1,0
1523611171425,-655360,78,-56,-1,-1,0
1523611171425,-655360,78,-56,-1,-1,0
1523611171465,-589824,78,-56,-1,-1,0
1523611171465,-589824,78,-56,-1,-1,0
1523611171465,-655360,78,-56,-1,-1,0
1523611171465,-720896,78,-56,-1,-1,0
1523611171465,-720896,78,-56,-1,-1,0
1523611171505,-851968,78,-56,-1,-1,0
1523611171505,-1048576,78,-56,-1,-1,0
1523611171505,-1048576,78,-56,-1,-1,0
1523611171505,-851968,78,-56,-1,-1,0
1523611171505,-720896,78,-56,-1,-1,0
1523611171545,-458752,78,-56,-1,-1,0
1523611171545,-327680,78,-56,-1,-1,0
1523611171545,-327680,78,-56,-1,-1,0
1523611171545,-458752,78,-56,-1,-1,0
1523611171545,-589824,78,-56,-1,-1,0
1523611171585,-589824,78,-56,-1,-1,0
1523611171585,-655360,78,-56,-1,-1,0
1523611171585,-720896,78,-56,-1,-1,0
1523611171585,-786432,78,-56,-1,-1,0
1523611171585,-720896,78,-56,-1,-1,0
1523611171627,-720896,78,-56,-1,-1,0
1523611171627,-720896,78,-56,-1,-1,0
1523611171627,-786432,78,-56,-1,-1,0
1523611171627,-524288,78,-56,-1,-1,0
1523611171627,917504,78,-56,-1,-1,0
1523611171665,4587520,78,-56,-1,-1,0
1523611171665,9502720,78,-56,-1,-1,0
1523611171665,10485760,78,-56,-1,-1,0
1523611171665,5636096,78,-56,-1,-1,0
1523611171665,196608,78,-56,-1,-1,0
1523611171705,-1179648,78,-56,-1,-1,0
1523611171705,-786432,78,-56,-1,-1,0
1523611171705,-655360,78,-56,-1,-1,0
1523611171705,-655360,78,-56,-1,-1,0
1523611171705,-655360,78,-56,-1,-1,0
1523611171745,-589824,78,-56,-1,-1,0
1523611171745,-589824,78,-56,-1,-1,0
1523611171745,-655360,78,-56,-1,-1,0
1523611171745,-524288,78,-56,-1,-1,0
1523611171745,-393216,78,-56,-1,-1,0
1523611171785,-262144,78,-56,-1,-1,0
1523611171785,-196608,78,-56,-1,-1,0
1523611171785,-65536,78,-56,-1,-1,0
1523611171785,65536,78,-56,-1,-1,0
1523611171785,327680,78,-56,-1,-1,0
1523611171825,524288,78,-56,-1,-1,0
1523611171825,851968,78,-56,-1,-1,0
1523611171825,1114112,78,-56,-1,-1,0
1523611171825,1310720,78,-56,-1,-1,0
1523611171825,1507328,78,-56,-1,-1,0
1523611171865,1703936,78,-56,-1,-1,0
1523611171865,1835008,78,-56,-1,-1,0
1523611171865,1835008,78,-56,-1,-1,0
1523611171865,1703936,78,-56,-1,-1,0
1523611171865,1441792,78,-56,-1,-1,0
1523611171905,1114112,78,-56,-1,-1,0
1523611171905,589824,78,-56,-1,-1,0
1523611171905,65536,78,-56,-1,-1,0
1523611171905,-327680,78,-56,-1,-1,0
1523611171905,-589824,78,-56,-1,-1,0
1523611171945,-786432,78,-56,-1,-1,0
1523611171945,-917504,78,-56,-1,-1,0
1523611171945,-983040,78,-56,-1,-1,0
1523611171945,-1048576,78,-56,-1,-1,0
1523611171945,-1179648,78,-56,-1,-1,0
1523611171985,-1179648,78,-56,-1,-1,0
1523611171985,-1114112,78,-56,-1,-1,0
1523611171985,-1048576,78,-56,-1,-1,0
1523611171985,-1048576,78,-56,-1,-1,0
1523611171985,-1048576,78,-56,-1,-1,0
1523611172025,-1048576,78,-56,-1,-1,0
1523611172025,-1048576,78,-56,-1,-1,0
1523611172025,-1048576,78,-56,-1,-1,0
1523611172025,-1048576,78,-56,-1,-1,0
1523611172025,-1048576,78,-56,-1,-1,0
1523611172065,-983040,78,-56,-1,-1,0
1523611172065,-917504,78,-56,-1,-1,0
1523611172065,-983040,78,-56,-1,-1,0
1523611172065,-983040,78,-56,-1,-1,0
1523611172065,-1048576,78,-56,-1,-1,0
1523611172105,-1114112,78,-56,-1,-1,0
1523611172105,-1179648,78,-56,-1,-1,0
1523611172105,-1179648,78,-56,-1,-1,0
1523611172105,-1114112,78,-56,-1,-1,0
1523611172105,-1179648,78,-56,-1,-1,0
1523611172145,-1245184,78,-56,-1,-1,0
1523611172145,-1245184,78,-56,-1,-1,0
1523611172145,-1179648,78,-56,-1,-1,0
1523611172145,-1114112,78,-56,-1,-1,0
1523611172145,-1179648,78,-56,-1,-1,0
1523611172185,-1245184,78,-56,-1,-1,0
1523611172185,-1310720,78,-56,-1,-1,0
1523611172185,-1310720,78,-56,-1,-1,0
1523611172185,-1245184,78,-56,-1,-1,0
1523611172185,-1245184,78,-56,-1,-1,0
1523611172225,-1310720,78,-56,-1,-1,0
1523611172225,-1245184,78,-56,-1,-1,0
1523611172225,-1245184,78,-56,-1,-1,0
1523611172225,-1179648,78,-56,-1,-1,0
1523611172225,-1245184,78,-56,-1,-1,0
1523611172266,-1310720,78,-56,-1,-1,0
1523611172266,-1310720,78,-56,-1,-1,0
1523611172266,-1310720,78,-56,-1,-1,0
1523611172266,-1376256,78,-56,-1,-1,0
1523611172266,-1441792,78,-56,-1,-1,0
1523611172305,-1507328,78,-56,-1,-1,0
1523611172305,-1507328,78,-56,-1,-1,0
1523611172305,-1376256,78,-56,-1,-1,0
1523611172305,-1179648,78,-56,-1,-1,0
1523611172305,-983040,78,-56,-1,-1,0
1523611172345,-917504,78,-56,-1,-1,0
1523611172345,-1048576,78,-56,-1,-1,0
1523611172345,-1179648,78,-56,-1,-1,0
1523611172345,-1245184,78,-56,-1,-1,0
1523611172345,-1245184,78,-56,-1,-1,0
1523611172385,-1245184,78,-56,-1,-1,0
1523611172385,-1245184,78,-56,-1,-1,0
1523611172385,-1245184,78,-56,-1,-1,0
1523611172385,-1245184,78,-56,-1,-1,0
1523611172385,-1245184,78,-56,-1,-1,0
1523611172425,-1245184,78,-56,-1,-1,0
1523611172425,-1179648,78,-56,-1,-1,0
1523611172425,-589824,78,-56,-1,-1,0
1523611172425,1638400,78,-56,-1,-1,0
1523611172425,6029312,78,-56,-1,-1,0
1523611172466,9830400,78,-56,-1,-1,0
1523611172466,8060928,78,-56,-1,-1,0
1523611172466,2228224,78,-56,-1,-1,0
1523611172466,-1376256,78,-56,-1,-1,0
1523611172466,-1507328,78,-56,-1,-1,0
1523611172505,-1048576,78,-56,-1,-1,0
1523611172505,-1114112,78,-56,-1,-1,0
1523611172505,-1114112,78,-56,-1,-1,0
1523611172505,-917504,78,-56,-1,-1,0
1523611172505,-589824,78,-56,-1,-1,0
1523611172545,-262144,78,-56,-1,-1,0
1523611172545,-65536,78,-56,-1,-1,0
1523611172545,0,78,-56,-1,-1,0
1523611172545,196608,78,-56,-1,-1,0
1523611172545,393216,78,-56,-1,-1,0
1523611172585,524288,78,-56,-1,-1,0
1523611172585,589824,78,-56,-1,-1,0
1523611172585,851968,78,-56,-1,-1,0
1523611172585,1114112,78,-56,-1,-1,0
1523611172585,1441792,78,-56,-1,-1,0
1523611172625,1769472,78,-56,-1,-1,0
1523611172625,2097152,78,-56,-1,-1,0
1523611172625,2424832,78,-56,-1,-1,0
1523611172625,2686976,78,-56,-1,-1,0
1523611172625,2883584,78,-56,-1,-1,0
1523611172665,2949120,78,-56,-1,-1,0
1523611172665,3014656,78,-56,-1,-1,0
1523611172665,2818048,78,-56,-1,-1,0
1523611172665,2490368,78,-56,-1,-1,0
1523611172665,1966080,78,-56,-1,-1,0
1523611172705,1441792,78,-56,-1,-1,0
1523611172705,1048576,78,-56,-1,-1,0
1523611172705,720896,78,-56,-1,-1,0
1523611172705,393216,78,-56,-1,-1,0
1523611172705,262144,78,-56,-1,-1,0
1523611172745,196608,78,-56,-1,-1,0
1523611172745,65536,78,-56,-1,-1,0
1523611172745,0,78,-56,-1,-1,0
1523611172745,0,78,-56,-1,-1,0
1523611172745,0,78,-56,-1,-1,0
1523611172785,0,78,-56,-1,-1,0
1523611172785,-65536,78,-56,-1,-1,0
1523611172785,-65536,78,-56,-1,-1,0
1523611172785,0,78,-56,-1,-1,0
1523611172785,0,78,-56,-1,-1,0
1523611172825,0,78,-56,-1,-1,0
1523611172825,0,78,-56,-1,-1,0
1523611172825,0,78,-56,-1,-1,0
1523611172825,0,78,-56,-1,-1,0
1523611172825,0,78,-56,-1,-1,0
1523611172865,-65536,78,-56,-1,-1,0
1523611172865,-65536,78,-56,-1,-1,0
1523611172865,-196608,78,-56,-1,-1,0
1523611172865,-262144,78,-56,-1,-1,0
1523611172865,-262144,78,-56,-1,-1,0
1523611172906,-262144,78,-56,-1,-1,0
1523611172906,-327680,78,-56,-1,-1,0
1523611172906,-393216,78,-56,-1,-1,0
1523611172906,-393216,78,-56,-1,-1,0
1523611172906,-393216,78,-56,-1,-1,0
1523611172945,-458752,78,-56,-1,-1,0
1523611172945,-458752,78,-56,-1,-1,0
1523611172945,-458752,78,-56,-1,-1,0
1523611172945,-458752,78,-56,-1,-1,0
1523611172945,-458752,78,-56,-1,-1,0
1523611172985,-524288,78,-56,-1,-1,0
1523611172985,-524288,78,-56,-1,-1,0
1523611172985,-524288,78,-56,-1,-1,0
1523611172985,-524288,78,-56,-1,-1,0
1523611172985,-589824,78,-56,-1,-1,0
1523611173025,-589824,78,-56,-1,-1,0
1523611173025,-655360,78,-56,-1,-1,0
1523611173025,-589824,78,-56,-1,-1,0
1523611173025,-524288,78,-56,-1,-1,0
1523611173025,-524288,78,-56,-1,-1,0
1523611173065,-589824,78,-56,-1,-1,0
1523611173065,-655360,78,-56,-1,-1,0
1523611173065,-655360,78,-56,-1,-1,0
1523611173065,-720896,78,-56,-1,-1,0
1523611173065,-786432,78,-56,-1,-1,0
1523611173105,-786432,78,-56,-1,-1,0
1523611173105,-655360,78,-56,-1,-1,0
1523611173105,-524288,78,-56,-1,-1,0
1523611173105,-262144,78,-56,-1,-1,0
1523611173105,-131072,78,-56,-1,-1,0
1523611173145,-262144,78,-56,-1,-1,0
1523611173145,-458752,78,-56,-1,-1,0
1523611173145,-524288,78,-56,-1,-1,0
1523611173145,-589824,78,-56,-1,-1,0
1523611173145,-524288,78,-56,-1,-1,0
1523611173185,-524288,78,-56,-1,-1,0
1523611173185,-524288,78,-56,-1,-1,0
1523611173185,-589824,78,-56,-1,-1,0
1523611173185,-655360,78,-56,-1,-1,0
1523611173185,-655360,78,-56,-1,-1,0
1523611173225,-655360,78,-56,-1,-1,0
1523611173225,-524288,78,-56,-1,-1,0
1523611173225,262144,78,-56,-1,-1,0
1523611173225,2883584,78,-56,-1,-1,0
1523611173225,7536640,78,-56,-1,-1,0
1523611173265,10354688,78,-56,-1,-1,0
1523611173265,7208960,78,-56,-1,-1,0
1523611173265,1310720,78,-56,-1,-1,0
1523611173265,-1507328,78,-56,-1,-1,0
1523611173265,-1179648,78,-56,-1,-1,0
1523611173305,-655360,77,-56,-1,-1,0
1523611173305,-524288,77,-56,-1,-1,0
1523611173305,-458752,77,-56,-1,-1,0
1523611173305,-524288,77,-56,-1,-1,0
1523611173305,-458752,77,-56,-1,-1,0
1523611173345,-327680,77,-56,-1,-1,0
1523611173345,-196608,77,-56,-1,-1,0
1523611173345,-196608,77,-56,-1,-1,0
1523611173345,-131072,77,-56,-1,-1,0
1523611173345,0,77,-56,-1,-1,0
1523611173385,196608,77,-56,-1,-1,0
1523611173385,327680,77,-56,-1,-1,0
1523611173385,524288,77,-56,-1,-1,0
1523611173385,720896,77,-56,-1,-1,0
1523611173385,983040,77,-56,-1,-1,0
1523611173425,1310720,77,-56,-1,-1,0
1523611173425,1638400,77,-56,-1,-1,0
1523611173425,1966080,77,-56,-1,-1,0
1523611173425,2228224,77,-56,-1,-1,0
1523611173425,2359296,77,-56,-1,-1,0
1523611173465,2424832,77,-56,-1,-1,0
1523611173465,2293760,77,-56,-1,-1,0
1523611173465,1966080,77,-56,-1,-1,0
1523611173465,1507328,77,-56,-1,-1,0
1523611173465,917504,77,-56,-1,-1,0
1523611173505,393216,77,-56,-1,-1,0
1523611173505,-65536,77,-56,-1,-1,0
1523611173505,-393216,77,-56,-1,-1,0
1523611173505,-655360,77,-56,-1,-1,0
1523611173505,-851968,77,-56,-1,-1,0
1523611173547,-983040,77,-56,-1,-1,0
1523611173547,-983040,77,-56,-1,-1,0
1523611173547,-1048576,77,-56,-1,-1,0
1523611173547,-983040,77,-56,-1,-1,0
1523611173547,-917504,77,-56,-1,-1,0
1523611173585,-983040,77,-56,-1,-1,0
1523611173585,-983040,77,-56,-1,-1,0
1523611173585,-983040,77,-56,-1,-1,0
1523611173585,-917504,77,-56,-1,-1,0
1523611173585,-851968,77,-56,-1,-1,0
1523611173625,-786432,77,-56,-1,-1,0
1523611173625,-851968,77,-56,-1,-1,0
1523611173625,-851968,77,-56,-1,-1,0
1523611173625,-851968,77,-56,-1,-1,0
1523611173625,-786432,77,-56,-1,-1,0
1523611173665,-786432,77,-56,-1,-1,0
1523611173665,-851968,77,-56,-1,-1,0
1523611173665,-851968,77,-56,-1,-1,0
1523611173665,-917504,77,-56,-1,-1,0
1523611173665,-917504,77,-56,-1,-1,0
1523611173705,-917504,77,-56,-1,-1,0
1523611173705,-851968,77,-56,-1,-1,0
1523611173705,-917504,77,-56,-1,-1,0
1523611173705,-983040,77,-56,-1,-1,0
1523611173705,-983040,77,-56,-1,-1,0
1523611173745,-983040,77,-56,-1,-1,0
1523611173745,-983040,77,-56,-1,-1,0
1523611173745,-1048576,77,-56,-1,-1,0
1523611173745,-1048576,77,-56,-1,-1,0
1523611173745,-983040,77,-56,-1,-1,0
1523611173785,-983040,77,-56,-1,-1,0
1523611173785,-983040,77,-56,-1,-1,0
1523611173785,-983040,77,-56,-1,-1,0
1523611173785,-1048576,77,-56,-1,-1,0
1523611173785,-1048576,77,-56,-1,-1,0
1523611173827,-1048576,77,-56,-1,-1,0
1523611173827,-1048576,77,-56,-1,-1,0
1523611173827,-1048576,77,-56,-1,-1,0
1523611173827,-1048576,77,-56,-1,-1,0
1523611173827,-1048576,77,-56,-1,-1,0
1523611173865,-1179648,77,-56,-1,-1,0
1523611173865,-1310720,77,-56,-1,-1,0
1523611173865,-1376256,77,-56,-1,-1,0
1523611173865,-1310720,77,-56,-1,-1,0
1523611173865,-1114112,77,-56,-1,-1,0
1523611173905,-983040,77,-56,-1,-1,0
1523611173905,-786432,77,-56,-1,-1,0
