milliseconds, ECG, ECG HR, PPG, PPG HR, SpO2, PI
1523627688743,1703936,86,-56,-1,-1,0
1523627688743,-524288,86,-56,-1,-1,0
1523627688743,-1114112,86,-56,-1,-1,0
1523627688743,-851968,86,-56,-1,-1,0
1523627688743,-524288,86,-56,-1,-1,0
1523627688803,-327680,86,-56,-1,-1,0
1523627688803,-327680,86,-56,-1,-1,0
1523627688803,-262144,86,-56,-1,-1,0
1523627688803,-262144,86,-56,-1,-1,0
1523627688803,-262144,86,-56,-1,-1,0
1523627688822,-196608,86,-56,-1,-1,0
1523627688822,-196608,86,-56,-1,-1,0
1523627688822,-196608,86,-56,-1,-1,0
1523627688822,-131072,86,-56,-1,-1,0
1523627688822,-65536,86,-56,-1,-1,0
1523627688862,0,86,-56,-1,-1,0
1523627688862,0,86,-56,-1,-1,0
1523627688862,0,86,-56,-1,-1,0
1523627688862,131072,86,-56,-1,-1,0
1523627688862,327680,86,-56,-1,-1,0
1523627688902,393216,86,-56,-1,-1,0
1523627688902,524288,86,-56,-1,-1,0
1523627688902,786432,86,-56,-1,-1,0
1523627688902,1114112,86,-56,-1,-1,0
1523627688902,1376256,86,-56,-1,-1,0
1523627688942,1769472,86,-56,-1,-1,0
1523627688942,2097152,86,-56,-1,-1,0
1523627688942,2228224,86,-56,-1,-1,0
1523627688942,2228224,86,-56,-1,-1,0
1523627688942,2162688,86,-56,-1,-1,0
1523627688982,1966080,86,-56,-1,-1,0
1523627688982,1507328,86,-56,-1,-1,0
1523627688982,1048576,86,-56,-1,-1,0
1523627688982,655360,86,-56,-1,-1,0
1523627688982,327680,86,-56,-1,-1,0
1523627689022,65536,86,-56,-1,-1,0
1523627689022,-65536,86,-56,-1,-1,0
1523627689022,-196608,86,-56,-1,-1,0
1523627689022,-262144,86,-56,-1,-1,0
1523627689022,-262144,86,-56,-1,-1,0
1523627689062,-262144,86,-56,-1,-1,0
1523627689062,-262144,86,-56,-1,-1,0
1523627689062,-196608,86,-56,-1,-1,0
1523627689062,-196608,86,-56,-1,-1,0
1523627689062,-327680,86,-56,-1,-1,0
1523627689102,-327680,86,-56,-1,-1,0
1523627689102,-262144,86,-56,-1,-1,0
1523627689102,-196608,86,-56,-1,-1,0
1523627689102,-196608,86,-56,-1,-1,0
1523627689102,-196608,86,-56,-1,-1,0
1523627689142,-196608,86,-56,-1,-1,0
1523627689142,-196608,86,-56,-1,-1,0
1523627689142,-131072,86,-56,-1,-1,0
1523627689142,-65536,86,-56,-1,-1,0
1523627689142,-196608,86,-56,-1,-1,0
1523627689182,-262144,86,-56,-1,-1,0
1523627689182,-262144,86,-56,-1,-1,0
1523627689182,-196608,86,-56,-1,-1,0
1523627689182,-196608,86,-56,-1,-1,0
1523627689182,-196608,86,-56,-1,-1,0
1523627689222,-262144,86,-56,-1,-1,0
1523627689222,-262144,86,-56,-1,-1,0
1523627689222,-262144,86,-56,-1,-1,0
1523627689222,-262144,86,-56,-1,-1,0
1523627689222,-327680,86,-56,-1,-1,0
1523627689262,-327680,86,-56,-1,-1,0
1523627689262,-393216,86,-56,-1,-1,0
1523627689262,-393216,86,-56,-1,-1,0
1523627689262,-393216,86,-56,-1,-1,0
1523627689262,-458752,86,-56,-1,-1,0
1523627689302,-458752,86,-56,-1,-1,0
1523627689302,-524288,86,-56,-1,-1,0
1523627689302,-458752,86,-56,-1,-1,0
1523627689302,-458752,86,-56,-1,-1,0
1523627689302,-458752,86,-56,-1,-1,0
1523627689342,-393216,86,-56,-1,-1,0
1523627689342,-327680,86,-56,-1,-1,0
1523627689342,-262144,86,-56,-1,-1,0
1523627689342,-262144,86,-56,-1,-1,0
1523627689342,-393216,86,-56,-1,-1,0
1523627689382,-458752,86,-56,-1,-1,0
1523627689382,-458752,86,-56,-1,-1,0
1523627689382,-393216,86,-56,-1,-1,0
1523627689382,-393216,86,-56,-1,-1,0
1523627689382,-458752,86,-56,-1,-1,0
1523627689431,-524288,86,-56,-1,-1,0
1523627689431,-786432,86,-56,-1,-1,0
1523627689431,-917504,86,-56,-1,-1,0
1523627689431,-262144,86,-56,-1,-1,0
1523627689431,1703936,86,-56,-1,-1,0
1523627689462,4259840,85,-56,-1,-1,0
1523627689462,4325376,85,-56,-1,-1,0
1523627689462,1769472,85,-56,-1,-1,0
1523627689462,-589824,85,-56,-1,-1,0
1523627689462,-1114112,85,-56,-1,-1,0
1523627689502,-917504,85,-56,-1,-1,0
1523627689502,-655360,85,-56,-1,-1,0
1523627689502,-589824,85,-56,-1,-1,0
1523627689502,-524288,85,-56,-1,-1,0
1523627689502,-393216,85,-56,-1,-1,0
1523627689542,-327680,85,-56,-1,-1,0
1523627689542,-393216,85,-56,-1,-1,0
1523627689542,-458752,85,-56,-1,-1,0
1523627689542,-458752,85,-56,-1,-1,0
1523627689542,-393216,85,-56,-1,-1,0
1523627689582,-393216,85,-56,-1,-1,0
1523627689582,-327680,85,-56,-1,-1,0
1523627689582,-262144,85,-56,-1,-1,0
1523627689582,-196608,85,-56,-1,-1,0
1523627689582,-131072,85,-56,-1,-1,0
1523627689622,0,85,-56,-1,-1,0
1523627689622,0,85,-56,-1,-1,0
1523627689622,131072,85,-56,-1,-1,0
1523627689622,327680,85,-56,-1,-1,0
1523627689622,524288,85,-56,-1,-1,0
1523627689662,786432,85,-56,-1,-1,0
1523627689662,1179648,85,-56,-1,-1,0
1523627689662,1507328,85,-56,-1,-1,0
1523627689662,1835008,85,-56,-1,-1,0
1523627689662,1966080,85,-56,-1,-1,0
1523627689702,1966080,85,-56,-1,-1,0
1523627689702,1900544,85,-56,-1,-1,0
1523627689702,1638400,85,-56,-1,-1,0
1523627689702,1245184,85,-56,-1,-1,0
1523627689702,786432,85,-56,-1,-1,0
1523627689742,327680,85,-56,-1,-1,0
1523627689742,0,85,-56,-1,-1,0
1523627689742,-196608,85,-56,-1,-1,0
1523627689742,-327680,85,-56,-1,-1,0
1523627689742,-327680,85,-56,-1,-1,0
1523627689782,-327680,85,-56,-1,-1,0
1523627689782,-393216,85,-56,-1,-1,0
1523627689782,-393216,85,-56,-1,-1,0
1523627689782,-458752,85,-56,-1,-1,0
1523627689782,-393216,85,-56,-1,-1,0
1523627689822,-393216,85,-56,-1,-1,0
1523627689822,-327680,85,-56,-1,-1,0
1523627689822,-327680,85,-56,-1,-1,0
1523627689822,-393216,85,-56,-1,-1,0
1523627689822,-393216,85,-56,-1,-1,0
1523627689862,-327680,85,-56,-1,-1,0
1523627689862,-327680,85,-56,-1,-1,0
1523627689862,-393216,85,-56,-1,-1,0
1523627689862,-393216,85,-56,-1,-1,0
1523627689862,-327680,85,-56,-1,-1,0
1523627689902,-262144,85,-56,-1,-1,0
1523627689902,-262144,85,-56,-1,-1,0
1523627689902,-262144,85,-56,-1,-1,0
1523627689902,-262144,85,-56,-1,-1,0
1523627689902,-262144,85,-56,-1,-1,0
1523627689942,-327680,85,-56,-1,-1,0
1523627689942,-262144,85,-56,-1,-1,0
1523627689942,-327680,85,-56,-1,-1,0
1523627689942,-393216,85,-56,-1,-1,0
1523627689942,-393216,85,-56,-1,-1,0
1523627689982,-393216,85,-56,-1,-1,0
1523627689982,-393216,85,-56,-1,-1,0
1523627689982,-393216,85,-56,-1,-1,0
1523627689982,-393216,85,-56,-1,-1,0
1523627689982,-458752,85,-56,-1,-1,0
1523627690022,-458752,85,-56,-1,-1,0
1523627690022,-458752,85,-56,-1,-1,0
1523627690022,-458752,85,-56,-1,-1,0
1523627690022,-458752,85,-56,-1,-1,0
1523627690022,-458752,85,-56,-1,-1,0
1523627690071,-524288,85,-56,-1,-1,0
1523627690071,-524288,85,-56,-1,-1,0
1523627690071,-393216,85,-56,-1,-1,0
1523627690071,-327680,85,-56,-1,-1,0
1523627690071,-262144,85,-56,-1,-1,0
1523627690102,-393216,85,-56,-1,-1,0
1523627690102,-458752,85,-56,-1,-1,0
1523627690102,-458752,85,-56,-1,-1,0
1523627690102,-458752,85,-56,-1,-1,0
1523627690102,-458752,85,-56,-1,-1,0
1523627690142,-458752,85,-56,-1,-1,0
1523627690142,-458752,85,-56,-1,-1,0
1523627690142,-524288,85,-56,-1,-1,0
1523627690142,-786432,85,-56,-1,-1,0
1523627690142,-786432,85,-56,-1,-1,0
1523627690182,196608,85,-56,-1,-1,0
1523627690182,2621440,85,-56,-1,-1,0
1523627690182,4784128,85,-56,-1,-1,0
1523627690182,4063232,85,-56,-1,-1,0
1523627690182,1245184,85,-56,-1,-1,0
1523627690222,-851968,85,-56,-1,-1,0
1523627690222,-1114112,85,-56,-1,-1,0
1523627690222,-851968,85,-56,-1,-1,0
1523627690222,-524288,85,-56,-1,-1,0
1523627690222,-458752,85,-56,-1,-1,0
1523627690262,-458752,85,-56,-1,-1,0
1523627690262,-458752,85,-56,-1,-1,0
1523627690262,-393216,85,-56,-1,-1,0
1523627690262,-327680,85,-56,-1,-1,0
1523627690262,-262144,85,-56,-1,-1,0
1523627690302,-262144,85,-56,-1,-1,0
1523627690302,-262144,85,-56,-1,-1,0
1523627690302,-327680,85,-56,-1,-1,0
1523627690302,-327680,85,-56,-1,-1,0
1523627690302,-196608,85,-56,-1,-1,0
1523627690342,-65536,85,-56,-1,-1,0
1523627690342,0,85,-56,-1,-1,0
1523627690342,0,85,-56,-1,-1,0
1523627690342,131072,85,-56,-1,-1,0
1523627690342,196608,85,-56,-1,-1,0
1523627690382,327680,85,-56,-1,-1,0
1523627690382,589824,85,-56,-1,-1,0
1523627690382,983040,85,-56,-1,-1,0
1523627690382,1376256,85,-56,-1,-1,0
1523627690382,1638400,85,-56,-1,-1,0
1523627690422,1835008,85,-56,-1,-1,0
1523627690422,2031616,85,-56,-1,-1,0
1523627690422,2162688,85,-56,-1,-1,0
1523627690422,2031616,85,-56,-1,-1,0
1523627690422,1572864,85,-56,-1,-1,0
1523627690462,1114112,85,-56,-1,-1,0
1523627690462,720896,85,-56,-1,-1,0
1523627690462,393216,85,-56,-1,-1,0
1523627690462,0,85,-56,-1,-1,0
1523627690462,-196608,85,-56,-1,-1,0
1523627690502,-327680,85,-56,-1,-1,0
1523627690502,-327680,85,-56,-1,-1,0
1523627690502,-327680,85,-56,-1,-1,0
1523627690502,-262144,85,-56,-1,-1,0
1523627690502,-262144,85,-56,-1,-1,0
1523627690542,-262144,85,-56,-1,-1,0
1523627690542,-327680,85,-56,-1,-1,0
1523627690542,-393216,85,-56,-1,-1,0
1523627690542,-327680,85,-56,-1,-1,0
1523627690542,-393216,85,-56,-1,-1,0
1523627690582,-458752,85,-56,-1,-1,0
1523627690582,-458752,85,-56,-1,-1,0
1523627690582,-327680,85,-56,-1,-1,0
1523627690582,-262144,85,-56,-1,-1,0
1523627690582,-262144,85,-56,-1,-1,0
1523627690622,-262144,85,-56,-1,-1,0
1523627690622,-262144,85,-56,-1,-1,0
1523627690622,-262144,85,-56,-1,-1,0
1523627690622,-262144,85,-56,-1,-1,0
1523627690622,-262144,85,-56,-1,-1,0
1523627690662,-262144,85,-56,-1,-1,0
1523627690662,-196608,85,-56,-1,-1,0
1523627690662,-196608,85,-56,-1,-1,0
1523627690662,-262144,85,-56,-1,-1,0
1523627690662,-262144,85,-56,-1,-1,0
1523627690711,-262144,85,-56,-1,-1,0
1523627690711,-262144,85,-56,-1,-1,0
1523627690711,-393216,85,-56,-1,-1,0
1523627690711,-393216,85,-56,-1,-1,0
1523627690711,-393216,85,-56,-1,-1,0
1523627690742,-327680,85,-56,-1,-1,0
1523627690742,-327680,85,-56,-1,-1,0
1523627690742,-327680,85,-56,-1,-1,0
1523627690742,-393216,85,-56,-1,-1,0
1523627690742,-393216,85,-56,-1,-1,0
1523627690782,-393216,85,-56,-1,-1,0
1523627690782,-393216,85,-56,-1,-1,0
1523627690782,-458752,85,-56,-1,-1,0
1523627690782,-524288,85,-56,-1,-1,0
1523627690782,-524288,85,-56,-1,-1,0
1523627690822,-458752,85,-56,-1,-1,0
1523627690822,-393216,85,-56,-1,-1,0
1523627690822,-327680,85,-56,-1,-1,0
1523627690822,-262144,85,-56,-1,-1,0
1523627690822,-327680,85,-56,-1,-1,0
1523627690862,-393216,85,-56,-1,-1,0
1523627690862,-393216,85,-56,-1,-1,0
1523627690862,-327680,85,-56,-1,-1,0
1523627690862,-393216,85,-56,-1,-1,0
1523627690862,-393216,85,-56,-1,-1,0
1523627690902,-458752,85,-56,-1,-1,0
1523627690902,-458752,85,-56,-1,-1,0
1523627690902,-589824,85,-56,-1,-1,0
1523627690902,-917504,85,-56,-1,-1,0
1523627690902,-851968,85,-56,-1,-1,0
1523627690942,393216,85,-56,-1,-1,0
1523627690942,3014656,85,-56,-1,-1,0
1523627690942,4915200,85,-56,-1,-1,0
1523627690942,3866624,85,-56,-1,-1,0
1523627690942,1048576,85,-56,-1,-1,0
1523627690982,-655360,85,-56,-1,-1,0
1523627690982,-917504,85,-56,-1,-1,0
1523627690982,-720896,85,-56,-1,-1,0
1523627690982,-524288,85,-56,-1,-1,0
1523627690982,-458752,85,-56,-1,-1,0
1523627691022,-393216,85,-56,-1,-1,0
1523627691022,-393216,85,-56,-1,-1,0
1523627691022,-393216,85,-56,-1,-1,0
1523627691022,-393216,85,-56,-1,-1,0
1523627691022,-393216,85,-56,-1,-1,0
1523627691062,-327680,84,-56,-1,-1,0
1523627691062,-327680,84,-56,-1,-1,0
1523627691062,-327680,84,-56,-1,-1,0
1523627691062,-327680,84,-56,-1,-1,0
1523627691062,-262144,84,-56,-1,-1,0
1523627691102,-196608,84,-56,-1,-1,0
1523627691102,-65536,84,-56,-1,-1,0
1523627691102,0,84,-56,-1,-1,0
1523627691102,0,84,-56,-1,-1,0
1523627691102,196608,84,-56,-1,-1,0
1523627691142,393216,84,-56,-1,-1,0
1523627691142,589824,84,-56,-1,-1,0
1523627691142,851968,84,-56,-1,-1,0
1523627691142,1114112,84,-56,-1,-1,0
1523627691142,1441792,84,-56,-1,-1,0
1523627691182,1638400,84,-56,-1,-1,0
1523627691182,1769472,84,-56,-1,-1,0
1523627691182,1835008,84,-56,-1,-1,0
1523627691182,1703936,84,-56,-1,-1,0
1523627691182,1310720,84,-56,-1,-1,0
1523627691222,851968,84,-56,-1,-1,0
1523627691222,524288,84,-56,-1,-1,0
1523627691222,131072,84,-56,-1,-1,0
1523627691222,-65536,84,-56,-1,-1,0
1523627691222,-262144,84,-56,-1,-1,0
1523627691262,-327680,84,-56,-1,-1,0
1523627691262,-327680,84,-56,-1,-1,0
1523627691262,-327680,84,-56,-1,-1,0
1523627691262,-327680,84,-56,-1,-1,0
1523627691262,-327680,84,-56,-1,-1,0
1523627691302,-327680,84,-56,-1,-1,0
1523627691302,-327680,84,-56,-1,-1,0
1523627691302,-327680,84,-56,-1,-1,0
1523627691302,-262144,84,-56,-1,-1,0
1523627691302,-262144,84,-56,-1,-1,0
1523627691351,-262144,84,-56,-1,-1,0
1523627691351,-262144,84,-56,-1,-1,0
1523627691351,-262144,84,-56,-1,-1,0
1523627691351,-196608,84,-56,-1,-1,0
1523627691351,-196608,84,-56,-1,-1,0
1523627691382,-196608,84,-56,-1,-1,0
1523627691382,-131072,84,-56,-1,-1,0
1523627691382,-65536,84,-56,-1,-1,0
1523627691382,-65536,84,-56,-1,-1,0
1523627691382,-65536,84,-56,-1,-1,0
1523627691422,-131072,84,-56,-1,-1,0
1523627691422,-131072,84,-56,-1,-1,0
1523627691422,-131072,84,-56,-1,-1,0
1523627691422,-131072,84,-56,-1,-1,0
1523627691422,-131072,84,-56,-1,-1,0
1523627691462,-65536,84,-56,-1,-1,0
1523627691462,-131072,84,-56,-1,-1,0
1523627691462,-196608,84,-56,-1,-1,0
1523627691462,-196608,84,-56,-1,-1,0
1523627691462,-131072,84,-56,-1,-1,0
1523627691502,-196608,84,-56,-1,-1,0
1523627691502,-262144,84,-56,-1,-1,0
1523627691502,-262144,84,-56,-1,-1,0
1523627691502,-262144,84,-56,-1,-1,0
1523627691502,-262144,84,-56,-1,-1,0
1523627691542,-262144,84,-56,-1,-1,0
1523627691542,-327680,84,-56,-1,-1,0
1523627691542,-327680,84,-56,-1,-1,0
1523627691542,-327680,84,-56,-1,-1,0
1523627691542,-327680,84,-56,-1,-1,0
1523627691582,-327680,84,-56,-1,-1,0
1523627691582,-393216,84,-56,-1,-1,0
1523627691582,-393216,84,-56,-1,-1,0
1523627691582,-458752,84,-56,-1,-1,0
1523627691582,-524288,84,-56,-1,-1,0
1523627691622,-524288,84,-56,-1,-1,0
1523627691622,-524288,84,-56,-1,-1,0
1523627691622,-524288,84,-56,-1,-1,0
1523627691622,-524288,84,-56,-1,-1,0
1523627691622,-524288,84,-56,-1,-1,0
1523627691662,-524288,84,-56,-1,-1,0
1523627691662,-524288,84,-56,-1,-1,0
1523627691662,-458752,84,-56,-1,-1,0
1523627691662,-458752,84,-56,-1,-1,0
1523627691662,-458752,84,-56,-1,-1,0
1523627691702,-393216,84,-56,-1,-1,0
1523627691702,-327680,84,-56,-1,-1,0
1523627691702,-327680,84,-56,-1,-1,0
1523627691702,-393216,84,-56,-1,-1,0
1523627691702,-458752,84,-56,-1,-1,0
1523627691742,-458752,84,-56,-1,-1,0
1523627691742,-393216,84,-56,-1,-1,0
1523627691742,-393216,84,-56,-1,-1,0
1523627691742,-524288,84,-56,-1,-1,0
1523627691742,-655360,84,-56,-1,-1,0
1523627691782,-1048576,84,-56,-1,-1,0
1523627691782,-1048576,84,-56,-1,-1,0
1523627691782,65536,84,-56,-1,-1,0
1523627691782,2752512,84,-56,-1,-1,0
1523627691782,5308416,84,-56,-1,-1,0
1523627691822,4849664,84,-56,-1,-1,0
1523627691822,2031616,84,-56,-1,-1,0
1523627691822,-65536,84,-56,-1,-1,0
1523627691822,-655360,84,-56,-1,-1,0
1523627691822,-589824,84,-56,-1,-1,0
1523627691862,-589824,84,-56,-1,-1,0
1523627691862,-524288,84,-56,-1,-1,0
1523627691862,-524288,84,-56,-1,-1,0
1523627691862,-458752,84,-56,-1,-1,0
1523627691862,-393216,84,-56,-1,-1,0
1523627691902,-458752,84,-56,-1,-1,0
1523627691902,-458752,84,-56,-1,-1,0
1523627691902,-393216,84,-56,-1,-1,0
1523627691902,-393216,84,-56,-1,-1,0
1523627691902,-393216,84,-56,-1,-1,0
1523627691942,-393216,84,-56,-1,-1,0
1523627691942,-327680,84,-56,-1,-1,0
1523627691942,-262144,84,-56,-1,-1,0
1523627691942,-131072,84,-56,-1,-1,0
1523627691942,0,84,-56,-1,-1,0
1523627691991,65536,82,-56,-1,-1,0
1523627691991,131072,82,-56,-1,-1,0
1523627691991,196608,82,-56,-1,-1,0
1523627691991,393216,82,-56,-1,-1,0
1523627691991,786432,82,-56,-1,-1,0
1523627692022,1114112,82,-56,-1,-1,0
1523627692022,1310720,82,-56,-1,-1,0
1523627692022,1441792,82,-56,-1,-1,0
1523627692022,1638400,82,-56,-1,-1,0
1523627692022,1835008,82,-56,-1,-1,0
1523627692062,1769472,82,-56,-1,-1,0
1523627692062,1441792,82,-56,-1,-1,0
1523627692062,983040,82,-56,-1,-1,0
1523627692062,589824,82,-56,-1,-1,0
1523627692062,262144,82,-56,-1,-1,0
1523627692102,65536,82,-56,-1,-1,0
1523627692102,0,82,-56,-1,-1,0
1523627692102,-65536,82,-56,-1,-1,0
1523627692102,-131072,82,-56,-1,-1,0
1523627692102,-262144,82,-56,-1,-1,0
1523627692142,-327680,82,-56,-1,-1,0
1523627692142,-262144,82,-56,-1,-1,0
1523627692142,-262144,82,-56,-1,-1,0
1523627692142,-262144,82,-56,-1,-1,0
1523627692142,-196608,82,-56,-1,-1,0
1523627692182,-196608,82,-56,-1,-1,0
1523627692182,-196608,82,-56,-1,-1,0
1523627692182,-196608,82,-56,-1,-1,0
1523627692182,-196608,82,-56,-1,-1,0
1523627692182,-131072,82,-56,-1,-1,0
1523627692222,-65536,82,-56,-1,-1,0
1523627692222,0,82,-56,-1,-1,0
1523627692222,0,82,-56,-1,-1,0
1523627692222,0,82,-56,-1,-1,0
1523627692222,65536,82,-56,-1,-1,0
1523627692262,0,82,-56,-1,-1,0
1523627692262,-131072,82,-56,-1,-1,0
1523627692262,-65536,82,-56,-1,-1,0
1523627692262,0,82,-56,-1,-1,0
1523627692262,0,82,-56,-1,-1,0
1523627692302,0,82,-56,-1,-1,0
1523627692302,0,82,-56,-1,-1,0
1523627692302,0,82,-56,-1,-1,0
1523627692302,0,82,-56,-1,-1,0
1523627692302,0,82,-56,-1,-1,0
1523627692342,-65536,82,-56,-1,-1,0
1523627692342,0,82,-56,-1,-1,0
1523627692342,0,82,-56,-1,-1,0
1523627692342,0,82,-56,-1,-1,0
1523627692342,-65536,82,-56,-1,-1,0
1523627692382,-65536,82,-56,-1,-1,0
1523627692382,-65536,82,-56,-1,-1,0
1523627692382,-196608,82,-56,-1,-1,0
1523627692382,-131072,82,-56,-1,-1,0
1523627692382,0,82,-56,-1,-1,0
1523627692422,0,82,-56,-1,-1,0
1523627692422,0,82,-56,-1,-1,0
1523627692422,-65536,82,-56,-1,-1,0
1523627692422,-65536,82,-56,-1,-1,0
1523627692422,-65536,82,-56,-1,-1,0
1523627692464,-65536,82,-56,-1,-1,0
1523627692464,-131072,82,-56,-1,-1,0
1523627692464,-196608,82,-56,-1,-1,0
1523627692464,-131072,82,-56,-1,-1,0
1523627692464,-196608,82,-56,-1,-1,0
1523627692502,-196608,82,-56,-1,-1,0
1523627692502,-131072,82,-56,-1,-1,0
1523627692502,-131072,82,-56,-1,-1,0
1523627692502,-196608,82,-56,-1,-1,0
1523627692502,-262144,82,-56,-1,-1,0
1523627692542,-262144,82,-56,-1,-1,0
1523627692542,-393216,82,-56,-1,-1,0
1523627692542,-458752,82,-56,-1,-1,0
1523627692542,-393216,82,-56,-1,-1,0
1523627692542,-458752,82,-56,-1,-1,0
1523627692582,-458752,82,-56,-1,-1,0
1523627692582,-393216,82,-56,-1,-1,0
1523627692582,-327680,82,-56,-1,-1,0
1523627692582,-262144,82,-56,-1,-1,0
1523627692582,-262144,82,-56,-1,-1,0
1523627692631,-262144,82,-56,-1,-1,0
1523627692631,-262144,82,-56,-1,-1,0
1523627692631,-327680,82,-56,-1,-1,0
1523627692631,-393216,82,-56,-1,-1,0
1523627692631,-393216,82,-56,-1,-1,0
1523627692662,-327680,82,-56,-1,-1,0
1523627692662,-393216,82,-56,-1,-1,0
1523627692662,-786432,82,-56,-1,-1,0
1523627692662,-1048576,82,-56,-1,-1,0
1523627692662,-393216,82,-56,-1,-1,0
1523627692702,1835008,82,-56,-1,-1,0
1523627692702,4718592,82,-56,-1,-1,0
1523627692702,5308416,82,-56,-1,-1,0
1523627692702,2949120,82,-56,-1,-1,0
1523627692702,327680,82,-56,-1,-1,0
1523627692742,-524288,82,-56,-1,-1,0
1523627692742,-655360,82,-56,-1,-1,0
1523627692742,-655360,82,-56,-1,-1,0
1523627692742,-655360,82,-56,-1,-1,0
1523627692742,-655360,82,-56,-1,-1,0
1523627692782,-589824,82,-56,-1,-1,0
1523627692782,-655360,82,-56,-1,-1,0
1523627692782,-589824,82,-56,-1,-1,0
1523627692782,-524288,82,-56,-1,-1,0
1523627692782,-524288,82,-56,-1,-1,0
1523627692822,-458752,82,-56,-1,-1,0
1523627692822,-458752,82,-56,-1,-1,0
1523627692822,-393216,82,-56,-1,-1,0
1523627692822,-327680,82,-56,-1,-1,0
1523627692822,-327680,82,-56,-1,-1,0
1523627692862,-327680,78,-56,-1,-1,0
1523627692862,-262144,78,-56,-1,-1,0
1523627692862,-131072,78,-56,-1,-1,0
1523627692862,65536,78,-56,-1,-1,0
1523627692862,196608,78,-56,-1,-1,0
1523627692902,393216,78,-56,-1,-1,0
1523627692902,589824,78,-56,-1,-1,0
1523627692902,851968,78,-56,-1,-1,0
1523627692902,1114112,78,-56,-1,-1,0
1523627692902,1441792,78,-56,-1,-1,0
1523627692942,1703936,78,-56,-1,-1,0
1523627692942,1835008,78,-56,-1,-1,0
1523627692942,1769472,78,-56,-1,-1,0
1523627692942,1572864,78,-56,-1,-1,0
1523627692942,1310720,78,-56,-1,-1,0
1523627692982,917504,78,-56,-1,-1,0
1523627692982,458752,78,-56,-1,-1,0
1523627692982,131072,78,-56,-1,-1,0
1523627692982,0,78,-56,-1,-1,0
1523627692982,-65536,78,-56,-1,-1,0
1523627693022,-131072,78,-56,-1,-1,0
1523627693022,-131072,78,-56,-1,-1,0
1523627693022,-196608,78,-56,-1,-1,0
1523627693022,-131072,78,-56,-1,-1,0
1523627693022,-131072,78,-56,-1,-1,0
1523627693062,-196608,78,-56,-1,-1,0
1523627693062,-131072,78,-56,-1,-1,0
1523627693062,-131072,78,-56,-1,-1,0
1523627693062,-131072,78,-56,-1,-1,0
1523627693062,-65536,78,-56,-1,-1,0
1523627693102,-65536,78,-56,-1,-1,0
1523627693102,-65536,78,-56,-1,-1,0
1523627693102,-131072,78,-56,-1,-1,0
1523627693102,-65536,78,-56,-1,-1,0
1523627693102,-131072,78,-56,-1,-1,0
1523627693142,-131072,78,-56,-1,-1,0
1523627693142,-65536,78,-56,-1,-1,0
1523627693142,-65536,78,-56,-1,-1,0
1523627693142,-131072,78,-56,-1,-1,0
1523627693142,-196608,78,-56,-1,-1,0
1523627693182,-196608,78,-56,-1,-1,0
1523627693182,-262144,78,-56,-1,-1,0
1523627693182,-196608,78,-56,-1,-1,0
1523627693182,-131072,78,-56,-1,-1,0
1523627693182,-131072,78,-56,-1,-1,0
1523627693222,-196608,78,-56,-1,-1,0
1523627693222,-262144,78,-56,-1,-1,0
1523627693222,-262144,78,-56,-1,-1,0
1523627693222,-327680,78,-56,-1,-1,0
1523627693222,-262144,78,-56,-1,-1,0
1523627693271,-262144,78,-56,-1,-1,0
1523627693271,-262144,78,-56,-1,-1,0
1523627693271,-196608,78,-56,-1,-1,0
1523627693271,-262144,78,-56,-1,-1,0
1523627693271,-196608,78,-56,-1,-1,0
1523627693302,-262144,78,-56,-1,-1,0
1523627693302,-327680,78,-56,-1,-1,0
1523627693302,-327680,78,-56,-1,-1,0
1523627693302,-327680,78,-56,-1,-1,0
1523627693302,-393216,78,-56,-1,-1,0
1523627693342,-393216,78,-56,-1,-1,0
1523627693342,-458752,78,-56,-1,-1,0
1523627693342,-458752,78,-56,-1,-1,0
1523627693342,-458752,78,-56,-1,-1,0
1523627693342,-458752,78,-56,-1,-1,0
1523627693382,-393216,78,-56,-1,-1,0
1523627693382,-327680,78,-56,-1,-1,0
1523627693382,-327680,78,-56,-1,-1,0
1523627693382,-393216,78,-56,-1,-1,0
1523627693382,-393216,78,-56,-1,-1,0
1523627693422,-393216,78,-56,-1,-1,0
1523627693422,-458752,78,-56,-1,-1,0
1523627693422,-524288,78,-56,-1,-1,0
1523627693422,-524288,78,-56,-1,-1,0
1523627693422,-524288,78,-56,-1,-1,0
1523627693462,-589824,78,-56,-1,-1,0
1523627693462,-589824,78,-56,-1,-1,0
1523627693462,-524288,78,-56,-1,-1,0
1523627693462,-458752,78,-56,-1,-1,0
1523627693462,-458752,78,-56,-1,-1,0
1523627693502,-393216,78,-56,-1,-1,0
1523627693502,-327680,78,-56,-1,-1,0
1523627693502,-327680,78,-56,-1,-1,0
1523627693502,-393216,78,-56,-1,-1,0
1523627693502,-458752,78,-56,-1,-1,0
1523627693543,-393216,78,-56,-1,-1,0
1523627693543,-393216,78,-56,-1,-1,0
1523627693543,-393216,78,-56,-1,-1,0
1523627693543,-458752,78,-56,-1,-1,0
1523627693543,-589824,78,-56,-1,-1,0
1523627693582,-917504,78,-56,-1,-1,0
1523627693582,-786432,78,-56,-1,-1,0
1523627693582,524288,78,-56,-1,-1,0
1523627693582,3211264,78,-56,-1,-1,0
1523627693582,4980736,78,-56,-1,-1,0
1523627693622,3670016,78,-56,-1,-1,0
1523627693622,983040,78,-56,-1,-1,0
1523627693622,-458752,78,-56,-1,-1,0
1523627693622,-655360,78,-56,-1,-1,0
1523627693622,-524288,78,-56,-1,-1,0
1523627693662,-393216,78,-56,-1,-1,0
1523627693662,-327680,78,-56,-1,-1,0
1523627693662,-327680,78,-56,-1,-1,0
1523627693662,-327680,78,-56,-1,-1,0
1523627693662,-327680,78,-56,-1,-1,0
1523627693702,-196608,78,-56,-1,-1,0
1523627693702,-131072,78,-56,-1,-1,0
1523627693702,-131072,78,-56,-1,-1,0
1523627693702,-196608,78,-56,-1,-1,0
1523627693702,-196608,78,-56,-1,-1,0
1523627693742,-131072,76,-56,-1,-1,0
1523627693742,-131072,76,-56,-1,-1,0
1523627693742,-131072,76,-56,-1,-1,0
1523627693742,0,76,-56,-1,-1,0
1523627693742,0,76,-56,-1,-1,0
1523627693782,131072,76,-56,-1,-1,0
1523627693782,196608,76,-56,-1,-1,0
1523627693782,393216,76,-56,-1,-1,0
1523627693782,589824,76,-56,-1,-1,0
1523627693782,851968,76,-56,-1,-1,0
1523627693822,1114112,76,-56,-1,-1,0
1523627693822,1376256,76,-56,-1,-1,0
1523627693822,1638400,76,-56,-1,-1,0
1523627693822,1769472,76,-56,-1,-1,0
1523627693822,1769472,76,-56,-1,-1,0
1523627693862,1638400,76,-56,-1,-1,0
1523627693862,1507328,76,-56,-1,-1,0
1523627693862,1179648,76,-56,-1,-1,0
1523627693862,786432,76,-56,-1,-1,0
1523627693862,393216,76,-56,-1,-1,0
1523627693911,131072,76,-56,-1,-1,0
1523627693911,0,76,-56,-1,-1,0
1523627693911,0,76,-56,-1,-1,0
1523627693911,-65536,76,-56,-1,-1,0
1523627693911,-131072,76,-56,-1,-1,0
1523627693942,-131072,76,-56,-1,-1,0
1523627693942,-131072,76,-56,-1,-1,0
1523627693942,-131072,76,-56,-1,-1,0
1523627693942,-131072,76,-56,-1,-1,0
1523627693942,-131072,76,-56,-1,-1,0
1523627693982,-65536,76,-56,-1,-1,0
1523627693982,-65536,76,-56,-1,-1,0
1523627693982,-65536,76,-56,-1,-1,0
1523627693982,-65536,76,-56,-1,-1,0
1523627693982,-65536,76,-56,-1,-1,0
1523627694022,-65536,76,-56,-1,-1,0
1523627694022,0,76,-56,-1,-1,0
1523627694022,0,76,-56,-1,-1,0
1523627694022,-65536,76,-56,-1,-1,0
1523627694022,-131072,76,-56,-1,-1,0
1523627694062,-196608,76,-56,-1,-1,0
1523627694062,-196608,76,-56,-1,-1,0
1523627694062,-196608,76,-56,-1,-1,0
1523627694062,-196608,76,-56,-1,-1,0
1523627694062,-196608,76,-56,-1,-1,0
1523627694102,-196608,76,-56,-1,-1,0
1523627694102,-131072,76,-56,-1,-1,0
1523627694102,-196608,76,-56,-1,-1,0
1523627694102,-262144,76,-56,-1,-1,0
1523627694102,-327680,76,-56,-1,-1,0
1523627694142,-393216,76,-56,-1,-1,0
1523627694142,-393216,76,-56,-1,-1,0
1523627694142,-327680,76,-56,-1,-1,0
1523627694142,-262144,76,-56,-1,-1,0
1523627694142,-327680,76,-56,-1,-1,0
1523627694182,-393216,76,-56,-1,-1,0
1523627694182,-458752,76,-56,-1,-1,0
1523627694182,-393216,76,-56,-1,-1,0
1523627694182,-327680,76,-56,-1,-1,0
1523627694182,-327680,76,-56,-1,-1,0
1523627694222,-327680,76,-56,-1,-1,0
1523627694222,-393216,76,-56,-1,-1,0
1523627694222,-327680,76,-56,-1,-1,0
1523627694222,-393216,76,-56,-1,-1,0
1523627694222,-458752,76,-56,-1,-1,0
1523627694262,-393216,76,-56,-1,-1,0
1523627694262,-393216,76,-56,-1,-1,0
1523627694262,-393216,76,-56,-1,-1,0
1523627694262,-393216,76,-56,-1,-1,0
1523627694262,-393216,76,-56,-1,-1,0
1523627694302,-327680,76,-56,-1,-1,0
1523627694302,-327680,76,-56,-1,-1,0
1523627694302,-458752,76,-56,-1,-1,0
1523627694302,-458752,76,-56,-1,-1,0
1523627694302,-393216,76,-56,-1,-1,0
1523627694342,-458752,76,-56,-1,-1,0
1523627694342,-524288,76,-56,-1,-1,0
1523627694342,-524288,76,-56,-1,-1,0
1523627694342,-458752,76,-56,-1,-1,0
1523627694342,-393216,76,-56,-1,-1,0
1523627694382,-393216,76,-56,-1,-1,0
1523627694382,-327680,76,-56,-1,-1,0
1523627694382,-262144,76,-56,-1,-1,0
1523627694382,-262144,76,-56,-1,-1,0
1523627694382,-393216,76,-56,-1,-1,0
1523627694422,-458752,76,-56,-1,-1,0
1523627694422,-393216,76,-56,-1,-1,0
1523627694422,-393216,76,-56,-1,-1,0
1523627694422,-393216,76,-56,-1,-1,0
1523627694422,-393216,76,-56,-1,-1,0
1523627694462,-524288,76,-56,-1,-1,0
1523627694462,-851968,76,-56,-1,-1,0
1523627694462,-786432,76,-56,-1,-1,0
1523627694462,327680,76,-56,-1,-1,0
1523627694462,2752512,76,-56,-1,-1,0
1523627694502,4521984,76,-56,-1,-1,0
1523627694502,3604480,76,-56,-1,-1,0
1523627694502,1048576,76,-56,-1,-1,0
1523627694502,-458752,76,-56,-1,-1,0
1523627694502,-720896,76,-56,-1,-1,0
1523627694551,-589824,76,-56,-1,-1,0
1523627694551,-458752,76,-56,-1,-1,0
1523627694551,-393216,76,-56,-1,-1,0
1523627694551,-458752,76,-56,-1,-1,0
1523627694551,-458752,76,-56,-1,-1,0
1523627694582,-458752,76,-56,-1,-1,0
1523627694582,-393216,76,-56,-1,-1,0
1523627694582,-393216,76,-56,-1,-1,0
1523627694582,-327680,76,-56,-1,-1,0
1523627694582,-327680,76,-56,-1,-1,0
1523627694622,-327680,73,-56,-1,-1,0
1523627694622,-327680,73,-56,-1,-1,0
1523627694622,-262144,73,-56,-1,-1,0
1523627694622,-196608,73,-56,-1,-1,0
1523627694622,-131072,73,-56,-1,-1,0
1523627694662,-131072,73,-56,-1,-1,0
1523627694662,0,73,-56,-1,-1,0
1523627694662,65536,73,-56,-1,-1,0
1523627694662,262144,73,-56,-1,-1,0
1523627694662,458752,73,-56,-1,-1,0
1523627694702,655360,73,-56,-1,-1,0
1523627694702,917504,73,-56,-1,-1,0
1523627694702,1179648,73,-56,-1,-1,0
1523627694702,1441792,73,-56,-1,-1,0
1523627694702,1638400,73,-56,-1,-1,0
1523627694742,1703936,73,-56,-1,-1,0
1523627694742,1638400,73,-56,-1,-1,0
1523627694742,1376256,73,-56,-1,-1,0
1523627694742,983040,73,-56,-1,-1,0
1523627694742,655360,73,-56,-1,-1,0
1523627694782,327680,73,-56,-1,-1,0
1523627694782,131072,73,-56,-1,-1,0
1523627694782,0,73,-56,-1,-1,0
1523627694782,-131072,73,-56,-1,-1,0
1523627694782,-262144,73,-56,-1,-1,0
1523627694822,-262144,73,-56,-1,-1,0
1523627694822,-262144,73,-56,-1,-1,0
1523627694822,-196608,73,-56,-1,-1,0
1523627694822,-196608,73,-56,-1,-1,0
1523627694822,-196608,73,-56,-1,-1,0
1523627694862,-196608,73,-56,-1,-1,0
1523627694862,-196608,73,-56,-1,-1,0
1523627694862,-196608,73,-56,-1,-1,0
1523627694862,-131072,73,-56,-1,-1,0
1523627694862,-65536,73,-56,-1,-1,0
1523627694902,-65536,73,-56,-1,-1,0
1523627694902,-131072,73,-56,-1,-1,0
1523627694902,-65536,73,-56,-1,-1,0
1523627694902,-65536,73,-56,-1,-1,0
1523627694902,-65536,73,-56,-1,-1,0
1523627694942,-65536,73,-56,-1,-1,0
1523627694942,-65536,73,-56,-1,-1,0
1523627694942,-131072,73,-56,-1,-1,0
1523627694942,-131072,73,-56,-1,-1,0
1523627694942,-65536,73,-56,-1,-1,0
1523627694982,-65536,73,-56,-1,-1,0
1523627694982,-131072,73,-56,-1,-1,0
1523627694982,-131072,73,-56,-1,-1,0
1523627694982,-131072,73,-56,-1,-1,0
1523627694982,-131072,73,-56,-1,-1,0
1523627695022,-131072,73,-56,-1,-1,0
1523627695022,-131072,73,-56,-1,-1,0
1523627695022,-131072,73,-56,-1,-1,0
1523627695022,-131072,73,-56,-1,-1,0
1523627695022,-196608,73,-56,-1,-1,0
1523627695062,-262144,73,-56,-1,-1,0
1523627695062,-262144,73,-56,-1,-1,0
1523627695062,-196608,73,-56,-1,-1,0
1523627695062,-196608,73,-56,-1,-1,0
1523627695062,-196608,73,-56,-1,-1,0
1523627695104,-196608,73,-56,-1,-1,0
1523627695104,-196608,73,-56,-1,-1,0
1523627695104,-196608,73,-56,-1,-1,0
1523627695104,-196608,73,-56,-1,-1,0
1523627695104,-196608,73,-56,-1,-1,0
1523627695142,-196608,73,-56,-1,-1,0
1523627695142,-196608,73,-56,-1,-1,0
1523627695142,-196608,73,-56,-1,-1,0
1523627695142,-196608,73,-56,-1,-1,0
1523627695142,-196608,73,-56,-1,-1,0
1523627695191,-262144,73,-56,-1,-1,0
1523627695191,-262144,73,-56,-1,-1,0
1523627695191,-327680,73,-56,-1,-1,0
1523627695191,-327680,73,-56,-1,-1,0
1523627695191,-327680,73,-56,-1,-1,0
1523627695222,-327680,73,-56,-1,-1,0
1523627695222,-393216,73,-56,-1,-1,0
1523627695222,-393216,73,-56,-1,-1,0
1523627695222,-327680,73,-56,-1,-1,0
1523627695222,-327680,73,-56,-1,-1,0
1523627695262,-262144,73,-56,-1,-1,0
1523627695262,-196608,73,-56,-1,-1,0
1523627695262,-196608,73,-56,-1,-1,0
1523627695262,-262144,73,-56,-1,-1,0
1523627695262,-262144,73,-56,-1,-1,0
1523627695302,-327680,73,-56,-1,-1,0
1523627695302,-327680,73,-56,-1,-1,0
1523627695302,-327680,73,-56,-1,-1,0
1523627695302,-327680,73,-56,-1,-1,0
1523627695302,-458752,73,-56,-1,-1,0
1523627695342,-786432,73,-56,-1,-1,0
1523627695342,-786432,73,-56,-1,-1,0
1523627695342,327680,73,-56,-1,-1,0
1523627695342,2752512,73,-56,-1,-1,0
1523627695342,4587520,73,-56,-1,-1,0
1523627695382,3604480,73,-56,-1,-1,0
1523627695382,983040,73,-56,-1,-1,0
1523627695382,-458752,73,-56,-1,-1,0
1523627695382,-655360,73,-56,-1,-1,0
1523627695382,-458752,73,-56,-1,-1,0
1523627695422,-458752,73,-56,-1,-1,0
1523627695422,-393216,73,-56,-1,-1,0
1523627695422,-393216,73,-56,-1,-1,0
1523627695422,-393216,73,-56,-1,-1,0
1523627695422,-393216,73,-56,-1,-1,0
1523627695462,-327680,72,-56,-1,-1,0
1523627695462,-327680,72,-56,-1,-1,0
1523627695462,-327680,72,-56,-1,-1,0
1523627695462,-327680,72,-56,-1,-1,0
1523627695462,-196608,72,-56,-1,-1,0
1523627695502,-262144,72,-56,-1,-1,0
1523627695502,-262144,72,-56,-1,-1,0
1523627695502,-196608,72,-56,-1,-1,0
1523627695502,-131072,72,-56,-1,-1,0
1523627695502,-65536,72,-56,-1,-1,0
1523627695542,0,72,-56,-1,-1,0
1523627695542,65536,72,-56,-1,-1,0
1523627695542,262144,72,-56,-1,-1,0
1523627695542,458752,72,-56,-1,-1,0
1523627695542,655360,72,-56,-1,-1,0
1523627695582,917504,72,-56,-1,-1,0
1523627695582,1179648,72,-56,-1,-1,0
1523627695582,1376256,72,-56,-1,-1,0
1523627695582,1572864,72,-56,-1,-1,0
1523627695582,1638400,72,-56,-1,-1,0
1523627695622,1572864,72,-56,-1,-1,0
1523627695622,1376256,72,-56,-1,-1,0
1523627695622,1048576,72,-56,-1,-1,0
1523627695622,720896,72,-56,-1,-1,0
1523627695622,327680,72,-56,-1,-1,0
1523627695662,0,72,-56,-1,-1,0
1523627695662,-65536,72,-56,-1,-1,0
1523627695662,-131072,72,-56,-1,-1,0
1523627695662,-196608,72,-56,-1,-1,0
1523627695662,-262144,72,-56,-1,-1,0
1523627695702,-262144,72,-56,-1,-1,0
1523627695702,-262144,72,-56,-1,-1,0
1523627695702,-262144,72,-56,-1,-1,0
1523627695702,-327680,72,-56,-1,-1,0
1523627695702,-327680,72,-56,-1,-1,0
1523627695742,-327680,72,-56,-1,-1,0
1523627695742,-262144,72,-56,-1,-1,0
1523627695742,-196608,72,-56,-1,-1,0
1523627695742,-131072,72,-56,-1,-1,0
1523627695742,-196608,72,-56,-1,-1,0
1523627695782,-262144,72,-56,-1,-1,0
1523627695782,-262144,72,-56,-1,-1,0
1523627695782,-262144,72,-56,-1,-1,0
1523627695782,-196608,72,-56,-1,-1,0
1523627695782,-131072,72,-56,-1,-1,0
1523627695831,-131072,72,-56,-1,-1,0
1523627695831,-196608,72,-56,-1,-1,0
1523627695831,-196608,72,-56,-1,-1,0
1523627695831,-131072,72,-56,-1,-1,0
1523627695831,-131072,72,-56,-1,-1,0
1523627695862,-196608,72,-56,-1,-1,0
1523627695862,-196608,72,-56,-1,-1,0
1523627695862,-196608,72,-56,-1,-1,0
1523627695862,-196608,72,-56,-1,-1,0
1523627695862,-262144,72,-56,-1,-1,0
1523627695903,-262144,72,-56,-1,-1,0
1523627695903,-262144,72,-56,-1,-1,0
1523627695903,-262144,72,-56,-1,-1,0
1523627695903,-262144,72,-56,-1,-1,0
1523627695903,-262144,72,-56,-1,-1,0
1523627695942,-327680,72,-56,-1,-1,0
1523627695942,-327680,72,-56,-1,-1,0
1523627695942,-327680,72,-56,-1,-1,0
1523627695942,-262144,72,-56,-1,-1,0
1523627695942,-262144,72,-56,-1,-1,0
1523627695982,-327680,72,-56,-1,-1,0
1523627695982,-327680,72,-56,-1,-1,0
1523627695982,-327680,72,-56,-1,-1,0
1523627695982,-327680,72,-56,-1,-1,0
1523627695982,-327680,72,-56,-1,-1,0
1523627696022,-393216,72,-56,-1,-1,0
1523627696022,-393216,72,-56,-1,-1,0
1523627696022,-458752,72,-56,-1,-1,0
1523627696022,-524288,72,-56,-1,-1,0
1523627696022,-458752,72,-56,-1,-1,0
1523627696062,-458752,72,-56,-1,-1,0
1523627696062,-327680,72,-56,-1,-1,0
1523627696062,-262144,72,-56,-1,-1,0
1523627696062,-196608,72,-56,-1,-1,0
1523627696062,-196608,72,-56,-1,-1,0
1523627696102,-327680,72,-56,-1,-1,0
1523627696102,-393216,72,-56,-1,-1,0
1523627696102,-327680,72,-56,-1,-1,0
1523627696102,-262144,72,-56,-1,-1,0
1523627696102,-262144,72,-56,-1,-1,0
1523627696142,-327680,72,-56,-1,-1,0
1523627696142,-393216,72,-56,-1,-1,0
1523627696142,-655360,72,-56,-1,-1,0
1523627696142,-720896,72,-56,-1,-1,0
1523627696142,-65536,72,-56,-1,-1,0
1523627696182,1769472,72,-56,-1,-1,0
1523627696182,3801088,72,-56,-1,-1,0
1523627696182,3735552,72,-56,-1,-1,0
1523627696182,1572864,72,-56,-1,-1,0
1523627696182,-327680,72,-56,-1,-1,0
1523627696222,-786432,71,-56,-1,-1,0
1523627696222,-655360,71,-56,-1,-1,0
1523627696222,-458752,71,-56,-1,-1,0
1523627696222,-393216,71,-56,-1,-1,0
1523627696222,-458752,71,-56,-1,-1,0
1523627696262,-458752,71,-56,-1,-1,0
1523627696262,-393216,71,-56,-1,-1,0
1523627696262,-393216,71,-56,-1,-1,0
1523627696262,-458752,71,-56,-1,-1,0
1523627696262,-393216,71,-56,-1,-1,0
1523627696302,-393216,71,-56,-1,-1,0
1523627696302,-393216,71,-56,-1,-1,0
1523627696302,-393216,71,-56,-1,-1,0
1523627696302,-327680,71,-56,-1,-1,0
1523627696302,-262144,71,-56,-1,-1,0
1523627696342,-262144,71,-56,-1,-1,0
1523627696342,-196608,71,-56,-1,-1,0
1523627696342,-65536,71,-56,-1,-1,0
1523627696342,0,71,-56,-1,-1,0
1523627696342,196608,71,-56,-1,-1,0
1523627696382,393216,71,-56,-1,-1,0
1523627696382,589824,71,-56,-1,-1,0
1523627696382,917504,71,-56,-1,-1,0
1523627696382,1179648,71,-56,-1,-1,0
1523627696382,1376256,71,-56,-1,-1,0
1523627696422,1572864,71,-56,-1,-1,0
1523627696422,1703936,71,-56,-1,-1,0
1523627696422,1638400,71,-56,-1,-1,0
1523627696422,1441792,71,-56,-1,-1,0
1523627696422,1114112,71,-56,-1,-1,0
1523627696471,786432,71,-56,-1,-1,0
1523627696471,458752,71,-56,-1,-1,0
1523627696471,131072,71,-56,-1,-1,0
1523627696471,0,71,-56,-1,-1,0
1523627696471,-131072,71,-56,-1,-1,0
1523627696502,-262144,71,-56,-1,-1,0
1523627696502,-327680,71,-56,-1,-1,0
1523627696502,-327680,71,-56,-1,-1,0
1523627696502,-327680,71,-56,-1,-1,0
1523627696502,-327680,71,-56,-1,-1,0
1523627696542,-262144,71,-56,-1,-1,0
1523627696542,-262144,71,-56,-1,-1,0
1523627696542,-327680,71,-56,-1,-1,0
1523627696542,-393216,71,-56,-1,-1,0
1523627696542,-327680,71,-56,-1,-1,0
1523627696583,-262144,71,-56,-1,-1,0
1523627696583,-262144,71,-56,-1,-1,0
1523627696583,-262144,71,-56,-1,-1,0
1523627696583,-262144,71,-56,-1,-1,0
1523627696583,-196608,71,-56,-1,-1,0
1523627696623,-196608,71,-56,-1,-1,0
1523627696623,-131072,71,-56,-1,-1,0
1523627696623,-131072,71,-56,-1,-1,0
1523627696623,-131072,71,-56,-1,-1,0
1523627696623,-131072,71,-56,-1,-1,0
1523627696662,-131072,71,-56,-1,-1,0
1523627696662,-131072,71,-56,-1,-1,0
1523627696662,-131072,71,-56,-1,-1,0
1523627696662,-196608,71,-56,-1,-1,0
1523627696662,-196608,71,-56,-1,-1,0
1523627696702,-196608,71,-56,-1,-1,0
1523627696702,-196608,71,-56,-1,-1,0
1523627696702,-131072,71,-56,-1,-1,0
1523627696702,0,71,-56,-1,-1,0
1523627696702,-65536,71,-56,-1,-1,0
1523627696742,-196608,71,-56,-1,-1,0
1523627696742,-327680,71,-56,-1,-1,0
1523627696742,-327680,71,-56,-1,-1,0
1523627696742,-262144,71,-56,-1,-1,0
1523627696742,-196608,71,-56,-1,-1,0
1523627696782,-196608,71,-56,-1,-1,0
1523627696782,-196608,71,-56,-1,-1,0
1523627696782,-262144,71,-56,-1,-1,0
1523627696782,-262144,71,-56,-1,-1,0
1523627696782,-262144,71,-56,-1,-1,0
1523627696822,-327680,71,-56,-1,-1,0
1523627696822,-327680,71,-56,-1,-1,0
1523627696822,-393216,71,-56,-1,-1,0
1523627696822,-327680,71,-56,-1,-1,0
1523627696822,-196608,71,-56,-1,-1,0
1523627696862,-131072,71,-56,-1,-1,0
1523627696862,-131072,71,-56,-1,-1,0
1523627696862,-131072,71,-56,-1,-1,0
1523627696862,-196608,71,-56,-1,-1,0
1523627696862,-262144,71,-56,-1,-1,0
1523627696902,-196608,71,-56,-1,-1,0
1523627696902,-196608,71,-56,-1,-1,0
1523627696902,-196608,71,-56,-1,-1,0
1523627696902,-196608,71,-56,-1,-1,0
1523627696902,-262144,71,-56,-1,-1,0
1523627696942,-589824,71,-56,-1,-1,0
1523627696942,-720896,71,-56,-1,-1,0
1523627696942,-131072,71,-56,-1,-1,0
1523627696942,1638400,71,-56,-1,-1,0
1523627696942,3735552,71,-56,-1,-1,0
1523627696982,3801088,71,-56,-1,-1,0
1523627696982,1835008,71,-56,-1,-1,0
1523627696982,-131072,71,-56,-1,-1,0
1523627696982,-655360,71,-56,-1,-1,0
1523627696982,-589824,71,-56,-1,-1,0
1523627697022,-393216,71,-56,-1,-1,0
1523627697022,-327680,71,-56,-1,-1,0
1523627697022,-327680,71,-56,-1,-1,0
1523627697022,-327680,71,-56,-1,-1,0
1523627697022,-393216,71,-56,-1,-1,0
1523627697062,-327680,71,-56,-1,-1,0
1523627697062,-393216,71,-56,-1,-1,0
1523627697062,-327680,71,-56,-1,-1,0
1523627697062,-327680,71,-56,-1,-1,0
1523627697062,-262144,71,-56,-1,-1,0
1523627697111,-196608,71,-56,-1,-1,0
1523627697111,-262144,71,-56,-1,-1,0
1523627697111,-262144,71,-56,-1,-1,0
1523627697111,-196608,71,-56,-1,-1,0
1523627697111,-131072,71,-56,-1,-1,0
1523627697142,-65536,71,-56,-1,-1,0
1523627697142,0,71,-56,-1,-1,0
1523627697142,131072,71,-56,-1,-1,0
1523627697142,327680,71,-56,-1,-1,0
1523627697142,589824,71,-56,-1,-1,0
1523627697182,851968,71,-56,-1,-1,0
1523627697182,1048576,71,-56,-1,-1,0
1523627697182,1310720,71,-56,-1,-1,0
1523627697182,1376256,71,-56,-1,-1,0
1523627697182,1441792,71,-56,-1,-1,0
1523627697222,1441792,71,-56,-1,-1,0
1523627697222,1245184,71,-56,-1,-1,0
1523627697222,983040,71,-56,-1,-1,0
1523627697222,589824,71,-56,-1,-1,0
1523627697222,196608,71,-56,-1,-1,0
1523627697262,0,71,-56,-1,-1,0
1523627697262,-131072,71,-56,-1,-1,0
1523627697262,-262144,71,-56,-1,-1,0
1523627697262,-393216,71,-56,-1,-1,0
1523627697262,-393216,71,-56,-1,-1,0
1523627697302,-393216,71,-56,-1,-1,0
1523627697302,-458752,71,-56,-1,-1,0
1523627697302,-458752,71,-56,-1,-1,0
1523627697302,-458752,71,-56,-1,-1,0
1523627697302,-458752,71,-56,-1,-1,0
1523627697342,-393216,71,-56,-1,-1,0
1523627697342,-327680,71,-56,-1,-1,0
1523627697342,-262144,71,-56,-1,-1,0
1523627697342,-393216,71,-56,-1,-1,0
1523627697342,-458752,71,-56,-1,-1,0
1523627697382,-393216,71,-56,-1,-1,0
1523627697382,-327680,71,-56,-1,-1,0
1523627697382,-262144,71,-56,-1,-1,0
1523627697382,-262144,71,-56,-1,-1,0
1523627697382,-262144,71,-56,-1,-1,0
1523627697422,-262144,71,-56,-1,-1,0
1523627697422,-262144,71,-56,-1,-1,0
1523627697422,-327680,71,-56,-1,-1,0
1523627697422,-393216,71,-56,-1,-1,0
1523627697422,-393216,71,-56,-1,-1,0
1523627697462,-393216,71,-56,-1,-1,0
1523627697462,-393216,71,-56,-1,-1,0
1523627697462,-393216,71,-56,-1,-1,0
1523627697462,-393216,71,-56,-1,-1,0
1523627697462,-327680,71,-56,-1,-1,0
1523627697503,-327680,71,-56,-1,-1,0
1523627697503,-262144,71,-56,-1,-1,0
1523627697503,-327680,71,-56,-1,-1,0
1523627697503,-327680,71,-56,-1,-1,0
1523627697503,-327680,71,-56,-1,-1,0
1523627697542,-327680,71,-56,-1,-1,0
1523627697542,-393216,71,-56,-1,-1,0
1523627697542,-393216,71,-56,-1,-1,0
1523627697542,-393216,71,-56,-1,-1,0
1523627697542,-393216,71,-56,-1,-1,0
1523627697583,-458752,71,-56,-1,-1,0
1523627697583,-458752,71,-56,-1,-1,0
1523627697583,-458752,71,-56,-1,-1,0
1523627697583,-458752,71,-56,-1,-1,0
1523627697583,-393216,71,-56,-1,-1,0
1523627697622,-327680,71,-56,-1,-1,0
1523627697622,-262144,71,-56,-1,-1,0
1523627697622,-262144,71,-56,-1,-1,0
1523627697622,-262144,71,-56,-1,-1,0
1523627697622,-327680,71,-56,-1,-1,0
1523627697663,-393216,71,-56,-1,-1,0
1523627697663,-393216,71,-56,-1,-1,0
1523627697663,-393216,71,-56,-1,-1,0
1523627697663,-393216,71,-56,-1,-1,0
1523627697663,-262144,71,-56,-1,-1,0
1523627697702,-262144,71,-56,-1,-1,0
1523627697702,-458752,71,-56,-1,-1,0
1523627697702,-851968,71,-56,-1,-1,0
1523627697702,-589824,71,-56,-1,-1,0
1523627697702,720896,71,-56,-1,-1,0
1523627697751,2818048,71,-56,-1,-1,0
1523627697751,3735552,71,-56,-1,-1,0
1523627697751,2359296,71,-56,-1,-1,0
1523627697751,262144,71,-56,-1,-1,0
1523627697751,-589824,71,-56,-1,-1,0
1523627697782,-524288,72,-56,-1,-1,0
1523627697782,-196608,72,-56,-1,-1,0
1523627697782,65536,72,-56,-1,-1,0
1523627697782,0,72,-56,-1,-1,0
1523627697782,-327680,72,-56,-1,-1,0
1523627697822,-655360,72,-56,-1,-1,0
1523627697822,-786432,72,-56,-1,-1,0
1523627697822,-655360,72,-56,-1,-1,0
1523627697822,-524288,72,-56,-1,-1,0
1523627697822,-393216,72,-56,-1,-1,0
1523627697862,-327680,72,-56,-1,-1,0
1523627697862,-262144,72,-56,-1,-1,0
1523627697862,-196608,72,-56,-1,-1,0
1523627697862,-65536,72,-56,-1,-1,0
1523627697862,-65536,72,-56,-1,-1,0
1523627697902,-65536,72,-56,-1,-1,0
1523627697902,-65536,72,-56,-1,-1,0
1523627697902,0,72,-56,-1,-1,0
1523627697902,65536,72,-56,-1,-1,0
1523627697902,262144,72,-56,-1,-1,0
1523627697942,458752,72,-56,-1,-1,0
1523627697942,720896,72,-56,-1,-1,0
1523627697942,983040,72,-56,-1,-1,0
1523627697942,1310720,72,-56,-1,-1,0
1523627697942,1507328,72,-56,-1,-1,0
1523627697982,1703936,72,-56,-1,-1,0
1523627697982,1703936,72,-56,-1,-1,0
1523627697982,1572864,72,-56,-1,-1,0
1523627697982,1245184,72,-56,-1,-1,0
1523627697982,917504,72,-56,-1,-1,0
1523627698022,524288,72,-56,-1,-1,0
1523627698022,196608,72,-56,-1,-1,0
1523627698022,65536,72,-56,-1,-1,0
1523627698022,0,72,-56,-1,-1,0
1523627698022,-131072,72,-56,-1,-1,0
1523627698062,-196608,72,-56,-1,-1,0
1523627698062,-196608,72,-56,-1,-1,0
1523627698062,-196608,72,-56,-1,-1,0
1523627698062,-262144,72,-56,-1,-1,0
1523627698062,-196608,72,-56,-1,-1,0
1523627698102,-196608,72,-56,-1,-1,0
1523627698102,-131072,72,-56,-1,-1,0
1523627698102,-131072,72,-56,-1,-1,0
1523627698102,-131072,72,-56,-1,-1,0
1523627698102,-131072,72,-56,-1,-1,0
1523627698142,-131072,72,-56,-1,-1,0
1523627698142,-65536,72,-56,-1,-1,0
1523627698142,0,72,-56,-1,-1,0
1523627698142,-65536,72,-56,-1,-1,0
1523627698142,-131072,72,-56,-1,-1,0
1523627698182,-65536,72,-56,-1,-1,0
1523627698182,-65536,72,-56,-1,-1,0
1523627698182,-65536,72,-56,-1,-1,0
1523627698182,0,72,-56,-1,-1,0
1523627698182,0,72,-56,-1,-1,0
1523627698222,65536,72,-56,-1,-1,0
1523627698222,0,72,-56,-1,-1,0
1523627698222,-65536,72,-56,-1,-1,0
1523627698222,-65536,72,-56,-1,-1,0
1523627698222,0,72,-56,-1,-1,0
1523627698262,0,72,-56,-1,-1,0
1523627698262,0,72,-56,-1,-1,0
1523627698262,0,72,-56,-1,-1,0
1523627698262,-65536,72,-56,-1,-1,0
1523627698262,-131072,72,-56,-1,-1,0
1523627698302,-131072,72,-56,-1,-1,0
1523627698302,-65536,72,-56,-1,-1,0
1523627698302,0,72,-56,-1,-1,0
1523627698302,0,72,-56,-1,-1,0
1523627698302,-65536,72,-56,-1,-1,0
1523627698342,-65536,72,-56,-1,-1,0
1523627698342,-131072,72,-56,-1,-1,0
1523627698342,-65536,72,-56,-1,-1,0
1523627698342,-131072,72,-56,-1,-1,0
1523627698342,-131072,72,-56,-1,-1,0
1523627698391,-131072,72,-56,-1,-1,0
1523627698391,-65536,72,-56,-1,-1,0
1523627698391,-65536,72,-56,-1,-1,0
1523627698391,0,72,-56,-1,-1,0
1523627698391,0,72,-56,-1,-1,0
1523627698422,0,72,-56,-1,-1,0
1523627698422,0,72,-56,-1,-1,0
1523627698422,0,72,-56,-1,-1,0
1523627698422,0,72,-56,-1,-1,0
1523627698422,-65536,72,-56,-1,-1,0
1523627698462,-131072,72,-56,-1,-1,0
1523627698462,-131072,72,-56,-1,-1,0
1523627698462,-65536,72,-56,-1,-1,0
1523627698462,-131072,72,-56,-1,-1,0
1523627698462,-327680,72,-56,-1,-1,0
1523627698502,-458752,73,-56,-1,-1,0
1523627698502,131072,73,-56,-1,-1,0
1523627698502,1835008,73,-56,-1,-1,0
1523627698502,3866624,73,-56,-1,-1,0
1523627698502,3801088,73,-56,-1,-1,0
1523627698542,1769472,73,-56,-1,-1,0
1523627698542,-131072,73,-56,-1,-1,0
1523627698542,-589824,73,-56,-1,-1,0
1523627698542,-524288,73,-56,-1,-1,0
1523627698542,-327680,73,-56,-1,-1,0
1523627698582,-262144,73,-56,-1,-1,0
1523627698582,-262144,73,-56,-1,-1,0
1523627698582,-196608,73,-56,-1,-1,0
1523627698582,-131072,73,-56,-1,-1,0
1523627698582,-131072,73,-56,-1,-1,0
1523627698622,-196608,73,-56,-1,-1,0
1523627698622,-327680,73,-56,-1,-1,0
1523627698622,-458752,73,-56,-1,-1,0
1523627698622,-524288,73,-56,-1,-1,0
1523627698622,-458752,73,-56,-1,-1,0
1523627698662,-458752,73,-56,-1,-1,0
1523627698662,-393216,73,-56,-1,-1,0
1523627698662,-327680,73,-56,-1,-1,0
1523627698662,-196608,73,-56,-1,-1,0
1523627698662,-196608,73,-56,-1,-1,0
1523627698702,-196608,73,-56,-1,-1,0
1523627698702,0,73,-56,-1,-1,0
1523627698702,196608,73,-56,-1,-1,0
1523627698702,393216,73,-56,-1,-1,0
1523627698702,655360,73,-56,-1,-1,0
1523627698742,983040,73,-56,-1,-1,0
1523627698742,1245184,73,-56,-1,-1,0
1523627698742,1441792,73,-56,-1,-1,0
1523627698742,1572864,73,-56,-1,-1,0
1523627698742,1507328,73,-56,-1,-1,0
1523627698782,1310720,73,-56,-1,-1,0
1523627698782,983040,73,-56,-1,-1,0
1523627698782,589824,73,-56,-1,-1,0
1523627698782,262144,73,-56,-1,-1,0
1523627698782,-65536,73,-56,-1,-1,0
1523627698822,-327680,73,-56,-1,-1,0
1523627698822,-458752,73,-56,-1,-1,0
1523627698822,-524288,73,-56,-1,-1,0
1523627698822,-589824,73,-56,-1,-1,0
1523627698822,-589824,73,-56,-1,-1,0
1523627698862,-589824,73,-56,-1,-1,0
1523627698862,-589824,73,-56,-1,-1,0
1523627698862,-589824,73,-56,-1,-1,0
1523627698862,-589824,73,-56,-1,-1,0
1523627698862,-589824,73,-56,-1,-1,0
1523627698902,-589824,73,-56,-1,-1,0
1523627698902,-589824,73,-56,-1,-1,0
1523627698902,-589824,73,-56,-1,-1,0
1523627698902,-589824,73,-56,-1,-1,0
1523627698902,-524288,73,-56,-1,-1,0
1523627698942,-524288,73,-56,-1,-1,0
1523627698942,-524288,73,-56,-1,-1,0
1523627698942,-524288,73,-56,-1,-1,0
1523627698942,-393216,73,-56,-1,-1,0
1523627698942,-327680,73,-56,-1,-1,0
1523627698982,-327680,73,-56,-1,-1,0
1523627698982,-393216,73,-56,-1,-1,0
1523627698982,-393216,73,-56,-1,-1,0
1523627698982,-458752,73,-56,-1,-1,0
1523627698982,-393216,73,-56,-1,-1,0
1523627699031,-393216,73,-56,-1,-1,0
1523627699031,-327680,73,-56,-1,-1,0
1523627699031,-327680,73,-56,-1,-1,0
1523627699031,-327680,73,-56,-1,-1,0
1523627699031,-327680,73,-56,-1,-1,0
1523627699062,-327680,73,-56,-1,-1,0
1523627699062,-327680,73,-56,-1,-1,0
1523627699062,-327680,73,-56,-1,-1,0
1523627699062,-327680,73,-56,-1,-1,0
1523627699062,-327680,73,-56,-1,-1,0
1523627699102,-327680,73,-56,-1,-1,0
1523627699102,-262144,73,-56,-1,-1,0
1523627699102,-196608,73,-56,-1,-1,0
1523627699102,-131072,73,-56,-1,-1,0
1523627699102,-196608,73,-56,-1,-1,0
1523627699142,-196608,73,-56,-1,-1,0
1523627699142,-262144,73,-56,-1,-1,0
1523627699142,-262144,73,-56,-1,-1,0
1523627699142,-262144,73,-56,-1,-1,0
1523627699142,-327680,73,-56,-1,-1,0
1523627699182,-262144,73,-56,-1,-1,0
1523627699182,-262144,73,-56,-1,-1,0
1523627699182,-393216,73,-56,-1,-1,0
1523627699182,-458752,73,-56,-1,-1,0
1523627699182,65536,73,-56,-1,-1,0
1523627699222,2031616,73,-56,-1,-1,0
1523627699222,4587520,73,-56,-1,-1,0
1523627699222,4653056,73,-56,-1,-1,0
1523627699222,2031616,73,-56,-1,-1,0
1523627699222,-589824,73,-56,-1,-1,0
1523627699262,-1179648,73,-56,-1,-1,0
1523627699262,-851968,73,-56,-1,-1,0
1523627699262,-327680,73,-56,-1,-1,0
1523627699262,-131072,73,-56,-1,-1,0
1523627699262,0,73,-56,-1,-1,0
1523627699303,0,73,-56,-1,-1,0
1523627699303,0,73,-56,-1,-1,0
1523627699303,131072,73,-56,-1,-1,0
1523627699303,131072,73,-56,-1,-1,0
1523627699303,65536,73,-56,-1,-1,0
1523627699342,65536,73,-56,-1,-1,0
1523627699342,196608,73,-56,-1,-1,0
1523627699342,196608,73,-56,-1,-1,0
1523627699342,196608,73,-56,-1,-1,0
1523627699342,262144,73,-56,-1,-1,0
1523627699382,393216,73,-56,-1,-1,0
1523627699382,524288,73,-56,-1,-1,0
1523627699382,589824,73,-56,-1,-1,0
1523627699382,851968,73,-56,-1,-1,0
1523627699382,1048576,73,-56,-1,-1,0
1523627699422,1245184,73,-56,-1,-1,0
1523627699422,1572864,73,-56,-1,-1,0
1523627699422,2031616,73,-56,-1,-1,0
1523627699422,2424832,73,-56,-1,-1,0
1523627699422,2686976,73,-56,-1,-1,0
1523627699462,2686976,73,-56,-1,-1,0
1523627699462,2752512,73,-56,-1,-1,0
1523627699462,2621440,73,-56,-1,-1,0
1523627699462,2228224,73,-56,-1,-1,0
1523627699462,1638400,73,-56,-1,-1,0
1523627699502,1114112,73,-56,-1,-1,0
1523627699502,589824,73,-56,-1,-1,0
1523627699502,262144,73,-56,-1,-1,0
1523627699502,0,73,-56,-1,-1,0
1523627699502,-196608,73,-56,-1,-1,0
1523627699548,-262144,73,-56,-1,-1,0
1523627699548,-327680,73,-56,-1,-1,0
1523627699548,-327680,73,-56,-1,-1,0
1523627699548,-393216,73,-56,-1,-1,0
1523627699548,-393216,73,-56,-1,-1,0
1523627699582,-458752,73,-56,-1,-1,0
1523627699582,-393216,73,-56,-1,-1,0
1523627699582,-327680,73,-56,-1,-1,0
1523627699582,-393216,73,-56,-1,-1,0
1523627699582,-393216,73,-56,-1,-1,0
1523627699622,-327680,73,-56,-1,-1,0
1523627699622,-327680,73,-56,-1,-1,0
1523627699622,-327680,73,-56,-1,-1,0
1523627699622,-327680,73,-56,-1,-1,0
1523627699622,-196608,73,-56,-1,-1,0
1523627699671,-196608,73,-56,-1,-1,0
1523627699671,-196608,73,-56,-1,-1,0
1523627699671,-262144,73,-56,-1,-1,0
1523627699671,-262144,73,-56,-1,-1,0
1523627699671,-327680,73,-56,-1,-1,0
1523627699702,-262144,73,-56,-1,-1,0
1523627699702,-262144,73,-56,-1,-1,0
1523627699702,-327680,73,-56,-1,-1,0
1523627699702,-393216,73,-56,-1,-1,0
1523627699702,-393216,73,-56,-1,-1,0
1523627699742,-393216,73,-56,-1,-1,0
1523627699742,-393216,73,-56,-1,-1,0
1523627699742,-458752,73,-56,-1,-1,0
1523627699742,-524288,73,-56,-1,-1,0
1523627699742,-458752,73,-56,-1,-1,0
1523627699782,-393216,73,-56,-1,-1,0
1523627699782,-458752,73,-56,-1,-1,0
1523627699782,-458752,73,-56,-1,-1,0
1523627699782,-458752,73,-56,-1,-1,0
1523627699782,-458752,73,-56,-1,-1,0
1523627699822,-524288,73,-56,-1,-1,0
1523627699822,-524288,73,-56,-1,-1,0
1523627699822,-524288,73,-56,-1,-1,0
1523627699822,-524288,73,-56,-1,-1,0
1523627699822,-589824,73,-56,-1,-1,0
1523627699862,-655360,73,-56,-1,-1,0
1523627699862,-851968,73,-56,-1,-1,0
1523627699862,-851968,73,-56,-1,-1,0
1523627699862,0,73,-56,-1,-1,0
1523627699862,2555904,73,-56,-1,-1,0
1523627699904,4980736,73,-56,-1,-1,0
1523627699904,4128768,73,-56,-1,-1,0
1523627699904,917504,73,-56,-1,-1,0
1523627699904,-1310720,73,-56,-1,-1,0
1523627699904,-1572864,73,-56,-1,-1,0
1523627699944,-1114112,73,-56,-1,-1,0
1523627699944,-786432,73,-56,-1,-1,0
1523627699944,-589824,73,-56,-1,-1,0
1523627699944,-589824,73,-56,-1,-1,0
1523627699944,-524288,73,-56,-1,-1,0
1523627699982,-524288,73,-56,-1,-1,0
1523627699982,-458752,73,-56,-1,-1,0
1523627699982,-458752,73,-56,-1,-1,0
1523627699982,-393216,73,-56,-1,-1,0
1523627699982,-393216,73,-56,-1,-1,0
1523627700022,-393216,73,-56,-1,-1,0
1523627700022,-327680,73,-56,-1,-1,0
1523627700022,-196608,73,-56,-1,-1,0
1523627700022,-65536,73,-56,-1,-1,0
1523627700022,-65536,73,-56,-1,-1,0
1523627700062,0,73,-56,-1,-1,0
1523627700062,65536,73,-56,-1,-1,0
1523627700062,327680,73,-56,-1,-1,0
1523627700062,655360,73,-56,-1,-1,0
1523627700062,983040,73,-56,-1,-1,0
1523627700104,1310720,73,-56,-1,-1,0
1523627700104,1769472,73,-56,-1,-1,0
1523627700104,2162688,73,-56,-1,-1,0
1523627700104,2424832,73,-56,-1,-1,0
1523627700104,2555904,73,-56,-1,-1,0
1523627700142,2555904,73,-56,-1,-1,0
1523627700142,2228224,73,-56,-1,-1,0
1523627700142,1769472,73,-56,-1,-1,0
1523627700142,1179648,73,-56,-1,-1,0
1523627700142,720896,73,-56,-1,-1,0
1523627700182,262144,73,-56,-1,-1,0
1523627700182,0,73,-56,-1,-1,0
1523627700182,-196608,73,-56,-1,-1,0
1523627700182,-327680,73,-56,-1,-1,0
1523627700182,-327680,73,-56,-1,-1,0
1523627700222,-393216,73,-56,-1,-1,0
1523627700222,-393216,73,-56,-1,-1,0
1523627700222,-458752,73,-56,-1,-1,0
1523627700222,-458752,73,-56,-1,-1,0
1523627700222,-458752,73,-56,-1,-1,0
1523627700262,-458752,73,-56,-1,-1,0
1523627700262,-458752,73,-56,-1,-1,0
1523627700262,-524288,73,-56,-1,-1,0
1523627700262,-524288,73,-56,-1,-1,0
1523627700262,-524288,73,-56,-1,-1,0
1523627700311,-458752,73,-56,-1,-1,0
1523627700311,-458752,73,-56,-1,-1,0
1523627700311,-458752,73,-56,-1,-1,0
1523627700311,-393216,73,-56,-1,-1,0
1523627700311,-393216,73,-56,-1,-1,0
1523627700342,-458752,73,-56,-1,-1,0
1523627700342,-393216,73,-56,-1,-1,0
1523627700342,-393216,73,-56,-1,-1,0
1523627700342,-393216,73,-56,-1,-1,0
1523627700342,-458752,73,-56,-1,-1,0
1523627700382,-458752,73,-56,-1,-1,0
1523627700382,-458752,73,-56,-1,-1,0
1523627700382,-458752,73,-56,-1,-1,0
1523627700382,-524288,73,-56,-1,-1,0
1523627700382,-589824,73,-56,-1,-1,0
1523627700422,-655360,73,-56,-1,-1,0
1523627700422,-655360,73,-56,-1,-1,0
1523627700422,-655360,73,-56,-1,-1,0
1523627700422,-655360,73,-56,-1,-1,0
1523627700422,-720896,73,-56,-1,-1,0
1523627700462,-655360,73,-56,-1,-1,0
1523627700462,-589824,73,-56,-1,-1,0
1523627700462,-589824,73,-56,-1,-1,0
1523627700462,-589824,73,-56,-1,-1,0
1523627700462,-655360,73,-56,-1,-1,0
1523627700502,-720896,73,-56,-1,-1,0
1523627700502,-720896,73,-56,-1,-1,0
1523627700502,-720896,73,-56,-1,-1,0
1523627700502,-720896,73,-56,-1,-1,0
1523627700502,-655360,73,-56,-1,-1,0
1523627700542,-720896,73,-56,-1,-1,0
1523627700542,-1114112,73,-56,-1,-1,0
1523627700542,-1376256,73,-56,-1,-1,0
1523627700542,-655360,73,-56,-1,-1,0
1523627700542,1703936,73,-56,-1,-1,0
1523627700582,4784128,73,-56,-1,-1,0
1523627700582,5111808,73,-56,-1,-1,0
1523627700582,2228224,73,-56,-1,-1,0
1523627700582,-655360,73,-56,-1,-1,0
1523627700582,-1376256,73,-56,-1,-1,0
1523627700624,-1114112,73,-56,-1,-1,0
1523627700624,-917504,73,-56,-1,-1,0
1523627700624,-786432,73,-56,-1,-1,0
1523627700624,-786432,73,-56,-1,-1,0
1523627700624,-720896,73,-56,-1,-1,0
1523627700662,-720896,73,-56,-1,-1,0
1523627700662,-655360,73,-56,-1,-1,0
1523627700662,-655360,73,-56,-1,-1,0
1523627700662,-655360,73,-56,-1,-1,0
1523627700662,-589824,73,-56,-1,-1,0
1523627700702,-655360,73,-56,-1,-1,0
1523627700702,-655360,73,-56,-1,-1,0
1523627700702,-589824,73,-56,-1,-1,0
1523627700702,-458752,73,-56,-1,-1,0
1523627700702,-327680,73,-56,-1,-1,0
1523627700742,-196608,73,-56,-1,-1,0
1523627700742,-131072,73,-56,-1,-1,0
1523627700742,0,73,-56,-1,-1,0
1523627700742,65536,73,-56,-1,-1,0
1523627700742,327680,73,-56,-1,-1,0
1523627700782,720896,73,-56,-1,-1,0
1523627700782,1048576,73,-56,-1,-1,0
1523627700782,1441792,73,-56,-1,-1,0
1523627700782,1769472,73,-56,-1,-1,0
1523627700782,1966080,73,-56,-1,-1,0
1523627700822,1966080,73,-56,-1,-1,0
1523627700822,1835008,73,-56,-1,-1,0
1523627700822,1507328,73,-56,-1,-1,0
1523627700822,1048576,73,-56,-1,-1,0
1523627700822,524288,73,-56,-1,-1,0
1523627700862,131072,73,-56,-1,-1,0
1523627700862,-65536,73,-56,-1,-1,0
1523627700862,-262144,73,-56,-1,-1,0
1523627700862,-393216,73,-56,-1,-1,0
1523627700862,-393216,73,-56,-1,-1,0
1523627700902,-458752,73,-56,-1,-1,0
1523627700902,-458752,73,-56,-1,-1,0
1523627700902,-458752,73,-56,-1,-1,0
1523627700902,-393216,73,-56,-1,-1,0
1523627700902,-393216,73,-56,-1,-1,0
1523627700951,-393216,73,-56,-1,-1,0
1523627700951,-393216,73,-56,-1,-1,0
1523627700951,-327680,73,-56,-1,-1,0
1523627700951,-262144,73,-56,-1,-1,0
1523627700951,-327680,73,-56,-1,-1,0
1523627700982,-327680,73,-56,-1,-1,0
1523627700982,-327680,73,-56,-1,-1,0
1523627700982,-262144,73,-56,-1,-1,0
1523627700982,-327680,73,-56,-1,-1,0
1523627700982,-327680,73,-56,-1,-1,0
1523627701022,-262144,73,-56,-1,-1,0
1523627701022,-262144,73,-56,-1,-1,0
1523627701022,-262144,73,-56,-1,-1,0
1523627701022,-262144,73,-56,-1,-1,0
1523627701022,-262144,73,-56,-1,-1,0
1523627701062,-262144,73,-56,-1,-1,0
1523627701062,-262144,73,-56,-1,-1,0
1523627701062,-262144,73,-56,-1,-1,0
1523627701062,-262144,73,-56,-1,-1,0
1523627701062,-262144,73,-56,-1,-1,0
1523627701102,-327680,73,-56,-1,-1,0
1523627701102,-393216,73,-56,-1,-1,0
1523627701102,-458752,73,-56,-1,-1,0
1523627701102,-458752,73,-56,-1,-1,0
1523627701102,-393216,73,-56,-1,-1,0
1523627701142,-327680,73,-56,-1,-1,0
1523627701142,-327680,73,-56,-1,-1,0
1523627701142,-327680,73,-56,-1,-1,0
1523627701142,-327680,73,-56,-1,-1,0
1523627701142,-393216,73,-56,-1,-1,0
1523627701182,-458752,73,-56,-1,-1,0
1523627701182,-524288,73,-56,-1,-1,0
1523627701182,-524288,73,-56,-1,-1,0
1523627701182,-524288,73,-56,-1,-1,0
1523627701182,-524288,73,-56,-1,-1,0
1523627701222,-589824,73,-56,-1,-1,0
1523627701222,-851968,73,-56,-1,-1,0
1523627701222,-1179648,73,-56,-1,-1,0
1523627701222,-720896,73,-56,-1,-1,0
1523627701222,1310720,73,-56,-1,-1,0
1523627701262,4325376,74,-56,-1,-1,0
1523627701262,5242880,74,-56,-1,-1,0
1523627701262,2818048,74,-56,-1,-1,0
1523627701262,-196608,74,-56,-1,-1,0
1523627701262,-1179648,74,-56,-1,-1,0
1523627701302,-983040,74,-56,-1,-1,0
1523627701302,-720896,74,-56,-1,-1,0
1523627701302,-589824,74,-56,-1,-1,0
1523627701302,-589824,74,-56,-1,-1,0
1523627701302,-589824,74,-56,-1,-1,0
1523627701342,-589824,74,-56,-1,-1,0
1523627701342,-589824,74,-56,-1,-1,0
1523627701342,-524288,74,-56,-1,-1,0
1523627701342,-524288,74,-56,-1,-1,0
1523627701342,-524288,74,-56,-1,-1,0
1523627701382,-458752,74,-56,-1,-1,0
1523627701382,-393216,74,-56,-1,-1,0
1523627701382,-458752,74,-56,-1,-1,0
1523627701382,-393216,74,-56,-1,-1,0
1523627701382,-327680,74,-56,-1,-1,0
1523627701424,-196608,74,-56,-1,-1,0
1523627701424,-65536,74,-56,-1,-1,0
1523627701424,0,74,-56,-1,-1,0
1523627701424,131072,74,-56,-1,-1,0
1523627701424,393216,74,-56,-1,-1,0
1523627701462,720896,74,-56,-1,-1,0
1523627701462,1048576,74,-56,-1,-1,0
1523627701462,1376256,74,-56,-1,-1,0
1523627701462,1703936,74,-56,-1,-1,0
1523627701462,1900544,74,-56,-1,-1,0
1523627701504,1966080,74,-56,-1,-1,0
1523627701504,1900544,74,-56,-1,-1,0
1523627701504,1572864,74,-56,-1,-1,0
1523627701504,1179648,74,-56,-1,-1,0
1523627701504,655360,74,-56,-1,-1,0
1523627701542,262144,74,-56,-1,-1,0
1523627701542,0,74,-56,-1,-1,0
1523627701542,-131072,74,-56,-1,-1,0
1523627701542,-262144,74,-56,-1,-1,0
1523627701542,-327680,74,-56,-1,-1,0
1523627701591,-327680,74,-56,-1,-1,0
1523627701591,-458752,74,-56,-1,-1,0
1523627701591,-458752,74,-56,-1,-1,0
1523627701591,-458752,74,-56,-1,-1,0
1523627701591,-393216,74,-56,-1,-1,0
1523627701622,-393216,74,-56,-1,-1,0
1523627701622,-393216,74,-56,-1,-1,0
1523627701622,-393216,74,-56,-1,-1,0
1523627701622,-458752,74,-56,-1,-1,0
1523627701622,-393216,74,-56,-1,-1,0
1523627701662,-393216,74,-56,-1,-1,0
1523627701662,-393216,74,-56,-1,-1,0
1523627701662,-458752,74,-56,-1,-1,0
1523627701662,-393216,74,-56,-1,-1,0
1523627701662,-393216,74,-56,-1,-1,0
1523627701702,-393216,74,-56,-1,-1,0
1523627701702,-393216,74,-56,-1,-1,0
1523627701702,-393216,74,-56,-1,-1,0
1523627701702,-393216,74,-56,-1,-1,0
1523627701702,-393216,74,-56,-1,-1,0
1523627701742,-393216,74,-56,-1,-1,0
1523627701742,-327680,74,-56,-1,-1,0
1523627701742,-393216,74,-56,-1,-1,0
1523627701742,-393216,74,-56,-1,-1,0
1523627701742,-393216,74,-56,-1,-1,0
1523627701782,-393216,74,-56,-1,-1,0
1523627701782,-393216,74,-56,-1,-1,0
1523627701782,-458752,74,-56,-1,-1,0
1523627701782,-458752,74,-56,-1,-1,0
1523627701782,-458752,74,-56,-1,-1,0
1523627701822,-524288,74,-56,-1,-1,0
1523627701822,-524288,74,-56,-1,-1,0
1523627701822,-524288,74,-56,-1,-1,0
1523627701822,-524288,74,-56,-1,-1,0
1523627701822,-524288,74,-56,-1,-1,0
1523627701862,-458752,74,-56,-1,-1,0
1523627701862,-393216,74,-56,-1,-1,0
1523627701862,-393216,74,-56,-1,-1,0
1523627701862,-458752,74,-56,-1,-1,0
1523627701862,-458752,74,-56,-1,-1,0
1523627701902,-458752,74,-56,-1,-1,0
1523627701902,-458752,74,-56,-1,-1,0
1523627701902,-458752,74,-56,-1,-1,0
1523627701902,-524288,74,-56,-1,-1,0
1523627701902,-524288,74,-56,-1,-1,0
1523627701942,-589824,74,-56,-1,-1,0
1523627701942,-851968,74,-56,-1,-1,0
1523627701942,-1114112,74,-56,-1,-1,0
1523627701942,-327680,74,-56,-1,-1,0
1523627701942,1966080,74,-56,-1,-1,0
1523627701982,4784128,77,-56,-1,-1,0
1523627701982,4915200,77,-56,-1,-1,0
1523627701982,2228224,77,-56,-1,-1,0
1523627701982,-327680,77,-56,-1,-1,0
1523627701982,-983040,77,-56,-1,-1,0
1523627702022,-786432,77,-56,-1,-1,0
1523627702022,-589824,77,-56,-1,-1,0
1523627702022,-524288,77,-56,-1,-1,0
1523627702022,-524288,77,-56,-1,-1,0
1523627702022,-524288,77,-56,-1,-1,0
1523627702062,-524288,77,-56,-1,-1,0
1523627702062,-458752,77,-56,-1,-1,0
1523627702062,-458752,77,-56,-1,-1,0
1523627702062,-524288,77,-56,-1,-1,0
1523627702062,-524288,77,-56,-1,-1,0
1523627702102,-524288,77,-56,-1,-1,0
1523627702102,-524288,77,-56,-1,-1,0
1523627702102,-393216,77,-56,-1,-1,0
1523627702102,-327680,77,-56,-1,-1,0
1523627702102,-262144,77,-56,-1,-1,0
1523627702142,-196608,77,-56,-1,-1,0
1523627702142,-65536,77,-56,-1,-1,0
1523627702142,0,77,-56,-1,-1,0
1523627702142,131072,77,-56,-1,-1,0
1523627702142,327680,77,-56,-1,-1,0
1523627702182,589824,77,-56,-1,-1,0
1523627702182,917504,77,-56,-1,-1,0
1523627702182,1179648,77,-56,-1,-1,0
1523627702182,1441792,77,-56,-1,-1,0
1523627702182,1638400,77,-56,-1,-1,0
1523627702231,1769472,77,-56,-1,-1,0
1523627702231,1638400,77,-56,-1,-1,0
1523627702231,1310720,77,-56,-1,-1,0
1523627702231,851968,77,-56,-1,-1,0
1523627702231,393216,77,-56,-1,-1,0
1523627702262,0,77,-56,-1,-1,0
1523627702262,-196608,77,-56,-1,-1,0
1523627702262,-393216,77,-56,-1,-1,0
1523627702262,-524288,77,-56,-1,-1,0
1523627702262,-524288,77,-56,-1,-1,0
1523627702302,-589824,77,-56,-1,-1,0
1523627702302,-655360,77,-56,-1,-1,0
1523627702302,-720896,77,-56,-1,-1,0
1523627702302,-655360,77,-56,-1,-1,0
1523627702302,-589824,77,-56,-1,-1,0
1523627702342,-655360,77,-56,-1,-1,0
1523627702342,-720896,77,-56,-1,-1,0
1523627702342,-720896,77,-56,-1,-1,0
1523627702342,-655360,77,-56,-1,-1,0
1523627702342,-655360,77,-56,-1,-1,0
1523627702382,-655360,77,-56,-1,-1,0
1523627702382,-655360,77,-56,-1,-1,0
1523627702382,-655360,77,-56,-1,-1,0
1523627702382,-655360,77,-56,-1,-1,0
1523627702382,-655360,77,-56,-1,-1,0
1523627702422,-655360,77,-56,-1,-1,0
1523627702422,-655360,77,-56,-1,-1,0
1523627702422,-655360,77,-56,-1,-1,0
1523627702422,-655360,77,-56,-1,-1,0
1523627702422,-655360,77,-56,-1,-1,0
1523627702462,-655360,77,-56,-1,-1,0
1523627702462,-655360,77,-56,-1,-1,0
1523627702462,-655360,77,-56,-1,-1,0
1523627702462,-720896,77,-56,-1,-1,0
1523627702462,-655360,77,-56,-1,-1,0
1523627702502,-720896,77,-56,-1,-1,0
1523627702502,-720896,77,-56,-1,-1,0
1523627702502,-720896,77,-56,-1,-1,0
1523627702502,-720896,77,-56,-1,-1,0
1523627702502,-720896,77,-56,-1,-1,0
1523627702542,-786432,77,-56,-1,-1,0
1523627702542,-851968,77,-56,-1,-1,0
1523627702542,-851968,77,-56,-1,-1,0
1523627702542,-851968,77,-56,-1,-1,0
1523627702542,-786432,77,-56,-1,-1,0
1523627702582,-786432,77,-56,-1,-1,0
1523627702582,-720896,77,-56,-1,-1,0
1523627702582,-786432,77,-56,-1,-1,0
1523627702582,-786432,77,-56,-1,-1,0
1523627702582,-786432,77,-56,-1,-1,0
1523627702622,-786432,77,-56,-1,-1,0
1523627702622,-786432,77,-56,-1,-1,0
1523627702622,-851968,77,-56,-1,-1,0
1523627702622,-917504,77,-56,-1,-1,0
1523627702622,-917504,77,-56,-1,-1,0
1523627702662,-917504,77,-56,-1,-1,0
1523627702662,-1114112,77,-56,-1,-1,0
1523627702662,-1310720,77,-56,-1,-1,0
1523627702662,-524288,77,-56,-1,-1,0
1523627702662,1769472,77,-56,-1,-1,0
1523627702710,4521984,77,-56,-1,-1,0
1523627702710,4653056,77,-56,-1,-1,0
1523627702710,2097152,77,-56,-1,-1,0
1523627702710,-393216,77,-56,-1,-1,0
1523627702710,-917504,77,-56,-1,-1,0
1523627702742,-720896,79,-56,-1,-1,0
1523627702742,-524288,79,-56,-1,-1,0
1523627702742,-458752,79,-56,-1,-1,0
1523627702742,-327680,79,-56,-1,-1,0
1523627702742,-196608,79,-56,-1,-1,0
1523627702782,-262144,79,-56,-1,-1,0
1523627702782,-262144,79,-56,-1,-1,0
1523627702782,-196608,79,-56,-1,-1,0
1523627702782,-65536,79,-56,-1,-1,0
1523627702782,65536,79,-56,-1,-1,0
1523627702822,131072,79,-56,-1,-1,0
1523627702822,0,79,-56,-1,-1,0
1523627702822,-196608,79,-56,-1,-1,0
1523627702822,-196608,79,-56,-1,-1,0
1523627702822,-131072,79,-56,-1,-1,0
1523627702871,-65536,79,-56,-1,-1,0
1523627702871,0,79,-56,-1,-1,0
1523627702871,196608,79,-56,-1,-1,0
1523627702871,458752,79,-56,-1,-1,0
1523627702871,589824,79,-56,-1,-1,0
1523627702903,720896,79,-56,-1,-1,0
1523627702903,983040,79,-56,-1,-1,0
1523627702903,1179648,79,-56,-1,-1,0
1523627702903,1441792,79,-56,-1,-1,0
1523627702903,1769472,79,-56,-1,-1,0
1523627702942,1835008,79,-56,-1,-1,0
1523627702942,1638400,79,-56,-1,-1,0
1523627702942,1310720,79,-56,-1,-1,0
1523627702942,983040,79,-56,-1,-1,0
1523627702942,589824,79,-56,-1,-1,0
1523627702982,262144,79,-56,-1,-1,0
1523627702982,196608,79,-56,-1,-1,0
1523627702982,0,79,-56,-1,-1,0
1523627702982,-196608,79,-56,-1,-1,0
1523627702982,-458752,79,-56,-1,-1,0
1523627703022,-524288,79,-56,-1,-1,0
1523627703022,-458752,79,-56,-1,-1,0
1523627703022,-393216,79,-56,-1,-1,0
1523627703022,-327680,79,-56,-1,-1,0
1523627703022,-327680,79,-56,-1,-1,0
1523627703062,-262144,79,-56,-1,-1,0
1523627703062,-262144,79,-56,-1,-1,0
1523627703062,-262144,79,-56,-1,-1,0
1523627703062,-262144,79,-56,-1,-1,0
1523627703062,-262144,79,-56,-1,-1,0
1523627703102,-327680,79,-56,-1,-1,0
1523627703102,-327680,79,-56,-1,-1,0
1523627703102,-262144,79,-56,-1,-1,0
1523627703102,-196608,79,-56,-1,-1,0
1523627703102,-131072,79,-56,-1,-1,0
1523627703142,0,79,-56,-1,-1,0
1523627703142,0,79,-56,-1,-1,0
1523627703142,-65536,79,-56,-1,-1,0
1523627703142,-65536,79,-56,-1,-1,0
1523627703142,-65536,79,-56,-1,-1,0
1523627703182,-65536,79,-56,-1,-1,0
1523627703182,-131072,79,-56,-1,-1,0
1523627703182,-196608,79,-56,-1,-1,0
1523627703182,-262144,79,-56,-1,-1,0
1523627703182,-262144,79,-56,-1,-1,0
1523627703222,-327680,79,-56,-1,-1,0
1523627703222,-262144,79,-56,-1,-1,0
1523627703222,-262144,79,-56,-1,-1,0
1523627703222,-393216,79,-56,-1,-1,0
1523627703222,-589824,79,-56,-1,-1,0
1523627703262,-786432,79,-56,-1,-1,0
1523627703262,-720896,79,-56,-1,-1,0
1523627703262,-589824,79,-56,-1,-1,0
1523627703262,-458752,79,-56,-1,-1,0
1523627703262,-589824,79,-56,-1,-1,0
1523627703302,-917504,79,-56,-1,-1,0
1523627703302,-1179648,79,-56,-1,-1,0
1523627703302,-1114112,79,-56,-1,-1,0
1523627703302,-1048576,79,-56,-1,-1,0
1523627703302,-983040,79,-56,-1,-1,0
1523627703342,-983040,79,-56,-1,-1,0
1523627703342,-917504,79,-56,-1,-1,0
1523627703342,-786432,79,-56,-1,-1,0
1523627703342,-720896,79,-56,-1,-1,0
1523627703342,-655360,79,-56,-1,-1,0
1523627703382,-655360,79,-56,-1,-1,0
1523627703382,-720896,79,-56,-1,-1,0
1523627703382,-720896,79,-56,-1,-1,0
1523627703382,-720896,79,-56,-1,-1,0
1523627703382,-851968,79,-56,-1,-1,0
1523627703422,-917504,79,-56,-1,-1,0
1523627703422,-851968,79,-56,-1,-1,0
1523627703422,-851968,79,-56,-1,-1,0
1523627703422,-1245184,79,-56,-1,-1,0
1523627703422,-1572864,79,-56,-1,-1,0
1523627703462,-917504,79,-56,-1,-1,0
1523627703462,1310720,79,-56,-1,-1,0
1523627703462,4259840,79,-56,-1,-1,0
1523627703462,4718592,79,-56,-1,-1,0
1523627703462,2228224,79,-56,-1,-1,0
1523627703511,-458752,79,-56,-1,-1,0
1523627703511,-1245184,79,-56,-1,-1,0
1523627703511,-1048576,79,-56,-1,-1,0
1523627703511,-983040,79,-56,-1,-1,0
1523627703511,-917504,79,-56,-1,-1,0
1523627703542,-917504,79,-56,-1,-1,0
1523627703542,-983040,79,-56,-1,-1,0
1523627703542,-983040,79,-56,-1,-1,0
1523627703542,-917504,79,-56,-1,-1,0
1523627703542,-786432,79,-56,-1,-1,0
1523627703582,-720896,79,-56,-1,-1,0
1523627703582,-655360,79,-56,-1,-1,0
1523627703582,-655360,79,-56,-1,-1,0
1523627703582,-524288,79,-56,-1,-1,0
1523627703582,-524288,79,-56,-1,-1,0
1523627703622,-589824,79,-56,-1,-1,0
1523627703622,-524288,79,-56,-1,-1,0
1523627703622,-458752,79,-56,-1,-1,0
1523627703622,-327680,79,-56,-1,-1,0
1523627703622,-196608,79,-56,-1,-1,0
1523627703663,0,79,-56,-1,-1,0
1523627703663,196608,79,-56,-1,-1,0
1523627703663,393216,79,-56,-1,-1,0
1523627703663,655360,79,-56,-1,-1,0
1523627703663,983040,79,-56,-1,-1,0
1523627703702,1310720,79,-56,-1,-1,0
1523627703702,1507328,79,-56,-1,-1,0
1523627703702,1638400,79,-56,-1,-1,0
1523627703702,1572864,79,-56,-1,-1,0
1523627703702,1376256,79,-56,-1,-1,0
1523627703742,983040,79,-56,-1,-1,0
1523627703742,524288,79,-56,-1,-1,0
1523627703742,131072,79,-56,-1,-1,0
1523627703742,0,79,-56,-1,-1,0
1523627703742,-65536,79,-56,-1,-1,0
1523627703782,-131072,79,-56,-1,-1,0
1523627703782,-262144,79,-56,-1,-1,0
1523627703782,-393216,79,-56,-1,-1,0
1523627703782,-524288,79,-56,-1,-1,0
1523627703782,-393216,79,-56,-1,-1,0
1523627703822,-196608,79,-56,-1,-1,0
1523627703822,-262144,79,-56,-1,-1,0
1523627703822,-589824,79,-56,-1,-1,0
1523627703822,-589824,79,-56,-1,-1,0
1523627703822,-524288,79,-56,-1,-1,0
1523627703862,-458752,79,-56,-1,-1,0
1523627703862,-524288,79,-56,-1,-1,0
1523627703862,-589824,79,-56,-1,-1,0
1523627703862,-589824,79,-56,-1,-1,0
1523627703862,-458752,79,-56,-1,-1,0
1523627703902,-327680,79,-56,-1,-1,0
1523627703902,-262144,79,-56,-1,-1,0
1523627703902,-262144,79,-56,-1,-1,0
1523627703902,-196608,79,-56,-1,-1,0
1523627703902,-196608,79,-56,-1,-1,0
1523627703943,0,79,-56,-1,-1,0
1523627703943,196608,79,-56,-1,-1,0
1523627703943,131072,79,-56,-1,-1,0
1523627703943,-65536,79,-56,-1,-1,0
1523627703943,-196608,79,-56,-1,-1,0
1523627703982,-262144,79,-56,-1,-1,0
1523627703982,-327680,79,-56,-1,-1,0
1523627703982,-327680,79,-56,-1,-1,0
1523627703982,-262144,79,-56,-1,-1,0
1523627703982,-262144,79,-56,-1,-1,0
1523627704022,-131072,79,-56,-1,-1,0
1523627704022,0,79,-56,-1,-1,0
1523627704022,-65536,79,-56,-1,-1,0
1523627704022,0,79,-56,-1,-1,0
1523627704022,0,79,-56,-1,-1,0
1523627704062,0,79,-56,-1,-1,0
1523627704062,-131072,79,-56,-1,-1,0
1523627704062,-196608,79,-56,-1,-1,0
1523627704062,-131072,79,-56,-1,-1,0
1523627704062,65536,79,-56,-1,-1,0
1523627704102,196608,79,-56,-1,-1,0
1523627704102,196608,79,-56,-1,-1,0
1523627704102,262144,79,-56,-1,-1,0
1523627704102,131072,79,-56,-1,-1,0
1523627704102,0,79,-56,-1,-1,0
1523627704151,65536,79,-56,-1,-1,0
1523627704151,0,79,-56,-1,-1,0
1523627704151,-65536,79,-56,-1,-1,0
1523627704151,0,79,-56,-1,-1,0
1523627704151,65536,79,-56,-1,-1,0
1523627704182,393216,79,-56,-1,-1,0
1523627704182,655360,79,-56,-1,-1,0
1523627704182,393216,79,-56,-1,-1,0
1523627704182,65536,79,-56,-1,-1,0
1523627704182,0,79,-56,-1,-1,0
1523627704222,65536,79,-56,-1,-1,0
1523627704222,327680,79,-56,-1,-1,0
1523627704222,655360,79,-56,-1,-1,0
1523627704222,720896,79,-56,-1,-1,0
1523627704222,458752,79,-56,-1,-1,0
1523627704262,0,79,-56,-1,-1,0
1523627704262,-131072,79,-56,-1,-1,0
1523627704262,131072,79,-56,-1,-1,0
1523627704262,262144,79,-56,-1,-1,0
1523627704262,327680,79,-56,-1,-1,0
1523627704302,524288,79,-56,-1,-1,0
1523627704302,655360,79,-56,-1,-1,0
1523627704302,589824,79,-56,-1,-1,0
1523627704302,458752,79,-56,-1,-1,0
1523627704302,393216,79,-56,-1,-1,0
1523627704342,327680,79,-56,-1,-1,0
1523627704342,262144,79,-56,-1,-1,0
1523627704342,393216,79,-56,-1,-1,0
1523627704342,524288,79,-56,-1,-1,0
1523627704342,524288,79,-56,-1,-1,0
1523627704382,131072,79,-56,-1,-1,0
1523627704382,65536,79,-56,-1,-1,0
1523627704382,1048576,79,-56,-1,-1,0
1523627704382,3211264,79,-56,-1,-1,0
1523627704382,5046272,79,-56,-1,-1,0
1523627704422,4456448,79,-56,-1,-1,0
1523627704422,2097152,79,-56,-1,-1,0
1523627704422,196608,79,-56,-1,-1,0
1523627704422,-262144,79,-56,-1,-1,0
1523627704422,-65536,79,-56,-1,-1,0
1523627704462,262144,79,-56,-1,-1,0
1523627704462,458752,79,-56,-1,-1,0
1523627704462,393216,79,-56,-1,-1,0
1523627704462,458752,79,-56,-1,-1,0
1523627704462,458752,79,-56,-1,-1,0
1523627704502,262144,79,-56,-1,-1,0
1523627704502,65536,79,-56,-1,-1,0
1523627704502,131072,79,-56,-1,-1,0
1523627704502,131072,79,-56,-1,-1,0
1523627704502,65536,79,-56,-1,-1,0
1523627704542,327680,79,-56,-1,-1,0
1523627704542,589824,79,-56,-1,-1,0
1523627704542,524288,79,-56,-1,-1,0
1523627704542,262144,79,-56,-1,-1,0
1523627704542,131072,79,-56,-1,-1,0
1523627704582,393216,79,-56,-1,-1,0
1523627704582,655360,79,-56,-1,-1,0
1523627704582,786432,79,-56,-1,-1,0
1523627704582,917504,79,-56,-1,-1,0
1523627704582,1179648,79,-56,-1,-1,0
1523627704622,1441792,79,-56,-1,-1,0
1523627704622,1769472,79,-56,-1,-1,0
1523627704622,2228224,79,-56,-1,-1,0
1523627704622,2424832,79,-56,-1,-1,0
1523627704622,2359296,79,-56,-1,-1,0
1523627704662,2097152,79,-56,-1,-1,0
1523627704662,1966080,79,-56,-1,-1,0
1523627704662,1769472,79,-56,-1,-1,0
1523627704662,1376256,79,-56,-1,-1,0
1523627704662,983040,79,-56,-1,-1,0
1523627704702,589824,79,-56,-1,-1,0
1523627704702,458752,79,-56,-1,-1,0
1523627704702,524288,79,-56,-1,-1,0
1523627704702,458752,79,-56,-1,-1,0
1523627704702,262144,79,-56,-1,-1,0
1523627704742,196608,79,-56,-1,-1,0
1523627704742,131072,79,-56,-1,-1,0
1523627704742,0,79,-56,-1,-1,0
1523627704742,0,79,-56,-1,-1,0
1523627704742,-65536,79,-56,-1,-1,0
1523627704791,-131072,79,-56,-1,-1,0
1523627704791,-65536,79,-56,-1,-1,0
1523627704791,131072,79,-56,-1,-1,0
1523627704791,262144,79,-56,-1,-1,0
1523627704791,65536,79,-56,-1,-1,0
1523627704822,0,79,-56,-1,-1,0
1523627704822,0,79,-56,-1,-1,0
1523627704822,-65536,79,-56,-1,-1,0
1523627704822,-196608,79,-56,-1,-1,0
1523627704822,-393216,79,-56,-1,-1,0
1523627704862,-327680,79,-56,-1,-1,0
1523627704862,-131072,79,-56,-1,-1,0
1523627704862,0,79,-56,-1,-1,0
1523627704862,0,79,-56,-1,-1,0
1523627704862,-196608,79,-56,-1,-1,0
1523627704902,-327680,79,-56,-1,-1,0
1523627704902,-393216,79,-56,-1,-1,0
1523627704902,-131072,79,-56,-1,-1,0
1523627704902,0,79,-56,-1,-1,0
1523627704902,131072,79,-56,-1,-1,0
1523627704942,-65536,79,-56,-1,-1,0
1523627704942,-393216,79,-56,-1,-1,0
1523627704942,-655360,79,-56,-1,-1,0
1523627704942,-524288,79,-56,-1,-1,0
1523627704942,-262144,79,-56,-1,-1,0
1523627704982,-131072,79,-56,-1,-1,0
1523627704982,-196608,79,-56,-1,-1,0
1523627704982,-262144,79,-56,-1,-1,0
1523627704982,-262144,79,-56,-1,-1,0
1523627704982,-196608,79,-56,-1,-1,0
1523627705022,-196608,79,-56,-1,-1,0
1523627705022,0,79,-56,-1,-1,0
1523627705022,0,79,-56,-1,-1,0
1523627705022,-196608,79,-56,-1,-1,0
1523627705022,-524288,79,-56,-1,-1,0
1523627705062,-458752,79,-56,-1,-1,0
1523627705062,-393216,79,-56,-1,-1,0
1523627705062,-393216,79,-56,-1,-1,0
1523627705062,-458752,79,-56,-1,-1,0
1523627705062,-393216,79,-56,-1,-1,0
1523627705102,-262144,79,-56,-1,-1,0
1523627705102,-131072,79,-56,-1,-1,0
1523627705102,-196608,79,-56,-1,-1,0
1523627705102,-393216,79,-56,-1,-1,0
1523627705102,-524288,79,-56,-1,-1,0
1523627705142,-458752,79,-56,-1,-1,0
1523627705142,-458752,79,-56,-1,-1,0
1523627705142,-458752,79,-56,-1,-1,0
1523627705142,-524288,79,-56,-1,-1,0
1523627705142,-524288,79,-56,-1,-1,0
1523627705182,-524288,79,-56,-1,-1,0
1523627705182,-458752,79,-56,-1,-1,0
1523627705182,-524288,79,-56,-1,-1,0
1523627705182,-524288,79,-56,-1,-1,0
1523627705182,-524288,79,-56,-1,-1,0
1523627705222,-589824,79,-56,-1,-1,0
1523627705222,-589824,79,-56,-1,-1,0
1523627705222,-589824,79,-56,-1,-1,0
1523627705222,-524288,79,-56,-1,-1,0
1523627705222,-524288,79,-56,-1,-1,0
1523627705263,-524288,79,-56,-1,-1,0
1523627705263,-524288,79,-56,-1,-1,0
1523627705263,-589824,79,-56,-1,-1,0
1523627705263,-524288,79,-56,-1,-1,0
1523627705263,-327680,79,-56,-1,-1,0
1523627705302,-262144,79,-56,-1,-1,0
1523627705302,-393216,79,-56,-1,-1,0
1523627705302,-524288,79,-56,-1,-1,0
1523627705302,-720896,79,-56,-1,-1,0
1523627705302,-1114112,79,-56,-1,-1,0
1523627705342,-1245184,79,-56,-1,-1,0
1523627705342,-65536,79,-56,-1,-1,0
1523627705342,2031616,79,-56,-1,-1,0
1523627705342,3997696,79,-56,-1,-1,0
1523627705342,3473408,79,-56,-1,-1,0
1523627705382,1245184,79,-56,-1,-1,0
1523627705382,-524288,79,-56,-1,-1,0
1523627705382,-851968,79,-56,-1,-1,0
1523627705382,-720896,79,-56,-1,-1,0
1523627705382,-589824,79,-56,-1,-1,0
1523627705431,-524288,79,-56,-1,-1,0
1523627705431,-524288,79,-56,-1,-1,0
1523627705431,-327680,79,-56,-1,-1,0
1523627705431,-196608,79,-56,-1,-1,0
1523627705431,-131072,79,-56,-1,-1,0
1523627705462,-196608,79,-56,-1,-1,0
1523627705462,-196608,79,-56,-1,-1,0
1523627705462,-65536,79,-56,-1,-1,0
1523627705462,0,79,-56,-1,-1,0
1523627705462,0,79,-56,-1,-1,0
1523627705502,-65536,79,-56,-1,-1,0
1523627705502,0,79,-56,-1,-1,0
1523627705502,65536,79,-56,-1,-1,0
1523627705502,131072,79,-56,-1,-1,0
1523627705502,196608,79,-56,-1,-1,0
1523627705542,262144,79,-56,-1,-1,0
1523627705542,458752,79,-56,-1,-1,0
1523627705542,655360,79,-56,-1,-1,0
1523627705542,786432,79,-56,-1,-1,0
1523627705542,917504,79,-56,-1,-1,0
1523627705582,1310720,79,-56,-1,-1,0
1523627705582,1703936,79,-56,-1,-1,0
1523627705582,1900544,79,-56,-1,-1,0
1523627705582,1900544,79,-56,-1,-1,0
1523627705582,1835008,79,-56,-1,-1,0
1523627705626,1638400,79,-56,-1,-1,0
1523627705626,1245184,79,-56,-1,-1,0
1523627705626,917504,79,-56,-1,-1,0
1523627705626,720896,79,-56,-1,-1,0
1523627705626,458752,79,-56,-1,-1,0
1523627705665,196608,79,-56,-1,-1,0
1523627705665,0,79,-56,-1,-1,0
1523627705665,0,79,-56,-1,-1,0
1523627705665,0,79,-56,-1,-1,0
1523627705665,-65536,79,-56,-1,-1,0
1523627705702,-196608,79,-56,-1,-1,0
1523627705702,-196608,79,-56,-1,-1,0
1523627705702,-131072,79,-56,-1,-1,0
1523627705702,-131072,79,-56,-1,-1,0
1523627705702,-65536,79,-56,-1,-1,0
1523627705742,0,79,-56,-1,-1,0
1523627705742,-65536,79,-56,-1,-1,0
1523627705742,-65536,79,-56,-1,-1,0
1523627705742,-131072,79,-56,-1,-1,0
1523627705742,-65536,79,-56,-1,-1,0
1523627705782,-131072,79,-56,-1,-1,0
1523627705782,-65536,79,-56,-1,-1,0
1523627705782,0,79,-56,-1,-1,0
1523627705782,0,79,-56,-1,-1,0
1523627705782,0,79,-56,-1,-1,0
1523627705822,131072,79,-56,-1,-1,0
1523627705822,131072,79,-56,-1,-1,0
1523627705822,65536,79,-56,-1,-1,0
1523627705822,-131072,79,-56,-1,-1,0
1523627705822,-327680,79,-56,-1,-1,0
1523627705862,-393216,79,-56,-1,-1,0
1523627705862,-262144,79,-56,-1,-1,0
1523627705862,-65536,79,-56,-1,-1,0
1523627705862,0,79,-56,-1,-1,0
1523627705862,-196608,79,-56,-1,-1,0
1523627705902,-327680,79,-56,-1,-1,0
1523627705902,-327680,79,-56,-1,-1,0
1523627705902,-393216,79,-56,-1,-1,0
1523627705902,-458752,79,-56,-1,-1,0
1523627705902,-393216,79,-56,-1,-1,0
1523627705942,-262144,79,-56,-1,-1,0
1523627705942,-262144,79,-56,-1,-1,0
1523627705942,-327680,79,-56,-1,-1,0
1523627705942,-393216,79,-56,-1,-1,0
1523627705942,-327680,79,-56,-1,-1,0
1523627705982,-393216,79,-56,-1,-1,0
1523627705982,-524288,79,-56,-1,-1,0
1523627705982,-655360,79,-56,-1,-1,0
1523627705982,-589824,79,-56,-1,-1,0
1523627705982,-589824,79,-56,-1,-1,0
1523627706022,-393216,79,-56,-1,-1,0
1523627706022,-393216,79,-56,-1,-1,0
1523627706022,-655360,79,-56,-1,-1,0
1523627706022,-851968,79,-56,-1,-1,0
1523627706022,-851968,79,-56,-1,-1,0
1523627706071,-655360,79,-56,-1,-1,0
1523627706071,-589824,79,-56,-1,-1,0
1523627706071,-589824,79,-56,-1,-1,0
1523627706071,-589824,79,-56,-1,-1,0
1523627706071,-524288,79,-56,-1,-1,0
1523627706102,-589824,79,-56,-1,-1,0
1523627706102,-720896,79,-56,-1,-1,0
1523627706102,-786432,79,-56,-1,-1,0
1523627706102,-786432,79,-56,-1,-1,0
1523627706102,-786432,79,-56,-1,-1,0
1523627706142,-655360,79,-56,-1,-1,0
1523627706142,-655360,79,-56,-1,-1,0
1523627706142,-655360,79,-56,-1,-1,0
1523627706142,-720896,79,-56,-1,-1,0
1523627706142,-851968,79,-56,-1,-1,0
1523627706182,-786432,79,-56,-1,-1,0
1523627706182,327680,79,-56,-1,-1,0
1523627706182,2555904,79,-56,-1,-1,0
1523627706182,3735552,79,-56,-1,-1,0
1523627706182,2293760,79,-56,-1,-1,0
1523627706224,-131072,79,-56,-1,-1,0
1523627706224,-1310720,79,-56,-1,-1,0
1523627706224,-1245184,79,-56,-1,-1,0
1523627706224,-917504,79,-56,-1,-1,0
1523627706224,-720896,79,-56,-1,-1,0
1523627706262,-655360,79,-56,-1,-1,0
1523627706262,-589824,79,-56,-1,-1,0
1523627706262,-589824,79,-56,-1,-1,0
1523627706262,-524288,79,-56,-1,-1,0
1523627706262,-458752,79,-56,-1,-1,0
1523627706303,-589824,79,-56,-1,-1,0
1523627706303,-589824,79,-56,-1,-1,0
1523627706303,-458752,79,-56,-1,-1,0
1523627706303,-327680,79,-56,-1,-1,0
1523627706303,-262144,79,-56,-1,-1,0
1523627706342,-262144,79,-56,-1,-1,0
1523627706342,-327680,79,-56,-1,-1,0
1523627706342,-196608,79,-56,-1,-1,0
1523627706342,0,79,-56,-1,-1,0
1523627706342,131072,79,-56,-1,-1,0
1523627706382,262144,79,-56,-1,-1,0
1523627706382,458752,79,-56,-1,-1,0
1523627706382,786432,79,-56,-1,-1,0
1523627706382,983040,79,-56,-1,-1,0
1523627706382,1310720,79,-56,-1,-1,0
1523627706422,1572864,79,-56,-1,-1,0
1523627706422,1572864,79,-56,-1,-1,0
1523627706422,1769472,79,-56,-1,-1,0
1523627706422,2031616,79,-56,-1,-1,0
1523627706422,2097152,79,-56,-1,-1,0
1523627706462,1835008,79,-56,-1,-1,0
1523627706462,1441792,79,-56,-1,-1,0
1523627706462,983040,79,-56,-1,-1,0
1523627706462,589824,79,-56,-1,-1,0
1523627706462,196608,79,-56,-1,-1,0
1523627706502,65536,79,-56,-1,-1,0
1523627706502,0,79,-56,-1,-1,0
1523627706502,-65536,79,-56,-1,-1,0
1523627706502,-131072,79,-56,-1,-1,0
1523627706502,-65536,79,-56,-1,-1,0
1523627706542,-131072,79,-56,-1,-1,0
1523627706542,-196608,79,-56,-1,-1,0
1523627706542,-196608,79,-56,-1,-1,0
1523627706542,-262144,79,-56,-1,-1,0
1523627706542,-196608,79,-56,-1,-1,0
1523627706582,-131072,79,-56,-1,-1,0
1523627706582,-131072,79,-56,-1,-1,0
1523627706582,-131072,79,-56,-1,-1,0
1523627706582,-65536,79,-56,-1,-1,0
1523627706582,-131072,79,-56,-1,-1,0
1523627706622,-327680,79,-56,-1,-1,0
1523627706622,-327680,79,-56,-1,-1,0
1523627706622,-327680,79,-56,-1,-1,0
1523627706622,-327680,79,-56,-1,-1,0
1523627706622,-131072,79,-56,-1,-1,0
1523627706662,0,79,-56,-1,-1,0
1523627706662,-65536,79,-56,-1,-1,0
1523627706662,-196608,79,-56,-1,-1,0
1523627706662,-393216,79,-56,-1,-1,0
1523627706662,-524288,79,-56,-1,-1,0
1523627706711,-393216,79,-56,-1,-1,0
1523627706711,-196608,79,-56,-1,-1,0
1523627706711,-131072,79,-56,-1,-1,0
1523627706711,-262144,79,-56,-1,-1,0
1523627706711,-327680,79,-56,-1,-1,0
1523627706742,-262144,79,-56,-1,-1,0
1523627706742,-327680,79,-56,-1,-1,0
1523627706742,-327680,79,-56,-1,-1,0
1523627706742,-262144,79,-56,-1,-1,0
1523627706742,-196608,79,-56,-1,-1,0
1523627706782,-262144,79,-56,-1,-1,0
1523627706782,-262144,79,-56,-1,-1,0
1523627706782,-262144,79,-56,-1,-1,0
1523627706782,-196608,79,-56,-1,-1,0
1523627706782,-196608,79,-56,-1,-1,0
1523627706822,-262144,79,-56,-1,-1,0
1523627706822,-327680,79,-56,-1,-1,0
1523627706822,-262144,79,-56,-1,-1,0
1523627706822,-196608,79,-56,-1,-1,0
1523627706822,-262144,79,-56,-1,-1,0
1523627706862,-262144,79,-56,-1,-1,0
1523627706862,-393216,79,-56,-1,-1,0
1523627706862,-393216,79,-56,-1,-1,0
1523627706862,-393216,79,-56,-1,-1,0
1523627706862,-327680,79,-56,-1,-1,0
1523627706902,-393216,79,-56,-1,-1,0
1523627706902,-393216,79,-56,-1,-1,0
1523627706902,-458752,79,-56,-1,-1,0
1523627706902,-393216,79,-56,-1,-1,0
1523627706902,-262144,79,-56,-1,-1,0
1523627706942,-196608,79,-56,-1,-1,0
1523627706942,-262144,79,-56,-1,-1,0
1523627706942,-262144,79,-56,-1,-1,0
1523627706942,-327680,79,-56,-1,-1,0
1523627706942,-393216,79,-56,-1,-1,0
1523627706982,-524288,79,-56,-1,-1,0
1523627706982,-524288,79,-56,-1,-1,0
1523627706982,-524288,79,-56,-1,-1,0
1523627706982,-524288,79,-56,-1,-1,0
1523627706982,-524288,79,-56,-1,-1,0
1523627707022,-589824,79,-56,-1,-1,0
1523627707022,-983040,79,-56,-1,-1,0
1523627707022,-1376256,79,-56,-1,-1,0
1523627707022,-917504,79,-56,-1,-1,0
1523627707022,1114112,79,-56,-1,-1,0
1523627707062,3801088,79,-56,-1,-1,0
1523627707062,4456448,79,-56,-1,-1,0
1523627707062,2359296,79,-56,-1,-1,0
1523627707062,-196608,79,-56,-1,-1,0
1523627707062,-1048576,79,-56,-1,-1,0
1523627707103,-1048576,79,-56,-1,-1,0
1523627707103,-917504,79,-56,-1,-1,0
1523627707103,-851968,79,-56,-1,-1,0
1523627707103,-917504,79,-56,-1,-1,0
1523627707103,-983040,79,-56,-1,-1,0
1523627707142,-917504,79,-56,-1,-1,0
1523627707142,-720896,79,-56,-1,-1,0
1523627707142,-524288,79,-56,-1,-1,0
1523627707142,-524288,79,-56,-1,-1,0
1523627707142,-655360,79,-56,-1,-1,0
1523627707182,-786432,78,-56,-1,-1,0
1523627707182,-720896,78,-56,-1,-1,0
1523627707182,-589824,78,-56,-1,-1,0
1523627707182,-458752,78,-56,-1,-1,0
1523627707182,-393216,78,-56,-1,-1,0
1523627707222,-262144,78,-56,-1,-1,0
1523627707222,-196608,78,-56,-1,-1,0
1523627707222,-131072,78,-56,-1,-1,0
1523627707222,0,78,-56,-1,-1,0
1523627707222,131072,78,-56,-1,-1,0
1523627707265,327680,78,-56,-1,-1,0
1523627707265,589824,78,-56,-1,-1,0
1523627707265,917504,78,-56,-1,-1,0
1523627707265,1245184,78,-56,-1,-1,0
1523627707265,1572864,78,-56,-1,-1,0
1523627707302,1769472,78,-56,-1,-1,0
1523627707302,1835008,78,-56,-1,-1,0
1523627707302,1835008,78,-56,-1,-1,0
1523627707302,1507328,78,-56,-1,-1,0
1523627707302,1048576,78,-56,-1,-1,0
1523627707351,589824,78,-56,-1,-1,0
1523627707351,327680,78,-56,-1,-1,0
1523627707351,131072,78,-56,-1,-1,0
1523627707351,0,78,-56,-1,-1,0
1523627707351,-65536,78,-56,-1,-1,0
1523627707382,-196608,78,-56,-1,-1,0
1523627707382,-262144,78,-56,-1,-1,0
1523627707382,-327680,78,-56,-1,-1,0
1523627707382,-196608,78,-56,-1,-1,0
1523627707382,-131072,78,-56,-1,-1,0
1523627707424,-131072,78,-56,-1,-1,0
1523627707424,-131072,78,-56,-1,-1,0
1523627707424,-196608,78,-56,-1,-1,0
1523627707424,-196608,78,-56,-1,-1,0
1523627707424,-196608,78,-56,-1,-1,0
1523627707462,-131072,78,-56,-1,-1,0
1523627707462,-131072,78,-56,-1,-1,0
1523627707462,-65536,78,-56,-1,-1,0
1523627707462,0,78,-56,-1,-1,0
1523627707462,0,78,-56,-1,-1,0
1523627707502,-65536,78,-56,-1,-1,0
1523627707502,-65536,78,-56,-1,-1,0
1523627707502,-65536,78,-56,-1,-1,0
1523627707502,-65536,78,-56,-1,-1,0
1523627707502,-65536,78,-56,-1,-1,0
1523627707542,-131072,78,-56,-1,-1,0
1523627707542,-131072,78,-56,-1,-1,0
1523627707542,-131072,78,-56,-1,-1,0
1523627707542,0,78,-56,-1,-1,0
1523627707542,0,78,-56,-1,-1,0
1523627707582,-65536,78,-56,-1,-1,0
1523627707582,-131072,78,-56,-1,-1,0
1523627707582,-65536,78,-56,-1,-1,0
1523627707582,-65536,78,-56,-1,-1,0
1523627707582,-65536,78,-56,-1,-1,0
1523627707622,-65536,78,-56,-1,-1,0
1523627707622,-131072,78,-56,-1,-1,0
1523627707622,-262144,78,-56,-1,-1,0
1523627707622,-262144,78,-56,-1,-1,0
1523627707622,-196608,78,-56,-1,-1,0
1523627707662,-131072,78,-56,-1,-1,0
1523627707662,-65536,78,-56,-1,-1,0
1523627707662,-65536,78,-56,-1,-1,0
1523627707662,-196608,78,-56,-1,-1,0
1523627707662,-327680,78,-56,-1,-1,0
1523627707702,-262144,78,-56,-1,-1,0
1523627707702,-196608,78,-56,-1,-1,0
1523627707702,-196608,78,-56,-1,-1,0
1523627707702,-196608,78,-56,-1,-1,0
1523627707702,-196608,78,-56,-1,-1,0
1523627707742,-131072,78,-56,-1,-1,0
1523627707742,-131072,78,-56,-1,-1,0
1523627707742,-131072,78,-56,-1,-1,0
1523627707742,-65536,78,-56,-1,-1,0
1523627707742,-131072,78,-56,-1,-1,0
1523627707782,-196608,78,-56,-1,-1,0
1523627707782,-65536,78,-56,-1,-1,0
1523627707782,0,78,-56,-1,-1,0
1523627707782,0,78,-56,-1,-1,0
1523627707782,0,78,-56,-1,-1,0
1523627707822,65536,78,-56,-1,-1,0
1523627707822,0,78,-56,-1,-1,0
1523627707822,-65536,78,-56,-1,-1,0
1523627707822,-65536,78,-56,-1,-1,0
1523627707822,-65536,78,-56,-1,-1,0
1523627707862,-65536,78,-56,-1,-1,0
1523627707862,-131072,78,-56,-1,-1,0
1523627707862,-393216,78,-56,-1,-1,0
1523627707862,-589824,78,-56,-1,-1,0
1523627707862,-720896,78,-56,-1,-1,0
1523627707902,-458752,78,-56,-1,-1,0
1523627707902,589824,78,-56,-1,-1,0
1523627707902,2752512,78,-56,-1,-1,0
1523627707902,4521984,78,-56,-1,-1,0
1523627707902,3670016,78,-56,-1,-1,0
1523627707942,1179648,76,-56,-1,-1,0
1523627707942,-393216,76,-56,-1,-1,0
1523627707942,-589824,76,-56,-1,-1,0
1523627707942,-393216,76,-56,-1,-1,0
1523627707942,-196608,76,-56,-1,-1,0
1523627707991,-65536,76,-56,-1,-1,0
1523627707991,0,76,-56,-1,-1,0
1523627707991,0,76,-56,-1,-1,0
1523627707991,0,76,-56,-1,-1,0
1523627707991,-65536,76,-56,-1,-1,0
1523627708022,-65536,76,-56,-1,-1,0
1523627708022,0,76,-56,-1,-1,0
1523627708022,0,76,-56,-1,-1,0
1523627708022,0,76,-56,-1,-1,0
1523627708022,0,76,-56,-1,-1,0
1523627708062,0,76,-56,-1,-1,0
1523627708062,0,76,-56,-1,-1,0
1523627708062,131072,76,-56,-1,-1,0
1523627708062,262144,76,-56,-1,-1,0
1523627708062,393216,76,-56,-1,-1,0
1523627708102,458752,76,-56,-1,-1,0
1523627708102,524288,76,-56,-1,-1,0
1523627708102,720896,76,-56,-1,-1,0
1523627708102,1048576,76,-56,-1,-1,0
1523627708102,1441792,76,-56,-1,-1,0
1523627708142,1703936,76,-56,-1,-1,0
1523627708142,1966080,76,-56,-1,-1,0
1523627708142,2162688,76,-56,-1,-1,0
1523627708142,2228224,76,-56,-1,-1,0
1523627708142,2162688,76,-56,-1,-1,0
1523627708182,1966080,76,-56,-1,-1,0
1523627708182,1638400,76,-56,-1,-1,0
1523627708182,1179648,76,-56,-1,-1,0
1523627708182,720896,76,-56,-1,-1,0
1523627708182,393216,76,-56,-1,-1,0
1523627708222,196608,76,-56,-1,-1,0
1523627708222,0,76,-56,-1,-1,0
1523627708222,-65536,76,-56,-1,-1,0
1523627708222,-196608,76,-56,-1,-1,0
1523627708222,-393216,76,-56,-1,-1,0
1523627708262,-458752,76,-56,-1,-1,0
1523627708262,-458752,76,-56,-1,-1,0
1523627708262,-458752,76,-56,-1,-1,0
1523627708262,-458752,76,-56,-1,-1,0
1523627708262,-458752,76,-56,-1,-1,0
1523627708302,-524288,76,-56,-1,-1,0
1523627708302,-589824,76,-56,-1,-1,0
1523627708302,-655360,76,-56,-1,-1,0
1523627708302,-589824,76,-56,-1,-1,0
1523627708302,-524288,76,-56,-1,-1,0
1523627708342,-524288,76,-56,-1,-1,0
1523627708342,-458752,76,-56,-1,-1,0
1523627708342,-393216,76,-56,-1,-1,0
1523627708342,-458752,76,-56,-1,-1,0
1523627708342,-524288,76,-56,-1,-1,0
1523627708382,-524288,76,-56,-1,-1,0
1523627708382,-458752,76,-56,-1,-1,0
1523627708382,-524288,76,-56,-1,-1,0
1523627708382,-589824,76,-56,-1,-1,0
1523627708382,-589824,76,-56,-1,-1,0
1523627708422,-393216,76,-56,-1,-1,0
1523627708422,-327680,76,-56,-1,-1,0
1523627708422,-458752,76,-56,-1,-1,0
1523627708422,-524288,76,-56,-1,-1,0
1523627708422,-524288,76,-56,-1,-1,0
1523627708462,-393216,76,-56,-1,-1,0
1523627708462,-458752,76,-56,-1,-1,0
1523627708462,-524288,76,-56,-1,-1,0
1523627708462,-589824,76,-56,-1,-1,0
1523627708462,-589824,76,-56,-1,-1,0
1523627708502,-524288,76,-56,-1,-1,0
1523627708502,-524288,76,-56,-1,-1,0
1523627708502,-524288,76,-56,-1,-1,0
1523627708502,-458752,76,-56,-1,-1,0
1523627708502,-524288,76,-56,-1,-1,0
1523627708542,-524288,76,-56,-1,-1,0
1523627708542,-524288,76,-56,-1,-1,0
1523627708542,-393216,76,-56,-1,-1,0
1523627708542,-262144,76,-56,-1,-1,0
1523627708542,-262144,76,-56,-1,-1,0
1523627708582,-196608,76,-56,-1,-1,0
1523627708582,-196608,76,-56,-1,-1,0
1523627708582,-262144,76,-56,-1,-1,0
1523627708582,-327680,76,-56,-1,-1,0
1523627708582,-458752,76,-56,-1,-1,0
1523627708631,-458752,76,-56,-1,-1,0
1523627708631,-524288,76,-56,-1,-1,0
1523627708631,-458752,76,-56,-1,-1,0
1523627708631,-458752,76,-56,-1,-1,0
1523627708631,-589824,76,-56,-1,-1,0
1523627708662,-851968,76,-56,-1,-1,0
1523627708662,-786432,76,-56,-1,-1,0
1523627708662,262144,76,-56,-1,-1,0
1523627708662,2555904,76,-56,-1,-1,0
1523627708662,4259840,76,-56,-1,-1,0
1523627708702,3145728,76,-56,-1,-1,0
1523627708702,589824,76,-56,-1,-1,0
1523627708702,-983040,76,-56,-1,-1,0
1523627708702,-1048576,76,-56,-1,-1,0
1523627708702,-786432,76,-56,-1,-1,0
1523627708742,-524288,75,-56,-1,-1,0
1523627708742,-458752,75,-56,-1,-1,0
1523627708742,-458752,75,-56,-1,-1,0
1523627708742,-458752,75,-56,-1,-1,0
1523627708742,-589824,75,-56,-1,-1,0
1523627708782,-524288,75,-56,-1,-1,0
1523627708782,-458752,75,-56,-1,-1,0
1523627708782,-393216,75,-56,-1,-1,0
1523627708782,-458752,75,-56,-1,-1,0
1523627708782,-589824,75,-56,-1,-1,0
1523627708822,-393216,75,-56,-1,-1,0
1523627708822,-262144,75,-56,-1,-1,0
1523627708822,-327680,75,-56,-1,-1,0
1523627708822,-458752,75,-56,-1,-1,0
1523627708822,-327680,75,-56,-1,-1,0
1523627708862,-196608,75,-56,-1,-1,0
1523627708862,-131072,75,-56,-1,-1,0
1523627708862,0,75,-56,-1,-1,0
1523627708862,262144,75,-56,-1,-1,0
1523627708862,589824,75,-56,-1,-1,0
1523627708902,917504,75,-56,-1,-1,0
1523627708902,1179648,75,-56,-1,-1,0
1523627708902,1441792,75,-56,-1,-1,0
1523627708902,1638400,75,-56,-1,-1,0
1523627708902,1835008,75,-56,-1,-1,0
1523627708942,1835008,75,-56,-1,-1,0
1523627708942,1572864,75,-56,-1,-1,0
1523627708942,1179648,75,-56,-1,-1,0
1523627708942,786432,75,-56,-1,-1,0
1523627708942,393216,75,-56,-1,-1,0
1523627708982,0,75,-56,-1,-1,0
1523627708982,-131072,75,-56,-1,-1,0
1523627708982,-131072,75,-56,-1,-1,0
1523627708982,-65536,75,-56,-1,-1,0
1523627708982,-131072,75,-56,-1,-1,0
1523627709022,-327680,75,-56,-1,-1,0
1523627709022,-393216,75,-56,-1,-1,0
1523627709022,-327680,75,-56,-1,-1,0
1523627709022,-262144,75,-56,-1,-1,0
1523627709022,-262144,75,-56,-1,-1,0
1523627709062,-327680,75,-56,-1,-1,0
1523627709062,-327680,75,-56,-1,-1,0
1523627709062,-196608,75,-56,-1,-1,0
1523627709062,-131072,75,-56,-1,-1,0
1523627709062,-131072,75,-56,-1,-1,0
1523627709102,-196608,75,-56,-1,-1,0
1523627709102,-196608,75,-56,-1,-1,0
1523627709102,-196608,75,-56,-1,-1,0
1523627709102,-196608,75,-56,-1,-1,0
1523627709102,-131072,75,-56,-1,-1,0
1523627709142,-131072,75,-56,-1,-1,0
1523627709142,-131072,75,-56,-1,-1,0
1523627709142,-196608,75,-56,-1,-1,0
1523627709142,-196608,75,-56,-1,-1,0
1523627709142,-196608,75,-56,-1,-1,0
1523627709182,-262144,75,-56,-1,-1,0
1523627709182,-327680,75,-56,-1,-1,0
1523627709182,-262144,75,-56,-1,-1,0
1523627709182,-262144,75,-56,-1,-1,0
1523627709182,-262144,75,-56,-1,-1,0
1523627709222,-262144,75,-56,-1,-1,0
1523627709222,-262144,75,-56,-1,-1,0
1523627709222,-262144,75,-56,-1,-1,0
1523627709222,-327680,75,-56,-1,-1,0
1523627709222,-327680,75,-56,-1,-1,0
1523627709271,-262144,75,-56,-1,-1,0
1523627709271,-327680,75,-56,-1,-1,0
1523627709271,-327680,75,-56,-1,-1,0
1523627709271,-262144,75,-56,-1,-1,0
1523627709271,-196608,75,-56,-1,-1,0
1523627709302,-131072,75,-56,-1,-1,0
1523627709302,-262144,75,-56,-1,-1,0
1523627709302,-327680,75,-56,-1,-1,0
1523627709302,-327680,75,-56,-1,-1,0
1523627709302,-327680,75,-56,-1,-1,0
1523627709342,-196608,75,-56,-1,-1,0
1523627709342,-196608,75,-56,-1,-1,0
1523627709342,-131072,75,-56,-1,-1,0
1523627709342,-65536,75,-56,-1,-1,0
1523627709342,0,75,-56,-1,-1,0
1523627709382,0,75,-56,-1,-1,0
1523627709382,0,75,-56,-1,-1,0
1523627709382,-131072,75,-56,-1,-1,0
1523627709382,-196608,75,-56,-1,-1,0
1523627709382,-131072,75,-56,-1,-1,0
1523627709422,-65536,75,-56,-1,-1,0
1523627709422,-65536,75,-56,-1,-1,0
1523627709422,-262144,75,-56,-1,-1,0
1523627709422,-589824,75,-56,-1,-1,0
1523627709422,-524288,75,-56,-1,-1,0
1523627709462,786432,75,-56,-1,-1,0
1523627709462,3145728,75,-56,-1,-1,0
1523627709462,4653056,75,-56,-1,-1,0
1523627709462,3407872,75,-56,-1,-1,0
1523627709462,720896,75,-56,-1,-1,0
1523627709502,-589824,74,-56,-1,-1,0
1523627709502,-720896,74,-56,-1,-1,0
1523627709502,-458752,74,-56,-1,-1,0
1523627709502,-393216,74,-56,-1,-1,0
1523627709502,-393216,74,-56,-1,-1,0
1523627709542,-393216,74,-56,-1,-1,0
1523627709542,-327680,74,-56,-1,-1,0
1523627709542,-393216,74,-56,-1,-1,0
1523627709542,-327680,74,-56,-1,-1,0
1523627709542,-393216,74,-56,-1,-1,0
1523627709582,-327680,74,-56,-1,-1,0
1523627709582,-393216,74,-56,-1,-1,0
1523627709582,-327680,74,-56,-1,-1,0
1523627709582,-327680,74,-56,-1,-1,0
1523627709582,-393216,74,-56,-1,-1,0
1523627709622,-393216,74,-56,-1,-1,0
1523627709622,-262144,74,-56,-1,-1,0
1523627709622,-131072,74,-56,-1,-1,0
1523627709622,0,74,-56,-1,-1,0
1523627709622,0,74,-56,-1,-1,0
1523627709662,131072,74,-56,-1,-1,0
1523627709662,327680,74,-56,-1,-1,0
1523627709662,589824,74,-56,-1,-1,0
1523627709662,851968,74,-56,-1,-1,0
1523627709662,1114112,74,-56,-1,-1,0
1523627709702,1310720,74,-56,-1,-1,0
1523627709702,1507328,74,-56,-1,-1,0
1523627709702,1638400,74,-56,-1,-1,0
1523627709702,1638400,74,-56,-1,-1,0
1523627709702,1376256,74,-56,-1,-1,0
1523627709742,983040,74,-56,-1,-1,0
1523627709742,589824,74,-56,-1,-1,0
1523627709742,262144,74,-56,-1,-1,0
1523627709742,65536,74,-56,-1,-1,0
1523627709742,0,74,-56,-1,-1,0
1523627709782,-131072,74,-56,-1,-1,0
1523627709782,-262144,74,-56,-1,-1,0
1523627709782,-327680,74,-56,-1,-1,0
1523627709782,-262144,74,-56,-1,-1,0
1523627709782,-262144,74,-56,-1,-1,0
1523627709822,-262144,74,-56,-1,-1,0
1523627709822,-262144,74,-56,-1,-1,0
1523627709822,-196608,74,-56,-1,-1,0
1523627709822,-196608,74,-56,-1,-1,0
1523627709822,-196608,74,-56,-1,-1,0
1523627709862,-65536,74,-56,-1,-1,0
1523627709862,-131072,74,-56,-1,-1,0
1523627709862,-196608,74,-56,-1,-1,0
1523627709862,-131072,74,-56,-1,-1,0
1523627709862,0,74,-56,-1,-1,0
1523627709911,0,74,-56,-1,-1,0
1523627709911,-196608,74,-56,-1,-1,0
1523627709911,-262144,74,-56,-1,-1,0
1523627709911,-196608,74,-56,-1,-1,0
1523627709911,-262144,74,-56,-1,-1,0
1523627709942,-327680,74,-56,-1,-1,0
1523627709942,-327680,74,-56,-1,-1,0
1523627709942,-262144,74,-56,-1,-1,0
1523627709942,-262144,74,-56,-1,-1,0
1523627709942,-262144,74,-56,-1,-1,0
1523627709982,-327680,74,-56,-1,-1,0
1523627709982,-327680,74,-56,-1,-1,0
1523627709982,-327680,74,-56,-1,-1,0
1523627709982,-327680,74,-56,-1,-1,0
1523627709982,-393216,74,-56,-1,-1,0
1523627710022,-393216,74,-56,-1,-1,0
1523627710022,-458752,74,-56,-1,-1,0
1523627710022,-458752,74,-56,-1,-1,0
1523627710022,-458752,74,-56,-1,-1,0
1523627710022,-393216,74,-56,-1,-1,0
1523627710062,-327680,74,-56,-1,-1,0
1523627710062,-327680,74,-56,-1,-1,0
1523627710062,-393216,74,-56,-1,-1,0
1523627710062,-393216,74,-56,-1,-1,0
1523627710062,-458752,74,-56,-1,-1,0
1523627710102,-524288,74,-56,-1,-1,0
1523627710102,-524288,74,-56,-1,-1,0
1523627710102,-524288,74,-56,-1,-1,0
1523627710102,-458752,74,-56,-1,-1,0
1523627710102,-327680,74,-56,-1,-1,0
1523627710142,-196608,74,-56,-1,-1,0
1523627710142,-196608,74,-56,-1,-1,0
1523627710142,-262144,74,-56,-1,-1,0
1523627710142,-327680,74,-56,-1,-1,0
1523627710142,-393216,74,-56,-1,-1,0
1523627710182,-393216,74,-56,-1,-1,0
1523627710182,-393216,74,-56,-1,-1,0
1523627710182,-327680,74,-56,-1,-1,0
1523627710182,-393216,74,-56,-1,-1,0
1523627710182,-589824,74,-56,-1,-1,0
1523627710222,-851968,74,-56,-1,-1,0
1523627710222,-589824,74,-56,-1,-1,0
1523627710222,917504,74,-56,-1,-1,0
1523627710222,3407872,74,-56,-1,-1,0
1523627710222,4390912,74,-56,-1,-1,0
1523627710262,2686976,74,-56,-1,-1,0
1523627710262,196608,74,-56,-1,-1,0
1523627710262,-786432,74,-56,-1,-1,0
1523627710262,-720896,74,-56,-1,-1,0
1523627710262,-524288,74,-56,-1,-1,0
1523627710302,-458752,74,-56,-1,-1,0
1523627710302,-458752,74,-56,-1,-1,0
1523627710302,-393216,74,-56,-1,-1,0
1523627710302,-393216,74,-56,-1,-1,0
1523627710302,-327680,74,-56,-1,-1,0
1523627710342,-327680,74,-56,-1,-1,0
1523627710342,-327680,74,-56,-1,-1,0
1523627710342,-262144,74,-56,-1,-1,0
1523627710342,-327680,74,-56,-1,-1,0
1523627710342,-327680,74,-56,-1,-1,0
1523627710382,-327680,74,-56,-1,-1,0
1523627710382,-262144,74,-56,-1,-1,0
1523627710382,-196608,74,-56,-1,-1,0
1523627710382,-131072,74,-56,-1,-1,0
1523627710382,0,74,-56,-1,-1,0
1523627710422,65536,74,-56,-1,-1,0
1523627710422,131072,74,-56,-1,-1,0
1523627710422,327680,74,-56,-1,-1,0
1523627710422,524288,74,-56,-1,-1,0
1523627710422,851968,74,-56,-1,-1,0
1523627710462,1179648,74,-56,-1,-1,0
1523627710462,1441792,74,-56,-1,-1,0
1523627710462,1703936,74,-56,-1,-1,0
1523627710462,1835008,74,-56,-1,-1,0
1523627710462,1900544,74,-56,-1,-1,0
1523627710502,1835008,74,-56,-1,-1,0
1523627710502,1638400,74,-56,-1,-1,0
1523627710502,1179648,74,-56,-1,-1,0
1523627710502,655360,74,-56,-1,-1,0
1523627710502,327680,74,-56,-1,-1,0
1523627710551,262144,74,-56,-1,-1,0
1523627710551,65536,74,-56,-1,-1,0
1523627710551,0,74,-56,-1,-1,0
1523627710551,-131072,74,-56,-1,-1,0
1523627710551,-131072,74,-56,-1,-1,0
1523627710583,-131072,74,-56,-1,-1,0
1523627710583,-131072,74,-56,-1,-1,0
1523627710583,-131072,74,-56,-1,-1,0
1523627710583,-65536,74,-56,-1,-1,0
1523627710583,-65536,74,-56,-1,-1,0
1523627710622,-131072,74,-56,-1,-1,0
1523627710622,-131072,74,-56,-1,-1,0
1523627710622,-131072,74,-56,-1,-1,0
1523627710622,-131072,74,-56,-1,-1,0
1523627710622,-131072,74,-56,-1,-1,0
1523627710662,-65536,74,-56,-1,-1,0
1523627710662,-65536,74,-56,-1,-1,0
1523627710662,-65536,74,-56,-1,-1,0
1523627710662,0,74,-56,-1,-1,0
1523627710662,0,74,-56,-1,-1,0
1523627710702,-65536,74,-56,-1,-1,0
1523627710702,-65536,74,-56,-1,-1,0
1523627710702,-65536,74,-56,-1,-1,0
1523627710702,-65536,74,-56,-1,-1,0
1523627710702,-65536,74,-56,-1,-1,0
1523627710742,-65536,74,-56,-1,-1,0
1523627710742,-65536,74,-56,-1,-1,0
1523627710742,-131072,74,-56,-1,-1,0
1523627710742,-131072,74,-56,-1,-1,0
1523627710742,-131072,74,-56,-1,-1,0
1523627710782,-131072,74,-56,-1,-1,0
1523627710782,-196608,74,-56,-1,-1,0
1523627710782,-196608,74,-56,-1,-1,0
1523627710782,-196608,74,-56,-1,-1,0
1523627710782,-262144,74,-56,-1,-1,0
1523627710822,-262144,74,-56,-1,-1,0
1523627710822,-262144,74,-56,-1,-1,0
1523627710822,-262144,74,-56,-1,-1,0
1523627710822,-262144,74,-56,-1,-1,0
1523627710822,-327680,74,-56,-1,-1,0
1523627710862,-327680,74,-56,-1,-1,0
1523627710862,-262144,74,-56,-1,-1,0
1523627710862,-262144,74,-56,-1,-1,0
1523627710862,-327680,74,-56,-1,-1,0
1523627710862,-393216,74,-56,-1,-1,0
1523627710902,-393216,74,-56,-1,-1,0
1523627710902,-327680,74,-56,-1,-1,0
1523627710902,-327680,74,-56,-1,-1,0
1523627710902,-327680,74,-56,-1,-1,0
1523627710902,-458752,74,-56,-1,-1,0
1523627710942,-458752,74,-56,-1,-1,0
1523627710942,-458752,74,-56,-1,-1,0
1523627710942,-458752,74,-56,-1,-1,0
1523627710942,-393216,74,-56,-1,-1,0
1523627710942,-327680,74,-56,-1,-1,0
1523627710982,-262144,74,-56,-1,-1,0
1523627710982,-262144,74,-56,-1,-1,0
1523627710982,-262144,74,-56,-1,-1,0
1523627710982,-262144,74,-56,-1,-1,0
1523627710982,-393216,74,-56,-1,-1,0
1523627711022,-393216,74,-56,-1,-1,0
1523627711022,-393216,74,-56,-1,-1,0
1523627711022,-393216,74,-56,-1,-1,0
1523627711022,-393216,74,-56,-1,-1,0
1523627711022,-393216,74,-56,-1,-1,0
1523627711062,-655360,74,-56,-1,-1,0
1523627711062,-851968,74,-56,-1,-1,0
1523627711062,-196608,74,-56,-1,-1,0
1523627711062,1769472,74,-56,-1,-1,0
1523627711062,3866624,74,-56,-1,-1,0
1523627711102,3866624,74,-56,-1,-1,0
1523627711102,1769472,74,-56,-1,-1,0
1523627711102,-196608,74,-56,-1,-1,0
1523627711102,-786432,74,-56,-1,-1,0
1523627711102,-655360,74,-56,-1,-1,0
1523627711142,-524288,74,-56,-1,-1,0
1523627711142,-393216,74,-56,-1,-1,0
1523627711142,-458752,74,-56,-1,-1,0
1523627711142,-524288,74,-56,-1,-1,0
1523627711142,-458752,74,-56,-1,-1,0
1523627711191,-393216,74,-56,-1,-1,0
1523627711191,-327680,74,-56,-1,-1,0
1523627711191,-327680,74,-56,-1,-1,0
1523627711191,-327680,74,-56,-1,-1,0
1523627711191,-327680,74,-56,-1,-1,0
1523627711222,-262144,73,-56,-1,-1,0
1523627711222,-196608,73,-56,-1,-1,0
1523627711222,-196608,73,-56,-1,-1,0
1523627711222,-131072,73,-56,-1,-1,0
1523627711222,-65536,73,-56,-1,-1,0
1523627711262,-65536,73,-56,-1,-1,0
1523627711262,0,73,-56,-1,-1,0
1523627711262,196608,73,-56,-1,-1,0
1523627711262,458752,73,-56,-1,-1,0
1523627711262,589824,73,-56,-1,-1,0
1523627711302,786432,73,-56,-1,-1,0
1523627711302,1048576,73,-56,-1,-1,0
1523627711302,1376256,73,-56,-1,-1,0
1523627711302,1638400,73,-56,-1,-1,0
1523627711302,1769472,73,-56,-1,-1,0
1523627711342,1835008,73,-56,-1,-1,0
1523627711342,1638400,73,-56,-1,-1,0
1523627711342,1376256,73,-56,-1,-1,0
1523627711342,1048576,73,-56,-1,-1,0
1523627711342,720896,73,-56,-1,-1,0
1523627711382,327680,73,-56,-1,-1,0
1523627711382,65536,73,-56,-1,-1,0
1523627711382,-65536,73,-56,-1,-1,0
1523627711382,-196608,73,-56,-1,-1,0
1523627711382,-131072,73,-56,-1,-1,0
1523627711422,-65536,73,-56,-1,-1,0
1523627711422,-65536,73,-56,-1,-1,0
1523627711422,-65536,73,-56,-1,-1,0
1523627711422,-65536,73,-56,-1,-1,0
1523627711422,-131072,73,-56,-1,-1,0
1523627711462,-262144,73,-56,-1,-1,0
1523627711462,-131072,73,-56,-1,-1,0
1523627711462,-65536,73,-56,-1,-1,0
1523627711462,-65536,73,-56,-1,-1,0
1523627711462,-65536,73,-56,-1,-1,0
1523627711502,-65536,73,-56,-1,-1,0
1523627711502,-65536,73,-56,-1,-1,0
1523627711502,-131072,73,-56,-1,-1,0
1523627711502,-65536,73,-56,-1,-1,0
1523627711502,0,73,-56,-1,-1,0
1523627711542,-65536,73,-56,-1,-1,0
1523627711542,-131072,73,-56,-1,-1,0
1523627711542,-65536,73,-56,-1,-1,0
1523627711542,0,73,-56,-1,-1,0
1523627711542,-65536,73,-56,-1,-1,0
1523627711582,-65536,73,-56,-1,-1,0
1523627711582,0,73,-56,-1,-1,0
1523627711582,-65536,73,-56,-1,-1,0
1523627711582,-131072,73,-56,-1,-1,0
1523627711582,-65536,73,-56,-1,-1,0
1523627711622,-65536,73,-56,-1,-1,0
1523627711622,-65536,73,-56,-1,-1,0
1523627711622,-65536,73,-56,-1,-1,0
1523627711622,-131072,73,-56,-1,-1,0
1523627711622,-131072,73,-56,-1,-1,0
1523627711662,-131072,73,-56,-1,-1,0
1523627711662,-131072,73,-56,-1,-1,0
1523627711662,-131072,73,-56,-1,-1,0
1523627711662,-131072,73,-56,-1,-1,0
1523627711662,-131072,73,-56,-1,-1,0
1523627711702,-131072,73,-56,-1,-1,0
1523627711702,-262144,73,-56,-1,-1,0
1523627711702,-327680,73,-56,-1,-1,0
1523627711702,-327680,73,-56,-1,-1,0
1523627711702,-262144,73,-56,-1,-1,0
1523627711742,-327680,73,-56,-1,-1,0
1523627711742,-327680,73,-56,-1,-1,0
1523627711742,-262144,73,-56,-1,-1,0
1523627711742,-196608,73,-56,-1,-1,0
1523627711742,-196608,73,-56,-1,-1,0
1523627711782,-393216,73,-56,-1,-1,0
1523627711782,-589824,73,-56,-1,-1,0
1523627711782,-589824,73,-56,-1,-1,0
1523627711782,-393216,73,-56,-1,-1,0
1523627711782,-327680,73,-56,-1,-1,0
1523627711831,-327680,73,-56,-1,-1,0
1523627711831,-327680,73,-56,-1,-1,0
1523627711831,-262144,73,-56,-1,-1,0
1523627711831,-262144,73,-56,-1,-1,0
1523627711831,-196608,73,-56,-1,-1,0
1523627711862,-196608,73,-56,-1,-1,0
1523627711862,-262144,73,-56,-1,-1,0
1523627711862,-393216,73,-56,-1,-1,0
1523627711862,-393216,73,-56,-1,-1,0
1523627711862,-458752,73,-56,-1,-1,0
1523627711902,-458752,73,-56,-1,-1,0
1523627711902,-393216,73,-56,-1,-1,0
1523627711902,-458752,73,-56,-1,-1,0
1523627711902,-655360,73,-56,-1,-1,0
1523627711902,-458752,73,-56,-1,-1,0
1523627711942,655360,73,-56,-1,-1,0
1523627711942,2883584,73,-56,-1,-1,0
1523627711942,4194304,73,-56,-1,-1,0
1523627711942,3014656,73,-56,-1,-1,0
1523627711942,524288,73,-56,-1,-1,0
1523627711982,-786432,73,-56,-1,-1,0
1523627711982,-917504,73,-56,-1,-1,0
1523627711982,-589824,73,-56,-1,-1,0
1523627711982,-393216,73,-56,-1,-1,0
1523627711982,-262144,73,-56,-1,-1,0
1523627712023,-262144,71,-56,-1,-1,0
1523627712023,-196608,71,-56,-1,-1,0
1523627712023,-196608,71,-56,-1,-1,0
1523627712023,-196608,71,-56,-1,-1,0
1523627712023,-196608,71,-56,-1,-1,0
1523627712062,-196608,71,-56,-1,-1,0
1523627712062,-262144,71,-56,-1,-1,0
1523627712062,-327680,71,-56,-1,-1,0
1523627712062,-196608,71,-56,-1,-1,0
1523627712062,-65536,71,-56,-1,-1,0
1523627712102,0,71,-56,-1,-1,0
1523627712102,-65536,71,-56,-1,-1,0
1523627712102,0,71,-56,-1,-1,0
1523627712102,196608,71,-56,-1,-1,0
1523627712102,327680,71,-56,-1,-1,0
1523627712143,393216,71,-56,-1,-1,0
1523627712143,524288,71,-56,-1,-1,0
1523627712143,786432,71,-56,-1,-1,0
1523627712143,1179648,71,-56,-1,-1,0
1523627712143,1441792,71,-56,-1,-1,0
1523627712182,1638400,71,-56,-1,-1,0
1523627712182,1835008,71,-56,-1,-1,0
1523627712182,2031616,71,-56,-1,-1,0
1523627712182,2031616,71,-56,-1,-1,0
1523627712182,1769472,71,-56,-1,-1,0
1523627712222,1507328,71,-56,-1,-1,0
1523627712222,1114112,71,-56,-1,-1,0
1523627712222,786432,71,-56,-1,-1,0
1523627712222,458752,71,-56,-1,-1,0
1523627712222,196608,71,-56,-1,-1,0
1523627712262,131072,71,-56,-1,-1,0
1523627712262,65536,71,-56,-1,-1,0
1523627712262,0,71,-56,-1,-1,0
1523627712262,0,71,-56,-1,-1,0
1523627712262,-65536,71,-56,-1,-1,0
1523627712302,-65536,71,-56,-1,-1,0
1523627712302,0,71,-56,-1,-1,0
1523627712302,-65536,71,-56,-1,-1,0
1523627712302,-131072,71,-56,-1,-1,0
1523627712302,0,71,-56,-1,-1,0
1523627712343,0,71,-56,-1,-1,0
1523627712343,0,71,-56,-1,-1,0
1523627712343,0,71,-56,-1,-1,0
1523627712343,65536,71,-56,-1,-1,0
1523627712343,65536,71,-56,-1,-1,0
1523627712382,65536,71,-56,-1,-1,0
1523627712382,65536,71,-56,-1,-1,0
1523627712382,131072,71,-56,-1,-1,0
1523627712382,262144,71,-56,-1,-1,0
1523627712382,131072,71,-56,-1,-1,0
1523627712422,0,71,-56,-1,-1,0
1523627712422,65536,71,-56,-1,-1,0
1523627712422,196608,71,-56,-1,-1,0
1523627712422,131072,71,-56,-1,-1,0
1523627712422,0,71,-56,-1,-1,0
1523627712471,0,71,-56,-1,-1,0
1523627712471,0,71,-56,-1,-1,0
1523627712471,0,71,-56,-1,-1,0
1523627712471,-65536,71,-56,-1,-1,0
1523627712471,-131072,71,-56,-1,-1,0
1523627712502,-131072,71,-56,-1,-1,0
1523627712502,-131072,71,-56,-1,-1,0
1523627712502,-131072,71,-56,-1,-1,0
1523627712502,-262144,71,-56,-1,-1,0
1523627712502,-262144,71,-56,-1,-1,0
1523627712542,-262144,71,-56,-1,-1,0
1523627712542,-262144,71,-56,-1,-1,0
1523627712542,-327680,71,-56,-1,-1,0
1523627712542,-327680,71,-56,-1,-1,0
1523627712542,-327680,71,-56,-1,-1,0
1523627712582,-262144,71,-56,-1,-1,0
1523627712582,-327680,71,-56,-1,-1,0
1523627712582,-458752,71,-56,-1,-1,0
1523627712582,-589824,71,-56,-1,-1,0
1523627712582,-393216,71,-56,-1,-1,0
1523627712622,-327680,71,-56,-1,-1,0
1523627712622,-393216,71,-56,-1,-1,0
1523627712622,-458752,71,-56,-1,-1,0
1523627712622,-458752,71,-56,-1,-1,0
1523627712622,-458752,71,-56,-1,-1,0
1523627712662,-393216,71,-56,-1,-1,0
1523627712662,-262144,71,-56,-1,-1,0
1523627712662,-327680,71,-56,-1,-1,0
1523627712662,-327680,71,-56,-1,-1,0
1523627712662,-327680,71,-56,-1,-1,0
1523627712702,-327680,71,-56,-1,-1,0
1523627712702,-458752,71,-56,-1,-1,0
1523627712702,-458752,71,-56,-1,-1,0
1523627712702,-393216,71,-56,-1,-1,0
1523627712702,-589824,71,-56,-1,-1,0
1523627712742,-720896,71,-56,-1,-1,0
1523627712742,-65536,71,-56,-1,-1,0
1523627712742,1572864,71,-56,-1,-1,0
1523627712742,3670016,71,-56,-1,-1,0
1523627712742,3866624,71,-56,-1,-1,0
1523627712782,1835008,71,-56,-1,-1,0
1523627712782,-65536,71,-56,-1,-1,0
1523627712782,-655360,71,-56,-1,-1,0
1523627712782,-655360,71,-56,-1,-1,0
1523627712782,-393216,71,-56,-1,-1,0
1523627712822,-131072,71,-56,-1,-1,0
1523627712822,-65536,71,-56,-1,-1,0
1523627712822,0,71,-56,-1,-1,0
1523627712822,-65536,71,-56,-1,-1,0
1523627712822,0,71,-56,-1,-1,0
1523627712862,131072,71,-56,-1,-1,0
1523627712862,131072,71,-56,-1,-1,0
1523627712862,131072,71,-56,-1,-1,0
1523627712862,65536,71,-56,-1,-1,0
1523627712862,131072,71,-56,-1,-1,0
1523627712902,196608,71,-56,-1,-1,0
1523627712902,262144,71,-56,-1,-1,0
1523627712902,327680,71,-56,-1,-1,0
1523627712902,458752,71,-56,-1,-1,0
1523627712902,393216,71,-56,-1,-1,0
1523627712942,524288,71,-56,-1,-1,0
1523627712942,786432,71,-56,-1,-1,0
1523627712942,983040,71,-56,-1,-1,0
1523627712942,1114112,71,-56,-1,-1,0
1523627712942,1441792,71,-56,-1,-1,0
1523627712982,1835008,71,-56,-1,-1,0
1523627712982,2097152,71,-56,-1,-1,0
1523627712982,2228224,71,-56,-1,-1,0
1523627712982,2424832,71,-56,-1,-1,0
1523627712982,2490368,71,-56,-1,-1,0
1523627713022,2293760,71,-56,-1,-1,0
1523627713022,1966080,71,-56,-1,-1,0
1523627713022,1638400,71,-56,-1,-1,0
1523627713022,1245184,71,-56,-1,-1,0
1523627713022,983040,71,-56,-1,-1,0
1523627713062,720896,71,-56,-1,-1,0
1523627713062,458752,71,-56,-1,-1,0
1523627713062,196608,71,-56,-1,-1,0
1523627713062,196608,71,-56,-1,-1,0
1523627713062,196608,71,-56,-1,-1,0
1523627713111,131072,71,-56,-1,-1,0
1523627713111,196608,71,-56,-1,-1,0
1523627713111,196608,71,-56,-1,-1,0
1523627713111,131072,71,-56,-1,-1,0
1523627713111,196608,71,-56,-1,-1,0
1523627713142,393216,71,-56,-1,-1,0
1523627713142,393216,71,-56,-1,-1,0
1523627713142,262144,71,-56,-1,-1,0
1523627713142,196608,71,-56,-1,-1,0
1523627713142,196608,71,-56,-1,-1,0
1523627713182,196608,71,-56,-1,-1,0
1523627713182,262144,71,-56,-1,-1,0
1523627713182,458752,71,-56,-1,-1,0
1523627713182,720896,71,-56,-1,-1,0
1523627713182,720896,71,-56,-1,-1,0
1523627713222,65536,71,-56,-1,-1,0
1523627713222,-393216,71,-56,-1,-1,0
1523627713222,-524288,71,-56,-1,-1,0
1523627713222,-327680,71,-56,-1,-1,0
1523627713222,-196608,71,-56,-1,-1,0
1523627713262,196608,71,-56,-1,-1,0
1523627713262,262144,71,-56,-1,-1,0
1523627713262,-262144,71,-56,-1,-1,0
1523627713262,-720896,71,-56,-1,-1,0
1523627713262,-327680,71,-56,-1,-1,0
1523627713303,-196608,71,-56,-1,-1,0
1523627713303,-589824,71,-56,-1,-1,0
1523627713303,-1114112,71,-56,-1,-1,0
1523627713303,-983040,71,-56,-1,-1,0
1523627713303,-393216,71,-56,-1,-1,0
1523627713342,-393216,71,-56,-1,-1,0
1523627713342,-1048576,71,-56,-1,-1,0
1523627713342,-1376256,71,-56,-1,-1,0
1523627713342,-1703936,71,-56,-1,-1,0
1523627713342,-1769472,71,-56,-1,-1,0
1523627713382,-1703936,71,-56,-1,-1,0
1523627713382,-1572864,71,-56,-1,-1,0
1523627713382,-1572864,71,-56,-1,-1,0
1523627713382,-1441792,71,-56,-1,-1,0
1523627713382,-1245184,71,-56,-1,-1,0
1523627713422,-1179648,71,-56,-1,-1,0
1523627713422,-1572864,71,-56,-1,-1,0
1523627713422,-1769472,71,-56,-1,-1,0
1523627713422,-1703936,71,-56,-1,-1,0
1523627713422,-1507328,71,-56,-1,-1,0
1523627713462,-1310720,71,-56,-1,-1,0
1523627713462,-1048576,71,-56,-1,-1,0
1523627713462,-917504,71,-56,-1,-1,0
1523627713462,-1179648,71,-56,-1,-1,0
1523627713462,-1572864,71,-56,-1,-1,0
1523627713502,-1572864,71,-56,-1,-1,0
1523627713502,-1507328,71,-56,-1,-1,0
1523627713502,-1441792,71,-56,-1,-1,0
1523627713502,-1245184,71,-56,-1,-1,0
1523627713502,-1114112,71,-56,-1,-1,0
1523627713542,-1441792,71,-56,-1,-1,0
1523627713542,-1572864,71,-56,-1,-1,0
1523627713542,-917504,71,-56,-1,-1,0
1523627713542,917504,71,-56,-1,-1,0
1523627713542,3014656,71,-56,-1,-1,0
1523627713582,2949120,71,-56,-1,-1,0
1523627713582,786432,71,-56,-1,-1,0
1523627713582,-1114112,71,-56,-1,-1,0
1523627713582,-1179648,71,-56,-1,-1,0
1523627713582,-1245184,71,-56,-1,-1,0
1523627713622,-1376256,71,-56,-1,-1,0
1523627713622,-1376256,71,-56,-1,-1,0
1523627713622,-1310720,71,-56,-1,-1,0
1523627713622,-1376256,71,-56,-1,-1,0
1523627713622,-1245184,71,-56,-1,-1,0
1523627713662,-1048576,71,-56,-1,-1,0
1523627713662,-1048576,71,-56,-1,-1,0
1523627713662,-1179648,71,-56,-1,-1,0
1523627713662,-1048576,71,-56,-1,-1,0
1523627713662,-917504,71,-56,-1,-1,0
1523627713702,-917504,71,-56,-1,-1,0
1523627713702,-917504,71,-56,-1,-1,0
1523627713702,-851968,71,-56,-1,-1,0
1523627713702,-851968,71,-56,-1,-1,0
1523627713702,-720896,71,-56,-1,-1,0
1523627713751,-589824,71,-56,-1,-1,0
1523627713751,-524288,71,-56,-1,-1,0
1523627713751,-393216,71,-56,-1,-1,0
1523627713751,-196608,71,-56,-1,-1,0
1523627713751,0,71,-56,-1,-1,0
1523627713782,327680,71,-56,-1,-1,0
1523627713782,589824,71,-56,-1,-1,0
1523627713782,655360,71,-56,-1,-1,0
1523627713782,786432,71,-56,-1,-1,0
1523627713782,1048576,71,-56,-1,-1,0
1523627713822,1245184,71,-56,-1,-1,0
1523627713822,1179648,71,-56,-1,-1,0
1523627713822,917504,71,-56,-1,-1,0
1523627713822,655360,71,-56,-1,-1,0
1523627713822,196608,71,-56,-1,-1,0
1523627713862,-131072,71,-56,-1,-1,0
1523627713862,-458752,71,-56,-1,-1,0
1523627713862,-655360,71,-56,-1,-1,0
1523627713862,-720896,71,-56,-1,-1,0
1523627713862,-786432,71,-56,-1,-1,0
1523627713902,-851968,71,-56,-1,-1,0
1523627713902,-720896,71,-56,-1,-1,0
1523627713902,-589824,71,-56,-1,-1,0
1523627713902,-524288,71,-56,-1,-1,0
1523627713902,-589824,71,-56,-1,-1,0
1523627713943,-589824,71,-56,-1,-1,0
1523627713943,-524288,71,-56,-1,-1,0
1523627713943,-524288,71,-56,-1,-1,0
1523627713943,-524288,71,-56,-1,-1,0
1523627713943,-458752,71,-56,-1,-1,0
1523627713982,-393216,71,-56,-1,-1,0
1523627713982,-327680,71,-56,-1,-1,0
1523627713982,-131072,71,-56,-1,-1,0
1523627713982,-65536,71,-56,-1,-1,0
1523627713982,-196608,71,-56,-1,-1,0
1523627714022,-262144,71,-56,-1,-1,0
1523627714022,-131072,71,-56,-1,-1,0
1523627714022,-131072,71,-56,-1,-1,0
1523627714022,-131072,71,-56,-1,-1,0
1523627714022,-196608,71,-56,-1,-1,0
1523627714062,0,71,-56,-1,-1,0
1523627714062,0,71,-56,-1,-1,0
1523627714062,-65536,71,-56,-1,-1,0
1523627714062,0,71,-56,-1,-1,0
1523627714062,0,71,-56,-1,-1,0
1523627714102,-131072,71,-56,-1,-1,0
1523627714102,-458752,71,-56,-1,-1,0
1523627714102,-393216,71,-56,-1,-1,0
1523627714102,-131072,71,-56,-1,-1,0
1523627714102,0,71,-56,-1,-1,0
1523627714142,-131072,71,-56,-1,-1,0
1523627714142,-262144,71,-56,-1,-1,0
1523627714142,-262144,71,-56,-1,-1,0
1523627714142,-196608,71,-56,-1,-1,0
1523627714142,-262144,71,-56,-1,-1,0
1523627714182,-327680,71,-56,-1,-1,0
1523627714182,-327680,71,-56,-1,-1,0
1523627714182,-393216,71,-56,-1,-1,0
1523627714182,-393216,71,-56,-1,-1,0
1523627714182,-393216,71,-56,-1,-1,0
1523627714222,-327680,71,-56,-1,-1,0
1523627714222,-262144,71,-56,-1,-1,0
1523627714222,-196608,71,-56,-1,-1,0
1523627714222,-196608,71,-56,-1,-1,0
1523627714222,-196608,71,-56,-1,-1,0
1523627714262,-262144,71,-56,-1,-1,0
1523627714262,-327680,71,-56,-1,-1,0
1523627714262,-327680,71,-56,-1,-1,0
1523627714262,-327680,71,-56,-1,-1,0
1523627714262,-327680,71,-56,-1,-1,0
1523627714302,-524288,71,-56,-1,-1,0
1523627714302,-655360,71,-56,-1,-1,0
1523627714302,-327680,71,-56,-1,-1,0
1523627714302,983040,71,-56,-1,-1,0
1523627714302,3211264,71,-56,-1,-1,0
1523627714342,4456448,72,-56,-1,-1,0
1523627714342,3014656,72,-56,-1,-1,0
1523627714342,393216,72,-56,-1,-1,0
1523627714342,-917504,72,-56,-1,-1,0
1523627714342,-917504,72,-56,-1,-1,0
1523627714391,-524288,72,-56,-1,-1,0
1523627714391,-262144,72,-56,-1,-1,0
1523627714391,-65536,72,-56,-1,-1,0
1523627714391,-65536,72,-56,-1,-1,0
1523627714391,-65536,72,-56,-1,-1,0
1523627714422,-131072,72,-56,-1,-1,0
1523627714422,-131072,72,-56,-1,-1,0
1523627714422,-131072,72,-56,-1,-1,0
1523627714422,0,72,-56,-1,-1,0
1523627714422,0,72,-56,-1,-1,0
1523627714462,0,72,-56,-1,-1,0
1523627714462,-65536,72,-56,-1,-1,0
1523627714462,0,72,-56,-1,-1,0
1523627714462,-65536,72,-56,-1,-1,0
1523627714462,0,72,-56,-1,-1,0
1523627714502,131072,72,-56,-1,-1,0
1523627714502,393216,72,-56,-1,-1,0
1523627714502,524288,72,-56,-1,-1,0
1523627714502,655360,72,-56,-1,-1,0
1523627714502,917504,72,-56,-1,-1,0
1523627714542,1310720,72,-56,-1,-1,0
1523627714542,1638400,72,-56,-1,-1,0
1523627714542,1966080,72,-56,-1,-1,0
1523627714542,2293760,72,-56,-1,-1,0
1523627714542,2490368,72,-56,-1,-1,0
1523627714582,2490368,72,-56,-1,-1,0
1523627714582,2424832,72,-56,-1,-1,0
1523627714582,2097152,72,-56,-1,-1,0
1523627714582,1638400,72,-56,-1,-1,0
1523627714582,1245184,72,-56,-1,-1,0
1523627714622,917504,72,-56,-1,-1,0
1523627714622,589824,72,-56,-1,-1,0
1523627714622,262144,72,-56,-1,-1,0
1523627714622,0,72,-56,-1,-1,0
1523627714622,-131072,72,-56,-1,-1,0
1523627714662,-65536,72,-56,-1,-1,0
1523627714662,0,72,-56,-1,-1,0
1523627714662,0,72,-56,-1,-1,0
1523627714662,-131072,72,-56,-1,-1,0
1523627714662,-196608,72,-56,-1,-1,0
1523627714702,-131072,72,-56,-1,-1,0
1523627714702,0,72,-56,-1,-1,0
1523627714702,0,72,-56,-1,-1,0
1523627714702,0,72,-56,-1,-1,0
1523627714702,0,72,-56,-1,-1,0
1523627714742,0,72,-56,-1,-1,0
1523627714742,0,72,-56,-1,-1,0
1523627714742,131072,72,-56,-1,-1,0
1523627714742,196608,72,-56,-1,-1,0
1523627714742,65536,72,-56,-1,-1,0
1523627714782,65536,72,-56,-1,-1,0
1523627714782,131072,72,-56,-1,-1,0
1523627714782,0,72,-56,-1,-1,0
1523627714782,65536,72,-56,-1,-1,0
1523627714782,131072,72,-56,-1,-1,0
1523627714822,0,72,-56,-1,-1,0
1523627714822,-131072,72,-56,-1,-1,0
1523627714822,0,72,-56,-1,-1,0
1523627714822,-65536,72,-56,-1,-1,0
1523627714822,-131072,72,-56,-1,-1,0
1523627714862,-65536,72,-56,-1,-1,0
1523627714862,-131072,72,-56,-1,-1,0
1523627714862,-262144,72,-56,-1,-1,0
1523627714862,-327680,72,-56,-1,-1,0
1523627714862,-327680,72,-56,-1,-1,0
1523627714902,-327680,72,-56,-1,-1,0
1523627714902,-131072,72,-56,-1,-1,0
1523627714902,-327680,72,-56,-1,-1,0
1523627714902,-786432,72,-56,-1,-1,0
1523627714902,-720896,72,-56,-1,-1,0
1523627714942,-262144,72,-56,-1,-1,0
1523627714942,-65536,72,-56,-1,-1,0
1523627714942,-524288,72,-56,-1,-1,0
1523627714942,-589824,72,-56,-1,-1,0
1523627714942,-524288,72,-56,-1,-1,0
1523627714982,-393216,72,-56,-1,-1,0
1523627714982,-589824,72,-56,-1,-1,0
1523627714982,-524288,72,-56,-1,-1,0
1523627714982,-655360,72,-56,-1,-1,0
1523627714982,-786432,72,-56,-1,-1,0
1523627715031,-720896,73,-56,-1,-1,0
1523627715031,-655360,73,-56,-1,-1,0
1523627715031,-1245184,73,-56,-1,-1,0
