milliseconds, ECG, ECG HR, PPG, PPG HR, SpO2, PI
0,-524288,113,-56,-1,-1,0
33,-262144,113,-56,-1,-1,0
66,-131072,113,-56,-1,-1,0
100,327680,113,-56,-1,-1,0
133,-262144,113,-56,-1,-1,0
166,-655360,113,-56,-1,-1,0
200,-393216,113,-56,-1,-1,0
233,-65536,113,-56,-1,-1,0
266,65536,113,-56,-1,-1,0
300,196608,113,-56,-1,-1,0
333,262144,113,-56,-1,-1,0
366,-458752,113,-56,-1,-1,0
400,458752,113,-56,-1,-1,0
433,-655360,113,-56,-1,-1,0
466,-786432,113,-56,-1,-1,0
500,-1179648,113,-56,-1,-1,0
533,-786432,113,-56,-1,-1,0
566,-589824,113,-56,-1,-1,0
600,-2424832,113,-56,-1,-1,0
633,-2359296,113,-56,-1,-1,0
666,-2949120,113,-56,-1,-1,0
700,-3145728,113,-56,-1,-1,0
733,-3276800,113,-56,-1,-1,0
766,-3473408,113,-56,-1,-1,0
800,-3407872,113,-56,-1,-1,0
833,1310720,113,-56,-1,-1,0
866,-3145728,113,-56,-1,-1,0
900,-1441792,113,-56,-1,-1,0
933,-262144,113,-56,-1,-1,0
966,-458752,113,-56,-1,-1,0
1000,2162688,113,-56,-1,-1,0
1033,1638400,113,-56,-1,-1,0
1066,983040,113,-56,-1,-1,0
1100,1835008,112,-56,-1,-1,0
1133,1769472,112,-56,-1,-1,0
1166,1441792,112,-56,-1,-1,0
1200,1638400,112,-56,-1,-1,0
1233,1114112,112,-56,-1,-1,0
1266,589824,112,-56,-1,-1,0
1300,1179648,112,-56,-1,-1,0
1333,1507328,112,-56,-1,-1,0
1366,1114112,112,-56,-1,-1,0
1400,1114112,112,-56,-1,-1,0
1433,2031616,112,-56,-1,-1,0
1466,1572864,112,-56,-1,-1,0
1500,-131072,112,-56,-1,-1,0
1533,-524288,112,-56,-1,-1,0
1566,-393216,112,-56,-1,-1,0
1600,-1048576,112,-56,-1,-1,0
1633,-1310720,112,-56,-1,-1,0
1666,-1376256,112,-56,-1,-1,0
1700,-1638400,112,-56,-1,-1,0
1733,-1703936,112,-56,-1,-1,0
1766,-1179648,112,-56,-1,-1,0
1800,-720896,112,-56,-1,-1,0
1833,0,112,-56,-1,-1,0
1866,851968,112,-56,-1,-1,0
1900,1048576,112,-56,-1,-1,0
1933,0,112,-56,-1,-1,0
1966,-327680,112,-56,-1,-1,0
2000,-65536,112,-56,-1,-1,0
2033,-655360,112,-56,-1,-1,0
2066,0,112,-56,-1,-1,0
2100,0,112,-56,-1,-1,0
2133,-196608,112,-56,-1,-1,0
2166,5046272,112,-56,-1,-1,0
2200,720896,112,-56,-1,-1,0
2233,851968,112,-56,-1,-1,0
2266,1245184,112,-56,-1,-1,0
2300,1835008,112,-56,-1,-1,0
2333,2490368,112,-56,-1,-1,0
2366,1441792,112,-56,-1,-1,0
2400,1048576,112,-56,-1,-1,0
2433,1048576,112,-56,-1,-1,0
2466,1114112,112,-56,-1,-1,0
2500,851968,112,-56,-1,-1,0
2533,589824,112,-56,-1,-1,0
2566,393216,112,-56,-1,-1,0
2600,4194304,112,-56,-1,-1,0
2633,-589824,112,-56,-1,-1,0
2666,-196608,112,-56,-1,-1,0
2700,-65536,112,-56,-1,-1,0
2733,393216,112,-56,-1,-1,0
2766,1441792,112,-56,-1,-1,0
2800,589824,112,-56,-1,-1,0
2833,-589824,112,-56,-1,-1,0
2866,-720896,112,-56,-1,-1,0
2900,-851968,112,-56,-1,-1,0
2933,-786432,112,-56,-1,-1,0
2966,-131072,112,-56,-1,-1,0
3000,-196608,112,-56,-1,-1,0
3033,-655360,112,-56,-1,-1,0
3066,-327680,112,-56,-1,-1,0
3100,-786432,112,-56,-1,-1,0
3133,-1114112,112,-56,-1,-1,0
3166,-917504,112,-56,-1,-1,0
3200,65536,112,-56,-1,-1,0
3233,0,112,-56,-1,-1,0
3266,-1376256,112,-56,-1,-1,0
3300,-1572864,112,-56,-1,-1,0
3333,-1638400,112,-56,-1,-1,0
3366,-1507328,112,-56,-1,-1,0
3400,-1376256,112,-56,-1,-1,0
3433,-1310720,112,-56,-1,-1,0
3466,-1572864,112,-56,-1,-1,0
3500,1245184,112,-56,-1,-1,0
3533,-1441792,112,-56,-1,-1,0
3566,-1376256,112,-56,-1,-1,0
3600,-1245184,112,-56,-1,-1,0
3633,-524288,112,-56,-1,-1,0
3666,-65536,112,-56,-1,-1,0
3699,-1245184,112,-56,-1,-1,0
3733,-1703936,112,-56,-1,-1,0
3766,-1441792,112,-56,-1,-1,0
3800,-1441792,112,-56,-1,-1,0
3833,-983040,112,-56,-1,-1,0
3866,-1179648,112,-56,-1,-1,0
3900,-393216,112,-56,-1,-1,0
3933,4128768,112,-56,-1,-1,0
3966,-524288,112,-56,-1,-1,0
4000,-262144,112,-56,-1,-1,0
4033,0,112,-56,-1,-1,0
4066,524288,112,-56,-1,-1,0
4100,1441792,112,-56,-1,-1,0
4133,196608,112,-56,-1,-1,0
4166,-196608,112,-56,-1,-1,0
4200,-65536,112,-56,-1,-1,0
4233,131072,112,-56,-1,-1,0
4266,131072,112,-56,-1,-1,0
4300,196608,112,-56,-1,-1,0
4333,393216,112,-56,-1,-1,0
4366,1572864,112,-56,-1,-1,0
4400,-131072,112,-56,-1,-1,0
4433,393216,112,-56,-1,-1,0
4466,655360,112,-56,-1,-1,0
4500,786432,112,-56,-1,-1,0
4533,1703936,112,-56,-1,-1,0
4566,1507328,112,-56,-1,-1,0
4600,458752,112,-56,-1,-1,0
4633,131072,112,-56,-1,-1,0
4666,0,112,-56,-1,-1,0
4700,-262144,112,-56,-1,-1,0
4733,-524288,112,-56,-1,-1,0
4766,-851968,112,-56,-1,-1,0
4800,-786432,112,-56,-1,-1,0
4833,-1507328,112,-56,-1,-1,0
4866,-1179648,112,-56,-1,-1,0
4900,-1048576,112,-56,-1,-1,0
4933,-851968,112,-56,-1,-1,0
4966,196608,112,-56,-1,-1,0
5000,196608,112,-56,-1,-1,0
5033,-983040,112,-56,-1,-1,0
5066,-1048576,112,-56,-1,-1,0
5100,-655360,112,-56,-1,-1,0
5133,-786432,112,-56,-1,-1,0
5166,-720896,112,-56,-1,-1,0
5200,-786432,112,-56,-1,-1,0
5233,-851968,112,-56,-1,-1,0
5266,-851968,112,-56,-1,-1,0
5300,-393216,112,-56,-1,-1,0
5333,-917504,112,-56,-1,-1,0
5366,-327680,112,-56,-1,-1,0
5400,720896,112,-56,-1,-1,0
5433,786432,112,-56,-1,-1,0
5466,-131072,112,-56,-1,-1,0
5500,131072,112,-56,-1,-1,0
5533,-65536,112,-56,-1,-1,0
5566,-196608,112,-56,-1,-1,0
5600,0,112,-56,-1,-1,0
5633,-65536,112,-56,-1,-1,0
5666,-524288,112,-56,-1,-1,0
5700,2359296,112,-56,-1,-1,0
5733,-65536,112,-56,-1,-1,0
5766,65536,112,-56,-1,-1,0
5800,262144,112,-56,-1,-1,0
5833,1048576,112,-56,-1,-1,0
5866,1507328,112,-56,-1,-1,0
5900,131072,112,-56,-1,-1,0
5933,-327680,112,-56,-1,-1,0
5966,-327680,112,-56,-1,-1,0
6000,-393216,112,-56,-1,-1,0
6033,-524288,112,-56,-1,-1,0
6066,-589824,112,-56,-1,-1,0
6100,-983040,112,-56,-1,-1,0
6133,3538944,112,-56,-1,-1,0
6166,-983040,112,-56,-1,-1,0
6200,-655360,112,-56,-1,-1,0
6233,-655360,112,-56,-1,-1,0
6266,0,112,-56,-1,-1,0
6300,1048576,112,-56,-1,-1,0
6333,65536,112,-56,-1,-1,0
6366,0,112,-56,-1,-1,0
6400,65536,112,-56,-1,-1,0
6433,0,112,-56,-1,-1,0
6466,-65536,112,-56,-1,-1,0
6500,131072,112,-56,-1,-1,0
6533,-393216,112,-56,-1,-1,0
6566,4521984,112,-56,-1,-1,0
6600,-196608,112,-56,-1,-1,0
6633,65536,112,-56,-1,-1,0
6666,196608,112,-56,-1,-1,0
6700,851968,112,-56,-1,-1,0
6733,1638400,112,-56,-1,-1,0
6766,393216,112,-56,-1,-1,0
6800,-393216,113,-56,-1,-1,0
6833,-262144,113,-56,-1,-1,0
6866,-327680,113,-56,-1,-1,0
6899,-458752,113,-56,-1,-1,0
6933,-458752,113,-56,-1,-1,0
6966,-851968,113,-56,-1,-1,0
7000,3801088,113,-56,-1,-1,0
7033,-917504,113,-56,-1,-1,0
7066,-720896,113,-56,-1,-1,0
7100,-262144,113,-56,-1,-1,0
7133,393216,113,-56,-1,-1,0
7166,1048576,113,-56,-1,-1,0
7200,0,113,-56,-1,-1,0
7233,-262144,113,-56,-1,-1,0
7266,-327680,113,-56,-1,-1,0
7300,-196608,113,-56,-1,-1,0
7333,-524288,113,-56,-1,-1,0
7366,-589824,113,-56,-1,-1,0
7399,-524288,113,-56,-1,-1,0
7433,3997696,113,-56,-1,-1,0
7466,-589824,113,-56,-1,-1,0
7500,65536,113,-56,-1,-1,0
7533,131072,113,-56,-1,-1,0
7566,786432,113,-56,-1,-1,0
7600,1507328,113,-56,-1,-1,0
7633,524288,113,-56,-1,-1,0
7666,-65536,113,-56,-1,-1,0
7700,-131072,113,-56,-1,-1,0
7733,0,113,-56,-1,-1,0
7766,-262144,113,-56,-1,-1,0
7800,-327680,113,-56,-1,-1,0
7833,-589824,113,-56,-1,-1,0
7866,2686976,113,-56,-1,-1,0
7899,-917504,113,-56,-1,-1,0
7933,-262144,113,-56,-1,-1,0
7966,-65536,113,-56,-1,-1,0
8000,393216,113,-56,-1,-1,0
8033,1441792,113,-56,-1,-1,0
8066,786432,113,-56,-1,-1,0
8100,0,113,-56,-1,-1,0
8133,-65536,113,-56,-1,-1,0
8166,-65536,113,-56,-1,-1,0
8200,-65536,113,-56,-1,-1,0
8233,-65536,113,-56,-1,-1,0
8266,-131072,113,-56,-1,-1,0
8300,3866624,113,-56,-1,-1,0
8333,-917504,113,-56,-1,-1,0
8366,-327680,113,-56,-1,-1,0
8400,-262144,113,-56,-1,-1,0
8433,262144,113,-56,-1,-1,0
8466,1376256,113,-56,-1,-1,0
8500,393216,113,-56,-1,-1,0
8533,-327680,113,-56,-1,-1,0
8566,-262144,114,-56,-1,-1,0
8600,0,114,-56,-1,-1,0
8633,-65536,114,-56,-1,-1,0
8666,0,114,-56,-1,-1,0
8700,65536,114,-56,-1,-1,0
8733,4063232,114,-56,-1,-1,0
8766,-393216,114,-56,-1,-1,0
8800,131072,114,-56,-1,-1,0
8833,262144,114,-56,-1,-1,0
8866,851968,114,-56,-1,-1,0
8900,1769472,114,-56,-1,-1,0
8933,1114112,114,-56,-1,-1,0
8966,393216,114,-56,-1,-1,0
9000,393216,114,-56,-1,-1,0
9033,524288,114,-56,-1,-1,0
9066,327680,114,-56,-1,-1,0
9100,131072,114,-56,-1,-1,0
9133,0,114,-56,-1,-1,0
9166,2555904,114,-56,-1,-1,0
9200,-524288,114,-56,-1,-1,0
9233,-65536,114,-56,-1,-1,0
9266,-65536,114,-56,-1,-1,0
9300,65536,114,-56,-1,-1,0
9333,655360,114,-56,-1,-1,0
9366,65536,114,-56,-1,-1,0
9400,-720896,114,-56,-1,-1,0
9433,-851968,114,-56,-1,-1,0
9466,-1048576,114,-56,-1,-1,0
9500,-1310720,114,-56,-1,-1,0
9533,-1245184,114,-56,-1,-1,0
9566,-1441792,114,-56,-1,-1,0
9600,-655360,114,-56,-1,-1,0
9633,-2293760,114,-56,-1,-1,0
9666,-1638400,114,-56,-1,-1,0
9700,-1441792,114,-56,-1,-1,0
9733,-1179648,114,-56,-1,-1,0
9766,-131072,114,-56,-1,-1,0
9800,-262144,114,-56,-1,-1,0
9833,-1310720,114,-56,-1,-1,0
9866,-1245184,114,-56,-1,-1,0
9900,-1114112,114,-56,-1,-1,0
9933,-1048576,114,-56,-1,-1,0
9966,-917504,114,-56,-1,-1,0
10000,-851968,114,-56,-1,-1,0
10033,393216,114,-56,-1,-1,0
10066,-1638400,114,-56,-1,-1,0
10100,-786432,114,-56,-1,-1,0
10133,-458752,114,-56,-1,-1,0
10166,-131072,114,-56,-1,-1,0
10200,917504,114,-56,-1,-1,0
10233,393216,114,-56,-1,-1,0
10266,-393216,114,-56,-1,-1,0
10300,-393216,114,-56,-1,-1,0
10333,-196608,114,-56,-1,-1,0
10366,-196608,114,-56,-1,-1,0
10400,-131072,114,-56,-1,-1,0
10433,-196608,114,-56,-1,-1,0
10466,2293760,114,-56,-1,-1,0
10500,-1114112,114,-56,-1,-1,0
10533,-327680,114,-56,-1,-1,0
10566,-589824,114,-56,-1,-1,0
10600,0,114,-56,-1,-1,0
10633,851968,114,-56,-1,-1,0
10666,393216,114,-56,-1,-1,0
10700,-262144,114,-56,-1,-1,0
10733,-131072,114,-56,-1,-1,0
10766,-65536,114,-56,-1,-1,0
10800,-262144,114,-56,-1,-1,0
10833,-327680,114,-56,-1,-1,0
10866,-65536,114,-56,-1,-1,0
10900,1703936,114,-56,-1,-1,0
10933,-458752,114,-56,-1,-1,0
10966,196608,114,-56,-1,-1,0
11000,327680,114,-56,-1,-1,0
11033,589824,114,-56,-1,-1,0
11066,1376256,114,-56,-1,-1,0
11100,851968,114,-56,-1,-1,0
11133,0,114,-56,-1,-1,0
11166,-65536,114,-56,-1,-1,0
11200,-262144,114,-56,-1,-1,0
11233,-458752,114,-56,-1,-1,0
11266,-589824,114,-56,-1,-1,0
11300,-786432,114,-56,-1,-1,0
11333,131072,114,-56,-1,-1,0
11366,-1572864,114,-56,-1,-1,0
11400,-589824,114,-56,-1,-1,0
11433,-393216,114,-56,-1,-1,0
11466,0,114,-56,-1,-1,0
11500,1048576,114,-56,-1,-1,0
11533,851968,114,-56,-1,-1,0
11566,-65536,114,-56,-1,-1,0
11600,-262144,115,-56,-1,-1,0
11633,-131072,115,-56,-1,-1,0
11666,-131072,115,-56,-1,-1,0
11700,-196608,115,-56,-1,-1,0
11733,-196608,115,-56,-1,-1,0
11766,393216,115,-56,-1,-1,0
11800,-1245184,115,-56,-1,-1,0
11833,-327680,115,-56,-1,-1,0
11866,-393216,115,-56,-1,-1,0
11900,-65536,115,-56,-1,-1,0
11933,983040,115,-56,-1,-1,0
11966,655360,115,-56,-1,-1,0
12000,-393216,115,-56,-1,-1,0
12033,-458752,115,-56,-1,-1,0
12066,-327680,115,-56,-1,-1,0
12100,-262144,115,-56,-1,-1,0
12133,-131072,115,-56,-1,-1,0
12166,-196608,115,-56,-1,-1,0
12200,-327680,115,-56,-1,-1,0
12233,0,115,-56,-1,-1,0
12266,-196608,115,-56,-1,-1,0
12300,-196608,115,-56,-1,-1,0
12333,0,115,-56,-1,-1,0
12366,786432,115,-56,-1,-1,0
12400,786432,115,-56,-1,-1,0
12433,-327680,115,-56,-1,-1,0
12466,-589824,115,-56,-1,-1,0
12500,-327680,115,-56,-1,-1,0
12533,-524288,115,-56,-1,-1,0
12566,-655360,115,-56,-1,-1,0
12600,-524288,115,-56,-1,-1,0
12633,-1114112,115,-56,-1,-1,0
12666,1638400,115,-56,-1,-1,0
12700,-655360,115,-56,-1,-1,0
12733,-589824,115,-56,-1,-1,0
12766,-393216,115,-56,-1,-1,0
12800,131072,115,-56,-1,-1,0
12833,786432,115,-56,-1,-1,0
12866,-393216,115,-56,-1,-1,0
12900,-655360,115,-56,-1,-1,0
12933,-393216,115,-56,-1,-1,0
12966,-262144,115,-56,-1,-1,0
13000,-131072,115,-56,-1,-1,0
13033,196608,115,-56,-1,-1,0
13066,196608,115,-56,-1,-1,0
13100,2818048,115,-56,-1,-1,0
13133,-589824,115,-56,-1,-1,0
13166,-196608,115,-56,-1,-1,0
13200,-131072,115,-56,-1,-1,0
13233,-65536,115,-56,-1,-1,0
13266,983040,115,-56,-1,-1,0
13299,262144,115,-56,-1,-1,0
13333,-589824,115,-56,-1,-1,0
13366,-524288,115,-56,-1,-1,0
13400,-393216,115,-56,-1,-1,0
13433,-458752,115,-56,-1,-1,0
13466,-196608,115,-56,-1,-1,0
13500,-65536,115,-56,-1,-1,0
13533,-262144,115,-56,-1,-1,0
13566,-917504,115,-56,-1,-1,0
13600,-458752,115,-56,-1,-1,0
13633,-327680,115,-56,-1,-1,0
13666,-65536,115,-56,-1,-1,0
13700,917504,115,-56,-1,-1,0
13733,655360,115,-56,-1,-1,0
13766,-327680,115,-56,-1,-1,0
13799,-458752,115,-56,-1,-1,0
13833,-458752,115,-56,-1,-1,0
13866,-196608,115,-56,-1,-1,0
13900,-458752,115,-56,-1,-1,0
13933,-327680,115,-56,-1,-1,0
13966,-589824,115,-56,-1,-1,0
14000,5177344,115,-56,-1,-1,0
14033,-655360,115,-56,-1,-1,0
14066,-458752,115,-56,-1,-1,0
14100,-196608,115,-56,-1,-1,0
14133,262144,115,-56,-1,-1,0
14166,1048576,115,-56,-1,-1,0
14200,196608,115,-56,-1,-1,0
14233,-131072,115,-56,-1,-1,0
14266,0,114,-56,-1,-1,0
14299,0,114,-56,-1,-1,0
14333,-65536,114,-56,-1,-1,0
14366,0,114,-56,-1,-1,0
14400,0,114,-56,-1,-1,0
14433,1048576,114,-56,-1,-1,0
14466,-917504,114,-56,-1,-1,0
14500,0,114,-56,-1,-1,0
14533,327680,114,-56,-1,-1,0
14566,655360,114,-56,-1,-1,0
14600,1507328,114,-56,-1,-1,0
14633,1310720,114,-56,-1,-1,0
14666,393216,114,-56,-1,-1,0
14700,393216,115,-56,-1,-1,0
14733,393216,115,-56,-1,-1,0
14766,393216,115,-56,-1,-1,0
14799,393216,115,-56,-1,-1,0
14833,327680,115,-56,-1,-1,0
14866,1376256,115,-56,-1,-1,0
14900,-851968,115,-56,-1,-1,0
14933,196608,115,-56,-1,-1,0
14966,196608,115,-56,-1,-1,0
15000,458752,115,-56,-1,-1,0
15033,1310720,115,-56,-1,-1,0
15066,589824,115,-56,-1,-1,0
15100,-327680,115,-56,-1,-1,0
15133,-327680,114,-56,-1,-1,0
15166,-65536,114,-56,-1,-1,0
15200,-327680,114,-56,-1,-1,0
15233,-786432,114,-56,-1,-1,0
15266,-851968,114,-56,-1,-1,0
15299,-1310720,114,-56,-1,-1,0
15333,327680,114,-56,-1,-1,0
15366,-1048576,114,-56,-1,-1,0
15400,-1114112,114,-56,-1,-1,0
15433,-851968,114,-56,-1,-1,0
15466,0,114,-56,-1,-1,0
15500,131072,114,-56,-1,-1,0
15533,-851968,114,-56,-1,-1,0
15566,-1048576,114,-56,-1,-1,0
15600,-983040,114,-56,-1,-1,0
15633,-851968,114,-56,-1,-1,0
15666,-1048576,114,-56,-1,-1,0
15700,-1114112,114,-56,-1,-1,0
15733,-1572864,114,-56,-1,-1,0
15766,2949120,114,-56,-1,-1,0
15799,-1638400,114,-56,-1,-1,0
15833,-1441792,114,-56,-1,-1,0
15866,-1179648,114,-56,-1,-1,0
15900,-196608,114,-56,-1,-1,0
15933,655360,114,-56,-1,-1,0
15966,-393216,114,-56,-1,-1,0
16000,-65536,114,-56,-1,-1,0
16033,65536,114,-56,-1,-1,0
16066,655360,114,-56,-1,-1,0
16100,720896,114,-56,-1,-1,0
16133,655360,114,-56,-1,-1,0
16166,262144,114,-56,-1,-1,0
16200,5439488,114,-56,-1,-1,0
16233,786432,114,-56,-1,-1,0
16266,983040,114,-56,-1,-1,0
16300,1179648,114,-56,-1,-1,0
16333,1703936,114,-56,-1,-1,0
16366,2031616,114,-56,-1,-1,0
16400,851968,114,-56,-1,-1,0
16433,262144,114,-56,-1,-1,0
16466,0,114,-56,-1,-1,0
16500,-327680,114,-56,-1,-1,0
16533,-458752,114,-56,-1,-1,0
16566,-786432,114,-56,-1,-1,0
16600,-1114112,114,-56,-1,-1,0
16633,2555904,114,-56,-1,-1,0
16666,-1507328,114,-56,-1,-1,0
16700,-1376256,114,-56,-1,-1,0
16733,-1245184,114,-56,-1,-1,0
16766,-655360,114,-56,-1,-1,0
16800,196608,114,-56,-1,-1,0
16833,-720896,114,-56,-1,-1,0
16866,-1048576,114,-56,-1,-1,0
16900,-851968,114,-56,-1,-1,0
16933,-917504,114,-56,-1,-1,0
16966,-983040,114,-56,-1,-1,0
17000,-1048576,114,-56,-1,-1,0
17033,-1245184,114,-56,-1,-1,0
17066,2686976,114,-56,-1,-1,0
17100,-1114112,114,-56,-1,-1,0
17133,-720896,114,-56,-1,-1,0
17166,-589824,114,-56,-1,-1,0
17200,262144,114,-56,-1,-1,0
17233,851968,114,-56,-1,-1,0
17266,-65536,114,-56,-1,-1,0
17300,-393216,114,-56,-1,-1,0
17333,-327680,114,-56,-1,-1,0
17366,-196608,114,-56,-1,-1,0
17400,-327680,114,-56,-1,-1,0
17433,-262144,114,-56,-1,-1,0
17466,-720896,114,-56,-1,-1,0
17500,2883584,114,-56,-1,-1,0
17533,-393216,114,-56,-1,-1,0
17566,-196608,114,-56,-1,-1,0
17600,-65536,114,-56,-1,-1,0
17633,786432,114,-56,-1,-1,0
17666,1245184,114,-56,-1,-1,0
17700,-262144,114,-56,-1,-1,0
17733,-589824,114,-56,-1,-1,0
17766,-262144,114,-56,-1,-1,0
17800,-131072,114,-56,-1,-1,0
17833,-458752,114,-56,-1,-1,0
17866,-458752,114,-56,-1,-1,0
17900,-1245184,114,-56,-1,-1,0
17933,3670016,114,-56,-1,-1,0
17966,-393216,114,-56,-1,-1,0
18000,-65536,114,-56,-1,-1,0
18033,0,114,-56,-1,-1,0
18066,524288,114,-56,-1,-1,0
18100,1048576,114,-56,-1,-1,0
18133,0,114,-56,-1,-1,0
18166,-196608,114,-56,-1,-1,0
18200,0,114,-56,-1,-1,0
18233,131072,114,-56,-1,-1,0
18266,327680,114,-56,-1,-1,0
18300,327680,114,-56,-1,-1,0
18333,-131072,114,-56,-1,-1,0
18366,3211264,114,-56,-1,-1,0
18400,131072,114,-56,-1,-1,0
18433,327680,114,-56,-1,-1,0
18466,458752,114,-56,-1,-1,0
18500,1179648,114,-56,-1,-1,0
18533,1441792,114,-56,-1,-1,0
18566,196608,114,-56,-1,-1,0
18600,-65536,114,-56,-1,-1,0
18633,-196608,114,-56,-1,-1,0
18666,-262144,114,-56,-1,-1,0
18700,-524288,114,-56,-1,-1,0
18733,-524288,114,-56,-1,-1,0
18766,-1245184,114,-56,-1,-1,0
18800,-262144,114,-56,-1,-1,0
18833,-917504,114,-56,-1,-1,0
18866,-983040,114,-56,-1,-1,0
18900,-720896,114,-56,-1,-1,0
18933,393216,114,-56,-1,-1,0
18966,458752,114,-56,-1,-1,0
19000,-524288,114,-56,-1,-1,0
19033,-655360,114,-56,-1,-1,0
19066,-458752,114,-56,-1,-1,0
19100,-327680,114,-56,-1,-1,0
19133,-655360,114,-56,-1,-1,0
19166,-786432,114,-56,-1,-1,0
19200,-196608,114,-56,-1,-1,0
19233,-1376256,114,-56,-1,-1,0
19266,-655360,114,-56,-1,-1,0
19300,-458752,114,-56,-1,-1,0
19333,0,114,-56,-1,-1,0
19366,917504,114,-56,-1,-1,0
19400,393216,114,-56,-1,-1,0
19433,-655360,114,-56,-1,-1,0
19466,-786432,115,-56,-1,-1,0
19500,-655360,115,-56,-1,-1,0
19533,-589824,115,-56,-1,-1,0
19566,-327680,115,-56,-1,-1,0
19600,-196608,115,-56,-1,-1,0
19633,1048576,115,-56,-1,-1,0
19666,-1114112,115,-56,-1,-1,0
19700,0,115,-56,-1,-1,0
19733,0,115,-56,-1,-1,0
19766,393216,115,-56,-1,-1,0
19800,1572864,115,-56,-1,-1,0
19833,589824,115,-56,-1,-1,0
19866,-720896,115,-56,-1,-1,0
19900,-983040,115,-56,-1,-1,0
19933,-851968,115,-56,-1,-1,0
19966,-655360,115,-56,-1,-1,0
20000,-786432,115,-56,-1,-1,0
20033,-1048576,115,-56,-1,-1,0
20066,655360,115,-56,-1,-1,0
20100,-1703936,115,-56,-1,-1,0
20133,-589824,115,-56,-1,-1,0
20166,-458752,115,-56,-1,-1,0
20200,589824,115,-56,-1,-1,0
20233,851968,115,-56,-1,-1,0
20266,393216,115,-56,-1,-1,0
20300,-327680,115,-56,-1,-1,0
20333,0,115,-56,-1,-1,0
20366,0,115,-56,-1,-1,0
20400,327680,115,-56,-1,-1,0
20433,327680,115,-56,-1,-1,0
20466,327680,115,-56,-1,-1,0
20500,1179648,115,-56,-1,-1,0
20533,-65536,115,-56,-1,-1,0
20566,262144,115,-56,-1,-1,0
20600,655360,115,-56,-1,-1,0
20633,720896,115,-56,-1,-1,0
20666,1638400,115,-56,-1,-1,0
20700,1048576,115,-56,-1,-1,0
20733,65536,115,-56,-1,-1,0
20766,-65536,115,-56,-1,-1,0
20800,-262144,115,-56,-1,-1,0
20833,-327680,115,-56,-1,-1,0
20866,-720896,115,-56,-1,-1,0
20900,-589824,115,-56,-1,-1,0
20933,-1179648,115,-56,-1,-1,0
20966,-1638400,115,-56,-1,-1,0
21000,-983040,115,-56,-1,-1,0
21033,-720896,115,-56,-1,-1,0
21066,-524288,115,-56,-1,-1,0
21100,786432,115,-56,-1,-1,0
21133,393216,115,-56,-1,-1,0
21166,-524288,115,-56,-1,-1,0
21200,-720896,115,-56,-1,-1,0
21233,-393216,115,-56,-1,-1,0
21266,-589824,115,-56,-1,-1,0
21300,-524288,115,-56,-1,-1,0
21333,-524288,115,-56,-1,-1,0
21366,-1245184,115,-56,-1,-1,0
21400,-524288,115,-56,-1,-1,0
21433,-589824,115,-56,-1,-1,0
21466,-393216,115,-56,-1,-1,0
21500,-393216,115,-56,-1,-1,0
21533,524288,115,-56,-1,-1,0
21566,458752,115,-56,-1,-1,0
21600,-393216,115,-56,-1,-1,0
21633,-524288,115,-56,-1,-1,0
21666,-393216,115,-56,-1,-1,0
21700,-524288,115,-56,-1,-1,0
21733,-655360,115,-56,-1,-1,0
21766,-327680,115,-56,-1,-1,0
21800,-1310720,115,-56,-1,-1,0
21833,-65536,115,-56,-1,-1,0
21866,-262144,115,-56,-1,-1,0
21900,-65536,115,-56,-1,-1,0
21933,131072,115,-56,-1,-1,0
21966,1179648,115,-56,-1,-1,0
22000,917504,115,-56,-1,-1,0
22033,131072,115,-56,-1,-1,0
22066,-262144,115,-56,-1,-1,0
22100,-327680,115,-56,-1,-1,0
22133,-655360,115,-56,-1,-1,0
22166,-589824,115,-56,-1,-1,0
22200,-524288,115,-56,-1,-1,0
22233,-1376256,115,-56,-1,-1,0
22266,262144,115,-56,-1,-1,0
22300,-524288,115,-56,-1,-1,0
22333,-393216,115,-56,-1,-1,0
22366,-262144,115,-56,-1,-1,0
22400,524288,115,-56,-1,-1,0
22433,589824,115,-56,-1,-1,0
22466,-196608,115,-56,-1,-1,0
22500,-65536,115,-56,-1,-1,0
22533,-65536,115,-56,-1,-1,0
22566,-327680,115,-56,-1,-1,0
22600,-327680,115,-56,-1,-1,0
22633,-458752,115,-56,-1,-1,0
22666,-1376256,115,-56,-1,-1,0
22700,851968,115,-56,-1,-1,0
22733,-589824,115,-56,-1,-1,0
22766,-655360,115,-56,-1,-1,0
22800,-262144,115,-56,-1,-1,0
22833,458752,115,-56,-1,-1,0
22866,655360,115,-56,-1,-1,0
22900,-458752,115,-56,-1,-1,0
22933,-458752,116,-56,-1,-1,0
22966,-524288,116,-56,-1,-1,0
23000,-393216,116,-56,-1,-1,0
23033,-196608,116,-56,-1,-1,0
23066,-262144,116,-56,-1,-1,0
23100,-589824,116,-56,-1,-1,0
23133,196608,116,-56,-1,-1,0
23166,327680,116,-56,-1,-1,0
23200,196608,116,-56,-1,-1,0
23233,327680,116,-56,-1,-1,0
23266,1245184,116,-56,-1,-1,0
23300,1114112,116,-56,-1,-1,0
23333,0,116,-56,-1,-1,0
23366,-262144,116,-56,-1,-1,0
23400,196608,116,-56,-1,-1,0
23433,131072,116,-56,-1,-1,0
23466,-65536,116,-56,-1,-1,0
23500,0,116,-56,-1,-1,0
23533,1441792,116,-56,-1,-1,0
23566,-851968,116,-56,-1,-1,0
23600,0,116,-56,-1,-1,0
23633,393216,116,-56,-1,-1,0
23666,851968,116,-56,-1,-1,0
23700,1376256,116,-56,-1,-1,0
23733,786432,116,-56,-1,-1,0
23766,-65536,116,-56,-1,-1,0
23800,0,116,-56,-1,-1,0
23833,262144,116,-56,-1,-1,0
23866,-131072,116,-56,-1,-1,0
23900,131072,116,-56,-1,-1,0
23933,0,116,-56,-1,-1,0
23966,5439488,116,-56,-1,-1,0
24000,-524288,116,-56,-1,-1,0
24033,-393216,116,-56,-1,-1,0
24066,0,116,-56,-1,-1,0
24100,458752,116,-56,-1,-1,0
24133,1245184,116,-56,-1,-1,0
24166,-589824,116,-56,-1,-1,0
24200,-1048576,116,-56,-1,-1,0
24233,-786432,116,-56,-1,-1,0
24266,-458752,116,-56,-1,-1,0
24300,-524288,116,-56,-1,-1,0
24333,-524288,116,-56,-1,-1,0
24366,-917504,116,-56,-1,-1,0
24400,4194304,116,-56,-1,-1,0
24433,-1048576,116,-56,-1,-1,0
24466,-458752,116,-56,-1,-1,0
24500,-196608,116,-56,-1,-1,0
24533,589824,116,-56,-1,-1,0
24566,1572864,116,-56,-1,-1,0
24600,458752,116,-56,-1,-1,0
24633,0,116,-56,-1,-1,0
24666,65536,116,-56,-1,-1,0
24700,65536,116,-56,-1,-1,0
24733,327680,116,-56,-1,-1,0
24766,-327680,116,-56,-1,-1,0
24800,-524288,116,-56,-1,-1,0
24833,3407872,116,-56,-1,-1,0
24866,-655360,116,-56,-1,-1,0
24900,-655360,116,-56,-1,-1,0
24933,-786432,116,-56,-1,-1,0
24966,-131072,116,-56,-1,-1,0
25000,524288,116,-56,-1,-1,0
25033,-786432,116,-56,-1,-1,0
25066,-1048576,116,-56,-1,-1,0
25100,-786432,116,-56,-1,-1,0
25133,-917504,116,-56,-1,-1,0
25166,-851968,116,-56,-1,-1,0
25200,-851968,116,-56,-1,-1,0
25233,-1114112,116,-56,-1,-1,0
25266,-1441792,116,-56,-1,-1,0
25300,-917504,116,-56,-1,-1,0
25333,-720896,116,-56,-1,-1,0
25366,-262144,116,-56,-1,-1,0
25400,917504,116,-56,-1,-1,0
25433,524288,116,-56,-1,-1,0
25466,-458752,116,-56,-1,-1,0
25500,-589824,116,-56,-1,-1,0
25533,-262144,116,-56,-1,-1,0
25566,-327680,116,-56,-1,-1,0
25600,-524288,116,-56,-1,-1,0
25633,-720896,116,-56,-1,-1,0
25666,983040,116,-56,-1,-1,0
25700,-1245184,116,-56,-1,-1,0
25733,-327680,116,-56,-1,-1,0
25766,-262144,116,-56,-1,-1,0
25800,65536,116,-56,-1,-1,0
25833,1441792,116,-56,-1,-1,0
25866,655360,116,-56,-1,-1,0
25900,-196608,116,-56,-1,-1,0
25933,-131072,116,-56,-1,-1,0
25966,-196608,116,-56,-1,-1,0
26000,-327680,116,-56,-1,-1,0
26033,-262144,116,-56,-1,-1,0
26066,-262144,116,-56,-1,-1,0
26099,1441792,116,-56,-1,-1,0
26133,-1048576,116,-56,-1,-1,0
26166,-393216,116,-56,-1,-1,0
26200,-131072,116,-56,-1,-1,0
26233,131072,116,-56,-1,-1,0
26266,1114112,116,-56,-1,-1,0
26300,327680,116,-56,-1,-1,0
26333,-393216,116,-56,-1,-1,0
26366,-131072,116,-56,-1,-1,0
26400,-196608,116,-56,-1,-1,0
26433,-327680,116,-56,-1,-1,0
26466,-458752,116,-56,-1,-1,0
26500,-393216,116,-56,-1,-1,0
26533,-1048576,116,-56,-1,-1,0
26566,-262144,116,-56,-1,-1,0
26599,-720896,116,-56,-1,-1,0
26633,-1114112,116,-56,-1,-1,0
26666,-655360,116,-56,-1,-1,0
26700,524288,116,-56,-1,-1,0
26733,655360,116,-56,-1,-1,0
26766,-720896,116,-56,-1,-1,0
26800,-1048576,116,-56,-1,-1,0
26833,-983040,116,-56,-1,-1,0
26866,-1245184,116,-56,-1,-1,0
26900,-1310720,116,-56,-1,-1,0
26933,-1507328,116,-56,-1,-1,0
26966,-2490368,116,-56,-1,-1,0
27000,917504,116,-56,-1,-1,0
27033,-1703936,116,-56,-1,-1,0
27066,-655360,116,-56,-1,-1,0
27099,-131072,116,-56,-1,-1,0
27133,1441792,116,-56,-1,-1,0
27166,1703936,116,-56,-1,-1,0
27200,720896,116,-56,-1,-1,0
27233,589824,116,-56,-1,-1,0
27266,983040,116,-56,-1,-1,0
27300,720896,116,-56,-1,-1,0
27333,393216,116,-56,-1,-1,0
27366,262144,116,-56,-1,-1,0
27400,458752,116,-56,-1,-1,0
27433,3670016,116,-56,-1,-1,0
27466,-458752,116,-56,-1,-1,0
27500,327680,116,-56,-1,-1,0
27533,262144,116,-56,-1,-1,0
27566,655360,116,-56,-1,-1,0
27599,1310720,116,-56,-1,-1,0
27633,458752,116,-56,-1,-1,0
27666,0,116,-56,-1,-1,0
27700,0,116,-56,-1,-1,0
27733,393216,116,-56,-1,-1,0
27766,65536,116,-56,-1,-1,0
27800,-65536,116,-56,-1,-1,0
27833,327680,116,-56,-1,-1,0
27866,-131072,116,-56,-1,-1,0
27900,1900544,116,-56,-1,-1,0
27933,720896,116,-56,-1,-1,0
27966,1179648,116,-56,-1,-1,0
28000,1179648,116,-56,-1,-1,0
28033,2490368,116,-56,-1,-1,0
28066,2621440,116,-56,-1,-1,0
28099,1572864,116,-56,-1,-1,0
28133,1376256,116,-56,-1,-1,0
28166,1376256,116,-56,-1,-1,0
28200,1114112,116,-56,-1,-1,0
28233,1048576,116,-56,-1,-1,0
28266,1179648,116,-56,-1,-1,0
28300,917504,116,-56,-1,-1,0
28333,5373952,116,-56,-1,-1,0
28366,917504,116,-56,-1,-1,0
28400,1114112,116,-56,-1,-1,0
28433,1179648,116,-56,-1,-1,0
28466,1769472,116,-56,-1,-1,0
28500,1966080,116,-56,-1,-1,0
28533,458752,116,-56,-1,-1,0
28566,-327680,116,-56,-1,-1,0
28599,-524288,115,-56,-1,-1,0
28633,-655360,115,-56,-1,-1,0
28666,-917504,115,-56,-1,-1,0
28700,-1179648,115,-56,-1,-1,0
28733,-1441792,115,-56,-1,-1,0
28766,2949120,115,-56,-1,-1,0
28800,-2228224,115,-56,-1,-1,0
28833,-1966080,115,-56,-1,-1,0
28866,-2097152,115,-56,-1,-1,0
28900,-1441792,115,-56,-1,-1,0
28933,-720896,115,-56,-1,-1,0
28966,-1835008,115,-56,-1,-1,0
29000,-2424832,115,-56,-1,-1,0
29033,-2424832,115,-56,-1,-1,0
29066,-2359296,115,-56,-1,-1,0
29099,-2359296,115,-56,-1,-1,0
29133,-2228224,115,-56,-1,-1,0
29166,-2162688,115,-56,-1,-1,0
29200,-393216,115,-56,-1,-1,0
29233,-2555904,115,-56,-1,-1,0
29266,-1638400,115,-56,-1,-1,0
29300,-1507328,115,-56,-1,-1,0
29333,-1048576,115,-56,-1,-1,0
29366,65536,115,-56,-1,-1,0
29400,-393216,115,-56,-1,-1,0
29433,-1310720,115,-56,-1,-1,0
29466,-1114112,115,-56,-1,-1,0
29500,-1114112,115,-56,-1,-1,0
29533,-1048576,115,-56,-1,-1,0
29566,-983040,115,-56,-1,-1,0
29599,-983040,115,-56,-1,-1,0
29633,-1310720,115,-56,-1,-1,0
29666,1769472,115,-56,-1,-1,0
29700,-589824,115,-56,-1,-1,0
29733,-327680,115,-56,-1,-1,0
29766,0,115,-56,-1,-1,0
29800,917504,115,-56,-1,-1,0
29833,1245184,115,-56,-1,-1,0
29866,196608,115,-56,-1,-1,0
29900,131072,115,-56,-1,-1,0
29933,196608,115,-56,-1,-1,0
29966,262144,115,-56,-1,-1,0
30000,0,115,-56,-1,-1,0
30033,131072,115,-56,-1,-1,0
30066,0,115,-56,-1,-1,0
30099,1441792,115,-56,-1,-1,0
30133,-851968,115,-56,-1,-1,0
30166,0,115,-56,-1,-1,0
30200,0,115,-56,-1,-1,0
30233,131072,115,-56,-1,-1,0
30266,1048576,115,-56,-1,-1,0
30300,393216,115,-56,-1,-1,0
30333,-589824,115,-56,-1,-1,0
30366,-524288,115,-56,-1,-1,0
30400,-524288,114,-56,-1,-1,0
30433,-458752,114,-56,-1,-1,0
30466,-458752,114,-56,-1,-1,0
30500,-262144,114,-56,-1,-1,0
30533,-589824,114,-56,-1,-1,0
30566,4587520,114,-56,-1,-1,0
30599,-589824,114,-56,-1,-1,0
30633,-196608,114,-56,-1,-1,0
30666,-65536,114,-56,-1,-1,0
30700,655360,114,-56,-1,-1,0
30733,1310720,114,-56,-1,-1,0
30766,131072,114,-56,-1,-1,0
30800,-262144,114,-56,-1,-1,0
30833,-65536,114,-56,-1,-1,0
30866,-262144,113,-56,-1,-1,0
30900,-262144,113,-56,-1,-1,0
30933,-196608,113,-56,-1,-1,0
30966,0,113,-56,-1,-1,0
31000,-655360,113,-56,-1,-1,0
31033,786432,113,-56,-1,-1,0
31066,0,113,-56,-1,-1,0
31099,0,113,-56,-1,-1,0
31133,327680,113,-56,-1,-1,0
31166,1245184,113,-56,-1,-1,0
31200,1245184,113,-56,-1,-1,0
31233,65536,113,-56,-1,-1,0
31266,-65536,113,-56,-1,-1,0
31300,-196608,113,-56,-1,-1,0
31333,-196608,113,-56,-1,-1,0
31366,-524288,113,-56,-1,-1,0
31400,-393216,113,-56,-1,-1,0
31433,-458752,113,-56,-1,-1,0
31466,1835008,113,-56,-1,-1,0
31500,-1245184,113,-56,-1,-1,0
31533,-458752,113,-56,-1,-1,0
31566,-327680,113,-56,-1,-1,0
31599,131072,113,-56,-1,-1,0
31633,1179648,113,-56,-1,-1,0
31666,393216,113,-56,-1,-1,0
31700,-458752,113,-56,-1,-1,0
31733,-524288,113,-56,-1,-1,0
31766,-458752,112,-56,-1,-1,0
31800,-720896,112,-56,-1,-1,0
31833,-851968,112,-56,-1,-1,0
31866,-851968,112,-56,-1,-1,0
31900,-1245184,112,-56,-1,-1,0
31933,3735552,112,-56,-1,-1,0
31966,-655360,112,-56,-1,-1,0
32000,-262144,112,-56,-1,-1,0
32033,0,112,-56,-1,-1,0
32066,1245184,112,-56,-1,-1,0
32100,1507328,112,-56,-1,-1,0
32133,524288,112,-56,-1,-1,0
32166,262144,112,-56,-1,-1,0
32200,327680,112,-56,-1,-1,0
32233,262144,112,-56,-1,-1,0
32266,65536,112,-56,-1,-1,0
32299,196608,112,-56,-1,-1,0
32333,262144,112,-56,-1,-1,0
32366,1310720,112,-56,-1,-1,0
32400,-917504,112,-56,-1,-1,0
32433,-458752,112,-56,-1,-1,0
32466,-327680,112,-56,-1,-1,0
32500,-131072,112,-56,-1,-1,0
32533,786432,112,-56,-1,-1,0
32566,262144,112,-56,-1,-1,0
32600,-524288,112,-56,-1,-1,0
32633,-524288,112,-56,-1,-1,0
32666,-327680,112,-56,-1,-1,0
32700,-458752,112,-56,-1,-1,0
32733,-589824,112,-56,-1,-1,0
32766,-720896,112,-56,-1,-1,0
32800,-1179648,112,-56,-1,-1,0
32833,-786432,112,-56,-1,-1,0
32866,-1114112,112,-56,-1,-1,0
32900,-786432,112,-56,-1,-1,0
32933,-393216,112,-56,-1,-1,0
32966,851968,112,-56,-1,-1,0
33000,786432,112,-56,-1,-1,0
33033,-196608,112,-56,-1,-1,0
33066,-262144,112,-56,-1,-1,0
33100,0,112,-56,-1,-1,0
33133,-65536,112,-56,-1,-1,0
33166,-65536,112,-56,-1,-1,0
33200,-65536,112,-56,-1,-1,0
33233,-131072,112,-56,-1,-1,0
33266,3670016,112,-56,-1,-1,0
33300,-65536,112,-56,-1,-1,0
33333,0,112,-56,-1,-1,0
33366,524288,112,-56,-1,-1,0
33400,1376256,112,-56,-1,-1,0
33433,1769472,112,-56,-1,-1,0
33466,458752,112,-56,-1,-1,0
33500,65536,112,-56,-1,-1,0
33533,262144,112,-56,-1,-1,0
33566,196608,112,-56,-1,-1,0
33600,131072,112,-56,-1,-1,0
33633,-65536,112,-56,-1,-1,0
33666,-131072,112,-56,-1,-1,0
33700,2752512,112,-56,-1,-1,0
33733,-1245184,112,-56,-1,-1,0
33766,-524288,112,-56,-1,-1,0
33800,-327680,112,-56,-1,-1,0
33833,262144,112,-56,-1,-1,0
33866,1310720,112,-56,-1,-1,0
33900,262144,112,-56,-1,-1,0
33933,-655360,112,-56,-1,-1,0
33966,-720896,112,-56,-1,-1,0
34000,-589824,112,-56,-1,-1,0
34033,-458752,111,-56,-1,-1,0
34066,-589824,111,-56,-1,-1,0
34100,-786432,111,-56,-1,-1,0
34133,-720896,111,-56,-1,-1,0
34166,3407872,111,-56,-1,-1,0
34200,-983040,111,-56,-1,-1,0
34233,-589824,111,-56,-1,-1,0
34266,-327680,111,-56,-1,-1,0
34300,458752,111,-56,-1,-1,0
34333,1507328,111,-56,-1,-1,0
34366,458752,111,-56,-1,-1,0
34400,-196608,111,-56,-1,-1,0
34433,0,111,-56,-1,-1,0
34466,65536,111,-56,-1,-1,0
34500,262144,111,-56,-1,-1,0
34533,0,111,-56,-1,-1,0
34566,0,111,-56,-1,-1,0
34600,0,111,-56,-1,-1,0
34633,2097152,111,-56,-1,-1,0
34666,-851968,111,-56,-1,-1,0
34700,-262144,111,-56,-1,-1,0
34733,-655360,111,-56,-1,-1,0
34766,-196608,111,-56,-1,-1,0
34800,655360,111,-56,-1,-1,0
34833,0,111,-56,-1,-1,0
34866,-983040,111,-56,-1,-1,0
34900,-1048576,111,-56,-1,-1,0
34933,-851968,111,-56,-1,-1,0
34966,-720896,111,-56,-1,-1,0
35000,-524288,111,-56,-1,-1,0
35033,-196608,111,-56,-1,-1,0
35066,-458752,111,-56,-1,-1,0
35100,-655360,111,-56,-1,-1,0
35133,-720896,111,-56,-1,-1,0
35166,-262144,111,-56,-1,-1,0
35200,-65536,111,-56,-1,-1,0
35233,262144,111,-56,-1,-1,0
35266,1310720,111,-56,-1,-1,0
35300,1179648,111,-56,-1,-1,0
35333,-131072,111,-56,-1,-1,0
35366,-196608,111,-56,-1,-1,0
35400,-65536,111,-56,-1,-1,0
35433,65536,111,-56,-1,-1,0
35466,0,111,-56,-1,-1,0
35500,-196608,111,-56,-1,-1,0
35533,-131072,111,-56,-1,-1,0
35566,-393216,111,-56,-1,-1,0
35600,4653056,111,-56,-1,-1,0
35633,-589824,111,-56,-1,-1,0
35666,-196608,111,-56,-1,-1,0
35700,-65536,111,-56,-1,-1,0
35733,589824,111,-56,-1,-1,0
35766,1441792,111,-56,-1,-1,0
35800,65536,111,-56,-1,-1,0
35833,-524288,111,-56,-1,-1,0
35866,-589824,111,-56,-1,-1,0
35900,-524288,111,-56,-1,-1,0
35933,-589824,111,-56,-1,-1,0
35966,-589824,111,-56,-1,-1,0
36000,-458752,111,-56,-1,-1,0
36033,-720896,111,-56,-1,-1,0
36066,-655360,111,-56,-1,-1,0
36100,-589824,111,-56,-1,-1,0
36133,-262144,111,-56,-1,-1,0
36166,-196608,111,-56,-1,-1,0
36200,131072,111,-56,-1,-1,0
36233,1245184,111,-56,-1,-1,0
36266,1179648,111,-56,-1,-1,0
36300,-65536,111,-56,-1,-1,0
36333,-393216,111,-56,-1,-1,0
36366,-131072,111,-56,-1,-1,0
36400,-196608,111,-56,-1,-1,0
36433,-131072,111,-56,-1,-1,0
36466,-458752,110,-56,-1,-1,0
36500,-524288,110,-56,-1,-1,0
36533,-655360,110,-56,-1,-1,0
36566,-262144,110,-56,-1,-1,0
36600,-983040,110,-56,-1,-1,0
36633,-458752,110,-56,-1,-1,0
36666,-393216,110,-56,-1,-1,0
36700,0,110,-56,-1,-1,0
36733,1048576,110,-56,-1,-1,0
36766,1114112,110,-56,-1,-1,0
36800,-262144,110,-56,-1,-1,0
36833,-524288,110,-56,-1,-1,0
36866,-393216,110,-56,-1,-1,0
36900,-393216,110,-56,-1,-1,0
36933,-393216,110,-56,-1,-1,0
36966,-524288,109,-56,-1,-1,0
37000,-393216,109,-56,-1,-1,0
37033,-655360,109,-56,-1,-1,0
37066,2228224,109,-56,-1,-1,0
37100,-1703936,109,-56,-1,-1,0
37133,-655360,109,-56,-1,-1,0
37166,-393216,109,-56,-1,-1,0
37200,262144,109,-56,-1,-1,0
37233,1769472,109,-56,-1,-1,0
37266,851968,109,-56,-1,-1,0
37300,-65536,109,-56,-1,-1,0
37333,0,109,-56,-1,-1,0
37366,0,109,-56,-1,-1,0
37400,0,109,-56,-1,-1,0
37433,65536,109,-56,-1,-1,0
37466,-65536,108,-56,-1,-1,0
37500,-131072,108,-56,-1,-1,0
37533,-393216,108,-56,-1,-1,0
37566,4390912,108,-56,-1,-1,0
37600,-524288,108,-56,-1,-1,0
37633,-262144,108,-56,-1,-1,0
37666,-65536,108,-56,-1,-1,0
37700,524288,108,-56,-1,-1,0
37733,1441792,108,-56,-1,-1,0
37766,65536,108,-56,-1,-1,0
37800,-327680,108,-56,-1,-1,0
37833,-327680,108,-56,-1,-1,0
37866,-262144,108,-56,-1,-1,0
37900,-65536,108,-56,-1,-1,0
37933,-327680,108,-56,-1,-1,0
37966,-262144,107,-56,-1,-1,0
38000,-131072,107,-56,-1,-1,0
38033,-393216,107,-56,-1,-1,0
38066,4653056,107,-56,-1,-1,0
38100,-458752,107,-56,-1,-1,0
38133,-262144,107,-56,-1,-1,0
38166,-131072,107,-56,-1,-1,0
38200,458752,107,-56,-1,-1,0
38233,1441792,107,-56,-1,-1,0
38266,65536,107,-56,-1,-1,0
38300,-458752,107,-56,-1,-1,0
38333,-524288,107,-56,-1,-1,0
38366,-524288,107,-56,-1,-1,0
38400,-655360,107,-56,-1,-1,0
38433,-458752,107,-56,-1,-1,0
38466,-720896,107,-56,-1,-1,0
38500,-131072,106,-56,-1,-1,0
38533,-327680,106,-56,-1,-1,0
38566,-589824,106,-56,-1,-1,0
38600,917504,106,-56,-1,-1,0
38633,-262144,106,-56,-1,-1,0
38666,0,106,-56,-1,-1,0
38700,0,106,-56,-1,-1,0
38733,786432,106,-56,-1,-1,0
38766,1048576,106,-56,-1,-1,0
38800,-131072,106,-56,-1,-1,0
38833,-458752,106,-56,-1,-1,0
38866,-262144,106,-56,-1,-1,0
38900,-131072,106,-56,-1,-1,0
38933,-131072,106,-56,-1,-1,0
38966,-131072,106,-56,-1,-1,0
39000,-327680,106,-56,-1,-1,0
39033,-131072,105,-56,-1,-1,0
39066,-262144,105,-56,-1,-1,0
39100,-196608,105,-56,-1,-1,0
39133,-65536,105,-56,-1,-1,0
39166,0,105,-56,-1,-1,0
39200,0,105,-56,-1,-1,0
39233,65536,105,-56,-1,-1,0
39266,1245184,105,-56,-1,-1,0
39300,1310720,105,-56,-1,-1,0
39333,-196608,105,-56,-1,-1,0
39366,-655360,105,-56,-1,-1,0
39400,-720896,105,-56,-1,-1,0
39433,-917504,105,-56,-1,-1,0
39466,-983040,105,-56,-1,-1,0
39500,-851968,105,-56,-1,-1,0
39533,-1179648,105,-56,-1,-1,0
39566,-917504,104,-56,-1,-1,0
39600,-983040,104,-56,-1,-1,0
39633,3866624,104,-56,-1,-1,0
39666,-1310720,104,-56,-1,-1,0
39700,-458752,104,-56,-1,-1,0
39733,-131072,104,-56,-1,-1,0
39766,524288,104,-56,-1,-1,0
39800,1835008,104,-56,-1,-1,0
39833,720896,104,-56,-1,-1,0
39866,0,104,-56,-1,-1,0
39900,-65536,104,-56,-1,-1,0
39933,-65536,104,-56,-1,-1,0
39966,-131072,104,-56,-1,-1,0
40000,-327680,104,-56,-1,-1,0
40033,-393216,104,-56,-1,-1,0
40066,-720896,104,-56,-1,-1,0
40100,-524288,103,-56,-1,-1,0
40133,-786432,103,-56,-1,-1,0
40166,4456448,103,-56,-1,-1,0
40200,-851968,103,-56,-1,-1,0
40233,-393216,103,-56,-1,-1,0
40266,-131072,103,-56,-1,-1,0
40300,589824,103,-56,-1,-1,0
40333,1900544,103,-56,-1,-1,0
40366,851968,103,-56,-1,-1,0
40400,65536,103,-56,-1,-1,0
40433,0,103,-56,-1,-1,0
40466,131072,103,-56,-1,-1,0
40500,65536,103,-56,-1,-1,0
40533,131072,103,-56,-1,-1,0
40566,0,103,-56,-1,-1,0
40600,-65536,103,-56,-1,-1,0
40633,0,102,-56,-1,-1,0
40666,0,102,-56,-1,-1,0
40700,4587520,102,-56,-1,-1,0
40733,-327680,102,-56,-1,-1,0
40766,131072,102,-56,-1,-1,0
40800,196608,102,-56,-1,-1,0
40833,720896,102,-56,-1,-1,0
40866,1703936,102,-56,-1,-1,0
40900,589824,102,-56,-1,-1,0
40933,-327680,102,-56,-1,-1,0
40966,-327680,102,-56,-1,-1,0
41000,-262144,102,-56,-1,-1,0
41033,-589824,102,-56,-1,-1,0
41066,-655360,102,-56,-1,-1,0
41100,-720896,102,-56,-1,-1,0
41133,-786432,100,-56,-1,-1,0
41166,-589824,100,-56,-1,-1,0
41200,-720896,100,-56,-1,-1,0
41233,3735552,100,-56,-1,-1,0
41266,-917504,100,-56,-1,-1,0
41300,-589824,100,-56,-1,-1,0
41333,-393216,100,-56,-1,-1,0
41366,327680,100,-56,-1,-1,0
41400,1638400,100,-56,-1,-1,0
41433,327680,100,-56,-1,-1,0
41466,-262144,100,-56,-1,-1,0
41500,-393216,100,-56,-1,-1,0
41533,-458752,100,-56,-1,-1,0
41566,-393216,100,-56,-1,-1,0
41600,-589824,100,-56,-1,-1,0
41633,-589824,100,-56,-1,-1,0
41666,-524288,100,-56,-1,-1,0
41700,-393216,100,-56,-1,-1,0
41733,3342336,100,-56,-1,-1,0
41766,-1310720,100,-56,-1,-1,0
41800,-589824,100,-56,-1,-1,0
41833,-393216,100,-56,-1,-1,0
41866,131072,100,-56,-1,-1,0
41900,1310720,100,-56,-1,-1,0
41933,262144,100,-56,-1,-1,0
41966,-655360,100,-56,-1,-1,0
42000,-720896,100,-56,-1,-1,0
42033,-655360,100,-56,-1,-1,0
42066,-589824,100,-56,-1,-1,0
42100,-327680,100,-56,-1,-1,0
42133,-524288,100,-56,-1,-1,0
42166,-262144,99,-56,-1,-1,0
42200,-262144,99,-56,-1,-1,0
42233,-131072,99,-56,-1,-1,0
42266,-524288,99,-56,-1,-1,0
42300,-131072,99,-56,-1,-1,0
42333,-196608,99,-56,-1,-1,0
42366,131072,99,-56,-1,-1,0
42400,1310720,99,-56,-1,-1,0
42433,1441792,99,-56,-1,-1,0
42466,131072,99,-56,-1,-1,0
42500,-196608,99,-56,-1,-1,0
42533,-196608,99,-56,-1,-1,0
42566,-458752,99,-56,-1,-1,0
42600,-458752,99,-56,-1,-1,0
42633,-720896,99,-56,-1,-1,0
42666,-917504,98,-56,-1,-1,0
42700,-786432,98,-56,-1,-1,0
42733,-1048576,98,-56,-1,-1,0
42766,3538944,98,-56,-1,-1,0
42800,-917504,98,-56,-1,-1,0
42833,-458752,98,-56,-1,-1,0
42866,-65536,98,-56,-1,-1,0
42900,589824,98,-56,-1,-1,0
42933,1703936,98,-56,-1,-1,0
42966,524288,98,-56,-1,-1,0
43000,-65536,98,-56,-1,-1,0
43033,-196608,98,-56,-1,-1,0
43066,-262144,98,-56,-1,-1,0
43100,-262144,98,-56,-1,-1,0
43133,-393216,98,-56,-1,-1,0
43166,-327680,98,-56,-1,-1,0
43200,-393216,98,-56,-1,-1,0
43233,-327680,98,-56,-1,-1,0
43266,-786432,98,-56,-1,-1,0
43300,327680,98,-56,-1,-1,0
43333,-458752,98,-56,-1,-1,0
43366,-393216,98,-56,-1,-1,0
43400,-65536,98,-56,-1,-1,0
43433,917504,98,-56,-1,-1,0
43466,1310720,98,-56,-1,-1,0
43500,-131072,98,-56,-1,-1,0
43533,-589824,98,-56,-1,-1,0
43566,-524288,98,-56,-1,-1,0
43600,-393216,98,-56,-1,-1,0
43633,-262144,98,-56,-1,-1,0
43666,-458752,98,-56,-1,-1,0
43700,-458752,98,-56,-1,-1,0
43733,-327680,97,-56,-1,-1,0
43766,-262144,97,-56,-1,-1,0
43800,2359296,97,-56,-1,-1,0
43833,-1048576,97,-56,-1,-1,0
43866,-131072,97,-56,-1,-1,0
43900,-65536,97,-56,-1,-1,0
43933,458752,97,-56,-1,-1,0
43966,1703936,97,-56,-1,-1,0
44000,851968,97,-56,-1,-1,0
44033,-196608,97,-56,-1,-1,0
44066,-327680,97,-56,-1,-1,0
44100,-196608,97,-56,-1,-1,0
44133,-131072,97,-56,-1,-1,0
44166,-131072,97,-56,-1,-1,0
44200,-196608,97,-56,-1,-1,0
44233,-327680,97,-56,-1,-1,0
44266,-196608,97,-56,-1,-1,0
44300,-196608,96,-56,-1,-1,0
44333,-917504,96,-56,-1,-1,0
44366,851968,96,-56,-1,-1,0
44400,-327680,96,-56,-1,-1,0
44433,-196608,96,-56,-1,-1,0
44466,65536,96,-56,-1,-1,0
44500,1048576,96,-56,-1,-1,0
44533,1441792,96,-56,-1,-1,0
44566,-65536,96,-56,-1,-1,0
44600,-327680,96,-56,-1,-1,0
44633,-196608,96,-56,-1,-1,0
44666,-65536,96,-56,-1,-1,0
44700,-262144,96,-56,-1,-1,0
44733,-262144,96,-56,-1,-1,0
44766,-262144,96,-56,-1,-1,0
44800,-327680,96,-56,-1,-1,0
44833,-393216,96,-56,-1,-1,0
44866,-327680,96,-56,-1,-1,0
44900,-720896,96,-56,-1,-1,0
44933,3670016,95,-56,-1,-1,0
44966,-327680,95,-56,-1,-1,0
45000,-196608,95,-56,-1,-1,0
45033,0,95,-56,-1,-1,0
45066,720896,95,-56,-1,-1,0
45100,1572864,95,-56,-1,-1,0
45133,327680,95,-56,-1,-1,0
45166,-196608,95,-56,-1,-1,0
45200,-196608,95,-56,-1,-1,0
45233,0,95,-56,-1,-1,0
45266,-131072,95,-56,-1,-1,0
45300,-196608,95,-56,-1,-1,0
45333,-262144,95,-56,-1,-1,0
45366,-262144,95,-56,-1,-1,0
45400,-327680,95,-56,-1,-1,0
45433,-393216,95,-56,-1,-1,0
45466,-327680,95,-56,-1,-1,0
45500,-393216,95,-56,-1,-1,0
45533,3997696,95,-56,-1,-1,0
45566,-786432,95,-56,-1,-1,0
45600,-327680,95,-56,-1,-1,0
45633,-65536,95,-56,-1,-1,0
45666,393216,95,-56,-1,-1,0
45700,1703936,95,-56,-1,-1,0
45733,720896,95,-56,-1,-1,0
45766,-262144,95,-56,-1,-1,0
45800,-393216,95,-56,-1,-1,0
45833,-327680,95,-56,-1,-1,0
45866,-262144,95,-56,-1,-1,0
45900,-393216,95,-56,-1,-1,0
45933,-393216,95,-56,-1,-1,0
45966,-393216,95,-56,-1,-1,0
46000,-524288,95,-56,-1,-1,0
46033,-393216,95,-56,-1,-1,0
46066,-262144,95,-56,-1,-1,0
46100,2883584,94,-56,-1,-1,0
46133,-1114112,94,-56,-1,-1,0
46166,-327680,94,-56,-1,-1,0
46200,-262144,94,-56,-1,-1,0
46233,196608,94,-56,-1,-1,0
46266,1507328,94,-56,-1,-1,0
46300,786432,94,-56,-1,-1,0
46333,-393216,94,-56,-1,-1,0
46366,-524288,94,-56,-1,-1,0
46400,-393216,94,-56,-1,-1,0
46433,-393216,94,-56,-1,-1,0
46466,-524288,94,-56,-1,-1,0
46500,-524288,94,-56,-1,-1,0
46533,-524288,94,-56,-1,-1,0
46566,-589824,94,-56,-1,-1,0
46600,-720896,94,-56,-1,-1,0
46633,-524288,94,-56,-1,-1,0
46666,-655360,94,-56,-1,-1,0
46700,4653056,94,-56,-1,-1,0
46733,-851968,94,-56,-1,-1,0
46766,-393216,94,-56,-1,-1,0
46800,-262144,94,-56,-1,-1,0
46833,327680,94,-56,-1,-1,0
46866,1638400,94,-56,-1,-1,0
46900,851968,94,-56,-1,-1,0
46933,0,94,-56,-1,-1,0
46966,-196608,94,-56,-1,-1,0
47000,-65536,94,-56,-1,-1,0
47033,0,94,-56,-1,-1,0
47066,0,94,-56,-1,-1,0
47100,0,94,-56,-1,-1,0
47133,0,94,-56,-1,-1,0
47166,0,94,-56,-1,-1,0
47200,-262144,94,-56,-1,-1,0
47233,-131072,94,-56,-1,-1,0
47266,-65536,94,-56,-1,-1,0
47300,262144,93,-56,-1,-1,0
47333,-458752,93,-56,-1,-1,0
47366,-196608,93,-56,-1,-1,0
47400,-196608,93,-56,-1,-1,0
47433,0,93,-56,-1,-1,0
47466,1114112,93,-56,-1,-1,0
47500,1376256,93,-56,-1,-1,0
47533,-131072,93,-56,-1,-1,0
47566,-327680,93,-56,-1,-1,0
47600,-262144,93,-56,-1,-1,0
47633,-196608,93,-56,-1,-1,0
47666,-196608,93,-56,-1,-1,0
47700,-327680,93,-56,-1,-1,0
47733,-393216,93,-56,-1,-1,0
47766,-393216,93,-56,-1,-1,0
47800,-524288,93,-56,-1,-1,0
47833,-393216,91,-56,-1,-1,0
47866,-393216,91,-56,-1,-1,0
47900,3538944,91,-56,-1,-1,0
47933,-1114112,91,-56,-1,-1,0
47966,-262144,91,-56,-1,-1,0
48000,-262144,91,-56,-1,-1,0
48033,262144,91,-56,-1,-1,0
48066,1638400,91,-56,-1,-1,0
48100,917504,91,-56,-1,-1,0
48133,-262144,91,-56,-1,-1,0
48166,-458752,91,-56,-1,-1,0
48200,-393216,91,-56,-1,-1,0
48233,-262144,91,-56,-1,-1,0
48266,-327680,91,-56,-1,-1,0
48300,-393216,91,-56,-1,-1,0
48333,-524288,91,-56,-1,-1,0
48366,-393216,91,-56,-1,-1,0
48400,-393216,91,-56,-1,-1,0
48433,327680,91,-56,-1,-1,0
48466,-1310720,91,-56,-1,-1,0
48500,-393216,91,-56,-1,-1,0
48533,-262144,91,-56,-1,-1,0
48566,0,91,-56,-1,-1,0
48600,1376256,91,-56,-1,-1,0
48633,1310720,91,-56,-1,-1,0
48666,-131072,91,-56,-1,-1,0
48700,-196608,91,-56,-1,-1,0
48733,-131072,91,-56,-1,-1,0
48766,0,91,-56,-1,-1,0
48800,-65536,91,-56,-1,-1,0
48833,-65536,91,-56,-1,-1,0
48866,-196608,91,-56,-1,-1,0
48900,-262144,91,-56,-1,-1,0
48933,-131072,90,-56,-1,-1,0
48966,-393216,90,-56,-1,-1,0
49000,4980736,90,-56,-1,-1,0
49033,-917504,90,-56,-1,-1,0
49066,-851968,90,-56,-1,-1,0
49100,-851968,90,-56,-1,-1,0
49133,-196608,90,-56,-1,-1,0
49166,1048576,90,-56,-1,-1,0
49200,327680,90,-56,-1,-1,0
49233,-524288,90,-56,-1,-1,0
49266,-524288,90,-56,-1,-1,0
49300,-327680,90,-56,-1,-1,0
49333,-262144,90,-56,-1,-1,0
49366,-262144,90,-56,-1,-1,0
49400,-262144,90,-56,-1,-1,0
49433,-327680,90,-56,-1,-1,0
49466,-327680,90,-56,-1,-1,0
49500,-327680,90,-56,-1,-1,0
49533,-851968,89,-56,-1,-1,0
49566,3866624,89,-56,-1,-1,0
49600,-262144,89,-56,-1,-1,0
49633,-65536,89,-56,-1,-1,0
49666,0,89,-56,-1,-1,0
49700,720896,89,-56,-1,-1,0
49733,1900544,89,-56,-1,-1,0
49766,655360,89,-56,-1,-1,0
49800,65536,89,-56,-1,-1,0
49833,-65536,89,-56,-1,-1,0
49866,0,89,-56,-1,-1,0
49900,0,89,-56,-1,-1,0
49933,-131072,89,-56,-1,-1,0
49966,-327680,89,-56,-1,-1,0
50000,-393216,89,-56,-1,-1,0
