milliseconds, ECG, ECG HR, PPG, PPG HR, SpO2, PI
1523626959575,-524288,113,-56,-1,-1,0
1523626959575,-393216,113,-56,-1,-1,0
1523626959575,-327680,113,-56,-1,-1,0
1523626959575,-393216,113,-56,-1,-1,0
1523626959575,-327680,113,-56,-1,-1,0
1523626959615,-262144,113,-56,-1,-1,0
1523626959615,-393216,113,-56,-1,-1,0
1523626959615,-655360,113,-56,-1,-1,0
1523626959615,-720896,113,-56,-1,-1,0
1523626959615,-458752,113,-56,-1,-1,0
1523626959655,-131072,113,-56,-1,-1,0
1523626959655,-65536,113,-56,-1,-1,0
1523626959655,0,113,-56,-1,-1,0
1523626959655,196608,113,-56,-1,-1,0
1523626959655,196608,113,-56,-1,-1,0
1523626959695,327680,113,-56,-1,-1,0
1523626959695,524288,113,-56,-1,-1,0
1523626959695,589824,113,-56,-1,-1,0
1523626959695,458752,113,-56,-1,-1,0
1523626959695,0,113,-56,-1,-1,0
1523626959736,-262144,113,-56,-1,-1,0
1523626959736,-458752,113,-56,-1,-1,0
1523626959736,-655360,113,-56,-1,-1,0
1523626959736,-786432,113,-56,-1,-1,0
1523626959736,-720896,113,-56,-1,-1,0
1523626959775,-655360,113,-56,-1,-1,0
1523626959775,-655360,113,-56,-1,-1,0
1523626959775,-655360,113,-56,-1,-1,0
1523626959775,-655360,113,-56,-1,-1,0
1523626959775,-589824,113,-56,-1,-1,0
1523626959815,-393216,113,-56,-1,-1,0
1523626959815,-262144,113,-56,-1,-1,0
1523626959815,-196608,113,-56,-1,-1,0
1523626959815,-131072,113,-56,-1,-1,0
1523626959815,-131072,113,-56,-1,-1,0
1523626959855,-65536,113,-56,-1,-1,0
1523626959855,0,113,-56,-1,-1,0
1523626959855,65536,113,-56,-1,-1,0
1523626959855,131072,113,-56,-1,-1,0
1523626959855,196608,113,-56,-1,-1,0
1523626959895,65536,113,-56,-1,-1,0
1523626959895,0,113,-56,-1,-1,0
1523626959895,65536,113,-56,-1,-1,0
1523626959895,131072,113,-56,-1,-1,0
1523626959895,196608,113,-56,-1,-1,0
1523626959935,196608,113,-56,-1,-1,0
1523626959935,262144,113,-56,-1,-1,0
1523626959935,196608,113,-56,-1,-1,0
1523626959935,65536,113,-56,-1,-1,0
1523626959935,131072,113,-56,-1,-1,0
1523626959975,262144,113,-56,-1,-1,0
1523626959975,196608,113,-56,-1,-1,0
1523626959975,131072,113,-56,-1,-1,0
1523626959975,0,113,-56,-1,-1,0
1523626959975,-458752,113,-56,-1,-1,0
1523626960015,-458752,113,-56,-1,-1,0
1523626960015,1048576,113,-56,-1,-1,0
1523626960015,3997696,113,-56,-1,-1,0
1523626960015,5570560,113,-56,-1,-1,0
1523626960015,3670016,113,-56,-1,-1,0
1523626960055,458752,113,-56,-1,-1,0
1523626960055,-983040,113,-56,-1,-1,0
1523626960055,-917504,113,-56,-1,-1,0
1523626960055,-589824,113,-56,-1,-1,0
1523626960055,-524288,113,-56,-1,-1,0
1523626960095,-655360,113,-56,-1,-1,0
1523626960095,-786432,113,-56,-1,-1,0
1523626960095,-786432,113,-56,-1,-1,0
1523626960095,-786432,113,-56,-1,-1,0
1523626960095,-720896,113,-56,-1,-1,0
1523626960135,-786432,113,-56,-1,-1,0
1523626960135,-786432,113,-56,-1,-1,0
1523626960135,-983040,113,-56,-1,-1,0
1523626960135,-983040,113,-56,-1,-1,0
1523626960135,-983040,113,-56,-1,-1,0
1523626960175,-1179648,113,-56,-1,-1,0
1523626960175,-1179648,113,-56,-1,-1,0
1523626960175,-917504,113,-56,-1,-1,0
1523626960175,-655360,113,-56,-1,-1,0
1523626960175,-655360,113,-56,-1,-1,0
1523626960215,-786432,113,-56,-1,-1,0
1523626960215,-655360,113,-56,-1,-1,0
1523626960215,-327680,113,-56,-1,-1,0
1523626960215,-327680,113,-56,-1,-1,0
1523626960215,-327680,113,-56,-1,-1,0
1523626960255,-589824,113,-56,-1,-1,0
1523626960255,-1114112,113,-56,-1,-1,0
1523626960255,-1638400,113,-56,-1,-1,0
1523626960255,-1835008,113,-56,-1,-1,0
1523626960255,-2097152,113,-56,-1,-1,0
1523626960295,-2424832,113,-56,-1,-1,0
1523626960295,-2490368,113,-56,-1,-1,0
1523626960295,-2424832,113,-56,-1,-1,0
1523626960295,-2490368,113,-56,-1,-1,0
1523626960295,-2621440,113,-56,-1,-1,0
1523626960335,-2359296,113,-56,-1,-1,0
1523626960335,-2228224,113,-56,-1,-1,0
1523626960335,-2555904,113,-56,-1,-1,0
1523626960335,-3080192,113,-56,-1,-1,0
1523626960335,-3145728,113,-56,-1,-1,0
1523626960376,-2949120,113,-56,-1,-1,0
1523626960376,-2949120,113,-56,-1,-1,0
1523626960376,-2818048,113,-56,-1,-1,0
1523626960376,-2949120,113,-56,-1,-1,0
1523626960376,-3080192,113,-56,-1,-1,0
1523626960415,-3145728,113,-56,-1,-1,0
1523626960415,-3080192,113,-56,-1,-1,0
1523626960415,-3276800,113,-56,-1,-1,0
1523626960415,-3473408,113,-56,-1,-1,0
1523626960415,-3407872,113,-56,-1,-1,0
1523626960455,-3276800,113,-56,-1,-1,0
1523626960455,-3407872,113,-56,-1,-1,0
1523626960455,-3866624,113,-56,-1,-1,0
1523626960455,-3932160,113,-56,-1,-1,0
1523626960455,-3801088,113,-56,-1,-1,0
1523626960495,-3473408,113,-56,-1,-1,0
1523626960495,-3211264,113,-56,-1,-1,0
1523626960495,-3342336,113,-56,-1,-1,0
1523626960495,-3735552,113,-56,-1,-1,0
1523626960495,-4194304,113,-56,-1,-1,0
1523626960535,-3407872,113,-56,-1,-1,0
1523626960535,-3014656,113,-56,-1,-1,0
1523626960535,-3670016,113,-56,-1,-1,0
1523626960535,-3932160,113,-56,-1,-1,0
1523626960535,-2031616,113,-56,-1,-1,0
1523626960575,1310720,113,-56,-1,-1,0
1523626960575,2949120,113,-56,-1,-1,0
1523626960575,1310720,113,-56,-1,-1,0
1523626960575,-1441792,113,-56,-1,-1,0
1523626960575,-2883584,113,-56,-1,-1,0
1523626960615,-3145728,113,-56,-1,-1,0
1523626960615,-2621440,113,-56,-1,-1,0
1523626960615,-2228224,113,-56,-1,-1,0
1523626960615,-1900544,113,-56,-1,-1,0
1523626960615,-1900544,113,-56,-1,-1,0
1523626960655,-1441792,113,-56,-1,-1,0
1523626960655,-983040,113,-56,-1,-1,0
1523626960655,-983040,113,-56,-1,-1,0
1523626960655,-1114112,113,-56,-1,-1,0
1523626960655,-786432,113,-56,-1,-1,0
1523626960695,-262144,113,-56,-1,-1,0
1523626960695,-524288,113,-56,-1,-1,0
1523626960695,-851968,113,-56,-1,-1,0
1523626960695,-655360,113,-56,-1,-1,0
1523626960695,-393216,113,-56,-1,-1,0
1523626960735,-458752,113,-56,-1,-1,0
1523626960735,196608,113,-56,-1,-1,0
1523626960735,1507328,113,-56,-1,-1,0
1523626960735,1900544,113,-56,-1,-1,0
1523626960735,1966080,113,-56,-1,-1,0
1523626960775,2162688,113,-56,-1,-1,0
1523626960775,2359296,113,-56,-1,-1,0
1523626960775,2555904,113,-56,-1,-1,0
1523626960775,2490368,113,-56,-1,-1,0
1523626960775,2162688,113,-56,-1,-1,0
1523626960815,1638400,113,-56,-1,-1,0
1523626960815,1507328,113,-56,-1,-1,0
1523626960815,1703936,113,-56,-1,-1,0
1523626960815,1507328,113,-56,-1,-1,0
1523626960815,1114112,113,-56,-1,-1,0
1523626960855,983040,113,-56,-1,-1,0
1523626960855,1245184,113,-56,-1,-1,0
1523626960855,1048576,113,-56,-1,-1,0
1523626960855,1179648,113,-56,-1,-1,0
1523626960855,1572864,113,-56,-1,-1,0
1523626960895,1835008,112,-56,-1,-1,0
1523626960895,1572864,112,-56,-1,-1,0
1523626960895,1441792,112,-56,-1,-1,0
1523626960895,1507328,112,-56,-1,-1,0
1523626960895,1703936,112,-56,-1,-1,0
1523626960935,1769472,112,-56,-1,-1,0
1523626960935,1703936,112,-56,-1,-1,0
1523626960935,1507328,112,-56,-1,-1,0
1523626960935,1179648,112,-56,-1,-1,0
1523626960935,1245184,112,-56,-1,-1,0
1523626960975,1441792,112,-56,-1,-1,0
1523626960975,1703936,112,-56,-1,-1,0
1523626960975,1703936,112,-56,-1,-1,0
1523626960975,1638400,112,-56,-1,-1,0
1523626960975,1441792,112,-56,-1,-1,0
1523626961016,1638400,112,-56,-1,-1,0
1523626961016,1638400,112,-56,-1,-1,0
1523626961016,1441792,112,-56,-1,-1,0
1523626961016,720896,112,-56,-1,-1,0
1523626961016,851968,112,-56,-1,-1,0
1523626961055,1114112,112,-56,-1,-1,0
1523626961055,1114112,112,-56,-1,-1,0
1523626961055,1114112,112,-56,-1,-1,0
1523626961055,1114112,112,-56,-1,-1,0
1523626961055,589824,112,-56,-1,-1,0
1523626961095,589824,112,-56,-1,-1,0
1523626961095,2228224,112,-56,-1,-1,0
1523626961095,5505024,112,-56,-1,-1,0
1523626961095,6815744,112,-56,-1,-1,0
1523626961095,4259840,112,-56,-1,-1,0
1523626961135,1179648,112,-56,-1,-1,0
1523626961135,262144,112,-56,-1,-1,0
1523626961135,131072,112,-56,-1,-1,0
1523626961135,655360,112,-56,-1,-1,0
1523626961135,1245184,112,-56,-1,-1,0
1523626961175,1507328,112,-56,-1,-1,0
1523626961175,1048576,112,-56,-1,-1,0
1523626961175,1048576,112,-56,-1,-1,0
1523626961175,1114112,112,-56,-1,-1,0
1523626961175,1114112,112,-56,-1,-1,0
1523626961215,1114112,112,-56,-1,-1,0
1523626961215,1048576,112,-56,-1,-1,0
1523626961215,1048576,112,-56,-1,-1,0
1523626961215,1179648,112,-56,-1,-1,0
1523626961215,1179648,112,-56,-1,-1,0
1523626961255,1114112,112,-56,-1,-1,0
1523626961255,1114112,112,-56,-1,-1,0
1523626961255,1441792,112,-56,-1,-1,0
1523626961255,1703936,112,-56,-1,-1,0
1523626961255,1966080,112,-56,-1,-1,0
1523626961295,2031616,112,-56,-1,-1,0
1523626961295,2031616,112,-56,-1,-1,0
1523626961295,2162688,112,-56,-1,-1,0
1523626961295,2293760,112,-56,-1,-1,0
1523626961295,1966080,112,-56,-1,-1,0
1523626961335,1572864,112,-56,-1,-1,0
1523626961335,1310720,112,-56,-1,-1,0
1523626961335,1114112,112,-56,-1,-1,0
1523626961335,655360,112,-56,-1,-1,0
1523626961335,196608,112,-56,-1,-1,0
1523626961375,-131072,112,-56,-1,-1,0
1523626961375,-327680,112,-56,-1,-1,0
1523626961375,-327680,112,-56,-1,-1,0
1523626961375,-393216,112,-56,-1,-1,0
1523626961375,-458752,112,-56,-1,-1,0
1523626961415,-524288,112,-56,-1,-1,0
1523626961415,-589824,112,-56,-1,-1,0
1523626961415,-589824,112,-56,-1,-1,0
1523626961415,-393216,112,-56,-1,-1,0
1523626961415,-327680,112,-56,-1,-1,0
1523626961455,-393216,112,-56,-1,-1,0
1523626961455,-524288,112,-56,-1,-1,0
1523626961455,-655360,112,-56,-1,-1,0
1523626961455,-851968,112,-56,-1,-1,0
1523626961455,-1048576,112,-56,-1,-1,0
1523626961495,-1048576,112,-56,-1,-1,0
1523626961495,-917504,112,-56,-1,-1,0
1523626961495,-983040,112,-56,-1,-1,0
1523626961495,-1179648,112,-56,-1,-1,0
1523626961495,-1310720,112,-56,-1,-1,0
1523626961535,-1310720,112,-56,-1,-1,0
1523626961535,-1441792,112,-56,-1,-1,0
1523626961535,-1376256,112,-56,-1,-1,0
1523626961535,-1310720,112,-56,-1,-1,0
1523626961535,-1310720,112,-56,-1,-1,0
1523626961575,-1376256,112,-56,-1,-1,0
1523626961575,-1310720,112,-56,-1,-1,0
1523626961575,-1245184,112,-56,-1,-1,0
1523626961575,-1507328,112,-56,-1,-1,0
1523626961575,-1900544,112,-56,-1,-1,0
1523626961615,-1638400,112,-56,-1,-1,0
1523626961615,262144,112,-56,-1,-1,0
1523626961615,3342336,112,-56,-1,-1,0
1523626961615,4063232,112,-56,-1,-1,0
1523626961615,1376256,112,-56,-1,-1,0
1523626961656,-1703936,112,-56,-1,-1,0
1523626961656,-2424832,112,-56,-1,-1,0
1523626961656,-1835008,112,-56,-1,-1,0
1523626961656,-1310720,112,-56,-1,-1,0
1523626961656,-1179648,112,-56,-1,-1,0
1523626961695,-1179648,112,-56,-1,-1,0
1523626961695,-1114112,112,-56,-1,-1,0
1523626961695,-1048576,112,-56,-1,-1,0
1523626961695,-983040,112,-56,-1,-1,0
1523626961695,-917504,112,-56,-1,-1,0
1523626961735,-720896,112,-56,-1,-1,0
1523626961735,-524288,112,-56,-1,-1,0
1523626961735,-393216,112,-56,-1,-1,0
1523626961735,-131072,112,-56,-1,-1,0
1523626961735,0,112,-56,-1,-1,0
1523626961775,0,112,-56,-1,-1,0
1523626961775,196608,112,-56,-1,-1,0
1523626961775,458752,112,-56,-1,-1,0
1523626961775,655360,112,-56,-1,-1,0
1523626961775,720896,112,-56,-1,-1,0
1523626961815,851968,112,-56,-1,-1,0
1523626961815,1048576,112,-56,-1,-1,0
1523626961815,1441792,112,-56,-1,-1,0
1523626961815,1638400,112,-56,-1,-1,0
1523626961815,1572864,112,-56,-1,-1,0
1523626961855,1048576,112,-56,-1,-1,0
1523626961855,655360,112,-56,-1,-1,0
1523626961855,393216,112,-56,-1,-1,0
1523626961855,131072,112,-56,-1,-1,0
1523626961855,0,112,-56,-1,-1,0
1523626961895,0,112,-56,-1,-1,0
1523626961895,0,112,-56,-1,-1,0
1523626961895,-65536,112,-56,-1,-1,0
1523626961895,-196608,112,-56,-1,-1,0
1523626961895,-262144,112,-56,-1,-1,0
1523626961935,-327680,112,-56,-1,-1,0
1523626961935,-327680,112,-56,-1,-1,0
1523626961935,-393216,112,-56,-1,-1,0
1523626961935,-327680,112,-56,-1,-1,0
1523626961935,-262144,112,-56,-1,-1,0
1523626961975,-65536,112,-56,-1,-1,0
1523626961975,0,112,-56,-1,-1,0
1523626961975,-131072,112,-56,-1,-1,0
1523626961975,-458752,112,-56,-1,-1,0
1523626961975,-589824,112,-56,-1,-1,0
1523626962015,-655360,112,-56,-1,-1,0
1523626962015,-589824,112,-56,-1,-1,0
1523626962015,-458752,112,-56,-1,-1,0
1523626962015,-262144,112,-56,-1,-1,0
1523626962015,0,112,-56,-1,-1,0
1523626962055,0,112,-56,-1,-1,0
1523626962055,0,112,-56,-1,-1,0
1523626962055,0,112,-56,-1,-1,0
1523626962055,65536,112,-56,-1,-1,0
1523626962055,0,112,-56,-1,-1,0
1523626962095,0,112,-56,-1,-1,0
1523626962095,0,112,-56,-1,-1,0
1523626962095,65536,112,-56,-1,-1,0
1523626962095,0,112,-56,-1,-1,0
1523626962095,0,112,-56,-1,-1,0
1523626962135,-196608,112,-56,-1,-1,0
1523626962135,-196608,112,-56,-1,-1,0
1523626962135,655360,112,-56,-1,-1,0
1523626962135,3211264,112,-56,-1,-1,0
1523626962135,5767168,112,-56,-1,-1,0
1523626962175,5046272,112,-56,-1,-1,0
1523626962175,2097152,112,-56,-1,-1,0
1523626962175,65536,112,-56,-1,-1,0
1523626962175,65536,112,-56,-1,-1,0
1523626962175,458752,112,-56,-1,-1,0
1523626962215,720896,112,-56,-1,-1,0
1523626962215,786432,112,-56,-1,-1,0
1523626962215,786432,112,-56,-1,-1,0
1523626962215,851968,112,-56,-1,-1,0
1523626962215,851968,112,-56,-1,-1,0
1523626962255,851968,112,-56,-1,-1,0
1523626962255,851968,112,-56,-1,-1,0
1523626962255,851968,112,-56,-1,-1,0
1523626962255,851968,112,-56,-1,-1,0
1523626962255,1048576,112,-56,-1,-1,0
1523626962296,1245184,112,-56,-1,-1,0
1523626962296,1441792,112,-56,-1,-1,0
1523626962296,1441792,112,-56,-1,-1,0
1523626962296,1507328,112,-56,-1,-1,0
1523626962296,1638400,112,-56,-1,-1,0
1523626962335,1835008,112,-56,-1,-1,0
1523626962335,2097152,112,-56,-1,-1,0
1523626962335,2359296,112,-56,-1,-1,0
1523626962335,2490368,112,-56,-1,-1,0
1523626962335,2490368,112,-56,-1,-1,0
1523626962375,2490368,112,-56,-1,-1,0
1523626962375,2490368,112,-56,-1,-1,0
1523626962375,2293760,112,-56,-1,-1,0
1523626962375,1900544,112,-56,-1,-1,0
1523626962375,1703936,112,-56,-1,-1,0
1523626962415,1441792,112,-56,-1,-1,0
1523626962415,1245184,112,-56,-1,-1,0
1523626962415,1179648,112,-56,-1,-1,0
1523626962415,1179648,112,-56,-1,-1,0
1523626962415,1048576,112,-56,-1,-1,0
1523626962455,1048576,112,-56,-1,-1,0
1523626962455,983040,112,-56,-1,-1,0
1523626962455,1048576,112,-56,-1,-1,0
1523626962455,1048576,112,-56,-1,-1,0
1523626962455,1048576,112,-56,-1,-1,0
1523626962495,1048576,112,-56,-1,-1,0
1523626962495,1114112,112,-56,-1,-1,0
1523626962495,1114112,112,-56,-1,-1,0
1523626962495,1114112,112,-56,-1,-1,0
1523626962495,1114112,112,-56,-1,-1,0
1523626962535,1114112,112,-56,-1,-1,0
1523626962535,1048576,112,-56,-1,-1,0
1523626962535,917504,112,-56,-1,-1,0
1523626962535,917504,112,-56,-1,-1,0
1523626962535,917504,112,-56,-1,-1,0
1523626962575,851968,112,-56,-1,-1,0
1523626962575,786432,112,-56,-1,-1,0
1523626962575,786432,112,-56,-1,-1,0
1523626962575,851968,112,-56,-1,-1,0
1523626962575,720896,112,-56,-1,-1,0
1523626962615,589824,112,-56,-1,-1,0
1523626962615,524288,112,-56,-1,-1,0
1523626962615,458752,112,-56,-1,-1,0
1523626962615,393216,112,-56,-1,-1,0
1523626962615,458752,112,-56,-1,-1,0
1523626962655,393216,112,-56,-1,-1,0
1523626962655,0,112,-56,-1,-1,0
1523626962655,-393216,112,-56,-1,-1,0
1523626962655,0,112,-56,-1,-1,0
1523626962655,1703936,112,-56,-1,-1,0
1523626962695,4194304,112,-56,-1,-1,0
1523626962695,4849664,112,-56,-1,-1,0
1523626962695,2686976,112,-56,-1,-1,0
1523626962695,131072,112,-56,-1,-1,0
1523626962695,-655360,112,-56,-1,-1,0
1523626962735,-589824,112,-56,-1,-1,0
1523626962735,-458752,112,-56,-1,-1,0
1523626962735,-327680,112,-56,-1,-1,0
1523626962735,-196608,112,-56,-1,-1,0
1523626962735,-196608,112,-56,-1,-1,0
1523626962775,-196608,112,-56,-1,-1,0
1523626962775,-196608,112,-56,-1,-1,0
1523626962775,-131072,112,-56,-1,-1,0
1523626962775,-196608,112,-56,-1,-1,0
1523626962775,-131072,112,-56,-1,-1,0
1523626962815,-65536,112,-56,-1,-1,0
1523626962815,-65536,112,-56,-1,-1,0
1523626962815,0,112,-56,-1,-1,0
1523626962815,196608,112,-56,-1,-1,0
1523626962815,327680,112,-56,-1,-1,0
1523626962855,393216,112,-56,-1,-1,0
1523626962855,589824,112,-56,-1,-1,0
1523626962855,917504,112,-56,-1,-1,0
1523626962855,1114112,112,-56,-1,-1,0
1523626962855,1310720,112,-56,-1,-1,0
1523626962895,1441792,112,-56,-1,-1,0
1523626962895,1310720,112,-56,-1,-1,0
1523626962895,1114112,112,-56,-1,-1,0
1523626962895,983040,112,-56,-1,-1,0
1523626962895,851968,112,-56,-1,-1,0
1523626962936,589824,112,-56,-1,-1,0
1523626962936,327680,112,-56,-1,-1,0
1523626962936,0,112,-56,-1,-1,0
1523626962936,-131072,112,-56,-1,-1,0
1523626962936,-393216,112,-56,-1,-1,0
1523626962975,-589824,112,-56,-1,-1,0
1523626962975,-589824,112,-56,-1,-1,0
1523626962975,-524288,112,-56,-1,-1,0
1523626962975,-589824,112,-56,-1,-1,0
1523626962975,-720896,112,-56,-1,-1,0
1523626963015,-720896,112,-56,-1,-1,0
1523626963015,-589824,112,-56,-1,-1,0
1523626963015,-655360,112,-56,-1,-1,0
1523626963015,-786432,112,-56,-1,-1,0
1523626963015,-851968,112,-56,-1,-1,0
1523626963055,-851968,112,-56,-1,-1,0
1523626963055,-720896,112,-56,-1,-1,0
1523626963055,-720896,112,-56,-1,-1,0
1523626963055,-851968,112,-56,-1,-1,0
1523626963055,-983040,112,-56,-1,-1,0
1523626963095,-786432,112,-56,-1,-1,0
1523626963095,-458752,112,-56,-1,-1,0
1523626963095,-393216,112,-56,-1,-1,0
1523626963095,-393216,112,-56,-1,-1,0
1523626963095,-262144,112,-56,-1,-1,0
1523626963135,-131072,112,-56,-1,-1,0
1523626963135,-196608,112,-56,-1,-1,0
1523626963135,-262144,112,-56,-1,-1,0
1523626963135,-327680,112,-56,-1,-1,0
1523626963135,-327680,112,-56,-1,-1,0
1523626963175,-196608,112,-56,-1,-1,0
1523626963175,-131072,112,-56,-1,-1,0
1523626963175,-196608,112,-56,-1,-1,0
1523626963175,-589824,112,-56,-1,-1,0
1523626963175,-1114112,112,-56,-1,-1,0
1523626963215,-655360,112,-56,-1,-1,0
1523626963215,1441792,112,-56,-1,-1,0
1523626963215,3932160,112,-56,-1,-1,0
1523626963215,4063232,112,-56,-1,-1,0
1523626963215,1769472,112,-56,-1,-1,0
1523626963255,-327680,112,-56,-1,-1,0
1523626963255,-917504,112,-56,-1,-1,0
1523626963255,-786432,112,-56,-1,-1,0
1523626963255,-655360,112,-56,-1,-1,0
1523626963255,-720896,112,-56,-1,-1,0
1523626963295,-786432,112,-56,-1,-1,0
1523626963295,-851968,112,-56,-1,-1,0
1523626963295,-983040,112,-56,-1,-1,0
1523626963295,-983040,112,-56,-1,-1,0
1523626963295,-1114112,112,-56,-1,-1,0
1523626963335,-1114112,112,-56,-1,-1,0
1523626963335,-1048576,112,-56,-1,-1,0
1523626963335,-983040,112,-56,-1,-1,0
1523626963335,-1048576,112,-56,-1,-1,0
1523626963335,-1048576,112,-56,-1,-1,0
1523626963375,-917504,112,-56,-1,-1,0
1523626963375,-720896,112,-56,-1,-1,0
1523626963375,-589824,112,-56,-1,-1,0
1523626963375,-327680,112,-56,-1,-1,0
1523626963375,-65536,112,-56,-1,-1,0
1523626963415,65536,112,-56,-1,-1,0
1523626963415,262144,112,-56,-1,-1,0
1523626963415,327680,112,-56,-1,-1,0
1523626963415,393216,112,-56,-1,-1,0
1523626963415,327680,112,-56,-1,-1,0
1523626963455,0,112,-56,-1,-1,0
1523626963455,-262144,112,-56,-1,-1,0
1523626963455,-458752,112,-56,-1,-1,0
1523626963455,-851968,112,-56,-1,-1,0
1523626963455,-1179648,112,-56,-1,-1,0
1523626963495,-1376256,112,-56,-1,-1,0
1523626963495,-1441792,112,-56,-1,-1,0
1523626963495,-1507328,112,-56,-1,-1,0
1523626963495,-1638400,112,-56,-1,-1,0
1523626963495,-1638400,112,-56,-1,-1,0
1523626963535,-1572864,112,-56,-1,-1,0
1523626963535,-1507328,112,-56,-1,-1,0
1523626963535,-1572864,112,-56,-1,-1,0
1523626963535,-1638400,112,-56,-1,-1,0
1523626963535,-1638400,112,-56,-1,-1,0
1523626963576,-1638400,112,-56,-1,-1,0
1523626963576,-1572864,112,-56,-1,-1,0
1523626963576,-1441792,112,-56,-1,-1,0
1523626963576,-1441792,112,-56,-1,-1,0
1523626963576,-1507328,112,-56,-1,-1,0
1523626963615,-1507328,112,-56,-1,-1,0
1523626963615,-1507328,112,-56,-1,-1,0
1523626963615,-1441792,112,-56,-1,-1,0
1523626963615,-1441792,112,-56,-1,-1,0
1523626963615,-1441792,112,-56,-1,-1,0
1523626963655,-1376256,112,-56,-1,-1,0
1523626963655,-1245184,112,-56,-1,-1,0
1523626963655,-1245184,112,-56,-1,-1,0
1523626963655,-1310720,112,-56,-1,-1,0
1523626963655,-1310720,112,-56,-1,-1,0
1523626963695,-1310720,112,-56,-1,-1,0
1523626963695,-1310720,112,-56,-1,-1,0
1523626963695,-1310720,112,-56,-1,-1,0
1523626963695,-1245184,112,-56,-1,-1,0
1523626963695,-1376256,112,-56,-1,-1,0
1523626963735,-1572864,112,-56,-1,-1,0
1523626963735,-1376256,112,-56,-1,-1,0
1523626963735,-131072,112,-56,-1,-1,0
1523626963735,2031616,112,-56,-1,-1,0
1523626963735,2883584,112,-56,-1,-1,0
1523626963775,1245184,112,-56,-1,-1,0
1523626963775,-1048576,112,-56,-1,-1,0
1523626963775,-1966080,112,-56,-1,-1,0
1523626963775,-1900544,112,-56,-1,-1,0
1523626963775,-1638400,112,-56,-1,-1,0
1523626963815,-1441792,112,-56,-1,-1,0
1523626963815,-1376256,112,-56,-1,-1,0
1523626963815,-1441792,112,-56,-1,-1,0
1523626963815,-1376256,112,-56,-1,-1,0
1523626963815,-1376256,112,-56,-1,-1,0
1523626963855,-1376256,112,-56,-1,-1,0
1523626963855,-1441792,112,-56,-1,-1,0
1523626963855,-1376256,112,-56,-1,-1,0
1523626963855,-1310720,112,-56,-1,-1,0
1523626963855,-1310720,112,-56,-1,-1,0
1523626963895,-1245184,112,-56,-1,-1,0
1523626963895,-1179648,112,-56,-1,-1,0
1523626963895,-1048576,112,-56,-1,-1,0
1523626963895,-851968,112,-56,-1,-1,0
1523626963895,-786432,112,-56,-1,-1,0
1523626963935,-524288,112,-56,-1,-1,0
1523626963935,-196608,112,-56,-1,-1,0
1523626963935,0,112,-56,-1,-1,0
1523626963935,0,112,-56,-1,-1,0
1523626963935,0,112,-56,-1,-1,0
1523626963975,-65536,112,-56,-1,-1,0
1523626963975,-196608,112,-56,-1,-1,0
1523626963975,-393216,112,-56,-1,-1,0
1523626963975,-720896,112,-56,-1,-1,0
1523626963975,-1048576,112,-56,-1,-1,0
1523626964015,-1245184,112,-56,-1,-1,0
1523626964015,-1310720,112,-56,-1,-1,0
1523626964015,-1441792,112,-56,-1,-1,0
1523626964015,-1638400,112,-56,-1,-1,0
1523626964015,-1703936,112,-56,-1,-1,0
1523626964055,-1703936,112,-56,-1,-1,0
1523626964055,-1572864,112,-56,-1,-1,0
1523626964055,-1310720,112,-56,-1,-1,0
1523626964055,-1245184,112,-56,-1,-1,0
1523626964055,-1376256,112,-56,-1,-1,0
1523626964095,-1441792,112,-56,-1,-1,0
1523626964095,-1310720,112,-56,-1,-1,0
1523626964095,-1048576,112,-56,-1,-1,0
1523626964095,-1114112,112,-56,-1,-1,0
1523626964095,-1376256,112,-56,-1,-1,0
1523626964135,-1441792,112,-56,-1,-1,0
1523626964135,-917504,112,-56,-1,-1,0
1523626964135,-786432,112,-56,-1,-1,0
1523626964135,-851968,112,-56,-1,-1,0
1523626964135,-1114112,112,-56,-1,-1,0
1523626964175,-983040,112,-56,-1,-1,0
1523626964175,-851968,112,-56,-1,-1,0
1523626964175,-655360,112,-56,-1,-1,0
1523626964175,-917504,112,-56,-1,-1,0
1523626964175,-1245184,112,-56,-1,-1,0
1523626964216,-1179648,112,-56,-1,-1,0
1523626964216,-983040,112,-56,-1,-1,0
1523626964216,-851968,112,-56,-1,-1,0
1523626964216,-720896,112,-56,-1,-1,0
1523626964216,-458752,112,-56,-1,-1,0
1523626964255,-393216,112,-56,-1,-1,0
1523626964255,-720896,112,-56,-1,-1,0
1523626964255,-327680,112,-56,-1,-1,0
1523626964255,1507328,112,-56,-1,-1,0
1523626964255,3801088,112,-56,-1,-1,0
1523626964295,4128768,112,-56,-1,-1,0
1523626964295,1966080,112,-56,-1,-1,0
1523626964295,-393216,112,-56,-1,-1,0
1523626964295,-1048576,112,-56,-1,-1,0
1523626964295,-851968,112,-56,-1,-1,0
1523626964335,-524288,112,-56,-1,-1,0
1523626964335,-458752,112,-56,-1,-1,0
1523626964335,-393216,112,-56,-1,-1,0
1523626964335,-327680,112,-56,-1,-1,0
1523626964335,-262144,112,-56,-1,-1,0
1523626964376,-262144,112,-56,-1,-1,0
1523626964376,-196608,112,-56,-1,-1,0
1523626964376,-65536,112,-56,-1,-1,0
1523626964376,-65536,112,-56,-1,-1,0
1523626964376,-131072,112,-56,-1,-1,0
1523626964415,0,112,-56,-1,-1,0
1523626964415,196608,112,-56,-1,-1,0
1523626964415,196608,112,-56,-1,-1,0
1523626964415,65536,112,-56,-1,-1,0
1523626964415,196608,112,-56,-1,-1,0
1523626964455,524288,112,-56,-1,-1,0
1523626964455,786432,112,-56,-1,-1,0
1523626964455,1114112,112,-56,-1,-1,0
1523626964455,1376256,112,-56,-1,-1,0
1523626964455,1572864,112,-56,-1,-1,0
1523626964495,1441792,112,-56,-1,-1,0
1523626964495,1245184,112,-56,-1,-1,0
1523626964495,917504,112,-56,-1,-1,0
1523626964495,655360,112,-56,-1,-1,0
1523626964495,458752,112,-56,-1,-1,0
1523626964535,196608,112,-56,-1,-1,0
1523626964535,0,112,-56,-1,-1,0
1523626964535,0,112,-56,-1,-1,0
1523626964535,0,112,-56,-1,-1,0
1523626964535,-65536,112,-56,-1,-1,0
1523626964575,-196608,112,-56,-1,-1,0
1523626964575,-196608,112,-56,-1,-1,0
1523626964575,-65536,112,-56,-1,-1,0
1523626964575,0,112,-56,-1,-1,0
1523626964575,0,112,-56,-1,-1,0
1523626964615,-65536,112,-56,-1,-1,0
1523626964615,0,112,-56,-1,-1,0
1523626964615,65536,112,-56,-1,-1,0
1523626964615,131072,112,-56,-1,-1,0
1523626964615,196608,112,-56,-1,-1,0
1523626964655,131072,112,-56,-1,-1,0
1523626964655,131072,112,-56,-1,-1,0
1523626964655,131072,112,-56,-1,-1,0
1523626964655,196608,112,-56,-1,-1,0
1523626964655,131072,112,-56,-1,-1,0
1523626964695,131072,112,-56,-1,-1,0
1523626964695,196608,112,-56,-1,-1,0
1523626964695,262144,112,-56,-1,-1,0
1523626964695,262144,112,-56,-1,-1,0
1523626964695,196608,112,-56,-1,-1,0
1523626964735,196608,112,-56,-1,-1,0
1523626964735,65536,112,-56,-1,-1,0
1523626964735,131072,112,-56,-1,-1,0
1523626964735,196608,112,-56,-1,-1,0
1523626964735,393216,112,-56,-1,-1,0
1523626964775,393216,112,-56,-1,-1,0
1523626964775,327680,112,-56,-1,-1,0
1523626964775,131072,112,-56,-1,-1,0
1523626964775,65536,112,-56,-1,-1,0
1523626964775,327680,112,-56,-1,-1,0
1523626964815,1572864,112,-56,-1,-1,0
1523626964815,3604480,112,-56,-1,-1,0
1523626964815,4390912,112,-56,-1,-1,0
1523626964815,2818048,112,-56,-1,-1,0
1523626964815,655360,112,-56,-1,-1,0
1523626964856,-131072,112,-56,-1,-1,0
1523626964856,-65536,112,-56,-1,-1,0
1523626964856,196608,112,-56,-1,-1,0
1523626964856,393216,112,-56,-1,-1,0
1523626964856,458752,112,-56,-1,-1,0
1523626964895,393216,112,-56,-1,-1,0
1523626964895,393216,112,-56,-1,-1,0
1523626964895,458752,112,-56,-1,-1,0
1523626964895,589824,112,-56,-1,-1,0
1523626964895,655360,112,-56,-1,-1,0
1523626964935,655360,112,-56,-1,-1,0
1523626964935,589824,112,-56,-1,-1,0
1523626964935,589824,112,-56,-1,-1,0
1523626964935,589824,112,-56,-1,-1,0
1523626964935,655360,112,-56,-1,-1,0
1523626964975,786432,112,-56,-1,-1,0
1523626964975,917504,112,-56,-1,-1,0
1523626964975,1179648,112,-56,-1,-1,0
1523626964975,1376256,112,-56,-1,-1,0
1523626964975,1572864,112,-56,-1,-1,0
1523626965015,1703936,112,-56,-1,-1,0
1523626965015,1835008,112,-56,-1,-1,0
1523626965015,1835008,112,-56,-1,-1,0
1523626965015,1835008,112,-56,-1,-1,0
1523626965015,1769472,112,-56,-1,-1,0
1523626965055,1507328,112,-56,-1,-1,0
1523626965055,1245184,112,-56,-1,-1,0
1523626965055,983040,112,-56,-1,-1,0
1523626965055,786432,112,-56,-1,-1,0
1523626965055,524288,112,-56,-1,-1,0
1523626965095,458752,112,-56,-1,-1,0
1523626965095,393216,112,-56,-1,-1,0
1523626965095,262144,112,-56,-1,-1,0
1523626965095,131072,112,-56,-1,-1,0
1523626965095,65536,112,-56,-1,-1,0
1523626965135,131072,112,-56,-1,-1,0
1523626965135,262144,112,-56,-1,-1,0
1523626965135,196608,112,-56,-1,-1,0
1523626965135,65536,112,-56,-1,-1,0
1523626965135,0,112,-56,-1,-1,0
1523626965175,0,112,-56,-1,-1,0
1523626965175,0,112,-56,-1,-1,0
1523626965175,0,112,-56,-1,-1,0
1523626965175,-65536,112,-56,-1,-1,0
1523626965175,-262144,112,-56,-1,-1,0
1523626965215,-262144,112,-56,-1,-1,0
1523626965215,-262144,112,-56,-1,-1,0
1523626965215,-327680,112,-56,-1,-1,0
1523626965215,-458752,112,-56,-1,-1,0
1523626965215,-524288,112,-56,-1,-1,0
1523626965255,-524288,112,-56,-1,-1,0
1523626965255,-524288,112,-56,-1,-1,0
1523626965255,-720896,112,-56,-1,-1,0
1523626965255,-851968,112,-56,-1,-1,0
1523626965255,-851968,112,-56,-1,-1,0
1523626965295,-851968,112,-56,-1,-1,0
1523626965295,-917504,112,-56,-1,-1,0
1523626965295,-917504,112,-56,-1,-1,0
1523626965295,-1179648,112,-56,-1,-1,0
1523626965295,-1376256,112,-56,-1,-1,0
1523626965335,-786432,112,-56,-1,-1,0
1523626965335,983040,112,-56,-1,-1,0
1523626965335,3014656,112,-56,-1,-1,0
1523626965335,2752512,112,-56,-1,-1,0
1523626965335,393216,112,-56,-1,-1,0
1523626965375,-1507328,112,-56,-1,-1,0
1523626965375,-1835008,112,-56,-1,-1,0
1523626965375,-1572864,112,-56,-1,-1,0
1523626965375,-1245184,112,-56,-1,-1,0
1523626965375,-1179648,112,-56,-1,-1,0
1523626965415,-1179648,112,-56,-1,-1,0
1523626965415,-1179648,112,-56,-1,-1,0
1523626965415,-1179648,112,-56,-1,-1,0
1523626965415,-1245184,112,-56,-1,-1,0
1523626965415,-1179648,112,-56,-1,-1,0
1523626965455,-1048576,112,-56,-1,-1,0
1523626965455,-1048576,112,-56,-1,-1,0
1523626965455,-1048576,112,-56,-1,-1,0
1523626965455,-1048576,112,-56,-1,-1,0
1523626965455,-983040,112,-56,-1,-1,0
1523626965496,-851968,112,-56,-1,-1,0
1523626965496,-655360,112,-56,-1,-1,0
1523626965496,-524288,112,-56,-1,-1,0
1523626965496,-327680,112,-56,-1,-1,0
1523626965496,-65536,112,-56,-1,-1,0
1523626965535,196608,112,-56,-1,-1,0
1523626965535,393216,112,-56,-1,-1,0
1523626965535,524288,112,-56,-1,-1,0
1523626965535,524288,112,-56,-1,-1,0
1523626965535,393216,112,-56,-1,-1,0
1523626965575,196608,112,-56,-1,-1,0
1523626965575,-65536,112,-56,-1,-1,0
1523626965575,-458752,112,-56,-1,-1,0
1523626965575,-655360,112,-56,-1,-1,0
1523626965575,-851968,112,-56,-1,-1,0
1523626965615,-983040,112,-56,-1,-1,0
1523626965615,-1114112,112,-56,-1,-1,0
1523626965615,-983040,112,-56,-1,-1,0
1523626965615,-1048576,112,-56,-1,-1,0
1523626965615,-1114112,112,-56,-1,-1,0
1523626965655,-1048576,112,-56,-1,-1,0
1523626965655,-851968,112,-56,-1,-1,0
1523626965655,-720896,112,-56,-1,-1,0
1523626965655,-851968,112,-56,-1,-1,0
1523626965655,-851968,112,-56,-1,-1,0
1523626965695,-655360,112,-56,-1,-1,0
1523626965695,-589824,112,-56,-1,-1,0
1523626965695,-720896,112,-56,-1,-1,0
1523626965695,-720896,112,-56,-1,-1,0
1523626965695,-720896,112,-56,-1,-1,0
1523626965735,-786432,112,-56,-1,-1,0
1523626965735,-786432,112,-56,-1,-1,0
1523626965735,-655360,112,-56,-1,-1,0
1523626965735,-786432,112,-56,-1,-1,0
1523626965735,-851968,112,-56,-1,-1,0
1523626965775,-720896,112,-56,-1,-1,0
1523626965775,-655360,112,-56,-1,-1,0
1523626965775,-720896,112,-56,-1,-1,0
1523626965775,-720896,112,-56,-1,-1,0
1523626965775,-655360,112,-56,-1,-1,0
1523626965815,-786432,112,-56,-1,-1,0
1523626965815,-917504,112,-56,-1,-1,0
1523626965815,-851968,112,-56,-1,-1,0
1523626965815,-917504,112,-56,-1,-1,0
1523626965815,-1245184,112,-56,-1,-1,0
1523626965855,-851968,112,-56,-1,-1,0
1523626965855,983040,112,-56,-1,-1,0
1523626965855,3735552,112,-56,-1,-1,0
1523626965855,4259840,112,-56,-1,-1,0
1523626965855,1835008,112,-56,-1,-1,0
1523626965895,-851968,112,-56,-1,-1,0
1523626965895,-1638400,112,-56,-1,-1,0
1523626965895,-1245184,112,-56,-1,-1,0
1523626965895,-786432,112,-56,-1,-1,0
1523626965895,-458752,112,-56,-1,-1,0
1523626965935,-393216,112,-56,-1,-1,0
1523626965935,-524288,112,-56,-1,-1,0
1523626965935,-589824,112,-56,-1,-1,0
1523626965935,-655360,112,-56,-1,-1,0
1523626965935,-720896,112,-56,-1,-1,0
1523626965975,-917504,112,-56,-1,-1,0
1523626965975,-917504,112,-56,-1,-1,0
1523626965975,-720896,112,-56,-1,-1,0
1523626965975,-655360,112,-56,-1,-1,0
1523626965975,-655360,112,-56,-1,-1,0
1523626966015,-327680,112,-56,-1,-1,0
1523626966015,0,112,-56,-1,-1,0
1523626966015,65536,112,-56,-1,-1,0
1523626966015,262144,112,-56,-1,-1,0
1523626966015,589824,112,-56,-1,-1,0
1523626966055,720896,112,-56,-1,-1,0
1523626966055,917504,112,-56,-1,-1,0
1523626966055,983040,112,-56,-1,-1,0
1523626966055,1048576,112,-56,-1,-1,0
1523626966055,917504,112,-56,-1,-1,0
1523626966095,786432,112,-56,-1,-1,0
1523626966095,589824,112,-56,-1,-1,0
1523626966095,196608,112,-56,-1,-1,0
1523626966095,0,112,-56,-1,-1,0
1523626966095,0,112,-56,-1,-1,0
1523626966136,-131072,112,-56,-1,-1,0
1523626966136,-393216,112,-56,-1,-1,0
1523626966136,-327680,112,-56,-1,-1,0
1523626966136,-131072,112,-56,-1,-1,0
1523626966136,0,112,-56,-1,-1,0
1523626966175,131072,112,-56,-1,-1,0
1523626966175,131072,112,-56,-1,-1,0
1523626966175,131072,112,-56,-1,-1,0
1523626966175,0,112,-56,-1,-1,0
1523626966175,0,112,-56,-1,-1,0
1523626966215,-65536,112,-56,-1,-1,0
1523626966215,0,112,-56,-1,-1,0
1523626966215,131072,112,-56,-1,-1,0
1523626966215,196608,112,-56,-1,-1,0
1523626966215,0,112,-56,-1,-1,0
1523626966255,-196608,112,-56,-1,-1,0
1523626966255,-131072,112,-56,-1,-1,0
1523626966255,0,112,-56,-1,-1,0
1523626966255,0,112,-56,-1,-1,0
1523626966255,0,112,-56,-1,-1,0
1523626966295,0,112,-56,-1,-1,0
1523626966295,65536,112,-56,-1,-1,0
1523626966295,0,112,-56,-1,-1,0
1523626966295,0,112,-56,-1,-1,0
1523626966295,0,112,-56,-1,-1,0
1523626966335,-65536,112,-56,-1,-1,0
1523626966335,0,112,-56,-1,-1,0
1523626966335,65536,112,-56,-1,-1,0
1523626966335,65536,112,-56,-1,-1,0
1523626966335,-196608,112,-56,-1,-1,0
1523626966375,-524288,112,-56,-1,-1,0
1523626966375,-65536,112,-56,-1,-1,0
1523626966375,1835008,112,-56,-1,-1,0
1523626966375,4521984,112,-56,-1,-1,0
1523626966375,4915200,112,-56,-1,-1,0
1523626966415,2359296,112,-56,-1,-1,0
1523626966415,-327680,112,-56,-1,-1,0
1523626966415,-917504,112,-56,-1,-1,0
1523626966415,-524288,112,-56,-1,-1,0
1523626966415,-131072,112,-56,-1,-1,0
1523626966455,-65536,112,-56,-1,-1,0
1523626966455,-131072,112,-56,-1,-1,0
1523626966455,-65536,112,-56,-1,-1,0
1523626966455,0,112,-56,-1,-1,0
1523626966455,65536,112,-56,-1,-1,0
1523626966495,65536,112,-56,-1,-1,0
1523626966495,0,112,-56,-1,-1,0
1523626966495,0,112,-56,-1,-1,0
1523626966495,65536,112,-56,-1,-1,0
1523626966495,131072,112,-56,-1,-1,0
1523626966535,262144,112,-56,-1,-1,0
1523626966535,327680,112,-56,-1,-1,0
1523626966535,524288,112,-56,-1,-1,0
1523626966535,589824,112,-56,-1,-1,0
1523626966535,720896,112,-56,-1,-1,0
1523626966575,1048576,112,-56,-1,-1,0
1523626966575,1376256,112,-56,-1,-1,0
1523626966575,1572864,112,-56,-1,-1,0
1523626966575,1769472,112,-56,-1,-1,0
1523626966575,1703936,112,-56,-1,-1,0
1523626966615,1507328,112,-56,-1,-1,0
1523626966615,1376256,112,-56,-1,-1,0
1523626966615,1048576,112,-56,-1,-1,0
1523626966615,524288,112,-56,-1,-1,0
1523626966615,262144,112,-56,-1,-1,0
1523626966655,131072,112,-56,-1,-1,0
1523626966655,-65536,112,-56,-1,-1,0
1523626966655,-262144,112,-56,-1,-1,0
1523626966655,-196608,112,-56,-1,-1,0
1523626966655,-196608,112,-56,-1,-1,0
1523626966695,-327680,112,-56,-1,-1,0
1523626966695,-393216,112,-56,-1,-1,0
1523626966695,-393216,112,-56,-1,-1,0
1523626966695,-327680,112,-56,-1,-1,0
1523626966695,-262144,112,-56,-1,-1,0
1523626966735,-327680,112,-56,-1,-1,0
1523626966735,-196608,112,-56,-1,-1,0
1523626966735,-196608,112,-56,-1,-1,0
1523626966735,-327680,112,-56,-1,-1,0
1523626966735,-458752,112,-56,-1,-1,0
1523626966776,-393216,112,-56,-1,-1,0
1523626966776,-327680,112,-56,-1,-1,0
1523626966776,-327680,112,-56,-1,-1,0
1523626966776,-327680,112,-56,-1,-1,0
1523626966776,-393216,112,-56,-1,-1,0
1523626966815,-524288,112,-56,-1,-1,0
1523626966815,-458752,112,-56,-1,-1,0
1523626966815,-458752,112,-56,-1,-1,0
1523626966815,-524288,112,-56,-1,-1,0
1523626966815,-589824,112,-56,-1,-1,0
1523626966855,-589824,112,-56,-1,-1,0
1523626966855,-524288,112,-56,-1,-1,0
1523626966855,-589824,112,-56,-1,-1,0
1523626966855,-589824,112,-56,-1,-1,0
1523626966855,-720896,112,-56,-1,-1,0
1523626966895,-983040,112,-56,-1,-1,0
1523626966895,-1179648,112,-56,-1,-1,0
1523626966895,-786432,112,-56,-1,-1,0
1523626966895,851968,112,-56,-1,-1,0
1523626966895,3211264,112,-56,-1,-1,0
1523626966935,3538944,112,-56,-1,-1,0
1523626966935,1376256,112,-56,-1,-1,0
1523626966935,-851968,112,-56,-1,-1,0
1523626966935,-1441792,112,-56,-1,-1,0
1523626966935,-1245184,112,-56,-1,-1,0
1523626966975,-983040,112,-56,-1,-1,0
1523626966975,-917504,112,-56,-1,-1,0
1523626966975,-917504,112,-56,-1,-1,0
1523626966975,-917504,112,-56,-1,-1,0
1523626966975,-655360,112,-56,-1,-1,0
1523626967015,-655360,112,-56,-1,-1,0
1523626967015,-917504,112,-56,-1,-1,0
1523626967015,-1114112,112,-56,-1,-1,0
1523626967015,-851968,112,-56,-1,-1,0
1523626967015,-655360,112,-56,-1,-1,0
1523626967055,-655360,112,-56,-1,-1,0
1523626967055,-458752,112,-56,-1,-1,0
1523626967055,-196608,112,-56,-1,-1,0
1523626967055,-131072,112,-56,-1,-1,0
1523626967055,-131072,112,-56,-1,-1,0
1523626967095,0,112,-56,-1,-1,0
1523626967095,196608,112,-56,-1,-1,0
1523626967095,458752,112,-56,-1,-1,0
1523626967095,720896,112,-56,-1,-1,0
1523626967095,983040,112,-56,-1,-1,0
1523626967135,1048576,112,-56,-1,-1,0
1523626967135,1048576,112,-56,-1,-1,0
1523626967135,851968,112,-56,-1,-1,0
1523626967135,589824,112,-56,-1,-1,0
1523626967135,393216,112,-56,-1,-1,0
1523626967175,65536,112,-56,-1,-1,0
1523626967175,-131072,112,-56,-1,-1,0
1523626967175,-262144,112,-56,-1,-1,0
1523626967175,-196608,112,-56,-1,-1,0
1523626967175,0,112,-56,-1,-1,0
1523626967215,0,112,-56,-1,-1,0
1523626967215,-65536,112,-56,-1,-1,0
1523626967215,-262144,112,-56,-1,-1,0
1523626967215,-196608,112,-56,-1,-1,0
1523626967215,0,112,-56,-1,-1,0
1523626967255,65536,112,-56,-1,-1,0
1523626967255,65536,112,-56,-1,-1,0
1523626967255,65536,112,-56,-1,-1,0
1523626967255,196608,112,-56,-1,-1,0
1523626967255,196608,112,-56,-1,-1,0
1523626967295,0,112,-56,-1,-1,0
1523626967295,-196608,112,-56,-1,-1,0
1523626967295,-65536,112,-56,-1,-1,0
1523626967295,0,112,-56,-1,-1,0
1523626967295,0,112,-56,-1,-1,0
1523626967335,-65536,112,-56,-1,-1,0
1523626967335,-131072,112,-56,-1,-1,0
1523626967335,-65536,112,-56,-1,-1,0
1523626967335,0,112,-56,-1,-1,0
1523626967335,65536,112,-56,-1,-1,0
1523626967375,131072,112,-56,-1,-1,0
1523626967375,0,112,-56,-1,-1,0
1523626967375,-65536,112,-56,-1,-1,0
1523626967375,0,112,-56,-1,-1,0
1523626967375,-65536,112,-56,-1,-1,0
1523626967416,-393216,112,-56,-1,-1,0
1523626967416,-589824,112,-56,-1,-1,0
1523626967416,-131072,112,-56,-1,-1,0
1523626967416,1376256,112,-56,-1,-1,0
1523626967416,3735552,112,-56,-1,-1,0
1523626967455,4521984,112,-56,-1,-1,0
1523626967455,2490368,112,-56,-1,-1,0
1523626967455,-65536,112,-56,-1,-1,0
1523626967455,-851968,112,-56,-1,-1,0
1523626967455,-524288,112,-56,-1,-1,0
1523626967495,-196608,112,-56,-1,-1,0
1523626967495,-196608,112,-56,-1,-1,0
1523626967495,-131072,112,-56,-1,-1,0
1523626967495,0,112,-56,-1,-1,0
1523626967495,65536,112,-56,-1,-1,0
1523626967535,65536,112,-56,-1,-1,0
1523626967535,65536,112,-56,-1,-1,0
1523626967535,65536,112,-56,-1,-1,0
1523626967535,65536,112,-56,-1,-1,0
1523626967535,131072,112,-56,-1,-1,0
1523626967575,196608,112,-56,-1,-1,0
1523626967575,327680,112,-56,-1,-1,0
1523626967575,458752,112,-56,-1,-1,0
1523626967575,589824,112,-56,-1,-1,0
1523626967575,720896,112,-56,-1,-1,0
1523626967615,851968,112,-56,-1,-1,0
1523626967615,1179648,112,-56,-1,-1,0
1523626967615,1507328,112,-56,-1,-1,0
1523626967615,1572864,112,-56,-1,-1,0
1523626967615,1507328,112,-56,-1,-1,0
1523626967655,1638400,112,-56,-1,-1,0
1523626967655,1835008,112,-56,-1,-1,0
1523626967655,1638400,112,-56,-1,-1,0
1523626967655,1245184,112,-56,-1,-1,0
1523626967655,786432,112,-56,-1,-1,0
1523626967695,393216,112,-56,-1,-1,0
1523626967695,196608,112,-56,-1,-1,0
1523626967695,131072,112,-56,-1,-1,0
1523626967695,0,112,-56,-1,-1,0
1523626967695,-327680,112,-56,-1,-1,0
1523626967735,-393216,113,-56,-1,-1,0
1523626967735,-262144,113,-56,-1,-1,0
1523626967735,-131072,113,-56,-1,-1,0
1523626967735,-131072,113,-56,-1,-1,0
1523626967735,-196608,113,-56,-1,-1,0
1523626967775,-262144,113,-56,-1,-1,0
1523626967775,-262144,113,-56,-1,-1,0
1523626967775,-196608,113,-56,-1,-1,0
1523626967775,-262144,113,-56,-1,-1,0
1523626967775,-262144,113,-56,-1,-1,0
1523626967815,-327680,113,-56,-1,-1,0
1523626967815,-655360,113,-56,-1,-1,0
1523626967815,-786432,113,-56,-1,-1,0
1523626967815,-458752,113,-56,-1,-1,0
1523626967815,-262144,113,-56,-1,-1,0
1523626967856,-458752,113,-56,-1,-1,0
1523626967856,-655360,113,-56,-1,-1,0
1523626967856,-524288,113,-56,-1,-1,0
1523626967856,-393216,113,-56,-1,-1,0
1523626967856,-458752,113,-56,-1,-1,0
1523626967895,-458752,113,-56,-1,-1,0
1523626967895,-524288,113,-56,-1,-1,0
1523626967895,-655360,113,-56,-1,-1,0
1523626967895,-720896,113,-56,-1,-1,0
1523626967895,-720896,113,-56,-1,-1,0
1523626967935,-851968,113,-56,-1,-1,0
1523626967935,-1114112,113,-56,-1,-1,0
1523626967935,-589824,113,-56,-1,-1,0
1523626967935,1310720,113,-56,-1,-1,0
1523626967935,3801088,113,-56,-1,-1,0
1523626967975,3801088,113,-56,-1,-1,0
1523626967975,1245184,113,-56,-1,-1,0
1523626967975,-1245184,113,-56,-1,-1,0
1523626967975,-1769472,113,-56,-1,-1,0
1523626967975,-1310720,113,-56,-1,-1,0
1523626968015,-917504,113,-56,-1,-1,0
1523626968015,-720896,113,-56,-1,-1,0
1523626968015,-720896,113,-56,-1,-1,0
1523626968015,-786432,113,-56,-1,-1,0
1523626968015,-851968,113,-56,-1,-1,0
1523626968056,-720896,113,-56,-1,-1,0
1523626968056,-589824,113,-56,-1,-1,0
1523626968056,-655360,113,-56,-1,-1,0
1523626968056,-786432,113,-56,-1,-1,0
1523626968056,-655360,113,-56,-1,-1,0
1523626968095,-262144,113,-56,-1,-1,0
1523626968095,-196608,113,-56,-1,-1,0
1523626968095,-131072,113,-56,-1,-1,0
1523626968095,0,113,-56,-1,-1,0
1523626968095,131072,113,-56,-1,-1,0
1523626968135,393216,113,-56,-1,-1,0
1523626968135,720896,113,-56,-1,-1,0
1523626968135,851968,113,-56,-1,-1,0
1523626968135,1048576,113,-56,-1,-1,0
1523626968135,1048576,113,-56,-1,-1,0
1523626968175,1048576,113,-56,-1,-1,0
1523626968175,1048576,113,-56,-1,-1,0
1523626968175,1048576,113,-56,-1,-1,0
1523626968175,786432,113,-56,-1,-1,0
1523626968175,393216,113,-56,-1,-1,0
1523626968215,0,113,-56,-1,-1,0
1523626968215,-262144,113,-56,-1,-1,0
1523626968215,-458752,113,-56,-1,-1,0
1523626968215,-458752,113,-56,-1,-1,0
1523626968215,-393216,113,-56,-1,-1,0
1523626968255,-262144,113,-56,-1,-1,0
1523626968255,-327680,113,-56,-1,-1,0
1523626968255,-720896,113,-56,-1,-1,0
1523626968255,-720896,113,-56,-1,-1,0
1523626968255,-262144,113,-56,-1,-1,0
1523626968295,-327680,113,-56,-1,-1,0
1523626968295,-851968,113,-56,-1,-1,0
1523626968295,-1048576,113,-56,-1,-1,0
1523626968295,-589824,113,-56,-1,-1,0
1523626968295,-327680,113,-56,-1,-1,0
1523626968335,-196608,113,-56,-1,-1,0
1523626968335,-393216,113,-56,-1,-1,0
1523626968335,-589824,113,-56,-1,-1,0
1523626968335,-655360,113,-56,-1,-1,0
1523626968335,-589824,113,-56,-1,-1,0
1523626968375,-524288,113,-56,-1,-1,0
1523626968375,-589824,113,-56,-1,-1,0
1523626968375,-720896,113,-56,-1,-1,0
1523626968375,-851968,113,-56,-1,-1,0
1523626968375,-786432,113,-56,-1,-1,0
1523626968415,-589824,113,-56,-1,-1,0
1523626968415,-589824,113,-56,-1,-1,0
1523626968415,-524288,113,-56,-1,-1,0
1523626968415,-524288,113,-56,-1,-1,0
1523626968415,-458752,113,-56,-1,-1,0
1523626968455,-524288,113,-56,-1,-1,0
1523626968455,-851968,113,-56,-1,-1,0
1523626968455,-1048576,113,-56,-1,-1,0
1523626968455,0,113,-56,-1,-1,0
1523626968455,2031616,113,-56,-1,-1,0
1523626968495,3997696,113,-56,-1,-1,0
1523626968495,3407872,113,-56,-1,-1,0
1523626968495,917504,113,-56,-1,-1,0
1523626968495,-786432,113,-56,-1,-1,0
1523626968495,-917504,113,-56,-1,-1,0
1523626968535,-589824,113,-56,-1,-1,0
1523626968535,-458752,113,-56,-1,-1,0
1523626968535,-327680,113,-56,-1,-1,0
1523626968535,-131072,113,-56,-1,-1,0
1523626968535,65536,113,-56,-1,-1,0
1523626968575,65536,113,-56,-1,-1,0
1523626968575,65536,113,-56,-1,-1,0
1523626968575,0,113,-56,-1,-1,0
1523626968575,196608,113,-56,-1,-1,0
1523626968575,196608,113,-56,-1,-1,0
1523626968615,131072,113,-56,-1,-1,0
1523626968615,196608,113,-56,-1,-1,0
1523626968615,393216,113,-56,-1,-1,0
1523626968615,524288,113,-56,-1,-1,0
1523626968615,655360,113,-56,-1,-1,0
1523626968655,786432,113,-56,-1,-1,0
1523626968655,1114112,113,-56,-1,-1,0
1523626968655,1376256,113,-56,-1,-1,0
1523626968655,1572864,113,-56,-1,-1,0
1523626968655,1638400,113,-56,-1,-1,0
1523626968696,1507328,113,-56,-1,-1,0
1523626968696,1310720,113,-56,-1,-1,0
1523626968696,1114112,113,-56,-1,-1,0
1523626968696,917504,113,-56,-1,-1,0
1523626968696,720896,113,-56,-1,-1,0
1523626968735,524288,113,-56,-1,-1,0
1523626968735,327680,113,-56,-1,-1,0
1523626968735,0,113,-56,-1,-1,0
1523626968735,-131072,113,-56,-1,-1,0
1523626968735,-131072,113,-56,-1,-1,0
1523626968775,-65536,113,-56,-1,-1,0
1523626968775,-131072,113,-56,-1,-1,0
1523626968775,-196608,113,-56,-1,-1,0
1523626968775,-196608,113,-56,-1,-1,0
1523626968775,-131072,113,-56,-1,-1,0
1523626968815,-131072,113,-56,-1,-1,0
1523626968815,-131072,113,-56,-1,-1,0
1523626968815,-196608,113,-56,-1,-1,0
1523626968815,-131072,113,-56,-1,-1,0
1523626968815,0,113,-56,-1,-1,0
1523626968855,0,113,-56,-1,-1,0
1523626968855,-196608,113,-56,-1,-1,0
1523626968855,-393216,113,-56,-1,-1,0
1523626968855,-262144,113,-56,-1,-1,0
1523626968855,-196608,113,-56,-1,-1,0
1523626968895,-262144,113,-56,-1,-1,0
1523626968895,-327680,113,-56,-1,-1,0
1523626968895,-262144,113,-56,-1,-1,0
1523626968895,-196608,113,-56,-1,-1,0
1523626968895,-196608,113,-56,-1,-1,0
1523626968935,-327680,113,-56,-1,-1,0
1523626968935,-458752,113,-56,-1,-1,0
1523626968935,-524288,113,-56,-1,-1,0
1523626968935,-524288,113,-56,-1,-1,0
1523626968935,-589824,113,-56,-1,-1,0
1523626968975,-589824,113,-56,-1,-1,0
1523626968975,-720896,113,-56,-1,-1,0
1523626968975,-983040,113,-56,-1,-1,0
1523626968975,-655360,113,-56,-1,-1,0
1523626968975,655360,113,-56,-1,-1,0
1523626969015,2686976,113,-56,-1,-1,0
1523626969015,3145728,113,-56,-1,-1,0
1523626969015,1507328,113,-56,-1,-1,0
1523626969015,-458752,113,-56,-1,-1,0
1523626969015,-1114112,113,-56,-1,-1,0
1523626969055,-917504,113,-56,-1,-1,0
1523626969055,-589824,113,-56,-1,-1,0
1523626969055,-458752,113,-56,-1,-1,0
1523626969055,-393216,113,-56,-1,-1,0
1523626969055,-393216,113,-56,-1,-1,0
1523626969095,-262144,113,-56,-1,-1,0
1523626969095,-196608,113,-56,-1,-1,0
1523626969095,-262144,113,-56,-1,-1,0
1523626969095,-262144,113,-56,-1,-1,0
1523626969095,-131072,113,-56,-1,-1,0
1523626969135,-65536,113,-56,-1,-1,0
1523626969135,0,113,-56,-1,-1,0
1523626969135,0,113,-56,-1,-1,0
1523626969135,65536,113,-56,-1,-1,0
1523626969135,131072,113,-56,-1,-1,0
1523626969175,393216,113,-56,-1,-1,0
1523626969175,655360,113,-56,-1,-1,0
1523626969175,851968,113,-56,-1,-1,0
1523626969175,1114112,113,-56,-1,-1,0
1523626969175,1310720,113,-56,-1,-1,0
1523626969215,1441792,113,-56,-1,-1,0
1523626969215,1507328,113,-56,-1,-1,0
1523626969215,1441792,113,-56,-1,-1,0
1523626969215,1310720,113,-56,-1,-1,0
1523626969215,1114112,113,-56,-1,-1,0
1523626969255,786432,113,-56,-1,-1,0
1523626969255,393216,113,-56,-1,-1,0
1523626969255,131072,113,-56,-1,-1,0
1523626969255,0,113,-56,-1,-1,0
1523626969255,0,113,-56,-1,-1,0
1523626969295,0,113,-56,-1,-1,0
1523626969295,-65536,113,-56,-1,-1,0
1523626969295,-65536,113,-56,-1,-1,0
1523626969295,-65536,113,-56,-1,-1,0
1523626969295,-65536,113,-56,-1,-1,0
1523626969336,-65536,113,-56,-1,-1,0
1523626969336,-65536,113,-56,-1,-1,0
1523626969336,0,113,-56,-1,-1,0
1523626969336,0,113,-56,-1,-1,0
1523626969336,0,113,-56,-1,-1,0
1523626969375,-65536,113,-56,-1,-1,0
1523626969375,-65536,113,-56,-1,-1,0
1523626969375,-65536,113,-56,-1,-1,0
1523626969375,-65536,113,-56,-1,-1,0
1523626969375,-65536,113,-56,-1,-1,0
1523626969415,-65536,113,-56,-1,-1,0
1523626969415,-65536,113,-56,-1,-1,0
1523626969415,-65536,113,-56,-1,-1,0
1523626969415,0,113,-56,-1,-1,0
1523626969415,0,113,-56,-1,-1,0
1523626969455,-65536,113,-56,-1,-1,0
1523626969455,-65536,113,-56,-1,-1,0
1523626969455,-65536,113,-56,-1,-1,0
1523626969455,-65536,113,-56,-1,-1,0
1523626969455,-65536,113,-56,-1,-1,0
1523626969495,-131072,113,-56,-1,-1,0
1523626969495,-327680,113,-56,-1,-1,0
1523626969495,-589824,113,-56,-1,-1,0
1523626969495,-196608,113,-56,-1,-1,0
1523626969495,1441792,113,-56,-1,-1,0
1523626969535,3866624,113,-56,-1,-1,0
1523626969535,4456448,113,-56,-1,-1,0
1523626969535,2162688,113,-56,-1,-1,0
1523626969535,-393216,113,-56,-1,-1,0
1523626969535,-1179648,113,-56,-1,-1,0
1523626969575,-917504,113,-56,-1,-1,0
1523626969575,-524288,113,-56,-1,-1,0
1523626969575,-327680,113,-56,-1,-1,0
1523626969575,-327680,113,-56,-1,-1,0
1523626969575,-327680,113,-56,-1,-1,0
1523626969615,-327680,113,-56,-1,-1,0
1523626969615,-393216,113,-56,-1,-1,0
1523626969615,-393216,113,-56,-1,-1,0
1523626969615,-262144,113,-56,-1,-1,0
1523626969615,-262144,113,-56,-1,-1,0
1523626969655,-262144,113,-56,-1,-1,0
1523626969655,-196608,113,-56,-1,-1,0
1523626969655,-65536,113,-56,-1,-1,0
1523626969655,0,113,-56,-1,-1,0
1523626969655,65536,113,-56,-1,-1,0
1523626969695,262144,113,-56,-1,-1,0
1523626969695,458752,113,-56,-1,-1,0
1523626969695,786432,113,-56,-1,-1,0
1523626969695,1048576,113,-56,-1,-1,0
1523626969695,1245184,113,-56,-1,-1,0
1523626969735,1376256,113,-56,-1,-1,0
1523626969735,1376256,113,-56,-1,-1,0
1523626969735,1245184,113,-56,-1,-1,0
1523626969735,1048576,113,-56,-1,-1,0
1523626969735,655360,113,-56,-1,-1,0
1523626969775,393216,113,-56,-1,-1,0
1523626969775,131072,113,-56,-1,-1,0
1523626969775,0,113,-56,-1,-1,0
1523626969775,-196608,113,-56,-1,-1,0
1523626969775,-262144,113,-56,-1,-1,0
1523626969815,-327680,113,-56,-1,-1,0
1523626969815,-327680,113,-56,-1,-1,0
1523626969815,-327680,113,-56,-1,-1,0
1523626969815,-262144,113,-56,-1,-1,0
1523626969815,-262144,113,-56,-1,-1,0
1523626969855,-262144,114,-56,-1,-1,0
1523626969855,-262144,114,-56,-1,-1,0
1523626969855,-196608,114,-56,-1,-1,0
1523626969855,-65536,114,-56,-1,-1,0
1523626969855,0,114,-56,-1,-1,0
1523626969895,0,114,-56,-1,-1,0
1523626969895,-65536,114,-56,-1,-1,0
1523626969895,-131072,114,-56,-1,-1,0
1523626969895,-131072,114,-56,-1,-1,0
1523626969895,-65536,114,-56,-1,-1,0
1523626969935,-65536,114,-56,-1,-1,0
1523626969935,0,114,-56,-1,-1,0
1523626969935,0,114,-56,-1,-1,0
1523626969935,0,114,-56,-1,-1,0
1523626969935,0,114,-56,-1,-1,0
1523626969976,0,114,-56,-1,-1,0
1523626969976,0,114,-56,-1,-1,0
1523626969976,0,114,-56,-1,-1,0
1523626969976,0,114,-56,-1,-1,0
1523626969976,65536,114,-56,-1,-1,0
1523626970015,65536,114,-56,-1,-1,0
1523626970015,-65536,114,-56,-1,-1,0
1523626970015,-327680,114,-56,-1,-1,0
1523626970015,-131072,114,-56,-1,-1,0
1523626970015,1376256,114,-56,-1,-1,0
1523626970055,4063232,114,-56,-1,-1,0
1523626970055,5177344,114,-56,-1,-1,0
1523626970055,3211264,114,-56,-1,-1,0
1523626970055,393216,114,-56,-1,-1,0
1523626970055,-524288,114,-56,-1,-1,0
1523626970095,-393216,114,-56,-1,-1,0
1523626970095,-65536,114,-56,-1,-1,0
1523626970095,65536,114,-56,-1,-1,0
1523626970095,65536,114,-56,-1,-1,0
1523626970095,65536,114,-56,-1,-1,0
1523626970135,131072,114,-56,-1,-1,0
1523626970135,196608,114,-56,-1,-1,0
1523626970135,196608,114,-56,-1,-1,0
1523626970135,262144,114,-56,-1,-1,0
1523626970135,262144,114,-56,-1,-1,0
1523626970175,262144,114,-56,-1,-1,0
1523626970175,262144,114,-56,-1,-1,0
1523626970175,327680,114,-56,-1,-1,0
1523626970175,524288,114,-56,-1,-1,0
1523626970175,655360,114,-56,-1,-1,0
1523626970215,851968,114,-56,-1,-1,0
1523626970215,1048576,114,-56,-1,-1,0
1523626970215,1245184,114,-56,-1,-1,0
1523626970215,1441792,114,-56,-1,-1,0
1523626970215,1572864,114,-56,-1,-1,0
1523626970255,1769472,114,-56,-1,-1,0
1523626970255,1835008,114,-56,-1,-1,0
1523626970255,1769472,114,-56,-1,-1,0
1523626970255,1638400,114,-56,-1,-1,0
1523626970255,1376256,114,-56,-1,-1,0
1523626970295,1114112,114,-56,-1,-1,0
1523626970295,786432,114,-56,-1,-1,0
1523626970295,589824,114,-56,-1,-1,0
1523626970295,458752,114,-56,-1,-1,0
1523626970295,393216,114,-56,-1,-1,0
1523626970335,393216,114,-56,-1,-1,0
1523626970335,327680,114,-56,-1,-1,0
1523626970335,327680,114,-56,-1,-1,0
1523626970335,393216,114,-56,-1,-1,0
1523626970335,393216,114,-56,-1,-1,0
1523626970375,393216,114,-56,-1,-1,0
1523626970375,524288,114,-56,-1,-1,0
1523626970375,589824,114,-56,-1,-1,0
1523626970375,524288,114,-56,-1,-1,0
1523626970375,524288,114,-56,-1,-1,0
1523626970415,524288,114,-56,-1,-1,0
1523626970415,524288,114,-56,-1,-1,0
1523626970415,458752,114,-56,-1,-1,0
1523626970415,393216,114,-56,-1,-1,0
1523626970415,393216,114,-56,-1,-1,0
1523626970455,327680,114,-56,-1,-1,0
1523626970455,262144,114,-56,-1,-1,0
1523626970455,262144,114,-56,-1,-1,0
1523626970455,196608,114,-56,-1,-1,0
1523626970455,131072,114,-56,-1,-1,0
1523626970495,131072,114,-56,-1,-1,0
1523626970495,131072,114,-56,-1,-1,0
1523626970495,196608,114,-56,-1,-1,0
1523626970495,131072,114,-56,-1,-1,0
1523626970495,65536,114,-56,-1,-1,0
1523626970535,0,114,-56,-1,-1,0
1523626970535,-65536,114,-56,-1,-1,0
1523626970535,-393216,114,-56,-1,-1,0
1523626970535,-524288,114,-56,-1,-1,0
1523626970535,393216,114,-56,-1,-1,0
1523626970575,2555904,114,-56,-1,-1,0
1523626970575,4456448,114,-56,-1,-1,0
1523626970575,3670016,114,-56,-1,-1,0
1523626970575,1245184,114,-56,-1,-1,0
1523626970575,-327680,114,-56,-1,-1,0
1523626970616,-524288,114,-56,-1,-1,0
1523626970616,-327680,114,-56,-1,-1,0
1523626970616,-196608,114,-56,-1,-1,0
1523626970616,-65536,114,-56,-1,-1,0
1523626970616,-65536,114,-56,-1,-1,0
1523626970655,-65536,114,-56,-1,-1,0
1523626970655,-65536,114,-56,-1,-1,0
1523626970655,-65536,114,-56,-1,-1,0
1523626970655,-131072,114,-56,-1,-1,0
1523626970655,-131072,114,-56,-1,-1,0
1523626970695,-65536,114,-56,-1,-1,0
1523626970695,-65536,114,-56,-1,-1,0
1523626970695,-131072,114,-56,-1,-1,0
1523626970695,-65536,114,-56,-1,-1,0
1523626970695,0,114,-56,-1,-1,0
1523626970735,65536,114,-56,-1,-1,0
1523626970735,196608,114,-56,-1,-1,0
1523626970735,327680,114,-56,-1,-1,0
1523626970735,458752,114,-56,-1,-1,0
1523626970735,589824,114,-56,-1,-1,0
1523626970775,655360,114,-56,-1,-1,0
1523626970775,655360,114,-56,-1,-1,0
1523626970775,655360,114,-56,-1,-1,0
1523626970775,589824,114,-56,-1,-1,0
1523626970775,393216,114,-56,-1,-1,0
1523626970815,65536,114,-56,-1,-1,0
1523626970815,-196608,114,-56,-1,-1,0
1523626970815,-458752,114,-56,-1,-1,0
1523626970815,-655360,114,-56,-1,-1,0
1523626970815,-720896,114,-56,-1,-1,0
1523626970855,-720896,114,-56,-1,-1,0
1523626970855,-786432,114,-56,-1,-1,0
1523626970855,-786432,114,-56,-1,-1,0
1523626970855,-786432,114,-56,-1,-1,0
1523626970855,-851968,114,-56,-1,-1,0
1523626970895,-851968,114,-56,-1,-1,0
1523626970895,-917504,114,-56,-1,-1,0
1523626970895,-983040,114,-56,-1,-1,0
1523626970895,-1048576,114,-56,-1,-1,0
1523626970895,-1048576,114,-56,-1,-1,0
1523626970935,-1048576,114,-56,-1,-1,0
1523626970935,-1114112,114,-56,-1,-1,0
1523626970935,-1245184,114,-56,-1,-1,0
1523626970935,-1245184,114,-56,-1,-1,0
1523626970935,-1310720,114,-56,-1,-1,0
1523626970975,-1310720,114,-56,-1,-1,0
1523626970975,-1245184,114,-56,-1,-1,0
1523626970975,-1245184,114,-56,-1,-1,0
1523626970975,-1245184,114,-56,-1,-1,0
1523626970975,-1245184,114,-56,-1,-1,0
1523626971015,-1245184,114,-56,-1,-1,0
1523626971015,-1376256,114,-56,-1,-1,0
1523626971015,-1376256,114,-56,-1,-1,0
1523626971015,-1376256,114,-56,-1,-1,0
1523626971015,-1376256,114,-56,-1,-1,0
1523626971055,-1441792,114,-56,-1,-1,0
1523626971055,-1441792,114,-56,-1,-1,0
1523626971055,-1572864,114,-56,-1,-1,0
1523626971055,-1900544,114,-56,-1,-1,0
1523626971055,-1835008,114,-56,-1,-1,0
1523626971095,-655360,114,-56,-1,-1,0
1523626971095,1441792,114,-56,-1,-1,0
1523626971095,2686976,114,-56,-1,-1,0
1523626971095,1310720,114,-56,-1,-1,0
1523626971095,-1048576,114,-56,-1,-1,0
1523626971135,-2293760,114,-56,-1,-1,0
1523626971135,-2293760,114,-56,-1,-1,0
1523626971135,-1966080,114,-56,-1,-1,0
1523626971135,-1769472,114,-56,-1,-1,0
1523626971135,-1638400,114,-56,-1,-1,0
1523626971175,-1638400,114,-56,-1,-1,0
1523626971175,-1638400,114,-56,-1,-1,0
1523626971175,-1703936,114,-56,-1,-1,0
1523626971175,-1572864,114,-56,-1,-1,0
1523626971175,-1441792,114,-56,-1,-1,0
1523626971215,-1441792,114,-56,-1,-1,0
1523626971215,-1441792,114,-56,-1,-1,0
1523626971215,-1376256,114,-56,-1,-1,0
1523626971215,-1310720,114,-56,-1,-1,0
1523626971215,-1245184,114,-56,-1,-1,0
1523626971256,-1179648,114,-56,-1,-1,0
1523626971256,-983040,114,-56,-1,-1,0
1523626971256,-851968,114,-56,-1,-1,0
1523626971256,-589824,114,-56,-1,-1,0
1523626971256,-393216,114,-56,-1,-1,0
1523626971295,-131072,114,-56,-1,-1,0
1523626971295,0,114,-56,-1,-1,0
1523626971295,0,114,-56,-1,-1,0
1523626971295,0,114,-56,-1,-1,0
1523626971295,-65536,114,-56,-1,-1,0
1523626971335,-262144,114,-56,-1,-1,0
1523626971335,-589824,114,-56,-1,-1,0
1523626971335,-851968,114,-56,-1,-1,0
1523626971335,-1114112,114,-56,-1,-1,0
1523626971335,-1245184,114,-56,-1,-1,0
1523626971375,-1310720,114,-56,-1,-1,0
1523626971375,-1376256,114,-56,-1,-1,0
1523626971375,-1376256,114,-56,-1,-1,0
1523626971375,-1376256,114,-56,-1,-1,0
1523626971375,-1310720,114,-56,-1,-1,0
1523626971415,-1245184,114,-56,-1,-1,0
1523626971415,-1245184,114,-56,-1,-1,0
1523626971415,-1245184,114,-56,-1,-1,0
1523626971415,-1245184,114,-56,-1,-1,0
1523626971415,-1179648,114,-56,-1,-1,0
1523626971455,-1114112,114,-56,-1,-1,0
1523626971455,-1114112,114,-56,-1,-1,0
1523626971455,-1048576,114,-56,-1,-1,0
1523626971455,-1114112,114,-56,-1,-1,0
1523626971455,-1114112,114,-56,-1,-1,0
1523626971495,-1048576,114,-56,-1,-1,0
1523626971495,-1048576,114,-56,-1,-1,0
1523626971495,-1048576,114,-56,-1,-1,0
1523626971495,-983040,114,-56,-1,-1,0
1523626971495,-917504,114,-56,-1,-1,0
1523626971535,-917504,114,-56,-1,-1,0
1523626971535,-983040,114,-56,-1,-1,0
1523626971535,-983040,114,-56,-1,-1,0
1523626971535,-917504,114,-56,-1,-1,0
1523626971535,-917504,114,-56,-1,-1,0
1523626971575,-851968,114,-56,-1,-1,0
1523626971575,-851968,114,-56,-1,-1,0
1523626971575,-1048576,114,-56,-1,-1,0
1523626971575,-1376256,114,-56,-1,-1,0
1523626971575,-1048576,114,-56,-1,-1,0
1523626971615,393216,114,-56,-1,-1,0
1523626971615,2686976,114,-56,-1,-1,0
1523626971615,3473408,114,-56,-1,-1,0
1523626971615,1572864,114,-56,-1,-1,0
1523626971615,-851968,114,-56,-1,-1,0
1523626971656,-1638400,114,-56,-1,-1,0
1523626971656,-1376256,114,-56,-1,-1,0
1523626971656,-1048576,114,-56,-1,-1,0
1523626971656,-917504,114,-56,-1,-1,0
1523626971656,-851968,114,-56,-1,-1,0
1523626971695,-786432,114,-56,-1,-1,0
1523626971695,-720896,114,-56,-1,-1,0
1523626971695,-720896,114,-56,-1,-1,0
1523626971695,-655360,114,-56,-1,-1,0
1523626971695,-589824,114,-56,-1,-1,0
1523626971736,-458752,114,-56,-1,-1,0
1523626971736,-458752,114,-56,-1,-1,0
1523626971736,-458752,114,-56,-1,-1,0
1523626971736,-393216,114,-56,-1,-1,0
1523626971736,-262144,114,-56,-1,-1,0
1523626971775,-131072,114,-56,-1,-1,0
1523626971775,0,114,-56,-1,-1,0
1523626971775,131072,114,-56,-1,-1,0
1523626971775,327680,114,-56,-1,-1,0
1523626971775,589824,114,-56,-1,-1,0
1523626971815,917504,114,-56,-1,-1,0
1523626971815,1048576,114,-56,-1,-1,0
1523626971815,1048576,114,-56,-1,-1,0
1523626971815,851968,114,-56,-1,-1,0
1523626971815,589824,114,-56,-1,-1,0
1523626971855,393216,114,-56,-1,-1,0
1523626971855,65536,114,-56,-1,-1,0
1523626971855,-131072,114,-56,-1,-1,0
1523626971855,-327680,114,-56,-1,-1,0
1523626971855,-327680,114,-56,-1,-1,0
1523626971896,-393216,114,-56,-1,-1,0
1523626971896,-458752,114,-56,-1,-1,0
1523626971896,-524288,114,-56,-1,-1,0
1523626971896,-589824,114,-56,-1,-1,0
1523626971896,-458752,114,-56,-1,-1,0
1523626971935,-393216,114,-56,-1,-1,0
1523626971935,-327680,114,-56,-1,-1,0
1523626971935,-327680,114,-56,-1,-1,0
1523626971935,-262144,114,-56,-1,-1,0
1523626971935,-262144,114,-56,-1,-1,0
1523626971975,-196608,114,-56,-1,-1,0
1523626971975,-131072,114,-56,-1,-1,0
1523626971975,-65536,114,-56,-1,-1,0
1523626971975,-131072,114,-56,-1,-1,0
1523626971975,-196608,114,-56,-1,-1,0
1523626972015,-196608,114,-56,-1,-1,0
1523626972015,-262144,114,-56,-1,-1,0
1523626972015,-262144,114,-56,-1,-1,0
1523626972015,-262144,114,-56,-1,-1,0
1523626972015,-131072,114,-56,-1,-1,0
1523626972055,-131072,114,-56,-1,-1,0
1523626972055,-327680,114,-56,-1,-1,0
1523626972055,-458752,114,-56,-1,-1,0
1523626972055,-393216,114,-56,-1,-1,0
1523626972055,-262144,114,-56,-1,-1,0
1523626972095,-196608,114,-56,-1,-1,0
1523626972095,-131072,114,-56,-1,-1,0
1523626972095,-458752,114,-56,-1,-1,0
1523626972095,-589824,114,-56,-1,-1,0
1523626972095,65536,114,-56,-1,-1,0
1523626972135,2293760,114,-56,-1,-1,0
1523626972135,4325376,114,-56,-1,-1,0
1523626972135,3473408,114,-56,-1,-1,0
1523626972135,720896,114,-56,-1,-1,0
1523626972135,-917504,114,-56,-1,-1,0
1523626972175,-1114112,114,-56,-1,-1,0
1523626972175,-786432,114,-56,-1,-1,0
1523626972175,-524288,114,-56,-1,-1,0
1523626972175,-327680,114,-56,-1,-1,0
1523626972175,-327680,114,-56,-1,-1,0
1523626972215,-327680,114,-56,-1,-1,0
1523626972215,-393216,114,-56,-1,-1,0
1523626972215,-393216,114,-56,-1,-1,0
1523626972215,-458752,114,-56,-1,-1,0
1523626972215,-589824,114,-56,-1,-1,0
1523626972255,-589824,114,-56,-1,-1,0
1523626972255,-458752,114,-56,-1,-1,0
1523626972255,-327680,114,-56,-1,-1,0
1523626972255,-262144,114,-56,-1,-1,0
1523626972255,-196608,114,-56,-1,-1,0
1523626972295,0,114,-56,-1,-1,0
1523626972295,196608,114,-56,-1,-1,0
1523626972295,524288,114,-56,-1,-1,0
1523626972295,720896,114,-56,-1,-1,0
1523626972295,786432,114,-56,-1,-1,0
1523626972335,851968,114,-56,-1,-1,0
1523626972335,917504,114,-56,-1,-1,0
1523626972335,1048576,114,-56,-1,-1,0
1523626972335,983040,114,-56,-1,-1,0
1523626972335,655360,114,-56,-1,-1,0
1523626972375,393216,114,-56,-1,-1,0
1523626972375,262144,114,-56,-1,-1,0
1523626972375,65536,114,-56,-1,-1,0
1523626972375,0,114,-56,-1,-1,0
1523626972375,-196608,114,-56,-1,-1,0
1523626972415,-262144,114,-56,-1,-1,0
1523626972415,-262144,114,-56,-1,-1,0
1523626972415,-131072,114,-56,-1,-1,0
1523626972415,0,114,-56,-1,-1,0
1523626972415,0,114,-56,-1,-1,0
1523626972455,-131072,114,-56,-1,-1,0
1523626972455,-196608,114,-56,-1,-1,0
1523626972455,-65536,114,-56,-1,-1,0
1523626972455,-65536,114,-56,-1,-1,0
1523626972455,-65536,114,-56,-1,-1,0
1523626972495,-65536,114,-56,-1,-1,0
1523626972495,-65536,114,-56,-1,-1,0
1523626972495,-65536,114,-56,-1,-1,0
1523626972495,-65536,114,-56,-1,-1,0
1523626972495,-131072,114,-56,-1,-1,0
1523626972536,-262144,114,-56,-1,-1,0
1523626972536,-262144,114,-56,-1,-1,0
1523626972536,-262144,114,-56,-1,-1,0
1523626972536,-327680,114,-56,-1,-1,0
1523626972536,-327680,114,-56,-1,-1,0
1523626972575,-327680,114,-56,-1,-1,0
1523626972575,-131072,114,-56,-1,-1,0
1523626972575,0,114,-56,-1,-1,0
1523626972575,-131072,114,-56,-1,-1,0
1523626972575,-131072,114,-56,-1,-1,0
1523626972615,-65536,114,-56,-1,-1,0
1523626972615,-65536,114,-56,-1,-1,0
1523626972615,-262144,114,-56,-1,-1,0
1523626972615,-589824,114,-56,-1,-1,0
1523626972615,-131072,114,-56,-1,-1,0
1523626972655,1703936,114,-56,-1,-1,0
1523626972655,4063232,114,-56,-1,-1,0
1523626972655,4128768,114,-56,-1,-1,0
1523626972655,2031616,114,-56,-1,-1,0
1523626972655,0,114,-56,-1,-1,0
1523626972695,-458752,114,-56,-1,-1,0
1523626972695,-196608,114,-56,-1,-1,0
1523626972695,-65536,114,-56,-1,-1,0
1523626972695,0,114,-56,-1,-1,0
1523626972695,65536,114,-56,-1,-1,0
1523626972735,196608,114,-56,-1,-1,0
1523626972735,262144,114,-56,-1,-1,0
1523626972735,196608,114,-56,-1,-1,0
1523626972735,131072,114,-56,-1,-1,0
1523626972735,196608,114,-56,-1,-1,0
1523626972775,327680,114,-56,-1,-1,0
1523626972775,327680,114,-56,-1,-1,0
1523626972775,262144,114,-56,-1,-1,0
1523626972775,262144,114,-56,-1,-1,0
1523626972775,327680,114,-56,-1,-1,0
1523626972814,589824,114,-56,-1,-1,0
1523626972814,720896,114,-56,-1,-1,0
1523626972814,851968,114,-56,-1,-1,0
1523626972814,1048576,114,-56,-1,-1,0
1523626972814,1245184,114,-56,-1,-1,0
1523626972855,1376256,114,-56,-1,-1,0
1523626972855,1441792,114,-56,-1,-1,0
1523626972855,1441792,114,-56,-1,-1,0
1523626972855,1376256,114,-56,-1,-1,0
1523626972855,1179648,114,-56,-1,-1,0
1523626972895,851968,114,-56,-1,-1,0
1523626972895,524288,114,-56,-1,-1,0
1523626972895,262144,114,-56,-1,-1,0
1523626972895,131072,114,-56,-1,-1,0
1523626972895,65536,114,-56,-1,-1,0
1523626972936,0,114,-56,-1,-1,0
1523626972936,-65536,114,-56,-1,-1,0
1523626972936,-131072,114,-56,-1,-1,0
1523626972936,-131072,114,-56,-1,-1,0
1523626972936,-65536,114,-56,-1,-1,0
1523626972975,-65536,114,-56,-1,-1,0
1523626972975,-131072,114,-56,-1,-1,0
1523626972975,-131072,114,-56,-1,-1,0
1523626972975,-65536,114,-56,-1,-1,0
1523626972975,-131072,114,-56,-1,-1,0
1523626973015,-262144,114,-56,-1,-1,0
1523626973015,-327680,114,-56,-1,-1,0
1523626973015,-262144,114,-56,-1,-1,0
1523626973015,-262144,114,-56,-1,-1,0
1523626973015,-327680,114,-56,-1,-1,0
1523626973055,-458752,114,-56,-1,-1,0
1523626973055,-458752,114,-56,-1,-1,0
1523626973055,-524288,114,-56,-1,-1,0
1523626973055,-524288,114,-56,-1,-1,0
1523626973055,-524288,114,-56,-1,-1,0
1523626973095,-589824,114,-56,-1,-1,0
1523626973095,-655360,114,-56,-1,-1,0
1523626973095,-655360,114,-56,-1,-1,0
1523626973095,-720896,114,-56,-1,-1,0
1523626973095,-786432,114,-56,-1,-1,0
1523626973135,-786432,114,-56,-1,-1,0
1523626973135,-851968,114,-56,-1,-1,0
1523626973135,-983040,114,-56,-1,-1,0
1523626973135,-1179648,114,-56,-1,-1,0
1523626973135,-1048576,114,-56,-1,-1,0
1523626973176,131072,114,-56,-1,-1,0
1523626973176,2293760,114,-56,-1,-1,0
1523626973176,3407872,114,-56,-1,-1,0
1523626973176,1835008,114,-56,-1,-1,0
1523626973176,-524288,114,-56,-1,-1,0
1523626973215,-1572864,114,-56,-1,-1,0
1523626973215,-1376256,114,-56,-1,-1,0
1523626973215,-1048576,114,-56,-1,-1,0
1523626973215,-786432,114,-56,-1,-1,0
1523626973215,-589824,114,-56,-1,-1,0
1523626973255,-589824,114,-56,-1,-1,0
1523626973255,-589824,114,-56,-1,-1,0
1523626973255,-524288,114,-56,-1,-1,0
1523626973255,-458752,114,-56,-1,-1,0
1523626973255,-393216,114,-56,-1,-1,0
1523626973295,-393216,114,-56,-1,-1,0
1523626973295,-262144,114,-56,-1,-1,0
1523626973295,-196608,114,-56,-1,-1,0
1523626973295,-65536,114,-56,-1,-1,0
1523626973295,-65536,114,-56,-1,-1,0
1523626973335,0,114,-56,-1,-1,0
1523626973335,196608,114,-56,-1,-1,0
1523626973335,393216,114,-56,-1,-1,0
1523626973335,589824,114,-56,-1,-1,0
1523626973335,786432,114,-56,-1,-1,0
1523626973375,1048576,114,-56,-1,-1,0
1523626973375,1245184,114,-56,-1,-1,0
1523626973375,1310720,114,-56,-1,-1,0
1523626973375,1310720,114,-56,-1,-1,0
1523626973375,1114112,114,-56,-1,-1,0
1523626973415,851968,114,-56,-1,-1,0
1523626973415,589824,114,-56,-1,-1,0
1523626973415,196608,114,-56,-1,-1,0
1523626973415,0,114,-56,-1,-1,0
1523626973415,0,114,-56,-1,-1,0
1523626973455,-65536,114,-56,-1,-1,0
1523626973455,-262144,114,-56,-1,-1,0
1523626973455,-327680,114,-56,-1,-1,0
1523626973455,-327680,114,-56,-1,-1,0
1523626973455,-327680,114,-56,-1,-1,0
1523626973495,-262144,115,-56,-1,-1,0
1523626973495,-196608,115,-56,-1,-1,0
1523626973495,-131072,115,-56,-1,-1,0
1523626973495,-131072,115,-56,-1,-1,0
1523626973495,-131072,115,-56,-1,-1,0
1523626973535,-131072,115,-56,-1,-1,0
1523626973535,-196608,115,-56,-1,-1,0
1523626973535,-131072,115,-56,-1,-1,0
1523626973535,-131072,115,-56,-1,-1,0
1523626973535,-131072,115,-56,-1,-1,0
1523626973575,-131072,115,-56,-1,-1,0
1523626973575,-196608,115,-56,-1,-1,0
1523626973575,-196608,115,-56,-1,-1,0
1523626973575,-196608,115,-56,-1,-1,0
1523626973575,-196608,115,-56,-1,-1,0
1523626973615,-196608,115,-56,-1,-1,0
1523626973615,-262144,115,-56,-1,-1,0
1523626973615,-262144,115,-56,-1,-1,0
1523626973615,-262144,115,-56,-1,-1,0
1523626973615,-196608,115,-56,-1,-1,0
1523626973655,-196608,115,-56,-1,-1,0
1523626973655,-196608,115,-56,-1,-1,0
1523626973655,-327680,115,-56,-1,-1,0
1523626973655,-655360,115,-56,-1,-1,0
1523626973655,-720896,115,-56,-1,-1,0
1523626973695,393216,115,-56,-1,-1,0
1523626973695,2949120,115,-56,-1,-1,0
1523626973695,4784128,115,-56,-1,-1,0
1523626973695,3407872,115,-56,-1,-1,0
1523626973695,327680,115,-56,-1,-1,0
1523626973735,-1245184,115,-56,-1,-1,0
1523626973735,-1245184,115,-56,-1,-1,0
1523626973735,-851968,115,-56,-1,-1,0
1523626973735,-524288,115,-56,-1,-1,0
1523626973735,-393216,115,-56,-1,-1,0
1523626973775,-327680,115,-56,-1,-1,0
1523626973775,-327680,115,-56,-1,-1,0
1523626973775,-393216,115,-56,-1,-1,0
1523626973775,-393216,115,-56,-1,-1,0
1523626973775,-458752,115,-56,-1,-1,0
1523626973816,-393216,115,-56,-1,-1,0
1523626973816,-327680,115,-56,-1,-1,0
1523626973816,-196608,115,-56,-1,-1,0
1523626973816,-196608,115,-56,-1,-1,0
1523626973816,-131072,115,-56,-1,-1,0
1523626973855,-65536,115,-56,-1,-1,0
1523626973855,0,115,-56,-1,-1,0
1523626973855,196608,115,-56,-1,-1,0
1523626973855,458752,115,-56,-1,-1,0
1523626973855,786432,115,-56,-1,-1,0
1523626973895,983040,115,-56,-1,-1,0
1523626973895,1048576,115,-56,-1,-1,0
1523626973895,1048576,115,-56,-1,-1,0
1523626973895,1048576,115,-56,-1,-1,0
1523626973895,917504,115,-56,-1,-1,0
1523626973935,655360,115,-56,-1,-1,0
1523626973935,262144,115,-56,-1,-1,0
1523626973935,0,115,-56,-1,-1,0
1523626973935,-262144,115,-56,-1,-1,0
1523626973935,-393216,115,-56,-1,-1,0
1523626973975,-393216,115,-56,-1,-1,0
1523626973975,-393216,115,-56,-1,-1,0
1523626973975,-524288,115,-56,-1,-1,0
1523626973975,-524288,115,-56,-1,-1,0
1523626973975,-458752,115,-56,-1,-1,0
1523626974015,-458752,115,-56,-1,-1,0
1523626974015,-393216,115,-56,-1,-1,0
1523626974015,-262144,115,-56,-1,-1,0
1523626974015,-262144,115,-56,-1,-1,0
1523626974015,-327680,115,-56,-1,-1,0
1523626974055,-327680,115,-56,-1,-1,0
1523626974055,-262144,115,-56,-1,-1,0
1523626974055,-262144,115,-56,-1,-1,0
1523626974055,-196608,115,-56,-1,-1,0
1523626974055,-196608,115,-56,-1,-1,0
1523626974096,-262144,115,-56,-1,-1,0
1523626974096,-262144,115,-56,-1,-1,0
1523626974096,-196608,115,-56,-1,-1,0
1523626974096,-262144,115,-56,-1,-1,0
1523626974096,-196608,115,-56,-1,-1,0
1523626974135,-131072,115,-56,-1,-1,0
1523626974135,-131072,115,-56,-1,-1,0
1523626974135,-196608,115,-56,-1,-1,0
1523626974135,-196608,115,-56,-1,-1,0
1523626974135,-262144,115,-56,-1,-1,0
1523626974175,-196608,115,-56,-1,-1,0
1523626974175,-196608,115,-56,-1,-1,0
1523626974175,-131072,115,-56,-1,-1,0
1523626974175,-393216,115,-56,-1,-1,0
1523626974175,-655360,115,-56,-1,-1,0
1523626974215,-327680,115,-56,-1,-1,0
1523626974215,1179648,115,-56,-1,-1,0
1523626974215,3735552,115,-56,-1,-1,0
1523626974215,4521984,115,-56,-1,-1,0
1523626974215,2490368,115,-56,-1,-1,0
1523626974255,0,115,-56,-1,-1,0
1523626974255,-720896,115,-56,-1,-1,0
1523626974255,-524288,115,-56,-1,-1,0
1523626974255,-327680,115,-56,-1,-1,0
1523626974255,-262144,115,-56,-1,-1,0
1523626974295,-196608,115,-56,-1,-1,0
1523626974295,-65536,115,-56,-1,-1,0
1523626974295,0,115,-56,-1,-1,0
1523626974295,-131072,115,-56,-1,-1,0
1523626974295,-262144,115,-56,-1,-1,0
1523626974335,-196608,115,-56,-1,-1,0
1523626974335,-65536,115,-56,-1,-1,0
1523626974335,0,115,-56,-1,-1,0
1523626974335,0,115,-56,-1,-1,0
1523626974335,0,115,-56,-1,-1,0
1523626974375,0,115,-56,-1,-1,0
1523626974375,65536,115,-56,-1,-1,0
1523626974375,196608,115,-56,-1,-1,0
1523626974375,327680,115,-56,-1,-1,0
1523626974375,589824,115,-56,-1,-1,0
1523626974415,786432,115,-56,-1,-1,0
1523626974415,917504,115,-56,-1,-1,0
1523626974415,983040,115,-56,-1,-1,0
1523626974415,1114112,115,-56,-1,-1,0
1523626974415,1048576,115,-56,-1,-1,0
1523626974456,786432,115,-56,-1,-1,0
1523626974456,393216,115,-56,-1,-1,0
1523626974456,65536,115,-56,-1,-1,0
1523626974456,-131072,115,-56,-1,-1,0
1523626974456,-262144,115,-56,-1,-1,0
1523626974495,-327680,115,-56,-1,-1,0
1523626974495,-393216,115,-56,-1,-1,0
1523626974495,-458752,115,-56,-1,-1,0
1523626974495,-524288,115,-56,-1,-1,0
1523626974495,-524288,115,-56,-1,-1,0
1523626974535,-589824,115,-56,-1,-1,0
1523626974535,-589824,115,-56,-1,-1,0
1523626974535,-524288,115,-56,-1,-1,0
1523626974535,-393216,115,-56,-1,-1,0
1523626974535,-393216,115,-56,-1,-1,0
1523626974575,-327680,115,-56,-1,-1,0
1523626974575,-393216,115,-56,-1,-1,0
1523626974575,-524288,115,-56,-1,-1,0
1523626974575,-589824,115,-56,-1,-1,0
1523626974575,-524288,115,-56,-1,-1,0
1523626974615,-524288,115,-56,-1,-1,0
1523626974615,-589824,115,-56,-1,-1,0
1523626974615,-524288,115,-56,-1,-1,0
1523626974615,-524288,115,-56,-1,-1,0
1523626974615,-589824,115,-56,-1,-1,0
1523626974655,-655360,115,-56,-1,-1,0
1523626974655,-524288,115,-56,-1,-1,0
1523626974655,-524288,115,-56,-1,-1,0
1523626974655,-589824,115,-56,-1,-1,0
1523626974655,-589824,115,-56,-1,-1,0
1523626974695,-524288,115,-56,-1,-1,0
1523626974695,-524288,115,-56,-1,-1,0
1523626974695,-524288,115,-56,-1,-1,0
1523626974695,-524288,115,-56,-1,-1,0
1523626974695,-786432,115,-56,-1,-1,0
1523626974735,-1114112,115,-56,-1,-1,0
1523626974735,-786432,115,-56,-1,-1,0
1523626974735,1048576,115,-56,-1,-1,0
1523626974735,3538944,115,-56,-1,-1,0
1523626974735,3866624,115,-56,-1,-1,0
1523626974775,1638400,115,-56,-1,-1,0
1523626974775,-655360,115,-56,-1,-1,0
1523626974775,-1179648,115,-56,-1,-1,0
1523626974775,-983040,115,-56,-1,-1,0
1523626974775,-720896,115,-56,-1,-1,0
1523626974815,-655360,115,-56,-1,-1,0
1523626974815,-655360,115,-56,-1,-1,0
1523626974815,-589824,115,-56,-1,-1,0
1523626974815,-589824,115,-56,-1,-1,0
1523626974815,-655360,115,-56,-1,-1,0
1523626974855,-589824,115,-56,-1,-1,0
1523626974855,-589824,115,-56,-1,-1,0
1523626974855,-589824,115,-56,-1,-1,0
1523626974855,-589824,115,-56,-1,-1,0
1523626974855,-458752,115,-56,-1,-1,0
1523626974895,-393216,115,-56,-1,-1,0
1523626974895,-131072,115,-56,-1,-1,0
1523626974895,0,115,-56,-1,-1,0
1523626974895,-65536,115,-56,-1,-1,0
1523626974895,-65536,115,-56,-1,-1,0
1523626974935,131072,115,-56,-1,-1,0
1523626974935,393216,115,-56,-1,-1,0
1523626974935,589824,115,-56,-1,-1,0
1523626974935,786432,115,-56,-1,-1,0
1523626974935,786432,115,-56,-1,-1,0
1523626974975,786432,115,-56,-1,-1,0
1523626974975,655360,115,-56,-1,-1,0
1523626974975,262144,115,-56,-1,-1,0
1523626974975,0,115,-56,-1,-1,0
1523626974975,-262144,115,-56,-1,-1,0
1523626975015,-393216,115,-56,-1,-1,0
1523626975015,-458752,115,-56,-1,-1,0
1523626975015,-524288,115,-56,-1,-1,0
1523626975015,-524288,115,-56,-1,-1,0
1523626975015,-655360,115,-56,-1,-1,0
1523626975055,-655360,115,-56,-1,-1,0
1523626975055,-589824,115,-56,-1,-1,0
1523626975055,-458752,115,-56,-1,-1,0
1523626975055,-393216,115,-56,-1,-1,0
1523626975055,-393216,115,-56,-1,-1,0
1523626975096,-393216,115,-56,-1,-1,0
1523626975096,-262144,115,-56,-1,-1,0
1523626975096,-262144,115,-56,-1,-1,0
1523626975096,-327680,115,-56,-1,-1,0
1523626975096,-327680,115,-56,-1,-1,0
1523626975135,-262144,115,-56,-1,-1,0
1523626975135,-196608,115,-56,-1,-1,0
1523626975135,-131072,115,-56,-1,-1,0
1523626975135,-196608,115,-56,-1,-1,0
1523626975135,-131072,115,-56,-1,-1,0
1523626975175,-131072,115,-56,-1,-1,0
1523626975175,-65536,115,-56,-1,-1,0
1523626975175,0,115,-56,-1,-1,0
1523626975175,65536,115,-56,-1,-1,0
1523626975175,131072,115,-56,-1,-1,0
1523626975215,196608,115,-56,-1,-1,0
1523626975215,196608,115,-56,-1,-1,0
1523626975215,196608,115,-56,-1,-1,0
1523626975215,131072,115,-56,-1,-1,0
1523626975215,131072,115,-56,-1,-1,0
1523626975255,196608,115,-56,-1,-1,0
1523626975255,65536,115,-56,-1,-1,0
1523626975255,-262144,115,-56,-1,-1,0
1523626975255,-458752,115,-56,-1,-1,0
1523626975255,393216,115,-56,-1,-1,0
1523626975295,2818048,115,-56,-1,-1,0
1523626975295,4784128,115,-56,-1,-1,0
1523626975295,3866624,115,-56,-1,-1,0
1523626975295,1114112,115,-56,-1,-1,0
1523626975295,-458752,115,-56,-1,-1,0
1523626975335,-589824,115,-56,-1,-1,0
1523626975335,-327680,115,-56,-1,-1,0
1523626975335,-196608,115,-56,-1,-1,0
1523626975335,-196608,115,-56,-1,-1,0
1523626975335,-262144,115,-56,-1,-1,0
1523626975375,-196608,115,-56,-1,-1,0
1523626975375,-262144,115,-56,-1,-1,0
1523626975375,-327680,115,-56,-1,-1,0
1523626975375,-327680,115,-56,-1,-1,0
1523626975375,-196608,115,-56,-1,-1,0
1523626975415,-131072,115,-56,-1,-1,0
1523626975415,-131072,115,-56,-1,-1,0
1523626975415,-262144,115,-56,-1,-1,0
1523626975415,-327680,115,-56,-1,-1,0
1523626975415,-262144,115,-56,-1,-1,0
1523626975455,-65536,115,-56,-1,-1,0
1523626975455,131072,115,-56,-1,-1,0
1523626975455,393216,115,-56,-1,-1,0
1523626975455,589824,115,-56,-1,-1,0
1523626975455,786432,115,-56,-1,-1,0
1523626975495,983040,115,-56,-1,-1,0
1523626975495,1048576,115,-56,-1,-1,0
1523626975495,983040,115,-56,-1,-1,0
1523626975495,851968,115,-56,-1,-1,0
1523626975495,589824,115,-56,-1,-1,0
1523626975535,262144,115,-56,-1,-1,0
1523626975535,0,115,-56,-1,-1,0
1523626975535,-262144,115,-56,-1,-1,0
1523626975535,-393216,115,-56,-1,-1,0
1523626975535,-524288,115,-56,-1,-1,0
1523626975575,-589824,115,-56,-1,-1,0
1523626975575,-589824,115,-56,-1,-1,0
1523626975575,-458752,115,-56,-1,-1,0
1523626975575,-524288,115,-56,-1,-1,0
1523626975575,-589824,115,-56,-1,-1,0
1523626975615,-524288,115,-56,-1,-1,0
1523626975615,-524288,115,-56,-1,-1,0
1523626975615,-655360,115,-56,-1,-1,0
1523626975615,-655360,115,-56,-1,-1,0
1523626975615,-524288,115,-56,-1,-1,0
1523626975655,-393216,115,-56,-1,-1,0
1523626975655,-458752,115,-56,-1,-1,0
1523626975655,-458752,115,-56,-1,-1,0
1523626975655,-327680,115,-56,-1,-1,0
1523626975655,-393216,115,-56,-1,-1,0
1523626975695,-458752,115,-56,-1,-1,0
1523626975695,-327680,115,-56,-1,-1,0
1523626975695,-196608,115,-56,-1,-1,0
1523626975695,-131072,115,-56,-1,-1,0
1523626975695,-131072,115,-56,-1,-1,0
1523626975736,-196608,115,-56,-1,-1,0
1523626975736,-262144,115,-56,-1,-1,0
1523626975736,-262144,115,-56,-1,-1,0
1523626975736,-196608,115,-56,-1,-1,0
1523626975736,-131072,115,-56,-1,-1,0
1523626975775,-65536,115,-56,-1,-1,0
1523626975775,-131072,115,-56,-1,-1,0
1523626975775,-262144,115,-56,-1,-1,0
1523626975775,-589824,115,-56,-1,-1,0
1523626975775,-851968,115,-56,-1,-1,0
1523626975815,-262144,115,-56,-1,-1,0
1523626975815,1769472,115,-56,-1,-1,0
1523626975815,4325376,115,-56,-1,-1,0
1523626975815,4194304,115,-56,-1,-1,0
1523626975815,1441792,115,-56,-1,-1,0
1523626975855,-917504,115,-56,-1,-1,0
1523626975855,-1310720,115,-56,-1,-1,0
1523626975855,-917504,115,-56,-1,-1,0
1523626975855,-589824,115,-56,-1,-1,0
1523626975855,-458752,115,-56,-1,-1,0
1523626975895,-458752,115,-56,-1,-1,0
1523626975895,-393216,115,-56,-1,-1,0
1523626975895,-393216,115,-56,-1,-1,0
1523626975895,-327680,115,-56,-1,-1,0
1523626975895,-327680,115,-56,-1,-1,0
1523626975935,-327680,115,-56,-1,-1,0
1523626975935,-327680,115,-56,-1,-1,0
1523626975935,-327680,115,-56,-1,-1,0
1523626975935,-327680,115,-56,-1,-1,0
1523626975935,-262144,115,-56,-1,-1,0
1523626975975,-65536,115,-56,-1,-1,0
1523626975975,65536,115,-56,-1,-1,0
1523626975975,327680,115,-56,-1,-1,0
1523626975975,589824,115,-56,-1,-1,0
1523626975975,786432,115,-56,-1,-1,0
1523626976015,917504,115,-56,-1,-1,0
1523626976015,1114112,115,-56,-1,-1,0
1523626976015,1310720,115,-56,-1,-1,0
1523626976015,1310720,115,-56,-1,-1,0
1523626976015,1048576,115,-56,-1,-1,0
1523626976055,655360,115,-56,-1,-1,0
1523626976055,327680,115,-56,-1,-1,0
1523626976055,65536,115,-56,-1,-1,0
1523626976055,-131072,115,-56,-1,-1,0
1523626976055,-262144,115,-56,-1,-1,0
1523626976095,-327680,115,-56,-1,-1,0
1523626976095,-327680,115,-56,-1,-1,0
1523626976095,-393216,115,-56,-1,-1,0
1523626976095,-458752,115,-56,-1,-1,0
1523626976095,-458752,115,-56,-1,-1,0
1523626976135,-458752,115,-56,-1,-1,0
1523626976135,-458752,115,-56,-1,-1,0
1523626976135,-393216,115,-56,-1,-1,0
1523626976135,-327680,115,-56,-1,-1,0
1523626976135,-327680,115,-56,-1,-1,0
1523626976175,-458752,115,-56,-1,-1,0
1523626976175,-458752,115,-56,-1,-1,0
1523626976175,-393216,115,-56,-1,-1,0
1523626976175,-327680,115,-56,-1,-1,0
1523626976175,-196608,115,-56,-1,-1,0
1523626976215,-196608,115,-56,-1,-1,0
1523626976215,-327680,115,-56,-1,-1,0
1523626976215,-458752,115,-56,-1,-1,0
1523626976215,-458752,115,-56,-1,-1,0
1523626976215,-458752,115,-56,-1,-1,0
1523626976255,-458752,115,-56,-1,-1,0
1523626976255,-458752,115,-56,-1,-1,0
1523626976255,-393216,115,-56,-1,-1,0
1523626976255,-327680,115,-56,-1,-1,0
1523626976255,-262144,115,-56,-1,-1,0
1523626976295,-327680,115,-56,-1,-1,0
1523626976295,-393216,115,-56,-1,-1,0
1523626976295,-393216,115,-56,-1,-1,0
1523626976295,-393216,115,-56,-1,-1,0
1523626976295,-327680,115,-56,-1,-1,0
1523626976335,-589824,115,-56,-1,-1,0
1523626976335,-1048576,115,-56,-1,-1,0
1523626976335,-1048576,115,-56,-1,-1,0
1523626976335,524288,115,-56,-1,-1,0
1523626976335,3538944,115,-56,-1,-1,0
1523626976376,5177344,115,-56,-1,-1,0
1523626976376,3342336,115,-56,-1,-1,0
1523626976376,131072,115,-56,-1,-1,0
1523626976376,-1179648,115,-56,-1,-1,0
1523626976376,-983040,115,-56,-1,-1,0
1523626976415,-655360,115,-56,-1,-1,0
1523626976415,-458752,115,-56,-1,-1,0
1523626976415,-458752,115,-56,-1,-1,0
1523626976415,-524288,115,-56,-1,-1,0
1523626976415,-524288,115,-56,-1,-1,0
1523626976455,-458752,115,-56,-1,-1,0
1523626976455,-327680,115,-56,-1,-1,0
1523626976455,-393216,115,-56,-1,-1,0
1523626976455,-393216,115,-56,-1,-1,0
1523626976455,-327680,115,-56,-1,-1,0
1523626976495,-196608,115,-56,-1,-1,0
1523626976495,-196608,115,-56,-1,-1,0
1523626976495,-131072,115,-56,-1,-1,0
1523626976495,-65536,115,-56,-1,-1,0
1523626976495,65536,115,-56,-1,-1,0
1523626976535,262144,115,-56,-1,-1,0
1523626976535,524288,115,-56,-1,-1,0
1523626976535,720896,115,-56,-1,-1,0
1523626976535,851968,115,-56,-1,-1,0
1523626976535,983040,115,-56,-1,-1,0
1523626976575,1048576,115,-56,-1,-1,0
1523626976575,1114112,115,-56,-1,-1,0
1523626976575,917504,115,-56,-1,-1,0
1523626976575,655360,115,-56,-1,-1,0
1523626976575,458752,115,-56,-1,-1,0
1523626976615,196608,115,-56,-1,-1,0
1523626976615,0,115,-56,-1,-1,0
1523626976615,-131072,115,-56,-1,-1,0
1523626976615,-131072,115,-56,-1,-1,0
1523626976615,-131072,115,-56,-1,-1,0
1523626976655,-131072,115,-56,-1,-1,0
1523626976655,-65536,115,-56,-1,-1,0
1523626976655,0,115,-56,-1,-1,0
1523626976655,0,115,-56,-1,-1,0
1523626976655,0,115,-56,-1,-1,0
1523626976695,0,114,-56,-1,-1,0
1523626976695,0,114,-56,-1,-1,0
1523626976695,0,114,-56,-1,-1,0
1523626976695,0,114,-56,-1,-1,0
1523626976695,0,114,-56,-1,-1,0
1523626976735,0,114,-56,-1,-1,0
1523626976735,0,114,-56,-1,-1,0
1523626976735,0,114,-56,-1,-1,0
1523626976735,-65536,114,-56,-1,-1,0
1523626976735,-65536,114,-56,-1,-1,0
1523626976775,-65536,114,-56,-1,-1,0
1523626976775,-65536,114,-56,-1,-1,0
1523626976775,-131072,114,-56,-1,-1,0
1523626976775,-131072,114,-56,-1,-1,0
1523626976775,-65536,114,-56,-1,-1,0
1523626976815,0,114,-56,-1,-1,0
1523626976815,0,114,-56,-1,-1,0
1523626976815,0,114,-56,-1,-1,0
1523626976815,0,114,-56,-1,-1,0
1523626976815,0,114,-56,-1,-1,0
1523626976855,0,114,-56,-1,-1,0
1523626976855,0,114,-56,-1,-1,0
1523626976855,-131072,114,-56,-1,-1,0
1523626976855,-589824,114,-56,-1,-1,0
1523626976855,-524288,114,-56,-1,-1,0
1523626976895,1048576,114,-56,-1,-1,0
1523626976895,4128768,114,-56,-1,-1,0
1523626976895,5439488,114,-56,-1,-1,0
1523626976895,3145728,114,-56,-1,-1,0
1523626976895,0,114,-56,-1,-1,0
1523626976935,-917504,114,-56,-1,-1,0
1523626976935,-524288,114,-56,-1,-1,0
1523626976935,-131072,114,-56,-1,-1,0
1523626976935,0,114,-56,-1,-1,0
1523626976935,0,114,-56,-1,-1,0
1523626976975,0,114,-56,-1,-1,0
1523626976975,131072,114,-56,-1,-1,0
1523626976975,65536,114,-56,-1,-1,0
1523626976975,65536,114,-56,-1,-1,0
1523626976975,131072,114,-56,-1,-1,0
1523626977016,327680,114,-56,-1,-1,0
1523626977016,262144,114,-56,-1,-1,0
1523626977016,262144,114,-56,-1,-1,0
1523626977016,393216,114,-56,-1,-1,0
1523626977016,524288,114,-56,-1,-1,0
1523626977055,655360,114,-56,-1,-1,0
1523626977055,786432,114,-56,-1,-1,0
1523626977055,983040,114,-56,-1,-1,0
1523626977055,1179648,114,-56,-1,-1,0
1523626977055,1310720,114,-56,-1,-1,0
1523626977095,1507328,114,-56,-1,-1,0
1523626977095,1703936,114,-56,-1,-1,0
1523626977095,1769472,114,-56,-1,-1,0
1523626977095,1769472,114,-56,-1,-1,0
1523626977095,1638400,114,-56,-1,-1,0
1523626977135,1310720,114,-56,-1,-1,0
1523626977135,917504,114,-56,-1,-1,0
1523626977135,655360,114,-56,-1,-1,0
1523626977135,589824,114,-56,-1,-1,0
1523626977135,458752,114,-56,-1,-1,0
1523626977175,393216,114,-56,-1,-1,0
1523626977175,327680,114,-56,-1,-1,0
1523626977175,262144,114,-56,-1,-1,0
1523626977175,262144,114,-56,-1,-1,0
1523626977175,327680,114,-56,-1,-1,0
1523626977215,393216,115,-56,-1,-1,0
1523626977215,393216,115,-56,-1,-1,0
1523626977215,393216,115,-56,-1,-1,0
1523626977215,393216,115,-56,-1,-1,0
1523626977215,524288,115,-56,-1,-1,0
1523626977255,393216,115,-56,-1,-1,0
1523626977255,196608,115,-56,-1,-1,0
1523626977255,262144,115,-56,-1,-1,0
1523626977255,327680,115,-56,-1,-1,0
1523626977255,393216,115,-56,-1,-1,0
1523626977295,393216,115,-56,-1,-1,0
1523626977295,393216,115,-56,-1,-1,0
1523626977295,262144,115,-56,-1,-1,0
1523626977295,196608,115,-56,-1,-1,0
1523626977295,262144,115,-56,-1,-1,0
1523626977335,393216,115,-56,-1,-1,0
1523626977335,327680,115,-56,-1,-1,0
1523626977335,262144,115,-56,-1,-1,0
1523626977335,327680,115,-56,-1,-1,0
1523626977335,393216,115,-56,-1,-1,0
1523626977375,327680,115,-56,-1,-1,0
1523626977375,327680,115,-56,-1,-1,0
1523626977375,196608,115,-56,-1,-1,0
1523626977375,65536,115,-56,-1,-1,0
1523626977375,262144,115,-56,-1,-1,0
1523626977415,1376256,115,-56,-1,-1,0
1523626977415,3604480,115,-56,-1,-1,0
1523626977415,4849664,115,-56,-1,-1,0
1523626977415,3145728,115,-56,-1,-1,0
1523626977415,393216,115,-56,-1,-1,0
1523626977455,-851968,115,-56,-1,-1,0
1523626977455,-589824,115,-56,-1,-1,0
1523626977455,-65536,115,-56,-1,-1,0
1523626977455,131072,115,-56,-1,-1,0
1523626977455,65536,115,-56,-1,-1,0
1523626977495,196608,115,-56,-1,-1,0
1523626977495,262144,115,-56,-1,-1,0
1523626977495,262144,115,-56,-1,-1,0
1523626977495,131072,115,-56,-1,-1,0
1523626977495,131072,115,-56,-1,-1,0
1523626977535,196608,115,-56,-1,-1,0
1523626977535,196608,115,-56,-1,-1,0
1523626977535,196608,115,-56,-1,-1,0
1523626977535,262144,115,-56,-1,-1,0
1523626977535,327680,115,-56,-1,-1,0
1523626977575,458752,115,-56,-1,-1,0
1523626977575,589824,115,-56,-1,-1,0
1523626977575,655360,115,-56,-1,-1,0
1523626977575,917504,115,-56,-1,-1,0
1523626977575,1245184,115,-56,-1,-1,0
1523626977615,1310720,115,-56,-1,-1,0
1523626977615,1310720,115,-56,-1,-1,0
1523626977615,1245184,115,-56,-1,-1,0
1523626977615,1114112,115,-56,-1,-1,0
1523626977615,851968,115,-56,-1,-1,0
1523626977656,589824,115,-56,-1,-1,0
1523626977656,393216,115,-56,-1,-1,0
1523626977656,65536,115,-56,-1,-1,0
1523626977656,-65536,115,-56,-1,-1,0
1523626977656,-262144,115,-56,-1,-1,0
1523626977695,-327680,115,-56,-1,-1,0
1523626977695,-262144,115,-56,-1,-1,0
1523626977695,-393216,115,-56,-1,-1,0
1523626977695,-393216,115,-56,-1,-1,0
1523626977695,-393216,115,-56,-1,-1,0
1523626977735,-327680,114,-56,-1,-1,0
1523626977735,-262144,114,-56,-1,-1,0
1523626977735,-196608,114,-56,-1,-1,0
1523626977735,-131072,114,-56,-1,-1,0
1523626977735,-131072,114,-56,-1,-1,0
1523626977775,-65536,114,-56,-1,-1,0
1523626977775,-196608,114,-56,-1,-1,0
1523626977775,-262144,114,-56,-1,-1,0
1523626977775,-262144,114,-56,-1,-1,0
1523626977775,-196608,114,-56,-1,-1,0
1523626977815,-327680,114,-56,-1,-1,0
1523626977815,-393216,114,-56,-1,-1,0
1523626977815,-327680,114,-56,-1,-1,0
1523626977815,-393216,114,-56,-1,-1,0
1523626977815,-589824,114,-56,-1,-1,0
1523626977855,-786432,114,-56,-1,-1,0
1523626977855,-786432,114,-56,-1,-1,0
1523626977855,-720896,114,-56,-1,-1,0
1523626977855,-720896,114,-56,-1,-1,0
1523626977855,-786432,114,-56,-1,-1,0
1523626977895,-851968,114,-56,-1,-1,0
1523626977895,-851968,114,-56,-1,-1,0
1523626977895,-917504,114,-56,-1,-1,0
1523626977895,-917504,114,-56,-1,-1,0
1523626977895,-1179648,114,-56,-1,-1,0
1523626977935,-1310720,114,-56,-1,-1,0
1523626977935,-458752,114,-56,-1,-1,0
1523626977935,1769472,114,-56,-1,-1,0
1523626977935,4128768,114,-56,-1,-1,0
1523626977935,3407872,114,-56,-1,-1,0
1523626977975,327680,114,-56,-1,-1,0
1523626977975,-1900544,114,-56,-1,-1,0
1523626977975,-1900544,114,-56,-1,-1,0
1523626977975,-1376256,114,-56,-1,-1,0
1523626977975,-1048576,114,-56,-1,-1,0
1523626978015,-1048576,114,-56,-1,-1,0
1523626978015,-1114112,114,-56,-1,-1,0
1523626978015,-983040,114,-56,-1,-1,0
1523626978015,-983040,114,-56,-1,-1,0
1523626978015,-1048576,114,-56,-1,-1,0
1523626978055,-1114112,114,-56,-1,-1,0
1523626978055,-983040,114,-56,-1,-1,0
1523626978055,-983040,114,-56,-1,-1,0
1523626978055,-983040,114,-56,-1,-1,0
1523626978055,-917504,114,-56,-1,-1,0
1523626978095,-851968,114,-56,-1,-1,0
1523626978095,-720896,114,-56,-1,-1,0
1523626978095,-524288,114,-56,-1,-1,0
1523626978095,-327680,114,-56,-1,-1,0
1523626978095,-262144,114,-56,-1,-1,0
1523626978135,0,114,-56,-1,-1,0
1523626978135,196608,114,-56,-1,-1,0
1523626978135,458752,114,-56,-1,-1,0
1523626978135,458752,114,-56,-1,-1,0
1523626978135,327680,114,-56,-1,-1,0
1523626978175,131072,114,-56,-1,-1,0
1523626978175,-131072,114,-56,-1,-1,0
1523626978175,-458752,114,-56,-1,-1,0
1523626978175,-589824,114,-56,-1,-1,0
1523626978175,-720896,114,-56,-1,-1,0
1523626978215,-851968,114,-56,-1,-1,0
1523626978215,-917504,114,-56,-1,-1,0
1523626978215,-851968,114,-56,-1,-1,0
1523626978215,-917504,114,-56,-1,-1,0
1523626978215,-1048576,114,-56,-1,-1,0
1523626978255,-1048576,114,-56,-1,-1,0
1523626978255,-851968,114,-56,-1,-1,0
1523626978255,-786432,114,-56,-1,-1,0
1523626978255,-917504,114,-56,-1,-1,0
1523626978255,-1048576,114,-56,-1,-1,0
1523626978296,-983040,114,-56,-1,-1,0
1523626978296,-851968,114,-56,-1,-1,0
1523626978296,-786432,114,-56,-1,-1,0
1523626978296,-720896,114,-56,-1,-1,0
1523626978296,-786432,114,-56,-1,-1,0
1523626978335,-851968,114,-56,-1,-1,0
1523626978335,-851968,114,-56,-1,-1,0
1523626978335,-851968,114,-56,-1,-1,0
1523626978335,-983040,114,-56,-1,-1,0
1523626978335,-1048576,114,-56,-1,-1,0
1523626978375,-1048576,114,-56,-1,-1,0
1523626978375,-851968,114,-56,-1,-1,0
1523626978375,-786432,114,-56,-1,-1,0
1523626978375,-851968,114,-56,-1,-1,0
1523626978375,-983040,114,-56,-1,-1,0
1523626978415,-1114112,114,-56,-1,-1,0
1523626978415,-1245184,114,-56,-1,-1,0
1523626978415,-1245184,114,-56,-1,-1,0
1523626978415,-1114112,114,-56,-1,-1,0
1523626978415,-1114112,114,-56,-1,-1,0
1523626978455,-1572864,114,-56,-1,-1,0
1523626978455,-1835008,114,-56,-1,-1,0
1523626978455,-917504,114,-56,-1,-1,0
1523626978455,1572864,114,-56,-1,-1,0
1523626978455,3866624,114,-56,-1,-1,0
1523626978495,2949120,114,-56,-1,-1,0
1523626978495,0,114,-56,-1,-1,0
1523626978495,-1900544,114,-56,-1,-1,0
1523626978495,-2031616,114,-56,-1,-1,0
1523626978495,-1835008,114,-56,-1,-1,0
1523626978535,-1638400,114,-56,-1,-1,0
1523626978535,-1572864,114,-56,-1,-1,0
1523626978535,-1507328,114,-56,-1,-1,0
1523626978535,-1507328,114,-56,-1,-1,0
1523626978535,-1507328,114,-56,-1,-1,0
1523626978575,-1441792,114,-56,-1,-1,0
1523626978575,-1441792,114,-56,-1,-1,0
1523626978575,-1376256,114,-56,-1,-1,0
1523626978575,-1376256,114,-56,-1,-1,0
1523626978575,-1310720,114,-56,-1,-1,0
1523626978615,-1179648,114,-56,-1,-1,0
1523626978615,-983040,114,-56,-1,-1,0
1523626978615,-851968,114,-56,-1,-1,0
1523626978615,-655360,114,-56,-1,-1,0
1523626978615,-458752,114,-56,-1,-1,0
1523626978655,-196608,114,-56,-1,-1,0
1523626978655,65536,114,-56,-1,-1,0
1523626978655,393216,114,-56,-1,-1,0
1523626978655,524288,114,-56,-1,-1,0
1523626978655,589824,114,-56,-1,-1,0
1523626978695,655360,114,-56,-1,-1,0
1523626978695,655360,114,-56,-1,-1,0
1523626978695,393216,114,-56,-1,-1,0
1523626978695,65536,114,-56,-1,-1,0
1523626978695,-196608,114,-56,-1,-1,0
1523626978735,-393216,114,-56,-1,-1,0
1523626978735,-458752,114,-56,-1,-1,0
1523626978735,-458752,114,-56,-1,-1,0
1523626978735,-196608,114,-56,-1,-1,0
1523626978735,-65536,114,-56,-1,-1,0
1523626978775,-65536,114,-56,-1,-1,0
1523626978775,-131072,114,-56,-1,-1,0
1523626978775,-131072,114,-56,-1,-1,0
1523626978775,0,114,-56,-1,-1,0
1523626978775,131072,114,-56,-1,-1,0
1523626978815,65536,114,-56,-1,-1,0
1523626978815,65536,114,-56,-1,-1,0
1523626978815,262144,114,-56,-1,-1,0
1523626978815,393216,114,-56,-1,-1,0
1523626978815,524288,114,-56,-1,-1,0
1523626978855,655360,114,-56,-1,-1,0
1523626978855,720896,114,-56,-1,-1,0
1523626978855,524288,114,-56,-1,-1,0
1523626978855,458752,114,-56,-1,-1,0
1523626978855,589824,114,-56,-1,-1,0
1523626978895,720896,114,-56,-1,-1,0
1523626978895,851968,114,-56,-1,-1,0
1523626978895,851968,114,-56,-1,-1,0
1523626978895,786432,114,-56,-1,-1,0
1523626978895,655360,114,-56,-1,-1,0
1523626978936,655360,114,-56,-1,-1,0
1523626978936,851968,114,-56,-1,-1,0
1523626978936,1048576,114,-56,-1,-1,0
1523626978936,983040,114,-56,-1,-1,0
1523626978936,786432,114,-56,-1,-1,0
1523626978976,262144,114,-56,-1,-1,0
1523626978976,0,114,-56,-1,-1,0
1523626978976,720896,114,-56,-1,-1,0
1523626978976,3080192,114,-56,-1,-1,0
1523626978976,5570560,114,-56,-1,-1,0
1523626979015,5439488,114,-56,-1,-1,0
1523626979015,3080192,114,-56,-1,-1,0
1523626979015,917504,114,-56,-1,-1,0
1523626979015,458752,114,-56,-1,-1,0
1523626979015,655360,114,-56,-1,-1,0
1523626979055,786432,114,-56,-1,-1,0
1523626979055,917504,114,-56,-1,-1,0
1523626979055,983040,114,-56,-1,-1,0
1523626979055,983040,114,-56,-1,-1,0
1523626979055,983040,114,-56,-1,-1,0
1523626979095,983040,114,-56,-1,-1,0
1523626979095,917504,114,-56,-1,-1,0
1523626979095,983040,114,-56,-1,-1,0
1523626979095,1114112,114,-56,-1,-1,0
1523626979095,1179648,114,-56,-1,-1,0
1523626979135,1179648,114,-56,-1,-1,0
1523626979135,1114112,114,-56,-1,-1,0
1523626979135,1179648,114,-56,-1,-1,0
1523626979135,1376256,114,-56,-1,-1,0
1523626979135,1507328,114,-56,-1,-1,0
1523626979175,1703936,114,-56,-1,-1,0
1523626979175,1966080,114,-56,-1,-1,0
1523626979175,2097152,114,-56,-1,-1,0
1523626979175,2031616,114,-56,-1,-1,0
1523626979175,2031616,114,-56,-1,-1,0
1523626979215,2031616,114,-56,-1,-1,0
1523626979215,1900544,114,-56,-1,-1,0
1523626979215,1638400,114,-56,-1,-1,0
1523626979215,1376256,114,-56,-1,-1,0
1523626979215,1114112,114,-56,-1,-1,0
1523626979255,851968,114,-56,-1,-1,0
1523626979255,655360,114,-56,-1,-1,0
1523626979255,589824,114,-56,-1,-1,0
1523626979255,524288,114,-56,-1,-1,0
1523626979255,393216,114,-56,-1,-1,0
1523626979294,262144,114,-56,-1,-1,0
1523626979294,65536,114,-56,-1,-1,0
1523626979294,0,114,-56,-1,-1,0
1523626979294,0,114,-56,-1,-1,0
1523626979294,65536,114,-56,-1,-1,0
1523626979335,0,114,-56,-1,-1,0
1523626979335,-131072,114,-56,-1,-1,0
1523626979335,-196608,114,-56,-1,-1,0
1523626979335,-196608,114,-56,-1,-1,0
1523626979335,-196608,114,-56,-1,-1,0
1523626979374,-327680,114,-56,-1,-1,0
1523626979374,-393216,114,-56,-1,-1,0
1523626979374,-458752,114,-56,-1,-1,0
1523626979374,-327680,114,-56,-1,-1,0
1523626979374,-327680,114,-56,-1,-1,0
1523626979414,-458752,114,-56,-1,-1,0
1523626979414,-589824,114,-56,-1,-1,0
1523626979414,-589824,114,-56,-1,-1,0
1523626979414,-655360,114,-56,-1,-1,0
1523626979414,-720896,114,-56,-1,-1,0
1523626979454,-786432,114,-56,-1,-1,0
1523626979454,-851968,114,-56,-1,-1,0
1523626979454,-851968,114,-56,-1,-1,0
1523626979454,-851968,114,-56,-1,-1,0
1523626979454,-851968,114,-56,-1,-1,0
1523626979494,-1114112,114,-56,-1,-1,0
1523626979494,-1507328,114,-56,-1,-1,0
1523626979494,-1376256,114,-56,-1,-1,0
1523626979494,65536,114,-56,-1,-1,0
1523626979494,2162688,114,-56,-1,-1,0
1523626979534,2555904,114,-56,-1,-1,0
1523626979534,720896,114,-56,-1,-1,0
1523626979534,-1310720,114,-56,-1,-1,0
1523626979534,-1900544,114,-56,-1,-1,0
1523626979534,-1769472,114,-56,-1,-1,0
1523626979576,-1507328,114,-56,-1,-1,0
1523626979576,-1441792,114,-56,-1,-1,0
1523626979576,-1441792,114,-56,-1,-1,0
1523626979576,-1376256,114,-56,-1,-1,0
1523626979576,-1376256,114,-56,-1,-1,0
1523626979614,-1376256,114,-56,-1,-1,0
1523626979614,-1441792,114,-56,-1,-1,0
1523626979614,-1441792,114,-56,-1,-1,0
1523626979614,-1376256,114,-56,-1,-1,0
1523626979614,-1310720,114,-56,-1,-1,0
1523626979654,-1245184,114,-56,-1,-1,0
1523626979654,-1179648,114,-56,-1,-1,0
1523626979654,-1114112,114,-56,-1,-1,0
1523626979654,-1048576,114,-56,-1,-1,0
1523626979654,-917504,114,-56,-1,-1,0
1523626979694,-655360,114,-56,-1,-1,0
1523626979694,-393216,114,-56,-1,-1,0
1523626979694,-131072,114,-56,-1,-1,0
1523626979694,0,114,-56,-1,-1,0
1523626979694,131072,114,-56,-1,-1,0
1523626979735,196608,114,-56,-1,-1,0
1523626979735,131072,114,-56,-1,-1,0
1523626979735,0,114,-56,-1,-1,0
1523626979735,-327680,114,-56,-1,-1,0
1523626979735,-589824,114,-56,-1,-1,0
1523626979774,-720896,114,-56,-1,-1,0
1523626979774,-851968,114,-56,-1,-1,0
1523626979774,-917504,114,-56,-1,-1,0
1523626979774,-1048576,114,-56,-1,-1,0
1523626979774,-1048576,114,-56,-1,-1,0
1523626979814,-1048576,114,-56,-1,-1,0
1523626979814,-1048576,114,-56,-1,-1,0
1523626979814,-1048576,114,-56,-1,-1,0
1523626979814,-983040,114,-56,-1,-1,0
1523626979814,-983040,114,-56,-1,-1,0
1523626979854,-851968,114,-56,-1,-1,0
1523626979854,-851968,114,-56,-1,-1,0
1523626979854,-983040,114,-56,-1,-1,0
1523626979854,-1048576,114,-56,-1,-1,0
1523626979854,-917504,114,-56,-1,-1,0
1523626979894,-917504,114,-56,-1,-1,0
1523626979894,-983040,114,-56,-1,-1,0
1523626979894,-983040,114,-56,-1,-1,0
1523626979894,-851968,114,-56,-1,-1,0
1523626979894,-851968,114,-56,-1,-1,0
1523626979934,-983040,114,-56,-1,-1,0
1523626979934,-983040,114,-56,-1,-1,0
1523626979934,-917504,114,-56,-1,-1,0
1523626979934,-917504,114,-56,-1,-1,0
1523626979934,-917504,114,-56,-1,-1,0
1523626979974,-1048576,114,-56,-1,-1,0
1523626979974,-983040,114,-56,-1,-1,0
1523626979974,-917504,114,-56,-1,-1,0
1523626979974,-786432,114,-56,-1,-1,0
1523626979974,-917504,114,-56,-1,-1,0
1523626980014,-1245184,114,-56,-1,-1,0
1523626980014,-1376256,114,-56,-1,-1,0
1523626980014,-589824,114,-56,-1,-1,0
1523626980014,1441792,114,-56,-1,-1,0
1523626980014,3342336,114,-56,-1,-1,0
1523626980054,2686976,114,-56,-1,-1,0
1523626980054,65536,114,-56,-1,-1,0
1523626980054,-1703936,114,-56,-1,-1,0
1523626980054,-1769472,114,-56,-1,-1,0
1523626980054,-1376256,114,-56,-1,-1,0
1523626980094,-1114112,114,-56,-1,-1,0
1523626980094,-983040,114,-56,-1,-1,0
1523626980094,-917504,114,-56,-1,-1,0
1523626980094,-786432,114,-56,-1,-1,0
1523626980094,-720896,114,-56,-1,-1,0
1523626980134,-720896,114,-56,-1,-1,0
1523626980134,-851968,114,-56,-1,-1,0
1523626980134,-786432,114,-56,-1,-1,0
1523626980134,-655360,114,-56,-1,-1,0
1523626980134,-589824,114,-56,-1,-1,0
1523626980174,-589824,114,-56,-1,-1,0
1523626980174,-393216,114,-56,-1,-1,0
1523626980174,-196608,114,-56,-1,-1,0
1523626980174,0,114,-56,-1,-1,0
1523626980174,131072,114,-56,-1,-1,0
1523626980216,262144,114,-56,-1,-1,0
1523626980216,458752,114,-56,-1,-1,0
1523626980216,655360,114,-56,-1,-1,0
1523626980216,851968,114,-56,-1,-1,0
1523626980216,917504,114,-56,-1,-1,0
1523626980254,851968,114,-56,-1,-1,0
1523626980254,720896,114,-56,-1,-1,0
1523626980254,589824,114,-56,-1,-1,0
1523626980254,327680,114,-56,-1,-1,0
1523626980254,131072,114,-56,-1,-1,0
1523626980294,-65536,114,-56,-1,-1,0
1523626980294,-196608,114,-56,-1,-1,0
1523626980294,-262144,114,-56,-1,-1,0
1523626980294,-327680,114,-56,-1,-1,0
1523626980294,-393216,114,-56,-1,-1,0
1523626980334,-393216,114,-56,-1,-1,0
1523626980334,-458752,114,-56,-1,-1,0
1523626980334,-458752,114,-56,-1,-1,0
1523626980334,-458752,114,-56,-1,-1,0
1523626980334,-393216,114,-56,-1,-1,0
1523626980374,-327680,114,-56,-1,-1,0
1523626980374,-262144,114,-56,-1,-1,0
1523626980374,-196608,114,-56,-1,-1,0
1523626980374,-196608,114,-56,-1,-1,0
1523626980374,-196608,114,-56,-1,-1,0
1523626980414,-196608,114,-56,-1,-1,0
1523626980414,-262144,114,-56,-1,-1,0
1523626980414,-262144,114,-56,-1,-1,0
1523626980414,-262144,114,-56,-1,-1,0
1523626980414,-327680,114,-56,-1,-1,0
1523626980455,-327680,114,-56,-1,-1,0
1523626980455,-262144,114,-56,-1,-1,0
1523626980455,-327680,114,-56,-1,-1,0
1523626980455,-393216,114,-56,-1,-1,0
1523626980455,-327680,114,-56,-1,-1,0
1523626980494,-262144,114,-56,-1,-1,0
1523626980494,-196608,114,-56,-1,-1,0
1523626980494,-196608,114,-56,-1,-1,0
1523626980494,-262144,114,-56,-1,-1,0
1523626980494,-393216,114,-56,-1,-1,0
1523626980534,-720896,114,-56,-1,-1,0
1523626980534,-655360,114,-56,-1,-1,0
1523626980534,655360,114,-56,-1,-1,0
1523626980534,3276800,114,-56,-1,-1,0
1523626980534,4653056,114,-56,-1,-1,0
1523626980574,2883584,114,-56,-1,-1,0
1523626980574,65536,114,-56,-1,-1,0
1523626980574,-1048576,114,-56,-1,-1,0
1523626980574,-851968,114,-56,-1,-1,0
1523626980574,-524288,114,-56,-1,-1,0
1523626980614,-393216,114,-56,-1,-1,0
1523626980614,-262144,114,-56,-1,-1,0
1523626980614,-196608,114,-56,-1,-1,0
1523626980614,-131072,114,-56,-1,-1,0
1523626980614,-131072,114,-56,-1,-1,0
1523626980654,-196608,114,-56,-1,-1,0
1523626980654,-196608,114,-56,-1,-1,0
1523626980654,-65536,114,-56,-1,-1,0
1523626980654,-65536,114,-56,-1,-1,0
1523626980654,-65536,114,-56,-1,-1,0
1523626980694,-65536,114,-56,-1,-1,0
1523626980694,0,114,-56,-1,-1,0
1523626980694,65536,114,-56,-1,-1,0
1523626980694,262144,114,-56,-1,-1,0
1523626980694,458752,114,-56,-1,-1,0
1523626980734,786432,114,-56,-1,-1,0
1523626980734,983040,114,-56,-1,-1,0
1523626980734,1048576,114,-56,-1,-1,0
1523626980734,1114112,114,-56,-1,-1,0
1523626980734,1179648,114,-56,-1,-1,0
1523626980774,1245184,114,-56,-1,-1,0
1523626980774,1114112,114,-56,-1,-1,0
1523626980774,589824,114,-56,-1,-1,0
1523626980774,65536,114,-56,-1,-1,0
1523626980774,-131072,114,-56,-1,-1,0
1523626980814,-262144,114,-56,-1,-1,0
1523626980814,-393216,114,-56,-1,-1,0
1523626980814,-393216,114,-56,-1,-1,0
1523626980814,-327680,114,-56,-1,-1,0
1523626980814,-458752,114,-56,-1,-1,0
1523626980856,-589824,114,-56,-1,-1,0
1523626980856,-589824,114,-56,-1,-1,0
1523626980856,-589824,114,-56,-1,-1,0
1523626980856,-524288,114,-56,-1,-1,0
1523626980856,-393216,114,-56,-1,-1,0
1523626980894,-262144,114,-56,-1,-1,0
1523626980894,-196608,114,-56,-1,-1,0
1523626980894,-131072,114,-56,-1,-1,0
1523626980894,-65536,114,-56,-1,-1,0
1523626980894,-65536,114,-56,-1,-1,0
1523626980934,-131072,114,-56,-1,-1,0
1523626980934,-327680,114,-56,-1,-1,0
1523626980934,-393216,114,-56,-1,-1,0
1523626980934,-327680,114,-56,-1,-1,0
1523626980934,-327680,114,-56,-1,-1,0
1523626980974,-458752,114,-56,-1,-1,0
1523626980974,-524288,114,-56,-1,-1,0
1523626980974,-458752,114,-56,-1,-1,0
1523626980974,-458752,114,-56,-1,-1,0
1523626980974,-458752,114,-56,-1,-1,0
1523626981014,-458752,114,-56,-1,-1,0
1523626981014,-327680,114,-56,-1,-1,0
1523626981014,-196608,114,-56,-1,-1,0
1523626981014,-262144,114,-56,-1,-1,0
1523626981014,-655360,114,-56,-1,-1,0
1523626981054,-1245184,114,-56,-1,-1,0
1523626981054,-1310720,114,-56,-1,-1,0
1523626981054,-131072,114,-56,-1,-1,0
1523626981054,2621440,114,-56,-1,-1,0
1523626981054,4915200,114,-56,-1,-1,0
1523626981094,3670016,114,-56,-1,-1,0
1523626981094,589824,114,-56,-1,-1,0
1523626981094,-1114112,114,-56,-1,-1,0
1523626981094,-1048576,114,-56,-1,-1,0
1523626981094,-655360,114,-56,-1,-1,0
1523626981134,-393216,114,-56,-1,-1,0
1523626981134,-262144,114,-56,-1,-1,0
1523626981134,-196608,114,-56,-1,-1,0
1523626981134,-196608,114,-56,-1,-1,0
1523626981134,-262144,114,-56,-1,-1,0
1523626981174,-65536,114,-56,-1,-1,0
1523626981174,0,114,-56,-1,-1,0
1523626981174,0,114,-56,-1,-1,0
1523626981174,0,114,-56,-1,-1,0
1523626981174,0,114,-56,-1,-1,0
1523626981215,0,114,-56,-1,-1,0
1523626981215,0,114,-56,-1,-1,0
1523626981215,131072,114,-56,-1,-1,0
1523626981215,327680,114,-56,-1,-1,0
1523626981215,458752,114,-56,-1,-1,0
1523626981254,524288,114,-56,-1,-1,0
1523626981254,720896,114,-56,-1,-1,0
1523626981254,917504,114,-56,-1,-1,0
1523626981254,1048576,114,-56,-1,-1,0
1523626981254,1114112,114,-56,-1,-1,0
1523626981294,1048576,114,-56,-1,-1,0
1523626981294,917504,114,-56,-1,-1,0
1523626981294,720896,114,-56,-1,-1,0
1523626981294,393216,114,-56,-1,-1,0
1523626981294,196608,114,-56,-1,-1,0
1523626981334,0,114,-56,-1,-1,0
1523626981334,0,114,-56,-1,-1,0
1523626981334,-262144,114,-56,-1,-1,0
1523626981334,-393216,114,-56,-1,-1,0
1523626981334,-327680,114,-56,-1,-1,0
1523626981374,-196608,114,-56,-1,-1,0
1523626981374,-65536,114,-56,-1,-1,0
1523626981374,131072,114,-56,-1,-1,0
1523626981374,196608,114,-56,-1,-1,0
1523626981374,65536,114,-56,-1,-1,0
1523626981414,0,114,-56,-1,-1,0
1523626981414,0,114,-56,-1,-1,0
1523626981414,131072,114,-56,-1,-1,0
1523626981414,131072,114,-56,-1,-1,0
1523626981414,131072,114,-56,-1,-1,0
1523626981454,131072,114,-56,-1,-1,0
1523626981454,131072,114,-56,-1,-1,0
1523626981454,196608,114,-56,-1,-1,0
1523626981454,262144,114,-56,-1,-1,0
1523626981454,327680,114,-56,-1,-1,0
1523626981496,327680,114,-56,-1,-1,0
1523626981496,327680,114,-56,-1,-1,0
1523626981496,327680,114,-56,-1,-1,0
1523626981496,327680,114,-56,-1,-1,0
1523626981496,262144,114,-56,-1,-1,0
1523626981534,327680,114,-56,-1,-1,0
1523626981534,393216,114,-56,-1,-1,0
1523626981534,393216,114,-56,-1,-1,0
1523626981534,262144,114,-56,-1,-1,0
1523626981534,131072,114,-56,-1,-1,0
1523626981574,-131072,114,-56,-1,-1,0
1523626981574,0,114,-56,-1,-1,0
1523626981574,1114112,114,-56,-1,-1,0
1523626981574,3407872,114,-56,-1,-1,0
1523626981574,4587520,114,-56,-1,-1,0
1523626981614,3211264,114,-56,-1,-1,0
1523626981614,720896,114,-56,-1,-1,0
1523626981614,-327680,114,-56,-1,-1,0
1523626981614,-327680,114,-56,-1,-1,0
1523626981614,0,114,-56,-1,-1,0
1523626981654,131072,114,-56,-1,-1,0
1523626981654,262144,114,-56,-1,-1,0
1523626981654,327680,114,-56,-1,-1,0
1523626981654,327680,114,-56,-1,-1,0
1523626981654,327680,114,-56,-1,-1,0
1523626981694,327680,114,-56,-1,-1,0
1523626981694,327680,114,-56,-1,-1,0
1523626981694,458752,114,-56,-1,-1,0
1523626981694,458752,114,-56,-1,-1,0
1523626981694,458752,114,-56,-1,-1,0
1523626981734,458752,114,-56,-1,-1,0
1523626981734,524288,114,-56,-1,-1,0
1523626981734,720896,114,-56,-1,-1,0
1523626981734,851968,114,-56,-1,-1,0
1523626981734,983040,114,-56,-1,-1,0
1523626981774,1179648,114,-56,-1,-1,0
1523626981774,1376256,114,-56,-1,-1,0
1523626981774,1441792,114,-56,-1,-1,0
1523626981774,1507328,114,-56,-1,-1,0
1523626981774,1572864,114,-56,-1,-1,0
1523626981814,1441792,114,-56,-1,-1,0
1523626981814,1179648,114,-56,-1,-1,0
1523626981814,917504,114,-56,-1,-1,0
1523626981814,655360,114,-56,-1,-1,0
1523626981814,393216,114,-56,-1,-1,0
1523626981854,196608,114,-56,-1,-1,0
1523626981854,65536,114,-56,-1,-1,0
1523626981854,0,114,-56,-1,-1,0
1523626981854,-131072,114,-56,-1,-1,0
1523626981854,-131072,114,-56,-1,-1,0
1523626981894,-65536,114,-56,-1,-1,0
1523626981894,-65536,114,-56,-1,-1,0
1523626981894,0,114,-56,-1,-1,0
1523626981894,-65536,114,-56,-1,-1,0
1523626981894,-131072,114,-56,-1,-1,0
1523626981934,-196608,114,-56,-1,-1,0
1523626981934,-196608,114,-56,-1,-1,0
1523626981934,-131072,114,-56,-1,-1,0
1523626981934,-131072,114,-56,-1,-1,0
1523626981934,-196608,114,-56,-1,-1,0
1523626981974,-262144,114,-56,-1,-1,0
1523626981974,-327680,114,-56,-1,-1,0
1523626981974,-393216,114,-56,-1,-1,0
1523626981974,-524288,114,-56,-1,-1,0
1523626981974,-524288,114,-56,-1,-1,0
1523626982014,-524288,114,-56,-1,-1,0
1523626982014,-655360,114,-56,-1,-1,0
1523626982014,-655360,114,-56,-1,-1,0
1523626982014,-589824,114,-56,-1,-1,0
1523626982014,-524288,114,-56,-1,-1,0
1523626982054,-524288,114,-56,-1,-1,0
1523626982054,-589824,114,-56,-1,-1,0
1523626982054,-655360,114,-56,-1,-1,0
1523626982054,-786432,114,-56,-1,-1,0
1523626982054,-1179648,114,-56,-1,-1,0
1523626982094,-1245184,114,-56,-1,-1,0
1523626982094,-262144,114,-56,-1,-1,0
1523626982094,2031616,114,-56,-1,-1,0
1523626982094,3932160,114,-56,-1,-1,0
1523626982094,2752512,114,-56,-1,-1,0
1523626982136,-262144,114,-56,-1,-1,0
1523626982136,-1900544,114,-56,-1,-1,0
1523626982136,-1769472,114,-56,-1,-1,0
1523626982136,-1310720,114,-56,-1,-1,0
1523626982136,-1048576,114,-56,-1,-1,0
1523626982174,-917504,114,-56,-1,-1,0
1523626982174,-983040,114,-56,-1,-1,0
1523626982174,-1048576,114,-56,-1,-1,0
1523626982174,-1048576,114,-56,-1,-1,0
1523626982174,-983040,114,-56,-1,-1,0
1523626982214,-983040,114,-56,-1,-1,0
1523626982214,-983040,114,-56,-1,-1,0
1523626982214,-917504,114,-56,-1,-1,0
1523626982214,-851968,114,-56,-1,-1,0
1523626982214,-851968,114,-56,-1,-1,0
1523626982254,-720896,114,-56,-1,-1,0
1523626982254,-524288,114,-56,-1,-1,0
1523626982254,-262144,114,-56,-1,-1,0
1523626982254,0,114,-56,-1,-1,0
1523626982254,196608,114,-56,-1,-1,0
1523626982294,393216,114,-56,-1,-1,0
1523626982294,655360,114,-56,-1,-1,0
1523626982294,720896,114,-56,-1,-1,0
1523626982294,720896,114,-56,-1,-1,0
1523626982294,655360,114,-56,-1,-1,0
1523626982334,458752,114,-56,-1,-1,0
1523626982334,131072,114,-56,-1,-1,0
1523626982334,-65536,114,-56,-1,-1,0
1523626982334,-262144,114,-56,-1,-1,0
1523626982334,-393216,114,-56,-1,-1,0
1523626982374,-524288,114,-56,-1,-1,0
1523626982374,-655360,114,-56,-1,-1,0
1523626982374,-786432,114,-56,-1,-1,0
1523626982374,-786432,114,-56,-1,-1,0
1523626982374,-720896,114,-56,-1,-1,0
1523626982414,-655360,114,-56,-1,-1,0
1523626982414,-589824,114,-56,-1,-1,0
1523626982414,-589824,114,-56,-1,-1,0
1523626982414,-524288,114,-56,-1,-1,0
1523626982414,-458752,114,-56,-1,-1,0
1523626982454,-458752,114,-56,-1,-1,0
1523626982454,-458752,114,-56,-1,-1,0
1523626982454,-458752,114,-56,-1,-1,0
1523626982454,-327680,114,-56,-1,-1,0
1523626982454,-327680,114,-56,-1,-1,0
1523626982494,-327680,114,-56,-1,-1,0
1523626982494,-393216,114,-56,-1,-1,0
1523626982494,-524288,114,-56,-1,-1,0
1523626982494,-589824,114,-56,-1,-1,0
1523626982494,-655360,114,-56,-1,-1,0
1523626982534,-655360,114,-56,-1,-1,0
1523626982534,-655360,114,-56,-1,-1,0
1523626982534,-655360,114,-56,-1,-1,0
1523626982534,-655360,114,-56,-1,-1,0
1523626982534,-720896,114,-56,-1,-1,0
1523626982574,-786432,114,-56,-1,-1,0
1523626982574,-786432,114,-56,-1,-1,0
1523626982574,-851968,114,-56,-1,-1,0
1523626982574,-1310720,114,-56,-1,-1,0
1523626982574,-1441792,114,-56,-1,-1,0
1523626982614,-196608,114,-56,-1,-1,0
1523626982614,2752512,114,-56,-1,-1,0
1523626982614,5111808,114,-56,-1,-1,0
1523626982614,3735552,114,-56,-1,-1,0
1523626982614,458752,114,-56,-1,-1,0
1523626982654,-1376256,114,-56,-1,-1,0
1523626982654,-1376256,114,-56,-1,-1,0
1523626982654,-1048576,114,-56,-1,-1,0
1523626982654,-786432,114,-56,-1,-1,0
1523626982654,-720896,114,-56,-1,-1,0
1523626982694,-655360,114,-56,-1,-1,0
1523626982694,-589824,114,-56,-1,-1,0
1523626982694,-589824,114,-56,-1,-1,0
1523626982694,-524288,114,-56,-1,-1,0
1523626982694,-524288,114,-56,-1,-1,0
1523626982734,-458752,114,-56,-1,-1,0
1523626982734,-393216,114,-56,-1,-1,0
1523626982734,-327680,114,-56,-1,-1,0
1523626982734,-262144,114,-56,-1,-1,0
1523626982734,-131072,114,-56,-1,-1,0
1523626982776,0,114,-56,-1,-1,0
1523626982776,131072,114,-56,-1,-1,0
1523626982776,327680,114,-56,-1,-1,0
1523626982776,458752,114,-56,-1,-1,0
1523626982776,655360,114,-56,-1,-1,0
1523626982814,917504,114,-56,-1,-1,0
1523626982814,1114112,114,-56,-1,-1,0
1523626982814,1048576,114,-56,-1,-1,0
1523626982814,851968,114,-56,-1,-1,0
1523626982814,655360,114,-56,-1,-1,0
1523626982854,393216,114,-56,-1,-1,0
1523626982854,131072,114,-56,-1,-1,0
1523626982854,-65536,114,-56,-1,-1,0
1523626982854,-327680,114,-56,-1,-1,0
1523626982854,-524288,114,-56,-1,-1,0
1523626982894,-655360,114,-56,-1,-1,0
1523626982894,-720896,114,-56,-1,-1,0
1523626982894,-786432,114,-56,-1,-1,0
1523626982894,-786432,114,-56,-1,-1,0
1523626982894,-720896,114,-56,-1,-1,0
1523626982934,-786432,115,-56,-1,-1,0
1523626982934,-720896,115,-56,-1,-1,0
1523626982934,-720896,115,-56,-1,-1,0
1523626982934,-655360,115,-56,-1,-1,0
1523626982934,-720896,115,-56,-1,-1,0
1523626982974,-655360,115,-56,-1,-1,0
1523626982974,-589824,115,-56,-1,-1,0
1523626982974,-589824,115,-56,-1,-1,0
1523626982974,-720896,115,-56,-1,-1,0
1523626982974,-786432,115,-56,-1,-1,0
1523626983014,-589824,115,-56,-1,-1,0
1523626983014,-458752,115,-56,-1,-1,0
1523626983014,-458752,115,-56,-1,-1,0
1523626983014,-327680,115,-56,-1,-1,0
1523626983014,-262144,115,-56,-1,-1,0
1523626983054,-327680,115,-56,-1,-1,0
1523626983054,-327680,115,-56,-1,-1,0
1523626983054,-196608,115,-56,-1,-1,0
1523626983054,-131072,115,-56,-1,-1,0
1523626983054,-196608,115,-56,-1,-1,0
1523626983094,-196608,115,-56,-1,-1,0
1523626983094,-65536,115,-56,-1,-1,0
1523626983094,-196608,115,-56,-1,-1,0
1523626983094,-589824,115,-56,-1,-1,0
1523626983094,-589824,115,-56,-1,-1,0
1523626983134,1048576,115,-56,-1,-1,0
1523626983134,4194304,115,-56,-1,-1,0
1523626983134,5963776,115,-56,-1,-1,0
1523626983134,3866624,115,-56,-1,-1,0
1523626983134,393216,115,-56,-1,-1,0
1523626983174,-1114112,115,-56,-1,-1,0
1523626983174,-851968,115,-56,-1,-1,0
1523626983174,-327680,115,-56,-1,-1,0
1523626983174,0,115,-56,-1,-1,0
1523626983174,65536,115,-56,-1,-1,0
1523626983214,0,115,-56,-1,-1,0
1523626983214,-131072,115,-56,-1,-1,0
1523626983214,-196608,115,-56,-1,-1,0
1523626983214,-65536,115,-56,-1,-1,0
1523626983214,0,115,-56,-1,-1,0
1523626983254,0,115,-56,-1,-1,0
1523626983254,65536,115,-56,-1,-1,0
1523626983254,65536,115,-56,-1,-1,0
1523626983254,65536,115,-56,-1,-1,0
1523626983254,262144,115,-56,-1,-1,0
1523626983296,393216,115,-56,-1,-1,0
1523626983296,655360,115,-56,-1,-1,0
1523626983296,917504,115,-56,-1,-1,0
1523626983296,1245184,115,-56,-1,-1,0
1523626983296,1507328,115,-56,-1,-1,0
1523626983334,1572864,115,-56,-1,-1,0
1523626983334,1507328,115,-56,-1,-1,0
1523626983334,1376256,115,-56,-1,-1,0
1523626983334,1179648,115,-56,-1,-1,0
1523626983334,983040,115,-56,-1,-1,0
1523626983374,589824,115,-56,-1,-1,0
1523626983374,196608,115,-56,-1,-1,0
1523626983374,0,115,-56,-1,-1,0
1523626983374,-262144,115,-56,-1,-1,0
1523626983374,-524288,115,-56,-1,-1,0
1523626983416,-720896,115,-56,-1,-1,0
1523626983416,-786432,115,-56,-1,-1,0
1523626983416,-851968,115,-56,-1,-1,0
1523626983416,-917504,115,-56,-1,-1,0
1523626983416,-983040,115,-56,-1,-1,0
1523626983454,-983040,115,-56,-1,-1,0
1523626983454,-983040,115,-56,-1,-1,0
1523626983454,-917504,115,-56,-1,-1,0
1523626983454,-917504,115,-56,-1,-1,0
1523626983454,-917504,115,-56,-1,-1,0
1523626983494,-851968,115,-56,-1,-1,0
1523626983494,-917504,115,-56,-1,-1,0
1523626983494,-917504,115,-56,-1,-1,0
1523626983494,-786432,115,-56,-1,-1,0
1523626983494,-655360,115,-56,-1,-1,0
1523626983534,-655360,115,-56,-1,-1,0
1523626983534,-786432,115,-56,-1,-1,0
1523626983534,-917504,115,-56,-1,-1,0
1523626983534,-851968,115,-56,-1,-1,0
1523626983534,-786432,115,-56,-1,-1,0
1523626983574,-786432,115,-56,-1,-1,0
1523626983574,-851968,115,-56,-1,-1,0
1523626983574,-851968,115,-56,-1,-1,0
1523626983574,-917504,115,-56,-1,-1,0
1523626983574,-917504,115,-56,-1,-1,0
1523626983614,-1048576,115,-56,-1,-1,0
1523626983614,-1114112,115,-56,-1,-1,0
1523626983614,-1179648,115,-56,-1,-1,0
1523626983614,-1507328,115,-56,-1,-1,0
1523626983614,-1245184,115,-56,-1,-1,0
1523626983654,655360,115,-56,-1,-1,0
1523626983654,3866624,115,-56,-1,-1,0
1523626983654,4980736,115,-56,-1,-1,0
1523626983654,2424832,115,-56,-1,-1,0
1523626983654,-786432,115,-56,-1,-1,0
1523626983694,-1703936,115,-56,-1,-1,0
1523626983694,-1310720,115,-56,-1,-1,0
1523626983694,-917504,115,-56,-1,-1,0
1523626983694,-720896,115,-56,-1,-1,0
1523626983694,-655360,115,-56,-1,-1,0
1523626983734,-589824,115,-56,-1,-1,0
1523626983734,-655360,115,-56,-1,-1,0
1523626983734,-589824,115,-56,-1,-1,0
1523626983734,-458752,115,-56,-1,-1,0
1523626983734,-458752,115,-56,-1,-1,0
1523626983774,-458752,115,-56,-1,-1,0
1523626983774,-327680,115,-56,-1,-1,0
1523626983774,-65536,115,-56,-1,-1,0
1523626983774,131072,115,-56,-1,-1,0
1523626983774,393216,115,-56,-1,-1,0
1523626983814,589824,115,-56,-1,-1,0
1523626983814,655360,115,-56,-1,-1,0
1523626983814,524288,115,-56,-1,-1,0
1523626983814,524288,115,-56,-1,-1,0
1523626983814,655360,115,-56,-1,-1,0
1523626983854,851968,115,-56,-1,-1,0
1523626983854,917504,115,-56,-1,-1,0
1523626983854,1048576,115,-56,-1,-1,0
1523626983854,983040,115,-56,-1,-1,0
1523626983854,786432,115,-56,-1,-1,0
1523626983894,393216,115,-56,-1,-1,0
1523626983894,131072,115,-56,-1,-1,0
1523626983894,131072,115,-56,-1,-1,0
1523626983894,262144,115,-56,-1,-1,0
1523626983894,65536,115,-56,-1,-1,0
1523626983934,-327680,115,-56,-1,-1,0
1523626983934,-524288,115,-56,-1,-1,0
1523626983934,-393216,115,-56,-1,-1,0
1523626983934,-196608,115,-56,-1,-1,0
1523626983934,0,115,-56,-1,-1,0
1523626983974,0,115,-56,-1,-1,0
1523626983974,0,115,-56,-1,-1,0
1523626983974,65536,115,-56,-1,-1,0
1523626983974,65536,115,-56,-1,-1,0
1523626983974,0,115,-56,-1,-1,0
1523626984014,0,115,-56,-1,-1,0
1523626984014,0,115,-56,-1,-1,0
1523626984014,131072,115,-56,-1,-1,0
1523626984014,327680,115,-56,-1,-1,0
1523626984014,327680,115,-56,-1,-1,0
1523626984056,327680,115,-56,-1,-1,0
1523626984056,262144,115,-56,-1,-1,0
1523626984056,327680,115,-56,-1,-1,0
1523626984056,458752,115,-56,-1,-1,0
1523626984056,458752,115,-56,-1,-1,0
1523626984094,327680,115,-56,-1,-1,0
1523626984094,393216,115,-56,-1,-1,0
1523626984094,655360,115,-56,-1,-1,0
1523626984094,655360,115,-56,-1,-1,0
1523626984094,327680,115,-56,-1,-1,0
1523626984134,327680,115,-56,-1,-1,0
1523626984134,524288,115,-56,-1,-1,0
1523626984134,524288,115,-56,-1,-1,0
1523626984134,65536,115,-56,-1,-1,0
1523626984134,-65536,115,-56,-1,-1,0
1523626984174,1179648,115,-56,-1,-1,0
1523626984174,3866624,115,-56,-1,-1,0
1523626984174,5636096,115,-56,-1,-1,0
1523626984174,4128768,115,-56,-1,-1,0
1523626984174,1179648,115,-56,-1,-1,0
1523626984214,-65536,115,-56,-1,-1,0
1523626984214,0,115,-56,-1,-1,0
1523626984214,196608,115,-56,-1,-1,0
1523626984214,262144,115,-56,-1,-1,0
1523626984214,262144,115,-56,-1,-1,0
1523626984254,262144,115,-56,-1,-1,0
1523626984254,327680,115,-56,-1,-1,0
1523626984254,393216,115,-56,-1,-1,0
1523626984254,458752,115,-56,-1,-1,0
1523626984254,524288,115,-56,-1,-1,0
1523626984294,655360,115,-56,-1,-1,0
1523626984294,655360,115,-56,-1,-1,0
1523626984294,589824,115,-56,-1,-1,0
1523626984294,458752,115,-56,-1,-1,0
1523626984294,589824,115,-56,-1,-1,0
1523626984334,720896,115,-56,-1,-1,0
1523626984334,786432,115,-56,-1,-1,0
1523626984334,917504,115,-56,-1,-1,0
1523626984334,1179648,115,-56,-1,-1,0
1523626984334,1572864,115,-56,-1,-1,0
1523626984374,1638400,115,-56,-1,-1,0
1523626984374,1572864,115,-56,-1,-1,0
1523626984374,1507328,115,-56,-1,-1,0
1523626984374,1441792,115,-56,-1,-1,0
1523626984374,1245184,115,-56,-1,-1,0
1523626984414,1048576,115,-56,-1,-1,0
1523626984414,786432,115,-56,-1,-1,0
1523626984414,524288,115,-56,-1,-1,0
1523626984414,196608,115,-56,-1,-1,0
1523626984414,65536,115,-56,-1,-1,0
1523626984455,65536,115,-56,-1,-1,0
1523626984455,0,115,-56,-1,-1,0
1523626984455,0,115,-56,-1,-1,0
1523626984455,0,115,-56,-1,-1,0
1523626984455,0,115,-56,-1,-1,0
1523626984494,-65536,115,-56,-1,-1,0
1523626984494,-131072,115,-56,-1,-1,0
1523626984494,-196608,115,-56,-1,-1,0
1523626984494,-327680,115,-56,-1,-1,0
1523626984494,-327680,115,-56,-1,-1,0
1523626984534,-262144,115,-56,-1,-1,0
1523626984534,-65536,115,-56,-1,-1,0
1523626984534,-65536,115,-56,-1,-1,0
1523626984534,-262144,115,-56,-1,-1,0
1523626984534,-262144,115,-56,-1,-1,0
1523626984574,-327680,115,-56,-1,-1,0
1523626984574,-458752,115,-56,-1,-1,0
1523626984574,-458752,115,-56,-1,-1,0
1523626984574,-458752,115,-56,-1,-1,0
1523626984574,-589824,115,-56,-1,-1,0
1523626984614,-720896,115,-56,-1,-1,0
1523626984614,-786432,115,-56,-1,-1,0
1523626984614,-786432,115,-56,-1,-1,0
1523626984614,-786432,115,-56,-1,-1,0
1523626984614,-655360,115,-56,-1,-1,0
1523626984654,-589824,115,-56,-1,-1,0
1523626984654,-589824,115,-56,-1,-1,0
1523626984654,-720896,115,-56,-1,-1,0
1523626984654,-1179648,115,-56,-1,-1,0
1523626984654,-1638400,115,-56,-1,-1,0
1523626984696,-1179648,115,-56,-1,-1,0
1523626984696,589824,115,-56,-1,-1,0
1523626984696,2883584,115,-56,-1,-1,0
1523626984696,3080192,115,-56,-1,-1,0
1523626984696,786432,115,-56,-1,-1,0
1523626984735,-1638400,115,-56,-1,-1,0
1523626984735,-2162688,115,-56,-1,-1,0
1523626984735,-1769472,115,-56,-1,-1,0
1523626984735,-1376256,115,-56,-1,-1,0
1523626984735,-1048576,115,-56,-1,-1,0
1523626984774,-983040,115,-56,-1,-1,0
1523626984774,-983040,115,-56,-1,-1,0
1523626984774,-983040,115,-56,-1,-1,0
1523626984774,-917504,115,-56,-1,-1,0
1523626984774,-851968,115,-56,-1,-1,0
1523626984814,-720896,115,-56,-1,-1,0
1523626984814,-786432,115,-56,-1,-1,0
1523626984814,-917504,115,-56,-1,-1,0
1523626984814,-851968,115,-56,-1,-1,0
1523626984814,-655360,115,-56,-1,-1,0
1523626984855,-524288,115,-56,-1,-1,0
1523626984855,-393216,115,-56,-1,-1,0
1523626984855,-131072,115,-56,-1,-1,0
1523626984855,65536,115,-56,-1,-1,0
1523626984855,458752,115,-56,-1,-1,0
1523626984894,786432,115,-56,-1,-1,0
1523626984894,851968,115,-56,-1,-1,0
1523626984894,720896,115,-56,-1,-1,0
1523626984894,720896,115,-56,-1,-1,0
1523626984894,655360,115,-56,-1,-1,0
1523626984935,393216,115,-56,-1,-1,0
1523626984935,0,115,-56,-1,-1,0
1523626984935,-262144,115,-56,-1,-1,0
1523626984935,-458752,115,-56,-1,-1,0
1523626984935,-524288,115,-56,-1,-1,0
1523626984974,-524288,115,-56,-1,-1,0
1523626984974,-655360,115,-56,-1,-1,0
1523626984974,-786432,115,-56,-1,-1,0
1523626984974,-786432,115,-56,-1,-1,0
1523626984974,-720896,115,-56,-1,-1,0
1523626985015,-720896,115,-56,-1,-1,0
1523626985015,-786432,115,-56,-1,-1,0
1523626985015,-720896,115,-56,-1,-1,0
1523626985015,-524288,115,-56,-1,-1,0
1523626985015,-458752,115,-56,-1,-1,0
1523626985054,-393216,115,-56,-1,-1,0
1523626985054,-458752,115,-56,-1,-1,0
1523626985054,-589824,115,-56,-1,-1,0
1523626985054,-589824,115,-56,-1,-1,0
1523626985054,-524288,115,-56,-1,-1,0
1523626985095,-589824,115,-56,-1,-1,0
1523626985095,-720896,115,-56,-1,-1,0
1523626985095,-720896,115,-56,-1,-1,0
1523626985095,-655360,115,-56,-1,-1,0
1523626985095,-524288,115,-56,-1,-1,0
1523626985135,-524288,115,-56,-1,-1,0
1523626985135,-589824,115,-56,-1,-1,0
1523626985135,-589824,115,-56,-1,-1,0
1523626985135,-589824,115,-56,-1,-1,0
1523626985135,-524288,115,-56,-1,-1,0
1523626985174,-524288,115,-56,-1,-1,0
1523626985174,-458752,115,-56,-1,-1,0
