milliseconds, ECG, ECG HR, PPG, PPG HR, SpO2, PI
0,-720896,104,-56,-1,-1,0
33,196608,104,-56,-1,-1,0
66,1179648,104,-56,-1,-1,0
100,-393216,104,-56,-1,-1,0
133,-1114112,104,-56,-1,-1,0
166,-851968,104,-56,-1,-1,0
200,-327680,104,-56,-1,-1,0
233,-393216,105,-56,-1,-1,0
266,-393216,105,-56,-1,-1,0
300,-524288,105,-56,-1,-1,0
333,-655360,105,-56,-1,-1,0
366,-851968,105,-56,-1,-1,0
400,1376256,105,-56,-1,-1,0
433,-262144,105,-56,-1,-1,0
466,0,105,-56,-1,-1,0
500,917504,105,-56,-1,-1,0
533,1835008,105,-56,-1,-1,0
566,327680,105,-56,-1,-1,0
600,-589824,105,-56,-1,-1,0
633,-655360,105,-56,-1,-1,0
666,-327680,105,-56,-1,-1,0
700,-327680,105,-56,-1,-1,0
733,-393216,105,-56,-1,-1,0
766,-327680,105,-56,-1,-1,0
800,-458752,105,-56,-1,-1,0
833,196608,105,-56,-1,-1,0
866,-851968,105,-56,-1,-1,0
900,0,105,-56,-1,-1,0
933,524288,105,-56,-1,-1,0
966,1572864,105,-56,-1,-1,0
1000,2228224,105,-56,-1,-1,0
1033,655360,105,-56,-1,-1,0
1066,0,105,-56,-1,-1,0
1100,0,105,-56,-1,-1,0
1133,196608,105,-56,-1,-1,0
1166,65536,106,-56,-1,-1,0
1200,0,106,-56,-1,-1,0
1233,-131072,106,-56,-1,-1,0
1266,-262144,106,-56,-1,-1,0
1300,524288,106,-56,-1,-1,0
1333,-917504,106,-56,-1,-1,0
1366,-393216,106,-56,-1,-1,0
1400,-131072,106,-56,-1,-1,0
1433,1507328,106,-56,-1,-1,0
1466,655360,106,-56,-1,-1,0
1500,-983040,106,-56,-1,-1,0
1533,-458752,106,-56,-1,-1,0
1566,-655360,106,-56,-1,-1,0
1600,-589824,106,-56,-1,-1,0
1633,-262144,107,-56,-1,-1,0
1666,-65536,107,-56,-1,-1,0
1700,-131072,107,-56,-1,-1,0
1733,-196608,107,-56,-1,-1,0
1766,917504,107,-56,-1,-1,0
1800,-1835008,107,-56,-1,-1,0
1833,65536,107,-56,-1,-1,0
1866,262144,107,-56,-1,-1,0
1900,1507328,107,-56,-1,-1,0
1933,2097152,107,-56,-1,-1,0
1966,-262144,107,-56,-1,-1,0
2000,-1114112,107,-56,-1,-1,0
2033,-1114112,107,-56,-1,-1,0
2066,-589824,107,-56,-1,-1,0
2100,-589824,107,-56,-1,-1,0
2133,-720896,107,-56,-1,-1,0
2166,-720896,107,-56,-1,-1,0
2200,-917504,107,-56,-1,-1,0
2233,-327680,107,-56,-1,-1,0
2266,-1769472,107,-56,-1,-1,0
2300,-589824,107,-56,-1,-1,0
2333,-262144,107,-56,-1,-1,0
2366,917504,107,-56,-1,-1,0
2400,1638400,107,-56,-1,-1,0
2433,-196608,107,-56,-1,-1,0
2466,-983040,107,-56,-1,-1,0
2500,-1048576,107,-56,-1,-1,0
2533,-458752,107,-56,-1,-1,0
2566,-393216,107,-56,-1,-1,0
2600,-655360,107,-56,-1,-1,0
2633,-851968,107,-56,-1,-1,0
2666,-786432,107,-56,-1,-1,0
2700,-917504,107,-56,-1,-1,0
2733,6946816,107,-56,-1,-1,0
2766,-196608,107,-56,-1,-1,0
2800,0,107,-56,-1,-1,0
2833,458752,107,-56,-1,-1,0
2866,2031616,107,-56,-1,-1,0
2900,1179648,107,-56,-1,-1,0
2933,-393216,107,-56,-1,-1,0
2966,-786432,107,-56,-1,-1,0
3000,-720896,107,-56,-1,-1,0
3033,-458752,107,-56,-1,-1,0
3066,-720896,107,-56,-1,-1,0
3100,-917504,107,-56,-1,-1,0
3133,-1114112,107,-56,-1,-1,0
3166,-1179648,107,-56,-1,-1,0
3200,-1507328,107,-56,-1,-1,0
3233,2752512,107,-56,-1,-1,0
3266,-655360,107,-56,-1,-1,0
3300,-262144,107,-56,-1,-1,0
3333,393216,107,-56,-1,-1,0
3366,1900544,107,-56,-1,-1,0
3400,393216,107,-56,-1,-1,0
3433,-851968,107,-56,-1,-1,0
3466,-983040,107,-56,-1,-1,0
3500,-917504,107,-56,-1,-1,0
3533,-720896,107,-56,-1,-1,0
3566,-786432,107,-56,-1,-1,0
3600,-851968,107,-56,-1,-1,0
3633,-1114112,107,-56,-1,-1,0
3666,-917504,107,-56,-1,-1,0
3699,-1048576,107,-56,-1,-1,0
3733,7602176,107,-56,-1,-1,0
3766,-655360,107,-56,-1,-1,0
3800,-131072,107,-56,-1,-1,0
3833,262144,107,-56,-1,-1,0
3866,1769472,107,-56,-1,-1,0
3900,983040,107,-56,-1,-1,0
3933,-393216,107,-56,-1,-1,0
3966,-655360,107,-56,-1,-1,0
4000,-655360,107,-56,-1,-1,0
4033,-524288,107,-56,-1,-1,0
4066,-196608,107,-56,-1,-1,0
4100,-458752,107,-56,-1,-1,0
4133,-655360,107,-56,-1,-1,0
4166,-524288,107,-56,-1,-1,0
4200,-524288,107,-56,-1,-1,0
4233,-393216,107,-56,-1,-1,0
4266,65536,107,-56,-1,-1,0
4300,-131072,107,-56,-1,-1,0
4333,65536,107,-56,-1,-1,0
4366,1114112,107,-56,-1,-1,0
4400,1835008,107,-56,-1,-1,0
4433,851968,107,-56,-1,-1,0
4466,-458752,107,-56,-1,-1,0
4500,-524288,107,-56,-1,-1,0
4533,-655360,107,-56,-1,-1,0
4566,-131072,107,-56,-1,-1,0
4600,65536,107,-56,-1,-1,0
4633,-458752,107,-56,-1,-1,0
4666,-131072,107,-56,-1,-1,0
4700,-524288,107,-56,-1,-1,0
4733,-458752,107,-56,-1,-1,0
4766,-393216,107,-56,-1,-1,0
4800,-720896,107,-56,-1,-1,0
4833,-655360,106,-56,-1,-1,0
4866,262144,106,-56,-1,-1,0
4900,-65536,106,-56,-1,-1,0
4933,-327680,106,-56,-1,-1,0
4966,-196608,106,-56,-1,-1,0
5000,1376256,106,-56,-1,-1,0
5033,196608,106,-56,-1,-1,0
5066,-1310720,106,-56,-1,-1,0
5100,-1507328,106,-56,-1,-1,0
5133,-1245184,106,-56,-1,-1,0
5166,-720896,106,-56,-1,-1,0
5200,-1310720,106,-56,-1,-1,0
5233,-917504,106,-56,-1,-1,0
5266,-1179648,106,-56,-1,-1,0
5300,-851968,106,-56,-1,-1,0
5333,-1572864,106,-56,-1,-1,0
5366,-1310720,106,-56,-1,-1,0
5400,-1376256,106,-56,-1,-1,0
5433,-1310720,105,-56,-1,-1,0
5466,6881280,105,-56,-1,-1,0
5500,-983040,105,-56,-1,-1,0
5533,-786432,105,-56,-1,-1,0
5566,327680,105,-56,-1,-1,0
5600,1900544,105,-56,-1,-1,0
5633,1048576,105,-56,-1,-1,0
5666,-393216,105,-56,-1,-1,0
5700,-786432,105,-56,-1,-1,0
5733,-196608,105,-56,-1,-1,0
5766,-131072,105,-56,-1,-1,0
5800,-524288,105,-56,-1,-1,0
5833,-589824,105,-56,-1,-1,0
5866,-1048576,105,-56,-1,-1,0
5900,-1179648,105,-56,-1,-1,0
5933,-1376256,105,-56,-1,-1,0
5966,-1048576,104,-56,-1,-1,0
6000,-1114112,104,-56,-1,-1,0
6033,5439488,104,-56,-1,-1,0
6066,-393216,104,-56,-1,-1,0
6100,720896,104,-56,-1,-1,0
6133,1245184,104,-56,-1,-1,0
6166,2752512,104,-56,-1,-1,0
6200,3080192,104,-56,-1,-1,0
6233,917504,104,-56,-1,-1,0
6266,0,104,-56,-1,-1,0
6300,0,104,-56,-1,-1,0
6333,-131072,104,-56,-1,-1,0
6366,0,104,-56,-1,-1,0
6400,-262144,104,-56,-1,-1,0
6433,-458752,104,-56,-1,-1,0
6466,-393216,103,-56,-1,-1,0
6500,-655360,103,-56,-1,-1,0
6533,-589824,103,-56,-1,-1,0
6566,9306112,103,-56,-1,-1,0
6600,-655360,103,-56,-1,-1,0
6633,-655360,103,-56,-1,-1,0
6666,262144,103,-56,-1,-1,0
6700,1703936,103,-56,-1,-1,0
6733,1507328,103,-56,-1,-1,0
6766,-589824,103,-56,-1,-1,0
6800,-1310720,103,-56,-1,-1,0
6833,-1245184,103,-56,-1,-1,0
6866,-1245184,103,-56,-1,-1,0
6899,-1507328,103,-56,-1,-1,0
6933,-1638400,103,-56,-1,-1,0
6966,-1835008,102,-56,-1,-1,0
7000,-1572864,102,-56,-1,-1,0
7033,-1048576,102,-56,-1,-1,0
7066,3538944,102,-56,-1,-1,0
7100,-458752,102,-56,-1,-1,0
7133,-524288,102,-56,-1,-1,0
7166,720896,102,-56,-1,-1,0
7200,1703936,102,-56,-1,-1,0
7233,2490368,102,-56,-1,-1,0
7266,0,102,-56,-1,-1,0
7300,-1245184,102,-56,-1,-1,0
7333,-1310720,102,-56,-1,-1,0
7366,-655360,102,-56,-1,-1,0
7399,-1114112,102,-56,-1,-1,0
7433,-1441792,102,-56,-1,-1,0
7466,-1507328,101,-56,-1,-1,0
7500,-1572864,101,-56,-1,-1,0
7533,-1507328,101,-56,-1,-1,0
7566,-2162688,101,-56,-1,-1,0
7600,5242880,101,-56,-1,-1,0
7633,-983040,101,-56,-1,-1,0
7666,-327680,101,-56,-1,-1,0
7700,589824,101,-56,-1,-1,0
7733,2490368,101,-56,-1,-1,0
7766,1638400,101,-56,-1,-1,0
7800,-917504,101,-56,-1,-1,0
7833,-1376256,101,-56,-1,-1,0
7866,-720896,101,-56,-1,-1,0
7899,-262144,101,-56,-1,-1,0
7933,-131072,101,-56,-1,-1,0
7966,0,100,-56,-1,-1,0
8000,131072,100,-56,-1,-1,0
8033,524288,100,-56,-1,-1,0
8066,0,100,-56,-1,-1,0
8100,5898240,100,-56,-1,-1,0
8133,-458752,100,-56,-1,-1,0
8166,-262144,100,-56,-1,-1,0
8200,262144,100,-56,-1,-1,0
8233,1769472,100,-56,-1,-1,0
8266,524288,100,-56,-1,-1,0
8300,-1769472,100,-56,-1,-1,0
8333,-2162688,100,-56,-1,-1,0
8366,-2031616,100,-56,-1,-1,0
8400,-1507328,100,-56,-1,-1,0
8433,-1572864,100,-56,-1,-1,0
8466,-1638400,99,-56,-1,-1,0
8500,-1835008,99,-56,-1,-1,0
8533,-1966080,99,-56,-1,-1,0
8566,-1835008,99,-56,-1,-1,0
8600,-1900544,99,-56,-1,-1,0
8633,-1114112,99,-56,-1,-1,0
8666,-851968,99,-56,-1,-1,0
8700,458752,99,-56,-1,-1,0
8733,2621440,99,-56,-1,-1,0
8766,1703936,99,-56,-1,-1,0
8800,1376256,99,-56,-1,-1,0
8833,1179648,99,-56,-1,-1,0
8866,1835008,99,-56,-1,-1,0
8900,1245184,99,-56,-1,-1,0
8933,720896,99,-56,-1,-1,0
8966,131072,99,-56,-1,-1,0
9000,-327680,99,-56,-1,-1,0
9033,-589824,99,-56,-1,-1,0
9066,4849664,99,-56,-1,-1,0
9100,-851968,99,-56,-1,-1,0
9133,-589824,99,-56,-1,-1,0
9166,-327680,99,-56,-1,-1,0
9200,917504,99,-56,-1,-1,0
9233,1703936,99,-56,-1,-1,0
9266,-524288,99,-56,-1,-1,0
9300,-1048576,99,-56,-1,-1,0
9333,-1441792,99,-56,-1,-1,0
9366,-983040,99,-56,-1,-1,0
9400,-1048576,99,-56,-1,-1,0
9433,-983040,99,-56,-1,-1,0
9466,-1507328,99,-56,-1,-1,0
9500,-1507328,99,-56,-1,-1,0
9533,-1572864,99,-56,-1,-1,0
9566,8454144,99,-56,-1,-1,0
9600,-393216,99,-56,-1,-1,0
9633,393216,99,-56,-1,-1,0
9666,1835008,99,-56,-1,-1,0
9700,3538944,99,-56,-1,-1,0
9733,3997696,99,-56,-1,-1,0
9766,1179648,99,-56,-1,-1,0
9800,458752,99,-56,-1,-1,0
9833,0,99,-56,-1,-1,0
9866,-65536,99,-56,-1,-1,0
9900,-196608,99,-56,-1,-1,0
9933,-327680,99,-56,-1,-1,0
9966,-720896,99,-56,-1,-1,0
10000,-851968,99,-56,-1,-1,0
10033,-786432,99,-56,-1,-1,0
10066,-1310720,99,-56,-1,-1,0
10100,-851968,99,-56,-1,-1,0
10133,-851968,99,-56,-1,-1,0
10166,393216,99,-56,-1,-1,0
10200,2162688,99,-56,-1,-1,0
10233,327680,99,-56,-1,-1,0
10266,-851968,99,-56,-1,-1,0
10300,-1638400,99,-56,-1,-1,0
10333,-1245184,99,-56,-1,-1,0
10366,-1114112,99,-56,-1,-1,0
10400,-1310720,99,-56,-1,-1,0
10433,-1441792,99,-56,-1,-1,0
10466,-1441792,99,-56,-1,-1,0
10500,-1179648,99,-56,-1,-1,0
10533,-65536,99,-56,-1,-1,0
10566,-1048576,99,-56,-1,-1,0
10600,0,99,-56,-1,-1,0
10633,-131072,99,-56,-1,-1,0
10666,1245184,99,-56,-1,-1,0
10700,2424832,99,-56,-1,-1,0
10733,720896,99,-56,-1,-1,0
10766,-655360,99,-56,-1,-1,0
10800,-1245184,99,-56,-1,-1,0
10833,-524288,99,-56,-1,-1,0
10866,-720896,99,-56,-1,-1,0
10900,-983040,99,-56,-1,-1,0
10933,-1376256,99,-56,-1,-1,0
10966,-1310720,99,-56,-1,-1,0
11000,-1310720,99,-56,-1,-1,0
11033,-2293760,99,-56,-1,-1,0
11066,524288,99,-56,-1,-1,0
11100,-1179648,99,-56,-1,-1,0
11133,-983040,99,-56,-1,-1,0
11166,589824,99,-56,-1,-1,0
11200,2228224,99,-56,-1,-1,0
11233,1310720,99,-56,-1,-1,0
11266,-720896,99,-56,-1,-1,0
11300,-1245184,99,-56,-1,-1,0
11333,-1245184,99,-56,-1,-1,0
11366,-1441792,99,-56,-1,-1,0
11400,-1048576,99,-56,-1,-1,0
11433,-655360,98,-56,-1,-1,0
11466,262144,98,-56,-1,-1,0
11500,393216,98,-56,-1,-1,0
11533,393216,98,-56,-1,-1,0
11566,3276800,98,-56,-1,-1,0
11600,786432,98,-56,-1,-1,0
11633,655360,98,-56,-1,-1,0
11666,1572864,98,-56,-1,-1,0
11700,2883584,98,-56,-1,-1,0
11733,2031616,98,-56,-1,-1,0
11766,65536,98,-56,-1,-1,0
11800,-393216,98,-56,-1,-1,0
11833,-327680,98,-56,-1,-1,0
11866,-720896,98,-56,-1,-1,0
11900,-786432,98,-56,-1,-1,0
11933,-1114112,99,-56,-1,-1,0
11966,-1441792,99,-56,-1,-1,0
12000,-1703936,99,-56,-1,-1,0
12033,3342336,99,-56,-1,-1,0
12066,-1966080,99,-56,-1,-1,0
12100,-1245184,99,-56,-1,-1,0
12133,-1179648,99,-56,-1,-1,0
12166,196608,99,-56,-1,-1,0
12200,1114112,99,-56,-1,-1,0
12233,-1310720,99,-56,-1,-1,0
12266,-1966080,99,-56,-1,-1,0
12300,-1703936,99,-56,-1,-1,0
12333,-131072,99,-56,-1,-1,0
12366,327680,99,-56,-1,-1,0
12400,393216,100,-56,-1,-1,0
12433,983040,100,-56,-1,-1,0
12466,196608,100,-56,-1,-1,0
12500,0,100,-56,-1,-1,0
12533,7602176,100,-56,-1,-1,0
12566,-589824,100,-56,-1,-1,0
12600,0,100,-56,-1,-1,0
12633,196608,100,-56,-1,-1,0
12666,1572864,100,-56,-1,-1,0
12700,2031616,100,-56,-1,-1,0
12733,-327680,100,-56,-1,-1,0
12766,-1638400,100,-56,-1,-1,0
12800,-1638400,100,-56,-1,-1,0
12833,-1376256,100,-56,-1,-1,0
12866,-1245184,100,-56,-1,-1,0
12900,-1245184,100,-56,-1,-1,0
12933,-851968,100,-56,-1,-1,0
12966,-917504,100,-56,-1,-1,0
13000,-983040,100,-56,-1,-1,0
13033,7077888,100,-56,-1,-1,0
13066,-655360,100,-56,-1,-1,0
13100,-458752,100,-56,-1,-1,0
13133,-131072,100,-56,-1,-1,0
13166,1441792,100,-56,-1,-1,0
13200,1179648,100,-56,-1,-1,0
13233,0,100,-56,-1,-1,0
13266,0,100,-56,-1,-1,0
13299,851968,100,-56,-1,-1,0
13333,1245184,100,-56,-1,-1,0
13366,917504,101,-56,-1,-1,0
13400,196608,101,-56,-1,-1,0
13433,131072,101,-56,-1,-1,0
13466,-196608,101,-56,-1,-1,0
13500,3866624,101,-56,-1,-1,0
13533,-983040,101,-56,-1,-1,0
13566,-327680,101,-56,-1,-1,0
13600,-65536,101,-56,-1,-1,0
13633,786432,101,-56,-1,-1,0
13666,1441792,101,-56,-1,-1,0
13700,-720896,101,-56,-1,-1,0
13733,-2162688,101,-56,-1,-1,0
13766,-2818048,101,-56,-1,-1,0
13799,-2686976,101,-56,-1,-1,0
13833,-2359296,101,-56,-1,-1,0
13866,-2490368,101,-56,-1,-1,0
13900,-2490368,101,-56,-1,-1,0
13933,-2883584,101,-56,-1,-1,0
13966,-3080192,101,-56,-1,-1,0
14000,-2162688,101,-56,-1,-1,0
14033,-2293760,101,-56,-1,-1,0
14066,-1245184,101,-56,-1,-1,0
14100,655360,101,-56,-1,-1,0
14133,2621440,101,-56,-1,-1,0
14166,1572864,101,-56,-1,-1,0
14200,983040,101,-56,-1,-1,0
14233,655360,101,-56,-1,-1,0
14266,131072,101,-56,-1,-1,0
14299,327680,101,-56,-1,-1,0
14333,-393216,102,-56,-1,-1,0
14366,-196608,102,-56,-1,-1,0
14400,-393216,102,-56,-1,-1,0
14433,-1179648,102,-56,-1,-1,0
14466,5570560,102,-56,-1,-1,0
14500,-1441792,102,-56,-1,-1,0
14533,-1114112,102,-56,-1,-1,0
14566,-720896,102,-56,-1,-1,0
14600,1245184,102,-56,-1,-1,0
14633,0,102,-56,-1,-1,0
14666,-1179648,102,-56,-1,-1,0
14700,-1376256,102,-56,-1,-1,0
14733,-917504,102,-56,-1,-1,0
14766,-458752,102,-56,-1,-1,0
14799,-655360,102,-56,-1,-1,0
14833,-983040,102,-56,-1,-1,0
14866,-786432,102,-56,-1,-1,0
14900,-786432,102,-56,-1,-1,0
14933,9568256,102,-56,-1,-1,0
14966,0,102,-56,-1,-1,0
15000,-65536,102,-56,-1,-1,0
15033,1179648,102,-56,-1,-1,0
15066,2555904,102,-56,-1,-1,0
15100,2424832,102,-56,-1,-1,0
15133,131072,102,-56,-1,-1,0
15166,-786432,102,-56,-1,-1,0
15200,-524288,102,-56,-1,-1,0
15233,-327680,102,-56,-1,-1,0
15266,-458752,102,-56,-1,-1,0
15299,-917504,102,-56,-1,-1,0
15333,-1179648,102,-56,-1,-1,0
15366,-1179648,102,-56,-1,-1,0
15400,9175040,102,-56,-1,-1,0
15433,-1048576,102,-56,-1,-1,0
15466,-786432,102,-56,-1,-1,0
15500,131072,102,-56,-1,-1,0
15533,1638400,102,-56,-1,-1,0
15566,2621440,102,-56,-1,-1,0
15600,458752,102,-56,-1,-1,0
15633,-131072,102,-56,-1,-1,0
15666,-655360,102,-56,-1,-1,0
15700,-851968,102,-56,-1,-1,0
15733,-917504,102,-56,-1,-1,0
15766,-1179648,102,-56,-1,-1,0
15799,-655360,102,-56,-1,-1,0
15833,-131072,102,-56,-1,-1,0
15866,3276800,102,-56,-1,-1,0
15900,458752,102,-56,-1,-1,0
15933,655360,102,-56,-1,-1,0
15966,1376256,102,-56,-1,-1,0
16000,1835008,102,-56,-1,-1,0
16033,2818048,102,-56,-1,-1,0
16066,1048576,102,-56,-1,-1,0
16100,-131072,102,-56,-1,-1,0
16133,-655360,102,-56,-1,-1,0
16166,-720896,102,-56,-1,-1,0
16200,-1048576,103,-56,-1,-1,0
16233,-1703936,103,-56,-1,-1,0
16266,-1572864,103,-56,-1,-1,0
16300,-1769472,103,-56,-1,-1,0
16333,2031616,103,-56,-1,-1,0
16366,-2490368,103,-56,-1,-1,0
16400,-1835008,103,-56,-1,-1,0
16433,-1245184,103,-56,-1,-1,0
16466,-131072,103,-56,-1,-1,0
16500,851968,103,-56,-1,-1,0
16533,-1310720,103,-56,-1,-1,0
16566,-2162688,103,-56,-1,-1,0
16600,-2293760,103,-56,-1,-1,0
16633,-1638400,103,-56,-1,-1,0
16666,-524288,103,-56,-1,-1,0
16700,131072,103,-56,-1,-1,0
16733,786432,103,-56,-1,-1,0
16766,1048576,103,-56,-1,-1,0
16800,3473408,103,-56,-1,-1,0
16833,-458752,103,-56,-1,-1,0
16866,-196608,103,-56,-1,-1,0
16900,0,103,-56,-1,-1,0
16933,1048576,103,-56,-1,-1,0
16966,2293760,103,-56,-1,-1,0
17000,327680,103,-56,-1,-1,0
17033,-720896,103,-56,-1,-1,0
17066,-917504,103,-56,-1,-1,0
17100,-1376256,103,-56,-1,-1,0
17133,-1179648,104,-56,-1,-1,0
17166,-1310720,104,-56,-1,-1,0
17200,-1572864,104,-56,-1,-1,0
17233,-851968,104,-56,-1,-1,0
17266,-65536,104,-56,-1,-1,0
17300,-1441792,104,-56,-1,-1,0
17333,-458752,104,-56,-1,-1,0
17366,0,104,-56,-1,-1,0
17400,983040,104,-56,-1,-1,0
17433,2293760,104,-56,-1,-1,0
17466,524288,104,-56,-1,-1,0
17500,-917504,104,-56,-1,-1,0
17533,-917504,104,-56,-1,-1,0
17566,-131072,104,-56,-1,-1,0
17600,131072,104,-56,-1,-1,0
17633,655360,104,-56,-1,-1,0
17666,851968,104,-56,-1,-1,0
17700,327680,104,-56,-1,-1,0
17733,786432,104,-56,-1,-1,0
17766,-655360,104,-56,-1,-1,0
17800,-131072,104,-56,-1,-1,0
17833,0,104,-56,-1,-1,0
17866,1179648,104,-56,-1,-1,0
17900,2162688,104,-56,-1,-1,0
17933,393216,104,-56,-1,-1,0
17966,-1310720,104,-56,-1,-1,0
18000,-2097152,104,-56,-1,-1,0
18033,-2031616,104,-56,-1,-1,0
18066,-2359296,104,-56,-1,-1,0
18100,-2031616,104,-56,-1,-1,0
18133,-2359296,104,-56,-1,-1,0
18166,-2097152,104,-56,-1,-1,0
18200,393216,104,-56,-1,-1,0
18233,-1703936,104,-56,-1,-1,0
18266,-983040,104,-56,-1,-1,0
18300,-786432,104,-56,-1,-1,0
18333,196608,104,-56,-1,-1,0
18366,1048576,104,-56,-1,-1,0
18400,-262144,104,-56,-1,-1,0
18433,-917504,104,-56,-1,-1,0
18466,-655360,104,-56,-1,-1,0
18500,-65536,105,-56,-1,-1,0
18533,65536,105,-56,-1,-1,0
18566,196608,105,-56,-1,-1,0
18600,-262144,105,-56,-1,-1,0
18633,-983040,105,-56,-1,-1,0
18666,7798784,105,-56,-1,-1,0
18700,-1245184,105,-56,-1,-1,0
18733,-655360,105,-56,-1,-1,0
18766,-196608,105,-56,-1,-1,0
18800,1441792,105,-56,-1,-1,0
18833,1507328,105,-56,-1,-1,0
18866,-786432,105,-56,-1,-1,0
18900,-1179648,105,-56,-1,-1,0
18933,-1507328,105,-56,-1,-1,0
18966,-786432,106,-56,-1,-1,0
19000,-1114112,106,-56,-1,-1,0
19033,-851968,106,-56,-1,-1,0
19066,-327680,106,-56,-1,-1,0
19100,-262144,106,-56,-1,-1,0
19133,6881280,106,-56,-1,-1,0
19166,0,106,-56,-1,-1,0
19200,0,106,-56,-1,-1,0
19233,65536,106,-56,-1,-1,0
19266,1376256,106,-56,-1,-1,0
19300,983040,106,-56,-1,-1,0
19333,-524288,106,-56,-1,-1,0
19366,-786432,106,-56,-1,-1,0
19400,-655360,106,-56,-1,-1,0
19433,458752,106,-56,-1,-1,0
19466,0,106,-56,-1,-1,0
19500,-65536,106,-56,-1,-1,0
19533,-851968,106,-56,-1,-1,0
19566,3997696,106,-56,-1,-1,0
19600,-1245184,106,-56,-1,-1,0
19633,-458752,106,-56,-1,-1,0
19666,0,106,-56,-1,-1,0
19700,1310720,106,-56,-1,-1,0
19733,2555904,106,-56,-1,-1,0
19766,458752,106,-56,-1,-1,0
19800,-655360,106,-56,-1,-1,0
19833,-196608,106,-56,-1,-1,0
19866,-262144,107,-56,-1,-1,0
19900,-262144,107,-56,-1,-1,0
19933,-1310720,107,-56,-1,-1,0
19966,-1769472,107,-56,-1,-1,0
20000,-2359296,107,-56,-1,-1,0
20033,1245184,107,-56,-1,-1,0
20066,-1769472,107,-56,-1,-1,0
20100,-1638400,107,-56,-1,-1,0
20133,-786432,107,-56,-1,-1,0
20166,589824,107,-56,-1,-1,0
20200,-131072,107,-56,-1,-1,0
20233,-1245184,107,-56,-1,-1,0
20266,-1048576,107,-56,-1,-1,0
20300,-131072,107,-56,-1,-1,0
20333,327680,107,-56,-1,-1,0
20366,393216,107,-56,-1,-1,0
20400,-65536,107,-56,-1,-1,0
20433,-589824,107,-56,-1,-1,0
20466,9568256,107,-56,-1,-1,0
20500,-655360,107,-56,-1,-1,0
20533,-655360,107,-56,-1,-1,0
20566,65536,107,-56,-1,-1,0
20600,1245184,107,-56,-1,-1,0
20633,1441792,107,-56,-1,-1,0
20666,-524288,107,-56,-1,-1,0
20700,-1638400,107,-56,-1,-1,0
20733,-1179648,107,-56,-1,-1,0
20766,-983040,107,-56,-1,-1,0
20800,-1638400,107,-56,-1,-1,0
20833,-1638400,107,-56,-1,-1,0
20866,-1441792,107,-56,-1,-1,0
20900,4259840,107,-56,-1,-1,0
20933,-1703936,107,-56,-1,-1,0
20966,-983040,107,-56,-1,-1,0
21000,-1310720,107,-56,-1,-1,0
21033,-65536,107,-56,-1,-1,0
21066,655360,107,-56,-1,-1,0
21100,-1310720,107,-56,-1,-1,0
21133,-1638400,107,-56,-1,-1,0
21166,-589824,107,-56,-1,-1,0
21200,393216,107,-56,-1,-1,0
21233,1441792,107,-56,-1,-1,0
21266,1703936,107,-56,-1,-1,0
21300,1572864,107,-56,-1,-1,0
21333,4849664,107,-56,-1,-1,0
21366,65536,107,-56,-1,-1,0
21400,917504,107,-56,-1,-1,0
21433,786432,107,-56,-1,-1,0
21466,1966080,107,-56,-1,-1,0
21500,3014656,107,-56,-1,-1,0
21533,983040,107,-56,-1,-1,0
21566,-524288,107,-56,-1,-1,0
21600,-1638400,107,-56,-1,-1,0
21633,-1048576,107,-56,-1,-1,0
21666,-1703936,107,-56,-1,-1,0
21700,-2031616,107,-56,-1,-1,0
21733,-1638400,107,-56,-1,-1,0
21766,655360,107,-56,-1,-1,0
21800,-2097152,107,-56,-1,-1,0
21833,-1310720,107,-56,-1,-1,0
21866,-917504,107,-56,-1,-1,0
21900,0,107,-56,-1,-1,0
21933,983040,107,-56,-1,-1,0
21966,-983040,107,-56,-1,-1,0
22000,-1966080,107,-56,-1,-1,0
22033,-1835008,108,-56,-1,-1,0
22066,-720896,108,-56,-1,-1,0
22100,196608,108,-56,-1,-1,0
22133,524288,108,-56,-1,-1,0
22166,917504,108,-56,-1,-1,0
22200,2949120,108,-56,-1,-1,0
22233,-393216,108,-56,-1,-1,0
22266,-720896,108,-56,-1,-1,0
22300,-655360,108,-56,-1,-1,0
22333,65536,108,-56,-1,-1,0
22366,1048576,108,-56,-1,-1,0
22400,-458752,108,-56,-1,-1,0
22433,-1769472,108,-56,-1,-1,0
22466,-2293760,109,-56,-1,-1,0
22500,-1769472,109,-56,-1,-1,0
22533,-2162688,109,-56,-1,-1,0
22566,-1900544,109,-56,-1,-1,0
22600,-1769472,109,-56,-1,-1,0
22633,2818048,109,-56,-1,-1,0
22666,-1310720,109,-56,-1,-1,0
22700,-327680,109,-56,-1,-1,0
22733,393216,109,-56,-1,-1,0
22766,1703936,109,-56,-1,-1,0
22800,2686976,109,-56,-1,-1,0
22833,917504,109,-56,-1,-1,0
22866,-393216,110,-56,-1,-1,0
22900,-524288,110,-56,-1,-1,0
22933,-196608,110,-56,-1,-1,0
22966,-131072,110,-56,-1,-1,0
23000,0,110,-56,-1,-1,0
23033,-327680,110,-56,-1,-1,0
23066,8126464,110,-56,-1,-1,0
23100,131072,110,-56,-1,-1,0
23133,262144,110,-56,-1,-1,0
23166,-131072,110,-56,-1,-1,0
23200,1507328,110,-56,-1,-1,0
23233,1769472,110,-56,-1,-1,0
23266,0,110,-56,-1,-1,0
23300,-589824,111,-56,-1,-1,0
23333,-524288,111,-56,-1,-1,0
23366,-917504,111,-56,-1,-1,0
23400,-1376256,111,-56,-1,-1,0
23433,-1769472,111,-56,-1,-1,0
23466,-1572864,111,-56,-1,-1,0
23500,6684672,111,-56,-1,-1,0
23533,-1441792,111,-56,-1,-1,0
23566,-1310720,111,-56,-1,-1,0
23600,-393216,111,-56,-1,-1,0
23633,1114112,111,-56,-1,-1,0
23666,720896,111,-56,-1,-1,0
23700,-851968,111,-56,-1,-1,0
23733,-1638400,111,-56,-1,-1,0
23766,-1376256,111,-56,-1,-1,0
23800,-1310720,111,-56,-1,-1,0
23833,-1441792,111,-56,-1,-1,0
23866,-1048576,111,-56,-1,-1,0
23900,-458752,111,-56,-1,-1,0
23933,393216,111,-56,-1,-1,0
23966,983040,111,-56,-1,-1,0
24000,1245184,111,-56,-1,-1,0
24033,2031616,111,-56,-1,-1,0
24066,2818048,111,-56,-1,-1,0
24100,1769472,111,-56,-1,-1,0
24133,589824,112,-56,-1,-1,0
24166,131072,112,-56,-1,-1,0
24200,262144,112,-56,-1,-1,0
24233,-196608,112,-56,-1,-1,0
24266,-458752,112,-56,-1,-1,0
24300,-983040,112,-56,-1,-1,0
24333,5898240,112,-56,-1,-1,0
24366,-1310720,112,-56,-1,-1,0
24400,-1048576,112,-56,-1,-1,0
24433,-393216,112,-56,-1,-1,0
24466,720896,112,-56,-1,-1,0
24500,1441792,112,-56,-1,-1,0
24533,-524288,112,-56,-1,-1,0
24566,-1114112,113,-56,-1,-1,0
24600,-1310720,113,-56,-1,-1,0
24633,-1310720,113,-56,-1,-1,0
24666,-1310720,113,-56,-1,-1,0
24700,-1638400,113,-56,-1,-1,0
24733,-1769472,113,-56,-1,-1,0
24766,4784128,113,-56,-1,-1,0
24800,-786432,113,-56,-1,-1,0
24833,-262144,113,-56,-1,-1,0
24866,524288,113,-56,-1,-1,0
24900,1703936,113,-56,-1,-1,0
24933,1245184,113,-56,-1,-1,0
24966,-589824,114,-56,-1,-1,0
25000,-1179648,114,-56,-1,-1,0
25033,-1048576,114,-56,-1,-1,0
25066,-1572864,114,-56,-1,-1,0
25100,-1376256,114,-56,-1,-1,0
25133,-1769472,114,-56,-1,-1,0
25166,393216,114,-56,-1,-1,0
25200,-2490368,114,-56,-1,-1,0
25233,-1114112,114,-56,-1,-1,0
25266,-1179648,114,-56,-1,-1,0
25300,-65536,114,-56,-1,-1,0
25333,786432,114,-56,-1,-1,0
25366,-131072,114,-56,-1,-1,0
25400,-524288,115,-56,-1,-1,0
25433,-196608,115,-56,-1,-1,0
25466,0,115,-56,-1,-1,0
25500,-458752,115,-56,-1,-1,0
25533,-327680,115,-56,-1,-1,0
25566,-917504,115,-56,-1,-1,0
25600,8978432,115,-56,-1,-1,0
25633,0,115,-56,-1,-1,0
25666,720896,115,-56,-1,-1,0
25700,1441792,115,-56,-1,-1,0
25733,2621440,115,-56,-1,-1,0
25766,2883584,115,-56,-1,-1,0
25800,1245184,115,-56,-1,-1,0
25833,851968,116,-56,-1,-1,0
25866,983040,116,-56,-1,-1,0
25900,327680,116,-56,-1,-1,0
25933,-262144,116,-56,-1,-1,0
25966,-393216,116,-56,-1,-1,0
26000,524288,116,-56,-1,-1,0
26033,-1507328,116,-56,-1,-1,0
26066,-1310720,116,-56,-1,-1,0
26099,-1245184,116,-56,-1,-1,0
26133,-262144,116,-56,-1,-1,0
26166,655360,116,-56,-1,-1,0
26200,-917504,116,-56,-1,-1,0
26233,-2293760,116,-56,-1,-1,0
26266,-2162688,116,-56,-1,-1,0
26300,-1703936,116,-56,-1,-1,0
26333,-1900544,116,-56,-1,-1,0
26366,-1835008,116,-56,-1,-1,0
26400,-2097152,116,-56,-1,-1,0
26433,6881280,116,-56,-1,-1,0
26466,-1966080,116,-56,-1,-1,0
26500,-1769472,116,-56,-1,-1,0
26533,-983040,116,-56,-1,-1,0
26566,786432,116,-56,-1,-1,0
26599,1441792,116,-56,-1,-1,0
26633,196608,116,-56,-1,-1,0
26666,131072,117,-56,-1,-1,0
26700,1114112,117,-56,-1,-1,0
26733,1179648,117,-56,-1,-1,0
26766,720896,117,-56,-1,-1,0
26800,-65536,117,-56,-1,-1,0
26833,-458752,117,-56,-1,-1,0
26866,-458752,117,-56,-1,-1,0
26900,-131072,117,-56,-1,-1,0
26933,-196608,117,-56,-1,-1,0
26966,327680,117,-56,-1,-1,0
27000,1441792,117,-56,-1,-1,0
27033,262144,117,-56,-1,-1,0
27066,-1048576,118,-56,-1,-1,0
27099,-983040,118,-56,-1,-1,0
27133,-917504,118,-56,-1,-1,0
27166,-1245184,118,-56,-1,-1,0
27200,-393216,118,-56,-1,-1,0
27233,-851968,118,-56,-1,-1,0
27266,5111808,118,-56,-1,-1,0
27300,-786432,118,-56,-1,-1,0
27333,-393216,118,-56,-1,-1,0
27366,-131072,118,-56,-1,-1,0
27400,786432,118,-56,-1,-1,0
27433,1310720,118,-56,-1,-1,0
27466,65536,118,-56,-1,-1,0
27500,-393216,118,-56,-1,-1,0
27533,-458752,118,-56,-1,-1,0
27566,327680,118,-56,-1,-1,0
27599,196608,118,-56,-1,-1,0
27633,0,118,-56,-1,-1,0
27666,-524288,118,-56,-1,-1,0
27700,6815744,118,-56,-1,-1,0
27733,-786432,118,-56,-1,-1,0
27766,-393216,118,-56,-1,-1,0
27800,0,118,-56,-1,-1,0
27833,1245184,118,-56,-1,-1,0
27866,1048576,118,-56,-1,-1,0
27900,-524288,119,-56,-1,-1,0
27933,-851968,119,-56,-1,-1,0
27966,-655360,119,-56,-1,-1,0
28000,-589824,119,-56,-1,-1,0
28033,-1179648,119,-56,-1,-1,0
28066,-917504,119,-56,-1,-1,0
28099,-524288,119,-56,-1,-1,0
28133,-589824,119,-56,-1,-1,0
28166,-393216,119,-56,-1,-1,0
28200,-131072,119,-56,-1,-1,0
28233,458752,119,-56,-1,-1,0
28266,1245184,119,-56,-1,-1,0
28300,327680,119,-56,-1,-1,0
28333,-1376256,119,-56,-1,-1,0
28366,-1376256,119,-56,-1,-1,0
28400,-786432,119,-56,-1,-1,0
28433,-655360,119,-56,-1,-1,0
28466,-393216,119,-56,-1,-1,0
28500,-327680,119,-56,-1,-1,0
28533,9830400,119,-56,-1,-1,0
28566,-458752,119,-56,-1,-1,0
28599,-458752,119,-56,-1,-1,0
28633,-393216,119,-56,-1,-1,0
28666,1114112,119,-56,-1,-1,0
28700,1114112,119,-56,-1,-1,0
28733,-393216,119,-56,-1,-1,0
28766,-1310720,119,-56,-1,-1,0
28800,-983040,119,-56,-1,-1,0
28833,-851968,119,-56,-1,-1,0
28866,-1507328,119,-56,-1,-1,0
28900,-1441792,119,-56,-1,-1,0
28933,-1179648,119,-56,-1,-1,0
28966,-2359296,119,-56,-1,-1,0
29000,-1703936,119,-56,-1,-1,0
29033,-1245184,119,-56,-1,-1,0
29066,-327680,119,-56,-1,-1,0
29099,983040,119,-56,-1,-1,0
29133,-65536,119,-56,-1,-1,0
29166,-1114112,119,-56,-1,-1,0
29200,-1310720,119,-56,-1,-1,0
29233,-917504,119,-56,-1,-1,0
29266,-1048576,119,-56,-1,-1,0
29300,-1179648,119,-56,-1,-1,0
29333,-1179648,119,-56,-1,-1,0
29366,9306112,119,-56,-1,-1,0
29400,-196608,119,-56,-1,-1,0
29433,0,119,-56,-1,-1,0
29466,327680,119,-56,-1,-1,0
29500,786432,119,-56,-1,-1,0
29533,393216,119,-56,-1,-1,0
29566,-1114112,119,-56,-1,-1,0
29599,-1376256,119,-56,-1,-1,0
29633,-1310720,119,-56,-1,-1,0
29666,-1114112,119,-56,-1,-1,0
29700,-1376256,119,-56,-1,-1,0
29733,-1703936,119,-56,-1,-1,0
29766,786432,119,-56,-1,-1,0
29800,-2490368,119,-56,-1,-1,0
29833,-1376256,119,-56,-1,-1,0
29866,-1114112,119,-56,-1,-1,0
29900,0,119,-56,-1,-1,0
29933,589824,119,-56,-1,-1,0
29966,0,119,-56,-1,-1,0
30000,0,119,-56,-1,-1,0
30033,0,119,-56,-1,-1,0
30066,393216,119,-56,-1,-1,0
30099,131072,119,-56,-1,-1,0
30133,-196608,119,-56,-1,-1,0
30166,-1048576,119,-56,-1,-1,0
30200,4587520,119,-56,-1,-1,0
30233,-589824,119,-56,-1,-1,0
30266,-196608,119,-56,-1,-1,0
30300,458752,119,-56,-1,-1,0
30333,1376256,119,-56,-1,-1,0
30366,1835008,119,-56,-1,-1,0
30400,589824,120,-56,-1,-1,0
30433,720896,120,-56,-1,-1,0
30466,1245184,120,-56,-1,-1,0
30500,720896,120,-56,-1,-1,0
30533,327680,120,-56,-1,-1,0
30566,393216,120,-56,-1,-1,0
30599,9240576,120,-56,-1,-1,0
30633,-458752,120,-56,-1,-1,0
30666,-655360,120,-56,-1,-1,0
30700,-983040,120,-56,-1,-1,0
30733,-327680,120,-56,-1,-1,0
30766,-131072,120,-56,-1,-1,0
30800,-1703936,120,-56,-1,-1,0
30833,-1835008,120,-56,-1,-1,0
30866,-1310720,120,-56,-1,-1,0
30900,-1245184,120,-56,-1,-1,0
30933,-1310720,120,-56,-1,-1,0
30966,-1310720,120,-56,-1,-1,0
31000,-327680,120,-56,-1,-1,0
31033,-2228224,120,-56,-1,-1,0
31066,-1376256,120,-56,-1,-1,0
31099,-1114112,120,-56,-1,-1,0
31133,-327680,120,-56,-1,-1,0
31166,1114112,120,-56,-1,-1,0
31200,786432,120,-56,-1,-1,0
31233,196608,120,-56,-1,-1,0
31266,1048576,120,-56,-1,-1,0
31300,1441792,120,-56,-1,-1,0
31333,851968,120,-56,-1,-1,0
31366,131072,120,-56,-1,-1,0
31400,-589824,120,-56,-1,-1,0
31433,5570560,120,-56,-1,-1,0
31466,-524288,120,-56,-1,-1,0
31500,-262144,120,-56,-1,-1,0
31533,-65536,120,-56,-1,-1,0
31566,1179648,120,-56,-1,-1,0
31599,-65536,120,-56,-1,-1,0
31633,-1114112,120,-56,-1,-1,0
31666,-1310720,120,-56,-1,-1,0
31700,-786432,120,-56,-1,-1,0
31733,-917504,120,-56,-1,-1,0
31766,-851968,120,-56,-1,-1,0
31800,-1048576,120,-56,-1,-1,0
31833,4063232,120,-56,-1,-1,0
31866,-1703936,120,-56,-1,-1,0
31900,-1507328,120,-56,-1,-1,0
31933,-1507328,120,-56,-1,-1,0
31966,-458752,120,-56,-1,-1,0
32000,65536,120,-56,-1,-1,0
32033,-655360,120,-56,-1,-1,0
32066,-786432,120,-56,-1,-1,0
32100,-458752,120,-56,-1,-1,0
32133,0,120,-56,-1,-1,0
32166,-262144,120,-56,-1,-1,0
32200,-262144,120,-56,-1,-1,0
32233,-524288,120,-56,-1,-1,0
32266,-327680,120,-56,-1,-1,0
32299,-458752,120,-56,-1,-1,0
32333,-262144,120,-56,-1,-1,0
32366,655360,120,-56,-1,-1,0
32400,1441792,120,-56,-1,-1,0
32433,458752,120,-56,-1,-1,0
32466,-393216,120,-56,-1,-1,0
32500,-524288,120,-56,-1,-1,0
32533,-65536,120,-56,-1,-1,0
32566,-458752,120,-56,-1,-1,0
32600,-262144,120,-56,-1,-1,0
32633,-786432,120,-56,-1,-1,0
32666,8257536,120,-56,-1,-1,0
32700,-131072,120,-56,-1,-1,0
32733,196608,120,-56,-1,-1,0
32766,458752,120,-56,-1,-1,0
32800,1114112,120,-56,-1,-1,0
32833,720896,120,-56,-1,-1,0
32866,-917504,120,-56,-1,-1,0
32900,-1048576,120,-56,-1,-1,0
32933,-458752,120,-56,-1,-1,0
32966,-131072,120,-56,-1,-1,0
33000,-131072,120,-56,-1,-1,0
33033,-327680,120,-56,-1,-1,0
33066,9961472,120,-56,-1,-1,0
33100,0,120,-56,-1,-1,0
33133,-262144,120,-56,-1,-1,0
33166,131072,120,-56,-1,-1,0
33200,1310720,120,-56,-1,-1,0
33233,720896,120,-56,-1,-1,0
33266,-524288,120,-56,-1,-1,0
33300,-983040,120,-56,-1,-1,0
33333,-851968,120,-56,-1,-1,0
33366,-524288,120,-56,-1,-1,0
33400,-1376256,120,-56,-1,-1,0
33433,-1507328,120,-56,-1,-1,0
33466,5963776,120,-56,-1,-1,0
33500,-1900544,120,-56,-1,-1,0
33533,-1572864,120,-56,-1,-1,0
33566,-1048576,120,-56,-1,-1,0
33600,-327680,120,-56,-1,-1,0
33633,65536,120,-56,-1,-1,0
33666,-1703936,120,-56,-1,-1,0
33700,-2490368,120,-56,-1,-1,0
33733,-2097152,120,-56,-1,-1,0
33766,-1835008,120,-56,-1,-1,0
33800,-1441792,120,-56,-1,-1,0
33833,-655360,120,-56,-1,-1,0
33866,6881280,120,-56,-1,-1,0
33900,589824,120,-56,-1,-1,0
33933,1179648,120,-56,-1,-1,0
33966,917504,120,-56,-1,-1,0
34000,1769472,120,-56,-1,-1,0
34033,1507328,120,-56,-1,-1,0
34066,-327680,120,-56,-1,-1,0
34100,-655360,120,-56,-1,-1,0
34133,-327680,120,-56,-1,-1,0
34166,-327680,120,-56,-1,-1,0
34200,-393216,120,-56,-1,-1,0
34233,-655360,120,-56,-1,-1,0
34266,4718592,120,-56,-1,-1,0
34300,-1114112,120,-56,-1,-1,0
34333,-720896,120,-56,-1,-1,0
34366,-393216,120,-56,-1,-1,0
34400,786432,120,-56,-1,-1,0
34433,1179648,120,-56,-1,-1,0
34466,0,121,-56,-1,-1,0
34500,-65536,121,-56,-1,-1,0
34533,0,121,-56,-1,-1,0
34566,0,121,-56,-1,-1,0
34600,-393216,121,-56,-1,-1,0
34633,-196608,121,-56,-1,-1,0
34666,7536640,121,-56,-1,-1,0
34700,65536,121,-56,-1,-1,0
34733,720896,121,-56,-1,-1,0
34766,327680,121,-56,-1,-1,0
34800,1638400,121,-56,-1,-1,0
34833,1376256,121,-56,-1,-1,0
34866,393216,121,-56,-1,-1,0
34900,-393216,121,-56,-1,-1,0
34933,-524288,121,-56,-1,-1,0
34966,-458752,121,-56,-1,-1,0
35000,-589824,121,-56,-1,-1,0
35033,-655360,121,-56,-1,-1,0
35066,8847360,121,-56,-1,-1,0
35100,-655360,121,-56,-1,-1,0
35133,-983040,121,-56,-1,-1,0
35166,-65536,121,-56,-1,-1,0
35200,262144,121,-56,-1,-1,0
35233,0,121,-56,-1,-1,0
35266,-589824,121,-56,-1,-1,0
35300,-655360,121,-56,-1,-1,0
35333,-720896,121,-56,-1,-1,0
35366,-589824,121,-56,-1,-1,0
35400,-720896,121,-56,-1,-1,0
35433,-1179648,121,-56,-1,-1,0
35466,6619136,121,-56,-1,-1,0
35500,-1245184,121,-56,-1,-1,0
35533,-983040,121,-56,-1,-1,0
35566,-393216,121,-56,-1,-1,0
35600,1245184,121,-56,-1,-1,0
35633,1507328,122,-56,-1,-1,0
35666,524288,122,-56,-1,-1,0
35700,786432,122,-56,-1,-1,0
35733,458752,122,-56,-1,-1,0
35766,262144,122,-56,-1,-1,0
35800,-458752,122,-56,-1,-1,0
35833,-720896,122,-56,-1,-1,0
35866,1966080,122,-56,-1,-1,0
35900,-524288,122,-56,-1,-1,0
35933,-1114112,122,-56,-1,-1,0
35966,-196608,122,-56,-1,-1,0
36000,655360,122,-56,-1,-1,0
36033,-524288,122,-56,-1,-1,0
36066,-1376256,122,-56,-1,-1,0
36100,-1769472,122,-56,-1,-1,0
36133,-1441792,122,-56,-1,-1,0
36166,-1179648,122,-56,-1,-1,0
36200,-1507328,122,-56,-1,-1,0
36233,-1441792,122,-56,-1,-1,0
36266,-720896,122,-56,-1,-1,0
36300,-851968,122,-56,-1,-1,0
36333,-524288,122,-56,-1,-1,0
36366,0,122,-56,-1,-1,0
36400,589824,122,-56,-1,-1,0
36433,-458752,122,-56,-1,-1,0
36466,-983040,122,-56,-1,-1,0
36500,-917504,122,-56,-1,-1,0
36533,-196608,122,-56,-1,-1,0
36566,-65536,122,-56,-1,-1,0
36600,-393216,122,-56,-1,-1,0
36633,1900544,122,-56,-1,-1,0
36666,-1114112,122,-56,-1,-1,0
36700,-1114112,122,-56,-1,-1,0
36733,-851968,122,-56,-1,-1,0
36766,-393216,122,-56,-1,-1,0
36800,524288,123,-56,-1,-1,0
36833,-393216,123,-56,-1,-1,0
36866,-851968,123,-56,-1,-1,0
36900,-1048576,123,-56,-1,-1,0
36933,-1376256,123,-56,-1,-1,0
36966,-1310720,123,-56,-1,-1,0
37000,-1507328,123,-56,-1,-1,0
37033,9175040,123,-56,-1,-1,0
37066,-1376256,123,-56,-1,-1,0
37100,-262144,123,-56,-1,-1,0
37133,262144,123,-56,-1,-1,0
37166,1376256,123,-56,-1,-1,0
37200,1376256,123,-56,-1,-1,0
37233,0,123,-56,-1,-1,0
37266,-786432,123,-56,-1,-1,0
37300,-1179648,123,-56,-1,-1,0
37333,-1114112,123,-56,-1,-1,0
37366,-1048576,123,-56,-1,-1,0
37400,-851968,123,-56,-1,-1,0
37433,917504,123,-56,-1,-1,0
37466,-196608,123,-56,-1,-1,0
37500,851968,123,-56,-1,-1,0
37533,983040,123,-56,-1,-1,0
37566,1769472,125,-56,-1,-1,0
37600,1114112,125,-56,-1,-1,0
37633,-196608,125,-56,-1,-1,0
37666,-262144,125,-56,-1,-1,0
37700,-327680,125,-56,-1,-1,0
37733,-655360,125,-56,-1,-1,0
37766,-983040,125,-56,-1,-1,0
37800,8716288,125,-56,-1,-1,0
37833,-1376256,125,-56,-1,-1,0
37866,-1245184,125,-56,-1,-1,0
37900,-983040,125,-56,-1,-1,0
37933,65536,126,-56,-1,-1,0
37966,-65536,126,-56,-1,-1,0
38000,-1376256,126,-56,-1,-1,0
38033,-1769472,126,-56,-1,-1,0
38066,-1507328,126,-56,-1,-1,0
38100,-2293760,126,-56,-1,-1,0
38133,-2359296,126,-56,-1,-1,0
38166,-2228224,126,-56,-1,-1,0
38200,-2883584,126,-56,-1,-1,0
38233,-2228224,126,-56,-1,-1,0
38266,-1245184,126,-56,-1,-1,0
38300,196608,126,-56,-1,-1,0
38333,1310720,126,-56,-1,-1,0
38366,1245184,126,-56,-1,-1,0
38400,1048576,126,-56,-1,-1,0
38433,196608,126,-56,-1,-1,0
38466,-131072,126,-56,-1,-1,0
38500,-196608,126,-56,-1,-1,0
38533,-720896,126,-56,-1,-1,0
38566,7995392,126,-56,-1,-1,0
38600,-458752,126,-56,-1,-1,0
38633,-65536,126,-56,-1,-1,0
38666,131072,126,-56,-1,-1,0
38700,458752,126,-56,-1,-1,0
38733,262144,126,-56,-1,-1,0
38766,-131072,126,-56,-1,-1,0
38800,-720896,126,-56,-1,-1,0
38833,-458752,126,-56,-1,-1,0
38866,-65536,126,-56,-1,-1,0
38900,-720896,126,-56,-1,-1,0
38933,2031616,126,-56,-1,-1,0
38966,-1245184,126,-56,-1,-1,0
39000,-983040,126,-56,-1,-1,0
39033,-589824,126,-56,-1,-1,0
39066,-262144,126,-56,-1,-1,0
39100,65536,126,-56,-1,-1,0
39133,-262144,126,-56,-1,-1,0
39166,-262144,126,-56,-1,-1,0
39200,196608,126,-56,-1,-1,0
39233,131072,126,-56,-1,-1,0
39266,458752,126,-56,-1,-1,0
39300,65536,126,-56,-1,-1,0
39333,5898240,126,-56,-1,-1,0
39366,262144,126,-56,-1,-1,0
39400,655360,126,-56,-1,-1,0
39433,589824,126,-56,-1,-1,0
39466,1376256,127,-56,-1,-1,0
39500,524288,127,-56,-1,-1,0
39533,0,127,-56,-1,-1,0
39566,-262144,127,-56,-1,-1,0
39600,-458752,127,-56,-1,-1,0
39633,-720896,127,-56,-1,-1,0
39666,-917504,127,-56,-1,-1,0
39700,8650752,127,-56,-1,-1,0
39733,-1572864,127,-56,-1,-1,0
39766,-1638400,127,-56,-1,-1,0
39800,-524288,127,-56,-1,-1,0
