milliseconds, ECG, ECG HR, PPG, PPG HR, SpO2, PI
1523614456726,-720896,104,-56,-1,-1,0
1523614456726,-589824,104,-56,-1,-1,0
1523614456726,-393216,104,-56,-1,-1,0
1523614456726,-262144,104,-56,-1,-1,0
1523614456726,0,104,-56,-1,-1,0
1523614456777,196608,104,-56,-1,-1,0
1523614456777,524288,104,-56,-1,-1,0
1523614456777,786432,104,-56,-1,-1,0
1523614456777,1048576,104,-56,-1,-1,0
1523614456777,1114112,104,-56,-1,-1,0
1523614456806,1179648,104,-56,-1,-1,0
1523614456806,1048576,104,-56,-1,-1,0
1523614456806,786432,104,-56,-1,-1,0
1523614456806,327680,104,-56,-1,-1,0
1523614456806,0,104,-56,-1,-1,0
1523614456846,-393216,104,-56,-1,-1,0
1523614456846,-655360,104,-56,-1,-1,0
1523614456846,-851968,104,-56,-1,-1,0
1523614456846,-983040,104,-56,-1,-1,0
1523614456846,-1114112,104,-56,-1,-1,0
1523614456887,-1114112,104,-56,-1,-1,0
1523614456887,-1179648,104,-56,-1,-1,0
1523614456887,-1114112,104,-56,-1,-1,0
1523614456887,-1048576,104,-56,-1,-1,0
1523614456887,-983040,104,-56,-1,-1,0
1523614456927,-851968,104,-56,-1,-1,0
1523614456927,-786432,104,-56,-1,-1,0
1523614456927,-720896,104,-56,-1,-1,0
1523614456927,-589824,104,-56,-1,-1,0
1523614456927,-393216,104,-56,-1,-1,0
1523614456966,-327680,104,-56,-1,-1,0
1523614456966,-327680,104,-56,-1,-1,0
1523614456966,-327680,104,-56,-1,-1,0
1523614456966,-327680,104,-56,-1,-1,0
1523614456966,-327680,104,-56,-1,-1,0
1523614457006,-393216,105,-56,-1,-1,0
1523614457006,-393216,105,-56,-1,-1,0
1523614457006,-393216,105,-56,-1,-1,0
1523614457006,-393216,105,-56,-1,-1,0
1523614457006,-327680,105,-56,-1,-1,0
1523614457046,-393216,105,-56,-1,-1,0
1523614457046,-393216,105,-56,-1,-1,0
1523614457046,-393216,105,-56,-1,-1,0
1523614457046,-458752,105,-56,-1,-1,0
1523614457046,-524288,105,-56,-1,-1,0
1523614457086,-524288,105,-56,-1,-1,0
1523614457086,-524288,105,-56,-1,-1,0
1523614457086,-524288,105,-56,-1,-1,0
1523614457086,-589824,105,-56,-1,-1,0
1523614457086,-655360,105,-56,-1,-1,0
1523614457126,-655360,105,-56,-1,-1,0
1523614457126,-655360,105,-56,-1,-1,0
1523614457126,-589824,105,-56,-1,-1,0
1523614457126,-524288,105,-56,-1,-1,0
1523614457126,-655360,105,-56,-1,-1,0
1523614457166,-851968,105,-56,-1,-1,0
1523614457166,0,105,-56,-1,-1,0
1523614457166,3801088,105,-56,-1,-1,0
1523614457166,7995392,105,-56,-1,-1,0
1523614457166,6488064,105,-56,-1,-1,0
1523614457207,1376256,105,-56,-1,-1,0
1523614457207,-1441792,105,-56,-1,-1,0
1523614457207,-917504,105,-56,-1,-1,0
1523614457207,-393216,105,-56,-1,-1,0
1523614457207,-327680,105,-56,-1,-1,0
1523614457246,-262144,105,-56,-1,-1,0
1523614457246,-196608,105,-56,-1,-1,0
1523614457246,-65536,105,-56,-1,-1,0
1523614457246,-65536,105,-56,-1,-1,0
1523614457246,0,105,-56,-1,-1,0
1523614457287,0,105,-56,-1,-1,0
1523614457287,131072,105,-56,-1,-1,0
1523614457287,262144,105,-56,-1,-1,0
1523614457287,458752,105,-56,-1,-1,0
1523614457287,655360,105,-56,-1,-1,0
1523614457326,917504,105,-56,-1,-1,0
1523614457326,1245184,105,-56,-1,-1,0
1523614457326,1572864,105,-56,-1,-1,0
1523614457326,1835008,105,-56,-1,-1,0
1523614457326,1900544,105,-56,-1,-1,0
1523614457366,1835008,105,-56,-1,-1,0
1523614457366,1703936,105,-56,-1,-1,0
1523614457366,1441792,105,-56,-1,-1,0
1523614457366,1048576,105,-56,-1,-1,0
1523614457366,720896,105,-56,-1,-1,0
1523614457408,327680,105,-56,-1,-1,0
1523614457408,0,105,-56,-1,-1,0
1523614457408,-196608,105,-56,-1,-1,0
1523614457408,-327680,105,-56,-1,-1,0
1523614457408,-524288,105,-56,-1,-1,0
1523614457446,-589824,105,-56,-1,-1,0
1523614457446,-655360,105,-56,-1,-1,0
1523614457446,-720896,105,-56,-1,-1,0
1523614457446,-720896,105,-56,-1,-1,0
1523614457446,-720896,105,-56,-1,-1,0
1523614457486,-655360,105,-56,-1,-1,0
1523614457486,-655360,105,-56,-1,-1,0
1523614457486,-524288,105,-56,-1,-1,0
1523614457486,-393216,105,-56,-1,-1,0
1523614457486,-327680,105,-56,-1,-1,0
1523614457526,-327680,105,-56,-1,-1,0
1523614457526,-393216,105,-56,-1,-1,0
1523614457526,-393216,105,-56,-1,-1,0
1523614457526,-327680,105,-56,-1,-1,0
1523614457526,-327680,105,-56,-1,-1,0
1523614457566,-327680,105,-56,-1,-1,0
1523614457566,-393216,105,-56,-1,-1,0
1523614457566,-458752,105,-56,-1,-1,0
1523614457566,-393216,105,-56,-1,-1,0
1523614457566,-393216,105,-56,-1,-1,0
1523614457606,-393216,105,-56,-1,-1,0
1523614457606,-458752,105,-56,-1,-1,0
1523614457606,-524288,105,-56,-1,-1,0
1523614457606,-524288,105,-56,-1,-1,0
1523614457606,-458752,105,-56,-1,-1,0
1523614457646,-327680,105,-56,-1,-1,0
1523614457646,-327680,105,-56,-1,-1,0
1523614457646,-393216,105,-56,-1,-1,0
1523614457646,-524288,105,-56,-1,-1,0
1523614457646,-458752,105,-56,-1,-1,0
1523614457686,-458752,105,-56,-1,-1,0
1523614457686,-458752,105,-56,-1,-1,0
1523614457686,-458752,105,-56,-1,-1,0
1523614457686,-589824,105,-56,-1,-1,0
1523614457686,-720896,105,-56,-1,-1,0
1523614457726,196608,105,-56,-1,-1,0
1523614457726,4063232,105,-56,-1,-1,0
1523614457726,8323072,105,-56,-1,-1,0
1523614457726,7143424,105,-56,-1,-1,0
1523614457726,2162688,105,-56,-1,-1,0
1523614457766,-851968,105,-56,-1,-1,0
1523614457766,-524288,105,-56,-1,-1,0
1523614457766,-131072,105,-56,-1,-1,0
1523614457766,-65536,105,-56,-1,-1,0
1523614457766,0,105,-56,-1,-1,0
1523614457807,0,105,-56,-1,-1,0
1523614457807,65536,105,-56,-1,-1,0
1523614457807,131072,105,-56,-1,-1,0
1523614457807,262144,105,-56,-1,-1,0
1523614457807,327680,105,-56,-1,-1,0
1523614457846,524288,105,-56,-1,-1,0
1523614457846,589824,105,-56,-1,-1,0
1523614457846,720896,105,-56,-1,-1,0
1523614457846,917504,105,-56,-1,-1,0
1523614457846,1179648,105,-56,-1,-1,0
1523614457886,1572864,105,-56,-1,-1,0
1523614457886,1900544,105,-56,-1,-1,0
1523614457886,2162688,105,-56,-1,-1,0
1523614457886,2293760,105,-56,-1,-1,0
1523614457886,2293760,105,-56,-1,-1,0
1523614457926,2228224,105,-56,-1,-1,0
1523614457926,2031616,105,-56,-1,-1,0
1523614457926,1638400,105,-56,-1,-1,0
1523614457926,1310720,105,-56,-1,-1,0
1523614457926,917504,105,-56,-1,-1,0
1523614457966,655360,105,-56,-1,-1,0
1523614457966,393216,105,-56,-1,-1,0
1523614457966,262144,105,-56,-1,-1,0
1523614457966,131072,105,-56,-1,-1,0
1523614457966,0,105,-56,-1,-1,0
1523614458006,0,105,-56,-1,-1,0
1523614458006,0,105,-56,-1,-1,0
1523614458006,0,105,-56,-1,-1,0
1523614458006,-65536,105,-56,-1,-1,0
1523614458006,0,105,-56,-1,-1,0
1523614458048,0,105,-56,-1,-1,0
1523614458048,65536,105,-56,-1,-1,0
1523614458048,131072,105,-56,-1,-1,0
1523614458048,196608,105,-56,-1,-1,0
1523614458048,196608,105,-56,-1,-1,0
1523614458086,196608,105,-56,-1,-1,0
1523614458086,131072,105,-56,-1,-1,0
1523614458086,196608,105,-56,-1,-1,0
1523614458086,196608,105,-56,-1,-1,0
1523614458086,131072,105,-56,-1,-1,0
1523614458126,65536,106,-56,-1,-1,0
1523614458126,65536,106,-56,-1,-1,0
1523614458126,65536,106,-56,-1,-1,0
1523614458126,65536,106,-56,-1,-1,0
1523614458126,0,106,-56,-1,-1,0
1523614458166,0,106,-56,-1,-1,0
1523614458166,0,106,-56,-1,-1,0
1523614458166,-131072,106,-56,-1,-1,0
1523614458166,-131072,106,-56,-1,-1,0
1523614458166,-131072,106,-56,-1,-1,0
1523614458206,-131072,106,-56,-1,-1,0
1523614458206,-196608,106,-56,-1,-1,0
1523614458206,-262144,106,-56,-1,-1,0
1523614458206,-262144,106,-56,-1,-1,0
1523614458206,-327680,106,-56,-1,-1,0
1523614458246,-262144,106,-56,-1,-1,0
1523614458246,-262144,106,-56,-1,-1,0
1523614458246,-262144,106,-56,-1,-1,0
1523614458246,-458752,106,-56,-1,-1,0
1523614458246,-589824,106,-56,-1,-1,0
1523614458286,524288,106,-56,-1,-1,0
1523614458286,4587520,106,-56,-1,-1,0
1523614458286,8781824,106,-56,-1,-1,0
1523614458286,6881280,106,-56,-1,-1,0
1523614458286,1769472,106,-56,-1,-1,0
1523614458326,-917504,106,-56,-1,-1,0
1523614458326,-524288,106,-56,-1,-1,0
1523614458326,-262144,106,-56,-1,-1,0
1523614458326,-393216,106,-56,-1,-1,0
1523614458326,-393216,106,-56,-1,-1,0
1523614458366,-393216,106,-56,-1,-1,0
1523614458366,-262144,106,-56,-1,-1,0
1523614458366,-196608,106,-56,-1,-1,0
1523614458366,-131072,106,-56,-1,-1,0
1523614458366,-65536,106,-56,-1,-1,0
1523614458406,-131072,106,-56,-1,-1,0
1523614458406,-65536,106,-56,-1,-1,0
1523614458406,65536,106,-56,-1,-1,0
1523614458406,458752,106,-56,-1,-1,0
1523614458406,1048576,106,-56,-1,-1,0
1523614458446,1507328,106,-56,-1,-1,0
1523614458446,1638400,106,-56,-1,-1,0
1523614458446,1769472,106,-56,-1,-1,0
1523614458446,1769472,106,-56,-1,-1,0
1523614458446,1376256,106,-56,-1,-1,0
1523614458486,655360,106,-56,-1,-1,0
1523614458486,327680,106,-56,-1,-1,0
1523614458486,-458752,106,-56,-1,-1,0
1523614458486,-1376256,106,-56,-1,-1,0
1523614458486,-1507328,106,-56,-1,-1,0
1523614458527,-983040,106,-56,-1,-1,0
1523614458527,-458752,106,-56,-1,-1,0
1523614458527,-196608,106,-56,-1,-1,0
1523614458527,0,106,-56,-1,-1,0
1523614458527,-196608,106,-56,-1,-1,0
1523614458566,-458752,106,-56,-1,-1,0
1523614458566,-589824,106,-56,-1,-1,0
1523614458566,-655360,106,-56,-1,-1,0
1523614458566,-720896,106,-56,-1,-1,0
1523614458566,-720896,106,-56,-1,-1,0
1523614458607,-655360,106,-56,-1,-1,0
1523614458607,-655360,106,-56,-1,-1,0
1523614458607,-720896,106,-56,-1,-1,0
1523614458607,-655360,106,-56,-1,-1,0
1523614458607,-524288,106,-56,-1,-1,0
1523614458646,-589824,106,-56,-1,-1,0
1523614458646,-589824,106,-56,-1,-1,0
1523614458646,-589824,106,-56,-1,-1,0
1523614458646,-458752,106,-56,-1,-1,0
1523614458646,-327680,106,-56,-1,-1,0
1523614458691,-262144,107,-56,-1,-1,0
1523614458691,-196608,107,-56,-1,-1,0
1523614458691,-262144,107,-56,-1,-1,0
1523614458691,-327680,107,-56,-1,-1,0
1523614458691,-262144,107,-56,-1,-1,0
1523614458726,-65536,107,-56,-1,-1,0
1523614458726,131072,107,-56,-1,-1,0
1523614458726,393216,107,-56,-1,-1,0
1523614458726,262144,107,-56,-1,-1,0
1523614458726,-65536,107,-56,-1,-1,0
1523614458767,-131072,107,-56,-1,-1,0
1523614458767,-65536,107,-56,-1,-1,0
1523614458767,-65536,107,-56,-1,-1,0
1523614458767,-131072,107,-56,-1,-1,0
1523614458767,-65536,107,-56,-1,-1,0
1523614458806,-196608,107,-56,-1,-1,0
1523614458806,-262144,107,-56,-1,-1,0
1523614458806,-131072,107,-56,-1,-1,0
1523614458806,-65536,107,-56,-1,-1,0
1523614458806,0,107,-56,-1,-1,0
1523614458847,917504,107,-56,-1,-1,0
1523614458847,4849664,107,-56,-1,-1,0
1523614458847,8519680,107,-56,-1,-1,0
1523614458847,5832704,107,-56,-1,-1,0
1523614458847,196608,107,-56,-1,-1,0
1523614458887,-1835008,107,-56,-1,-1,0
1523614458887,-327680,107,-56,-1,-1,0
1523614458887,196608,107,-56,-1,-1,0
1523614458887,131072,107,-56,-1,-1,0
1523614458887,196608,107,-56,-1,-1,0
1523614458926,65536,107,-56,-1,-1,0
1523614458926,-262144,107,-56,-1,-1,0
1523614458926,-786432,107,-56,-1,-1,0
1523614458926,-589824,107,-56,-1,-1,0
1523614458926,-262144,107,-56,-1,-1,0
1523614458966,262144,107,-56,-1,-1,0
1523614458966,851968,107,-56,-1,-1,0
1523614458966,851968,107,-56,-1,-1,0
1523614458966,851968,107,-56,-1,-1,0
1523614458966,1114112,107,-56,-1,-1,0
1523614459006,1507328,107,-56,-1,-1,0
1523614459006,1507328,107,-56,-1,-1,0
1523614459006,1638400,107,-56,-1,-1,0
1523614459006,1900544,107,-56,-1,-1,0
1523614459006,2293760,107,-56,-1,-1,0
1523614459047,2097152,107,-56,-1,-1,0
1523614459047,1769472,107,-56,-1,-1,0
1523614459047,1310720,107,-56,-1,-1,0
1523614459047,786432,107,-56,-1,-1,0
1523614459047,196608,107,-56,-1,-1,0
1523614459086,-262144,107,-56,-1,-1,0
1523614459086,-720896,107,-56,-1,-1,0
1523614459086,-917504,107,-56,-1,-1,0
1523614459086,-983040,107,-56,-1,-1,0
1523614459086,-1048576,107,-56,-1,-1,0
1523614459126,-1114112,107,-56,-1,-1,0
1523614459126,-1114112,107,-56,-1,-1,0
1523614459126,-1179648,107,-56,-1,-1,0
1523614459126,-1310720,107,-56,-1,-1,0
1523614459126,-1245184,107,-56,-1,-1,0
1523614459167,-1114112,107,-56,-1,-1,0
1523614459167,-983040,107,-56,-1,-1,0
1523614459167,-786432,107,-56,-1,-1,0
1523614459167,-589824,107,-56,-1,-1,0
1523614459167,-589824,107,-56,-1,-1,0
1523614459208,-589824,107,-56,-1,-1,0
1523614459208,-589824,107,-56,-1,-1,0
1523614459208,-589824,107,-56,-1,-1,0
1523614459208,-655360,107,-56,-1,-1,0
1523614459208,-655360,107,-56,-1,-1,0
1523614459247,-589824,107,-56,-1,-1,0
1523614459247,-524288,107,-56,-1,-1,0
1523614459247,-524288,107,-56,-1,-1,0
1523614459247,-589824,107,-56,-1,-1,0
1523614459247,-655360,107,-56,-1,-1,0
1523614459287,-720896,107,-56,-1,-1,0
1523614459287,-786432,107,-56,-1,-1,0
1523614459287,-786432,107,-56,-1,-1,0
1523614459287,-851968,107,-56,-1,-1,0
1523614459287,-786432,107,-56,-1,-1,0
1523614459328,-720896,107,-56,-1,-1,0
1523614459328,-720896,107,-56,-1,-1,0
1523614459328,-917504,107,-56,-1,-1,0
1523614459328,-917504,107,-56,-1,-1,0
1523614459328,-851968,107,-56,-1,-1,0
1523614459367,-917504,107,-56,-1,-1,0
1523614459367,-1114112,107,-56,-1,-1,0
1523614459367,-1179648,107,-56,-1,-1,0
1523614459367,-1310720,107,-56,-1,-1,0
1523614459367,-1572864,107,-56,-1,-1,0
1523614459407,-327680,107,-56,-1,-1,0
1523614459407,3997696,107,-56,-1,-1,0
1523614459407,8323072,107,-56,-1,-1,0
1523614459407,6160384,107,-56,-1,-1,0
1523614459407,851968,107,-56,-1,-1,0
1523614459447,-1769472,107,-56,-1,-1,0
1523614459447,-1245184,107,-56,-1,-1,0
1523614459447,-917504,107,-56,-1,-1,0
1523614459447,-851968,107,-56,-1,-1,0
1523614459447,-589824,107,-56,-1,-1,0
1523614459487,-589824,107,-56,-1,-1,0
1523614459487,-524288,107,-56,-1,-1,0
1523614459487,-589824,107,-56,-1,-1,0
1523614459487,-327680,107,-56,-1,-1,0
1523614459487,-327680,107,-56,-1,-1,0
1523614459527,-262144,107,-56,-1,-1,0
1523614459527,-131072,107,-56,-1,-1,0
1523614459527,65536,107,-56,-1,-1,0
1523614459527,327680,107,-56,-1,-1,0
1523614459527,589824,107,-56,-1,-1,0
1523614459567,917504,107,-56,-1,-1,0
1523614459567,1310720,107,-56,-1,-1,0
1523614459567,1572864,107,-56,-1,-1,0
1523614459567,1703936,107,-56,-1,-1,0
1523614459567,1769472,107,-56,-1,-1,0
1523614459607,1638400,107,-56,-1,-1,0
1523614459607,1441792,107,-56,-1,-1,0
1523614459607,1048576,107,-56,-1,-1,0
1523614459607,589824,107,-56,-1,-1,0
1523614459607,131072,107,-56,-1,-1,0
1523614459647,-196608,107,-56,-1,-1,0
1523614459647,-524288,107,-56,-1,-1,0
1523614459647,-720896,107,-56,-1,-1,0
1523614459647,-851968,107,-56,-1,-1,0
1523614459647,-917504,107,-56,-1,-1,0
1523614459687,-983040,107,-56,-1,-1,0
1523614459687,-983040,107,-56,-1,-1,0
1523614459687,-1114112,107,-56,-1,-1,0
1523614459687,-1179648,107,-56,-1,-1,0
1523614459687,-1245184,107,-56,-1,-1,0
1523614459727,-1048576,107,-56,-1,-1,0
1523614459727,-917504,107,-56,-1,-1,0
1523614459727,-720896,107,-56,-1,-1,0
1523614459727,-655360,107,-56,-1,-1,0
1523614459727,-589824,107,-56,-1,-1,0
1523614459767,-458752,107,-56,-1,-1,0
1523614459767,-393216,107,-56,-1,-1,0
1523614459767,-393216,107,-56,-1,-1,0
1523614459767,-393216,107,-56,-1,-1,0
1523614459767,-393216,107,-56,-1,-1,0
1523614459807,-393216,107,-56,-1,-1,0
1523614459807,-327680,107,-56,-1,-1,0
1523614459807,-393216,107,-56,-1,-1,0
1523614459807,-458752,107,-56,-1,-1,0
1523614459807,-589824,107,-56,-1,-1,0
1523614459847,-655360,107,-56,-1,-1,0
1523614459847,-655360,107,-56,-1,-1,0
1523614459847,-720896,107,-56,-1,-1,0
1523614459847,-786432,107,-56,-1,-1,0
1523614459847,-851968,107,-56,-1,-1,0
1523614459887,-851968,107,-56,-1,-1,0
1523614459887,-720896,107,-56,-1,-1,0
1523614459887,-589824,107,-56,-1,-1,0
1523614459887,-655360,107,-56,-1,-1,0
1523614459887,-786432,107,-56,-1,-1,0
1523614459927,-786432,107,-56,-1,-1,0
1523614459927,-720896,107,-56,-1,-1,0
1523614459927,-720896,107,-56,-1,-1,0
1523614459927,-720896,107,-56,-1,-1,0
1523614459927,-720896,107,-56,-1,-1,0
1523614459968,-917504,107,-56,-1,-1,0
1523614459968,-1179648,107,-56,-1,-1,0
1523614459968,65536,107,-56,-1,-1,0
1523614459968,4456448,107,-56,-1,-1,0
1523614459968,8781824,107,-56,-1,-1,0
1523614460007,6946816,107,-56,-1,-1,0
1523614460007,1835008,107,-56,-1,-1,0
1523614460007,-786432,107,-56,-1,-1,0
1523614460007,-524288,107,-56,-1,-1,0
1523614460007,-196608,107,-56,-1,-1,0
1523614460047,-196608,107,-56,-1,-1,0
1523614460047,-131072,107,-56,-1,-1,0
1523614460047,-131072,107,-56,-1,-1,0
1523614460047,-65536,107,-56,-1,-1,0
1523614460047,0,107,-56,-1,-1,0
1523614460087,0,107,-56,-1,-1,0
1523614460087,0,107,-56,-1,-1,0
1523614460087,0,107,-56,-1,-1,0
1523614460087,65536,107,-56,-1,-1,0
1523614460087,262144,107,-56,-1,-1,0
1523614460127,458752,107,-56,-1,-1,0
1523614460127,720896,107,-56,-1,-1,0
1523614460127,1114112,107,-56,-1,-1,0
1523614460127,1507328,107,-56,-1,-1,0
1523614460127,1835008,107,-56,-1,-1,0
1523614460167,2031616,107,-56,-1,-1,0
1523614460167,2162688,107,-56,-1,-1,0
1523614460167,2097152,107,-56,-1,-1,0
1523614460167,2031616,107,-56,-1,-1,0
1523614460167,1638400,107,-56,-1,-1,0
1523614460207,1179648,107,-56,-1,-1,0
1523614460207,720896,107,-56,-1,-1,0
1523614460207,327680,107,-56,-1,-1,0
1523614460207,-65536,107,-56,-1,-1,0
1523614460207,-327680,107,-56,-1,-1,0
1523614460247,-393216,107,-56,-1,-1,0
1523614460247,-458752,107,-56,-1,-1,0
1523614460247,-589824,107,-56,-1,-1,0
1523614460247,-655360,107,-56,-1,-1,0
1523614460247,-720896,107,-56,-1,-1,0
1523614460287,-786432,107,-56,-1,-1,0
1523614460287,-851968,107,-56,-1,-1,0
1523614460287,-786432,107,-56,-1,-1,0
1523614460287,-786432,107,-56,-1,-1,0
1523614460287,-720896,107,-56,-1,-1,0
1523614460327,-720896,107,-56,-1,-1,0
1523614460327,-655360,107,-56,-1,-1,0
1523614460327,-655360,107,-56,-1,-1,0
1523614460327,-589824,107,-56,-1,-1,0
1523614460327,-524288,107,-56,-1,-1,0
1523614460367,-458752,107,-56,-1,-1,0
1523614460367,-524288,107,-56,-1,-1,0
1523614460367,-589824,107,-56,-1,-1,0
1523614460367,-589824,107,-56,-1,-1,0
1523614460367,-655360,107,-56,-1,-1,0
1523614460407,-720896,107,-56,-1,-1,0
1523614460407,-786432,107,-56,-1,-1,0
1523614460407,-851968,107,-56,-1,-1,0
1523614460407,-851968,107,-56,-1,-1,0
1523614460407,-917504,107,-56,-1,-1,0
1523614460448,-917504,107,-56,-1,-1,0
1523614460448,-1048576,107,-56,-1,-1,0
1523614460448,-1114112,107,-56,-1,-1,0
1523614460448,-1179648,107,-56,-1,-1,0
1523614460448,-1179648,107,-56,-1,-1,0
1523614460487,-1114112,107,-56,-1,-1,0
1523614460487,-1048576,107,-56,-1,-1,0
1523614460487,-983040,107,-56,-1,-1,0
1523614460487,-1114112,107,-56,-1,-1,0
1523614460487,-1179648,107,-56,-1,-1,0
1523614460527,-1179648,107,-56,-1,-1,0
1523614460527,-1114112,107,-56,-1,-1,0
1523614460527,-1114112,107,-56,-1,-1,0
1523614460527,-1114112,107,-56,-1,-1,0
1523614460527,-1245184,107,-56,-1,-1,0
1523614460567,-1507328,107,-56,-1,-1,0
1523614460567,-589824,107,-56,-1,-1,0
1523614460567,3276800,107,-56,-1,-1,0
1523614460567,8257536,107,-56,-1,-1,0
1523614460567,7733248,107,-56,-1,-1,0
1523614460608,2752512,107,-56,-1,-1,0
1523614460608,-983040,107,-56,-1,-1,0
1523614460608,-917504,107,-56,-1,-1,0
1523614460608,-524288,107,-56,-1,-1,0
1523614460608,-589824,107,-56,-1,-1,0
1523614460647,-655360,107,-56,-1,-1,0
1523614460647,-655360,107,-56,-1,-1,0
1523614460647,-589824,107,-56,-1,-1,0
1523614460647,-524288,107,-56,-1,-1,0
1523614460647,-458752,107,-56,-1,-1,0
1523614460687,-262144,107,-56,-1,-1,0
1523614460687,-131072,107,-56,-1,-1,0
1523614460687,-131072,107,-56,-1,-1,0
1523614460687,-65536,107,-56,-1,-1,0
1523614460687,131072,107,-56,-1,-1,0
1523614460727,393216,107,-56,-1,-1,0
1523614460727,720896,107,-56,-1,-1,0
1523614460727,1048576,107,-56,-1,-1,0
1523614460727,1376256,107,-56,-1,-1,0
1523614460727,1638400,107,-56,-1,-1,0
1523614460767,1900544,107,-56,-1,-1,0
1523614460767,1900544,107,-56,-1,-1,0
1523614460767,1769472,107,-56,-1,-1,0
1523614460767,1441792,107,-56,-1,-1,0
1523614460767,917504,107,-56,-1,-1,0
1523614460807,393216,107,-56,-1,-1,0
1523614460807,0,107,-56,-1,-1,0
1523614460807,-327680,107,-56,-1,-1,0
1523614460807,-589824,107,-56,-1,-1,0
1523614460807,-786432,107,-56,-1,-1,0
1523614460847,-851968,107,-56,-1,-1,0
1523614460847,-917504,107,-56,-1,-1,0
1523614460847,-983040,107,-56,-1,-1,0
1523614460847,-917504,107,-56,-1,-1,0
1523614460847,-917504,107,-56,-1,-1,0
1523614460887,-983040,107,-56,-1,-1,0
1523614460887,-1048576,107,-56,-1,-1,0
1523614460887,-1048576,107,-56,-1,-1,0
1523614460887,-1048576,107,-56,-1,-1,0
1523614460887,-983040,107,-56,-1,-1,0
1523614460927,-917504,107,-56,-1,-1,0
1523614460927,-851968,107,-56,-1,-1,0
1523614460927,-720896,107,-56,-1,-1,0
1523614460927,-720896,107,-56,-1,-1,0
1523614460927,-720896,107,-56,-1,-1,0
1523614460967,-720896,107,-56,-1,-1,0
1523614460967,-655360,107,-56,-1,-1,0
1523614460967,-655360,107,-56,-1,-1,0
1523614460967,-720896,107,-56,-1,-1,0
1523614460967,-786432,107,-56,-1,-1,0
1523614461007,-786432,107,-56,-1,-1,0
1523614461007,-720896,107,-56,-1,-1,0
1523614461007,-786432,107,-56,-1,-1,0
1523614461007,-786432,107,-56,-1,-1,0
1523614461007,-786432,107,-56,-1,-1,0
1523614461047,-851968,107,-56,-1,-1,0
1523614461047,-917504,107,-56,-1,-1,0
1523614461047,-1048576,107,-56,-1,-1,0
1523614461047,-1114112,107,-56,-1,-1,0
1523614461047,-1179648,107,-56,-1,-1,0
1523614461087,-1114112,107,-56,-1,-1,0
1523614461087,-1048576,107,-56,-1,-1,0
1523614461087,-851968,107,-56,-1,-1,0
1523614461087,-851968,107,-56,-1,-1,0
1523614461087,-917504,107,-56,-1,-1,0
1523614461128,-917504,107,-56,-1,-1,0
1523614461128,-917504,107,-56,-1,-1,0
1523614461128,-917504,107,-56,-1,-1,0
1523614461128,-917504,107,-56,-1,-1,0
1523614461128,-917504,107,-56,-1,-1,0
1523614461167,-1048576,107,-56,-1,-1,0
1523614461167,-1245184,107,-56,-1,-1,0
1523614461167,-655360,107,-56,-1,-1,0
1523614461167,2818048,107,-56,-1,-1,0
1523614461167,7602176,107,-56,-1,-1,0
1523614461207,7602176,107,-56,-1,-1,0
1523614461207,2883584,107,-56,-1,-1,0
1523614461207,-786432,107,-56,-1,-1,0
1523614461207,-917504,107,-56,-1,-1,0
1523614461207,-720896,107,-56,-1,-1,0
1523614461248,-655360,107,-56,-1,-1,0
1523614461248,-589824,107,-56,-1,-1,0
1523614461248,-458752,107,-56,-1,-1,0
1523614461248,-327680,107,-56,-1,-1,0
1523614461248,-262144,107,-56,-1,-1,0
1523614461287,-131072,107,-56,-1,-1,0
1523614461287,-65536,107,-56,-1,-1,0
1523614461287,0,107,-56,-1,-1,0
1523614461287,65536,107,-56,-1,-1,0
1523614461287,131072,107,-56,-1,-1,0
1523614461327,262144,107,-56,-1,-1,0
1523614461327,458752,107,-56,-1,-1,0
1523614461327,720896,107,-56,-1,-1,0
1523614461327,1048576,107,-56,-1,-1,0
1523614461327,1441792,107,-56,-1,-1,0
1523614461367,1769472,107,-56,-1,-1,0
1523614461367,2031616,107,-56,-1,-1,0
1523614461367,2031616,107,-56,-1,-1,0
1523614461367,1769472,107,-56,-1,-1,0
1523614461367,1441792,107,-56,-1,-1,0
1523614461407,983040,107,-56,-1,-1,0
1523614461407,458752,107,-56,-1,-1,0
1523614461407,131072,107,-56,-1,-1,0
1523614461407,0,107,-56,-1,-1,0
1523614461407,-196608,107,-56,-1,-1,0
1523614461447,-393216,107,-56,-1,-1,0
1523614461447,-458752,107,-56,-1,-1,0
1523614461447,-524288,107,-56,-1,-1,0
1523614461447,-655360,107,-56,-1,-1,0
1523614461447,-786432,107,-56,-1,-1,0
1523614461487,-655360,107,-56,-1,-1,0
1523614461487,-720896,107,-56,-1,-1,0
1523614461487,-655360,107,-56,-1,-1,0
1523614461487,-720896,107,-56,-1,-1,0
1523614461487,-720896,107,-56,-1,-1,0
1523614461528,-655360,107,-56,-1,-1,0
1523614461528,-589824,107,-56,-1,-1,0
1523614461528,-524288,107,-56,-1,-1,0
1523614461528,-393216,107,-56,-1,-1,0
1523614461528,-393216,107,-56,-1,-1,0
1523614461567,-524288,107,-56,-1,-1,0
1523614461567,-524288,107,-56,-1,-1,0
1523614461567,-458752,107,-56,-1,-1,0
1523614461567,-458752,107,-56,-1,-1,0
1523614461567,-393216,107,-56,-1,-1,0
1523614461607,-196608,107,-56,-1,-1,0
1523614461607,-262144,107,-56,-1,-1,0
1523614461607,-393216,107,-56,-1,-1,0
1523614461607,-524288,107,-56,-1,-1,0
1523614461607,-524288,107,-56,-1,-1,0
1523614461647,-458752,107,-56,-1,-1,0
1523614461647,-393216,107,-56,-1,-1,0
1523614461647,-524288,107,-56,-1,-1,0
1523614461647,-655360,107,-56,-1,-1,0
1523614461647,-655360,107,-56,-1,-1,0
1523614461687,-655360,107,-56,-1,-1,0
1523614461687,-786432,107,-56,-1,-1,0
1523614461687,-851968,107,-56,-1,-1,0
1523614461687,-786432,107,-56,-1,-1,0
1523614461687,-655360,107,-56,-1,-1,0
1523614461727,-524288,107,-56,-1,-1,0
1523614461727,-327680,107,-56,-1,-1,0
1523614461727,-196608,107,-56,-1,-1,0
1523614461727,-262144,107,-56,-1,-1,0
1523614461727,-393216,107,-56,-1,-1,0
1523614461767,-524288,107,-56,-1,-1,0
1523614461767,-458752,107,-56,-1,-1,0
1523614461767,-393216,107,-56,-1,-1,0
1523614461767,-458752,107,-56,-1,-1,0
1523614461767,-851968,107,-56,-1,-1,0
1523614461807,-393216,107,-56,-1,-1,0
1523614461807,2621440,107,-56,-1,-1,0
1523614461807,7405568,107,-56,-1,-1,0
1523614461807,8454144,107,-56,-1,-1,0
1523614461807,4325376,107,-56,-1,-1,0
1523614461847,65536,107,-56,-1,-1,0
1523614461847,-393216,107,-56,-1,-1,0
1523614461847,-65536,107,-56,-1,-1,0
1523614461847,0,107,-56,-1,-1,0
1523614461847,0,107,-56,-1,-1,0
1523614461888,-131072,107,-56,-1,-1,0
1523614461888,-262144,107,-56,-1,-1,0
1523614461888,0,107,-56,-1,-1,0
1523614461888,262144,107,-56,-1,-1,0
1523614461888,262144,107,-56,-1,-1,0
1523614461927,65536,107,-56,-1,-1,0
1523614461927,262144,107,-56,-1,-1,0
1523614461927,458752,107,-56,-1,-1,0
1523614461927,589824,107,-56,-1,-1,0
1523614461927,786432,107,-56,-1,-1,0
1523614461967,1114112,107,-56,-1,-1,0
1523614461967,1441792,107,-56,-1,-1,0
1523614461967,1638400,107,-56,-1,-1,0
1523614461967,1769472,107,-56,-1,-1,0
1523614461967,1966080,107,-56,-1,-1,0
1523614462007,1835008,107,-56,-1,-1,0
1523614462007,1835008,107,-56,-1,-1,0
1523614462007,1835008,107,-56,-1,-1,0
1523614462007,1769472,107,-56,-1,-1,0
1523614462007,1441792,107,-56,-1,-1,0
1523614462047,851968,107,-56,-1,-1,0
1523614462047,327680,107,-56,-1,-1,0
1523614462047,0,107,-56,-1,-1,0
1523614462047,-196608,107,-56,-1,-1,0
1523614462047,-393216,107,-56,-1,-1,0
1523614462087,-458752,107,-56,-1,-1,0
1523614462087,-524288,107,-56,-1,-1,0
1523614462087,-589824,107,-56,-1,-1,0
1523614462087,-589824,107,-56,-1,-1,0
1523614462087,-589824,107,-56,-1,-1,0
1523614462127,-524288,107,-56,-1,-1,0
1523614462127,-458752,107,-56,-1,-1,0
1523614462127,-458752,107,-56,-1,-1,0
1523614462127,-655360,107,-56,-1,-1,0
1523614462127,-786432,107,-56,-1,-1,0
1523614462167,-655360,107,-56,-1,-1,0
1523614462167,-458752,107,-56,-1,-1,0
1523614462167,-327680,107,-56,-1,-1,0
1523614462167,-262144,107,-56,-1,-1,0
1523614462167,-131072,107,-56,-1,-1,0
1523614462207,-131072,107,-56,-1,-1,0
1523614462207,-196608,107,-56,-1,-1,0
1523614462207,-262144,107,-56,-1,-1,0
1523614462207,-196608,107,-56,-1,-1,0
1523614462207,-131072,107,-56,-1,-1,0
1523614462247,65536,107,-56,-1,-1,0
1523614462247,131072,107,-56,-1,-1,0
1523614462247,-131072,107,-56,-1,-1,0
1523614462247,-524288,107,-56,-1,-1,0
1523614462247,-655360,107,-56,-1,-1,0
1523614462287,-458752,107,-56,-1,-1,0
1523614462287,-327680,107,-56,-1,-1,0
1523614462287,-393216,107,-56,-1,-1,0
1523614462287,-524288,107,-56,-1,-1,0
1523614462287,-327680,107,-56,-1,-1,0
1523614462327,-131072,107,-56,-1,-1,0
1523614462327,-131072,107,-56,-1,-1,0
1523614462327,-196608,107,-56,-1,-1,0
1523614462327,-327680,107,-56,-1,-1,0
1523614462327,-524288,107,-56,-1,-1,0
1523614462367,-524288,107,-56,-1,-1,0
1523614462367,-262144,107,-56,-1,-1,0
1523614462367,-196608,107,-56,-1,-1,0
1523614462367,-327680,107,-56,-1,-1,0
1523614462367,-524288,107,-56,-1,-1,0
1523614462407,-458752,107,-56,-1,-1,0
1523614462407,-262144,107,-56,-1,-1,0
1523614462407,-458752,107,-56,-1,-1,0
1523614462407,-720896,107,-56,-1,-1,0
1523614462407,-655360,107,-56,-1,-1,0
1523614462447,-393216,107,-56,-1,-1,0
1523614462447,-196608,107,-56,-1,-1,0
1523614462447,-262144,107,-56,-1,-1,0
1523614462447,-524288,107,-56,-1,-1,0
1523614462447,-786432,107,-56,-1,-1,0
1523614462487,-720896,107,-56,-1,-1,0
1523614462487,-589824,107,-56,-1,-1,0
1523614462487,-393216,107,-56,-1,-1,0
1523614462487,-262144,107,-56,-1,-1,0
1523614462487,-589824,107,-56,-1,-1,0
1523614462528,-655360,106,-56,-1,-1,0
1523614462528,1310720,106,-56,-1,-1,0
1523614462528,6094848,106,-56,-1,-1,0
1523614462528,9240576,106,-56,-1,-1,0
1523614462528,5767168,106,-56,-1,-1,0
1523614462566,262144,106,-56,-1,-1,0
1523614462566,-1572864,106,-56,-1,-1,0
1523614462566,-1114112,106,-56,-1,-1,0
1523614462566,-458752,106,-56,-1,-1,0
1523614462566,-131072,106,-56,-1,-1,0
1523614462606,-65536,106,-56,-1,-1,0
1523614462606,-524288,106,-56,-1,-1,0
1523614462606,-720896,106,-56,-1,-1,0
1523614462606,-786432,106,-56,-1,-1,0
1523614462606,-589824,106,-56,-1,-1,0
1523614462646,-327680,106,-56,-1,-1,0
1523614462646,0,106,-56,-1,-1,0
1523614462646,0,106,-56,-1,-1,0
1523614462646,-65536,106,-56,-1,-1,0
1523614462646,-262144,106,-56,-1,-1,0
1523614462686,-196608,106,-56,-1,-1,0
1523614462686,196608,106,-56,-1,-1,0
1523614462686,917504,106,-56,-1,-1,0
1523614462686,1441792,106,-56,-1,-1,0
1523614462686,1507328,106,-56,-1,-1,0
1523614462726,1376256,106,-56,-1,-1,0
1523614462726,1245184,106,-56,-1,-1,0
1523614462726,1114112,106,-56,-1,-1,0
1523614462726,786432,106,-56,-1,-1,0
1523614462726,458752,106,-56,-1,-1,0
1523614462766,196608,106,-56,-1,-1,0
1523614462766,-196608,106,-56,-1,-1,0
1523614462766,-589824,106,-56,-1,-1,0
1523614462766,-851968,106,-56,-1,-1,0
1523614462766,-1114112,106,-56,-1,-1,0
1523614462806,-1310720,106,-56,-1,-1,0
1523614462806,-1376256,106,-56,-1,-1,0
1523614462806,-1441792,106,-56,-1,-1,0
1523614462806,-1638400,106,-56,-1,-1,0
1523614462806,-1638400,106,-56,-1,-1,0
1523614462846,-1507328,106,-56,-1,-1,0
1523614462846,-1507328,106,-56,-1,-1,0
1523614462846,-1507328,106,-56,-1,-1,0
1523614462846,-1310720,106,-56,-1,-1,0
1523614462846,-1310720,106,-56,-1,-1,0
1523614462886,-1245184,106,-56,-1,-1,0
1523614462886,-1114112,106,-56,-1,-1,0
1523614462886,-983040,106,-56,-1,-1,0
1523614462886,-917504,106,-56,-1,-1,0
1523614462886,-786432,106,-56,-1,-1,0
1523614462926,-720896,106,-56,-1,-1,0
1523614462926,-786432,106,-56,-1,-1,0
1523614462926,-917504,106,-56,-1,-1,0
1523614462926,-1179648,106,-56,-1,-1,0
1523614462926,-1376256,106,-56,-1,-1,0
1523614462966,-1310720,106,-56,-1,-1,0
1523614462966,-1179648,106,-56,-1,-1,0
1523614462966,-1245184,106,-56,-1,-1,0
1523614462966,-1179648,106,-56,-1,-1,0
1523614462966,-917504,106,-56,-1,-1,0
1523614463006,-917504,106,-56,-1,-1,0
1523614463006,-1048576,106,-56,-1,-1,0
1523614463006,-983040,106,-56,-1,-1,0
1523614463006,-1114112,106,-56,-1,-1,0
1523614463006,-1245184,106,-56,-1,-1,0
1523614463046,-1179648,106,-56,-1,-1,0
1523614463046,-917504,106,-56,-1,-1,0
1523614463046,-1048576,106,-56,-1,-1,0
1523614463046,-1179648,106,-56,-1,-1,0
1523614463046,-983040,106,-56,-1,-1,0
1523614463086,-851968,106,-56,-1,-1,0
1523614463086,-1048576,106,-56,-1,-1,0
1523614463086,-1114112,106,-56,-1,-1,0
1523614463086,-1179648,106,-56,-1,-1,0
1523614463086,-1507328,106,-56,-1,-1,0
1523614463126,-1572864,106,-56,-1,-1,0
1523614463126,-1310720,106,-56,-1,-1,0
1523614463126,-1114112,106,-56,-1,-1,0
1523614463126,-1179648,106,-56,-1,-1,0
1523614463126,-1310720,106,-56,-1,-1,0
1523614463168,-1310720,106,-56,-1,-1,0
1523614463168,-1114112,106,-56,-1,-1,0
1523614463168,-1048576,106,-56,-1,-1,0
1523614463168,-1179648,106,-56,-1,-1,0
1523614463168,-1507328,106,-56,-1,-1,0
1523614463206,-1376256,106,-56,-1,-1,0
1523614463206,-1048576,106,-56,-1,-1,0
1523614463206,-1114112,106,-56,-1,-1,0
1523614463206,-1179648,106,-56,-1,-1,0
1523614463206,-1114112,106,-56,-1,-1,0
1523614463246,-1310720,105,-56,-1,-1,0
1523614463246,-1703936,105,-56,-1,-1,0
1523614463246,-720896,105,-56,-1,-1,0
1523614463246,3014656,105,-56,-1,-1,0
1523614463246,7536640,105,-56,-1,-1,0
1523614463286,6881280,105,-56,-1,-1,0
1523614463286,1900544,105,-56,-1,-1,0
1523614463286,-1703936,105,-56,-1,-1,0
1523614463286,-1507328,105,-56,-1,-1,0
1523614463286,-1114112,105,-56,-1,-1,0
1523614463326,-983040,105,-56,-1,-1,0
1523614463326,-917504,105,-56,-1,-1,0
1523614463326,-786432,105,-56,-1,-1,0
1523614463326,-720896,105,-56,-1,-1,0
1523614463326,-917504,105,-56,-1,-1,0
1523614463366,-786432,105,-56,-1,-1,0
1523614463366,-524288,105,-56,-1,-1,0
1523614463366,-262144,105,-56,-1,-1,0
1523614463366,-65536,105,-56,-1,-1,0
1523614463366,131072,105,-56,-1,-1,0
1523614463406,327680,105,-56,-1,-1,0
1523614463406,262144,105,-56,-1,-1,0
1523614463406,327680,105,-56,-1,-1,0
1523614463406,917504,105,-56,-1,-1,0
1523614463406,1572864,105,-56,-1,-1,0
1523614463446,1900544,105,-56,-1,-1,0
1523614463446,1966080,105,-56,-1,-1,0
1523614463446,2031616,105,-56,-1,-1,0
1523614463446,1900544,105,-56,-1,-1,0
1523614463446,1572864,105,-56,-1,-1,0
1523614463486,1048576,105,-56,-1,-1,0
1523614463486,458752,105,-56,-1,-1,0
1523614463486,196608,105,-56,-1,-1,0
1523614463486,0,105,-56,-1,-1,0
1523614463486,-131072,105,-56,-1,-1,0
1523614463526,-393216,105,-56,-1,-1,0
1523614463526,-458752,105,-56,-1,-1,0
1523614463526,-589824,105,-56,-1,-1,0
1523614463526,-786432,105,-56,-1,-1,0
1523614463526,-851968,105,-56,-1,-1,0
1523614463566,-786432,105,-56,-1,-1,0
1523614463566,-786432,105,-56,-1,-1,0
1523614463566,-917504,105,-56,-1,-1,0
1523614463566,-786432,105,-56,-1,-1,0
1523614463566,-458752,105,-56,-1,-1,0
1523614463608,-196608,105,-56,-1,-1,0
1523614463608,-393216,105,-56,-1,-1,0
1523614463608,-524288,105,-56,-1,-1,0
1523614463608,-458752,105,-56,-1,-1,0
1523614463608,-262144,105,-56,-1,-1,0
1523614463646,-131072,105,-56,-1,-1,0
1523614463646,-65536,105,-56,-1,-1,0
1523614463646,-131072,105,-56,-1,-1,0
1523614463646,-327680,105,-56,-1,-1,0
1523614463646,-524288,105,-56,-1,-1,0
1523614463686,-524288,105,-56,-1,-1,0
1523614463686,-589824,105,-56,-1,-1,0
1523614463686,-720896,105,-56,-1,-1,0
1523614463686,-720896,105,-56,-1,-1,0
1523614463686,-655360,105,-56,-1,-1,0
1523614463726,-589824,105,-56,-1,-1,0
1523614463726,-720896,105,-56,-1,-1,0
1523614463726,-983040,105,-56,-1,-1,0
1523614463726,-1048576,105,-56,-1,-1,0
1523614463726,-1048576,105,-56,-1,-1,0
1523614463766,-1048576,105,-56,-1,-1,0
1523614463766,-1114112,105,-56,-1,-1,0
1523614463766,-1245184,105,-56,-1,-1,0
1523614463766,-1245184,105,-56,-1,-1,0
1523614463766,-1245184,105,-56,-1,-1,0
1523614463808,-1179648,105,-56,-1,-1,0
1523614463808,-1179648,105,-56,-1,-1,0
1523614463808,-1114112,105,-56,-1,-1,0
1523614463808,-1114112,105,-56,-1,-1,0
1523614463808,-1179648,105,-56,-1,-1,0
1523614463846,-1376256,105,-56,-1,-1,0
1523614463846,-1572864,105,-56,-1,-1,0
1523614463846,-1441792,105,-56,-1,-1,0
1523614463846,-1179648,105,-56,-1,-1,0
1523614463846,-1114112,105,-56,-1,-1,0
1523614463886,-1048576,104,-56,-1,-1,0
1523614463886,-1048576,104,-56,-1,-1,0
1523614463886,-1114112,104,-56,-1,-1,0
1523614463886,-1179648,104,-56,-1,-1,0
1523614463886,-1114112,104,-56,-1,-1,0
1523614463926,-1114112,104,-56,-1,-1,0
1523614463926,-1114112,104,-56,-1,-1,0
1523614463926,-1245184,104,-56,-1,-1,0
1523614463926,-1245184,104,-56,-1,-1,0
1523614463926,589824,104,-56,-1,-1,0
1523614463966,5439488,104,-56,-1,-1,0
1523614463966,8781824,104,-56,-1,-1,0
1523614463966,5505024,104,-56,-1,-1,0
1523614463966,327680,104,-56,-1,-1,0
1523614463966,-1114112,104,-56,-1,-1,0
1523614464006,-393216,104,-56,-1,-1,0
1523614464006,131072,104,-56,-1,-1,0
1523614464006,327680,104,-56,-1,-1,0
1523614464006,393216,104,-56,-1,-1,0
1523614464006,458752,104,-56,-1,-1,0
1523614464046,720896,104,-56,-1,-1,0
1523614464046,786432,104,-56,-1,-1,0
1523614464046,983040,104,-56,-1,-1,0
1523614464046,851968,104,-56,-1,-1,0
1523614464046,1048576,104,-56,-1,-1,0
1523614464086,1245184,104,-56,-1,-1,0
1523614464086,1572864,104,-56,-1,-1,0
1523614464086,1900544,104,-56,-1,-1,0
1523614464086,2228224,104,-56,-1,-1,0
1523614464086,2359296,104,-56,-1,-1,0
1523614464126,2752512,104,-56,-1,-1,0
1523614464126,3342336,104,-56,-1,-1,0
1523614464126,3735552,104,-56,-1,-1,0
1523614464126,3604480,104,-56,-1,-1,0
1523614464126,3211264,104,-56,-1,-1,0
1523614464166,3080192,104,-56,-1,-1,0
1523614464166,2949120,104,-56,-1,-1,0
1523614464166,2621440,104,-56,-1,-1,0
1523614464166,2162688,104,-56,-1,-1,0
1523614464166,1507328,104,-56,-1,-1,0
1523614464206,917504,104,-56,-1,-1,0
1523614464206,589824,104,-56,-1,-1,0
1523614464206,262144,104,-56,-1,-1,0
1523614464206,65536,104,-56,-1,-1,0
1523614464206,65536,104,-56,-1,-1,0
1523614464246,0,104,-56,-1,-1,0
1523614464246,-196608,104,-56,-1,-1,0
1523614464246,-393216,104,-56,-1,-1,0
1523614464246,-393216,104,-56,-1,-1,0
1523614464246,-131072,104,-56,-1,-1,0
1523614464286,0,104,-56,-1,-1,0
1523614464286,-65536,104,-56,-1,-1,0
1523614464286,-196608,104,-56,-1,-1,0
1523614464286,-262144,104,-56,-1,-1,0
1523614464286,-262144,104,-56,-1,-1,0
1523614464326,-131072,104,-56,-1,-1,0
1523614464326,-65536,104,-56,-1,-1,0
1523614464326,0,104,-56,-1,-1,0
1523614464326,65536,104,-56,-1,-1,0
1523614464326,65536,104,-56,-1,-1,0
1523614464366,0,104,-56,-1,-1,0
1523614464366,-131072,104,-56,-1,-1,0
1523614464366,-262144,104,-56,-1,-1,0
1523614464366,0,104,-56,-1,-1,0
1523614464366,-65536,104,-56,-1,-1,0
1523614464406,-262144,104,-56,-1,-1,0
1523614464406,-393216,104,-56,-1,-1,0
1523614464406,-131072,104,-56,-1,-1,0
1523614464406,-65536,104,-56,-1,-1,0
1523614464406,-262144,104,-56,-1,-1,0
1523614464448,-458752,104,-56,-1,-1,0
1523614464448,-458752,104,-56,-1,-1,0
1523614464448,-458752,104,-56,-1,-1,0
1523614464448,-458752,104,-56,-1,-1,0
1523614464448,-393216,104,-56,-1,-1,0
1523614464486,-393216,103,-56,-1,-1,0
1523614464486,-655360,103,-56,-1,-1,0
1523614464486,-720896,103,-56,-1,-1,0
1523614464486,-720896,103,-56,-1,-1,0
1523614464486,-655360,103,-56,-1,-1,0
1523614464526,-655360,103,-56,-1,-1,0
1523614464526,-655360,103,-56,-1,-1,0
1523614464526,-720896,103,-56,-1,-1,0
1523614464526,-720896,103,-56,-1,-1,0
1523614464526,-589824,103,-56,-1,-1,0
1523614464566,-589824,103,-56,-1,-1,0
1523614464566,-851968,103,-56,-1,-1,0
1523614464566,-720896,103,-56,-1,-1,0
1523614464566,1638400,103,-56,-1,-1,0
1523614464566,6750208,103,-56,-1,-1,0
1523614464606,9306112,103,-56,-1,-1,0
1523614464606,5177344,103,-56,-1,-1,0
1523614464606,-196608,103,-56,-1,-1,0
1523614464606,-1572864,103,-56,-1,-1,0
1523614464606,-983040,103,-56,-1,-1,0
1523614464646,-655360,103,-56,-1,-1,0
1523614464646,-524288,103,-56,-1,-1,0
1523614464646,-458752,103,-56,-1,-1,0
1523614464646,-327680,103,-56,-1,-1,0
1523614464646,-393216,103,-56,-1,-1,0
1523614464686,-655360,103,-56,-1,-1,0
1523614464686,-524288,103,-56,-1,-1,0
1523614464686,-196608,103,-56,-1,-1,0
1523614464686,131072,103,-56,-1,-1,0
1523614464686,131072,103,-56,-1,-1,0
1523614464726,262144,103,-56,-1,-1,0
1523614464726,393216,103,-56,-1,-1,0
1523614464726,589824,103,-56,-1,-1,0
1523614464726,786432,103,-56,-1,-1,0
1523614464726,1179648,103,-56,-1,-1,0
1523614464766,1703936,103,-56,-1,-1,0
1523614464766,2031616,103,-56,-1,-1,0
1523614464766,2359296,103,-56,-1,-1,0
1523614464766,2490368,103,-56,-1,-1,0
1523614464766,2162688,103,-56,-1,-1,0
1523614464806,1507328,103,-56,-1,-1,0
1523614464806,983040,103,-56,-1,-1,0
1523614464806,524288,103,-56,-1,-1,0
1523614464806,0,103,-56,-1,-1,0
1523614464806,-393216,103,-56,-1,-1,0
1523614464846,-589824,103,-56,-1,-1,0
1523614464846,-720896,103,-56,-1,-1,0
1523614464846,-983040,103,-56,-1,-1,0
1523614464846,-1114112,103,-56,-1,-1,0
1523614464846,-1179648,103,-56,-1,-1,0
1523614464886,-1310720,103,-56,-1,-1,0
1523614464886,-1441792,103,-56,-1,-1,0
1523614464886,-1507328,103,-56,-1,-1,0
1523614464886,-1638400,103,-56,-1,-1,0
1523614464886,-1572864,103,-56,-1,-1,0
1523614464926,-1245184,103,-56,-1,-1,0
1523614464926,-1048576,103,-56,-1,-1,0
1523614464926,-1048576,103,-56,-1,-1,0
1523614464926,-1114112,103,-56,-1,-1,0
1523614464926,-1179648,103,-56,-1,-1,0
1523614464966,-1245184,103,-56,-1,-1,0
1523614464966,-1245184,103,-56,-1,-1,0
1523614464966,-1245184,103,-56,-1,-1,0
1523614464966,-1310720,103,-56,-1,-1,0
1523614464966,-1376256,103,-56,-1,-1,0
1523614465006,-1507328,103,-56,-1,-1,0
1523614465006,-1572864,103,-56,-1,-1,0
1523614465006,-1507328,103,-56,-1,-1,0
1523614465006,-1507328,103,-56,-1,-1,0
1523614465006,-1572864,103,-56,-1,-1,0
1523614465046,-1638400,103,-56,-1,-1,0
1523614465046,-1507328,103,-56,-1,-1,0
1523614465046,-1507328,103,-56,-1,-1,0
1523614465046,-1572864,103,-56,-1,-1,0
1523614465046,-1769472,103,-56,-1,-1,0
1523614465088,-1835008,102,-56,-1,-1,0
1523614465088,-1966080,102,-56,-1,-1,0
1523614465088,-1966080,102,-56,-1,-1,0
1523614465088,-1966080,102,-56,-1,-1,0
1523614465088,-1703936,102,-56,-1,-1,0
1523614465126,-1572864,102,-56,-1,-1,0
1523614465126,-1441792,102,-56,-1,-1,0
1523614465126,-1441792,102,-56,-1,-1,0
1523614465126,-1310720,102,-56,-1,-1,0
1523614465126,-1179648,102,-56,-1,-1,0
1523614465166,-1048576,102,-56,-1,-1,0
1523614465166,-1048576,102,-56,-1,-1,0
1523614465166,-1114112,102,-56,-1,-1,0
1523614465166,-1310720,102,-56,-1,-1,0
1523614465166,-393216,102,-56,-1,-1,0
1523614465206,3538944,102,-56,-1,-1,0
1523614465206,8650752,102,-56,-1,-1,0
1523614465206,8388608,102,-56,-1,-1,0
1523614465206,3538944,102,-56,-1,-1,0
1523614465206,-262144,102,-56,-1,-1,0
1523614465246,-458752,102,-56,-1,-1,0
1523614465246,-327680,102,-56,-1,-1,0
1523614465246,-393216,102,-56,-1,-1,0
1523614465246,-589824,102,-56,-1,-1,0
1523614465246,-589824,102,-56,-1,-1,0
1523614465286,-524288,102,-56,-1,-1,0
1523614465286,-262144,102,-56,-1,-1,0
1523614465286,65536,102,-56,-1,-1,0
1523614465286,327680,102,-56,-1,-1,0
1523614465286,458752,102,-56,-1,-1,0
1523614465326,720896,102,-56,-1,-1,0
1523614465326,851968,102,-56,-1,-1,0
1523614465326,917504,102,-56,-1,-1,0
1523614465326,1048576,102,-56,-1,-1,0
1523614465326,1376256,102,-56,-1,-1,0
1523614465366,1703936,102,-56,-1,-1,0
1523614465366,1966080,102,-56,-1,-1,0
1523614465366,2293760,102,-56,-1,-1,0
1523614465366,2555904,102,-56,-1,-1,0
1523614465366,2555904,102,-56,-1,-1,0
1523614465406,2490368,102,-56,-1,-1,0
1523614465406,2228224,102,-56,-1,-1,0
1523614465406,1966080,102,-56,-1,-1,0
1523614465406,1441792,102,-56,-1,-1,0
1523614465406,720896,102,-56,-1,-1,0
1523614465446,0,102,-56,-1,-1,0
1523614465446,-393216,102,-56,-1,-1,0
1523614465446,-720896,102,-56,-1,-1,0
1523614465446,-917504,102,-56,-1,-1,0
1523614465446,-1179648,102,-56,-1,-1,0
1523614465486,-1245184,102,-56,-1,-1,0
1523614465486,-1114112,102,-56,-1,-1,0
1523614465486,-983040,102,-56,-1,-1,0
1523614465486,-983040,102,-56,-1,-1,0
1523614465486,-1245184,102,-56,-1,-1,0
1523614465526,-1310720,102,-56,-1,-1,0
1523614465526,-1245184,102,-56,-1,-1,0
1523614465526,-983040,102,-56,-1,-1,0
1523614465526,-851968,102,-56,-1,-1,0
1523614465526,-720896,102,-56,-1,-1,0
1523614465566,-655360,102,-56,-1,-1,0
1523614465566,-786432,102,-56,-1,-1,0
1523614465566,-917504,102,-56,-1,-1,0
1523614465566,-983040,102,-56,-1,-1,0
1523614465566,-1048576,102,-56,-1,-1,0
1523614465606,-1114112,102,-56,-1,-1,0
1523614465606,-1179648,102,-56,-1,-1,0
1523614465606,-1245184,102,-56,-1,-1,0
1523614465606,-1310720,102,-56,-1,-1,0
1523614465606,-1376256,102,-56,-1,-1,0
1523614465646,-1441792,102,-56,-1,-1,0
1523614465646,-1441792,102,-56,-1,-1,0
1523614465646,-1441792,102,-56,-1,-1,0
1523614465646,-1441792,102,-56,-1,-1,0
1523614465646,-1441792,102,-56,-1,-1,0
1523614465686,-1507328,101,-56,-1,-1,0
1523614465686,-1507328,101,-56,-1,-1,0
1523614465686,-1441792,101,-56,-1,-1,0
1523614465686,-1507328,101,-56,-1,-1,0
1523614465686,-1638400,101,-56,-1,-1,0
1523614465729,-1572864,101,-56,-1,-1,0
1523614465729,-1507328,101,-56,-1,-1,0
1523614465729,-1376256,101,-56,-1,-1,0
1523614465729,-1376256,101,-56,-1,-1,0
1523614465729,-1507328,101,-56,-1,-1,0
1523614465766,-1507328,101,-56,-1,-1,0
1523614465766,-1441792,101,-56,-1,-1,0
1523614465766,-1572864,101,-56,-1,-1,0
1523614465766,-1769472,101,-56,-1,-1,0
1523614465766,-1835008,101,-56,-1,-1,0
1523614465806,-2162688,101,-56,-1,-1,0
1523614465806,-1966080,101,-56,-1,-1,0
1523614465806,851968,101,-56,-1,-1,0
1523614465806,6422528,101,-56,-1,-1,0
1523614465806,9306112,101,-56,-1,-1,0
1523614465846,5242880,101,-56,-1,-1,0
1523614465846,-327680,101,-56,-1,-1,0
1523614465846,-1769472,101,-56,-1,-1,0
1523614465846,-1310720,101,-56,-1,-1,0
1523614465846,-1048576,101,-56,-1,-1,0
1523614465886,-983040,101,-56,-1,-1,0
1523614465886,-851968,101,-56,-1,-1,0
1523614465886,-786432,101,-56,-1,-1,0
1523614465886,-589824,101,-56,-1,-1,0
1523614465886,-458752,101,-56,-1,-1,0
1523614465926,-327680,101,-56,-1,-1,0
1523614465926,-196608,101,-56,-1,-1,0
1523614465926,0,101,-56,-1,-1,0
1523614465926,196608,101,-56,-1,-1,0
1523614465926,393216,101,-56,-1,-1,0
1523614465966,589824,101,-56,-1,-1,0
1523614465966,917504,101,-56,-1,-1,0
1523614465966,1310720,101,-56,-1,-1,0
1523614465966,1769472,101,-56,-1,-1,0
1523614465966,2162688,101,-56,-1,-1,0
1523614466006,2490368,101,-56,-1,-1,0
1523614466006,2686976,101,-56,-1,-1,0
1523614466006,2686976,101,-56,-1,-1,0
1523614466006,2555904,101,-56,-1,-1,0
1523614466006,2228224,101,-56,-1,-1,0
1523614466046,1638400,101,-56,-1,-1,0
1523614466046,851968,101,-56,-1,-1,0
1523614466046,196608,101,-56,-1,-1,0
1523614466046,-131072,101,-56,-1,-1,0
1523614466046,-524288,101,-56,-1,-1,0
1523614466086,-917504,101,-56,-1,-1,0
1523614466086,-1179648,101,-56,-1,-1,0
1523614466086,-1245184,101,-56,-1,-1,0
1523614466086,-1245184,101,-56,-1,-1,0
1523614466086,-1310720,101,-56,-1,-1,0
1523614466126,-1376256,101,-56,-1,-1,0
1523614466126,-1376256,101,-56,-1,-1,0
1523614466126,-1245184,101,-56,-1,-1,0
1523614466126,-1048576,101,-56,-1,-1,0
1523614466126,-917504,101,-56,-1,-1,0
1523614466166,-720896,101,-56,-1,-1,0
1523614466166,-524288,101,-56,-1,-1,0
1523614466166,-458752,101,-56,-1,-1,0
1523614466166,-458752,101,-56,-1,-1,0
1523614466166,-393216,101,-56,-1,-1,0
1523614466206,-262144,101,-56,-1,-1,0
1523614466206,-196608,101,-56,-1,-1,0
1523614466206,-65536,101,-56,-1,-1,0
1523614466206,0,101,-56,-1,-1,0
1523614466206,0,101,-56,-1,-1,0
1523614466246,-131072,101,-56,-1,-1,0
1523614466246,-65536,101,-56,-1,-1,0
1523614466246,-65536,101,-56,-1,-1,0
1523614466246,0,101,-56,-1,-1,0
1523614466246,0,101,-56,-1,-1,0
1523614466286,0,100,-56,-1,-1,0
1523614466286,0,100,-56,-1,-1,0
1523614466286,0,100,-56,-1,-1,0
1523614466286,0,100,-56,-1,-1,0
1523614466286,65536,100,-56,-1,-1,0
1523614466326,131072,100,-56,-1,-1,0
1523614466326,65536,100,-56,-1,-1,0
1523614466326,131072,100,-56,-1,-1,0
1523614466326,327680,100,-56,-1,-1,0
1523614466326,327680,100,-56,-1,-1,0
1523614466368,524288,100,-56,-1,-1,0
1523614466368,524288,100,-56,-1,-1,0
1523614466368,393216,100,-56,-1,-1,0
1523614466368,262144,100,-56,-1,-1,0
1523614466368,196608,100,-56,-1,-1,0
1523614466406,0,100,-56,-1,-1,0
1523614466406,0,100,-56,-1,-1,0
1523614466406,2359296,100,-56,-1,-1,0
1523614466406,7405568,100,-56,-1,-1,0
1523614466406,10092544,100,-56,-1,-1,0
1523614466446,5898240,100,-56,-1,-1,0
1523614466446,262144,100,-56,-1,-1,0
1523614466446,-983040,100,-56,-1,-1,0
1523614466446,-458752,100,-56,-1,-1,0
1523614466446,-327680,100,-56,-1,-1,0
1523614466486,-458752,100,-56,-1,-1,0
1523614466486,-393216,100,-56,-1,-1,0
1523614466486,-262144,100,-56,-1,-1,0
1523614466486,-262144,100,-56,-1,-1,0
1523614466486,-327680,100,-56,-1,-1,0
1523614466526,-262144,100,-56,-1,-1,0
1523614466526,-196608,100,-56,-1,-1,0
1523614466526,-131072,100,-56,-1,-1,0
1523614466526,-65536,100,-56,-1,-1,0
1523614466526,65536,100,-56,-1,-1,0
1523614466566,262144,100,-56,-1,-1,0
1523614466566,589824,100,-56,-1,-1,0
1523614466566,983040,100,-56,-1,-1,0
1523614466566,1310720,100,-56,-1,-1,0
1523614466566,1441792,100,-56,-1,-1,0
1523614466606,1769472,100,-56,-1,-1,0
1523614466606,1966080,100,-56,-1,-1,0
1523614466606,1900544,100,-56,-1,-1,0
1523614466606,1507328,100,-56,-1,-1,0
1523614466606,1114112,100,-56,-1,-1,0
1523614466646,524288,100,-56,-1,-1,0
1523614466646,-131072,100,-56,-1,-1,0
1523614466646,-851968,100,-56,-1,-1,0
1523614466646,-1245184,100,-56,-1,-1,0
1523614466646,-1507328,100,-56,-1,-1,0
1523614466686,-1769472,100,-56,-1,-1,0
1523614466686,-1769472,100,-56,-1,-1,0
1523614466686,-1835008,100,-56,-1,-1,0
1523614466686,-2031616,100,-56,-1,-1,0
1523614466686,-2162688,100,-56,-1,-1,0
1523614466726,-2162688,100,-56,-1,-1,0
1523614466726,-2228224,100,-56,-1,-1,0
1523614466726,-2031616,100,-56,-1,-1,0
1523614466726,-1900544,100,-56,-1,-1,0
1523614466726,-1966080,100,-56,-1,-1,0
1523614466766,-2031616,100,-56,-1,-1,0
1523614466766,-1966080,100,-56,-1,-1,0
1523614466766,-1769472,100,-56,-1,-1,0
1523614466766,-1703936,100,-56,-1,-1,0
1523614466766,-1638400,100,-56,-1,-1,0
1523614466806,-1507328,100,-56,-1,-1,0
1523614466806,-1507328,100,-56,-1,-1,0
1523614466806,-1572864,100,-56,-1,-1,0
1523614466806,-1572864,100,-56,-1,-1,0
1523614466806,-1572864,100,-56,-1,-1,0
1523614466846,-1572864,100,-56,-1,-1,0
1523614466846,-1507328,100,-56,-1,-1,0
1523614466846,-1572864,100,-56,-1,-1,0
1523614466846,-1769472,100,-56,-1,-1,0
1523614466846,-1769472,100,-56,-1,-1,0
1523614466886,-1638400,99,-56,-1,-1,0
1523614466886,-1703936,99,-56,-1,-1,0
1523614466886,-1966080,99,-56,-1,-1,0
1523614466886,-2031616,99,-56,-1,-1,0
1523614466886,-1966080,99,-56,-1,-1,0
1523614466926,-1835008,99,-56,-1,-1,0
1523614466926,-1835008,99,-56,-1,-1,0
1523614466926,-1835008,99,-56,-1,-1,0
1523614466926,-1900544,99,-56,-1,-1,0
1523614466926,-2031616,99,-56,-1,-1,0
1523614466966,-1966080,99,-56,-1,-1,0
1523614466966,-1835008,99,-56,-1,-1,0
1523614466966,-1835008,99,-56,-1,-1,0
1523614466966,-1835008,99,-56,-1,-1,0
1523614466966,-2097152,99,-56,-1,-1,0
1523614467007,-1835008,99,-56,-1,-1,0
1523614467007,917504,99,-56,-1,-1,0
1523614467007,5767168,99,-56,-1,-1,0
1523614467007,6946816,99,-56,-1,-1,0
1523614467007,2424832,99,-56,-1,-1,0
1523614467046,-1900544,99,-56,-1,-1,0
1523614467046,-2097152,99,-56,-1,-1,0
1523614467046,-1638400,99,-56,-1,-1,0
1523614467046,-1376256,99,-56,-1,-1,0
1523614467046,-1245184,99,-56,-1,-1,0
1523614467086,-1114112,99,-56,-1,-1,0
1523614467086,-1179648,99,-56,-1,-1,0
1523614467086,-1048576,99,-56,-1,-1,0
1523614467086,-983040,99,-56,-1,-1,0
1523614467086,-851968,99,-56,-1,-1,0
1523614467126,-851968,99,-56,-1,-1,0
1523614467126,-655360,99,-56,-1,-1,0
1523614467126,-458752,99,-56,-1,-1,0
1523614467126,-196608,99,-56,-1,-1,0
1523614467126,0,99,-56,-1,-1,0
1523614467166,458752,99,-56,-1,-1,0
1523614467166,917504,99,-56,-1,-1,0
1523614467166,1441792,99,-56,-1,-1,0
1523614467166,2031616,99,-56,-1,-1,0
1523614467166,2490368,99,-56,-1,-1,0
1523614467206,2621440,99,-56,-1,-1,0
1523614467206,2752512,99,-56,-1,-1,0
1523614467206,2752512,99,-56,-1,-1,0
1523614467206,2490368,99,-56,-1,-1,0
1523614467206,2097152,99,-56,-1,-1,0
1523614467246,1703936,99,-56,-1,-1,0
1523614467246,1507328,99,-56,-1,-1,0
1523614467246,1376256,99,-56,-1,-1,0
1523614467246,1245184,99,-56,-1,-1,0
1523614467246,1245184,99,-56,-1,-1,0
1523614467286,1376256,99,-56,-1,-1,0
1523614467286,1507328,99,-56,-1,-1,0
1523614467286,1507328,99,-56,-1,-1,0
1523614467286,1376256,99,-56,-1,-1,0
1523614467286,1179648,99,-56,-1,-1,0
1523614467326,1179648,99,-56,-1,-1,0
1523614467326,1310720,99,-56,-1,-1,0
1523614467326,1376256,99,-56,-1,-1,0
1523614467326,1572864,99,-56,-1,-1,0
1523614467326,1769472,99,-56,-1,-1,0
1523614467366,1835008,99,-56,-1,-1,0
1523614467366,1769472,99,-56,-1,-1,0
1523614467366,1769472,99,-56,-1,-1,0
1523614467366,1572864,99,-56,-1,-1,0
1523614467366,1441792,99,-56,-1,-1,0
1523614467406,1245184,99,-56,-1,-1,0
1523614467406,1179648,99,-56,-1,-1,0
1523614467406,1048576,99,-56,-1,-1,0
1523614467406,983040,99,-56,-1,-1,0
1523614467406,851968,99,-56,-1,-1,0
1523614467446,720896,99,-56,-1,-1,0
1523614467446,524288,99,-56,-1,-1,0
1523614467446,262144,99,-56,-1,-1,0
1523614467446,131072,99,-56,-1,-1,0
1523614467446,131072,99,-56,-1,-1,0
1523614467486,131072,99,-56,-1,-1,0
1523614467486,0,99,-56,-1,-1,0
1523614467486,-65536,99,-56,-1,-1,0
1523614467486,-196608,99,-56,-1,-1,0
1523614467486,-327680,99,-56,-1,-1,0
1523614467526,-327680,99,-56,-1,-1,0
1523614467526,-327680,99,-56,-1,-1,0
1523614467526,-327680,99,-56,-1,-1,0
1523614467526,-327680,99,-56,-1,-1,0
1523614467526,-393216,99,-56,-1,-1,0
1523614467566,-589824,99,-56,-1,-1,0
1523614467566,-589824,99,-56,-1,-1,0
1523614467566,-655360,99,-56,-1,-1,0
1523614467566,-917504,99,-56,-1,-1,0
1523614467566,327680,99,-56,-1,-1,0
1523614467606,4849664,99,-56,-1,-1,0
1523614467606,8978432,99,-56,-1,-1,0
1523614467606,6684672,99,-56,-1,-1,0
1523614467606,1310720,99,-56,-1,-1,0
1523614467606,-1245184,99,-56,-1,-1,0
1523614467647,-851968,99,-56,-1,-1,0
1523614467647,-655360,99,-56,-1,-1,0
1523614467647,-720896,99,-56,-1,-1,0
1523614467647,-655360,99,-56,-1,-1,0
1523614467647,-720896,99,-56,-1,-1,0
1523614467686,-589824,99,-56,-1,-1,0
1523614467686,-655360,99,-56,-1,-1,0
1523614467686,-720896,99,-56,-1,-1,0
1523614467686,-655360,99,-56,-1,-1,0
1523614467686,-458752,99,-56,-1,-1,0
1523614467726,-327680,99,-56,-1,-1,0
1523614467726,-196608,99,-56,-1,-1,0
1523614467726,65536,99,-56,-1,-1,0
1523614467726,327680,99,-56,-1,-1,0
1523614467726,655360,99,-56,-1,-1,0
1523614467766,917504,99,-56,-1,-1,0
1523614467766,1245184,99,-56,-1,-1,0
1523614467766,1507328,99,-56,-1,-1,0
1523614467766,1703936,99,-56,-1,-1,0
1523614467766,1703936,99,-56,-1,-1,0
1523614467806,1703936,99,-56,-1,-1,0
1523614467806,1572864,99,-56,-1,-1,0
1523614467806,1179648,99,-56,-1,-1,0
1523614467806,589824,99,-56,-1,-1,0
1523614467806,0,99,-56,-1,-1,0
1523614467846,-524288,99,-56,-1,-1,0
1523614467846,-786432,99,-56,-1,-1,0
1523614467846,-786432,99,-56,-1,-1,0
1523614467846,-851968,99,-56,-1,-1,0
1523614467846,-917504,99,-56,-1,-1,0
1523614467886,-1048576,99,-56,-1,-1,0
1523614467886,-1245184,99,-56,-1,-1,0
1523614467886,-1310720,99,-56,-1,-1,0
1523614467886,-1376256,99,-56,-1,-1,0
1523614467886,-1441792,99,-56,-1,-1,0
1523614467926,-1441792,99,-56,-1,-1,0
1523614467926,-1310720,99,-56,-1,-1,0
1523614467926,-1048576,99,-56,-1,-1,0
1523614467926,-917504,99,-56,-1,-1,0
1523614467926,-983040,99,-56,-1,-1,0
1523614467966,-983040,99,-56,-1,-1,0
1523614467966,-983040,99,-56,-1,-1,0
1523614467966,-917504,99,-56,-1,-1,0
1523614467966,-983040,99,-56,-1,-1,0
1523614467966,-1114112,99,-56,-1,-1,0
1523614468006,-1048576,99,-56,-1,-1,0
1523614468006,-851968,99,-56,-1,-1,0
1523614468006,-851968,99,-56,-1,-1,0
1523614468006,-983040,99,-56,-1,-1,0
1523614468006,-983040,99,-56,-1,-1,0
1523614468046,-983040,99,-56,-1,-1,0
1523614468046,-1048576,99,-56,-1,-1,0
1523614468046,-1114112,99,-56,-1,-1,0
1523614468046,-1245184,99,-56,-1,-1,0
1523614468046,-1441792,99,-56,-1,-1,0
1523614468086,-1507328,99,-56,-1,-1,0
1523614468086,-1441792,99,-56,-1,-1,0
1523614468086,-1376256,99,-56,-1,-1,0
1523614468086,-1376256,99,-56,-1,-1,0
1523614468086,-1507328,99,-56,-1,-1,0
1523614468126,-1507328,99,-56,-1,-1,0
1523614468126,-1507328,99,-56,-1,-1,0
1523614468126,-1441792,99,-56,-1,-1,0
1523614468126,-1507328,99,-56,-1,-1,0
1523614468126,-1507328,99,-56,-1,-1,0
1523614468166,-1572864,99,-56,-1,-1,0
1523614468166,-1769472,99,-56,-1,-1,0
1523614468166,-1245184,99,-56,-1,-1,0
1523614468166,1900544,99,-56,-1,-1,0
1523614468166,7143424,99,-56,-1,-1,0
1523614468206,8454144,99,-56,-1,-1,0
1523614468206,3997696,99,-56,-1,-1,0
1523614468206,-458752,99,-56,-1,-1,0
1523614468206,-851968,99,-56,-1,-1,0
1523614468206,-458752,99,-56,-1,-1,0
1523614468246,-393216,99,-56,-1,-1,0
1523614468246,-327680,99,-56,-1,-1,0
1523614468246,-196608,99,-56,-1,-1,0
1523614468246,-131072,99,-56,-1,-1,0
1523614468246,65536,99,-56,-1,-1,0
1523614468288,393216,99,-56,-1,-1,0
1523614468288,589824,99,-56,-1,-1,0
1523614468288,458752,99,-56,-1,-1,0
1523614468288,458752,99,-56,-1,-1,0
1523614468288,917504,99,-56,-1,-1,0
1523614468326,1835008,99,-56,-1,-1,0
1523614468326,2424832,99,-56,-1,-1,0
1523614468326,2818048,99,-56,-1,-1,0
1523614468326,3145728,99,-56,-1,-1,0
1523614468326,3342336,99,-56,-1,-1,0
1523614468366,3538944,99,-56,-1,-1,0
1523614468366,4063232,99,-56,-1,-1,0
1523614468366,4325376,99,-56,-1,-1,0
1523614468366,4194304,99,-56,-1,-1,0
1523614468366,4063232,99,-56,-1,-1,0
1523614468406,3997696,99,-56,-1,-1,0
1523614468406,3473408,99,-56,-1,-1,0
1523614468406,2490368,99,-56,-1,-1,0
1523614468406,1900544,99,-56,-1,-1,0
1523614468406,1703936,99,-56,-1,-1,0
1523614468446,1179648,99,-56,-1,-1,0
1523614468446,655360,99,-56,-1,-1,0
1523614468446,524288,99,-56,-1,-1,0
1523614468446,655360,99,-56,-1,-1,0
1523614468446,393216,99,-56,-1,-1,0
1523614468486,458752,99,-56,-1,-1,0
1523614468486,458752,99,-56,-1,-1,0
1523614468486,262144,99,-56,-1,-1,0
1523614468486,131072,99,-56,-1,-1,0
1523614468486,65536,99,-56,-1,-1,0
1523614468526,0,99,-56,-1,-1,0
1523614468526,-131072,99,-56,-1,-1,0
1523614468526,-131072,99,-56,-1,-1,0
1523614468526,-131072,99,-56,-1,-1,0
1523614468526,0,99,-56,-1,-1,0
1523614468566,-65536,99,-56,-1,-1,0
1523614468566,-131072,99,-56,-1,-1,0
1523614468566,-196608,99,-56,-1,-1,0
1523614468566,-196608,99,-56,-1,-1,0
1523614468566,-262144,99,-56,-1,-1,0
1523614468606,-196608,99,-56,-1,-1,0
1523614468606,-131072,99,-56,-1,-1,0
1523614468606,-196608,99,-56,-1,-1,0
1523614468606,-327680,99,-56,-1,-1,0
1523614468606,-327680,99,-56,-1,-1,0
1523614468646,-327680,99,-56,-1,-1,0
1523614468646,-458752,99,-56,-1,-1,0
1523614468646,-655360,99,-56,-1,-1,0
1523614468646,-720896,99,-56,-1,-1,0
1523614468646,-720896,99,-56,-1,-1,0
1523614468686,-720896,99,-56,-1,-1,0
1523614468686,-589824,99,-56,-1,-1,0
1523614468686,-589824,99,-56,-1,-1,0
1523614468686,-655360,99,-56,-1,-1,0
1523614468686,-786432,99,-56,-1,-1,0
1523614468726,-851968,99,-56,-1,-1,0
1523614468726,-851968,99,-56,-1,-1,0
1523614468726,-720896,99,-56,-1,-1,0
1523614468726,-917504,99,-56,-1,-1,0
1523614468726,-1179648,99,-56,-1,-1,0
1523614468766,-786432,99,-56,-1,-1,0
1523614468766,2555904,99,-56,-1,-1,0
1523614468766,7733248,99,-56,-1,-1,0
1523614468766,8323072,99,-56,-1,-1,0
1523614468766,3276800,99,-56,-1,-1,0
1523614468806,-1310720,99,-56,-1,-1,0
1523614468806,-1441792,99,-56,-1,-1,0
1523614468806,-983040,99,-56,-1,-1,0
1523614468806,-851968,99,-56,-1,-1,0
1523614468806,-983040,99,-56,-1,-1,0
1523614468846,-851968,99,-56,-1,-1,0
1523614468846,-786432,99,-56,-1,-1,0
1523614468846,-720896,99,-56,-1,-1,0
1523614468846,-655360,99,-56,-1,-1,0
1523614468846,-720896,99,-56,-1,-1,0
1523614468886,-851968,99,-56,-1,-1,0
1523614468886,-720896,99,-56,-1,-1,0
1523614468886,-458752,99,-56,-1,-1,0
1523614468886,-327680,99,-56,-1,-1,0
1523614468886,-131072,99,-56,-1,-1,0
1523614468928,393216,99,-56,-1,-1,0
1523614468928,851968,99,-56,-1,-1,0
1523614468928,1245184,99,-56,-1,-1,0
1523614468928,1835008,99,-56,-1,-1,0
1523614468928,2228224,99,-56,-1,-1,0
1523614468966,2162688,99,-56,-1,-1,0
1523614468966,1835008,99,-56,-1,-1,0
1523614468966,1638400,99,-56,-1,-1,0
1523614468966,1441792,99,-56,-1,-1,0
1523614468966,917504,99,-56,-1,-1,0
1523614469006,327680,99,-56,-1,-1,0
1523614469006,0,99,-56,-1,-1,0
1523614469006,-65536,99,-56,-1,-1,0
1523614469006,-262144,99,-56,-1,-1,0
1523614469006,-458752,99,-56,-1,-1,0
1523614469047,-851968,99,-56,-1,-1,0
1523614469047,-1245184,99,-56,-1,-1,0
1523614469047,-1376256,99,-56,-1,-1,0
1523614469047,-1441792,99,-56,-1,-1,0
1523614469047,-1441792,99,-56,-1,-1,0
1523614469086,-1638400,99,-56,-1,-1,0
1523614469086,-1507328,99,-56,-1,-1,0
1523614469086,-1310720,99,-56,-1,-1,0
1523614469086,-1376256,99,-56,-1,-1,0
1523614469086,-1376256,99,-56,-1,-1,0
1523614469126,-1245184,99,-56,-1,-1,0
1523614469126,-1048576,99,-56,-1,-1,0
1523614469126,-1048576,99,-56,-1,-1,0
1523614469126,-1179648,99,-56,-1,-1,0
1523614469126,-1245184,99,-56,-1,-1,0
1523614469166,-1114112,99,-56,-1,-1,0
1523614469166,-1114112,99,-56,-1,-1,0
1523614469166,-1376256,99,-56,-1,-1,0
1523614469166,-1310720,99,-56,-1,-1,0
1523614469166,-1245184,99,-56,-1,-1,0
1523614469206,-1310720,99,-56,-1,-1,0
1523614469206,-1441792,99,-56,-1,-1,0
1523614469206,-1376256,99,-56,-1,-1,0
1523614469206,-1376256,99,-56,-1,-1,0
1523614469206,-1441792,99,-56,-1,-1,0
1523614469246,-1441792,99,-56,-1,-1,0
1523614469246,-1507328,99,-56,-1,-1,0
1523614469246,-1572864,99,-56,-1,-1,0
1523614469246,-1638400,99,-56,-1,-1,0
1523614469246,-1572864,99,-56,-1,-1,0
1523614469286,-1441792,99,-56,-1,-1,0
1523614469286,-1376256,99,-56,-1,-1,0
1523614469286,-1310720,99,-56,-1,-1,0
1523614469286,-1310720,99,-56,-1,-1,0
1523614469286,-1179648,99,-56,-1,-1,0
1523614469326,-1179648,99,-56,-1,-1,0
1523614469326,-1245184,99,-56,-1,-1,0
1523614469326,-1179648,99,-56,-1,-1,0
1523614469326,-1245184,99,-56,-1,-1,0
1523614469326,-1376256,99,-56,-1,-1,0
1523614469366,-65536,99,-56,-1,-1,0
1523614469366,4456448,99,-56,-1,-1,0
1523614469366,8978432,99,-56,-1,-1,0
1523614469366,7077888,99,-56,-1,-1,0
1523614469366,1769472,99,-56,-1,-1,0
1523614469406,-1048576,99,-56,-1,-1,0
1523614469406,-720896,99,-56,-1,-1,0
1523614469406,-524288,99,-56,-1,-1,0
1523614469406,-327680,99,-56,-1,-1,0
1523614469406,-65536,99,-56,-1,-1,0
1523614469446,0,99,-56,-1,-1,0
1523614469446,65536,99,-56,-1,-1,0
1523614469446,-131072,99,-56,-1,-1,0
1523614469446,-589824,99,-56,-1,-1,0
1523614469446,-786432,99,-56,-1,-1,0
1523614469486,-131072,99,-56,-1,-1,0
1523614469486,524288,99,-56,-1,-1,0
1523614469486,655360,99,-56,-1,-1,0
1523614469486,655360,99,-56,-1,-1,0
1523614469486,983040,99,-56,-1,-1,0
1523614469526,1245184,99,-56,-1,-1,0
1523614469526,1441792,99,-56,-1,-1,0
1523614469526,1835008,99,-56,-1,-1,0
1523614469526,2424832,99,-56,-1,-1,0
1523614469526,2686976,99,-56,-1,-1,0
1523614469567,2424832,99,-56,-1,-1,0
1523614469567,2097152,99,-56,-1,-1,0
1523614469567,1900544,99,-56,-1,-1,0
1523614469567,1769472,99,-56,-1,-1,0
1523614469567,1310720,99,-56,-1,-1,0
1523614469606,720896,99,-56,-1,-1,0
1523614469606,65536,99,-56,-1,-1,0
1523614469606,-262144,99,-56,-1,-1,0
1523614469606,-720896,99,-56,-1,-1,0
1523614469606,-786432,99,-56,-1,-1,0
1523614469646,-655360,99,-56,-1,-1,0
1523614469646,-589824,99,-56,-1,-1,0
1523614469646,-851968,99,-56,-1,-1,0
1523614469646,-1048576,99,-56,-1,-1,0
1523614469646,-1245184,99,-56,-1,-1,0
1523614469686,-1245184,99,-56,-1,-1,0
1523614469686,-983040,99,-56,-1,-1,0
1523614469686,-720896,99,-56,-1,-1,0
1523614469686,-589824,99,-56,-1,-1,0
1523614469686,-524288,99,-56,-1,-1,0
1523614469726,-524288,99,-56,-1,-1,0
1523614469726,-720896,99,-56,-1,-1,0
1523614469726,-786432,99,-56,-1,-1,0
1523614469726,-786432,99,-56,-1,-1,0
1523614469726,-720896,99,-56,-1,-1,0
1523614469766,-720896,99,-56,-1,-1,0
1523614469766,-786432,99,-56,-1,-1,0
1523614469766,-851968,99,-56,-1,-1,0
1523614469766,-917504,99,-56,-1,-1,0
1523614469766,-983040,99,-56,-1,-1,0
1523614469806,-983040,99,-56,-1,-1,0
1523614469806,-983040,99,-56,-1,-1,0
1523614469806,-1048576,99,-56,-1,-1,0
1523614469806,-1179648,99,-56,-1,-1,0
1523614469806,-1310720,99,-56,-1,-1,0
1523614469846,-1376256,99,-56,-1,-1,0
1523614469846,-1310720,99,-56,-1,-1,0
1523614469846,-1376256,99,-56,-1,-1,0
1523614469846,-1507328,99,-56,-1,-1,0
1523614469846,-1441792,99,-56,-1,-1,0
1523614469886,-1310720,99,-56,-1,-1,0
1523614469886,-1245184,99,-56,-1,-1,0
1523614469886,-1310720,99,-56,-1,-1,0
1523614469886,-1441792,99,-56,-1,-1,0
1523614469886,-1441792,99,-56,-1,-1,0
1523614469926,-1310720,99,-56,-1,-1,0
1523614469926,-1179648,99,-56,-1,-1,0
1523614469926,-1114112,99,-56,-1,-1,0
1523614469926,-1310720,99,-56,-1,-1,0
1523614469926,-1966080,99,-56,-1,-1,0
1523614469966,-2293760,99,-56,-1,-1,0
1523614469966,-262144,99,-56,-1,-1,0
1523614469966,4653056,99,-56,-1,-1,0
1523614469966,8650752,99,-56,-1,-1,0
1523614469966,5963776,99,-56,-1,-1,0
1523614470006,524288,99,-56,-1,-1,0
1523614470006,-2031616,99,-56,-1,-1,0
1523614470006,-1900544,99,-56,-1,-1,0
1523614470006,-1572864,99,-56,-1,-1,0
1523614470006,-1310720,99,-56,-1,-1,0
1523614470046,-1179648,99,-56,-1,-1,0
1523614470046,-1245184,99,-56,-1,-1,0
1523614470046,-1048576,99,-56,-1,-1,0
1523614470046,-1114112,99,-56,-1,-1,0
1523614470046,-1179648,99,-56,-1,-1,0
1523614470086,-983040,99,-56,-1,-1,0
1523614470086,-589824,99,-56,-1,-1,0
1523614470086,-196608,99,-56,-1,-1,0
1523614470086,131072,99,-56,-1,-1,0
1523614470086,393216,99,-56,-1,-1,0
1523614470126,589824,99,-56,-1,-1,0
1523614470126,786432,99,-56,-1,-1,0
1523614470126,1048576,99,-56,-1,-1,0
1523614470126,1441792,99,-56,-1,-1,0
1523614470126,1835008,99,-56,-1,-1,0
1523614470166,2228224,99,-56,-1,-1,0
1523614470166,2490368,99,-56,-1,-1,0
1523614470166,2424832,99,-56,-1,-1,0
1523614470166,2097152,99,-56,-1,-1,0
1523614470166,1703936,99,-56,-1,-1,0
1523614470207,1310720,99,-56,-1,-1,0
1523614470207,720896,99,-56,-1,-1,0
1523614470207,196608,99,-56,-1,-1,0
1523614470207,-196608,99,-56,-1,-1,0
1523614470207,-524288,99,-56,-1,-1,0
1523614470246,-720896,99,-56,-1,-1,0
1523614470246,-786432,99,-56,-1,-1,0
1523614470246,-851968,99,-56,-1,-1,0
1523614470246,-917504,99,-56,-1,-1,0
1523614470246,-1114112,99,-56,-1,-1,0
1523614470286,-1245184,99,-56,-1,-1,0
1523614470286,-1376256,99,-56,-1,-1,0
1523614470286,-1376256,99,-56,-1,-1,0
1523614470286,-1376256,99,-56,-1,-1,0
1523614470286,-1310720,99,-56,-1,-1,0
1523614470326,-1245184,99,-56,-1,-1,0
1523614470326,-1245184,99,-56,-1,-1,0
1523614470326,-1310720,99,-56,-1,-1,0
1523614470326,-1310720,99,-56,-1,-1,0
1523614470326,-1310720,99,-56,-1,-1,0
1523614470366,-1441792,99,-56,-1,-1,0
1523614470366,-1441792,99,-56,-1,-1,0
1523614470366,-1310720,99,-56,-1,-1,0
1523614470366,-1114112,99,-56,-1,-1,0
1523614470366,-1114112,99,-56,-1,-1,0
1523614470406,-1048576,99,-56,-1,-1,0
1523614470406,-917504,99,-56,-1,-1,0
1523614470406,-851968,99,-56,-1,-1,0
1523614470406,-786432,99,-56,-1,-1,0
1523614470406,-720896,99,-56,-1,-1,0
1523614470446,-655360,98,-56,-1,-1,0
1523614470446,-458752,98,-56,-1,-1,0
1523614470446,-327680,98,-56,-1,-1,0
1523614470446,-131072,98,-56,-1,-1,0
1523614470446,65536,98,-56,-1,-1,0
1523614470486,262144,98,-56,-1,-1,0
1523614470486,196608,98,-56,-1,-1,0
1523614470486,0,98,-56,-1,-1,0
1523614470486,-131072,98,-56,-1,-1,0
1523614470486,65536,98,-56,-1,-1,0
1523614470526,393216,98,-56,-1,-1,0
1523614470526,720896,98,-56,-1,-1,0
1523614470526,720896,98,-56,-1,-1,0
1523614470526,720896,98,-56,-1,-1,0
1523614470526,458752,98,-56,-1,-1,0
1523614470566,393216,98,-56,-1,-1,0
1523614470566,2097152,98,-56,-1,-1,0
1523614470566,7143424,98,-56,-1,-1,0
1523614470566,11665408,98,-56,-1,-1,0
1523614470566,9175040,98,-56,-1,-1,0
1523614470606,3276800,98,-56,-1,-1,0
1523614470606,131072,98,-56,-1,-1,0
1523614470606,393216,98,-56,-1,-1,0
1523614470606,655360,98,-56,-1,-1,0
1523614470606,655360,98,-56,-1,-1,0
1523614470646,786432,98,-56,-1,-1,0
1523614470646,983040,98,-56,-1,-1,0
1523614470646,1048576,98,-56,-1,-1,0
1523614470646,786432,98,-56,-1,-1,0
1523614470646,655360,98,-56,-1,-1,0
1523614470686,655360,98,-56,-1,-1,0
1523614470686,720896,98,-56,-1,-1,0
1523614470686,786432,98,-56,-1,-1,0
1523614470686,983040,98,-56,-1,-1,0
1523614470686,1310720,98,-56,-1,-1,0
1523614470726,1572864,98,-56,-1,-1,0
1523614470726,1769472,98,-56,-1,-1,0
1523614470726,2097152,98,-56,-1,-1,0
1523614470726,2424832,98,-56,-1,-1,0
1523614470726,2686976,98,-56,-1,-1,0
1523614470766,2883584,98,-56,-1,-1,0
1523614470766,3080192,98,-56,-1,-1,0
1523614470766,2949120,98,-56,-1,-1,0
1523614470766,2555904,98,-56,-1,-1,0
1523614470766,2359296,98,-56,-1,-1,0
1523614470806,2031616,98,-56,-1,-1,0
1523614470806,1376256,98,-56,-1,-1,0
1523614470806,720896,98,-56,-1,-1,0
1523614470806,262144,98,-56,-1,-1,0
1523614470806,65536,98,-56,-1,-1,0
1523614470849,65536,98,-56,-1,-1,0
1523614470849,0,98,-56,-1,-1,0
1523614470849,0,98,-56,-1,-1,0
1523614470849,-196608,98,-56,-1,-1,0
1523614470849,-393216,98,-56,-1,-1,0
1523614470886,-393216,98,-56,-1,-1,0
1523614470886,-458752,98,-56,-1,-1,0
1523614470886,-458752,98,-56,-1,-1,0
1523614470886,-393216,98,-56,-1,-1,0
1523614470886,-393216,98,-56,-1,-1,0
1523614470926,-327680,98,-56,-1,-1,0
1523614470926,-196608,98,-56,-1,-1,0
1523614470926,-65536,98,-56,-1,-1,0
1523614470926,-262144,98,-56,-1,-1,0
1523614470926,-524288,98,-56,-1,-1,0
1523614470966,-720896,98,-56,-1,-1,0
1523614470966,-786432,98,-56,-1,-1,0
1523614470966,-655360,98,-56,-1,-1,0
1523614470966,-589824,98,-56,-1,-1,0
1523614470966,-655360,98,-56,-1,-1,0
1523614471007,-786432,98,-56,-1,-1,0
1523614471007,-720896,98,-56,-1,-1,0
1523614471007,-655360,98,-56,-1,-1,0
1523614471007,-786432,98,-56,-1,-1,0
1523614471007,-1048576,98,-56,-1,-1,0
1523614471046,-1114112,99,-56,-1,-1,0
1523614471046,-1048576,99,-56,-1,-1,0
1523614471046,-1179648,99,-56,-1,-1,0
1523614471046,-1310720,99,-56,-1,-1,0
1523614471046,-1376256,99,-56,-1,-1,0
1523614471086,-1441792,99,-56,-1,-1,0
1523614471086,-1441792,99,-56,-1,-1,0
1523614471086,-1507328,99,-56,-1,-1,0
1523614471086,-1507328,99,-56,-1,-1,0
1523614471086,-1572864,99,-56,-1,-1,0
1523614471126,-1703936,99,-56,-1,-1,0
1523614471126,-1900544,99,-56,-1,-1,0
1523614471126,-2031616,99,-56,-1,-1,0
1523614471126,-2359296,99,-56,-1,-1,0
1523614471126,-1114112,99,-56,-1,-1,0
1523614471167,3342336,99,-56,-1,-1,0
1523614471167,7929856,99,-56,-1,-1,0
1523614471167,5963776,99,-56,-1,-1,0
1523614471167,589824,99,-56,-1,-1,0
1523614471167,-2293760,99,-56,-1,-1,0
1523614471206,-1966080,99,-56,-1,-1,0
1523614471206,-1507328,99,-56,-1,-1,0
1523614471206,-1441792,99,-56,-1,-1,0
1523614471206,-1376256,99,-56,-1,-1,0
1523614471206,-1441792,99,-56,-1,-1,0
1523614471246,-1245184,99,-56,-1,-1,0
1523614471246,-1114112,99,-56,-1,-1,0
1523614471246,-1114112,99,-56,-1,-1,0
1523614471246,-1179648,99,-56,-1,-1,0
1523614471246,-1179648,99,-56,-1,-1,0
1523614471286,-1179648,99,-56,-1,-1,0
1523614471286,-1048576,99,-56,-1,-1,0
1523614471286,-917504,99,-56,-1,-1,0
1523614471286,-589824,99,-56,-1,-1,0
1523614471286,-196608,99,-56,-1,-1,0
1523614471327,196608,99,-56,-1,-1,0
1523614471327,655360,99,-56,-1,-1,0
1523614471327,917504,99,-56,-1,-1,0
1523614471327,1048576,99,-56,-1,-1,0
1523614471327,1114112,99,-56,-1,-1,0
1523614471367,1114112,99,-56,-1,-1,0
1523614471367,720896,99,-56,-1,-1,0
1523614471367,393216,99,-56,-1,-1,0
1523614471367,-65536,99,-56,-1,-1,0
1523614471367,-720896,99,-56,-1,-1,0
1523614471407,-1310720,99,-56,-1,-1,0
1523614471407,-1572864,99,-56,-1,-1,0
1523614471407,-1769472,99,-56,-1,-1,0
1523614471407,-1835008,99,-56,-1,-1,0
1523614471407,-1900544,99,-56,-1,-1,0
1523614471446,-1966080,99,-56,-1,-1,0
1523614471446,-2031616,99,-56,-1,-1,0
1523614471446,-1966080,99,-56,-1,-1,0
1523614471446,-1835008,99,-56,-1,-1,0
1523614471446,-1835008,99,-56,-1,-1,0
1523614471488,-1703936,99,-56,-1,-1,0
1523614471488,-1572864,99,-56,-1,-1,0
1523614471488,-1310720,99,-56,-1,-1,0
1523614471488,-983040,99,-56,-1,-1,0
1523614471488,-524288,99,-56,-1,-1,0
1523614471526,-131072,99,-56,-1,-1,0
1523614471526,65536,99,-56,-1,-1,0
1523614471526,65536,99,-56,-1,-1,0
1523614471526,0,99,-56,-1,-1,0
1523614471526,65536,99,-56,-1,-1,0
1523614471566,327680,99,-56,-1,-1,0
1523614471566,524288,99,-56,-1,-1,0
1523614471566,458752,99,-56,-1,-1,0
1523614471566,327680,99,-56,-1,-1,0
1523614471566,262144,99,-56,-1,-1,0
1523614471606,393216,100,-56,-1,-1,0
1523614471606,655360,100,-56,-1,-1,0
1523614471606,1048576,100,-56,-1,-1,0
1523614471606,1310720,100,-56,-1,-1,0
1523614471606,1179648,100,-56,-1,-1,0
1523614471646,983040,100,-56,-1,-1,0
1523614471646,983040,100,-56,-1,-1,0
1523614471646,983040,100,-56,-1,-1,0
1523614471646,851968,100,-56,-1,-1,0
1523614471646,458752,100,-56,-1,-1,0
1523614471686,196608,100,-56,-1,-1,0
1523614471686,196608,100,-56,-1,-1,0
1523614471686,131072,100,-56,-1,-1,0
1523614471686,0,100,-56,-1,-1,0
1523614471686,0,100,-56,-1,-1,0
1523614471726,0,100,-56,-1,-1,0
1523614471726,-131072,100,-56,-1,-1,0
1523614471726,-458752,100,-56,-1,-1,0
1523614471726,-262144,100,-56,-1,-1,0
1523614471726,2424832,100,-56,-1,-1,0
1523614471766,7602176,100,-56,-1,-1,0
1523614471766,9568256,100,-56,-1,-1,0
1523614471766,5111808,100,-56,-1,-1,0
1523614471766,-65536,100,-56,-1,-1,0
1523614471766,-983040,100,-56,-1,-1,0
1523614471806,-589824,100,-56,-1,-1,0
1523614471806,-393216,100,-56,-1,-1,0
1523614471806,-327680,100,-56,-1,-1,0
1523614471806,-196608,100,-56,-1,-1,0
1523614471806,0,100,-56,-1,-1,0
1523614471846,0,100,-56,-1,-1,0
1523614471846,-131072,100,-56,-1,-1,0
1523614471846,-65536,100,-56,-1,-1,0
1523614471846,65536,100,-56,-1,-1,0
1523614471846,196608,100,-56,-1,-1,0
1523614471886,196608,100,-56,-1,-1,0
1523614471886,393216,100,-56,-1,-1,0
1523614471886,655360,100,-56,-1,-1,0
1523614471886,851968,100,-56,-1,-1,0
1523614471886,1114112,100,-56,-1,-1,0
1523614471928,1572864,100,-56,-1,-1,0
1523614471928,1900544,100,-56,-1,-1,0
1523614471928,2162688,100,-56,-1,-1,0
1523614471928,2228224,100,-56,-1,-1,0
1523614471928,2228224,100,-56,-1,-1,0
1523614471966,2031616,100,-56,-1,-1,0
1523614471966,1638400,100,-56,-1,-1,0
1523614471966,1114112,100,-56,-1,-1,0
1523614471966,458752,100,-56,-1,-1,0
1523614471966,0,100,-56,-1,-1,0
1523614472006,-327680,100,-56,-1,-1,0
1523614472006,-655360,100,-56,-1,-1,0
1523614472006,-1048576,100,-56,-1,-1,0
1523614472006,-1310720,100,-56,-1,-1,0
1523614472006,-1507328,100,-56,-1,-1,0
1523614472046,-1638400,100,-56,-1,-1,0
1523614472046,-1703936,100,-56,-1,-1,0
1523614472046,-1507328,100,-56,-1,-1,0
1523614472046,-1376256,100,-56,-1,-1,0
1523614472046,-1441792,100,-56,-1,-1,0
1523614472086,-1638400,100,-56,-1,-1,0
1523614472086,-1769472,100,-56,-1,-1,0
1523614472086,-1703936,100,-56,-1,-1,0
1523614472086,-1638400,100,-56,-1,-1,0
1523614472086,-1572864,100,-56,-1,-1,0
1523614472128,-1376256,100,-56,-1,-1,0
1523614472128,-1245184,100,-56,-1,-1,0
1523614472128,-1245184,100,-56,-1,-1,0
1523614472128,-1441792,100,-56,-1,-1,0
1523614472128,-1441792,100,-56,-1,-1,0
1523614472166,-1245184,100,-56,-1,-1,0
1523614472166,-1245184,100,-56,-1,-1,0
1523614472166,-1310720,100,-56,-1,-1,0
1523614472166,-1376256,100,-56,-1,-1,0
1523614472166,-1310720,100,-56,-1,-1,0
1523614472206,-1245184,100,-56,-1,-1,0
1523614472206,-1310720,100,-56,-1,-1,0
1523614472206,-1310720,100,-56,-1,-1,0
1523614472206,-1114112,100,-56,-1,-1,0
1523614472206,-851968,100,-56,-1,-1,0
1523614472246,-851968,100,-56,-1,-1,0
1523614472246,-1114112,100,-56,-1,-1,0
1523614472246,-1179648,100,-56,-1,-1,0
1523614472246,-1048576,100,-56,-1,-1,0
1523614472246,-917504,100,-56,-1,-1,0
1523614472286,-917504,100,-56,-1,-1,0
1523614472286,-917504,100,-56,-1,-1,0
1523614472286,-1048576,100,-56,-1,-1,0
1523614472286,-1048576,100,-56,-1,-1,0
1523614472286,-983040,100,-56,-1,-1,0
1523614472326,-983040,100,-56,-1,-1,0
1523614472326,-1048576,100,-56,-1,-1,0
1523614472326,458752,100,-56,-1,-1,0
1523614472326,4980736,100,-56,-1,-1,0
1523614472326,9240576,100,-56,-1,-1,0
1523614472366,7077888,100,-56,-1,-1,0
1523614472366,1638400,100,-56,-1,-1,0
1523614472366,-1114112,100,-56,-1,-1,0
1523614472366,-917504,100,-56,-1,-1,0
1523614472366,-589824,100,-56,-1,-1,0
1523614472406,-655360,100,-56,-1,-1,0
1523614472406,-589824,100,-56,-1,-1,0
1523614472406,-393216,100,-56,-1,-1,0
1523614472406,-262144,100,-56,-1,-1,0
1523614472406,-393216,100,-56,-1,-1,0
1523614472446,-458752,100,-56,-1,-1,0
1523614472446,-524288,100,-56,-1,-1,0
1523614472446,-458752,100,-56,-1,-1,0
1523614472446,-393216,100,-56,-1,-1,0
1523614472446,-262144,100,-56,-1,-1,0
1523614472486,-131072,100,-56,-1,-1,0
1523614472486,0,100,-56,-1,-1,0
1523614472486,262144,100,-56,-1,-1,0
1523614472486,720896,100,-56,-1,-1,0
1523614472486,1114112,100,-56,-1,-1,0
1523614472526,1441792,100,-56,-1,-1,0
1523614472526,1703936,100,-56,-1,-1,0
1523614472526,1835008,100,-56,-1,-1,0
1523614472526,1835008,100,-56,-1,-1,0
1523614472526,1572864,100,-56,-1,-1,0
1523614472566,1179648,100,-56,-1,-1,0
1523614472566,720896,100,-56,-1,-1,0
1523614472566,327680,100,-56,-1,-1,0
1523614472566,131072,100,-56,-1,-1,0
1523614472566,65536,100,-56,-1,-1,0
1523614472606,0,100,-56,-1,-1,0
1523614472606,-65536,100,-56,-1,-1,0
1523614472606,0,100,-56,-1,-1,0
1523614472606,65536,100,-56,-1,-1,0
1523614472606,0,100,-56,-1,-1,0
1523614472646,0,100,-56,-1,-1,0
1523614472646,65536,100,-56,-1,-1,0
1523614472646,393216,100,-56,-1,-1,0
1523614472646,458752,100,-56,-1,-1,0
1523614472646,524288,100,-56,-1,-1,0
1523614472686,851968,100,-56,-1,-1,0
1523614472686,1245184,100,-56,-1,-1,0
1523614472686,1507328,100,-56,-1,-1,0
1523614472686,1507328,100,-56,-1,-1,0
1523614472686,1441792,100,-56,-1,-1,0
1523614472726,1245184,100,-56,-1,-1,0
1523614472726,1114112,100,-56,-1,-1,0
1523614472726,1179648,100,-56,-1,-1,0
1523614472726,1376256,100,-56,-1,-1,0
1523614472726,1245184,100,-56,-1,-1,0
1523614472768,917504,101,-56,-1,-1,0
1523614472768,786432,101,-56,-1,-1,0
1523614472768,983040,101,-56,-1,-1,0
1523614472768,917504,101,-56,-1,-1,0
1523614472768,524288,101,-56,-1,-1,0
1523614472806,196608,101,-56,-1,-1,0
1523614472806,262144,101,-56,-1,-1,0
1523614472806,458752,101,-56,-1,-1,0
1523614472806,262144,101,-56,-1,-1,0
1523614472806,131072,101,-56,-1,-1,0
1523614472846,131072,101,-56,-1,-1,0
1523614472846,131072,101,-56,-1,-1,0
1523614472846,0,101,-56,-1,-1,0
1523614472846,-131072,101,-56,-1,-1,0
1523614472846,-262144,101,-56,-1,-1,0
1523614472886,-196608,101,-56,-1,-1,0
1523614472886,-327680,101,-56,-1,-1,0
1523614472886,-589824,101,-56,-1,-1,0
1523614472886,-786432,101,-56,-1,-1,0
1523614472886,131072,101,-56,-1,-1,0
1523614472926,3866624,101,-56,-1,-1,0
1523614472926,8716288,101,-56,-1,-1,0
1523614472926,8519680,101,-56,-1,-1,0
1523614472926,3342336,101,-56,-1,-1,0
1523614472926,-917504,101,-56,-1,-1,0
1523614472966,-983040,101,-56,-1,-1,0
1523614472966,-458752,101,-56,-1,-1,0
1523614472966,-262144,101,-56,-1,-1,0
1523614472966,-327680,101,-56,-1,-1,0
1523614472966,-458752,101,-56,-1,-1,0
1523614473006,-327680,101,-56,-1,-1,0
1523614473006,-327680,101,-56,-1,-1,0
1523614473006,-327680,101,-56,-1,-1,0
1523614473006,-327680,101,-56,-1,-1,0
1523614473006,-196608,101,-56,-1,-1,0
1523614473046,-65536,101,-56,-1,-1,0
1523614473046,-131072,101,-56,-1,-1,0
1523614473046,65536,101,-56,-1,-1,0
1523614473046,262144,101,-56,-1,-1,0
1523614473046,589824,101,-56,-1,-1,0
1523614473086,786432,101,-56,-1,-1,0
1523614473086,983040,101,-56,-1,-1,0
1523614473086,1114112,101,-56,-1,-1,0
1523614473086,1245184,101,-56,-1,-1,0
1523614473086,1310720,101,-56,-1,-1,0
1523614473126,1441792,101,-56,-1,-1,0
1523614473126,1245184,101,-56,-1,-1,0
1523614473126,983040,101,-56,-1,-1,0
1523614473126,458752,101,-56,-1,-1,0
1523614473126,0,101,-56,-1,-1,0
1523614473166,-720896,101,-56,-1,-1,0
1523614473166,-1048576,101,-56,-1,-1,0
1523614473166,-1441792,101,-56,-1,-1,0
1523614473166,-1835008,101,-56,-1,-1,0
1523614473166,-2097152,101,-56,-1,-1,0
1523614473206,-2162688,101,-56,-1,-1,0
1523614473206,-2424832,101,-56,-1,-1,0
1523614473206,-2752512,101,-56,-1,-1,0
1523614473206,-2883584,101,-56,-1,-1,0
1523614473206,-2818048,101,-56,-1,-1,0
1523614473246,-2818048,101,-56,-1,-1,0
1523614473246,-2621440,101,-56,-1,-1,0
1523614473246,-2424832,101,-56,-1,-1,0
1523614473246,-2424832,101,-56,-1,-1,0
1523614473246,-2686976,101,-56,-1,-1,0
1523614473286,-2686976,101,-56,-1,-1,0
1523614473286,-2424832,101,-56,-1,-1,0
1523614473286,-2293760,101,-56,-1,-1,0
1523614473286,-2293760,101,-56,-1,-1,0
1523614473286,-2359296,101,-56,-1,-1,0
1523614473326,-2359296,101,-56,-1,-1,0
1523614473326,-2293760,101,-56,-1,-1,0
1523614473326,-2424832,101,-56,-1,-1,0
1523614473326,-2490368,101,-56,-1,-1,0
1523614473326,-2555904,101,-56,-1,-1,0
1523614473366,-2490368,101,-56,-1,-1,0
1523614473366,-2752512,101,-56,-1,-1,0
1523614473366,-2752512,101,-56,-1,-1,0
1523614473366,-2490368,101,-56,-1,-1,0
1523614473366,-2424832,101,-56,-1,-1,0
1523614473408,-2490368,101,-56,-1,-1,0
1523614473408,-2621440,101,-56,-1,-1,0
1523614473408,-2883584,101,-56,-1,-1,0
1523614473408,-2949120,101,-56,-1,-1,0
1523614473408,-2818048,101,-56,-1,-1,0
1523614473446,-2883584,101,-56,-1,-1,0
1523614473446,-2949120,101,-56,-1,-1,0
1523614473446,-2686976,101,-56,-1,-1,0
1523614473446,-2621440,101,-56,-1,-1,0
1523614473446,-3145728,101,-56,-1,-1,0
1523614473486,-3080192,101,-56,-1,-1,0
1523614473486,-524288,101,-56,-1,-1,0
1523614473486,4325376,101,-56,-1,-1,0
1523614473486,6684672,101,-56,-1,-1,0
1523614473486,2686976,101,-56,-1,-1,0
1523614473526,-2162688,101,-56,-1,-1,0
1523614473526,-3145728,101,-56,-1,-1,0
1523614473526,-2621440,101,-56,-1,-1,0
1523614473526,-2490368,101,-56,-1,-1,0
1523614473526,-2424832,101,-56,-1,-1,0
1523614473566,-2293760,101,-56,-1,-1,0
1523614473566,-2228224,101,-56,-1,-1,0
1523614473566,-2031616,101,-56,-1,-1,0
1523614473566,-1769472,101,-56,-1,-1,0
1523614473566,-1441792,101,-56,-1,-1,0
1523614473606,-1245184,101,-56,-1,-1,0
1523614473606,-917504,101,-56,-1,-1,0
1523614473606,-524288,101,-56,-1,-1,0
1523614473606,-131072,101,-56,-1,-1,0
1523614473606,0,101,-56,-1,-1,0
1523614473646,655360,101,-56,-1,-1,0
1523614473646,1310720,101,-56,-1,-1,0
1523614473646,1835008,101,-56,-1,-1,0
1523614473646,2097152,101,-56,-1,-1,0
1523614473646,2424832,101,-56,-1,-1,0
1523614473686,2621440,101,-56,-1,-1,0
1523614473686,2818048,101,-56,-1,-1,0
1523614473686,3014656,101,-56,-1,-1,0
1523614473686,2818048,101,-56,-1,-1,0
1523614473686,2031616,101,-56,-1,-1,0
1523614473726,1572864,101,-56,-1,-1,0
1523614473726,1703936,101,-56,-1,-1,0
1523614473726,2031616,101,-56,-1,-1,0
1523614473726,2031616,101,-56,-1,-1,0
1523614473726,1835008,101,-56,-1,-1,0
1523614473766,983040,101,-56,-1,-1,0
1523614473766,524288,101,-56,-1,-1,0
1523614473766,720896,101,-56,-1,-1,0
1523614473766,1179648,101,-56,-1,-1,0
1523614473766,983040,101,-56,-1,-1,0
1523614473806,655360,101,-56,-1,-1,0
1523614473806,327680,101,-56,-1,-1,0
1523614473806,65536,101,-56,-1,-1,0
1523614473806,0,101,-56,-1,-1,0
1523614473806,0,101,-56,-1,-1,0
1523614473846,131072,101,-56,-1,-1,0
1523614473846,196608,101,-56,-1,-1,0
1523614473846,65536,101,-56,-1,-1,0
1523614473846,131072,101,-56,-1,-1,0
1523614473846,327680,101,-56,-1,-1,0
1523614473886,327680,101,-56,-1,-1,0
1523614473886,0,101,-56,-1,-1,0
1523614473886,-262144,101,-56,-1,-1,0
1523614473886,-327680,101,-56,-1,-1,0
1523614473886,-327680,101,-56,-1,-1,0
1523614473926,-393216,102,-56,-1,-1,0
1523614473926,-327680,102,-56,-1,-1,0
1523614473926,-131072,102,-56,-1,-1,0
1523614473926,-65536,102,-56,-1,-1,0
1523614473926,-131072,102,-56,-1,-1,0
1523614473966,-196608,102,-56,-1,-1,0
1523614473966,-262144,102,-56,-1,-1,0
1523614473966,-393216,102,-56,-1,-1,0
1523614473966,-589824,102,-56,-1,-1,0
1523614473966,-524288,102,-56,-1,-1,0
1523614474006,-393216,102,-56,-1,-1,0
1523614474006,-393216,102,-56,-1,-1,0
1523614474006,-524288,102,-56,-1,-1,0
1523614474006,-524288,102,-56,-1,-1,0
1523614474006,-655360,102,-56,-1,-1,0
1523614474048,-1179648,102,-56,-1,-1,0
1523614474048,-1179648,102,-56,-1,-1,0
1523614474048,1114112,102,-56,-1,-1,0
1523614474048,6225920,102,-56,-1,-1,0
1523614474048,9371648,102,-56,-1,-1,0
1523614474086,5570560,102,-56,-1,-1,0
1523614474086,-131072,102,-56,-1,-1,0
1523614474086,-1966080,102,-56,-1,-1,0
1523614474086,-1507328,102,-56,-1,-1,0
1523614474086,-1310720,102,-56,-1,-1,0
1523614474126,-1441792,102,-56,-1,-1,0
1523614474126,-1441792,102,-56,-1,-1,0
1523614474126,-1441792,102,-56,-1,-1,0
1523614474126,-1310720,102,-56,-1,-1,0
1523614474126,-1245184,102,-56,-1,-1,0
1523614474166,-1114112,102,-56,-1,-1,0
1523614474166,-1048576,102,-56,-1,-1,0
1523614474166,-917504,102,-56,-1,-1,0
1523614474166,-655360,102,-56,-1,-1,0
1523614474166,-589824,102,-56,-1,-1,0
1523614474206,-720896,102,-56,-1,-1,0
1523614474206,-458752,102,-56,-1,-1,0
1523614474206,-262144,102,-56,-1,-1,0
1523614474206,0,102,-56,-1,-1,0
1523614474206,458752,102,-56,-1,-1,0
1523614474246,1245184,102,-56,-1,-1,0
1523614474246,1507328,102,-56,-1,-1,0
1523614474246,1179648,102,-56,-1,-1,0
1523614474246,720896,102,-56,-1,-1,0
1523614474246,393216,102,-56,-1,-1,0
1523614474286,0,102,-56,-1,-1,0
1523614474286,-327680,102,-56,-1,-1,0
1523614474286,-524288,102,-56,-1,-1,0
1523614474286,-917504,102,-56,-1,-1,0
1523614474286,-1179648,102,-56,-1,-1,0
1523614474326,-1179648,102,-56,-1,-1,0
1523614474326,-1245184,102,-56,-1,-1,0
1523614474326,-1507328,102,-56,-1,-1,0
1523614474326,-1638400,102,-56,-1,-1,0
1523614474326,-1507328,102,-56,-1,-1,0
1523614474366,-1376256,102,-56,-1,-1,0
1523614474366,-1507328,102,-56,-1,-1,0
1523614474366,-1507328,102,-56,-1,-1,0
1523614474366,-1114112,102,-56,-1,-1,0
1523614474366,-851968,102,-56,-1,-1,0
1523614474406,-917504,102,-56,-1,-1,0
1523614474406,-983040,102,-56,-1,-1,0
1523614474406,-786432,102,-56,-1,-1,0
1523614474406,-524288,102,-56,-1,-1,0
1523614474406,-393216,102,-56,-1,-1,0
1523614474446,-458752,102,-56,-1,-1,0
1523614474446,-589824,102,-56,-1,-1,0
1523614474446,-655360,102,-56,-1,-1,0
1523614474446,-589824,102,-56,-1,-1,0
1523614474446,-524288,102,-56,-1,-1,0
1523614474486,-655360,102,-56,-1,-1,0
1523614474486,-720896,102,-56,-1,-1,0
1523614474486,-655360,102,-56,-1,-1,0
1523614474486,-720896,102,-56,-1,-1,0
1523614474486,-851968,102,-56,-1,-1,0
1523614474526,-983040,102,-56,-1,-1,0
1523614474526,-917504,102,-56,-1,-1,0
1523614474526,-720896,102,-56,-1,-1,0
1523614474526,-589824,102,-56,-1,-1,0
1523614474526,-720896,102,-56,-1,-1,0
1523614474566,-786432,102,-56,-1,-1,0
1523614474566,-786432,102,-56,-1,-1,0
1523614474566,-720896,102,-56,-1,-1,0
1523614474566,-655360,102,-56,-1,-1,0
1523614474566,-655360,102,-56,-1,-1,0
1523614474606,-786432,102,-56,-1,-1,0
1523614474606,-1245184,102,-56,-1,-1,0
1523614474606,-786432,102,-56,-1,-1,0
1523614474606,2752512,102,-56,-1,-1,0
1523614474606,8257536,102,-56,-1,-1,0
1523614474646,9568256,102,-56,-1,-1,0
1523614474646,5046272,102,-56,-1,-1,0
1523614474646,458752,102,-56,-1,-1,0
1523614474646,-131072,102,-56,-1,-1,0
1523614474646,0,102,-56,-1,-1,0
1523614474688,0,102,-56,-1,-1,0
1523614474688,65536,102,-56,-1,-1,0
1523614474688,262144,102,-56,-1,-1,0
1523614474688,262144,102,-56,-1,-1,0
1523614474688,65536,102,-56,-1,-1,0
1523614474726,-65536,102,-56,-1,-1,0
1523614474726,0,102,-56,-1,-1,0
1523614474726,196608,102,-56,-1,-1,0
1523614474726,458752,102,-56,-1,-1,0
1523614474726,720896,102,-56,-1,-1,0
1523614474766,1179648,102,-56,-1,-1,0
1523614474766,1310720,102,-56,-1,-1,0
1523614474766,1507328,102,-56,-1,-1,0
1523614474766,1900544,102,-56,-1,-1,0
1523614474766,2359296,102,-56,-1,-1,0
1523614474806,2555904,102,-56,-1,-1,0
1523614474806,2686976,102,-56,-1,-1,0
1523614474806,2883584,102,-56,-1,-1,0
1523614474806,2949120,102,-56,-1,-1,0
1523614474806,2818048,102,-56,-1,-1,0
1523614474846,2424832,102,-56,-1,-1,0
1523614474846,1966080,102,-56,-1,-1,0
1523614474846,1441792,102,-56,-1,-1,0
1523614474846,851968,102,-56,-1,-1,0
1523614474846,393216,102,-56,-1,-1,0
1523614474886,131072,102,-56,-1,-1,0
1523614474886,-65536,102,-56,-1,-1,0
1523614474886,-458752,102,-56,-1,-1,0
1523614474886,-655360,102,-56,-1,-1,0
1523614474886,-720896,102,-56,-1,-1,0
1523614474926,-786432,102,-56,-1,-1,0
1523614474926,-655360,102,-56,-1,-1,0
1523614474926,-524288,102,-56,-1,-1,0
1523614474926,-524288,102,-56,-1,-1,0
1523614474926,-524288,102,-56,-1,-1,0
1523614474966,-524288,102,-56,-1,-1,0
1523614474966,-458752,102,-56,-1,-1,0
1523614474966,-393216,102,-56,-1,-1,0
1523614474966,-262144,102,-56,-1,-1,0
1523614474966,-262144,102,-56,-1,-1,0
1523614475006,-327680,102,-56,-1,-1,0
1523614475006,-524288,102,-56,-1,-1,0
1523614475006,-589824,102,-56,-1,-1,0
1523614475006,-589824,102,-56,-1,-1,0
1523614475006,-458752,102,-56,-1,-1,0
1523614475046,-458752,102,-56,-1,-1,0
1523614475046,-589824,102,-56,-1,-1,0
1523614475046,-655360,102,-56,-1,-1,0
1523614475046,-655360,102,-56,-1,-1,0
1523614475046,-786432,102,-56,-1,-1,0
1523614475086,-917504,102,-56,-1,-1,0
1523614475086,-1114112,102,-56,-1,-1,0
1523614475086,-1114112,102,-56,-1,-1,0
1523614475086,-1048576,102,-56,-1,-1,0
1523614475086,-983040,102,-56,-1,-1,0
1523614475126,-1179648,102,-56,-1,-1,0
1523614475126,-1310720,102,-56,-1,-1,0
1523614475126,-1376256,102,-56,-1,-1,0
1523614475126,-1310720,102,-56,-1,-1,0
1523614475126,-1245184,102,-56,-1,-1,0
1523614475166,-1179648,102,-56,-1,-1,0
1523614475166,-1376256,102,-56,-1,-1,0
1523614475166,-1703936,102,-56,-1,-1,0
1523614475166,-786432,102,-56,-1,-1,0
1523614475166,3407872,102,-56,-1,-1,0
1523614475206,9175040,102,-56,-1,-1,0
1523614475206,9240576,102,-56,-1,-1,0
1523614475206,3735552,102,-56,-1,-1,0
1523614475206,-1048576,102,-56,-1,-1,0
1523614475206,-1507328,102,-56,-1,-1,0
1523614475246,-1048576,102,-56,-1,-1,0
1523614475246,-786432,102,-56,-1,-1,0
1523614475246,-655360,102,-56,-1,-1,0
1523614475246,-786432,102,-56,-1,-1,0
1523614475246,-851968,102,-56,-1,-1,0
1523614475286,-786432,102,-56,-1,-1,0
1523614475286,-589824,102,-56,-1,-1,0
1523614475286,-393216,102,-56,-1,-1,0
1523614475286,-196608,102,-56,-1,-1,0
1523614475286,0,102,-56,-1,-1,0
1523614475328,131072,102,-56,-1,-1,0
1523614475328,393216,102,-56,-1,-1,0
1523614475328,655360,102,-56,-1,-1,0
1523614475328,983040,102,-56,-1,-1,0
1523614475328,1179648,102,-56,-1,-1,0
1523614475366,1638400,102,-56,-1,-1,0
1523614475366,2162688,102,-56,-1,-1,0
1523614475366,2686976,102,-56,-1,-1,0
1523614475366,2883584,102,-56,-1,-1,0
1523614475366,2883584,102,-56,-1,-1,0
1523614475406,2621440,102,-56,-1,-1,0
1523614475406,2359296,102,-56,-1,-1,0
1523614475406,1769472,102,-56,-1,-1,0
1523614475406,1179648,102,-56,-1,-1,0
1523614475406,655360,102,-56,-1,-1,0
1523614475446,458752,102,-56,-1,-1,0
1523614475446,327680,102,-56,-1,-1,0
1523614475446,196608,102,-56,-1,-1,0
1523614475446,0,102,-56,-1,-1,0
1523614475446,-65536,102,-56,-1,-1,0
1523614475486,-131072,102,-56,-1,-1,0
1523614475486,-196608,102,-56,-1,-1,0
1523614475486,-327680,102,-56,-1,-1,0
1523614475486,-393216,102,-56,-1,-1,0
1523614475486,-524288,102,-56,-1,-1,0
1523614475526,-655360,102,-56,-1,-1,0
1523614475526,-720896,102,-56,-1,-1,0
1523614475526,-720896,102,-56,-1,-1,0
1523614475526,-655360,102,-56,-1,-1,0
1523614475526,-786432,102,-56,-1,-1,0
1523614475566,-851968,102,-56,-1,-1,0
1523614475566,-786432,102,-56,-1,-1,0
1523614475566,-655360,102,-56,-1,-1,0
1523614475566,-655360,102,-56,-1,-1,0
1523614475566,-786432,102,-56,-1,-1,0
1523614475606,-917504,102,-56,-1,-1,0
1523614475606,-983040,102,-56,-1,-1,0
1523614475606,-983040,102,-56,-1,-1,0
1523614475606,-983040,102,-56,-1,-1,0
1523614475606,-1114112,102,-56,-1,-1,0
1523614475646,-1179648,102,-56,-1,-1,0
1523614475646,-1179648,102,-56,-1,-1,0
1523614475646,-1114112,102,-56,-1,-1,0
1523614475646,-983040,102,-56,-1,-1,0
1523614475646,-851968,102,-56,-1,-1,0
1523614475686,-655360,102,-56,-1,-1,0
1523614475686,-524288,102,-56,-1,-1,0
1523614475686,-458752,102,-56,-1,-1,0
1523614475686,-393216,102,-56,-1,-1,0
1523614475686,-262144,102,-56,-1,-1,0
1523614475726,-131072,102,-56,-1,-1,0
1523614475726,-65536,102,-56,-1,-1,0
1523614475726,-327680,102,-56,-1,-1,0
1523614475726,-786432,102,-56,-1,-1,0
1523614475726,-393216,102,-56,-1,-1,0
1523614475766,3276800,102,-56,-1,-1,0
1523614475766,9043968,102,-56,-1,-1,0
1523614475766,10027008,102,-56,-1,-1,0
1523614475766,5177344,102,-56,-1,-1,0
1523614475766,786432,102,-56,-1,-1,0
1523614475806,458752,102,-56,-1,-1,0
1523614475806,720896,102,-56,-1,-1,0
1523614475806,655360,102,-56,-1,-1,0
1523614475806,786432,102,-56,-1,-1,0
1523614475806,720896,102,-56,-1,-1,0
1523614475846,655360,102,-56,-1,-1,0
1523614475846,655360,102,-56,-1,-1,0
1523614475846,720896,102,-56,-1,-1,0
1523614475846,1114112,102,-56,-1,-1,0
1523614475846,1376256,102,-56,-1,-1,0
1523614475886,1376256,102,-56,-1,-1,0
1523614475886,1179648,102,-56,-1,-1,0
1523614475886,1114112,102,-56,-1,-1,0
1523614475886,983040,102,-56,-1,-1,0
1523614475886,1376256,102,-56,-1,-1,0
1523614475926,1835008,102,-56,-1,-1,0
1523614475926,2293760,102,-56,-1,-1,0
1523614475926,2555904,102,-56,-1,-1,0
1523614475926,2752512,102,-56,-1,-1,0
1523614475926,2752512,102,-56,-1,-1,0
1523614475967,2818048,102,-56,-1,-1,0
1523614475967,2686976,102,-56,-1,-1,0
1523614475967,2424832,102,-56,-1,-1,0
1523614475967,1835008,102,-56,-1,-1,0
1523614475967,1376256,102,-56,-1,-1,0
1523614476006,1048576,102,-56,-1,-1,0
1523614476006,655360,102,-56,-1,-1,0
1523614476006,131072,102,-56,-1,-1,0
1523614476006,0,102,-56,-1,-1,0
1523614476006,-65536,102,-56,-1,-1,0
1523614476046,-131072,102,-56,-1,-1,0
1523614476046,-196608,102,-56,-1,-1,0
1523614476046,-131072,102,-56,-1,-1,0
1523614476046,-327680,102,-56,-1,-1,0
1523614476046,-589824,102,-56,-1,-1,0
1523614476086,-655360,102,-56,-1,-1,0
1523614476086,-655360,102,-56,-1,-1,0
1523614476086,-589824,102,-56,-1,-1,0
1523614476086,-524288,102,-56,-1,-1,0
1523614476086,-589824,102,-56,-1,-1,0
1523614476126,-720896,102,-56,-1,-1,0
1523614476126,-655360,102,-56,-1,-1,0
1523614476126,-655360,102,-56,-1,-1,0
1523614476126,-851968,102,-56,-1,-1,0
1523614476126,-1048576,102,-56,-1,-1,0
1523614476166,-1048576,103,-56,-1,-1,0
1523614476166,-1179648,103,-56,-1,-1,0
1523614476166,-1441792,103,-56,-1,-1,0
1523614476166,-1572864,103,-56,-1,-1,0
1523614476166,-1638400,103,-56,-1,-1,0
1523614476206,-1703936,103,-56,-1,-1,0
1523614476206,-1835008,103,-56,-1,-1,0
1523614476206,-1769472,103,-56,-1,-1,0
1523614476206,-1769472,103,-56,-1,-1,0
1523614476206,-1638400,103,-56,-1,-1,0
1523614476246,-1572864,103,-56,-1,-1,0
1523614476246,-1769472,103,-56,-1,-1,0
1523614476246,-1900544,103,-56,-1,-1,0
1523614476246,-1638400,103,-56,-1,-1,0
1523614476246,-1507328,103,-56,-1,-1,0
1523614476286,-1769472,103,-56,-1,-1,0
1523614476286,-1900544,103,-56,-1,-1,0
1523614476286,-2031616,103,-56,-1,-1,0
1523614476286,-2359296,103,-56,-1,-1,0
1523614476286,-1769472,103,-56,-1,-1,0
1523614476326,2031616,103,-56,-1,-1,0
1523614476326,6881280,103,-56,-1,-1,0
1523614476326,6160384,103,-56,-1,-1,0
1523614476326,786432,103,-56,-1,-1,0
1523614476326,-2949120,103,-56,-1,-1,0
1523614476366,-2490368,103,-56,-1,-1,0
1523614476366,-1900544,103,-56,-1,-1,0
1523614476366,-1703936,103,-56,-1,-1,0
1523614476366,-1638400,103,-56,-1,-1,0
1523614476366,-1835008,103,-56,-1,-1,0
1523614476406,-1835008,103,-56,-1,-1,0
1523614476406,-1835008,103,-56,-1,-1,0
1523614476406,-1769472,103,-56,-1,-1,0
1523614476406,-1769472,103,-56,-1,-1,0
1523614476406,-1507328,103,-56,-1,-1,0
1523614476446,-1245184,103,-56,-1,-1,0
1523614476446,-1048576,103,-56,-1,-1,0
1523614476446,-917504,103,-56,-1,-1,0
1523614476446,-589824,103,-56,-1,-1,0
1523614476446,-327680,103,-56,-1,-1,0
1523614476486,-131072,103,-56,-1,-1,0
1523614476486,262144,103,-56,-1,-1,0
1523614476486,655360,103,-56,-1,-1,0
1523614476486,851968,103,-56,-1,-1,0
1523614476486,851968,103,-56,-1,-1,0
1523614476527,851968,103,-56,-1,-1,0
1523614476527,589824,103,-56,-1,-1,0
1523614476527,327680,103,-56,-1,-1,0
1523614476527,-65536,103,-56,-1,-1,0
1523614476527,-655360,103,-56,-1,-1,0
1523614476566,-1310720,103,-56,-1,-1,0
1523614476566,-1638400,103,-56,-1,-1,0
1523614476566,-1900544,103,-56,-1,-1,0
1523614476566,-1900544,103,-56,-1,-1,0
1523614476566,-1966080,103,-56,-1,-1,0
1523614476607,-2162688,103,-56,-1,-1,0
1523614476607,-2228224,103,-56,-1,-1,0
1523614476607,-2293760,103,-56,-1,-1,0
1523614476607,-2293760,103,-56,-1,-1,0
1523614476607,-2359296,103,-56,-1,-1,0
1523614476646,-2293760,103,-56,-1,-1,0
1523614476646,-2228224,103,-56,-1,-1,0
1523614476646,-1966080,103,-56,-1,-1,0
1523614476646,-1835008,103,-56,-1,-1,0
1523614476646,-1703936,103,-56,-1,-1,0
1523614476686,-1638400,103,-56,-1,-1,0
1523614476686,-1441792,103,-56,-1,-1,0
1523614476686,-1245184,103,-56,-1,-1,0
1523614476686,-983040,103,-56,-1,-1,0
1523614476686,-786432,103,-56,-1,-1,0
1523614476726,-524288,103,-56,-1,-1,0
1523614476726,-393216,103,-56,-1,-1,0
1523614476726,-262144,103,-56,-1,-1,0
1523614476726,-196608,103,-56,-1,-1,0
1523614476726,-65536,103,-56,-1,-1,0
1523614476766,131072,103,-56,-1,-1,0
1523614476766,262144,103,-56,-1,-1,0
1523614476766,131072,103,-56,-1,-1,0
1523614476766,196608,103,-56,-1,-1,0
1523614476766,524288,103,-56,-1,-1,0
1523614476806,786432,103,-56,-1,-1,0
1523614476806,917504,103,-56,-1,-1,0
1523614476806,983040,103,-56,-1,-1,0
1523614476806,851968,103,-56,-1,-1,0
1523614476806,851968,103,-56,-1,-1,0
1523614476846,1048576,103,-56,-1,-1,0
1523614476846,1310720,103,-56,-1,-1,0
1523614476846,1310720,103,-56,-1,-1,0
1523614476846,655360,103,-56,-1,-1,0
1523614476846,524288,103,-56,-1,-1,0
1523614476886,3473408,103,-56,-1,-1,0
1523614476886,9043968,103,-56,-1,-1,0
1523614476886,10878976,103,-56,-1,-1,0
1523614476886,5767168,103,-56,-1,-1,0
1523614476886,262144,103,-56,-1,-1,0
1523614476926,-458752,103,-56,-1,-1,0
1523614476926,327680,103,-56,-1,-1,0
1523614476926,393216,103,-56,-1,-1,0
1523614476926,131072,103,-56,-1,-1,0
1523614476926,-131072,103,-56,-1,-1,0
1523614476966,-196608,103,-56,-1,-1,0
1523614476966,65536,103,-56,-1,-1,0
1523614476966,196608,103,-56,-1,-1,0
1523614476966,0,103,-56,-1,-1,0
1523614476966,-262144,103,-56,-1,-1,0
1523614477006,0,103,-56,-1,-1,0
1523614477006,262144,103,-56,-1,-1,0
1523614477006,327680,103,-56,-1,-1,0
1523614477006,393216,103,-56,-1,-1,0
1523614477006,524288,103,-56,-1,-1,0
1523614477046,1048576,103,-56,-1,-1,0
1523614477046,1769472,103,-56,-1,-1,0
1523614477046,2228224,103,-56,-1,-1,0
1523614477046,2293760,103,-56,-1,-1,0
1523614477046,2293760,103,-56,-1,-1,0
1523614477086,2293760,103,-56,-1,-1,0
1523614477086,2162688,103,-56,-1,-1,0
1523614477086,2031616,103,-56,-1,-1,0
1523614477086,1572864,103,-56,-1,-1,0
1523614477086,851968,103,-56,-1,-1,0
1523614477126,327680,103,-56,-1,-1,0
1523614477126,0,103,-56,-1,-1,0
1523614477126,-262144,103,-56,-1,-1,0
1523614477126,-524288,103,-56,-1,-1,0
1523614477126,-589824,103,-56,-1,-1,0
1523614477166,-720896,103,-56,-1,-1,0
1523614477166,-720896,103,-56,-1,-1,0
1523614477166,-720896,103,-56,-1,-1,0
1523614477166,-786432,103,-56,-1,-1,0
1523614477166,-851968,103,-56,-1,-1,0
1523614477206,-917504,103,-56,-1,-1,0
1523614477206,-1114112,103,-56,-1,-1,0
1523614477206,-1048576,103,-56,-1,-1,0
1523614477206,-917504,103,-56,-1,-1,0
1523614477206,-1114112,103,-56,-1,-1,0
1523614477247,-1376256,103,-56,-1,-1,0
1523614477247,-1441792,103,-56,-1,-1,0
1523614477247,-1376256,103,-56,-1,-1,0
1523614477247,-1310720,103,-56,-1,-1,0
1523614477247,-1310720,103,-56,-1,-1,0
1523614477286,-1179648,104,-56,-1,-1,0
1523614477286,-1048576,104,-56,-1,-1,0
1523614477286,-917504,104,-56,-1,-1,0
1523614477286,-1114112,104,-56,-1,-1,0
1523614477286,-1245184,104,-56,-1,-1,0
1523614477327,-1310720,104,-56,-1,-1,0
1523614477327,-1179648,104,-56,-1,-1,0
1523614477327,-1048576,104,-56,-1,-1,0
1523614477327,-1048576,104,-56,-1,-1,0
1523614477327,-1310720,104,-56,-1,-1,0
1523614477366,-1572864,104,-56,-1,-1,0
1523614477366,-1572864,104,-56,-1,-1,0
1523614477366,-1507328,104,-56,-1,-1,0
1523614477366,-1310720,104,-56,-1,-1,0
1523614477366,-1179648,104,-56,-1,-1,0
1523614477407,-851968,104,-56,-1,-1,0
1523614477407,-851968,104,-56,-1,-1,0
1523614477407,-1245184,104,-56,-1,-1,0
1523614477407,-1703936,104,-56,-1,-1,0
1523614477407,-1769472,104,-56,-1,-1,0
1523614477446,-65536,104,-56,-1,-1,0
1523614477446,4718592,104,-56,-1,-1,0
1523614477446,8978432,104,-56,-1,-1,0
1523614477446,6422528,104,-56,-1,-1,0
1523614477446,851968,104,-56,-1,-1,0
1523614477486,-1441792,104,-56,-1,-1,0
1523614477486,-1048576,104,-56,-1,-1,0
1523614477486,-983040,104,-56,-1,-1,0
1523614477486,-786432,104,-56,-1,-1,0
1523614477486,-458752,104,-56,-1,-1,0
1523614477526,-458752,104,-56,-1,-1,0
1523614477526,-393216,104,-56,-1,-1,0
1523614477526,-327680,104,-56,-1,-1,0
1523614477526,-131072,104,-56,-1,-1,0
1523614477526,-131072,104,-56,-1,-1,0
1523614477567,0,104,-56,-1,-1,0
1523614477567,0,104,-56,-1,-1,0
1523614477567,131072,104,-56,-1,-1,0
1523614477567,327680,104,-56,-1,-1,0
1523614477567,655360,104,-56,-1,-1,0
1523614477606,983040,104,-56,-1,-1,0
1523614477606,1310720,104,-56,-1,-1,0
1523614477606,1769472,104,-56,-1,-1,0
1523614477606,2228224,104,-56,-1,-1,0
1523614477606,2424832,104,-56,-1,-1,0
1523614477646,2293760,104,-56,-1,-1,0
1523614477646,2031616,104,-56,-1,-1,0
1523614477646,1835008,104,-56,-1,-1,0
1523614477646,1572864,104,-56,-1,-1,0
1523614477646,1114112,104,-56,-1,-1,0
1523614477686,524288,104,-56,-1,-1,0
1523614477686,-65536,104,-56,-1,-1,0
1523614477686,-524288,104,-56,-1,-1,0
1523614477686,-720896,104,-56,-1,-1,0
1523614477686,-851968,104,-56,-1,-1,0
1523614477726,-917504,104,-56,-1,-1,0
1523614477726,-983040,104,-56,-1,-1,0
1523614477726,-1048576,104,-56,-1,-1,0
1523614477726,-1048576,104,-56,-1,-1,0
1523614477726,-983040,104,-56,-1,-1,0
1523614477766,-917504,104,-56,-1,-1,0
1523614477766,-720896,104,-56,-1,-1,0
1523614477766,-589824,104,-56,-1,-1,0
1523614477766,-458752,104,-56,-1,-1,0
1523614477766,-262144,104,-56,-1,-1,0
1523614477806,-131072,104,-56,-1,-1,0
1523614477806,0,104,-56,-1,-1,0
1523614477806,131072,104,-56,-1,-1,0
1523614477806,65536,104,-56,-1,-1,0
1523614477806,131072,104,-56,-1,-1,0
1523614477846,131072,104,-56,-1,-1,0
1523614477846,196608,104,-56,-1,-1,0
1523614477846,327680,104,-56,-1,-1,0
1523614477846,524288,104,-56,-1,-1,0
1523614477846,589824,104,-56,-1,-1,0
1523614477887,655360,104,-56,-1,-1,0
1523614477887,524288,104,-56,-1,-1,0
1523614477887,131072,104,-56,-1,-1,0
1523614477887,65536,104,-56,-1,-1,0
1523614477887,524288,104,-56,-1,-1,0
1523614477926,851968,104,-56,-1,-1,0
1523614477926,786432,104,-56,-1,-1,0
1523614477926,786432,104,-56,-1,-1,0
1523614477926,720896,104,-56,-1,-1,0
1523614477926,458752,104,-56,-1,-1,0
1523614477966,327680,104,-56,-1,-1,0
1523614477966,327680,104,-56,-1,-1,0
1523614477966,131072,104,-56,-1,-1,0
1523614477966,-262144,104,-56,-1,-1,0
1523614477966,-589824,104,-56,-1,-1,0
1523614478006,786432,104,-56,-1,-1,0
1523614478006,5701632,104,-56,-1,-1,0
1523614478006,10027008,104,-56,-1,-1,0
1523614478006,7602176,104,-56,-1,-1,0
1523614478006,1900544,104,-56,-1,-1,0
1523614478046,-655360,104,-56,-1,-1,0
1523614478046,-524288,104,-56,-1,-1,0
1523614478046,-262144,104,-56,-1,-1,0
1523614478046,-196608,104,-56,-1,-1,0
1523614478046,0,104,-56,-1,-1,0
1523614478086,-131072,104,-56,-1,-1,0
1523614478086,-262144,104,-56,-1,-1,0
1523614478086,-262144,104,-56,-1,-1,0
1523614478086,-131072,104,-56,-1,-1,0
1523614478086,-65536,104,-56,-1,-1,0
1523614478126,0,104,-56,-1,-1,0
1523614478126,196608,104,-56,-1,-1,0
1523614478126,327680,104,-56,-1,-1,0
1523614478126,589824,104,-56,-1,-1,0
1523614478126,917504,104,-56,-1,-1,0
1523614478166,1179648,104,-56,-1,-1,0
1523614478166,1310720,104,-56,-1,-1,0
1523614478166,1441792,104,-56,-1,-1,0
1523614478166,1769472,104,-56,-1,-1,0
1523614478166,2097152,104,-56,-1,-1,0
1523614478206,2162688,104,-56,-1,-1,0
1523614478206,2097152,104,-56,-1,-1,0
1523614478206,1769472,104,-56,-1,-1,0
1523614478206,1441792,104,-56,-1,-1,0
1523614478206,917504,104,-56,-1,-1,0
1523614478246,393216,104,-56,-1,-1,0
1523614478246,-131072,104,-56,-1,-1,0
1523614478246,-589824,104,-56,-1,-1,0
1523614478246,-917504,104,-56,-1,-1,0
1523614478246,-1048576,104,-56,-1,-1,0
1523614478286,-1310720,104,-56,-1,-1,0
1523614478286,-1507328,104,-56,-1,-1,0
1523614478286,-1769472,104,-56,-1,-1,0
1523614478286,-2031616,104,-56,-1,-1,0
1523614478286,-2097152,104,-56,-1,-1,0
1523614478326,-2097152,104,-56,-1,-1,0
1523614478326,-2293760,104,-56,-1,-1,0
1523614478326,-2293760,104,-56,-1,-1,0
1523614478326,-1966080,104,-56,-1,-1,0
1523614478326,-1900544,104,-56,-1,-1,0
1523614478366,-2031616,104,-56,-1,-1,0
1523614478366,-2031616,104,-56,-1,-1,0
1523614478366,-1835008,104,-56,-1,-1,0
1523614478366,-1900544,104,-56,-1,-1,0
1523614478366,-2228224,104,-56,-1,-1,0
1523614478406,-2359296,104,-56,-1,-1,0
1523614478406,-2293760,104,-56,-1,-1,0
1523614478406,-2097152,104,-56,-1,-1,0
1523614478406,-2031616,104,-56,-1,-1,0
1523614478406,-2031616,104,-56,-1,-1,0
1523614478446,-2031616,104,-56,-1,-1,0
1523614478446,-2162688,104,-56,-1,-1,0
1523614478446,-2162688,104,-56,-1,-1,0
1523614478446,-2228224,104,-56,-1,-1,0
1523614478446,-2228224,104,-56,-1,-1,0
1523614478486,-2359296,104,-56,-1,-1,0
1523614478486,-2293760,104,-56,-1,-1,0
1523614478486,-1900544,104,-56,-1,-1,0
1523614478486,-1703936,104,-56,-1,-1,0
1523614478486,-1966080,104,-56,-1,-1,0
1523614478527,-2097152,104,-56,-1,-1,0
1523614478527,-1900544,104,-56,-1,-1,0
1523614478527,-1769472,104,-56,-1,-1,0
1523614478527,-1966080,104,-56,-1,-1,0
1523614478527,-1900544,104,-56,-1,-1,0
1523614478566,393216,104,-56,-1,-1,0
1523614478566,5308416,104,-56,-1,-1,0
1523614478566,7929856,104,-56,-1,-1,0
1523614478566,4456448,104,-56,-1,-1,0
1523614478566,-393216,104,-56,-1,-1,0
1523614478606,-1703936,104,-56,-1,-1,0
1523614478606,-1245184,104,-56,-1,-1,0
1523614478606,-1048576,104,-56,-1,-1,0
1523614478606,-983040,104,-56,-1,-1,0
1523614478606,-983040,104,-56,-1,-1,0
1523614478646,-983040,104,-56,-1,-1,0
1523614478646,-917504,104,-56,-1,-1,0
1523614478646,-917504,104,-56,-1,-1,0
1523614478646,-851968,104,-56,-1,-1,0
1523614478646,-851968,104,-56,-1,-1,0
1523614478686,-786432,104,-56,-1,-1,0
1523614478686,-720896,104,-56,-1,-1,0
1523614478686,-327680,104,-56,-1,-1,0
1523614478686,0,104,-56,-1,-1,0
1523614478686,196608,104,-56,-1,-1,0
1523614478726,196608,104,-56,-1,-1,0
1523614478726,327680,104,-56,-1,-1,0
1523614478726,458752,104,-56,-1,-1,0
1523614478726,720896,104,-56,-1,-1,0
1523614478726,917504,104,-56,-1,-1,0
1523614478766,1048576,104,-56,-1,-1,0
1523614478766,1048576,104,-56,-1,-1,0
1523614478766,851968,104,-56,-1,-1,0
1523614478766,524288,104,-56,-1,-1,0
1523614478766,65536,104,-56,-1,-1,0
1523614478806,-262144,104,-56,-1,-1,0
1523614478806,-589824,104,-56,-1,-1,0
1523614478806,-851968,104,-56,-1,-1,0
1523614478806,-983040,104,-56,-1,-1,0
1523614478806,-983040,104,-56,-1,-1,0
1523614478846,-917504,104,-56,-1,-1,0
1523614478846,-720896,104,-56,-1,-1,0
1523614478846,-589824,104,-56,-1,-1,0
1523614478846,-524288,104,-56,-1,-1,0
1523614478846,-589824,104,-56,-1,-1,0
1523614478886,-655360,104,-56,-1,-1,0
1523614478886,-458752,104,-56,-1,-1,0
1523614478886,-327680,104,-56,-1,-1,0
1523614478886,-327680,104,-56,-1,-1,0
1523614478886,-262144,104,-56,-1,-1,0
1523614478926,-65536,105,-56,-1,-1,0
1523614478926,131072,105,-56,-1,-1,0
1523614478926,0,105,-56,-1,-1,0
1523614478926,-65536,105,-56,-1,-1,0
1523614478926,0,105,-56,-1,-1,0
1523614478966,65536,105,-56,-1,-1,0
1523614478966,-262144,105,-56,-1,-1,0
1523614478966,-655360,105,-56,-1,-1,0
1523614478966,-524288,105,-56,-1,-1,0
1523614478966,0,105,-56,-1,-1,0
1523614479009,196608,105,-56,-1,-1,0
1523614479009,-65536,105,-56,-1,-1,0
1523614479009,-589824,105,-56,-1,-1,0
1523614479009,-655360,105,-56,-1,-1,0
1523614479009,-327680,105,-56,-1,-1,0
1523614479046,-262144,105,-56,-1,-1,0
1523614479046,-393216,105,-56,-1,-1,0
1523614479046,-458752,105,-56,-1,-1,0
1523614479046,-589824,105,-56,-1,-1,0
1523614479046,-786432,105,-56,-1,-1,0
1523614479086,-983040,105,-56,-1,-1,0
1523614479086,-1376256,105,-56,-1,-1,0
1523614479086,-1441792,105,-56,-1,-1,0
1523614479086,-327680,105,-56,-1,-1,0
1523614479086,3276800,105,-56,-1,-1,0
1523614479126,7798784,105,-56,-1,-1,0
1523614479126,7340032,105,-56,-1,-1,0
1523614479126,2359296,105,-56,-1,-1,0
1523614479126,-1572864,105,-56,-1,-1,0
1523614479126,-1703936,105,-56,-1,-1,0
1523614479167,-1245184,105,-56,-1,-1,0
1523614479167,-1310720,105,-56,-1,-1,0
1523614479167,-1245184,105,-56,-1,-1,0
1523614479167,-1048576,105,-56,-1,-1,0
1523614479167,-655360,105,-56,-1,-1,0
1523614479206,-655360,105,-56,-1,-1,0
1523614479206,-655360,105,-56,-1,-1,0
1523614479206,-589824,105,-56,-1,-1,0
1523614479206,-589824,105,-56,-1,-1,0
1523614479206,-524288,105,-56,-1,-1,0
1523614479246,-196608,105,-56,-1,-1,0
1523614479246,0,105,-56,-1,-1,0
1523614479246,131072,105,-56,-1,-1,0
1523614479246,458752,105,-56,-1,-1,0
1523614479246,983040,105,-56,-1,-1,0
1523614479286,1441792,105,-56,-1,-1,0
1523614479286,1572864,105,-56,-1,-1,0
1523614479286,1769472,105,-56,-1,-1,0
1523614479286,1769472,105,-56,-1,-1,0
1523614479286,1703936,105,-56,-1,-1,0
1523614479326,1507328,105,-56,-1,-1,0
1523614479326,1179648,105,-56,-1,-1,0
1523614479326,655360,105,-56,-1,-1,0
1523614479326,65536,105,-56,-1,-1,0
1523614479326,-458752,105,-56,-1,-1,0
1523614479366,-786432,105,-56,-1,-1,0
1523614479366,-983040,105,-56,-1,-1,0
1523614479366,-983040,105,-56,-1,-1,0
1523614479366,-983040,105,-56,-1,-1,0
1523614479366,-1114112,105,-56,-1,-1,0
1523614479406,-1179648,105,-56,-1,-1,0
1523614479406,-1310720,105,-56,-1,-1,0
1523614479406,-1179648,105,-56,-1,-1,0
1523614479406,-917504,105,-56,-1,-1,0
1523614479406,-1048576,105,-56,-1,-1,0
1523614479446,-1507328,105,-56,-1,-1,0
1523614479446,-1638400,105,-56,-1,-1,0
1523614479446,-1441792,105,-56,-1,-1,0
1523614479446,-1245184,105,-56,-1,-1,0
1523614479446,-1048576,105,-56,-1,-1,0
1523614479486,-786432,106,-56,-1,-1,0
1523614479486,-917504,106,-56,-1,-1,0
1523614479486,-1245184,106,-56,-1,-1,0
1523614479486,-1376256,106,-56,-1,-1,0
1523614479486,-1245184,106,-56,-1,-1,0
1523614479526,-1114112,106,-56,-1,-1,0
1523614479526,-1048576,106,-56,-1,-1,0
1523614479526,-1048576,106,-56,-1,-1,0
1523614479526,-917504,106,-56,-1,-1,0
1523614479526,-1048576,106,-56,-1,-1,0
1523614479566,-851968,106,-56,-1,-1,0
1523614479566,-655360,106,-56,-1,-1,0
1523614479566,-458752,106,-56,-1,-1,0
1523614479566,-393216,106,-56,-1,-1,0
1523614479566,-393216,106,-56,-1,-1,0
1523614479606,-327680,106,-56,-1,-1,0
1523614479606,-196608,106,-56,-1,-1,0
1523614479606,-131072,106,-56,-1,-1,0
1523614479606,0,106,-56,-1,-1,0
1523614479606,65536,106,-56,-1,-1,0
1523614479646,-262144,106,-56,-1,-1,0
1523614479646,-458752,106,-56,-1,-1,0
1523614479646,1900544,106,-56,-1,-1,0
1523614479646,7274496,106,-56,-1,-1,0
1523614479646,10354688,106,-56,-1,-1,0
1523614479686,6881280,106,-56,-1,-1,0
1523614479686,1572864,106,-56,-1,-1,0
1523614479686,-65536,106,-56,-1,-1,0
1523614479686,0,106,-56,-1,-1,0
1523614479686,65536,106,-56,-1,-1,0
1523614479726,0,106,-56,-1,-1,0
1523614479726,65536,106,-56,-1,-1,0
1523614479726,0,106,-56,-1,-1,0
1523614479726,0,106,-56,-1,-1,0
1523614479726,0,106,-56,-1,-1,0
1523614479766,0,106,-56,-1,-1,0
1523614479766,-196608,106,-56,-1,-1,0
1523614479766,-131072,106,-56,-1,-1,0
1523614479766,0,106,-56,-1,-1,0
1523614479766,65536,106,-56,-1,-1,0
1523614479808,65536,106,-56,-1,-1,0
1523614479808,327680,106,-56,-1,-1,0
1523614479808,589824,106,-56,-1,-1,0
1523614479808,983040,106,-56,-1,-1,0
1523614479808,1179648,106,-56,-1,-1,0
1523614479846,1376256,106,-56,-1,-1,0
1523614479846,1507328,106,-56,-1,-1,0
1523614479846,1638400,106,-56,-1,-1,0
1523614479846,1572864,106,-56,-1,-1,0
1523614479846,1310720,106,-56,-1,-1,0
1523614479886,983040,106,-56,-1,-1,0
1523614479886,589824,106,-56,-1,-1,0
1523614479886,131072,106,-56,-1,-1,0
1523614479886,-131072,106,-56,-1,-1,0
1523614479886,-393216,106,-56,-1,-1,0
1523614479926,-524288,106,-56,-1,-1,0
1523614479926,-589824,106,-56,-1,-1,0
1523614479926,-720896,106,-56,-1,-1,0
1523614479926,-851968,106,-56,-1,-1,0
1523614479926,-851968,106,-56,-1,-1,0
1523614479966,-786432,106,-56,-1,-1,0
1523614479966,-917504,106,-56,-1,-1,0
1523614479966,-983040,106,-56,-1,-1,0
1523614479966,-786432,106,-56,-1,-1,0
1523614479966,-589824,106,-56,-1,-1,0
1523614480006,-655360,106,-56,-1,-1,0
1523614480006,-589824,106,-56,-1,-1,0
1523614480006,-131072,106,-56,-1,-1,0
1523614480006,393216,106,-56,-1,-1,0
1523614480006,655360,106,-56,-1,-1,0
1523614480046,458752,106,-56,-1,-1,0
1523614480046,196608,106,-56,-1,-1,0
1523614480046,0,106,-56,-1,-1,0
1523614480046,-327680,106,-56,-1,-1,0
1523614480046,-458752,106,-56,-1,-1,0
1523614480086,0,106,-56,-1,-1,0
1523614480086,65536,106,-56,-1,-1,0
1523614480086,-262144,106,-56,-1,-1,0
1523614480086,-327680,106,-56,-1,-1,0
1523614480086,-131072,106,-56,-1,-1,0
1523614480126,-65536,106,-56,-1,-1,0
1523614480126,-262144,106,-56,-1,-1,0
1523614480126,-196608,106,-56,-1,-1,0
1523614480126,-131072,106,-56,-1,-1,0
1523614480126,-393216,106,-56,-1,-1,0
1523614480166,-851968,106,-56,-1,-1,0
1523614480166,-983040,106,-56,-1,-1,0
1523614480166,-983040,106,-56,-1,-1,0
1523614480166,-1048576,106,-56,-1,-1,0
1523614480166,0,106,-56,-1,-1,0
1523614480206,3997696,106,-56,-1,-1,0
1523614480206,8388608,106,-56,-1,-1,0
1523614480206,6488064,106,-56,-1,-1,0
1523614480206,1114112,106,-56,-1,-1,0
1523614480206,-1769472,106,-56,-1,-1,0
1523614480247,-1245184,106,-56,-1,-1,0
1523614480247,-851968,106,-56,-1,-1,0
1523614480247,-655360,106,-56,-1,-1,0
1523614480247,-327680,106,-56,-1,-1,0
1523614480247,-393216,106,-56,-1,-1,0
1523614480286,-458752,106,-56,-1,-1,0
1523614480286,-393216,106,-56,-1,-1,0
1523614480286,0,106,-56,-1,-1,0
1523614480286,65536,106,-56,-1,-1,0
1523614480286,0,106,-56,-1,-1,0
1523614480326,0,106,-56,-1,-1,0
1523614480326,65536,106,-56,-1,-1,0
1523614480326,327680,106,-56,-1,-1,0
1523614480326,720896,106,-56,-1,-1,0
1523614480326,1114112,106,-56,-1,-1,0
1523614480366,1310720,106,-56,-1,-1,0
1523614480366,1703936,106,-56,-1,-1,0
1523614480366,2228224,106,-56,-1,-1,0
1523614480366,2555904,106,-56,-1,-1,0
1523614480366,2621440,106,-56,-1,-1,0
1523614480406,2555904,106,-56,-1,-1,0
1523614480406,2359296,106,-56,-1,-1,0
1523614480406,2031616,106,-56,-1,-1,0
1523614480406,1572864,106,-56,-1,-1,0
1523614480406,983040,106,-56,-1,-1,0
1523614480448,458752,106,-56,-1,-1,0
1523614480448,131072,106,-56,-1,-1,0
1523614480448,0,106,-56,-1,-1,0
1523614480448,-131072,106,-56,-1,-1,0
1523614480448,-393216,106,-56,-1,-1,0
1523614480486,-655360,106,-56,-1,-1,0
1523614480486,-458752,106,-56,-1,-1,0
1523614480486,-196608,106,-56,-1,-1,0
1523614480486,-196608,106,-56,-1,-1,0
1523614480486,-196608,106,-56,-1,-1,0
1523614480526,-196608,106,-56,-1,-1,0
1523614480526,-327680,106,-56,-1,-1,0
1523614480526,-458752,106,-56,-1,-1,0
1523614480526,-327680,106,-56,-1,-1,0
1523614480526,-131072,106,-56,-1,-1,0
1523614480566,-262144,107,-56,-1,-1,0
1523614480566,-458752,107,-56,-1,-1,0
1523614480566,-524288,107,-56,-1,-1,0
1523614480566,-262144,107,-56,-1,-1,0
1523614480566,-65536,107,-56,-1,-1,0
1523614480606,-262144,107,-56,-1,-1,0
1523614480606,-851968,107,-56,-1,-1,0
1523614480606,-1179648,107,-56,-1,-1,0
1523614480606,-1179648,107,-56,-1,-1,0
1523614480606,-1179648,107,-56,-1,-1,0
1523614480646,-1310720,107,-56,-1,-1,0
1523614480646,-1441792,107,-56,-1,-1,0
1523614480646,-1572864,107,-56,-1,-1,0
1523614480646,-1638400,107,-56,-1,-1,0
1523614480646,-1638400,107,-56,-1,-1,0
1523614480686,-1769472,107,-56,-1,-1,0
1523614480686,-1900544,107,-56,-1,-1,0
1523614480686,-1835008,107,-56,-1,-1,0
1523614480686,-1703936,107,-56,-1,-1,0
1523614480686,-1966080,107,-56,-1,-1,0
1523614480726,-2359296,107,-56,-1,-1,0
1523614480726,-1572864,107,-56,-1,-1,0
1523614480726,2293760,107,-56,-1,-1,0
1523614480726,7143424,107,-56,-1,-1,0
1523614480726,6488064,107,-56,-1,-1,0
1523614480766,1245184,107,-56,-1,-1,0
1523614480766,-2424832,107,-56,-1,-1,0
1523614480766,-2162688,107,-56,-1,-1,0
1523614480766,-1703936,107,-56,-1,-1,0
1523614480766,-1703936,107,-56,-1,-1,0
1523614480806,-1769472,107,-56,-1,-1,0
1523614480806,-1703936,107,-56,-1,-1,0
1523614480806,-1507328,107,-56,-1,-1,0
1523614480806,-1507328,107,-56,-1,-1,0
1523614480806,-1572864,107,-56,-1,-1,0
1523614480846,-1638400,107,-56,-1,-1,0
1523614480846,-1572864,107,-56,-1,-1,0
1523614480846,-1376256,107,-56,-1,-1,0
1523614480846,-1179648,107,-56,-1,-1,0
1523614480846,-983040,107,-56,-1,-1,0
1523614480886,-786432,107,-56,-1,-1,0
1523614480886,-458752,107,-56,-1,-1,0
1523614480886,-131072,107,-56,-1,-1,0
1523614480886,131072,107,-56,-1,-1,0
1523614480886,327680,107,-56,-1,-1,0
1523614480926,589824,107,-56,-1,-1,0
1523614480926,655360,107,-56,-1,-1,0
1523614480926,655360,107,-56,-1,-1,0
1523614480926,524288,107,-56,-1,-1,0
1523614480926,327680,107,-56,-1,-1,0
1523614480966,-131072,107,-56,-1,-1,0
1523614480966,-655360,107,-56,-1,-1,0
1523614480966,-983040,107,-56,-1,-1,0
1523614480966,-1114112,107,-56,-1,-1,0
1523614480966,-1179648,107,-56,-1,-1,0
1523614481006,-1245184,107,-56,-1,-1,0
1523614481006,-1245184,107,-56,-1,-1,0
1523614481006,-1245184,107,-56,-1,-1,0
1523614481006,-1114112,107,-56,-1,-1,0
1523614481006,-1114112,107,-56,-1,-1,0
1523614481046,-1048576,107,-56,-1,-1,0
1523614481046,-851968,107,-56,-1,-1,0
1523614481046,-720896,107,-56,-1,-1,0
1523614481046,-720896,107,-56,-1,-1,0
1523614481046,-458752,107,-56,-1,-1,0
1523614481088,-131072,107,-56,-1,-1,0
1523614481088,-131072,107,-56,-1,-1,0
1523614481088,-327680,107,-56,-1,-1,0
1523614481088,-262144,107,-56,-1,-1,0
1523614481088,131072,107,-56,-1,-1,0
1523614481126,327680,107,-56,-1,-1,0
1523614481126,262144,107,-56,-1,-1,0
1523614481126,131072,107,-56,-1,-1,0
1523614481126,0,107,-56,-1,-1,0
1523614481126,131072,107,-56,-1,-1,0
1523614481166,393216,107,-56,-1,-1,0
1523614481166,327680,107,-56,-1,-1,0
1523614481166,65536,107,-56,-1,-1,0
1523614481166,-196608,107,-56,-1,-1,0
1523614481166,-327680,107,-56,-1,-1,0
1523614481206,-65536,107,-56,-1,-1,0
1523614481206,262144,107,-56,-1,-1,0
1523614481206,131072,107,-56,-1,-1,0
1523614481206,-262144,107,-56,-1,-1,0
1523614481206,-458752,107,-56,-1,-1,0
1523614481246,-589824,107,-56,-1,-1,0
1523614481246,-720896,107,-56,-1,-1,0
1523614481246,-720896,107,-56,-1,-1,0
1523614481246,655360,107,-56,-1,-1,0
1523614481246,5308416,107,-56,-1,-1,0
1523614481286,9568256,107,-56,-1,-1,0
1523614481286,7143424,107,-56,-1,-1,0
1523614481286,1638400,107,-56,-1,-1,0
1523614481286,-983040,107,-56,-1,-1,0
1523614481286,-786432,107,-56,-1,-1,0
1523614481326,-655360,107,-56,-1,-1,0
1523614481326,-851968,107,-56,-1,-1,0
1523614481326,-917504,107,-56,-1,-1,0
1523614481326,-917504,107,-56,-1,-1,0
1523614481326,-786432,107,-56,-1,-1,0
1523614481366,-655360,107,-56,-1,-1,0
1523614481366,-393216,107,-56,-1,-1,0
1523614481366,-131072,107,-56,-1,-1,0
1523614481366,0,107,-56,-1,-1,0
1523614481366,0,107,-56,-1,-1,0
1523614481406,65536,107,-56,-1,-1,0
1523614481406,262144,107,-56,-1,-1,0
1523614481406,393216,107,-56,-1,-1,0
1523614481406,655360,107,-56,-1,-1,0
1523614481406,917504,107,-56,-1,-1,0
1523614481446,1245184,107,-56,-1,-1,0
1523614481446,1441792,107,-56,-1,-1,0
1523614481446,1638400,107,-56,-1,-1,0
1523614481446,1835008,107,-56,-1,-1,0
1523614481446,1769472,107,-56,-1,-1,0
1523614481486,1441792,107,-56,-1,-1,0
1523614481486,1048576,107,-56,-1,-1,0
1523614481486,524288,107,-56,-1,-1,0
1523614481486,65536,107,-56,-1,-1,0
1523614481486,-262144,107,-56,-1,-1,0
1523614481526,-524288,107,-56,-1,-1,0
1523614481526,-720896,107,-56,-1,-1,0
1523614481526,-983040,107,-56,-1,-1,0
1523614481526,-1179648,107,-56,-1,-1,0
1523614481526,-1441792,107,-56,-1,-1,0
1523614481566,-1638400,107,-56,-1,-1,0
1523614481566,-1769472,107,-56,-1,-1,0
1523614481566,-1638400,107,-56,-1,-1,0
1523614481566,-1245184,107,-56,-1,-1,0
1523614481566,-1179648,107,-56,-1,-1,0
1523614481606,-1179648,107,-56,-1,-1,0
1523614481606,-1179648,107,-56,-1,-1,0
1523614481606,-1048576,107,-56,-1,-1,0
1523614481606,-1048576,107,-56,-1,-1,0
1523614481606,-1179648,107,-56,-1,-1,0
1523614481646,-983040,107,-56,-1,-1,0
1523614481646,-786432,107,-56,-1,-1,0
1523614481646,-851968,107,-56,-1,-1,0
1523614481646,-1310720,107,-56,-1,-1,0
1523614481646,-1572864,107,-56,-1,-1,0
1523614481686,-1638400,107,-56,-1,-1,0
1523614481686,-1310720,107,-56,-1,-1,0
1523614481686,-1048576,107,-56,-1,-1,0
1523614481686,-1048576,107,-56,-1,-1,0
1523614481686,-1376256,107,-56,-1,-1,0
1523614481728,-1638400,107,-56,-1,-1,0
1523614481728,-1572864,107,-56,-1,-1,0
1523614481728,-1376256,107,-56,-1,-1,0
1523614481728,-1507328,107,-56,-1,-1,0
1523614481728,-1507328,107,-56,-1,-1,0
1523614481766,-1441792,107,-56,-1,-1,0
1523614481766,-1310720,107,-56,-1,-1,0
1523614481766,-1376256,107,-56,-1,-1,0
1523614481766,-1572864,107,-56,-1,-1,0
1523614481766,-393216,107,-56,-1,-1,0
1523614481806,4259840,107,-56,-1,-1,0
1523614481806,8912896,107,-56,-1,-1,0
1523614481806,6750208,107,-56,-1,-1,0
1523614481806,983040,107,-56,-1,-1,0
1523614481806,-2031616,107,-56,-1,-1,0
1523614481846,-1703936,107,-56,-1,-1,0
1523614481846,-1310720,107,-56,-1,-1,0
1523614481846,-1507328,107,-56,-1,-1,0
1523614481846,-1507328,107,-56,-1,-1,0
1523614481846,-1310720,107,-56,-1,-1,0
1523614481886,-983040,107,-56,-1,-1,0
1523614481886,-1114112,107,-56,-1,-1,0
1523614481886,-1245184,107,-56,-1,-1,0
1523614481886,-1376256,107,-56,-1,-1,0
1523614481886,-1310720,107,-56,-1,-1,0
1523614481926,-1310720,107,-56,-1,-1,0
1523614481926,-1114112,107,-56,-1,-1,0
1523614481926,-983040,107,-56,-1,-1,0
1523614481926,-786432,107,-56,-1,-1,0
1523614481926,-458752,107,-56,-1,-1,0
1523614481966,-65536,107,-56,-1,-1,0
1523614481966,196608,107,-56,-1,-1,0
1523614481966,393216,107,-56,-1,-1,0
1523614481966,589824,107,-56,-1,-1,0
1523614481966,720896,107,-56,-1,-1,0
1523614482006,655360,107,-56,-1,-1,0
1523614482006,458752,107,-56,-1,-1,0
1523614482006,196608,107,-56,-1,-1,0
1523614482006,-327680,107,-56,-1,-1,0
1523614482006,-917504,107,-56,-1,-1,0
1523614482046,-1310720,107,-56,-1,-1,0
1523614482046,-1572864,107,-56,-1,-1,0
1523614482046,-1769472,107,-56,-1,-1,0
1523614482046,-1835008,107,-56,-1,-1,0
1523614482046,-1769472,107,-56,-1,-1,0
1523614482086,-1638400,107,-56,-1,-1,0
1523614482086,-1507328,107,-56,-1,-1,0
1523614482086,-1376256,107,-56,-1,-1,0
1523614482086,-1114112,107,-56,-1,-1,0
1523614482086,-851968,107,-56,-1,-1,0
1523614482126,-589824,107,-56,-1,-1,0
1523614482126,-262144,107,-56,-1,-1,0
1523614482126,-65536,107,-56,-1,-1,0
1523614482126,0,107,-56,-1,-1,0
1523614482126,196608,107,-56,-1,-1,0
1523614482166,393216,107,-56,-1,-1,0
1523614482166,524288,107,-56,-1,-1,0
1523614482166,786432,107,-56,-1,-1,0
1523614482166,983040,107,-56,-1,-1,0
1523614482166,1376256,107,-56,-1,-1,0
1523614482206,1441792,107,-56,-1,-1,0
