milliseconds, ECG, ECG HR, PPG, PPG HR, SpO2, PI
1523619633335,3014656,-103,-56,-1,-1,0
1523619633335,3735552,-103,-56,-1,-1,0
1523619633335,4325376,-103,-56,-1,-1,0
1523619633335,4521984,-103,-56,-1,-1,0
1523619633335,4390912,-103,-56,-1,-1,0
1523619633379,3997696,-103,-56,-1,-1,0
1523619633379,3276800,-103,-56,-1,-1,0
1523619633379,2359296,-103,-56,-1,-1,0
1523619633379,1507328,-103,-56,-1,-1,0
1523619633379,851968,-103,-56,-1,-1,0
1523619633415,524288,-103,-56,-1,-1,0
1523619633415,262144,-103,-56,-1,-1,0
1523619633415,65536,-103,-56,-1,-1,0
1523619633415,-131072,-103,-56,-1,-1,0
1523619633415,-262144,-103,-56,-1,-1,0
1523619633455,-393216,-103,-56,-1,-1,0
1523619633455,-458752,-103,-56,-1,-1,0
1523619633455,-327680,-103,-56,-1,-1,0
1523619633455,-196608,-103,-56,-1,-1,0
1523619633455,-131072,-103,-56,-1,-1,0
1523619633495,-131072,-103,-56,-1,-1,0
1523619633495,-327680,-103,-56,-1,-1,0
1523619633495,-589824,-103,-56,-1,-1,0
1523619633495,-851968,-103,-56,-1,-1,0
1523619633495,-1048576,-103,-56,-1,-1,0
1523619633535,-1179648,-103,-56,-1,-1,0
1523619633535,-1245184,-103,-56,-1,-1,0
1523619633535,-1376256,-103,-56,-1,-1,0
1523619633535,-1703936,-103,-56,-1,-1,0
1523619633535,-1245184,-103,-56,-1,-1,0
1523619633575,851968,-103,-56,-1,-1,0
1523619633575,3604480,-103,-56,-1,-1,0
1523619633575,3866624,-103,-56,-1,-1,0
1523619633575,65536,-103,-56,-1,-1,0
1523619633575,-4456448,-103,-56,-1,-1,0
1523619633615,-5963776,-103,-56,-1,-1,0
1523619633615,-4325376,-103,-56,-1,-1,0
1523619633615,-2686976,-103,-56,-1,-1,0
1523619633615,-1900544,-103,-56,-1,-1,0
1523619633615,-1703936,-103,-56,-1,-1,0
1523619633656,-1507328,-103,-56,-1,-1,0
1523619633656,-1310720,-103,-56,-1,-1,0
1523619633656,-1048576,-103,-56,-1,-1,0
1523619633656,-786432,-103,-56,-1,-1,0
1523619633656,-393216,-103,-56,-1,-1,0
1523619633695,-65536,-103,-56,-1,-1,0
1523619633695,262144,-103,-56,-1,-1,0
1523619633695,786432,-103,-56,-1,-1,0
1523619633695,1441792,-103,-56,-1,-1,0
1523619633695,2162688,-103,-56,-1,-1,0
1523619633735,2883584,-103,-56,-1,-1,0
1523619633735,3407872,-103,-56,-1,-1,0
1523619633735,3735552,-103,-56,-1,-1,0
1523619633735,3604480,-103,-56,-1,-1,0
1523619633735,3276800,-103,-56,-1,-1,0
1523619633775,2752512,-103,-56,-1,-1,0
1523619633775,1966080,-103,-56,-1,-1,0
1523619633775,1179648,-103,-56,-1,-1,0
1523619633775,524288,-103,-56,-1,-1,0
1523619633775,65536,-103,-56,-1,-1,0
1523619633815,-131072,-103,-56,-1,-1,0
1523619633815,-393216,-103,-56,-1,-1,0
1523619633815,-589824,-103,-56,-1,-1,0
1523619633815,-720896,-103,-56,-1,-1,0
1523619633815,-786432,-103,-56,-1,-1,0
1523619633855,-851968,-103,-56,-1,-1,0
1523619633855,-851968,-103,-56,-1,-1,0
1523619633855,-720896,-103,-56,-1,-1,0
1523619633855,-524288,-103,-56,-1,-1,0
1523619633855,-393216,-103,-56,-1,-1,0
1523619633895,-458752,-103,-56,-1,-1,0
1523619633895,-589824,-103,-56,-1,-1,0
1523619633895,-851968,-103,-56,-1,-1,0
1523619633895,-1048576,-103,-56,-1,-1,0
1523619633895,-1245184,-103,-56,-1,-1,0
1523619633935,-1376256,-103,-56,-1,-1,0
1523619633935,-1441792,-103,-56,-1,-1,0
1523619633935,-1507328,-103,-56,-1,-1,0
1523619633935,-1769472,-103,-56,-1,-1,0
1523619633935,-1245184,-103,-56,-1,-1,0
1523619633987,851968,-103,-56,-1,-1,0
1523619633987,3735552,-103,-56,-1,-1,0
1523619633987,4521984,-103,-56,-1,-1,0
1523619633987,983040,-103,-56,-1,-1,0
1523619633987,-3735552,-103,-56,-1,-1,0
1523619634016,-5308416,-103,-56,-1,-1,0
1523619634016,-3735552,-103,-56,-1,-1,0
1523619634016,-2293760,-103,-56,-1,-1,0
1523619634016,-1769472,-103,-56,-1,-1,0
1523619634016,-1638400,-103,-56,-1,-1,0
1523619634055,-1507328,-103,-56,-1,-1,0
1523619634055,-1310720,-103,-56,-1,-1,0
1523619634055,-1048576,-103,-56,-1,-1,0
1523619634055,-786432,-103,-56,-1,-1,0
1523619634055,-458752,-103,-56,-1,-1,0
1523619634095,-196608,-103,-56,-1,-1,0
1523619634095,131072,-103,-56,-1,-1,0
1523619634095,589824,-103,-56,-1,-1,0
1523619634095,1179648,-103,-56,-1,-1,0
1523619634095,1769472,-103,-56,-1,-1,0
1523619634136,2359296,-103,-56,-1,-1,0
1523619634136,2752512,-103,-56,-1,-1,0
1523619634136,2883584,-103,-56,-1,-1,0
1523619634136,2686976,-103,-56,-1,-1,0
1523619634136,2359296,-103,-56,-1,-1,0
1523619634175,1966080,-103,-56,-1,-1,0
1523619634175,1376256,-103,-56,-1,-1,0
1523619634175,720896,-103,-56,-1,-1,0
1523619634175,131072,-103,-56,-1,-1,0
1523619634175,-131072,-103,-56,-1,-1,0
1523619634215,-458752,-103,-56,-1,-1,0
1523619634215,-655360,-103,-56,-1,-1,0
1523619634215,-786432,-103,-56,-1,-1,0
1523619634215,-983040,-103,-56,-1,-1,0
1523619634215,-1048576,-103,-56,-1,-1,0
1523619634255,-1179648,-103,-56,-1,-1,0
1523619634255,-1245184,-103,-56,-1,-1,0
1523619634255,-1114112,-103,-56,-1,-1,0
1523619634255,-917504,-103,-56,-1,-1,0
1523619634255,-786432,-103,-56,-1,-1,0
1523619634295,-720896,-103,-56,-1,-1,0
1523619634295,-786432,-103,-56,-1,-1,0
1523619634295,-917504,-103,-56,-1,-1,0
1523619634295,-1114112,-103,-56,-1,-1,0
1523619634295,-1310720,-103,-56,-1,-1,0
1523619634335,-1376256,-103,-56,-1,-1,0
1523619634335,-1376256,-103,-56,-1,-1,0
1523619634335,-1441792,-103,-56,-1,-1,0
1523619634335,-1638400,-103,-56,-1,-1,0
1523619634335,-1769472,-103,-56,-1,-1,0
1523619634375,-786432,-103,-56,-1,-1,0
1523619634375,1507328,-103,-56,-1,-1,0
1523619634375,3407872,-103,-56,-1,-1,0
1523619634375,2359296,-103,-56,-1,-1,0
1523619634375,-1900544,-103,-56,-1,-1,0
1523619634415,-5111808,-103,-56,-1,-1,0
1523619634415,-4653056,-103,-56,-1,-1,0
1523619634415,-2686976,-103,-56,-1,-1,0
1523619634415,-1572864,-103,-56,-1,-1,0
1523619634415,-1179648,-103,-56,-1,-1,0
1523619634455,-983040,-103,-56,-1,-1,0
1523619634455,-786432,-103,-56,-1,-1,0
1523619634455,-589824,-103,-56,-1,-1,0
1523619634455,-327680,-103,-56,-1,-1,0
1523619634455,0,-103,-56,-1,-1,0
1523619634495,262144,-103,-56,-1,-1,0
1523619634495,655360,-103,-56,-1,-1,0
1523619634495,1114112,-103,-56,-1,-1,0
1523619634495,1638400,-103,-56,-1,-1,0
1523619634495,2293760,-103,-56,-1,-1,0
1523619634535,2949120,-103,-56,-1,-1,0
1523619634535,3473408,-103,-56,-1,-1,0
1523619634535,3866624,-103,-56,-1,-1,0
1523619634535,3932160,-103,-56,-1,-1,0
1523619634535,3801088,-103,-56,-1,-1,0
1523619634575,3473408,-103,-56,-1,-1,0
1523619634575,2883584,-103,-56,-1,-1,0
1523619634575,2228224,-103,-56,-1,-1,0
1523619634575,1638400,-103,-56,-1,-1,0
1523619634575,1114112,-103,-56,-1,-1,0
1523619634627,720896,-103,-56,-1,-1,0
1523619634627,458752,-103,-56,-1,-1,0
1523619634627,262144,-103,-56,-1,-1,0
1523619634627,65536,-103,-56,-1,-1,0
1523619634627,-65536,-103,-56,-1,-1,0
1523619634655,-196608,-103,-56,-1,-1,0
1523619634655,-262144,-103,-56,-1,-1,0
1523619634655,-65536,-103,-56,-1,-1,0
1523619634655,131072,-103,-56,-1,-1,0
1523619634655,262144,-103,-56,-1,-1,0
1523619634695,262144,-103,-56,-1,-1,0
1523619634695,131072,-103,-56,-1,-1,0
1523619634695,-65536,-103,-56,-1,-1,0
1523619634695,-327680,-103,-56,-1,-1,0
1523619634695,-524288,-103,-56,-1,-1,0
1523619634735,-589824,-103,-56,-1,-1,0
1523619634735,-589824,-103,-56,-1,-1,0
1523619634735,-655360,-103,-56,-1,-1,0
1523619634735,-1114112,-103,-56,-1,-1,0
1523619634735,-1507328,-103,-56,-1,-1,0
1523619634776,-720896,-103,-56,-1,-1,0
1523619634776,1441792,-103,-56,-1,-1,0
1523619634776,2752512,-103,-56,-1,-1,0
1523619634776,983040,-103,-56,-1,-1,0
1523619634776,-2686976,-103,-56,-1,-1,0
1523619634815,-4784128,-103,-56,-1,-1,0
1523619634815,-3997696,-103,-56,-1,-1,0
1523619634815,-2228224,-103,-56,-1,-1,0
1523619634815,-1245184,-103,-56,-1,-1,0
1523619634815,-917504,-103,-56,-1,-1,0
1523619634857,-786432,-103,-56,-1,-1,0
1523619634857,-589824,-103,-56,-1,-1,0
1523619634857,-393216,-103,-56,-1,-1,0
1523619634857,-131072,-103,-56,-1,-1,0
1523619634857,131072,-103,-56,-1,-1,0
1523619634895,393216,-103,-56,-1,-1,0
1523619634895,786432,-103,-56,-1,-1,0
1523619634895,1245184,-103,-56,-1,-1,0
1523619634895,1769472,-103,-56,-1,-1,0
1523619634895,2424832,-103,-56,-1,-1,0
1523619634935,3080192,-103,-56,-1,-1,0
1523619634935,3670016,-103,-56,-1,-1,0
1523619634935,3997696,-103,-56,-1,-1,0
1523619634935,4063232,-103,-56,-1,-1,0
1523619634935,3866624,-103,-56,-1,-1,0
1523619634975,3473408,-103,-56,-1,-1,0
1523619634975,2883584,-103,-56,-1,-1,0
1523619634975,2162688,-103,-56,-1,-1,0
1523619634975,1507328,-103,-56,-1,-1,0
1523619634975,983040,-103,-56,-1,-1,0
1523619635015,589824,-103,-56,-1,-1,0
1523619635015,327680,-103,-56,-1,-1,0
1523619635015,65536,-103,-56,-1,-1,0
1523619635015,-65536,-103,-56,-1,-1,0
1523619635015,-196608,-103,-56,-1,-1,0
1523619635055,-393216,-103,-56,-1,-1,0
1523619635055,-458752,-103,-56,-1,-1,0
1523619635055,-196608,-103,-56,-1,-1,0
1523619635055,65536,-103,-56,-1,-1,0
1523619635055,262144,-103,-56,-1,-1,0
1523619635095,262144,-103,-56,-1,-1,0
1523619635095,196608,-103,-56,-1,-1,0
1523619635095,0,-103,-56,-1,-1,0
1523619635095,-327680,-103,-56,-1,-1,0
1523619635095,-589824,-103,-56,-1,-1,0
1523619635135,-720896,-103,-56,-1,-1,0
1523619635135,-786432,-103,-56,-1,-1,0
1523619635135,-851968,-103,-56,-1,-1,0
1523619635135,-1179648,-103,-56,-1,-1,0
1523619635135,-1572864,-103,-56,-1,-1,0
1523619635176,-851968,-103,-56,-1,-1,0
1523619635176,1048576,-103,-56,-1,-1,0
1523619635176,2097152,-103,-56,-1,-1,0
1523619635176,327680,-103,-56,-1,-1,0
1523619635176,-3211264,-103,-56,-1,-1,0
1523619635215,-5242880,-103,-56,-1,-1,0
1523619635215,-4521984,-103,-56,-1,-1,0
1523619635215,-2752512,-103,-56,-1,-1,0
1523619635215,-1638400,-103,-56,-1,-1,0
1523619635215,-1245184,-103,-56,-1,-1,0
1523619635267,-1114112,-103,-56,-1,-1,0
1523619635267,-983040,-103,-56,-1,-1,0
1523619635267,-720896,-103,-56,-1,-1,0
1523619635267,-458752,-103,-56,-1,-1,0
1523619635267,-196608,-103,-56,-1,-1,0
1523619635295,0,-103,-56,-1,-1,0
1523619635295,393216,-103,-56,-1,-1,0
1523619635295,917504,-103,-56,-1,-1,0
1523619635295,1441792,-103,-56,-1,-1,0
1523619635295,2031616,-103,-56,-1,-1,0
1523619635335,2752512,-103,-56,-1,-1,0
1523619635335,3407872,-103,-56,-1,-1,0
1523619635335,3866624,-103,-56,-1,-1,0
1523619635335,3997696,-103,-56,-1,-1,0
1523619635335,3866624,-103,-56,-1,-1,0
1523619635375,3473408,-103,-56,-1,-1,0
1523619635375,2949120,-103,-56,-1,-1,0
1523619635375,2228224,-103,-56,-1,-1,0
1523619635375,1441792,-103,-56,-1,-1,0
1523619635375,851968,-103,-56,-1,-1,0
1523619635415,393216,-103,-56,-1,-1,0
1523619635415,0,-103,-56,-1,-1,0
1523619635415,-327680,-103,-56,-1,-1,0
1523619635415,-524288,-103,-56,-1,-1,0
1523619635415,-655360,-103,-56,-1,-1,0
1523619635455,-851968,-103,-56,-1,-1,0
1523619635455,-851968,-103,-56,-1,-1,0
1523619635455,-720896,-103,-56,-1,-1,0
1523619635455,-524288,-103,-56,-1,-1,0
1523619635455,-393216,-103,-56,-1,-1,0
1523619635495,-393216,-103,-56,-1,-1,0
1523619635495,-589824,-103,-56,-1,-1,0
1523619635495,-851968,-103,-56,-1,-1,0
1523619635495,-1114112,-103,-56,-1,-1,0
1523619635495,-1310720,-103,-56,-1,-1,0
1523619635535,-1310720,-103,-56,-1,-1,0
1523619635535,-1376256,-103,-56,-1,-1,0
1523619635535,-1507328,-103,-56,-1,-1,0
1523619635535,-1966080,-103,-56,-1,-1,0
1523619635535,-1835008,-103,-56,-1,-1,0
1523619635575,-131072,-103,-56,-1,-1,0
1523619635575,2162688,-103,-56,-1,-1,0
1523619635575,2293760,-103,-56,-1,-1,0
1523619635575,-983040,-103,-56,-1,-1,0
1523619635575,-4980736,-103,-56,-1,-1,0
1523619635615,-6094848,-103,-56,-1,-1,0
1523619635615,-4521984,-103,-56,-1,-1,0
1523619635615,-2818048,-103,-56,-1,-1,0
1523619635615,-1966080,-103,-56,-1,-1,0
1523619635615,-1703936,-103,-56,-1,-1,0
1523619635655,-1572864,-103,-56,-1,-1,0
1523619635655,-1310720,-103,-56,-1,-1,0
1523619635655,-983040,-103,-56,-1,-1,0
1523619635655,-655360,-103,-56,-1,-1,0
1523619635655,-393216,-103,-56,-1,-1,0
1523619635695,0,-103,-56,-1,-1,0
1523619635695,393216,-103,-56,-1,-1,0
1523619635695,851968,-103,-56,-1,-1,0
1523619635695,1441792,-103,-56,-1,-1,0
1523619635695,2359296,-103,-56,-1,-1,0
1523619635735,3211264,-103,-56,-1,-1,0
1523619635735,3866624,-103,-56,-1,-1,0
1523619635735,4194304,-103,-56,-1,-1,0
1523619635735,4128768,-103,-56,-1,-1,0
1523619635735,3801088,-103,-56,-1,-1,0
1523619635775,3276800,-103,-56,-1,-1,0
1523619635775,2424832,-103,-56,-1,-1,0
1523619635775,1376256,-103,-56,-1,-1,0
1523619635775,524288,-103,-56,-1,-1,0
1523619635775,0,-103,-56,-1,-1,0
1523619635817,-458752,-103,-56,-1,-1,0
1523619635817,-851968,-103,-56,-1,-1,0
1523619635817,-1114112,-103,-56,-1,-1,0
1523619635817,-1245184,-103,-56,-1,-1,0
1523619635817,-1441792,-103,-56,-1,-1,0
1523619635855,-1507328,-103,-56,-1,-1,0
1523619635855,-1441792,-103,-56,-1,-1,0
1523619635855,-1310720,-103,-56,-1,-1,0
1523619635855,-1245184,-103,-56,-1,-1,0
1523619635855,-1245184,-103,-56,-1,-1,0
1523619635907,-1376256,-103,-56,-1,-1,0
1523619635907,-1638400,-103,-56,-1,-1,0
1523619635907,-1900544,-103,-56,-1,-1,0
1523619635907,-2162688,-103,-56,-1,-1,0
1523619635907,-2293760,-103,-56,-1,-1,0
1523619635935,-2293760,-103,-56,-1,-1,0
1523619635935,-2359296,-103,-56,-1,-1,0
1523619635935,-2686976,-103,-56,-1,-1,0
1523619635935,-2555904,-103,-56,-1,-1,0
1523619635935,-720896,-103,-56,-1,-1,0
1523619635977,1966080,-103,-56,-1,-1,0
1523619635977,2555904,-103,-56,-1,-1,0
1523619635977,-720896,-103,-56,-1,-1,0
1523619635977,-5308416,-103,-56,-1,-1,0
1523619635977,-7012352,-103,-56,-1,-1,0
1523619636015,-5505024,-103,-56,-1,-1,0
1523619636015,-3538944,-103,-56,-1,-1,0
1523619636015,-2490368,-103,-56,-1,-1,0
1523619636015,-2031616,-103,-56,-1,-1,0
1523619636015,-1769472,-103,-56,-1,-1,0
1523619636055,-1507328,-103,-56,-1,-1,0
1523619636055,-1179648,-103,-56,-1,-1,0
1523619636055,-786432,-103,-56,-1,-1,0
1523619636055,-393216,-103,-56,-1,-1,0
1523619636055,65536,-103,-56,-1,-1,0
1523619636095,720896,-103,-56,-1,-1,0
1523619636095,1441792,-103,-56,-1,-1,0
1523619636095,2162688,-103,-56,-1,-1,0
1523619636095,3014656,-103,-56,-1,-1,0
1523619636095,3866624,-103,-56,-1,-1,0
1523619636135,4587520,-103,-56,-1,-1,0
1523619636135,4915200,-103,-56,-1,-1,0
1523619636135,4915200,-103,-56,-1,-1,0
1523619636135,4653056,-103,-56,-1,-1,0
1523619636135,3997696,-103,-56,-1,-1,0
1523619636175,3211264,-103,-56,-1,-1,0
1523619636175,2293760,-103,-56,-1,-1,0
1523619636175,1572864,-103,-56,-1,-1,0
1523619636175,983040,-103,-56,-1,-1,0
1523619636175,655360,-103,-56,-1,-1,0
1523619636215,393216,-103,-56,-1,-1,0
1523619636215,196608,-103,-56,-1,-1,0
1523619636215,0,-103,-56,-1,-1,0
1523619636215,0,-103,-56,-1,-1,0
1523619636215,-131072,-103,-56,-1,-1,0
1523619636255,-131072,-103,-56,-1,-1,0
1523619636255,65536,-103,-56,-1,-1,0
1523619636255,262144,-103,-56,-1,-1,0
1523619636255,262144,-103,-56,-1,-1,0
1523619636255,196608,-103,-56,-1,-1,0
1523619636295,65536,-103,-56,-1,-1,0
1523619636295,-131072,-103,-56,-1,-1,0
1523619636295,-393216,-103,-56,-1,-1,0
1523619636295,-589824,-103,-56,-1,-1,0
1523619636295,-655360,-103,-56,-1,-1,0
1523619636335,-720896,-103,-56,-1,-1,0
1523619636335,-851968,-103,-56,-1,-1,0
1523619636335,-1310720,-103,-56,-1,-1,0
1523619636335,-983040,-103,-56,-1,-1,0
1523619636335,983040,-103,-56,-1,-1,0
1523619636375,3604480,-103,-56,-1,-1,0
1523619636375,3801088,-103,-56,-1,-1,0
1523619636375,393216,-103,-56,-1,-1,0
1523619636375,-3604480,-103,-56,-1,-1,0
1523619636375,-4784128,-103,-56,-1,-1,0
1523619636415,-3276800,-103,-56,-1,-1,0
1523619636415,-1703936,-103,-56,-1,-1,0
1523619636415,-983040,-103,-56,-1,-1,0
1523619636415,-786432,-103,-56,-1,-1,0
1523619636415,-720896,-103,-56,-1,-1,0
1523619636455,-524288,-103,-56,-1,-1,0
1523619636455,-327680,-103,-56,-1,-1,0
1523619636455,0,-103,-56,-1,-1,0
1523619636455,327680,-103,-56,-1,-1,0
1523619636455,720896,-103,-56,-1,-1,0
1523619636495,1114112,-103,-56,-1,-1,0
1523619636495,1638400,-103,-56,-1,-1,0
1523619636495,2228224,-103,-56,-1,-1,0
1523619636495,2883584,-103,-56,-1,-1,0
1523619636495,3604480,-103,-56,-1,-1,0
1523619636547,4128768,-103,-56,-1,-1,0
1523619636547,4390912,-103,-56,-1,-1,0
1523619636547,4325376,-103,-56,-1,-1,0
1523619636547,3997696,-103,-56,-1,-1,0
1523619636547,3407872,-103,-56,-1,-1,0
1523619636575,2752512,-103,-56,-1,-1,0
1523619636575,2031616,-103,-56,-1,-1,0
1523619636575,1441792,-103,-56,-1,-1,0
1523619636575,983040,-103,-56,-1,-1,0
1523619636575,655360,-103,-56,-1,-1,0
1523619636615,327680,-103,-56,-1,-1,0
1523619636615,65536,-103,-56,-1,-1,0
1523619636615,-65536,-103,-56,-1,-1,0
1523619636615,-262144,-103,-56,-1,-1,0
1523619636615,-393216,-103,-56,-1,-1,0
1523619636655,-327680,-103,-56,-1,-1,0
1523619636655,-196608,-103,-56,-1,-1,0
1523619636655,-65536,-103,-56,-1,-1,0
1523619636655,0,-103,-56,-1,-1,0
1523619636655,-65536,-103,-56,-1,-1,0
1523619636695,-327680,-103,-56,-1,-1,0
1523619636695,-589824,-103,-56,-1,-1,0
1523619636695,-786432,-103,-56,-1,-1,0
1523619636695,-983040,-103,-56,-1,-1,0
1523619636695,-1048576,-103,-56,-1,-1,0
1523619636737,-1114112,-103,-56,-1,-1,0
1523619636737,-1310720,-103,-56,-1,-1,0
1523619636737,-1703936,-103,-56,-1,-1,0
1523619636737,-1441792,-103,-56,-1,-1,0
1523619636737,262144,-103,-56,-1,-1,0
1523619636775,2490368,-103,-56,-1,-1,0
1523619636775,2555904,-103,-56,-1,-1,0
1523619636775,-458752,-103,-56,-1,-1,0
1523619636775,-3932160,-103,-56,-1,-1,0
1523619636775,-4915200,-103,-56,-1,-1,0
1523619636815,-3604480,-103,-56,-1,-1,0
1523619636815,-2293760,-103,-56,-1,-1,0
1523619636815,-1703936,-103,-56,-1,-1,0
1523619636815,-1507328,-103,-56,-1,-1,0
1523619636815,-1376256,-103,-56,-1,-1,0
1523619636855,-1179648,-105,-56,-1,-1,0
1523619636855,-917504,-105,-56,-1,-1,0
1523619636855,-655360,-105,-56,-1,-1,0
1523619636855,-327680,-105,-56,-1,-1,0
1523619636855,0,-105,-56,-1,-1,0
1523619636895,393216,-105,-56,-1,-1,0
1523619636895,917504,-105,-56,-1,-1,0
1523619636895,1507328,-105,-56,-1,-1,0
1523619636895,2228224,-105,-56,-1,-1,0
1523619636895,2818048,-105,-56,-1,-1,0
1523619636935,3342336,-105,-56,-1,-1,0
1523619636935,3538944,-105,-56,-1,-1,0
1523619636935,3407872,-105,-56,-1,-1,0
1523619636935,3080192,-105,-56,-1,-1,0
1523619636935,2555904,-105,-56,-1,-1,0
1523619636975,1966080,-105,-56,-1,-1,0
1523619636975,1245184,-105,-56,-1,-1,0
1523619636975,655360,-105,-56,-1,-1,0
1523619636975,196608,-105,-56,-1,-1,0
1523619636975,-65536,-105,-56,-1,-1,0
1523619637015,-262144,-105,-56,-1,-1,0
1523619637015,-458752,-105,-56,-1,-1,0
1523619637015,-589824,-105,-56,-1,-1,0
1523619637015,-786432,-105,-56,-1,-1,0
1523619637015,-851968,-105,-56,-1,-1,0
1523619637055,-786432,-105,-56,-1,-1,0
1523619637055,-655360,-105,-56,-1,-1,0
1523619637055,-589824,-105,-56,-1,-1,0
1523619637055,-524288,-105,-56,-1,-1,0
1523619637055,-589824,-105,-56,-1,-1,0
1523619637095,-851968,-105,-56,-1,-1,0
1523619637095,-1048576,-105,-56,-1,-1,0
1523619637095,-1179648,-105,-56,-1,-1,0
1523619637095,-1310720,-105,-56,-1,-1,0
1523619637095,-1376256,-105,-56,-1,-1,0
1523619637135,-1441792,-105,-56,-1,-1,0
1523619637135,-1703936,-105,-56,-1,-1,0
1523619637135,-2031616,-105,-56,-1,-1,0
1523619637135,-1507328,-105,-56,-1,-1,0
1523619637135,327680,-105,-56,-1,-1,0
1523619637187,2162688,-105,-56,-1,-1,0
1523619637187,1703936,-105,-56,-1,-1,0
1523619637187,-1376256,-105,-56,-1,-1,0
1523619637187,-4194304,-105,-56,-1,-1,0
1523619637187,-4653056,-105,-56,-1,-1,0
1523619637215,-3276800,-105,-56,-1,-1,0
1523619637215,-2162688,-105,-56,-1,-1,0
1523619637215,-1703936,-105,-56,-1,-1,0
1523619637215,-1572864,-105,-56,-1,-1,0
1523619637215,-1441792,-105,-56,-1,-1,0
1523619637256,-1245184,-105,-56,-1,-1,0
1523619637256,-983040,-105,-56,-1,-1,0
1523619637256,-720896,-105,-56,-1,-1,0
1523619637256,-327680,-105,-56,-1,-1,0
1523619637256,0,-105,-56,-1,-1,0
1523619637295,458752,-105,-56,-1,-1,0
1523619637295,983040,-105,-56,-1,-1,0
1523619637295,1638400,-105,-56,-1,-1,0
1523619637295,2359296,-105,-56,-1,-1,0
1523619637295,3014656,-105,-56,-1,-1,0
1523619637335,3407872,-105,-56,-1,-1,0
1523619637335,3538944,-105,-56,-1,-1,0
1523619637335,3407872,-105,-56,-1,-1,0
1523619637335,3080192,-105,-56,-1,-1,0
1523619637335,2555904,-105,-56,-1,-1,0
1523619637376,1900544,-105,-56,-1,-1,0
1523619637376,1245184,-105,-56,-1,-1,0
1523619637376,720896,-105,-56,-1,-1,0
1523619637376,327680,-105,-56,-1,-1,0
1523619637376,65536,-105,-56,-1,-1,0
1523619637415,-196608,-105,-56,-1,-1,0
1523619637415,-393216,-105,-56,-1,-1,0
1523619637415,-589824,-105,-56,-1,-1,0
1523619637415,-720896,-105,-56,-1,-1,0
1523619637415,-720896,-105,-56,-1,-1,0
1523619637455,-589824,-105,-56,-1,-1,0
1523619637455,-393216,-105,-56,-1,-1,0
1523619637455,-327680,-105,-56,-1,-1,0
1523619637455,-393216,-105,-56,-1,-1,0
1523619637455,-458752,-105,-56,-1,-1,0
1523619637495,-720896,-105,-56,-1,-1,0
1523619637495,-917504,-105,-56,-1,-1,0
1523619637495,-1114112,-105,-56,-1,-1,0
1523619637495,-1245184,-105,-56,-1,-1,0
1523619637495,-1310720,-105,-56,-1,-1,0
1523619637535,-1376256,-105,-56,-1,-1,0
1523619637535,-1703936,-105,-56,-1,-1,0
1523619637535,-2031616,-105,-56,-1,-1,0
1523619637535,-1441792,-105,-56,-1,-1,0
1523619637535,458752,-105,-56,-1,-1,0
1523619637575,2097152,-105,-56,-1,-1,0
1523619637575,1048576,-105,-56,-1,-1,0
1523619637575,-2293760,-105,-56,-1,-1,0
1523619637575,-4784128,-105,-56,-1,-1,0
1523619637575,-4849664,-105,-56,-1,-1,0
1523619637615,-3407872,-105,-56,-1,-1,0
1523619637615,-2293760,-105,-56,-1,-1,0
1523619637615,-1835008,-105,-56,-1,-1,0
1523619637615,-1638400,-105,-56,-1,-1,0
1523619637615,-1507328,-105,-56,-1,-1,0
1523619637655,-1310720,-105,-56,-1,-1,0
1523619637655,-1114112,-105,-56,-1,-1,0
1523619637655,-851968,-105,-56,-1,-1,0
1523619637655,-524288,-105,-56,-1,-1,0
1523619637655,-196608,-105,-56,-1,-1,0
1523619637695,196608,-105,-56,-1,-1,0
1523619637695,720896,-105,-56,-1,-1,0
1523619637695,1376256,-105,-56,-1,-1,0
1523619637695,2097152,-105,-56,-1,-1,0
1523619637695,2818048,-105,-56,-1,-1,0
1523619637735,3276800,-105,-56,-1,-1,0
1523619637735,3473408,-105,-56,-1,-1,0
1523619637735,3342336,-105,-56,-1,-1,0
1523619637735,2949120,-105,-56,-1,-1,0
1523619637735,2359296,-105,-56,-1,-1,0
1523619637775,1703936,-105,-56,-1,-1,0
1523619637775,1114112,-105,-56,-1,-1,0
1523619637775,589824,-105,-56,-1,-1,0
1523619637775,131072,-105,-56,-1,-1,0
1523619637775,-65536,-105,-56,-1,-1,0
1523619637829,-327680,-105,-56,-1,-1,0
1523619637829,-524288,-105,-56,-1,-1,0
1523619637829,-655360,-105,-56,-1,-1,0
1523619637829,-720896,-105,-56,-1,-1,0
1523619637829,-720896,-105,-56,-1,-1,0
1523619637855,-524288,-105,-56,-1,-1,0
1523619637855,-393216,-105,-56,-1,-1,0
1523619637855,-327680,-105,-56,-1,-1,0
1523619637855,-458752,-105,-56,-1,-1,0
1523619637855,-655360,-105,-56,-1,-1,0
1523619637897,-851968,-105,-56,-1,-1,0
1523619637897,-1048576,-105,-56,-1,-1,0
1523619637897,-1179648,-105,-56,-1,-1,0
1523619637897,-1310720,-105,-56,-1,-1,0
1523619637897,-1376256,-105,-56,-1,-1,0
1523619637938,-1507328,-105,-56,-1,-1,0
1523619637938,-1835008,-105,-56,-1,-1,0
1523619637938,-2031616,-105,-56,-1,-1,0
1523619637938,-1114112,-105,-56,-1,-1,0
1523619637938,917504,-105,-56,-1,-1,0
1523619637975,2097152,-105,-56,-1,-1,0
1523619637975,458752,-105,-56,-1,-1,0
1523619637975,-2949120,-105,-56,-1,-1,0
1523619637975,-5177344,-105,-56,-1,-1,0
1523619637975,-4915200,-105,-56,-1,-1,0
1523619638015,-3342336,-105,-56,-1,-1,0
1523619638015,-2228224,-105,-56,-1,-1,0
1523619638015,-1769472,-105,-56,-1,-1,0
1523619638015,-1572864,-105,-56,-1,-1,0
1523619638015,-1441792,-105,-56,-1,-1,0
1523619638055,-1179648,-105,-56,-1,-1,0
1523619638055,-983040,-105,-56,-1,-1,0
1523619638055,-720896,-105,-56,-1,-1,0
1523619638055,-458752,-105,-56,-1,-1,0
1523619638055,0,-105,-56,-1,-1,0
1523619638095,393216,-105,-56,-1,-1,0
1523619638095,983040,-105,-56,-1,-1,0
1523619638095,1703936,-105,-56,-1,-1,0
1523619638095,2424832,-105,-56,-1,-1,0
1523619638095,3211264,-105,-56,-1,-1,0
1523619638135,3735552,-105,-56,-1,-1,0
1523619638135,3932160,-105,-56,-1,-1,0
1523619638135,3801088,-105,-56,-1,-1,0
1523619638135,3473408,-105,-56,-1,-1,0
1523619638135,2818048,-105,-56,-1,-1,0
1523619638175,1900544,-105,-56,-1,-1,0
1523619638175,1114112,-105,-56,-1,-1,0
1523619638175,589824,-105,-56,-1,-1,0
1523619638175,196608,-105,-56,-1,-1,0
1523619638175,-131072,-105,-56,-1,-1,0
1523619638215,-458752,-105,-56,-1,-1,0
1523619638215,-589824,-105,-56,-1,-1,0
1523619638215,-786432,-105,-56,-1,-1,0
1523619638215,-851968,-105,-56,-1,-1,0
1523619638215,-720896,-105,-56,-1,-1,0
1523619638258,-458752,-105,-56,-1,-1,0
1523619638258,-327680,-105,-56,-1,-1,0
1523619638258,-393216,-105,-56,-1,-1,0
1523619638258,-589824,-105,-56,-1,-1,0
1523619638258,-786432,-105,-56,-1,-1,0
1523619638295,-983040,-105,-56,-1,-1,0
1523619638295,-1179648,-105,-56,-1,-1,0
1523619638295,-1310720,-105,-56,-1,-1,0
1523619638295,-1310720,-105,-56,-1,-1,0
1523619638295,-1376256,-105,-56,-1,-1,0
1523619638335,-1703936,-105,-56,-1,-1,0
1523619638335,-1638400,-105,-56,-1,-1,0
1523619638335,-65536,-105,-56,-1,-1,0
1523619638335,2555904,-105,-56,-1,-1,0
1523619638335,3473408,-105,-56,-1,-1,0
1523619638375,786432,-105,-56,-1,-1,0
1523619638375,-3538944,-105,-56,-1,-1,0
1523619638375,-5767168,-105,-56,-1,-1,0
1523619638375,-4718592,-105,-56,-1,-1,0
1523619638375,-2883584,-105,-56,-1,-1,0
1523619638415,-1900544,-105,-56,-1,-1,0
1523619638415,-1572864,-105,-56,-1,-1,0
1523619638415,-1376256,-105,-56,-1,-1,0
1523619638415,-1179648,-105,-56,-1,-1,0
1523619638415,-983040,-105,-56,-1,-1,0
1523619638467,-720896,-105,-56,-1,-1,0
1523619638467,-327680,-105,-56,-1,-1,0
1523619638467,0,-105,-56,-1,-1,0
1523619638467,393216,-105,-56,-1,-1,0
1523619638467,917504,-105,-56,-1,-1,0
1523619638495,1572864,-105,-56,-1,-1,0
1523619638495,2359296,-105,-56,-1,-1,0
1523619638495,3211264,-105,-56,-1,-1,0
1523619638495,3866624,-105,-56,-1,-1,0
1523619638495,4259840,-105,-56,-1,-1,0
1523619638535,4325376,-105,-56,-1,-1,0
1523619638535,4194304,-105,-56,-1,-1,0
1523619638535,3670016,-105,-56,-1,-1,0
1523619638535,2818048,-105,-56,-1,-1,0
1523619638535,1966080,-105,-56,-1,-1,0
1523619638576,1245184,-105,-56,-1,-1,0
1523619638576,589824,-105,-56,-1,-1,0
1523619638576,131072,-105,-56,-1,-1,0
1523619638576,-131072,-105,-56,-1,-1,0
1523619638576,-327680,-105,-56,-1,-1,0
1523619638615,-458752,-105,-56,-1,-1,0
1523619638615,-589824,-105,-56,-1,-1,0
1523619638615,-720896,-105,-56,-1,-1,0
1523619638615,-655360,-105,-56,-1,-1,0
1523619638615,-524288,-105,-56,-1,-1,0
1523619638656,-393216,-105,-56,-1,-1,0
1523619638656,-327680,-105,-56,-1,-1,0
1523619638656,-458752,-105,-56,-1,-1,0
1523619638656,-720896,-105,-56,-1,-1,0
1523619638656,-983040,-105,-56,-1,-1,0
1523619638695,-1179648,-105,-56,-1,-1,0
1523619638695,-1310720,-105,-56,-1,-1,0
1523619638695,-1376256,-105,-56,-1,-1,0
1523619638695,-1441792,-105,-56,-1,-1,0
1523619638695,-1703936,-105,-56,-1,-1,0
1523619638735,-1703936,-105,-56,-1,-1,0
1523619638735,-196608,-105,-56,-1,-1,0
1523619638735,2621440,-105,-56,-1,-1,0
1523619638735,4194304,-105,-56,-1,-1,0
1523619638735,1835008,-105,-56,-1,-1,0
1523619638776,-3080192,-105,-56,-1,-1,0
1523619638776,-5963776,-105,-56,-1,-1,0
1523619638776,-5242880,-105,-56,-1,-1,0
1523619638776,-3276800,-105,-56,-1,-1,0
1523619638776,-2097152,-105,-56,-1,-1,0
1523619638815,-1638400,-105,-56,-1,-1,0
1523619638815,-1441792,-105,-56,-1,-1,0
1523619638815,-1245184,-105,-56,-1,-1,0
1523619638815,-983040,-105,-56,-1,-1,0
1523619638815,-655360,-105,-56,-1,-1,0
1523619638865,-262144,-105,-56,-1,-1,0
1523619638865,0,-105,-56,-1,-1,0
1523619638865,458752,-105,-56,-1,-1,0
1523619638865,983040,-105,-56,-1,-1,0
1523619638865,1638400,-105,-56,-1,-1,0
1523619638895,2424832,-105,-56,-1,-1,0
1523619638895,3276800,-105,-56,-1,-1,0
1523619638895,3997696,-105,-56,-1,-1,0
1523619638895,4456448,-105,-56,-1,-1,0
1523619638895,4587520,-105,-56,-1,-1,0
1523619638935,4325376,-105,-56,-1,-1,0
1523619638935,3801088,-105,-56,-1,-1,0
1523619638935,3014656,-105,-56,-1,-1,0
1523619638935,2162688,-105,-56,-1,-1,0
1523619638935,1441792,-105,-56,-1,-1,0
1523619638975,851968,-105,-56,-1,-1,0
1523619638975,524288,-105,-56,-1,-1,0
1523619638975,262144,-105,-56,-1,-1,0
1523619638975,65536,-105,-56,-1,-1,0
1523619638975,0,-105,-56,-1,-1,0
1523619639015,-65536,-105,-56,-1,-1,0
1523619639015,-196608,-105,-56,-1,-1,0
1523619639015,-196608,-105,-56,-1,-1,0
1523619639015,-65536,-105,-56,-1,-1,0
1523619639015,65536,-105,-56,-1,-1,0
1523619639055,131072,-105,-56,-1,-1,0
1523619639055,65536,-105,-56,-1,-1,0
1523619639055,-65536,-105,-56,-1,-1,0
1523619639055,-393216,-105,-56,-1,-1,0
1523619639055,-589824,-105,-56,-1,-1,0
1523619639107,-786432,-105,-56,-1,-1,0
1523619639107,-851968,-105,-56,-1,-1,0
1523619639107,-917504,-105,-56,-1,-1,0
1523619639107,-1179648,-105,-56,-1,-1,0
1523619639107,-1638400,-105,-56,-1,-1,0
1523619639135,-1245184,-105,-56,-1,-1,0
1523619639135,720896,-105,-56,-1,-1,0
1523619639135,3211264,-105,-56,-1,-1,0
1523619639135,3407872,-105,-56,-1,-1,0
1523619639135,-65536,-105,-56,-1,-1,0
1523619639175,-4063232,-105,-56,-1,-1,0
1523619639175,-5177344,-105,-56,-1,-1,0
1523619639175,-3604480,-105,-56,-1,-1,0
1523619639175,-2097152,-105,-56,-1,-1,0
1523619639175,-1507328,-105,-56,-1,-1,0
1523619639215,-1376256,-105,-56,-1,-1,0
1523619639215,-1245184,-105,-56,-1,-1,0
1523619639215,-1048576,-105,-56,-1,-1,0
1523619639215,-786432,-105,-56,-1,-1,0
1523619639215,-524288,-105,-56,-1,-1,0
1523619639255,-196608,-105,-56,-1,-1,0
1523619639255,65536,-105,-56,-1,-1,0
1523619639255,524288,-105,-56,-1,-1,0
1523619639255,983040,-105,-56,-1,-1,0
1523619639255,1572864,-105,-56,-1,-1,0
1523619639295,2162688,-105,-56,-1,-1,0
1523619639295,2818048,-105,-56,-1,-1,0
1523619639295,3342336,-105,-56,-1,-1,0
1523619639295,3604480,-105,-56,-1,-1,0
1523619639295,3604480,-105,-56,-1,-1,0
1523619639335,3276800,-105,-56,-1,-1,0
1523619639335,2752512,-105,-56,-1,-1,0
1523619639335,2162688,-105,-56,-1,-1,0
1523619639335,1507328,-105,-56,-1,-1,0
1523619639335,983040,-105,-56,-1,-1,0
1523619639375,655360,-105,-56,-1,-1,0
1523619639375,458752,-105,-56,-1,-1,0
1523619639375,196608,-105,-56,-1,-1,0
1523619639375,0,-105,-56,-1,-1,0
1523619639375,-196608,-105,-56,-1,-1,0
1523619639415,-393216,-105,-56,-1,-1,0
1523619639415,-524288,-105,-56,-1,-1,0
1523619639415,-524288,-105,-56,-1,-1,0
1523619639415,-262144,-105,-56,-1,-1,0
1523619639415,-65536,-105,-56,-1,-1,0
1523619639455,0,-105,-56,-1,-1,0
1523619639455,-65536,-105,-56,-1,-1,0
1523619639455,-262144,-105,-56,-1,-1,0
1523619639455,-524288,-105,-56,-1,-1,0
1523619639455,-720896,-105,-56,-1,-1,0
1523619639496,-917504,-105,-56,-1,-1,0
1523619639496,-1048576,-105,-56,-1,-1,0
1523619639496,-1114112,-105,-56,-1,-1,0
1523619639496,-1245184,-105,-56,-1,-1,0
1523619639496,-1703936,-105,-56,-1,-1,0
1523619639535,-1572864,-105,-56,-1,-1,0
1523619639535,0,-105,-56,-1,-1,0
1523619639535,2293760,-105,-56,-1,-1,0
1523619639535,2883584,-105,-56,-1,-1,0
1523619639535,196608,-105,-56,-1,-1,0
1523619639575,-3407872,-105,-56,-1,-1,0
1523619639575,-4784128,-105,-56,-1,-1,0
1523619639575,-3538944,-105,-56,-1,-1,0
1523619639575,-2228224,-105,-56,-1,-1,0
1523619639575,-1638400,-105,-56,-1,-1,0
1523619639615,-1441792,-105,-56,-1,-1,0
1523619639615,-1310720,-105,-56,-1,-1,0
1523619639615,-1048576,-105,-56,-1,-1,0
1523619639615,-851968,-105,-56,-1,-1,0
1523619639615,-589824,-105,-56,-1,-1,0
1523619639655,-262144,-105,-56,-1,-1,0
1523619639655,0,-105,-56,-1,-1,0
1523619639655,393216,-105,-56,-1,-1,0
1523619639655,917504,-105,-56,-1,-1,0
1523619639655,1572864,-105,-56,-1,-1,0
1523619639695,2228224,-105,-56,-1,-1,0
1523619639695,2949120,-105,-56,-1,-1,0
1523619639695,3342336,-105,-56,-1,-1,0
1523619639695,3538944,-105,-56,-1,-1,0
1523619639695,3407872,-105,-56,-1,-1,0
1523619639748,3145728,-105,-56,-1,-1,0
1523619639748,2621440,-105,-56,-1,-1,0
1523619639748,2031616,-105,-56,-1,-1,0
1523619639748,1310720,-105,-56,-1,-1,0
1523619639748,720896,-105,-56,-1,-1,0
1523619639775,262144,-105,-56,-1,-1,0
1523619639775,0,-105,-56,-1,-1,0
1523619639775,-327680,-105,-56,-1,-1,0
1523619639775,-524288,-105,-56,-1,-1,0
1523619639775,-720896,-105,-56,-1,-1,0
1523619639815,-851968,-105,-56,-1,-1,0
1523619639815,-983040,-105,-56,-1,-1,0
1523619639815,-917504,-105,-56,-1,-1,0
1523619639815,-589824,-105,-56,-1,-1,0
1523619639815,-393216,-105,-56,-1,-1,0
1523619639855,-327680,-105,-56,-1,-1,0
1523619639855,-327680,-105,-56,-1,-1,0
1523619639855,-524288,-105,-56,-1,-1,0
1523619639855,-720896,-105,-56,-1,-1,0
1523619639855,-851968,-105,-56,-1,-1,0
1523619639895,-983040,-105,-56,-1,-1,0
1523619639895,-1048576,-105,-56,-1,-1,0
1523619639895,-1114112,-105,-56,-1,-1,0
1523619639895,-1179648,-105,-56,-1,-1,0
1523619639895,-1572864,-105,-56,-1,-1,0
1523619639935,-1507328,-105,-56,-1,-1,0
1523619639935,-65536,-105,-56,-1,-1,0
1523619639935,2162688,-105,-56,-1,-1,0
1523619639935,2752512,-105,-56,-1,-1,0
1523619639935,393216,-105,-56,-1,-1,0
1523619639976,-3014656,-105,-56,-1,-1,0
1523619639976,-4390912,-105,-56,-1,-1,0
1523619639976,-3407872,-105,-56,-1,-1,0
1523619639976,-2097152,-105,-56,-1,-1,0
1523619639976,-1441792,-105,-56,-1,-1,0
1523619640015,-1179648,-105,-56,-1,-1,0
1523619640015,-983040,-105,-56,-1,-1,0
1523619640015,-851968,-105,-56,-1,-1,0
1523619640015,-655360,-105,-56,-1,-1,0
1523619640015,-393216,-105,-56,-1,-1,0
1523619640055,-131072,-105,-56,-1,-1,0
1523619640055,131072,-105,-56,-1,-1,0
1523619640055,524288,-105,-56,-1,-1,0
1523619640055,983040,-105,-56,-1,-1,0
1523619640055,1638400,-105,-56,-1,-1,0
1523619640095,2293760,-105,-56,-1,-1,0
1523619640095,2949120,-105,-56,-1,-1,0
1523619640095,3538944,-105,-56,-1,-1,0
1523619640095,3801088,-105,-56,-1,-1,0
1523619640095,3866624,-105,-56,-1,-1,0
1523619640135,3670016,-105,-56,-1,-1,0
1523619640135,3211264,-105,-56,-1,-1,0
1523619640135,2555904,-105,-56,-1,-1,0
1523619640135,1835008,-105,-56,-1,-1,0
1523619640135,1114112,-105,-56,-1,-1,0
1523619640175,524288,-105,-56,-1,-1,0
1523619640175,196608,-105,-56,-1,-1,0
1523619640175,-131072,-105,-56,-1,-1,0
1523619640175,-393216,-105,-56,-1,-1,0
1523619640175,-589824,-105,-56,-1,-1,0
1523619640215,-655360,-105,-56,-1,-1,0
1523619640215,-655360,-105,-56,-1,-1,0
1523619640215,-589824,-105,-56,-1,-1,0
1523619640215,-458752,-105,-56,-1,-1,0
1523619640215,-327680,-105,-56,-1,-1,0
1523619640255,-393216,-105,-56,-1,-1,0
1523619640255,-524288,-105,-56,-1,-1,0
1523619640255,-655360,-105,-56,-1,-1,0
1523619640255,-851968,-105,-56,-1,-1,0
1523619640255,-983040,-105,-56,-1,-1,0
1523619640295,-1114112,-105,-56,-1,-1,0
1523619640295,-1179648,-105,-56,-1,-1,0
1523619640295,-1245184,-105,-56,-1,-1,0
1523619640295,-1507328,-105,-56,-1,-1,0
1523619640295,-1769472,-105,-56,-1,-1,0
1523619640338,-851968,-105,-56,-1,-1,0
1523619640338,1507328,-105,-56,-1,-1,0
1523619640338,3407872,-105,-56,-1,-1,0
1523619640338,2228224,-105,-56,-1,-1,0
1523619640338,-1966080,-105,-56,-1,-1,0
1523619640387,-5046272,-105,-56,-1,-1,0
1523619640387,-4849664,-105,-56,-1,-1,0
1523619640387,-3014656,-105,-56,-1,-1,0
1523619640387,-1835008,-105,-56,-1,-1,0
1523619640387,-1376256,-105,-56,-1,-1,0
1523619640416,-1179648,-105,-56,-1,-1,0
1523619640416,-1048576,-105,-56,-1,-1,0
1523619640416,-720896,-105,-56,-1,-1,0
1523619640416,-458752,-105,-56,-1,-1,0
1523619640416,-196608,-105,-56,-1,-1,0
1523619640455,131072,-105,-56,-1,-1,0
1523619640455,524288,-105,-56,-1,-1,0
1523619640455,983040,-105,-56,-1,-1,0
1523619640455,1572864,-105,-56,-1,-1,0
1523619640455,2293760,-105,-56,-1,-1,0
1523619640496,3080192,-105,-56,-1,-1,0
1523619640496,3735552,-105,-56,-1,-1,0
1523619640496,4194304,-105,-56,-1,-1,0
1523619640496,4325376,-105,-56,-1,-1,0
1523619640496,4194304,-105,-56,-1,-1,0
1523619640536,3801088,-105,-56,-1,-1,0
1523619640536,3145728,-105,-56,-1,-1,0
1523619640536,2359296,-105,-56,-1,-1,0
1523619640536,1638400,-105,-56,-1,-1,0
1523619640536,917504,-105,-56,-1,-1,0
1523619640575,458752,-105,-56,-1,-1,0
1523619640575,131072,-105,-56,-1,-1,0
1523619640575,-131072,-105,-56,-1,-1,0
1523619640575,-393216,-105,-56,-1,-1,0
1523619640575,-589824,-105,-56,-1,-1,0
1523619640616,-720896,-105,-56,-1,-1,0
1523619640616,-786432,-105,-56,-1,-1,0
1523619640616,-655360,-105,-56,-1,-1,0
1523619640616,-524288,-105,-56,-1,-1,0
1523619640616,-393216,-105,-56,-1,-1,0
1523619640655,-458752,-105,-56,-1,-1,0
1523619640655,-655360,-105,-56,-1,-1,0
1523619640655,-983040,-105,-56,-1,-1,0
1523619640655,-1179648,-105,-56,-1,-1,0
1523619640655,-1245184,-105,-56,-1,-1,0
1523619640695,-1376256,-105,-56,-1,-1,0
1523619640695,-1441792,-105,-56,-1,-1,0
1523619640695,-1572864,-105,-56,-1,-1,0
1523619640695,-1900544,-105,-56,-1,-1,0
1523619640695,-1245184,-105,-56,-1,-1,0
1523619640736,1048576,-105,-56,-1,-1,0
1523619640736,3801088,-105,-56,-1,-1,0
1523619640736,3604480,-105,-56,-1,-1,0
1523619640736,-458752,-105,-56,-1,-1,0
1523619640736,-4915200,-105,-56,-1,-1,0
1523619640775,-6094848,-105,-56,-1,-1,0
1523619640775,-4587520,-105,-56,-1,-1,0
1523619640775,-3080192,-105,-56,-1,-1,0
1523619640775,-2359296,-105,-56,-1,-1,0
1523619640775,-2031616,-105,-56,-1,-1,0
1523619640815,-1900544,-105,-56,-1,-1,0
1523619640815,-1703936,-105,-56,-1,-1,0
1523619640815,-1507328,-105,-56,-1,-1,0
1523619640815,-1245184,-105,-56,-1,-1,0
1523619640815,-917504,-105,-56,-1,-1,0
1523619640855,-589824,-105,-56,-1,-1,0
1523619640855,-131072,-105,-56,-1,-1,0
1523619640855,393216,-105,-56,-1,-1,0
1523619640855,1048576,-105,-56,-1,-1,0
1523619640855,1769472,-105,-56,-1,-1,0
1523619640895,2555904,-105,-56,-1,-1,0
1523619640895,3080192,-105,-56,-1,-1,0
1523619640895,3342336,-105,-56,-1,-1,0
1523619640895,3342336,-105,-56,-1,-1,0
1523619640895,2949120,-105,-56,-1,-1,0
1523619640935,2424832,-105,-56,-1,-1,0
1523619640935,1703936,-105,-56,-1,-1,0
1523619640935,917504,-105,-56,-1,-1,0
1523619640935,327680,-105,-56,-1,-1,0
1523619640935,0,-105,-56,-1,-1,0
1523619640975,-262144,-105,-56,-1,-1,0
1523619640975,-458752,-105,-56,-1,-1,0
1523619640975,-655360,-105,-56,-1,-1,0
1523619640975,-786432,-105,-56,-1,-1,0
1523619640975,-917504,-105,-56,-1,-1,0
1523619641027,-983040,-105,-56,-1,-1,0
1523619641027,-851968,-105,-56,-1,-1,0
1523619641027,-720896,-105,-56,-1,-1,0
1523619641027,-589824,-105,-56,-1,-1,0
1523619641027,-589824,-105,-56,-1,-1,0
1523619641055,-655360,-105,-56,-1,-1,0
1523619641055,-917504,-105,-56,-1,-1,0
1523619641055,-1114112,-105,-56,-1,-1,0
1523619641055,-1310720,-105,-56,-1,-1,0
1523619641055,-1441792,-105,-56,-1,-1,0
1523619641095,-1441792,-105,-56,-1,-1,0
1523619641095,-1441792,-105,-56,-1,-1,0
1523619641095,-1703936,-105,-56,-1,-1,0
1523619641095,-1900544,-105,-56,-1,-1,0
1523619641095,-851968,-105,-56,-1,-1,0
1523619641135,1638400,-105,-56,-1,-1,0
1523619641135,3604480,-105,-56,-1,-1,0
1523619641135,2228224,-105,-56,-1,-1,0
1523619641135,-2097152,-105,-56,-1,-1,0
1523619641135,-5308416,-105,-56,-1,-1,0
1523619641175,-5046272,-105,-56,-1,-1,0
1523619641175,-3080192,-105,-56,-1,-1,0
1523619641175,-1769472,-105,-56,-1,-1,0
1523619641175,-1245184,-105,-56,-1,-1,0
1523619641175,-1048576,-105,-56,-1,-1,0
1523619641216,-917504,-105,-56,-1,-1,0
1523619641216,-655360,-105,-56,-1,-1,0
1523619641216,-458752,-105,-56,-1,-1,0
1523619641216,-131072,-105,-56,-1,-1,0
1523619641216,131072,-105,-56,-1,-1,0
1523619641255,589824,-105,-56,-1,-1,0
1523619641255,1048576,-105,-56,-1,-1,0
1523619641255,1572864,-105,-56,-1,-1,0
1523619641255,2228224,-105,-56,-1,-1,0
1523619641255,2949120,-105,-56,-1,-1,0
1523619641295,3538944,-105,-56,-1,-1,0
1523619641295,3932160,-105,-56,-1,-1,0
1523619641295,3997696,-105,-56,-1,-1,0
1523619641295,3801088,-105,-56,-1,-1,0
1523619641295,3407872,-105,-56,-1,-1,0
1523619641335,2686976,-105,-56,-1,-1,0
1523619641335,1966080,-105,-56,-1,-1,0
1523619641335,1310720,-105,-56,-1,-1,0
1523619641335,851968,-105,-56,-1,-1,0
1523619641335,458752,-105,-56,-1,-1,0
1523619641375,131072,-105,-56,-1,-1,0
1523619641375,-131072,-105,-56,-1,-1,0
1523619641375,-262144,-105,-56,-1,-1,0
1523619641375,-458752,-105,-56,-1,-1,0
1523619641375,-589824,-105,-56,-1,-1,0
1523619641415,-786432,-105,-56,-1,-1,0
1523619641415,-786432,-105,-56,-1,-1,0
1523619641415,-589824,-105,-56,-1,-1,0
1523619641415,-393216,-105,-56,-1,-1,0
1523619641415,-327680,-105,-56,-1,-1,0
1523619641455,-393216,-105,-56,-1,-1,0
1523619641455,-589824,-105,-56,-1,-1,0
1523619641455,-851968,-105,-56,-1,-1,0
1523619641455,-1048576,-105,-56,-1,-1,0
1523619641455,-1114112,-105,-56,-1,-1,0
1523619641495,-1179648,-105,-56,-1,-1,0
1523619641495,-1245184,-105,-56,-1,-1,0
1523619641495,-1441792,-105,-56,-1,-1,0
1523619641495,-1835008,-105,-56,-1,-1,0
1523619641495,-1572864,-105,-56,-1,-1,0
1523619641535,262144,-105,-56,-1,-1,0
1523619641535,2621440,-105,-56,-1,-1,0
1523619641535,2621440,-105,-56,-1,-1,0
1523619641535,-655360,-105,-56,-1,-1,0
1523619641535,-4259840,-105,-56,-1,-1,0
1523619641575,-5111808,-105,-56,-1,-1,0
1523619641575,-3604480,-105,-56,-1,-1,0
1523619641575,-2228224,-105,-56,-1,-1,0
1523619641575,-1507328,-105,-56,-1,-1,0
1523619641575,-1245184,-105,-56,-1,-1,0
1523619641616,-1114112,-105,-56,-1,-1,0
1523619641616,-917504,-105,-56,-1,-1,0
1523619641616,-655360,-105,-56,-1,-1,0
1523619641616,-327680,-105,-56,-1,-1,0
1523619641616,0,-105,-56,-1,-1,0
1523619641669,393216,-105,-56,-1,-1,0
1523619641669,786432,-105,-56,-1,-1,0
1523619641669,1310720,-105,-56,-1,-1,0
1523619641669,1900544,-105,-56,-1,-1,0
1523619641669,2621440,-105,-56,-1,-1,0
1523619641695,3276800,-105,-56,-1,-1,0
1523619641695,3735552,-105,-56,-1,-1,0
1523619641695,3932160,-105,-56,-1,-1,0
1523619641695,3866624,-105,-56,-1,-1,0
1523619641695,3604480,-105,-56,-1,-1,0
1523619641735,3080192,-105,-56,-1,-1,0
1523619641735,2424832,-105,-56,-1,-1,0
1523619641735,1769472,-105,-56,-1,-1,0
1523619641735,1179648,-105,-56,-1,-1,0
1523619641735,720896,-105,-56,-1,-1,0
1523619641775,393216,-105,-56,-1,-1,0
1523619641775,65536,-105,-56,-1,-1,0
1523619641775,-65536,-105,-56,-1,-1,0
1523619641775,-262144,-105,-56,-1,-1,0
1523619641775,-458752,-105,-56,-1,-1,0
1523619641815,-589824,-105,-56,-1,-1,0
1523619641815,-655360,-105,-56,-1,-1,0
1523619641815,-524288,-105,-56,-1,-1,0
1523619641815,-327680,-105,-56,-1,-1,0
1523619641815,-262144,-105,-56,-1,-1,0
1523619641855,-262144,-105,-56,-1,-1,0
1523619641855,-393216,-105,-56,-1,-1,0
1523619641855,-655360,-105,-56,-1,-1,0
1523619641855,-851968,-105,-56,-1,-1,0
1523619641855,-983040,-105,-56,-1,-1,0
1523619641895,-1048576,-105,-56,-1,-1,0
1523619641895,-1114112,-105,-56,-1,-1,0
1523619641895,-1245184,-105,-56,-1,-1,0
1523619641895,-1638400,-105,-56,-1,-1,0
1523619641895,-1966080,-105,-56,-1,-1,0
1523619641935,-983040,-105,-56,-1,-1,0
1523619641935,1179648,-105,-56,-1,-1,0
1523619641935,2555904,-105,-56,-1,-1,0
1523619641935,1179648,-105,-56,-1,-1,0
1523619641935,-2162688,-105,-56,-1,-1,0
1523619641975,-4390912,-105,-56,-1,-1,0
1523619641975,-3997696,-105,-56,-1,-1,0
1523619641975,-2555904,-105,-56,-1,-1,0
1523619641975,-1703936,-105,-56,-1,-1,0
1523619641975,-1441792,-105,-56,-1,-1,0
1523619642015,-1376256,-105,-56,-1,-1,0
1523619642015,-1179648,-105,-56,-1,-1,0
1523619642015,-917504,-105,-56,-1,-1,0
1523619642015,-589824,-105,-56,-1,-1,0
1523619642015,-262144,-105,-56,-1,-1,0
1523619642055,0,-105,-56,-1,-1,0
1523619642055,327680,-105,-56,-1,-1,0
1523619642055,720896,-105,-56,-1,-1,0
1523619642055,1245184,-105,-56,-1,-1,0
1523619642055,1900544,-105,-56,-1,-1,0
1523619642095,2621440,-105,-56,-1,-1,0
1523619642095,3145728,-105,-56,-1,-1,0
1523619642095,3538944,-105,-56,-1,-1,0
1523619642095,3604480,-105,-56,-1,-1,0
1523619642095,3473408,-105,-56,-1,-1,0
1523619642134,3080192,-105,-56,-1,-1,0
1523619642134,2424832,-105,-56,-1,-1,0
1523619642134,1703936,-105,-56,-1,-1,0
1523619642134,1048576,-105,-56,-1,-1,0
1523619642134,524288,-105,-56,-1,-1,0
1523619642176,65536,-105,-56,-1,-1,0
1523619642176,-262144,-105,-56,-1,-1,0
1523619642176,-524288,-105,-56,-1,-1,0
1523619642176,-720896,-105,-56,-1,-1,0
1523619642176,-851968,-105,-56,-1,-1,0
1523619642214,-983040,-105,-56,-1,-1,0
1523619642214,-1048576,-105,-56,-1,-1,0
1523619642214,-917504,-105,-56,-1,-1,0
1523619642214,-720896,-105,-56,-1,-1,0
1523619642214,-655360,-105,-56,-1,-1,0
1523619642257,-720896,-105,-56,-1,-1,0
1523619642257,-786432,-105,-56,-1,-1,0
1523619642257,-983040,-105,-56,-1,-1,0
1523619642257,-1114112,-105,-56,-1,-1,0
1523619642257,-1245184,-105,-56,-1,-1,0
1523619642310,-1376256,-105,-56,-1,-1,0
1523619642310,-1441792,-105,-56,-1,-1,0
1523619642310,-1507328,-105,-56,-1,-1,0
1523619642310,-1835008,-105,-56,-1,-1,0
1523619642310,-1835008,-105,-56,-1,-1,0
1523619642335,-262144,-105,-56,-1,-1,0
1523619642335,2555904,-105,-56,-1,-1,0
1523619642335,3997696,-105,-56,-1,-1,0
1523619642335,1638400,-105,-56,-1,-1,0
1523619642335,-2752512,-105,-56,-1,-1,0
1523619642375,-5242880,-105,-56,-1,-1,0
1523619642375,-4587520,-105,-56,-1,-1,0
1523619642375,-2949120,-105,-56,-1,-1,0
1523619642375,-1900544,-105,-56,-1,-1,0
1523619642375,-1507328,-105,-56,-1,-1,0
1523619642415,-1310720,-105,-56,-1,-1,0
1523619642415,-1179648,-105,-56,-1,-1,0
1523619642415,-983040,-105,-56,-1,-1,0
1523619642415,-655360,-105,-56,-1,-1,0
1523619642415,-262144,-105,-56,-1,-1,0
1523619642454,0,-105,-56,-1,-1,0
1523619642454,458752,-105,-56,-1,-1,0
1523619642454,983040,-105,-56,-1,-1,0
1523619642454,1507328,-105,-56,-1,-1,0
1523619642454,2228224,-105,-56,-1,-1,0
1523619642495,3080192,-105,-56,-1,-1,0
1523619642495,3866624,-105,-56,-1,-1,0
1523619642495,4259840,-105,-56,-1,-1,0
1523619642495,4259840,-105,-56,-1,-1,0
1523619642495,3997696,-105,-56,-1,-1,0
1523619642535,3407872,-105,-56,-1,-1,0
1523619642535,2752512,-105,-56,-1,-1,0
1523619642535,1966080,-105,-56,-1,-1,0
1523619642535,1179648,-105,-56,-1,-1,0
1523619642535,589824,-105,-56,-1,-1,0
1523619642575,196608,-105,-56,-1,-1,0
1523619642575,-65536,-105,-56,-1,-1,0
1523619642575,-327680,-105,-56,-1,-1,0
1523619642575,-524288,-105,-56,-1,-1,0
1523619642575,-720896,-105,-56,-1,-1,0
1523619642615,-851968,-105,-56,-1,-1,0
1523619642615,-917504,-105,-56,-1,-1,0
1523619642615,-786432,-105,-56,-1,-1,0
1523619642615,-655360,-105,-56,-1,-1,0
1523619642615,-589824,-105,-56,-1,-1,0
1523619642655,-655360,-105,-56,-1,-1,0
1523619642655,-851968,-105,-56,-1,-1,0
1523619642655,-1245184,-105,-56,-1,-1,0
1523619642655,-1507328,-105,-56,-1,-1,0
1523619642655,-1572864,-105,-56,-1,-1,0
1523619642695,-1638400,-105,-56,-1,-1,0
1523619642695,-1703936,-105,-56,-1,-1,0
1523619642695,-1835008,-105,-56,-1,-1,0
1523619642695,-2162688,-105,-56,-1,-1,0
1523619642695,-1572864,-105,-56,-1,-1,0
1523619642735,786432,-105,-56,-1,-1,0
1523619642735,3604480,-105,-56,-1,-1,0
1523619642735,3735552,-105,-56,-1,-1,0
1523619642735,-131072,-105,-56,-1,-1,0
1523619642735,-4653056,-105,-56,-1,-1,0
1523619642775,-6029312,-105,-56,-1,-1,0
1523619642775,-4587520,-105,-56,-1,-1,0
1523619642775,-3080192,-105,-56,-1,-1,0
1523619642775,-2424832,-105,-56,-1,-1,0
1523619642775,-2162688,-105,-56,-1,-1,0
1523619642815,-1900544,-105,-56,-1,-1,0
1523619642815,-1703936,-105,-56,-1,-1,0
1523619642815,-1441792,-105,-56,-1,-1,0
1523619642815,-1114112,-105,-56,-1,-1,0
1523619642815,-786432,-105,-56,-1,-1,0
1523619642855,-458752,-105,-56,-1,-1,0
1523619642855,0,-105,-56,-1,-1,0
1523619642855,458752,-105,-56,-1,-1,0
1523619642855,1179648,-105,-56,-1,-1,0
1523619642855,1966080,-105,-56,-1,-1,0
1523619642895,2818048,-105,-56,-1,-1,0
1523619642895,3407872,-105,-56,-1,-1,0
1523619642895,3670016,-105,-56,-1,-1,0
1523619642895,3604480,-105,-56,-1,-1,0
1523619642895,3276800,-105,-56,-1,-1,0
1523619642947,2686976,-105,-56,-1,-1,0
1523619642947,1900544,-105,-56,-1,-1,0
1523619642947,1114112,-105,-56,-1,-1,0
1523619642947,393216,-105,-56,-1,-1,0
1523619642947,0,-105,-56,-1,-1,0
1523619642975,-196608,-105,-56,-1,-1,0
1523619642975,-393216,-105,-56,-1,-1,0
1523619642975,-589824,-105,-56,-1,-1,0
1523619642975,-720896,-105,-56,-1,-1,0
1523619642975,-786432,-105,-56,-1,-1,0
1523619643015,-851968,-105,-56,-1,-1,0
1523619643015,-851968,-105,-56,-1,-1,0
1523619643015,-720896,-105,-56,-1,-1,0
1523619643015,-589824,-105,-56,-1,-1,0
1523619643015,-524288,-105,-56,-1,-1,0
1523619643055,-589824,-105,-56,-1,-1,0
1523619643055,-655360,-105,-56,-1,-1,0
1523619643055,-786432,-105,-56,-1,-1,0
1523619643055,-917504,-105,-56,-1,-1,0
1523619643055,-1048576,-105,-56,-1,-1,0
1523619643095,-1114112,-105,-56,-1,-1,0
1523619643095,-1179648,-105,-56,-1,-1,0
1523619643095,-1245184,-105,-56,-1,-1,0
1523619643095,-1572864,-105,-56,-1,-1,0
1523619643095,-1441792,-105,-56,-1,-1,0
1523619643135,131072,-105,-56,-1,-1,0
1523619643135,2818048,-105,-56,-1,-1,0
1523619643135,3866624,-105,-56,-1,-1,0
1523619643135,1310720,-105,-56,-1,-1,0
1523619643135,-2949120,-105,-56,-1,-1,0
1523619643175,-5111808,-105,-56,-1,-1,0
1523619643175,-3997696,-105,-56,-1,-1,0
1523619643175,-2228224,-105,-56,-1,-1,0
1523619643175,-1376256,-105,-56,-1,-1,0
1523619643175,-1114112,-105,-56,-1,-1,0
1523619643215,-983040,-105,-56,-1,-1,0
1523619643215,-786432,-105,-56,-1,-1,0
1523619643215,-524288,-105,-56,-1,-1,0
1523619643215,-262144,-105,-56,-1,-1,0
1523619643215,0,-105,-56,-1,-1,0
1523619643255,262144,-105,-56,-1,-1,0
1523619643255,720896,-105,-56,-1,-1,0
1523619643255,1179648,-105,-56,-1,-1,0
1523619643255,1703936,-105,-56,-1,-1,0
1523619643255,2359296,-105,-56,-1,-1,0
1523619643295,3080192,-105,-56,-1,-1,0
1523619643295,3538944,-105,-56,-1,-1,0
1523619643295,3801088,-105,-56,-1,-1,0
1523619643295,3735552,-105,-56,-1,-1,0
1523619643295,3407872,-105,-56,-1,-1,0
1523619643335,2949120,-105,-56,-1,-1,0
1523619643335,2293760,-105,-56,-1,-1,0
1523619643335,1638400,-105,-56,-1,-1,0
1523619643335,1048576,-105,-56,-1,-1,0
1523619643335,589824,-105,-56,-1,-1,0
1523619643375,262144,-105,-56,-1,-1,0
1523619643375,0,-105,-56,-1,-1,0
1523619643375,-196608,-105,-56,-1,-1,0
1523619643375,-393216,-105,-56,-1,-1,0
1523619643375,-589824,-105,-56,-1,-1,0
1523619643415,-720896,-105,-56,-1,-1,0
1523619643415,-851968,-105,-56,-1,-1,0
1523619643415,-917504,-105,-56,-1,-1,0
1523619643415,-786432,-105,-56,-1,-1,0
1523619643415,-524288,-105,-56,-1,-1,0
1523619643455,-393216,-105,-56,-1,-1,0
1523619643455,-393216,-105,-56,-1,-1,0
1523619643455,-524288,-105,-56,-1,-1,0
1523619643455,-655360,-105,-56,-1,-1,0
1523619643455,-786432,-105,-56,-1,-1,0
1523619643495,-917504,-105,-56,-1,-1,0
1523619643495,-983040,-105,-56,-1,-1,0
1523619643495,-1048576,-105,-56,-1,-1,0
1523619643495,-1114112,-105,-56,-1,-1,0
1523619643495,-1441792,-105,-56,-1,-1,0
1523619643535,-1572864,-105,-56,-1,-1,0
1523619643535,-458752,-105,-56,-1,-1,0
1523619643535,1966080,-105,-56,-1,-1,0
1523619643535,3407872,-105,-56,-1,-1,0
1523619643535,1900544,-105,-56,-1,-1,0
1523619643587,-1835008,-105,-56,-1,-1,0
1523619643587,-4128768,-105,-56,-1,-1,0
1523619643587,-3538944,-105,-56,-1,-1,0
1523619643587,-1966080,-105,-56,-1,-1,0
1523619643587,-1114112,-105,-56,-1,-1,0
1523619643615,-851968,-105,-56,-1,-1,0
1523619643615,-655360,-105,-56,-1,-1,0
1523619643615,-458752,-105,-56,-1,-1,0
1523619643615,-262144,-105,-56,-1,-1,0
1523619643615,0,-105,-56,-1,-1,0
1523619643655,327680,-105,-56,-1,-1,0
1523619643655,655360,-105,-56,-1,-1,0
1523619643655,1048576,-105,-56,-1,-1,0
1523619643655,1441792,-105,-56,-1,-1,0
1523619643655,2031616,-105,-56,-1,-1,0
1523619643696,2686976,-105,-56,-1,-1,0
1523619643696,3342336,-105,-56,-1,-1,0
1523619643696,3866624,-105,-56,-1,-1,0
1523619643696,4128768,-105,-56,-1,-1,0
1523619643696,4063232,-105,-56,-1,-1,0
1523619643735,3801088,-105,-56,-1,-1,0
1523619643735,3407872,-105,-56,-1,-1,0
1523619643735,2818048,-105,-56,-1,-1,0
1523619643735,2228224,-105,-56,-1,-1,0
1523619643735,1572864,-105,-56,-1,-1,0
1523619643775,1114112,-105,-56,-1,-1,0
1523619643775,720896,-105,-56,-1,-1,0
1523619643775,393216,-105,-56,-1,-1,0
1523619643775,131072,-105,-56,-1,-1,0
1523619643775,0,-105,-56,-1,-1,0
1523619643815,-196608,-105,-56,-1,-1,0
1523619643815,-393216,-105,-56,-1,-1,0
1523619643815,-524288,-105,-56,-1,-1,0
1523619643815,-655360,-105,-56,-1,-1,0
1523619643815,-589824,-105,-56,-1,-1,0
1523619643855,-393216,-105,-56,-1,-1,0
1523619643855,-196608,-105,-56,-1,-1,0
1523619643855,-131072,-105,-56,-1,-1,0
1523619643855,-196608,-105,-56,-1,-1,0
1523619643855,-327680,-105,-56,-1,-1,0
1523619643895,-589824,-105,-56,-1,-1,0
1523619643895,-786432,-105,-56,-1,-1,0
1523619643895,-917504,-105,-56,-1,-1,0
1523619643895,-983040,-105,-56,-1,-1,0
1523619643895,-1048576,-105,-56,-1,-1,0
1523619643935,-1179648,-105,-56,-1,-1,0
1523619643935,-1572864,-105,-56,-1,-1,0
1523619643935,-1507328,-105,-56,-1,-1,0
1523619643935,-196608,-105,-56,-1,-1,0
1523619643935,1900544,-105,-56,-1,-1,0
1523619643975,2686976,-105,-56,-1,-1,0
1523619643975,655360,-105,-56,-1,-1,0
1523619643975,-2555904,-105,-56,-1,-1,0
1523619643975,-4128768,-105,-56,-1,-1,0
1523619643975,-3276800,-105,-56,-1,-1,0
1523619644015,-2031616,-105,-56,-1,-1,0
1523619644015,-1376256,-105,-56,-1,-1,0
1523619644015,-1245184,-105,-56,-1,-1,0
1523619644015,-1114112,-105,-56,-1,-1,0
1523619644015,-983040,-105,-56,-1,-1,0
1523619644055,-786432,-105,-56,-1,-1,0
1523619644055,-589824,-105,-56,-1,-1,0
1523619644055,-262144,-105,-56,-1,-1,0
1523619644055,65536,-105,-56,-1,-1,0
1523619644055,393216,-105,-56,-1,-1,0
1523619644096,851968,-105,-56,-1,-1,0
1523619644096,1376256,-105,-56,-1,-1,0
1523619644096,1966080,-105,-56,-1,-1,0
1523619644096,2686976,-105,-56,-1,-1,0
1523619644096,3342336,-105,-56,-1,-1,0
1523619644135,3670016,-105,-56,-1,-1,0
1523619644135,3670016,-105,-56,-1,-1,0
1523619644135,3473408,-105,-56,-1,-1,0
1523619644135,3014656,-105,-56,-1,-1,0
1523619644135,2424832,-105,-56,-1,-1,0
1523619644175,1703936,-105,-56,-1,-1,0
1523619644175,1048576,-105,-56,-1,-1,0
1523619644175,589824,-105,-56,-1,-1,0
1523619644175,196608,-105,-56,-1,-1,0
1523619644175,-65536,-105,-56,-1,-1,0
1523619644229,-393216,-105,-56,-1,-1,0
1523619644229,-589824,-105,-56,-1,-1,0
1523619644229,-655360,-105,-56,-1,-1,0
1523619644229,-786432,-105,-56,-1,-1,0
1523619644229,-851968,-105,-56,-1,-1,0
1523619644255,-720896,-105,-56,-1,-1,0
1523619644255,-589824,-105,-56,-1,-1,0
1523619644255,-524288,-105,-56,-1,-1,0
1523619644255,-589824,-105,-56,-1,-1,0
1523619644255,-720896,-105,-56,-1,-1,0
1523619644295,-917504,-105,-56,-1,-1,0
1523619644295,-1048576,-105,-56,-1,-1,0
1523619644295,-1179648,-105,-56,-1,-1,0
1523619644295,-1310720,-105,-56,-1,-1,0
1523619644295,-1441792,-105,-56,-1,-1,0
1523619644335,-1507328,-105,-56,-1,-1,0
1523619644335,-1835008,-105,-56,-1,-1,0
1523619644335,-1900544,-105,-56,-1,-1,0
1523619644335,-393216,-105,-56,-1,-1,0
1523619644335,2359296,-105,-56,-1,-1,0
1523619644375,3604480,-105,-56,-1,-1,0
1523619644375,1245184,-105,-56,-1,-1,0
1523619644375,-2949120,-105,-56,-1,-1,0
1523619644375,-5242880,-105,-56,-1,-1,0
1523619644375,-4521984,-105,-56,-1,-1,0
1523619644415,-2949120,-105,-56,-1,-1,0
1523619644415,-1966080,-105,-56,-1,-1,0
1523619644415,-1507328,-105,-56,-1,-1,0
1523619644415,-1310720,-105,-56,-1,-1,0
1523619644415,-1179648,-105,-56,-1,-1,0
1523619644455,-917504,-105,-56,-1,-1,0
1523619644455,-589824,-105,-56,-1,-1,0
1523619644455,-327680,-105,-56,-1,-1,0
1523619644455,0,-105,-56,-1,-1,0
1523619644455,393216,-105,-56,-1,-1,0
1523619644495,917504,-105,-56,-1,-1,0
1523619644495,1507328,-105,-56,-1,-1,0
1523619644495,2293760,-105,-56,-1,-1,0
1523619644495,3145728,-105,-56,-1,-1,0
1523619644495,3866624,-105,-56,-1,-1,0
1523619644535,4259840,-105,-56,-1,-1,0
1523619644535,4259840,-105,-56,-1,-1,0
1523619644535,3997696,-105,-56,-1,-1,0
1523619644535,3538944,-105,-56,-1,-1,0
1523619644535,2883584,-105,-56,-1,-1,0
1523619644575,2162688,-105,-56,-1,-1,0
1523619644575,1376256,-105,-56,-1,-1,0
1523619644575,720896,-105,-56,-1,-1,0
1523619644575,262144,-105,-56,-1,-1,0
1523619644575,0,-105,-56,-1,-1,0
1523619644616,-393216,-105,-56,-1,-1,0
1523619644616,-655360,-105,-56,-1,-1,0
1523619644616,-851968,-105,-56,-1,-1,0
1523619644616,-983040,-105,-56,-1,-1,0
1523619644616,-1048576,-105,-56,-1,-1,0
1523619644655,-983040,-105,-56,-1,-1,0
1523619644655,-851968,-105,-56,-1,-1,0
1523619644655,-720896,-105,-56,-1,-1,0
1523619644655,-655360,-105,-56,-1,-1,0
1523619644655,-786432,-105,-56,-1,-1,0
1523619644695,-983040,-105,-56,-1,-1,0
1523619644695,-1179648,-105,-56,-1,-1,0
1523619644695,-1245184,-105,-56,-1,-1,0
1523619644695,-1376256,-105,-56,-1,-1,0
1523619644695,-1507328,-105,-56,-1,-1,0
1523619644735,-1572864,-105,-56,-1,-1,0
1523619644735,-1703936,-105,-56,-1,-1,0
1523619644735,-1966080,-105,-56,-1,-1,0
1523619644735,-1114112,-105,-56,-1,-1,0
1523619644735,1441792,-105,-56,-1,-1,0
1523619644775,4128768,-105,-56,-1,-1,0
1523619644775,3604480,-105,-56,-1,-1,0
1523619644775,-655360,-105,-56,-1,-1,0
1523619644775,-4849664,-105,-56,-1,-1,0
1523619644775,-5701632,-105,-56,-1,-1,0
1523619644815,-4063232,-105,-56,-1,-1,0
1523619644815,-2555904,-105,-56,-1,-1,0
1523619644815,-1835008,-105,-56,-1,-1,0
1523619644815,-1638400,-105,-56,-1,-1,0
1523619644815,-1441792,-105,-56,-1,-1,0
1523619644869,-1179648,-105,-56,-1,-1,0
1523619644869,-983040,-105,-56,-1,-1,0
1523619644869,-786432,-105,-56,-1,-1,0
1523619644869,-458752,-105,-56,-1,-1,0
1523619644869,-65536,-105,-56,-1,-1,0
1523619644895,393216,-105,-56,-1,-1,0
1523619644895,983040,-105,-56,-1,-1,0
1523619644895,1638400,-105,-56,-1,-1,0
1523619644895,2424832,-105,-56,-1,-1,0
1523619644895,3145728,-105,-56,-1,-1,0
1523619644935,3670016,-105,-56,-1,-1,0
1523619644935,3932160,-105,-56,-1,-1,0
1523619644935,3866624,-105,-56,-1,-1,0
1523619644935,3473408,-105,-56,-1,-1,0
1523619644935,2883584,-105,-56,-1,-1,0
1523619644975,2097152,-105,-56,-1,-1,0
1523619644975,1310720,-105,-56,-1,-1,0
1523619644975,655360,-105,-56,-1,-1,0
1523619644975,262144,-105,-56,-1,-1,0
1523619644975,0,-105,-56,-1,-1,0
1523619645015,-196608,-105,-56,-1,-1,0
1523619645015,-327680,-105,-56,-1,-1,0
1523619645015,-458752,-105,-56,-1,-1,0
1523619645015,-589824,-105,-56,-1,-1,0
1523619645015,-720896,-105,-56,-1,-1,0
1523619645055,-786432,-105,-56,-1,-1,0
1523619645055,-720896,-105,-56,-1,-1,0
1523619645055,-524288,-105,-56,-1,-1,0
1523619645055,-458752,-105,-56,-1,-1,0
1523619645055,-458752,-105,-56,-1,-1,0
1523619645095,-589824,-105,-56,-1,-1,0
1523619645095,-786432,-105,-56,-1,-1,0
1523619645095,-983040,-105,-56,-1,-1,0
1523619645095,-1179648,-105,-56,-1,-1,0
1523619645095,-1245184,-105,-56,-1,-1,0
1523619645135,-1310720,-105,-56,-1,-1,0
1523619645135,-1310720,-105,-56,-1,-1,0
1523619645135,-1572864,-105,-56,-1,-1,0
1523619645135,-1835008,-105,-56,-1,-1,0
1523619645135,-786432,-105,-56,-1,-1,0
1523619645175,1769472,-105,-56,-1,-1,0
1523619645175,3932160,-105,-56,-1,-1,0
1523619645175,2752512,-105,-56,-1,-1,0
1523619645175,-1572864,-105,-56,-1,-1,0
1523619645175,-4915200,-105,-56,-1,-1,0
1523619645215,-4915200,-105,-56,-1,-1,0
1523619645215,-3145728,-105,-56,-1,-1,0
1523619645215,-1835008,-105,-56,-1,-1,0
1523619645215,-1376256,-105,-56,-1,-1,0
1523619645215,-1114112,-105,-56,-1,-1,0
1523619645255,-917504,-105,-56,-1,-1,0
1523619645255,-720896,-105,-56,-1,-1,0
1523619645255,-458752,-105,-56,-1,-1,0
1523619645255,-131072,-105,-56,-1,-1,0
1523619645255,131072,-105,-56,-1,-1,0
1523619645295,458752,-106,-56,-1,-1,0
1523619645295,917504,-106,-56,-1,-1,0
1523619645295,1507328,-106,-56,-1,-1,0
1523619645295,2162688,-106,-56,-1,-1,0
1523619645295,2949120,-106,-56,-1,-1,0
1523619645336,3604480,-106,-56,-1,-1,0
1523619645336,3997696,-106,-56,-1,-1,0
1523619645336,3997696,-106,-56,-1,-1,0
1523619645336,3735552,-106,-56,-1,-1,0
1523619645336,3276800,-106,-56,-1,-1,0
1523619645375,2686976,-106,-56,-1,-1,0
1523619645375,1966080,-106,-56,-1,-1,0
1523619645375,1310720,-106,-56,-1,-1,0
1523619645375,786432,-106,-56,-1,-1,0
1523619645375,393216,-106,-56,-1,-1,0
1523619645415,131072,-106,-56,-1,-1,0
1523619645415,0,-106,-56,-1,-1,0
1523619645415,-196608,-106,-56,-1,-1,0
1523619645415,-393216,-106,-56,-1,-1,0
1523619645415,-524288,-106,-56,-1,-1,0
1523619645455,-655360,-106,-56,-1,-1,0
1523619645455,-786432,-106,-56,-1,-1,0
1523619645455,-720896,-106,-56,-1,-1,0
1523619645455,-458752,-106,-56,-1,-1,0
1523619645455,-262144,-106,-56,-1,-1,0
1523619645507,-196608,-106,-56,-1,-1,0
1523619645507,-327680,-106,-56,-1,-1,0
1523619645507,-458752,-106,-56,-1,-1,0
1523619645507,-655360,-106,-56,-1,-1,0
1523619645507,-786432,-106,-56,-1,-1,0
1523619645535,-917504,-106,-56,-1,-1,0
1523619645535,-983040,-106,-56,-1,-1,0
1523619645535,-1048576,-106,-56,-1,-1,0
1523619645535,-1179648,-106,-56,-1,-1,0
1523619645535,-1638400,-106,-56,-1,-1,0
1523619645575,-1376256,-106,-56,-1,-1,0
1523619645575,327680,-106,-56,-1,-1,0
1523619645575,2686976,-106,-56,-1,-1,0
1523619645575,2949120,-106,-56,-1,-1,0
1523619645575,65536,-106,-56,-1,-1,0
1523619645615,-3407872,-106,-56,-1,-1,0
1523619645615,-4521984,-106,-56,-1,-1,0
1523619645615,-3211264,-106,-56,-1,-1,0
1523619645615,-1900544,-106,-56,-1,-1,0
1523619645615,-1310720,-106,-56,-1,-1,0
1523619645655,-1114112,-106,-56,-1,-1,0
1523619645655,-983040,-106,-56,-1,-1,0
1523619645655,-786432,-106,-56,-1,-1,0
1523619645655,-524288,-106,-56,-1,-1,0
1523619645655,-262144,-106,-56,-1,-1,0
1523619645695,0,-106,-56,-1,-1,0
1523619645695,262144,-106,-56,-1,-1,0
1523619645695,720896,-106,-56,-1,-1,0
1523619645695,1179648,-106,-56,-1,-1,0
1523619645695,1769472,-106,-56,-1,-1,0
1523619645735,2424832,-106,-56,-1,-1,0
1523619645735,3080192,-106,-56,-1,-1,0
1523619645735,3538944,-106,-56,-1,-1,0
1523619645735,3670016,-106,-56,-1,-1,0
1523619645735,3538944,-106,-56,-1,-1,0
1523619645775,3211264,-106,-56,-1,-1,0
1523619645775,2752512,-106,-56,-1,-1,0
1523619645775,2162688,-106,-56,-1,-1,0
1523619645775,1507328,-106,-56,-1,-1,0
1523619645775,917504,-106,-56,-1,-1,0
1523619645815,458752,-106,-56,-1,-1,0
1523619645815,65536,-106,-56,-1,-1,0
1523619645815,-131072,-106,-56,-1,-1,0
1523619645815,-327680,-106,-56,-1,-1,0
1523619645815,-589824,-106,-56,-1,-1,0
1523619645855,-720896,-106,-56,-1,-1,0
1523619645855,-851968,-106,-56,-1,-1,0
1523619645855,-983040,-106,-56,-1,-1,0
1523619645855,-1048576,-106,-56,-1,-1,0
1523619645855,-983040,-106,-56,-1,-1,0
1523619645895,-786432,-106,-56,-1,-1,0
1523619645895,-720896,-106,-56,-1,-1,0
1523619645895,-655360,-106,-56,-1,-1,0
1523619645895,-720896,-106,-56,-1,-1,0
1523619645895,-917504,-106,-56,-1,-1,0
1523619645935,-1179648,-106,-56,-1,-1,0
1523619645935,-1376256,-106,-56,-1,-1,0
1523619645935,-1441792,-106,-56,-1,-1,0
1523619645935,-1507328,-106,-56,-1,-1,0
1523619645935,-1572864,-106,-56,-1,-1,0
1523619645975,-1835008,-106,-56,-1,-1,0
1523619645975,-2228224,-106,-56,-1,-1,0
1523619645975,-1900544,-106,-56,-1,-1,0
1523619645975,-262144,-106,-56,-1,-1,0
1523619645975,1703936,-106,-56,-1,-1,0
1523619646015,1703936,-106,-56,-1,-1,0
1523619646015,-851968,-106,-56,-1,-1,0
1523619646015,-3801088,-106,-56,-1,-1,0
1523619646015,-4587520,-106,-56,-1,-1,0
1523619646015,-3473408,-106,-56,-1,-1,0
1523619646055,-2359296,-106,-56,-1,-1,0
1523619646055,-1835008,-106,-56,-1,-1,0
1523619646055,-1638400,-106,-56,-1,-1,0
1523619646055,-1441792,-106,-56,-1,-1,0
1523619646055,-1310720,-106,-56,-1,-1,0
1523619646095,-1114112,-106,-56,-1,-1,0
1523619646095,-851968,-106,-56,-1,-1,0
1523619646095,-458752,-106,-56,-1,-1,0
1523619646095,-131072,-106,-56,-1,-1,0
1523619646095,262144,-106,-56,-1,-1,0
1523619646147,786432,-106,-56,-1,-1,0
1523619646147,1441792,-106,-56,-1,-1,0
1523619646147,2097152,-106,-56,-1,-1,0
1523619646147,2752512,-106,-56,-1,-1,0
1523619646147,3211264,-106,-56,-1,-1,0
1523619646176,3342336,-106,-56,-1,-1,0
1523619646176,3276800,-106,-56,-1,-1,0
1523619646176,3080192,-106,-56,-1,-1,0
1523619646176,2621440,-106,-56,-1,-1,0
1523619646176,2097152,-106,-56,-1,-1,0
1523619646215,1507328,-106,-56,-1,-1,0
1523619646215,983040,-106,-56,-1,-1,0
1523619646215,524288,-106,-56,-1,-1,0
1523619646215,196608,-106,-56,-1,-1,0
1523619646215,-65536,-106,-56,-1,-1,0
1523619646255,-262144,-106,-56,-1,-1,0
1523619646255,-458752,-106,-56,-1,-1,0
1523619646255,-589824,-106,-56,-1,-1,0
1523619646255,-720896,-106,-56,-1,-1,0
1523619646255,-720896,-106,-56,-1,-1,0
1523619646295,-589824,-106,-56,-1,-1,0
1523619646295,-524288,-106,-56,-1,-1,0
1523619646295,-524288,-106,-56,-1,-1,0
1523619646295,-524288,-106,-56,-1,-1,0
1523619646295,-589824,-106,-56,-1,-1,0
1523619646335,-786432,-106,-56,-1,-1,0
1523619646335,-917504,-106,-56,-1,-1,0
1523619646335,-983040,-106,-56,-1,-1,0
1523619646335,-1114112,-106,-56,-1,-1,0
1523619646335,-1179648,-106,-56,-1,-1,0
1523619646375,-1245184,-106,-56,-1,-1,0
1523619646375,-1507328,-106,-56,-1,-1,0
1523619646375,-1769472,-106,-56,-1,-1,0
1523619646375,-983040,-106,-56,-1,-1,0
1523619646375,1245184,-106,-56,-1,-1,0
1523619646415,3342336,-106,-56,-1,-1,0
1523619646415,2621440,-106,-56,-1,-1,0
1523619646415,-917504,-106,-56,-1,-1,0
1523619646415,-3997696,-106,-56,-1,-1,0
1523619646415,-4325376,-106,-56,-1,-1,0
1523619646455,-2883584,-106,-56,-1,-1,0
1523619646455,-1769472,-106,-56,-1,-1,0
1523619646455,-1310720,-106,-56,-1,-1,0
1523619646455,-1179648,-106,-56,-1,-1,0
1523619646455,-983040,-106,-56,-1,-1,0
1523619646495,-786432,-106,-56,-1,-1,0
1523619646495,-524288,-106,-56,-1,-1,0
1523619646495,-262144,-106,-56,-1,-1,0
1523619646495,65536,-106,-56,-1,-1,0
1523619646495,524288,-106,-56,-1,-1,0
1523619646535,983040,-106,-56,-1,-1,0
1523619646535,1507328,-106,-56,-1,-1,0
1523619646535,2031616,-106,-56,-1,-1,0
1523619646535,2818048,-106,-56,-1,-1,0
1523619646535,3604480,-106,-56,-1,-1,0
1523619646575,4128768,-106,-56,-1,-1,0
1523619646575,4390912,-106,-56,-1,-1,0
1523619646575,4325376,-106,-56,-1,-1,0
1523619646575,3932160,-106,-56,-1,-1,0
1523619646575,3407872,-106,-56,-1,-1,0
1523619646615,2621440,-106,-56,-1,-1,0
1523619646615,1966080,-106,-56,-1,-1,0
1523619646615,1441792,-106,-56,-1,-1,0
1523619646615,983040,-106,-56,-1,-1,0
1523619646615,589824,-106,-56,-1,-1,0
1523619646655,262144,-106,-56,-1,-1,0
1523619646655,0,-106,-56,-1,-1,0
1523619646655,-131072,-106,-56,-1,-1,0
1523619646655,-262144,-106,-56,-1,-1,0
1523619646655,-327680,-106,-56,-1,-1,0
1523619646695,-393216,-106,-56,-1,-1,0
1523619646695,-327680,-106,-56,-1,-1,0
1523619646695,-196608,-106,-56,-1,-1,0
1523619646695,-65536,-106,-56,-1,-1,0
1523619646695,-65536,-106,-56,-1,-1,0
1523619646735,-131072,-106,-56,-1,-1,0
1523619646735,-327680,-106,-56,-1,-1,0
1523619646735,-458752,-106,-56,-1,-1,0
1523619646735,-589824,-106,-56,-1,-1,0
1523619646735,-720896,-106,-56,-1,-1,0
1523619646787,-851968,-106,-56,-1,-1,0
1523619646787,-917504,-106,-56,-1,-1,0
1523619646787,-1114112,-106,-56,-1,-1,0
1523619646787,-1048576,-106,-56,-1,-1,0
1523619646787,327680,-106,-56,-1,-1,0
1523619646815,3145728,-106,-56,-1,-1,0
1523619646815,5242880,-106,-56,-1,-1,0
1523619646815,3801088,-106,-56,-1,-1,0
1523619646815,-720896,-106,-56,-1,-1,0
1523619646815,-4128768,-106,-56,-1,-1,0
1523619646855,-4128768,-106,-56,-1,-1,0
1523619646855,-2490368,-106,-56,-1,-1,0
1523619646855,-1572864,-106,-56,-1,-1,0
1523619646855,-1179648,-106,-56,-1,-1,0
1523619646855,-917504,-106,-56,-1,-1,0
1523619646895,-720896,-106,-56,-1,-1,0
1523619646895,-458752,-106,-56,-1,-1,0
1523619646895,-262144,-106,-56,-1,-1,0
1523619646895,0,-106,-56,-1,-1,0
1523619646895,327680,-106,-56,-1,-1,0
1523619646935,786432,-106,-56,-1,-1,0
1523619646935,1310720,-106,-56,-1,-1,0
1523619646935,1835008,-106,-56,-1,-1,0
1523619646935,2490368,-106,-56,-1,-1,0
1523619646935,3211264,-106,-56,-1,-1,0
1523619646975,3932160,-106,-56,-1,-1,0
1523619646975,4390912,-106,-56,-1,-1,0
1523619646975,4521984,-106,-56,-1,-1,0
1523619646975,4325376,-106,-56,-1,-1,0
1523619646975,3801088,-106,-56,-1,-1,0
1523619647015,3080192,-106,-56,-1,-1,0
1523619647015,2293760,-106,-56,-1,-1,0
1523619647015,1507328,-106,-56,-1,-1,0
1523619647015,851968,-106,-56,-1,-1,0
1523619647015,458752,-106,-56,-1,-1,0
1523619647055,65536,-106,-56,-1,-1,0
1523619647055,-131072,-106,-56,-1,-1,0
1523619647055,-393216,-106,-56,-1,-1,0
1523619647055,-655360,-106,-56,-1,-1,0
1523619647055,-786432,-106,-56,-1,-1,0
1523619647095,-851968,-106,-56,-1,-1,0
1523619647095,-917504,-106,-56,-1,-1,0
1523619647095,-917504,-106,-56,-1,-1,0
1523619647095,-786432,-106,-56,-1,-1,0
1523619647095,-720896,-106,-56,-1,-1,0
1523619647135,-851968,-106,-56,-1,-1,0
1523619647135,-1048576,-106,-56,-1,-1,0
1523619647135,-1245184,-106,-56,-1,-1,0
1523619647135,-1376256,-106,-56,-1,-1,0
1523619647135,-1572864,-106,-56,-1,-1,0
1523619647175,-1638400,-106,-56,-1,-1,0
1523619647175,-1638400,-106,-56,-1,-1,0
1523619647175,-1703936,-106,-56,-1,-1,0
1523619647175,-2031616,-106,-56,-1,-1,0
1523619647175,-2031616,-106,-56,-1,-1,0
1523619647215,-458752,-106,-56,-1,-1,0
1523619647215,2555904,-106,-56,-1,-1,0
1523619647215,4456448,-106,-56,-1,-1,0
1523619647215,2490368,-106,-56,-1,-1,0
1523619647215,-2293760,-106,-56,-1,-1,0
1523619647255,-5439488,-106,-56,-1,-1,0
1523619647255,-4980736,-106,-56,-1,-1,0
1523619647255,-3276800,-106,-56,-1,-1,0
1523619647255,-2228224,-106,-56,-1,-1,0
1523619647255,-1900544,-106,-56,-1,-1,0
1523619647295,-1835008,-106,-56,-1,-1,0
1523619647295,-1638400,-106,-56,-1,-1,0
1523619647295,-1441792,-106,-56,-1,-1,0
1523619647295,-1179648,-106,-56,-1,-1,0
1523619647295,-851968,-106,-56,-1,-1,0
1523619647335,-524288,-106,-56,-1,-1,0
1523619647335,-196608,-106,-56,-1,-1,0
1523619647335,196608,-106,-56,-1,-1,0
1523619647335,786432,-106,-56,-1,-1,0
1523619647335,1507328,-106,-56,-1,-1,0
1523619647375,2228224,-106,-56,-1,-1,0
1523619647375,2818048,-106,-56,-1,-1,0
1523619647375,3211264,-106,-56,-1,-1,0
1523619647375,3276800,-106,-56,-1,-1,0
1523619647375,3145728,-106,-56,-1,-1,0
1523619647427,2818048,-106,-56,-1,-1,0
1523619647427,2228224,-106,-56,-1,-1,0
1523619647427,1572864,-106,-56,-1,-1,0
1523619647427,851968,-106,-56,-1,-1,0
1523619647427,327680,-106,-56,-1,-1,0
1523619647455,0,-106,-56,-1,-1,0
1523619647455,-196608,-106,-56,-1,-1,0
1523619647455,-393216,-106,-56,-1,-1,0
1523619647455,-589824,-106,-56,-1,-1,0
1523619647455,-786432,-106,-56,-1,-1,0
1523619647495,-917504,-106,-56,-1,-1,0
1523619647495,-1114112,-106,-56,-1,-1,0
1523619647495,-1245184,-106,-56,-1,-1,0
1523619647495,-1245184,-106,-56,-1,-1,0
1523619647495,-1114112,-106,-56,-1,-1,0
1523619647535,-1048576,-106,-56,-1,-1,0
1523619647535,-1048576,-106,-56,-1,-1,0
1523619647535,-1179648,-106,-56,-1,-1,0
1523619647535,-1441792,-106,-56,-1,-1,0
1523619647535,-1703936,-106,-56,-1,-1,0
1523619647575,-1900544,-106,-56,-1,-1,0
1523619647575,-2097152,-106,-56,-1,-1,0
1523619647575,-2162688,-106,-56,-1,-1,0
1523619647575,-2162688,-106,-56,-1,-1,0
1523619647575,-2424832,-106,-56,-1,-1,0
1523619647615,-2752512,-106,-56,-1,-1,0
1523619647615,-2031616,-106,-56,-1,-1,0
1523619647615,65536,-106,-56,-1,-1,0
1523619647615,2293760,-106,-56,-1,-1,0
1523619647615,1703936,-106,-56,-1,-1,0
1523619647655,-2031616,-106,-56,-1,-1,0
1523619647655,-5373952,-106,-56,-1,-1,0
1523619647655,-5636096,-106,-56,-1,-1,0
1523619647655,-3932160,-106,-56,-1,-1,0
1523619647655,-2752512,-106,-56,-1,-1,0
1523619647695,-2359296,-106,-56,-1,-1,0
1523619647695,-2293760,-106,-56,-1,-1,0
1523619647695,-2162688,-106,-56,-1,-1,0
1523619647695,-2031616,-106,-56,-1,-1,0
1523619647695,-1769472,-106,-56,-1,-1,0
1523619647735,-1507328,-108,-56,-1,-1,0
1523619647735,-1114112,-108,-56,-1,-1,0
1523619647735,-720896,-108,-56,-1,-1,0
1523619647735,-262144,-108,-56,-1,-1,0
1523619647735,196608,-108,-56,-1,-1,0
1523619647775,786432,-108,-56,-1,-1,0
1523619647775,1441792,-108,-56,-1,-1,0
1523619647775,2031616,-108,-56,-1,-1,0
1523619647775,2424832,-108,-56,-1,-1,0
1523619647775,2555904,-108,-56,-1,-1,0
1523619647815,2490368,-108,-56,-1,-1,0
1523619647815,2162688,-108,-56,-1,-1,0
1523619647815,1703936,-108,-56,-1,-1,0
1523619647815,1179648,-108,-56,-1,-1,0
1523619647815,655360,-108,-56,-1,-1,0
1523619647855,262144,-108,-56,-1,-1,0
1523619647855,0,-108,-56,-1,-1,0
1523619647855,-131072,-108,-56,-1,-1,0
1523619647855,-393216,-108,-56,-1,-1,0
1523619647855,-589824,-108,-56,-1,-1,0
1523619647895,-655360,-108,-56,-1,-1,0
1523619647895,-720896,-108,-56,-1,-1,0
1523619647895,-786432,-108,-56,-1,-1,0
1523619647895,-917504,-108,-56,-1,-1,0
1523619647895,-983040,-108,-56,-1,-1,0
1523619647935,-917504,-108,-56,-1,-1,0
1523619647935,-589824,-108,-56,-1,-1,0
1523619647935,-458752,-108,-56,-1,-1,0
1523619647935,-393216,-108,-56,-1,-1,0
1523619647935,-393216,-108,-56,-1,-1,0
1523619647975,-524288,-108,-56,-1,-1,0
1523619647975,-655360,-108,-56,-1,-1,0
1523619647975,-851968,-108,-56,-1,-1,0
1523619647975,-917504,-108,-56,-1,-1,0
1523619647975,-917504,-108,-56,-1,-1,0
1523619648015,-983040,-108,-56,-1,-1,0
1523619648015,-1114112,-108,-56,-1,-1,0
1523619648015,-1441792,-108,-56,-1,-1,0
1523619648015,-1245184,-108,-56,-1,-1,0
1523619648015,131072,-108,-56,-1,-1,0
1523619648067,2228224,-108,-56,-1,-1,0
1523619648067,2555904,-108,-56,-1,-1,0
1523619648067,131072,-108,-56,-1,-1,0
1523619648067,-3080192,-108,-56,-1,-1,0
1523619648067,-4194304,-108,-56,-1,-1,0
1523619648095,-3014656,-108,-56,-1,-1,0
1523619648095,-1572864,-108,-56,-1,-1,0
1523619648095,-851968,-108,-56,-1,-1,0
1523619648095,-655360,-108,-56,-1,-1,0
1523619648095,-524288,-108,-56,-1,-1,0
1523619648135,-458752,-108,-56,-1,-1,0
1523619648135,-196608,-108,-56,-1,-1,0
1523619648135,0,-108,-56,-1,-1,0
1523619648135,262144,-108,-56,-1,-1,0
1523619648135,589824,-108,-56,-1,-1,0
1523619648175,983040,-108,-56,-1,-1,0
1523619648175,1441792,-108,-56,-1,-1,0
1523619648175,2031616,-108,-56,-1,-1,0
1523619648175,2686976,-108,-56,-1,-1,0
1523619648175,3342336,-108,-56,-1,-1,0
1523619648215,3735552,-108,-56,-1,-1,0
1523619648215,3932160,-108,-56,-1,-1,0
1523619648215,3932160,-108,-56,-1,-1,0
1523619648215,3735552,-108,-56,-1,-1,0
1523619648215,3276800,-108,-56,-1,-1,0
1523619648255,2752512,-108,-56,-1,-1,0
1523619648255,2031616,-108,-56,-1,-1,0
1523619648255,1376256,-108,-56,-1,-1,0
1523619648255,917504,-108,-56,-1,-1,0
1523619648255,589824,-108,-56,-1,-1,0
1523619648295,262144,-108,-56,-1,-1,0
1523619648295,0,-108,-56,-1,-1,0
1523619648295,-196608,-108,-56,-1,-1,0
1523619648295,-393216,-108,-56,-1,-1,0
1523619648295,-524288,-108,-56,-1,-1,0
1523619648335,-589824,-108,-56,-1,-1,0
1523619648335,-524288,-108,-56,-1,-1,0
1523619648335,-393216,-108,-56,-1,-1,0
1523619648335,-196608,-108,-56,-1,-1,0
1523619648335,-131072,-108,-56,-1,-1,0
1523619648375,-262144,-108,-56,-1,-1,0
1523619648375,-524288,-108,-56,-1,-1,0
1523619648375,-720896,-108,-56,-1,-1,0
1523619648375,-917504,-108,-56,-1,-1,0
1523619648375,-1114112,-108,-56,-1,-1,0
1523619648415,-1310720,-108,-56,-1,-1,0
1523619648415,-1310720,-108,-56,-1,-1,0
1523619648415,-1376256,-108,-56,-1,-1,0
1523619648415,-1638400,-108,-56,-1,-1,0
1523619648415,-1048576,-108,-56,-1,-1,0
1523619648456,1310720,-108,-56,-1,-1,0
1523619648456,4063232,-108,-56,-1,-1,0
1523619648456,3932160,-108,-56,-1,-1,0
1523619648456,131072,-108,-56,-1,-1,0
1523619648456,-3801088,-108,-56,-1,-1,0
1523619648496,-4784128,-108,-56,-1,-1,0
1523619648496,-3276800,-108,-56,-1,-1,0
1523619648496,-1900544,-108,-56,-1,-1,0
1523619648496,-1310720,-108,-56,-1,-1,0
1523619648496,-1048576,-108,-56,-1,-1,0
1523619648535,-917504,-108,-56,-1,-1,0
1523619648535,-851968,-108,-56,-1,-1,0
1523619648535,-655360,-108,-56,-1,-1,0
1523619648535,-393216,-108,-56,-1,-1,0
1523619648535,-65536,-108,-56,-1,-1,0
1523619648575,262144,-108,-56,-1,-1,0
1523619648575,720896,-108,-56,-1,-1,0
1523619648575,1310720,-108,-56,-1,-1,0
1523619648575,1966080,-108,-56,-1,-1,0
1523619648575,2686976,-108,-56,-1,-1,0
1523619648615,3342336,-108,-56,-1,-1,0
1523619648615,3866624,-108,-56,-1,-1,0
1523619648615,4128768,-108,-56,-1,-1,0
1523619648615,4194304,-108,-56,-1,-1,0
1523619648615,3801088,-108,-56,-1,-1,0
1523619648655,3080192,-108,-56,-1,-1,0
1523619648655,2293760,-108,-56,-1,-1,0
1523619648655,1507328,-108,-56,-1,-1,0
1523619648655,917504,-108,-56,-1,-1,0
1523619648655,524288,-108,-56,-1,-1,0
1523619648707,196608,-108,-56,-1,-1,0
1523619648707,-131072,-108,-56,-1,-1,0
1523619648707,-589824,-108,-56,-1,-1,0
1523619648707,-851968,-108,-56,-1,-1,0
1523619648707,-1048576,-108,-56,-1,-1,0
1523619648735,-1114112,-108,-56,-1,-1,0
1523619648735,-1179648,-108,-56,-1,-1,0
1523619648735,-1179648,-108,-56,-1,-1,0
1523619648735,-1048576,-108,-56,-1,-1,0
1523619648735,-983040,-108,-56,-1,-1,0
1523619648775,-983040,-108,-56,-1,-1,0
1523619648775,-1179648,-108,-56,-1,-1,0
1523619648775,-1376256,-108,-56,-1,-1,0
1523619648775,-1507328,-108,-56,-1,-1,0
1523619648775,-1638400,-108,-56,-1,-1,0
1523619648815,-1769472,-108,-56,-1,-1,0
1523619648815,-1966080,-108,-56,-1,-1,0
1523619648815,-1966080,-108,-56,-1,-1,0
1523619648815,-2097152,-108,-56,-1,-1,0
1523619648815,-2293760,-108,-56,-1,-1,0
1523619648854,-1310720,-108,-56,-1,-1,0
1523619648854,1507328,-108,-56,-1,-1,0
1523619648854,4325376,-108,-56,-1,-1,0
1523619648854,3538944,-108,-56,-1,-1,0
1523619648854,-1114112,-108,-56,-1,-1,0
1523619648894,-5308416,-108,-56,-1,-1,0
1523619648894,-5963776,-108,-56,-1,-1,0
1523619648894,-4259840,-108,-56,-1,-1,0
1523619648894,-2883584,-108,-56,-1,-1,0
1523619648894,-2162688,-108,-56,-1,-1,0
1523619648934,-1835008,-108,-56,-1,-1,0
1523619648934,-1703936,-108,-56,-1,-1,0
1523619648934,-1507328,-108,-56,-1,-1,0
1523619648934,-1245184,-108,-56,-1,-1,0
1523619648934,-917504,-108,-56,-1,-1,0
1523619648975,-524288,-108,-56,-1,-1,0
1523619648975,-196608,-108,-56,-1,-1,0
1523619648975,196608,-108,-56,-1,-1,0
1523619648975,720896,-108,-56,-1,-1,0
1523619648975,1441792,-108,-56,-1,-1,0
1523619649014,2293760,-108,-56,-1,-1,0
1523619649014,3080192,-108,-56,-1,-1,0
1523619649014,3670016,-108,-56,-1,-1,0
1523619649014,3866624,-108,-56,-1,-1,0
1523619649014,3801088,-108,-56,-1,-1,0
1523619649056,3538944,-108,-56,-1,-1,0
1523619649056,2949120,-108,-56,-1,-1,0
1523619649056,2228224,-108,-56,-1,-1,0
1523619649056,1376256,-108,-56,-1,-1,0
1523619649056,786432,-108,-56,-1,-1,0
1523619649094,393216,-108,-56,-1,-1,0
1523619649094,131072,-108,-56,-1,-1,0
1523619649094,0,-108,-56,-1,-1,0
1523619649094,-65536,-108,-56,-1,-1,0
1523619649094,-262144,-108,-56,-1,-1,0
1523619649135,-458752,-108,-56,-1,-1,0
1523619649135,-589824,-108,-56,-1,-1,0
1523619649135,-786432,-108,-56,-1,-1,0
1523619649135,-786432,-108,-56,-1,-1,0
1523619649135,-655360,-108,-56,-1,-1,0
1523619649174,-524288,-108,-56,-1,-1,0
1523619649174,-458752,-108,-56,-1,-1,0
1523619649174,-524288,-108,-56,-1,-1,0
1523619649174,-720896,-108,-56,-1,-1,0
1523619649174,-917504,-108,-56,-1,-1,0
1523619649216,-1114112,-108,-56,-1,-1,0
1523619649216,-1310720,-108,-56,-1,-1,0
1523619649216,-1376256,-108,-56,-1,-1,0
1523619649216,-1441792,-108,-56,-1,-1,0
1523619649216,-1507328,-108,-56,-1,-1,0
1523619649254,-1966080,-108,-56,-1,-1,0
1523619649254,-2031616,-108,-56,-1,-1,0
1523619649254,-524288,-108,-56,-1,-1,0
1523619649254,2097152,-108,-56,-1,-1,0
1523619649254,3407872,-108,-56,-1,-1,0
1523619649297,1179648,-108,-56,-1,-1,0
1523619649297,-3080192,-108,-56,-1,-1,0
1523619649297,-5308416,-108,-56,-1,-1,0
1523619649297,-4325376,-108,-56,-1,-1,0
1523619649297,-2555904,-108,-56,-1,-1,0
1523619649350,-1572864,-108,-56,-1,-1,0
1523619649350,-1245184,-108,-56,-1,-1,0
1523619649350,-1048576,-108,-56,-1,-1,0
1523619649350,-917504,-108,-56,-1,-1,0
1523619649350,-720896,-108,-56,-1,-1,0
1523619649376,-458752,-108,-56,-1,-1,0
1523619649376,-131072,-108,-56,-1,-1,0
1523619649376,131072,-108,-56,-1,-1,0
1523619649376,458752,-108,-56,-1,-1,0
1523619649376,851968,-108,-56,-1,-1,0
1523619649414,1376256,-108,-56,-1,-1,0
1523619649414,1966080,-108,-56,-1,-1,0
1523619649414,2686976,-108,-56,-1,-1,0
1523619649414,3211264,-108,-56,-1,-1,0
1523619649414,3538944,-108,-56,-1,-1,0
1523619649455,3538944,-108,-56,-1,-1,0
1523619649455,3342336,-108,-56,-1,-1,0
1523619649455,3014656,-108,-56,-1,-1,0
1523619649455,2490368,-108,-56,-1,-1,0
1523619649455,1966080,-108,-56,-1,-1,0
1523619649494,1376256,-108,-56,-1,-1,0
1523619649494,917504,-108,-56,-1,-1,0
1523619649494,589824,-108,-56,-1,-1,0
1523619649494,393216,-108,-56,-1,-1,0
1523619649494,196608,-108,-56,-1,-1,0
1523619649536,0,-108,-56,-1,-1,0
1523619649536,-131072,-108,-56,-1,-1,0
1523619649536,-262144,-108,-56,-1,-1,0
1523619649536,-327680,-108,-56,-1,-1,0
1523619649536,-458752,-108,-56,-1,-1,0
1523619649574,-458752,-108,-56,-1,-1,0
1523619649574,-262144,-108,-56,-1,-1,0
1523619649574,-131072,-108,-56,-1,-1,0
1523619649574,0,-108,-56,-1,-1,0
1523619649574,0,-108,-56,-1,-1,0
1523619649615,-65536,-108,-56,-1,-1,0
1523619649615,-262144,-108,-56,-1,-1,0
1523619649615,-393216,-108,-56,-1,-1,0
1523619649615,-524288,-108,-56,-1,-1,0
1523619649615,-589824,-108,-56,-1,-1,0
1523619649654,-655360,-108,-56,-1,-1,0
1523619649654,-655360,-108,-56,-1,-1,0
1523619649654,-983040,-108,-56,-1,-1,0
1523619649654,-1310720,-108,-56,-1,-1,0
1523619649654,-589824,-108,-56,-1,-1,0
1523619649695,1245184,-108,-56,-1,-1,0
1523619649695,2818048,-108,-56,-1,-1,0
1523619649695,1966080,-108,-56,-1,-1,0
1523619649695,-1179648,-108,-56,-1,-1,0
1523619649695,-3604480,-108,-56,-1,-1,0
1523619649734,-3604480,-108,-56,-1,-1,0
1523619649734,-2162688,-108,-56,-1,-1,0
1523619649734,-1114112,-108,-56,-1,-1,0
1523619649734,-786432,-108,-56,-1,-1,0
1523619649734,-655360,-108,-56,-1,-1,0
1523619649775,-524288,-108,-56,-1,-1,0
1523619649775,-262144,-108,-56,-1,-1,0
1523619649775,-65536,-108,-56,-1,-1,0
1523619649775,131072,-108,-56,-1,-1,0
1523619649775,458752,-108,-56,-1,-1,0
1523619649814,786432,-108,-56,-1,-1,0
1523619649814,1179648,-108,-56,-1,-1,0
1523619649814,1638400,-108,-56,-1,-1,0
1523619649814,2228224,-108,-56,-1,-1,0
1523619649814,2883584,-108,-56,-1,-1,0
1523619649855,3473408,-108,-56,-1,-1,0
1523619649855,3866624,-108,-56,-1,-1,0
1523619649855,3997696,-108,-56,-1,-1,0
1523619649855,3801088,-108,-56,-1,-1,0
1523619649855,3407872,-108,-56,-1,-1,0
1523619649894,2883584,-108,-56,-1,-1,0
1523619649894,2293760,-108,-56,-1,-1,0
1523619649894,1703936,-108,-56,-1,-1,0
1523619649894,1179648,-108,-56,-1,-1,0
1523619649894,786432,-108,-56,-1,-1,0
1523619649935,393216,-108,-56,-1,-1,0
1523619649935,65536,-108,-56,-1,-1,0
1523619649935,-131072,-108,-56,-1,-1,0
1523619649935,-327680,-108,-56,-1,-1,0
1523619649935,-458752,-108,-56,-1,-1,0
1523619649987,-589824,-108,-56,-1,-1,0
1523619649987,-655360,-108,-56,-1,-1,0
1523619649987,-720896,-108,-56,-1,-1,0
1523619649987,-720896,-108,-56,-1,-1,0
1523619649987,-589824,-108,-56,-1,-1,0
1523619650014,-458752,-108,-56,-1,-1,0
1523619650014,-524288,-108,-56,-1,-1,0
1523619650014,-720896,-108,-56,-1,-1,0
1523619650014,-917504,-108,-56,-1,-1,0
1523619650014,-1114112,-108,-56,-1,-1,0
1523619650054,-1245184,-108,-56,-1,-1,0
1523619650054,-1310720,-108,-56,-1,-1,0
1523619650054,-1310720,-108,-56,-1,-1,0
1523619650054,-1376256,-108,-56,-1,-1,0
1523619650054,-1638400,-108,-56,-1,-1,0
1523619650094,-1900544,-108,-56,-1,-1,0
1523619650094,-983040,-108,-56,-1,-1,0
1523619650094,1179648,-108,-56,-1,-1,0
1523619650094,2949120,-108,-56,-1,-1,0
1523619650094,2031616,-108,-56,-1,-1,0
1523619650134,-1441792,-108,-56,-1,-1,0
1523619650134,-4194304,-108,-56,-1,-1,0
1523619650134,-4128768,-108,-56,-1,-1,0
1523619650134,-2621440,-108,-56,-1,-1,0
1523619650134,-1638400,-108,-56,-1,-1,0
1523619650175,-1310720,-108,-56,-1,-1,0
1523619650175,-1114112,-108,-56,-1,-1,0
1523619650175,-917504,-108,-56,-1,-1,0
1523619650175,-589824,-108,-56,-1,-1,0
1523619650175,-262144,-108,-56,-1,-1,0
1523619650214,0,-108,-56,-1,-1,0
1523619650214,196608,-108,-56,-1,-1,0
1523619650214,589824,-108,-56,-1,-1,0
1523619650214,1048576,-108,-56,-1,-1,0
1523619650214,1572864,-108,-56,-1,-1,0
1523619650255,2031616,-108,-56,-1,-1,0
1523619650255,2621440,-108,-56,-1,-1,0
1523619650255,3211264,-108,-56,-1,-1,0
1523619650255,3735552,-108,-56,-1,-1,0
1523619650255,3932160,-108,-56,-1,-1,0
1523619650294,3866624,-108,-56,-1,-1,0
1523619650294,3473408,-108,-56,-1,-1,0
1523619650294,2818048,-108,-56,-1,-1,0
1523619650294,2031616,-108,-56,-1,-1,0
1523619650294,1245184,-108,-56,-1,-1,0
1523619650336,589824,-108,-56,-1,-1,0
1523619650336,131072,-108,-56,-1,-1,0
1523619650336,-65536,-108,-56,-1,-1,0
1523619650336,-393216,-108,-56,-1,-1,0
1523619650336,-720896,-108,-56,-1,-1,0
1523619650374,-917504,-108,-56,-1,-1,0
1523619650374,-1114112,-108,-56,-1,-1,0
1523619650374,-1245184,-108,-56,-1,-1,0
1523619650374,-1310720,-108,-56,-1,-1,0
1523619650374,-1245184,-108,-56,-1,-1,0
1523619650415,-1114112,-108,-56,-1,-1,0
1523619650415,-983040,-108,-56,-1,-1,0
1523619650415,-917504,-108,-56,-1,-1,0
1523619650415,-917504,-108,-56,-1,-1,0
1523619650415,-1114112,-108,-56,-1,-1,0
1523619650454,-1245184,-108,-56,-1,-1,0
1523619650454,-1507328,-108,-56,-1,-1,0
1523619650454,-1638400,-108,-56,-1,-1,0
1523619650454,-1703936,-108,-56,-1,-1,0
1523619650454,-1638400,-108,-56,-1,-1,0
1523619650495,-1835008,-108,-56,-1,-1,0
1523619650495,-1966080,-108,-56,-1,-1,0
1523619650495,-851968,-108,-56,-1,-1,0
1523619650495,2031616,-108,-56,-1,-1,0
1523619650495,4653056,-108,-56,-1,-1,0
1523619650534,3604480,-108,-56,-1,-1,0
1523619650534,-1048576,-108,-56,-1,-1,0
1523619650534,-4849664,-108,-56,-1,-1,0
1523619650534,-5177344,-108,-56,-1,-1,0
1523619650534,-3473408,-108,-56,-1,-1,0
1523619650575,-2162688,-108,-56,-1,-1,0
1523619650575,-1638400,-108,-56,-1,-1,0
1523619650575,-1441792,-108,-56,-1,-1,0
1523619650575,-1310720,-108,-56,-1,-1,0
1523619650575,-1048576,-108,-56,-1,-1,0
1523619650629,-851968,-109,-56,-1,-1,0
1523619650629,-524288,-109,-56,-1,-1,0
1523619650629,-131072,-109,-56,-1,-1,0
1523619650629,196608,-109,-56,-1,-1,0
1523619650629,589824,-109,-56,-1,-1,0
1523619650655,1179648,-109,-56,-1,-1,0
1523619650655,1900544,-109,-56,-1,-1,0
1523619650655,2686976,-109,-56,-1,-1,0
1523619650655,3538944,-109,-56,-1,-1,0
1523619650655,4128768,-109,-56,-1,-1,0
1523619650694,4390912,-109,-56,-1,-1,0
1523619650694,4325376,-109,-56,-1,-1,0
1523619650694,3997696,-109,-56,-1,-1,0
1523619650694,3407872,-109,-56,-1,-1,0
1523619650694,2555904,-109,-56,-1,-1,0
1523619650735,1769472,-109,-56,-1,-1,0
1523619650735,1179648,-109,-56,-1,-1,0
1523619650735,720896,-109,-56,-1,-1,0
1523619650735,393216,-109,-56,-1,-1,0
1523619650735,196608,-109,-56,-1,-1,0
1523619650774,0,-109,-56,-1,-1,0
1523619650774,-65536,-109,-56,-1,-1,0
1523619650774,-196608,-109,-56,-1,-1,0
1523619650774,-327680,-109,-56,-1,-1,0
1523619650774,-458752,-109,-56,-1,-1,0
1523619650815,-458752,-109,-56,-1,-1,0
1523619650815,-327680,-109,-56,-1,-1,0
1523619650815,-196608,-109,-56,-1,-1,0
1523619650815,-131072,-109,-56,-1,-1,0
1523619650815,-196608,-109,-56,-1,-1,0
1523619650855,-327680,-109,-56,-1,-1,0
1523619650855,-524288,-109,-56,-1,-1,0
1523619650855,-720896,-109,-56,-1,-1,0
1523619650855,-851968,-109,-56,-1,-1,0
1523619650855,-917504,-109,-56,-1,-1,0
1523619650895,-983040,-109,-56,-1,-1,0
1523619650895,-1048576,-109,-56,-1,-1,0
1523619650895,-1376256,-109,-56,-1,-1,0
1523619650895,-1114112,-109,-56,-1,-1,0
1523619650895,786432,-109,-56,-1,-1,0
1523619650934,3538944,-109,-56,-1,-1,0
1523619650934,3801088,-109,-56,-1,-1,0
1523619650934,327680,-109,-56,-1,-1,0
1523619650934,-3932160,-109,-56,-1,-1,0
1523619650934,-5308416,-109,-56,-1,-1,0
1523619650975,-3735552,-109,-56,-1,-1,0
1523619650975,-1966080,-109,-56,-1,-1,0
1523619650975,-1048576,-109,-56,-1,-1,0
1523619650975,-720896,-109,-56,-1,-1,0
1523619650975,-524288,-109,-56,-1,-1,0
1523619651014,-327680,-109,-56,-1,-1,0
1523619651014,-131072,-109,-56,-1,-1,0
1523619651014,0,-109,-56,-1,-1,0
1523619651014,327680,-109,-56,-1,-1,0
1523619651014,655360,-109,-56,-1,-1,0
1523619651055,1048576,-109,-56,-1,-1,0
1523619651055,1507328,-109,-56,-1,-1,0
1523619651055,2162688,-109,-56,-1,-1,0
1523619651055,2949120,-109,-56,-1,-1,0
1523619651055,3735552,-109,-56,-1,-1,0
1523619651094,4390912,-109,-56,-1,-1,0
1523619651094,4718592,-109,-56,-1,-1,0
1523619651094,4653056,-109,-56,-1,-1,0
1523619651094,4325376,-109,-56,-1,-1,0
1523619651094,3735552,-109,-56,-1,-1,0
1523619651136,2949120,-109,-56,-1,-1,0
1523619651136,2097152,-109,-56,-1,-1,0
1523619651136,1376256,-109,-56,-1,-1,0
1523619651136,851968,-109,-56,-1,-1,0
1523619651136,393216,-109,-56,-1,-1,0
1523619651175,65536,-109,-56,-1,-1,0
1523619651175,-131072,-109,-56,-1,-1,0
1523619651175,-262144,-109,-56,-1,-1,0
1523619651175,-393216,-109,-56,-1,-1,0
1523619651175,-589824,-109,-56,-1,-1,0
1523619651215,-720896,-109,-56,-1,-1,0
1523619651215,-917504,-109,-56,-1,-1,0
1523619651215,-983040,-109,-56,-1,-1,0
1523619651215,-917504,-109,-56,-1,-1,0
1523619651215,-720896,-109,-56,-1,-1,0
1523619651267,-589824,-109,-56,-1,-1,0
1523619651267,-589824,-109,-56,-1,-1,0
1523619651267,-720896,-109,-56,-1,-1,0
1523619651267,-983040,-109,-56,-1,-1,0
1523619651267,-1179648,-109,-56,-1,-1,0
1523619651295,-1310720,-109,-56,-1,-1,0
1523619651295,-1376256,-109,-56,-1,-1,0
1523619651295,-1376256,-109,-56,-1,-1,0
1523619651295,-1441792,-109,-56,-1,-1,0
1523619651295,-1835008,-109,-56,-1,-1,0
1523619651334,-2162688,-109,-56,-1,-1,0
1523619651334,-1441792,-109,-56,-1,-1,0
1523619651334,655360,-109,-56,-1,-1,0
1523619651334,2424832,-109,-56,-1,-1,0
1523619651334,1376256,-109,-56,-1,-1,0
1523619651376,-2162688,-109,-56,-1,-1,0
1523619651376,-4784128,-109,-56,-1,-1,0
1523619651376,-4718592,-109,-56,-1,-1,0
1523619651376,-3145728,-109,-56,-1,-1,0
1523619651376,-1966080,-109,-56,-1,-1,0
1523619651414,-1507328,-109,-56,-1,-1,0
1523619651414,-1310720,-109,-56,-1,-1,0
1523619651414,-1179648,-109,-56,-1,-1,0
1523619651414,-983040,-109,-56,-1,-1,0
1523619651414,-720896,-109,-56,-1,-1,0
1523619651455,-393216,-109,-56,-1,-1,0
1523619651455,-65536,-109,-56,-1,-1,0
1523619651455,262144,-109,-56,-1,-1,0
1523619651455,655360,-109,-56,-1,-1,0
1523619651455,1245184,-109,-56,-1,-1,0
1523619651495,1835008,-109,-56,-1,-1,0
1523619651495,2555904,-109,-56,-1,-1,0
1523619651495,3211264,-109,-56,-1,-1,0
1523619651495,3670016,-109,-56,-1,-1,0
1523619651495,3866624,-109,-56,-1,-1,0
1523619651535,3735552,-109,-56,-1,-1,0
1523619651535,3407872,-109,-56,-1,-1,0
1523619651535,2949120,-109,-56,-1,-1,0
1523619651535,2359296,-109,-56,-1,-1,0
1523619651535,1703936,-109,-56,-1,-1,0
1523619651575,1245184,-109,-56,-1,-1,0
1523619651575,851968,-109,-56,-1,-1,0
1523619651575,524288,-109,-56,-1,-1,0
1523619651575,262144,-109,-56,-1,-1,0
1523619651575,65536,-109,-56,-1,-1,0
1523619651615,-65536,-109,-56,-1,-1,0
1523619651615,-196608,-109,-56,-1,-1,0
1523619651615,-327680,-109,-56,-1,-1,0
1523619651615,-458752,-109,-56,-1,-1,0
1523619651615,-589824,-109,-56,-1,-1,0
1523619651655,-524288,-109,-56,-1,-1,0
1523619651655,-393216,-109,-56,-1,-1,0
1523619651655,-327680,-109,-56,-1,-1,0
1523619651655,-327680,-109,-56,-1,-1,0
1523619651655,-327680,-109,-56,-1,-1,0
1523619651695,-458752,-109,-56,-1,-1,0
1523619651695,-655360,-109,-56,-1,-1,0
1523619651695,-786432,-109,-56,-1,-1,0
1523619651695,-917504,-109,-56,-1,-1,0
1523619651695,-1048576,-109,-56,-1,-1,0
1523619651735,-1179648,-109,-56,-1,-1,0
1523619651735,-1310720,-109,-56,-1,-1,0
1523619651735,-1638400,-109,-56,-1,-1,0
1523619651735,-1703936,-109,-56,-1,-1,0
1523619651735,-524288,-109,-56,-1,-1,0
1523619651775,1572864,-109,-56,-1,-1,0
1523619651775,2621440,-109,-56,-1,-1,0
1523619651775,917504,-109,-56,-1,-1,0
1523619651775,-2359296,-109,-56,-1,-1,0
1523619651775,-4194304,-109,-56,-1,-1,0
1523619651815,-3670016,-109,-56,-1,-1,0
1523619651815,-2359296,-109,-56,-1,-1,0
1523619651815,-1572864,-109,-56,-1,-1,0
1523619651815,-1310720,-109,-56,-1,-1,0
1523619651815,-1179648,-109,-56,-1,-1,0
1523619651855,-1048576,-109,-56,-1,-1,0
1523619651855,-851968,-109,-56,-1,-1,0
1523619651855,-589824,-109,-56,-1,-1,0
1523619651855,-196608,-109,-56,-1,-1,0
1523619651855,65536,-109,-56,-1,-1,0
1523619651907,458752,-109,-56,-1,-1,0
1523619651907,851968,-109,-56,-1,-1,0
1523619651907,1376256,-109,-56,-1,-1,0
1523619651907,2097152,-109,-56,-1,-1,0
1523619651907,2818048,-109,-56,-1,-1,0
1523619651935,3407872,-109,-56,-1,-1,0
1523619651935,3735552,-109,-56,-1,-1,0
1523619651935,3866624,-109,-56,-1,-1,0
1523619651935,3801088,-109,-56,-1,-1,0
1523619651935,3407872,-109,-56,-1,-1,0
1523619651975,2752512,-109,-56,-1,-1,0
1523619651975,1966080,-109,-56,-1,-1,0
1523619651975,1179648,-109,-56,-1,-1,0
1523619651975,655360,-109,-56,-1,-1,0
1523619651975,196608,-109,-56,-1,-1,0
1523619652015,-65536,-109,-56,-1,-1,0
1523619652015,-262144,-109,-56,-1,-1,0
1523619652015,-393216,-109,-56,-1,-1,0
1523619652015,-589824,-109,-56,-1,-1,0
1523619652015,-786432,-109,-56,-1,-1,0
1523619652055,-1048576,-109,-56,-1,-1,0
1523619652055,-1179648,-109,-56,-1,-1,0
1523619652055,-1179648,-109,-56,-1,-1,0
1523619652055,-917504,-109,-56,-1,-1,0
1523619652055,-786432,-109,-56,-1,-1,0
1523619652095,-851968,-109,-56,-1,-1,0
1523619652095,-917504,-109,-56,-1,-1,0
1523619652095,-1048576,-109,-56,-1,-1,0
1523619652095,-1245184,-109,-56,-1,-1,0
1523619652095,-1507328,-109,-56,-1,-1,0
1523619652135,-1703936,-109,-56,-1,-1,0
1523619652135,-1769472,-109,-56,-1,-1,0
1523619652135,-1835008,-109,-56,-1,-1,0
1523619652135,-2031616,-109,-56,-1,-1,0
1523619652135,-2293760,-109,-56,-1,-1,0
1523619652175,-1572864,-109,-56,-1,-1,0
1523619652175,851968,-109,-56,-1,-1,0
1523619652175,3604480,-109,-56,-1,-1,0
1523619652175,3473408,-109,-56,-1,-1,0
1523619652175,-393216,-109,-56,-1,-1,0
1523619652215,-4521984,-109,-56,-1,-1,0
1523619652215,-5570560,-109,-56,-1,-1,0
1523619652215,-4194304,-109,-56,-1,-1,0
1523619652215,-2883584,-109,-56,-1,-1,0
1523619652215,-2293760,-109,-56,-1,-1,0
1523619652255,-2031616,-109,-56,-1,-1,0
1523619652255,-1835008,-109,-56,-1,-1,0
1523619652255,-1572864,-109,-56,-1,-1,0
1523619652255,-1179648,-109,-56,-1,-1,0
1523619652255,-983040,-109,-56,-1,-1,0
1523619652295,-655360,-109,-56,-1,-1,0
1523619652295,-262144,-109,-56,-1,-1,0
1523619652295,131072,-109,-56,-1,-1,0
1523619652295,655360,-109,-56,-1,-1,0
1523619652295,1376256,-109,-56,-1,-1,0
1523619652335,2162688,-109,-56,-1,-1,0
1523619652335,2949120,-109,-56,-1,-1,0
1523619652335,3538944,-109,-56,-1,-1,0
1523619652335,3801088,-109,-56,-1,-1,0
1523619652335,3801088,-109,-56,-1,-1,0
1523619652375,3473408,-109,-56,-1,-1,0
1523619652375,2818048,-109,-56,-1,-1,0
1523619652375,2097152,-109,-56,-1,-1,0
1523619652375,1310720,-109,-56,-1,-1,0
1523619652375,589824,-109,-56,-1,-1,0
1523619652415,131072,-109,-56,-1,-1,0
1523619652415,-196608,-109,-56,-1,-1,0
1523619652415,-524288,-109,-56,-1,-1,0
1523619652415,-786432,-109,-56,-1,-1,0
1523619652415,-917504,-109,-56,-1,-1,0
1523619652455,-1048576,-109,-56,-1,-1,0
1523619652455,-1179648,-109,-56,-1,-1,0
1523619652455,-1376256,-109,-56,-1,-1,0
1523619652455,-1507328,-109,-56,-1,-1,0
1523619652455,-1441792,-109,-56,-1,-1,0
1523619652495,-1310720,-109,-56,-1,-1,0
1523619652495,-1245184,-109,-56,-1,-1,0
1523619652495,-1310720,-109,-56,-1,-1,0
1523619652495,-1441792,-109,-56,-1,-1,0
1523619652495,-1638400,-109,-56,-1,-1,0
1523619652547,-1769472,-109,-56,-1,-1,0
1523619652547,-1900544,-109,-56,-1,-1,0
1523619652547,-2031616,-109,-56,-1,-1,0
1523619652547,-2097152,-109,-56,-1,-1,0
1523619652547,-2162688,-109,-56,-1,-1,0
1523619652575,-2359296,-109,-56,-1,-1,0
1523619652575,-2424832,-109,-56,-1,-1,0
1523619652575,-1114112,-109,-56,-1,-1,0
1523619652575,1835008,-109,-56,-1,-1,0
1523619652575,4063232,-109,-56,-1,-1,0
1523619652615,2752512,-109,-56,-1,-1,0
1523619652615,-1835008,-109,-56,-1,-1,0
1523619652615,-5439488,-109,-56,-1,-1,0
1523619652615,-5439488,-109,-56,-1,-1,0
1523619652615,-3670016,-109,-56,-1,-1,0
1523619652655,-2490368,-109,-56,-1,-1,0
1523619652655,-2031616,-109,-56,-1,-1,0
1523619652655,-1835008,-109,-56,-1,-1,0
1523619652655,-1572864,-109,-56,-1,-1,0
1523619652655,-1245184,-109,-56,-1,-1,0
1523619652695,-917504,-109,-56,-1,-1,0
1523619652695,-589824,-109,-56,-1,-1,0
1523619652695,-262144,-109,-56,-1,-1,0
1523619652695,131072,-109,-56,-1,-1,0
1523619652695,655360,-109,-56,-1,-1,0
1523619652735,1245184,-109,-56,-1,-1,0
1523619652735,1900544,-109,-56,-1,-1,0
1523619652735,2686976,-109,-56,-1,-1,0
1523619652735,3473408,-109,-56,-1,-1,0
1523619652735,3997696,-109,-56,-1,-1,0
1523619652775,4194304,-109,-56,-1,-1,0
1523619652775,4063232,-109,-56,-1,-1,0
1523619652775,3670016,-109,-56,-1,-1,0
1523619652775,3080192,-109,-56,-1,-1,0
1523619652775,2293760,-109,-56,-1,-1,0
1523619652815,1507328,-109,-56,-1,-1,0
1523619652815,851968,-109,-56,-1,-1,0
1523619652815,458752,-109,-56,-1,-1,0
1523619652815,262144,-109,-56,-1,-1,0
1523619652815,0,-109,-56,-1,-1,0
1523619652855,-131072,-109,-56,-1,-1,0
1523619652855,-327680,-109,-56,-1,-1,0
1523619652855,-458752,-109,-56,-1,-1,0
1523619652855,-589824,-109,-56,-1,-1,0
1523619652855,-786432,-109,-56,-1,-1,0
1523619652895,-983040,-109,-56,-1,-1,0
1523619652895,-1048576,-109,-56,-1,-1,0
1523619652895,-917504,-109,-56,-1,-1,0
1523619652895,-786432,-109,-56,-1,-1,0
1523619652895,-786432,-109,-56,-1,-1,0
1523619652935,-851968,-109,-56,-1,-1,0
1523619652935,-1048576,-109,-56,-1,-1,0
1523619652935,-1310720,-109,-56,-1,-1,0
1523619652935,-1441792,-109,-56,-1,-1,0
1523619652935,-1638400,-109,-56,-1,-1,0
1523619652975,-1703936,-109,-56,-1,-1,0
1523619652975,-1835008,-109,-56,-1,-1,0
1523619652975,-1966080,-109,-56,-1,-1,0
1523619652975,-2359296,-109,-56,-1,-1,0
1523619652975,-2228224,-109,-56,-1,-1,0
1523619653015,-524288,-109,-56,-1,-1,0
1523619653015,2031616,-109,-56,-1,-1,0
1523619653015,2686976,-109,-56,-1,-1,0
1523619653015,-131072,-109,-56,-1,-1,0
1523619653015,-4194304,-109,-56,-1,-1,0
1523619653055,-5832704,-109,-56,-1,-1,0
1523619653055,-4521984,-109,-56,-1,-1,0
1523619653055,-2949120,-109,-56,-1,-1,0
1523619653055,-2162688,-109,-56,-1,-1,0
1523619653055,-1900544,-109,-56,-1,-1,0
1523619653095,-1703936,-109,-56,-1,-1,0
1523619653095,-1507328,-109,-56,-1,-1,0
1523619653095,-1179648,-109,-56,-1,-1,0
1523619653095,-917504,-109,-56,-1,-1,0
1523619653095,-589824,-109,-56,-1,-1,0
1523619653135,-262144,-109,-56,-1,-1,0
1523619653135,196608,-109,-56,-1,-1,0
1523619653135,720896,-109,-56,-1,-1,0
1523619653135,1310720,-109,-56,-1,-1,0
1523619653135,1966080,-109,-56,-1,-1,0
1523619653187,2686976,-111,-56,-1,-1,0
1523619653187,3276800,-111,-56,-1,-1,0
1523619653187,3670016,-111,-56,-1,-1,0
1523619653187,3670016,-111,-56,-1,-1,0
1523619653187,3407872,-111,-56,-1,-1,0
1523619653215,3014656,-111,-56,-1,-1,0
1523619653215,2424832,-111,-56,-1,-1,0
1523619653215,1769472,-111,-56,-1,-1,0
1523619653215,1245184,-111,-56,-1,-1,0
1523619653215,786432,-111,-56,-1,-1,0
1523619653255,458752,-111,-56,-1,-1,0
1523619653255,196608,-111,-56,-1,-1,0
1523619653255,0,-111,-56,-1,-1,0
1523619653255,-65536,-111,-56,-1,-1,0
1523619653255,-262144,-111,-56,-1,-1,0
1523619653295,-393216,-111,-56,-1,-1,0
1523619653295,-524288,-111,-56,-1,-1,0
1523619653295,-655360,-111,-56,-1,-1,0
1523619653295,-786432,-111,-56,-1,-1,0
1523619653295,-720896,-111,-56,-1,-1,0
1523619653335,-458752,-111,-56,-1,-1,0
1523619653335,-262144,-111,-56,-1,-1,0
1523619653335,-196608,-111,-56,-1,-1,0
1523619653335,-131072,-111,-56,-1,-1,0
1523619653335,-196608,-111,-56,-1,-1,0
1523619653375,-393216,-111,-56,-1,-1,0
1523619653375,-524288,-111,-56,-1,-1,0
1523619653375,-589824,-111,-56,-1,-1,0
1523619653375,-655360,-111,-56,-1,-1,0
1523619653375,-720896,-111,-56,-1,-1,0
1523619653415,-786432,-111,-56,-1,-1,0
1523619653415,-1048576,-111,-56,-1,-1,0
1523619653415,-1310720,-111,-56,-1,-1,0
1523619653415,-458752,-111,-56,-1,-1,0
1523619653415,1638400,-111,-56,-1,-1,0
1523619653456,3080192,-111,-56,-1,-1,0
1523619653456,1835008,-111,-56,-1,-1,0
1523619653456,-1572864,-111,-56,-1,-1,0
1523619653456,-3801088,-111,-56,-1,-1,0
1523619653456,-3538944,-111,-56,-1,-1,0
1523619653496,-1966080,-111,-56,-1,-1,0
1523619653496,-983040,-111,-56,-1,-1,0
1523619653496,-589824,-111,-56,-1,-1,0
1523619653496,-393216,-111,-56,-1,-1,0
1523619653496,-262144,-111,-56,-1,-1,0
1523619653535,-65536,-111,-56,-1,-1,0
1523619653535,65536,-111,-56,-1,-1,0
1523619653535,393216,-111,-56,-1,-1,0
1523619653535,720896,-111,-56,-1,-1,0
1523619653535,1114112,-111,-56,-1,-1,0
1523619653575,1572864,-111,-56,-1,-1,0
1523619653575,2097152,-111,-56,-1,-1,0
1523619653575,2752512,-111,-56,-1,-1,0
1523619653575,3407872,-111,-56,-1,-1,0
1523619653575,4063232,-111,-56,-1,-1,0
1523619653615,4456448,-111,-56,-1,-1,0
1523619653615,4587520,-111,-56,-1,-1,0
1523619653615,4456448,-111,-56,-1,-1,0
1523619653615,4194304,-111,-56,-1,-1,0
1523619653615,3604480,-111,-56,-1,-1,0
1523619653657,2949120,-111,-56,-1,-1,0
1523619653657,2293760,-111,-56,-1,-1,0
1523619653657,1769472,-111,-56,-1,-1,0
1523619653657,1310720,-111,-56,-1,-1,0
1523619653657,983040,-111,-56,-1,-1,0
1523619653695,786432,-111,-56,-1,-1,0
1523619653695,524288,-111,-56,-1,-1,0
1523619653695,393216,-111,-56,-1,-1,0
1523619653695,196608,-111,-56,-1,-1,0
1523619653695,0,-111,-56,-1,-1,0
1523619653735,-65536,-111,-56,-1,-1,0
1523619653735,-262144,-111,-56,-1,-1,0
1523619653735,-327680,-111,-56,-1,-1,0
1523619653735,-196608,-111,-56,-1,-1,0
1523619653735,0,-111,-56,-1,-1,0
1523619653775,0,-111,-56,-1,-1,0
1523619653775,0,-111,-56,-1,-1,0
1523619653775,-196608,-111,-56,-1,-1,0
1523619653775,-393216,-111,-56,-1,-1,0
1523619653775,-655360,-111,-56,-1,-1,0
1523619653827,-786432,-111,-56,-1,-1,0
1523619653827,-917504,-111,-56,-1,-1,0
1523619653827,-983040,-111,-56,-1,-1,0
1523619653827,-1048576,-111,-56,-1,-1,0
1523619653827,-1376256,-111,-56,-1,-1,0
1523619653857,-1769472,-111,-56,-1,-1,0
1523619653857,-1245184,-111,-56,-1,-1,0
1523619653857,655360,-111,-56,-1,-1,0
1523619653857,2555904,-111,-56,-1,-1,0
1523619653857,1966080,-111,-56,-1,-1,0
1523619653895,-1376256,-111,-56,-1,-1,0
1523619653895,-4390912,-111,-56,-1,-1,0
1523619653895,-4784128,-111,-56,-1,-1,0
1523619653895,-3342336,-111,-56,-1,-1,0
1523619653895,-2162688,-111,-56,-1,-1,0
1523619653935,-1703936,-111,-56,-1,-1,0
1523619653935,-1572864,-111,-56,-1,-1,0
1523619653935,-1441792,-111,-56,-1,-1,0
1523619653935,-1245184,-111,-56,-1,-1,0
1523619653935,-983040,-111,-56,-1,-1,0
1523619653976,-720896,-111,-56,-1,-1,0
1523619653976,-393216,-111,-56,-1,-1,0
1523619653976,0,-111,-56,-1,-1,0
1523619653976,327680,-111,-56,-1,-1,0
1523619653976,851968,-111,-56,-1,-1,0
1523619654015,1507328,-111,-56,-1,-1,0
1523619654015,2228224,-111,-56,-1,-1,0
1523619654015,3014656,-111,-56,-1,-1,0
1523619654015,3473408,-111,-56,-1,-1,0
1523619654015,3735552,-111,-56,-1,-1,0
1523619654055,3866624,-111,-56,-1,-1,0
1523619654055,3735552,-111,-56,-1,-1,0
1523619654055,3211264,-111,-56,-1,-1,0
1523619654055,2555904,-111,-56,-1,-1,0
1523619654055,1769472,-111,-56,-1,-1,0
1523619654095,1048576,-111,-56,-1,-1,0
1523619654095,589824,-111,-56,-1,-1,0
1523619654095,262144,-111,-56,-1,-1,0
1523619654095,0,-111,-56,-1,-1,0
1523619654095,-196608,-111,-56,-1,-1,0
1523619654136,-393216,-111,-56,-1,-1,0
1523619654136,-589824,-111,-56,-1,-1,0
1523619654136,-720896,-111,-56,-1,-1,0
1523619654136,-851968,-111,-56,-1,-1,0
1523619654136,-1114112,-111,-56,-1,-1,0
1523619654175,-1179648,-111,-56,-1,-1,0
1523619654175,-983040,-111,-56,-1,-1,0
1523619654175,-786432,-111,-56,-1,-1,0
1523619654175,-720896,-111,-56,-1,-1,0
1523619654175,-786432,-111,-56,-1,-1,0
1523619654215,-983040,-111,-56,-1,-1,0
1523619654215,-1114112,-111,-56,-1,-1,0
1523619654215,-1245184,-111,-56,-1,-1,0
1523619654215,-1376256,-111,-56,-1,-1,0
1523619654215,-1441792,-111,-56,-1,-1,0
1523619654255,-1507328,-111,-56,-1,-1,0
1523619654255,-1572864,-111,-56,-1,-1,0
1523619654255,-1835008,-111,-56,-1,-1,0
1523619654255,-1769472,-111,-56,-1,-1,0
1523619654255,-65536,-111,-56,-1,-1,0
1523619654295,2883584,-111,-56,-1,-1,0
1523619654295,4587520,-111,-56,-1,-1,0
1523619654295,2555904,-111,-56,-1,-1,0
1523619654295,-2097152,-111,-56,-1,-1,0
1523619654295,-4980736,-111,-56,-1,-1,0
1523619654335,-4456448,-111,-56,-1,-1,0
1523619654335,-2752512,-111,-56,-1,-1,0
1523619654335,-1835008,-111,-56,-1,-1,0
1523619654335,-1572864,-111,-56,-1,-1,0
1523619654335,-1376256,-111,-56,-1,-1,0
1523619654375,-1245184,-111,-56,-1,-1,0
1523619654375,-1048576,-111,-56,-1,-1,0
1523619654375,-786432,-111,-56,-1,-1,0
1523619654375,-458752,-111,-56,-1,-1,0
1523619654375,-65536,-111,-56,-1,-1,0
1523619654415,327680,-111,-56,-1,-1,0
1523619654415,720896,-111,-56,-1,-1,0
1523619654415,1245184,-111,-56,-1,-1,0
1523619654415,1966080,-111,-56,-1,-1,0
1523619654415,2686976,-111,-56,-1,-1,0
1523619654467,3407872,-111,-56,-1,-1,0
1523619654467,3735552,-111,-56,-1,-1,0
1523619654467,3866624,-111,-56,-1,-1,0
1523619654467,3801088,-111,-56,-1,-1,0
1523619654467,3473408,-111,-56,-1,-1,0
1523619654495,2752512,-111,-56,-1,-1,0
1523619654495,1835008,-111,-56,-1,-1,0
1523619654495,1114112,-111,-56,-1,-1,0
1523619654495,458752,-111,-56,-1,-1,0
1523619654495,0,-111,-56,-1,-1,0
1523619654535,-327680,-111,-56,-1,-1,0
1523619654535,-524288,-111,-56,-1,-1,0
1523619654535,-720896,-111,-56,-1,-1,0
1523619654535,-917504,-111,-56,-1,-1,0
1523619654535,-1179648,-111,-56,-1,-1,0
1523619654575,-1310720,-111,-56,-1,-1,0
1523619654575,-1441792,-111,-56,-1,-1,0
1523619654575,-1441792,-111,-56,-1,-1,0
1523619654575,-1376256,-111,-56,-1,-1,0
1523619654575,-1376256,-111,-56,-1,-1,0
1523619654615,-1376256,-111,-56,-1,-1,0
1523619654615,-1376256,-111,-56,-1,-1,0
1523619654615,-1376256,-111,-56,-1,-1,0
1523619654615,-1638400,-111,-56,-1,-1,0
1523619654615,-1900544,-111,-56,-1,-1,0
1523619654656,-2097152,-111,-56,-1,-1,0
1523619654656,-2162688,-111,-56,-1,-1,0
1523619654656,-2228224,-111,-56,-1,-1,0
1523619654656,-2293760,-111,-56,-1,-1,0
1523619654656,-2359296,-111,-56,-1,-1,0
1523619654695,-2621440,-111,-56,-1,-1,0
1523619654695,-1900544,-111,-56,-1,-1,0
1523619654695,589824,-111,-56,-1,-1,0
1523619654695,3604480,-111,-56,-1,-1,0
1523619654695,3670016,-111,-56,-1,-1,0
1523619654735,-327680,-111,-56,-1,-1,0
1523619654735,-4915200,-111,-56,-1,-1,0
1523619654735,-6225920,-111,-56,-1,-1,0
1523619654735,-4653056,-111,-56,-1,-1,0
1523619654735,-3211264,-111,-56,-1,-1,0
1523619654775,-2490368,-111,-56,-1,-1,0
1523619654775,-2162688,-111,-56,-1,-1,0
1523619654775,-2031616,-111,-56,-1,-1,0
1523619654775,-1835008,-111,-56,-1,-1,0
1523619654775,-1572864,-111,-56,-1,-1,0
1523619654815,-1245184,-111,-56,-1,-1,0
1523619654815,-917504,-111,-56,-1,-1,0
1523619654815,-524288,-111,-56,-1,-1,0
1523619654815,-65536,-111,-56,-1,-1,0
1523619654815,458752,-111,-56,-1,-1,0
1523619654855,1114112,-111,-56,-1,-1,0
1523619654855,1900544,-111,-56,-1,-1,0
1523619654855,2752512,-111,-56,-1,-1,0
1523619654855,3407872,-111,-56,-1,-1,0
1523619654855,3801088,-111,-56,-1,-1,0
1523619654895,3866624,-111,-56,-1,-1,0
1523619654895,3670016,-111,-56,-1,-1,0
1523619654895,3145728,-111,-56,-1,-1,0
1523619654895,2359296,-111,-56,-1,-1,0
1523619654895,1507328,-111,-56,-1,-1,0
1523619654935,720896,-111,-56,-1,-1,0
1523619654935,196608,-111,-56,-1,-1,0
1523619654935,-65536,-111,-56,-1,-1,0
1523619654935,-327680,-111,-56,-1,-1,0
1523619654935,-524288,-111,-56,-1,-1,0
1523619654975,-655360,-111,-56,-1,-1,0
1523619654975,-720896,-111,-56,-1,-1,0
1523619654975,-851968,-111,-56,-1,-1,0
1523619654975,-983040,-111,-56,-1,-1,0
1523619654975,-1114112,-111,-56,-1,-1,0
1523619655015,-1245184,-111,-56,-1,-1,0
1523619655015,-1179648,-111,-56,-1,-1,0
1523619655015,-1048576,-111,-56,-1,-1,0
1523619655015,-1048576,-111,-56,-1,-1,0
1523619655015,-1114112,-111,-56,-1,-1,0
1523619655055,-1310720,-111,-56,-1,-1,0
1523619655055,-1572864,-111,-56,-1,-1,0
1523619655055,-1769472,-111,-56,-1,-1,0
1523619655055,-1966080,-111,-56,-1,-1,0
1523619655055,-2097152,-111,-56,-1,-1,0
1523619655107,-2228224,-111,-56,-1,-1,0
1523619655107,-2293760,-111,-56,-1,-1,0
1523619655107,-2490368,-111,-56,-1,-1,0
1523619655107,-2818048,-111,-56,-1,-1,0
1523619655107,-2293760,-111,-56,-1,-1,0
1523619655135,0,-111,-56,-1,-1,0
1523619655135,2490368,-111,-56,-1,-1,0
1523619655135,2162688,-111,-56,-1,-1,0
1523619655135,-1835008,-111,-56,-1,-1,0
1523619655135,-5832704,-111,-56,-1,-1,0
1523619655175,-6750208,-111,-56,-1,-1,0
1523619655175,-4980736,-111,-56,-1,-1,0
1523619655175,-3342336,-111,-56,-1,-1,0
1523619655175,-2490368,-111,-56,-1,-1,0
1523619655175,-2162688,-111,-56,-1,-1,0
1523619655215,-1966080,-111,-56,-1,-1,0
1523619655215,-1769472,-111,-56,-1,-1,0
1523619655215,-1507328,-111,-56,-1,-1,0
1523619655215,-1179648,-111,-56,-1,-1,0
1523619655215,-786432,-111,-56,-1,-1,0
1523619655255,-327680,-111,-56,-1,-1,0
1523619655255,65536,-111,-56,-1,-1,0
1523619655255,655360,-111,-56,-1,-1,0
1523619655255,1376256,-111,-56,-1,-1,0
1523619655255,2162688,-111,-56,-1,-1,0
1523619655295,3080192,-112,-56,-1,-1,0
1523619655295,3801088,-112,-56,-1,-1,0
1523619655295,4259840,-112,-56,-1,-1,0
1523619655295,4325376,-112,-56,-1,-1,0
1523619655295,4128768,-112,-56,-1,-1,0
1523619655334,3670016,-112,-56,-1,-1,0
1523619655334,2949120,-112,-56,-1,-1,0
1523619655334,2228224,-112,-56,-1,-1,0
1523619655334,1572864,-112,-56,-1,-1,0
1523619655334,1114112,-112,-56,-1,-1,0
1523619655374,720896,-112,-56,-1,-1,0
1523619655374,458752,-112,-56,-1,-1,0
1523619655374,262144,-112,-56,-1,-1,0
1523619655374,131072,-112,-56,-1,-1,0
1523619655374,0,-112,-56,-1,-1,0
1523619655414,-65536,-112,-56,-1,-1,0
1523619655414,-131072,-112,-56,-1,-1,0
1523619655414,-262144,-112,-56,-1,-1,0
1523619655414,-458752,-112,-56,-1,-1,0
1523619655414,-458752,-112,-56,-1,-1,0
1523619655454,-327680,-112,-56,-1,-1,0
1523619655454,-65536,-112,-56,-1,-1,0
1523619655454,0,-112,-56,-1,-1,0
1523619655454,0,-112,-56,-1,-1,0
1523619655454,-65536,-112,-56,-1,-1,0
1523619655494,-262144,-112,-56,-1,-1,0
1523619655494,-458752,-112,-56,-1,-1,0
1523619655494,-655360,-112,-56,-1,-1,0
1523619655494,-720896,-112,-56,-1,-1,0
1523619655494,-786432,-112,-56,-1,-1,0
1523619655534,-786432,-112,-56,-1,-1,0
1523619655534,-1048576,-112,-56,-1,-1,0
1523619655534,-1441792,-112,-56,-1,-1,0
1523619655534,-983040,-112,-56,-1,-1,0
1523619655534,983040,-112,-56,-1,-1,0
1523619655574,3014656,-112,-56,-1,-1,0
1523619655574,2424832,-112,-56,-1,-1,0
1523619655574,-1048576,-112,-56,-1,-1,0
1523619655574,-4259840,-112,-56,-1,-1,0
1523619655574,-4718592,-112,-56,-1,-1,0
1523619655614,-3145728,-112,-56,-1,-1,0
1523619655614,-1769472,-112,-56,-1,-1,0
1523619655614,-1114112,-112,-56,-1,-1,0
1523619655614,-917504,-112,-56,-1,-1,0
1523619655614,-786432,-112,-56,-1,-1,0
1523619655654,-589824,-112,-56,-1,-1,0
1523619655654,-327680,-112,-56,-1,-1,0
1523619655654,0,-112,-56,-1,-1,0
1523619655654,262144,-112,-56,-1,-1,0
1523619655654,655360,-112,-56,-1,-1,0
1523619655694,1114112,-112,-56,-1,-1,0
1523619655694,1703936,-112,-56,-1,-1,0
1523619655694,2359296,-112,-56,-1,-1,0
1523619655694,3014656,-112,-56,-1,-1,0
1523619655694,3670016,-112,-56,-1,-1,0
1523619655747,4194304,-112,-56,-1,-1,0
1523619655747,4456448,-112,-56,-1,-1,0
1523619655747,4390912,-112,-56,-1,-1,0
1523619655747,4128768,-112,-56,-1,-1,0
1523619655747,3735552,-112,-56,-1,-1,0
1523619655774,3145728,-112,-56,-1,-1,0
1523619655774,2359296,-112,-56,-1,-1,0
1523619655774,1703936,-112,-56,-1,-1,0
1523619655774,1179648,-112,-56,-1,-1,0
1523619655774,851968,-112,-56,-1,-1,0
1523619655814,524288,-112,-56,-1,-1,0
1523619655814,327680,-112,-56,-1,-1,0
1523619655814,131072,-112,-56,-1,-1,0
1523619655814,0,-112,-56,-1,-1,0
1523619655814,-196608,-112,-56,-1,-1,0
1523619655854,-327680,-112,-56,-1,-1,0
1523619655854,-524288,-112,-56,-1,-1,0
1523619655854,-655360,-112,-56,-1,-1,0
1523619655854,-589824,-112,-56,-1,-1,0
1523619655854,-458752,-112,-56,-1,-1,0
1523619655894,-327680,-112,-56,-1,-1,0
1523619655894,-327680,-112,-56,-1,-1,0
1523619655894,-393216,-112,-56,-1,-1,0
1523619655894,-458752,-112,-56,-1,-1,0
1523619655894,-589824,-112,-56,-1,-1,0
1523619655934,-720896,-112,-56,-1,-1,0
1523619655934,-851968,-112,-56,-1,-1,0
1523619655934,-851968,-112,-56,-1,-1,0
1523619655934,-917504,-112,-56,-1,-1,0
1523619655934,-917504,-112,-56,-1,-1,0
1523619655974,-1245184,-112,-56,-1,-1,0
1523619655974,-1507328,-112,-56,-1,-1,0
1523619655974,-589824,-112,-56,-1,-1,0
1523619655974,1572864,-112,-56,-1,-1,0
1523619655974,3145728,-112,-56,-1,-1,0
1523619656014,2031616,-112,-56,-1,-1,0
1523619656014,-1245184,-112,-56,-1,-1,0
1523619656014,-3735552,-112,-56,-1,-1,0
1523619656014,-3866624,-112,-56,-1,-1,0
1523619656014,-2490368,-112,-56,-1,-1,0
1523619656054,-1441792,-112,-56,-1,-1,0
1523619656054,-1114112,-112,-56,-1,-1,0
1523619656054,-1048576,-112,-56,-1,-1,0
1523619656054,-983040,-112,-56,-1,-1,0
1523619656054,-720896,-112,-56,-1,-1,0
1523619656094,-458752,-112,-56,-1,-1,0
1523619656094,-131072,-112,-56,-1,-1,0
1523619656094,196608,-112,-56,-1,-1,0
1523619656094,655360,-112,-56,-1,-1,0
1523619656094,1179648,-112,-56,-1,-1,0
1523619656134,1769472,-112,-56,-1,-1,0
1523619656134,2490368,-112,-56,-1,-1,0
1523619656134,3276800,-112,-56,-1,-1,0
1523619656134,4063232,-112,-56,-1,-1,0
1523619656134,4653056,-112,-56,-1,-1,0
1523619656174,4849664,-112,-56,-1,-1,0
1523619656174,4849664,-112,-56,-1,-1,0
1523619656174,4521984,-112,-56,-1,-1,0
1523619656174,3997696,-112,-56,-1,-1,0
1523619656174,3211264,-112,-56,-1,-1,0
1523619656216,2359296,-112,-56,-1,-1,0
1523619656216,1703936,-112,-56,-1,-1,0
1523619656216,1114112,-112,-56,-1,-1,0
1523619656216,720896,-112,-56,-1,-1,0
1523619656216,524288,-112,-56,-1,-1,0
1523619656254,327680,-112,-56,-1,-1,0
1523619656254,196608,-112,-56,-1,-1,0
1523619656254,65536,-112,-56,-1,-1,0
1523619656254,0,-112,-56,-1,-1,0
1523619656254,-262144,-112,-56,-1,-1,0
1523619656294,-458752,-112,-56,-1,-1,0
1523619656294,-458752,-112,-56,-1,-1,0
1523619656294,-196608,-112,-56,-1,-1,0
1523619656294,0,-112,-56,-1,-1,0
1523619656294,0,-112,-56,-1,-1,0
1523619656334,-65536,-112,-56,-1,-1,0
1523619656334,-262144,-112,-56,-1,-1,0
1523619656334,-589824,-112,-56,-1,-1,0
1523619656334,-786432,-112,-56,-1,-1,0
1523619656334,-786432,-112,-56,-1,-1,0
1523619656387,-851968,-112,-56,-1,-1,0
1523619656387,-917504,-112,-56,-1,-1,0
1523619656387,-1114112,-112,-56,-1,-1,0
1523619656387,-1441792,-112,-56,-1,-1,0
1523619656387,-1114112,-112,-56,-1,-1,0
1523619656414,983040,-112,-56,-1,-1,0
1523619656414,4194304,-112,-56,-1,-1,0
1523619656414,5242880,-112,-56,-1,-1,0
1523619656414,2097152,-112,-56,-1,-1,0
1523619656414,-2752512,-112,-56,-1,-1,0
1523619656454,-5046272,-112,-56,-1,-1,0
1523619656454,-4063232,-112,-56,-1,-1,0
1523619656454,-2490368,-112,-56,-1,-1,0
1523619656454,-1572864,-112,-56,-1,-1,0
1523619656454,-1179648,-112,-56,-1,-1,0
1523619656496,-917504,-112,-56,-1,-1,0
1523619656496,-851968,-112,-56,-1,-1,0
1523619656496,-720896,-112,-56,-1,-1,0
1523619656496,-524288,-112,-56,-1,-1,0
1523619656496,-131072,-112,-56,-1,-1,0
1523619656534,65536,-112,-56,-1,-1,0
1523619656534,458752,-112,-56,-1,-1,0
1523619656534,720896,-112,-56,-1,-1,0
1523619656534,1245184,-112,-56,-1,-1,0
1523619656534,1900544,-112,-56,-1,-1,0
1523619656576,2883584,-112,-56,-1,-1,0
1523619656576,3538944,-112,-56,-1,-1,0
1523619656576,3997696,-112,-56,-1,-1,0
1523619656576,4128768,-112,-56,-1,-1,0
1523619656576,3932160,-112,-56,-1,-1,0
1523619656614,3407872,-112,-56,-1,-1,0
1523619656614,2686976,-112,-56,-1,-1,0
1523619656614,1900544,-112,-56,-1,-1,0
1523619656614,1048576,-112,-56,-1,-1,0
1523619656614,262144,-112,-56,-1,-1,0
1523619656654,-131072,-112,-56,-1,-1,0
1523619656654,-327680,-112,-56,-1,-1,0
1523619656654,-393216,-112,-56,-1,-1,0
1523619656654,-524288,-112,-56,-1,-1,0
1523619656654,-720896,-112,-56,-1,-1,0
1523619656694,-917504,-112,-56,-1,-1,0
1523619656694,-983040,-112,-56,-1,-1,0
1523619656694,-1179648,-112,-56,-1,-1,0
1523619656694,-1245184,-112,-56,-1,-1,0
1523619656694,-1310720,-112,-56,-1,-1,0
1523619656734,-1179648,-112,-56,-1,-1,0
1523619656734,-1179648,-112,-56,-1,-1,0
1523619656734,-1310720,-112,-56,-1,-1,0
1523619656734,-1507328,-112,-56,-1,-1,0
1523619656734,-1638400,-112,-56,-1,-1,0
1523619656774,-1835008,-112,-56,-1,-1,0
1523619656774,-2097152,-112,-56,-1,-1,0
1523619656774,-2228224,-112,-56,-1,-1,0
1523619656774,-2228224,-112,-56,-1,-1,0
1523619656774,-2293760,-112,-56,-1,-1,0
1523619656814,-2490368,-112,-56,-1,-1,0
1523619656814,-2228224,-112,-56,-1,-1,0
1523619656814,-262144,-112,-56,-1,-1,0
1523619656814,2949120,-112,-56,-1,-1,0
1523619656814,4784128,-112,-56,-1,-1,0
1523619656856,2293760,-112,-56,-1,-1,0
1523619656856,-2818048,-112,-56,-1,-1,0
1523619656856,-5832704,-112,-56,-1,-1,0
1523619656856,-5046272,-112,-56,-1,-1,0
1523619656856,-3276800,-112,-56,-1,-1,0
1523619656894,-2097152,-112,-56,-1,-1,0
1523619656894,-1638400,-112,-56,-1,-1,0
1523619656894,-1310720,-112,-56,-1,-1,0
1523619656894,-1114112,-112,-56,-1,-1,0
1523619656894,-851968,-112,-56,-1,-1,0
1523619656934,-589824,-112,-56,-1,-1,0
1523619656934,-196608,-112,-56,-1,-1,0
1523619656934,131072,-112,-56,-1,-1,0
1523619656934,589824,-112,-56,-1,-1,0
1523619656934,1114112,-112,-56,-1,-1,0
1523619656974,1769472,-112,-56,-1,-1,0
1523619656974,2490368,-112,-56,-1,-1,0
1523619656974,3276800,-112,-56,-1,-1,0
1523619656974,3997696,-112,-56,-1,-1,0
1523619656974,4521984,-112,-56,-1,-1,0
1523619657027,4653056,-112,-56,-1,-1,0
1523619657027,4456448,-112,-56,-1,-1,0
1523619657027,3997696,-112,-56,-1,-1,0
1523619657027,3276800,-112,-56,-1,-1,0
1523619657027,2293760,-112,-56,-1,-1,0
1523619657054,1441792,-112,-56,-1,-1,0
1523619657054,786432,-112,-56,-1,-1,0
1523619657054,327680,-112,-56,-1,-1,0
1523619657054,65536,-112,-56,-1,-1,0
1523619657054,0,-112,-56,-1,-1,0
1523619657094,-65536,-112,-56,-1,-1,0
1523619657094,-196608,-112,-56,-1,-1,0
1523619657094,-327680,-112,-56,-1,-1,0
1523619657094,-393216,-112,-56,-1,-1,0
1523619657094,-458752,-112,-56,-1,-1,0
1523619657134,-655360,-112,-56,-1,-1,0
1523619657134,-655360,-112,-56,-1,-1,0
1523619657134,-589824,-112,-56,-1,-1,0
1523619657134,-524288,-112,-56,-1,-1,0
1523619657134,-458752,-112,-56,-1,-1,0
1523619657174,-589824,-112,-56,-1,-1,0
1523619657174,-786432,-112,-56,-1,-1,0
1523619657174,-983040,-112,-56,-1,-1,0
1523619657174,-1114112,-112,-56,-1,-1,0
1523619657174,-1245184,-112,-56,-1,-1,0
1523619657214,-1310720,-112,-56,-1,-1,0
1523619657214,-1376256,-112,-56,-1,-1,0
1523619657214,-1441792,-112,-56,-1,-1,0
1523619657214,-1703936,-112,-56,-1,-1,0
1523619657214,-1441792,-112,-56,-1,-1,0
1523619657254,458752,-112,-56,-1,-1,0
1523619657254,3473408,-112,-56,-1,-1,0
1523619657254,4915200,-112,-56,-1,-1,0
1523619657254,2293760,-112,-56,-1,-1,0
1523619657254,-2621440,-112,-56,-1,-1,0
1523619657294,-5373952,-112,-56,-1,-1,0
1523619657294,-4587520,-112,-56,-1,-1,0
1523619657294,-2949120,-112,-56,-1,-1,0
1523619657294,-2031616,-112,-56,-1,-1,0
1523619657294,-1769472,-112,-56,-1,-1,0
1523619657334,-1572864,-112,-56,-1,-1,0
1523619657334,-1376256,-112,-56,-1,-1,0
1523619657334,-1179648,-112,-56,-1,-1,0
1523619657334,-851968,-112,-56,-1,-1,0
1523619657334,-589824,-112,-56,-1,-1,0
1523619657374,-262144,-112,-56,-1,-1,0
1523619657374,65536,-112,-56,-1,-1,0
1523619657374,589824,-112,-56,-1,-1,0
1523619657374,1179648,-112,-56,-1,-1,0
1523619657374,1900544,-112,-56,-1,-1,0
1523619657414,2752512,-114,-56,-1,-1,0
1523619657414,3473408,-114,-56,-1,-1,0
1523619657414,3866624,-114,-56,-1,-1,0
1523619657414,4063232,-114,-56,-1,-1,0
1523619657414,3932160,-114,-56,-1,-1,0
1523619657454,3538944,-114,-56,-1,-1,0
1523619657454,2883584,-114,-56,-1,-1,0
1523619657454,2097152,-114,-56,-1,-1,0
1523619657454,1376256,-114,-56,-1,-1,0
1523619657454,786432,-114,-56,-1,-1,0
1523619657494,458752,-114,-56,-1,-1,0
1523619657494,196608,-114,-56,-1,-1,0
1523619657494,65536,-114,-56,-1,-1,0
1523619657494,0,-114,-56,-1,-1,0
1523619657494,-131072,-114,-56,-1,-1,0
1523619657534,-262144,-114,-56,-1,-1,0
1523619657534,-393216,-114,-56,-1,-1,0
1523619657534,-458752,-114,-56,-1,-1,0
1523619657534,-589824,-114,-56,-1,-1,0
1523619657534,-786432,-114,-56,-1,-1,0
1523619657574,-851968,-114,-56,-1,-1,0
1523619657574,-720896,-114,-56,-1,-1,0
1523619657574,-524288,-114,-56,-1,-1,0
1523619657574,-458752,-114,-56,-1,-1,0
1523619657574,-524288,-114,-56,-1,-1,0
1523619657614,-589824,-114,-56,-1,-1,0
1523619657614,-786432,-114,-56,-1,-1,0
1523619657614,-983040,-114,-56,-1,-1,0
1523619657614,-1114112,-114,-56,-1,-1,0
1523619657614,-1179648,-114,-56,-1,-1,0
1523619657667,-1245184,-114,-56,-1,-1,0
1523619657667,-1310720,-114,-56,-1,-1,0
1523619657667,-1572864,-114,-56,-1,-1,0
1523619657667,-1572864,-114,-56,-1,-1,0
1523619657667,-131072,-114,-56,-1,-1,0
1523619657694,2555904,-114,-56,-1,-1,0
1523619657694,4259840,-114,-56,-1,-1,0
1523619657694,2490368,-114,-56,-1,-1,0
1523619657694,-1966080,-114,-56,-1,-1,0
1523619657694,-4980736,-114,-56,-1,-1,0
1523619657734,-4587520,-114,-56,-1,-1,0
1523619657734,-2818048,-114,-56,-1,-1,0
1523619657734,-1769472,-114,-56,-1,-1,0
1523619657734,-1441792,-114,-56,-1,-1,0
1523619657734,-1245184,-114,-56,-1,-1,0
1523619657774,-1114112,-114,-56,-1,-1,0
1523619657774,-917504,-114,-56,-1,-1,0
1523619657774,-655360,-114,-56,-1,-1,0
1523619657774,-327680,-114,-56,-1,-1,0
1523619657774,0,-114,-56,-1,-1,0
1523619657816,327680,-114,-56,-1,-1,0
1523619657816,786432,-114,-56,-1,-1,0
1523619657816,1310720,-114,-56,-1,-1,0
1523619657816,1966080,-114,-56,-1,-1,0
1523619657816,2686976,-114,-56,-1,-1,0
1523619657856,3342336,-114,-56,-1,-1,0
1523619657856,3801088,-114,-56,-1,-1,0
1523619657856,3932160,-114,-56,-1,-1,0
1523619657856,3801088,-114,-56,-1,-1,0
1523619657856,3473408,-114,-56,-1,-1,0
1523619657897,2949120,-114,-56,-1,-1,0
1523619657897,2228224,-114,-56,-1,-1,0
1523619657897,1507328,-114,-56,-1,-1,0
1523619657897,983040,-114,-56,-1,-1,0
