milliseconds, ECG, ECG HR, PPG, PPG HR, SpO2, PI
1523612826246,720896,109,-56,-1,-1,0
1523612826246,589824,109,-56,-1,-1,0
1523612826246,458752,109,-56,-1,-1,0
1523612826246,524288,109,-56,-1,-1,0
1523612826246,589824,109,-56,-1,-1,0
1523612826286,458752,109,-56,-1,-1,0
1523612826286,327680,109,-56,-1,-1,0
1523612826286,393216,109,-56,-1,-1,0
1523612826286,262144,109,-56,-1,-1,0
1523612826286,0,109,-56,-1,-1,0
1523612826326,-131072,109,-56,-1,-1,0
1523612826326,0,109,-56,-1,-1,0
1523612826326,262144,109,-56,-1,-1,0
1523612826326,327680,109,-56,-1,-1,0
1523612826326,393216,109,-56,-1,-1,0
1523612826366,262144,110,-56,-1,-1,0
1523612826366,262144,110,-56,-1,-1,0
1523612826366,524288,110,-56,-1,-1,0
1523612826366,655360,110,-56,-1,-1,0
1523612826366,393216,110,-56,-1,-1,0
1523612826406,262144,110,-56,-1,-1,0
1523612826406,262144,110,-56,-1,-1,0
1523612826406,196608,110,-56,-1,-1,0
1523612826406,196608,110,-56,-1,-1,0
1523612826406,458752,110,-56,-1,-1,0
1523612826446,458752,110,-56,-1,-1,0
1523612826446,196608,110,-56,-1,-1,0
1523612826446,262144,110,-56,-1,-1,0
1523612826446,327680,110,-56,-1,-1,0
1523612826446,196608,110,-56,-1,-1,0
1523612826486,0,110,-56,-1,-1,0
1523612826486,262144,110,-56,-1,-1,0
1523612826486,65536,110,-56,-1,-1,0
1523612826486,0,110,-56,-1,-1,0
1523612826486,-65536,110,-56,-1,-1,0
1523612826526,-131072,110,-56,-1,-1,0
1523612826526,-983040,110,-56,-1,-1,0
1523612826526,-1114112,110,-56,-1,-1,0
1523612826526,589824,110,-56,-1,-1,0
1523612826526,4128768,110,-56,-1,-1,0
1523612826567,7012352,110,-56,-1,-1,0
1523612826567,6225920,110,-56,-1,-1,0
1523612826567,2424832,110,-56,-1,-1,0
1523612826567,-655360,110,-56,-1,-1,0
1523612826567,-1703936,110,-56,-1,-1,0
1523612826606,-1441792,110,-56,-1,-1,0
1523612826606,-655360,110,-56,-1,-1,0
1523612826606,-458752,110,-56,-1,-1,0
1523612826606,-851968,110,-56,-1,-1,0
1523612826606,-655360,110,-56,-1,-1,0
1523612826646,-196608,110,-56,-1,-1,0
1523612826646,65536,110,-56,-1,-1,0
1523612826646,-65536,110,-56,-1,-1,0
1523612826646,-196608,110,-56,-1,-1,0
1523612826646,-196608,110,-56,-1,-1,0
1523612826686,65536,110,-56,-1,-1,0
1523612826686,65536,110,-56,-1,-1,0
1523612826686,196608,110,-56,-1,-1,0
1523612826686,458752,110,-56,-1,-1,0
1523612826686,983040,110,-56,-1,-1,0
1523612826726,1114112,110,-56,-1,-1,0
1523612826726,1114112,110,-56,-1,-1,0
1523612826726,1310720,110,-56,-1,-1,0
1523612826726,1376256,110,-56,-1,-1,0
1523612826726,1441792,110,-56,-1,-1,0
1523612826766,1310720,110,-56,-1,-1,0
1523612826766,1179648,110,-56,-1,-1,0
1523612826766,983040,110,-56,-1,-1,0
1523612826766,655360,110,-56,-1,-1,0
1523612826766,393216,110,-56,-1,-1,0
1523612826806,65536,110,-56,-1,-1,0
1523612826806,65536,110,-56,-1,-1,0
1523612826806,262144,110,-56,-1,-1,0
1523612826806,196608,110,-56,-1,-1,0
1523612826806,-65536,110,-56,-1,-1,0
1523612826846,-65536,110,-56,-1,-1,0
1523612826846,196608,110,-56,-1,-1,0
1523612826846,131072,110,-56,-1,-1,0
1523612826846,0,110,-56,-1,-1,0
1523612826846,-131072,110,-56,-1,-1,0
1523612826886,-131072,110,-56,-1,-1,0
1523612826886,-65536,110,-56,-1,-1,0
1523612826886,65536,110,-56,-1,-1,0
1523612826886,262144,110,-56,-1,-1,0
1523612826886,327680,110,-56,-1,-1,0
1523612826926,262144,110,-56,-1,-1,0
1523612826926,131072,110,-56,-1,-1,0
1523612826926,196608,110,-56,-1,-1,0
1523612826926,196608,110,-56,-1,-1,0
1523612826926,-65536,110,-56,-1,-1,0
1523612826966,-65536,110,-56,-1,-1,0
1523612826966,327680,110,-56,-1,-1,0
1523612826966,131072,110,-56,-1,-1,0
1523612826966,-327680,110,-56,-1,-1,0
1523612826966,-393216,110,-56,-1,-1,0
1523612827006,-327680,110,-56,-1,-1,0
1523612827006,-327680,110,-56,-1,-1,0
1523612827006,-524288,110,-56,-1,-1,0
1523612827006,-524288,110,-56,-1,-1,0
1523612827006,-655360,110,-56,-1,-1,0
1523612827046,-655360,110,-56,-1,-1,0
1523612827046,-1048576,110,-56,-1,-1,0
1523612827046,-1376256,110,-56,-1,-1,0
1523612827046,-655360,110,-56,-1,-1,0
1523612827046,2228224,110,-56,-1,-1,0
1523612827086,5701632,110,-56,-1,-1,0
1523612827086,6094848,110,-56,-1,-1,0
1523612827086,2883584,110,-56,-1,-1,0
1523612827086,-327680,110,-56,-1,-1,0
1523612827086,-1507328,110,-56,-1,-1,0
1523612827126,-1638400,110,-56,-1,-1,0
1523612827126,-1572864,110,-56,-1,-1,0
1523612827126,-1114112,110,-56,-1,-1,0
1523612827126,-786432,110,-56,-1,-1,0
1523612827126,-720896,110,-56,-1,-1,0
1523612827166,-393216,110,-56,-1,-1,0
1523612827166,-262144,110,-56,-1,-1,0
1523612827166,-393216,110,-56,-1,-1,0
1523612827166,-524288,110,-56,-1,-1,0
1523612827166,-393216,110,-56,-1,-1,0
1523612827207,-262144,110,-56,-1,-1,0
1523612827207,-196608,110,-56,-1,-1,0
1523612827207,-196608,110,-56,-1,-1,0
1523612827207,131072,110,-56,-1,-1,0
1523612827207,524288,110,-56,-1,-1,0
1523612827246,655360,110,-56,-1,-1,0
1523612827246,720896,110,-56,-1,-1,0
1523612827246,786432,110,-56,-1,-1,0
1523612827246,589824,110,-56,-1,-1,0
1523612827246,393216,110,-56,-1,-1,0
1523612827286,262144,110,-56,-1,-1,0
1523612827286,327680,110,-56,-1,-1,0
1523612827286,262144,110,-56,-1,-1,0
1523612827286,0,110,-56,-1,-1,0
1523612827286,-524288,110,-56,-1,-1,0
1523612827326,-983040,110,-56,-1,-1,0
1523612827326,-1048576,110,-56,-1,-1,0
1523612827326,-917504,110,-56,-1,-1,0
1523612827326,-655360,110,-56,-1,-1,0
1523612827326,-720896,110,-56,-1,-1,0
1523612827366,-1114112,110,-56,-1,-1,0
1523612827366,-1441792,110,-56,-1,-1,0
1523612827366,-1179648,110,-56,-1,-1,0
1523612827366,-720896,110,-56,-1,-1,0
1523612827366,-786432,110,-56,-1,-1,0
1523612827406,-917504,111,-56,-1,-1,0
1523612827406,-655360,111,-56,-1,-1,0
1523612827406,-458752,111,-56,-1,-1,0
1523612827406,-589824,111,-56,-1,-1,0
1523612827406,-720896,111,-56,-1,-1,0
1523612827446,-655360,111,-56,-1,-1,0
1523612827446,-327680,111,-56,-1,-1,0
1523612827446,-131072,111,-56,-1,-1,0
1523612827446,-131072,111,-56,-1,-1,0
1523612827446,-196608,111,-56,-1,-1,0
1523612827486,-327680,111,-56,-1,-1,0
1523612827486,-393216,111,-56,-1,-1,0
1523612827486,-131072,111,-56,-1,-1,0
1523612827486,0,111,-56,-1,-1,0
1523612827486,-131072,111,-56,-1,-1,0
1523612827526,-458752,111,-56,-1,-1,0
1523612827526,-524288,111,-56,-1,-1,0
1523612827526,-393216,111,-56,-1,-1,0
1523612827526,-327680,111,-56,-1,-1,0
1523612827526,-327680,111,-56,-1,-1,0
1523612827566,-786432,111,-56,-1,-1,0
1523612827566,-1441792,111,-56,-1,-1,0
1523612827566,-1179648,111,-56,-1,-1,0
1523612827566,1245184,111,-56,-1,-1,0
1523612827566,5046272,111,-56,-1,-1,0
1523612827606,6356992,111,-56,-1,-1,0
1523612827606,3735552,111,-56,-1,-1,0
1523612827606,0,111,-56,-1,-1,0
1523612827606,-1703936,111,-56,-1,-1,0
1523612827606,-2097152,111,-56,-1,-1,0
1523612827646,-2162688,111,-56,-1,-1,0
1523612827646,-1900544,111,-56,-1,-1,0
1523612827646,-1376256,111,-56,-1,-1,0
1523612827646,-1376256,111,-56,-1,-1,0
1523612827646,-1572864,111,-56,-1,-1,0
1523612827686,-1310720,111,-56,-1,-1,0
1523612827686,-983040,111,-56,-1,-1,0
1523612827686,-983040,111,-56,-1,-1,0
1523612827686,-1179648,111,-56,-1,-1,0
1523612827686,-1310720,111,-56,-1,-1,0
1523612827726,-1114112,111,-56,-1,-1,0
1523612827726,-786432,111,-56,-1,-1,0
1523612827726,-655360,111,-56,-1,-1,0
1523612827726,-589824,111,-56,-1,-1,0
1523612827726,-262144,111,-56,-1,-1,0
1523612827766,0,111,-56,-1,-1,0
1523612827766,65536,111,-56,-1,-1,0
1523612827766,131072,111,-56,-1,-1,0
1523612827766,131072,111,-56,-1,-1,0
1523612827766,-65536,111,-56,-1,-1,0
1523612827806,-393216,111,-56,-1,-1,0
1523612827806,-458752,111,-56,-1,-1,0
1523612827806,-458752,111,-56,-1,-1,0
1523612827806,-589824,111,-56,-1,-1,0
1523612827806,-720896,111,-56,-1,-1,0
1523612827847,-655360,111,-56,-1,-1,0
1523612827847,-786432,111,-56,-1,-1,0
1523612827847,-1114112,111,-56,-1,-1,0
1523612827847,-1376256,111,-56,-1,-1,0
1523612827847,-1048576,111,-56,-1,-1,0
1523612827886,-917504,111,-56,-1,-1,0
1523612827886,-983040,111,-56,-1,-1,0
1523612827886,-1179648,111,-56,-1,-1,0
1523612827886,-1179648,111,-56,-1,-1,0
1523612827886,-851968,111,-56,-1,-1,0
1523612827926,-786432,111,-56,-1,-1,0
1523612827926,-1048576,111,-56,-1,-1,0
1523612827926,-1245184,111,-56,-1,-1,0
1523612827926,-1048576,111,-56,-1,-1,0
1523612827926,-983040,111,-56,-1,-1,0
1523612827966,-983040,111,-56,-1,-1,0
1523612827966,-917504,111,-56,-1,-1,0
1523612827966,-851968,111,-56,-1,-1,0
1523612827966,-655360,111,-56,-1,-1,0
1523612827966,-458752,111,-56,-1,-1,0
1523612828006,-589824,111,-56,-1,-1,0
1523612828006,-589824,111,-56,-1,-1,0
1523612828006,-262144,111,-56,-1,-1,0
1523612828006,-393216,111,-56,-1,-1,0
1523612828006,-720896,111,-56,-1,-1,0
1523612828046,-851968,111,-56,-1,-1,0
1523612828046,-983040,111,-56,-1,-1,0
1523612828046,-786432,111,-56,-1,-1,0
1523612828046,-786432,111,-56,-1,-1,0
1523612828046,-1048576,111,-56,-1,-1,0
1523612828086,-851968,111,-56,-1,-1,0
1523612828086,-1245184,111,-56,-1,-1,0
1523612828086,-1900544,111,-56,-1,-1,0
1523612828086,-327680,111,-56,-1,-1,0
1523612828086,3670016,111,-56,-1,-1,0
1523612828126,6422528,111,-56,-1,-1,0
1523612828126,4849664,111,-56,-1,-1,0
1523612828126,1048576,111,-56,-1,-1,0
1523612828126,-1376256,111,-56,-1,-1,0
1523612828126,-1966080,111,-56,-1,-1,0
1523612828166,-1966080,111,-56,-1,-1,0
1523612828166,-1835008,111,-56,-1,-1,0
1523612828166,-1310720,111,-56,-1,-1,0
1523612828166,-1114112,111,-56,-1,-1,0
1523612828166,-983040,111,-56,-1,-1,0
1523612828206,-1048576,111,-56,-1,-1,0
1523612828206,-1114112,111,-56,-1,-1,0
1523612828206,-851968,111,-56,-1,-1,0
1523612828206,-720896,111,-56,-1,-1,0
1523612828206,-851968,111,-56,-1,-1,0
1523612828246,-524288,111,-56,-1,-1,0
1523612828246,0,111,-56,-1,-1,0
1523612828246,0,111,-56,-1,-1,0
1523612828246,-327680,111,-56,-1,-1,0
1523612828246,0,111,-56,-1,-1,0
1523612828286,393216,111,-56,-1,-1,0
1523612828286,524288,111,-56,-1,-1,0
1523612828286,458752,111,-56,-1,-1,0
1523612828286,589824,111,-56,-1,-1,0
1523612828286,851968,111,-56,-1,-1,0
1523612828326,720896,111,-56,-1,-1,0
1523612828326,327680,111,-56,-1,-1,0
1523612828326,65536,111,-56,-1,-1,0
1523612828326,0,111,-56,-1,-1,0
1523612828326,-196608,111,-56,-1,-1,0
1523612828366,-458752,111,-56,-1,-1,0
1523612828366,-655360,111,-56,-1,-1,0
1523612828366,-655360,111,-56,-1,-1,0
1523612828366,-589824,111,-56,-1,-1,0
1523612828366,-589824,111,-56,-1,-1,0
1523612828406,-393216,111,-56,-1,-1,0
1523612828406,-196608,111,-56,-1,-1,0
1523612828406,-524288,111,-56,-1,-1,0
1523612828406,-917504,111,-56,-1,-1,0
1523612828406,-720896,111,-56,-1,-1,0
1523612828446,-458752,111,-56,-1,-1,0
1523612828446,-393216,111,-56,-1,-1,0
1523612828446,-327680,111,-56,-1,-1,0
1523612828446,-327680,111,-56,-1,-1,0
1523612828446,-458752,111,-56,-1,-1,0
1523612828487,-393216,111,-56,-1,-1,0
1523612828487,-196608,111,-56,-1,-1,0
1523612828487,0,111,-56,-1,-1,0
1523612828487,-131072,111,-56,-1,-1,0
1523612828487,-131072,111,-56,-1,-1,0
1523612828526,0,111,-56,-1,-1,0
1523612828526,131072,111,-56,-1,-1,0
1523612828526,0,111,-56,-1,-1,0
1523612828526,-131072,111,-56,-1,-1,0
1523612828526,-589824,111,-56,-1,-1,0
1523612828566,-524288,111,-56,-1,-1,0
1523612828566,-131072,111,-56,-1,-1,0
1523612828566,65536,111,-56,-1,-1,0
1523612828566,0,111,-56,-1,-1,0
1523612828566,0,111,-56,-1,-1,0
1523612828606,-131072,111,-56,-1,-1,0
1523612828606,-655360,111,-56,-1,-1,0
1523612828606,-851968,111,-56,-1,-1,0
1523612828606,262144,111,-56,-1,-1,0
1523612828606,3342336,111,-56,-1,-1,0
1523612828646,6225920,111,-56,-1,-1,0
1523612828646,5701632,111,-56,-1,-1,0
1523612828646,2293760,111,-56,-1,-1,0
1523612828646,-524288,111,-56,-1,-1,0
1523612828646,-1376256,111,-56,-1,-1,0
1523612828686,-1376256,111,-56,-1,-1,0
1523612828686,-983040,111,-56,-1,-1,0
1523612828686,-524288,111,-56,-1,-1,0
1523612828686,-327680,111,-56,-1,-1,0
1523612828686,-131072,111,-56,-1,-1,0
1523612828726,0,111,-56,-1,-1,0
1523612828726,0,111,-56,-1,-1,0
1523612828726,0,111,-56,-1,-1,0
1523612828726,65536,111,-56,-1,-1,0
1523612828726,196608,111,-56,-1,-1,0
1523612828766,262144,111,-56,-1,-1,0
1523612828766,327680,111,-56,-1,-1,0
1523612828766,458752,111,-56,-1,-1,0
1523612828766,786432,111,-56,-1,-1,0
1523612828766,1048576,111,-56,-1,-1,0
1523612828806,1179648,111,-56,-1,-1,0
1523612828806,1310720,111,-56,-1,-1,0
1523612828806,1376256,111,-56,-1,-1,0
1523612828806,1179648,111,-56,-1,-1,0
1523612828806,1048576,111,-56,-1,-1,0
1523612828846,983040,111,-56,-1,-1,0
1523612828846,851968,111,-56,-1,-1,0
1523612828846,589824,111,-56,-1,-1,0
1523612828846,458752,111,-56,-1,-1,0
1523612828846,262144,111,-56,-1,-1,0
1523612828886,0,111,-56,-1,-1,0
1523612828886,-262144,111,-56,-1,-1,0
1523612828886,-131072,111,-56,-1,-1,0
1523612828886,65536,111,-56,-1,-1,0
1523612828886,0,111,-56,-1,-1,0
1523612828926,-131072,111,-56,-1,-1,0
1523612828926,-131072,111,-56,-1,-1,0
1523612828926,0,111,-56,-1,-1,0
1523612828926,0,111,-56,-1,-1,0
1523612828926,131072,111,-56,-1,-1,0
1523612828966,196608,111,-56,-1,-1,0
1523612828966,327680,111,-56,-1,-1,0
1523612828966,262144,111,-56,-1,-1,0
1523612828966,0,111,-56,-1,-1,0
1523612828966,-196608,111,-56,-1,-1,0
1523612829006,-196608,111,-56,-1,-1,0
1523612829006,-262144,111,-56,-1,-1,0
1523612829006,-262144,111,-56,-1,-1,0
1523612829006,-65536,111,-56,-1,-1,0
1523612829006,0,111,-56,-1,-1,0
1523612829047,-65536,111,-56,-1,-1,0
1523612829047,0,111,-56,-1,-1,0
1523612829047,0,111,-56,-1,-1,0
1523612829047,0,111,-56,-1,-1,0
1523612829047,0,111,-56,-1,-1,0
1523612829086,196608,111,-56,-1,-1,0
1523612829086,131072,111,-56,-1,-1,0
1523612829086,0,111,-56,-1,-1,0
1523612829086,0,111,-56,-1,-1,0
1523612829086,0,111,-56,-1,-1,0
1523612829127,0,111,-56,-1,-1,0
1523612829127,131072,111,-56,-1,-1,0
1523612829127,65536,111,-56,-1,-1,0
1523612829127,-458752,111,-56,-1,-1,0
1523612829127,-1245184,111,-56,-1,-1,0
1523612829166,-1114112,111,-56,-1,-1,0
1523612829166,1048576,111,-56,-1,-1,0
1523612829166,4784128,111,-56,-1,-1,0
1523612829166,6488064,111,-56,-1,-1,0
1523612829166,4063232,111,-56,-1,-1,0
1523612829206,524288,111,-56,-1,-1,0
1523612829206,-1179648,111,-56,-1,-1,0
1523612829206,-1572864,111,-56,-1,-1,0
1523612829206,-1572864,111,-56,-1,-1,0
1523612829206,-1048576,111,-56,-1,-1,0
1523612829246,-589824,111,-56,-1,-1,0
1523612829246,-327680,111,-56,-1,-1,0
1523612829246,-262144,111,-56,-1,-1,0
1523612829246,-131072,111,-56,-1,-1,0
1523612829246,-196608,111,-56,-1,-1,0
1523612829286,-196608,111,-56,-1,-1,0
1523612829286,0,111,-56,-1,-1,0
1523612829286,131072,111,-56,-1,-1,0
1523612829286,196608,111,-56,-1,-1,0
1523612829286,131072,111,-56,-1,-1,0
1523612829326,262144,111,-56,-1,-1,0
1523612829326,655360,111,-56,-1,-1,0
1523612829326,1048576,111,-56,-1,-1,0
1523612829326,1179648,111,-56,-1,-1,0
1523612829326,1245184,111,-56,-1,-1,0
1523612829366,1245184,111,-56,-1,-1,0
1523612829366,1245184,111,-56,-1,-1,0
1523612829366,1245184,111,-56,-1,-1,0
1523612829366,1179648,111,-56,-1,-1,0
1523612829366,983040,111,-56,-1,-1,0
1523612829406,786432,111,-56,-1,-1,0
1523612829406,589824,111,-56,-1,-1,0
1523612829406,327680,111,-56,-1,-1,0
1523612829406,327680,111,-56,-1,-1,0
1523612829406,196608,111,-56,-1,-1,0
1523612829446,-131072,111,-56,-1,-1,0
1523612829446,-458752,111,-56,-1,-1,0
1523612829446,-262144,111,-56,-1,-1,0
1523612829446,0,111,-56,-1,-1,0
1523612829446,196608,111,-56,-1,-1,0
1523612829486,262144,111,-56,-1,-1,0
1523612829486,131072,111,-56,-1,-1,0
1523612829486,131072,111,-56,-1,-1,0
1523612829486,196608,111,-56,-1,-1,0
1523612829486,196608,111,-56,-1,-1,0
1523612829526,131072,110,-56,-1,-1,0
1523612829526,131072,110,-56,-1,-1,0
1523612829526,131072,110,-56,-1,-1,0
1523612829526,196608,110,-56,-1,-1,0
1523612829526,327680,110,-56,-1,-1,0
1523612829566,458752,110,-56,-1,-1,0
1523612829566,393216,110,-56,-1,-1,0
1523612829566,196608,110,-56,-1,-1,0
1523612829566,65536,110,-56,-1,-1,0
1523612829566,65536,110,-56,-1,-1,0
1523612829606,262144,110,-56,-1,-1,0
1523612829606,327680,110,-56,-1,-1,0
1523612829606,327680,110,-56,-1,-1,0
1523612829606,196608,110,-56,-1,-1,0
1523612829606,65536,110,-56,-1,-1,0
1523612829646,0,110,-56,-1,-1,0
1523612829646,-65536,110,-56,-1,-1,0
1523612829646,-196608,110,-56,-1,-1,0
1523612829646,-393216,110,-56,-1,-1,0
1523612829646,-393216,110,-56,-1,-1,0
1523612829686,-327680,110,-56,-1,-1,0
1523612829686,-655360,110,-56,-1,-1,0
1523612829686,-1048576,110,-56,-1,-1,0
1523612829686,-65536,110,-56,-1,-1,0
1523612829686,2883584,110,-56,-1,-1,0
1523612829726,6029312,110,-56,-1,-1,0
1523612829726,5963776,110,-56,-1,-1,0
1523612829726,2883584,110,-56,-1,-1,0
1523612829726,65536,110,-56,-1,-1,0
1523612829726,-851968,110,-56,-1,-1,0
1523612829767,-1114112,110,-56,-1,-1,0
1523612829767,-917504,110,-56,-1,-1,0
1523612829767,-458752,110,-56,-1,-1,0
1523612829767,-196608,110,-56,-1,-1,0
1523612829767,-262144,110,-56,-1,-1,0
1523612829806,-458752,110,-56,-1,-1,0
1523612829806,-393216,110,-56,-1,-1,0
1523612829806,-327680,110,-56,-1,-1,0
1523612829806,-327680,110,-56,-1,-1,0
1523612829806,-196608,110,-56,-1,-1,0
1523612829846,65536,110,-56,-1,-1,0
1523612829846,327680,110,-56,-1,-1,0
1523612829846,393216,110,-56,-1,-1,0
1523612829846,458752,110,-56,-1,-1,0
1523612829846,589824,110,-56,-1,-1,0
1523612829886,1048576,110,-56,-1,-1,0
1523612829886,1572864,110,-56,-1,-1,0
1523612829886,1703936,110,-56,-1,-1,0
1523612829886,1310720,110,-56,-1,-1,0
1523612829886,655360,110,-56,-1,-1,0
1523612829926,655360,110,-56,-1,-1,0
1523612829926,917504,110,-56,-1,-1,0
1523612829926,720896,110,-56,-1,-1,0
1523612829926,393216,110,-56,-1,-1,0
1523612829926,393216,110,-56,-1,-1,0
1523612829966,262144,110,-56,-1,-1,0
1523612829966,0,110,-56,-1,-1,0
1523612829966,-262144,110,-56,-1,-1,0
1523612829966,-393216,110,-56,-1,-1,0
1523612829966,-589824,110,-56,-1,-1,0
1523612830006,-655360,110,-56,-1,-1,0
1523612830006,-393216,110,-56,-1,-1,0
1523612830006,-458752,110,-56,-1,-1,0
1523612830006,-589824,110,-56,-1,-1,0
1523612830006,-393216,110,-56,-1,-1,0
1523612830046,-393216,110,-56,-1,-1,0
1523612830046,-655360,110,-56,-1,-1,0
1523612830046,-393216,110,-56,-1,-1,0
1523612830046,-65536,110,-56,-1,-1,0
1523612830046,-131072,110,-56,-1,-1,0
1523612830086,-131072,110,-56,-1,-1,0
1523612830086,-131072,110,-56,-1,-1,0
1523612830086,-196608,110,-56,-1,-1,0
1523612830086,-524288,110,-56,-1,-1,0
1523612830086,-458752,110,-56,-1,-1,0
1523612830126,-327680,110,-56,-1,-1,0
1523612830126,-262144,110,-56,-1,-1,0
1523612830126,-393216,110,-56,-1,-1,0
1523612830126,-458752,110,-56,-1,-1,0
1523612830126,-458752,110,-56,-1,-1,0
1523612830166,-524288,110,-56,-1,-1,0
1523612830166,-458752,110,-56,-1,-1,0
1523612830166,-393216,110,-56,-1,-1,0
1523612830166,-655360,110,-56,-1,-1,0
1523612830166,-983040,110,-56,-1,-1,0
1523612830206,-917504,110,-56,-1,-1,0
1523612830206,-655360,110,-56,-1,-1,0
1523612830206,-851968,110,-56,-1,-1,0
1523612830206,-1638400,110,-56,-1,-1,0
1523612830206,-1638400,110,-56,-1,-1,0
1523612830246,131072,110,-56,-1,-1,0
1523612830246,3538944,110,-56,-1,-1,0
1523612830246,5832704,110,-56,-1,-1,0
1523612830246,4390912,110,-56,-1,-1,0
1523612830246,655360,110,-56,-1,-1,0
1523612830286,-1703936,110,-56,-1,-1,0
1523612830286,-1966080,110,-56,-1,-1,0
1523612830286,-1966080,110,-56,-1,-1,0
1523612830286,-1638400,110,-56,-1,-1,0
1523612830286,-1114112,110,-56,-1,-1,0
1523612830326,-655360,110,-56,-1,-1,0
1523612830326,-458752,110,-56,-1,-1,0
1523612830326,-655360,110,-56,-1,-1,0
1523612830326,-720896,110,-56,-1,-1,0
1523612830326,-655360,110,-56,-1,-1,0
1523612830366,-458752,110,-56,-1,-1,0
1523612830366,-524288,110,-56,-1,-1,0
1523612830366,-327680,110,-56,-1,-1,0
1523612830366,-327680,110,-56,-1,-1,0
1523612830366,-196608,110,-56,-1,-1,0
1523612830407,-65536,110,-56,-1,-1,0
1523612830407,393216,110,-56,-1,-1,0
1523612830407,851968,110,-56,-1,-1,0
1523612830407,851968,110,-56,-1,-1,0
1523612830407,589824,110,-56,-1,-1,0
1523612830446,589824,110,-56,-1,-1,0
1523612830446,655360,110,-56,-1,-1,0
1523612830446,720896,110,-56,-1,-1,0
1523612830446,655360,110,-56,-1,-1,0
1523612830446,262144,110,-56,-1,-1,0
1523612830486,-131072,110,-56,-1,-1,0
1523612830486,-131072,110,-56,-1,-1,0
1523612830486,-131072,110,-56,-1,-1,0
1523612830486,-262144,110,-56,-1,-1,0
1523612830486,-589824,110,-56,-1,-1,0
1523612830526,-1114112,110,-56,-1,-1,0
1523612830526,-1310720,110,-56,-1,-1,0
1523612830526,-1179648,110,-56,-1,-1,0
1523612830526,-917504,110,-56,-1,-1,0
1523612830526,-851968,110,-56,-1,-1,0
1523612830566,-917504,110,-56,-1,-1,0
1523612830566,-851968,110,-56,-1,-1,0
1523612830566,-327680,110,-56,-1,-1,0
1523612830566,0,110,-56,-1,-1,0
1523612830566,-196608,110,-56,-1,-1,0
1523612830606,-327680,110,-56,-1,-1,0
1523612830606,-327680,110,-56,-1,-1,0
1523612830606,-327680,110,-56,-1,-1,0
1523612830606,-393216,110,-56,-1,-1,0
1523612830606,-393216,110,-56,-1,-1,0
1523612830646,-196608,110,-56,-1,-1,0
1523612830646,0,110,-56,-1,-1,0
1523612830646,65536,110,-56,-1,-1,0
1523612830646,131072,110,-56,-1,-1,0
1523612830646,393216,110,-56,-1,-1,0
1523612830686,327680,110,-56,-1,-1,0
1523612830686,-131072,110,-56,-1,-1,0
1523612830686,-524288,110,-56,-1,-1,0
1523612830686,-327680,110,-56,-1,-1,0
1523612830686,-65536,110,-56,-1,-1,0
1523612830726,-196608,110,-56,-1,-1,0
1523612830726,-327680,110,-56,-1,-1,0
1523612830726,-262144,110,-56,-1,-1,0
1523612830726,-393216,110,-56,-1,-1,0
1523612830726,-720896,110,-56,-1,-1,0
1523612830766,-851968,110,-56,-1,-1,0
1523612830766,393216,110,-56,-1,-1,0
1523612830766,3473408,110,-56,-1,-1,0
1523612830766,5963776,110,-56,-1,-1,0
1523612830766,5111808,110,-56,-1,-1,0
1523612830806,1966080,110,-56,-1,-1,0
1523612830806,-524288,110,-56,-1,-1,0
1523612830806,-1310720,110,-56,-1,-1,0
1523612830806,-1114112,110,-56,-1,-1,0
1523612830806,-524288,110,-56,-1,-1,0
1523612830846,-131072,110,-56,-1,-1,0
1523612830846,0,110,-56,-1,-1,0
1523612830846,-65536,110,-56,-1,-1,0
1523612830846,-131072,110,-56,-1,-1,0
1523612830846,-262144,110,-56,-1,-1,0
1523612830886,65536,110,-56,-1,-1,0
1523612830886,393216,110,-56,-1,-1,0
1523612830886,458752,110,-56,-1,-1,0
1523612830886,458752,110,-56,-1,-1,0
1523612830886,655360,110,-56,-1,-1,0
1523612830926,786432,110,-56,-1,-1,0
1523612830926,917504,110,-56,-1,-1,0
1523612830926,1114112,110,-56,-1,-1,0
1523612830926,1441792,110,-56,-1,-1,0
1523612830926,1507328,110,-56,-1,-1,0
1523612830966,1441792,110,-56,-1,-1,0
1523612830966,1507328,110,-56,-1,-1,0
1523612830966,1310720,110,-56,-1,-1,0
1523612830966,1245184,110,-56,-1,-1,0
1523612830966,1572864,110,-56,-1,-1,0
1523612831006,1638400,110,-56,-1,-1,0
1523612831006,1048576,110,-56,-1,-1,0
1523612831006,458752,110,-56,-1,-1,0
1523612831006,327680,110,-56,-1,-1,0
1523612831006,262144,110,-56,-1,-1,0
1523612831047,262144,110,-56,-1,-1,0
1523612831047,327680,110,-56,-1,-1,0
1523612831047,393216,110,-56,-1,-1,0
1523612831047,327680,110,-56,-1,-1,0
1523612831047,262144,110,-56,-1,-1,0
1523612831086,196608,110,-56,-1,-1,0
1523612831086,196608,110,-56,-1,-1,0
1523612831086,458752,110,-56,-1,-1,0
1523612831086,589824,110,-56,-1,-1,0
1523612831086,458752,110,-56,-1,-1,0
1523612831126,262144,110,-56,-1,-1,0
1523612831126,327680,110,-56,-1,-1,0
1523612831126,327680,110,-56,-1,-1,0
1523612831126,131072,110,-56,-1,-1,0
1523612831126,196608,110,-56,-1,-1,0
1523612831166,327680,110,-56,-1,-1,0
1523612831166,458752,110,-56,-1,-1,0
1523612831166,327680,110,-56,-1,-1,0
1523612831166,458752,110,-56,-1,-1,0
1523612831166,524288,110,-56,-1,-1,0
1523612831206,458752,110,-56,-1,-1,0
1523612831206,65536,110,-56,-1,-1,0
1523612831206,0,110,-56,-1,-1,0
1523612831206,0,110,-56,-1,-1,0
1523612831206,0,110,-56,-1,-1,0
1523612831246,-65536,110,-56,-1,-1,0
1523612831246,-131072,110,-56,-1,-1,0
1523612831246,-196608,110,-56,-1,-1,0
1523612831246,-393216,110,-56,-1,-1,0
1523612831246,-917504,110,-56,-1,-1,0
1523612831286,-983040,110,-56,-1,-1,0
1523612831286,458752,110,-56,-1,-1,0
1523612831286,3735552,110,-56,-1,-1,0
1523612831286,6029312,110,-56,-1,-1,0
1523612831286,4587520,110,-56,-1,-1,0
1523612831326,851968,110,-56,-1,-1,0
1523612831326,-1572864,110,-56,-1,-1,0
1523612831326,-2031616,110,-56,-1,-1,0
1523612831326,-1703936,110,-56,-1,-1,0
1523612831326,-1310720,110,-56,-1,-1,0
1523612831365,-983040,110,-56,-1,-1,0
1523612831365,-786432,110,-56,-1,-1,0
1523612831365,-720896,110,-56,-1,-1,0
1523612831365,-720896,110,-56,-1,-1,0
1523612831365,-589824,110,-56,-1,-1,0
1523612831406,-589824,110,-56,-1,-1,0
1523612831406,-655360,110,-56,-1,-1,0
1523612831406,-655360,110,-56,-1,-1,0
1523612831406,-589824,110,-56,-1,-1,0
1523612831406,-458752,110,-56,-1,-1,0
1523612831445,-196608,110,-56,-1,-1,0
1523612831445,65536,110,-56,-1,-1,0
1523612831445,327680,110,-56,-1,-1,0
1523612831445,393216,110,-56,-1,-1,0
1523612831445,524288,110,-56,-1,-1,0
1523612831486,655360,110,-56,-1,-1,0
1523612831486,589824,110,-56,-1,-1,0
1523612831486,393216,110,-56,-1,-1,0
1523612831486,262144,110,-56,-1,-1,0
1523612831486,65536,110,-56,-1,-1,0
1523612831525,-65536,110,-56,-1,-1,0
1523612831525,-262144,110,-56,-1,-1,0
1523612831525,-524288,110,-56,-1,-1,0
1523612831525,-720896,110,-56,-1,-1,0
1523612831525,-786432,110,-56,-1,-1,0
1523612831566,-720896,110,-56,-1,-1,0
1523612831566,-851968,110,-56,-1,-1,0
1523612831566,-1114112,110,-56,-1,-1,0
1523612831566,-1310720,110,-56,-1,-1,0
1523612831566,-1114112,110,-56,-1,-1,0
1523612831605,-917504,111,-56,-1,-1,0
1523612831605,-720896,111,-56,-1,-1,0
1523612831605,-655360,111,-56,-1,-1,0
1523612831605,-524288,111,-56,-1,-1,0
1523612831605,-524288,111,-56,-1,-1,0
1523612831646,-458752,111,-56,-1,-1,0
1523612831646,-524288,111,-56,-1,-1,0
1523612831646,-524288,111,-56,-1,-1,0
1523612831646,-524288,111,-56,-1,-1,0
1523612831646,-524288,111,-56,-1,-1,0
1523612831687,-393216,111,-56,-1,-1,0
1523612831687,-196608,111,-56,-1,-1,0
1523612831687,0,111,-56,-1,-1,0
1523612831687,0,111,-56,-1,-1,0
1523612831687,-65536,111,-56,-1,-1,0
1523612831726,-196608,111,-56,-1,-1,0
1523612831726,-393216,111,-56,-1,-1,0
1523612831726,-655360,111,-56,-1,-1,0
1523612831726,-655360,111,-56,-1,-1,0
1523612831726,-524288,111,-56,-1,-1,0
1523612831765,-458752,111,-56,-1,-1,0
1523612831765,-458752,111,-56,-1,-1,0
1523612831765,-131072,111,-56,-1,-1,0
1523612831765,-196608,111,-56,-1,-1,0
1523612831765,-851968,111,-56,-1,-1,0
1523612831806,-1572864,111,-56,-1,-1,0
1523612831806,-917504,111,-56,-1,-1,0
1523612831806,1900544,111,-56,-1,-1,0
1523612831806,5308416,111,-56,-1,-1,0
1523612831806,5701632,111,-56,-1,-1,0
1523612831845,2424832,111,-56,-1,-1,0
1523612831845,-655360,111,-56,-1,-1,0
1523612831845,-1835008,111,-56,-1,-1,0
1523612831845,-2031616,111,-56,-1,-1,0
1523612831845,-1769472,111,-56,-1,-1,0
1523612831885,-1114112,111,-56,-1,-1,0
1523612831885,-851968,111,-56,-1,-1,0
1523612831885,-786432,111,-56,-1,-1,0
1523612831885,-786432,111,-56,-1,-1,0
1523612831885,-720896,111,-56,-1,-1,0
1523612831925,-720896,111,-56,-1,-1,0
1523612831925,-589824,111,-56,-1,-1,0
1523612831925,-262144,111,-56,-1,-1,0
1523612831925,-65536,111,-56,-1,-1,0
1523612831925,0,111,-56,-1,-1,0
1523612831966,0,111,-56,-1,-1,0
1523612831966,-131072,111,-56,-1,-1,0
1523612831966,-131072,111,-56,-1,-1,0
1523612831966,131072,111,-56,-1,-1,0
1523612831966,589824,111,-56,-1,-1,0
1523612832005,720896,111,-56,-1,-1,0
1523612832005,589824,111,-56,-1,-1,0
1523612832005,524288,111,-56,-1,-1,0
1523612832005,720896,111,-56,-1,-1,0
1523612832005,720896,111,-56,-1,-1,0
1523612832046,196608,111,-56,-1,-1,0
1523612832046,-524288,111,-56,-1,-1,0
1523612832046,-851968,111,-56,-1,-1,0
1523612832046,-983040,111,-56,-1,-1,0
1523612832046,-917504,111,-56,-1,-1,0
1523612832085,-983040,111,-56,-1,-1,0
1523612832085,-1048576,111,-56,-1,-1,0
1523612832085,-1245184,111,-56,-1,-1,0
1523612832085,-1245184,111,-56,-1,-1,0
1523612832085,-1245184,111,-56,-1,-1,0
1523612832125,-1179648,111,-56,-1,-1,0
1523612832125,-1048576,111,-56,-1,-1,0
1523612832125,-1048576,111,-56,-1,-1,0
1523612832125,-1114112,111,-56,-1,-1,0
1523612832125,-917504,111,-56,-1,-1,0
1523612832165,-655360,111,-56,-1,-1,0
1523612832165,-720896,111,-56,-1,-1,0
1523612832165,-786432,111,-56,-1,-1,0
1523612832165,-655360,111,-56,-1,-1,0
1523612832165,-655360,111,-56,-1,-1,0
1523612832206,-786432,111,-56,-1,-1,0
1523612832206,-720896,111,-56,-1,-1,0
1523612832206,-655360,111,-56,-1,-1,0
1523612832206,-655360,111,-56,-1,-1,0
1523612832206,-524288,111,-56,-1,-1,0
1523612832245,-524288,111,-56,-1,-1,0
1523612832245,-524288,111,-56,-1,-1,0
1523612832245,-589824,111,-56,-1,-1,0
1523612832245,-655360,111,-56,-1,-1,0
1523612832245,-786432,111,-56,-1,-1,0
1523612832286,-720896,111,-56,-1,-1,0
1523612832286,-524288,111,-56,-1,-1,0
1523612832286,-524288,111,-56,-1,-1,0
1523612832286,-1048576,111,-56,-1,-1,0
1523612832286,-1966080,111,-56,-1,-1,0
1523612832327,-1900544,111,-56,-1,-1,0
1523612832327,458752,111,-56,-1,-1,0
1523612832327,3997696,111,-56,-1,-1,0
1523612832327,5636096,111,-56,-1,-1,0
1523612832327,3538944,111,-56,-1,-1,0
1523612832366,0,111,-56,-1,-1,0
1523612832366,-2162688,111,-56,-1,-1,0
1523612832366,-2293760,111,-56,-1,-1,0
1523612832366,-1441792,111,-56,-1,-1,0
1523612832366,-1114112,111,-56,-1,-1,0
1523612832405,-1245184,111,-56,-1,-1,0
1523612832405,-1114112,111,-56,-1,-1,0
1523612832405,-1048576,111,-56,-1,-1,0
1523612832405,-983040,111,-56,-1,-1,0
1523612832405,-917504,111,-56,-1,-1,0
1523612832446,-655360,111,-56,-1,-1,0
1523612832446,-655360,111,-56,-1,-1,0
1523612832446,-327680,111,-56,-1,-1,0
1523612832446,131072,111,-56,-1,-1,0
1523612832446,65536,111,-56,-1,-1,0
1523612832485,-393216,111,-56,-1,-1,0
1523612832485,-196608,111,-56,-1,-1,0
1523612832485,131072,111,-56,-1,-1,0
1523612832485,589824,111,-56,-1,-1,0
1523612832485,851968,111,-56,-1,-1,0
1523612832526,1114112,111,-56,-1,-1,0
1523612832526,786432,111,-56,-1,-1,0
1523612832526,262144,111,-56,-1,-1,0
1523612832526,65536,111,-56,-1,-1,0
1523612832526,196608,111,-56,-1,-1,0
1523612832565,0,111,-56,-1,-1,0
1523612832565,-327680,111,-56,-1,-1,0
1523612832565,-393216,111,-56,-1,-1,0
1523612832565,-720896,111,-56,-1,-1,0
1523612832565,-917504,111,-56,-1,-1,0
1523612832606,-524288,111,-56,-1,-1,0
1523612832606,0,111,-56,-1,-1,0
1523612832606,-327680,111,-56,-1,-1,0
1523612832606,-655360,111,-56,-1,-1,0
1523612832606,-720896,111,-56,-1,-1,0
1523612832646,-851968,111,-56,-1,-1,0
1523612832646,-983040,111,-56,-1,-1,0
1523612832646,-851968,111,-56,-1,-1,0
1523612832646,-393216,111,-56,-1,-1,0
1523612832646,-65536,111,-56,-1,-1,0
1523612832686,-327680,112,-56,-1,-1,0
1523612832686,-655360,112,-56,-1,-1,0
1523612832686,-393216,112,-56,-1,-1,0
1523612832686,65536,112,-56,-1,-1,0
1523612832686,393216,112,-56,-1,-1,0
1523612832725,65536,112,-56,-1,-1,0
1523612832725,-393216,112,-56,-1,-1,0
1523612832725,-131072,112,-56,-1,-1,0
1523612832725,131072,112,-56,-1,-1,0
1523612832725,0,112,-56,-1,-1,0
1523612832766,-262144,112,-56,-1,-1,0
1523612832766,-131072,112,-56,-1,-1,0
1523612832766,131072,112,-56,-1,-1,0
1523612832766,196608,112,-56,-1,-1,0
1523612832766,131072,112,-56,-1,-1,0
1523612832805,262144,112,-56,-1,-1,0
1523612832805,65536,112,-56,-1,-1,0
1523612832805,-262144,112,-56,-1,-1,0
1523612832805,-393216,112,-56,-1,-1,0
1523612832805,-458752,112,-56,-1,-1,0
1523612832846,-655360,112,-56,-1,-1,0
1523612832846,0,112,-56,-1,-1,0
1523612832846,2752512,112,-56,-1,-1,0
1523612832846,5963776,112,-56,-1,-1,0
1523612832846,5898240,112,-56,-1,-1,0
1523612832885,2818048,112,-56,-1,-1,0
1523612832885,-65536,112,-56,-1,-1,0
1523612832885,-1114112,112,-56,-1,-1,0
1523612832885,-1245184,112,-56,-1,-1,0
1523612832885,-589824,112,-56,-1,-1,0
1523612832926,-196608,112,-56,-1,-1,0
1523612832926,-131072,112,-56,-1,-1,0
1523612832926,-458752,112,-56,-1,-1,0
1523612832926,-458752,112,-56,-1,-1,0
1523612832926,-196608,112,-56,-1,-1,0
1523612832967,131072,112,-56,-1,-1,0
1523612832967,327680,112,-56,-1,-1,0
1523612832967,131072,112,-56,-1,-1,0
1523612832967,-65536,112,-56,-1,-1,0
1523612832967,-65536,112,-56,-1,-1,0
1523612833006,-65536,112,-56,-1,-1,0
1523612833006,0,112,-56,-1,-1,0
1523612833006,720896,112,-56,-1,-1,0
1523612833006,1310720,112,-56,-1,-1,0
1523612833006,1245184,112,-56,-1,-1,0
1523612833045,983040,112,-56,-1,-1,0
1523612833045,983040,112,-56,-1,-1,0
1523612833045,1048576,112,-56,-1,-1,0
1523612833045,983040,112,-56,-1,-1,0
1523612833045,655360,112,-56,-1,-1,0
1523612833086,393216,112,-56,-1,-1,0
1523612833086,196608,112,-56,-1,-1,0
1523612833086,131072,112,-56,-1,-1,0
1523612833086,65536,112,-56,-1,-1,0
1523612833086,-65536,112,-56,-1,-1,0
1523612833127,-262144,112,-56,-1,-1,0
1523612833127,-393216,112,-56,-1,-1,0
1523612833127,-458752,112,-56,-1,-1,0
1523612833127,-720896,112,-56,-1,-1,0
1523612833127,-720896,112,-56,-1,-1,0
1523612833166,-720896,112,-56,-1,-1,0
1523612833166,-131072,112,-56,-1,-1,0
1523612833166,-65536,112,-56,-1,-1,0
1523612833166,-262144,112,-56,-1,-1,0
1523612833166,-786432,112,-56,-1,-1,0
1523612833205,-393216,112,-56,-1,-1,0
1523612833205,-458752,112,-56,-1,-1,0
1523612833205,-524288,112,-56,-1,-1,0
1523612833205,-131072,112,-56,-1,-1,0
1523612833205,0,112,-56,-1,-1,0
1523612833246,-196608,112,-56,-1,-1,0
1523612833246,-589824,112,-56,-1,-1,0
1523612833246,-393216,112,-56,-1,-1,0
1523612833246,-327680,112,-56,-1,-1,0
1523612833246,-65536,112,-56,-1,-1,0
1523612833286,65536,112,-56,-1,-1,0
1523612833286,-131072,112,-56,-1,-1,0
1523612833286,-65536,112,-56,-1,-1,0
1523612833286,-131072,112,-56,-1,-1,0
1523612833286,-65536,112,-56,-1,-1,0
1523612833326,-131072,112,-56,-1,-1,0
1523612833326,-65536,112,-56,-1,-1,0
1523612833326,-131072,112,-56,-1,-1,0
1523612833326,-131072,112,-56,-1,-1,0
1523612833326,-262144,112,-56,-1,-1,0
1523612833366,-327680,112,-56,-1,-1,0
1523612833366,-393216,112,-56,-1,-1,0
1523612833366,-851968,112,-56,-1,-1,0
1523612833366,-983040,112,-56,-1,-1,0
1523612833366,786432,112,-56,-1,-1,0
1523612833406,4390912,112,-56,-1,-1,0
1523612833406,6815744,112,-56,-1,-1,0
1523612833406,5046272,112,-56,-1,-1,0
1523612833406,1114112,112,-56,-1,-1,0
1523612833406,-1179648,112,-56,-1,-1,0
1523612833446,-1638400,112,-56,-1,-1,0
1523612833446,-1441792,112,-56,-1,-1,0
1523612833446,-1114112,112,-56,-1,-1,0
1523612833446,-851968,112,-56,-1,-1,0
1523612833446,-655360,112,-56,-1,-1,0
1523612833486,-327680,112,-56,-1,-1,0
1523612833486,0,112,-56,-1,-1,0
1523612833486,-65536,112,-56,-1,-1,0
1523612833486,-131072,112,-56,-1,-1,0
1523612833486,-196608,112,-56,-1,-1,0
1523612833526,-327680,112,-56,-1,-1,0
1523612833526,-327680,112,-56,-1,-1,0
1523612833526,0,112,-56,-1,-1,0
1523612833526,196608,112,-56,-1,-1,0
1523612833526,393216,112,-56,-1,-1,0
1523612833566,589824,112,-56,-1,-1,0
1523612833566,786432,112,-56,-1,-1,0
1523612833566,917504,112,-56,-1,-1,0
1523612833566,1048576,112,-56,-1,-1,0
1523612833566,1048576,112,-56,-1,-1,0
1523612833607,983040,112,-56,-1,-1,0
1523612833607,786432,112,-56,-1,-1,0
1523612833607,589824,112,-56,-1,-1,0
1523612833607,196608,112,-56,-1,-1,0
1523612833607,0,112,-56,-1,-1,0
1523612833646,-327680,112,-56,-1,-1,0
1523612833646,-458752,112,-56,-1,-1,0
1523612833646,-589824,112,-56,-1,-1,0
1523612833646,-720896,112,-56,-1,-1,0
1523612833646,-851968,112,-56,-1,-1,0
1523612833685,-917504,112,-56,-1,-1,0
1523612833685,-983040,112,-56,-1,-1,0
1523612833685,-1048576,112,-56,-1,-1,0
1523612833685,-1114112,112,-56,-1,-1,0
1523612833685,-1179648,112,-56,-1,-1,0
1523612833726,-1179648,112,-56,-1,-1,0
1523612833726,-1114112,112,-56,-1,-1,0
1523612833726,-1048576,112,-56,-1,-1,0
1523612833726,-1048576,112,-56,-1,-1,0
1523612833726,-1114112,112,-56,-1,-1,0
1523612833765,-1114112,112,-56,-1,-1,0
1523612833765,-1048576,112,-56,-1,-1,0
1523612833765,-1048576,112,-56,-1,-1,0
1523612833765,-1245184,112,-56,-1,-1,0
1523612833765,-1376256,112,-56,-1,-1,0
1523612833806,-1245184,112,-56,-1,-1,0
1523612833806,-1114112,112,-56,-1,-1,0
1523612833806,-1114112,112,-56,-1,-1,0
1523612833806,-1114112,112,-56,-1,-1,0
1523612833806,-1114112,112,-56,-1,-1,0
1523612833846,-1179648,112,-56,-1,-1,0
1523612833846,-1245184,112,-56,-1,-1,0
1523612833846,-1376256,112,-56,-1,-1,0
1523612833846,-1507328,112,-56,-1,-1,0
1523612833846,-1507328,112,-56,-1,-1,0
1523612833886,-1507328,112,-56,-1,-1,0
1523612833886,-1638400,112,-56,-1,-1,0
1523612833886,-1703936,112,-56,-1,-1,0
1523612833886,-1638400,112,-56,-1,-1,0
1523612833886,-1835008,112,-56,-1,-1,0
1523612833925,-2555904,112,-56,-1,-1,0
1523612833925,-2490368,112,-56,-1,-1,0
1523612833925,-458752,112,-56,-1,-1,0
1523612833925,3211264,112,-56,-1,-1,0
1523612833925,5505024,112,-56,-1,-1,0
1523612833966,3801088,112,-56,-1,-1,0
1523612833966,131072,112,-56,-1,-1,0
1523612833966,-2162688,112,-56,-1,-1,0
1523612833966,-2752512,112,-56,-1,-1,0
1523612833966,-2621440,112,-56,-1,-1,0
1523612834006,-2162688,112,-56,-1,-1,0
1523612834006,-1703936,112,-56,-1,-1,0
1523612834006,-1441792,112,-56,-1,-1,0
1523612834006,-1376256,112,-56,-1,-1,0
1523612834006,-1441792,112,-56,-1,-1,0
1523612834046,-1310720,112,-56,-1,-1,0
1523612834046,-1114112,112,-56,-1,-1,0
1523612834046,-983040,112,-56,-1,-1,0
1523612834046,-917504,112,-56,-1,-1,0
1523612834046,-851968,112,-56,-1,-1,0
1523612834086,-786432,112,-56,-1,-1,0
1523612834086,-655360,112,-56,-1,-1,0
1523612834086,-458752,112,-56,-1,-1,0
1523612834086,-65536,112,-56,-1,-1,0
1523612834086,196608,112,-56,-1,-1,0
1523612834126,393216,112,-56,-1,-1,0
1523612834126,589824,112,-56,-1,-1,0
1523612834126,655360,112,-56,-1,-1,0
1523612834126,393216,112,-56,-1,-1,0
1523612834126,131072,112,-56,-1,-1,0
1523612834166,196608,112,-56,-1,-1,0
1523612834166,65536,112,-56,-1,-1,0
1523612834166,-131072,112,-56,-1,-1,0
1523612834166,-327680,112,-56,-1,-1,0
1523612834166,-393216,112,-56,-1,-1,0
1523612834206,-458752,112,-56,-1,-1,0
1523612834206,-458752,112,-56,-1,-1,0
1523612834206,-393216,112,-56,-1,-1,0
1523612834206,-393216,112,-56,-1,-1,0
1523612834206,-262144,112,-56,-1,-1,0
1523612834247,-131072,112,-56,-1,-1,0
1523612834247,0,112,-56,-1,-1,0
1523612834247,0,112,-56,-1,-1,0
1523612834247,131072,112,-56,-1,-1,0
1523612834247,327680,112,-56,-1,-1,0
1523612834286,458752,112,-56,-1,-1,0
1523612834286,655360,112,-56,-1,-1,0
1523612834286,786432,112,-56,-1,-1,0
1523612834286,786432,112,-56,-1,-1,0
1523612834286,851968,112,-56,-1,-1,0
1523612834326,1048576,112,-56,-1,-1,0
1523612834326,1114112,112,-56,-1,-1,0
1523612834326,1048576,112,-56,-1,-1,0
1523612834326,1114112,112,-56,-1,-1,0
1523612834326,1179648,112,-56,-1,-1,0
1523612834366,1376256,112,-56,-1,-1,0
1523612834366,1507328,112,-56,-1,-1,0
1523612834366,1441792,112,-56,-1,-1,0
1523612834366,1245184,112,-56,-1,-1,0
1523612834366,1114112,112,-56,-1,-1,0
1523612834406,1114112,112,-56,-1,-1,0
1523612834406,1048576,112,-56,-1,-1,0
1523612834406,1048576,112,-56,-1,-1,0
1523612834406,851968,112,-56,-1,-1,0
1523612834406,720896,112,-56,-1,-1,0
1523612834446,786432,112,-56,-1,-1,0
1523612834446,851968,112,-56,-1,-1,0
1523612834446,393216,112,-56,-1,-1,0
1523612834446,-65536,112,-56,-1,-1,0
1523612834446,851968,112,-56,-1,-1,0
1523612834486,3735552,112,-56,-1,-1,0
1523612834486,6881280,112,-56,-1,-1,0
1523612834486,6750208,112,-56,-1,-1,0
1523612834486,3538944,112,-56,-1,-1,0
1523612834486,393216,112,-56,-1,-1,0
1523612834526,-655360,112,-56,-1,-1,0
1523612834526,-524288,112,-56,-1,-1,0
1523612834526,0,112,-56,-1,-1,0
1523612834526,393216,112,-56,-1,-1,0
1523612834526,327680,112,-56,-1,-1,0
1523612834566,262144,112,-56,-1,-1,0
1523612834566,327680,112,-56,-1,-1,0
1523612834566,262144,112,-56,-1,-1,0
1523612834566,196608,112,-56,-1,-1,0
1523612834566,327680,112,-56,-1,-1,0
1523612834606,458752,112,-56,-1,-1,0
1523612834606,458752,112,-56,-1,-1,0
1523612834606,655360,112,-56,-1,-1,0
1523612834606,786432,112,-56,-1,-1,0
1523612834606,917504,112,-56,-1,-1,0
1523612834646,1048576,112,-56,-1,-1,0
1523612834646,1048576,112,-56,-1,-1,0
1523612834646,1114112,112,-56,-1,-1,0
1523612834646,1245184,112,-56,-1,-1,0
1523612834646,1441792,112,-56,-1,-1,0
1523612834686,1572864,112,-56,-1,-1,0
1523612834686,1310720,112,-56,-1,-1,0
1523612834686,983040,112,-56,-1,-1,0
1523612834686,786432,112,-56,-1,-1,0
1523612834686,720896,112,-56,-1,-1,0
1523612834726,458752,112,-56,-1,-1,0
1523612834726,131072,112,-56,-1,-1,0
1523612834726,65536,112,-56,-1,-1,0
1523612834726,65536,112,-56,-1,-1,0
1523612834726,0,112,-56,-1,-1,0
1523612834766,-65536,112,-56,-1,-1,0
1523612834766,-131072,112,-56,-1,-1,0
1523612834766,-131072,112,-56,-1,-1,0
1523612834766,-65536,112,-56,-1,-1,0
1523612834766,65536,112,-56,-1,-1,0
1523612834806,0,112,-56,-1,-1,0
1523612834806,-131072,112,-56,-1,-1,0
1523612834806,-196608,112,-56,-1,-1,0
1523612834806,-65536,112,-56,-1,-1,0
1523612834806,-65536,112,-56,-1,-1,0
1523612834846,-65536,112,-56,-1,-1,0
1523612834846,-65536,112,-56,-1,-1,0
1523612834846,-196608,112,-56,-1,-1,0
1523612834846,-131072,112,-56,-1,-1,0
1523612834846,-65536,112,-56,-1,-1,0
1523612834887,-131072,112,-56,-1,-1,0
1523612834887,-196608,112,-56,-1,-1,0
1523612834887,-131072,112,-56,-1,-1,0
1523612834887,-131072,112,-56,-1,-1,0
1523612834887,-65536,112,-56,-1,-1,0
1523612834926,0,112,-56,-1,-1,0
1523612834926,0,112,-56,-1,-1,0
1523612834926,-65536,112,-56,-1,-1,0
1523612834926,-196608,112,-56,-1,-1,0
1523612834926,-262144,112,-56,-1,-1,0
1523612834966,-327680,112,-56,-1,-1,0
1523612834966,-327680,112,-56,-1,-1,0
1523612834966,-393216,112,-56,-1,-1,0
1523612834966,-589824,112,-56,-1,-1,0
1523612834966,-589824,112,-56,-1,-1,0
1523612835006,-786432,112,-56,-1,-1,0
1523612835006,-1179648,112,-56,-1,-1,0
1523612835006,-1114112,112,-56,-1,-1,0
1523612835006,458752,112,-56,-1,-1,0
1523612835006,3670016,112,-56,-1,-1,0
1523612835046,5636096,112,-56,-1,-1,0
1523612835046,4128768,112,-56,-1,-1,0
1523612835046,655360,112,-56,-1,-1,0
1523612835046,-1507328,112,-56,-1,-1,0
1523612835046,-2097152,112,-56,-1,-1,0
1523612835086,-1835008,112,-56,-1,-1,0
1523612835086,-1179648,112,-56,-1,-1,0
1523612835086,-851968,112,-56,-1,-1,0
1523612835086,-786432,112,-56,-1,-1,0
1523612835086,-655360,112,-56,-1,-1,0
1523612835126,-458752,112,-56,-1,-1,0
1523612835126,-524288,112,-56,-1,-1,0
1523612835126,-524288,112,-56,-1,-1,0
1523612835126,-458752,112,-56,-1,-1,0
1523612835126,-262144,112,-56,-1,-1,0
1523612835166,-262144,112,-56,-1,-1,0
1523612835166,-196608,112,-56,-1,-1,0
1523612835166,0,112,-56,-1,-1,0
1523612835166,196608,112,-56,-1,-1,0
1523612835166,262144,112,-56,-1,-1,0
1523612835207,458752,112,-56,-1,-1,0
1523612835207,851968,112,-56,-1,-1,0
1523612835207,917504,112,-56,-1,-1,0
1523612835207,851968,112,-56,-1,-1,0
1523612835207,786432,112,-56,-1,-1,0
1523612835246,655360,112,-56,-1,-1,0
1523612835246,458752,112,-56,-1,-1,0
1523612835246,262144,112,-56,-1,-1,0
1523612835246,65536,112,-56,-1,-1,0
1523612835246,-131072,112,-56,-1,-1,0
1523612835286,-262144,112,-56,-1,-1,0
1523612835286,-393216,112,-56,-1,-1,0
1523612835286,-589824,112,-56,-1,-1,0
1523612835286,-720896,112,-56,-1,-1,0
1523612835286,-786432,112,-56,-1,-1,0
1523612835326,-851968,112,-56,-1,-1,0
1523612835326,-786432,112,-56,-1,-1,0
1523612835326,-786432,112,-56,-1,-1,0
1523612835326,-655360,112,-56,-1,-1,0
1523612835326,-720896,112,-56,-1,-1,0
1523612835366,-655360,112,-56,-1,-1,0
1523612835366,-458752,112,-56,-1,-1,0
1523612835366,-262144,112,-56,-1,-1,0
1523612835366,-393216,112,-56,-1,-1,0
1523612835366,-458752,112,-56,-1,-1,0
1523612835406,-524288,112,-56,-1,-1,0
1523612835406,-589824,112,-56,-1,-1,0
1523612835406,-655360,112,-56,-1,-1,0
1523612835406,-655360,112,-56,-1,-1,0
1523612835406,-589824,112,-56,-1,-1,0
1523612835446,-524288,112,-56,-1,-1,0
1523612835446,-327680,112,-56,-1,-1,0
1523612835446,-327680,112,-56,-1,-1,0
1523612835446,-524288,112,-56,-1,-1,0
1523612835446,-524288,112,-56,-1,-1,0
1523612835486,-458752,112,-56,-1,-1,0
1523612835486,-458752,112,-56,-1,-1,0
1523612835486,-524288,112,-56,-1,-1,0
1523612835486,-655360,112,-56,-1,-1,0
1523612835486,-786432,112,-56,-1,-1,0
1523612835527,-589824,112,-56,-1,-1,0
1523612835527,-458752,112,-56,-1,-1,0
1523612835527,-589824,112,-56,-1,-1,0
1523612835527,-917504,112,-56,-1,-1,0
1523612835527,-1245184,112,-56,-1,-1,0
1523612835566,-1441792,112,-56,-1,-1,0
1523612835566,-655360,112,-56,-1,-1,0
1523612835566,1966080,112,-56,-1,-1,0
1523612835566,5242880,112,-56,-1,-1,0
1523612835566,5767168,112,-56,-1,-1,0
1523612835606,2490368,112,-56,-1,-1,0
1523612835606,-917504,112,-56,-1,-1,0
1523612835606,-2424832,112,-56,-1,-1,0
1523612835606,-2555904,112,-56,-1,-1,0
1523612835606,-2031616,112,-56,-1,-1,0
1523612835646,-1507328,112,-56,-1,-1,0
1523612835646,-1310720,112,-56,-1,-1,0
1523612835646,-1048576,112,-56,-1,-1,0
1523612835646,-983040,112,-56,-1,-1,0
1523612835646,-1048576,112,-56,-1,-1,0
1523612835686,-1048576,112,-56,-1,-1,0
1523612835686,-1114112,112,-56,-1,-1,0
1523612835686,-1048576,112,-56,-1,-1,0
1523612835686,-851968,112,-56,-1,-1,0
1523612835686,-655360,112,-56,-1,-1,0
1523612835726,-524288,112,-56,-1,-1,0
1523612835726,-458752,112,-56,-1,-1,0
1523612835726,-262144,112,-56,-1,-1,0
1523612835726,0,112,-56,-1,-1,0
1523612835726,196608,112,-56,-1,-1,0
1523612835766,524288,112,-56,-1,-1,0
1523612835766,655360,112,-56,-1,-1,0
1523612835766,393216,112,-56,-1,-1,0
1523612835766,262144,112,-56,-1,-1,0
1523612835766,458752,112,-56,-1,-1,0
1523612835806,327680,112,-56,-1,-1,0
1523612835806,131072,112,-56,-1,-1,0
1523612835806,-196608,112,-56,-1,-1,0
1523612835806,-393216,112,-56,-1,-1,0
1523612835806,-458752,112,-56,-1,-1,0
1523612835846,-524288,112,-56,-1,-1,0
1523612835846,-786432,112,-56,-1,-1,0
1523612835846,-917504,112,-56,-1,-1,0
1523612835846,-786432,112,-56,-1,-1,0
1523612835846,-851968,112,-56,-1,-1,0
1523612835886,-851968,112,-56,-1,-1,0
1523612835886,-720896,112,-56,-1,-1,0
1523612835886,-589824,112,-56,-1,-1,0
1523612835886,-851968,112,-56,-1,-1,0
1523612835886,-917504,112,-56,-1,-1,0
1523612835926,-589824,112,-56,-1,-1,0
1523612835926,-262144,112,-56,-1,-1,0
1523612835926,-327680,112,-56,-1,-1,0
1523612835926,-524288,112,-56,-1,-1,0
1523612835926,-327680,112,-56,-1,-1,0
1523612835966,-196608,112,-56,-1,-1,0
1523612835966,-393216,112,-56,-1,-1,0
1523612835966,-458752,112,-56,-1,-1,0
1523612835966,-262144,112,-56,-1,-1,0
1523612835966,-327680,112,-56,-1,-1,0
1523612836006,-458752,112,-56,-1,-1,0
1523612836006,-327680,112,-56,-1,-1,0
1523612836006,-196608,112,-56,-1,-1,0
1523612836006,-393216,112,-56,-1,-1,0
1523612836006,-458752,112,-56,-1,-1,0
1523612836046,-458752,112,-56,-1,-1,0
1523612836046,-458752,112,-56,-1,-1,0
1523612836046,-393216,112,-56,-1,-1,0
1523612836046,-262144,112,-56,-1,-1,0
1523612836046,-393216,112,-56,-1,-1,0
1523612836086,-655360,112,-56,-1,-1,0
1523612836086,-720896,112,-56,-1,-1,0
1523612836086,-1114112,112,-56,-1,-1,0
1523612836086,-327680,112,-56,-1,-1,0
1523612836086,2359296,112,-56,-1,-1,0
1523612836126,5767168,112,-56,-1,-1,0
1523612836126,6029312,112,-56,-1,-1,0
1523612836126,3145728,112,-56,-1,-1,0
1523612836126,0,112,-56,-1,-1,0
1523612836126,-1376256,112,-56,-1,-1,0
1523612836167,-1572864,112,-56,-1,-1,0
1523612836167,-720896,112,-56,-1,-1,0
1523612836167,-131072,112,-56,-1,-1,0
1523612836167,-458752,112,-56,-1,-1,0
1523612836167,-786432,112,-56,-1,-1,0
1523612836206,-393216,112,-56,-1,-1,0
1523612836206,131072,112,-56,-1,-1,0
1523612836206,327680,112,-56,-1,-1,0
1523612836206,0,112,-56,-1,-1,0
1523612836206,-262144,112,-56,-1,-1,0
1523612836246,0,112,-56,-1,-1,0
1523612836246,458752,112,-56,-1,-1,0
1523612836246,589824,112,-56,-1,-1,0
1523612836246,589824,112,-56,-1,-1,0
1523612836246,524288,112,-56,-1,-1,0
1523612836286,917504,112,-56,-1,-1,0
1523612836286,1245184,112,-56,-1,-1,0
1523612836286,1376256,112,-56,-1,-1,0
1523612836286,1441792,112,-56,-1,-1,0
1523612836286,1507328,112,-56,-1,-1,0
1523612836326,1376256,112,-56,-1,-1,0
1523612836326,1376256,112,-56,-1,-1,0
1523612836326,1376256,112,-56,-1,-1,0
1523612836326,917504,112,-56,-1,-1,0
1523612836326,524288,112,-56,-1,-1,0
1523612836366,524288,112,-56,-1,-1,0
1523612836366,196608,112,-56,-1,-1,0
1523612836366,-65536,112,-56,-1,-1,0
1523612836366,131072,112,-56,-1,-1,0
1523612836366,196608,112,-56,-1,-1,0
1523612836406,0,112,-56,-1,-1,0
1523612836406,65536,112,-56,-1,-1,0
1523612836406,196608,112,-56,-1,-1,0
1523612836406,131072,112,-56,-1,-1,0
1523612836406,0,112,-56,-1,-1,0
1523612836446,65536,112,-56,-1,-1,0
1523612836446,131072,112,-56,-1,-1,0
1523612836446,65536,112,-56,-1,-1,0
1523612836446,0,112,-56,-1,-1,0
1523612836446,327680,112,-56,-1,-1,0
1523612836487,589824,112,-56,-1,-1,0
1523612836487,589824,112,-56,-1,-1,0
1523612836487,524288,112,-56,-1,-1,0
1523612836487,524288,112,-56,-1,-1,0
1523612836487,393216,112,-56,-1,-1,0
1523612836526,458752,112,-56,-1,-1,0
1523612836526,589824,112,-56,-1,-1,0
1523612836526,589824,112,-56,-1,-1,0
1523612836526,655360,112,-56,-1,-1,0
1523612836526,655360,112,-56,-1,-1,0
1523612836566,720896,112,-56,-1,-1,0
1523612836566,655360,112,-56,-1,-1,0
1523612836566,589824,112,-56,-1,-1,0
1523612836566,589824,112,-56,-1,-1,0
1523612836566,458752,112,-56,-1,-1,0
1523612836606,393216,112,-56,-1,-1,0
1523612836606,524288,112,-56,-1,-1,0
1523612836606,327680,112,-56,-1,-1,0
1523612836606,0,112,-56,-1,-1,0
1523612836606,-262144,112,-56,-1,-1,0
1523612836646,196608,112,-56,-1,-1,0
1523612836646,2424832,112,-56,-1,-1,0
1523612836646,5767168,112,-56,-1,-1,0
1523612836646,7405568,112,-56,-1,-1,0
1523612836646,5177344,112,-56,-1,-1,0
1523612836686,1703936,112,-56,-1,-1,0
1523612836686,0,112,-56,-1,-1,0
1523612836686,-262144,112,-56,-1,-1,0
1523612836686,-196608,112,-56,-1,-1,0
1523612836686,65536,112,-56,-1,-1,0
1523612836726,327680,112,-56,-1,-1,0
1523612836726,458752,112,-56,-1,-1,0
1523612836726,589824,112,-56,-1,-1,0
1523612836726,589824,112,-56,-1,-1,0
1523612836726,589824,112,-56,-1,-1,0
1523612836766,655360,112,-56,-1,-1,0
1523612836766,720896,112,-56,-1,-1,0
1523612836766,786432,112,-56,-1,-1,0
1523612836766,851968,112,-56,-1,-1,0
1523612836766,917504,112,-56,-1,-1,0
1523612836807,1114112,112,-56,-1,-1,0
1523612836807,1441792,112,-56,-1,-1,0
1523612836807,1703936,112,-56,-1,-1,0
1523612836807,1900544,112,-56,-1,-1,0
1523612836807,2031616,112,-56,-1,-1,0
1523612836846,2162688,112,-56,-1,-1,0
1523612836846,2031616,112,-56,-1,-1,0
1523612836846,1900544,112,-56,-1,-1,0
1523612836846,1769472,112,-56,-1,-1,0
1523612836846,1769472,112,-56,-1,-1,0
1523612836886,1638400,112,-56,-1,-1,0
1523612836886,1310720,112,-56,-1,-1,0
1523612836886,983040,112,-56,-1,-1,0
1523612836886,786432,112,-56,-1,-1,0
1523612836886,589824,112,-56,-1,-1,0
1523612836926,262144,112,-56,-1,-1,0
1523612836926,131072,112,-56,-1,-1,0
1523612836926,131072,112,-56,-1,-1,0
1523612836926,0,112,-56,-1,-1,0
1523612836926,-65536,112,-56,-1,-1,0
1523612836966,0,112,-56,-1,-1,0
1523612836966,0,112,-56,-1,-1,0
1523612836966,-131072,112,-56,-1,-1,0
1523612836966,-131072,112,-56,-1,-1,0
1523612836966,0,112,-56,-1,-1,0
1523612837006,-65536,111,-56,-1,-1,0
1523612837006,-196608,111,-56,-1,-1,0
1523612837006,-196608,111,-56,-1,-1,0
1523612837006,0,111,-56,-1,-1,0
1523612837006,65536,111,-56,-1,-1,0
1523612837046,-65536,111,-56,-1,-1,0
1523612837046,-131072,111,-56,-1,-1,0
1523612837046,131072,111,-56,-1,-1,0
1523612837046,196608,111,-56,-1,-1,0
1523612837046,0,111,-56,-1,-1,0
1523612837086,-196608,111,-56,-1,-1,0
1523612837086,-131072,111,-56,-1,-1,0
1523612837086,-65536,111,-56,-1,-1,0
1523612837086,-196608,111,-56,-1,-1,0
1523612837086,-393216,111,-56,-1,-1,0
1523612837126,-327680,111,-56,-1,-1,0
1523612837126,-393216,111,-56,-1,-1,0
1523612837126,-393216,111,-56,-1,-1,0
1523612837126,-524288,111,-56,-1,-1,0
1523612837126,-786432,111,-56,-1,-1,0
1523612837166,-1245184,111,-56,-1,-1,0
1523612837166,-1245184,111,-56,-1,-1,0
1523612837166,65536,111,-56,-1,-1,0
1523612837166,3014656,111,-56,-1,-1,0
1523612837166,6160384,111,-56,-1,-1,0
1523612837206,6094848,111,-56,-1,-1,0
1523612837206,2686976,111,-56,-1,-1,0
1523612837206,-524288,111,-56,-1,-1,0
1523612837206,-1507328,111,-56,-1,-1,0
1523612837206,-1310720,111,-56,-1,-1,0
1523612837246,-655360,111,-56,-1,-1,0
1523612837246,-196608,111,-56,-1,-1,0
1523612837246,-196608,111,-56,-1,-1,0
1523612837246,-262144,111,-56,-1,-1,0
1523612837246,65536,111,-56,-1,-1,0
1523612837286,458752,111,-56,-1,-1,0
1523612837286,393216,111,-56,-1,-1,0
1523612837286,196608,111,-56,-1,-1,0
1523612837286,131072,111,-56,-1,-1,0
1523612837286,327680,111,-56,-1,-1,0
1523612837326,655360,111,-56,-1,-1,0
1523612837326,1114112,111,-56,-1,-1,0
1523612837326,1376256,111,-56,-1,-1,0
1523612837326,1507328,111,-56,-1,-1,0
1523612837326,1769472,111,-56,-1,-1,0
1523612837366,1900544,111,-56,-1,-1,0
1523612837366,1835008,111,-56,-1,-1,0
1523612837366,1703936,111,-56,-1,-1,0
1523612837366,1900544,111,-56,-1,-1,0
1523612837366,1900544,111,-56,-1,-1,0
1523612837406,1703936,111,-56,-1,-1,0
1523612837406,1310720,111,-56,-1,-1,0
1523612837406,1245184,111,-56,-1,-1,0
1523612837406,1114112,111,-56,-1,-1,0
1523612837406,983040,111,-56,-1,-1,0
1523612837447,720896,111,-56,-1,-1,0
1523612837447,393216,111,-56,-1,-1,0
1523612837447,131072,111,-56,-1,-1,0
1523612837447,65536,111,-56,-1,-1,0
1523612837447,0,111,-56,-1,-1,0
1523612837486,-196608,111,-56,-1,-1,0
1523612837486,-131072,111,-56,-1,-1,0
1523612837486,0,111,-56,-1,-1,0
1523612837486,0,111,-56,-1,-1,0
1523612837486,-65536,111,-56,-1,-1,0
1523612837526,-262144,111,-56,-1,-1,0
1523612837526,-327680,111,-56,-1,-1,0
1523612837526,-262144,111,-56,-1,-1,0
1523612837526,-196608,111,-56,-1,-1,0
1523612837526,-393216,111,-56,-1,-1,0
1523612837566,-720896,111,-56,-1,-1,0
1523612837566,-720896,111,-56,-1,-1,0
1523612837566,-524288,111,-56,-1,-1,0
1523612837566,-393216,111,-56,-1,-1,0
1523612837566,-458752,111,-56,-1,-1,0
1523612837606,-524288,111,-56,-1,-1,0
1523612837606,-589824,111,-56,-1,-1,0
1523612837606,-589824,111,-56,-1,-1,0
1523612837606,-524288,111,-56,-1,-1,0
1523612837606,-524288,111,-56,-1,-1,0
1523612837646,-524288,111,-56,-1,-1,0
1523612837646,-393216,111,-56,-1,-1,0
1523612837646,-655360,111,-56,-1,-1,0
1523612837646,-851968,111,-56,-1,-1,0
1523612837646,-720896,111,-56,-1,-1,0
1523612837686,-393216,111,-56,-1,-1,0
1523612837686,-589824,111,-56,-1,-1,0
1523612837686,-1310720,111,-56,-1,-1,0
1523612837686,-1703936,111,-56,-1,-1,0
1523612837686,-458752,111,-56,-1,-1,0
1523612837726,2752512,111,-56,-1,-1,0
1523612837726,5701632,111,-56,-1,-1,0
1523612837726,5046272,111,-56,-1,-1,0
1523612837726,1703936,111,-56,-1,-1,0
1523612837726,-1114112,111,-56,-1,-1,0
1523612837766,-2228224,111,-56,-1,-1,0
1523612837766,-2424832,111,-56,-1,-1,0
1523612837766,-1900544,111,-56,-1,-1,0
1523612837766,-1376256,111,-56,-1,-1,0
1523612837766,-1245184,111,-56,-1,-1,0
1523612837806,-1310720,111,-56,-1,-1,0
1523612837806,-1179648,111,-56,-1,-1,0
1523612837806,-1048576,111,-56,-1,-1,0
1523612837806,-983040,111,-56,-1,-1,0
1523612837806,-917504,111,-56,-1,-1,0
1523612837846,-917504,111,-56,-1,-1,0
1523612837846,-786432,111,-56,-1,-1,0
1523612837846,-720896,111,-56,-1,-1,0
1523612837846,-327680,111,-56,-1,-1,0
1523612837846,-131072,111,-56,-1,-1,0
1523612837886,131072,111,-56,-1,-1,0
1523612837886,327680,111,-56,-1,-1,0
1523612837886,655360,111,-56,-1,-1,0
1523612837886,655360,111,-56,-1,-1,0
1523612837886,720896,111,-56,-1,-1,0
1523612837925,983040,111,-56,-1,-1,0
1523612837925,786432,111,-56,-1,-1,0
1523612837925,524288,111,-56,-1,-1,0
1523612837925,458752,111,-56,-1,-1,0
1523612837925,458752,111,-56,-1,-1,0
1523612837967,196608,111,-56,-1,-1,0
1523612837967,-327680,111,-56,-1,-1,0
1523612837967,-589824,111,-56,-1,-1,0
1523612837967,-655360,111,-56,-1,-1,0
1523612837967,-458752,111,-56,-1,-1,0
1523612838005,-393216,111,-56,-1,-1,0
1523612838005,-393216,111,-56,-1,-1,0
1523612838005,-589824,111,-56,-1,-1,0
1523612838005,-655360,111,-56,-1,-1,0
1523612838005,-786432,111,-56,-1,-1,0
1523612838045,-655360,111,-56,-1,-1,0
1523612838045,-393216,111,-56,-1,-1,0
1523612838045,-393216,111,-56,-1,-1,0
1523612838045,-327680,111,-56,-1,-1,0
1523612838045,-196608,111,-56,-1,-1,0
1523612838087,-131072,111,-56,-1,-1,0
1523612838087,-196608,111,-56,-1,-1,0
1523612838087,-196608,111,-56,-1,-1,0
1523612838087,-196608,111,-56,-1,-1,0
1523612838087,-196608,111,-56,-1,-1,0
1523612838125,-131072,111,-56,-1,-1,0
1523612838125,-196608,111,-56,-1,-1,0
1523612838125,0,111,-56,-1,-1,0
1523612838125,131072,111,-56,-1,-1,0
1523612838125,196608,111,-56,-1,-1,0
1523612838165,-131072,111,-56,-1,-1,0
1523612838165,-524288,111,-56,-1,-1,0
1523612838165,-589824,111,-56,-1,-1,0
1523612838165,-327680,111,-56,-1,-1,0
1523612838165,-131072,111,-56,-1,-1,0
1523612838205,-65536,111,-56,-1,-1,0
1523612838205,-131072,111,-56,-1,-1,0
1523612838205,-65536,111,-56,-1,-1,0
1523612838205,-655360,111,-56,-1,-1,0
1523612838205,-1245184,111,-56,-1,-1,0
1523612838245,0,111,-56,-1,-1,0
1523612838245,3538944,111,-56,-1,-1,0
1523612838245,6488064,111,-56,-1,-1,0
1523612838245,5701632,111,-56,-1,-1,0
1523612838245,1769472,111,-56,-1,-1,0
1523612838285,-1376256,111,-56,-1,-1,0
1523612838285,-2162688,111,-56,-1,-1,0
1523612838285,-1966080,111,-56,-1,-1,0
1523612838285,-1703936,111,-56,-1,-1,0
1523612838285,-1245184,111,-56,-1,-1,0
1523612838325,-655360,111,-56,-1,-1,0
1523612838325,-327680,111,-56,-1,-1,0
1523612838325,-589824,111,-56,-1,-1,0
1523612838325,-655360,111,-56,-1,-1,0
1523612838325,-327680,111,-56,-1,-1,0
1523612838365,0,111,-56,-1,-1,0
1523612838365,-262144,111,-56,-1,-1,0
1523612838365,-262144,111,-56,-1,-1,0
1523612838365,-393216,111,-56,-1,-1,0
1523612838365,-327680,111,-56,-1,-1,0
1523612838405,-65536,111,-56,-1,-1,0
1523612838405,524288,111,-56,-1,-1,0
1523612838405,655360,111,-56,-1,-1,0
1523612838405,720896,111,-56,-1,-1,0
1523612838405,589824,111,-56,-1,-1,0
1523612838445,393216,111,-56,-1,-1,0
1523612838445,393216,111,-56,-1,-1,0
1523612838445,524288,111,-56,-1,-1,0
1523612838445,327680,111,-56,-1,-1,0
1523612838445,-262144,111,-56,-1,-1,0
1523612838485,-393216,111,-56,-1,-1,0
1523612838485,131072,111,-56,-1,-1,0
1523612838485,-131072,111,-56,-1,-1,0
1523612838485,-720896,111,-56,-1,-1,0
1523612838485,-1572864,111,-56,-1,-1,0
1523612838525,-1703936,111,-56,-1,-1,0
1523612838525,-1572864,111,-56,-1,-1,0
1523612838525,-1179648,111,-56,-1,-1,0
1523612838525,-1376256,111,-56,-1,-1,0
1523612838525,-1310720,111,-56,-1,-1,0
1523612838565,-1441792,111,-56,-1,-1,0
1523612838565,-1703936,111,-56,-1,-1,0
1523612838565,-1245184,111,-56,-1,-1,0
1523612838565,-851968,111,-56,-1,-1,0
1523612838565,-1179648,111,-56,-1,-1,0
1523612838605,-1245184,111,-56,-1,-1,0
1523612838605,-589824,111,-56,-1,-1,0
1523612838605,-524288,111,-56,-1,-1,0
1523612838605,-1048576,111,-56,-1,-1,0
1523612838605,-1245184,111,-56,-1,-1,0
1523612838645,-1376256,111,-56,-1,-1,0
1523612838645,-1179648,111,-56,-1,-1,0
1523612838645,-851968,111,-56,-1,-1,0
1523612838645,-393216,111,-56,-1,-1,0
1523612838645,-589824,111,-56,-1,-1,0
1523612838685,-917504,111,-56,-1,-1,0
1523612838685,-1638400,111,-56,-1,-1,0
1523612838685,-1638400,111,-56,-1,-1,0
1523612838685,-1179648,111,-56,-1,-1,0
1523612838685,-786432,111,-56,-1,-1,0
1523612838727,-786432,111,-56,-1,-1,0
1523612838727,-1179648,111,-56,-1,-1,0
1523612838727,-1638400,111,-56,-1,-1,0
1523612838727,-1900544,111,-56,-1,-1,0
1523612838727,-1966080,111,-56,-1,-1,0
1523612838765,-2097152,111,-56,-1,-1,0
1523612838765,-1507328,111,-56,-1,-1,0
1523612838765,655360,111,-56,-1,-1,0
1523612838765,3997696,111,-56,-1,-1,0
1523612838765,5373952,111,-56,-1,-1,0
1523612838805,2686976,111,-56,-1,-1,0
1523612838805,-655360,111,-56,-1,-1,0
1523612838805,-2490368,111,-56,-1,-1,0
1523612838805,-2686976,111,-56,-1,-1,0
1523612838805,-2359296,111,-56,-1,-1,0
1523612838845,-1507328,111,-56,-1,-1,0
1523612838845,-1572864,111,-56,-1,-1,0
1523612838845,-1572864,111,-56,-1,-1,0
1523612838845,-1441792,111,-56,-1,-1,0
1523612838845,-1179648,111,-56,-1,-1,0
1523612838885,-786432,111,-56,-1,-1,0
1523612838885,-131072,111,-56,-1,-1,0
1523612838885,-655360,111,-56,-1,-1,0
1523612838885,-983040,111,-56,-1,-1,0
1523612838885,-917504,111,-56,-1,-1,0
1523612838925,-983040,111,-56,-1,-1,0
1523612838925,-327680,111,-56,-1,-1,0
1523612838925,458752,111,-56,-1,-1,0
1523612838925,524288,111,-56,-1,-1,0
1523612838925,196608,111,-56,-1,-1,0
1523612838965,65536,111,-56,-1,-1,0
1523612838965,524288,111,-56,-1,-1,0
1523612838965,851968,111,-56,-1,-1,0
1523612838965,655360,111,-56,-1,-1,0
1523612838965,262144,111,-56,-1,-1,0
1523612839005,131072,111,-56,-1,-1,0
1523612839005,-65536,111,-56,-1,-1,0
1523612839005,-917504,111,-56,-1,-1,0
1523612839005,-1048576,111,-56,-1,-1,0
1523612839005,-589824,111,-56,-1,-1,0
1523612839045,-196608,111,-56,-1,-1,0
1523612839045,-983040,111,-56,-1,-1,0
1523612839045,-1703936,111,-56,-1,-1,0
1523612839045,-1638400,111,-56,-1,-1,0
1523612839045,-1376256,111,-56,-1,-1,0
1523612839085,-1703936,111,-56,-1,-1,0
1523612839085,-1703936,111,-56,-1,-1,0
1523612839085,-1376256,111,-56,-1,-1,0
1523612839085,-1507328,111,-56,-1,-1,0
1523612839085,-1441792,111,-56,-1,-1,0
1523612839125,-1376256,112,-56,-1,-1,0
1523612839125,-1179648,112,-56,-1,-1,0
1523612839125,-1376256,112,-56,-1,-1,0
1523612839125,-1310720,112,-56,-1,-1,0
1523612839125,-1179648,112,-56,-1,-1,0
1523612839166,-1310720,112,-56,-1,-1,0
1523612839166,-1507328,112,-56,-1,-1,0
1523612839166,-1441792,112,-56,-1,-1,0
1523612839166,-1507328,112,-56,-1,-1,0
1523612839166,-1376256,112,-56,-1,-1,0
1523612839205,-786432,112,-56,-1,-1,0
1523612839205,-851968,112,-56,-1,-1,0
1523612839205,-1507328,112,-56,-1,-1,0
1523612839205,-1900544,112,-56,-1,-1,0
1523612839205,-1638400,112,-56,-1,-1,0
1523612839246,-1245184,112,-56,-1,-1,0
1523612839246,-1441792,112,-56,-1,-1,0
1523612839246,-1507328,112,-56,-1,-1,0
1523612839246,-1703936,112,-56,-1,-1,0
1523612839246,-1376256,112,-56,-1,-1,0
1523612839287,-983040,112,-56,-1,-1,0
1523612839287,-2031616,112,-56,-1,-1,0
1523612839287,-2686976,112,-56,-1,-1,0
1523612839287,-524288,112,-56,-1,-1,0
1523612839287,3276800,112,-56,-1,-1,0
1523612839327,5308416,112,-56,-1,-1,0
1523612839327,3997696,112,-56,-1,-1,0
1523612839327,720896,112,-56,-1,-1,0
1523612839327,-1572864,112,-56,-1,-1,0
1523612839327,-2490368,112,-56,-1,-1,0
1523612839368,-2228224,112,-56,-1,-1,0
1523612839368,-1572864,112,-56,-1,-1,0
1523612839368,-1572864,112,-56,-1,-1,0
1523612839368,-1310720,112,-56,-1,-1,0
1523612839368,-786432,112,-56,-1,-1,0
1523612839405,-458752,112,-56,-1,-1,0
1523612839405,-983040,112,-56,-1,-1,0
1523612839405,-1114112,112,-56,-1,-1,0
1523612839405,-1048576,112,-56,-1,-1,0
1523612839405,-655360,112,-56,-1,-1,0
1523612839445,-65536,112,-56,-1,-1,0
1523612839445,262144,112,-56,-1,-1,0
1523612839445,131072,112,-56,-1,-1,0
1523612839445,0,112,-56,-1,-1,0
1523612839445,-131072,112,-56,-1,-1,0
1523612839487,262144,112,-56,-1,-1,0
1523612839487,851968,112,-56,-1,-1,0
1523612839487,1048576,112,-56,-1,-1,0
1523612839487,589824,112,-56,-1,-1,0
1523612839487,655360,112,-56,-1,-1,0
1523612839525,1114112,112,-56,-1,-1,0
1523612839525,1441792,112,-56,-1,-1,0
1523612839525,786432,112,-56,-1,-1,0
1523612839525,0,112,-56,-1,-1,0
1523612839525,-327680,112,-56,-1,-1,0
1523612839565,-196608,112,-56,-1,-1,0
1523612839565,-131072,112,-56,-1,-1,0
1523612839565,-393216,112,-56,-1,-1,0
1523612839565,-589824,112,-56,-1,-1,0
1523612839565,-589824,112,-56,-1,-1,0
1523612839605,-589824,112,-56,-1,-1,0
1523612839605,-851968,112,-56,-1,-1,0
1523612839605,-1245184,112,-56,-1,-1,0
1523612839605,-983040,112,-56,-1,-1,0
1523612839605,-393216,112,-56,-1,-1,0
1523612839646,-720896,112,-56,-1,-1,0
1523612839646,-917504,112,-56,-1,-1,0
1523612839646,-131072,112,-56,-1,-1,0
1523612839646,-65536,112,-56,-1,-1,0
1523612839646,-786432,112,-56,-1,-1,0
1523612839685,-1048576,112,-56,-1,-1,0
1523612839685,-720896,112,-56,-1,-1,0
1523612839685,-196608,112,-56,-1,-1,0
1523612839685,-524288,112,-56,-1,-1,0
1523612839685,-393216,112,-56,-1,-1,0
1523612839725,65536,112,-56,-1,-1,0
1523612839725,524288,112,-56,-1,-1,0
1523612839725,65536,112,-56,-1,-1,0
1523612839725,-131072,112,-56,-1,-1,0
1523612839725,-262144,112,-56,-1,-1,0
1523612839765,-458752,112,-56,-1,-1,0
1523612839765,-851968,112,-56,-1,-1,0
1523612839765,-393216,112,-56,-1,-1,0
1523612839765,131072,112,-56,-1,-1,0
1523612839765,131072,112,-56,-1,-1,0
1523612839806,-327680,112,-56,-1,-1,0
1523612839806,-458752,112,-56,-1,-1,0
1523612839806,-458752,112,-56,-1,-1,0
1523612839806,-1441792,112,-56,-1,-1,0
1523612839806,-1572864,112,-56,-1,-1,0
1523612839845,0,112,-56,-1,-1,0
1523612839845,3342336,112,-56,-1,-1,0
1523612839845,6356992,112,-56,-1,-1,0
1523612839845,6029312,112,-56,-1,-1,0
1523612839845,2555904,112,-56,-1,-1,0
1523612839889,-1048576,112,-56,-1,-1,0
1523612839889,-1900544,112,-56,-1,-1,0
1523612839889,-1310720,112,-56,-1,-1,0
1523612839889,-917504,112,-56,-1,-1,0
1523612839889,-1048576,112,-56,-1,-1,0
1523612839925,-786432,112,-56,-1,-1,0
1523612839925,-131072,112,-56,-1,-1,0
1523612839925,0,112,-56,-1,-1,0
1523612839925,-131072,112,-56,-1,-1,0
1523612839925,0,112,-56,-1,-1,0
1523612839965,65536,112,-56,-1,-1,0
1523612839965,-131072,112,-56,-1,-1,0
1523612839965,65536,112,-56,-1,-1,0
1523612839965,458752,112,-56,-1,-1,0
1523612839965,458752,112,-56,-1,-1,0
1523612840010,327680,112,-56,-1,-1,0
1523612840010,131072,112,-56,-1,-1,0
1523612840010,589824,112,-56,-1,-1,0
1523612840010,1507328,112,-56,-1,-1,0
1523612840010,2031616,112,-56,-1,-1,0
1523612840047,1769472,112,-56,-1,-1,0
1523612840047,1310720,112,-56,-1,-1,0
1523612840047,1310720,112,-56,-1,-1,0
1523612840047,917504,112,-56,-1,-1,0
1523612840047,524288,112,-56,-1,-1,0
1523612840085,262144,112,-56,-1,-1,0
1523612840085,393216,112,-56,-1,-1,0
1523612840085,393216,112,-56,-1,-1,0
1523612840085,262144,112,-56,-1,-1,0
1523612840085,0,112,-56,-1,-1,0
1523612840127,-327680,112,-56,-1,-1,0
1523612840127,-589824,112,-56,-1,-1,0
1523612840127,-589824,112,-56,-1,-1,0
1523612840127,-458752,112,-56,-1,-1,0
1523612840127,-131072,112,-56,-1,-1,0
1523612840165,-65536,112,-56,-1,-1,0
1523612840165,-393216,112,-56,-1,-1,0
1523612840165,-393216,112,-56,-1,-1,0
1523612840165,-65536,112,-56,-1,-1,0
1523612840165,-131072,112,-56,-1,-1,0
1523612840206,-458752,112,-56,-1,-1,0
1523612840206,-327680,112,-56,-1,-1,0
1523612840206,-65536,112,-56,-1,-1,0
1523612840206,-262144,112,-56,-1,-1,0
1523612840206,-196608,112,-56,-1,-1,0
1523612840245,65536,112,-56,-1,-1,0
1523612840245,0,112,-56,-1,-1,0
1523612840245,-327680,112,-56,-1,-1,0
1523612840245,65536,112,-56,-1,-1,0
1523612840245,393216,112,-56,-1,-1,0
1523612840286,0,112,-56,-1,-1,0
1523612840286,-458752,112,-56,-1,-1,0
1523612840286,-262144,112,-56,-1,-1,0
1523612840286,-131072,112,-56,-1,-1,0
1523612840286,-65536,112,-56,-1,-1,0
1523612840325,-196608,112,-56,-1,-1,0
1523612840325,-524288,112,-56,-1,-1,0
1523612840325,-655360,112,-56,-1,-1,0
1523612840325,0,112,-56,-1,-1,0
1523612840325,-65536,112,-56,-1,-1,0
1523612840365,-1114112,112,-56,-1,-1,0
1523612840365,-1376256,112,-56,-1,-1,0
1523612840365,327680,112,-56,-1,-1,0
1523612840365,3735552,112,-56,-1,-1,0
1523612840365,6160384,112,-56,-1,-1,0
1523612840405,5505024,112,-56,-1,-1,0
1523612840405,2031616,112,-56,-1,-1,0
1523612840405,-851968,112,-56,-1,-1,0
1523612840405,-1638400,112,-56,-1,-1,0
1523612840405,-1376256,112,-56,-1,-1,0
1523612840445,-1310720,112,-56,-1,-1,0
1523612840445,-917504,112,-56,-1,-1,0
1523612840445,-196608,112,-56,-1,-1,0
1523612840445,0,112,-56,-1,-1,0
1523612840445,-196608,112,-56,-1,-1,0
1523612840485,-458752,112,-56,-1,-1,0
1523612840485,-327680,112,-56,-1,-1,0
1523612840485,131072,112,-56,-1,-1,0
1523612840485,589824,112,-56,-1,-1,0
1523612840485,458752,112,-56,-1,-1,0
1523612840525,262144,112,-56,-1,-1,0
1523612840525,327680,112,-56,-1,-1,0
1523612840525,720896,112,-56,-1,-1,0
1523612840525,1114112,112,-56,-1,-1,0
1523612840525,1179648,112,-56,-1,-1,0
1523612840565,917504,112,-56,-1,-1,0
1523612840565,917504,112,-56,-1,-1,0
1523612840565,1441792,112,-56,-1,-1,0
1523612840565,1769472,112,-56,-1,-1,0
1523612840565,1245184,112,-56,-1,-1,0
1523612840605,1179648,112,-56,-1,-1,0
1523612840605,1245184,112,-56,-1,-1,0
1523612840605,917504,112,-56,-1,-1,0
1523612840605,327680,112,-56,-1,-1,0
1523612840605,-131072,112,-56,-1,-1,0
1523612840647,0,112,-56,-1,-1,0
1523612840647,196608,112,-56,-1,-1,0
1523612840647,0,112,-56,-1,-1,0
1523612840647,-262144,112,-56,-1,-1,0
1523612840647,-458752,112,-56,-1,-1,0
1523612840685,-720896,112,-56,-1,-1,0
1523612840685,-655360,112,-56,-1,-1,0
1523612840685,-393216,112,-56,-1,-1,0
1523612840685,-327680,112,-56,-1,-1,0
1523612840685,-196608,112,-56,-1,-1,0
1523612840725,-262144,112,-56,-1,-1,0
1523612840725,-327680,112,-56,-1,-1,0
1523612840725,-393216,112,-56,-1,-1,0
1523612840725,-131072,112,-56,-1,-1,0
1523612840725,-131072,112,-56,-1,-1,0
1523612840767,-655360,112,-56,-1,-1,0
1523612840767,-917504,112,-56,-1,-1,0
1523612840767,-655360,112,-56,-1,-1,0
1523612840767,-196608,112,-56,-1,-1,0
1523612840767,0,112,-56,-1,-1,0
1523612840805,-131072,112,-56,-1,-1,0
1523612840805,-327680,112,-56,-1,-1,0
1523612840805,-196608,112,-56,-1,-1,0
1523612840805,-131072,112,-56,-1,-1,0
1523612840805,-589824,112,-56,-1,-1,0
1523612840845,-786432,112,-56,-1,-1,0
1523612840845,-720896,112,-56,-1,-1,0
1523612840845,-589824,112,-56,-1,-1,0
1523612840845,-655360,112,-56,-1,-1,0
1523612840845,-786432,112,-56,-1,-1,0
1523612840885,-917504,112,-56,-1,-1,0
1523612840885,-1245184,112,-56,-1,-1,0
1523612840885,-1310720,112,-56,-1,-1,0
1523612840885,-589824,112,-56,-1,-1,0
1523612840885,1769472,112,-56,-1,-1,0
1523612840925,4718592,112,-56,-1,-1,0
1523612840925,4980736,112,-56,-1,-1,0
1523612840925,1966080,112,-56,-1,-1,0
1523612840925,-983040,112,-56,-1,-1,0
1523612840925,-2228224,112,-56,-1,-1,0
1523612840965,-2424832,112,-56,-1,-1,0
1523612840965,-1900544,112,-56,-1,-1,0
1523612840965,-1572864,112,-56,-1,-1,0
1523612840965,-1572864,112,-56,-1,-1,0
1523612840965,-1376256,112,-56,-1,-1,0
1523612841005,-1114112,112,-56,-1,-1,0
1523612841005,-983040,112,-56,-1,-1,0
1523612841005,-786432,112,-56,-1,-1,0
1523612841005,-786432,112,-56,-1,-1,0
1523612841005,-786432,112,-56,-1,-1,0
1523612841045,-917504,112,-56,-1,-1,0
1523612841045,-786432,112,-56,-1,-1,0
1523612841045,-524288,112,-56,-1,-1,0
1523612841045,-327680,112,-56,-1,-1,0
1523612841045,-196608,112,-56,-1,-1,0
1523612841085,65536,112,-56,-1,-1,0
1523612841085,262144,112,-56,-1,-1,0
1523612841085,131072,112,-56,-1,-1,0
1523612841085,65536,112,-56,-1,-1,0
1523612841085,327680,112,-56,-1,-1,0
1523612841125,327680,112,-56,-1,-1,0
1523612841125,65536,112,-56,-1,-1,0
1523612841125,0,112,-56,-1,-1,0
1523612841125,-196608,112,-56,-1,-1,0
1523612841125,-655360,112,-56,-1,-1,0
1523612841165,-851968,112,-56,-1,-1,0
1523612841165,-983040,112,-56,-1,-1,0
1523612841165,-983040,112,-56,-1,-1,0
1523612841165,-1048576,112,-56,-1,-1,0
1523612841165,-1441792,112,-56,-1,-1,0
1523612841205,-1638400,112,-56,-1,-1,0
1523612841205,-1572864,112,-56,-1,-1,0
1523612841205,-1572864,112,-56,-1,-1,0
1523612841205,-1703936,112,-56,-1,-1,0
1523612841205,-1572864,112,-56,-1,-1,0
1523612841245,-1179648,112,-56,-1,-1,0
1523612841245,-1114112,112,-56,-1,-1,0
1523612841245,-1245184,112,-56,-1,-1,0
1523612841245,-1441792,112,-56,-1,-1,0
1523612841245,-1376256,112,-56,-1,-1,0
1523612841287,-1245184,112,-56,-1,-1,0
1523612841287,-1048576,112,-56,-1,-1,0
1523612841287,-917504,112,-56,-1,-1,0
1523612841287,-983040,112,-56,-1,-1,0
1523612841287,-1179648,112,-56,-1,-1,0
1523612841325,-1114112,112,-56,-1,-1,0
1523612841325,-917504,112,-56,-1,-1,0
1523612841325,-983040,112,-56,-1,-1,0
1523612841325,-1114112,112,-56,-1,-1,0
1523612841325,-1179648,112,-56,-1,-1,0
1523612841365,-1048576,112,-56,-1,-1,0
1523612841365,-1114112,112,-56,-1,-1,0
1523612841365,-1179648,112,-56,-1,-1,0
1523612841365,-1310720,112,-56,-1,-1,0
1523612841365,-1376256,112,-56,-1,-1,0
1523612841405,-1179648,112,-56,-1,-1,0
1523612841405,-1245184,112,-56,-1,-1,0
1523612841405,-1638400,112,-56,-1,-1,0
1523612841405,-1835008,112,-56,-1,-1,0
1523612841405,-589824,112,-56,-1,-1,0
1523612841445,2555904,112,-56,-1,-1,0
1523612841445,5701632,112,-56,-1,-1,0
1523612841445,5242880,112,-56,-1,-1,0
1523612841445,1572864,112,-56,-1,-1,0
1523612841445,-1572864,112,-56,-1,-1,0
1523612841485,-2490368,112,-56,-1,-1,0
1523612841485,-2162688,112,-56,-1,-1,0
1523612841485,-1572864,112,-56,-1,-1,0
1523612841485,-1179648,112,-56,-1,-1,0
1523612841485,-1179648,112,-56,-1,-1,0
1523612841525,-1048576,112,-56,-1,-1,0
1523612841525,-589824,112,-56,-1,-1,0
1523612841525,-458752,112,-56,-1,-1,0
1523612841525,-589824,112,-56,-1,-1,0
1523612841525,-458752,112,-56,-1,-1,0
1523612841565,-131072,112,-56,-1,-1,0
1523612841565,0,112,-56,-1,-1,0
1523612841565,0,112,-56,-1,-1,0
1523612841565,-65536,112,-56,-1,-1,0
1523612841565,0,112,-56,-1,-1,0
1523612841605,327680,112,-56,-1,-1,0
1523612841605,983040,112,-56,-1,-1,0
1523612841605,983040,112,-56,-1,-1,0
1523612841605,786432,112,-56,-1,-1,0
1523612841605,851968,112,-56,-1,-1,0
1523612841645,1310720,112,-56,-1,-1,0
1523612841645,1441792,112,-56,-1,-1,0
1523612841645,1114112,112,-56,-1,-1,0
1523612841645,589824,112,-56,-1,-1,0
1523612841645,262144,112,-56,-1,-1,0
1523612841685,65536,112,-56,-1,-1,0
1523612841685,0,112,-56,-1,-1,0
1523612841685,-196608,112,-56,-1,-1,0
1523612841685,0,112,-56,-1,-1,0
1523612841685,65536,112,-56,-1,-1,0
1523612841725,-327680,112,-56,-1,-1,0
1523612841725,-720896,112,-56,-1,-1,0
1523612841725,-720896,112,-56,-1,-1,0
1523612841725,-458752,112,-56,-1,-1,0
1523612841725,-327680,112,-56,-1,-1,0
1523612841765,-196608,112,-56,-1,-1,0
1523612841765,-196608,112,-56,-1,-1,0
1523612841765,-131072,112,-56,-1,-1,0
1523612841765,0,112,-56,-1,-1,0
1523612841765,131072,112,-56,-1,-1,0
1523612841805,65536,112,-56,-1,-1,0
1523612841805,0,112,-56,-1,-1,0
1523612841805,65536,112,-56,-1,-1,0
1523612841805,524288,112,-56,-1,-1,0
1523612841805,851968,112,-56,-1,-1,0
1523612841845,983040,112,-56,-1,-1,0
1523612841845,655360,112,-56,-1,-1,0
1523612841845,589824,112,-56,-1,-1,0
1523612841845,655360,112,-56,-1,-1,0
1523612841845,720896,112,-56,-1,-1,0
1523612841885,1048576,112,-56,-1,-1,0
1523612841885,1048576,112,-56,-1,-1,0
1523612841885,720896,112,-56,-1,-1,0
1523612841885,786432,112,-56,-1,-1,0
1523612841885,655360,112,-56,-1,-1,0
1523612841927,458752,112,-56,-1,-1,0
1523612841927,589824,112,-56,-1,-1,0
1523612841927,262144,112,-56,-1,-1,0
1523612841927,-589824,112,-56,-1,-1,0
1523612841927,655360,112,-56,-1,-1,0
1523612841965,4390912,112,-56,-1,-1,0
1523612841965,6881280,112,-56,-1,-1,0
1523612841965,5242880,112,-56,-1,-1,0
1523612841965,1179648,112,-56,-1,-1,0
1523612841965,-1572864,112,-56,-1,-1,0
1523612842005,-2293760,112,-56,-1,-1,0
1523612842005,-1835008,112,-56,-1,-1,0
1523612842005,-1114112,112,-56,-1,-1,0
1523612842005,-917504,112,-56,-1,-1,0
1523612842005,-851968,112,-56,-1,-1,0
1523612842045,-589824,112,-56,-1,-1,0
1523612842045,-655360,112,-56,-1,-1,0
1523612842045,-655360,112,-56,-1,-1,0
1523612842045,-262144,112,-56,-1,-1,0
1523612842045,-196608,112,-56,-1,-1,0
1523612842085,-327680,112,-56,-1,-1,0
1523612842085,-65536,112,-56,-1,-1,0
1523612842085,65536,112,-56,-1,-1,0
1523612842085,524288,112,-56,-1,-1,0
1523612842085,786432,112,-56,-1,-1,0
1523612842125,1114112,112,-56,-1,-1,0
1523612842125,1376256,112,-56,-1,-1,0
1523612842125,1835008,112,-56,-1,-1,0
1523612842125,2097152,112,-56,-1,-1,0
1523612842125,1900544,112,-56,-1,-1,0
1523612842165,1900544,112,-56,-1,-1,0
1523612842165,1966080,112,-56,-1,-1,0
1523612842165,1900544,112,-56,-1,-1,0
1523612842165,1507328,112,-56,-1,-1,0
1523612842165,1376256,112,-56,-1,-1,0
1523612842206,1048576,112,-56,-1,-1,0
1523612842206,720896,112,-56,-1,-1,0
1523612842206,655360,112,-56,-1,-1,0
1523612842206,524288,112,-56,-1,-1,0
1523612842206,458752,112,-56,-1,-1,0
1523612842245,458752,112,-56,-1,-1,0
1523612842245,262144,112,-56,-1,-1,0
1523612842245,65536,112,-56,-1,-1,0
1523612842245,65536,112,-56,-1,-1,0
1523612842245,0,112,-56,-1,-1,0
1523612842285,196608,112,-56,-1,-1,0
1523612842285,524288,112,-56,-1,-1,0
1523612842285,327680,112,-56,-1,-1,0
1523612842285,393216,112,-56,-1,-1,0
1523612842285,524288,112,-56,-1,-1,0
1523612842325,589824,112,-56,-1,-1,0
1523612842325,327680,112,-56,-1,-1,0
1523612842325,589824,112,-56,-1,-1,0
1523612842325,983040,112,-56,-1,-1,0
1523612842325,917504,112,-56,-1,-1,0
1523612842365,524288,112,-56,-1,-1,0
1523612842365,393216,112,-56,-1,-1,0
1523612842365,524288,112,-56,-1,-1,0
1523612842365,524288,112,-56,-1,-1,0
1523612842365,589824,112,-56,-1,-1,0
1523612842405,589824,112,-56,-1,-1,0
1523612842405,262144,112,-56,-1,-1,0
1523612842405,-262144,112,-56,-1,-1,0
1523612842405,-262144,112,-56,-1,-1,0
1523612842405,-65536,112,-56,-1,-1,0
1523612842445,-262144,112,-56,-1,-1,0
1523612842445,-851968,112,-56,-1,-1,0
1523612842445,-589824,112,-56,-1,-1,0
1523612842445,1179648,112,-56,-1,-1,0
1523612842445,4718592,112,-56,-1,-1,0
1523612842487,7405568,112,-56,-1,-1,0
1523612842487,5767168,112,-56,-1,-1,0
1523612842487,1638400,112,-56,-1,-1,0
1523612842487,-1048576,112,-56,-1,-1,0
1523612842487,-1638400,112,-56,-1,-1,0
1523612842526,-1310720,112,-56,-1,-1,0
1523612842526,-655360,112,-56,-1,-1,0
1523612842526,-262144,112,-56,-1,-1,0
1523612842526,-131072,112,-56,-1,-1,0
1523612842526,131072,112,-56,-1,-1,0
1523612842568,262144,112,-56,-1,-1,0
1523612842568,196608,112,-56,-1,-1,0
1523612842568,131072,112,-56,-1,-1,0
1523612842568,524288,112,-56,-1,-1,0
1523612842568,524288,112,-56,-1,-1,0
1523612842606,196608,112,-56,-1,-1,0
1523612842606,0,112,-56,-1,-1,0
1523612842606,196608,112,-56,-1,-1,0
1523612842606,196608,112,-56,-1,-1,0
1523612842606,524288,112,-56,-1,-1,0
1523612842645,1048576,112,-56,-1,-1,0
1523612842645,917504,112,-56,-1,-1,0
1523612842645,589824,112,-56,-1,-1,0
1523612842645,720896,112,-56,-1,-1,0
1523612842645,786432,112,-56,-1,-1,0
1523612842685,393216,112,-56,-1,-1,0
1523612842685,-65536,112,-56,-1,-1,0
1523612842685,-524288,112,-56,-1,-1,0
1523612842685,-917504,112,-56,-1,-1,0
1523612842685,-1048576,112,-56,-1,-1,0
1523612842725,-1572864,112,-56,-1,-1,0
1523612842725,-1966080,112,-56,-1,-1,0
1523612842725,-2162688,112,-56,-1,-1,0
1523612842725,-2162688,112,-56,-1,-1,0
1523612842725,-2293760,112,-56,-1,-1,0
1523612842765,-1703936,112,-56,-1,-1,0
1523612842765,-1572864,112,-56,-1,-1,0
1523612842765,-1703936,112,-56,-1,-1,0
1523612842765,-1769472,112,-56,-1,-1,0
1523612842765,-1507328,112,-56,-1,-1,0
1523612842805,-1245184,112,-56,-1,-1,0
1523612842805,-1114112,112,-56,-1,-1,0
1523612842805,-983040,112,-56,-1,-1,0
1523612842805,-851968,112,-56,-1,-1,0
1523612842805,-655360,112,-56,-1,-1,0
1523612842846,-655360,112,-56,-1,-1,0
1523612842846,-720896,112,-56,-1,-1,0
1523612842846,-655360,112,-56,-1,-1,0
1523612842846,-458752,112,-56,-1,-1,0
1523612842846,-393216,112,-56,-1,-1,0
1523612842885,-589824,112,-56,-1,-1,0
1523612842885,-655360,112,-56,-1,-1,0
1523612842885,-458752,112,-56,-1,-1,0
1523612842885,-196608,112,-56,-1,-1,0
1523612842885,-458752,112,-56,-1,-1,0
1523612842925,-720896,112,-56,-1,-1,0
1523612842925,-720896,112,-56,-1,-1,0
1523612842925,-589824,112,-56,-1,-1,0
1523612842925,-917504,112,-56,-1,-1,0
1523612842925,-720896,112,-56,-1,-1,0
1523612842965,-786432,112,-56,-1,-1,0
1523612842965,-1245184,112,-56,-1,-1,0
1523612842965,-720896,112,-56,-1,-1,0
1523612842965,2031616,112,-56,-1,-1,0
1523612842965,5570560,112,-56,-1,-1,0
1523612843006,6291456,112,-56,-1,-1,0
1523612843006,3276800,112,-56,-1,-1,0
1523612843006,-131072,112,-56,-1,-1,0
1523612843006,-1900544,112,-56,-1,-1,0
1523612843006,-2162688,112,-56,-1,-1,0
1523612843045,-1572864,112,-56,-1,-1,0
1523612843045,-917504,112,-56,-1,-1,0
1523612843045,-655360,112,-56,-1,-1,0
1523612843045,-458752,112,-56,-1,-1,0
1523612843045,-327680,112,-56,-1,-1,0
1523612843086,-393216,112,-56,-1,-1,0
1523612843086,-393216,112,-56,-1,-1,0
1523612843086,-262144,112,-56,-1,-1,0
1523612843086,-65536,112,-56,-1,-1,0
1523612843086,0,112,-56,-1,-1,0
1523612843125,0,112,-56,-1,-1,0
1523612843125,196608,112,-56,-1,-1,0
1523612843125,458752,112,-56,-1,-1,0
1523612843125,655360,112,-56,-1,-1,0
1523612843125,983040,112,-56,-1,-1,0
1523612843166,1507328,112,-56,-1,-1,0
1523612843166,1835008,112,-56,-1,-1,0
1523612843166,1441792,112,-56,-1,-1,0
1523612843166,1245184,112,-56,-1,-1,0
1523612843166,1572864,112,-56,-1,-1,0
1523612843207,1441792,112,-56,-1,-1,0
1523612843207,983040,112,-56,-1,-1,0
1523612843207,786432,112,-56,-1,-1,0
1523612843207,851968,112,-56,-1,-1,0
1523612843207,524288,112,-56,-1,-1,0
1523612843245,131072,112,-56,-1,-1,0
1523612843245,-131072,112,-56,-1,-1,0
1523612843245,-65536,112,-56,-1,-1,0
1523612843245,-196608,112,-56,-1,-1,0
1523612843245,-65536,112,-56,-1,-1,0
1523612843285,65536,112,-56,-1,-1,0
1523612843285,-327680,112,-56,-1,-1,0
1523612843285,-720896,112,-56,-1,-1,0
1523612843285,-589824,112,-56,-1,-1,0
1523612843285,-262144,112,-56,-1,-1,0
1523612843325,-262144,112,-56,-1,-1,0
1523612843325,-131072,112,-56,-1,-1,0
1523612843325,-196608,112,-56,-1,-1,0
1523612843325,-131072,112,-56,-1,-1,0
1523612843325,-65536,112,-56,-1,-1,0
1523612843365,0,112,-56,-1,-1,0
1523612843365,-65536,112,-56,-1,-1,0
1523612843365,0,112,-56,-1,-1,0
1523612843365,0,112,-56,-1,-1,0
1523612843365,-196608,112,-56,-1,-1,0
1523612843406,-131072,112,-56,-1,-1,0
1523612843406,0,112,-56,-1,-1,0
1523612843406,65536,112,-56,-1,-1,0
1523612843406,-196608,112,-56,-1,-1,0
1523612843406,-458752,112,-56,-1,-1,0
1523612843445,-458752,112,-56,-1,-1,0
1523612843445,-393216,112,-56,-1,-1,0
1523612843445,-393216,112,-56,-1,-1,0
1523612843445,-327680,112,-56,-1,-1,0
1523612843445,-327680,112,-56,-1,-1,0
1523612843486,-720896,112,-56,-1,-1,0
1523612843486,-1179648,112,-56,-1,-1,0
1523612843486,-983040,112,-56,-1,-1,0
1523612843486,458752,112,-56,-1,-1,0
1523612843486,3538944,112,-56,-1,-1,0
1523612843525,6094848,112,-56,-1,-1,0
1523612843525,5242880,112,-56,-1,-1,0
1523612843525,1769472,112,-56,-1,-1,0
1523612843525,-1048576,112,-56,-1,-1,0
1523612843525,-1835008,112,-56,-1,-1,0
1523612843566,-1638400,112,-56,-1,-1,0
1523612843566,-1245184,112,-56,-1,-1,0
1523612843566,-917504,112,-56,-1,-1,0
1523612843566,-720896,112,-56,-1,-1,0
1523612843566,-655360,112,-56,-1,-1,0
1523612843605,-524288,112,-56,-1,-1,0
1523612843605,-524288,112,-56,-1,-1,0
1523612843605,-589824,112,-56,-1,-1,0
1523612843605,-458752,112,-56,-1,-1,0
1523612843605,-196608,112,-56,-1,-1,0
1523612843646,-131072,112,-56,-1,-1,0
1523612843646,-131072,112,-56,-1,-1,0
1523612843646,0,112,-56,-1,-1,0
1523612843646,65536,112,-56,-1,-1,0
1523612843646,327680,112,-56,-1,-1,0
1523612843685,589824,112,-56,-1,-1,0
1523612843685,720896,112,-56,-1,-1,0
1523612843685,786432,112,-56,-1,-1,0
1523612843685,786432,112,-56,-1,-1,0
1523612843685,786432,112,-56,-1,-1,0
1523612843726,786432,112,-56,-1,-1,0
1523612843726,655360,112,-56,-1,-1,0
1523612843726,458752,112,-56,-1,-1,0
1523612843726,131072,112,-56,-1,-1,0
1523612843726,-65536,112,-56,-1,-1,0
1523612843765,-262144,112,-56,-1,-1,0
1523612843765,-327680,112,-56,-1,-1,0
1523612843765,-393216,112,-56,-1,-1,0
1523612843765,-458752,112,-56,-1,-1,0
1523612843765,-524288,112,-56,-1,-1,0
1523612843806,-589824,112,-56,-1,-1,0
1523612843806,-720896,112,-56,-1,-1,0
1523612843806,-720896,112,-56,-1,-1,0
1523612843806,-720896,112,-56,-1,-1,0
1523612843806,-655360,112,-56,-1,-1,0
1523612843847,-589824,112,-56,-1,-1,0
1523612843847,-524288,112,-56,-1,-1,0
1523612843847,-524288,112,-56,-1,-1,0
1523612843847,-524288,112,-56,-1,-1,0
1523612843847,-458752,112,-56,-1,-1,0
1523612843886,-393216,112,-56,-1,-1,0
1523612843886,-393216,112,-56,-1,-1,0
1523612843886,-393216,112,-56,-1,-1,0
1523612843886,-262144,112,-56,-1,-1,0
1523612843886,-131072,112,-56,-1,-1,0
1523612843927,-65536,112,-56,-1,-1,0
1523612843927,-65536,112,-56,-1,-1,0
1523612843927,-65536,112,-56,-1,-1,0
1523612843927,-196608,112,-56,-1,-1,0
1523612843927,-262144,112,-56,-1,-1,0
1523612843965,-262144,112,-56,-1,-1,0
1523612843965,-262144,112,-56,-1,-1,0
1523612843965,-262144,112,-56,-1,-1,0
1523612843965,-262144,112,-56,-1,-1,0
1523612843965,-196608,112,-56,-1,-1,0
1523612844005,-262144,112,-56,-1,-1,0
1523612844005,-655360,112,-56,-1,-1,0
1523612844005,-1114112,112,-56,-1,-1,0
1523612844005,-393216,112,-56,-1,-1,0
1523612844005,2228224,112,-56,-1,-1,0
1523612844046,5636096,112,-56,-1,-1,0
1523612844046,6291456,112,-56,-1,-1,0
1523612844046,3407872,112,-56,-1,-1,0
1523612844046,0,112,-56,-1,-1,0
1523612844046,-1638400,112,-56,-1,-1,0
1523612844085,-1769472,112,-56,-1,-1,0
1523612844085,-1376256,112,-56,-1,-1,0
1523612844085,-786432,112,-56,-1,-1,0
1523612844085,-458752,112,-56,-1,-1,0
1523612844085,-262144,112,-56,-1,-1,0
1523612844126,-262144,112,-56,-1,-1,0
1523612844126,-262144,112,-56,-1,-1,0
1523612844126,-196608,112,-56,-1,-1,0
1523612844126,-196608,112,-56,-1,-1,0
1523612844126,-131072,112,-56,-1,-1,0
1523612844166,0,112,-56,-1,-1,0
1523612844166,65536,112,-56,-1,-1,0
1523612844166,131072,112,-56,-1,-1,0
1523612844166,327680,112,-56,-1,-1,0
1523612844166,524288,112,-56,-1,-1,0
1523612844206,655360,112,-56,-1,-1,0
1523612844206,786432,112,-56,-1,-1,0
1523612844206,983040,112,-56,-1,-1,0
1523612844206,1114112,112,-56,-1,-1,0
1523612844206,1114112,112,-56,-1,-1,0
1523612844245,917504,112,-56,-1,-1,0
1523612844245,786432,112,-56,-1,-1,0
1523612844245,589824,112,-56,-1,-1,0
1523612844245,327680,112,-56,-1,-1,0
1523612844245,0,112,-56,-1,-1,0
1523612844286,-196608,112,-56,-1,-1,0
1523612844286,-327680,112,-56,-1,-1,0
1523612844286,-458752,112,-56,-1,-1,0
1523612844286,-589824,112,-56,-1,-1,0
1523612844286,-720896,112,-56,-1,-1,0
1523612844325,-786432,113,-56,-1,-1,0
1523612844325,-851968,113,-56,-1,-1,0
1523612844325,-851968,113,-56,-1,-1,0
1523612844325,-851968,113,-56,-1,-1,0
1523612844325,-786432,113,-56,-1,-1,0
1523612844365,-720896,113,-56,-1,-1,0
1523612844365,-589824,113,-56,-1,-1,0
1523612844365,-524288,113,-56,-1,-1,0
1523612844365,-524288,113,-56,-1,-1,0
1523612844365,-524288,113,-56,-1,-1,0
1523612844405,-524288,113,-56,-1,-1,0
1523612844405,-524288,113,-56,-1,-1,0
1523612844405,-393216,113,-56,-1,-1,0
1523612844405,-262144,113,-56,-1,-1,0
1523612844405,-196608,113,-56,-1,-1,0
1523612844446,-327680,113,-56,-1,-1,0
1523612844446,-393216,113,-56,-1,-1,0
1523612844446,-458752,113,-56,-1,-1,0
1523612844446,-524288,113,-56,-1,-1,0
1523612844446,-589824,113,-56,-1,-1,0
1523612844486,-589824,113,-56,-1,-1,0
1523612844486,-589824,113,-56,-1,-1,0
1523612844486,-589824,113,-56,-1,-1,0
1523612844486,-589824,113,-56,-1,-1,0
1523612844486,-655360,113,-56,-1,-1,0
1523612844526,-917504,113,-56,-1,-1,0
1523612844526,-1441792,113,-56,-1,-1,0
1523612844526,-1310720,113,-56,-1,-1,0
1523612844526,589824,113,-56,-1,-1,0
1523612844526,4128768,113,-56,-1,-1,0
1523612844565,6225920,113,-56,-1,-1,0
1523612844565,4325376,113,-56,-1,-1,0
1523612844565,524288,113,-56,-1,-1,0
1523612844565,-1769472,113,-56,-1,-1,0
1523612844565,-2228224,113,-56,-1,-1,0
1523612844606,-1966080,113,-56,-1,-1,0
1523612844606,-1376256,113,-56,-1,-1,0
1523612844606,-786432,113,-56,-1,-1,0
1523612844606,-524288,113,-56,-1,-1,0
1523612844606,-393216,113,-56,-1,-1,0
1523612844645,-327680,113,-56,-1,-1,0
1523612844645,-262144,113,-56,-1,-1,0
1523612844645,-196608,113,-56,-1,-1,0
1523612844645,-65536,113,-56,-1,-1,0
1523612844645,65536,113,-56,-1,-1,0
1523612844686,131072,113,-56,-1,-1,0
1523612844686,131072,113,-56,-1,-1,0
1523612844686,262144,113,-56,-1,-1,0
1523612844686,524288,113,-56,-1,-1,0
1523612844686,786432,113,-56,-1,-1,0
1523612844725,1048576,113,-56,-1,-1,0
1523612844725,1245184,113,-56,-1,-1,0
1523612844725,1310720,113,-56,-1,-1,0
1523612844725,1310720,113,-56,-1,-1,0
1523612844725,1245184,113,-56,-1,-1,0
1523612844766,1114112,113,-56,-1,-1,0
1523612844766,917504,113,-56,-1,-1,0
1523612844766,655360,113,-56,-1,-1,0
1523612844766,393216,113,-56,-1,-1,0
1523612844766,196608,113,-56,-1,-1,0
1523612844805,0,113,-56,-1,-1,0
1523612844805,-196608,113,-56,-1,-1,0
1523612844805,-327680,113,-56,-1,-1,0
1523612844805,-458752,113,-56,-1,-1,0
1523612844805,-589824,113,-56,-1,-1,0
1523612844846,-589824,113,-56,-1,-1,0
1523612844846,-655360,113,-56,-1,-1,0
1523612844846,-589824,113,-56,-1,-1,0
1523612844846,-589824,113,-56,-1,-1,0
1523612844846,-524288,113,-56,-1,-1,0
1523612844885,-524288,113,-56,-1,-1,0
1523612844885,-393216,113,-56,-1,-1,0
1523612844885,-327680,113,-56,-1,-1,0
1523612844885,-262144,113,-56,-1,-1,0
1523612844885,-262144,113,-56,-1,-1,0
1523612844926,-196608,113,-56,-1,-1,0
1523612844926,-131072,113,-56,-1,-1,0
1523612844926,0,113,-56,-1,-1,0
1523612844926,0,113,-56,-1,-1,0
1523612844926,0,113,-56,-1,-1,0
1523612844965,-65536,113,-56,-1,-1,0
1523612844965,-131072,113,-56,-1,-1,0
1523612844965,-262144,113,-56,-1,-1,0
1523612844965,-262144,113,-56,-1,-1,0
1523612844965,-262144,113,-56,-1,-1,0
1523612845006,-262144,113,-56,-1,-1,0
1523612845006,-262144,113,-56,-1,-1,0
1523612845006,-327680,113,-56,-1,-1,0
1523612845006,-393216,113,-56,-1,-1,0
1523612845006,-851968,113,-56,-1,-1,0
1523612845045,-1179648,113,-56,-1,-1,0
1523612845045,-262144,113,-56,-1,-1,0
1523612845045,2686976,113,-56,-1,-1,0
1523612845045,6029312,113,-56,-1,-1,0
1523612845045,6291456,113,-56,-1,-1,0
1523612845086,3080192,113,-56,-1,-1,0
1523612845086,-262144,113,-56,-1,-1,0
1523612845086,-1572864,113,-56,-1,-1,0
1523612845086,-1572864,113,-56,-1,-1,0
1523612845086,-1114112,113,-56,-1,-1,0
1523612845127,-720896,113,-56,-1,-1,0
1523612845127,-458752,113,-56,-1,-1,0
1523612845127,-327680,113,-56,-1,-1,0
1523612845127,-262144,113,-56,-1,-1,0
1523612845127,-196608,113,-56,-1,-1,0
1523612845166,-65536,113,-56,-1,-1,0
1523612845166,0,113,-56,-1,-1,0
1523612845166,0,113,-56,-1,-1,0
1523612845166,0,113,-56,-1,-1,0
1523612845166,196608,113,-56,-1,-1,0
1523612845205,327680,113,-56,-1,-1,0
1523612845205,458752,113,-56,-1,-1,0
1523612845205,720896,113,-56,-1,-1,0
1523612845205,983040,113,-56,-1,-1,0
1523612845205,1179648,113,-56,-1,-1,0
1523612845246,1310720,113,-56,-1,-1,0
1523612845246,1376256,113,-56,-1,-1,0
1523612845246,1376256,113,-56,-1,-1,0
1523612845246,1245184,113,-56,-1,-1,0
1523612845246,1114112,113,-56,-1,-1,0
1523612845285,851968,113,-56,-1,-1,0
1523612845285,589824,113,-56,-1,-1,0
1523612845285,393216,113,-56,-1,-1,0
1523612845285,196608,113,-56,-1,-1,0
1523612845285,0,113,-56,-1,-1,0
1523612845326,-65536,113,-56,-1,-1,0
1523612845326,-131072,113,-56,-1,-1,0
1523612845326,-262144,113,-56,-1,-1,0
1523612845326,-327680,113,-56,-1,-1,0
1523612845326,-393216,113,-56,-1,-1,0
1523612845365,-393216,113,-56,-1,-1,0
1523612845365,-393216,113,-56,-1,-1,0
1523612845365,-327680,113,-56,-1,-1,0
1523612845365,-327680,113,-56,-1,-1,0
1523612845365,-327680,113,-56,-1,-1,0
1523612845407,-327680,113,-56,-1,-1,0
1523612845407,-262144,113,-56,-1,-1,0
1523612845407,-262144,113,-56,-1,-1,0
1523612845407,-131072,113,-56,-1,-1,0
1523612845407,-65536,113,-56,-1,-1,0
1523612845445,-65536,113,-56,-1,-1,0
1523612845445,0,113,-56,-1,-1,0
1523612845445,-65536,113,-56,-1,-1,0
1523612845445,-65536,113,-56,-1,-1,0
1523612845445,-196608,113,-56,-1,-1,0
1523612845486,-262144,113,-56,-1,-1,0
1523612845486,-393216,113,-56,-1,-1,0
1523612845486,-393216,113,-56,-1,-1,0
1523612845486,-393216,113,-56,-1,-1,0
1523612845486,-393216,113,-56,-1,-1,0
1523612845525,-393216,113,-56,-1,-1,0
1523612845525,-458752,113,-56,-1,-1,0
1523612845525,-917504,113,-56,-1,-1,0
1523612845525,-1310720,113,-56,-1,-1,0
1523612845525,-458752,113,-56,-1,-1,0
1523612845566,2359296,113,-56,-1,-1,0
1523612845566,5701632,113,-56,-1,-1,0
1523612845566,6029312,113,-56,-1,-1,0
1523612845566,2818048,113,-56,-1,-1,0
1523612845566,-458752,113,-56,-1,-1,0
1523612845605,-1769472,113,-56,-1,-1,0
1523612845605,-1769472,113,-56,-1,-1,0
1523612845605,-1376256,113,-56,-1,-1,0
1523612845605,-917504,113,-56,-1,-1,0
1523612845605,-720896,113,-56,-1,-1,0
1523612845646,-655360,113,-56,-1,-1,0
1523612845646,-589824,113,-56,-1,-1,0
1523612845646,-524288,113,-56,-1,-1,0
1523612845646,-458752,113,-56,-1,-1,0
1523612845646,-327680,113,-56,-1,-1,0
1523612845686,-262144,113,-56,-1,-1,0
1523612845686,-196608,113,-56,-1,-1,0
1523612845686,-131072,113,-56,-1,-1,0
1523612845686,0,113,-56,-1,-1,0
1523612845686,131072,113,-56,-1,-1,0
1523612845726,327680,113,-56,-1,-1,0
1523612845726,524288,113,-56,-1,-1,0
1523612845726,786432,113,-56,-1,-1,0
1523612845726,851968,113,-56,-1,-1,0
1523612845726,917504,113,-56,-1,-1,0
1523612845767,851968,113,-56,-1,-1,0
1523612845767,786432,113,-56,-1,-1,0
1523612845767,720896,113,-56,-1,-1,0
1523612845767,524288,113,-56,-1,-1,0
1523612845767,262144,113,-56,-1,-1,0
1523612845806,0,113,-56,-1,-1,0
1523612845806,-196608,113,-56,-1,-1,0
1523612845806,-393216,113,-56,-1,-1,0
1523612845806,-524288,113,-56,-1,-1,0
1523612845806,-589824,113,-56,-1,-1,0
1523612845846,-589824,113,-56,-1,-1,0
1523612845846,-589824,113,-56,-1,-1,0
1523612845846,-655360,113,-56,-1,-1,0
1523612845846,-720896,113,-56,-1,-1,0
1523612845846,-720896,113,-56,-1,-1,0
1523612845886,-720896,114,-56,-1,-1,0
1523612845886,-655360,114,-56,-1,-1,0
1523612845886,-589824,114,-56,-1,-1,0
1523612845886,-655360,114,-56,-1,-1,0
1523612845886,-589824,114,-56,-1,-1,0
1523612845926,-589824,114,-56,-1,-1,0
1523612845926,-524288,114,-56,-1,-1,0
1523612845926,-458752,114,-56,-1,-1,0
1523612845926,-393216,114,-56,-1,-1,0
1523612845926,-327680,114,-56,-1,-1,0
1523612845966,-262144,114,-56,-1,-1,0
1523612845966,-262144,114,-56,-1,-1,0
1523612845966,-393216,114,-56,-1,-1,0
1523612845966,-524288,114,-56,-1,-1,0
1523612845966,-589824,114,-56,-1,-1,0
1523612846006,-589824,114,-56,-1,-1,0
1523612846006,-655360,114,-56,-1,-1,0
1523612846006,-655360,114,-56,-1,-1,0
1523612846006,-720896,114,-56,-1,-1,0
1523612846006,-655360,114,-56,-1,-1,0
1523612846046,-720896,114,-56,-1,-1,0
1523612846046,-1114112,114,-56,-1,-1,0
1523612846046,-1507328,114,-56,-1,-1,0
1523612846046,-720896,114,-56,-1,-1,0
1523612846046,1966080,114,-56,-1,-1,0
1523612846086,5242880,114,-56,-1,-1,0
1523612846086,5636096,114,-56,-1,-1,0
1523612846086,2621440,114,-56,-1,-1,0
1523612846086,-655360,114,-56,-1,-1,0
1523612846086,-2031616,114,-56,-1,-1,0
1523612846126,-2031616,114,-56,-1,-1,0
1523612846126,-1572864,114,-56,-1,-1,0
1523612846126,-1048576,114,-56,-1,-1,0
1523612846126,-786432,114,-56,-1,-1,0
1523612846126,-720896,114,-56,-1,-1,0
1523612846166,-655360,114,-56,-1,-1,0
1523612846166,-524288,114,-56,-1,-1,0
1523612846166,-458752,114,-56,-1,-1,0
1523612846166,-327680,114,-56,-1,-1,0
1523612846166,-262144,114,-56,-1,-1,0
1523612846206,-196608,114,-56,-1,-1,0
1523612846206,-196608,114,-56,-1,-1,0
1523612846206,-65536,114,-56,-1,-1,0
1523612846206,131072,114,-56,-1,-1,0
1523612846206,327680,114,-56,-1,-1,0
1523612846246,589824,114,-56,-1,-1,0
1523612846246,720896,114,-56,-1,-1,0
1523612846246,851968,114,-56,-1,-1,0
1523612846246,983040,114,-56,-1,-1,0
1523612846246,983040,114,-56,-1,-1,0
1523612846286,917504,114,-56,-1,-1,0
1523612846286,786432,114,-56,-1,-1,0
1523612846286,589824,114,-56,-1,-1,0
1523612846286,327680,114,-56,-1,-1,0
1523612846286,65536,114,-56,-1,-1,0
1523612846326,-131072,114,-56,-1,-1,0
1523612846326,-327680,114,-56,-1,-1,0
1523612846326,-458752,114,-56,-1,-1,0
1523612846326,-524288,114,-56,-1,-1,0
1523612846326,-589824,114,-56,-1,-1,0
1523612846366,-655360,114,-56,-1,-1,0
1523612846366,-655360,114,-56,-1,-1,0
1523612846366,-589824,114,-56,-1,-1,0
1523612846366,-589824,114,-56,-1,-1,0
1523612846366,-524288,114,-56,-1,-1,0
1523612846407,-458752,114,-56,-1,-1,0
1523612846407,-393216,114,-56,-1,-1,0
1523612846407,-393216,114,-56,-1,-1,0
1523612846407,-262144,114,-56,-1,-1,0
1523612846407,-262144,114,-56,-1,-1,0
1523612846446,-262144,114,-56,-1,-1,0
1523612846446,-196608,114,-56,-1,-1,0
1523612846446,-65536,114,-56,-1,-1,0
1523612846446,0,114,-56,-1,-1,0
1523612846446,0,114,-56,-1,-1,0
1523612846486,0,114,-56,-1,-1,0
1523612846486,0,114,-56,-1,-1,0
1523612846486,-65536,114,-56,-1,-1,0
1523612846486,-131072,114,-56,-1,-1,0
1523612846486,-262144,114,-56,-1,-1,0
1523612846526,-262144,114,-56,-1,-1,0
1523612846526,-262144,114,-56,-1,-1,0
1523612846526,-262144,114,-56,-1,-1,0
1523612846526,-327680,114,-56,-1,-1,0
1523612846526,-393216,114,-56,-1,-1,0
1523612846566,-589824,114,-56,-1,-1,0
1523612846566,-1114112,114,-56,-1,-1,0
1523612846566,-1179648,114,-56,-1,-1,0
1523612846566,524288,114,-56,-1,-1,0
1523612846566,3932160,114,-56,-1,-1,0
1523612846606,6422528,114,-56,-1,-1,0
1523612846606,5046272,114,-56,-1,-1,0
1523612846606,1310720,114,-56,-1,-1,0
1523612846606,-1310720,114,-56,-1,-1,0
1523612846606,-1900544,114,-56,-1,-1,0
1523612846646,-1703936,114,-56,-1,-1,0
1523612846646,-1245184,114,-56,-1,-1,0
1523612846646,-786432,114,-56,-1,-1,0
1523612846646,-524288,114,-56,-1,-1,0
1523612846646,-393216,114,-56,-1,-1,0
1523612846686,-393216,114,-56,-1,-1,0
1523612846686,-327680,114,-56,-1,-1,0
1523612846686,-262144,114,-56,-1,-1,0
1523612846686,-262144,114,-56,-1,-1,0
1523612846686,-131072,114,-56,-1,-1,0
1523612846726,0,114,-56,-1,-1,0
1523612846726,65536,114,-56,-1,-1,0
1523612846726,196608,114,-56,-1,-1,0
1523612846726,393216,114,-56,-1,-1,0
1523612846726,589824,114,-56,-1,-1,0
1523612846766,851968,114,-56,-1,-1,0
1523612846766,1048576,114,-56,-1,-1,0
1523612846766,1114112,114,-56,-1,-1,0
1523612846766,1179648,114,-56,-1,-1,0
1523612846766,1114112,114,-56,-1,-1,0
1523612846806,983040,114,-56,-1,-1,0
1523612846806,851968,114,-56,-1,-1,0
1523612846806,655360,114,-56,-1,-1,0
1523612846806,393216,114,-56,-1,-1,0
1523612846806,65536,114,-56,-1,-1,0
1523612846846,-131072,114,-56,-1,-1,0
1523612846846,-327680,114,-56,-1,-1,0
1523612846846,-458752,114,-56,-1,-1,0
1523612846846,-589824,114,-56,-1,-1,0
1523612846846,-655360,114,-56,-1,-1,0
1523612846886,-720896,115,-56,-1,-1,0
1523612846886,-720896,115,-56,-1,-1,0
1523612846886,-720896,115,-56,-1,-1,0
1523612846886,-720896,115,-56,-1,-1,0
1523612846886,-655360,115,-56,-1,-1,0
1523612846926,-589824,115,-56,-1,-1,0
1523612846926,-589824,115,-56,-1,-1,0
1523612846926,-589824,115,-56,-1,-1,0
1523612846926,-458752,115,-56,-1,-1,0
1523612846926,-393216,115,-56,-1,-1,0
1523612846966,-327680,115,-56,-1,-1,0
1523612846966,-131072,115,-56,-1,-1,0
1523612846966,0,115,-56,-1,-1,0
1523612846966,131072,115,-56,-1,-1,0
1523612846966,0,115,-56,-1,-1,0
1523612847005,-131072,115,-56,-1,-1,0
1523612847005,-327680,115,-56,-1,-1,0
1523612847005,-393216,115,-56,-1,-1,0
1523612847005,-458752,115,-56,-1,-1,0
1523612847005,-393216,115,-56,-1,-1,0
1523612847047,-393216,115,-56,-1,-1,0
1523612847047,-458752,115,-56,-1,-1,0
1523612847047,-458752,115,-56,-1,-1,0
1523612847047,-458752,115,-56,-1,-1,0
1523612847047,-655360,115,-56,-1,-1,0
1523612847085,-1114112,115,-56,-1,-1,0
1523612847085,-917504,115,-56,-1,-1,0
1523612847085,1179648,115,-56,-1,-1,0
1523612847085,4718592,115,-56,-1,-1,0
1523612847085,6488064,115,-56,-1,-1,0
1523612847125,4325376,115,-56,-1,-1,0
1523612847125,589824,115,-56,-1,-1,0
1523612847125,-1441792,115,-56,-1,-1,0
1523612847125,-1769472,115,-56,-1,-1,0
1523612847125,-1441792,115,-56,-1,-1,0
1523612847165,-917504,115,-56,-1,-1,0
1523612847165,-589824,115,-56,-1,-1,0
1523612847165,-458752,115,-56,-1,-1,0
1523612847165,-327680,115,-56,-1,-1,0
1523612847165,-262144,115,-56,-1,-1,0
1523612847205,-196608,115,-56,-1,-1,0
1523612847205,-131072,115,-56,-1,-1,0
1523612847205,-65536,115,-56,-1,-1,0
1523612847205,-65536,115,-56,-1,-1,0
1523612847205,0,115,-56,-1,-1,0
1523612847245,65536,115,-56,-1,-1,0
1523612847245,196608,115,-56,-1,-1,0
1523612847245,458752,115,-56,-1,-1,0
1523612847245,655360,115,-56,-1,-1,0
1523612847245,851968,115,-56,-1,-1,0
1523612847285,1114112,115,-56,-1,-1,0
1523612847285,1179648,115,-56,-1,-1,0
1523612847285,1179648,115,-56,-1,-1,0
1523612847285,1114112,115,-56,-1,-1,0
1523612847285,1048576,115,-56,-1,-1,0
1523612847325,851968,115,-56,-1,-1,0
1523612847325,655360,115,-56,-1,-1,0
1523612847325,327680,115,-56,-1,-1,0
1523612847325,65536,115,-56,-1,-1,0
1523612847325,-65536,115,-56,-1,-1,0
1523612847365,-262144,115,-56,-1,-1,0
1523612847365,-393216,115,-56,-1,-1,0
1523612847365,-458752,115,-56,-1,-1,0
1523612847365,-524288,115,-56,-1,-1,0
1523612847365,-589824,115,-56,-1,-1,0
1523612847405,-655360,115,-56,-1,-1,0
1523612847405,-655360,115,-56,-1,-1,0
1523612847405,-655360,115,-56,-1,-1,0
1523612847405,-655360,115,-56,-1,-1,0
1523612847405,-589824,115,-56,-1,-1,0
1523612847445,-524288,115,-56,-1,-1,0
1523612847445,-458752,115,-56,-1,-1,0
1523612847445,-458752,115,-56,-1,-1,0
1523612847445,-393216,115,-56,-1,-1,0
1523612847445,-393216,115,-56,-1,-1,0
1523612847485,-327680,115,-56,-1,-1,0
1523612847485,-131072,115,-56,-1,-1,0
1523612847485,-65536,115,-56,-1,-1,0
1523612847485,0,115,-56,-1,-1,0
1523612847485,-65536,115,-56,-1,-1,0
1523612847525,-65536,115,-56,-1,-1,0
1523612847525,-131072,115,-56,-1,-1,0
1523612847525,-262144,115,-56,-1,-1,0
1523612847525,-327680,115,-56,-1,-1,0
1523612847525,-393216,115,-56,-1,-1,0
1523612847565,-393216,115,-56,-1,-1,0
1523612847565,-393216,115,-56,-1,-1,0
1523612847565,-393216,115,-56,-1,-1,0
1523612847565,-458752,115,-56,-1,-1,0
1523612847565,-851968,115,-56,-1,-1,0
1523612847605,-1310720,115,-56,-1,-1,0
1523612847605,-589824,115,-56,-1,-1,0
1523612847605,2162688,115,-56,-1,-1,0
1523612847605,5767168,115,-56,-1,-1,0
1523612847605,6553600,115,-56,-1,-1,0
1523612847645,3604480,115,-56,-1,-1,0
1523612847645,0,115,-56,-1,-1,0
1523612847645,-1507328,115,-56,-1,-1,0
1523612847645,-1507328,115,-56,-1,-1,0
1523612847645,-1048576,115,-56,-1,-1,0
1523612847687,-589824,115,-56,-1,-1,0
1523612847687,-393216,115,-56,-1,-1,0
1523612847687,-327680,115,-56,-1,-1,0
1523612847687,-327680,115,-56,-1,-1,0
1523612847687,-262144,115,-56,-1,-1,0
1523612847725,-131072,115,-56,-1,-1,0
1523612847725,-131072,115,-56,-1,-1,0
1523612847725,-65536,115,-56,-1,-1,0
1523612847725,-65536,115,-56,-1,-1,0
1523612847725,0,115,-56,-1,-1,0
1523612847765,131072,115,-56,-1,-1,0
1523612847765,262144,115,-56,-1,-1,0
1523612847765,393216,115,-56,-1,-1,0
1523612847765,524288,115,-56,-1,-1,0
1523612847765,720896,115,-56,-1,-1,0
1523612847805,917504,115,-56,-1,-1,0
1523612847805,983040,115,-56,-1,-1,0
1523612847805,983040,115,-56,-1,-1,0
1523612847805,851968,115,-56,-1,-1,0
1523612847805,720896,115,-56,-1,-1,0
1523612847845,589824,115,-56,-1,-1,0
1523612847845,458752,115,-56,-1,-1,0
1523612847845,196608,115,-56,-1,-1,0
1523612847845,0,115,-56,-1,-1,0
1523612847845,-196608,115,-56,-1,-1,0
1523612847885,-393216,115,-56,-1,-1,0
1523612847885,-458752,115,-56,-1,-1,0
1523612847885,-524288,115,-56,-1,-1,0
1523612847885,-589824,115,-56,-1,-1,0
1523612847885,-655360,115,-56,-1,-1,0
1523612847925,-655360,115,-56,-1,-1,0
1523612847925,-655360,115,-56,-1,-1,0
1523612847925,-589824,115,-56,-1,-1,0
1523612847925,-589824,115,-56,-1,-1,0
1523612847925,-589824,115,-56,-1,-1,0
1523612847965,-589824,115,-56,-1,-1,0
1523612847965,-524288,115,-56,-1,-1,0
1523612847965,-589824,115,-56,-1,-1,0
1523612847965,-655360,115,-56,-1,-1,0
1523612847965,-655360,115,-56,-1,-1,0
1523612848005,-524288,115,-56,-1,-1,0
1523612848005,-393216,115,-56,-1,-1,0
1523612848005,-327680,115,-56,-1,-1,0
1523612848005,-262144,115,-56,-1,-1,0
1523612848005,-327680,115,-56,-1,-1,0
1523612848045,-327680,115,-56,-1,-1,0
1523612848045,-393216,115,-56,-1,-1,0
1523612848045,-524288,115,-56,-1,-1,0
1523612848045,-655360,115,-56,-1,-1,0
1523612848045,-655360,115,-56,-1,-1,0
1523612848085,-589824,115,-56,-1,-1,0
1523612848085,-589824,115,-56,-1,-1,0
1523612848085,-655360,115,-56,-1,-1,0
1523612848085,-720896,115,-56,-1,-1,0
1523612848085,-1048576,115,-56,-1,-1,0
1523612848125,-1441792,115,-56,-1,-1,0
1523612848125,-983040,115,-56,-1,-1,0
1523612848125,1441792,115,-56,-1,-1,0
1523612848125,4980736,115,-56,-1,-1,0
1523612848125,6160384,115,-56,-1,-1,0
1523612848165,3538944,115,-56,-1,-1,0
1523612848165,-131072,115,-56,-1,-1,0
1523612848165,-1966080,115,-56,-1,-1,0
1523612848165,-2097152,115,-56,-1,-1,0
1523612848165,-1638400,115,-56,-1,-1,0
1523612848205,-1114112,115,-56,-1,-1,0
1523612848205,-786432,115,-56,-1,-1,0
1523612848205,-655360,115,-56,-1,-1,0
1523612848205,-524288,115,-56,-1,-1,0
1523612848205,-589824,115,-56,-1,-1,0
1523612848245,-589824,115,-56,-1,-1,0
1523612848245,-458752,115,-56,-1,-1,0
1523612848245,-393216,115,-56,-1,-1,0
1523612848245,-327680,115,-56,-1,-1,0
1523612848245,-262144,115,-56,-1,-1,0
1523612848285,-65536,115,-56,-1,-1,0
1523612848285,0,115,-56,-1,-1,0
1523612848285,131072,115,-56,-1,-1,0
1523612848285,327680,115,-56,-1,-1,0
1523612848285,524288,115,-56,-1,-1,0
1523612848327,655360,115,-56,-1,-1,0
1523612848327,720896,115,-56,-1,-1,0
1523612848327,720896,115,-56,-1,-1,0
1523612848327,655360,115,-56,-1,-1,0
1523612848327,524288,115,-56,-1,-1,0
1523612848365,327680,115,-56,-1,-1,0
1523612848365,131072,115,-56,-1,-1,0
1523612848365,-65536,115,-56,-1,-1,0
1523612848365,-262144,115,-56,-1,-1,0
1523612848365,-458752,115,-56,-1,-1,0
1523612848405,-655360,115,-56,-1,-1,0
1523612848405,-786432,115,-56,-1,-1,0
1523612848405,-917504,115,-56,-1,-1,0
1523612848405,-983040,115,-56,-1,-1,0
1523612848405,-917504,115,-56,-1,-1,0
1523612848445,-917504,116,-56,-1,-1,0
1523612848445,-851968,116,-56,-1,-1,0
1523612848445,-851968,116,-56,-1,-1,0
1523612848445,-786432,116,-56,-1,-1,0
1523612848445,-720896,116,-56,-1,-1,0
1523612848485,-655360,116,-56,-1,-1,0
1523612848485,-589824,116,-56,-1,-1,0
1523612848485,-589824,116,-56,-1,-1,0
1523612848485,-589824,116,-56,-1,-1,0
1523612848485,-589824,116,-56,-1,-1,0
1523612848525,-524288,116,-56,-1,-1,0
1523612848525,-393216,116,-56,-1,-1,0
1523612848525,-393216,116,-56,-1,-1,0
1523612848525,-458752,116,-56,-1,-1,0
1523612848525,-458752,116,-56,-1,-1,0
1523612848565,-393216,116,-56,-1,-1,0
1523612848565,-458752,116,-56,-1,-1,0
1523612848565,-655360,116,-56,-1,-1,0
1523612848565,-786432,116,-56,-1,-1,0
1523612848565,-589824,116,-56,-1,-1,0
1523612848605,-524288,116,-56,-1,-1,0
1523612848605,-720896,116,-56,-1,-1,0
1523612848605,-720896,116,-56,-1,-1,0
1523612848605,-589824,116,-56,-1,-1,0
1523612848605,-851968,116,-56,-1,-1,0
1523612848645,-1441792,116,-56,-1,-1,0
1523612848645,-1114112,116,-56,-1,-1,0
1523612848645,1245184,116,-56,-1,-1,0
1523612848645,4784128,116,-56,-1,-1,0
1523612848645,6094848,116,-56,-1,-1,0
1523612848687,3538944,116,-56,-1,-1,0
1523612848687,-65536,116,-56,-1,-1,0
1523612848687,-1966080,116,-56,-1,-1,0
1523612848687,-2097152,116,-56,-1,-1,0
1523612848687,-1638400,116,-56,-1,-1,0
1523612848725,-1048576,116,-56,-1,-1,0
1523612848725,-720896,116,-56,-1,-1,0
1523612848725,-589824,116,-56,-1,-1,0
1523612848725,-458752,116,-56,-1,-1,0
1523612848725,-458752,116,-56,-1,-1,0
1523612848765,-393216,116,-56,-1,-1,0
1523612848765,-393216,116,-56,-1,-1,0
1523612848765,-262144,116,-56,-1,-1,0
1523612848765,-262144,116,-56,-1,-1,0
1523612848765,-131072,116,-56,-1,-1,0
1523612848805,65536,116,-56,-1,-1,0
1523612848805,262144,116,-56,-1,-1,0
1523612848805,458752,116,-56,-1,-1,0
1523612848805,655360,116,-56,-1,-1,0
1523612848805,851968,116,-56,-1,-1,0
1523612848845,917504,116,-56,-1,-1,0
1523612848845,917504,116,-56,-1,-1,0
1523612848845,983040,116,-56,-1,-1,0
1523612848845,1048576,116,-56,-1,-1,0
1523612848845,983040,116,-56,-1,-1,0
1523612848885,851968,116,-56,-1,-1,0
1523612848885,524288,116,-56,-1,-1,0
1523612848885,196608,116,-56,-1,-1,0
1523612848885,0,116,-56,-1,-1,0
1523612848885,-196608,116,-56,-1,-1,0
1523612848925,-327680,116,-56,-1,-1,0
1523612848925,-327680,116,-56,-1,-1,0
1523612848925,-262144,116,-56,-1,-1,0
1523612848925,-393216,116,-56,-1,-1,0
1523612848925,-458752,116,-56,-1,-1,0
1523612848967,-589824,116,-56,-1,-1,0
1523612848967,-524288,116,-56,-1,-1,0
1523612848967,-393216,116,-56,-1,-1,0
1523612848967,-262144,116,-56,-1,-1,0
1523612848967,0,116,-56,-1,-1,0
1523612849005,196608,116,-56,-1,-1,0
1523612849005,0,116,-56,-1,-1,0
1523612849005,-196608,116,-56,-1,-1,0
1523612849005,-131072,116,-56,-1,-1,0
1523612849005,0,116,-56,-1,-1,0
1523612849045,0,116,-56,-1,-1,0
1523612849045,0,116,-56,-1,-1,0
1523612849045,131072,116,-56,-1,-1,0
1523612849045,327680,116,-56,-1,-1,0
1523612849045,393216,116,-56,-1,-1,0
1523612849087,262144,116,-56,-1,-1,0
1523612849087,196608,116,-56,-1,-1,0
1523612849087,196608,116,-56,-1,-1,0
1523612849087,262144,116,-56,-1,-1,0
1523612849087,262144,116,-56,-1,-1,0
1523612849125,327680,116,-56,-1,-1,0
1523612849125,327680,116,-56,-1,-1,0
1523612849125,262144,116,-56,-1,-1,0
1523612849125,65536,116,-56,-1,-1,0
1523612849125,-262144,116,-56,-1,-1,0
1523612849165,-65536,116,-56,-1,-1,0
1523612849165,1769472,116,-56,-1,-1,0
1523612849165,5111808,116,-56,-1,-1,0
1523612849165,7012352,116,-56,-1,-1,0
1523612849165,5111808,116,-56,-1,-1,0
1523612849205,1376256,116,-56,-1,-1,0
1523612849205,-786432,116,-56,-1,-1,0
1523612849205,-1179648,116,-56,-1,-1,0
1523612849205,-851968,116,-56,-1,-1,0
1523612849205,-327680,116,-56,-1,-1,0
1523612849245,0,116,-56,-1,-1,0
1523612849245,131072,116,-56,-1,-1,0
1523612849245,131072,116,-56,-1,-1,0
1523612849245,131072,116,-56,-1,-1,0
1523612849245,262144,116,-56,-1,-1,0
1523612849285,327680,116,-56,-1,-1,0
1523612849285,393216,116,-56,-1,-1,0
1523612849285,458752,116,-56,-1,-1,0
1523612849285,524288,116,-56,-1,-1,0
1523612849285,589824,116,-56,-1,-1,0
1523612849325,589824,116,-56,-1,-1,0
1523612849325,786432,116,-56,-1,-1,0
1523612849325,917504,116,-56,-1,-1,0
1523612849325,1114112,116,-56,-1,-1,0
1523612849325,1310720,116,-56,-1,-1,0
1523612849365,1310720,116,-56,-1,-1,0
1523612849365,1310720,116,-56,-1,-1,0
1523612849365,1114112,116,-56,-1,-1,0
1523612849365,1048576,116,-56,-1,-1,0
1523612849365,917504,116,-56,-1,-1,0
1523612849405,786432,116,-56,-1,-1,0
1523612849405,524288,116,-56,-1,-1,0
1523612849405,327680,116,-56,-1,-1,0
1523612849405,196608,116,-56,-1,-1,0
1523612849405,0,116,-56,-1,-1,0
1523612849445,-65536,116,-56,-1,-1,0
1523612849445,-196608,116,-56,-1,-1,0
1523612849445,-262144,116,-56,-1,-1,0
1523612849445,-262144,116,-56,-1,-1,0
1523612849445,-327680,116,-56,-1,-1,0
1523612849485,-262144,116,-56,-1,-1,0
1523612849485,-262144,116,-56,-1,-1,0
1523612849485,-262144,116,-56,-1,-1,0
1523612849485,-262144,116,-56,-1,-1,0
1523612849485,-327680,116,-56,-1,-1,0
1523612849525,-327680,116,-56,-1,-1,0
1523612849525,-262144,116,-56,-1,-1,0
1523612849525,-262144,116,-56,-1,-1,0
1523612849525,-262144,116,-56,-1,-1,0
1523612849525,-196608,116,-56,-1,-1,0
1523612849565,-262144,116,-56,-1,-1,0
1523612849565,-262144,116,-56,-1,-1,0
1523612849565,-262144,116,-56,-1,-1,0
1523612849565,-196608,116,-56,-1,-1,0
1523612849565,-262144,116,-56,-1,-1,0
1523612849607,-327680,116,-56,-1,-1,0
1523612849607,-393216,116,-56,-1,-1,0
1523612849607,-524288,116,-56,-1,-1,0
1523612849607,-589824,116,-56,-1,-1,0
1523612849607,-589824,116,-56,-1,-1,0
1523612849645,-589824,116,-56,-1,-1,0
1523612849645,-589824,116,-56,-1,-1,0
1523612849645,-851968,116,-56,-1,-1,0
1523612849645,-1441792,116,-56,-1,-1,0
1523612849645,-1114112,116,-56,-1,-1,0
1523612849685,1114112,116,-56,-1,-1,0
1523612849685,4390912,116,-56,-1,-1,0
1523612849685,5767168,116,-56,-1,-1,0
1523612849685,3604480,116,-56,-1,-1,0
1523612849685,65536,116,-56,-1,-1,0
1523612849725,-1638400,116,-56,-1,-1,0
1523612849725,-1835008,116,-56,-1,-1,0
1523612849725,-1572864,116,-56,-1,-1,0
1523612849725,-1114112,116,-56,-1,-1,0
1523612849725,-917504,116,-56,-1,-1,0
1523612849765,-917504,116,-56,-1,-1,0
1523612849765,-786432,116,-56,-1,-1,0
1523612849765,-720896,116,-56,-1,-1,0
1523612849765,-720896,116,-56,-1,-1,0
1523612849765,-655360,116,-56,-1,-1,0
1523612849808,-524288,116,-56,-1,-1,0
1523612849808,-393216,116,-56,-1,-1,0
1523612849808,-327680,116,-56,-1,-1,0
1523612849808,-196608,116,-56,-1,-1,0
1523612849808,-131072,116,-56,-1,-1,0
1523612849845,0,116,-56,-1,-1,0
1523612849845,65536,116,-56,-1,-1,0
1523612849845,327680,116,-56,-1,-1,0
1523612849845,393216,116,-56,-1,-1,0
1523612849845,458752,116,-56,-1,-1,0
1523612849887,458752,116,-56,-1,-1,0
1523612849887,393216,116,-56,-1,-1,0
1523612849887,327680,116,-56,-1,-1,0
1523612849887,327680,116,-56,-1,-1,0
1523612849887,196608,116,-56,-1,-1,0
1523612849925,0,116,-56,-1,-1,0
1523612849925,-262144,116,-56,-1,-1,0
1523612849925,-327680,116,-56,-1,-1,0
1523612849925,-458752,116,-56,-1,-1,0
1523612849925,-589824,116,-56,-1,-1,0
1523612849965,-589824,116,-56,-1,-1,0
1523612849965,-589824,116,-56,-1,-1,0
1523612849965,-589824,116,-56,-1,-1,0
1523612849965,-589824,116,-56,-1,-1,0
1523612849965,-589824,116,-56,-1,-1,0
1523612850005,-655360,116,-56,-1,-1,0
1523612850005,-655360,116,-56,-1,-1,0
1523612850005,-589824,116,-56,-1,-1,0
1523612850005,-524288,116,-56,-1,-1,0
1523612850005,-458752,116,-56,-1,-1,0
1523612850045,-589824,116,-56,-1,-1,0
1523612850045,-655360,116,-56,-1,-1,0
1523612850045,-655360,116,-56,-1,-1,0
1523612850045,-524288,116,-56,-1,-1,0
1523612850045,-458752,116,-56,-1,-1,0
1523612850087,-458752,116,-56,-1,-1,0
1523612850087,-458752,116,-56,-1,-1,0
1523612850087,-524288,116,-56,-1,-1,0
1523612850087,-524288,116,-56,-1,-1,0
1523612850087,-589824,116,-56,-1,-1,0
1523612850125,-655360,116,-56,-1,-1,0
1523612850125,-720896,116,-56,-1,-1,0
1523612850125,-720896,116,-56,-1,-1,0
1523612850125,-720896,116,-56,-1,-1,0
1523612850125,-589824,116,-56,-1,-1,0
1523612850165,-655360,116,-56,-1,-1,0
1523612850165,-917504,116,-56,-1,-1,0
1523612850165,-1507328,116,-56,-1,-1,0
1523612850165,-1703936,116,-56,-1,-1,0
1523612850165,-589824,116,-56,-1,-1,0
1523612850205,2293760,116,-56,-1,-1,0
1523612850205,5308416,116,-56,-1,-1,0
1523612850205,4980736,116,-56,-1,-1,0
1523612850205,1703936,116,-56,-1,-1,0
1523612850205,-1179648,116,-56,-1,-1,0
1523612850247,-2097152,116,-56,-1,-1,0
1523612850247,-2031616,116,-56,-1,-1,0
1523612850247,-1638400,116,-56,-1,-1,0
1523612850247,-1245184,116,-56,-1,-1,0
1523612850247,-983040,116,-56,-1,-1,0
1523612850285,-786432,116,-56,-1,-1,0
1523612850285,-720896,116,-56,-1,-1,0
1523612850285,-720896,116,-56,-1,-1,0
1523612850285,-655360,116,-56,-1,-1,0
1523612850285,-524288,116,-56,-1,-1,0
1523612850325,-458752,116,-56,-1,-1,0
1523612850325,-327680,116,-56,-1,-1,0
1523612850325,-196608,116,-56,-1,-1,0
1523612850325,-131072,116,-56,-1,-1,0
1523612850325,-65536,116,-56,-1,-1,0
1523612850365,131072,116,-56,-1,-1,0
1523612850365,524288,116,-56,-1,-1,0
1523612850365,786432,116,-56,-1,-1,0
1523612850365,655360,116,-56,-1,-1,0
1523612850365,393216,116,-56,-1,-1,0
1523612850405,458752,116,-56,-1,-1,0
1523612850405,589824,116,-56,-1,-1,0
1523612850405,524288,116,-56,-1,-1,0
1523612850405,393216,116,-56,-1,-1,0
1523612850405,262144,116,-56,-1,-1,0
1523612850445,65536,116,-56,-1,-1,0
1523612850445,-65536,116,-56,-1,-1,0
1523612850445,-196608,116,-56,-1,-1,0
1523612850445,-327680,116,-56,-1,-1,0
1523612850445,-393216,116,-56,-1,-1,0
1523612850485,-393216,116,-56,-1,-1,0
1523612850485,-393216,116,-56,-1,-1,0
1523612850485,-327680,116,-56,-1,-1,0
1523612850485,-262144,116,-56,-1,-1,0
1523612850485,-327680,116,-56,-1,-1,0
1523612850525,-589824,116,-56,-1,-1,0
1523612850525,-589824,116,-56,-1,-1,0
1523612850525,-196608,116,-56,-1,-1,0
1523612850525,0,116,-56,-1,-1,0
1523612850525,-196608,116,-56,-1,-1,0
1523612850565,-393216,116,-56,-1,-1,0
1523612850565,-393216,116,-56,-1,-1,0
1523612850565,-327680,116,-56,-1,-1,0
1523612850565,-262144,116,-56,-1,-1,0
1523612850565,-131072,116,-56,-1,-1,0
1523612850605,0,116,-56,-1,-1,0
1523612850605,-65536,116,-56,-1,-1,0
1523612850605,-262144,116,-56,-1,-1,0
1523612850605,-262144,116,-56,-1,-1,0
1523612850605,-262144,116,-56,-1,-1,0
1523612850645,-262144,116,-56,-1,-1,0
1523612850645,-327680,116,-56,-1,-1,0
1523612850645,-393216,116,-56,-1,-1,0
1523612850645,-327680,116,-56,-1,-1,0
1523612850645,-327680,116,-56,-1,-1,0
1523612850685,-458752,116,-56,-1,-1,0
1523612850685,-524288,116,-56,-1,-1,0
1523612850685,-524288,116,-56,-1,-1,0
1523612850685,-983040,116,-56,-1,-1,0
1523612850685,-1048576,116,-56,-1,-1,0
1523612850725,458752,116,-56,-1,-1,0
1523612850725,3670016,116,-56,-1,-1,0
1523612850725,6094848,116,-56,-1,-1,0
1523612850725,4653056,116,-56,-1,-1,0
1523612850725,851968,116,-56,-1,-1,0
1523612850765,-1507328,116,-56,-1,-1,0
1523612850765,-1900544,116,-56,-1,-1,0
1523612850765,-1638400,116,-56,-1,-1,0
1523612850765,-1179648,116,-56,-1,-1,0
1523612850765,-786432,116,-56,-1,-1,0
1523612850807,-458752,116,-56,-1,-1,0
1523612850807,-327680,116,-56,-1,-1,0
1523612850807,-262144,116,-56,-1,-1,0
1523612850807,-393216,116,-56,-1,-1,0
1523612850807,-458752,116,-56,-1,-1,0
1523612850845,-327680,116,-56,-1,-1,0
1523612850845,-131072,116,-56,-1,-1,0
1523612850845,-131072,116,-56,-1,-1,0
1523612850845,-65536,116,-56,-1,-1,0
1523612850845,131072,116,-56,-1,-1,0
1523612850888,393216,116,-56,-1,-1,0
1523612850888,524288,116,-56,-1,-1,0
1523612850888,524288,116,-56,-1,-1,0
1523612850888,524288,116,-56,-1,-1,0
1523612850888,720896,116,-56,-1,-1,0
1523612850925,983040,116,-56,-1,-1,0
1523612850925,983040,116,-56,-1,-1,0
1523612850925,655360,116,-56,-1,-1,0
1523612850925,327680,116,-56,-1,-1,0
1523612850925,262144,116,-56,-1,-1,0
1523612850965,262144,116,-56,-1,-1,0
1523612850965,0,116,-56,-1,-1,0
1523612850965,-196608,116,-56,-1,-1,0
1523612850965,-196608,116,-56,-1,-1,0
1523612850965,-458752,116,-56,-1,-1,0
1523612851005,-786432,116,-56,-1,-1,0
1523612851005,-720896,116,-56,-1,-1,0
1523612851005,-458752,116,-56,-1,-1,0
1523612851005,-589824,116,-56,-1,-1,0
1523612851005,-786432,116,-56,-1,-1,0
1523612851045,-524288,116,-56,-1,-1,0
1523612851045,-393216,116,-56,-1,-1,0
1523612851045,-655360,116,-56,-1,-1,0
1523612851045,-720896,116,-56,-1,-1,0
1523612851045,-393216,116,-56,-1,-1,0
1523612851085,-65536,116,-56,-1,-1,0
1523612851085,-131072,116,-56,-1,-1,0
1523612851085,-327680,116,-56,-1,-1,0
1523612851085,-327680,116,-56,-1,-1,0
1523612851085,-458752,116,-56,-1,-1,0
1523612851125,-589824,116,-56,-1,-1,0
1523612851125,-262144,116,-56,-1,-1,0
1523612851125,65536,116,-56,-1,-1,0
1523612851125,-196608,116,-56,-1,-1,0
1523612851125,-458752,116,-56,-1,-1,0
1523612851165,-393216,116,-56,-1,-1,0
1523612851165,-196608,116,-56,-1,-1,0
1523612851165,-327680,116,-56,-1,-1,0
1523612851165,-393216,116,-56,-1,-1,0
1523612851165,-458752,116,-56,-1,-1,0
1523612851205,-458752,116,-56,-1,-1,0
1523612851205,-458752,116,-56,-1,-1,0
1523612851205,-327680,116,-56,-1,-1,0
1523612851205,-589824,116,-56,-1,-1,0
1523612851205,-1245184,116,-56,-1,-1,0
1523612851245,-458752,116,-56,-1,-1,0
1523612851245,2621440,116,-56,-1,-1,0
1523612851245,5636096,116,-56,-1,-1,0
1523612851245,5242880,116,-56,-1,-1,0
1523612851245,2031616,116,-56,-1,-1,0
1523612851285,-393216,116,-56,-1,-1,0
1523612851285,-1376256,116,-56,-1,-1,0
1523612851285,-1703936,116,-56,-1,-1,0
1523612851285,-1441792,116,-56,-1,-1,0
1523612851285,-458752,116,-56,-1,-1,0
1523612851325,-196608,116,-56,-1,-1,0
1523612851325,-458752,116,-56,-1,-1,0
1523612851325,-524288,116,-56,-1,-1,0
1523612851325,-196608,116,-56,-1,-1,0
1523612851325,-65536,116,-56,-1,-1,0
1523612851365,0,116,-56,-1,-1,0
1523612851365,65536,116,-56,-1,-1,0
1523612851365,196608,116,-56,-1,-1,0
1523612851365,262144,116,-56,-1,-1,0
1523612851365,196608,116,-56,-1,-1,0
1523612851405,131072,116,-56,-1,-1,0
1523612851405,458752,116,-56,-1,-1,0
1523612851405,983040,116,-56,-1,-1,0
1523612851405,1310720,116,-56,-1,-1,0
1523612851405,1376256,116,-56,-1,-1,0
1523612851445,1376256,116,-56,-1,-1,0
1523612851445,1179648,116,-56,-1,-1,0
1523612851445,851968,116,-56,-1,-1,0
1523612851445,851968,116,-56,-1,-1,0
1523612851445,851968,116,-56,-1,-1,0
1523612851485,655360,116,-56,-1,-1,0
1523612851485,589824,116,-56,-1,-1,0
1523612851485,458752,116,-56,-1,-1,0
1523612851485,0,116,-56,-1,-1,0
1523612851485,-327680,116,-56,-1,-1,0
1523612851526,-262144,116,-56,-1,-1,0
1523612851526,0,116,-56,-1,-1,0
1523612851526,65536,116,-56,-1,-1,0
1523612851526,0,116,-56,-1,-1,0
1523612851526,0,116,-56,-1,-1,0
1523612851565,458752,116,-56,-1,-1,0
1523612851565,0,116,-56,-1,-1,0
1523612851565,-720896,116,-56,-1,-1,0
1523612851565,-524288,116,-56,-1,-1,0
1523612851565,-65536,116,-56,-1,-1,0
1523612851605,-131072,116,-56,-1,-1,0
1523612851605,-393216,116,-56,-1,-1,0
1523612851605,-327680,116,-56,-1,-1,0
1523612851605,-196608,116,-56,-1,-1,0
1523612851605,-131072,116,-56,-1,-1,0
1523612851645,-131072,116,-56,-1,-1,0
1523612851645,-262144,116,-56,-1,-1,0
1523612851645,-65536,116,-56,-1,-1,0
1523612851645,0,116,-56,-1,-1,0
1523612851645,-327680,116,-56,-1,-1,0
1523612851685,-458752,116,-56,-1,-1,0
1523612851685,-262144,116,-56,-1,-1,0
1523612851685,-131072,116,-56,-1,-1,0
1523612851685,-196608,116,-56,-1,-1,0
1523612851685,-327680,116,-56,-1,-1,0
1523612851725,-393216,116,-56,-1,-1,0
1523612851725,-589824,116,-56,-1,-1,0
1523612851725,-851968,116,-56,-1,-1,0
1523612851725,-720896,116,-56,-1,-1,0
1523612851725,-786432,116,-56,-1,-1,0
1523612851765,-1245184,116,-56,-1,-1,0
1523612851765,-655360,116,-56,-1,-1,0
1523612851765,1638400,116,-56,-1,-1,0
1523612851765,4390912,116,-56,-1,-1,0
1523612851765,4653056,116,-56,-1,-1,0
1523612851805,2162688,116,-56,-1,-1,0
