milliseconds, ECG, ECG HR, PPG, PPG HR, SpO2, PI
0,2883584,123,-56,-1,-1,0
33,1114112,123,-56,-1,-1,0
66,-131072,123,-56,-1,-1,0
100,-524288,123,-56,-1,-1,0
133,-1048576,123,-56,-1,-1,0
166,-1114112,123,-56,-1,-1,0
200,1114112,123,-56,-1,-1,0
233,-4259840,123,-56,-1,-1,0
266,-1835008,123,-56,-1,-1,0
300,-1114112,123,-56,-1,-1,0
333,786432,123,-56,-1,-1,0
366,2293760,123,-56,-1,-1,0
400,65536,123,-56,-1,-1,0
433,-589824,123,-56,-1,-1,0
466,-1310720,123,-56,-1,-1,0
500,-1048576,123,-56,-1,-1,0
533,-1703936,123,-56,-1,-1,0
566,-1507328,123,-56,-1,-1,0
600,-262144,123,-56,-1,-1,0
633,-2752512,123,-56,-1,-1,0
666,-1835008,123,-56,-1,-1,0
700,-524288,123,-56,-1,-1,0
733,1703936,123,-56,-1,-1,0
766,0,123,-56,-1,-1,0
800,-1376256,123,-56,-1,-1,0
833,-1769472,123,-56,-1,-1,0
866,-1638400,123,-56,-1,-1,0
900,-2162688,123,-56,-1,-1,0
933,-2031616,123,-56,-1,-1,0
966,5308416,123,-56,-1,-1,0
1000,-3538944,123,-56,-1,-1,0
1033,-1572864,123,-56,-1,-1,0
1066,-720896,123,-56,-1,-1,0
1100,1376256,123,-56,-1,-1,0
1133,1507328,123,-56,-1,-1,0
1166,196608,123,-56,-1,-1,0
1200,131072,123,-56,-1,-1,0
1233,0,123,-56,-1,-1,0
1266,-524288,123,-56,-1,-1,0
1300,-655360,123,-56,-1,-1,0
1333,3735552,123,-56,-1,-1,0
1366,-2424832,123,-56,-1,-1,0
1400,-851968,123,-56,-1,-1,0
1433,0,123,-56,-1,-1,0
1466,1835008,123,-56,-1,-1,0
1500,2818048,124,-56,-1,-1,0
1533,1507328,124,-56,-1,-1,0
1566,1114112,124,-56,-1,-1,0
1600,524288,124,-56,-1,-1,0
1633,720896,124,-56,-1,-1,0
1666,327680,124,-56,-1,-1,0
1700,131072,124,-56,-1,-1,0
1733,5570560,124,-56,-1,-1,0
1766,-1114112,124,-56,-1,-1,0
1800,-589824,124,-56,-1,-1,0
1833,458752,124,-56,-1,-1,0
1866,2621440,124,-56,-1,-1,0
1900,1507328,124,-56,-1,-1,0
1933,131072,124,-56,-1,-1,0
1966,-524288,124,-56,-1,-1,0
2000,-655360,124,-56,-1,-1,0
2033,-1376256,124,-56,-1,-1,0
2066,-1376256,124,-56,-1,-1,0
2100,4390912,124,-56,-1,-1,0
2133,-4325376,124,-56,-1,-1,0
2166,-1507328,124,-56,-1,-1,0
2200,-851968,124,-56,-1,-1,0
2233,1507328,124,-56,-1,-1,0
2266,1835008,124,-56,-1,-1,0
2300,-393216,124,-56,-1,-1,0
2333,-983040,124,-56,-1,-1,0
2366,-1507328,124,-56,-1,-1,0
2400,-1835008,124,-56,-1,-1,0
2433,-1966080,124,-56,-1,-1,0
2466,-1310720,124,-56,-1,-1,0
2500,-4194304,124,-56,-1,-1,0
2533,-2424832,124,-56,-1,-1,0
2566,-1638400,124,-56,-1,-1,0
2600,-65536,124,-56,-1,-1,0
2633,1769472,124,-56,-1,-1,0
2666,262144,124,-56,-1,-1,0
2700,-589824,124,-56,-1,-1,0
2733,-1048576,124,-56,-1,-1,0
2766,-851968,124,-56,-1,-1,0
2800,-1114112,124,-56,-1,-1,0
2833,-1310720,124,-56,-1,-1,0
2866,8126464,124,-56,-1,-1,0
2900,-2490368,124,-56,-1,-1,0
2933,-917504,124,-56,-1,-1,0
2966,262144,124,-56,-1,-1,0
3000,2490368,124,-56,-1,-1,0
3033,2752512,124,-56,-1,-1,0
3066,1376256,124,-56,-1,-1,0
3100,1179648,124,-56,-1,-1,0
3133,983040,124,-56,-1,-1,0
3166,589824,124,-56,-1,-1,0
3200,458752,124,-56,-1,-1,0
3233,2621440,124,-56,-1,-1,0
3266,-1835008,124,-56,-1,-1,0
3300,-458752,124,-56,-1,-1,0
3333,0,124,-56,-1,-1,0
3366,1638400,124,-56,-1,-1,0
3400,2883584,124,-56,-1,-1,0
3433,983040,124,-56,-1,-1,0
3466,-65536,124,-56,-1,-1,0
3500,-786432,124,-56,-1,-1,0
3533,-720896,124,-56,-1,-1,0
3566,-1441792,124,-56,-1,-1,0
3600,-1507328,124,-56,-1,-1,0
3633,3866624,124,-56,-1,-1,0
3666,-2883584,124,-56,-1,-1,0
3699,-1441792,124,-56,-1,-1,0
3733,-524288,124,-56,-1,-1,0
3766,2162688,124,-56,-1,-1,0
3800,1114112,124,-56,-1,-1,0
3833,-851968,124,-56,-1,-1,0
3866,-1441792,124,-56,-1,-1,0
3900,-1441792,124,-56,-1,-1,0
3933,-1966080,124,-56,-1,-1,0
3966,-2031616,124,-56,-1,-1,0
4000,983040,124,-56,-1,-1,0
4033,-5505024,124,-56,-1,-1,0
4066,-2162688,124,-56,-1,-1,0
4100,-1900544,124,-56,-1,-1,0
4133,65536,124,-56,-1,-1,0
4166,1179648,125,-56,-1,-1,0
4200,0,125,-56,-1,-1,0
4233,-327680,125,-56,-1,-1,0
4266,-655360,125,-56,-1,-1,0
4300,-196608,125,-56,-1,-1,0
4333,-196608,125,-56,-1,-1,0
4366,0,125,-56,-1,-1,0
4400,8912896,125,-56,-1,-1,0
4433,-851968,125,-56,-1,-1,0
4466,65536,125,-56,-1,-1,0
4500,983040,125,-56,-1,-1,0
4533,3080192,125,-56,-1,-1,0
4566,3145728,125,-56,-1,-1,0
4600,1835008,125,-56,-1,-1,0
4633,1310720,125,-56,-1,-1,0
4666,786432,125,-56,-1,-1,0
4700,196608,125,-56,-1,-1,0
4733,0,125,-56,-1,-1,0
4766,2359296,125,-56,-1,-1,0
4800,-2949120,125,-56,-1,-1,0
4833,-1310720,125,-56,-1,-1,0
4866,-786432,125,-56,-1,-1,0
4900,917504,125,-56,-1,-1,0
4933,2162688,125,-56,-1,-1,0
4966,65536,125,-56,-1,-1,0
5000,-786432,125,-56,-1,-1,0
5033,-1179648,125,-56,-1,-1,0
5066,-1048576,125,-56,-1,-1,0
5100,-1703936,125,-56,-1,-1,0
5133,-1703936,125,-56,-1,-1,0
5166,3735552,125,-56,-1,-1,0
5200,-3670016,125,-56,-1,-1,0
5233,-1966080,125,-56,-1,-1,0
5266,-917504,125,-56,-1,-1,0
5300,1638400,125,-56,-1,-1,0
5333,983040,125,-56,-1,-1,0
5366,-851968,125,-56,-1,-1,0
5400,-1114112,125,-56,-1,-1,0
5433,-1376256,125,-56,-1,-1,0
5466,-1507328,125,-56,-1,-1,0
5500,-1572864,125,-56,-1,-1,0
5533,-262144,125,-56,-1,-1,0
5566,-3014656,125,-56,-1,-1,0
5600,-1572864,125,-56,-1,-1,0
5633,-786432,125,-56,-1,-1,0
5666,720896,125,-56,-1,-1,0
5700,2424832,125,-56,-1,-1,0
5733,1245184,125,-56,-1,-1,0
5766,524288,125,-56,-1,-1,0
5800,131072,125,-56,-1,-1,0
5833,327680,125,-56,-1,-1,0
5866,0,125,-56,-1,-1,0
5900,65536,125,-56,-1,-1,0
5933,9633792,125,-56,-1,-1,0
5966,-1245184,125,-56,-1,-1,0
6000,0,125,-56,-1,-1,0
6033,851968,125,-56,-1,-1,0
6066,3145728,125,-56,-1,-1,0
6100,2883584,125,-56,-1,-1,0
6133,1179648,125,-56,-1,-1,0
6166,327680,125,-56,-1,-1,0
6200,-327680,125,-56,-1,-1,0
6233,-589824,125,-56,-1,-1,0
6266,-1245184,125,-56,-1,-1,0
6300,-851968,125,-56,-1,-1,0
6333,-1900544,125,-56,-1,-1,0
6366,-1966080,125,-56,-1,-1,0
6400,-1245184,125,-56,-1,-1,0
6433,196608,125,-56,-1,-1,0
6466,2293760,125,-56,-1,-1,0
6500,327680,125,-56,-1,-1,0
6533,-1114112,125,-56,-1,-1,0
6566,-1638400,125,-56,-1,-1,0
6600,-1638400,125,-56,-1,-1,0
6633,-2162688,125,-56,-1,-1,0
6666,-2228224,125,-56,-1,-1,0
6700,3276800,125,-56,-1,-1,0
6733,-4718592,125,-56,-1,-1,0
6766,-2359296,125,-56,-1,-1,0
6800,-1638400,125,-56,-1,-1,0
6833,458752,125,-56,-1,-1,0
6866,1245184,125,-56,-1,-1,0
6899,0,125,-56,-1,-1,0
6933,131072,125,-56,-1,-1,0
6966,-458752,125,-56,-1,-1,0
7000,-262144,125,-56,-1,-1,0
7033,-786432,125,-56,-1,-1,0
7066,-655360,125,-56,-1,-1,0
7100,5046272,125,-56,-1,-1,0
7133,-1376256,125,-56,-1,-1,0
7166,-851968,125,-56,-1,-1,0
7200,393216,125,-56,-1,-1,0
7233,2424832,125,-56,-1,-1,0
7266,1638400,125,-56,-1,-1,0
7300,720896,125,-56,-1,-1,0
7333,131072,125,-56,-1,-1,0
7366,0,125,-56,-1,-1,0
7399,-131072,125,-56,-1,-1,0
7433,-262144,125,-56,-1,-1,0
7466,655360,125,-56,-1,-1,0
7500,-1638400,125,-56,-1,-1,0
7533,-1048576,125,-56,-1,-1,0
7566,-524288,125,-56,-1,-1,0
7600,1179648,125,-56,-1,-1,0
7633,2752512,125,-56,-1,-1,0
7666,1900544,125,-56,-1,-1,0
7700,1048576,125,-56,-1,-1,0
7733,327680,125,-56,-1,-1,0
7766,327680,125,-56,-1,-1,0
7800,-196608,125,-56,-1,-1,0
7833,-393216,125,-56,-1,-1,0
7866,5373952,125,-56,-1,-1,0
7899,-3473408,125,-56,-1,-1,0
7933,-1376256,125,-56,-1,-1,0
7966,-720896,125,-56,-1,-1,0
8000,1638400,125,-56,-1,-1,0
8033,2424832,126,-56,-1,-1,0
8066,131072,126,-56,-1,-1,0
8100,-655360,126,-56,-1,-1,0
8133,-1179648,126,-56,-1,-1,0
8166,-983040,126,-56,-1,-1,0
8200,-1441792,126,-56,-1,-1,0
8233,-1441792,126,-56,-1,-1,0
8266,3473408,126,-56,-1,-1,0
8300,-3145728,126,-56,-1,-1,0
8333,-1441792,126,-56,-1,-1,0
8366,-458752,126,-56,-1,-1,0
8400,2359296,126,-56,-1,-1,0
8433,1703936,126,-56,-1,-1,0
8466,-131072,126,-56,-1,-1,0
8500,-589824,126,-56,-1,-1,0
8533,-917504,126,-56,-1,-1,0
8566,-917504,126,-56,-1,-1,0
8600,-1245184,126,-56,-1,-1,0
8633,-720896,126,-56,-1,-1,0
8666,-1900544,126,-56,-1,-1,0
8700,-1769472,126,-56,-1,-1,0
8733,-786432,126,-56,-1,-1,0
8766,589824,126,-56,-1,-1,0
8800,2621440,126,-56,-1,-1,0
8833,1310720,126,-56,-1,-1,0
8866,65536,126,-56,-1,-1,0
8900,-393216,126,-56,-1,-1,0
8933,-458752,126,-56,-1,-1,0
8966,-851968,126,-56,-1,-1,0
9000,-1114112,126,-56,-1,-1,0
9033,2621440,126,-56,-1,-1,0
9066,-3932160,126,-56,-1,-1,0
9100,-1310720,126,-56,-1,-1,0
9133,-589824,126,-56,-1,-1,0
9166,1310720,126,-56,-1,-1,0
9200,2162688,126,-56,-1,-1,0
9233,65536,126,-56,-1,-1,0
9266,-393216,126,-56,-1,-1,0
9300,-1048576,126,-56,-1,-1,0
9333,-917504,126,-56,-1,-1,0
9366,-1376256,126,-56,-1,-1,0
9400,-1572864,126,-56,-1,-1,0
9433,6225920,126,-56,-1,-1,0
9466,-3538944,126,-56,-1,-1,0
9500,-1703936,126,-56,-1,-1,0
9533,-851968,126,-56,-1,-1,0
9566,1441792,126,-56,-1,-1,0
9600,1638400,126,-56,-1,-1,0
9633,0,126,-56,-1,-1,0
9666,-131072,126,-56,-1,-1,0
9700,-655360,126,-56,-1,-1,0
9733,-524288,126,-56,-1,-1,0
9766,-917504,126,-56,-1,-1,0
9800,-655360,126,-56,-1,-1,0
9833,3801088,126,-56,-1,-1,0
9866,-1376256,126,-56,-1,-1,0
9900,-655360,126,-56,-1,-1,0
9933,786432,126,-56,-1,-1,0
9966,2949120,126,-56,-1,-1,0
10000,2359296,127,-56,-1,-1,0
10033,1376256,127,-56,-1,-1,0
10066,851968,127,-56,-1,-1,0
10100,655360,127,-56,-1,-1,0
10133,458752,127,-56,-1,-1,0
10166,131072,127,-56,-1,-1,0
10200,1179648,127,-56,-1,-1,0
10233,-1441792,127,-56,-1,-1,0
10266,-917504,127,-56,-1,-1,0
10300,-393216,127,-56,-1,-1,0
10333,1179648,127,-56,-1,-1,0
10366,2752512,127,-56,-1,-1,0
10400,1114112,127,-56,-1,-1,0
10433,-131072,127,-56,-1,-1,0
10466,-786432,127,-56,-1,-1,0
10500,-655360,127,-56,-1,-1,0
10533,-1310720,127,-56,-1,-1,0
10566,-1376256,127,-56,-1,-1,0
10600,2752512,127,-56,-1,-1,0
10633,-4915200,127,-56,-1,-1,0
10666,-1703936,127,-56,-1,-1,0
10700,-983040,127,-56,-1,-1,0
10733,1245184,127,-56,-1,-1,0
10766,2162688,127,-56,-1,-1,0
10800,-131072,127,-56,-1,-1,0
10833,-851968,127,-56,-1,-1,0
10866,-1441792,127,-56,-1,-1,0
10900,-1376256,127,-56,-1,-1,0
10933,-1900544,127,-56,-1,-1,0
10966,-1966080,127,-56,-1,-1,0
11000,4521984,127,-56,-1,-1,0
11033,-4259840,127,-56,-1,-1,0
11066,-2031616,127,-56,-1,-1,0
11100,-983040,127,-56,-1,-1,0
11133,1638400,127,-56,-1,-1,0
11166,1703936,127,-56,-1,-1,0
11200,-131072,127,-56,-1,-1,0
11233,-458752,127,-56,-1,-1,0
11266,-917504,127,-56,-1,-1,0
11300,-655360,127,-56,-1,-1,0
11333,-917504,127,-56,-1,-1,0
11366,-851968,127,-56,-1,-1,0
11400,7471104,127,-56,-1,-1,0
11433,-1638400,127,-56,-1,-1,0
11466,-589824,127,-56,-1,-1,0
11500,393216,127,-56,-1,-1,0
11533,2752512,127,-56,-1,-1,0
11566,2686976,127,-56,-1,-1,0
11600,1310720,127,-56,-1,-1,0
11633,917504,127,-56,-1,-1,0
11666,589824,127,-56,-1,-1,0
11700,458752,127,-56,-1,-1,0
11733,262144,127,-56,-1,-1,0
11766,327680,127,-56,-1,-1,0
11800,1900544,127,-56,-1,-1,0
11833,-786432,127,-56,-1,-1,0
11866,-524288,127,-56,-1,-1,0
11900,917504,127,-56,-1,-1,0
11933,2752512,127,-56,-1,-1,0
11966,1245184,127,-56,-1,-1,0
12000,-327680,127,-56,-1,-1,0
12033,-1048576,127,-56,-1,-1,0
12066,-1310720,127,-56,-1,-1,0
12100,-1638400,127,-56,-1,-1,0
12133,-1900544,127,-56,-1,-1,0
12166,262144,127,-56,-1,-1,0
12200,-5963776,127,-56,-1,-1,0
12233,-2555904,127,-56,-1,-1,0
12266,-1572864,127,-56,-1,-1,0
12300,196608,127,-56,-1,-1,0
12333,1703936,127,-56,-1,-1,0
12366,-327680,128,-56,-1,-1,0
12400,-1114112,128,-56,-1,-1,0
12433,-1572864,128,-56,-1,-1,0
12466,-1245184,128,-56,-1,-1,0
12500,-1638400,128,-56,-1,-1,0
12533,-1376256,128,-56,-1,-1,0
12566,4587520,128,-56,-1,-1,0
12600,-3604480,128,-56,-1,-1,0
12633,-1114112,128,-56,-1,-1,0
12666,-65536,128,-56,-1,-1,0
12700,1769472,128,-56,-1,-1,0
12733,2818048,128,-56,-1,-1,0
12766,1441792,128,-56,-1,-1,0
12800,1114112,128,-56,-1,-1,0
12833,393216,128,-56,-1,-1,0
12866,458752,128,-56,-1,-1,0
12900,131072,128,-56,-1,-1,0
12933,327680,128,-56,-1,-1,0
12966,9830400,128,-56,-1,-1,0
13000,-1114112,128,-56,-1,-1,0
13033,0,128,-56,-1,-1,0
13066,589824,128,-56,-1,-1,0
13100,3080192,128,-56,-1,-1,0
13133,2686976,128,-56,-1,-1,0
13166,851968,128,-56,-1,-1,0
13200,-131072,128,-56,-1,-1,0
13233,-655360,128,-56,-1,-1,0
13266,-458752,128,-56,-1,-1,0
13299,-1179648,128,-56,-1,-1,0
13333,-1114112,128,-56,-1,-1,0
13366,1179648,128,-56,-1,-1,0
13400,-2490368,128,-56,-1,-1,0
13433,-1310720,128,-56,-1,-1,0
13466,-393216,128,-56,-1,-1,0
13500,2228224,128,-56,-1,-1,0
13533,1179648,128,-56,-1,-1,0
13566,-393216,128,-56,-1,-1,0
13600,-655360,128,-56,-1,-1,0
13633,-393216,128,-56,-1,-1,0
13666,-589824,128,-56,-1,-1,0
13700,-458752,128,-56,-1,-1,0
13733,131072,128,-56,-1,-1,0
13766,-1572864,128,-56,-1,-1,0
13799,-589824,128,-56,-1,-1,0
13833,-262144,128,-56,-1,-1,0
13866,1966080,128,-56,-1,-1,0
13900,3604480,128,-56,-1,-1,0
13933,2293760,128,-56,-1,-1,0
13966,196608,128,-56,-1,-1,0
14000,-720896,128,-56,-1,-1,0
14033,131072,128,-56,-1,-1,0
14066,-393216,128,-56,-1,-1,0
14100,-1835008,128,-56,-1,-1,0
14133,786432,128,-56,-1,-1,0
14166,-4456448,128,-56,-1,-1,0
14200,-1835008,128,-56,-1,-1,0
14233,-1310720,128,-56,-1,-1,0
14266,262144,128,-56,-1,-1,0
14299,1638400,128,-56,-1,-1,0
14333,65536,128,-56,-1,-1,0
14366,-655360,128,-56,-1,-1,0
14400,-851968,128,-56,-1,-1,0
14433,-1245184,128,-56,-1,-1,0
14466,-1572864,128,-56,-1,-1,0
14500,-1179648,128,-56,-1,-1,0
14533,4325376,128,-56,-1,-1,0
14566,-3997696,128,-56,-1,-1,0
14600,-1835008,128,-56,-1,-1,0
14633,-786432,128,-56,-1,-1,0
14666,1245184,128,-56,-1,-1,0
14700,1638400,128,-56,-1,-1,0
14733,-65536,128,-56,-1,-1,0
14766,-458752,128,-56,-1,-1,0
14799,-1114112,128,-56,-1,-1,0
14833,-1048576,128,-56,-1,-1,0
14866,-1376256,128,-56,-1,-1,0
14900,-1572864,128,-56,-1,-1,0
14933,4784128,128,-56,-1,-1,0
14966,-3145728,128,-56,-1,-1,0
15000,-1638400,128,-56,-1,-1,0
15033,-917504,128,-56,-1,-1,0
15066,1441792,128,-56,-1,-1,0
15100,655360,128,-56,-1,-1,0
15133,-524288,128,-56,-1,-1,0
15166,-851968,128,-56,-1,-1,0
15200,-1114112,128,-56,-1,-1,0
15233,-2097152,128,-56,-1,-1,0
15266,-1507328,128,-56,-1,-1,0
15299,-1638400,128,-56,-1,-1,0
15333,2097152,128,-56,-1,-1,0
15366,-2162688,128,-56,-1,-1,0
15400,-1376256,128,-56,-1,-1,0
15433,-327680,128,-56,-1,-1,0
15466,1048576,128,-56,-1,-1,0
15500,917504,128,-56,-1,-1,0
15533,589824,128,-56,-1,-1,0
15566,393216,128,-56,-1,-1,0
15600,131072,128,-56,-1,-1,0
15633,458752,128,-56,-1,-1,0
15666,196608,128,-56,-1,-1,0
15700,2097152,128,-56,-1,-1,0
15733,-524288,128,-56,-1,-1,0
15766,-524288,128,-56,-1,-1,0
15799,589824,128,-56,-1,-1,0
15833,1966080,128,-56,-1,-1,0
15866,2949120,128,-56,-1,-1,0
15900,1703936,128,-56,-1,-1,0
15933,786432,128,-56,-1,-1,0
15966,-131072,128,-56,-1,-1,0
16000,-196608,128,-56,-1,-1,0
16033,-327680,128,-56,-1,-1,0
16066,-786432,128,-56,-1,-1,0
16100,3014656,128,-56,-1,-1,0
16133,-3342336,128,-56,-1,-1,0
16166,-1245184,128,-56,-1,-1,0
16200,-589824,128,-56,-1,-1,0
16233,1114112,128,-56,-1,-1,0
16266,2031616,128,-56,-1,-1,0
16300,196608,127,-56,-1,-1,0
16333,-589824,127,-56,-1,-1,0
16366,-1376256,127,-56,-1,-1,0
16400,-1376256,127,-56,-1,-1,0
16433,-1900544,127,-56,-1,-1,0
16466,-1966080,127,-56,-1,-1,0
16500,3407872,127,-56,-1,-1,0
16533,-4390912,127,-56,-1,-1,0
16566,-2031616,127,-56,-1,-1,0
16600,-1507328,127,-56,-1,-1,0
16633,524288,127,-56,-1,-1,0
16666,720896,127,-56,-1,-1,0
16700,-1441792,127,-56,-1,-1,0
16733,-1769472,127,-56,-1,-1,0
16766,-2293760,127,-56,-1,-1,0
16800,-2293760,127,-56,-1,-1,0
16833,-1966080,127,-56,-1,-1,0
16866,-1245184,127,-56,-1,-1,0
16900,3801088,127,-56,-1,-1,0
16933,-2555904,127,-56,-1,-1,0
16966,-720896,127,-56,-1,-1,0
17000,-262144,127,-56,-1,-1,0
17033,1769472,127,-56,-1,-1,0
17066,1507328,127,-56,-1,-1,0
17100,655360,127,-56,-1,-1,0
17133,655360,127,-56,-1,-1,0
17166,196608,127,-56,-1,-1,0
17200,655360,127,-56,-1,-1,0
17233,720896,127,-56,-1,-1,0
17266,655360,127,-56,-1,-1,0
17300,2490368,127,-56,-1,-1,0
17333,0,127,-56,-1,-1,0
17366,-196608,127,-56,-1,-1,0
17400,983040,127,-56,-1,-1,0
17433,2293760,127,-56,-1,-1,0
17466,2031616,127,-56,-1,-1,0
17500,983040,127,-56,-1,-1,0
17533,393216,127,-56,-1,-1,0
17566,393216,127,-56,-1,-1,0
17600,524288,127,-56,-1,-1,0
17633,589824,127,-56,-1,-1,0
17666,1703936,127,-56,-1,-1,0
17700,-131072,127,-56,-1,-1,0
17733,-196608,127,-56,-1,-1,0
17766,65536,127,-56,-1,-1,0
17800,1376256,127,-56,-1,-1,0
17833,2686976,127,-56,-1,-1,0
17866,1572864,127,-56,-1,-1,0
17900,458752,127,-56,-1,-1,0
17933,-393216,127,-56,-1,-1,0
17966,-262144,127,-56,-1,-1,0
18000,-786432,127,-56,-1,-1,0
18033,-917504,127,-56,-1,-1,0
18066,2031616,127,-56,-1,-1,0
18100,-3932160,127,-56,-1,-1,0
18133,-1245184,127,-56,-1,-1,0
18166,-851968,127,-56,-1,-1,0
18200,917504,127,-56,-1,-1,0
18233,1835008,127,-56,-1,-1,0
18266,65536,127,-56,-1,-1,0
18300,-524288,127,-56,-1,-1,0
18333,-1376256,127,-56,-1,-1,0
18366,-1245184,127,-56,-1,-1,0
18400,-1769472,127,-56,-1,-1,0
18433,-1835008,127,-56,-1,-1,0
18466,4456448,127,-56,-1,-1,0
18500,-4194304,127,-56,-1,-1,0
18533,-1966080,127,-56,-1,-1,0
18566,-1048576,127,-56,-1,-1,0
18600,1376256,127,-56,-1,-1,0
18633,1441792,127,-56,-1,-1,0
18666,-196608,127,-56,-1,-1,0
18700,-458752,127,-56,-1,-1,0
18733,-1048576,127,-56,-1,-1,0
18766,-786432,127,-56,-1,-1,0
18800,-1114112,127,-56,-1,-1,0
18833,-983040,127,-56,-1,-1,0
18866,5505024,127,-56,-1,-1,0
18900,-1835008,127,-56,-1,-1,0
18933,-851968,127,-56,-1,-1,0
18966,-327680,127,-56,-1,-1,0
19000,2031616,127,-56,-1,-1,0
19033,2031616,127,-56,-1,-1,0
19066,786432,127,-56,-1,-1,0
19100,131072,127,-56,-1,-1,0
19133,-262144,127,-56,-1,-1,0
19166,-458752,127,-56,-1,-1,0
19200,-524288,127,-56,-1,-1,0
19233,-65536,127,-56,-1,-1,0
19266,262144,127,-56,-1,-1,0
19300,-917504,127,-56,-1,-1,0
19333,-589824,127,-56,-1,-1,0
19366,589824,127,-56,-1,-1,0
19400,2555904,127,-56,-1,-1,0
19433,2097152,127,-56,-1,-1,0
19466,1245184,127,-56,-1,-1,0
19500,589824,127,-56,-1,-1,0
19533,589824,127,-56,-1,-1,0
19566,196608,127,-56,-1,-1,0
19600,0,127,-56,-1,-1,0
19633,5111808,127,-56,-1,-1,0
19666,-2097152,127,-56,-1,-1,0
19700,-655360,127,-56,-1,-1,0
19733,-196608,127,-56,-1,-1,0
19766,1507328,127,-56,-1,-1,0
19800,2359296,127,-56,-1,-1,0
19833,851968,127,-56,-1,-1,0
19866,0,127,-56,-1,-1,0
19900,-786432,127,-56,-1,-1,0
19933,-524288,127,-56,-1,-1,0
19966,-1245184,127,-56,-1,-1,0
20000,-1441792,127,-56,-1,-1,0
20033,5177344,127,-56,-1,-1,0
20066,-3342336,127,-56,-1,-1,0
20100,-1900544,127,-56,-1,-1,0
20133,-1048576,127,-56,-1,-1,0
20166,1179648,127,-56,-1,-1,0
20200,1048576,127,-56,-1,-1,0
20233,-458752,127,-56,-1,-1,0
20266,-1245184,127,-56,-1,-1,0
20300,-1572864,127,-56,-1,-1,0
20333,-1835008,127,-56,-1,-1,0
20366,-2097152,127,-56,-1,-1,0
20400,-1638400,127,-56,-1,-1,0
20433,-2555904,127,-56,-1,-1,0
20466,-2555904,127,-56,-1,-1,0
20500,-1835008,127,-56,-1,-1,0
20533,-524288,127,-56,-1,-1,0
20566,1507328,127,-56,-1,-1,0
20600,655360,127,-56,-1,-1,0
20633,-262144,127,-56,-1,-1,0
20666,-458752,127,-56,-1,-1,0
20700,-720896,127,-56,-1,-1,0
20733,-917504,127,-56,-1,-1,0
20766,-851968,127,-56,-1,-1,0
20800,3801088,127,-56,-1,-1,0
20833,-2555904,127,-56,-1,-1,0
20866,-1310720,127,-56,-1,-1,0
20900,-458752,127,-56,-1,-1,0
20933,983040,127,-56,-1,-1,0
20966,2228224,127,-56,-1,-1,0
21000,1376256,127,-56,-1,-1,0
21033,720896,127,-56,-1,-1,0
21066,-65536,127,-56,-1,-1,0
21100,131072,127,-56,-1,-1,0
21133,-262144,127,-56,-1,-1,0
21166,-131072,127,-56,-1,-1,0
21200,8650752,127,-56,-1,-1,0
21233,-1835008,127,-56,-1,-1,0
21266,-720896,127,-56,-1,-1,0
21300,0,127,-56,-1,-1,0
21333,1769472,127,-56,-1,-1,0
21366,2752512,127,-56,-1,-1,0
21400,1507328,127,-56,-1,-1,0
21433,589824,127,-56,-1,-1,0
21466,-131072,127,-56,-1,-1,0
21500,-65536,127,-56,-1,-1,0
21533,-393216,127,-56,-1,-1,0
21566,-589824,127,-56,-1,-1,0
21600,6553600,127,-56,-1,-1,0
21633,-2228224,127,-56,-1,-1,0
21666,-983040,127,-56,-1,-1,0
21700,-262144,127,-56,-1,-1,0
21733,1900544,127,-56,-1,-1,0
21766,1769472,127,-56,-1,-1,0
21800,131072,127,-56,-1,-1,0
21833,-720896,127,-56,-1,-1,0
21866,-1179648,127,-56,-1,-1,0
21900,-1179648,127,-56,-1,-1,0
21933,-1703936,127,-56,-1,-1,0
21966,-1114112,127,-56,-1,-1,0
22000,-1441792,127,-56,-1,-1,0
22033,-2031616,127,-56,-1,-1,0
22066,-1441792,127,-56,-1,-1,0
22100,-131072,127,-56,-1,-1,0
22133,1835008,127,-56,-1,-1,0
22166,917504,127,-56,-1,-1,0
22200,-524288,127,-56,-1,-1,0
22233,-786432,127,-56,-1,-1,0
22266,-1114112,127,-56,-1,-1,0
22300,-1507328,127,-56,-1,-1,0
22333,-1572864,127,-56,-1,-1,0
22366,1376256,127,-56,-1,-1,0
22400,-4063232,127,-56,-1,-1,0
22433,-2097152,127,-56,-1,-1,0
22466,-983040,127,-56,-1,-1,0
22500,458752,127,-56,-1,-1,0
22533,1769472,127,-56,-1,-1,0
22566,327680,128,-56,-1,-1,0
22600,65536,128,-56,-1,-1,0
22633,-589824,128,-56,-1,-1,0
22666,65536,128,-56,-1,-1,0
22700,-589824,128,-56,-1,-1,0
22733,-393216,128,-56,-1,-1,0
22766,7340032,128,-56,-1,-1,0
22800,-1966080,128,-56,-1,-1,0
22833,-1114112,128,-56,-1,-1,0
22866,-262144,128,-56,-1,-1,0
22900,1114112,128,-56,-1,-1,0
22933,2031616,128,-56,-1,-1,0
22966,1048576,128,-56,-1,-1,0
23000,589824,128,-56,-1,-1,0
23033,0,128,-56,-1,-1,0
23066,65536,128,-56,-1,-1,0
23100,-131072,128,-56,-1,-1,0
23133,-262144,128,-56,-1,-1,0
23166,7929856,128,-56,-1,-1,0
23200,-1245184,128,-56,-1,-1,0
23233,-524288,128,-56,-1,-1,0
23266,0,128,-56,-1,-1,0
23300,1835008,128,-56,-1,-1,0
23333,2031616,127,-56,-1,-1,0
23366,524288,127,-56,-1,-1,0
23400,-524288,127,-56,-1,-1,0
23433,-786432,127,-56,-1,-1,0
23466,-917504,127,-56,-1,-1,0
23500,-1245184,127,-56,-1,-1,0
23533,-1376256,127,-56,-1,-1,0
23566,786432,127,-56,-1,-1,0
23600,-2424832,127,-56,-1,-1,0
23633,-1376256,127,-56,-1,-1,0
23666,-524288,127,-56,-1,-1,0
23700,1703936,127,-56,-1,-1,0
23733,1048576,127,-56,-1,-1,0
23766,-589824,127,-56,-1,-1,0
23800,-786432,127,-56,-1,-1,0
23833,-851968,127,-56,-1,-1,0
23866,-1179648,127,-56,-1,-1,0
23900,-983040,127,-56,-1,-1,0
23933,262144,127,-56,-1,-1,0
23966,-2883584,127,-56,-1,-1,0
24000,-1441792,127,-56,-1,-1,0
24033,-589824,127,-56,-1,-1,0
24066,655360,127,-56,-1,-1,0
24100,2097152,127,-56,-1,-1,0
24133,983040,128,-56,-1,-1,0
24166,131072,128,-56,-1,-1,0
24200,-262144,128,-56,-1,-1,0
24233,-327680,128,-56,-1,-1,0
24266,-851968,128,-56,-1,-1,0
24300,-786432,128,-56,-1,-1,0
24333,4653056,128,-56,-1,-1,0
24366,-3080192,128,-56,-1,-1,0
24400,-1245184,128,-56,-1,-1,0
24433,-589824,128,-56,-1,-1,0
24466,917504,128,-56,-1,-1,0
24500,1441792,128,-56,-1,-1,0
24533,393216,128,-56,-1,-1,0
24566,-196608,128,-56,-1,-1,0
24600,-786432,128,-56,-1,-1,0
24633,-524288,128,-56,-1,-1,0
24666,-1310720,128,-56,-1,-1,0
24700,-1245184,128,-56,-1,-1,0
24733,5832704,128,-56,-1,-1,0
24766,-2621440,128,-56,-1,-1,0
24800,-1507328,128,-56,-1,-1,0
24833,-655360,128,-56,-1,-1,0
24866,1048576,128,-56,-1,-1,0
24900,1441792,128,-56,-1,-1,0
24933,262144,128,-56,-1,-1,0
24966,-327680,128,-56,-1,-1,0
25000,-720896,128,-56,-1,-1,0
25033,-131072,128,-56,-1,-1,0
25066,-327680,128,-56,-1,-1,0
25100,-327680,128,-56,-1,-1,0
25133,4325376,128,-56,-1,-1,0
25166,-983040,128,-56,-1,-1,0
25200,0,128,-56,-1,-1,0
25233,458752,128,-56,-1,-1,0
25266,2031616,128,-56,-1,-1,0
25300,2097152,128,-56,-1,-1,0
25333,1245184,128,-56,-1,-1,0
25366,524288,128,-56,-1,-1,0
25400,393216,128,-56,-1,-1,0
25433,0,128,-56,-1,-1,0
25466,-589824,128,-56,-1,-1,0
25500,1835008,128,-56,-1,-1,0
25533,-2097152,128,-56,-1,-1,0
25566,-1572864,128,-56,-1,-1,0
25600,-1048576,128,-56,-1,-1,0
25633,131072,128,-56,-1,-1,0
25666,1376256,128,-56,-1,-1,0
25700,393216,128,-56,-1,-1,0
25733,-524288,128,-56,-1,-1,0
25766,-1245184,128,-56,-1,-1,0
25800,-1048576,128,-56,-1,-1,0
25833,-1376256,128,-56,-1,-1,0
25866,-1441792,128,-56,-1,-1,0
25900,4390912,128,-56,-1,-1,0
25933,-4063232,128,-56,-1,-1,0
25966,-1638400,128,-56,-1,-1,0
26000,-917504,128,-56,-1,-1,0
26033,917504,128,-56,-1,-1,0
26066,1638400,128,-56,-1,-1,0
26099,0,128,-56,-1,-1,0
26133,-589824,128,-56,-1,-1,0
26166,-1114112,128,-56,-1,-1,0
26200,-1048576,128,-56,-1,-1,0
26233,-1769472,128,-56,-1,-1,0
26266,-1703936,128,-56,-1,-1,0
26300,4128768,128,-56,-1,-1,0
26333,-3211264,128,-56,-1,-1,0
26366,-1638400,128,-56,-1,-1,0
26400,-655360,128,-56,-1,-1,0
26433,1245184,128,-56,-1,-1,0
26466,1114112,128,-56,-1,-1,0
26500,-65536,128,-56,-1,-1,0
26533,-393216,128,-56,-1,-1,0
26566,-851968,128,-56,-1,-1,0
26599,-655360,128,-56,-1,-1,0
26633,-917504,128,-56,-1,-1,0
26666,-655360,128,-56,-1,-1,0
26700,2424832,128,-56,-1,-1,0
26733,-983040,128,-56,-1,-1,0
26766,-720896,128,-56,-1,-1,0
26800,131072,128,-56,-1,-1,0
26833,1769472,128,-56,-1,-1,0
26866,1703936,128,-56,-1,-1,0
26900,983040,128,-56,-1,-1,0
26933,327680,128,-56,-1,-1,0
26966,262144,128,-56,-1,-1,0
27000,-131072,128,-56,-1,-1,0
27033,0,128,-56,-1,-1,0
27066,3080192,128,-56,-1,-1,0
27099,-1245184,128,-56,-1,-1,0
27133,-393216,128,-56,-1,-1,0
27166,0,128,-56,-1,-1,0
27200,1179648,128,-56,-1,-1,0
27233,2228224,128,-56,-1,-1,0
27266,1572864,128,-56,-1,-1,0
27300,262144,128,-56,-1,-1,0
27333,-655360,128,-56,-1,-1,0
27366,-524288,128,-56,-1,-1,0
27400,-1048576,128,-56,-1,-1,0
27433,-1179648,128,-56,-1,-1,0
27466,3866624,128,-56,-1,-1,0
27500,-3604480,128,-56,-1,-1,0
27533,-1572864,128,-56,-1,-1,0
27566,-655360,128,-56,-1,-1,0
27599,851968,128,-56,-1,-1,0
27633,2162688,128,-56,-1,-1,0
27666,851968,128,-56,-1,-1,0
27700,-262144,128,-56,-1,-1,0
27733,-917504,128,-56,-1,-1,0
27766,-786432,128,-56,-1,-1,0
27800,-1245184,128,-56,-1,-1,0
27833,-1376256,128,-56,-1,-1,0
27866,5767168,128,-56,-1,-1,0
27900,-3342336,128,-56,-1,-1,0
27933,-1310720,128,-56,-1,-1,0
27966,-458752,128,-56,-1,-1,0
28000,1507328,128,-56,-1,-1,0
28033,2162688,128,-56,-1,-1,0
28066,655360,128,-56,-1,-1,0
28099,0,128,-56,-1,-1,0
28133,-589824,128,-56,-1,-1,0
28166,-262144,128,-56,-1,-1,0
28200,-851968,128,-56,-1,-1,0
28233,-786432,128,-56,-1,-1,0
28266,6422528,128,-56,-1,-1,0
28300,-2162688,128,-56,-1,-1,0
28333,-1179648,128,-56,-1,-1,0
28366,-327680,128,-56,-1,-1,0
28400,1376256,128,-56,-1,-1,0
28433,1703936,128,-56,-1,-1,0
28466,131072,128,-56,-1,-1,0
28500,-327680,128,-56,-1,-1,0
28533,-917504,128,-56,-1,-1,0
28566,-786432,128,-56,-1,-1,0
28599,-983040,128,-56,-1,-1,0
28633,-786432,128,-56,-1,-1,0
28666,5373952,128,-56,-1,-1,0
28700,-1310720,128,-56,-1,-1,0
28733,-393216,128,-56,-1,-1,0
28766,655360,128,-56,-1,-1,0
28800,2228224,128,-56,-1,-1,0
28833,2097152,127,-56,-1,-1,0
28866,851968,127,-56,-1,-1,0
28900,0,127,-56,-1,-1,0
28933,-458752,127,-56,-1,-1,0
28966,-1048576,127,-56,-1,-1,0
29000,-1703936,127,-56,-1,-1,0
29033,-1310720,127,-56,-1,-1,0
29066,-2293760,127,-56,-1,-1,0
29099,-2424832,127,-56,-1,-1,0
29133,-1572864,127,-56,-1,-1,0
29166,-655360,127,-56,-1,-1,0
29200,2031616,127,-56,-1,-1,0
29233,983040,127,-56,-1,-1,0
29266,720896,127,-56,-1,-1,0
29300,-196608,127,-56,-1,-1,0
29333,-393216,127,-56,-1,-1,0
29366,-524288,127,-56,-1,-1,0
29400,-720896,127,-56,-1,-1,0
29433,262144,127,-56,-1,-1,0
29466,262144,127,-56,-1,-1,0
29500,-655360,127,-56,-1,-1,0
29533,-589824,127,-56,-1,-1,0
29566,0,127,-56,-1,-1,0
29599,1703936,127,-56,-1,-1,0
29633,458752,127,-56,-1,-1,0
29666,-65536,127,-56,-1,-1,0
29700,-720896,127,-56,-1,-1,0
29733,-196608,127,-56,-1,-1,0
29766,-1310720,127,-56,-1,-1,0
29800,-1179648,127,-56,-1,-1,0
29833,-196608,127,-56,-1,-1,0
29866,-1507328,127,-56,-1,-1,0
29900,-1441792,127,-56,-1,-1,0
29933,-655360,127,-56,-1,-1,0
29966,262144,127,-56,-1,-1,0
30000,1638400,127,-56,-1,-1,0
30033,983040,127,-56,-1,-1,0
30066,65536,127,-56,-1,-1,0
30099,-720896,127,-56,-1,-1,0
30133,-917504,127,-56,-1,-1,0
30166,-1048576,127,-56,-1,-1,0
30200,-1114112,127,-56,-1,-1,0
30233,131072,127,-56,-1,-1,0
30266,-2490368,127,-56,-1,-1,0
30300,-1310720,127,-56,-1,-1,0
30333,-917504,127,-56,-1,-1,0
30366,393216,127,-56,-1,-1,0
30400,2162688,127,-56,-1,-1,0
30433,1638400,127,-56,-1,-1,0
30466,327680,127,-56,-1,-1,0
30500,-327680,127,-56,-1,-1,0
30533,-589824,127,-56,-1,-1,0
30566,-589824,127,-56,-1,-1,0
30599,-589824,127,-56,-1,-1,0
30633,327680,127,-56,-1,-1,0
30666,-1769472,127,-56,-1,-1,0
30700,-1900544,127,-56,-1,-1,0
30733,-1048576,127,-56,-1,-1,0
30766,65536,127,-56,-1,-1,0
30800,2097152,127,-56,-1,-1,0
30833,1572864,127,-56,-1,-1,0
30866,262144,127,-56,-1,-1,0
30900,-720896,127,-56,-1,-1,0
30933,-458752,127,-56,-1,-1,0
30966,-720896,127,-56,-1,-1,0
31000,-851968,127,-56,-1,-1,0
31033,327680,127,-56,-1,-1,0
31066,-2424832,127,-56,-1,-1,0
31099,-1507328,127,-56,-1,-1,0
31133,-1114112,127,-56,-1,-1,0
31166,327680,127,-56,-1,-1,0
31200,2359296,127,-56,-1,-1,0
31233,1703936,127,-56,-1,-1,0
31266,-262144,127,-56,-1,-1,0
31300,-1245184,127,-56,-1,-1,0
31333,-851968,127,-56,-1,-1,0
31366,-1179648,127,-56,-1,-1,0
31400,-1114112,127,-56,-1,-1,0
31433,393216,127,-56,-1,-1,0
31466,-4128768,127,-56,-1,-1,0
31500,-1310720,127,-56,-1,-1,0
31533,-851968,127,-56,-1,-1,0
31566,458752,127,-56,-1,-1,0
31599,2424832,127,-56,-1,-1,0
31633,720896,127,-56,-1,-1,0
31666,-327680,127,-56,-1,-1,0
31700,-1179648,127,-56,-1,-1,0
31733,-1048576,127,-56,-1,-1,0
31766,-1572864,127,-56,-1,-1,0
31800,-1572864,127,-56,-1,-1,0
31833,1572864,127,-56,-1,-1,0
31866,-4653056,127,-56,-1,-1,0
31900,-1310720,127,-56,-1,-1,0
31933,-851968,127,-56,-1,-1,0
31966,851968,127,-56,-1,-1,0
32000,2359296,127,-56,-1,-1,0
32033,1245184,127,-56,-1,-1,0
32066,589824,127,-56,-1,-1,0
32100,-131072,127,-56,-1,-1,0
32133,-65536,127,-56,-1,-1,0
32166,-589824,127,-56,-1,-1,0
32200,-589824,127,-56,-1,-1,0
32233,6946816,127,-56,-1,-1,0
32266,-2424832,127,-56,-1,-1,0
32299,-1114112,127,-56,-1,-1,0
32333,-458752,127,-56,-1,-1,0
32366,1114112,127,-56,-1,-1,0
32400,2424832,127,-56,-1,-1,0
32433,1703936,127,-56,-1,-1,0
32466,851968,127,-56,-1,-1,0
32500,-65536,127,-56,-1,-1,0
32533,131072,127,-56,-1,-1,0
32566,-458752,127,-56,-1,-1,0
32600,-589824,127,-56,-1,-1,0
32633,6684672,127,-56,-1,-1,0
32666,-3080192,127,-56,-1,-1,0
32700,-1245184,127,-56,-1,-1,0
32733,-589824,127,-56,-1,-1,0
32766,1245184,127,-56,-1,-1,0
32800,2162688,127,-56,-1,-1,0
32833,655360,127,-56,-1,-1,0
32866,-524288,127,-56,-1,-1,0
32900,-1310720,127,-56,-1,-1,0
32933,-917504,127,-56,-1,-1,0
32966,-1441792,127,-56,-1,-1,0
33000,-1572864,127,-56,-1,-1,0
33033,5701632,127,-56,-1,-1,0
33066,-3932160,127,-56,-1,-1,0
33100,-1507328,127,-56,-1,-1,0
33133,-851968,127,-56,-1,-1,0
33166,1507328,127,-56,-1,-1,0
33200,1769472,127,-56,-1,-1,0
33233,-131072,127,-56,-1,-1,0
33266,-786432,127,-56,-1,-1,0
33300,-1245184,127,-56,-1,-1,0
33333,-983040,127,-56,-1,-1,0
33366,-1376256,127,-56,-1,-1,0
33400,-1179648,127,-56,-1,-1,0
33433,5898240,127,-56,-1,-1,0
33466,-2097152,127,-56,-1,-1,0
33500,-786432,127,-56,-1,-1,0
33533,-65536,127,-56,-1,-1,0
33566,1769472,127,-56,-1,-1,0
33600,2031616,127,-56,-1,-1,0
33633,983040,127,-56,-1,-1,0
33666,393216,127,-56,-1,-1,0
33700,65536,127,-56,-1,-1,0
33733,-196608,127,-56,-1,-1,0
33766,-458752,127,-56,-1,-1,0
33800,65536,127,-56,-1,-1,0
33833,1572864,127,-56,-1,-1,0
33866,-983040,127,-56,-1,-1,0
33900,-458752,127,-56,-1,-1,0
33933,589824,127,-56,-1,-1,0
33966,2359296,127,-56,-1,-1,0
34000,2097152,127,-56,-1,-1,0
34033,917504,127,-56,-1,-1,0
34066,-65536,127,-56,-1,-1,0
34100,-393216,127,-56,-1,-1,0
34133,-655360,127,-56,-1,-1,0
34166,-1048576,127,-56,-1,-1,0
34200,-327680,127,-56,-1,-1,0
34233,-2424832,127,-56,-1,-1,0
34266,-2031616,127,-56,-1,-1,0
34300,-1179648,127,-56,-1,-1,0
34333,131072,127,-56,-1,-1,0
34366,2162688,127,-56,-1,-1,0
34400,851968,126,-56,-1,-1,0
34433,-393216,126,-56,-1,-1,0
34466,-983040,126,-56,-1,-1,0
34500,-1179648,126,-56,-1,-1,0
34533,-1441792,126,-56,-1,-1,0
34566,-1638400,126,-56,-1,-1,0
34600,0,126,-56,-1,-1,0
34633,-4718592,126,-56,-1,-1,0
34666,-2031616,126,-56,-1,-1,0
34700,-1179648,126,-56,-1,-1,0
34733,131072,126,-56,-1,-1,0
34766,1900544,126,-56,-1,-1,0
34800,720896,126,-56,-1,-1,0
34833,-262144,126,-56,-1,-1,0
34866,-458752,126,-56,-1,-1,0
34900,-786432,126,-56,-1,-1,0
34933,-1179648,126,-56,-1,-1,0
34966,-917504,126,-56,-1,-1,0
35000,1507328,126,-56,-1,-1,0
35033,-2949120,126,-56,-1,-1,0
35066,-1179648,126,-56,-1,-1,0
35100,-327680,126,-56,-1,-1,0
35133,720896,126,-56,-1,-1,0
35166,2228224,126,-56,-1,-1,0
35200,1310720,126,-56,-1,-1,0
35233,720896,126,-56,-1,-1,0
35266,262144,126,-56,-1,-1,0
35300,196608,126,-56,-1,-1,0
35333,-327680,126,-56,-1,-1,0
35366,-524288,126,-56,-1,-1,0
35400,4718592,126,-56,-1,-1,0
35433,-2424832,126,-56,-1,-1,0
35466,-786432,126,-56,-1,-1,0
35500,-196608,126,-56,-1,-1,0
35533,1179648,126,-56,-1,-1,0
35566,2293760,126,-56,-1,-1,0
35600,1376256,126,-56,-1,-1,0
35633,0,126,-56,-1,-1,0
35666,-589824,126,-56,-1,-1,0
35700,-524288,126,-56,-1,-1,0
35733,-983040,126,-56,-1,-1,0
35766,-1376256,126,-56,-1,-1,0
35800,2031616,126,-56,-1,-1,0
35833,-4194304,126,-56,-1,-1,0
35866,-1835008,126,-56,-1,-1,0
35900,-1048576,126,-56,-1,-1,0
35933,524288,126,-56,-1,-1,0
35966,2162688,126,-56,-1,-1,0
36000,327680,126,-56,-1,-1,0
36033,-262144,126,-56,-1,-1,0
36066,-327680,126,-56,-1,-1,0
36100,0,126,-56,-1,-1,0
36133,131072,126,-56,-1,-1,0
36166,131072,126,-56,-1,-1,0
36200,1507328,126,-56,-1,-1,0
36233,-3932160,126,-56,-1,-1,0
36266,-2621440,126,-56,-1,-1,0
36300,-851968,126,-56,-1,-1,0
36333,2359296,126,-56,-1,-1,0
36366,1441792,126,-56,-1,-1,0
36400,131072,126,-56,-1,-1,0
36433,-983040,126,-56,-1,-1,0
36466,-2424832,126,-56,-1,-1,0
36500,-1048576,126,-56,-1,-1,0
36533,-2031616,126,-56,-1,-1,0
36566,-2555904,126,-56,-1,-1,0
36600,-327680,126,-56,-1,-1,0
36633,-3735552,126,-56,-1,-1,0
36666,-1769472,126,-56,-1,-1,0
36700,131072,126,-56,-1,-1,0
36733,1310720,126,-56,-1,-1,0
36766,2883584,126,-56,-1,-1,0
36800,1638400,126,-56,-1,-1,0
36833,917504,126,-56,-1,-1,0
36866,-327680,126,-56,-1,-1,0
36900,-327680,126,-56,-1,-1,0
36933,-393216,126,-56,-1,-1,0
36966,-655360,126,-56,-1,-1,0
37000,0,126,-56,-1,-1,0
37033,524288,126,-56,-1,-1,0
37066,-1441792,126,-56,-1,-1,0
37100,-851968,126,-56,-1,-1,0
37133,-589824,126,-56,-1,-1,0
37166,1114112,126,-56,-1,-1,0
37200,327680,126,-56,-1,-1,0
37233,-524288,126,-56,-1,-1,0
37266,-917504,126,-56,-1,-1,0
37300,-1179648,126,-56,-1,-1,0
37333,-1703936,126,-56,-1,-1,0
37366,-1900544,126,-56,-1,-1,0
37400,-1703936,126,-56,-1,-1,0
37433,2883584,126,-56,-1,-1,0
37466,-2228224,126,-56,-1,-1,0
37500,-1638400,126,-56,-1,-1,0
37533,-393216,126,-56,-1,-1,0
37566,1572864,126,-56,-1,-1,0
37600,1376256,126,-56,-1,-1,0
37633,458752,126,-56,-1,-1,0
37666,-196608,126,-56,-1,-1,0
37700,-327680,126,-56,-1,-1,0
37733,524288,126,-56,-1,-1,0
37766,65536,126,-56,-1,-1,0
37800,-196608,126,-56,-1,-1,0
37833,6356992,126,-56,-1,-1,0
37866,-1638400,126,-56,-1,-1,0
37900,-589824,126,-56,-1,-1,0
37933,262144,126,-56,-1,-1,0
37966,1900544,126,-56,-1,-1,0
38000,1376256,126,-56,-1,-1,0
38033,-65536,126,-56,-1,-1,0
38066,-327680,126,-56,-1,-1,0
38100,-1048576,126,-56,-1,-1,0
38133,-786432,126,-56,-1,-1,0
38166,-851968,126,-56,-1,-1,0
38200,-1310720,126,-56,-1,-1,0
38233,5505024,126,-56,-1,-1,0
38266,-2818048,126,-56,-1,-1,0
38300,-786432,126,-56,-1,-1,0
38333,-327680,126,-56,-1,-1,0
38366,1572864,126,-56,-1,-1,0
38400,2228224,126,-56,-1,-1,0
38433,1179648,126,-56,-1,-1,0
38466,196608,126,-56,-1,-1,0
38500,524288,126,-56,-1,-1,0
38533,327680,126,-56,-1,-1,0
38566,262144,126,-56,-1,-1,0
38600,65536,126,-56,-1,-1,0
38633,4390912,126,-56,-1,-1,0
38666,-2883584,126,-56,-1,-1,0
38700,-458752,126,-56,-1,-1,0
38733,327680,126,-56,-1,-1,0
38766,-65536,126,-56,-1,-1,0
38800,1245184,126,-56,-1,-1,0
38833,327680,126,-56,-1,-1,0
38866,-327680,126,-56,-1,-1,0
38900,-851968,126,-56,-1,-1,0
38933,-1376256,126,-56,-1,-1,0
38966,-1310720,126,-56,-1,-1,0
39000,-1376256,126,-56,-1,-1,0
39033,1769472,126,-56,-1,-1,0
39066,-3407872,126,-56,-1,-1,0
39100,-1245184,126,-56,-1,-1,0
39133,-917504,126,-56,-1,-1,0
39166,458752,126,-56,-1,-1,0
39200,1638400,126,-56,-1,-1,0
39233,589824,125,-56,-1,-1,0
39266,-327680,125,-56,-1,-1,0
39300,-393216,125,-56,-1,-1,0
39333,-917504,125,-56,-1,-1,0
39366,-1114112,125,-56,-1,-1,0
39400,-1703936,125,-56,-1,-1,0
39433,-524288,125,-56,-1,-1,0
39466,-1114112,125,-56,-1,-1,0
39500,-1966080,125,-56,-1,-1,0
39533,-786432,125,-56,-1,-1,0
39566,-131072,125,-56,-1,-1,0
39600,1376256,125,-56,-1,-1,0
39633,1376256,125,-56,-1,-1,0
39666,983040,125,-56,-1,-1,0
39700,393216,125,-56,-1,-1,0
39733,131072,125,-56,-1,-1,0
39766,0,125,-56,-1,-1,0
39800,-589824,125,-56,-1,-1,0
39833,-983040,125,-56,-1,-1,0
39866,327680,125,-56,-1,-1,0
39900,-1835008,125,-56,-1,-1,0
39933,-917504,125,-56,-1,-1,0
39966,655360,125,-56,-1,-1,0
40000,3080192,125,-56,-1,-1,0
40033,2686976,125,-56,-1,-1,0
40066,851968,125,-56,-1,-1,0
40100,589824,125,-56,-1,-1,0
40133,-131072,125,-56,-1,-1,0
40166,-851968,125,-56,-1,-1,0
40200,-1376256,125,-56,-1,-1,0
40233,-1507328,125,-56,-1,-1,0
40266,983040,125,-56,-1,-1,0
40300,-1638400,125,-56,-1,-1,0
40333,-458752,125,-56,-1,-1,0
40366,131072,125,-56,-1,-1,0
40400,1703936,125,-56,-1,-1,0
40433,1507328,125,-56,-1,-1,0
40466,393216,125,-56,-1,-1,0
40500,196608,125,-56,-1,-1,0
40533,-458752,125,-56,-1,-1,0
40566,-327680,125,-56,-1,-1,0
40600,-327680,125,-56,-1,-1,0
40633,-327680,125,-56,-1,-1,0
40666,3276800,125,-56,-1,-1,0
40700,-1638400,125,-56,-1,-1,0
40733,-655360,125,-56,-1,-1,0
40766,262144,125,-56,-1,-1,0
40800,1900544,125,-56,-1,-1,0
40833,1900544,125,-56,-1,-1,0
40866,0,125,-56,-1,-1,0
40900,-786432,125,-56,-1,-1,0
40933,-1572864,125,-56,-1,-1,0
40966,-1572864,125,-56,-1,-1,0
41000,-1900544,125,-56,-1,-1,0
41033,-2621440,125,-56,-1,-1,0
41066,2752512,125,-56,-1,-1,0
41100,-2621440,125,-56,-1,-1,0
41133,-196608,125,-56,-1,-1,0
41166,-1310720,125,-56,-1,-1,0
41200,851968,125,-56,-1,-1,0
41233,1507328,125,-56,-1,-1,0
41266,0,125,-56,-1,-1,0
41300,-131072,125,-56,-1,-1,0
41333,131072,125,-56,-1,-1,0
41366,-720896,125,-56,-1,-1,0
41400,0,125,-56,-1,-1,0
41433,-851968,125,-56,-1,-1,0
41466,6881280,125,-56,-1,-1,0
41500,-1638400,125,-56,-1,-1,0
41533,-1966080,125,-56,-1,-1,0
41566,0,125,-56,-1,-1,0
41600,1114112,125,-56,-1,-1,0
41633,2293760,125,-56,-1,-1,0
41666,458752,125,-56,-1,-1,0
41700,0,125,-56,-1,-1,0
41733,-851968,125,-56,-1,-1,0
41766,-1179648,125,-56,-1,-1,0
41800,-1245184,125,-56,-1,-1,0
41833,-1507328,125,-56,-1,-1,0
41866,7012352,125,-56,-1,-1,0
41900,-2490368,125,-56,-1,-1,0
41933,-1376256,125,-56,-1,-1,0
41966,-327680,125,-56,-1,-1,0
42000,1572864,125,-56,-1,-1,0
42033,1638400,125,-56,-1,-1,0
42066,327680,125,-56,-1,-1,0
42100,-720896,125,-56,-1,-1,0
42133,-655360,125,-56,-1,-1,0
42166,-589824,125,-56,-1,-1,0
42200,-1179648,125,-56,-1,-1,0
42233,-655360,125,-56,-1,-1,0
42266,6553600,125,-56,-1,-1,0
42300,-1114112,125,-56,-1,-1,0
42333,-262144,125,-56,-1,-1,0
42366,458752,125,-56,-1,-1,0
42400,2490368,125,-56,-1,-1,0
42433,2883584,125,-56,-1,-1,0
42466,1114112,125,-56,-1,-1,0
42500,-720896,125,-56,-1,-1,0
42533,-1114112,125,-56,-1,-1,0
42566,-1638400,125,-56,-1,-1,0
42600,-1638400,125,-56,-1,-1,0
42633,-983040,125,-56,-1,-1,0
42666,-1376256,125,-56,-1,-1,0
42700,-2359296,125,-56,-1,-1,0
42733,-1114112,125,-56,-1,-1,0
42766,65536,125,-56,-1,-1,0
42800,1966080,125,-56,-1,-1,0
42833,1376256,125,-56,-1,-1,0
42866,196608,125,-56,-1,-1,0
42900,-393216,125,-56,-1,-1,0
42933,-655360,125,-56,-1,-1,0
42966,-720896,125,-56,-1,-1,0
43000,-720896,125,-56,-1,-1,0
43033,131072,125,-56,-1,-1,0
43066,-2031616,125,-56,-1,-1,0
43100,-1048576,125,-56,-1,-1,0
43133,-524288,125,-56,-1,-1,0
43166,458752,125,-56,-1,-1,0
43200,1769472,125,-56,-1,-1,0
43233,917504,125,-56,-1,-1,0
43266,131072,125,-56,-1,-1,0
43300,-327680,125,-56,-1,-1,0
43333,-655360,125,-56,-1,-1,0
43366,-786432,125,-56,-1,-1,0
43400,-983040,125,-56,-1,-1,0
43433,393216,125,-56,-1,-1,0
43466,-2359296,125,-56,-1,-1,0
43500,-1638400,125,-56,-1,-1,0
43533,-1310720,125,-56,-1,-1,0
43566,-393216,125,-56,-1,-1,0
43600,1048576,125,-56,-1,-1,0
43633,1048576,125,-56,-1,-1,0
43666,196608,125,-56,-1,-1,0
43700,-196608,125,-56,-1,-1,0
43733,-262144,125,-56,-1,-1,0
43766,-393216,125,-56,-1,-1,0
43800,-393216,125,-56,-1,-1,0
43833,917504,125,-56,-1,-1,0
43866,-1179648,125,-56,-1,-1,0
43900,-655360,125,-56,-1,-1,0
43933,-65536,125,-56,-1,-1,0
43966,720896,125,-56,-1,-1,0
44000,2228224,125,-56,-1,-1,0
44033,1900544,125,-56,-1,-1,0
44066,589824,125,-56,-1,-1,0
44100,-196608,125,-56,-1,-1,0
44133,-393216,125,-56,-1,-1,0
44166,-655360,125,-56,-1,-1,0
44200,-1179648,125,-56,-1,-1,0
44233,393216,125,-56,-1,-1,0
44266,-3080192,125,-56,-1,-1,0
44300,-1900544,125,-56,-1,-1,0
44333,-1048576,125,-56,-1,-1,0
44366,-131072,125,-56,-1,-1,0
44400,1572864,125,-56,-1,-1,0
44433,1048576,125,-56,-1,-1,0
44466,-196608,125,-56,-1,-1,0
44500,-655360,125,-56,-1,-1,0
44533,-851968,125,-56,-1,-1,0
44566,-983040,125,-56,-1,-1,0
44600,-1179648,125,-56,-1,-1,0
44633,1048576,125,-56,-1,-1,0
44666,-3473408,125,-56,-1,-1,0
44700,-1310720,125,-56,-1,-1,0
44733,-524288,125,-56,-1,-1,0
44766,458752,125,-56,-1,-1,0
44800,1966080,125,-56,-1,-1,0
44833,1114112,125,-56,-1,-1,0
44866,196608,125,-56,-1,-1,0
44900,-196608,125,-56,-1,-1,0
44933,-327680,125,-56,-1,-1,0
44966,-589824,125,-56,-1,-1,0
45000,-655360,125,-56,-1,-1,0
45033,1966080,125,-56,-1,-1,0
45066,-2883584,125,-56,-1,-1,0
45100,-786432,125,-56,-1,-1,0
45133,-196608,125,-56,-1,-1,0
45166,786432,125,-56,-1,-1,0
45200,1900544,125,-56,-1,-1,0
45233,983040,125,-56,-1,-1,0
45266,131072,125,-56,-1,-1,0
45300,-458752,125,-56,-1,-1,0
45333,-589824,125,-56,-1,-1,0
45366,-851968,125,-56,-1,-1,0
45400,-1114112,125,-56,-1,-1,0
45433,1441792,125,-56,-1,-1,0
45466,-3276800,125,-56,-1,-1,0
45500,-1310720,125,-56,-1,-1,0
45533,-786432,125,-56,-1,-1,0
45566,0,125,-56,-1,-1,0
45600,1114112,125,-56,-1,-1,0
45633,655360,125,-56,-1,-1,0
45666,0,125,-56,-1,-1,0
45700,-524288,125,-56,-1,-1,0
45733,-655360,125,-56,-1,-1,0
45766,-786432,125,-56,-1,-1,0
45800,-851968,125,-56,-1,-1,0
45833,2490368,125,-56,-1,-1,0
45866,-2621440,125,-56,-1,-1,0
45900,-1179648,125,-56,-1,-1,0
45933,-589824,125,-56,-1,-1,0
45966,196608,125,-56,-1,-1,0
46000,1507328,125,-56,-1,-1,0
46033,1114112,125,-56,-1,-1,0
46066,262144,125,-56,-1,-1,0
46100,-262144,125,-56,-1,-1,0
46133,-327680,125,-56,-1,-1,0
46166,-327680,125,-56,-1,-1,0
46200,-655360,125,-56,-1,-1,0
46233,589824,125,-56,-1,-1,0
46266,-2162688,125,-56,-1,-1,0
46300,-1310720,125,-56,-1,-1,0
46333,-851968,125,-56,-1,-1,0
46366,0,125,-56,-1,-1,0
46400,1900544,125,-56,-1,-1,0
46433,1441792,125,-56,-1,-1,0
46466,327680,125,-56,-1,-1,0
46500,-65536,125,-56,-1,-1,0
46533,-393216,125,-56,-1,-1,0
46566,-65536,125,-56,-1,-1,0
46600,-196608,125,-56,-1,-1,0
46633,-393216,125,-56,-1,-1,0
46666,1638400,125,-56,-1,-1,0
46700,-917504,125,-56,-1,-1,0
46733,-589824,125,-56,-1,-1,0
46766,0,125,-56,-1,-1,0
46800,2162688,125,-56,-1,-1,0
46833,1572864,125,-56,-1,-1,0
46866,65536,125,-56,-1,-1,0
46900,-851968,125,-56,-1,-1,0
46933,-983040,125,-56,-1,-1,0
46966,-1048576,125,-56,-1,-1,0
47000,-1310720,125,-56,-1,-1,0
47033,-1376256,125,-56,-1,-1,0
47066,2686976,125,-56,-1,-1,0
47100,-2228224,125,-56,-1,-1,0
47133,-1179648,125,-56,-1,-1,0
47166,-262144,125,-56,-1,-1,0
47200,1572864,125,-56,-1,-1,0
47233,1703936,125,-56,-1,-1,0
47266,65536,125,-56,-1,-1,0
47300,-589824,125,-56,-1,-1,0
47333,-917504,125,-56,-1,-1,0
47366,-655360,125,-56,-1,-1,0
47400,-983040,125,-56,-1,-1,0
47433,-851968,125,-56,-1,-1,0
47466,6160384,125,-56,-1,-1,0
47500,-2097152,125,-56,-1,-1,0
47533,-327680,125,-56,-1,-1,0
47566,0,125,-56,-1,-1,0
47600,1376256,125,-56,-1,-1,0
47633,1900544,125,-56,-1,-1,0
47666,786432,125,-56,-1,-1,0
47700,-131072,125,-56,-1,-1,0
47733,-1114112,125,-56,-1,-1,0
47766,-1048576,125,-56,-1,-1,0
47800,-1048576,125,-56,-1,-1,0
47833,-720896,125,-56,-1,-1,0
47866,5701632,125,-56,-1,-1,0
47900,-2621440,125,-56,-1,-1,0
47933,-1048576,125,-56,-1,-1,0
47966,-458752,125,-56,-1,-1,0
48000,458752,125,-56,-1,-1,0
48033,1507328,125,-56,-1,-1,0
48066,851968,125,-56,-1,-1,0
48100,196608,125,-56,-1,-1,0
48133,-131072,125,-56,-1,-1,0
48166,-393216,125,-56,-1,-1,0
48200,-458752,125,-56,-1,-1,0
48233,-720896,125,-56,-1,-1,0
48266,3014656,125,-56,-1,-1,0
48300,-2949120,125,-56,-1,-1,0
48333,-851968,125,-56,-1,-1,0
48366,-983040,125,-56,-1,-1,0
48400,131072,125,-56,-1,-1,0
48433,1638400,125,-56,-1,-1,0
48466,983040,125,-56,-1,-1,0
48500,196608,125,-56,-1,-1,0
48533,0,125,-56,-1,-1,0
48566,196608,125,-56,-1,-1,0
48600,65536,125,-56,-1,-1,0
48633,-393216,125,-56,-1,-1,0
48666,720896,125,-56,-1,-1,0
48700,-1245184,125,-56,-1,-1,0
48733,-983040,125,-56,-1,-1,0
48766,-393216,125,-56,-1,-1,0
48800,262144,125,-56,-1,-1,0
48833,2293760,125,-56,-1,-1,0
48866,1769472,125,-56,-1,-1,0
48900,65536,125,-56,-1,-1,0
48933,-393216,125,-56,-1,-1,0
48966,-917504,125,-56,-1,-1,0
49000,-983040,125,-56,-1,-1,0
49033,-1638400,125,-56,-1,-1,0
49066,-1179648,125,-56,-1,-1,0
49100,-1245184,125,-56,-1,-1,0
49133,-1966080,125,-56,-1,-1,0
49166,-1245184,125,-56,-1,-1,0
49200,0,125,-56,-1,-1,0
49233,2228224,125,-56,-1,-1,0
49266,1114112,125,-56,-1,-1,0
49300,0,125,-56,-1,-1,0
49333,-327680,125,-56,-1,-1,0
49366,-655360,125,-56,-1,-1,0
49400,-524288,125,-56,-1,-1,0
49433,-655360,125,-56,-1,-1,0
49466,-458752,125,-56,-1,-1,0
49500,917504,125,-56,-1,-1,0
49533,-1376256,125,-56,-1,-1,0
49566,-1048576,125,-56,-1,-1,0
49600,-262144,125,-56,-1,-1,0
49633,917504,125,-56,-1,-1,0
49666,1048576,125,-56,-1,-1,0
49700,65536,125,-56,-1,-1,0
49733,-327680,125,-56,-1,-1,0
49766,-655360,125,-56,-1,-1,0
49800,-458752,125,-56,-1,-1,0
49833,-589824,125,-56,-1,-1,0
49866,-655360,125,-56,-1,-1,0
49900,3473408,125,-56,-1,-1,0
49933,-917504,125,-56,-1,-1,0
49966,-327680,125,-56,-1,-1,0
50000,393216,125,-56,-1,-1,0
