milliseconds, ECG, ECG HR, PPG, PPG HR, SpO2, PI
1523614603970,2293760,89,-56,-1,-1,0
1523614603970,2490368,89,-56,-1,-1,0
1523614603970,2555904,89,-56,-1,-1,0
1523614603970,2293760,89,-56,-1,-1,0
1523614603970,1769472,89,-56,-1,-1,0
1523614604004,1179648,89,-56,-1,-1,0
1523614604004,720896,89,-56,-1,-1,0
1523614604004,262144,89,-56,-1,-1,0
1523614604004,0,89,-56,-1,-1,0
1523614604004,-327680,89,-56,-1,-1,0
1523614604044,-524288,89,-56,-1,-1,0
1523614604044,-589824,89,-56,-1,-1,0
1523614604044,-655360,89,-56,-1,-1,0
1523614604044,-720896,89,-56,-1,-1,0
1523614604044,-851968,89,-56,-1,-1,0
1523614604084,-983040,89,-56,-1,-1,0
1523614604084,-983040,89,-56,-1,-1,0
1523614604084,-983040,89,-56,-1,-1,0
1523614604084,-917504,89,-56,-1,-1,0
1523614604084,-786432,89,-56,-1,-1,0
1523614604124,-720896,89,-56,-1,-1,0
1523614604124,-720896,89,-56,-1,-1,0
1523614604124,-655360,89,-56,-1,-1,0
1523614604124,-524288,89,-56,-1,-1,0
1523614604124,-524288,89,-56,-1,-1,0
1523614604164,-589824,89,-56,-1,-1,0
1523614604164,-589824,89,-56,-1,-1,0
1523614604164,-589824,89,-56,-1,-1,0
1523614604164,-589824,89,-56,-1,-1,0
1523614604164,-589824,89,-56,-1,-1,0
1523614604204,-655360,89,-56,-1,-1,0
1523614604204,-655360,89,-56,-1,-1,0
1523614604204,-655360,89,-56,-1,-1,0
1523614604204,-655360,89,-56,-1,-1,0
1523614604204,-655360,89,-56,-1,-1,0
1523614604244,-655360,89,-56,-1,-1,0
1523614604244,-655360,89,-56,-1,-1,0
1523614604244,-720896,89,-56,-1,-1,0
1523614604244,-786432,89,-56,-1,-1,0
1523614604244,-720896,89,-56,-1,-1,0
1523614604284,-720896,89,-56,-1,-1,0
1523614604284,-720896,89,-56,-1,-1,0
1523614604284,-786432,89,-56,-1,-1,0
1523614604284,-720896,89,-56,-1,-1,0
1523614604284,-655360,89,-56,-1,-1,0
1523614604324,-524288,89,-56,-1,-1,0
1523614604324,-589824,89,-56,-1,-1,0
1523614604324,-786432,89,-56,-1,-1,0
1523614604324,-851968,89,-56,-1,-1,0
1523614604324,-851968,89,-56,-1,-1,0
1523614604364,-851968,89,-56,-1,-1,0
1523614604364,-851968,89,-56,-1,-1,0
1523614604364,-720896,89,-56,-1,-1,0
1523614604364,-589824,89,-56,-1,-1,0
1523614604364,-655360,89,-56,-1,-1,0
1523614604404,-720896,89,-56,-1,-1,0
1523614604404,-786432,89,-56,-1,-1,0
1523614604404,-786432,89,-56,-1,-1,0
1523614604404,-720896,89,-56,-1,-1,0
1523614604404,-655360,89,-56,-1,-1,0
1523614604444,-720896,89,-56,-1,-1,0
1523614604444,-983040,89,-56,-1,-1,0
1523614604444,-1245184,89,-56,-1,-1,0
1523614604444,-458752,89,-56,-1,-1,0
1523614604444,3211264,89,-56,-1,-1,0
1523614604484,8519680,89,-56,-1,-1,0
1523614604484,8912896,89,-56,-1,-1,0
1523614604484,3670016,89,-56,-1,-1,0
1523614604484,-917504,89,-56,-1,-1,0
1523614604484,-1179648,89,-56,-1,-1,0
1523614604524,-786432,89,-56,-1,-1,0
1523614604524,-720896,89,-56,-1,-1,0
1523614604524,-720896,89,-56,-1,-1,0
1523614604524,-655360,89,-56,-1,-1,0
1523614604524,-589824,89,-56,-1,-1,0
1523614604564,-524288,89,-56,-1,-1,0
1523614604564,-458752,89,-56,-1,-1,0
1523614604564,-393216,89,-56,-1,-1,0
1523614604564,-327680,89,-56,-1,-1,0
1523614604564,-262144,89,-56,-1,-1,0
1523614604614,-131072,89,-56,-1,-1,0
1523614604614,0,89,-56,-1,-1,0
1523614604614,65536,89,-56,-1,-1,0
1523614604614,327680,89,-56,-1,-1,0
1523614604614,589824,89,-56,-1,-1,0
1523614604642,917504,89,-56,-1,-1,0
1523614604642,1179648,89,-56,-1,-1,0
1523614604642,1638400,89,-56,-1,-1,0
1523614604642,2031616,89,-56,-1,-1,0
1523614604642,2424832,89,-56,-1,-1,0
1523614604684,2555904,89,-56,-1,-1,0
1523614604684,2621440,89,-56,-1,-1,0
1523614604684,2424832,89,-56,-1,-1,0
1523614604684,2097152,89,-56,-1,-1,0
1523614604684,1572864,89,-56,-1,-1,0
1523614604725,1048576,89,-56,-1,-1,0
1523614604725,524288,89,-56,-1,-1,0
1523614604725,131072,89,-56,-1,-1,0
1523614604725,0,89,-56,-1,-1,0
1523614604725,-131072,89,-56,-1,-1,0
1523614604764,-393216,89,-56,-1,-1,0
1523614604764,-589824,89,-56,-1,-1,0
1523614604764,-655360,89,-56,-1,-1,0
1523614604764,-720896,89,-56,-1,-1,0
1523614604764,-720896,89,-56,-1,-1,0
1523614604804,-720896,89,-56,-1,-1,0
1523614604804,-655360,89,-56,-1,-1,0
1523614604804,-589824,89,-56,-1,-1,0
1523614604804,-589824,89,-56,-1,-1,0
1523614604804,-589824,89,-56,-1,-1,0
1523614604844,-524288,89,-56,-1,-1,0
1523614604844,-393216,89,-56,-1,-1,0
1523614604844,-327680,89,-56,-1,-1,0
1523614604844,-327680,89,-56,-1,-1,0
1523614604844,-327680,89,-56,-1,-1,0
1523614604884,-327680,89,-56,-1,-1,0
1523614604884,-327680,89,-56,-1,-1,0
1523614604884,-393216,89,-56,-1,-1,0
1523614604884,-393216,89,-56,-1,-1,0
1523614604884,-393216,89,-56,-1,-1,0
1523614604925,-393216,89,-56,-1,-1,0
1523614604925,-458752,89,-56,-1,-1,0
1523614604925,-458752,89,-56,-1,-1,0
1523614604925,-458752,89,-56,-1,-1,0
1523614604925,-393216,89,-56,-1,-1,0
1523614604962,-458752,89,-56,-1,-1,0
1523614604962,-458752,89,-56,-1,-1,0
1523614604962,-458752,89,-56,-1,-1,0
1523614604962,-393216,89,-56,-1,-1,0
1523614604962,-327680,89,-56,-1,-1,0
1523614605005,-393216,89,-56,-1,-1,0
1523614605005,-458752,89,-56,-1,-1,0
1523614605005,-524288,89,-56,-1,-1,0
1523614605005,-524288,89,-56,-1,-1,0
1523614605005,-589824,89,-56,-1,-1,0
1523614605043,-524288,89,-56,-1,-1,0
1523614605043,-458752,89,-56,-1,-1,0
1523614605043,-458752,89,-56,-1,-1,0
1523614605043,-458752,89,-56,-1,-1,0
1523614605043,-524288,89,-56,-1,-1,0
1523614605083,-458752,89,-56,-1,-1,0
1523614605083,-393216,89,-56,-1,-1,0
1523614605083,-458752,89,-56,-1,-1,0
1523614605083,-458752,89,-56,-1,-1,0
1523614605083,-458752,89,-56,-1,-1,0
1523614605122,-458752,89,-56,-1,-1,0
1523614605122,-524288,89,-56,-1,-1,0
1523614605122,-524288,89,-56,-1,-1,0
1523614605122,-524288,89,-56,-1,-1,0
1523614605122,-524288,89,-56,-1,-1,0
1523614605163,-524288,89,-56,-1,-1,0
1523614605163,-524288,89,-56,-1,-1,0
1523614605163,-589824,89,-56,-1,-1,0
1523614605163,-589824,89,-56,-1,-1,0
1523614605163,-589824,89,-56,-1,-1,0
1523614605208,-458752,89,-56,-1,-1,0
1523614605208,-327680,89,-56,-1,-1,0
1523614605208,-327680,89,-56,-1,-1,0
1523614605208,-393216,89,-56,-1,-1,0
1523614605208,-327680,89,-56,-1,-1,0
1523614605251,-327680,89,-56,-1,-1,0
1523614605251,-327680,89,-56,-1,-1,0
1523614605251,-393216,89,-56,-1,-1,0
1523614605251,-655360,89,-56,-1,-1,0
1523614605251,-917504,89,-56,-1,-1,0
1523614605283,0,89,-56,-1,-1,0
1523614605283,3997696,89,-56,-1,-1,0
1523614605283,9437184,89,-56,-1,-1,0
1523614605283,9502720,89,-56,-1,-1,0
1523614605283,4194304,89,-56,-1,-1,0
1523614605323,-196608,89,-56,-1,-1,0
1523614605323,-524288,89,-56,-1,-1,0
1523614605323,-262144,89,-56,-1,-1,0
1523614605323,-262144,89,-56,-1,-1,0
1523614605323,-327680,89,-56,-1,-1,0
1523614605363,-458752,89,-56,-1,-1,0
1523614605363,-327680,89,-56,-1,-1,0
1523614605363,-196608,89,-56,-1,-1,0
1523614605363,-65536,89,-56,-1,-1,0
1523614605363,-65536,89,-56,-1,-1,0
1523614605406,0,89,-56,-1,-1,0
1523614605406,65536,89,-56,-1,-1,0
1523614605406,131072,89,-56,-1,-1,0
1523614605406,262144,89,-56,-1,-1,0
1523614605406,262144,89,-56,-1,-1,0
1523614605443,393216,89,-56,-1,-1,0
1523614605443,589824,89,-56,-1,-1,0
1523614605443,1048576,89,-56,-1,-1,0
1523614605443,1376256,89,-56,-1,-1,0
1523614605443,1769472,89,-56,-1,-1,0
1523614605483,2097152,89,-56,-1,-1,0
1523614605483,2424832,89,-56,-1,-1,0
1523614605483,2555904,89,-56,-1,-1,0
1523614605483,2686976,89,-56,-1,-1,0
1523614605483,2621440,89,-56,-1,-1,0
1523614605523,2424832,89,-56,-1,-1,0
1523614605523,2031616,89,-56,-1,-1,0
1523614605523,1638400,89,-56,-1,-1,0
1523614605523,1179648,89,-56,-1,-1,0
1523614605523,720896,89,-56,-1,-1,0
1523614605563,393216,89,-56,-1,-1,0
1523614605563,131072,89,-56,-1,-1,0
1523614605563,0,89,-56,-1,-1,0
1523614605563,0,89,-56,-1,-1,0
1523614605563,-131072,89,-56,-1,-1,0
1523614605603,-131072,89,-56,-1,-1,0
1523614605603,-196608,89,-56,-1,-1,0
1523614605603,-327680,89,-56,-1,-1,0
1523614605603,-393216,89,-56,-1,-1,0
1523614605603,-327680,89,-56,-1,-1,0
1523614605643,-262144,89,-56,-1,-1,0
1523614605643,-262144,89,-56,-1,-1,0
1523614605643,-262144,89,-56,-1,-1,0
1523614605643,-327680,89,-56,-1,-1,0
1523614605643,-327680,89,-56,-1,-1,0
1523614605683,-262144,89,-56,-1,-1,0
1523614605683,-131072,89,-56,-1,-1,0
1523614605683,-131072,89,-56,-1,-1,0
1523614605683,-131072,89,-56,-1,-1,0
1523614605683,-196608,89,-56,-1,-1,0
1523614605723,-196608,89,-56,-1,-1,0
1523614605723,-262144,89,-56,-1,-1,0
1523614605723,-262144,89,-56,-1,-1,0
1523614605723,-327680,89,-56,-1,-1,0
1523614605723,-327680,89,-56,-1,-1,0
1523614605763,-327680,89,-56,-1,-1,0
1523614605763,-393216,89,-56,-1,-1,0
1523614605763,-458752,89,-56,-1,-1,0
1523614605763,-524288,89,-56,-1,-1,0
1523614605763,-589824,89,-56,-1,-1,0
1523614605803,-589824,89,-56,-1,-1,0
1523614605803,-524288,89,-56,-1,-1,0
1523614605803,-524288,89,-56,-1,-1,0
1523614605803,-655360,89,-56,-1,-1,0
1523614605803,-655360,89,-56,-1,-1,0
1523614605843,-655360,89,-56,-1,-1,0
1523614605843,-655360,89,-56,-1,-1,0
1523614605843,-720896,89,-56,-1,-1,0
1523614605843,-720896,89,-56,-1,-1,0
1523614605843,-786432,89,-56,-1,-1,0
1523614605888,-786432,89,-56,-1,-1,0
1523614605888,-786432,89,-56,-1,-1,0
1523614605888,-851968,89,-56,-1,-1,0
1523614605888,-917504,89,-56,-1,-1,0
1523614605888,-917504,89,-56,-1,-1,0
1523614605923,-917504,89,-56,-1,-1,0
1523614605923,-917504,89,-56,-1,-1,0
1523614605923,-917504,89,-56,-1,-1,0
1523614605923,-917504,89,-56,-1,-1,0
1523614605923,-983040,89,-56,-1,-1,0
1523614605963,-1048576,89,-56,-1,-1,0
1523614605963,-1048576,89,-56,-1,-1,0
1523614605963,-983040,89,-56,-1,-1,0
1523614605963,-983040,89,-56,-1,-1,0
1523614605963,-983040,89,-56,-1,-1,0
1523614606005,-1048576,89,-56,-1,-1,0
1523614606005,-1114112,89,-56,-1,-1,0
1523614606005,-1114112,89,-56,-1,-1,0
1523614606005,-1048576,89,-56,-1,-1,0
1523614606005,-983040,89,-56,-1,-1,0
1523614606043,-917504,89,-56,-1,-1,0
1523614606043,-917504,89,-56,-1,-1,0
1523614606043,-983040,89,-56,-1,-1,0
1523614606043,-1114112,89,-56,-1,-1,0
1523614606043,-1048576,89,-56,-1,-1,0
1523614606085,-983040,89,-56,-1,-1,0
1523614606085,-983040,89,-56,-1,-1,0
1523614606085,-1048576,89,-56,-1,-1,0
1523614606085,-1376256,89,-56,-1,-1,0
1523614606085,-1310720,89,-56,-1,-1,0
1523614606123,655360,89,-56,-1,-1,0
1523614606123,5570560,89,-56,-1,-1,0
1523614606123,9109504,89,-56,-1,-1,0
1523614606123,5832704,89,-56,-1,-1,0
1523614606123,196608,89,-56,-1,-1,0
1523614606163,-1769472,89,-56,-1,-1,0
1523614606163,-1310720,89,-56,-1,-1,0
1523614606163,-1114112,89,-56,-1,-1,0
1523614606163,-1114112,89,-56,-1,-1,0
1523614606163,-1048576,89,-56,-1,-1,0
1523614606205,-983040,89,-56,-1,-1,0
1523614606205,-917504,89,-56,-1,-1,0
1523614606205,-917504,89,-56,-1,-1,0
1523614606205,-786432,89,-56,-1,-1,0
1523614606205,-786432,89,-56,-1,-1,0
1523614606243,-786432,89,-56,-1,-1,0
1523614606243,-786432,89,-56,-1,-1,0
1523614606243,-589824,89,-56,-1,-1,0
1523614606243,-458752,89,-56,-1,-1,0
1523614606243,-262144,89,-56,-1,-1,0
1523614606283,-65536,89,-56,-1,-1,0
1523614606283,131072,89,-56,-1,-1,0
1523614606283,393216,89,-56,-1,-1,0
1523614606283,786432,89,-56,-1,-1,0
1523614606283,1179648,89,-56,-1,-1,0
1523614606323,1507328,89,-56,-1,-1,0
1523614606323,1769472,89,-56,-1,-1,0
1523614606323,1966080,89,-56,-1,-1,0
1523614606323,2031616,89,-56,-1,-1,0
1523614606323,1835008,89,-56,-1,-1,0
1523614606363,1441792,89,-56,-1,-1,0
1523614606363,917504,89,-56,-1,-1,0
1523614606363,393216,89,-56,-1,-1,0
1523614606363,-65536,89,-56,-1,-1,0
1523614606363,-393216,89,-56,-1,-1,0
1523614606403,-720896,89,-56,-1,-1,0
1523614606403,-917504,89,-56,-1,-1,0
1523614606403,-1114112,89,-56,-1,-1,0
1523614606403,-1245184,89,-56,-1,-1,0
1523614606403,-1310720,89,-56,-1,-1,0
1523614606443,-1376256,89,-56,-1,-1,0
1523614606443,-1507328,89,-56,-1,-1,0
1523614606443,-1507328,89,-56,-1,-1,0
1523614606443,-1507328,89,-56,-1,-1,0
1523614606443,-1507328,89,-56,-1,-1,0
1523614606483,-1507328,89,-56,-1,-1,0
1523614606483,-1441792,89,-56,-1,-1,0
1523614606483,-1441792,89,-56,-1,-1,0
1523614606483,-1376256,89,-56,-1,-1,0
1523614606483,-1310720,89,-56,-1,-1,0
1523614606528,-1245184,89,-56,-1,-1,0
1523614606528,-1179648,89,-56,-1,-1,0
1523614606528,-1179648,89,-56,-1,-1,0
1523614606528,-1245184,89,-56,-1,-1,0
1523614606528,-1245184,89,-56,-1,-1,0
1523614606562,-1310720,89,-56,-1,-1,0
1523614606562,-1310720,89,-56,-1,-1,0
1523614606562,-1310720,89,-56,-1,-1,0
1523614606562,-1310720,89,-56,-1,-1,0
1523614606562,-1376256,89,-56,-1,-1,0
1523614606603,-1441792,89,-56,-1,-1,0
1523614606603,-1441792,89,-56,-1,-1,0
1523614606603,-1441792,89,-56,-1,-1,0
1523614606603,-1441792,89,-56,-1,-1,0
1523614606603,-1441792,89,-56,-1,-1,0
1523614606645,-1507328,89,-56,-1,-1,0
1523614606645,-1507328,89,-56,-1,-1,0
1523614606645,-1507328,89,-56,-1,-1,0
1523614606645,-1572864,89,-56,-1,-1,0
1523614606645,-1572864,89,-56,-1,-1,0
1523614606683,-1572864,89,-56,-1,-1,0
1523614606683,-1638400,89,-56,-1,-1,0
1523614606683,-1572864,89,-56,-1,-1,0
1523614606683,-1507328,89,-56,-1,-1,0
1523614606683,-1507328,89,-56,-1,-1,0
1523614606723,-1507328,89,-56,-1,-1,0
1523614606723,-1572864,89,-56,-1,-1,0
1523614606723,-1638400,89,-56,-1,-1,0
1523614606723,-1572864,89,-56,-1,-1,0
1523614606723,-1572864,89,-56,-1,-1,0
1523614606763,-1572864,89,-56,-1,-1,0
1523614606763,-1572864,89,-56,-1,-1,0
1523614606763,-1572864,89,-56,-1,-1,0
1523614606763,-1638400,89,-56,-1,-1,0
1523614606763,-1703936,89,-56,-1,-1,0
1523614606803,-1703936,89,-56,-1,-1,0
1523614606803,-1703936,89,-56,-1,-1,0
1523614606803,-1638400,89,-56,-1,-1,0
1523614606803,-1507328,89,-56,-1,-1,0
1523614606803,-1507328,89,-56,-1,-1,0
1523614606843,-1507328,89,-56,-1,-1,0
1523614606843,-1638400,89,-56,-1,-1,0
1523614606843,-1638400,89,-56,-1,-1,0
1523614606843,-1638400,89,-56,-1,-1,0
1523614606843,-1638400,89,-56,-1,-1,0
1523614606883,-1572864,89,-56,-1,-1,0
1523614606883,-1835008,89,-56,-1,-1,0
1523614606883,-2097152,89,-56,-1,-1,0
1523614606883,-1245184,89,-56,-1,-1,0
1523614606883,2818048,89,-56,-1,-1,0
1523614606923,8257536,89,-56,-1,-1,0
1523614606923,8192000,89,-56,-1,-1,0
1523614606923,2818048,89,-56,-1,-1,0
1523614606923,-1507328,89,-56,-1,-1,0
1523614606923,-1835008,89,-56,-1,-1,0
1523614606962,-1572864,89,-56,-1,-1,0
1523614606962,-1638400,89,-56,-1,-1,0
1523614606962,-1638400,89,-56,-1,-1,0
1523614606962,-1572864,89,-56,-1,-1,0
1523614606962,-1441792,89,-56,-1,-1,0
1523614607003,-1376256,89,-56,-1,-1,0
1523614607003,-1310720,89,-56,-1,-1,0
1523614607003,-1245184,89,-56,-1,-1,0
1523614607003,-1245184,89,-56,-1,-1,0
1523614607003,-1114112,89,-56,-1,-1,0
1523614607042,-983040,89,-56,-1,-1,0
1523614607042,-851968,89,-56,-1,-1,0
1523614607042,-720896,89,-56,-1,-1,0
1523614607042,-524288,89,-56,-1,-1,0
1523614607042,-262144,89,-56,-1,-1,0
1523614607083,0,89,-56,-1,-1,0
1523614607083,327680,89,-56,-1,-1,0
1523614607083,720896,89,-56,-1,-1,0
1523614607083,1179648,89,-56,-1,-1,0
1523614607083,1572864,89,-56,-1,-1,0
1523614607122,1900544,89,-56,-1,-1,0
1523614607122,2031616,89,-56,-1,-1,0
1523614607122,1900544,89,-56,-1,-1,0
1523614607122,1703936,89,-56,-1,-1,0
1523614607122,1245184,89,-56,-1,-1,0
1523614607167,720896,89,-56,-1,-1,0
1523614607167,262144,89,-56,-1,-1,0
1523614607167,-131072,89,-56,-1,-1,0
1523614607167,-458752,89,-56,-1,-1,0
1523614607167,-655360,89,-56,-1,-1,0
1523614607203,-786432,89,-56,-1,-1,0
1523614607203,-786432,89,-56,-1,-1,0
1523614607203,-786432,89,-56,-1,-1,0
1523614607203,-851968,89,-56,-1,-1,0
1523614607203,-851968,89,-56,-1,-1,0
1523614607243,-851968,89,-56,-1,-1,0
1523614607243,-851968,89,-56,-1,-1,0
1523614607243,-851968,89,-56,-1,-1,0
1523614607243,-851968,89,-56,-1,-1,0
1523614607243,-851968,89,-56,-1,-1,0
1523614607282,-786432,89,-56,-1,-1,0
1523614607282,-655360,89,-56,-1,-1,0
1523614607282,-524288,89,-56,-1,-1,0
1523614607282,-458752,89,-56,-1,-1,0
1523614607282,-458752,89,-56,-1,-1,0
1523614607323,-393216,89,-56,-1,-1,0
1523614607323,-327680,89,-56,-1,-1,0
1523614607323,-262144,89,-56,-1,-1,0
1523614607323,-196608,89,-56,-1,-1,0
1523614607323,-262144,89,-56,-1,-1,0
1523614607363,-327680,89,-56,-1,-1,0
1523614607363,-262144,89,-56,-1,-1,0
1523614607363,-196608,89,-56,-1,-1,0
1523614607363,-196608,89,-56,-1,-1,0
1523614607363,-262144,89,-56,-1,-1,0
1523614607403,-262144,89,-56,-1,-1,0
1523614607403,-196608,89,-56,-1,-1,0
1523614607403,-196608,89,-56,-1,-1,0
1523614607403,-262144,89,-56,-1,-1,0
1523614607403,-262144,89,-56,-1,-1,0
1523614607445,-196608,89,-56,-1,-1,0
1523614607445,-131072,89,-56,-1,-1,0
1523614607445,-131072,89,-56,-1,-1,0
1523614607445,-131072,89,-56,-1,-1,0
1523614607445,-196608,89,-56,-1,-1,0
1523614607483,-196608,89,-56,-1,-1,0
1523614607483,-131072,89,-56,-1,-1,0
1523614607483,-65536,89,-56,-1,-1,0
1523614607483,-131072,89,-56,-1,-1,0
1523614607483,-196608,89,-56,-1,-1,0
1523614607522,0,89,-56,-1,-1,0
1523614607522,131072,89,-56,-1,-1,0
1523614607522,0,89,-56,-1,-1,0
1523614607522,-262144,89,-56,-1,-1,0
1523614607522,-327680,89,-56,-1,-1,0
1523614607563,-262144,89,-56,-1,-1,0
1523614607563,-65536,89,-56,-1,-1,0
1523614607563,65536,89,-56,-1,-1,0
1523614607563,262144,89,-56,-1,-1,0
1523614607563,131072,89,-56,-1,-1,0
1523614607602,-65536,89,-56,-1,-1,0
1523614607602,-327680,89,-56,-1,-1,0
1523614607602,-458752,89,-56,-1,-1,0
1523614607602,-131072,89,-56,-1,-1,0
1523614607602,65536,89,-56,-1,-1,0
1523614607645,-131072,89,-56,-1,-1,0
1523614607645,-786432,89,-56,-1,-1,0
1523614607645,-458752,89,-56,-1,-1,0
1523614607645,2752512,89,-56,-1,-1,0
1523614607645,8650752,89,-56,-1,-1,0
1523614607682,11141120,88,-56,-1,-1,0
1523614607682,6422528,88,-56,-1,-1,0
1523614607682,589824,88,-56,-1,-1,0
1523614607682,-720896,88,-56,-1,-1,0
1523614607682,-393216,88,-56,-1,-1,0
1523614607723,-262144,88,-56,-1,-1,0
1523614607723,-262144,88,-56,-1,-1,0
1523614607723,-196608,88,-56,-1,-1,0
1523614607723,0,88,-56,-1,-1,0
1523614607723,65536,88,-56,-1,-1,0
1523614607762,-196608,88,-56,-1,-1,0
1523614607762,-196608,88,-56,-1,-1,0
1523614607762,0,88,-56,-1,-1,0
1523614607762,327680,88,-56,-1,-1,0
1523614607762,458752,88,-56,-1,-1,0
1523614607807,131072,88,-56,-1,-1,0
1523614607807,-131072,88,-56,-1,-1,0
1523614607807,262144,88,-56,-1,-1,0
1523614607807,851968,88,-56,-1,-1,0
1523614607807,1310720,88,-56,-1,-1,0
1523614607843,1638400,88,-56,-1,-1,0
1523614607843,2031616,88,-56,-1,-1,0
1523614607843,2359296,88,-56,-1,-1,0
1523614607843,2752512,88,-56,-1,-1,0
1523614607843,3014656,88,-56,-1,-1,0
1523614607883,3276800,88,-56,-1,-1,0
1523614607883,3407872,88,-56,-1,-1,0
1523614607883,3145728,88,-56,-1,-1,0
1523614607883,2555904,88,-56,-1,-1,0
1523614607883,1835008,88,-56,-1,-1,0
1523614607923,1441792,88,-56,-1,-1,0
1523614607923,917504,88,-56,-1,-1,0
1523614607923,524288,88,-56,-1,-1,0
1523614607923,131072,88,-56,-1,-1,0
1523614607923,0,88,-56,-1,-1,0
1523614607963,-196608,88,-56,-1,-1,0
1523614607963,-327680,88,-56,-1,-1,0
1523614607963,-393216,88,-56,-1,-1,0
1523614607963,-524288,88,-56,-1,-1,0
1523614607963,-589824,88,-56,-1,-1,0
1523614608002,-655360,88,-56,-1,-1,0
1523614608002,-917504,88,-56,-1,-1,0
1523614608002,-1048576,88,-56,-1,-1,0
1523614608002,-655360,88,-56,-1,-1,0
1523614608002,-393216,88,-56,-1,-1,0
1523614608043,-524288,88,-56,-1,-1,0
1523614608043,-655360,88,-56,-1,-1,0
1523614608043,-458752,88,-56,-1,-1,0
1523614608043,-196608,88,-56,-1,-1,0
1523614608043,-327680,88,-56,-1,-1,0
1523614608083,-458752,88,-56,-1,-1,0
1523614608083,-524288,88,-56,-1,-1,0
1523614608083,-196608,88,-56,-1,-1,0
1523614608083,-131072,88,-56,-1,-1,0
1523614608083,-262144,88,-56,-1,-1,0
1523614608122,-524288,88,-56,-1,-1,0
1523614608122,-524288,88,-56,-1,-1,0
1523614608122,-655360,88,-56,-1,-1,0
1523614608122,-393216,88,-56,-1,-1,0
1523614608122,-196608,88,-56,-1,-1,0
1523614608162,-393216,88,-56,-1,-1,0
1523614608162,-524288,88,-56,-1,-1,0
1523614608162,-458752,88,-56,-1,-1,0
1523614608162,-524288,88,-56,-1,-1,0
1523614608162,-589824,88,-56,-1,-1,0
1523614608203,-393216,88,-56,-1,-1,0
1523614608203,-393216,88,-56,-1,-1,0
1523614608203,-393216,88,-56,-1,-1,0
1523614608203,-131072,88,-56,-1,-1,0
1523614608203,-65536,88,-56,-1,-1,0
1523614608242,-196608,88,-56,-1,-1,0
1523614608242,-524288,88,-56,-1,-1,0
1523614608242,-589824,88,-56,-1,-1,0
1523614608242,-393216,88,-56,-1,-1,0
1523614608242,-65536,88,-56,-1,-1,0
1523614608283,-196608,88,-56,-1,-1,0
1523614608283,-262144,88,-56,-1,-1,0
1523614608283,-393216,88,-56,-1,-1,0
1523614608283,-458752,88,-56,-1,-1,0
1523614608283,-393216,88,-56,-1,-1,0
1523614608325,-327680,88,-56,-1,-1,0
1523614608325,-262144,88,-56,-1,-1,0
1523614608325,-196608,88,-56,-1,-1,0
1523614608325,-131072,88,-56,-1,-1,0
1523614608325,-65536,88,-56,-1,-1,0
1523614608363,-131072,88,-56,-1,-1,0
1523614608363,-655360,88,-56,-1,-1,0
1523614608363,-131072,88,-56,-1,-1,0
1523614608363,3276800,88,-56,-1,-1,0
1523614608363,9043968,88,-56,-1,-1,0
1523614608402,11206656,88,-56,-1,-1,0
1523614608402,6356992,88,-56,-1,-1,0
1523614608402,720896,88,-56,-1,-1,0
1523614608402,-327680,88,-56,-1,-1,0
1523614608402,0,88,-56,-1,-1,0
1523614608447,0,88,-56,-1,-1,0
1523614608447,0,88,-56,-1,-1,0
1523614608447,262144,88,-56,-1,-1,0
1523614608447,327680,88,-56,-1,-1,0
1523614608447,262144,88,-56,-1,-1,0
1523614608483,131072,88,-56,-1,-1,0
1523614608483,327680,88,-56,-1,-1,0
1523614608483,524288,88,-56,-1,-1,0
1523614608483,524288,88,-56,-1,-1,0
1523614608483,655360,88,-56,-1,-1,0
1523614608522,983040,88,-56,-1,-1,0
1523614608522,1048576,88,-56,-1,-1,0
1523614608522,851968,88,-56,-1,-1,0
1523614608522,1114112,88,-56,-1,-1,0
1523614608522,1900544,88,-56,-1,-1,0
1523614608562,2359296,88,-56,-1,-1,0
1523614608562,2818048,88,-56,-1,-1,0
1523614608562,3342336,88,-56,-1,-1,0
1523614608562,3866624,88,-56,-1,-1,0
1523614608562,3997696,88,-56,-1,-1,0
1523614608602,3866624,88,-56,-1,-1,0
1523614608602,3538944,88,-56,-1,-1,0
1523614608602,3276800,88,-56,-1,-1,0
1523614608602,3014656,88,-56,-1,-1,0
1523614608602,2555904,88,-56,-1,-1,0
1523614608642,1900544,88,-56,-1,-1,0
1523614608642,1310720,88,-56,-1,-1,0
1523614608642,917504,88,-56,-1,-1,0
1523614608642,393216,88,-56,-1,-1,0
1523614608642,131072,88,-56,-1,-1,0
1523614608682,65536,88,-56,-1,-1,0
1523614608682,0,88,-56,-1,-1,0
1523614608682,-196608,88,-56,-1,-1,0
1523614608682,-524288,88,-56,-1,-1,0
1523614608682,-458752,88,-56,-1,-1,0
1523614608722,-131072,88,-56,-1,-1,0
1523614608722,-393216,88,-56,-1,-1,0
1523614608722,-720896,88,-56,-1,-1,0
1523614608722,-524288,88,-56,-1,-1,0
1523614608722,-196608,88,-56,-1,-1,0
1523614608762,-196608,88,-56,-1,-1,0
1523614608762,-196608,88,-56,-1,-1,0
1523614608762,-262144,88,-56,-1,-1,0
1523614608762,-262144,88,-56,-1,-1,0
1523614608762,-131072,88,-56,-1,-1,0
1523614608802,-262144,88,-56,-1,-1,0
1523614608802,-327680,88,-56,-1,-1,0
1523614608802,-327680,88,-56,-1,-1,0
1523614608802,-196608,88,-56,-1,-1,0
1523614608802,-262144,88,-56,-1,-1,0
1523614608842,-196608,88,-56,-1,-1,0
1523614608842,-196608,88,-56,-1,-1,0
1523614608842,-262144,88,-56,-1,-1,0
1523614608842,-458752,88,-56,-1,-1,0
1523614608842,-589824,88,-56,-1,-1,0
1523614608882,-524288,88,-56,-1,-1,0
1523614608882,-458752,88,-56,-1,-1,0
1523614608882,-524288,88,-56,-1,-1,0
1523614608882,-655360,88,-56,-1,-1,0
1523614608882,-786432,88,-56,-1,-1,0
1523614608922,-589824,88,-56,-1,-1,0
1523614608922,-524288,88,-56,-1,-1,0
1523614608922,-655360,88,-56,-1,-1,0
1523614608922,-851968,88,-56,-1,-1,0
1523614608922,-720896,88,-56,-1,-1,0
1523614608962,-589824,88,-56,-1,-1,0
1523614608962,-458752,88,-56,-1,-1,0
1523614608962,-458752,88,-56,-1,-1,0
1523614608962,-720896,88,-56,-1,-1,0
1523614608962,-917504,88,-56,-1,-1,0
1523614609002,-1048576,88,-56,-1,-1,0
1523614609002,-1179648,88,-56,-1,-1,0
1523614609002,-1048576,88,-56,-1,-1,0
1523614609002,-786432,88,-56,-1,-1,0
1523614609002,-655360,88,-56,-1,-1,0
1523614609042,-720896,87,-56,-1,-1,0
1523614609042,-983040,87,-56,-1,-1,0
1523614609042,-1179648,87,-56,-1,-1,0
1523614609042,-458752,87,-56,-1,-1,0
1523614609042,2818048,87,-56,-1,-1,0
1523614609087,8257536,87,-56,-1,-1,0
1523614609087,9699328,87,-56,-1,-1,0
1523614609087,4915200,87,-56,-1,-1,0
1523614609087,-393216,87,-56,-1,-1,0
1523614609087,-1245184,87,-56,-1,-1,0
1523614609123,-917504,87,-56,-1,-1,0
1523614609123,-786432,87,-56,-1,-1,0
1523614609123,-655360,87,-56,-1,-1,0
1523614609123,-458752,87,-56,-1,-1,0
1523614609123,-327680,87,-56,-1,-1,0
1523614609162,-262144,87,-56,-1,-1,0
1523614609162,-196608,87,-56,-1,-1,0
1523614609162,-131072,87,-56,-1,-1,0
1523614609162,-131072,87,-56,-1,-1,0
1523614609162,0,87,-56,-1,-1,0
1523614609202,196608,87,-56,-1,-1,0
1523614609202,327680,87,-56,-1,-1,0
1523614609202,524288,87,-56,-1,-1,0
1523614609202,1048576,87,-56,-1,-1,0
1523614609202,1310720,87,-56,-1,-1,0
1523614609242,1572864,87,-56,-1,-1,0
1523614609242,1900544,87,-56,-1,-1,0
1523614609242,2228224,87,-56,-1,-1,0
1523614609242,2555904,87,-56,-1,-1,0
1523614609242,3014656,87,-56,-1,-1,0
1523614609282,3407872,87,-56,-1,-1,0
1523614609282,3604480,87,-56,-1,-1,0
1523614609282,3670016,87,-56,-1,-1,0
1523614609282,3407872,87,-56,-1,-1,0
1523614609282,2818048,87,-56,-1,-1,0
1523614609322,2162688,87,-56,-1,-1,0
1523614609322,1572864,87,-56,-1,-1,0
1523614609322,1179648,87,-56,-1,-1,0
1523614609322,786432,87,-56,-1,-1,0
1523614609322,393216,87,-56,-1,-1,0
1523614609362,65536,87,-56,-1,-1,0
1523614609362,0,87,-56,-1,-1,0
1523614609362,-131072,87,-56,-1,-1,0
1523614609362,-196608,87,-56,-1,-1,0
1523614609362,-262144,87,-56,-1,-1,0
1523614609402,-262144,87,-56,-1,-1,0
1523614609402,-393216,87,-56,-1,-1,0
1523614609402,-458752,87,-56,-1,-1,0
1523614609402,-458752,87,-56,-1,-1,0
1523614609402,-458752,87,-56,-1,-1,0
1523614609442,-393216,87,-56,-1,-1,0
1523614609442,-327680,87,-56,-1,-1,0
1523614609442,-327680,87,-56,-1,-1,0
1523614609442,-327680,87,-56,-1,-1,0
1523614609442,-327680,87,-56,-1,-1,0
1523614609482,-393216,87,-56,-1,-1,0
1523614609482,-393216,87,-56,-1,-1,0
1523614609482,-458752,87,-56,-1,-1,0
1523614609482,-524288,87,-56,-1,-1,0
1523614609482,-589824,87,-56,-1,-1,0
1523614609522,-589824,87,-56,-1,-1,0
1523614609522,-655360,87,-56,-1,-1,0
1523614609522,-720896,87,-56,-1,-1,0
1523614609522,-851968,87,-56,-1,-1,0
1523614609522,-917504,87,-56,-1,-1,0
1523614609562,-851968,87,-56,-1,-1,0
1523614609562,-851968,87,-56,-1,-1,0
1523614609562,-983040,87,-56,-1,-1,0
1523614609562,-1114112,87,-56,-1,-1,0
1523614609562,-1114112,87,-56,-1,-1,0
1523614609602,-983040,87,-56,-1,-1,0
1523614609602,-1048576,87,-56,-1,-1,0
1523614609602,-1114112,87,-56,-1,-1,0
1523614609602,-1048576,87,-56,-1,-1,0
1523614609602,-1048576,87,-56,-1,-1,0
1523614609642,-1114112,87,-56,-1,-1,0
1523614609642,-1245184,87,-56,-1,-1,0
1523614609642,-1310720,87,-56,-1,-1,0
1523614609642,-1310720,87,-56,-1,-1,0
1523614609642,-1310720,87,-56,-1,-1,0
1523614609682,-1245184,87,-56,-1,-1,0
1523614609682,-1179648,87,-56,-1,-1,0
1523614609682,-1179648,87,-56,-1,-1,0
1523614609682,-1245184,87,-56,-1,-1,0
1523614609682,-1245184,87,-56,-1,-1,0
1523614609727,-1245184,86,-56,-1,-1,0
1523614609727,-1245184,86,-56,-1,-1,0
1523614609727,-1245184,86,-56,-1,-1,0
1523614609727,-1507328,86,-56,-1,-1,0
1523614609727,-1900544,86,-56,-1,-1,0
1523614609764,-1441792,86,-56,-1,-1,0
1523614609764,1441792,86,-56,-1,-1,0
1523614609764,6815744,86,-56,-1,-1,0
1523614609764,9109504,86,-56,-1,-1,0
1523614609764,4718592,86,-56,-1,-1,0
1523614609802,-524288,86,-56,-1,-1,0
1523614609802,-1703936,86,-56,-1,-1,0
1523614609802,-1376256,86,-56,-1,-1,0
1523614609802,-1310720,86,-56,-1,-1,0
1523614609802,-1376256,86,-56,-1,-1,0
1523614609842,-1310720,86,-56,-1,-1,0
1523614609842,-1179648,86,-56,-1,-1,0
1523614609842,-983040,86,-56,-1,-1,0
1523614609842,-917504,86,-56,-1,-1,0
1523614609842,-851968,86,-56,-1,-1,0
1523614609882,-786432,86,-56,-1,-1,0
1523614609882,-524288,86,-56,-1,-1,0
1523614609882,-393216,86,-56,-1,-1,0
1523614609882,-327680,86,-56,-1,-1,0
1523614609882,-393216,86,-56,-1,-1,0
1523614609922,-327680,86,-56,-1,-1,0
1523614609922,-196608,86,-56,-1,-1,0
1523614609922,262144,86,-56,-1,-1,0
1523614609922,917504,86,-56,-1,-1,0
1523614609922,1572864,86,-56,-1,-1,0
1523614609962,2031616,86,-56,-1,-1,0
1523614609962,2293760,86,-56,-1,-1,0
1523614609962,2555904,86,-56,-1,-1,0
1523614609962,2752512,86,-56,-1,-1,0
1523614609962,2686976,86,-56,-1,-1,0
1523614610002,2424832,86,-56,-1,-1,0
1523614610002,2031616,86,-56,-1,-1,0
1523614610002,1441792,86,-56,-1,-1,0
1523614610002,720896,86,-56,-1,-1,0
1523614610002,262144,86,-56,-1,-1,0
1523614610042,0,86,-56,-1,-1,0
1523614610042,-327680,86,-56,-1,-1,0
1523614610042,-655360,86,-56,-1,-1,0
1523614610042,-786432,86,-56,-1,-1,0
1523614610042,-786432,86,-56,-1,-1,0
1523614610082,-851968,86,-56,-1,-1,0
1523614610082,-1048576,86,-56,-1,-1,0
1523614610082,-1114112,86,-56,-1,-1,0
1523614610082,-1048576,86,-56,-1,-1,0
1523614610082,-983040,86,-56,-1,-1,0
1523614610122,-983040,86,-56,-1,-1,0
1523614610122,-983040,86,-56,-1,-1,0
1523614610122,-851968,86,-56,-1,-1,0
1523614610122,-655360,86,-56,-1,-1,0
1523614610122,-655360,86,-56,-1,-1,0
1523614610162,-720896,86,-56,-1,-1,0
1523614610162,-589824,86,-56,-1,-1,0
1523614610162,-655360,86,-56,-1,-1,0
1523614610162,-655360,86,-56,-1,-1,0
1523614610162,-458752,86,-56,-1,-1,0
1523614610202,-327680,86,-56,-1,-1,0
1523614610202,-458752,86,-56,-1,-1,0
1523614610202,-524288,86,-56,-1,-1,0
1523614610202,-393216,86,-56,-1,-1,0
1523614610202,-393216,86,-56,-1,-1,0
1523614610242,-524288,86,-56,-1,-1,0
1523614610242,-851968,86,-56,-1,-1,0
1523614610242,-983040,86,-56,-1,-1,0
1523614610242,-917504,86,-56,-1,-1,0
1523614610242,-655360,86,-56,-1,-1,0
1523614610282,-589824,86,-56,-1,-1,0
1523614610282,-720896,86,-56,-1,-1,0
1523614610282,-720896,86,-56,-1,-1,0
1523614610282,-589824,86,-56,-1,-1,0
1523614610282,-524288,86,-56,-1,-1,0
1523614610322,-720896,86,-56,-1,-1,0
1523614610322,-1114112,86,-56,-1,-1,0
1523614610322,-1245184,86,-56,-1,-1,0
1523614610322,-983040,86,-56,-1,-1,0
1523614610322,-851968,86,-56,-1,-1,0
1523614610367,-917504,86,-56,-1,-1,0
1523614610367,-1114112,86,-56,-1,-1,0
1523614610367,-1048576,86,-56,-1,-1,0
1523614610367,-917504,86,-56,-1,-1,0
1523614610367,-851968,86,-56,-1,-1,0
1523614610404,-851968,86,-56,-1,-1,0
1523614610404,-720896,86,-56,-1,-1,0
1523614610404,-1048576,86,-56,-1,-1,0
1523614610404,-1114112,86,-56,-1,-1,0
1523614610404,917504,86,-56,-1,-1,0
1523614610442,5570560,86,-56,-1,-1,0
1523614610442,8519680,86,-56,-1,-1,0
1523614610442,4980736,86,-56,-1,-1,0
1523614610442,0,86,-56,-1,-1,0
1523614610442,-1441792,86,-56,-1,-1,0
1523614610482,-851968,86,-56,-1,-1,0
1523614610482,-589824,86,-56,-1,-1,0
1523614610482,-655360,86,-56,-1,-1,0
1523614610482,-786432,86,-56,-1,-1,0
1523614610482,-786432,86,-56,-1,-1,0
1523614610522,-720896,86,-56,-1,-1,0
1523614610522,-720896,86,-56,-1,-1,0
1523614610522,-589824,86,-56,-1,-1,0
1523614610522,-589824,86,-56,-1,-1,0
1523614610522,-524288,86,-56,-1,-1,0
1523614610562,-458752,86,-56,-1,-1,0
1523614610562,-196608,86,-56,-1,-1,0
1523614610562,0,86,-56,-1,-1,0
1523614610562,131072,86,-56,-1,-1,0
1523614610562,393216,86,-56,-1,-1,0
1523614610602,720896,86,-56,-1,-1,0
1523614610602,917504,86,-56,-1,-1,0
1523614610602,1310720,86,-56,-1,-1,0
1523614610602,1900544,86,-56,-1,-1,0
1523614610602,2490368,86,-56,-1,-1,0
1523614610642,2818048,86,-56,-1,-1,0
1523614610642,3080192,86,-56,-1,-1,0
1523614610642,2949120,86,-56,-1,-1,0
1523614610642,2555904,86,-56,-1,-1,0
1523614610642,2031616,86,-56,-1,-1,0
1523614610682,1572864,86,-56,-1,-1,0
1523614610682,983040,86,-56,-1,-1,0
1523614610682,524288,86,-56,-1,-1,0
1523614610682,65536,86,-56,-1,-1,0
1523614610682,-393216,86,-56,-1,-1,0
1523614610722,-720896,86,-56,-1,-1,0
1523614610722,-655360,86,-56,-1,-1,0
1523614610722,-393216,86,-56,-1,-1,0
1523614610722,-393216,86,-56,-1,-1,0
1523614610722,-589824,86,-56,-1,-1,0
1523614610762,-720896,86,-56,-1,-1,0
1523614610762,-786432,86,-56,-1,-1,0
1523614610762,-917504,86,-56,-1,-1,0
1523614610762,-983040,86,-56,-1,-1,0
1523614610762,-917504,86,-56,-1,-1,0
1523614610802,-786432,86,-56,-1,-1,0
1523614610802,-851968,86,-56,-1,-1,0
1523614610802,-917504,86,-56,-1,-1,0
1523614610802,-720896,86,-56,-1,-1,0
1523614610802,-524288,86,-56,-1,-1,0
1523614610842,-458752,86,-56,-1,-1,0
1523614610842,-393216,86,-56,-1,-1,0
1523614610842,-327680,86,-56,-1,-1,0
1523614610842,-262144,86,-56,-1,-1,0
1523614610842,-327680,86,-56,-1,-1,0
1523614610882,-524288,86,-56,-1,-1,0
1523614610882,-458752,86,-56,-1,-1,0
1523614610882,-262144,86,-56,-1,-1,0
1523614610882,-327680,86,-56,-1,-1,0
1523614610882,-589824,86,-56,-1,-1,0
1523614610922,-786432,86,-56,-1,-1,0
1523614610922,-720896,86,-56,-1,-1,0
1523614610922,-589824,86,-56,-1,-1,0
1523614610922,-393216,86,-56,-1,-1,0
1523614610922,-458752,86,-56,-1,-1,0
1523614610962,-720896,86,-56,-1,-1,0
1523614610962,-917504,86,-56,-1,-1,0
1523614610962,-917504,86,-56,-1,-1,0
1523614610962,-786432,86,-56,-1,-1,0
1523614610962,-655360,86,-56,-1,-1,0
1523614611009,-786432,86,-56,-1,-1,0
1523614611009,-917504,86,-56,-1,-1,0
1523614611009,-786432,86,-56,-1,-1,0
1523614611009,-589824,86,-56,-1,-1,0
1523614611009,-720896,86,-56,-1,-1,0
1523614611042,-983040,86,-56,-1,-1,0
1523614611042,-1179648,86,-56,-1,-1,0
1523614611042,-1376256,86,-56,-1,-1,0
1523614611042,-1638400,86,-56,-1,-1,0
1523614611042,-524288,86,-56,-1,-1,0
1523614611082,3538944,86,-56,-1,-1,0
1523614611082,8257536,86,-56,-1,-1,0
1523614611082,7602176,86,-56,-1,-1,0
1523614611082,2555904,86,-56,-1,-1,0
1523614611082,-1179648,86,-56,-1,-1,0
1523614611122,-1179648,86,-56,-1,-1,0
1523614611122,-917504,86,-56,-1,-1,0
1523614611122,-1048576,86,-56,-1,-1,0
1523614611122,-1245184,86,-56,-1,-1,0
1523614611122,-1245184,86,-56,-1,-1,0
1523614611162,-1114112,86,-56,-1,-1,0
1523614611162,-1179648,86,-56,-1,-1,0
1523614611162,-1114112,86,-56,-1,-1,0
1523614611162,-983040,86,-56,-1,-1,0
1523614611162,-917504,86,-56,-1,-1,0
1523614611202,-851968,86,-56,-1,-1,0
1523614611202,-917504,86,-56,-1,-1,0
1523614611202,-786432,86,-56,-1,-1,0
1523614611202,-589824,86,-56,-1,-1,0
1523614611202,-393216,86,-56,-1,-1,0
1523614611242,-262144,86,-56,-1,-1,0
1523614611242,131072,86,-56,-1,-1,0
1523614611242,524288,86,-56,-1,-1,0
1523614611242,917504,86,-56,-1,-1,0
1523614611242,1179648,86,-56,-1,-1,0
1523614611282,1703936,86,-56,-1,-1,0
1523614611282,2097152,86,-56,-1,-1,0
1523614611282,2359296,86,-56,-1,-1,0
1523614611282,2162688,86,-56,-1,-1,0
1523614611282,1703936,86,-56,-1,-1,0
1523614611322,1245184,86,-56,-1,-1,0
1523614611322,720896,86,-56,-1,-1,0
1523614611322,-65536,86,-56,-1,-1,0
1523614611322,-720896,86,-56,-1,-1,0
1523614611322,-786432,86,-56,-1,-1,0
1523614611362,-917504,86,-56,-1,-1,0
1523614611362,-983040,86,-56,-1,-1,0
1523614611362,-720896,86,-56,-1,-1,0
1523614611362,-851968,86,-56,-1,-1,0
1523614611362,-1114112,86,-56,-1,-1,0
1523614611402,-1114112,86,-56,-1,-1,0
1523614611402,-1048576,86,-56,-1,-1,0
1523614611402,-851968,86,-56,-1,-1,0
1523614611402,-851968,86,-56,-1,-1,0
1523614611402,-851968,86,-56,-1,-1,0
1523614611442,-851968,86,-56,-1,-1,0
1523614611442,-786432,86,-56,-1,-1,0
1523614611442,-458752,86,-56,-1,-1,0
1523614611442,-524288,86,-56,-1,-1,0
1523614611442,-720896,86,-56,-1,-1,0
1523614611482,-458752,86,-56,-1,-1,0
1523614611482,0,86,-56,-1,-1,0
1523614611482,-65536,86,-56,-1,-1,0
1523614611482,-196608,86,-56,-1,-1,0
1523614611482,-327680,86,-56,-1,-1,0
1523614611523,-458752,86,-56,-1,-1,0
1523614611523,-393216,86,-56,-1,-1,0
1523614611523,-196608,86,-56,-1,-1,0
1523614611523,-327680,86,-56,-1,-1,0
1523614611523,-458752,86,-56,-1,-1,0
1523614611562,-393216,86,-56,-1,-1,0
1523614611562,-327680,86,-56,-1,-1,0
1523614611562,-196608,86,-56,-1,-1,0
1523614611562,-327680,86,-56,-1,-1,0
1523614611562,-393216,86,-56,-1,-1,0
1523614611602,-589824,86,-56,-1,-1,0
1523614611602,-589824,86,-56,-1,-1,0
1523614611602,-524288,86,-56,-1,-1,0
1523614611602,-393216,86,-56,-1,-1,0
1523614611602,-524288,86,-56,-1,-1,0
1523614611647,-720896,86,-56,-1,-1,0
1523614611647,-720896,86,-56,-1,-1,0
1523614611647,-655360,86,-56,-1,-1,0
1523614611647,-524288,86,-56,-1,-1,0
1523614611647,-327680,86,-56,-1,-1,0
1523614611683,-589824,86,-56,-1,-1,0
1523614611683,-1376256,86,-56,-1,-1,0
1523614611683,-1310720,86,-56,-1,-1,0
1523614611683,1900544,86,-56,-1,-1,0
1523614611683,7733248,86,-56,-1,-1,0
1523614611722,9961472,86,-56,-1,-1,0
1523614611722,5177344,86,-56,-1,-1,0
1523614611722,-262144,86,-56,-1,-1,0
1523614611722,-1376256,86,-56,-1,-1,0
1523614611722,-786432,86,-56,-1,-1,0
1523614611762,-589824,86,-56,-1,-1,0
1523614611762,-393216,86,-56,-1,-1,0
1523614611762,-262144,86,-56,-1,-1,0
1523614611762,65536,86,-56,-1,-1,0
1523614611762,-131072,86,-56,-1,-1,0
1523614611802,65536,86,-56,-1,-1,0
1523614611802,720896,86,-56,-1,-1,0
1523614611802,1114112,86,-56,-1,-1,0
1523614611802,-131072,86,-56,-1,-1,0
1523614611802,-2162688,86,-56,-1,-1,0
1523614611843,-2818048,86,-56,-1,-1,0
1523614611843,-720896,86,-56,-1,-1,0
1523614611843,1376256,86,-56,-1,-1,0
1523614611843,983040,86,-56,-1,-1,0
1523614611843,589824,86,-56,-1,-1,0
1523614611882,1179648,86,-56,-1,-1,0
1523614611882,1310720,86,-56,-1,-1,0
1523614611882,1048576,86,-56,-1,-1,0
1523614611882,1179648,86,-56,-1,-1,0
1523614611882,1441792,86,-56,-1,-1,0
1523614611922,1703936,86,-56,-1,-1,0
1523614611922,1900544,86,-56,-1,-1,0
1523614611922,1769472,86,-56,-1,-1,0
1523614611922,1179648,86,-56,-1,-1,0
1523614611922,327680,86,-56,-1,-1,0
1523614611962,-458752,86,-56,-1,-1,0
1523614611962,-786432,86,-56,-1,-1,0
1523614611962,-1048576,86,-56,-1,-1,0
1523614611962,-1179648,86,-56,-1,-1,0
1523614611962,-1376256,86,-56,-1,-1,0
1523614612002,-1638400,86,-56,-1,-1,0
1523614612002,-1572864,86,-56,-1,-1,0
1523614612002,-1114112,86,-56,-1,-1,0
1523614612002,-720896,86,-56,-1,-1,0
1523614612002,-917504,86,-56,-1,-1,0
1523614612042,-1572864,86,-56,-1,-1,0
1523614612042,-1769472,86,-56,-1,-1,0
1523614612042,-1507328,86,-56,-1,-1,0
1523614612042,-1310720,86,-56,-1,-1,0
1523614612042,-1179648,86,-56,-1,-1,0
1523614612082,-1048576,86,-56,-1,-1,0
1523614612082,-1048576,86,-56,-1,-1,0
1523614612082,-1114112,86,-56,-1,-1,0
1523614612082,-983040,86,-56,-1,-1,0
1523614612082,-1114112,86,-56,-1,-1,0
1523614612122,-1572864,86,-56,-1,-1,0
1523614612122,-1245184,86,-56,-1,-1,0
1523614612122,-589824,86,-56,-1,-1,0
1523614612122,-393216,86,-56,-1,-1,0
1523614612122,-393216,86,-56,-1,-1,0
1523614612162,-655360,86,-56,-1,-1,0
1523614612162,-1048576,86,-56,-1,-1,0
1523614612162,-786432,86,-56,-1,-1,0
1523614612162,-786432,86,-56,-1,-1,0
1523614612162,-851968,86,-56,-1,-1,0
1523614612202,-983040,86,-56,-1,-1,0
1523614612202,-1048576,86,-56,-1,-1,0
1523614612202,-983040,86,-56,-1,-1,0
1523614612202,-720896,86,-56,-1,-1,0
1523614612202,-786432,86,-56,-1,-1,0
1523614612242,-1114112,86,-56,-1,-1,0
1523614612242,-1245184,86,-56,-1,-1,0
1523614612242,-720896,86,-56,-1,-1,0
1523614612242,0,86,-56,-1,-1,0
1523614612242,-65536,86,-56,-1,-1,0
1523614612287,-983040,86,-56,-1,-1,0
1523614612287,-1769472,86,-56,-1,-1,0
1523614612287,-1441792,86,-56,-1,-1,0
1523614612287,655360,86,-56,-1,-1,0
1523614612287,5439488,86,-56,-1,-1,0
1523614612325,9175040,86,-56,-1,-1,0
1523614612325,6422528,86,-56,-1,-1,0
1523614612325,1048576,86,-56,-1,-1,0
1523614612325,-1572864,86,-56,-1,-1,0
1523614612325,-1310720,86,-56,-1,-1,0
1523614612362,-851968,86,-56,-1,-1,0
1523614612362,-524288,86,-56,-1,-1,0
1523614612362,-458752,86,-56,-1,-1,0
1523614612362,-589824,86,-56,-1,-1,0
1523614612362,-589824,86,-56,-1,-1,0
1523614612403,-393216,86,-56,-1,-1,0
1523614612403,-458752,86,-56,-1,-1,0
1523614612403,-851968,86,-56,-1,-1,0
1523614612403,-720896,86,-56,-1,-1,0
1523614612403,-458752,86,-56,-1,-1,0
1523614612442,-131072,86,-56,-1,-1,0
1523614612442,0,86,-56,-1,-1,0
1523614612442,65536,86,-56,-1,-1,0
1523614612442,131072,86,-56,-1,-1,0
1523614612442,655360,86,-56,-1,-1,0
1523614612482,1114112,86,-56,-1,-1,0
1523614612482,1310720,86,-56,-1,-1,0
1523614612482,1245184,86,-56,-1,-1,0
1523614612482,1245184,86,-56,-1,-1,0
1523614612482,1507328,86,-56,-1,-1,0
1523614612522,2097152,86,-56,-1,-1,0
1523614612522,2424832,86,-56,-1,-1,0
1523614612522,2359296,86,-56,-1,-1,0
1523614612522,1769472,86,-56,-1,-1,0
1523614612522,917504,86,-56,-1,-1,0
1523614612562,524288,86,-56,-1,-1,0
1523614612562,131072,86,-56,-1,-1,0
1523614612562,-327680,86,-56,-1,-1,0
1523614612562,-524288,86,-56,-1,-1,0
1523614612562,-655360,86,-56,-1,-1,0
1523614612603,-786432,86,-56,-1,-1,0
1523614612603,-917504,86,-56,-1,-1,0
1523614612603,-983040,86,-56,-1,-1,0
1523614612603,-917504,86,-56,-1,-1,0
1523614612603,-983040,86,-56,-1,-1,0
1523614612642,-1179648,86,-56,-1,-1,0
1523614612642,-1245184,86,-56,-1,-1,0
1523614612642,-720896,86,-56,-1,-1,0
1523614612642,-524288,86,-56,-1,-1,0
1523614612642,-917504,86,-56,-1,-1,0
1523614612683,-1310720,86,-56,-1,-1,0
1523614612683,-1114112,86,-56,-1,-1,0
1523614612683,-655360,86,-56,-1,-1,0
1523614612683,-851968,86,-56,-1,-1,0
1523614612683,-1048576,86,-56,-1,-1,0
1523614612722,-786432,86,-56,-1,-1,0
1523614612722,-196608,86,-56,-1,-1,0
1523614612722,-131072,86,-56,-1,-1,0
1523614612722,-458752,86,-56,-1,-1,0
1523614612722,-786432,86,-56,-1,-1,0
1523614612762,-1114112,86,-56,-1,-1,0
1523614612762,-1179648,86,-56,-1,-1,0
1523614612762,-917504,86,-56,-1,-1,0
1523614612762,-589824,86,-56,-1,-1,0
1523614612762,-589824,86,-56,-1,-1,0
1523614612802,-851968,86,-56,-1,-1,0
1523614612802,-1114112,86,-56,-1,-1,0
1523614612802,-1310720,86,-56,-1,-1,0
1523614612802,-1245184,86,-56,-1,-1,0
1523614612802,-1048576,86,-56,-1,-1,0
1523614612842,-983040,86,-56,-1,-1,0
1523614612842,-917504,86,-56,-1,-1,0
1523614612842,-851968,86,-56,-1,-1,0
1523614612842,-983040,86,-56,-1,-1,0
1523614612842,-1310720,86,-56,-1,-1,0
1523614612883,-1441792,86,-56,-1,-1,0
1523614612883,-1441792,86,-56,-1,-1,0
1523614612883,-1507328,86,-56,-1,-1,0
1523614612883,-1048576,86,-56,-1,-1,0
1523614612883,1769472,86,-56,-1,-1,0
1523614612928,7143424,86,-56,-1,-1,0
1523614612928,9240576,86,-56,-1,-1,0
1523614612928,4587520,86,-56,-1,-1,0
1523614612928,-786432,86,-56,-1,-1,0
1523614612928,-2097152,86,-56,-1,-1,0
1523614612962,-1769472,86,-56,-1,-1,0
1523614612962,-1245184,86,-56,-1,-1,0
1523614612962,-786432,86,-56,-1,-1,0
1523614612962,-983040,86,-56,-1,-1,0
1523614612962,-1441792,86,-56,-1,-1,0
1523614613002,-1441792,86,-56,-1,-1,0
1523614613002,-1441792,86,-56,-1,-1,0
1523614613002,-1245184,86,-56,-1,-1,0
1523614613002,-851968,86,-56,-1,-1,0
1523614613002,-720896,86,-56,-1,-1,0
1523614613042,-917504,86,-56,-1,-1,0
1523614613042,-720896,86,-56,-1,-1,0
1523614613042,-720896,86,-56,-1,-1,0
1523614613042,-917504,86,-56,-1,-1,0
1523614613042,-1048576,86,-56,-1,-1,0
1523614613082,-458752,86,-56,-1,-1,0
1523614613082,196608,86,-56,-1,-1,0
1523614613082,1048576,86,-56,-1,-1,0
1523614613082,1441792,86,-56,-1,-1,0
1523614613082,1441792,86,-56,-1,-1,0
1523614613122,1507328,86,-56,-1,-1,0
1523614613122,1703936,86,-56,-1,-1,0
1523614613122,1769472,86,-56,-1,-1,0
1523614613122,1376256,86,-56,-1,-1,0
1523614613122,720896,86,-56,-1,-1,0
1523614613162,0,86,-56,-1,-1,0
1523614613162,-196608,86,-56,-1,-1,0
1523614613162,-65536,86,-56,-1,-1,0
1523614613162,0,86,-56,-1,-1,0
1523614613162,-458752,86,-56,-1,-1,0
1523614613202,-1048576,86,-56,-1,-1,0
1523614613202,-1376256,86,-56,-1,-1,0
1523614613202,-1507328,86,-56,-1,-1,0
1523614613202,-1376256,86,-56,-1,-1,0
1523614613202,-1310720,86,-56,-1,-1,0
1523614613242,-1048576,86,-56,-1,-1,0
1523614613242,-786432,86,-56,-1,-1,0
1523614613242,-655360,86,-56,-1,-1,0
1523614613242,-851968,86,-56,-1,-1,0
1523614613242,-1048576,86,-56,-1,-1,0
1523614613282,-1048576,86,-56,-1,-1,0
1523614613282,-851968,86,-56,-1,-1,0
1523614613282,-983040,86,-56,-1,-1,0
1523614613282,-1441792,86,-56,-1,-1,0
1523614613282,-1376256,86,-56,-1,-1,0
1523614613322,-1114112,86,-56,-1,-1,0
1523614613322,-720896,86,-56,-1,-1,0
1523614613322,-720896,86,-56,-1,-1,0
1523614613322,-1114112,86,-56,-1,-1,0
1523614613322,-1376256,86,-56,-1,-1,0
1523614613362,-983040,86,-56,-1,-1,0
1523614613362,-720896,86,-56,-1,-1,0
1523614613362,-720896,86,-56,-1,-1,0
1523614613362,-1245184,86,-56,-1,-1,0
1523614613362,-1376256,86,-56,-1,-1,0
1523614613402,-1114112,87,-56,-1,-1,0
1523614613402,-917504,87,-56,-1,-1,0
1523614613402,-1179648,87,-56,-1,-1,0
1523614613402,-786432,87,-56,-1,-1,0
1523614613402,-393216,87,-56,-1,-1,0
1523614613442,-1048576,87,-56,-1,-1,0
1523614613442,-1441792,87,-56,-1,-1,0
1523614613442,-917504,87,-56,-1,-1,0
1523614613442,-655360,87,-56,-1,-1,0
1523614613442,-1245184,87,-56,-1,-1,0
1523614613482,-655360,87,-56,-1,-1,0
1523614613482,-327680,87,-56,-1,-1,0
1523614613482,-1507328,87,-56,-1,-1,0
1523614613482,-2228224,87,-56,-1,-1,0
1523614613482,327680,87,-56,-1,-1,0
1523614613522,5177344,87,-56,-1,-1,0
1523614613522,7995392,87,-56,-1,-1,0
1523614613522,5111808,87,-56,-1,-1,0
1523614613522,1376256,87,-56,-1,-1,0
1523614613522,-524288,87,-56,-1,-1,0
1523614613567,-1048576,87,-56,-1,-1,0
1523614613567,-1310720,87,-56,-1,-1,0
1523614613567,-262144,87,-56,-1,-1,0
1523614613567,262144,87,-56,-1,-1,0
1523614613567,-458752,87,-56,-1,-1,0
1523614613603,-1114112,87,-56,-1,-1,0
1523614613603,-655360,87,-56,-1,-1,0
1523614613603,0,87,-56,-1,-1,0
1523614613603,327680,87,-56,-1,-1,0
1523614613603,131072,87,-56,-1,-1,0
1523614613642,-327680,87,-56,-1,-1,0
1523614613642,-327680,87,-56,-1,-1,0
1523614613642,262144,87,-56,-1,-1,0
1523614613642,458752,87,-56,-1,-1,0
1523614613642,393216,87,-56,-1,-1,0
1523614613682,589824,87,-56,-1,-1,0
1523614613682,1310720,87,-56,-1,-1,0
1523614613682,1769472,87,-56,-1,-1,0
1523614613682,2621440,87,-56,-1,-1,0
1523614613682,3145728,87,-56,-1,-1,0
1523614613722,2359296,87,-56,-1,-1,0
1523614613722,1900544,87,-56,-1,-1,0
1523614613722,3080192,87,-56,-1,-1,0
1523614613722,3538944,87,-56,-1,-1,0
1523614613722,2359296,87,-56,-1,-1,0
1523614613762,1310720,87,-56,-1,-1,0
1523614613762,851968,87,-56,-1,-1,0
1523614613762,458752,87,-56,-1,-1,0
1523614613762,524288,87,-56,-1,-1,0
1523614613762,589824,87,-56,-1,-1,0
1523614613802,196608,87,-56,-1,-1,0
1523614613802,-393216,87,-56,-1,-1,0
1523614613802,-393216,87,-56,-1,-1,0
1523614613802,65536,87,-56,-1,-1,0
1523614613802,-65536,87,-56,-1,-1,0
1523614613842,-720896,87,-56,-1,-1,0
1523614613842,-786432,87,-56,-1,-1,0
1523614613842,131072,87,-56,-1,-1,0
1523614613842,327680,87,-56,-1,-1,0
1523614613842,-262144,87,-56,-1,-1,0
1523614613883,-458752,87,-56,-1,-1,0
1523614613883,-196608,87,-56,-1,-1,0
1523614613883,0,87,-56,-1,-1,0
1523614613883,196608,87,-56,-1,-1,0
1523614613883,458752,87,-56,-1,-1,0
1523614613922,262144,87,-56,-1,-1,0
1523614613922,0,87,-56,-1,-1,0
1523614613922,-65536,87,-56,-1,-1,0
1523614613922,262144,87,-56,-1,-1,0
1523614613922,327680,87,-56,-1,-1,0
1523614613962,131072,87,-56,-1,-1,0
1523614613962,0,87,-56,-1,-1,0
1523614613962,0,87,-56,-1,-1,0
1523614613962,0,87,-56,-1,-1,0
1523614613962,-65536,87,-56,-1,-1,0
1523614614002,0,89,-56,-1,-1,0
1523614614002,196608,89,-56,-1,-1,0
1523614614002,196608,89,-56,-1,-1,0
1523614614002,65536,89,-56,-1,-1,0
1523614614002,65536,89,-56,-1,-1,0
1523614614046,0,89,-56,-1,-1,0
1523614614046,-131072,89,-56,-1,-1,0
1523614614046,-196608,89,-56,-1,-1,0
1523614614046,-65536,89,-56,-1,-1,0
1523614614046,65536,89,-56,-1,-1,0
1523614614082,65536,89,-56,-1,-1,0
1523614614082,-196608,89,-56,-1,-1,0
1523614614082,-655360,89,-56,-1,-1,0
1523614614082,65536,89,-56,-1,-1,0
1523614614082,4063232,89,-56,-1,-1,0
1523614614122,9043968,89,-56,-1,-1,0
1523614614122,8781824,89,-56,-1,-1,0
1523614614122,3604480,89,-56,-1,-1,0
1523614614122,-458752,89,-56,-1,-1,0
1523614614122,-589824,89,-56,-1,-1,0
1523614614162,-131072,89,-56,-1,-1,0
1523614614162,0,89,-56,-1,-1,0
1523614614162,65536,89,-56,-1,-1,0
1523614614162,131072,89,-56,-1,-1,0
1523614614162,196608,89,-56,-1,-1,0
1523614614208,131072,89,-56,-1,-1,0
1523614614208,0,89,-56,-1,-1,0
1523614614208,65536,89,-56,-1,-1,0
1523614614208,196608,89,-56,-1,-1,0
1523614614208,327680,89,-56,-1,-1,0
1523614614242,524288,89,-56,-1,-1,0
1523614614242,524288,89,-56,-1,-1,0
1523614614242,524288,89,-56,-1,-1,0
1523614614242,655360,89,-56,-1,-1,0
1523614614242,851968,89,-56,-1,-1,0
1523614614282,1114112,89,-56,-1,-1,0
1523614614282,1441792,89,-56,-1,-1,0
1523614614282,1835008,89,-56,-1,-1,0
1523614614282,2228224,89,-56,-1,-1,0
1523614614282,2424832,89,-56,-1,-1,0
1523614614322,2490368,89,-56,-1,-1,0
1523614614322,2424832,89,-56,-1,-1,0
1523614614322,2097152,89,-56,-1,-1,0
1523614614322,1769472,89,-56,-1,-1,0
1523614614322,1507328,89,-56,-1,-1,0
1523614614362,1376256,89,-56,-1,-1,0
1523614614362,983040,89,-56,-1,-1,0
1523614614362,393216,89,-56,-1,-1,0
1523614614362,0,89,-56,-1,-1,0
1523614614362,-262144,89,-56,-1,-1,0
1523614614402,-393216,89,-56,-1,-1,0
1523614614402,-327680,89,-56,-1,-1,0
1523614614402,-196608,89,-56,-1,-1,0
1523614614402,-327680,89,-56,-1,-1,0
1523614614402,-589824,89,-56,-1,-1,0
1523614614442,-655360,89,-56,-1,-1,0
1523614614442,-458752,89,-56,-1,-1,0
1523614614442,-327680,89,-56,-1,-1,0
1523614614442,-393216,89,-56,-1,-1,0
1523614614442,-458752,89,-56,-1,-1,0
1523614614482,-524288,89,-56,-1,-1,0
1523614614482,-720896,89,-56,-1,-1,0
1523614614482,-720896,89,-56,-1,-1,0
1523614614482,-327680,89,-56,-1,-1,0
1523614614482,-327680,89,-56,-1,-1,0
1523614614522,-524288,89,-56,-1,-1,0
1523614614522,-393216,89,-56,-1,-1,0
1523614614522,-458752,89,-56,-1,-1,0
1523614614522,-917504,89,-56,-1,-1,0
1523614614522,-1310720,89,-56,-1,-1,0
1523614614562,-1310720,92,-56,-1,-1,0
1523614614562,-1114112,92,-56,-1,-1,0
1523614614562,-983040,92,-56,-1,-1,0
1523614614562,-786432,92,-56,-1,-1,0
1523614614562,-983040,92,-56,-1,-1,0
1523614614602,-1179648,92,-56,-1,-1,0
1523614614602,-1114112,92,-56,-1,-1,0
1523614614602,-1114112,92,-56,-1,-1,0
1523614614602,-1376256,92,-56,-1,-1,0
1523614614602,-1179648,92,-56,-1,-1,0
1523614614642,-983040,92,-56,-1,-1,0
1523614614642,-786432,92,-56,-1,-1,0
1523614614642,-917504,92,-56,-1,-1,0
1523614614642,-1310720,92,-56,-1,-1,0
1523614614642,-1835008,92,-56,-1,-1,0
1523614614682,-1835008,92,-56,-1,-1,0
1523614614682,-1900544,92,-56,-1,-1,0
1523614614682,-1835008,92,-56,-1,-1,0
1523614614682,-851968,92,-56,-1,-1,0
1523614614682,3014656,92,-56,-1,-1,0
1523614614722,7798784,92,-56,-1,-1,0
1523614614722,7274496,92,-56,-1,-1,0
1523614614722,1900544,92,-56,-1,-1,0
1523614614722,-2031616,92,-56,-1,-1,0
1523614614722,-2031616,92,-56,-1,-1,0
1523614614762,-1310720,92,-56,-1,-1,0
1523614614762,-1441792,92,-56,-1,-1,0
1523614614762,-1572864,92,-56,-1,-1,0
1523614614762,-1310720,92,-56,-1,-1,0
1523614614762,-1048576,92,-56,-1,-1,0
1523614614802,-1572864,92,-56,-1,-1,0
1523614614802,-1900544,92,-56,-1,-1,0
1523614614802,-1638400,92,-56,-1,-1,0
1523614614802,-1245184,92,-56,-1,-1,0
1523614614802,-983040,92,-56,-1,-1,0
1523614614847,-720896,92,-56,-1,-1,0
1523614614847,-458752,92,-56,-1,-1,0
1523614614847,-458752,92,-56,-1,-1,0
1523614614847,-327680,92,-56,-1,-1,0
1523614614847,0,92,-56,-1,-1,0
1523614614883,65536,92,-56,-1,-1,0
1523614614883,327680,92,-56,-1,-1,0
1523614614883,1048576,92,-56,-1,-1,0
1523614614883,1572864,92,-56,-1,-1,0
1523614614883,1835008,92,-56,-1,-1,0
1523614614922,1703936,92,-56,-1,-1,0
1523614614922,1572864,92,-56,-1,-1,0
1523614614922,1572864,92,-56,-1,-1,0
1523614614922,1769472,92,-56,-1,-1,0
1523614614922,1507328,92,-56,-1,-1,0
1523614614963,1114112,92,-56,-1,-1,0
1523614614963,458752,92,-56,-1,-1,0
1523614614963,-65536,92,-56,-1,-1,0
1523614614963,-589824,92,-56,-1,-1,0
1523614614963,-655360,92,-56,-1,-1,0
1523614615002,-458752,92,-56,-1,-1,0
1523614615002,-589824,92,-56,-1,-1,0
1523614615002,-655360,92,-56,-1,-1,0
1523614615002,-720896,92,-56,-1,-1,0
1523614615002,-786432,92,-56,-1,-1,0
1523614615042,-917504,92,-56,-1,-1,0
1523614615042,-655360,92,-56,-1,-1,0
1523614615042,-196608,92,-56,-1,-1,0
1523614615042,-262144,92,-56,-1,-1,0
1523614615042,-589824,92,-56,-1,-1,0
1523614615086,-524288,92,-56,-1,-1,0
1523614615086,-196608,92,-56,-1,-1,0
1523614615086,-262144,92,-56,-1,-1,0
1523614615086,-851968,92,-56,-1,-1,0
1523614615086,-720896,92,-56,-1,-1,0
1523614615122,-524288,92,-56,-1,-1,0
1523614615122,-655360,92,-56,-1,-1,0
1523614615122,-1114112,92,-56,-1,-1,0
1523614615122,-1048576,92,-56,-1,-1,0
1523614615122,-393216,92,-56,-1,-1,0
1523614615162,-131072,92,-56,-1,-1,0
1523614615162,-524288,92,-56,-1,-1,0
1523614615162,-1114112,92,-56,-1,-1,0
1523614615162,-917504,92,-56,-1,-1,0
1523614615162,-917504,92,-56,-1,-1,0
1523614615202,-1114112,92,-56,-1,-1,0
1523614615202,-1114112,92,-56,-1,-1,0
1523614615202,-589824,92,-56,-1,-1,0
1523614615202,-327680,92,-56,-1,-1,0
1523614615202,-524288,92,-56,-1,-1,0
1523614615242,-1114112,92,-56,-1,-1,0
1523614615242,-1769472,92,-56,-1,-1,0
1523614615242,-2097152,92,-56,-1,-1,0
1523614615242,-1769472,92,-56,-1,-1,0
1523614615242,-983040,92,-56,-1,-1,0
1523614615282,-1048576,92,-56,-1,-1,0
1523614615282,-1245184,92,-56,-1,-1,0
1523614615282,720896,92,-56,-1,-1,0
1523614615282,5570560,92,-56,-1,-1,0
1523614615282,7864320,92,-56,-1,-1,0
1523614615322,3866624,92,-56,-1,-1,0
1523614615322,-1114112,92,-56,-1,-1,0
1523614615322,-2359296,92,-56,-1,-1,0
1523614615322,-1703936,92,-56,-1,-1,0
1523614615322,-1310720,92,-56,-1,-1,0
1523614615362,-1179648,92,-56,-1,-1,0
1523614615362,-1245184,92,-56,-1,-1,0
1523614615362,-1507328,92,-56,-1,-1,0
1523614615362,-1835008,92,-56,-1,-1,0
1523614615362,-1769472,92,-56,-1,-1,0
1523614615402,-1376256,92,-56,-1,-1,0
1523614615402,-1114112,92,-56,-1,-1,0
1523614615402,-1048576,92,-56,-1,-1,0
1523614615402,-786432,92,-56,-1,-1,0
1523614615402,-458752,92,-56,-1,-1,0
1523614615442,-458752,92,-56,-1,-1,0
1523614615442,-524288,92,-56,-1,-1,0
1523614615442,-458752,92,-56,-1,-1,0
1523614615442,-65536,92,-56,-1,-1,0
1523614615442,131072,92,-56,-1,-1,0
1523614615487,327680,92,-56,-1,-1,0
1523614615487,983040,92,-56,-1,-1,0
1523614615487,1703936,92,-56,-1,-1,0
1523614615487,1966080,92,-56,-1,-1,0
1523614615487,2031616,92,-56,-1,-1,0
1523614615523,1900544,92,-56,-1,-1,0
1523614615523,1114112,92,-56,-1,-1,0
1523614615523,393216,92,-56,-1,-1,0
1523614615523,196608,92,-56,-1,-1,0
1523614615523,-131072,92,-56,-1,-1,0
1523614615562,-655360,92,-56,-1,-1,0
1523614615562,-589824,92,-56,-1,-1,0
1523614615562,-458752,92,-56,-1,-1,0
1523614615562,-720896,92,-56,-1,-1,0
1523614615562,-1048576,92,-56,-1,-1,0
1523614615602,-983040,92,-56,-1,-1,0
1523614615602,-786432,92,-56,-1,-1,0
1523614615602,-983040,92,-56,-1,-1,0
1523614615602,-1310720,92,-56,-1,-1,0
1523614615602,-1376256,92,-56,-1,-1,0
1523614615642,-1310720,92,-56,-1,-1,0
1523614615642,-1179648,92,-56,-1,-1,0
1523614615642,-917504,92,-56,-1,-1,0
1523614615642,-720896,92,-56,-1,-1,0
1523614615642,-917504,92,-56,-1,-1,0
1523614615682,-655360,92,-56,-1,-1,0
1523614615682,-327680,92,-56,-1,-1,0
1523614615682,-393216,92,-56,-1,-1,0
1523614615682,-983040,92,-56,-1,-1,0
1523614615682,-1376256,92,-56,-1,-1,0
1523614615722,-1114112,94,-56,-1,-1,0
1523614615722,-1048576,94,-56,-1,-1,0
1523614615722,-917504,94,-56,-1,-1,0
1523614615722,-720896,94,-56,-1,-1,0
1523614615722,-851968,94,-56,-1,-1,0
1523614615762,-1245184,94,-56,-1,-1,0
1523614615762,-1179648,94,-56,-1,-1,0
1523614615762,-851968,94,-56,-1,-1,0
1523614615762,-720896,94,-56,-1,-1,0
1523614615762,-983040,94,-56,-1,-1,0
1523614615802,-1310720,94,-56,-1,-1,0
1523614615802,-1507328,94,-56,-1,-1,0
1523614615802,-786432,94,-56,-1,-1,0
1523614615802,-327680,94,-56,-1,-1,0
1523614615802,-327680,94,-56,-1,-1,0
1523614615842,-983040,94,-56,-1,-1,0
1523614615842,-1179648,94,-56,-1,-1,0
1523614615842,-1507328,94,-56,-1,-1,0
1523614615842,-1179648,94,-56,-1,-1,0
1523614615842,-589824,94,-56,-1,-1,0
1523614615882,1310720,94,-56,-1,-1,0
1523614615882,6422528,94,-56,-1,-1,0
1523614615882,9371648,94,-56,-1,-1,0
1523614615882,4653056,94,-56,-1,-1,0
1523614615882,-1310720,94,-56,-1,-1,0
1523614615922,-2031616,94,-56,-1,-1,0
1523614615922,-458752,94,-56,-1,-1,0
1523614615922,0,94,-56,-1,-1,0
1523614615922,-589824,94,-56,-1,-1,0
1523614615922,-589824,94,-56,-1,-1,0
1523614615962,65536,94,-56,-1,-1,0
1523614615962,-65536,94,-56,-1,-1,0
1523614615962,-851968,94,-56,-1,-1,0
1523614615962,-393216,94,-56,-1,-1,0
1523614615962,327680,94,-56,-1,-1,0
1523614616002,393216,94,-56,-1,-1,0
1523614616002,-65536,94,-56,-1,-1,0
1523614616002,-65536,94,-56,-1,-1,0
1523614616002,196608,94,-56,-1,-1,0
1523614616002,720896,94,-56,-1,-1,0
1523614616042,786432,94,-56,-1,-1,0
1523614616042,983040,94,-56,-1,-1,0
1523614616042,2031616,94,-56,-1,-1,0
1523614616042,2555904,94,-56,-1,-1,0
1523614616042,2228224,94,-56,-1,-1,0
1523614616082,2490368,94,-56,-1,-1,0
1523614616082,3276800,94,-56,-1,-1,0
1523614616082,3473408,94,-56,-1,-1,0
1523614616082,2818048,94,-56,-1,-1,0
1523614616082,2424832,94,-56,-1,-1,0
1523614616127,2162688,94,-56,-1,-1,0
1523614616127,1310720,94,-56,-1,-1,0
1523614616127,720896,94,-56,-1,-1,0
1523614616127,1048576,94,-56,-1,-1,0
1523614616127,393216,94,-56,-1,-1,0
1523614616164,-327680,94,-56,-1,-1,0
1523614616164,-131072,94,-56,-1,-1,0
1523614616164,327680,94,-56,-1,-1,0
1523614616164,0,94,-56,-1,-1,0
1523614616164,-327680,94,-56,-1,-1,0
1523614616202,-327680,94,-56,-1,-1,0
1523614616202,-393216,94,-56,-1,-1,0
1523614616202,-262144,94,-56,-1,-1,0
1523614616202,-196608,94,-56,-1,-1,0
1523614616202,-65536,94,-56,-1,-1,0
1523614616242,-65536,94,-56,-1,-1,0
1523614616242,-131072,94,-56,-1,-1,0
1523614616242,-196608,94,-56,-1,-1,0
1523614616242,-196608,94,-56,-1,-1,0
1523614616242,-196608,94,-56,-1,-1,0
1523614616282,-131072,96,-56,-1,-1,0
1523614616282,131072,96,-56,-1,-1,0
1523614616282,327680,96,-56,-1,-1,0
1523614616282,327680,96,-56,-1,-1,0
1523614616282,131072,96,-56,-1,-1,0
1523614616322,0,96,-56,-1,-1,0
1523614616322,0,96,-56,-1,-1,0
1523614616322,-65536,96,-56,-1,-1,0
1523614616322,-65536,96,-56,-1,-1,0
1523614616322,0,96,-56,-1,-1,0
1523614616362,0,96,-56,-1,-1,0
1523614616362,0,96,-56,-1,-1,0
1523614616362,0,96,-56,-1,-1,0
1523614616362,-131072,96,-56,-1,-1,0
1523614616362,-196608,96,-56,-1,-1,0
1523614616402,-131072,96,-56,-1,-1,0
1523614616402,0,96,-56,-1,-1,0
1523614616402,0,96,-56,-1,-1,0
1523614616402,-196608,96,-56,-1,-1,0
1523614616402,-458752,96,-56,-1,-1,0
1523614616442,-786432,96,-56,-1,-1,0
1523614616442,65536,96,-56,-1,-1,0
1523614616442,4128768,96,-56,-1,-1,0
1523614616442,8912896,96,-56,-1,-1,0
1523614616442,7929856,96,-56,-1,-1,0
1523614616482,2686976,96,-56,-1,-1,0
1523614616482,-720896,96,-56,-1,-1,0
1523614616482,-524288,96,-56,-1,-1,0
1523614616482,-262144,96,-56,-1,-1,0
1523614616482,-327680,96,-56,-1,-1,0
1523614616522,-327680,96,-56,-1,-1,0
1523614616522,-458752,96,-56,-1,-1,0
1523614616522,-458752,96,-56,-1,-1,0
1523614616522,-327680,96,-56,-1,-1,0
1523614616522,-262144,96,-56,-1,-1,0
1523614616562,-393216,96,-56,-1,-1,0
1523614616562,-327680,96,-56,-1,-1,0
1523614616562,-196608,96,-56,-1,-1,0
1523614616562,-131072,96,-56,-1,-1,0
1523614616562,0,96,-56,-1,-1,0
1523614616602,262144,96,-56,-1,-1,0
1523614616602,524288,96,-56,-1,-1,0
1523614616602,524288,96,-56,-1,-1,0
1523614616602,720896,96,-56,-1,-1,0
1523614616602,983040,96,-56,-1,-1,0
1523614616642,1441792,96,-56,-1,-1,0
1523614616642,1638400,96,-56,-1,-1,0
1523614616642,1835008,96,-56,-1,-1,0
1523614616642,1835008,96,-56,-1,-1,0
1523614616642,1966080,96,-56,-1,-1,0
1523614616682,2097152,96,-56,-1,-1,0
1523614616682,1900544,96,-56,-1,-1,0
1523614616682,1179648,96,-56,-1,-1,0
1523614616682,655360,96,-56,-1,-1,0
1523614616682,524288,96,-56,-1,-1,0
1523614616722,262144,96,-56,-1,-1,0
1523614616722,-131072,96,-56,-1,-1,0
1523614616722,-589824,96,-56,-1,-1,0
1523614616722,-851968,96,-56,-1,-1,0
1523614616722,-786432,96,-56,-1,-1,0
1523614616767,-589824,96,-56,-1,-1,0
1523614616767,-524288,96,-56,-1,-1,0
1523614616767,-786432,96,-56,-1,-1,0
1523614616767,-1114112,96,-56,-1,-1,0
1523614616767,-1114112,96,-56,-1,-1,0
1523614616803,-917504,96,-56,-1,-1,0
1523614616803,-917504,96,-56,-1,-1,0
1523614616803,-1048576,96,-56,-1,-1,0
1523614616803,-983040,96,-56,-1,-1,0
1523614616803,-983040,96,-56,-1,-1,0
1523614616843,-917504,96,-56,-1,-1,0
1523614616843,-851968,96,-56,-1,-1,0
1523614616843,-917504,96,-56,-1,-1,0
1523614616843,-917504,96,-56,-1,-1,0
1523614616843,-786432,96,-56,-1,-1,0
1523614616882,-1048576,98,-56,-1,-1,0
1523614616882,-1572864,98,-56,-1,-1,0
1523614616882,-1441792,98,-56,-1,-1,0
1523614616882,-1114112,98,-56,-1,-1,0
1523614616882,-1179648,98,-56,-1,-1,0
1523614616928,-1507328,98,-56,-1,-1,0
1523614616928,-1703936,98,-56,-1,-1,0
1523614616928,-1769472,98,-56,-1,-1,0
1523614616928,-1769472,98,-56,-1,-1,0
1523614616928,-1638400,98,-56,-1,-1,0
1523614616962,-1572864,98,-56,-1,-1,0
1523614616962,-1376256,98,-56,-1,-1,0
1523614616962,-1179648,98,-56,-1,-1,0
1523614616962,-1376256,98,-56,-1,-1,0
1523614616962,-1638400,98,-56,-1,-1,0
1523614617003,-1769472,98,-56,-1,-1,0
1523614617003,-1835008,98,-56,-1,-1,0
1523614617003,-1703936,98,-56,-1,-1,0
1523614617003,-262144,98,-56,-1,-1,0
1523614617003,4390912,98,-56,-1,-1,0
1523614617042,8847360,98,-56,-1,-1,0
1523614617042,6684672,98,-56,-1,-1,0
1523614617042,1310720,98,-56,-1,-1,0
1523614617042,-1638400,98,-56,-1,-1,0
1523614617042,-1769472,98,-56,-1,-1,0
1523614617082,-1638400,98,-56,-1,-1,0
1523614617082,-1441792,98,-56,-1,-1,0
1523614617082,-1507328,98,-56,-1,-1,0
1523614617082,-1638400,98,-56,-1,-1,0
1523614617082,-1703936,98,-56,-1,-1,0
1523614617122,-1703936,98,-56,-1,-1,0
1523614617122,-1572864,98,-56,-1,-1,0
1523614617122,-1310720,98,-56,-1,-1,0
1523614617122,-1310720,98,-56,-1,-1,0
1523614617122,-1179648,98,-56,-1,-1,0
1523614617162,-1179648,98,-56,-1,-1,0
1523614617162,-1179648,98,-56,-1,-1,0
1523614617162,-1245184,98,-56,-1,-1,0
1523614617162,-917504,98,-56,-1,-1,0
1523614617162,-327680,98,-56,-1,-1,0
1523614617202,393216,98,-56,-1,-1,0
1523614617202,851968,98,-56,-1,-1,0
1523614617202,851968,98,-56,-1,-1,0
1523614617202,786432,98,-56,-1,-1,0
1523614617202,1376256,98,-56,-1,-1,0
1523614617242,1638400,98,-56,-1,-1,0
1523614617242,1966080,98,-56,-1,-1,0
1523614617242,2031616,98,-56,-1,-1,0
1523614617242,1572864,98,-56,-1,-1,0
1523614617242,458752,98,-56,-1,-1,0
1523614617282,-131072,98,-56,-1,-1,0
1523614617282,65536,98,-56,-1,-1,0
1523614617282,196608,98,-56,-1,-1,0
1523614617282,-393216,98,-56,-1,-1,0
1523614617282,-983040,98,-56,-1,-1,0
1523614617322,-1179648,98,-56,-1,-1,0
1523614617322,-720896,98,-56,-1,-1,0
1523614617322,-720896,98,-56,-1,-1,0
1523614617322,-1048576,98,-56,-1,-1,0
1523614617322,-1114112,98,-56,-1,-1,0
1523614617362,-720896,98,-56,-1,-1,0
1523614617362,-786432,98,-56,-1,-1,0
1523614617362,-851968,98,-56,-1,-1,0
1523614617362,-720896,98,-56,-1,-1,0
1523614617362,-786432,98,-56,-1,-1,0
1523614617407,-983040,98,-56,-1,-1,0
1523614617407,-851968,98,-56,-1,-1,0
1523614617407,-851968,98,-56,-1,-1,0
1523614617407,-983040,98,-56,-1,-1,0
1523614617407,-1114112,98,-56,-1,-1,0
1523614617449,-983040,99,-56,-1,-1,0
1523614617449,-1179648,99,-56,-1,-1,0
1523614617449,-1376256,99,-56,-1,-1,0
1523614617449,-983040,99,-56,-1,-1,0
1523614617449,-589824,99,-56,-1,-1,0
1523614617482,-589824,99,-56,-1,-1,0
1523614617482,-983040,99,-56,-1,-1,0
1523614617482,-1376256,99,-56,-1,-1,0
1523614617482,-1703936,99,-56,-1,-1,0
1523614617482,-1638400,99,-56,-1,-1,0
1523614617522,-1441792,99,-56,-1,-1,0
1523614617522,-917504,99,-56,-1,-1,0
1523614617522,-655360,99,-56,-1,-1,0
1523614617522,-851968,99,-56,-1,-1,0
1523614617522,-1310720,99,-56,-1,-1,0
1523614617562,-1769472,99,-56,-1,-1,0
1523614617562,-1900544,99,-56,-1,-1,0
1523614617562,-1638400,99,-56,-1,-1,0
1523614617562,-1441792,99,-56,-1,-1,0
1523614617562,-327680,99,-56,-1,-1,0
1523614617602,3538944,99,-56,-1,-1,0
1523614617602,8060928,99,-56,-1,-1,0
1523614617602,6881280,99,-56,-1,-1,0
1523614617602,1507328,99,-56,-1,-1,0
1523614617602,-2031616,99,-56,-1,-1,0
1523614617642,-1769472,99,-56,-1,-1,0
1523614617642,-1310720,99,-56,-1,-1,0
1523614617642,-1310720,99,-56,-1,-1,0
1523614617642,-1376256,99,-56,-1,-1,0
1523614617642,-1507328,99,-56,-1,-1,0
1523614617682,-1441792,99,-56,-1,-1,0
1523614617682,-1441792,99,-56,-1,-1,0
1523614617682,-1048576,99,-56,-1,-1,0
1523614617682,-393216,99,-56,-1,-1,0
1523614617682,-196608,99,-56,-1,-1,0
1523614617722,-589824,99,-56,-1,-1,0
1523614617722,-917504,99,-56,-1,-1,0
1523614617722,-655360,99,-56,-1,-1,0
1523614617722,0,99,-56,-1,-1,0
1523614617722,458752,99,-56,-1,-1,0
1523614617762,589824,99,-56,-1,-1,0
1523614617762,983040,99,-56,-1,-1,0
1523614617762,1310720,99,-56,-1,-1,0
1523614617762,1376256,99,-56,-1,-1,0
1523614617762,1441792,99,-56,-1,-1,0
1523614617802,2162688,99,-56,-1,-1,0
1523614617802,2621440,99,-56,-1,-1,0
1523614617802,2424832,99,-56,-1,-1,0
1523614617802,1900544,99,-56,-1,-1,0
1523614617802,1703936,99,-56,-1,-1,0
1523614617842,1507328,99,-56,-1,-1,0
1523614617842,983040,99,-56,-1,-1,0
1523614617842,196608,99,-56,-1,-1,0
1523614617842,-196608,99,-56,-1,-1,0
1523614617842,-458752,99,-56,-1,-1,0
1523614617882,-458752,99,-56,-1,-1,0
1523614617882,-65536,99,-56,-1,-1,0
1523614617882,0,99,-56,-1,-1,0
1523614617882,-655360,99,-56,-1,-1,0
1523614617882,-1114112,99,-56,-1,-1,0
1523614617922,-786432,99,-56,-1,-1,0
1523614617922,-655360,99,-56,-1,-1,0
1523614617922,-655360,99,-56,-1,-1,0
1523614617922,-524288,99,-56,-1,-1,0
1523614617922,-393216,99,-56,-1,-1,0
1523614617962,-327680,99,-56,-1,-1,0
1523614617962,-458752,99,-56,-1,-1,0
1523614617962,-917504,99,-56,-1,-1,0
1523614617962,-851968,99,-56,-1,-1,0
1523614617962,-196608,99,-56,-1,-1,0
1523614618002,131072,100,-56,-1,-1,0
1523614618002,-65536,100,-56,-1,-1,0
1523614618002,-589824,100,-56,-1,-1,0
1523614618002,-851968,100,-56,-1,-1,0
1523614618002,-720896,100,-56,-1,-1,0
1523614618048,-524288,100,-56,-1,-1,0
1523614618048,-262144,100,-56,-1,-1,0
1523614618048,-262144,100,-56,-1,-1,0
1523614618048,-524288,100,-56,-1,-1,0
1523614618048,-786432,100,-56,-1,-1,0
1523614618082,-851968,100,-56,-1,-1,0
1523614618082,-786432,100,-56,-1,-1,0
1523614618082,-262144,100,-56,-1,-1,0
1523614618082,-65536,100,-56,-1,-1,0
1523614618082,-524288,100,-56,-1,-1,0
1523614618122,-983040,100,-56,-1,-1,0
1523614618122,-917504,100,-56,-1,-1,0
1523614618122,-786432,100,-56,-1,-1,0
1523614618122,-851968,100,-56,-1,-1,0
1523614618122,-786432,100,-56,-1,-1,0
1523614618162,393216,100,-56,-1,-1,0
1523614618162,4587520,100,-56,-1,-1,0
1523614618162,9043968,100,-56,-1,-1,0
1523614618162,7340032,100,-56,-1,-1,0
1523614618162,1900544,100,-56,-1,-1,0
1523614618206,-1310720,100,-56,-1,-1,0
1523614618206,-1048576,100,-56,-1,-1,0
1523614618206,-589824,100,-56,-1,-1,0
1523614618206,-589824,100,-56,-1,-1,0
1523614618206,-720896,100,-56,-1,-1,0
1523614618242,-786432,100,-56,-1,-1,0
1523614618242,-655360,100,-56,-1,-1,0
1523614618242,-589824,100,-56,-1,-1,0
1523614618242,-458752,100,-56,-1,-1,0
1523614618242,-393216,100,-56,-1,-1,0
1523614618283,-327680,100,-56,-1,-1,0
1523614618283,-196608,100,-56,-1,-1,0
1523614618283,-196608,100,-56,-1,-1,0
1523614618283,-393216,100,-56,-1,-1,0
1523614618283,-327680,100,-56,-1,-1,0
1523614618322,327680,100,-56,-1,-1,0
1523614618322,851968,100,-56,-1,-1,0
1523614618322,720896,100,-56,-1,-1,0
1523614618322,917504,100,-56,-1,-1,0
1523614618322,1441792,100,-56,-1,-1,0
1523614618364,1703936,100,-56,-1,-1,0
1523614618364,1703936,100,-56,-1,-1,0
1523614618364,1900544,100,-56,-1,-1,0
1523614618364,1966080,100,-56,-1,-1,0
1523614618364,1769472,100,-56,-1,-1,0
1523614618416,1572864,100,-56,-1,-1,0
1523614618416,1114112,100,-56,-1,-1,0
1523614618416,393216,100,-56,-1,-1,0
1523614618416,-65536,100,-56,-1,-1,0
1523614618416,65536,100,-56,-1,-1,0
1523614618442,0,100,-56,-1,-1,0
1523614618442,-196608,100,-56,-1,-1,0
1523614618442,-458752,100,-56,-1,-1,0
1523614618442,-524288,100,-56,-1,-1,0
1523614618442,-589824,100,-56,-1,-1,0
1523614618487,-786432,100,-56,-1,-1,0
1523614618487,-720896,100,-56,-1,-1,0
1523614618487,-524288,100,-56,-1,-1,0
1523614618487,-327680,100,-56,-1,-1,0
1523614618487,-589824,100,-56,-1,-1,0
1523614618522,-655360,100,-56,-1,-1,0
1523614618522,-524288,100,-56,-1,-1,0
1523614618522,-327680,100,-56,-1,-1,0
1523614618522,-393216,100,-56,-1,-1,0
1523614618522,-393216,100,-56,-1,-1,0
1523614618562,-196608,100,-56,-1,-1,0
1523614618562,-131072,100,-56,-1,-1,0
1523614618562,-327680,100,-56,-1,-1,0
1523614618562,-196608,100,-56,-1,-1,0
1523614618562,-196608,100,-56,-1,-1,0
1523614618611,-458752,101,-56,-1,-1,0
1523614618611,-589824,101,-56,-1,-1,0
1523614618611,-393216,101,-56,-1,-1,0
1523614618611,-262144,101,-56,-1,-1,0
1523614618611,-65536,101,-56,-1,-1,0
1523614618642,-65536,101,-56,-1,-1,0
1523614618642,-327680,101,-56,-1,-1,0
1523614618642,-524288,101,-56,-1,-1,0
1523614618642,-393216,101,-56,-1,-1,0
1523614618642,-327680,101,-56,-1,-1,0
1523614618687,-65536,101,-56,-1,-1,0
1523614618687,0,101,-56,-1,-1,0
1523614618687,0,101,-56,-1,-1,0
1523614618687,-262144,101,-56,-1,-1,0
1523614618687,-720896,101,-56,-1,-1,0
1523614618722,-1114112,101,-56,-1,-1,0
1523614618722,-262144,101,-56,-1,-1,0
1523614618722,3670016,101,-56,-1,-1,0
1523614618722,8978432,101,-56,-1,-1,0
1523614618722,9502720,101,-56,-1,-1,0
1523614618762,4587520,101,-56,-1,-1,0
1523614618762,262144,101,-56,-1,-1,0
1523614618762,-262144,101,-56,-1,-1,0
1523614618762,-393216,101,-56,-1,-1,0
1523614618762,-786432,101,-56,-1,-1,0
1523614618802,-655360,101,-56,-1,-1,0
1523614618802,-327680,101,-56,-1,-1,0
1523614618802,-131072,101,-56,-1,-1,0
1523614618802,-196608,101,-56,-1,-1,0
1523614618802,-262144,101,-56,-1,-1,0
1523614618842,-65536,101,-56,-1,-1,0
1523614618842,0,101,-56,-1,-1,0
1523614618842,131072,101,-56,-1,-1,0
1523614618842,65536,101,-56,-1,-1,0
1523614618842,65536,101,-56,-1,-1,0
1523614618882,131072,101,-56,-1,-1,0
1523614618882,524288,101,-56,-1,-1,0
1523614618882,917504,101,-56,-1,-1,0
1523614618882,1310720,101,-56,-1,-1,0
1523614618882,1638400,101,-56,-1,-1,0
1523614618922,1966080,101,-56,-1,-1,0
1523614618922,2162688,101,-56,-1,-1,0
1523614618922,2359296,101,-56,-1,-1,0
1523614618922,2621440,101,-56,-1,-1,0
1523614618922,2818048,101,-56,-1,-1,0
1523614618962,2621440,101,-56,-1,-1,0
1523614618962,2228224,101,-56,-1,-1,0
1523614618962,2031616,101,-56,-1,-1,0
1523614618962,1703936,101,-56,-1,-1,0
1523614618962,983040,101,-56,-1,-1,0
1523614619002,327680,101,-56,-1,-1,0
1523614619002,524288,101,-56,-1,-1,0
1523614619002,655360,101,-56,-1,-1,0
1523614619002,131072,101,-56,-1,-1,0
1523614619002,-327680,101,-56,-1,-1,0
1523614619042,-393216,101,-56,-1,-1,0
1523614619042,-524288,101,-56,-1,-1,0
1523614619042,-524288,101,-56,-1,-1,0
1523614619042,0,101,-56,-1,-1,0
1523614619042,393216,101,-56,-1,-1,0
1523614619082,196608,101,-56,-1,-1,0
1523614619082,-327680,101,-56,-1,-1,0
1523614619082,-524288,101,-56,-1,-1,0
1523614619082,-393216,101,-56,-1,-1,0
1523614619082,-327680,101,-56,-1,-1,0
1523614619122,65536,101,-56,-1,-1,0
1523614619122,0,101,-56,-1,-1,0
1523614619122,-196608,101,-56,-1,-1,0
1523614619122,-262144,101,-56,-1,-1,0
1523614619122,65536,101,-56,-1,-1,0
1523614619162,-196608,102,-56,-1,-1,0
1523614619162,-655360,102,-56,-1,-1,0
1523614619162,-851968,102,-56,-1,-1,0
1523614619162,-589824,102,-56,-1,-1,0
1523614619162,-196608,102,-56,-1,-1,0
1523614619203,-131072,102,-56,-1,-1,0
1523614619203,-196608,102,-56,-1,-1,0
1523614619203,-458752,102,-56,-1,-1,0
1523614619203,-458752,102,-56,-1,-1,0
1523614619203,-393216,102,-56,-1,-1,0
1523614619242,-327680,102,-56,-1,-1,0
1523614619242,-524288,102,-56,-1,-1,0
1523614619242,-655360,102,-56,-1,-1,0
1523614619242,-589824,102,-56,-1,-1,0
1523614619242,-655360,102,-56,-1,-1,0
1523614619286,-720896,102,-56,-1,-1,0
1523614619286,-786432,102,-56,-1,-1,0
1523614619286,-983040,102,-56,-1,-1,0
1523614619286,-458752,102,-56,-1,-1,0
1523614619286,3145728,102,-56,-1,-1,0
1523614619342,8454144,102,-56,-1,-1,0
1523614619342,8781824,102,-56,-1,-1,0
1523614619342,3670016,102,-56,-1,-1,0
1523614619342,-983040,102,-56,-1,-1,0
1523614619342,-1245184,102,-56,-1,-1,0
1523614619379,-524288,102,-56,-1,-1,0
1523614619379,-393216,102,-56,-1,-1,0
1523614619379,-524288,102,-56,-1,-1,0
1523614619379,-720896,102,-56,-1,-1,0
1523614619379,-983040,102,-56,-1,-1,0
1523614619426,-917504,102,-56,-1,-1,0
1523614619426,-327680,102,-56,-1,-1,0
1523614619426,-131072,102,-56,-1,-1,0
1523614619426,-458752,102,-56,-1,-1,0
1523614619426,-196608,102,-56,-1,-1,0
1523614619442,327680,102,-56,-1,-1,0
1523614619442,393216,102,-56,-1,-1,0
1523614619442,65536,102,-56,-1,-1,0
1523614619442,131072,102,-56,-1,-1,0
1523614619442,458752,102,-56,-1,-1,0
1523614619500,1114112,102,-56,-1,-1,0
1523614619500,1507328,102,-56,-1,-1,0
1523614619500,1835008,102,-56,-1,-1,0
1523614619500,1966080,102,-56,-1,-1,0
1523614619500,2555904,102,-56,-1,-1,0
1523614619522,3014656,102,-56,-1,-1,0
1523614619522,3014656,102,-56,-1,-1,0
1523614619522,2621440,102,-56,-1,-1,0
1523614619522,2228224,102,-56,-1,-1,0
1523614619522,1638400,102,-56,-1,-1,0
1523614619563,1179648,102,-56,-1,-1,0
1523614619563,589824,102,-56,-1,-1,0
1523614619563,131072,102,-56,-1,-1,0
1523614619563,65536,102,-56,-1,-1,0
1523614619563,131072,102,-56,-1,-1,0
1523614619626,0,102,-56,-1,-1,0
1523614619626,-262144,102,-56,-1,-1,0
1523614619626,-458752,102,-56,-1,-1,0
1523614619626,-524288,102,-56,-1,-1,0
1523614619626,-524288,102,-56,-1,-1,0
1523614619657,-458752,102,-56,-1,-1,0
1523614619657,-720896,102,-56,-1,-1,0
1523614619657,-851968,102,-56,-1,-1,0
1523614619657,-458752,102,-56,-1,-1,0
1523614619657,0,102,-56,-1,-1,0
1523614619693,0,102,-56,-1,-1,0
1523614619693,0,102,-56,-1,-1,0
1523614619693,131072,102,-56,-1,-1,0
1523614619693,131072,102,-56,-1,-1,0
1523614619693,-196608,102,-56,-1,-1,0
1523614619722,-655360,102,-56,-1,-1,0
1523614619722,-589824,102,-56,-1,-1,0
1523614619722,-589824,102,-56,-1,-1,0
1523614619722,-720896,102,-56,-1,-1,0
1523614619722,-655360,102,-56,-1,-1,0
1523614619768,-196608,102,-56,-1,-1,0
1523614619768,0,102,-56,-1,-1,0
1523614619768,-262144,102,-56,-1,-1,0
1523614619768,-720896,102,-56,-1,-1,0
1523614619768,-720896,102,-56,-1,-1,0
1523614619804,-655360,102,-56,-1,-1,0
1523614619804,-917504,102,-56,-1,-1,0
1523614619804,-851968,102,-56,-1,-1,0
1523614619804,-393216,102,-56,-1,-1,0
1523614619804,-589824,102,-56,-1,-1,0
1523614619843,-851968,102,-56,-1,-1,0
1523614619843,-655360,102,-56,-1,-1,0
1523614619843,-458752,102,-56,-1,-1,0
1523614619843,-786432,102,-56,-1,-1,0
1523614619843,-983040,102,-56,-1,-1,0
1523614619882,-1376256,102,-56,-1,-1,0
1523614619882,-786432,102,-56,-1,-1,0
1523614619882,2818048,102,-56,-1,-1,0
1523614619882,8192000,102,-56,-1,-1,0
1523614619882,8650752,102,-56,-1,-1,0
1523614619922,3407872,102,-56,-1,-1,0
1523614619922,-1638400,102,-56,-1,-1,0
1523614619922,-2031616,102,-56,-1,-1,0
1523614619922,-1310720,102,-56,-1,-1,0
1523614619922,-1114112,102,-56,-1,-1,0
1523614619967,-1507328,102,-56,-1,-1,0
1523614619967,-1703936,102,-56,-1,-1,0
1523614619967,-1441792,102,-56,-1,-1,0
1523614619967,-1114112,102,-56,-1,-1,0
1523614619967,-1310720,102,-56,-1,-1,0
1523614620002,-1507328,102,-56,-1,-1,0
1523614620002,-1376256,102,-56,-1,-1,0
1523614620002,-917504,102,-56,-1,-1,0
1523614620002,-1114112,102,-56,-1,-1,0
1523614620002,-1572864,102,-56,-1,-1,0
1523614620042,-1441792,102,-56,-1,-1,0
1523614620042,-655360,102,-56,-1,-1,0
1523614620042,0,102,-56,-1,-1,0
1523614620042,131072,102,-56,-1,-1,0
1523614620042,0,102,-56,-1,-1,0
1523614620082,262144,102,-56,-1,-1,0
1523614620082,786432,102,-56,-1,-1,0
1523614620082,1179648,102,-56,-1,-1,0
1523614620082,1179648,102,-56,-1,-1,0
1523614620082,1179648,102,-56,-1,-1,0
1523614620122,917504,102,-56,-1,-1,0
1523614620122,851968,102,-56,-1,-1,0
1523614620122,458752,102,-56,-1,-1,0
1523614620122,0,102,-56,-1,-1,0
1523614620122,-655360,102,-56,-1,-1,0
1523614620162,-917504,102,-56,-1,-1,0
1523614620162,-1048576,102,-56,-1,-1,0
1523614620162,-1310720,102,-56,-1,-1,0
1523614620162,-1441792,102,-56,-1,-1,0
1523614620162,-1245184,102,-56,-1,-1,0
1523614620203,-1179648,102,-56,-1,-1,0
1523614620203,-1441792,102,-56,-1,-1,0
1523614620203,-1835008,102,-56,-1,-1,0
1523614620203,-1769472,102,-56,-1,-1,0
1523614620203,-1572864,102,-56,-1,-1,0
1523614620242,-1703936,102,-56,-1,-1,0
1523614620242,-1900544,102,-56,-1,-1,0
1523614620242,-1310720,102,-56,-1,-1,0
1523614620242,-917504,102,-56,-1,-1,0
1523614620242,-1179648,102,-56,-1,-1,0
1523614620282,-1310720,102,-56,-1,-1,0
1523614620282,-1245184,102,-56,-1,-1,0
1523614620282,-1245184,102,-56,-1,-1,0
1523614620282,-1179648,102,-56,-1,-1,0
1523614620282,-786432,102,-56,-1,-1,0
1523614620322,-851968,102,-56,-1,-1,0
1523614620322,-1179648,102,-56,-1,-1,0
1523614620322,-1638400,102,-56,-1,-1,0
1523614620322,-1441792,102,-56,-1,-1,0
1523614620322,-917504,102,-56,-1,-1,0
1523614620362,-524288,102,-56,-1,-1,0
1523614620362,-983040,102,-56,-1,-1,0
1523614620362,-1376256,102,-56,-1,-1,0
1523614620362,-1179648,102,-56,-1,-1,0
1523614620362,-851968,102,-56,-1,-1,0
1523614620402,-983040,102,-56,-1,-1,0
1523614620402,-917504,102,-56,-1,-1,0
1523614620402,-1048576,102,-56,-1,-1,0
1523614620402,-1179648,102,-56,-1,-1,0
1523614620402,-983040,102,-56,-1,-1,0
1523614620442,-1114112,102,-56,-1,-1,0
1523614620442,-1048576,102,-56,-1,-1,0
1523614620442,-655360,102,-56,-1,-1,0
1523614620442,-393216,102,-56,-1,-1,0
1523614620442,-327680,102,-56,-1,-1,0
1523614620482,-720896,102,-56,-1,-1,0
1523614620482,-1507328,102,-56,-1,-1,0
1523614620482,-720896,102,-56,-1,-1,0
1523614620482,3866624,102,-56,-1,-1,0
1523614620482,9764864,102,-56,-1,-1,0
1523614620522,9502720,102,-56,-1,-1,0
1523614620522,3735552,102,-56,-1,-1,0
1523614620522,-786432,102,-56,-1,-1,0
1523614620522,-983040,102,-56,-1,-1,0
1523614620522,-589824,102,-56,-1,-1,0
1523614620562,-655360,102,-56,-1,-1,0
1523614620562,-720896,102,-56,-1,-1,0
1523614620562,-1048576,102,-56,-1,-1,0
1523614620562,-917504,102,-56,-1,-1,0
1523614620562,-196608,102,-56,-1,-1,0
1523614620607,65536,102,-56,-1,-1,0
1523614620607,-196608,102,-56,-1,-1,0
1523614620607,-393216,102,-56,-1,-1,0
1523614620607,-262144,102,-56,-1,-1,0
1523614620607,0,102,-56,-1,-1,0
1523614620642,65536,102,-56,-1,-1,0
1523614620642,196608,102,-56,-1,-1,0
1523614620642,524288,102,-56,-1,-1,0
1523614620642,851968,102,-56,-1,-1,0
1523614620642,1114112,102,-56,-1,-1,0
1523614620682,1507328,102,-56,-1,-1,0
1523614620682,2031616,102,-56,-1,-1,0
1523614620682,2424832,102,-56,-1,-1,0
1523614620682,2490368,102,-56,-1,-1,0
1523614620682,2555904,102,-56,-1,-1,0
1523614620722,2818048,102,-56,-1,-1,0
1523614620722,3080192,102,-56,-1,-1,0
1523614620722,2818048,102,-56,-1,-1,0
1523614620722,2031616,102,-56,-1,-1,0
1523614620722,1376256,102,-56,-1,-1,0
1523614620763,917504,102,-56,-1,-1,0
1523614620763,458752,102,-56,-1,-1,0
1523614620763,-65536,102,-56,-1,-1,0
1523614620763,-196608,102,-56,-1,-1,0
1523614620763,-131072,102,-56,-1,-1,0
1523614620802,-65536,102,-56,-1,-1,0
1523614620802,0,102,-56,-1,-1,0
1523614620802,-65536,102,-56,-1,-1,0
1523614620802,-655360,102,-56,-1,-1,0
1523614620802,-1179648,102,-56,-1,-1,0
1523614620842,-1114112,102,-56,-1,-1,0
1523614620842,-983040,102,-56,-1,-1,0
1523614620842,-851968,102,-56,-1,-1,0
1523614620842,-720896,102,-56,-1,-1,0
1523614620842,-655360,102,-56,-1,-1,0
1523614620882,-720896,102,-56,-1,-1,0
1523614620882,-589824,102,-56,-1,-1,0
1523614620882,-458752,102,-56,-1,-1,0
1523614620882,-458752,102,-56,-1,-1,0
1523614620882,-524288,102,-56,-1,-1,0
1523614620922,-589824,102,-56,-1,-1,0
1523614620922,-655360,102,-56,-1,-1,0
1523614620922,-589824,102,-56,-1,-1,0
1523614620922,-589824,102,-56,-1,-1,0
1523614620922,-786432,102,-56,-1,-1,0
1523614620962,-983040,102,-56,-1,-1,0
1523614620962,-720896,102,-56,-1,-1,0
1523614620962,-720896,102,-56,-1,-1,0
1523614620962,-917504,102,-56,-1,-1,0
1523614620962,-1114112,102,-56,-1,-1,0
1523614621002,-1114112,102,-56,-1,-1,0
1523614621002,-983040,102,-56,-1,-1,0
1523614621002,-786432,102,-56,-1,-1,0
1523614621002,-983040,102,-56,-1,-1,0
1523614621002,-1179648,102,-56,-1,-1,0
1523614621042,-1048576,102,-56,-1,-1,0
1523614621042,-917504,102,-56,-1,-1,0
1523614621042,-1114112,102,-56,-1,-1,0
1523614621042,-1114112,102,-56,-1,-1,0
1523614621042,-1245184,102,-56,-1,-1,0
1523614621082,-1769472,102,-56,-1,-1,0
1523614621082,-458752,102,-56,-1,-1,0
1523614621082,4587520,102,-56,-1,-1,0
1523614621082,9240576,102,-56,-1,-1,0
1523614621082,6553600,102,-56,-1,-1,0
1523614621122,720896,102,-56,-1,-1,0
1523614621122,-1900544,102,-56,-1,-1,0
1523614621122,-1310720,102,-56,-1,-1,0
1523614621122,-720896,102,-56,-1,-1,0
1523614621122,-786432,102,-56,-1,-1,0
1523614621162,-1179648,102,-56,-1,-1,0
1523614621162,-1507328,102,-56,-1,-1,0
1523614621162,-1245184,102,-56,-1,-1,0
1523614621162,-983040,102,-56,-1,-1,0
1523614621162,-851968,102,-56,-1,-1,0
1523614621202,-720896,102,-56,-1,-1,0
1523614621202,-458752,102,-56,-1,-1,0
1523614621202,-458752,102,-56,-1,-1,0
1523614621202,-589824,102,-56,-1,-1,0
1523614621202,-589824,102,-56,-1,-1,0
1523614621247,-262144,102,-56,-1,-1,0
1523614621247,0,102,-56,-1,-1,0
1523614621247,196608,102,-56,-1,-1,0
1523614621247,327680,102,-56,-1,-1,0
1523614621247,1048576,102,-56,-1,-1,0
1523614621283,2031616,102,-56,-1,-1,0
1523614621283,2359296,102,-56,-1,-1,0
1523614621283,2228224,102,-56,-1,-1,0
1523614621283,2031616,102,-56,-1,-1,0
1523614621283,1769472,102,-56,-1,-1,0
1523614621322,1703936,102,-56,-1,-1,0
1523614621322,1769472,102,-56,-1,-1,0
1523614621322,1507328,102,-56,-1,-1,0
1523614621322,786432,102,-56,-1,-1,0
1523614621322,458752,102,-56,-1,-1,0
1523614621362,0,102,-56,-1,-1,0
1523614621362,-589824,102,-56,-1,-1,0
1523614621362,-1048576,102,-56,-1,-1,0
1523614621362,-1245184,102,-56,-1,-1,0
1523614621362,-1245184,102,-56,-1,-1,0
1523614621402,-1179648,102,-56,-1,-1,0
1523614621402,-1245184,102,-56,-1,-1,0
1523614621402,-1179648,102,-56,-1,-1,0
1523614621402,-851968,102,-56,-1,-1,0
1523614621402,-786432,102,-56,-1,-1,0
1523614621442,-1114112,102,-56,-1,-1,0
1523614621442,-1179648,102,-56,-1,-1,0
1523614621442,-1048576,102,-56,-1,-1,0
1523614621442,-1114112,102,-56,-1,-1,0
1523614621442,-1114112,102,-56,-1,-1,0
1523614621482,-1048576,102,-56,-1,-1,0
1523614621482,-1114112,102,-56,-1,-1,0
1523614621482,-983040,102,-56,-1,-1,0
1523614621482,-589824,102,-56,-1,-1,0
1523614621482,-458752,102,-56,-1,-1,0
1523614621522,-720896,102,-56,-1,-1,0
1523614621522,-917504,102,-56,-1,-1,0
1523614621522,-983040,102,-56,-1,-1,0
1523614621522,-1310720,102,-56,-1,-1,0
1523614621522,-1376256,102,-56,-1,-1,0
1523614621562,-851968,102,-56,-1,-1,0
1523614621562,-589824,102,-56,-1,-1,0
1523614621562,-655360,102,-56,-1,-1,0
1523614621562,-1179648,102,-56,-1,-1,0
1523614621562,-1769472,102,-56,-1,-1,0
1523614621602,-1966080,102,-56,-1,-1,0
1523614621602,-1376256,102,-56,-1,-1,0
1523614621602,-917504,102,-56,-1,-1,0
1523614621602,-1048576,102,-56,-1,-1,0
1523614621602,-1245184,102,-56,-1,-1,0
1523614621642,-1245184,102,-56,-1,-1,0
1523614621642,-1114112,102,-56,-1,-1,0
1523614621642,-1114112,102,-56,-1,-1,0
1523614621642,-1245184,102,-56,-1,-1,0
1523614621642,-1245184,102,-56,-1,-1,0
1523614621682,-1114112,102,-56,-1,-1,0
1523614621682,-1572864,102,-56,-1,-1,0
1523614621682,-1769472,102,-56,-1,-1,0
1523614621682,786432,102,-56,-1,-1,0
1523614621682,6356992,102,-56,-1,-1,0
1523614621722,9240576,102,-56,-1,-1,0
1523614621722,5373952,102,-56,-1,-1,0
1523614621722,196608,102,-56,-1,-1,0
1523614621722,-1245184,102,-56,-1,-1,0
1523614621722,-983040,102,-56,-1,-1,0
1523614621762,-917504,102,-56,-1,-1,0
1523614621762,-983040,102,-56,-1,-1,0
1523614621762,-1048576,102,-56,-1,-1,0
1523614621762,-917504,102,-56,-1,-1,0
1523614621762,-720896,102,-56,-1,-1,0
1523614621802,-655360,102,-56,-1,-1,0
1523614621802,-655360,102,-56,-1,-1,0
1523614621802,-589824,102,-56,-1,-1,0
1523614621802,-524288,102,-56,-1,-1,0
1523614621802,-458752,102,-56,-1,-1,0
1523614621842,-393216,102,-56,-1,-1,0
1523614621842,-262144,102,-56,-1,-1,0
1523614621842,-131072,102,-56,-1,-1,0
1523614621842,0,102,-56,-1,-1,0
1523614621842,262144,102,-56,-1,-1,0
1523614621887,524288,102,-56,-1,-1,0
1523614621887,917504,102,-56,-1,-1,0
1523614621887,1245184,102,-56,-1,-1,0
1523614621887,1507328,102,-56,-1,-1,0
1523614621887,1703936,102,-56,-1,-1,0
1523614621922,1835008,102,-56,-1,-1,0
1523614621922,1769472,102,-56,-1,-1,0
1523614621922,1638400,102,-56,-1,-1,0
1523614621922,1310720,102,-56,-1,-1,0
1523614621922,917504,102,-56,-1,-1,0
1523614621962,458752,102,-56,-1,-1,0
1523614621962,65536,102,-56,-1,-1,0
1523614621962,-131072,102,-56,-1,-1,0
1523614621962,-327680,102,-56,-1,-1,0
1523614621962,-458752,102,-56,-1,-1,0
1523614622002,-524288,102,-56,-1,-1,0
1523614622002,-524288,102,-56,-1,-1,0
1523614622002,-589824,102,-56,-1,-1,0
1523614622002,-655360,102,-56,-1,-1,0
1523614622002,-589824,102,-56,-1,-1,0
1523614622042,-589824,102,-56,-1,-1,0
1523614622042,-589824,102,-56,-1,-1,0
1523614622042,-655360,102,-56,-1,-1,0
1523614622042,-655360,102,-56,-1,-1,0
1523614622042,-589824,102,-56,-1,-1,0
1523614622082,-589824,102,-56,-1,-1,0
1523614622082,-589824,102,-56,-1,-1,0
1523614622082,-524288,102,-56,-1,-1,0
1523614622082,-524288,102,-56,-1,-1,0
1523614622082,-524288,102,-56,-1,-1,0
1523614622122,-524288,102,-56,-1,-1,0
1523614622122,-589824,102,-56,-1,-1,0
1523614622122,-589824,102,-56,-1,-1,0
1523614622122,-655360,102,-56,-1,-1,0
1523614622122,-720896,102,-56,-1,-1,0
1523614622162,-655360,102,-56,-1,-1,0
1523614622162,-655360,102,-56,-1,-1,0
1523614622162,-720896,102,-56,-1,-1,0
1523614622162,-851968,102,-56,-1,-1,0
1523614622162,-917504,102,-56,-1,-1,0
1523614622202,-983040,102,-56,-1,-1,0
1523614622202,-917504,102,-56,-1,-1,0
1523614622202,-851968,102,-56,-1,-1,0
1523614622202,-851968,102,-56,-1,-1,0
1523614622202,-917504,102,-56,-1,-1,0
1523614622243,-917504,102,-56,-1,-1,0
1523614622243,-851968,102,-56,-1,-1,0
1523614622243,-851968,102,-56,-1,-1,0
1523614622243,-851968,102,-56,-1,-1,0
1523614622243,-851968,102,-56,-1,-1,0
1523614622282,-1048576,102,-56,-1,-1,0
1523614622282,-1376256,102,-56,-1,-1,0
1523614622282,-1114112,102,-56,-1,-1,0
1523614622282,1900544,102,-56,-1,-1,0
1523614622282,6881280,102,-56,-1,-1,0
1523614622322,8519680,102,-56,-1,-1,0
1523614622322,4325376,102,-56,-1,-1,0
1523614622322,-65536,102,-56,-1,-1,0
1523614622322,-1048576,102,-56,-1,-1,0
1523614622322,-786432,102,-56,-1,-1,0
1523614622362,-786432,102,-56,-1,-1,0
1523614622362,-851968,102,-56,-1,-1,0
1523614622362,-786432,102,-56,-1,-1,0
1523614622362,-786432,102,-56,-1,-1,0
1523614622362,-786432,102,-56,-1,-1,0
1523614622402,-720896,102,-56,-1,-1,0
1523614622402,-589824,102,-56,-1,-1,0
1523614622402,-524288,102,-56,-1,-1,0
1523614622402,-458752,102,-56,-1,-1,0
1523614622402,-458752,102,-56,-1,-1,0
1523614622442,-393216,102,-56,-1,-1,0
1523614622442,-327680,102,-56,-1,-1,0
1523614622442,-196608,102,-56,-1,-1,0
1523614622442,0,102,-56,-1,-1,0
1523614622442,262144,102,-56,-1,-1,0
1523614622482,524288,102,-56,-1,-1,0
1523614622482,851968,102,-56,-1,-1,0
1523614622482,1114112,102,-56,-1,-1,0
1523614622482,1310720,102,-56,-1,-1,0
1523614622482,1507328,102,-56,-1,-1,0
1523614622527,1638400,102,-56,-1,-1,0
1523614622527,1572864,102,-56,-1,-1,0
1523614622527,1310720,102,-56,-1,-1,0
1523614622527,983040,102,-56,-1,-1,0
1523614622527,589824,102,-56,-1,-1,0
1523614622562,262144,102,-56,-1,-1,0
1523614622562,0,102,-56,-1,-1,0
1523614622562,-196608,102,-56,-1,-1,0
1523614622562,-327680,102,-56,-1,-1,0
1523614622562,-458752,102,-56,-1,-1,0
1523614622603,-524288,102,-56,-1,-1,0
1523614622603,-524288,102,-56,-1,-1,0
1523614622603,-458752,102,-56,-1,-1,0
1523614622603,-393216,102,-56,-1,-1,0
1523614622603,-458752,102,-56,-1,-1,0
1523614622642,-589824,102,-56,-1,-1,0
1523614622642,-524288,102,-56,-1,-1,0
1523614622642,-524288,102,-56,-1,-1,0
1523614622642,-655360,102,-56,-1,-1,0
1523614622642,-589824,102,-56,-1,-1,0
1523614622682,-524288,102,-56,-1,-1,0
1523614622682,-720896,102,-56,-1,-1,0
1523614622682,-851968,102,-56,-1,-1,0
1523614622682,-786432,102,-56,-1,-1,0
1523614622682,-786432,102,-56,-1,-1,0
1523614622722,-786432,102,-56,-1,-1,0
1523614622722,-786432,102,-56,-1,-1,0
1523614622722,-786432,102,-56,-1,-1,0
1523614622722,-720896,102,-56,-1,-1,0
1523614622722,-655360,102,-56,-1,-1,0
1523614622762,-458752,102,-56,-1,-1,0
1523614622762,-393216,102,-56,-1,-1,0
1523614622762,-589824,102,-56,-1,-1,0
1523614622762,-720896,102,-56,-1,-1,0
1523614622762,-851968,102,-56,-1,-1,0
1523614622802,-917504,102,-56,-1,-1,0
1523614622802,-1048576,102,-56,-1,-1,0
1523614622802,-983040,102,-56,-1,-1,0
1523614622802,-851968,102,-56,-1,-1,0
1523614622802,-720896,102,-56,-1,-1,0
1523614622842,-524288,102,-56,-1,-1,0
1523614622842,-393216,102,-56,-1,-1,0
1523614622842,-589824,102,-56,-1,-1,0
1523614622842,-917504,102,-56,-1,-1,0
1523614622842,-1048576,102,-56,-1,-1,0
1523614622883,-1114112,102,-56,-1,-1,0
1523614622883,-1048576,102,-56,-1,-1,0
1523614622883,262144,102,-56,-1,-1,0
1523614622883,4718592,102,-56,-1,-1,0
1523614622883,8847360,102,-56,-1,-1,0
1523614622922,6488064,102,-56,-1,-1,0
1523614622922,1441792,102,-56,-1,-1,0
1523614622922,-393216,102,-56,-1,-1,0
1523614622922,65536,102,-56,-1,-1,0
1523614622922,-458752,102,-56,-1,-1,0
1523614622962,-1310720,102,-56,-1,-1,0
1523614622962,-1310720,102,-56,-1,-1,0
1523614622962,-851968,102,-56,-1,-1,0
1523614622962,-458752,102,-56,-1,-1,0
1523614622962,-393216,102,-56,-1,-1,0
1523614623002,-458752,102,-56,-1,-1,0
1523614623002,-524288,102,-56,-1,-1,0
1523614623002,-458752,102,-56,-1,-1,0
1523614623002,-65536,102,-56,-1,-1,0
1523614623002,327680,102,-56,-1,-1,0
1523614623042,458752,102,-56,-1,-1,0
1523614623042,0,102,-56,-1,-1,0
1523614623042,-458752,102,-56,-1,-1,0
1523614623042,-589824,102,-56,-1,-1,0
1523614623042,0,102,-56,-1,-1,0
1523614623082,655360,102,-56,-1,-1,0
1523614623082,1114112,102,-56,-1,-1,0
1523614623082,1376256,102,-56,-1,-1,0
1523614623082,1638400,102,-56,-1,-1,0
1523614623082,1703936,102,-56,-1,-1,0
1523614623122,1703936,102,-56,-1,-1,0
1523614623122,1572864,102,-56,-1,-1,0
1523614623122,1376256,102,-56,-1,-1,0
1523614623122,983040,102,-56,-1,-1,0
1523614623122,589824,102,-56,-1,-1,0
1523614623167,196608,102,-56,-1,-1,0
1523614623167,0,102,-56,-1,-1,0
1523614623167,-196608,102,-56,-1,-1,0
1523614623167,-327680,102,-56,-1,-1,0
1523614623167,-458752,102,-56,-1,-1,0
1523614623202,-458752,102,-56,-1,-1,0
1523614623202,-327680,102,-56,-1,-1,0
1523614623202,-327680,102,-56,-1,-1,0
1523614623202,-589824,102,-56,-1,-1,0
1523614623202,-655360,102,-56,-1,-1,0
1523614623242,-655360,102,-56,-1,-1,0
1523614623242,-524288,102,-56,-1,-1,0
1523614623242,-524288,102,-56,-1,-1,0
1523614623242,-524288,102,-56,-1,-1,0
1523614623242,-524288,102,-56,-1,-1,0
1523614623282,-524288,102,-56,-1,-1,0
1523614623282,-524288,102,-56,-1,-1,0
1523614623282,-524288,102,-56,-1,-1,0
1523614623282,-458752,102,-56,-1,-1,0
1523614623282,-524288,102,-56,-1,-1,0
1523614623323,-458752,102,-56,-1,-1,0
1523614623323,-458752,102,-56,-1,-1,0
1523614623323,-458752,102,-56,-1,-1,0
1523614623323,-524288,102,-56,-1,-1,0
1523614623323,-589824,102,-56,-1,-1,0
1523614623362,-589824,102,-56,-1,-1,0
1523614623362,-655360,102,-56,-1,-1,0
1523614623362,-655360,102,-56,-1,-1,0
1523614623362,-655360,102,-56,-1,-1,0
1523614623362,-589824,102,-56,-1,-1,0
1523614623402,-524288,102,-56,-1,-1,0
1523614623402,-524288,102,-56,-1,-1,0
1523614623402,-524288,102,-56,-1,-1,0
1523614623402,-589824,102,-56,-1,-1,0
1523614623402,-589824,102,-56,-1,-1,0
1523614623442,-589824,102,-56,-1,-1,0
1523614623442,-589824,102,-56,-1,-1,0
1523614623442,-589824,102,-56,-1,-1,0
1523614623442,-851968,102,-56,-1,-1,0
1523614623442,-1048576,102,-56,-1,-1,0
1523614623482,393216,102,-56,-1,-1,0
1523614623482,5111808,102,-56,-1,-1,0
1523614623482,9371648,102,-56,-1,-1,0
1523614623482,7143424,102,-56,-1,-1,0
1523614623482,1703936,102,-56,-1,-1,0
1523614623523,-917504,102,-56,-1,-1,0
1523614623523,-655360,102,-56,-1,-1,0
1523614623523,-458752,102,-56,-1,-1,0
1523614623523,-524288,102,-56,-1,-1,0
1523614623523,-458752,102,-56,-1,-1,0
1523614623562,-458752,102,-56,-1,-1,0
1523614623562,-393216,102,-56,-1,-1,0
1523614623562,-393216,102,-56,-1,-1,0
1523614623562,-327680,102,-56,-1,-1,0
1523614623562,-262144,102,-56,-1,-1,0
1523614623602,-196608,102,-56,-1,-1,0
1523614623602,-131072,102,-56,-1,-1,0
1523614623602,-65536,102,-56,-1,-1,0
1523614623602,0,102,-56,-1,-1,0
1523614623602,131072,102,-56,-1,-1,0
1523614623642,327680,102,-56,-1,-1,0
1523614623642,524288,102,-56,-1,-1,0
1523614623642,851968,102,-56,-1,-1,0
1523614623642,1179648,102,-56,-1,-1,0
1523614623642,1507328,102,-56,-1,-1,0
1523614623682,1703936,102,-56,-1,-1,0
1523614623682,1900544,102,-56,-1,-1,0
1523614623682,1966080,102,-56,-1,-1,0
1523614623682,1966080,102,-56,-1,-1,0
1523614623682,1769472,102,-56,-1,-1,0
1523614623722,1507328,102,-56,-1,-1,0
1523614623722,1114112,102,-56,-1,-1,0
1523614623722,720896,102,-56,-1,-1,0
1523614623722,327680,102,-56,-1,-1,0
1523614623722,65536,102,-56,-1,-1,0
1523614623762,-131072,102,-56,-1,-1,0
1523614623762,-262144,102,-56,-1,-1,0
1523614623762,-393216,102,-56,-1,-1,0
1523614623762,-458752,102,-56,-1,-1,0
1523614623762,-458752,102,-56,-1,-1,0
1523614623807,-458752,102,-56,-1,-1,0
1523614623807,-458752,102,-56,-1,-1,0
1523614623807,-458752,102,-56,-1,-1,0
1523614623807,-524288,102,-56,-1,-1,0
1523614623807,-458752,102,-56,-1,-1,0
1523614623842,-458752,102,-56,-1,-1,0
1523614623842,-393216,102,-56,-1,-1,0
1523614623842,-393216,102,-56,-1,-1,0
1523614623842,-327680,102,-56,-1,-1,0
1523614623842,-262144,102,-56,-1,-1,0
1523614623882,-262144,102,-56,-1,-1,0
1523614623882,-262144,102,-56,-1,-1,0
1523614623882,-327680,102,-56,-1,-1,0
1523614623882,-327680,102,-56,-1,-1,0
1523614623882,-393216,102,-56,-1,-1,0
1523614623922,-393216,102,-56,-1,-1,0
1523614623922,-458752,102,-56,-1,-1,0
1523614623922,-524288,102,-56,-1,-1,0
1523614623922,-524288,102,-56,-1,-1,0
1523614623922,-589824,102,-56,-1,-1,0
1523614623962,-589824,102,-56,-1,-1,0
1523614623962,-524288,102,-56,-1,-1,0
1523614623962,-458752,102,-56,-1,-1,0
1523614623962,-458752,102,-56,-1,-1,0
1523614623962,-524288,102,-56,-1,-1,0
1523614624002,-589824,102,-56,-1,-1,0
1523614624002,-589824,102,-56,-1,-1,0
1523614624002,-524288,102,-56,-1,-1,0
1523614624002,-524288,102,-56,-1,-1,0
1523614624002,-524288,102,-56,-1,-1,0
1523614624042,-589824,102,-56,-1,-1,0
1523614624042,-917504,102,-56,-1,-1,0
1523614624042,-917504,102,-56,-1,-1,0
1523614624042,1572864,102,-56,-1,-1,0
1523614624042,6881280,102,-56,-1,-1,0
1523614624082,9306112,102,-56,-1,-1,0
1523614624082,5242880,102,-56,-1,-1,0
1523614624082,65536,102,-56,-1,-1,0
1523614624082,-1048576,102,-56,-1,-1,0
1523614624082,-655360,102,-56,-1,-1,0
1523614624122,-589824,102,-56,-1,-1,0
1523614624122,-655360,102,-56,-1,-1,0
1523614624122,-655360,102,-56,-1,-1,0
1523614624122,-655360,102,-56,-1,-1,0
1523614624122,-589824,102,-56,-1,-1,0
1523614624162,-524288,102,-56,-1,-1,0
1523614624162,-458752,102,-56,-1,-1,0
1523614624162,-458752,102,-56,-1,-1,0
1523614624162,-393216,102,-56,-1,-1,0
1523614624162,-327680,102,-56,-1,-1,0
1523614624202,-196608,102,-56,-1,-1,0
1523614624202,-131072,102,-56,-1,-1,0
1523614624202,0,102,-56,-1,-1,0
1523614624202,131072,102,-56,-1,-1,0
1523614624202,393216,102,-56,-1,-1,0
1523614624242,720896,102,-56,-1,-1,0
1523614624242,1048576,102,-56,-1,-1,0
1523614624242,1376256,102,-56,-1,-1,0
1523614624242,1638400,102,-56,-1,-1,0
1523614624242,1769472,102,-56,-1,-1,0
1523614624282,1769472,102,-56,-1,-1,0
1523614624282,1703936,102,-56,-1,-1,0
1523614624282,1572864,102,-56,-1,-1,0
1523614624282,1310720,102,-56,-1,-1,0
1523614624282,917504,102,-56,-1,-1,0
1523614624325,524288,102,-56,-1,-1,0
1523614624325,131072,102,-56,-1,-1,0
1523614624325,-131072,102,-56,-1,-1,0
1523614624325,-393216,102,-56,-1,-1,0
1523614624325,-524288,102,-56,-1,-1,0
1523614624362,-655360,102,-56,-1,-1,0
1523614624362,-720896,102,-56,-1,-1,0
1523614624362,-786432,102,-56,-1,-1,0
1523614624362,-786432,102,-56,-1,-1,0
1523614624362,-786432,102,-56,-1,-1,0
1523614624402,-720896,102,-56,-1,-1,0
1523614624402,-720896,102,-56,-1,-1,0
1523614624402,-720896,102,-56,-1,-1,0
1523614624402,-720896,102,-56,-1,-1,0
1523614624402,-720896,102,-56,-1,-1,0
1523614624447,-720896,102,-56,-1,-1,0
1523614624447,-786432,102,-56,-1,-1,0
1523614624447,-720896,102,-56,-1,-1,0
1523614624447,-786432,102,-56,-1,-1,0
1523614624447,-786432,102,-56,-1,-1,0
1523614624482,-851968,103,-56,-1,-1,0
1523614624482,-851968,103,-56,-1,-1,0
1523614624482,-983040,103,-56,-1,-1,0
1523614624482,-1048576,103,-56,-1,-1,0
1523614624482,-1048576,103,-56,-1,-1,0
1523614624522,-1114112,103,-56,-1,-1,0
1523614624522,-1179648,103,-56,-1,-1,0
1523614624522,-1310720,103,-56,-1,-1,0
1523614624522,-1310720,103,-56,-1,-1,0
1523614624522,-1245184,103,-56,-1,-1,0
1523614624562,-1179648,103,-56,-1,-1,0
1523614624562,-1114112,103,-56,-1,-1,0
1523614624562,-1179648,103,-56,-1,-1,0
1523614624562,-1245184,103,-56,-1,-1,0
1523614624562,-1310720,103,-56,-1,-1,0
1523614624602,-1310720,103,-56,-1,-1,0
1523614624602,-1310720,103,-56,-1,-1,0
1523614624602,-1245184,103,-56,-1,-1,0
1523614624602,-1441792,103,-56,-1,-1,0
1523614624602,-1703936,103,-56,-1,-1,0
1523614624642,-786432,103,-56,-1,-1,0
1523614624642,3211264,103,-56,-1,-1,0
1523614624642,7995392,103,-56,-1,-1,0
1523614624642,6881280,103,-56,-1,-1,0
1523614624642,1441792,103,-56,-1,-1,0
1523614624682,-2097152,103,-56,-1,-1,0
1523614624682,-1769472,103,-56,-1,-1,0
1523614624682,-1310720,103,-56,-1,-1,0
1523614624682,-1245184,103,-56,-1,-1,0
1523614624682,-1179648,103,-56,-1,-1,0
1523614624722,-1179648,103,-56,-1,-1,0
1523614624722,-1114112,103,-56,-1,-1,0
1523614624722,-1048576,103,-56,-1,-1,0
1523614624722,-917504,103,-56,-1,-1,0
1523614624722,-917504,103,-56,-1,-1,0
1523614624762,-851968,103,-56,-1,-1,0
1523614624762,-720896,103,-56,-1,-1,0
1523614624762,-655360,103,-56,-1,-1,0
1523614624762,-524288,103,-56,-1,-1,0
1523614624762,-327680,103,-56,-1,-1,0
1523614624802,-65536,103,-56,-1,-1,0
1523614624802,131072,103,-56,-1,-1,0
1523614624802,458752,103,-56,-1,-1,0
1523614624802,786432,103,-56,-1,-1,0
1523614624802,1114112,103,-56,-1,-1,0
1523614624843,1376256,103,-56,-1,-1,0
1523614624843,1572864,103,-56,-1,-1,0
1523614624843,1703936,103,-56,-1,-1,0
1523614624843,1703936,103,-56,-1,-1,0
1523614624843,1507328,103,-56,-1,-1,0
1523614624882,1179648,103,-56,-1,-1,0
1523614624882,786432,103,-56,-1,-1,0
1523614624882,393216,103,-56,-1,-1,0
1523614624882,0,103,-56,-1,-1,0
1523614624882,-327680,103,-56,-1,-1,0
1523614624922,-589824,103,-56,-1,-1,0
1523614624922,-786432,103,-56,-1,-1,0
1523614624922,-983040,103,-56,-1,-1,0
1523614624922,-1114112,103,-56,-1,-1,0
1523614624922,-1114112,103,-56,-1,-1,0
1523614624962,-1048576,103,-56,-1,-1,0
1523614624962,-983040,103,-56,-1,-1,0
1523614624962,-917504,103,-56,-1,-1,0
1523614624962,-917504,103,-56,-1,-1,0
1523614624962,-851968,103,-56,-1,-1,0
1523614625002,-851968,103,-56,-1,-1,0
1523614625002,-786432,103,-56,-1,-1,0
1523614625002,-720896,103,-56,-1,-1,0
1523614625002,-655360,103,-56,-1,-1,0
1523614625002,-589824,103,-56,-1,-1,0
1523614625042,-589824,103,-56,-1,-1,0
1523614625042,-589824,103,-56,-1,-1,0
1523614625042,-655360,103,-56,-1,-1,0
1523614625042,-655360,103,-56,-1,-1,0
1523614625042,-786432,103,-56,-1,-1,0
1523614625087,-786432,103,-56,-1,-1,0
1523614625087,-851968,103,-56,-1,-1,0
1523614625087,-851968,103,-56,-1,-1,0
1523614625087,-851968,103,-56,-1,-1,0
1523614625087,-851968,103,-56,-1,-1,0
1523614625122,-786432,103,-56,-1,-1,0
1523614625122,-786432,103,-56,-1,-1,0
1523614625122,-786432,103,-56,-1,-1,0
1523614625122,-917504,103,-56,-1,-1,0
1523614625122,-917504,103,-56,-1,-1,0
1523614625162,-917504,103,-56,-1,-1,0
1523614625162,-851968,103,-56,-1,-1,0
1523614625162,-851968,103,-56,-1,-1,0
1523614625162,-851968,103,-56,-1,-1,0
1523614625162,-851968,103,-56,-1,-1,0
1523614625202,-1114112,103,-56,-1,-1,0
1523614625202,-1245184,103,-56,-1,-1,0
1523614625202,589824,103,-56,-1,-1,0
1523614625202,5439488,103,-56,-1,-1,0
1523614625202,9043968,103,-56,-1,-1,0
1523614625244,5898240,103,-56,-1,-1,0
1523614625244,458752,103,-56,-1,-1,0
1523614625244,-1507328,103,-56,-1,-1,0
1523614625244,-1048576,103,-56,-1,-1,0
1523614625244,-786432,103,-56,-1,-1,0
1523614625282,-786432,103,-56,-1,-1,0
1523614625282,-720896,103,-56,-1,-1,0
1523614625282,-720896,103,-56,-1,-1,0
1523614625282,-655360,103,-56,-1,-1,0
1523614625282,-589824,103,-56,-1,-1,0
1523614625322,-458752,103,-56,-1,-1,0
1523614625322,-393216,103,-56,-1,-1,0
1523614625322,-327680,103,-56,-1,-1,0
1523614625322,-262144,103,-56,-1,-1,0
1523614625322,-131072,103,-56,-1,-1,0
1523614625362,0,103,-56,-1,-1,0
1523614625362,131072,103,-56,-1,-1,0
1523614625362,327680,103,-56,-1,-1,0
1523614625362,589824,103,-56,-1,-1,0
1523614625362,917504,103,-56,-1,-1,0
1523614625403,1245184,103,-56,-1,-1,0
1523614625403,1572864,103,-56,-1,-1,0
1523614625403,1835008,103,-56,-1,-1,0
1523614625403,2031616,103,-56,-1,-1,0
1523614625403,2031616,103,-56,-1,-1,0
1523614625442,1966080,103,-56,-1,-1,0
1523614625442,1769472,103,-56,-1,-1,0
1523614625442,1507328,103,-56,-1,-1,0
1523614625442,1048576,103,-56,-1,-1,0
1523614625442,655360,103,-56,-1,-1,0
1523614625482,262144,103,-56,-1,-1,0
1523614625482,0,103,-56,-1,-1,0
1523614625482,-196608,103,-56,-1,-1,0
1523614625482,-327680,103,-56,-1,-1,0
1523614625482,-458752,103,-56,-1,-1,0
1523614625522,-524288,103,-56,-1,-1,0
1523614625522,-589824,103,-56,-1,-1,0
1523614625522,-589824,103,-56,-1,-1,0
1523614625522,-589824,103,-56,-1,-1,0
1523614625522,-524288,103,-56,-1,-1,0
1523614625562,-524288,103,-56,-1,-1,0
1523614625562,-524288,103,-56,-1,-1,0
1523614625562,-458752,103,-56,-1,-1,0
1523614625562,-393216,103,-56,-1,-1,0
1523614625562,-327680,103,-56,-1,-1,0
1523614625602,-262144,103,-56,-1,-1,0
1523614625602,-262144,103,-56,-1,-1,0
1523614625602,-327680,103,-56,-1,-1,0
1523614625602,-327680,103,-56,-1,-1,0
1523614625602,-327680,103,-56,-1,-1,0
1523614625642,-327680,103,-56,-1,-1,0
1523614625642,-393216,103,-56,-1,-1,0
1523614625642,-458752,103,-56,-1,-1,0
1523614625642,-524288,103,-56,-1,-1,0
1523614625642,-589824,103,-56,-1,-1,0
1523614625682,-655360,103,-56,-1,-1,0
1523614625682,-655360,103,-56,-1,-1,0
1523614625682,-655360,103,-56,-1,-1,0
1523614625682,-524288,103,-56,-1,-1,0
1523614625682,-458752,103,-56,-1,-1,0
1523614625727,-458752,103,-56,-1,-1,0
1523614625727,-524288,103,-56,-1,-1,0
1523614625727,-524288,103,-56,-1,-1,0
1523614625727,-524288,103,-56,-1,-1,0
1523614625727,-524288,103,-56,-1,-1,0
1523614625762,-524288,103,-56,-1,-1,0
1523614625762,-524288,103,-56,-1,-1,0
1523614625762,-786432,103,-56,-1,-1,0
1523614625762,-1048576,103,-56,-1,-1,0
1523614625762,0,103,-56,-1,-1,0
1523614625802,4194304,103,-56,-1,-1,0
1523614625802,9175040,103,-56,-1,-1,0
1523614625802,8060928,103,-56,-1,-1,0
1523614625802,2621440,103,-56,-1,-1,0
1523614625802,-983040,103,-56,-1,-1,0
1523614625842,-917504,103,-56,-1,-1,0
1523614625842,-655360,103,-56,-1,-1,0
1523614625842,-655360,103,-56,-1,-1,0
1523614625842,-655360,103,-56,-1,-1,0
1523614625842,-655360,103,-56,-1,-1,0
1523614625882,-524288,103,-56,-1,-1,0
1523614625882,-524288,103,-56,-1,-1,0
1523614625882,-458752,103,-56,-1,-1,0
1523614625882,-458752,103,-56,-1,-1,0
1523614625882,-393216,103,-56,-1,-1,0
1523614625922,-327680,103,-56,-1,-1,0
1523614625922,-262144,103,-56,-1,-1,0
1523614625922,-131072,103,-56,-1,-1,0
1523614625922,0,103,-56,-1,-1,0
1523614625922,131072,103,-56,-1,-1,0
1523614625962,393216,103,-56,-1,-1,0
1523614625962,720896,103,-56,-1,-1,0
1523614625962,1048576,103,-56,-1,-1,0
1523614625962,1376256,103,-56,-1,-1,0
1523614625962,1638400,103,-56,-1,-1,0
1523614626002,1900544,103,-56,-1,-1,0
1523614626002,1966080,103,-56,-1,-1,0
1523614626002,2031616,103,-56,-1,-1,0
1523614626002,1835008,103,-56,-1,-1,0
1523614626002,1572864,103,-56,-1,-1,0
1523614626042,1245184,103,-56,-1,-1,0
1523614626042,851968,103,-56,-1,-1,0
1523614626042,458752,103,-56,-1,-1,0
1523614626042,131072,103,-56,-1,-1,0
1523614626042,0,103,-56,-1,-1,0
1523614626082,-131072,103,-56,-1,-1,0
1523614626082,-262144,103,-56,-1,-1,0
1523614626082,-327680,103,-56,-1,-1,0
1523614626082,-327680,103,-56,-1,-1,0
1523614626082,-327680,103,-56,-1,-1,0
1523614626122,-327680,103,-56,-1,-1,0
1523614626122,-327680,103,-56,-1,-1,0
1523614626122,-327680,103,-56,-1,-1,0
1523614626122,-327680,103,-56,-1,-1,0
1523614626122,-262144,103,-56,-1,-1,0
1523614626162,-262144,103,-56,-1,-1,0
1523614626162,-196608,103,-56,-1,-1,0
1523614626162,-196608,103,-56,-1,-1,0
1523614626162,-196608,103,-56,-1,-1,0
1523614626162,-196608,103,-56,-1,-1,0
1523614626202,-131072,103,-56,-1,-1,0
1523614626202,-196608,103,-56,-1,-1,0
1523614626202,-196608,103,-56,-1,-1,0
1523614626202,-262144,103,-56,-1,-1,0
1523614626202,-262144,103,-56,-1,-1,0
1523614626242,-327680,103,-56,-1,-1,0
1523614626242,-327680,103,-56,-1,-1,0
1523614626242,-393216,103,-56,-1,-1,0
1523614626242,-458752,103,-56,-1,-1,0
1523614626242,-524288,103,-56,-1,-1,0
1523614626282,-524288,103,-56,-1,-1,0
1523614626282,-524288,103,-56,-1,-1,0
1523614626282,-458752,103,-56,-1,-1,0
1523614626282,-393216,103,-56,-1,-1,0
1523614626282,-393216,103,-56,-1,-1,0
1523614626322,-327680,103,-56,-1,-1,0
1523614626322,-327680,103,-56,-1,-1,0
1523614626322,-327680,103,-56,-1,-1,0
1523614626322,-327680,103,-56,-1,-1,0
1523614626322,-327680,103,-56,-1,-1,0
1523614626367,-393216,103,-56,-1,-1,0
1523614626367,-655360,103,-56,-1,-1,0
1523614626367,-917504,103,-56,-1,-1,0
1523614626367,131072,103,-56,-1,-1,0
1523614626367,4587520,103,-56,-1,-1,0
1523614626402,9633792,103,-56,-1,-1,0
1523614626402,8585216,103,-56,-1,-1,0
1523614626402,3080192,103,-56,-1,-1,0
1523614626402,-589824,103,-56,-1,-1,0
1523614626402,-589824,103,-56,-1,-1,0
1523614626442,-327680,103,-56,-1,-1,0
1523614626442,-327680,103,-56,-1,-1,0
1523614626442,-327680,103,-56,-1,-1,0
1523614626442,-393216,103,-56,-1,-1,0
1523614626442,-262144,103,-56,-1,-1,0
1523614626482,-196608,103,-56,-1,-1,0
1523614626482,-131072,103,-56,-1,-1,0
1523614626482,-131072,103,-56,-1,-1,0
1523614626482,-65536,103,-56,-1,-1,0
1523614626482,0,103,-56,-1,-1,0
1523614626522,65536,103,-56,-1,-1,0
1523614626522,131072,103,-56,-1,-1,0
1523614626522,262144,103,-56,-1,-1,0
1523614626522,458752,103,-56,-1,-1,0
1523614626522,655360,103,-56,-1,-1,0
1523614626562,917504,103,-56,-1,-1,0
1523614626562,1245184,103,-56,-1,-1,0
1523614626562,1703936,103,-56,-1,-1,0
1523614626562,1966080,103,-56,-1,-1,0
1523614626562,2162688,103,-56,-1,-1,0
1523614626602,2293760,103,-56,-1,-1,0
1523614626602,2293760,103,-56,-1,-1,0
1523614626602,2162688,103,-56,-1,-1,0
1523614626602,1900544,103,-56,-1,-1,0
1523614626602,1507328,103,-56,-1,-1,0
1523614626642,1114112,103,-56,-1,-1,0
1523614626642,655360,103,-56,-1,-1,0
1523614626642,327680,103,-56,-1,-1,0
1523614626642,65536,103,-56,-1,-1,0
1523614626642,-65536,103,-56,-1,-1,0
1523614626682,-262144,103,-56,-1,-1,0
1523614626682,-327680,103,-56,-1,-1,0
1523614626682,-327680,103,-56,-1,-1,0
1523614626682,-393216,103,-56,-1,-1,0
1523614626682,-458752,103,-56,-1,-1,0
1523614626722,-524288,103,-56,-1,-1,0
1523614626722,-524288,103,-56,-1,-1,0
1523614626722,-458752,103,-56,-1,-1,0
1523614626722,-458752,103,-56,-1,-1,0
1523614626722,-393216,103,-56,-1,-1,0
1523614626762,-393216,103,-56,-1,-1,0
1523614626762,-327680,103,-56,-1,-1,0
1523614626762,-327680,103,-56,-1,-1,0
1523614626762,-327680,103,-56,-1,-1,0
1523614626762,-327680,103,-56,-1,-1,0
1523614626803,-327680,103,-56,-1,-1,0
1523614626803,-393216,103,-56,-1,-1,0
1523614626803,-458752,103,-56,-1,-1,0
1523614626803,-524288,103,-56,-1,-1,0
1523614626803,-589824,103,-56,-1,-1,0
1523614626842,-589824,103,-56,-1,-1,0
1523614626842,-655360,103,-56,-1,-1,0
1523614626842,-655360,103,-56,-1,-1,0
1523614626842,-786432,103,-56,-1,-1,0
1523614626842,-851968,103,-56,-1,-1,0
1523614626882,-851968,102,-56,-1,-1,0
1523614626882,-917504,102,-56,-1,-1,0
1523614626882,-851968,102,-56,-1,-1,0
1523614626882,-786432,102,-56,-1,-1,0
1523614626882,-786432,102,-56,-1,-1,0
1523614626922,-851968,102,-56,-1,-1,0
1523614626922,-917504,102,-56,-1,-1,0
1523614626922,-917504,102,-56,-1,-1,0
1523614626922,-983040,102,-56,-1,-1,0
1523614626922,-983040,102,-56,-1,-1,0
1523614626962,-983040,102,-56,-1,-1,0
1523614626962,-1114112,102,-56,-1,-1,0
1523614626962,-1507328,102,-56,-1,-1,0
1523614626962,-1179648,102,-56,-1,-1,0
1523614626962,1966080,102,-56,-1,-1,0
1523614627007,7340032,102,-56,-1,-1,0
1523614627007,8781824,102,-56,-1,-1,0
1523614627007,3932160,102,-56,-1,-1,0
1523614627007,-983040,102,-56,-1,-1,0
1523614627007,-1572864,102,-56,-1,-1,0
1523614627042,-1179648,102,-56,-1,-1,0
1523614627042,-1114112,102,-56,-1,-1,0
1523614627042,-1114112,102,-56,-1,-1,0
1523614627042,-1048576,102,-56,-1,-1,0
1523614627042,-983040,102,-56,-1,-1,0
1523614627082,-917504,102,-56,-1,-1,0
1523614627082,-917504,102,-56,-1,-1,0
1523614627082,-851968,102,-56,-1,-1,0
1523614627082,-851968,102,-56,-1,-1,0
1523614627082,-720896,102,-56,-1,-1,0
1523614627122,-655360,102,-56,-1,-1,0
1523614627122,-458752,102,-56,-1,-1,0
1523614627122,-393216,102,-56,-1,-1,0
1523614627122,-196608,102,-56,-1,-1,0
1523614627122,0,102,-56,-1,-1,0
1523614627162,262144,102,-56,-1,-1,0
1523614627162,524288,102,-56,-1,-1,0
1523614627162,851968,102,-56,-1,-1,0
1523614627162,1179648,102,-56,-1,-1,0
1523614627162,1441792,102,-56,-1,-1,0
1523614627202,1572864,102,-56,-1,-1,0
1523614627202,1572864,102,-56,-1,-1,0
1523614627202,1441792,102,-56,-1,-1,0
1523614627202,1245184,102,-56,-1,-1,0
1523614627202,851968,102,-56,-1,-1,0
1523614627242,393216,102,-56,-1,-1,0
1523614627242,0,102,-56,-1,-1,0
1523614627242,-393216,102,-56,-1,-1,0
1523614627242,-589824,102,-56,-1,-1,0
1523614627242,-851968,102,-56,-1,-1,0
1523614627282,-983040,102,-56,-1,-1,0
1523614627282,-1179648,102,-56,-1,-1,0
1523614627282,-1245184,102,-56,-1,-1,0
1523614627282,-1245184,102,-56,-1,-1,0
1523614627282,-1310720,102,-56,-1,-1,0
1523614627322,-1376256,102,-56,-1,-1,0
1523614627322,-1310720,102,-56,-1,-1,0
1523614627322,-1310720,102,-56,-1,-1,0
1523614627322,-1245184,102,-56,-1,-1,0
1523614627322,-1245184,102,-56,-1,-1,0
1523614627362,-1179648,102,-56,-1,-1,0
1523614627362,-1179648,102,-56,-1,-1,0
1523614627362,-1114112,102,-56,-1,-1,0
1523614627362,-1114112,102,-56,-1,-1,0
1523614627362,-1048576,102,-56,-1,-1,0
1523614627402,-1114112,102,-56,-1,-1,0
1523614627402,-1179648,102,-56,-1,-1,0
1523614627402,-1179648,102,-56,-1,-1,0
1523614627402,-1245184,102,-56,-1,-1,0
1523614627402,-1245184,102,-56,-1,-1,0
1523614627442,-1245184,102,-56,-1,-1,0
1523614627442,-1245184,102,-56,-1,-1,0
1523614627442,-1310720,102,-56,-1,-1,0
1523614627442,-1376256,102,-56,-1,-1,0
1523614627442,-1376256,102,-56,-1,-1,0
1523614627482,-1441792,102,-56,-1,-1,0
1523614627482,-1507328,102,-56,-1,-1,0
1523614627482,-1507328,102,-56,-1,-1,0
1523614627482,-1441792,102,-56,-1,-1,0
1523614627482,-1376256,102,-56,-1,-1,0
1523614627522,-1376256,102,-56,-1,-1,0
1523614627522,-1441792,102,-56,-1,-1,0
1523614627522,-1441792,102,-56,-1,-1,0
1523614627522,-1441792,102,-56,-1,-1,0
1523614627522,-1376256,102,-56,-1,-1,0
1523614627562,-1310720,102,-56,-1,-1,0
1523614627562,-1310720,102,-56,-1,-1,0
1523614627562,-1507328,102,-56,-1,-1,0
1523614627562,-1835008,102,-56,-1,-1,0
1523614627562,-1310720,102,-56,-1,-1,0
1523614627602,2031616,102,-56,-1,-1,0
1523614627602,7471104,102,-56,-1,-1,0
1523614627602,8519680,102,-56,-1,-1,0
1523614627602,3538944,102,-56,-1,-1,0
1523614627602,-1245184,102,-56,-1,-1,0
1523614627647,-1703936,102,-56,-1,-1,0
1523614627647,-1245184,102,-56,-1,-1,0
1523614627647,-1179648,102,-56,-1,-1,0
1523614627647,-1179648,102,-56,-1,-1,0
1523614627647,-1114112,102,-56,-1,-1,0
1523614627682,-1114112,102,-56,-1,-1,0
1523614627682,-1114112,102,-56,-1,-1,0
1523614627682,-1048576,102,-56,-1,-1,0
1523614627682,-983040,102,-56,-1,-1,0
1523614627682,-917504,102,-56,-1,-1,0
1523614627722,-851968,102,-56,-1,-1,0
1523614627722,-786432,102,-56,-1,-1,0
1523614627722,-655360,102,-56,-1,-1,0
1523614627722,-524288,102,-56,-1,-1,0
1523614627722,-262144,102,-56,-1,-1,0
1523614627762,-131072,102,-56,-1,-1,0
1523614627762,131072,102,-56,-1,-1,0
1523614627762,458752,102,-56,-1,-1,0
1523614627762,917504,102,-56,-1,-1,0
1523614627762,1179648,102,-56,-1,-1,0
1523614627802,1441792,102,-56,-1,-1,0
1523614627802,1572864,102,-56,-1,-1,0
1523614627802,1638400,102,-56,-1,-1,0
1523614627802,1572864,102,-56,-1,-1,0
1523614627802,1441792,102,-56,-1,-1,0
1523614627842,1114112,102,-56,-1,-1,0
1523614627842,720896,102,-56,-1,-1,0
1523614627842,327680,102,-56,-1,-1,0
1523614627842,0,102,-56,-1,-1,0
1523614627842,-196608,102,-56,-1,-1,0
1523614627882,-458752,102,-56,-1,-1,0
1523614627882,-589824,102,-56,-1,-1,0
1523614627882,-720896,102,-56,-1,-1,0
1523614627882,-720896,102,-56,-1,-1,0
1523614627882,-786432,102,-56,-1,-1,0
1523614627922,-851968,102,-56,-1,-1,0
1523614627922,-851968,102,-56,-1,-1,0
1523614627922,-851968,102,-56,-1,-1,0
1523614627922,-786432,102,-56,-1,-1,0
1523614627922,-720896,102,-56,-1,-1,0
1523614627962,-655360,102,-56,-1,-1,0
1523614627962,-589824,102,-56,-1,-1,0
1523614627962,-589824,102,-56,-1,-1,0
1523614627962,-524288,102,-56,-1,-1,0
1523614627962,-524288,102,-56,-1,-1,0
1523614628003,-524288,102,-56,-1,-1,0
1523614628003,-524288,102,-56,-1,-1,0
1523614628003,-524288,102,-56,-1,-1,0
1523614628003,-589824,102,-56,-1,-1,0
1523614628003,-589824,102,-56,-1,-1,0
1523614628043,-589824,102,-56,-1,-1,0
1523614628043,-524288,102,-56,-1,-1,0
1523614628043,-589824,102,-56,-1,-1,0
1523614628043,-655360,102,-56,-1,-1,0
1523614628043,-720896,102,-56,-1,-1,0
1523614628082,-720896,102,-56,-1,-1,0
1523614628082,-786432,102,-56,-1,-1,0
1523614628082,-786432,102,-56,-1,-1,0
1523614628082,-917504,102,-56,-1,-1,0
1523614628082,-983040,102,-56,-1,-1,0
1523614628122,-1048576,102,-56,-1,-1,0
1523614628122,-917504,102,-56,-1,-1,0
1523614628122,-786432,102,-56,-1,-1,0
1523614628122,-720896,102,-56,-1,-1,0
1523614628122,-786432,102,-56,-1,-1,0
1523614628162,-851968,101,-56,-1,-1,0
1523614628162,-851968,101,-56,-1,-1,0
1523614628162,-786432,101,-56,-1,-1,0
1523614628162,-786432,101,-56,-1,-1,0
1523614628162,-786432,101,-56,-1,-1,0
1523614628202,-917504,101,-56,-1,-1,0
1523614628202,-1245184,101,-56,-1,-1,0
1523614628202,-1048576,101,-56,-1,-1,0
1523614628202,1769472,101,-56,-1,-1,0
1523614628202,7274496,101,-56,-1,-1,0
1523614628242,9699328,101,-56,-1,-1,0
1523614628242,5439488,101,-56,-1,-1,0
1523614628242,0,101,-56,-1,-1,0
1523614628242,-1179648,101,-56,-1,-1,0
1523614628242,-851968,101,-56,-1,-1,0
1523614628287,-786432,101,-56,-1,-1,0
1523614628287,-851968,101,-56,-1,-1,0
1523614628287,-786432,101,-56,-1,-1,0
1523614628287,-720896,101,-56,-1,-1,0
1523614628287,-655360,101,-56,-1,-1,0
1523614628322,-655360,101,-56,-1,-1,0
1523614628322,-655360,101,-56,-1,-1,0
1523614628322,-655360,101,-56,-1,-1,0
1523614628322,-524288,101,-56,-1,-1,0
1523614628322,-458752,101,-56,-1,-1,0
1523614628362,-327680,101,-56,-1,-1,0
1523614628362,-262144,101,-56,-1,-1,0
1523614628362,-65536,101,-56,-1,-1,0
1523614628362,65536,101,-56,-1,-1,0
1523614628362,327680,101,-56,-1,-1,0
1523614628402,589824,101,-56,-1,-1,0
1523614628402,983040,101,-56,-1,-1,0
1523614628402,1310720,101,-56,-1,-1,0
1523614628402,1638400,101,-56,-1,-1,0
1523614628402,1769472,101,-56,-1,-1,0
1523614628442,1835008,101,-56,-1,-1,0
1523614628442,1769472,101,-56,-1,-1,0
1523614628442,1638400,101,-56,-1,-1,0
1523614628442,1245184,101,-56,-1,-1,0
1523614628442,786432,101,-56,-1,-1,0
1523614628483,327680,101,-56,-1,-1,0
1523614628483,0,101,-56,-1,-1,0
1523614628483,-196608,101,-56,-1,-1,0
1523614628483,-524288,101,-56,-1,-1,0
1523614628483,-720896,101,-56,-1,-1,0
1523614628522,-851968,101,-56,-1,-1,0
1523614628522,-917504,101,-56,-1,-1,0
1523614628522,-983040,101,-56,-1,-1,0
1523614628522,-983040,101,-56,-1,-1,0
1523614628522,-983040,101,-56,-1,-1,0
1523614628563,-917504,101,-56,-1,-1,0
1523614628563,-983040,101,-56,-1,-1,0
1523614628563,-917504,101,-56,-1,-1,0
1523614628563,-917504,101,-56,-1,-1,0
1523614628563,-786432,101,-56,-1,-1,0
1523614628602,-720896,101,-56,-1,-1,0
1523614628602,-655360,101,-56,-1,-1,0
1523614628602,-589824,101,-56,-1,-1,0
1523614628602,-655360,101,-56,-1,-1,0
1523614628602,-720896,101,-56,-1,-1,0
1523614628642,-720896,101,-56,-1,-1,0
1523614628642,-655360,101,-56,-1,-1,0
1523614628642,-655360,101,-56,-1,-1,0
1523614628642,-589824,101,-56,-1,-1,0
1523614628642,-655360,101,-56,-1,-1,0
1523614628682,-720896,101,-56,-1,-1,0
1523614628682,-720896,101,-56,-1,-1,0
1523614628682,-720896,101,-56,-1,-1,0
1523614628682,-720896,101,-56,-1,-1,0
1523614628682,-720896,101,-56,-1,-1,0
1523614628722,-786432,101,-56,-1,-1,0
1523614628722,-786432,101,-56,-1,-1,0
1523614628722,-786432,101,-56,-1,-1,0
1523614628722,-786432,101,-56,-1,-1,0
1523614628722,-851968,101,-56,-1,-1,0
1523614628762,-917504,101,-56,-1,-1,0
1523614628762,-786432,101,-56,-1,-1,0
1523614628762,-720896,101,-56,-1,-1,0
1523614628762,-720896,101,-56,-1,-1,0
1523614628762,-786432,101,-56,-1,-1,0
1523614628802,-851968,101,-56,-1,-1,0
1523614628802,-917504,101,-56,-1,-1,0
1523614628802,-851968,101,-56,-1,-1,0
1523614628802,-786432,101,-56,-1,-1,0
1523614628802,-786432,101,-56,-1,-1,0
1523614628842,-720896,101,-56,-1,-1,0
1523614628842,-851968,101,-56,-1,-1,0
1523614628842,-1114112,101,-56,-1,-1,0
1523614628842,-655360,101,-56,-1,-1,0
1523614628842,2490368,101,-56,-1,-1,0
1523614628882,7602176,101,-56,-1,-1,0
1523614628882,8716288,101,-56,-1,-1,0
1523614628882,3735552,101,-56,-1,-1,0
1523614628882,-1048576,101,-56,-1,-1,0
1523614628882,-1441792,101,-56,-1,-1,0
1523614628927,-851968,101,-56,-1,-1,0
1523614628927,-720896,101,-56,-1,-1,0
1523614628927,-720896,101,-56,-1,-1,0
1523614628927,-655360,101,-56,-1,-1,0
1523614628927,-589824,101,-56,-1,-1,0
1523614628962,-524288,101,-56,-1,-1,0
1523614628962,-589824,101,-56,-1,-1,0
1523614628962,-458752,101,-56,-1,-1,0
1523614628962,-458752,101,-56,-1,-1,0
1523614628962,-327680,101,-56,-1,-1,0
1523614629002,-262144,101,-56,-1,-1,0
1523614629002,-131072,101,-56,-1,-1,0
1523614629002,-65536,101,-56,-1,-1,0
1523614629002,65536,101,-56,-1,-1,0
1523614629002,262144,101,-56,-1,-1,0
1523614629042,589824,101,-56,-1,-1,0
1523614629042,851968,101,-56,-1,-1,0
1523614629042,1245184,101,-56,-1,-1,0
1523614629042,1638400,101,-56,-1,-1,0
1523614629042,2031616,101,-56,-1,-1,0
1523614629082,2162688,101,-56,-1,-1,0
1523614629082,2228224,101,-56,-1,-1,0
1523614629082,2162688,101,-56,-1,-1,0
1523614629082,2031616,101,-56,-1,-1,0
1523614629082,1703936,101,-56,-1,-1,0
1523614629122,1245184,101,-56,-1,-1,0
1523614629122,720896,101,-56,-1,-1,0
1523614629122,327680,101,-56,-1,-1,0
1523614629122,0,101,-56,-1,-1,0
1523614629122,-196608,101,-56,-1,-1,0
1523614629162,-393216,101,-56,-1,-1,0
1523614629162,-524288,101,-56,-1,-1,0
1523614629162,-589824,101,-56,-1,-1,0
1523614629162,-655360,101,-56,-1,-1,0
1523614629162,-655360,101,-56,-1,-1,0
1523614629202,-720896,101,-56,-1,-1,0
1523614629202,-720896,101,-56,-1,-1,0
1523614629202,-786432,101,-56,-1,-1,0
1523614629202,-720896,101,-56,-1,-1,0
1523614629202,-589824,101,-56,-1,-1,0
1523614629242,-524288,101,-56,-1,-1,0
1523614629242,-524288,101,-56,-1,-1,0
1523614629242,-458752,101,-56,-1,-1,0
1523614629242,-393216,101,-56,-1,-1,0
1523614629242,-393216,101,-56,-1,-1,0
1523614629282,-327680,101,-56,-1,-1,0
1523614629282,-327680,101,-56,-1,-1,0
1523614629282,-327680,101,-56,-1,-1,0
1523614629282,-327680,101,-56,-1,-1,0
1523614629282,-393216,101,-56,-1,-1,0
1523614629322,-524288,101,-56,-1,-1,0
1523614629322,-524288,101,-56,-1,-1,0
1523614629322,-589824,101,-56,-1,-1,0
1523614629322,-524288,101,-56,-1,-1,0
1523614629322,-524288,101,-56,-1,-1,0
1523614629363,-524288,101,-56,-1,-1,0
1523614629363,-589824,101,-56,-1,-1,0
1523614629363,-589824,101,-56,-1,-1,0
1523614629363,-524288,101,-56,-1,-1,0
1523614629363,-589824,101,-56,-1,-1,0
1523614629402,-720896,101,-56,-1,-1,0
1523614629402,-851968,101,-56,-1,-1,0
1523614629402,-851968,101,-56,-1,-1,0
1523614629402,-786432,101,-56,-1,-1,0
1523614629402,-720896,101,-56,-1,-1,0
1523614629442,-589824,100,-56,-1,-1,0
1523614629442,-589824,100,-56,-1,-1,0
1523614629442,-655360,100,-56,-1,-1,0
1523614629442,-720896,100,-56,-1,-1,0
1523614629442,-720896,100,-56,-1,-1,0
1523614629483,-720896,100,-56,-1,-1,0
1523614629483,-655360,100,-56,-1,-1,0
1523614629483,-720896,100,-56,-1,-1,0
1523614629483,-917504,100,-56,-1,-1,0
1523614629483,-1114112,100,-56,-1,-1,0
1523614629522,196608,100,-56,-1,-1,0
1523614629522,4849664,100,-56,-1,-1,0
1523614629522,9437184,100,-56,-1,-1,0
1523614629522,7536640,100,-56,-1,-1,0
1523614629522,1966080,100,-56,-1,-1,0
1523614629568,-1179648,100,-56,-1,-1,0
1523614629568,-851968,100,-56,-1,-1,0
1523614629568,-524288,100,-56,-1,-1,0
1523614629568,-524288,100,-56,-1,-1,0
1523614629568,-393216,100,-56,-1,-1,0
1523614629602,-458752,100,-56,-1,-1,0
1523614629602,-327680,100,-56,-1,-1,0
1523614629602,-327680,100,-56,-1,-1,0
1523614629602,-196608,100,-56,-1,-1,0
1523614629602,-196608,100,-56,-1,-1,0
1523614629642,-131072,100,-56,-1,-1,0
1523614629642,-65536,100,-56,-1,-1,0
1523614629642,0,100,-56,-1,-1,0
