milliseconds, ECG, ECG HR, PPG, PPG HR, SpO2, PI,Landmark_0,Landmark_1,Landmark_2,Landmark_3,Landmark_4,Landmark_5,Landmark_6,Landmark_7,Landmark_8,Landmark_9,Landmark_10,Landmark_11,Landmark_12,Landmark_13,Landmark_14,Landmark_15,Landmark_16,Landmark_17,Landmark_18,Landmark_19,Landmark_20,Landmark_21,Landmark_22,Landmark_23,Landmark_24,Landmark_25,Landmark_26,Landmark_27,Landmark_28,Landmark_29,Landmark_30,Landmark_31,Landmark_32,Landmark_33,Landmark_34,Landmark_35,Landmark_36,Landmark_37,Landmark_38,Landmark_39,Landmark_40,Landmark_41,Landmark_42,Landmark_43,Landmark_44,Landmark_45,Landmark_46,Landmark_47,Landmark_48,Landmark_49,Landmark_50,Landmark_51,Landmark_52,Landmark_53,Landmark_54,Landmark_55,Landmark_56,Landmark_57,Landmark_58,Landmark_59,Landmark_60,Landmark_61,Landmark_62,Landmark_63,Landmark_64,Landmark_65,Landmark_66,Landmark_67,EyeAspectRatio,MouthAspectRatio,LightIntensity,FaceWidthRatio,EyebrowHeight,LipsWidthRatio,LipsHeightRatio,EyeOpening,NoseWidthRatio,NoseHeightRatio,AvgRedForehead,AvgGreenForehead,AvgBlueForehead,AvgRedLips,AvgGreenLips,AvgBlueLips,AvgRedCheeks,AvgGreenCheeks,AvgBlueCheeks
0,-1572864,95,-56,-1,-1,0,"(1096, 407)","(1096, 432)","(1098, 455)","(1102, 479)","(1109, 502)","(1120, 524)","(1135, 544)","(1154, 560)","(1175, 564)","(1198, 560)","(1217, 546)","(1234, 527)","(1246, 507)","(1254, 484)","(1257, 460)","(1259, 436)","(1259, 412)","(1106, 401)","(1115, 392)","(1130, 389)","(1145, 393)","(1159, 400)","(1189, 400)","(1203, 392)","(1219, 390)","(1235, 393)","(1246, 403)","(1174, 417)","(1173, 433)","(1172, 450)","(1171, 467)","(1157, 475)","(1164, 479)","(1172, 482)","(1181, 479)","(1189, 476)","(1124, 415)","(1133, 409)","(1145, 410)","(1154, 418)","(1144, 421)","(1132, 420)","(1196, 419)","(1206, 411)","(1218, 411)","(1227, 417)","(1219, 422)","(1207, 422)","(1145, 503)","(1154, 499)","(1165, 497)","(1173, 500)","(1181, 498)","(1193, 500)","(1204, 505)","(1194, 517)","(1182, 524)","(1173, 525)","(1165, 523)","(1154, 516)","(1150, 504)","(1165, 505)","(1173, 506)","(1181, 505)","(1198, 505)","(1182, 512)","(1173, 513)","(1165, 511)",0.35,0.95,42.0,0.37,0.01,0.36,0.03,-11.5,0.09,0.34,20.7,47.0,91.7,12.9,32.5,84.85,14.94,36.82,73.05
33,-2031616,95,-56,-1,-1,0,"(983, 482)","(979, 518)","(978, 554)","(981, 589)","(990, 625)","(1007, 658)","(1029, 688)","(1055, 714)","(1087, 724)","(1121, 721)","(1152, 702)","(1179, 677)","(1200, 647)","(1215, 614)","(1223, 578)","(1228, 542)","(1230, 505)","(1004, 472)","(1019, 460)","(1040, 459)","(1061, 466)","(1081, 477)","(1124, 477)","(1147, 469)","(1170, 466)","(1194, 472)","(1209, 488)","(1101, 503)","(1099, 528)","(1096, 552)","(1093, 578)","(1070, 587)","(1081, 595)","(1093, 600)","(1106, 598)","(1119, 593)","(1029, 495)","(1042, 488)","(1059, 490)","(1072, 502)","(1057, 505)","(1040, 503)","(1134, 508)","(1150, 497)","(1167, 498)","(1180, 507)","(1167, 514)","(1150, 513)","(1053, 628)","(1066, 624)","(1081, 624)","(1092, 629)","(1105, 627)","(1121, 631)","(1138, 639)","(1120, 655)","(1103, 661)","(1090, 661)","(1078, 658)","(1064, 646)","(1061, 630)","(1080, 634)","(1092, 637)","(1104, 637)","(1130, 640)","(1104, 644)","(1091, 645)","(1080, 641)",0.34,0.96,45.0,0.36,0.09,0.34,0.03,-17.0,0.07,0.33,26.4,60.3,107.6,18.9,40.5,98.15,28.23,56.64,95.11
66,-2293760,95,-56,-1,-1,0,"(1001, 490)","(998, 523)","(999, 557)","(1001, 591)","(1009, 624)","(1023, 655)","(1041, 685)","(1064, 710)","(1094, 720)","(1128, 717)","(1160, 698)","(1187, 673)","(1209, 643)","(1224, 610)","(1232, 574)","(1238, 538)","(1241, 500)","(1011, 477)","(1023, 462)","(1043, 458)","(1064, 464)","(1084, 474)","(1125, 474)","(1149, 465)","(1174, 463)","(1198, 470)","(1214, 488)","(1103, 500)","(1100, 525)","(1097, 550)","(1095, 576)","(1073, 584)","(1083, 591)","(1095, 597)","(1109, 594)","(1122, 589)","(1035, 496)","(1047, 488)","(1064, 489)","(1077, 502)","(1062, 505)","(1046, 504)","(1138, 505)","(1152, 494)","(1170, 495)","(1183, 505)","(1170, 511)","(1153, 511)","(1058, 624)","(1070, 620)","(1084, 620)","(1096, 625)","(1108, 622)","(1127, 627)","(1144, 635)","(1125, 653)","(1106, 660)","(1093, 660)","(1080, 656)","(1067, 644)","(1065, 626)","(1084, 629)","(1095, 633)","(1108, 632)","(1136, 635)","(1107, 643)","(1094, 644)","(1082, 640)",0.36,1.04,45.0,0.36,0.05,0.35,0.03,-17.0,0.07,0.34,27.0,59.2,107.1,18.35,40.6,98.1,22.88,48.11,85.41
100,-2293760,96,-56,-1,-1,0,"(1002, 482)","(999, 516)","(999, 550)","(1002, 585)","(1009, 618)","(1024, 650)","(1043, 678)","(1066, 704)","(1097, 713)","(1132, 711)","(1163, 692)","(1189, 667)","(1211, 638)","(1225, 605)","(1233, 570)","(1239, 534)","(1242, 497)","(1016, 472)","(1028, 457)","(1048, 454)","(1069, 459)","(1088, 469)","(1129, 470)","(1152, 461)","(1177, 459)","(1200, 466)","(1216, 483)","(1107, 495)","(1105, 520)","(1102, 544)","(1099, 569)","(1078, 578)","(1088, 585)","(1100, 591)","(1113, 588)","(1126, 583)","(1040, 491)","(1052, 483)","(1068, 484)","(1081, 497)","(1066, 500)","(1050, 499)","(1141, 500)","(1156, 490)","(1173, 490)","(1186, 500)","(1173, 506)","(1157, 506)","(1063, 619)","(1075, 614)","(1089, 614)","(1100, 619)","(1112, 616)","(1130, 621)","(1146, 629)","(1128, 645)","(1111, 652)","(1097, 652)","(1085, 648)","(1072, 637)","(1070, 621)","(1088, 624)","(1099, 627)","(1112, 627)","(1138, 629)","(1111, 635)","(1098, 636)","(1086, 632)",0.35,1.02,45.0,0.35,0.05,0.34,0.03,-16.5,0.07,0.33,26.2,59.1,107.7,19.7,42.85,98.95,22.58,48.64,85.29
133,-2949120,96,-56,-1,-1,0,"(1009, 474)","(1004, 508)","(1004, 541)","(1006, 575)","(1014, 609)","(1029, 640)","(1049, 669)","(1073, 694)","(1104, 703)","(1137, 700)","(1168, 681)","(1194, 656)","(1216, 626)","(1229, 594)","(1236, 559)","(1241, 524)","(1242, 489)","(1022, 464)","(1034, 451)","(1054, 448)","(1074, 453)","(1093, 463)","(1134, 463)","(1157, 454)","(1181, 452)","(1204, 459)","(1218, 476)","(1113, 490)","(1110, 513)","(1108, 536)","(1105, 559)","(1084, 570)","(1094, 577)","(1105, 582)","(1119, 579)","(1131, 574)","(1045, 484)","(1058, 477)","(1074, 478)","(1087, 490)","(1072, 493)","(1056, 492)","(1145, 493)","(1160, 483)","(1177, 483)","(1190, 493)","(1177, 499)","(1160, 499)","(1068, 608)","(1080, 604)","(1095, 603)","(1106, 608)","(1118, 606)","(1136, 610)","(1152, 618)","(1135, 636)","(1117, 643)","(1104, 643)","(1092, 640)","(1078, 628)","(1075, 610)","(1095, 614)","(1105, 616)","(1117, 616)","(1144, 618)","(1117, 627)","(1105, 628)","(1094, 624)",0.35,1.01,45.0,0.37,0.06,0.36,0.04,-16.0,0.07,0.32,28.3,61.8,109.0,21.55,46.2,105.05,23.82,49.88,86.29
166,-2752512,96,-56,-1,-1,0,"(1010, 465)","(1007, 498)","(1006, 531)","(1009, 565)","(1018, 597)","(1033, 628)","(1054, 655)","(1077, 679)","(1108, 688)","(1141, 686)","(1171, 668)","(1197, 644)","(1217, 616)","(1231, 584)","(1237, 551)","(1242, 516)","(1243, 482)","(1030, 456)","(1043, 444)","(1062, 441)","(1082, 446)","(1101, 456)","(1140, 457)","(1161, 448)","(1184, 445)","(1206, 452)","(1221, 467)","(1119, 481)","(1117, 503)","(1115, 525)","(1113, 549)","(1091, 559)","(1101, 565)","(1112, 570)","(1125, 567)","(1137, 563)","(1054, 476)","(1066, 470)","(1081, 471)","(1093, 482)","(1079, 485)","(1064, 483)","(1151, 485)","(1165, 476)","(1181, 476)","(1193, 485)","(1181, 491)","(1165, 490)","(1076, 597)","(1088, 592)","(1102, 592)","(1113, 596)","(1124, 594)","(1141, 598)","(1157, 606)","(1140, 621)","(1123, 628)","(1111, 628)","(1099, 624)","(1086, 614)","(1083, 598)","(1102, 601)","(1112, 604)","(1124, 604)","(1149, 606)","(1124, 613)","(1112, 613)","(1101, 609)",0.34,1.0,45.0,0.34,0.06,0.34,0.03,-15.0,0.07,0.32,27.5,61.6,109.2,21.85,46.1,104.65,25.35,51.76,90.58
200,-1769472,96,-56,-1,-1,0,"(1011, 453)","(1008, 486)","(1009, 519)","(1013, 551)","(1023, 583)","(1040, 611)","(1061, 638)","(1085, 661)","(1114, 671)","(1145, 669)","(1173, 653)","(1198, 631)","(1219, 604)","(1233, 574)","(1240, 541)","(1246, 507)","(1248, 473)","(1036, 443)","(1051, 433)","(1070, 432)","(1090, 438)","(1109, 447)","(1146, 448)","(1166, 440)","(1188, 438)","(1210, 443)","(1224, 457)","(1126, 470)","(1124, 492)","(1122, 514)","(1120, 537)","(1099, 547)","(1108, 553)","(1119, 558)","(1132, 555)","(1143, 551)","(1061, 464)","(1073, 458)","(1088, 460)","(1099, 471)","(1086, 473)","(1071, 472)","(1157, 475)","(1170, 466)","(1185, 467)","(1197, 475)","(1186, 481)","(1170, 480)","(1084, 584)","(1096, 580)","(1109, 579)","(1119, 584)","(1130, 582)","(1146, 586)","(1161, 592)","(1146, 606)","(1130, 611)","(1118, 611)","(1107, 608)","(1095, 599)","(1091, 585)","(1109, 589)","(1119, 592)","(1130, 591)","(1154, 593)","(1130, 596)","(1119, 596)","(1109, 593)",0.35,0.99,45.0,0.33,0.08,0.32,0.02,-15.0,0.07,0.33,27.4,61.2,110.2,21.7,44.6,103.45,24.05,50.94,86.64
233,-4259840,96,-56,-1,-1,0,"(1040, 448)","(1039, 479)","(1042, 509)","(1047, 539)","(1055, 569)","(1068, 597)","(1085, 623)","(1105, 645)","(1132, 653)","(1162, 650)","(1189, 632)","(1213, 610)","(1232, 583)","(1245, 553)","(1252, 522)","(1256, 490)","(1258, 457)","(1052, 441)","(1064, 429)","(1081, 427)","(1100, 432)","(1118, 441)","(1156, 441)","(1176, 433)","(1197, 431)","(1218, 436)","(1232, 450)","(1136, 463)","(1135, 484)","(1133, 505)","(1131, 527)","(1113, 535)","(1121, 541)","(1131, 546)","(1143, 543)","(1154, 539)","(1075, 458)","(1086, 452)","(1101, 453)","(1113, 464)","(1100, 467)","(1085, 466)","(1166, 467)","(1179, 458)","(1195, 459)","(1206, 467)","(1195, 473)","(1180, 472)","(1099, 570)","(1110, 567)","(1123, 566)","(1132, 570)","(1143, 568)","(1158, 572)","(1173, 578)","(1158, 593)","(1142, 599)","(1131, 599)","(1120, 596)","(1109, 587)","(1106, 572)","(1122, 575)","(1132, 577)","(1143, 577)","(1165, 578)","(1142, 584)","(1132, 585)","(1122, 582)",0.35,0.99,45.0,0.35,0.05,0.33,0.03,-15.0,0.08,0.33,26.8,60.4,110.8,20.55,44.45,103.4,16.94,40.41,77.88
266,-3538944,96,-56,-1,-1,0,"(1057, 446)","(1055, 475)","(1056, 503)","(1059, 532)","(1067, 560)","(1079, 587)","(1096, 612)","(1116, 632)","(1143, 638)","(1171, 635)","(1197, 619)","(1219, 597)","(1237, 572)","(1248, 545)","(1253, 515)","(1256, 486)","(1257, 456)","(1069, 438)","(1080, 427)","(1097, 424)","(1114, 428)","(1131, 436)","(1166, 436)","(1184, 428)","(1204, 426)","(1223, 431)","(1236, 444)","(1148, 457)","(1146, 477)","(1145, 497)","(1143, 517)","(1125, 526)","(1134, 531)","(1143, 536)","(1154, 533)","(1165, 529)","(1090, 454)","(1101, 448)","(1114, 449)","(1125, 458)","(1113, 461)","(1099, 460)","(1176, 461)","(1188, 452)","(1202, 452)","(1213, 460)","(1202, 465)","(1188, 465)","(1110, 560)","(1121, 556)","(1134, 555)","(1144, 558)","(1154, 556)","(1169, 559)","(1183, 565)","(1169, 580)","(1154, 586)","(1142, 587)","(1132, 585)","(1120, 576)","(1117, 561)","(1134, 563)","(1144, 565)","(1154, 565)","(1176, 566)","(1154, 573)","(1143, 574)","(1133, 571)",0.35,0.97,45.0,0.36,0.04,0.36,0.03,-13.0,0.08,0.33,25.6,56.7,105.7,19.7,44.75,103.4,18.88,45.23,84.23
300,-1835008,96,-56,-1,-1,0,"(1072, 445)","(1072, 472)","(1074, 499)","(1077, 526)","(1084, 552)","(1095, 576)","(1110, 598)","(1129, 616)","(1153, 622)","(1179, 620)","(1204, 605)","(1225, 586)","(1242, 563)","(1253, 538)","(1259, 510)","(1263, 481)","(1265, 452)","(1083, 436)","(1093, 424)","(1110, 421)","(1127, 424)","(1143, 432)","(1175, 432)","(1193, 424)","(1212, 422)","(1231, 428)","(1244, 441)","(1158, 451)","(1156, 470)","(1155, 489)","(1153, 508)","(1136, 517)","(1144, 522)","(1153, 526)","(1164, 523)","(1174, 519)","(1104, 450)","(1113, 444)","(1126, 444)","(1137, 454)","(1125, 456)","(1112, 456)","(1185, 455)","(1196, 447)","(1209, 447)","(1220, 454)","(1210, 459)","(1196, 459)","(1123, 549)","(1133, 545)","(1145, 544)","(1154, 547)","(1164, 545)","(1177, 548)","(1191, 554)","(1177, 568)","(1163, 573)","(1152, 573)","(1142, 571)","(1131, 563)","(1128, 550)","(1144, 552)","(1154, 554)","(1163, 553)","(1185, 554)","(1163, 560)","(1153, 561)","(1143, 559)",0.34,0.96,45.0,0.35,0.03,0.35,0.03,-12.0,0.08,0.33,24.0,56.1,105.2,20.7,44.7,104.15,18.41,44.52,84.23
333,65536,96,-56,-1,-1,0,"(1086, 433)","(1084, 459)","(1086, 484)","(1088, 509)","(1095, 534)","(1106, 559)","(1120, 581)","(1138, 600)","(1162, 607)","(1188, 604)","(1212, 590)","(1232, 571)","(1248, 548)","(1259, 523)","(1264, 496)","(1267, 469)","(1268, 441)","(1096, 426)","(1105, 416)","(1121, 414)","(1137, 418)","(1152, 426)","(1184, 426)","(1201, 419)","(1219, 417)","(1236, 421)","(1249, 432)","(1167, 445)","(1166, 463)","(1164, 480)","(1163, 499)","(1146, 507)","(1154, 512)","(1163, 515)","(1173, 513)","(1182, 509)","(1115, 441)","(1124, 436)","(1137, 437)","(1147, 446)","(1135, 448)","(1123, 448)","(1193, 448)","(1204, 440)","(1217, 441)","(1227, 447)","(1217, 452)","(1204, 452)","(1134, 537)","(1144, 533)","(1155, 532)","(1163, 535)","(1172, 533)","(1186, 536)","(1198, 542)","(1185, 555)","(1172, 560)","(1162, 561)","(1153, 559)","(1142, 551)","(1139, 538)","(1154, 540)","(1163, 542)","(1172, 541)","(1192, 542)","(1172, 548)","(1163, 549)","(1154, 546)",0.33,0.99,45.0,0.36,0.04,0.35,0.03,-12.0,0.08,0.33,26.0,58.8,108.0,20.8,45.15,104.35,14.94,39.58,78.82
366,4325376,96,-56,-1,-1,0,"(1105, 407)","(1105, 432)","(1108, 456)","(1113, 479)","(1120, 502)","(1131, 524)","(1145, 544)","(1161, 560)","(1182, 565)","(1205, 562)","(1226, 549)","(1245, 532)","(1259, 511)","(1269, 489)","(1274, 464)","(1278, 439)","(1280, 413)","(1115, 399)","(1125, 390)","(1140, 388)","(1155, 391)","(1169, 399)","(1200, 400)","(1215, 393)","(1232, 391)","(1248, 394)","(1260, 404)","(1184, 417)","(1183, 433)","(1182, 450)","(1181, 467)","(1165, 474)","(1173, 479)","(1181, 482)","(1190, 480)","(1199, 476)","(1134, 413)","(1143, 408)","(1155, 409)","(1165, 418)","(1154, 420)","(1142, 419)","(1208, 420)","(1218, 412)","(1230, 412)","(1240, 419)","(1231, 424)","(1219, 423)","(1154, 502)","(1163, 498)","(1174, 497)","(1182, 500)","(1190, 498)","(1202, 501)","(1214, 506)","(1202, 519)","(1190, 524)","(1181, 525)","(1172, 523)","(1162, 516)","(1159, 503)","(1173, 504)","(1181, 506)","(1190, 505)","(1208, 506)","(1189, 513)","(1181, 513)","(1173, 511)",0.36,0.96,45.0,0.36,0.03,0.34,0.03,-12.0,0.08,0.33,26.9,61.2,112.5,19.6,44.7,103.35,15.0,37.64,76.94
400,3276800,96,-56,-1,-1,0,"(1115, 401)","(1115, 425)","(1118, 448)","(1121, 470)","(1127, 492)","(1137, 513)","(1151, 531)","(1168, 545)","(1189, 550)","(1211, 547)","(1230, 535)","(1247, 520)","(1260, 501)","(1269, 480)","(1273, 457)","(1276, 433)","(1278, 409)","(1126, 393)","(1135, 383)","(1149, 380)","(1164, 383)","(1178, 390)","(1206, 390)","(1220, 384)","(1236, 382)","(1251, 386)","(1262, 397)","(1191, 406)","(1190, 421)","(1189, 437)","(1187, 454)","(1173, 462)","(1180, 465)","(1188, 469)","(1196, 466)","(1205, 463)","(1144, 405)","(1152, 400)","(1163, 400)","(1172, 408)","(1162, 410)","(1151, 409)","(1213, 410)","(1224, 403)","(1235, 403)","(1243, 409)","(1235, 413)","(1224, 413)","(1160, 489)","(1170, 486)","(1180, 484)","(1188, 487)","(1196, 485)","(1208, 487)","(1219, 492)","(1208, 503)","(1197, 508)","(1188, 509)","(1179, 507)","(1169, 501)","(1165, 490)","(1180, 491)","(1188, 493)","(1196, 492)","(1214, 493)","(1196, 497)","(1188, 498)","(1180, 496)",0.33,0.93,45.0,0.35,0.03,0.36,0.03,-10.0,0.08,0.33,21.7,52.4,101.3,18.65,42.8,100.35,16.05,37.29,76.82
433,-393216,96,-56,-1,-1,0,"(1124, 398)","(1124, 420)","(1127, 442)","(1130, 464)","(1135, 485)","(1144, 505)","(1157, 523)","(1173, 537)","(1194, 541)","(1216, 538)","(1236, 526)","(1253, 511)","(1266, 492)","(1274, 472)","(1278, 449)","(1282, 426)","(1284, 403)","(1134, 391)","(1143, 381)","(1157, 377)","(1171, 379)","(1184, 386)","(1210, 386)","(1224, 379)","(1240, 378)","(1255, 383)","(1266, 393)","(1196, 401)","(1195, 416)","(1194, 431)","(1193, 447)","(1179, 455)","(1186, 459)","(1193, 462)","(1202, 459)","(1210, 457)","(1152, 401)","(1160, 396)","(1170, 397)","(1179, 404)","(1170, 406)","(1159, 406)","(1218, 405)","(1227, 398)","(1238, 399)","(1246, 405)","(1238, 408)","(1228, 408)","(1167, 482)","(1176, 478)","(1186, 477)","(1193, 480)","(1201, 478)","(1212, 481)","(1223, 485)","(1212, 495)","(1201, 500)","(1192, 500)","(1184, 499)","(1175, 493)","(1172, 483)","(1185, 484)","(1193, 485)","(1201, 485)","(1218, 486)","(1201, 489)","(1192, 490)","(1185, 488)",0.34,0.94,45.0,0.34,0.01,0.35,0.03,-10.0,0.08,0.32,20.1,49.7,96.8,15.65,38.95,94.15,14.76,36.35,74.7
466,-1114112,96,-56,-1,-1,0,"(1129, 398)","(1130, 421)","(1133, 442)","(1136, 463)","(1140, 484)","(1150, 503)","(1163, 520)","(1178, 533)","(1197, 538)","(1218, 535)","(1236, 523)","(1253, 508)","(1265, 490)","(1273, 470)","(1277, 449)","(1281, 427)","(1283, 404)","(1141, 392)","(1149, 383)","(1163, 379)","(1176, 382)","(1189, 389)","(1213, 389)","(1227, 382)","(1241, 381)","(1256, 385)","(1265, 395)","(1201, 403)","(1200, 418)","(1199, 432)","(1198, 447)","(1184, 454)","(1190, 458)","(1198, 460)","(1205, 458)","(1213, 456)","(1159, 404)","(1166, 400)","(1175, 401)","(1184, 406)","(1175, 408)","(1165, 407)","(1221, 407)","(1230, 403)","(1239, 403)","(1247, 407)","(1239, 410)","(1230, 410)","(1172, 480)","(1181, 476)","(1190, 475)","(1198, 477)","(1205, 476)","(1216, 478)","(1226, 483)","(1215, 494)","(1205, 498)","(1197, 499)","(1189, 498)","(1180, 492)","(1177, 481)","(1190, 481)","(1197, 482)","(1205, 482)","(1221, 483)","(1205, 489)","(1197, 489)","(1189, 488)",0.26,0.93,45.0,0.33,0.02,0.35,0.03,-7.5,0.07,0.32,14.0,40.5,86.4,15.95,37.75,94.65,14.64,38.41,79.35
500,-983040,96,-56,-1,-1,0,"(1137, 408)","(1136, 428)","(1137, 449)","(1139, 469)","(1145, 488)","(1154, 506)","(1167, 522)","(1182, 534)","(1201, 538)","(1221, 536)","(1238, 525)","(1254, 511)","(1266, 494)","(1274, 475)","(1277, 455)","(1279, 433)","(1280, 412)","(1148, 396)","(1156, 387)","(1168, 385)","(1181, 387)","(1192, 393)","(1217, 393)","(1230, 387)","(1243, 386)","(1256, 389)","(1264, 399)","(1204, 409)","(1203, 423)","(1202, 436)","(1202, 450)","(1188, 458)","(1194, 461)","(1202, 464)","(1209, 462)","(1217, 459)","(1164, 411)","(1171, 407)","(1180, 408)","(1187, 412)","(1179, 414)","(1171, 413)","(1223, 413)","(1232, 409)","(1241, 409)","(1248, 413)","(1240, 415)","(1232, 415)","(1176, 482)","(1184, 479)","(1194, 477)","(1201, 480)","(1209, 478)","(1219, 481)","(1229, 486)","(1219, 497)","(1208, 501)","(1200, 502)","(1192, 500)","(1183, 494)","(1180, 483)","(1194, 483)","(1201, 485)","(1209, 484)","(1224, 486)","(1208, 491)","(1200, 492)","(1193, 490)",0.24,0.93,46.0,0.33,0.02,0.37,0.04,-6.5,0.09,0.31,15.4,43.1,91.3,17.45,41.1,97.75,16.23,41.29,80.58
533,-786432,96,-56,-1,-1,0,"(1141, 412)","(1140, 432)","(1141, 452)","(1142, 472)","(1147, 491)","(1156, 509)","(1169, 524)","(1184, 537)","(1203, 541)","(1222, 538)","(1240, 528)","(1255, 514)","(1267, 497)","(1274, 478)","(1277, 458)","(1280, 438)","(1281, 417)","(1151, 403)","(1159, 394)","(1171, 391)","(1184, 393)","(1196, 399)","(1219, 399)","(1232, 394)","(1246, 392)","(1259, 396)","(1267, 406)","(1207, 414)","(1206, 427)","(1206, 441)","(1205, 455)","(1191, 462)","(1197, 465)","(1204, 468)","(1212, 466)","(1219, 463)","(1167, 414)","(1174, 411)","(1183, 411)","(1190, 416)","(1182, 418)","(1173, 418)","(1226, 417)","(1235, 413)","(1244, 413)","(1251, 418)","(1244, 420)","(1235, 420)","(1179, 486)","(1187, 483)","(1197, 482)","(1204, 484)","(1211, 482)","(1222, 485)","(1231, 489)","(1221, 500)","(1211, 504)","(1203, 504)","(1195, 503)","(1186, 497)","(1183, 487)","(1197, 487)","(1204, 489)","(1211, 488)","(1227, 490)","(1211, 495)","(1203, 495)","(1196, 494)",0.27,0.93,46.0,0.34,0.02,0.37,0.03,-7.0,0.08,0.32,19.2,46.6,95.6,15.85,39.45,95.9,18.23,43.23,83.64
566,-1114112,96,-56,-1,-1,0,"(1145, 414)","(1144, 434)","(1145, 453)","(1146, 473)","(1151, 492)","(1160, 510)","(1172, 525)","(1187, 538)","(1205, 542)","(1224, 540)","(1242, 530)","(1257, 516)","(1268, 500)","(1275, 481)","(1278, 461)","(1281, 441)","(1281, 421)","(1155, 407)","(1162, 399)","(1174, 396)","(1187, 399)","(1199, 405)","(1221, 405)","(1234, 399)","(1248, 398)","(1261, 402)","(1269, 411)","(1209, 419)","(1209, 432)","(1208, 445)","(1207, 458)","(1193, 465)","(1200, 469)","(1207, 471)","(1214, 469)","(1221, 467)","(1170, 418)","(1177, 414)","(1186, 414)","(1193, 420)","(1185, 422)","(1176, 422)","(1228, 422)","(1236, 416)","(1246, 417)","(1253, 422)","(1246, 425)","(1236, 424)","(1182, 489)","(1190, 485)","(1199, 484)","(1206, 487)","(1213, 485)","(1223, 488)","(1232, 492)","(1223, 502)","(1213, 506)","(1205, 507)","(1197, 505)","(1189, 500)","(1186, 489)","(1199, 490)","(1206, 491)","(1213, 491)","(1228, 492)","(1213, 497)","(1205, 498)","(1198, 496)",0.32,0.93,46.0,0.35,0.03,0.36,0.04,-8.5,0.08,0.31,19.0,46.9,93.6,15.85,37.45,93.6,17.76,42.88,82.47
600,-655360,96,-56,-1,-1,0,"(1146, 417)","(1145, 437)","(1146, 456)","(1147, 475)","(1151, 494)","(1160, 511)","(1172, 526)","(1187, 539)","(1205, 543)","(1223, 541)","(1240, 531)","(1255, 518)","(1266, 503)","(1274, 485)","(1277, 466)","(1280, 446)","(1282, 426)","(1157, 410)","(1165, 402)","(1177, 399)","(1190, 402)","(1201, 408)","(1223, 408)","(1236, 403)","(1249, 402)","(1262, 406)","(1270, 416)","(1211, 421)","(1210, 434)","(1209, 446)","(1208, 460)","(1195, 467)","(1201, 470)","(1208, 473)","(1215, 471)","(1221, 469)","(1172, 420)","(1179, 416)","(1188, 417)","(1195, 423)","(1187, 424)","(1178, 424)","(1229, 425)","(1237, 419)","(1247, 419)","(1253, 425)","(1246, 428)","(1237, 427)","(1183, 491)","(1191, 487)","(1200, 486)","(1207, 489)","(1214, 487)","(1223, 490)","(1232, 495)","(1223, 504)","(1213, 508)","(1206, 508)","(1199, 507)","(1190, 502)","(1187, 492)","(1200, 492)","(1207, 493)","(1214, 493)","(1228, 495)","(1213, 499)","(1206, 499)","(1200, 498)",0.35,0.91,46.0,0.34,0.06,0.36,0.04,-8.5,0.07,0.31,18.8,46.2,94.5,14.85,36.6,94.65,18.88,44.47,84.58
633,-1048576,96,-56,-1,-1,0,"(1151, 419)","(1151, 438)","(1152, 456)","(1154, 475)","(1158, 493)","(1166, 509)","(1176, 524)","(1189, 536)","(1206, 541)","(1224, 539)","(1241, 530)","(1256, 517)","(1268, 501)","(1276, 484)","(1280, 465)","(1283, 445)","(1285, 425)","(1159, 413)","(1166, 404)","(1178, 401)","(1190, 404)","(1201, 409)","(1223, 409)","(1236, 404)","(1250, 403)","(1263, 407)","(1271, 417)","(1211, 423)","(1210, 435)","(1209, 448)","(1208, 461)","(1196, 468)","(1202, 471)","(1208, 474)","(1215, 472)","(1222, 470)","(1173, 422)","(1180, 417)","(1189, 418)","(1196, 424)","(1188, 426)","(1179, 425)","(1230, 425)","(1238, 420)","(1247, 420)","(1254, 425)","(1247, 428)","(1238, 428)","(1184, 490)","(1192, 488)","(1201, 487)","(1207, 489)","(1214, 488)","(1224, 490)","(1233, 494)","(1223, 503)","(1213, 507)","(1206, 507)","(1199, 506)","(1191, 501)","(1188, 491)","(1200, 492)","(1207, 493)","(1214, 493)","(1229, 494)","(1213, 498)","(1206, 499)","(1200, 497)",0.33,0.93,46.0,0.35,0.03,0.36,0.03,-8.5,0.08,0.32,19.7,46.7,94.0,14.1,34.95,89.05,14.82,38.88,79.7
666,-1048576,96,-56,-1,-1,0,"(1152, 419)","(1152, 438)","(1153, 456)","(1155, 474)","(1159, 492)","(1167, 509)","(1177, 523)","(1190, 535)","(1206, 540)","(1224, 538)","(1241, 528)","(1256, 516)","(1268, 500)","(1276, 483)","(1280, 464)","(1284, 444)","(1285, 424)","(1160, 413)","(1167, 404)","(1179, 402)","(1191, 405)","(1202, 410)","(1223, 410)","(1236, 405)","(1249, 404)","(1262, 408)","(1271, 417)","(1211, 423)","(1211, 435)","(1210, 448)","(1208, 461)","(1196, 467)","(1202, 471)","(1208, 474)","(1215, 472)","(1222, 469)","(1174, 422)","(1181, 418)","(1189, 418)","(1197, 424)","(1188, 426)","(1180, 426)","(1230, 426)","(1238, 420)","(1247, 420)","(1254, 426)","(1247, 429)","(1238, 428)","(1185, 490)","(1193, 487)","(1202, 486)","(1208, 489)","(1215, 487)","(1224, 490)","(1233, 494)","(1223, 503)","(1213, 507)","(1206, 507)","(1199, 506)","(1191, 500)","(1189, 491)","(1201, 492)","(1208, 493)","(1214, 493)","(1229, 494)","(1213, 498)","(1207, 498)","(1200, 497)",0.35,0.9,46.0,0.35,0.03,0.36,0.03,-8.5,0.08,0.32,17.6,43.2,88.4,15.15,35.35,93.65,14.7,39.23,78.58
700,1769472,96,-56,-1,-1,0,"(1152, 419)","(1152, 437)","(1153, 455)","(1155, 473)","(1159, 491)","(1166, 507)","(1177, 522)","(1190, 534)","(1206, 539)","(1224, 537)","(1241, 528)","(1256, 515)","(1268, 500)","(1275, 483)","(1280, 464)","(1283, 444)","(1285, 424)","(1160, 412)","(1167, 404)","(1179, 402)","(1191, 404)","(1202, 410)","(1223, 410)","(1236, 405)","(1250, 404)","(1262, 408)","(1270, 418)","(1212, 423)","(1211, 435)","(1210, 448)","(1209, 461)","(1196, 467)","(1202, 470)","(1208, 473)","(1215, 471)","(1222, 469)","(1174, 421)","(1181, 417)","(1190, 418)","(1197, 424)","(1189, 426)","(1180, 425)","(1230, 426)","(1238, 420)","(1247, 421)","(1254, 426)","(1247, 429)","(1238, 429)","(1185, 489)","(1193, 486)","(1201, 486)","(1208, 488)","(1214, 487)","(1224, 489)","(1233, 493)","(1223, 502)","(1213, 506)","(1206, 506)","(1199, 505)","(1191, 499)","(1189, 490)","(1201, 491)","(1207, 493)","(1214, 492)","(1229, 493)","(1213, 497)","(1206, 498)","(1200, 496)",0.35,0.94,46.0,0.35,0.06,0.36,0.03,-9.0,0.07,0.32,19.0,45.6,90.8,13.3,34.5,90.3,13.76,39.0,78.94
733,-5636096,96,-56,-1,-1,0,"(1152, 419)","(1152, 438)","(1153, 456)","(1154, 474)","(1158, 491)","(1166, 508)","(1176, 523)","(1189, 535)","(1205, 540)","(1223, 538)","(1240, 528)","(1255, 516)","(1267, 500)","(1275, 483)","(1279, 465)","(1282, 445)","(1284, 426)","(1161, 412)","(1168, 404)","(1180, 402)","(1191, 404)","(1202, 410)","(1224, 410)","(1236, 405)","(1249, 404)","(1262, 408)","(1269, 417)","(1212, 423)","(1211, 435)","(1210, 448)","(1209, 461)","(1196, 467)","(1202, 470)","(1208, 473)","(1215, 471)","(1222, 469)","(1175, 422)","(1182, 419)","(1190, 419)","(1197, 424)","(1189, 426)","(1181, 425)","(1230, 426)","(1238, 421)","(1246, 422)","(1253, 426)","(1246, 429)","(1238, 428)","(1185, 489)","(1193, 486)","(1201, 486)","(1207, 488)","(1214, 487)","(1223, 489)","(1232, 493)","(1222, 502)","(1213, 506)","(1205, 506)","(1198, 504)","(1191, 499)","(1188, 490)","(1201, 491)","(1207, 492)","(1214, 492)","(1228, 493)","(1213, 497)","(1206, 498)","(1199, 496)",0.3,0.92,46.0,0.34,0.05,0.35,0.03,-7.5,0.07,0.32,15.5,40.0,84.0,14.75,34.5,91.75,14.23,38.17,78.0
766,-1376256,96,-56,-1,-1,0,"(1146, 419)","(1145, 438)","(1145, 457)","(1146, 475)","(1151, 494)","(1159, 510)","(1171, 525)","(1186, 536)","(1203, 540)","(1221, 539)","(1238, 530)","(1252, 517)","(1263, 503)","(1270, 485)","(1274, 467)","(1277, 448)","(1279, 430)","(1159, 413)","(1167, 405)","(1179, 402)","(1191, 404)","(1203, 410)","(1222, 411)","(1234, 406)","(1247, 405)","(1259, 409)","(1267, 419)","(1211, 424)","(1211, 436)","(1210, 448)","(1209, 460)","(1195, 467)","(1201, 470)","(1208, 473)","(1215, 472)","(1221, 469)","(1173, 424)","(1180, 422)","(1188, 422)","(1195, 426)","(1188, 428)","(1180, 427)","(1228, 428)","(1236, 425)","(1244, 426)","(1251, 429)","(1244, 432)","(1236, 431)","(1183, 490)","(1192, 487)","(1200, 486)","(1207, 488)","(1213, 487)","(1222, 489)","(1231, 494)","(1221, 502)","(1212, 505)","(1205, 506)","(1198, 504)","(1190, 499)","(1187, 490)","(1200, 491)","(1206, 493)","(1213, 492)","(1227, 494)","(1212, 497)","(1206, 498)","(1199, 496)",0.26,0.88,46.0,0.33,0.05,0.36,0.03,-6.5,0.07,0.31,13.8,38.0,79.4,14.5,35.4,92.5,17.76,44.29,84.41
800,-196608,96,-56,-1,-1,0,"(1146, 420)","(1145, 439)","(1146, 458)","(1147, 476)","(1150, 494)","(1158, 511)","(1170, 526)","(1184, 537)","(1201, 542)","(1220, 540)","(1236, 531)","(1251, 518)","(1262, 503)","(1269, 486)","(1272, 468)","(1276, 449)","(1278, 430)","(1157, 414)","(1164, 405)","(1176, 402)","(1189, 404)","(1200, 411)","(1221, 411)","(1233, 406)","(1246, 405)","(1258, 410)","(1266, 420)","(1210, 425)","(1209, 437)","(1207, 449)","(1206, 462)","(1193, 468)","(1199, 471)","(1205, 474)","(1212, 472)","(1219, 470)","(1172, 425)","(1179, 423)","(1187, 423)","(1194, 427)","(1186, 429)","(1178, 428)","(1227, 429)","(1235, 426)","(1243, 427)","(1249, 430)","(1242, 433)","(1234, 432)","(1181, 491)","(1190, 488)","(1198, 487)","(1204, 489)","(1211, 488)","(1220, 490)","(1228, 495)","(1219, 503)","(1210, 507)","(1203, 507)","(1196, 505)","(1188, 501)","(1185, 492)","(1197, 492)","(1204, 493)","(1211, 493)","(1224, 495)","(1210, 498)","(1203, 499)","(1197, 497)",0.27,0.88,46.0,0.33,0.06,0.35,0.03,-6.5,0.06,0.31,16.8,41.1,87.0,14.0,35.4,93.4,16.29,41.82,82.0
833,2162688,96,-56,-1,-1,0,"(1143, 421)","(1142, 440)","(1143, 459)","(1144, 478)","(1149, 497)","(1157, 514)","(1169, 528)","(1184, 540)","(1202, 543)","(1220, 541)","(1237, 531)","(1251, 518)","(1262, 503)","(1269, 485)","(1272, 466)","(1275, 447)","(1276, 428)","(1154, 415)","(1162, 406)","(1174, 403)","(1186, 406)","(1198, 412)","(1219, 412)","(1231, 407)","(1244, 406)","(1256, 410)","(1264, 419)","(1208, 425)","(1207, 438)","(1206, 450)","(1205, 463)","(1192, 470)","(1198, 473)","(1204, 476)","(1211, 474)","(1218, 472)","(1169, 426)","(1176, 423)","(1184, 423)","(1192, 427)","(1184, 429)","(1176, 429)","(1225, 429)","(1233, 425)","(1241, 426)","(1248, 430)","(1241, 432)","(1232, 432)","(1180, 493)","(1189, 490)","(1197, 489)","(1204, 491)","(1211, 490)","(1220, 492)","(1228, 496)","(1219, 505)","(1210, 509)","(1202, 509)","(1195, 508)","(1187, 503)","(1184, 493)","(1197, 494)","(1204, 496)","(1210, 495)","(1224, 496)","(1210, 500)","(1203, 500)","(1196, 499)",0.28,0.87,46.0,0.34,0.04,0.36,0.03,-6.5,0.07,0.32,16.3,42.7,88.5,15.0,34.9,88.4,15.88,40.7,79.94
866,7077888,96,-56,-1,-1,0,"(1141, 420)","(1140, 439)","(1141, 458)","(1142, 477)","(1146, 496)","(1155, 513)","(1167, 528)","(1181, 540)","(1199, 545)","(1217, 543)","(1234, 532)","(1249, 519)","(1260, 503)","(1267, 485)","(1271, 466)","(1274, 447)","(1276, 427)","(1152, 414)","(1160, 405)","(1172, 403)","(1184, 405)","(1196, 411)","(1217, 411)","(1230, 406)","(1243, 405)","(1255, 409)","(1263, 419)","(1206, 425)","(1205, 437)","(1204, 450)","(1203, 464)","(1190, 470)","(1195, 473)","(1202, 476)","(1209, 474)","(1216, 471)","(1167, 424)","(1174, 420)","(1182, 421)","(1189, 426)","(1181, 428)","(1173, 427)","(1223, 428)","(1231, 423)","(1240, 424)","(1246, 428)","(1240, 431)","(1231, 430)","(1178, 493)","(1186, 490)","(1195, 489)","(1201, 491)","(1208, 490)","(1217, 492)","(1225, 497)","(1216, 506)","(1207, 509)","(1199, 510)","(1192, 508)","(1184, 503)","(1182, 493)","(1194, 494)","(1201, 496)","(1208, 495)","(1221, 497)","(1207, 500)","(1200, 501)","(1193, 499)",0.3,0.89,46.0,0.33,0.05,0.34,0.03,-8.0,0.07,0.32,17.4,48.0,95.5,15.65,34.65,88.7,16.58,40.76,79.7
900,3735552,96,-56,-1,-1,0,"(1139, 417)","(1138, 437)","(1139, 456)","(1140, 475)","(1145, 494)","(1153, 511)","(1165, 526)","(1180, 538)","(1197, 542)","(1216, 540)","(1233, 530)","(1247, 517)","(1259, 501)","(1266, 483)","(1270, 464)","(1273, 445)","(1275, 425)","(1150, 411)","(1158, 402)","(1170, 400)","(1183, 402)","(1194, 408)","(1216, 409)","(1228, 404)","(1241, 403)","(1254, 407)","(1262, 416)","(1204, 422)","(1203, 435)","(1202, 448)","(1201, 461)","(1188, 468)","(1194, 471)","(1200, 474)","(1208, 472)","(1214, 469)","(1165, 421)","(1172, 417)","(1181, 418)","(1188, 423)","(1180, 425)","(1171, 425)","(1222, 425)","(1229, 420)","(1238, 421)","(1245, 425)","(1238, 428)","(1229, 428)","(1176, 491)","(1184, 488)","(1193, 487)","(1199, 490)","(1206, 488)","(1215, 490)","(1224, 495)","(1215, 503)","(1205, 507)","(1198, 507)","(1191, 506)","(1183, 501)","(1180, 492)","(1192, 493)","(1199, 494)","(1206, 494)","(1220, 495)","(1205, 498)","(1199, 498)","(1192, 497)",0.32,0.91,46.0,0.33,0.04,0.35,0.03,-8.0,0.07,0.32,19.1,45.8,92.9,14.1,34.45,90.25,16.35,40.11,79.11
933,-131072,96,-56,-1,-1,0,"(1136, 413)","(1135, 432)","(1135, 452)","(1136, 471)","(1141, 490)","(1150, 508)","(1162, 524)","(1178, 536)","(1196, 540)","(1215, 538)","(1232, 528)","(1246, 514)","(1257, 498)","(1264, 480)","(1267, 461)","(1270, 442)","(1271, 422)","(1147, 406)","(1156, 398)","(1168, 396)","(1180, 399)","(1192, 405)","(1215, 405)","(1227, 400)","(1240, 399)","(1252, 402)","(1260, 412)","(1203, 419)","(1202, 431)","(1201, 444)","(1200, 457)","(1186, 464)","(1192, 468)","(1199, 471)","(1206, 469)","(1212, 466)","(1162, 417)","(1170, 413)","(1179, 414)","(1186, 420)","(1178, 422)","(1169, 421)","(1220, 422)","(1229, 417)","(1237, 417)","(1244, 422)","(1237, 425)","(1228, 425)","(1174, 488)","(1182, 485)","(1192, 484)","(1198, 486)","(1205, 485)","(1214, 487)","(1223, 491)","(1214, 500)","(1205, 504)","(1197, 504)","(1190, 503)","(1181, 498)","(1178, 488)","(1191, 490)","(1198, 491)","(1205, 491)","(1219, 491)","(1205, 495)","(1198, 496)","(1191, 494)",0.33,0.88,46.0,0.35,0.06,0.36,0.02,-8.5,0.06,0.31,18.6,46.8,92.7,12.6,33.6,90.95,15.29,37.88,77.88
966,-393216,96,-56,-1,-1,0,"(1137, 411)","(1136, 430)","(1137, 449)","(1138, 469)","(1143, 487)","(1151, 505)","(1162, 520)","(1177, 533)","(1194, 538)","(1213, 536)","(1231, 526)","(1246, 512)","(1257, 496)","(1265, 477)","(1269, 458)","(1272, 438)","(1274, 417)","(1146, 403)","(1154, 395)","(1166, 392)","(1179, 395)","(1191, 401)","(1213, 401)","(1227, 396)","(1240, 395)","(1253, 399)","(1261, 409)","(1201, 415)","(1200, 428)","(1199, 441)","(1198, 455)","(1184, 461)","(1190, 465)","(1197, 468)","(1205, 466)","(1212, 463)","(1161, 414)","(1168, 409)","(1177, 410)","(1185, 416)","(1176, 418)","(1167, 418)","(1220, 418)","(1228, 412)","(1237, 413)","(1244, 418)","(1237, 421)","(1228, 421)","(1173, 485)","(1181, 482)","(1190, 481)","(1197, 484)","(1204, 482)","(1213, 485)","(1222, 489)","(1212, 498)","(1202, 502)","(1195, 503)","(1187, 501)","(1179, 496)","(1177, 486)","(1189, 487)","(1196, 489)","(1203, 488)","(1218, 489)","(1203, 493)","(1195, 493)","(1188, 492)",0.35,0.89,46.0,0.35,0.05,0.35,0.03,-9.0,0.08,0.32,18.9,47.6,94.5,14.85,34.8,92.55,15.29,38.88,77.29
1000,-196608,96,-56,-1,-1,0,"(1135, 409)","(1134, 429)","(1135, 448)","(1136, 468)","(1141, 486)","(1149, 504)","(1161, 519)","(1175, 532)","(1193, 536)","(1213, 534)","(1230, 524)","(1245, 511)","(1257, 494)","(1265, 476)","(1269, 456)","(1273, 436)","(1274, 415)","(1144, 400)","(1152, 391)","(1164, 389)","(1177, 391)","(1189, 396)","(1212, 397)","(1225, 392)","(1239, 391)","(1252, 395)","(1260, 405)","(1199, 411)","(1198, 424)","(1197, 437)","(1196, 451)","(1183, 458)","(1189, 462)","(1196, 465)","(1203, 463)","(1210, 460)","(1159, 411)","(1166, 406)","(1175, 407)","(1183, 413)","(1174, 415)","(1165, 415)","(1218, 414)","(1226, 409)","(1236, 409)","(1243, 415)","(1236, 418)","(1226, 417)","(1171, 483)","(1179, 480)","(1188, 479)","(1195, 481)","(1202, 480)","(1212, 482)","(1221, 487)","(1211, 496)","(1201, 499)","(1193, 500)","(1186, 498)","(1177, 493)","(1175, 484)","(1188, 485)","(1195, 486)","(1202, 486)","(1217, 487)","(1201, 490)","(1194, 490)","(1187, 489)",0.33,0.92,46.0,0.35,0.03,0.35,0.03,-9.0,0.07,0.32,18.6,47.0,93.4,12.5,33.35,91.05,12.76,34.94,72.52
1033,-458752,96,-56,-1,-1,0,"(1131, 406)","(1131, 426)","(1132, 447)","(1134, 466)","(1138, 486)","(1147, 504)","(1159, 520)","(1174, 532)","(1193, 537)","(1212, 534)","(1230, 524)","(1245, 510)","(1256, 494)","(1263, 475)","(1267, 455)","(1270, 435)","(1272, 414)","(1141, 399)","(1148, 389)","(1161, 386)","(1174, 388)","(1187, 394)","(1210, 394)","(1223, 389)","(1237, 388)","(1251, 392)","(1259, 403)","(1198, 408)","(1197, 422)","(1195, 435)","(1194, 449)","(1181, 456)","(1187, 460)","(1194, 463)","(1202, 461)","(1209, 458)","(1156, 409)","(1164, 404)","(1173, 404)","(1181, 411)","(1172, 412)","(1163, 412)","(1217, 412)","(1226, 407)","(1235, 407)","(1242, 412)","(1235, 415)","(1226, 415)","(1169, 482)","(1177, 479)","(1187, 477)","(1193, 480)","(1201, 478)","(1211, 481)","(1220, 486)","(1210, 494)","(1200, 498)","(1193, 498)","(1185, 497)","(1176, 492)","(1173, 483)","(1186, 484)","(1193, 485)","(1201, 484)","(1216, 486)","(1200, 488)","(1193, 489)","(1186, 487)",0.32,0.91,46.0,0.35,0.03,0.36,0.02,-8.0,0.07,0.31,20.8,47.1,93.3,12.05,32.35,87.2,14.88,37.47,74.76
1066,-524288,96,-56,-1,-1,0,"(1129, 406)","(1129, 426)","(1131, 447)","(1133, 467)","(1137, 486)","(1146, 505)","(1158, 520)","(1173, 533)","(1192, 537)","(1212, 535)","(1229, 524)","(1245, 510)","(1256, 494)","(1264, 475)","(1268, 455)","(1271, 434)","(1272, 412)","(1139, 396)","(1147, 387)","(1159, 384)","(1172, 386)","(1185, 392)","(1208, 392)","(1222, 387)","(1236, 386)","(1249, 390)","(1258, 400)","(1196, 407)","(1195, 421)","(1194, 434)","(1192, 448)","(1179, 456)","(1185, 459)","(1193, 462)","(1200, 460)","(1207, 458)","(1155, 407)","(1162, 402)","(1171, 403)","(1179, 410)","(1170, 411)","(1161, 411)","(1215, 411)","(1224, 405)","(1234, 405)","(1241, 411)","(1234, 414)","(1224, 414)","(1167, 482)","(1175, 478)","(1185, 477)","(1192, 479)","(1199, 478)","(1209, 480)","(1219, 486)","(1209, 495)","(1199, 499)","(1191, 499)","(1183, 498)","(1175, 493)","(1171, 483)","(1185, 483)","(1192, 485)","(1199, 484)","(1214, 486)","(1199, 489)","(1191, 489)","(1184, 488)",0.34,0.93,46.0,0.35,0.03,0.36,0.02,-9.0,0.07,0.31,19.3,46.2,94.1,13.15,35.05,90.9,17.17,37.47,74.35
1100,-393216,96,-56,-1,-1,0,"(1127, 407)","(1126, 427)","(1128, 448)","(1130, 468)","(1135, 488)","(1143, 507)","(1156, 522)","(1171, 535)","(1190, 540)","(1211, 537)","(1229, 526)","(1245, 512)","(1257, 495)","(1264, 476)","(1268, 455)","(1271, 433)","(1272, 412)","(1136, 396)","(1144, 387)","(1157, 383)","(1170, 385)","(1182, 391)","(1207, 391)","(1220, 386)","(1235, 385)","(1249, 389)","(1257, 400)","(1194, 406)","(1193, 420)","(1192, 434)","(1191, 448)","(1177, 456)","(1184, 460)","(1191, 462)","(1199, 460)","(1206, 458)","(1152, 407)","(1159, 402)","(1169, 403)","(1177, 409)","(1168, 411)","(1159, 411)","(1214, 411)","(1223, 404)","(1233, 405)","(1240, 410)","(1233, 414)","(1223, 413)","(1166, 484)","(1174, 480)","(1183, 478)","(1190, 481)","(1198, 479)","(1208, 482)","(1218, 487)","(1208, 495)","(1198, 499)","(1190, 500)","(1182, 498)","(1173, 494)","(1170, 484)","(1183, 485)","(1190, 486)","(1198, 486)","(1213, 487)","(1198, 489)","(1190, 490)","(1183, 489)",0.34,0.93,45.0,0.35,0.03,0.35,0.03,-9.5,0.08,0.31,18.6,46.3,94.0,12.4,32.8,88.4,14.76,35.88,73.05
1133,-720896,96,-56,-1,-1,0,"(1124, 409)","(1123, 430)","(1124, 451)","(1126, 472)","(1131, 492)","(1140, 511)","(1153, 527)","(1168, 539)","(1188, 544)","(1209, 541)","(1227, 530)","(1243, 516)","(1255, 499)","(1263, 479)","(1267, 458)","(1270, 437)","(1272, 415)","(1134, 397)","(1141, 386)","(1155, 383)","(1168, 385)","(1181, 391)","(1206, 391)","(1220, 386)","(1234, 385)","(1248, 389)","(1257, 400)","(1192, 407)","(1191, 421)","(1190, 435)","(1189, 449)","(1175, 458)","(1182, 461)","(1189, 464)","(1197, 462)","(1205, 460)","(1149, 408)","(1157, 403)","(1166, 403)","(1175, 410)","(1166, 412)","(1156, 412)","(1213, 411)","(1222, 405)","(1232, 405)","(1240, 411)","(1232, 414)","(1222, 414)","(1163, 486)","(1172, 482)","(1181, 480)","(1188, 483)","(1196, 481)","(1206, 484)","(1216, 490)","(1206, 498)","(1195, 502)","(1187, 502)","(1179, 501)","(1170, 496)","(1167, 487)","(1181, 487)","(1188, 488)","(1196, 488)","(1211, 490)","(1195, 492)","(1188, 492)","(1180, 491)",0.33,0.91,45.0,0.35,0.02,0.35,0.03,-9.0,0.08,0.3,19.5,49.2,96.8,13.1,35.8,92.3,13.7,35.23,72.7
1166,-786432,96,-56,-1,-1,0,"(1121, 410)","(1120, 431)","(1121, 453)","(1123, 474)","(1129, 494)","(1138, 513)","(1151, 530)","(1167, 543)","(1187, 547)","(1208, 545)","(1227, 533)","(1243, 518)","(1256, 501)","(1264, 481)","(1268, 459)","(1271, 436)","(1271, 414)","(1130, 397)","(1138, 387)","(1151, 384)","(1165, 387)","(1177, 393)","(1204, 393)","(1217, 387)","(1232, 385)","(1246, 390)","(1256, 400)","(1189, 410)","(1189, 424)","(1187, 438)","(1186, 452)","(1172, 461)","(1179, 465)","(1186, 468)","(1195, 466)","(1202, 463)","(1146, 409)","(1153, 404)","(1163, 405)","(1172, 412)","(1162, 414)","(1153, 414)","(1211, 413)","(1220, 406)","(1230, 407)","(1238, 412)","(1230, 416)","(1220, 416)","(1160, 490)","(1169, 485)","(1179, 484)","(1186, 486)","(1193, 485)","(1204, 487)","(1215, 493)","(1204, 502)","(1193, 506)","(1185, 506)","(1177, 505)","(1168, 500)","(1164, 490)","(1178, 491)","(1186, 492)","(1193, 492)","(1210, 493)","(1193, 496)","(1185, 497)","(1178, 495)",0.35,0.93,45.0,0.35,0.02,0.36,0.02,-10.0,0.08,0.3,20.3,48.8,95.5,13.95,36.2,93.25,16.05,40.17,78.35
1200,12058624,96,-56,-1,-1,0,"(1114, 410)","(1114, 433)","(1116, 455)","(1118, 477)","(1123, 498)","(1133, 519)","(1146, 536)","(1163, 550)","(1184, 555)","(1205, 551)","(1225, 539)","(1242, 524)","(1254, 505)","(1262, 484)","(1266, 461)","(1270, 439)","(1271, 415)","(1124, 401)","(1132, 390)","(1146, 386)","(1160, 388)","(1174, 395)","(1201, 395)","(1215, 389)","(1231, 387)","(1246, 393)","(1256, 404)","(1187, 411)","(1186, 425)","(1185, 440)","(1183, 455)","(1169, 464)","(1176, 468)","(1184, 471)","(1192, 469)","(1199, 466)","(1141, 412)","(1149, 407)","(1160, 407)","(1169, 414)","(1159, 416)","(1149, 416)","(1208, 415)","(1218, 409)","(1229, 409)","(1237, 415)","(1229, 419)","(1218, 418)","(1157, 494)","(1166, 490)","(1176, 488)","(1183, 490)","(1191, 489)","(1202, 491)","(1212, 497)","(1202, 506)","(1191, 511)","(1182, 511)","(1174, 510)","(1165, 505)","(1162, 495)","(1176, 495)","(1183, 496)","(1191, 496)","(1207, 497)","(1191, 500)","(1183, 501)","(1175, 499)",0.32,0.92,45.0,0.36,0.02,0.35,0.02,-9.5,0.07,0.3,19.8,48.1,96.2,15.2,37.25,93.05,14.35,35.35,73.29
1233,-3473408,96,-56,-1,-1,0,"(1110, 411)","(1110, 435)","(1111, 457)","(1114, 480)","(1119, 502)","(1129, 523)","(1142, 541)","(1159, 554)","(1180, 559)","(1202, 556)","(1223, 544)","(1240, 528)","(1254, 509)","(1262, 488)","(1266, 465)","(1269, 441)","(1271, 417)","(1120, 402)","(1128, 391)","(1142, 387)","(1157, 389)","(1171, 396)","(1198, 396)","(1213, 390)","(1229, 388)","(1244, 394)","(1254, 405)","(1183, 413)","(1182, 428)","(1181, 442)","(1180, 457)","(1165, 467)","(1172, 471)","(1180, 474)","(1188, 472)","(1196, 469)","(1137, 414)","(1145, 409)","(1156, 409)","(1165, 416)","(1155, 419)","(1145, 419)","(1205, 417)","(1215, 411)","(1226, 412)","(1235, 418)","(1226, 421)","(1215, 421)","(1153, 498)","(1162, 493)","(1172, 491)","(1179, 494)","(1187, 492)","(1198, 495)","(1209, 501)","(1198, 510)","(1187, 515)","(1178, 515)","(1170, 514)","(1161, 509)","(1158, 499)","(1171, 499)","(1179, 500)","(1187, 499)","(1203, 501)","(1187, 504)","(1179, 505)","(1171, 504)",0.31,0.93,45.0,0.36,0.02,0.34,0.02,-10.0,0.08,0.3,21.1,52.0,99.0,15.25,37.4,93.1,14.41,36.29,73.7
1266,0,96,-56,-1,-1,0,"(1103, 415)","(1103, 438)","(1104, 461)","(1107, 485)","(1113, 507)","(1123, 528)","(1136, 546)","(1153, 560)","(1174, 565)","(1197, 563)","(1218, 551)","(1236, 535)","(1250, 516)","(1259, 495)","(1264, 471)","(1268, 447)","(1271, 423)","(1115, 404)","(1123, 392)","(1138, 388)","(1153, 391)","(1167, 397)","(1194, 398)","(1210, 392)","(1226, 390)","(1242, 396)","(1253, 408)","(1179, 415)","(1178, 430)","(1177, 445)","(1175, 461)","(1160, 471)","(1167, 475)","(1175, 478)","(1184, 476)","(1193, 473)","(1133, 415)","(1141, 410)","(1152, 411)","(1161, 418)","(1151, 420)","(1140, 420)","(1202, 420)","(1212, 413)","(1223, 414)","(1232, 420)","(1223, 424)","(1212, 423)","(1147, 502)","(1157, 497)","(1167, 496)","(1175, 498)","(1183, 496)","(1194, 500)","(1205, 506)","(1194, 515)","(1182, 520)","(1173, 520)","(1165, 519)","(1155, 513)","(1152, 503)","(1167, 503)","(1175, 504)","(1183, 504)","(1200, 506)","(1182, 509)","(1174, 510)","(1166, 508)",0.33,0.9,45.0,0.34,0.01,0.34,0.02,-10.5,0.08,0.3,21.2,49.8,94.9,16.05,39.1,95.9,15.35,38.11,75.64
1300,1114112,96,-56,-1,-1,0,"(1094, 417)","(1094, 442)","(1096, 466)","(1099, 489)","(1105, 512)","(1116, 534)","(1131, 552)","(1149, 567)","(1171, 572)","(1194, 569)","(1215, 557)","(1232, 540)","(1246, 521)","(1255, 499)","(1259, 475)","(1263, 451)","(1265, 426)","(1108, 406)","(1117, 394)","(1132, 389)","(1148, 391)","(1163, 398)","(1191, 399)","(1206, 392)","(1223, 391)","(1239, 397)","(1249, 410)","(1176, 417)","(1175, 432)","(1174, 447)","(1172, 463)","(1157, 474)","(1164, 478)","(1172, 481)","(1181, 479)","(1189, 476)","(1127, 418)","(1136, 412)","(1147, 412)","(1156, 420)","(1146, 422)","(1135, 422)","(1199, 422)","(1209, 415)","(1221, 415)","(1229, 422)","(1221, 426)","(1209, 425)","(1143, 506)","(1152, 501)","(1163, 499)","(1171, 502)","(1180, 500)","(1191, 503)","(1202, 510)","(1191, 520)","(1180, 524)","(1171, 525)","(1162, 523)","(1152, 518)","(1148, 507)","(1163, 506)","(1171, 508)","(1180, 507)","(1197, 510)","(1180, 513)","(1171, 514)","(1163, 512)",0.35,0.92,45.0,0.34,0.02,0.34,0.03,-10.5,0.07,0.29,21.0,52.2,99.3,15.9,38.65,96.15,15.58,38.05,77.0
1333,5505024,96,-56,-1,-1,0,"(1090, 419)","(1089, 444)","(1090, 469)","(1093, 494)","(1098, 518)","(1109, 540)","(1124, 560)","(1143, 575)","(1166, 580)","(1190, 577)","(1212, 564)","(1231, 547)","(1244, 526)","(1253, 503)","(1257, 478)","(1261, 453)","(1263, 428)","(1102, 408)","(1110, 395)","(1126, 390)","(1142, 393)","(1157, 400)","(1186, 400)","(1203, 393)","(1220, 392)","(1237, 398)","(1247, 413)","(1171, 418)","(1170, 434)","(1168, 450)","(1167, 467)","(1150, 478)","(1158, 482)","(1167, 485)","(1176, 483)","(1185, 480)","(1121, 420)","(1129, 414)","(1141, 414)","(1151, 422)","(1140, 424)","(1129, 424)","(1194, 424)","(1205, 417)","(1217, 417)","(1226, 424)","(1217, 428)","(1205, 427)","(1137, 512)","(1146, 506)","(1158, 504)","(1166, 507)","(1175, 505)","(1187, 508)","(1199, 515)","(1187, 525)","(1175, 530)","(1165, 530)","(1156, 529)","(1145, 523)","(1142, 512)","(1157, 512)","(1166, 513)","(1175, 513)","(1193, 515)","(1175, 518)","(1166, 519)","(1157, 518)",0.32,0.93,45.0,0.35,0.03,0.35,0.03,-10.5,0.08,0.3,22.8,53.3,101.1,15.85,39.2,97.2,16.47,38.94,77.29
1366,6619136,96,-56,-1,-1,0,"(1083, 421)","(1081, 447)","(1082, 472)","(1085, 497)","(1091, 522)","(1102, 545)","(1117, 566)","(1136, 583)","(1159, 589)","(1185, 586)","(1208, 572)","(1228, 555)","(1243, 533)","(1253, 509)","(1258, 483)","(1262, 456)","(1264, 429)","(1095, 410)","(1104, 398)","(1120, 393)","(1136, 396)","(1152, 403)","(1182, 403)","(1199, 396)","(1218, 394)","(1235, 400)","(1246, 414)","(1165, 422)","(1164, 439)","(1163, 455)","(1161, 472)","(1145, 483)","(1153, 488)","(1161, 491)","(1170, 488)","(1180, 485)","(1114, 424)","(1123, 418)","(1136, 418)","(1146, 426)","(1135, 428)","(1123, 428)","(1190, 427)","(1201, 420)","(1214, 420)","(1223, 427)","(1214, 431)","(1201, 431)","(1131, 518)","(1141, 512)","(1152, 510)","(1160, 513)","(1169, 511)","(1182, 514)","(1194, 522)","(1182, 533)","(1169, 537)","(1160, 538)","(1150, 536)","(1140, 530)","(1137, 518)","(1152, 518)","(1160, 520)","(1169, 519)","(1188, 521)","(1169, 525)","(1160, 526)","(1151, 524)",0.33,0.96,45.0,0.35,0.02,0.34,0.03,-10.5,0.08,0.29,20.6,53.1,99.0,17.95,41.55,98.7,14.58,37.94,75.41
1400,1572864,96,-56,-1,-1,0,"(1073, 427)","(1073, 454)","(1076, 480)","(1078, 506)","(1085, 531)","(1096, 556)","(1111, 576)","(1130, 593)","(1154, 599)","(1180, 596)","(1203, 582)","(1224, 564)","(1240, 543)","(1251, 518)","(1256, 491)","(1261, 464)","(1264, 436)","(1087, 415)","(1096, 401)","(1112, 396)","(1130, 398)","(1146, 406)","(1177, 406)","(1195, 399)","(1214, 398)","(1232, 405)","(1244, 419)","(1160, 426)","(1159, 443)","(1157, 460)","(1155, 478)","(1138, 490)","(1146, 494)","(1155, 498)","(1165, 495)","(1175, 492)","(1107, 428)","(1117, 421)","(1129, 421)","(1139, 430)","(1128, 433)","(1116, 432)","(1186, 431)","(1197, 423)","(1210, 424)","(1220, 431)","(1210, 436)","(1197, 435)","(1124, 526)","(1134, 520)","(1146, 518)","(1155, 521)","(1164, 518)","(1177, 522)","(1189, 530)","(1176, 541)","(1163, 545)","(1153, 546)","(1143, 544)","(1132, 538)","(1129, 526)","(1145, 526)","(1154, 527)","(1164, 527)","(1183, 530)","(1163, 533)","(1154, 534)","(1144, 532)",0.35,0.92,45.0,0.34,0.01,0.34,0.03,-12.5,0.07,0.3,21.9,54.1,100.4,18.5,42.7,99.5,18.11,41.58,80.64
1433,-589824,96,-56,-1,-1,0,"(1063, 427)","(1061, 455)","(1061, 483)","(1064, 511)","(1071, 538)","(1083, 563)","(1099, 585)","(1120, 603)","(1145, 609)","(1172, 607)","(1196, 593)","(1218, 575)","(1235, 552)","(1246, 527)","(1252, 499)","(1257, 470)","(1259, 441)","(1079, 416)","(1089, 403)","(1105, 399)","(1123, 402)","(1140, 409)","(1172, 410)","(1190, 403)","(1209, 401)","(1228, 408)","(1239, 422)","(1154, 430)","(1153, 448)","(1151, 466)","(1149, 485)","(1131, 497)","(1140, 502)","(1149, 505)","(1159, 503)","(1168, 500)","(1099, 431)","(1109, 424)","(1122, 425)","(1132, 434)","(1121, 436)","(1108, 436)","(1180, 436)","(1192, 428)","(1206, 429)","(1216, 436)","(1206, 441)","(1192, 440)","(1116, 533)","(1127, 528)","(1139, 526)","(1148, 530)","(1157, 528)","(1171, 531)","(1184, 539)","(1170, 549)","(1157, 554)","(1147, 554)","(1137, 552)","(1126, 546)","(1122, 534)","(1138, 535)","(1148, 537)","(1157, 536)","(1177, 539)","(1157, 541)","(1147, 542)","(1138, 540)",0.33,0.95,45.0,0.35,0.03,0.34,0.02,-12.5,0.07,0.3,20.9,53.0,100.1,18.35,40.8,98.05,18.17,42.11,80.64
1466,-655360,96,-56,-1,-1,0,"(1053, 435)","(1052, 464)","(1054, 493)","(1057, 522)","(1064, 549)","(1077, 575)","(1094, 597)","(1114, 615)","(1140, 621)","(1168, 618)","(1193, 603)","(1216, 584)","(1233, 562)","(1245, 535)","(1252, 506)","(1257, 477)","(1259, 447)","(1070, 422)","(1080, 408)","(1098, 403)","(1116, 405)","(1133, 414)","(1166, 414)","(1184, 407)","(1204, 405)","(1224, 412)","(1236, 428)","(1148, 436)","(1146, 454)","(1145, 472)","(1143, 492)","(1125, 505)","(1133, 509)","(1143, 513)","(1153, 510)","(1163, 507)","(1091, 437)","(1101, 430)","(1115, 430)","(1125, 440)","(1113, 442)","(1100, 442)","(1175, 442)","(1187, 433)","(1201, 434)","(1211, 442)","(1201, 446)","(1187, 445)","(1109, 543)","(1120, 537)","(1133, 534)","(1142, 538)","(1152, 535)","(1166, 540)","(1179, 547)","(1165, 559)","(1151, 565)","(1140, 565)","(1130, 563)","(1119, 557)","(1115, 544)","(1132, 543)","(1142, 545)","(1152, 545)","(1172, 547)","(1151, 551)","(1141, 552)","(1132, 550)",0.33,0.92,45.0,0.33,0.03,0.33,0.03,-12.5,0.07,0.3,21.9,53.5,101.4,18.75,41.85,100.85,18.94,43.94,83.23
1500,-524288,96,-56,-1,-1,0,"(1045, 436)","(1043, 466)","(1044, 495)","(1049, 524)","(1055, 553)","(1067, 582)","(1084, 607)","(1105, 628)","(1131, 635)","(1160, 632)","(1187, 617)","(1211, 596)","(1230, 572)","(1243, 544)","(1250, 513)","(1256, 482)","(1258, 450)","(1060, 424)","(1071, 411)","(1089, 406)","(1108, 409)","(1125, 419)","(1160, 419)","(1180, 411)","(1201, 410)","(1221, 417)","(1234, 433)","(1141, 442)","(1139, 461)","(1137, 480)","(1135, 500)","(1116, 513)","(1125, 518)","(1134, 522)","(1145, 520)","(1156, 516)","(1082, 441)","(1093, 435)","(1107, 435)","(1119, 445)","(1106, 448)","(1092, 447)","(1169, 448)","(1182, 440)","(1197, 441)","(1208, 449)","(1197, 454)","(1182, 453)","(1100, 552)","(1111, 546)","(1124, 544)","(1133, 548)","(1144, 546)","(1159, 550)","(1172, 558)","(1157, 570)","(1143, 576)","(1132, 576)","(1121, 574)","(1110, 566)","(1107, 553)","(1123, 553)","(1133, 555)","(1143, 555)","(1165, 558)","(1143, 562)","(1133, 563)","(1123, 560)",0.33,0.96,45.0,0.35,0.05,0.33,0.03,-13.5,0.07,0.3,26.1,57.9,105.7,21.0,44.3,101.5,17.05,39.0,75.05
1533,-917504,96,-56,-1,-1,0,"(1015, 434)","(1011, 466)","(1009, 498)","(1012, 530)","(1021, 561)","(1036, 591)","(1057, 617)","(1081, 640)","(1112, 649)","(1143, 648)","(1171, 634)","(1197, 614)","(1217, 588)","(1232, 559)","(1240, 527)","(1246, 494)","(1250, 461)","(1043, 422)","(1058, 411)","(1078, 409)","(1098, 414)","(1117, 424)","(1153, 426)","(1174, 418)","(1195, 417)","(1216, 424)","(1229, 439)","(1132, 447)","(1130, 468)","(1127, 489)","(1124, 511)","(1103, 522)","(1112, 528)","(1123, 533)","(1135, 531)","(1147, 527)","(1067, 443)","(1079, 438)","(1094, 439)","(1105, 449)","(1092, 451)","(1077, 450)","(1162, 454)","(1176, 447)","(1191, 449)","(1201, 456)","(1190, 461)","(1175, 459)","(1085, 560)","(1099, 557)","(1112, 556)","(1122, 561)","(1133, 559)","(1148, 562)","(1163, 569)","(1147, 580)","(1132, 584)","(1120, 584)","(1109, 581)","(1097, 573)","(1092, 562)","(1111, 566)","(1121, 568)","(1132, 568)","(1156, 569)","(1132, 570)","(1122, 570)","(1111, 567)",0.3,0.91,45.0,0.32,0.09,0.33,0.01,-13.5,0.06,0.31,25.6,57.2,104.5,21.75,44.95,102.25,23.88,52.05,88.11
1566,-1310720,96,-56,-1,-1,0,"(1012, 445)","(1008, 477)","(1007, 510)","(1009, 543)","(1017, 576)","(1032, 606)","(1052, 634)","(1078, 656)","(1109, 664)","(1141, 662)","(1171, 646)","(1197, 624)","(1217, 597)","(1231, 566)","(1238, 533)","(1243, 500)","(1246, 466)","(1037, 434)","(1050, 420)","(1070, 416)","(1091, 420)","(1110, 431)","(1147, 431)","(1168, 423)","(1190, 422)","(1211, 429)","(1224, 445)","(1127, 456)","(1124, 477)","(1122, 498)","(1120, 519)","(1098, 533)","(1108, 539)","(1118, 543)","(1131, 541)","(1142, 537)","(1061, 454)","(1073, 447)","(1088, 448)","(1100, 458)","(1086, 461)","(1071, 460)","(1156, 462)","(1170, 453)","(1186, 454)","(1197, 463)","(1185, 468)","(1170, 467)","(1080, 575)","(1093, 569)","(1107, 567)","(1117, 571)","(1129, 569)","(1144, 573)","(1158, 582)","(1143, 594)","(1127, 599)","(1115, 599)","(1104, 596)","(1091, 589)","(1087, 575)","(1106, 578)","(1117, 580)","(1128, 579)","(1151, 582)","(1128, 584)","(1117, 585)","(1106, 582)",0.34,0.91,45.0,0.34,0.06,0.33,0.02,-14.5,0.06,0.3,27.5,61.9,109.8,20.85,44.15,103.75,25.23,52.82,91.64
1600,-1572864,96,-56,-1,-1,0,"(1012, 456)","(1007, 489)","(1006, 521)","(1008, 555)","(1014, 588)","(1028, 620)","(1049, 648)","(1074, 670)","(1106, 678)","(1139, 676)","(1170, 659)","(1197, 636)","(1217, 608)","(1230, 576)","(1237, 542)","(1241, 508)","(1243, 474)","(1031, 443)","(1043, 429)","(1062, 424)","(1083, 428)","(1103, 438)","(1141, 439)","(1163, 430)","(1186, 428)","(1208, 436)","(1222, 453)","(1120, 465)","(1118, 486)","(1115, 507)","(1112, 529)","(1091, 544)","(1101, 550)","(1112, 554)","(1124, 551)","(1136, 547)","(1054, 463)","(1066, 456)","(1081, 457)","(1094, 467)","(1080, 470)","(1064, 470)","(1151, 470)","(1166, 461)","(1182, 462)","(1194, 471)","(1182, 476)","(1166, 475)","(1074, 586)","(1087, 580)","(1101, 578)","(1112, 582)","(1123, 580)","(1139, 584)","(1154, 593)","(1138, 606)","(1121, 612)","(1109, 613)","(1098, 610)","(1085, 602)","(1081, 587)","(1100, 589)","(1111, 591)","(1122, 591)","(1146, 593)","(1122, 597)","(1111, 598)","(1100, 595)",0.32,0.94,45.0,0.35,0.05,0.34,0.02,-14.5,0.06,0.3,25.0,57.6,105.0,19.9,43.8,101.4,23.94,52.58,91.29
1633,-1835008,96,-56,-1,-1,0,"(1004, 462)","(1001, 496)","(1000, 530)","(1002, 564)","(1010, 598)","(1024, 630)","(1044, 658)","(1069, 681)","(1100, 690)","(1134, 688)","(1165, 670)","(1192, 647)","(1214, 619)","(1228, 587)","(1236, 552)","(1242, 516)","(1245, 480)","(1022, 450)","(1034, 435)","(1055, 430)","(1076, 434)","(1096, 444)","(1135, 445)","(1158, 437)","(1182, 435)","(1205, 443)","(1219, 461)","(1113, 471)","(1110, 493)","(1108, 517)","(1105, 540)","(1084, 553)","(1094, 559)","(1105, 564)","(1117, 561)","(1130, 557)","(1046, 468)","(1058, 461)","(1074, 462)","(1087, 473)","(1072, 477)","(1057, 475)","(1146, 477)","(1161, 468)","(1177, 468)","(1189, 478)","(1177, 483)","(1160, 482)","(1066, 596)","(1079, 590)","(1093, 589)","(1104, 594)","(1116, 591)","(1133, 596)","(1149, 604)","(1132, 618)","(1115, 624)","(1102, 624)","(1090, 621)","(1077, 612)","(1073, 597)","(1092, 599)","(1104, 602)","(1116, 602)","(1141, 604)","(1115, 608)","(1103, 609)","(1092, 606)",0.33,0.97,45.0,0.34,0.05,0.34,0.02,-15.5,0.07,0.31,24.0,57.7,105.0,20.75,44.0,101.4,24.58,52.29,91.41
1666,1245184,96,-56,-1,-1,0,"(1002, 471)","(998, 505)","(998, 539)","(1000, 574)","(1007, 607)","(1021, 640)","(1040, 668)","(1064, 693)","(1095, 702)","(1130, 699)","(1162, 681)","(1189, 657)","(1212, 627)","(1226, 595)","(1234, 559)","(1239, 523)","(1242, 487)","(1016, 457)","(1027, 441)","(1047, 436)","(1069, 440)","(1089, 450)","(1129, 451)","(1153, 442)","(1178, 440)","(1202, 449)","(1216, 468)","(1107, 477)","(1104, 501)","(1102, 524)","(1099, 548)","(1078, 562)","(1088, 568)","(1099, 573)","(1112, 570)","(1125, 566)","(1040, 476)","(1051, 468)","(1068, 469)","(1081, 480)","(1066, 484)","(1050, 483)","(1141, 484)","(1156, 474)","(1173, 475)","(1185, 485)","(1173, 490)","(1156, 489)","(1060, 605)","(1073, 599)","(1088, 598)","(1099, 603)","(1111, 600)","(1128, 605)","(1145, 613)","(1127, 628)","(1109, 634)","(1096, 634)","(1084, 631)","(1070, 622)","(1067, 606)","(1087, 609)","(1098, 612)","(1110, 611)","(1137, 613)","(1109, 618)","(1097, 619)","(1086, 615)",0.34,0.97,45.0,0.35,0.04,0.35,0.02,-16.0,0.07,0.31,24.4,57.4,103.8,19.35,42.7,100.1,22.82,50.17,89.29
1700,-6750208,96,-56,-1,-1,0,"(983, 468)","(979, 504)","(978, 540)","(981, 576)","(990, 612)","(1006, 646)","(1029, 676)","(1057, 701)","(1090, 710)","(1124, 707)","(1155, 689)","(1182, 664)","(1202, 634)","(1216, 600)","(1223, 565)","(1228, 528)","(1230, 491)","(1004, 456)","(1018, 442)","(1040, 438)","(1062, 444)","(1083, 455)","(1125, 455)","(1148, 446)","(1172, 444)","(1196, 451)","(1210, 469)","(1102, 483)","(1100, 507)","(1097, 530)","(1094, 555)","(1071, 568)","(1082, 575)","(1094, 580)","(1107, 577)","(1120, 573)","(1030, 479)","(1043, 472)","(1059, 473)","(1073, 485)","(1058, 488)","(1041, 487)","(1135, 489)","(1151, 479)","(1168, 480)","(1181, 489)","(1168, 495)","(1151, 494)","(1052, 613)","(1066, 607)","(1082, 606)","(1094, 611)","(1106, 608)","(1124, 612)","(1140, 621)","(1123, 636)","(1106, 643)","(1093, 644)","(1080, 641)","(1065, 631)","(1060, 614)","(1082, 617)","(1093, 620)","(1106, 619)","(1132, 621)","(1106, 627)","(1094, 627)","(1081, 624)",0.32,0.94,45.0,0.36,0.07,0.35,0.03,-16.0,0.07,0.31,28.1,62.5,111.1,20.6,43.55,100.4,26.41,56.17,95.23
1733,-2228224,96,-56,-1,-1,0,"(984, 478)","(980, 513)","(981, 549)","(983, 584)","(993, 619)","(1009, 651)","(1030, 680)","(1055, 705)","(1087, 715)","(1121, 712)","(1153, 693)","(1180, 669)","(1203, 641)","(1218, 608)","(1226, 571)","(1233, 534)","(1235, 497)","(1003, 464)","(1016, 448)","(1037, 443)","(1058, 448)","(1079, 458)","(1121, 459)","(1144, 450)","(1169, 448)","(1194, 456)","(1209, 475)","(1098, 487)","(1096, 511)","(1093, 535)","(1090, 560)","(1068, 574)","(1079, 580)","(1091, 585)","(1104, 582)","(1117, 578)","(1029, 484)","(1041, 476)","(1058, 477)","(1071, 490)","(1056, 492)","(1039, 491)","(1133, 494)","(1149, 482)","(1166, 483)","(1179, 493)","(1166, 499)","(1149, 498)","(1051, 617)","(1064, 612)","(1079, 610)","(1090, 615)","(1103, 612)","(1121, 617)","(1138, 625)","(1121, 640)","(1102, 647)","(1089, 648)","(1076, 645)","(1062, 635)","(1058, 618)","(1078, 621)","(1090, 624)","(1103, 623)","(1130, 625)","(1103, 630)","(1090, 631)","(1078, 628)",0.34,0.99,45.0,0.35,0.05,0.34,0.02,-16.5,0.07,0.32,24.2,56.5,102.5,20.2,41.7,98.65,22.76,49.0,87.88
1766,-1310720,96,-56,-1,-1,0,"(983, 477)","(980, 512)","(981, 548)","(984, 583)","(993, 618)","(1009, 650)","(1030, 679)","(1055, 705)","(1087, 714)","(1121, 711)","(1153, 693)","(1181, 669)","(1204, 640)","(1219, 606)","(1226, 570)","(1232, 532)","(1235, 495)","(1002, 463)","(1015, 448)","(1036, 443)","(1057, 448)","(1077, 458)","(1119, 460)","(1142, 451)","(1167, 448)","(1192, 456)","(1208, 475)","(1097, 487)","(1094, 512)","(1091, 536)","(1088, 561)","(1067, 574)","(1077, 580)","(1089, 585)","(1102, 582)","(1115, 578)","(1027, 483)","(1040, 476)","(1057, 477)","(1069, 490)","(1054, 492)","(1038, 491)","(1131, 494)","(1147, 482)","(1164, 483)","(1177, 493)","(1165, 499)","(1147, 498)","(1050, 617)","(1063, 612)","(1078, 611)","(1089, 616)","(1101, 613)","(1119, 617)","(1137, 625)","(1119, 641)","(1101, 648)","(1088, 648)","(1075, 645)","(1061, 635)","(1057, 618)","(1077, 621)","(1089, 624)","(1101, 623)","(1129, 625)","(1101, 631)","(1089, 632)","(1077, 629)",0.34,1.0,45.0,0.35,0.04,0.34,0.03,-16.5,0.07,0.32,24.7,56.0,102.9,21.35,41.85,98.3,23.23,48.64,87.41
1800,327680,96,-56,-1,-1,0,"(981, 475)","(978, 511)","(978, 547)","(982, 582)","(992, 616)","(1009, 648)","(1031, 676)","(1057, 702)","(1089, 711)","(1123, 708)","(1154, 689)","(1181, 665)","(1203, 636)","(1218, 603)","(1226, 567)","(1232, 529)","(1234, 492)","(1002, 460)","(1015, 446)","(1036, 442)","(1057, 447)","(1077, 457)","(1121, 458)","(1143, 449)","(1168, 447)","(1192, 454)","(1208, 472)","(1098, 486)","(1095, 509)","(1093, 533)","(1090, 558)","(1068, 571)","(1079, 577)","(1091, 582)","(1104, 579)","(1117, 575)","(1027, 481)","(1040, 474)","(1056, 475)","(1069, 488)","(1054, 491)","(1038, 489)","(1132, 492)","(1147, 481)","(1165, 481)","(1178, 491)","(1165, 497)","(1148, 497)","(1052, 614)","(1065, 610)","(1080, 608)","(1091, 613)","(1103, 610)","(1121, 615)","(1137, 622)","(1121, 637)","(1103, 644)","(1090, 645)","(1077, 642)","(1064, 632)","(1059, 616)","(1079, 619)","(1091, 622)","(1103, 621)","(1130, 622)","(1103, 627)","(1091, 629)","(1079, 625)",0.34,0.98,45.0,0.34,0.05,0.33,0.02,-16.5,0.07,0.32,25.5,58.0,104.5,18.35,41.8,98.05,25.0,52.7,91.17
1833,4128768,96,-56,-1,-1,0,"(985, 470)","(981, 505)","(981, 540)","(984, 575)","(993, 610)","(1010, 643)","(1032, 671)","(1059, 695)","(1092, 704)","(1126, 701)","(1157, 683)","(1183, 659)","(1204, 629)","(1217, 596)","(1224, 561)","(1228, 525)","(1229, 488)","(1005, 457)","(1019, 442)","(1040, 439)","(1061, 443)","(1082, 454)","(1122, 455)","(1145, 445)","(1170, 443)","(1194, 450)","(1208, 468)","(1101, 481)","(1099, 504)","(1096, 527)","(1094, 552)","(1071, 565)","(1082, 572)","(1094, 576)","(1107, 574)","(1120, 569)","(1030, 478)","(1043, 472)","(1059, 472)","(1072, 483)","(1057, 487)","(1041, 486)","(1134, 487)","(1150, 478)","(1167, 479)","(1179, 487)","(1167, 493)","(1150, 492)","(1055, 609)","(1068, 604)","(1083, 602)","(1094, 607)","(1106, 604)","(1123, 608)","(1140, 617)","(1123, 631)","(1107, 637)","(1094, 637)","(1081, 634)","(1068, 625)","(1063, 611)","(1083, 613)","(1094, 616)","(1106, 615)","(1132, 617)","(1107, 621)","(1094, 622)","(1083, 618)",0.31,0.97,45.0,0.35,0.05,0.34,0.02,-15.0,0.07,0.31,25.9,61.1,109.6,20.75,43.05,99.75,26.7,55.11,94.29
1866,2162688,96,-56,-1,-1,0,"(1002, 469)","(1000, 503)","(1001, 536)","(1004, 570)","(1011, 603)","(1026, 634)","(1045, 661)","(1069, 684)","(1099, 692)","(1133, 689)","(1164, 671)","(1191, 647)","(1212, 618)","(1226, 586)","(1233, 551)","(1238, 515)","(1240, 480)","(1015, 456)","(1026, 440)","(1046, 435)","(1067, 439)","(1087, 449)","(1127, 449)","(1150, 440)","(1174, 438)","(1198, 446)","(1213, 463)","(1106, 475)","(1103, 498)","(1101, 521)","(1099, 545)","(1079, 558)","(1088, 564)","(1099, 568)","(1112, 565)","(1125, 561)","(1040, 475)","(1051, 467)","(1067, 467)","(1080, 478)","(1065, 482)","(1050, 482)","(1139, 481)","(1154, 471)","(1170, 471)","(1183, 481)","(1170, 487)","(1154, 486)","(1064, 601)","(1076, 595)","(1089, 593)","(1100, 597)","(1112, 594)","(1129, 599)","(1145, 607)","(1128, 621)","(1111, 627)","(1098, 628)","(1087, 625)","(1074, 616)","(1071, 602)","(1089, 603)","(1100, 606)","(1112, 605)","(1137, 607)","(1111, 611)","(1099, 612)","(1088, 609)",0.35,0.99,45.0,0.35,0.03,0.34,0.02,-15.5,0.07,0.32,26.2,59.5,106.9,20.3,42.9,100.6,24.47,51.0,89.29
1900,-1835008,96,-56,-1,-1,0,"(1004, 460)","(1002, 493)","(1003, 526)","(1006, 559)","(1014, 591)","(1030, 621)","(1050, 647)","(1075, 670)","(1105, 677)","(1137, 674)","(1167, 657)","(1194, 635)","(1214, 607)","(1228, 576)","(1235, 542)","(1240, 508)","(1242, 473)","(1023, 449)","(1035, 435)","(1055, 430)","(1076, 434)","(1095, 443)","(1133, 443)","(1155, 434)","(1178, 433)","(1201, 440)","(1216, 456)","(1113, 468)","(1111, 489)","(1109, 511)","(1106, 533)","(1086, 547)","(1096, 553)","(1107, 557)","(1119, 554)","(1131, 550)","(1047, 467)","(1059, 460)","(1075, 460)","(1087, 471)","(1073, 474)","(1058, 473)","(1145, 473)","(1159, 463)","(1175, 464)","(1187, 473)","(1175, 478)","(1159, 478)","(1071, 590)","(1084, 583)","(1097, 581)","(1107, 585)","(1119, 582)","(1134, 586)","(1150, 594)","(1134, 606)","(1118, 612)","(1106, 613)","(1095, 610)","(1083, 603)","(1079, 590)","(1096, 591)","(1107, 593)","(1118, 593)","(1142, 594)","(1118, 597)","(1107, 598)","(1096, 595)",0.34,0.93,45.0,0.34,0.03,0.33,0.02,-14.5,0.07,0.31,25.0,55.5,103.0,20.95,44.85,102.0,25.76,53.0,91.7
1933,-2424832,96,-56,-1,-1,0,"(1013, 449)","(1010, 481)","(1009, 513)","(1012, 544)","(1021, 575)","(1037, 605)","(1058, 631)","(1082, 653)","(1112, 661)","(1143, 658)","(1172, 642)","(1198, 620)","(1218, 593)","(1232, 563)","(1238, 530)","(1241, 497)","(1243, 464)","(1035, 438)","(1047, 426)","(1066, 422)","(1086, 426)","(1104, 436)","(1141, 436)","(1161, 427)","(1184, 425)","(1205, 431)","(1219, 446)","(1121, 460)","(1119, 480)","(1117, 500)","(1115, 521)","(1095, 535)","(1105, 540)","(1115, 544)","(1127, 541)","(1138, 538)","(1058, 458)","(1070, 452)","(1084, 452)","(1096, 462)","(1083, 465)","(1068, 464)","(1151, 464)","(1165, 456)","(1180, 457)","(1192, 464)","(1180, 470)","(1165, 469)","(1081, 576)","(1093, 571)","(1106, 568)","(1115, 572)","(1126, 569)","(1141, 573)","(1156, 581)","(1141, 592)","(1126, 597)","(1115, 598)","(1104, 596)","(1092, 589)","(1088, 577)","(1105, 578)","(1115, 580)","(1126, 579)","(1148, 581)","(1126, 583)","(1116, 584)","(1106, 581)",0.31,0.95,45.0,0.34,0.04,0.32,0.02,-13.5,0.07,0.3,26.0,58.5,106.8,20.75,43.85,103.45,23.41,50.7,89.29
1966,-2293760,96,-56,-1,-1,0,"(1034, 444)","(1034, 474)","(1037, 504)","(1043, 533)","(1051, 562)","(1064, 590)","(1081, 614)","(1102, 634)","(1128, 641)","(1157, 638)","(1184, 622)","(1208, 602)","(1227, 577)","(1240, 548)","(1247, 517)","(1252, 485)","(1255, 453)","(1049, 434)","(1060, 421)","(1078, 417)","(1097, 420)","(1116, 428)","(1152, 428)","(1172, 420)","(1194, 419)","(1215, 425)","(1229, 440)","(1133, 451)","(1131, 470)","(1130, 490)","(1128, 511)","(1109, 523)","(1118, 528)","(1128, 532)","(1140, 529)","(1150, 525)","(1073, 450)","(1083, 444)","(1098, 445)","(1109, 454)","(1096, 457)","(1082, 457)","(1163, 456)","(1175, 448)","(1190, 448)","(1202, 456)","(1190, 461)","(1176, 460)","(1096, 562)","(1107, 556)","(1119, 554)","(1129, 558)","(1139, 555)","(1154, 559)","(1168, 566)","(1153, 578)","(1139, 583)","(1128, 584)","(1117, 582)","(1106, 574)","(1103, 562)","(1119, 563)","(1128, 565)","(1139, 564)","(1160, 566)","(1139, 569)","(1128, 570)","(1119, 568)",0.32,0.96,45.0,0.34,0.03,0.32,0.02,-13.0,0.07,0.31,25.3,56.6,105.2,19.55,43.3,101.85,17.76,41.82,79.05
2000,-2686976,96,-56,-1,-1,0,"(1052, 441)","(1051, 469)","(1053, 498)","(1056, 526)","(1064, 553)","(1076, 579)","(1093, 601)","(1113, 620)","(1139, 626)","(1167, 623)","(1193, 608)","(1215, 588)","(1233, 565)","(1245, 538)","(1251, 509)","(1255, 479)","(1256, 449)","(1067, 430)","(1077, 417)","(1094, 412)","(1112, 415)","(1129, 422)","(1162, 423)","(1181, 415)","(1201, 414)","(1220, 420)","(1233, 434)","(1144, 443)","(1142, 462)","(1141, 481)","(1139, 500)","(1122, 513)","(1130, 517)","(1140, 521)","(1150, 518)","(1160, 514)","(1088, 444)","(1098, 438)","(1111, 438)","(1122, 447)","(1110, 450)","(1097, 450)","(1172, 449)","(1184, 440)","(1198, 441)","(1208, 449)","(1198, 454)","(1184, 453)","(1108, 551)","(1119, 545)","(1131, 542)","(1140, 545)","(1150, 543)","(1163, 547)","(1176, 554)","(1163, 565)","(1149, 571)","(1139, 571)","(1129, 569)","(1118, 563)","(1115, 551)","(1130, 551)","(1140, 553)","(1149, 552)","(1170, 554)","(1149, 557)","(1139, 558)","(1130, 556)",0.36,0.91,45.0,0.34,0.01,0.33,0.02,-13.0,0.07,0.31,21.6,55.3,102.5,19.4,42.55,101.45,18.11,43.94,83.64
2033,-2949120,96,-56,-1,-1,0,"(1066, 433)","(1064, 460)","(1066, 487)","(1069, 513)","(1076, 540)","(1088, 565)","(1104, 587)","(1125, 605)","(1150, 611)","(1176, 608)","(1200, 594)","(1222, 576)","(1239, 554)","(1250, 529)","(1255, 501)","(1258, 473)","(1259, 444)","(1081, 424)","(1091, 412)","(1107, 408)","(1124, 411)","(1141, 419)","(1173, 419)","(1190, 411)","(1209, 410)","(1227, 415)","(1239, 428)","(1155, 439)","(1154, 456)","(1152, 472)","(1151, 490)","(1134, 503)","(1142, 507)","(1151, 510)","(1161, 508)","(1171, 505)","(1101, 439)","(1111, 433)","(1124, 433)","(1135, 442)","(1123, 445)","(1110, 444)","(1181, 443)","(1193, 436)","(1206, 437)","(1216, 443)","(1206, 448)","(1193, 448)","(1121, 539)","(1131, 533)","(1143, 531)","(1151, 534)","(1160, 532)","(1173, 535)","(1186, 542)","(1173, 552)","(1161, 557)","(1151, 558)","(1141, 556)","(1131, 551)","(1127, 540)","(1142, 540)","(1151, 541)","(1160, 540)","(1180, 542)","(1160, 545)","(1151, 546)","(1142, 544)",0.32,0.94,45.0,0.35,0.02,0.33,0.02,-12.0,0.08,0.29,22.6,53.5,103.2,18.7,42.5,101.45,16.94,42.05,80.29
2066,-2752512,96,-56,-1,-1,0,"(1081, 428)","(1081, 454)","(1083, 479)","(1087, 503)","(1094, 527)","(1106, 550)","(1121, 571)","(1140, 588)","(1162, 594)","(1187, 591)","(1209, 578)","(1230, 560)","(1245, 539)","(1256, 515)","(1261, 488)","(1265, 461)","(1267, 434)","(1095, 418)","(1104, 407)","(1120, 403)","(1136, 406)","(1152, 413)","(1182, 413)","(1199, 406)","(1217, 404)","(1235, 409)","(1246, 421)","(1166, 432)","(1165, 448)","(1163, 465)","(1162, 482)","(1146, 493)","(1154, 497)","(1162, 500)","(1172, 498)","(1181, 494)","(1114, 431)","(1123, 426)","(1136, 426)","(1146, 434)","(1135, 437)","(1122, 437)","(1191, 436)","(1202, 428)","(1214, 428)","(1224, 435)","(1215, 440)","(1202, 439)","(1134, 527)","(1144, 521)","(1155, 519)","(1163, 522)","(1171, 519)","(1184, 523)","(1196, 530)","(1184, 541)","(1171, 546)","(1162, 547)","(1153, 545)","(1143, 539)","(1140, 528)","(1154, 527)","(1163, 528)","(1171, 528)","(1190, 530)","(1171, 533)","(1163, 534)","(1154, 533)",0.34,0.95,45.0,0.35,0.01,0.33,0.03,-11.5,0.08,0.3,25.6,55.6,106.5,19.05,43.95,101.75,15.35,39.17,78.52
2100,-3276800,96,-56,-1,-1,0,"(1093, 416)","(1092, 440)","(1093, 464)","(1097, 487)","(1105, 510)","(1117, 532)","(1132, 552)","(1150, 569)","(1173, 574)","(1196, 571)","(1217, 558)","(1236, 541)","(1251, 521)","(1261, 498)","(1266, 472)","(1269, 447)","(1270, 421)","(1107, 405)","(1116, 395)","(1131, 392)","(1146, 395)","(1161, 402)","(1190, 402)","(1206, 395)","(1223, 393)","(1239, 397)","(1251, 408)","(1175, 421)","(1174, 436)","(1173, 451)","(1171, 467)","(1157, 478)","(1164, 482)","(1172, 485)","(1181, 483)","(1190, 479)","(1125, 420)","(1134, 415)","(1146, 415)","(1156, 423)","(1145, 425)","(1134, 425)","(1199, 424)","(1209, 417)","(1221, 417)","(1230, 423)","(1221, 428)","(1210, 427)","(1145, 511)","(1154, 504)","(1165, 502)","(1172, 504)","(1181, 502)","(1193, 505)","(1204, 512)","(1193, 524)","(1181, 529)","(1172, 530)","(1164, 529)","(1154, 523)","(1151, 511)","(1165, 510)","(1172, 511)","(1180, 511)","(1198, 512)","(1181, 518)","(1173, 518)","(1165, 517)",0.33,0.94,45.0,0.35,0.02,0.33,0.03,-10.5,0.08,0.3,25.0,58.2,110.2,19.55,43.9,102.65,14.11,35.7,74.94
2133,-2818048,96,-56,-1,-1,0,"(1102, 403)","(1099, 426)","(1099, 448)","(1102, 470)","(1111, 492)","(1123, 513)","(1138, 533)","(1155, 550)","(1177, 556)","(1199, 554)","(1220, 541)","(1240, 525)","(1255, 505)","(1265, 483)","(1270, 458)","(1273, 434)","(1273, 409)","(1116, 388)","(1126, 380)","(1139, 378)","(1154, 381)","(1168, 389)","(1197, 389)","(1212, 382)","(1228, 380)","(1244, 384)","(1254, 394)","(1182, 408)","(1181, 422)","(1180, 436)","(1178, 451)","(1163, 462)","(1171, 466)","(1179, 469)","(1188, 467)","(1196, 464)","(1133, 406)","(1143, 402)","(1154, 402)","(1163, 409)","(1153, 412)","(1142, 411)","(1205, 411)","(1215, 404)","(1226, 405)","(1235, 410)","(1227, 415)","(1215, 414)","(1152, 492)","(1161, 487)","(1172, 485)","(1179, 487)","(1186, 486)","(1199, 489)","(1210, 495)","(1199, 507)","(1187, 512)","(1178, 513)","(1170, 512)","(1161, 505)","(1158, 493)","(1171, 493)","(1179, 494)","(1186, 494)","(1204, 495)","(1186, 501)","(1179, 501)","(1171, 500)",0.33,0.98,45.0,0.35,0.05,0.33,0.03,-10.5,0.08,0.29,27.8,60.8,111.9,19.15,44.05,102.9,14.76,35.29,71.64
2166,7340032,96,-56,-1,-1,0,"(1116, 402)","(1115, 424)","(1117, 447)","(1120, 468)","(1126, 490)","(1136, 509)","(1149, 526)","(1166, 539)","(1187, 543)","(1208, 540)","(1229, 529)","(1246, 514)","(1259, 496)","(1267, 475)","(1271, 453)","(1273, 430)","(1274, 407)","(1126, 388)","(1134, 377)","(1147, 373)","(1162, 375)","(1176, 381)","(1202, 381)","(1217, 375)","(1233, 374)","(1248, 379)","(1257, 391)","(1188, 399)","(1187, 412)","(1186, 426)","(1185, 440)","(1172, 452)","(1178, 456)","(1186, 458)","(1194, 456)","(1201, 453)","(1143, 401)","(1151, 395)","(1162, 395)","(1171, 402)","(1161, 405)","(1151, 405)","(1210, 403)","(1220, 397)","(1231, 397)","(1239, 404)","(1231, 407)","(1220, 407)","(1160, 484)","(1168, 478)","(1178, 476)","(1185, 478)","(1193, 476)","(1204, 479)","(1215, 486)","(1204, 494)","(1193, 497)","(1185, 498)","(1177, 497)","(1168, 493)","(1164, 484)","(1178, 483)","(1185, 484)","(1193, 484)","(1209, 485)","(1193, 487)","(1186, 488)","(1178, 487)",0.34,0.94,45.0,0.36,0.02,0.34,0.02,-10.0,0.08,0.28,20.9,53.3,101.7,17.55,39.05,96.7,14.94,37.11,77.47
2200,-7798784,96,-56,-1,-1,0,"(1125, 401)","(1124, 422)","(1125, 443)","(1127, 464)","(1133, 485)","(1143, 503)","(1156, 519)","(1172, 531)","(1192, 535)","(1213, 532)","(1232, 521)","(1248, 507)","(1260, 490)","(1268, 470)","(1271, 448)","(1274, 427)","(1274, 405)","(1134, 387)","(1141, 376)","(1155, 372)","(1169, 374)","(1182, 379)","(1207, 380)","(1221, 374)","(1237, 372)","(1251, 377)","(1260, 389)","(1194, 396)","(1193, 410)","(1192, 423)","(1191, 437)","(1177, 448)","(1184, 451)","(1191, 453)","(1199, 451)","(1207, 449)","(1150, 399)","(1157, 393)","(1168, 393)","(1176, 400)","(1167, 403)","(1157, 403)","(1215, 401)","(1224, 394)","(1235, 395)","(1243, 401)","(1235, 404)","(1224, 404)","(1166, 479)","(1174, 473)","(1184, 470)","(1191, 473)","(1199, 471)","(1209, 474)","(1219, 481)","(1209, 489)","(1199, 493)","(1191, 494)","(1183, 493)","(1174, 489)","(1170, 480)","(1184, 478)","(1191, 479)","(1199, 478)","(1214, 481)","(1198, 483)","(1191, 484)","(1183, 483)",0.33,0.91,45.0,0.36,0.0,0.35,0.03,-10.0,0.08,0.29,20.2,51.4,97.8,15.15,35.3,92.9,15.64,37.0,75.47
2233,-2097152,96,-56,-1,-1,0,"(1130, 400)","(1129, 421)","(1131, 441)","(1133, 462)","(1138, 482)","(1147, 500)","(1160, 516)","(1176, 529)","(1195, 534)","(1215, 531)","(1234, 520)","(1251, 506)","(1264, 489)","(1272, 469)","(1276, 448)","(1279, 427)","(1280, 404)","(1139, 389)","(1147, 379)","(1160, 375)","(1173, 377)","(1186, 383)","(1211, 383)","(1226, 377)","(1241, 376)","(1256, 381)","(1265, 392)","(1198, 399)","(1197, 412)","(1196, 425)","(1195, 439)","(1182, 449)","(1188, 453)","(1195, 455)","(1203, 453)","(1210, 450)","(1156, 400)","(1163, 395)","(1173, 395)","(1182, 402)","(1172, 405)","(1162, 404)","(1219, 403)","(1228, 397)","(1238, 397)","(1246, 403)","(1238, 407)","(1228, 406)","(1171, 479)","(1179, 474)","(1188, 472)","(1195, 474)","(1202, 472)","(1212, 475)","(1221, 481)","(1211, 489)","(1201, 493)","(1194, 493)","(1186, 492)","(1178, 488)","(1175, 479)","(1188, 478)","(1194, 480)","(1202, 479)","(1216, 481)","(1201, 483)","(1194, 484)","(1187, 483)",0.35,0.9,45.0,0.35,0.01,0.33,0.02,-10.0,0.08,0.29,22.2,52.1,101.4,14.8,35.65,91.0,13.41,36.11,72.11
2266,-1179648,96,-56,-1,-1,0,"(1132, 407)","(1132, 427)","(1134, 447)","(1137, 467)","(1142, 486)","(1151, 504)","(1164, 519)","(1179, 531)","(1198, 536)","(1218, 533)","(1236, 523)","(1252, 510)","(1264, 494)","(1272, 475)","(1276, 455)","(1280, 434)","(1282, 412)","(1143, 395)","(1151, 386)","(1164, 382)","(1177, 384)","(1190, 390)","(1215, 390)","(1228, 384)","(1243, 383)","(1257, 388)","(1266, 399)","(1202, 405)","(1201, 418)","(1200, 430)","(1199, 444)","(1186, 454)","(1192, 457)","(1199, 459)","(1206, 458)","(1213, 455)","(1160, 406)","(1167, 401)","(1177, 401)","(1185, 408)","(1176, 410)","(1166, 410)","(1221, 409)","(1230, 403)","(1240, 403)","(1248, 409)","(1240, 413)","(1230, 412)","(1175, 483)","(1183, 477)","(1192, 475)","(1198, 477)","(1205, 476)","(1215, 479)","(1224, 485)","(1215, 493)","(1205, 496)","(1198, 497)","(1191, 496)","(1183, 492)","(1179, 483)","(1192, 482)","(1198, 483)","(1205, 482)","(1220, 485)","(1205, 487)","(1198, 487)","(1191, 486)",0.35,0.93,46.0,0.34,0.03,0.32,0.02,-9.5,0.07,0.29,20.8,49.3,96.9,15.9,37.5,93.85,15.82,38.41,76.05
2300,2031616,96,-56,-1,-1,0,"(1140, 410)","(1139, 430)","(1140, 450)","(1141, 469)","(1146, 488)","(1155, 506)","(1167, 522)","(1182, 534)","(1200, 538)","(1220, 536)","(1238, 526)","(1253, 512)","(1265, 495)","(1272, 477)","(1276, 457)","(1278, 437)","(1279, 416)","(1149, 401)","(1157, 391)","(1169, 388)","(1182, 391)","(1194, 397)","(1217, 397)","(1230, 391)","(1244, 390)","(1258, 395)","(1266, 405)","(1205, 411)","(1204, 424)","(1203, 437)","(1202, 450)","(1189, 459)","(1195, 462)","(1202, 465)","(1209, 463)","(1216, 460)","(1165, 411)","(1172, 407)","(1181, 407)","(1189, 413)","(1180, 416)","(1171, 415)","(1224, 415)","(1232, 409)","(1242, 409)","(1249, 415)","(1242, 418)","(1232, 418)","(1178, 486)","(1186, 482)","(1195, 480)","(1202, 482)","(1209, 481)","(1218, 483)","(1227, 489)","(1218, 497)","(1208, 501)","(1201, 501)","(1193, 500)","(1185, 495)","(1182, 487)","(1195, 486)","(1201, 487)","(1208, 487)","(1223, 489)","(1208, 491)","(1201, 492)","(1194, 490)",0.36,0.89,46.0,0.35,0.03,0.35,0.03,-9.0,0.07,0.3,19.2,50.7,98.2,15.3,35.7,90.7,14.05,38.23,78.17
2333,5898240,96,-56,-1,-1,0,"(1143, 415)","(1142, 434)","(1142, 453)","(1144, 473)","(1148, 491)","(1157, 509)","(1169, 524)","(1184, 535)","(1202, 539)","(1221, 537)","(1238, 527)","(1253, 514)","(1264, 498)","(1271, 480)","(1275, 461)","(1277, 441)","(1278, 422)","(1153, 406)","(1160, 397)","(1172, 394)","(1185, 396)","(1196, 402)","(1219, 402)","(1232, 396)","(1245, 395)","(1258, 400)","(1266, 410)","(1207, 416)","(1206, 428)","(1205, 440)","(1204, 453)","(1191, 462)","(1197, 465)","(1204, 468)","(1211, 466)","(1218, 463)","(1167, 416)","(1174, 411)","(1183, 411)","(1191, 418)","(1182, 420)","(1173, 420)","(1225, 419)","(1234, 413)","(1243, 414)","(1250, 419)","(1243, 423)","(1233, 422)","(1180, 489)","(1188, 485)","(1197, 483)","(1203, 485)","(1210, 483)","(1219, 486)","(1228, 491)","(1219, 499)","(1210, 503)","(1202, 503)","(1195, 502)","(1187, 498)","(1184, 489)","(1196, 489)","(1203, 490)","(1210, 489)","(1224, 491)","(1210, 494)","(1203, 494)","(1196, 493)",0.36,0.89,46.0,0.36,0.03,0.35,0.02,-9.5,0.08,0.3,18.4,47.6,93.4,13.95,33.35,85.9,16.64,40.58,80.0
2366,1245184,96,-56,-1,-1,0,"(1144, 415)","(1143, 434)","(1143, 453)","(1145, 471)","(1149, 490)","(1158, 507)","(1169, 522)","(1184, 534)","(1202, 538)","(1221, 536)","(1238, 526)","(1253, 513)","(1264, 498)","(1271, 480)","(1274, 461)","(1277, 442)","(1278, 422)","(1154, 407)","(1161, 398)","(1173, 396)","(1186, 398)","(1198, 404)","(1219, 404)","(1232, 398)","(1245, 397)","(1258, 402)","(1266, 412)","(1207, 418)","(1207, 430)","(1206, 441)","(1205, 454)","(1192, 462)","(1198, 465)","(1204, 468)","(1211, 466)","(1218, 464)","(1168, 417)","(1175, 412)","(1185, 413)","(1192, 419)","(1183, 421)","(1174, 421)","(1225, 421)","(1233, 415)","(1243, 415)","(1250, 421)","(1243, 424)","(1234, 424)","(1180, 489)","(1188, 484)","(1197, 483)","(1204, 485)","(1210, 483)","(1219, 486)","(1228, 491)","(1219, 499)","(1210, 503)","(1203, 503)","(1196, 502)","(1187, 498)","(1185, 489)","(1197, 489)","(1203, 490)","(1210, 489)","(1224, 491)","(1210, 494)","(1203, 495)","(1196, 494)",0.36,0.88,46.0,0.36,0.04,0.35,0.02,-9.0,0.08,0.3,19.5,45.9,93.5,15.05,34.7,89.2,15.76,39.11,78.82
2400,-1376256,96,-56,-1,-1,0,"(1145, 414)","(1144, 433)","(1144, 452)","(1146, 470)","(1150, 488)","(1158, 505)","(1170, 520)","(1185, 532)","(1202, 537)","(1220, 535)","(1237, 525)","(1252, 512)","(1263, 496)","(1270, 478)","(1274, 459)","(1276, 440)","(1277, 420)","(1154, 407)","(1161, 399)","(1173, 396)","(1185, 398)","(1197, 403)","(1218, 403)","(1231, 398)","(1244, 397)","(1257, 401)","(1265, 411)","(1207, 417)","(1206, 429)","(1205, 441)","(1204, 454)","(1192, 462)","(1198, 465)","(1204, 467)","(1211, 466)","(1217, 463)","(1169, 417)","(1175, 412)","(1184, 412)","(1192, 419)","(1183, 421)","(1175, 420)","(1225, 420)","(1233, 414)","(1242, 415)","(1249, 420)","(1242, 423)","(1233, 423)","(1181, 488)","(1189, 484)","(1197, 482)","(1203, 484)","(1210, 483)","(1219, 485)","(1227, 490)","(1218, 498)","(1209, 502)","(1202, 502)","(1195, 501)","(1188, 497)","(1185, 488)","(1197, 488)","(1203, 489)","(1209, 488)","(1223, 490)","(1209, 493)","(1203, 494)","(1196, 492)",0.35,0.89,46.0,0.35,0.03,0.34,0.03,-9.0,0.07,0.3,18.6,46.7,94.9,13.2,31.75,87.25,15.35,38.47,77.52
2433,-1900544,96,-56,-1,-1,0,"(1144, 414)","(1143, 433)","(1144, 451)","(1145, 469)","(1150, 487)","(1159, 504)","(1170, 519)","(1185, 531)","(1202, 535)","(1220, 533)","(1237, 523)","(1251, 510)","(1262, 494)","(1269, 476)","(1273, 458)","(1275, 439)","(1276, 420)","(1153, 407)","(1161, 398)","(1172, 395)","(1185, 397)","(1196, 403)","(1218, 403)","(1230, 398)","(1244, 397)","(1257, 401)","(1264, 410)","(1206, 417)","(1205, 429)","(1205, 441)","(1204, 453)","(1191, 461)","(1197, 464)","(1203, 467)","(1210, 465)","(1217, 462)","(1168, 416)","(1174, 411)","(1184, 412)","(1191, 418)","(1183, 420)","(1174, 420)","(1224, 420)","(1232, 414)","(1242, 414)","(1248, 419)","(1242, 423)","(1232, 423)","(1181, 486)","(1188, 483)","(1197, 481)","(1203, 483)","(1209, 482)","(1218, 484)","(1227, 489)","(1218, 497)","(1209, 501)","(1202, 501)","(1195, 500)","(1187, 495)","(1185, 487)","(1197, 487)","(1203, 488)","(1209, 488)","(1223, 489)","(1209, 492)","(1203, 492)","(1196, 491)",0.37,0.93,46.0,0.35,0.02,0.34,0.03,-9.0,0.08,0.3,18.8,46.3,94.3,14.1,32.55,86.35,14.52,37.82,77.94
2466,-1310720,96,-56,-1,-1,0,"(1143, 413)","(1143, 432)","(1143, 451)","(1145, 469)","(1149, 487)","(1158, 504)","(1169, 518)","(1184, 530)","(1201, 534)","(1219, 532)","(1236, 522)","(1250, 509)","(1261, 494)","(1268, 476)","(1272, 457)","(1274, 438)","(1276, 419)","(1153, 406)","(1160, 397)","(1172, 394)","(1184, 396)","(1196, 402)","(1217, 402)","(1230, 397)","(1243, 396)","(1256, 400)","(1263, 410)","(1206, 415)","(1205, 427)","(1204, 439)","(1203, 452)","(1191, 460)","(1197, 463)","(1203, 465)","(1210, 464)","(1216, 461)","(1167, 415)","(1174, 410)","(1183, 411)","(1190, 417)","(1182, 419)","(1173, 419)","(1223, 419)","(1231, 413)","(1241, 413)","(1247, 419)","(1241, 422)","(1231, 422)","(1180, 486)","(1188, 482)","(1196, 480)","(1202, 482)","(1209, 481)","(1218, 483)","(1226, 488)","(1217, 496)","(1208, 499)","(1201, 499)","(1195, 498)","(1187, 494)","(1184, 486)","(1196, 486)","(1202, 487)","(1209, 486)","(1222, 488)","(1208, 490)","(1202, 491)","(1196, 490)",0.37,0.89,46.0,0.35,0.03,0.34,0.02,-9.0,0.07,0.31,18.8,47.0,94.1,12.25,32.3,85.6,14.88,37.88,77.88
2500,-1310720,96,-56,-1,-1,0,"(1142, 412)","(1141, 431)","(1142, 449)","(1143, 468)","(1148, 486)","(1156, 503)","(1168, 518)","(1183, 530)","(1200, 534)","(1218, 532)","(1235, 522)","(1249, 509)","(1260, 493)","(1267, 476)","(1271, 457)","(1273, 438)","(1275, 418)","(1152, 405)","(1159, 396)","(1171, 393)","(1184, 395)","(1195, 401)","(1217, 401)","(1229, 396)","(1243, 395)","(1255, 399)","(1263, 409)","(1205, 414)","(1204, 427)","(1204, 439)","(1203, 451)","(1190, 459)","(1196, 462)","(1202, 465)","(1209, 463)","(1216, 461)","(1166, 414)","(1173, 409)","(1182, 410)","(1190, 416)","(1181, 418)","(1172, 418)","(1223, 418)","(1231, 412)","(1240, 412)","(1247, 418)","(1240, 421)","(1231, 421)","(1179, 485)","(1187, 481)","(1195, 480)","(1202, 482)","(1208, 480)","(1217, 483)","(1225, 488)","(1216, 496)","(1207, 499)","(1200, 500)","(1193, 499)","(1185, 494)","(1183, 486)","(1195, 485)","(1201, 487)","(1208, 486)","(1221, 488)","(1207, 490)","(1201, 491)","(1194, 490)",0.37,0.89,46.0,0.36,0.03,0.34,0.03,-9.0,0.08,0.3,18.2,47.1,95.3,13.95,33.5,88.5,14.58,37.29,76.76
2533,-1769472,97,-56,-1,-1,0,"(1140, 412)","(1139, 431)","(1140, 450)","(1142, 469)","(1146, 487)","(1155, 504)","(1167, 519)","(1181, 531)","(1198, 535)","(1217, 533)","(1233, 523)","(1247, 509)","(1259, 494)","(1265, 476)","(1269, 457)","(1272, 438)","(1274, 418)","(1150, 405)","(1157, 396)","(1170, 393)","(1182, 395)","(1194, 401)","(1215, 401)","(1228, 396)","(1242, 395)","(1254, 399)","(1262, 409)","(1204, 414)","(1203, 427)","(1202, 439)","(1201, 452)","(1188, 460)","(1194, 463)","(1201, 465)","(1208, 463)","(1214, 461)","(1164, 414)","(1171, 409)","(1181, 410)","(1188, 416)","(1179, 418)","(1170, 418)","(1221, 418)","(1229, 412)","(1239, 412)","(1246, 418)","(1239, 421)","(1230, 420)","(1177, 485)","(1185, 481)","(1194, 480)","(1200, 482)","(1207, 481)","(1216, 483)","(1224, 488)","(1215, 496)","(1206, 500)","(1199, 500)","(1192, 499)","(1184, 494)","(1181, 486)","(1194, 486)","(1200, 487)","(1207, 486)","(1220, 488)","(1206, 491)","(1199, 491)","(1193, 490)",0.34,0.88,46.0,0.36,0.03,0.35,0.02,-9.0,0.07,0.31,17.5,47.0,94.9,13.4,33.7,87.85,13.76,37.76,77.52
2566,-1703936,97,-56,-1,-1,0,"(1135, 413)","(1135, 433)","(1136, 452)","(1137, 471)","(1142, 490)","(1151, 507)","(1163, 522)","(1179, 534)","(1197, 537)","(1215, 535)","(1231, 525)","(1245, 512)","(1256, 496)","(1262, 478)","(1265, 460)","(1268, 440)","(1269, 421)","(1146, 406)","(1155, 398)","(1167, 395)","(1179, 397)","(1191, 403)","(1214, 403)","(1226, 398)","(1239, 397)","(1251, 401)","(1259, 410)","(1202, 417)","(1201, 429)","(1200, 441)","(1200, 454)","(1186, 463)","(1192, 466)","(1199, 468)","(1206, 466)","(1212, 464)","(1161, 416)","(1169, 412)","(1178, 412)","(1186, 418)","(1177, 420)","(1168, 420)","(1219, 420)","(1227, 414)","(1237, 414)","(1243, 420)","(1237, 423)","(1227, 423)","(1175, 488)","(1183, 484)","(1192, 483)","(1198, 485)","(1204, 484)","(1213, 486)","(1222, 490)","(1213, 497)","(1204, 501)","(1198, 501)","(1191, 500)","(1182, 496)","(1179, 488)","(1192, 489)","(1198, 490)","(1204, 489)","(1217, 490)","(1204, 492)","(1198, 493)","(1192, 491)",0.37,0.89,46.0,0.36,0.04,0.35,0.02,-8.5,0.07,0.3,19.0,47.9,96.3,12.85,31.9,85.25,16.17,36.88,77.05
2600,-1507328,97,-56,-1,-1,0,"(1133, 414)","(1133, 434)","(1134, 454)","(1136, 473)","(1140, 492)","(1149, 510)","(1162, 524)","(1177, 536)","(1196, 540)","(1214, 537)","(1231, 527)","(1245, 513)","(1255, 497)","(1261, 479)","(1264, 460)","(1267, 441)","(1267, 421)","(1143, 408)","(1151, 400)","(1164, 397)","(1176, 400)","(1189, 406)","(1211, 406)","(1223, 400)","(1237, 399)","(1249, 402)","(1257, 412)","(1199, 419)","(1199, 432)","(1198, 444)","(1197, 457)","(1184, 465)","(1190, 468)","(1197, 471)","(1204, 469)","(1210, 466)","(1158, 418)","(1166, 413)","(1175, 414)","(1183, 421)","(1174, 423)","(1165, 422)","(1217, 422)","(1225, 416)","(1235, 416)","(1242, 421)","(1235, 425)","(1225, 425)","(1173, 491)","(1181, 487)","(1190, 486)","(1197, 488)","(1203, 486)","(1212, 488)","(1220, 492)","(1212, 500)","(1203, 504)","(1196, 505)","(1189, 504)","(1181, 500)","(1177, 491)","(1190, 492)","(1196, 493)","(1203, 492)","(1216, 492)","(1203, 495)","(1196, 496)","(1190, 495)",0.35,0.86,46.0,0.37,0.04,0.35,0.02,-9.5,0.08,0.31,19.6,48.8,97.0,12.4,31.95,83.7,13.47,35.29,74.7
2633,-2031616,97,-56,-1,-1,0,"(1132, 413)","(1132, 433)","(1133, 453)","(1135, 472)","(1139, 492)","(1148, 509)","(1160, 524)","(1175, 536)","(1194, 540)","(1212, 537)","(1229, 527)","(1243, 513)","(1253, 496)","(1260, 478)","(1263, 459)","(1266, 440)","(1267, 420)","(1141, 407)","(1149, 399)","(1162, 396)","(1175, 399)","(1187, 405)","(1209, 405)","(1222, 400)","(1235, 398)","(1248, 402)","(1256, 411)","(1198, 418)","(1197, 431)","(1196, 444)","(1195, 457)","(1183, 465)","(1188, 468)","(1195, 471)","(1202, 469)","(1208, 466)","(1157, 417)","(1164, 412)","(1174, 413)","(1181, 420)","(1173, 422)","(1163, 421)","(1215, 421)","(1224, 415)","(1233, 415)","(1240, 421)","(1233, 425)","(1224, 424)","(1171, 490)","(1179, 487)","(1188, 486)","(1194, 488)","(1201, 486)","(1210, 488)","(1218, 492)","(1210, 500)","(1201, 504)","(1194, 505)","(1187, 504)","(1178, 499)","(1175, 491)","(1188, 491)","(1194, 492)","(1201, 492)","(1214, 492)","(1201, 495)","(1194, 496)","(1188, 495)",0.38,0.88,46.0,0.36,0.04,0.34,0.03,-10.0,0.07,0.31,21.9,51.0,98.5,11.8,30.85,84.1,13.47,35.47,72.94
2666,4063232,97,-56,-1,-1,0,"(1130, 411)","(1130, 432)","(1132, 451)","(1134, 471)","(1138, 490)","(1147, 508)","(1159, 523)","(1174, 535)","(1192, 539)","(1211, 536)","(1228, 525)","(1242, 511)","(1252, 494)","(1258, 476)","(1262, 457)","(1265, 438)","(1266, 418)","(1139, 405)","(1147, 396)","(1159, 394)","(1172, 396)","(1184, 402)","(1208, 402)","(1221, 397)","(1234, 395)","(1247, 399)","(1255, 408)","(1195, 415)","(1195, 428)","(1194, 442)","(1193, 456)","(1180, 463)","(1186, 466)","(1193, 469)","(1200, 467)","(1207, 464)","(1154, 415)","(1161, 410)","(1171, 410)","(1179, 417)","(1170, 419)","(1160, 419)","(1214, 418)","(1222, 412)","(1232, 413)","(1239, 418)","(1232, 422)","(1222, 421)","(1169, 489)","(1177, 485)","(1186, 484)","(1192, 486)","(1199, 484)","(1208, 486)","(1217, 490)","(1208, 498)","(1199, 502)","(1192, 503)","(1185, 502)","(1177, 497)","(1173, 489)","(1186, 489)","(1192, 490)","(1199, 490)","(1213, 490)","(1199, 493)","(1192, 494)","(1186, 493)",0.36,0.88,46.0,0.36,0.03,0.35,0.03,-9.5,0.08,0.33,19.6,47.9,95.9,12.35,31.3,84.95,13.41,36.23,75.47
2700,-3932160,97,-56,-1,-1,0,"(1128, 408)","(1128, 428)","(1129, 448)","(1131, 468)","(1136, 487)","(1145, 505)","(1157, 520)","(1171, 533)","(1189, 537)","(1208, 534)","(1225, 523)","(1240, 509)","(1251, 493)","(1258, 474)","(1261, 454)","(1264, 434)","(1266, 414)","(1137, 401)","(1145, 393)","(1157, 390)","(1170, 392)","(1182, 398)","(1205, 398)","(1219, 393)","(1232, 392)","(1245, 396)","(1254, 405)","(1193, 412)","(1193, 425)","(1192, 439)","(1191, 453)","(1178, 460)","(1184, 463)","(1191, 466)","(1198, 464)","(1205, 461)","(1152, 411)","(1159, 406)","(1169, 407)","(1177, 414)","(1168, 416)","(1158, 416)","(1212, 415)","(1220, 409)","(1230, 409)","(1237, 415)","(1230, 419)","(1220, 418)","(1167, 486)","(1175, 483)","(1184, 481)","(1190, 484)","(1197, 482)","(1206, 484)","(1215, 488)","(1205, 496)","(1196, 500)","(1189, 501)","(1182, 500)","(1174, 495)","(1171, 487)","(1183, 487)","(1190, 488)","(1197, 488)","(1210, 488)","(1196, 491)","(1190, 492)","(1183, 490)",0.38,0.88,46.0,0.36,0.03,0.34,0.03,-10.0,0.08,0.32,20.3,49.6,98.9,12.6,30.3,83.9,11.58,33.05,71.88
2733,-1310720,97,-56,-1,-1,0,"(1125, 406)","(1125, 426)","(1126, 446)","(1128, 466)","(1133, 486)","(1142, 504)","(1154, 519)","(1169, 532)","(1187, 536)","(1207, 534)","(1224, 523)","(1239, 508)","(1250, 492)","(1257, 473)","(1261, 453)","(1264, 432)","(1266, 412)","(1135, 398)","(1143, 389)","(1155, 386)","(1168, 389)","(1180, 395)","(1204, 396)","(1217, 390)","(1230, 389)","(1244, 392)","(1253, 402)","(1191, 409)","(1190, 423)","(1189, 436)","(1188, 450)","(1175, 458)","(1181, 461)","(1188, 464)","(1195, 462)","(1202, 459)","(1150, 408)","(1157, 403)","(1167, 404)","(1174, 411)","(1165, 413)","(1156, 413)","(1210, 413)","(1219, 406)","(1229, 407)","(1236, 412)","(1229, 416)","(1219, 416)","(1164, 485)","(1172, 481)","(1181, 480)","(1188, 482)","(1194, 480)","(1204, 483)","(1212, 487)","(1203, 496)","(1194, 499)","(1187, 500)","(1179, 499)","(1171, 494)","(1168, 486)","(1181, 486)","(1187, 487)","(1194, 486)","(1208, 487)","(1194, 490)","(1187, 490)","(1180, 489)",0.36,0.9,45.0,0.35,0.02,0.34,0.02,-10.0,0.07,0.32,19.4,49.3,98.5,13.2,31.6,86.1,11.64,33.47,70.58
2766,-196608,97,-56,-1,-1,0,"(1121, 407)","(1121, 427)","(1122, 448)","(1124, 468)","(1130, 487)","(1139, 505)","(1152, 521)","(1167, 533)","(1186, 537)","(1205, 534)","(1223, 523)","(1238, 509)","(1250, 492)","(1257, 473)","(1261, 453)","(1264, 432)","(1265, 411)","(1132, 397)","(1140, 388)","(1153, 385)","(1166, 387)","(1178, 392)","(1202, 393)","(1215, 387)","(1229, 386)","(1243, 390)","(1251, 400)","(1189, 407)","(1188, 421)","(1188, 434)","(1187, 448)","(1173, 457)","(1179, 460)","(1186, 462)","(1194, 460)","(1201, 458)","(1148, 407)","(1155, 402)","(1164, 403)","(1172, 410)","(1163, 412)","(1154, 412)","(1208, 411)","(1217, 404)","(1227, 404)","(1234, 410)","(1227, 414)","(1217, 413)","(1162, 485)","(1170, 480)","(1179, 479)","(1186, 481)","(1193, 479)","(1202, 482)","(1211, 486)","(1202, 494)","(1192, 498)","(1185, 499)","(1178, 498)","(1169, 493)","(1166, 485)","(1179, 485)","(1186, 486)","(1193, 485)","(1207, 486)","(1192, 489)","(1185, 489)","(1178, 488)",0.36,0.88,45.0,0.34,0.01,0.34,0.02,-10.0,0.08,0.31,16.8,45.9,93.4,12.4,32.3,84.0,12.35,32.52,70.11
2800,3407872,97,-56,-1,-1,0,"(1116, 406)","(1116, 428)","(1118, 449)","(1121, 469)","(1126, 489)","(1136, 508)","(1149, 523)","(1164, 535)","(1184, 539)","(1203, 536)","(1220, 525)","(1235, 511)","(1246, 495)","(1254, 476)","(1257, 455)","(1261, 434)","(1262, 413)","(1126, 396)","(1135, 387)","(1148, 383)","(1162, 386)","(1174, 391)","(1199, 392)","(1212, 386)","(1226, 385)","(1240, 389)","(1249, 399)","(1186, 407)","(1185, 420)","(1184, 434)","(1183, 448)","(1170, 457)","(1176, 460)","(1183, 463)","(1191, 461)","(1198, 458)","(1143, 407)","(1150, 402)","(1160, 402)","(1168, 409)","(1159, 412)","(1149, 411)","(1206, 411)","(1215, 404)","(1225, 404)","(1232, 410)","(1225, 414)","(1215, 413)","(1159, 486)","(1167, 481)","(1176, 479)","(1183, 482)","(1190, 480)","(1200, 483)","(1209, 488)","(1200, 496)","(1190, 499)","(1183, 500)","(1175, 499)","(1167, 495)","(1163, 486)","(1176, 486)","(1183, 487)","(1190, 486)","(1204, 488)","(1190, 489)","(1183, 490)","(1176, 489)",0.36,0.92,45.0,0.34,0.01,0.34,0.02,-10.0,0.08,0.31,19.2,46.1,92.3,12.8,33.65,87.35,13.11,34.29,73.29
2833,4063232,97,-56,-1,-1,0,"(1113, 406)","(1113, 428)","(1115, 449)","(1117, 470)","(1123, 491)","(1132, 510)","(1145, 526)","(1161, 539)","(1181, 543)","(1202, 540)","(1220, 528)","(1235, 514)","(1247, 496)","(1254, 477)","(1258, 455)","(1260, 434)","(1261, 412)","(1123, 396)","(1131, 386)","(1145, 383)","(1158, 385)","(1171, 392)","(1197, 392)","(1210, 386)","(1225, 384)","(1239, 389)","(1248, 400)","(1183, 407)","(1183, 421)","(1182, 435)","(1181, 449)","(1166, 458)","(1173, 462)","(1181, 464)","(1189, 462)","(1196, 460)","(1140, 407)","(1147, 402)","(1157, 402)","(1166, 410)","(1156, 412)","(1146, 412)","(1204, 411)","(1213, 404)","(1223, 404)","(1231, 411)","(1223, 414)","(1213, 414)","(1155, 488)","(1164, 483)","(1173, 481)","(1180, 483)","(1187, 481)","(1197, 484)","(1207, 490)","(1197, 498)","(1187, 502)","(1180, 503)","(1172, 502)","(1163, 497)","(1160, 488)","(1173, 488)","(1180, 489)","(1187, 488)","(1202, 490)","(1187, 492)","(1180, 493)","(1173, 492)",0.37,0.9,45.0,0.35,0.03,0.35,0.02,-10.0,0.08,0.3,19.1,48.9,96.0,14.85,34.55,88.95,12.94,34.58,73.47
2866,-524288,97,-56,-1,-1,0,"(1109, 406)","(1109, 429)","(1111, 450)","(1114, 472)","(1119, 493)","(1129, 513)","(1142, 530)","(1158, 544)","(1178, 548)","(1199, 545)","(1218, 533)","(1235, 518)","(1247, 500)","(1255, 480)","(1260, 458)","(1263, 435)","(1265, 412)","(1119, 399)","(1127, 388)","(1141, 385)","(1155, 387)","(1169, 393)","(1195, 392)","(1210, 387)","(1225, 385)","(1240, 391)","(1250, 402)","(1181, 408)","(1180, 422)","(1179, 436)","(1178, 451)","(1164, 461)","(1171, 464)","(1178, 467)","(1186, 465)","(1193, 462)","(1136, 409)","(1144, 403)","(1155, 404)","(1163, 411)","(1154, 414)","(1143, 413)","(1202, 413)","(1212, 406)","(1223, 406)","(1231, 413)","(1223, 416)","(1212, 416)","(1152, 491)","(1161, 487)","(1170, 484)","(1177, 487)","(1185, 485)","(1195, 488)","(1205, 493)","(1195, 502)","(1184, 506)","(1176, 506)","(1169, 505)","(1160, 501)","(1157, 492)","(1170, 491)","(1177, 493)","(1185, 492)","(1200, 493)","(1184, 496)","(1177, 497)","(1170, 495)",0.34,0.9,45.0,0.35,0.02,0.33,0.02,-10.5,0.07,0.3,17.6,47.7,96.2,13.25,34.25,90.45,12.29,33.76,71.94
2900,-1966080,97,-56,-1,-1,0,"(1106, 409)","(1106, 432)","(1107, 454)","(1110, 476)","(1115, 497)","(1125, 518)","(1139, 535)","(1155, 549)","(1175, 554)","(1197, 551)","(1217, 539)","(1234, 523)","(1247, 504)","(1255, 483)","(1259, 460)","(1263, 437)","(1264, 414)","(1116, 400)","(1124, 390)","(1138, 386)","(1152, 388)","(1166, 395)","(1193, 395)","(1208, 389)","(1223, 387)","(1239, 392)","(1248, 403)","(1178, 412)","(1177, 426)","(1176, 440)","(1175, 455)","(1161, 465)","(1168, 469)","(1175, 472)","(1183, 469)","(1191, 466)","(1133, 412)","(1141, 406)","(1152, 407)","(1161, 414)","(1151, 417)","(1140, 417)","(1200, 415)","(1209, 408)","(1221, 409)","(1229, 415)","(1221, 419)","(1210, 419)","(1150, 496)","(1158, 491)","(1168, 489)","(1175, 492)","(1183, 490)","(1193, 493)","(1203, 498)","(1193, 507)","(1182, 511)","(1174, 512)","(1166, 511)","(1157, 506)","(1154, 497)","(1168, 497)","(1175, 498)","(1183, 497)","(1198, 498)","(1182, 501)","(1175, 502)","(1167, 500)",0.36,0.92,45.0,0.36,0.02,0.33,0.02,-11.0,0.08,0.3,21.1,51.8,99.1,14.6,34.35,89.85,12.7,34.47,72.47
2933,-1441792,97,-56,-1,-1,0,"(1098, 412)","(1097, 435)","(1098, 458)","(1101, 480)","(1107, 502)","(1118, 524)","(1133, 542)","(1150, 556)","(1172, 561)","(1193, 558)","(1213, 546)","(1230, 530)","(1243, 511)","(1252, 490)","(1256, 467)","(1259, 444)","(1260, 420)","(1112, 402)","(1120, 391)","(1134, 387)","(1150, 390)","(1164, 397)","(1190, 397)","(1205, 390)","(1221, 389)","(1237, 394)","(1246, 406)","(1176, 414)","(1175, 429)","(1174, 443)","(1173, 458)","(1158, 470)","(1165, 473)","(1173, 476)","(1181, 474)","(1189, 471)","(1129, 414)","(1137, 409)","(1148, 409)","(1157, 417)","(1147, 419)","(1136, 419)","(1198, 418)","(1208, 411)","(1219, 411)","(1227, 418)","(1219, 422)","(1208, 422)","(1146, 501)","(1155, 496)","(1165, 494)","(1172, 496)","(1180, 494)","(1190, 497)","(1200, 503)","(1190, 512)","(1180, 516)","(1172, 517)","(1164, 516)","(1155, 511)","(1151, 502)","(1165, 501)","(1172, 503)","(1180, 502)","(1195, 503)","(1180, 505)","(1172, 506)","(1165, 505)",0.37,0.88,45.0,0.35,0.03,0.33,0.02,-10.5,0.08,0.29,23.1,54.9,104.7,15.15,34.95,90.25,14.94,37.76,77.94
2966,-983040,97,-56,-1,-1,0,"(1094, 416)","(1093, 440)","(1095, 463)","(1098, 487)","(1104, 509)","(1115, 531)","(1130, 549)","(1147, 564)","(1169, 569)","(1192, 566)","(1212, 554)","(1230, 537)","(1243, 518)","(1251, 497)","(1256, 473)","(1260, 449)","(1262, 425)","(1107, 405)","(1116, 394)","(1131, 390)","(1146, 392)","(1161, 399)","(1188, 400)","(1203, 393)","(1220, 392)","(1236, 398)","(1246, 410)","(1174, 417)","(1173, 432)","(1171, 447)","(1170, 463)","(1155, 474)","(1162, 477)","(1170, 481)","(1179, 478)","(1187, 475)","(1125, 417)","(1134, 411)","(1145, 411)","(1154, 420)","(1144, 422)","(1133, 421)","(1196, 422)","(1207, 414)","(1218, 415)","(1227, 422)","(1218, 426)","(1207, 425)","(1142, 507)","(1152, 502)","(1162, 499)","(1170, 502)","(1178, 500)","(1189, 503)","(1199, 509)","(1189, 518)","(1178, 522)","(1169, 523)","(1161, 522)","(1151, 517)","(1148, 507)","(1162, 507)","(1170, 508)","(1178, 507)","(1194, 509)","(1178, 511)","(1170, 512)","(1162, 511)",0.35,0.88,45.0,0.35,0.02,0.33,0.02,-11.5,0.07,0.3,22.4,51.9,99.0,14.55,34.3,89.4,14.64,37.88,78.47
3000,-1507328,98,-56,-1,-1,0,"(1091, 418)","(1090, 443)","(1091, 467)","(1094, 491)","(1099, 515)","(1110, 537)","(1124, 556)","(1142, 571)","(1165, 576)","(1189, 574)","(1210, 561)","(1228, 545)","(1242, 525)","(1251, 502)","(1255, 478)","(1259, 453)","(1261, 428)","(1102, 407)","(1112, 395)","(1127, 392)","(1143, 394)","(1158, 401)","(1186, 402)","(1202, 396)","(1219, 394)","(1236, 400)","(1246, 413)","(1171, 419)","(1169, 435)","(1168, 451)","(1167, 467)","(1151, 478)","(1158, 482)","(1167, 485)","(1176, 483)","(1184, 480)","(1121, 419)","(1130, 413)","(1141, 414)","(1151, 422)","(1140, 425)","(1129, 424)","(1194, 424)","(1204, 417)","(1217, 417)","(1225, 424)","(1216, 429)","(1205, 428)","(1138, 513)","(1148, 507)","(1158, 505)","(1166, 507)","(1174, 505)","(1185, 509)","(1196, 516)","(1185, 525)","(1174, 529)","(1165, 529)","(1156, 528)","(1147, 523)","(1144, 513)","(1158, 512)","(1166, 514)","(1174, 513)","(1191, 516)","(1174, 517)","(1166, 518)","(1157, 516)",0.37,0.9,45.0,0.35,0.03,0.34,0.02,-12.0,0.07,0.3,21.7,50.0,97.0,15.55,36.7,91.5,15.7,39.76,80.05
3033,-1310720,98,-56,-1,-1,0,"(1087, 422)","(1086, 448)","(1087, 473)","(1089, 498)","(1095, 522)","(1106, 545)","(1121, 565)","(1140, 580)","(1164, 585)","(1188, 582)","(1210, 569)","(1228, 551)","(1242, 531)","(1251, 507)","(1256, 482)","(1259, 456)","(1260, 431)","(1098, 409)","(1107, 397)","(1122, 393)","(1139, 396)","(1154, 403)","(1183, 404)","(1200, 397)","(1218, 396)","(1234, 401)","(1245, 414)","(1168, 423)","(1167, 439)","(1165, 455)","(1164, 472)","(1147, 483)","(1155, 487)","(1164, 490)","(1173, 488)","(1182, 485)","(1116, 423)","(1125, 417)","(1137, 417)","(1147, 426)","(1136, 429)","(1124, 428)","(1192, 428)","(1203, 420)","(1215, 420)","(1224, 428)","(1215, 432)","(1203, 431)","(1134, 519)","(1144, 513)","(1155, 510)","(1163, 513)","(1172, 511)","(1184, 514)","(1195, 521)","(1184, 532)","(1172, 536)","(1163, 537)","(1154, 536)","(1143, 530)","(1139, 520)","(1155, 518)","(1163, 520)","(1172, 519)","(1190, 521)","(1172, 525)","(1163, 526)","(1155, 524)",0.35,0.91,45.0,0.36,0.02,0.35,0.02,-12.0,0.08,0.3,24.2,55.5,102.5,16.5,39.25,95.95,16.94,40.29,79.29
3066,-1638400,98,-56,-1,-1,0,"(1078, 424)","(1077, 451)","(1080, 477)","(1083, 504)","(1089, 529)","(1100, 553)","(1115, 574)","(1134, 591)","(1158, 597)","(1183, 594)","(1206, 580)","(1226, 562)","(1242, 540)","(1252, 516)","(1258, 490)","(1263, 462)","(1266, 434)","(1092, 414)","(1101, 401)","(1118, 397)","(1134, 400)","(1151, 407)","(1181, 408)","(1199, 401)","(1217, 399)","(1235, 406)","(1246, 420)","(1164, 426)","(1163, 443)","(1162, 461)","(1160, 479)","(1144, 489)","(1151, 494)","(1160, 497)","(1169, 495)","(1178, 491)","(1112, 427)","(1121, 420)","(1134, 421)","(1144, 430)","(1132, 433)","(1120, 432)","(1189, 432)","(1200, 423)","(1213, 424)","(1223, 432)","(1213, 436)","(1200, 436)","(1131, 527)","(1140, 520)","(1151, 518)","(1159, 521)","(1168, 518)","(1180, 522)","(1191, 530)","(1179, 540)","(1167, 544)","(1158, 545)","(1149, 543)","(1139, 538)","(1136, 527)","(1151, 526)","(1159, 527)","(1168, 526)","(1185, 530)","(1168, 532)","(1159, 533)","(1150, 531)",0.36,0.93,45.0,0.35,0.03,0.31,0.03,-13.0,0.07,0.3,20.7,50.1,98.4,17.0,38.25,94.8,13.23,36.29,75.58
3100,-1572864,98,-56,-1,-1,0,"(1073, 427)","(1072, 454)","(1073, 481)","(1076, 509)","(1082, 535)","(1094, 560)","(1110, 582)","(1130, 599)","(1154, 606)","(1180, 603)","(1204, 588)","(1225, 570)","(1242, 548)","(1252, 523)","(1258, 495)","(1263, 467)","(1265, 438)","(1087, 417)","(1097, 403)","(1114, 399)","(1131, 402)","(1147, 410)","(1178, 411)","(1196, 403)","(1216, 402)","(1235, 409)","(1246, 423)","(1161, 431)","(1160, 449)","(1158, 467)","(1156, 485)","(1139, 497)","(1147, 501)","(1156, 504)","(1166, 502)","(1175, 499)","(1107, 431)","(1116, 424)","(1129, 425)","(1140, 434)","(1128, 437)","(1115, 437)","(1187, 436)","(1198, 428)","(1212, 428)","(1222, 436)","(1212, 441)","(1199, 440)","(1125, 534)","(1135, 528)","(1146, 526)","(1155, 529)","(1164, 527)","(1177, 531)","(1189, 538)","(1176, 549)","(1163, 553)","(1153, 554)","(1144, 552)","(1134, 546)","(1131, 534)","(1146, 534)","(1155, 536)","(1164, 535)","(1182, 538)","(1163, 540)","(1154, 541)","(1145, 539)",0.35,0.94,45.0,0.35,0.02,0.33,0.02,-13.0,0.07,0.3,21.7,55.8,104.8,16.9,38.35,94.4,14.88,38.41,76.52
3133,6684672,98,-56,-1,-1,0,"(1064, 431)","(1062, 460)","(1063, 488)","(1065, 516)","(1073, 543)","(1086, 569)","(1103, 592)","(1124, 611)","(1150, 617)","(1177, 614)","(1201, 600)","(1223, 581)","(1240, 559)","(1251, 532)","(1256, 504)","(1260, 475)","(1262, 446)","(1080, 420)","(1090, 407)","(1108, 403)","(1126, 406)","(1143, 414)","(1175, 415)","(1193, 407)","(1214, 406)","(1233, 413)","(1244, 428)","(1157, 436)","(1155, 454)","(1154, 472)","(1152, 491)","(1134, 503)","(1142, 508)","(1152, 512)","(1162, 509)","(1172, 506)","(1100, 435)","(1110, 429)","(1124, 429)","(1135, 439)","(1122, 442)","(1109, 441)","(1183, 442)","(1196, 433)","(1210, 434)","(1220, 441)","(1210, 447)","(1196, 446)","(1119, 543)","(1130, 537)","(1142, 534)","(1151, 537)","(1161, 535)","(1174, 539)","(1187, 546)","(1174, 557)","(1161, 562)","(1151, 562)","(1141, 561)","(1129, 555)","(1125, 543)","(1142, 543)","(1151, 545)","(1160, 544)","(1180, 546)","(1161, 549)","(1151, 550)","(1142, 548)",0.35,0.91,45.0,0.36,0.04,0.34,0.02,-13.5,0.07,0.3,23.3,54.7,103.5,17.15,39.8,97.25,18.7,42.0,80.94
3166,-6225920,98,-56,-1,-1,0,"(1056, 438)","(1055, 468)","(1056, 497)","(1059, 526)","(1067, 554)","(1080, 580)","(1098, 603)","(1119, 622)","(1146, 629)","(1174, 626)","(1199, 611)","(1221, 592)","(1239, 568)","(1251, 542)","(1257, 512)","(1262, 482)","(1264, 452)","(1074, 425)","(1085, 411)","(1103, 407)","(1121, 410)","(1138, 418)","(1172, 419)","(1191, 411)","(1212, 410)","(1231, 417)","(1243, 433)","(1154, 441)","(1152, 459)","(1151, 478)","(1149, 498)","(1131, 512)","(1139, 516)","(1149, 520)","(1159, 517)","(1169, 514)","(1095, 440)","(1106, 433)","(1120, 434)","(1131, 444)","(1118, 447)","(1104, 446)","(1181, 447)","(1194, 437)","(1208, 438)","(1219, 447)","(1208, 452)","(1194, 451)","(1116, 552)","(1127, 546)","(1139, 543)","(1148, 546)","(1158, 544)","(1171, 548)","(1183, 556)","(1170, 567)","(1157, 572)","(1147, 572)","(1137, 570)","(1126, 564)","(1122, 553)","(1138, 552)","(1148, 554)","(1157, 553)","(1177, 556)","(1157, 558)","(1148, 559)","(1138, 556)",0.36,0.91,45.0,0.35,0.04,0.32,0.02,-14.5,0.07,0.3,23.1,56.2,103.5,17.65,38.6,95.15,19.23,44.0,84.35
3200,-917504,98,-56,-1,-1,0,"(1053, 443)","(1051, 473)","(1053, 504)","(1055, 534)","(1062, 564)","(1075, 591)","(1093, 615)","(1115, 634)","(1143, 641)","(1172, 638)","(1198, 623)","(1221, 602)","(1239, 578)","(1251, 550)","(1257, 520)","(1262, 489)","(1264, 458)","(1068, 429)","(1079, 415)","(1098, 410)","(1117, 414)","(1135, 423)","(1170, 424)","(1190, 416)","(1211, 415)","(1231, 422)","(1243, 439)","(1151, 447)","(1149, 466)","(1147, 486)","(1145, 506)","(1125, 519)","(1135, 524)","(1145, 528)","(1156, 526)","(1167, 522)","(1090, 446)","(1101, 439)","(1115, 440)","(1127, 450)","(1114, 453)","(1099, 452)","(1179, 453)","(1193, 444)","(1207, 445)","(1218, 453)","(1207, 459)","(1192, 457)","(1109, 562)","(1121, 555)","(1134, 552)","(1144, 556)","(1154, 553)","(1168, 558)","(1182, 566)","(1168, 577)","(1154, 582)","(1143, 583)","(1132, 581)","(1120, 574)","(1115, 562)","(1134, 562)","(1144, 564)","(1154, 563)","(1175, 565)","(1154, 568)","(1144, 569)","(1134, 567)",0.34,0.91,45.0,0.36,0.05,0.34,0.02,-14.5,0.07,0.3,24.3,55.6,103.4,17.95,40.25,96.05,18.88,43.23,83.0
3233,196608,98,-56,-1,-1,0,"(1044, 445)","(1042, 477)","(1045, 508)","(1049, 538)","(1056, 568)","(1069, 598)","(1086, 625)","(1108, 646)","(1136, 653)","(1166, 651)","(1194, 636)","(1218, 615)","(1237, 590)","(1251, 561)","(1258, 529)","(1264, 497)","(1268, 464)","(1061, 433)","(1073, 420)","(1091, 415)","(1111, 418)","(1130, 428)","(1167, 429)","(1188, 421)","(1210, 420)","(1231, 428)","(1244, 444)","(1147, 452)","(1144, 473)","(1142, 494)","(1139, 515)","(1120, 528)","(1129, 533)","(1139, 538)","(1151, 535)","(1162, 532)","(1084, 451)","(1095, 444)","(1110, 445)","(1122, 455)","(1109, 459)","(1094, 458)","(1176, 459)","(1190, 450)","(1206, 450)","(1218, 459)","(1206, 465)","(1191, 464)","(1104, 570)","(1116, 564)","(1129, 562)","(1138, 565)","(1149, 563)","(1164, 568)","(1178, 576)","(1164, 588)","(1149, 593)","(1138, 593)","(1127, 591)","(1115, 584)","(1111, 571)","(1128, 571)","(1138, 573)","(1149, 573)","(1171, 576)","(1149, 578)","(1138, 579)","(1128, 577)",0.34,0.95,45.0,0.35,0.05,0.33,0.02,-15.0,0.06,0.31,25.6,57.1,105.8,18.1,40.4,97.0,17.7,41.17,77.0
3266,2818048,98,-56,-1,-1,0,"(1040, 450)","(1038, 483)","(1039, 515)","(1044, 547)","(1051, 578)","(1063, 609)","(1081, 636)","(1103, 658)","(1132, 666)","(1163, 663)","(1191, 647)","(1217, 626)","(1237, 599)","(1250, 569)","(1258, 536)","(1264, 503)","(1267, 470)","(1054, 438)","(1066, 423)","(1086, 419)","(1106, 423)","(1125, 433)","(1162, 434)","(1183, 425)","(1207, 424)","(1229, 433)","(1243, 450)","(1142, 458)","(1140, 479)","(1137, 500)","(1134, 523)","(1114, 536)","(1124, 542)","(1134, 546)","(1146, 543)","(1158, 540)","(1078, 456)","(1089, 449)","(1105, 450)","(1117, 461)","(1103, 465)","(1087, 463)","(1173, 465)","(1187, 456)","(1203, 457)","(1215, 466)","(1203, 472)","(1187, 470)","(1099, 580)","(1111, 574)","(1124, 571)","(1133, 575)","(1145, 572)","(1160, 577)","(1175, 586)","(1159, 598)","(1144, 603)","(1132, 604)","(1121, 602)","(1110, 594)","(1106, 581)","(1123, 581)","(1133, 583)","(1144, 583)","(1167, 585)","(1144, 588)","(1133, 589)","(1123, 586)",0.34,0.95,45.0,0.35,0.06,0.33,0.02,-16.0,0.07,0.31,27.0,59.9,108.4,18.65,40.35,97.45,16.11,38.82,75.94
3300,6553600,98,-56,-1,-1,0,"(1032, 454)","(1029, 488)","(1031, 521)","(1036, 554)","(1043, 586)","(1057, 618)","(1074, 646)","(1097, 668)","(1127, 676)","(1159, 674)","(1188, 658)","(1214, 635)","(1235, 609)","(1249, 578)","(1257, 544)","(1264, 509)","(1268, 473)","(1048, 443)","(1060, 428)","(1081, 424)","(1102, 428)","(1121, 438)","(1159, 440)","(1180, 432)","(1204, 430)","(1227, 438)","(1242, 456)","(1138, 464)","(1135, 486)","(1132, 508)","(1130, 531)","(1109, 544)","(1119, 550)","(1130, 554)","(1142, 552)","(1154, 548)","(1072, 461)","(1084, 453)","(1100, 455)","(1112, 467)","(1098, 470)","(1082, 468)","(1170, 471)","(1184, 461)","(1201, 462)","(1213, 471)","(1201, 477)","(1184, 476)","(1093, 589)","(1105, 583)","(1119, 580)","(1129, 584)","(1140, 582)","(1156, 587)","(1171, 595)","(1155, 608)","(1140, 614)","(1127, 614)","(1116, 612)","(1104, 604)","(1100, 590)","(1118, 590)","(1129, 593)","(1140, 592)","(1163, 595)","(1140, 598)","(1129, 599)","(1118, 596)",0.34,0.96,45.0,0.35,0.06,0.33,0.02,-16.5,0.06,0.31,24.5,58.1,104.5,18.65,40.5,96.3,18.64,40.88,77.58
3333,2293760,98,-56,-1,-1,0,"(1026, 463)","(1024, 497)","(1026, 531)","(1029, 565)","(1037, 598)","(1051, 630)","(1069, 658)","(1093, 681)","(1123, 689)","(1156, 686)","(1186, 668)","(1213, 644)","(1234, 616)","(1249, 584)","(1257, 550)","(1263, 515)","(1266, 479)","(1042, 450)","(1054, 435)","(1075, 429)","(1096, 434)","(1116, 444)","(1155, 445)","(1178, 436)","(1202, 435)","(1225, 443)","(1240, 461)","(1133, 470)","(1131, 493)","(1128, 516)","(1126, 540)","(1105, 553)","(1115, 559)","(1126, 564)","(1138, 561)","(1150, 557)","(1066, 468)","(1078, 460)","(1094, 462)","(1107, 473)","(1092, 477)","(1076, 476)","(1166, 477)","(1181, 467)","(1197, 468)","(1210, 478)","(1197, 484)","(1181, 482)","(1088, 598)","(1101, 592)","(1115, 589)","(1125, 594)","(1137, 591)","(1153, 596)","(1168, 605)","(1152, 618)","(1136, 624)","(1124, 625)","(1112, 622)","(1099, 614)","(1095, 599)","(1114, 600)","(1125, 602)","(1137, 601)","(1160, 604)","(1136, 608)","(1125, 609)","(1113, 606)",0.35,0.94,45.0,0.35,0.05,0.33,0.03,-17.0,0.07,0.31,25.3,57.4,105.9,18.4,39.65,96.5,21.0,45.47,84.82
3366,-720896,98,-56,-1,-1,0,"(1009, 464)","(1004, 499)","(1004, 535)","(1006, 570)","(1015, 605)","(1031, 638)","(1053, 667)","(1080, 691)","(1113, 700)","(1147, 697)","(1178, 680)","(1205, 656)","(1226, 627)","(1240, 594)","(1247, 559)","(1253, 524)","(1255, 488)","(1033, 451)","(1047, 437)","(1069, 433)","(1090, 438)","(1111, 449)","(1151, 450)","(1173, 442)","(1197, 440)","(1220, 448)","(1234, 466)","(1129, 476)","(1127, 499)","(1124, 522)","(1121, 546)","(1099, 560)","(1109, 566)","(1121, 571)","(1133, 568)","(1145, 565)","(1058, 473)","(1071, 466)","(1087, 467)","(1100, 478)","(1086, 482)","(1069, 480)","(1161, 483)","(1177, 473)","(1194, 474)","(1206, 484)","(1193, 490)","(1177, 488)","(1080, 605)","(1094, 599)","(1109, 597)","(1120, 602)","(1132, 599)","(1148, 604)","(1164, 612)","(1147, 625)","(1131, 631)","(1119, 631)","(1107, 629)","(1093, 620)","(1088, 606)","(1109, 608)","(1120, 610)","(1132, 610)","(1156, 613)","(1132, 615)","(1120, 616)","(1108, 613)",0.34,0.91,45.0,0.35,0.08,0.34,0.02,-16.5,0.06,0.31,26.1,59.7,105.8,18.65,41.4,96.4,25.05,52.64,90.94
3400,-983040,98,-56,-1,-1,0,"(1009, 470)","(1005, 505)","(1004, 540)","(1006, 575)","(1015, 610)","(1031, 643)","(1052, 672)","(1078, 696)","(1111, 705)","(1145, 702)","(1176, 684)","(1203, 660)","(1225, 631)","(1239, 598)","(1246, 563)","(1251, 528)","(1253, 492)","(1031, 457)","(1045, 442)","(1066, 438)","(1087, 443)","(1108, 453)","(1148, 454)","(1170, 445)","(1194, 443)","(1218, 451)","(1232, 469)","(1126, 481)","(1123, 504)","(1120, 527)","(1117, 551)","(1095, 565)","(1106, 571)","(1117, 576)","(1130, 574)","(1143, 569)","(1056, 478)","(1068, 470)","(1085, 471)","(1098, 483)","(1083, 487)","(1067, 486)","(1158, 487)","(1174, 476)","(1191, 477)","(1203, 487)","(1191, 493)","(1174, 492)","(1077, 611)","(1091, 605)","(1106, 603)","(1117, 608)","(1128, 605)","(1145, 609)","(1161, 617)","(1145, 630)","(1128, 636)","(1116, 636)","(1103, 634)","(1090, 626)","(1085, 612)","(1105, 614)","(1116, 616)","(1128, 615)","(1153, 617)","(1129, 620)","(1117, 621)","(1105, 618)",0.35,0.93,45.0,0.35,0.06,0.34,0.02,-17.0,0.06,0.31,24.1,56.4,106.1,19.1,41.65,95.55,23.76,51.17,90.52
3433,-458752,98,-56,-1,-1,0,"(1010, 470)","(1005, 505)","(1005, 540)","(1007, 575)","(1015, 610)","(1031, 643)","(1052, 672)","(1080, 697)","(1112, 705)","(1147, 703)","(1178, 684)","(1205, 660)","(1226, 631)","(1240, 597)","(1247, 563)","(1251, 527)","(1253, 491)","(1030, 458)","(1043, 444)","(1064, 439)","(1086, 444)","(1107, 455)","(1146, 456)","(1169, 447)","(1194, 445)","(1218, 453)","(1232, 471)","(1124, 483)","(1122, 506)","(1119, 529)","(1116, 552)","(1094, 567)","(1104, 573)","(1116, 578)","(1129, 575)","(1142, 571)","(1054, 480)","(1067, 472)","(1083, 473)","(1096, 485)","(1081, 489)","(1065, 488)","(1157, 489)","(1173, 479)","(1190, 480)","(1203, 490)","(1190, 496)","(1173, 495)","(1076, 612)","(1090, 607)","(1105, 604)","(1116, 609)","(1127, 606)","(1144, 611)","(1161, 619)","(1144, 633)","(1127, 639)","(1115, 640)","(1103, 637)","(1089, 628)","(1084, 613)","(1104, 615)","(1115, 617)","(1127, 617)","(1152, 619)","(1128, 624)","(1116, 625)","(1105, 622)",0.34,0.94,45.0,0.36,0.06,0.34,0.03,-17.0,0.07,0.31,25.4,58.2,105.9,20.25,41.15,96.65,25.11,52.11,91.0
3466,-983040,98,-56,-1,-1,0,"(1010, 471)","(1006, 506)","(1005, 540)","(1008, 575)","(1016, 610)","(1032, 643)","(1053, 673)","(1080, 697)","(1113, 705)","(1147, 702)","(1178, 685)","(1205, 661)","(1226, 632)","(1240, 599)","(1247, 564)","(1251, 528)","(1253, 492)","(1030, 460)","(1043, 445)","(1064, 440)","(1086, 445)","(1106, 456)","(1146, 456)","(1169, 447)","(1194, 445)","(1218, 453)","(1232, 471)","(1124, 483)","(1122, 505)","(1119, 528)","(1116, 551)","(1094, 566)","(1105, 572)","(1116, 577)","(1129, 574)","(1142, 570)","(1055, 480)","(1067, 473)","(1084, 474)","(1097, 485)","(1082, 489)","(1066, 488)","(1157, 489)","(1173, 479)","(1190, 479)","(1203, 489)","(1190, 495)","(1173, 494)","(1078, 612)","(1091, 606)","(1105, 604)","(1116, 608)","(1128, 605)","(1144, 610)","(1160, 618)","(1144, 632)","(1128, 638)","(1116, 638)","(1104, 636)","(1090, 627)","(1086, 613)","(1105, 615)","(1116, 617)","(1127, 616)","(1152, 618)","(1128, 622)","(1116, 623)","(1105, 620)",0.33,0.94,45.0,0.36,0.05,0.33,0.02,-16.0,0.07,0.3,26.1,58.0,105.9,21.3,42.3,96.0,24.35,52.0,91.58
3500,-1310720,98,-56,-1,-1,0,"(1024, 475)","(1021, 509)","(1023, 542)","(1026, 576)","(1034, 608)","(1048, 640)","(1066, 668)","(1090, 691)","(1120, 699)","(1153, 696)","(1184, 677)","(1211, 653)","(1233, 624)","(1247, 592)","(1255, 557)","(1260, 521)","(1262, 485)","(1035, 460)","(1047, 444)","(1067, 439)","(1088, 443)","(1108, 453)","(1148, 454)","(1171, 445)","(1196, 443)","(1220, 451)","(1235, 469)","(1126, 480)","(1124, 503)","(1121, 526)","(1118, 549)","(1098, 563)","(1108, 569)","(1119, 574)","(1132, 571)","(1145, 566)","(1060, 479)","(1071, 471)","(1087, 472)","(1101, 483)","(1086, 487)","(1070, 487)","(1160, 486)","(1175, 476)","(1192, 477)","(1205, 487)","(1192, 493)","(1175, 492)","(1083, 609)","(1095, 602)","(1109, 600)","(1119, 604)","(1131, 601)","(1147, 606)","(1164, 614)","(1147, 628)","(1130, 634)","(1118, 635)","(1106, 632)","(1094, 624)","(1090, 610)","(1108, 610)","(1119, 612)","(1131, 612)","(1156, 614)","(1130, 618)","(1119, 619)","(1108, 617)",0.35,0.97,45.0,0.36,0.03,0.34,0.03,-16.5,0.07,0.31,23.8,57.1,106.3,18.2,39.4,93.9,20.76,46.52,85.11
3533,-1376256,98,-56,-1,-1,0,"(1011, 464)","(1007, 498)","(1007, 532)","(1010, 566)","(1019, 600)","(1036, 631)","(1058, 659)","(1084, 683)","(1116, 693)","(1149, 690)","(1179, 674)","(1206, 651)","(1227, 624)","(1241, 592)","(1249, 558)","(1254, 523)","(1255, 488)","(1035, 449)","(1049, 436)","(1070, 433)","(1091, 439)","(1111, 449)","(1151, 451)","(1173, 442)","(1196, 440)","(1219, 448)","(1233, 465)","(1129, 476)","(1127, 498)","(1125, 520)","(1122, 543)","(1100, 557)","(1111, 563)","(1122, 568)","(1134, 566)","(1146, 562)","(1061, 472)","(1073, 465)","(1089, 466)","(1102, 478)","(1087, 481)","(1071, 479)","(1161, 483)","(1177, 474)","(1193, 474)","(1205, 484)","(1193, 489)","(1177, 488)","(1084, 602)","(1097, 596)","(1111, 594)","(1122, 599)","(1133, 596)","(1149, 601)","(1165, 609)","(1149, 621)","(1133, 627)","(1121, 627)","(1110, 624)","(1096, 616)","(1091, 603)","(1111, 604)","(1121, 607)","(1133, 606)","(1157, 609)","(1133, 611)","(1122, 612)","(1111, 609)",0.32,0.95,45.0,0.34,0.08,0.33,0.02,-15.5,0.06,0.3,28.5,61.3,108.8,19.8,41.25,96.7,27.17,55.0,93.52
3566,-1835008,98,-56,-1,-1,0,"(1012, 458)","(1008, 492)","(1008, 526)","(1011, 560)","(1021, 593)","(1038, 623)","(1062, 651)","(1089, 674)","(1121, 683)","(1153, 681)","(1183, 665)","(1209, 643)","(1230, 616)","(1243, 585)","(1250, 551)","(1256, 517)","(1258, 482)","(1039, 445)","(1054, 433)","(1075, 430)","(1096, 435)","(1117, 445)","(1156, 446)","(1178, 438)","(1201, 436)","(1223, 443)","(1237, 459)","(1135, 471)","(1132, 492)","(1130, 514)","(1128, 536)","(1106, 551)","(1116, 556)","(1128, 561)","(1140, 558)","(1151, 554)","(1065, 468)","(1078, 461)","(1094, 462)","(1106, 473)","(1092, 476)","(1077, 475)","(1166, 477)","(1181, 468)","(1197, 469)","(1209, 478)","(1197, 483)","(1181, 482)","(1088, 594)","(1102, 589)","(1116, 587)","(1127, 591)","(1138, 588)","(1154, 592)","(1170, 600)","(1154, 611)","(1139, 616)","(1127, 616)","(1115, 614)","(1102, 607)","(1096, 595)","(1116, 597)","(1126, 599)","(1137, 598)","(1162, 600)","(1139, 601)","(1128, 602)","(1117, 599)",0.32,0.92,45.0,0.34,0.07,0.33,0.01,-15.0,0.06,0.3,25.6,58.7,105.3,19.4,41.3,96.2,23.58,51.52,88.17
3600,-1966080,98,-56,-1,-1,0,"(1041, 457)","(1038, 489)","(1039, 520)","(1043, 551)","(1050, 583)","(1063, 613)","(1082, 640)","(1106, 661)","(1135, 669)","(1167, 666)","(1196, 649)","(1222, 628)","(1242, 601)","(1255, 570)","(1261, 538)","(1265, 505)","(1267, 471)","(1054, 445)","(1066, 431)","(1085, 427)","(1106, 430)","(1125, 440)","(1162, 441)","(1184, 432)","(1207, 430)","(1229, 438)","(1243, 454)","(1142, 465)","(1140, 485)","(1138, 505)","(1135, 527)","(1116, 541)","(1126, 546)","(1136, 550)","(1148, 548)","(1159, 544)","(1078, 463)","(1090, 456)","(1105, 457)","(1117, 467)","(1103, 471)","(1088, 470)","(1174, 471)","(1188, 461)","(1204, 462)","(1216, 471)","(1204, 477)","(1188, 476)","(1102, 585)","(1113, 578)","(1126, 575)","(1136, 579)","(1147, 576)","(1162, 581)","(1177, 589)","(1162, 601)","(1147, 606)","(1135, 607)","(1125, 605)","(1113, 598)","(1109, 585)","(1126, 585)","(1136, 587)","(1146, 586)","(1169, 589)","(1147, 592)","(1136, 592)","(1126, 590)",0.35,0.96,45.0,0.35,0.04,0.33,0.02,-15.5,0.07,0.3,26.2,58.8,105.7,19.05,41.4,98.35,15.64,38.35,75.23
3633,4849664,98,-56,-1,-1,0,"(1046, 449)","(1044, 480)","(1046, 511)","(1050, 542)","(1058, 572)","(1072, 601)","(1091, 626)","(1114, 647)","(1142, 654)","(1172, 652)","(1199, 636)","(1224, 616)","(1244, 591)","(1257, 562)","(1263, 530)","(1268, 498)","(1270, 465)","(1062, 438)","(1074, 425)","(1093, 420)","(1113, 424)","(1133, 433)","(1170, 433)","(1190, 425)","(1212, 424)","(1234, 431)","(1247, 447)","(1150, 457)","(1148, 477)","(1146, 496)","(1143, 517)","(1125, 531)","(1134, 536)","(1144, 540)","(1155, 537)","(1166, 534)","(1087, 456)","(1099, 449)","(1114, 450)","(1125, 460)","(1112, 464)","(1097, 463)","(1180, 463)","(1193, 454)","(1209, 455)","(1220, 464)","(1209, 470)","(1193, 469)","(1111, 573)","(1122, 567)","(1135, 564)","(1144, 568)","(1154, 565)","(1169, 570)","(1183, 578)","(1169, 588)","(1155, 593)","(1144, 594)","(1134, 592)","(1122, 585)","(1118, 574)","(1134, 574)","(1144, 575)","(1154, 575)","(1176, 577)","(1155, 579)","(1145, 580)","(1135, 577)",0.37,0.96,45.0,0.34,0.05,0.32,0.02,-15.5,0.07,0.3,27.6,58.9,108.4,17.75,40.05,96.55,17.52,40.64,77.17
