milliseconds, ECG, ECG HR, PPG, PPG HR, SpO2, PI
1523633696134,-1572864,95,-56,-1,-1,0
1523633696134,-1703936,95,-56,-1,-1,0
1523633696134,-1572864,95,-56,-1,-1,0
1523633696134,-1507328,95,-56,-1,-1,0
1523633696134,-1769472,95,-56,-1,-1,0
1523633696176,-2031616,95,-56,-1,-1,0
1523633696176,-2162688,95,-56,-1,-1,0
1523633696176,-2097152,95,-56,-1,-1,0
1523633696176,-2228224,95,-56,-1,-1,0
1523633696176,-2359296,95,-56,-1,-1,0
1523633696214,-2293760,95,-56,-1,-1,0
1523633696214,-2031616,95,-56,-1,-1,0
1523633696214,-2228224,95,-56,-1,-1,0
1523633696214,-2490368,95,-56,-1,-1,0
1523633696214,-2490368,95,-56,-1,-1,0
1523633696254,-2293760,96,-56,-1,-1,0
1523633696254,-2162688,96,-56,-1,-1,0
1523633696254,-2228224,96,-56,-1,-1,0
1523633696254,-2490368,96,-56,-1,-1,0
1523633696254,-2818048,96,-56,-1,-1,0
1523633696294,-2949120,96,-56,-1,-1,0
1523633696294,-2949120,96,-56,-1,-1,0
1523633696294,-2883584,96,-56,-1,-1,0
1523633696294,-2883584,96,-56,-1,-1,0
1523633696294,-2818048,96,-56,-1,-1,0
1523633696334,-2752512,96,-56,-1,-1,0
1523633696334,-2686976,96,-56,-1,-1,0
1523633696334,-2686976,96,-56,-1,-1,0
1523633696334,-2818048,96,-56,-1,-1,0
1523633696334,-2752512,96,-56,-1,-1,0
1523633696374,-1769472,96,-56,-1,-1,0
1523633696374,1441792,96,-56,-1,-1,0
1523633696374,5636096,96,-56,-1,-1,0
1523633696374,6619136,96,-56,-1,-1,0
1523633696374,2031616,96,-56,-1,-1,0
1523633696414,-4259840,96,-56,-1,-1,0
1523633696414,-7798784,96,-56,-1,-1,0
1523633696414,-7929856,96,-56,-1,-1,0
1523633696414,-6422528,96,-56,-1,-1,0
1523633696414,-4718592,96,-56,-1,-1,0
1523633696454,-3538944,96,-56,-1,-1,0
1523633696454,-2818048,96,-56,-1,-1,0
1523633696454,-2555904,96,-56,-1,-1,0
1523633696454,-2293760,96,-56,-1,-1,0
1523633696454,-2097152,96,-56,-1,-1,0
1523633696494,-1835008,96,-56,-1,-1,0
1523633696494,-1638400,96,-56,-1,-1,0
1523633696494,-1441792,96,-56,-1,-1,0
1523633696494,-1245184,96,-56,-1,-1,0
1523633696494,-720896,96,-56,-1,-1,0
1523633696534,65536,96,-56,-1,-1,0
1523633696534,983040,96,-56,-1,-1,0
1523633696534,1769472,96,-56,-1,-1,0
1523633696534,2621440,96,-56,-1,-1,0
1523633696534,3342336,96,-56,-1,-1,0
1523633696574,4325376,96,-56,-1,-1,0
1523633696574,4980736,96,-56,-1,-1,0
1523633696574,5177344,96,-56,-1,-1,0
1523633696574,4587520,96,-56,-1,-1,0
1523633696574,3997696,96,-56,-1,-1,0
1523633696614,3276800,96,-56,-1,-1,0
1523633696614,2424832,96,-56,-1,-1,0
1523633696614,1507328,96,-56,-1,-1,0
1523633696614,589824,96,-56,-1,-1,0
1523633696614,0,96,-56,-1,-1,0
1523633696654,-393216,96,-56,-1,-1,0
1523633696654,-589824,96,-56,-1,-1,0
1523633696654,-983040,96,-56,-1,-1,0
1523633696654,-1376256,96,-56,-1,-1,0
1523633696654,-1310720,96,-56,-1,-1,0
1523633696694,-1114112,96,-56,-1,-1,0
1523633696694,-1048576,96,-56,-1,-1,0
1523633696694,-1179648,96,-56,-1,-1,0
1523633696694,-1114112,96,-56,-1,-1,0
1523633696694,-1114112,96,-56,-1,-1,0
1523633696734,-983040,96,-56,-1,-1,0
1523633696734,-1114112,96,-56,-1,-1,0
1523633696734,-983040,96,-56,-1,-1,0
1523633696734,-983040,96,-56,-1,-1,0
1523633696734,-983040,96,-56,-1,-1,0
1523633696774,-786432,96,-56,-1,-1,0
1523633696774,-720896,96,-56,-1,-1,0
1523633696774,-983040,96,-56,-1,-1,0
1523633696774,-1310720,96,-56,-1,-1,0
1523633696774,-1245184,96,-56,-1,-1,0
1523633696815,-1114112,96,-56,-1,-1,0
1523633696815,-1114112,96,-56,-1,-1,0
1523633696815,-1179648,96,-56,-1,-1,0
1523633696815,-1114112,96,-56,-1,-1,0
1523633696815,-851968,96,-56,-1,-1,0
1523633696854,-655360,96,-56,-1,-1,0
1523633696854,-589824,96,-56,-1,-1,0
1523633696854,-720896,96,-56,-1,-1,0
1523633696854,-1114112,96,-56,-1,-1,0
1523633696854,-1114112,96,-56,-1,-1,0
1523633696894,-1048576,96,-56,-1,-1,0
1523633696894,-1114112,96,-56,-1,-1,0
1523633696894,-1310720,96,-56,-1,-1,0
1523633696894,-1245184,96,-56,-1,-1,0
1523633696894,-1114112,96,-56,-1,-1,0
1523633696934,-1048576,96,-56,-1,-1,0
1523633696934,-1245184,96,-56,-1,-1,0
1523633696934,-1179648,96,-56,-1,-1,0
1523633696934,-1310720,96,-56,-1,-1,0
1523633696934,-1114112,96,-56,-1,-1,0
1523633696974,1769472,96,-56,-1,-1,0
1523633696974,7667712,96,-56,-1,-1,0
1523633696974,11337728,96,-56,-1,-1,0
1523633696974,7798784,96,-56,-1,-1,0
1523633696974,0,96,-56,-1,-1,0
1523633697014,-5636096,96,-56,-1,-1,0
1523633697014,-6750208,96,-56,-1,-1,0
1523633697014,-4980736,96,-56,-1,-1,0
1523633697014,-3145728,96,-56,-1,-1,0
1523633697014,-2031616,96,-56,-1,-1,0
1523633697054,-1376256,96,-56,-1,-1,0
1523633697054,-917504,96,-56,-1,-1,0
1523633697054,-589824,96,-56,-1,-1,0
1523633697054,-393216,96,-56,-1,-1,0
1523633697054,-196608,96,-56,-1,-1,0
1523633697094,-196608,96,-56,-1,-1,0
1523633697094,-65536,96,-56,-1,-1,0
1523633697094,65536,96,-56,-1,-1,0
1523633697094,655360,96,-56,-1,-1,0
1523633697094,1376256,96,-56,-1,-1,0
1523633697134,2162688,96,-56,-1,-1,0
1523633697134,3014656,96,-56,-1,-1,0
1523633697134,4259840,96,-56,-1,-1,0
1523633697134,5570560,96,-56,-1,-1,0
1523633697134,6553600,96,-56,-1,-1,0
1523633697174,7077888,96,-56,-1,-1,0
1523633697174,7012352,96,-56,-1,-1,0
1523633697174,6553600,96,-56,-1,-1,0
1523633697174,5898240,96,-56,-1,-1,0
1523633697174,4980736,96,-56,-1,-1,0
1523633697214,3735552,96,-56,-1,-1,0
1523633697214,2752512,96,-56,-1,-1,0
1523633697214,1638400,96,-56,-1,-1,0
1523633697214,589824,96,-56,-1,-1,0
1523633697214,0,96,-56,-1,-1,0
1523633697254,-131072,96,-56,-1,-1,0
1523633697254,-262144,96,-56,-1,-1,0
1523633697254,-524288,96,-56,-1,-1,0
1523633697254,-851968,96,-56,-1,-1,0
1523633697254,-720896,96,-56,-1,-1,0
1523633697294,-393216,96,-56,-1,-1,0
1523633697294,-393216,96,-56,-1,-1,0
1523633697294,-524288,96,-56,-1,-1,0
1523633697294,-458752,96,-56,-1,-1,0
1523633697294,-262144,96,-56,-1,-1,0
1523633697334,-196608,96,-56,-1,-1,0
1523633697334,-262144,96,-56,-1,-1,0
1523633697334,-327680,96,-56,-1,-1,0
1523633697334,-393216,96,-56,-1,-1,0
1523633697334,-458752,96,-56,-1,-1,0
1523633697374,-458752,96,-56,-1,-1,0
1523633697374,-393216,96,-56,-1,-1,0
1523633697374,-458752,96,-56,-1,-1,0
1523633697374,-524288,96,-56,-1,-1,0
1523633697374,-524288,96,-56,-1,-1,0
1523633697414,-524288,96,-56,-1,-1,0
1523633697414,-720896,96,-56,-1,-1,0
1523633697414,-786432,96,-56,-1,-1,0
1523633697414,-655360,96,-56,-1,-1,0
1523633697414,-458752,96,-56,-1,-1,0
1523633697455,-393216,96,-56,-1,-1,0
1523633697455,-524288,96,-56,-1,-1,0
1523633697455,-655360,96,-56,-1,-1,0
1523633697455,-786432,96,-56,-1,-1,0
1523633697455,-589824,96,-56,-1,-1,0
1523633697494,-720896,96,-56,-1,-1,0
1523633697494,-851968,96,-56,-1,-1,0
1523633697494,-720896,96,-56,-1,-1,0
1523633697494,-327680,96,-56,-1,-1,0
1523633697494,-393216,96,-56,-1,-1,0
1523633697534,-786432,96,-56,-1,-1,0
1523633697534,-1048576,96,-56,-1,-1,0
1523633697534,262144,96,-56,-1,-1,0
1523633697534,5046272,96,-56,-1,-1,0
1523633697534,11010048,96,-56,-1,-1,0
1523633697574,12058624,96,-56,-1,-1,0
1523633697574,5832704,96,-56,-1,-1,0
1523633697574,-2031616,96,-56,-1,-1,0
1523633697574,-5767168,96,-56,-1,-1,0
1523633697574,-5242880,96,-56,-1,-1,0
1523633697614,-3473408,96,-56,-1,-1,0
1523633697614,-1900544,96,-56,-1,-1,0
1523633697614,-851968,96,-56,-1,-1,0
1523633697614,-393216,96,-56,-1,-1,0
1523633697614,-65536,96,-56,-1,-1,0
1523633697654,0,96,-56,-1,-1,0
1523633697654,131072,96,-56,-1,-1,0
1523633697654,327680,96,-56,-1,-1,0
1523633697654,589824,96,-56,-1,-1,0
1523633697654,786432,96,-56,-1,-1,0
1523633697694,1114112,96,-56,-1,-1,0
1523633697694,1703936,96,-56,-1,-1,0
1523633697694,2359296,96,-56,-1,-1,0
1523633697694,3342336,96,-56,-1,-1,0
1523633697694,4521984,96,-56,-1,-1,0
1523633697734,5505024,96,-56,-1,-1,0
1523633697734,6356992,96,-56,-1,-1,0
1523633697734,7012352,96,-56,-1,-1,0
1523633697734,7471104,96,-56,-1,-1,0
1523633697734,7208960,96,-56,-1,-1,0
1523633697774,6619136,96,-56,-1,-1,0
1523633697774,5701632,96,-56,-1,-1,0
1523633697774,4521984,96,-56,-1,-1,0
1523633697774,3538944,96,-56,-1,-1,0
1523633697774,2555904,96,-56,-1,-1,0
1523633697814,1572864,96,-56,-1,-1,0
1523633697814,655360,96,-56,-1,-1,0
1523633697814,0,96,-56,-1,-1,0
1523633697814,-327680,96,-56,-1,-1,0
1523633697814,-458752,96,-56,-1,-1,0
1523633697854,-589824,96,-56,-1,-1,0
1523633697854,-851968,96,-56,-1,-1,0
1523633697854,-851968,96,-56,-1,-1,0
1523633697854,-851968,96,-56,-1,-1,0
1523633697854,-786432,96,-56,-1,-1,0
1523633697894,-655360,96,-56,-1,-1,0
1523633697894,-458752,96,-56,-1,-1,0
1523633697894,-524288,96,-56,-1,-1,0
1523633697894,-655360,96,-56,-1,-1,0
1523633697894,-655360,96,-56,-1,-1,0
1523633697934,-524288,96,-56,-1,-1,0
1523633697934,-524288,96,-56,-1,-1,0
1523633697934,-786432,96,-56,-1,-1,0
1523633697934,-851968,96,-56,-1,-1,0
1523633697934,-786432,96,-56,-1,-1,0
1523633697974,-917504,96,-56,-1,-1,0
1523633697974,-1179648,96,-56,-1,-1,0
1523633697974,-1245184,96,-56,-1,-1,0
1523633697974,-983040,96,-56,-1,-1,0
1523633697974,-983040,96,-56,-1,-1,0
1523633698014,-1310720,96,-56,-1,-1,0
1523633698014,-1507328,96,-56,-1,-1,0
1523633698014,-1376256,96,-56,-1,-1,0
1523633698014,-1507328,96,-56,-1,-1,0
1523633698014,-1507328,96,-56,-1,-1,0
1523633698054,-1572864,96,-56,-1,-1,0
1523633698054,-1441792,96,-56,-1,-1,0
1523633698054,-1572864,96,-56,-1,-1,0
1523633698054,-1638400,96,-56,-1,-1,0
1523633698054,-1769472,96,-56,-1,-1,0
1523633698095,-1835008,96,-56,-1,-1,0
1523633698095,-1966080,96,-56,-1,-1,0
1523633698095,-1966080,96,-56,-1,-1,0
1523633698095,-2097152,96,-56,-1,-1,0
1523633698095,-1441792,96,-56,-1,-1,0
1523633698134,1245184,96,-56,-1,-1,0
1523633698134,5767168,96,-56,-1,-1,0
1523633698134,7929856,96,-56,-1,-1,0
1523633698134,4325376,96,-56,-1,-1,0
1523633698134,-2162688,96,-56,-1,-1,0
1523633698174,-6750208,96,-56,-1,-1,0
1523633698174,-7602176,96,-56,-1,-1,0
1523633698174,-6356992,96,-56,-1,-1,0
1523633698174,-4456448,96,-56,-1,-1,0
1523633698174,-2949120,96,-56,-1,-1,0
1523633698214,-2228224,96,-56,-1,-1,0
1523633698214,-2031616,96,-56,-1,-1,0
1523633698214,-2031616,96,-56,-1,-1,0
1523633698214,-1900544,96,-56,-1,-1,0
1523633698214,-1638400,96,-56,-1,-1,0
1523633698254,-1310720,96,-56,-1,-1,0
1523633698254,-1245184,96,-56,-1,-1,0
1523633698254,-983040,96,-56,-1,-1,0
1523633698254,-655360,96,-56,-1,-1,0
1523633698254,-131072,96,-56,-1,-1,0
1523633698294,327680,96,-56,-1,-1,0
1523633698294,1245184,96,-56,-1,-1,0
1523633698294,2162688,96,-56,-1,-1,0
1523633698294,3080192,96,-56,-1,-1,0
1523633698294,3735552,96,-56,-1,-1,0
1523633698334,4128768,96,-56,-1,-1,0
1523633698334,4259840,96,-56,-1,-1,0
1523633698334,4128768,96,-56,-1,-1,0
1523633698334,3735552,96,-56,-1,-1,0
1523633698334,3014656,96,-56,-1,-1,0
1523633698374,2162688,96,-56,-1,-1,0
1523633698374,1114112,96,-56,-1,-1,0
1523633698374,0,96,-56,-1,-1,0
1523633698374,-851968,96,-56,-1,-1,0
1523633698374,-1441792,96,-56,-1,-1,0
1523633698414,-1835008,96,-56,-1,-1,0
1523633698414,-2097152,96,-56,-1,-1,0
1523633698414,-2228224,96,-56,-1,-1,0
1523633698414,-2228224,96,-56,-1,-1,0
1523633698414,-2424832,96,-56,-1,-1,0
1523633698454,-2424832,96,-56,-1,-1,0
1523633698454,-2424832,96,-56,-1,-1,0
1523633698454,-2293760,96,-56,-1,-1,0
1523633698454,-2293760,96,-56,-1,-1,0
1523633698454,-2293760,96,-56,-1,-1,0
1523633698494,-2293760,96,-56,-1,-1,0
1523633698494,-2424832,96,-56,-1,-1,0
1523633698494,-2686976,96,-56,-1,-1,0
1523633698494,-2686976,96,-56,-1,-1,0
1523633698494,-2818048,96,-56,-1,-1,0
1523633698534,-2686976,96,-56,-1,-1,0
1523633698534,-2621440,96,-56,-1,-1,0
1523633698534,-2686976,96,-56,-1,-1,0
1523633698534,-2949120,96,-56,-1,-1,0
1523633698534,-2883584,96,-56,-1,-1,0
1523633698574,-2949120,96,-56,-1,-1,0
1523633698574,-3014656,96,-56,-1,-1,0
1523633698574,-2949120,96,-56,-1,-1,0
1523633698574,-2949120,96,-56,-1,-1,0
1523633698574,-2752512,96,-56,-1,-1,0
1523633698614,-2752512,96,-56,-1,-1,0
1523633698614,-2883584,96,-56,-1,-1,0
1523633698614,-3014656,96,-56,-1,-1,0
1523633698614,-3014656,96,-56,-1,-1,0
1523633698614,-3145728,96,-56,-1,-1,0
1523633698654,-3276800,96,-56,-1,-1,0
1523633698654,-3211264,96,-56,-1,-1,0
1523633698654,-3014656,96,-56,-1,-1,0
1523633698654,-2752512,96,-56,-1,-1,0
1523633698654,-2621440,96,-56,-1,-1,0
1523633698694,-2818048,96,-56,-1,-1,0
1523633698694,-2949120,96,-56,-1,-1,0
1523633698694,-3014656,96,-56,-1,-1,0
1523633698694,-1966080,96,-56,-1,-1,0
1523633698694,1703936,96,-56,-1,-1,0
1523633698735,7340032,96,-56,-1,-1,0
1523633698735,9633792,96,-56,-1,-1,0
1523633698735,4915200,96,-56,-1,-1,0
1523633698735,-2555904,96,-56,-1,-1,0
1523633698735,-7471104,96,-56,-1,-1,0
1523633698774,-7798784,96,-56,-1,-1,0
1523633698774,-6291456,96,-56,-1,-1,0
1523633698774,-4456448,96,-56,-1,-1,0
1523633698774,-3276800,96,-56,-1,-1,0
1523633698774,-2621440,96,-56,-1,-1,0
1523633698814,-2097152,96,-56,-1,-1,0
1523633698814,-1769472,96,-56,-1,-1,0
1523633698814,-1703936,96,-56,-1,-1,0
1523633698814,-1703936,96,-56,-1,-1,0
1523633698814,-1441792,96,-56,-1,-1,0
1523633698854,-1179648,96,-56,-1,-1,0
1523633698854,-786432,96,-56,-1,-1,0
1523633698854,-393216,96,-56,-1,-1,0
1523633698854,131072,96,-56,-1,-1,0
1523633698854,1048576,96,-56,-1,-1,0
1523633698894,2031616,96,-56,-1,-1,0
1523633698894,3145728,96,-56,-1,-1,0
1523633698894,4259840,96,-56,-1,-1,0
1523633698894,5242880,96,-56,-1,-1,0
1523633698894,5898240,96,-56,-1,-1,0
1523633698934,5898240,96,-56,-1,-1,0
1523633698934,5373952,96,-56,-1,-1,0
1523633698934,4587520,96,-56,-1,-1,0
1523633698934,3538944,96,-56,-1,-1,0
1523633698934,2424832,96,-56,-1,-1,0
1523633698974,1245184,96,-56,-1,-1,0
1523633698974,327680,96,-56,-1,-1,0
1523633698974,-524288,96,-56,-1,-1,0
1523633698974,-983040,96,-56,-1,-1,0
1523633698974,-1245184,96,-56,-1,-1,0
1523633699014,-1376256,96,-56,-1,-1,0
1523633699014,-1507328,96,-56,-1,-1,0
1523633699014,-1638400,96,-56,-1,-1,0
1523633699014,-1638400,96,-56,-1,-1,0
1523633699014,-1769472,96,-56,-1,-1,0
1523633699054,-1900544,96,-56,-1,-1,0
1523633699054,-1703936,96,-56,-1,-1,0
1523633699054,-1179648,96,-56,-1,-1,0
1523633699054,-851968,96,-56,-1,-1,0
1523633699054,-1048576,96,-56,-1,-1,0
1523633699094,-1310720,96,-56,-1,-1,0
1523633699094,-1376256,96,-56,-1,-1,0
1523633699094,-1376256,96,-56,-1,-1,0
1523633699094,-1376256,96,-56,-1,-1,0
1523633699094,-1376256,96,-56,-1,-1,0
1523633699134,-1310720,96,-56,-1,-1,0
1523633699134,-1310720,96,-56,-1,-1,0
1523633699134,-1441792,96,-56,-1,-1,0
1523633699134,-1703936,96,-56,-1,-1,0
1523633699134,-1966080,96,-56,-1,-1,0
1523633699174,-1769472,97,-56,-1,-1,0
1523633699174,-1769472,97,-56,-1,-1,0
1523633699174,-1572864,97,-56,-1,-1,0
1523633699174,-1376256,97,-56,-1,-1,0
1523633699174,-1441792,97,-56,-1,-1,0
1523633699214,-1703936,97,-56,-1,-1,0
1523633699214,-1900544,97,-56,-1,-1,0
1523633699214,-2097152,97,-56,-1,-1,0
1523633699214,-1966080,97,-56,-1,-1,0
1523633699214,-1703936,97,-56,-1,-1,0
1523633699254,-1507328,97,-56,-1,-1,0
1523633699254,-1507328,97,-56,-1,-1,0
1523633699254,-1638400,97,-56,-1,-1,0
1523633699254,-1835008,97,-56,-1,-1,0
1523633699254,-1835008,97,-56,-1,-1,0
1523633699294,-2031616,97,-56,-1,-1,0
1523633699294,-1179648,97,-56,-1,-1,0
1523633699294,2359296,97,-56,-1,-1,0
1523633699294,7536640,97,-56,-1,-1,0
1523633699294,8978432,97,-56,-1,-1,0
1523633699334,4063232,97,-56,-1,-1,0
1523633699334,-2686976,97,-56,-1,-1,0
1523633699334,-6684672,97,-56,-1,-1,0
1523633699334,-7077888,97,-56,-1,-1,0
1523633699334,-5636096,97,-56,-1,-1,0
1523633699375,-3932160,97,-56,-1,-1,0
1523633699375,-2621440,97,-56,-1,-1,0
1523633699375,-2031616,97,-56,-1,-1,0
1523633699375,-1966080,97,-56,-1,-1,0
1523633699375,-1638400,97,-56,-1,-1,0
1523633699414,-1310720,97,-56,-1,-1,0
1523633699414,-1114112,97,-56,-1,-1,0
1523633699414,-1114112,97,-56,-1,-1,0
1523633699414,-983040,97,-56,-1,-1,0
1523633699414,-589824,97,-56,-1,-1,0
1523633699454,-196608,97,-56,-1,-1,0
1523633699454,262144,97,-56,-1,-1,0
1523633699454,917504,97,-56,-1,-1,0
1523633699454,1835008,97,-56,-1,-1,0
1523633699454,2818048,97,-56,-1,-1,0
1523633699494,3407872,97,-56,-1,-1,0
1523633699494,3997696,97,-56,-1,-1,0
1523633699494,4456448,97,-56,-1,-1,0
1523633699494,4980736,97,-56,-1,-1,0
1523633699494,4980736,97,-56,-1,-1,0
1523633699534,4063232,97,-56,-1,-1,0
1523633699534,2883584,97,-56,-1,-1,0
1523633699534,2162688,97,-56,-1,-1,0
1523633699534,1245184,97,-56,-1,-1,0
1523633699534,196608,97,-56,-1,-1,0
1523633699574,-524288,97,-56,-1,-1,0
1523633699574,-917504,97,-56,-1,-1,0
1523633699574,-1048576,97,-56,-1,-1,0
1523633699574,-1179648,97,-56,-1,-1,0
1523633699574,-1572864,97,-56,-1,-1,0
1523633699614,-1966080,97,-56,-1,-1,0
1523633699614,-2031616,97,-56,-1,-1,0
1523633699614,-1769472,97,-56,-1,-1,0
1523633699614,-1572864,97,-56,-1,-1,0
1523633699614,-1507328,97,-56,-1,-1,0
1523633699654,-1441792,97,-56,-1,-1,0
1523633699654,-1507328,97,-56,-1,-1,0
1523633699654,-1441792,97,-56,-1,-1,0
1523633699654,-1376256,97,-56,-1,-1,0
1523633699654,-1048576,97,-56,-1,-1,0
1523633699694,-983040,97,-56,-1,-1,0
1523633699694,-1310720,97,-56,-1,-1,0
1523633699694,-1703936,97,-56,-1,-1,0
1523633699694,-1638400,97,-56,-1,-1,0
1523633699694,-1572864,97,-56,-1,-1,0
1523633699734,-1507328,98,-56,-1,-1,0
1523633699734,-1179648,98,-56,-1,-1,0
1523633699734,-983040,98,-56,-1,-1,0
1523633699734,-1245184,98,-56,-1,-1,0
1523633699734,-1441792,98,-56,-1,-1,0
1523633699774,-1310720,98,-56,-1,-1,0
1523633699774,-1376256,98,-56,-1,-1,0
1523633699774,-1572864,98,-56,-1,-1,0
1523633699774,-1703936,98,-56,-1,-1,0
1523633699774,-1703936,98,-56,-1,-1,0
1523633699814,-1638400,98,-56,-1,-1,0
1523633699814,-1638400,98,-56,-1,-1,0
1523633699814,-1638400,98,-56,-1,-1,0
1523633699814,-1572864,98,-56,-1,-1,0
1523633699814,-1441792,98,-56,-1,-1,0
1523633699854,-1572864,98,-56,-1,-1,0
1523633699854,-1638400,98,-56,-1,-1,0
1523633699854,-1769472,98,-56,-1,-1,0
1523633699854,-1114112,98,-56,-1,-1,0
1523633699854,1638400,98,-56,-1,-1,0
1523633699894,6684672,98,-56,-1,-1,0
1523633699894,9502720,98,-56,-1,-1,0
1523633699894,6225920,98,-56,-1,-1,0
1523633699894,-655360,98,-56,-1,-1,0
1523633699894,-5505024,98,-56,-1,-1,0
1523633699934,-6225920,98,-56,-1,-1,0
1523633699934,-5111808,98,-56,-1,-1,0
1523633699934,-3604480,98,-56,-1,-1,0
1523633699934,-2031616,98,-56,-1,-1,0
1523633699934,-1179648,98,-56,-1,-1,0
1523633699974,-917504,98,-56,-1,-1,0
1523633699974,-851968,98,-56,-1,-1,0
1523633699974,-655360,98,-56,-1,-1,0
1523633699974,-655360,98,-56,-1,-1,0
1523633699974,-393216,98,-56,-1,-1,0
1523633700015,196608,98,-56,-1,-1,0
1523633700015,655360,98,-56,-1,-1,0
1523633700015,786432,98,-56,-1,-1,0
1523633700015,1179648,98,-56,-1,-1,0
1523633700015,1835008,98,-56,-1,-1,0
1523633700054,2818048,98,-56,-1,-1,0
1523633700054,3801088,98,-56,-1,-1,0
1523633700054,4915200,98,-56,-1,-1,0
1523633700054,5832704,98,-56,-1,-1,0
1523633700054,6160384,98,-56,-1,-1,0
1523633700094,6553600,98,-56,-1,-1,0
1523633700094,6488064,98,-56,-1,-1,0
1523633700094,6029312,98,-56,-1,-1,0
1523633700094,4915200,98,-56,-1,-1,0
1523633700094,3538944,98,-56,-1,-1,0
1523633700134,2293760,98,-56,-1,-1,0
1523633700134,1376256,98,-56,-1,-1,0
1523633700134,720896,98,-56,-1,-1,0
1523633700134,196608,98,-56,-1,-1,0
1523633700134,-65536,98,-56,-1,-1,0
1523633700174,-720896,98,-56,-1,-1,0
1523633700174,-1114112,98,-56,-1,-1,0
1523633700174,-917504,98,-56,-1,-1,0
1523633700174,-720896,98,-56,-1,-1,0
1523633700174,-851968,98,-56,-1,-1,0
1523633700214,-983040,98,-56,-1,-1,0
1523633700214,-917504,98,-56,-1,-1,0
1523633700214,-720896,98,-56,-1,-1,0
1523633700214,-720896,98,-56,-1,-1,0
1523633700214,-655360,98,-56,-1,-1,0
1523633700254,-458752,98,-56,-1,-1,0
1523633700254,-327680,98,-56,-1,-1,0
1523633700254,-589824,98,-56,-1,-1,0
1523633700254,-851968,98,-56,-1,-1,0
1523633700254,-983040,98,-56,-1,-1,0
1523633700294,-983040,98,-56,-1,-1,0
1523633700294,-1114112,98,-56,-1,-1,0
1523633700294,-1179648,98,-56,-1,-1,0
1523633700294,-1048576,98,-56,-1,-1,0
1523633700294,-1179648,98,-56,-1,-1,0
1523633700334,-1310720,98,-56,-1,-1,0
1523633700334,-1245184,98,-56,-1,-1,0
1523633700334,-1179648,98,-56,-1,-1,0
1523633700334,-1441792,98,-56,-1,-1,0
1523633700334,-1376256,98,-56,-1,-1,0
1523633700374,-1376256,98,-56,-1,-1,0
1523633700374,-1572864,98,-56,-1,-1,0
1523633700374,-1572864,98,-56,-1,-1,0
1523633700374,-1376256,98,-56,-1,-1,0
1523633700374,-1572864,98,-56,-1,-1,0
1523633700414,-1835008,98,-56,-1,-1,0
1523633700414,-1703936,98,-56,-1,-1,0
1523633700414,-1376256,98,-56,-1,-1,0
1523633700414,-1245184,98,-56,-1,-1,0
1523633700414,-1572864,98,-56,-1,-1,0
1523633700454,-1966080,98,-56,-1,-1,0
1523633700454,-524288,98,-56,-1,-1,0
1523633700454,4128768,98,-56,-1,-1,0
1523633700454,9699328,98,-56,-1,-1,0
1523633700454,10747904,98,-56,-1,-1,0
1523633700494,4849664,98,-56,-1,-1,0
1523633700494,-2621440,98,-56,-1,-1,0
1523633700494,-6553600,98,-56,-1,-1,0
1523633700494,-6356992,98,-56,-1,-1,0
1523633700494,-4653056,98,-56,-1,-1,0
1523633700534,-2883584,98,-56,-1,-1,0
1523633700534,-1703936,98,-56,-1,-1,0
1523633700534,-1441792,98,-56,-1,-1,0
1523633700534,-1310720,98,-56,-1,-1,0
1523633700534,-1114112,98,-56,-1,-1,0
1523633700574,-720896,98,-56,-1,-1,0
1523633700574,-327680,98,-56,-1,-1,0
1523633700574,0,98,-56,-1,-1,0
1523633700574,65536,98,-56,-1,-1,0
1523633700574,131072,98,-56,-1,-1,0
1523633700614,524288,98,-56,-1,-1,0
1523633700614,983040,98,-56,-1,-1,0
1523633700614,1703936,98,-56,-1,-1,0
1523633700614,2818048,98,-56,-1,-1,0
1523633700614,4194304,98,-56,-1,-1,0
1523633700655,5242880,98,-56,-1,-1,0
1523633700655,6029312,98,-56,-1,-1,0
1523633700655,6422528,98,-56,-1,-1,0
1523633700655,6160384,98,-56,-1,-1,0
1523633700655,5373952,98,-56,-1,-1,0
1523633700694,4521984,98,-56,-1,-1,0
1523633700694,3670016,98,-56,-1,-1,0
1523633700694,2686976,98,-56,-1,-1,0
1523633700694,1507328,98,-56,-1,-1,0
1523633700694,589824,98,-56,-1,-1,0
1523633700734,-131072,98,-56,-1,-1,0
1523633700734,-524288,98,-56,-1,-1,0
1523633700734,-720896,98,-56,-1,-1,0
1523633700734,-786432,98,-56,-1,-1,0
1523633700734,-1114112,98,-56,-1,-1,0
1523633700774,-1376256,98,-56,-1,-1,0
1523633700774,-1507328,98,-56,-1,-1,0
1523633700774,-1441792,98,-56,-1,-1,0
1523633700774,-1310720,98,-56,-1,-1,0
1523633700774,-1179648,98,-56,-1,-1,0
1523633700814,-1114112,98,-56,-1,-1,0
1523633700814,-1048576,98,-56,-1,-1,0
1523633700814,-851968,98,-56,-1,-1,0
1523633700814,-851968,98,-56,-1,-1,0
1523633700814,-1048576,98,-56,-1,-1,0
1523633700854,-983040,98,-56,-1,-1,0
1523633700854,-786432,98,-56,-1,-1,0
1523633700854,-851968,98,-56,-1,-1,0
1523633700854,-1048576,98,-56,-1,-1,0
1523633700854,-1179648,98,-56,-1,-1,0
1523633700894,-1245184,98,-56,-1,-1,0
1523633700894,-1310720,98,-56,-1,-1,0
1523633700894,-1245184,98,-56,-1,-1,0
1523633700894,-1245184,98,-56,-1,-1,0
1523633700894,-1114112,98,-56,-1,-1,0
1523633700934,-1114112,100,-56,-1,-1,0
1523633700934,-1310720,100,-56,-1,-1,0
1523633700934,-1376256,100,-56,-1,-1,0
1523633700934,-1441792,100,-56,-1,-1,0
1523633700934,-1441792,100,-56,-1,-1,0
1523633700974,-1441792,100,-56,-1,-1,0
1523633700974,-1441792,100,-56,-1,-1,0
1523633700974,-1507328,100,-56,-1,-1,0
1523633700974,-1376256,100,-56,-1,-1,0
1523633700974,-1245184,100,-56,-1,-1,0
1523633701014,-1310720,100,-56,-1,-1,0
1523633701014,-1638400,100,-56,-1,-1,0
1523633701014,-1835008,100,-56,-1,-1,0
1523633701014,0,100,-56,-1,-1,0
1523633701014,5046272,100,-56,-1,-1,0
1523633701054,10092544,100,-56,-1,-1,0
1523633701054,9633792,100,-56,-1,-1,0
1523633701054,2949120,100,-56,-1,-1,0
1523633701054,-3997696,100,-56,-1,-1,0
1523633701054,-7077888,100,-56,-1,-1,0
1523633701094,-6553600,100,-56,-1,-1,0
1523633701094,-5046272,100,-56,-1,-1,0
1523633701094,-3342336,100,-56,-1,-1,0
1523633701094,-2162688,100,-56,-1,-1,0
1523633701094,-1638400,100,-56,-1,-1,0
1523633701134,-1441792,100,-56,-1,-1,0
1523633701134,-1310720,100,-56,-1,-1,0
1523633701134,-1048576,100,-56,-1,-1,0
1523633701134,-851968,100,-56,-1,-1,0
1523633701134,-786432,100,-56,-1,-1,0
1523633701174,-655360,100,-56,-1,-1,0
1523633701174,-196608,100,-56,-1,-1,0
1523633701174,393216,100,-56,-1,-1,0
1523633701174,1245184,100,-56,-1,-1,0
1523633701174,2031616,100,-56,-1,-1,0
1523633701214,2818048,100,-56,-1,-1,0
1523633701214,3670016,100,-56,-1,-1,0
1523633701214,4521984,100,-56,-1,-1,0
1523633701214,5111808,100,-56,-1,-1,0
1523633701214,5373952,100,-56,-1,-1,0
1523633701254,5439488,100,-56,-1,-1,0
1523633701254,5046272,100,-56,-1,-1,0
1523633701254,4194304,100,-56,-1,-1,0
1523633701254,3080192,100,-56,-1,-1,0
1523633701254,1900544,100,-56,-1,-1,0
1523633701295,917504,100,-56,-1,-1,0
1523633701295,327680,100,-56,-1,-1,0
1523633701295,-262144,100,-56,-1,-1,0
1523633701295,-851968,100,-56,-1,-1,0
1523633701295,-1376256,100,-56,-1,-1,0
1523633701334,-1769472,100,-56,-1,-1,0
1523633701334,-2097152,100,-56,-1,-1,0
1523633701334,-2097152,100,-56,-1,-1,0
1523633701334,-1966080,100,-56,-1,-1,0
1523633701334,-1966080,100,-56,-1,-1,0
1523633701374,-2097152,100,-56,-1,-1,0
1523633701374,-1966080,100,-56,-1,-1,0
1523633701374,-1835008,100,-56,-1,-1,0
1523633701374,-1769472,100,-56,-1,-1,0
1523633701374,-1769472,100,-56,-1,-1,0
1523633701414,-1638400,100,-56,-1,-1,0
1523633701414,-1507328,100,-56,-1,-1,0
1523633701414,-1572864,100,-56,-1,-1,0
1523633701414,-1769472,100,-56,-1,-1,0
1523633701414,-1900544,100,-56,-1,-1,0
1523633701454,-1966080,100,-56,-1,-1,0
1523633701454,-1966080,100,-56,-1,-1,0
1523633701454,-1966080,100,-56,-1,-1,0
1523633701454,-1900544,100,-56,-1,-1,0
1523633701454,-1703936,100,-56,-1,-1,0
1523633701494,-1638400,100,-56,-1,-1,0
1523633701494,-1769472,100,-56,-1,-1,0
1523633701494,-2031616,100,-56,-1,-1,0
1523633701494,-2097152,100,-56,-1,-1,0
1523633701494,-1769472,100,-56,-1,-1,0
1523633701534,-1703936,100,-56,-1,-1,0
1523633701534,-1900544,100,-56,-1,-1,0
1523633701534,-2162688,100,-56,-1,-1,0
1523633701534,-2097152,100,-56,-1,-1,0
1523633701534,-1900544,100,-56,-1,-1,0
1523633701574,-1703936,100,-56,-1,-1,0
1523633701574,-1703936,100,-56,-1,-1,0
1523633701574,-1703936,100,-56,-1,-1,0
1523633701574,-1769472,100,-56,-1,-1,0
1523633701574,-1703936,100,-56,-1,-1,0
1523633701614,-1572864,100,-56,-1,-1,0
1523633701614,-1769472,100,-56,-1,-1,0
1523633701614,-1245184,100,-56,-1,-1,0
1523633701614,1835008,100,-56,-1,-1,0
1523633701614,7602176,100,-56,-1,-1,0
1523633701654,11796480,100,-56,-1,-1,0
1523633701654,8847360,100,-56,-1,-1,0
1523633701654,589824,100,-56,-1,-1,0
1523633701654,-5832704,100,-56,-1,-1,0
1523633701654,-6881280,100,-56,-1,-1,0
1523633701694,-5505024,100,-56,-1,-1,0
1523633701694,-3866624,100,-56,-1,-1,0
1523633701694,-2555904,100,-56,-1,-1,0
1523633701694,-1703936,100,-56,-1,-1,0
1523633701694,-1179648,100,-56,-1,-1,0
1523633701734,-1179648,100,-56,-1,-1,0
1523633701734,-983040,100,-56,-1,-1,0
1523633701734,-524288,100,-56,-1,-1,0
1523633701734,0,100,-56,-1,-1,0
1523633701734,0,100,-56,-1,-1,0
1523633701774,65536,100,-56,-1,-1,0
1523633701774,524288,100,-56,-1,-1,0
1523633701774,983040,100,-56,-1,-1,0
1523633701774,1507328,100,-56,-1,-1,0
1523633701774,2424832,100,-56,-1,-1,0
1523633701814,3801088,100,-56,-1,-1,0
1523633701814,4849664,100,-56,-1,-1,0
1523633701814,5570560,100,-56,-1,-1,0
1523633701814,6225920,100,-56,-1,-1,0
1523633701814,6422528,100,-56,-1,-1,0
1523633701854,6225920,100,-56,-1,-1,0
1523633701854,5636096,100,-56,-1,-1,0
1523633701854,4718592,100,-56,-1,-1,0
1523633701854,3604480,100,-56,-1,-1,0
1523633701854,2490368,100,-56,-1,-1,0
1523633701894,1507328,100,-56,-1,-1,0
1523633701894,589824,100,-56,-1,-1,0
1523633701894,0,100,-56,-1,-1,0
1523633701894,-327680,100,-56,-1,-1,0
1523633701894,-589824,100,-56,-1,-1,0
1523633701935,-720896,100,-56,-1,-1,0
1523633701935,-786432,100,-56,-1,-1,0
1523633701935,-851968,100,-56,-1,-1,0
1523633701935,-1048576,100,-56,-1,-1,0
1523633701935,-1114112,100,-56,-1,-1,0
1523633701974,-1114112,100,-56,-1,-1,0
1523633701974,-786432,100,-56,-1,-1,0
1523633701974,-589824,100,-56,-1,-1,0
1523633701974,-655360,100,-56,-1,-1,0
1523633701974,-851968,100,-56,-1,-1,0
1523633702014,-851968,100,-56,-1,-1,0
1523633702014,-786432,100,-56,-1,-1,0
1523633702014,-917504,100,-56,-1,-1,0
1523633702014,-1048576,100,-56,-1,-1,0
1523633702014,-1245184,100,-56,-1,-1,0
1523633702054,-1310720,100,-56,-1,-1,0
1523633702054,-1179648,100,-56,-1,-1,0
1523633702054,-1310720,100,-56,-1,-1,0
1523633702054,-1441792,100,-56,-1,-1,0
1523633702054,-1507328,100,-56,-1,-1,0
1523633702094,-1441792,100,-56,-1,-1,0
1523633702094,-1572864,100,-56,-1,-1,0
1523633702094,-1638400,100,-56,-1,-1,0
1523633702094,-1507328,100,-56,-1,-1,0
1523633702094,-1376256,100,-56,-1,-1,0
1523633702134,-1245184,100,-56,-1,-1,0
1523633702134,-1179648,100,-56,-1,-1,0
1523633702134,-1048576,100,-56,-1,-1,0
1523633702134,-1245184,100,-56,-1,-1,0
1523633702134,-1507328,100,-56,-1,-1,0
1523633702174,-1572864,100,-56,-1,-1,0
1523633702174,-1572864,100,-56,-1,-1,0
1523633702174,-1507328,100,-56,-1,-1,0
1523633702174,-1507328,100,-56,-1,-1,0
1523633702174,-1638400,100,-56,-1,-1,0
1523633702214,-1507328,100,-56,-1,-1,0
1523633702214,-1245184,100,-56,-1,-1,0
1523633702214,-1441792,100,-56,-1,-1,0
1523633702214,-1638400,100,-56,-1,-1,0
1523633702214,-1769472,100,-56,-1,-1,0
1523633702254,-1310720,100,-56,-1,-1,0
1523633702254,1245184,100,-56,-1,-1,0
1523633702254,6684672,100,-56,-1,-1,0
1523633702254,10551296,100,-56,-1,-1,0
1523633702254,8126464,100,-56,-1,-1,0
1523633702294,655360,100,-56,-1,-1,0
1523633702294,-5308416,100,-56,-1,-1,0
1523633702294,-6750208,100,-56,-1,-1,0
1523633702294,-5701632,100,-56,-1,-1,0
1523633702294,-3932160,100,-56,-1,-1,0
1523633702334,-2359296,100,-56,-1,-1,0
1523633702334,-1572864,100,-56,-1,-1,0
1523633702334,-1441792,100,-56,-1,-1,0
1523633702334,-1048576,100,-56,-1,-1,0
1523633702334,-720896,100,-56,-1,-1,0
1523633702374,-655360,100,-56,-1,-1,0
1523633702374,-655360,100,-56,-1,-1,0
1523633702374,-393216,100,-56,-1,-1,0
1523633702374,-65536,100,-56,-1,-1,0
1523633702374,458752,100,-56,-1,-1,0
1523633702414,1179648,100,-56,-1,-1,0
1523633702414,1769472,100,-56,-1,-1,0
1523633702414,2555904,100,-56,-1,-1,0
1523633702414,3735552,100,-56,-1,-1,0
1523633702414,4980736,100,-56,-1,-1,0
1523633702454,5963776,100,-56,-1,-1,0
1523633702454,6291456,100,-56,-1,-1,0
1523633702454,6356992,100,-56,-1,-1,0
1523633702454,6619136,100,-56,-1,-1,0
1523633702454,6225920,100,-56,-1,-1,0
1523633702494,5242880,100,-56,-1,-1,0
1523633702494,4390912,100,-56,-1,-1,0
1523633702494,3276800,100,-56,-1,-1,0
1523633702494,1966080,100,-56,-1,-1,0
1523633702494,1114112,100,-56,-1,-1,0
1523633702534,524288,100,-56,-1,-1,0
1523633702534,0,100,-56,-1,-1,0
1523633702534,-262144,100,-56,-1,-1,0
1523633702534,-393216,100,-56,-1,-1,0
1523633702534,-589824,100,-56,-1,-1,0
1523633702575,-589824,100,-56,-1,-1,0
1523633702575,-393216,100,-56,-1,-1,0
1523633702575,-327680,100,-56,-1,-1,0
1523633702575,-65536,100,-56,-1,-1,0
1523633702575,-65536,100,-56,-1,-1,0
1523633702614,-262144,100,-56,-1,-1,0
1523633702614,-393216,100,-56,-1,-1,0
1523633702614,-196608,100,-56,-1,-1,0
1523633702614,-65536,100,-56,-1,-1,0
1523633702614,0,100,-56,-1,-1,0
1523633702654,65536,100,-56,-1,-1,0
1523633702654,-65536,100,-56,-1,-1,0
1523633702654,-393216,100,-56,-1,-1,0
1523633702654,-589824,100,-56,-1,-1,0
1523633702654,-589824,100,-56,-1,-1,0
1523633702694,-655360,100,-56,-1,-1,0
1523633702694,-655360,100,-56,-1,-1,0
1523633702694,-458752,100,-56,-1,-1,0
1523633702694,-655360,100,-56,-1,-1,0
1523633702694,-1048576,100,-56,-1,-1,0
1523633702734,-1048576,100,-56,-1,-1,0
1523633702734,-786432,100,-56,-1,-1,0
1523633702734,-720896,100,-56,-1,-1,0
1523633702734,-655360,100,-56,-1,-1,0
1523633702734,-655360,100,-56,-1,-1,0
1523633702774,-786432,100,-56,-1,-1,0
1523633702774,-983040,100,-56,-1,-1,0
1523633702774,-851968,100,-56,-1,-1,0
1523633702774,-655360,100,-56,-1,-1,0
1523633702774,-720896,100,-56,-1,-1,0
1523633702814,-983040,100,-56,-1,-1,0
1523633702814,-1048576,100,-56,-1,-1,0
1523633702814,-983040,100,-56,-1,-1,0
1523633702814,-917504,100,-56,-1,-1,0
1523633702814,-917504,100,-56,-1,-1,0
1523633702854,-983040,100,-56,-1,-1,0
1523633702854,-1310720,100,-56,-1,-1,0
1523633702854,-1245184,100,-56,-1,-1,0
1523633702854,393216,100,-56,-1,-1,0
1523633702854,4784128,100,-56,-1,-1,0
1523633702894,9175040,100,-56,-1,-1,0
1523633702894,8716288,100,-56,-1,-1,0
1523633702894,2490368,100,-56,-1,-1,0
1523633702894,-3735552,100,-56,-1,-1,0
1523633702894,-6422528,100,-56,-1,-1,0
1523633702934,-6160384,100,-56,-1,-1,0
1523633702934,-4521984,100,-56,-1,-1,0
1523633702934,-2686976,100,-56,-1,-1,0
1523633702934,-1769472,100,-56,-1,-1,0
1523633702934,-1245184,100,-56,-1,-1,0
1523633702974,-1048576,100,-56,-1,-1,0
1523633702974,-983040,100,-56,-1,-1,0
1523633702974,-851968,100,-56,-1,-1,0
1523633702974,-720896,100,-56,-1,-1,0
1523633702974,-393216,100,-56,-1,-1,0
1523633703014,-65536,100,-56,-1,-1,0
1523633703014,131072,100,-56,-1,-1,0
1523633703014,262144,100,-56,-1,-1,0
1523633703014,786432,100,-56,-1,-1,0
1523633703014,1507328,100,-56,-1,-1,0
1523633703054,2424832,100,-56,-1,-1,0
1523633703054,3407872,100,-56,-1,-1,0
1523633703054,4259840,100,-56,-1,-1,0
1523633703054,4915200,100,-56,-1,-1,0
1523633703054,5505024,100,-56,-1,-1,0
1523633703094,5505024,100,-56,-1,-1,0
1523633703094,5242880,100,-56,-1,-1,0
1523633703094,4521984,100,-56,-1,-1,0
1523633703094,3670016,100,-56,-1,-1,0
1523633703094,2752512,100,-56,-1,-1,0
1523633703134,1703936,100,-56,-1,-1,0
1523633703134,851968,100,-56,-1,-1,0
1523633703134,327680,100,-56,-1,-1,0
1523633703134,-131072,100,-56,-1,-1,0
1523633703134,-589824,100,-56,-1,-1,0
1523633703174,-917504,100,-56,-1,-1,0
1523633703174,-917504,100,-56,-1,-1,0
1523633703174,-983040,100,-56,-1,-1,0
1523633703174,-1245184,100,-56,-1,-1,0
1523633703174,-1441792,100,-56,-1,-1,0
1523633703215,-1310720,100,-56,-1,-1,0
1523633703215,-1310720,100,-56,-1,-1,0
1523633703215,-1179648,100,-56,-1,-1,0
1523633703215,-917504,100,-56,-1,-1,0
1523633703215,-786432,100,-56,-1,-1,0
1523633703254,-917504,100,-56,-1,-1,0
1523633703254,-1114112,100,-56,-1,-1,0
1523633703254,-1048576,100,-56,-1,-1,0
1523633703254,-983040,100,-56,-1,-1,0
1523633703254,-1048576,100,-56,-1,-1,0
1523633703294,-1179648,100,-56,-1,-1,0
1523633703294,-1310720,100,-56,-1,-1,0
1523633703294,-1507328,100,-56,-1,-1,0
1523633703294,-1638400,100,-56,-1,-1,0
1523633703294,-1507328,100,-56,-1,-1,0
1523633703334,-1310720,100,-56,-1,-1,0
1523633703334,-1507328,100,-56,-1,-1,0
1523633703334,-1769472,100,-56,-1,-1,0
1523633703334,-1638400,100,-56,-1,-1,0
1523633703334,-1376256,100,-56,-1,-1,0
1523633703374,-1114112,100,-56,-1,-1,0
1523633703374,-1114112,100,-56,-1,-1,0
1523633703374,-1310720,100,-56,-1,-1,0
1523633703374,-1507328,100,-56,-1,-1,0
1523633703374,-1507328,100,-56,-1,-1,0
1523633703414,-1769472,100,-56,-1,-1,0
1523633703414,-1638400,100,-56,-1,-1,0
1523633703414,-1376256,100,-56,-1,-1,0
1523633703414,-1310720,100,-56,-1,-1,0
1523633703414,-1245184,100,-56,-1,-1,0
1523633703454,-1245184,100,-56,-1,-1,0
1523633703454,-1441792,100,-56,-1,-1,0
1523633703454,-1376256,100,-56,-1,-1,0
1523633703454,-1245184,100,-56,-1,-1,0
1523633703454,-1179648,100,-56,-1,-1,0
1523633703494,-131072,100,-56,-1,-1,0
1523633703494,3801088,100,-56,-1,-1,0
1523633703494,8585216,100,-56,-1,-1,0
1523633703494,8912896,100,-56,-1,-1,0
1523633703494,3342336,100,-56,-1,-1,0
1523633703534,-2949120,100,-56,-1,-1,0
1523633703534,-6225920,100,-56,-1,-1,0
1523633703534,-6094848,100,-56,-1,-1,0
1523633703534,-4521984,100,-56,-1,-1,0
1523633703534,-2883584,100,-56,-1,-1,0
1523633703574,-1835008,100,-56,-1,-1,0
1523633703574,-1179648,100,-56,-1,-1,0
1523633703574,-720896,100,-56,-1,-1,0
1523633703574,-655360,100,-56,-1,-1,0
1523633703574,-458752,100,-56,-1,-1,0
1523633703614,-131072,100,-56,-1,-1,0
1523633703614,196608,100,-56,-1,-1,0
1523633703614,327680,100,-56,-1,-1,0
1523633703614,655360,100,-56,-1,-1,0
1523633703614,983040,100,-56,-1,-1,0
1523633703654,1769472,100,-56,-1,-1,0
1523633703654,2621440,100,-56,-1,-1,0
1523633703654,3342336,100,-56,-1,-1,0
1523633703654,4390912,100,-56,-1,-1,0
1523633703654,5636096,100,-56,-1,-1,0
1523633703694,6619136,100,-56,-1,-1,0
1523633703694,7077888,100,-56,-1,-1,0
1523633703694,7143424,100,-56,-1,-1,0
1523633703694,6750208,100,-56,-1,-1,0
1523633703694,6160384,100,-56,-1,-1,0
1523633703734,5111808,100,-56,-1,-1,0
1523633703734,4128768,100,-56,-1,-1,0
1523633703734,3211264,100,-56,-1,-1,0
1523633703734,2555904,100,-56,-1,-1,0
1523633703734,1835008,100,-56,-1,-1,0
1523633703774,983040,100,-56,-1,-1,0
1523633703774,327680,100,-56,-1,-1,0
1523633703774,196608,100,-56,-1,-1,0
1523633703774,262144,100,-56,-1,-1,0
1523633703774,196608,100,-56,-1,-1,0
1523633703814,327680,100,-56,-1,-1,0
1523633703814,458752,100,-56,-1,-1,0
1523633703814,524288,100,-56,-1,-1,0
1523633703814,655360,100,-56,-1,-1,0
1523633703814,720896,100,-56,-1,-1,0
1523633703855,589824,100,-56,-1,-1,0
1523633703855,524288,100,-56,-1,-1,0
1523633703855,589824,100,-56,-1,-1,0
1523633703855,720896,100,-56,-1,-1,0
1523633703855,720896,100,-56,-1,-1,0
1523633703894,655360,100,-56,-1,-1,0
1523633703894,589824,100,-56,-1,-1,0
1523633703894,393216,100,-56,-1,-1,0
1523633703894,65536,100,-56,-1,-1,0
1523633703894,131072,100,-56,-1,-1,0
1523633703934,196608,100,-56,-1,-1,0
1523633703934,393216,100,-56,-1,-1,0
1523633703934,393216,100,-56,-1,-1,0
1523633703934,327680,100,-56,-1,-1,0
1523633703934,65536,100,-56,-1,-1,0
1523633703974,-65536,100,-56,-1,-1,0
1523633703974,196608,100,-56,-1,-1,0
1523633703974,262144,100,-56,-1,-1,0
1523633703974,327680,100,-56,-1,-1,0
1523633703974,327680,100,-56,-1,-1,0
1523633704015,393216,100,-56,-1,-1,0
1523633704015,458752,100,-56,-1,-1,0
1523633704015,393216,100,-56,-1,-1,0
1523633704015,196608,100,-56,-1,-1,0
1523633704015,0,100,-56,-1,-1,0
1523633704054,131072,100,-56,-1,-1,0
1523633704054,65536,100,-56,-1,-1,0
1523633704054,196608,100,-56,-1,-1,0
1523633704054,393216,100,-56,-1,-1,0
1523633704054,589824,100,-56,-1,-1,0
1523633704094,458752,100,-56,-1,-1,0
1523633704094,196608,100,-56,-1,-1,0
1523633704094,-262144,100,-56,-1,-1,0
1523633704094,-262144,100,-56,-1,-1,0
1523633704094,2162688,100,-56,-1,-1,0
1523633704134,8192000,100,-56,-1,-1,0
1523633704134,12845056,100,-56,-1,-1,0
1523633704134,10682368,100,-56,-1,-1,0
1523633704134,3014656,100,-56,-1,-1,0
1523633704134,-3407872,100,-56,-1,-1,0
1523633704174,-4980736,100,-56,-1,-1,0
1523633704174,-4128768,100,-56,-1,-1,0
1523633704174,-2555904,100,-56,-1,-1,0
1523633704174,-983040,100,-56,-1,-1,0
1523633704174,65536,100,-56,-1,-1,0
1523633704214,393216,100,-56,-1,-1,0
1523633704214,458752,100,-56,-1,-1,0
1523633704214,393216,100,-56,-1,-1,0
1523633704214,458752,100,-56,-1,-1,0
1523633704214,655360,100,-56,-1,-1,0
1523633704254,1114112,100,-56,-1,-1,0
1523633704254,1507328,100,-56,-1,-1,0
1523633704254,1441792,100,-56,-1,-1,0
1523633704254,2031616,100,-56,-1,-1,0
1523633704254,2752512,100,-56,-1,-1,0
1523633704294,3538944,100,-56,-1,-1,0
1523633704294,4325376,100,-56,-1,-1,0
1523633704294,5636096,100,-56,-1,-1,0
1523633704294,6881280,100,-56,-1,-1,0
1523633704294,7602176,100,-56,-1,-1,0
1523633704334,7929856,100,-56,-1,-1,0
1523633704334,7864320,100,-56,-1,-1,0
1523633704334,7340032,100,-56,-1,-1,0
1523633704334,6094848,100,-56,-1,-1,0
1523633704334,4980736,100,-56,-1,-1,0
1523633704374,4063232,100,-56,-1,-1,0
1523633704374,2621440,100,-56,-1,-1,0
1523633704374,983040,100,-56,-1,-1,0
1523633704374,393216,100,-56,-1,-1,0
1523633704374,458752,100,-56,-1,-1,0
1523633704414,262144,100,-56,-1,-1,0
1523633704414,196608,100,-56,-1,-1,0
1523633704414,0,100,-56,-1,-1,0
1523633704414,-262144,100,-56,-1,-1,0
1523633704414,-524288,100,-56,-1,-1,0
1523633704454,-458752,100,-56,-1,-1,0
1523633704454,-393216,100,-56,-1,-1,0
1523633704454,-327680,100,-56,-1,-1,0
1523633704454,-65536,100,-56,-1,-1,0
1523633704454,-65536,100,-56,-1,-1,0
1523633704495,-262144,100,-56,-1,-1,0
1523633704495,-131072,100,-56,-1,-1,0
1523633704495,65536,100,-56,-1,-1,0
1523633704495,65536,100,-56,-1,-1,0
1523633704495,0,100,-56,-1,-1,0
1523633704534,0,100,-56,-1,-1,0
1523633704534,0,100,-56,-1,-1,0
1523633704534,-131072,100,-56,-1,-1,0
1523633704534,-458752,100,-56,-1,-1,0
1523633704534,-655360,100,-56,-1,-1,0
1523633704574,-655360,100,-56,-1,-1,0
1523633704574,-589824,100,-56,-1,-1,0
1523633704574,-786432,100,-56,-1,-1,0
1523633704574,-917504,100,-56,-1,-1,0
1523633704574,-917504,100,-56,-1,-1,0
1523633704614,-720896,100,-56,-1,-1,0
1523633704614,-524288,100,-56,-1,-1,0
1523633704614,-655360,100,-56,-1,-1,0
1523633704614,-917504,100,-56,-1,-1,0
1523633704614,-1310720,100,-56,-1,-1,0
1523633704654,-1507328,100,-56,-1,-1,0
1523633704654,-1376256,100,-56,-1,-1,0
1523633704654,-1376256,100,-56,-1,-1,0
1523633704654,-1507328,100,-56,-1,-1,0
1523633704654,-1507328,100,-56,-1,-1,0
1523633704694,-1507328,100,-56,-1,-1,0
1523633704694,-1572864,100,-56,-1,-1,0
1523633704694,-1769472,100,-56,-1,-1,0
1523633704694,-1900544,100,-56,-1,-1,0
1523633704694,-2097152,100,-56,-1,-1,0
1523633704734,-1441792,100,-56,-1,-1,0
1523633704734,1638400,100,-56,-1,-1,0
1523633704734,6750208,100,-56,-1,-1,0
1523633704734,9240576,100,-56,-1,-1,0
1523633704734,5111808,100,-56,-1,-1,0
1523633704774,-2097152,100,-56,-1,-1,0
1523633704774,-6815744,100,-56,-1,-1,0
1523633704774,-7602176,100,-56,-1,-1,0
1523633704774,-6553600,100,-56,-1,-1,0
1523633704774,-4915200,100,-56,-1,-1,0
1523633704814,-3407872,100,-56,-1,-1,0
1523633704814,-2490368,100,-56,-1,-1,0
1523633704814,-2293760,100,-56,-1,-1,0
1523633704814,-2293760,100,-56,-1,-1,0
1523633704814,-2228224,100,-56,-1,-1,0
1523633704854,-1900544,100,-56,-1,-1,0
1523633704854,-1572864,100,-56,-1,-1,0
1523633704854,-1572864,100,-56,-1,-1,0
1523633704854,-1376256,100,-56,-1,-1,0
1523633704854,-1048576,100,-56,-1,-1,0
1523633704894,-458752,100,-56,-1,-1,0
1523633704894,131072,100,-56,-1,-1,0
1523633704894,851968,100,-56,-1,-1,0
1523633704894,1769472,100,-56,-1,-1,0
1523633704894,2752512,100,-56,-1,-1,0
1523633704934,3670016,100,-56,-1,-1,0
1523633704934,4325376,100,-56,-1,-1,0
1523633704934,4456448,100,-56,-1,-1,0
1523633704934,4128768,100,-56,-1,-1,0
1523633704934,3735552,100,-56,-1,-1,0
1523633704974,3145728,100,-56,-1,-1,0
1523633704974,2228224,100,-56,-1,-1,0
1523633704974,1179648,100,-56,-1,-1,0
1523633704974,131072,100,-56,-1,-1,0
1523633704974,-655360,100,-56,-1,-1,0
1523633705014,-1179648,100,-56,-1,-1,0
1523633705014,-1769472,100,-56,-1,-1,0
1523633705014,-2228224,100,-56,-1,-1,0
1523633705014,-2555904,100,-56,-1,-1,0
1523633705014,-2621440,100,-56,-1,-1,0
1523633705054,-2490368,100,-56,-1,-1,0
1523633705054,-2555904,100,-56,-1,-1,0
1523633705054,-2752512,100,-56,-1,-1,0
1523633705054,-2686976,100,-56,-1,-1,0
1523633705054,-2228224,100,-56,-1,-1,0
1523633705095,-2228224,100,-56,-1,-1,0
1523633705095,-2424832,100,-56,-1,-1,0
1523633705095,-2424832,100,-56,-1,-1,0
1523633705095,-2162688,100,-56,-1,-1,0
1523633705095,-2228224,100,-56,-1,-1,0
1523633705136,-2359296,100,-56,-1,-1,0
1523633705136,-2555904,100,-56,-1,-1,0
1523633705136,-2424832,100,-56,-1,-1,0
1523633705136,-2424832,100,-56,-1,-1,0
1523633705136,-2490368,100,-56,-1,-1,0
1523633705174,-2555904,100,-56,-1,-1,0
1523633705174,-2555904,100,-56,-1,-1,0
1523633705174,-2621440,100,-56,-1,-1,0
1523633705174,-2555904,100,-56,-1,-1,0
1523633705174,-2293760,100,-56,-1,-1,0
1523633705214,-2490368,100,-56,-1,-1,0
1523633705214,-2818048,100,-56,-1,-1,0
1523633705214,-2883584,100,-56,-1,-1,0
1523633705214,-2686976,100,-56,-1,-1,0
1523633705214,-2621440,100,-56,-1,-1,0
1523633705254,-2752512,100,-56,-1,-1,0
1523633705254,-2883584,100,-56,-1,-1,0
1523633705254,-3145728,100,-56,-1,-1,0
1523633705254,-3014656,100,-56,-1,-1,0
1523633705254,-2818048,100,-56,-1,-1,0
1523633705294,-2752512,100,-56,-1,-1,0
1523633705294,-2883584,100,-56,-1,-1,0
1523633705294,-2949120,100,-56,-1,-1,0
1523633705294,-2818048,100,-56,-1,-1,0
1523633705294,-2555904,100,-56,-1,-1,0
1523633705334,-524288,100,-56,-1,-1,0
1523633705334,3997696,100,-56,-1,-1,0
1523633705334,7340032,100,-56,-1,-1,0
1523633705334,4980736,100,-56,-1,-1,0
1523633705334,-1507328,100,-56,-1,-1,0
1523633705374,-6553600,100,-56,-1,-1,0
1523633705374,-8126464,100,-56,-1,-1,0
1523633705374,-7340032,100,-56,-1,-1,0
1523633705374,-5636096,100,-56,-1,-1,0
1523633705374,-3997696,100,-56,-1,-1,0
1523633705414,-3080192,100,-56,-1,-1,0
1523633705414,-2818048,100,-56,-1,-1,0
1523633705414,-2424832,100,-56,-1,-1,0
1523633705414,-2031616,100,-56,-1,-1,0
1523633705414,-1966080,100,-56,-1,-1,0
1523633705454,-1900544,100,-56,-1,-1,0
1523633705454,-1441792,100,-56,-1,-1,0
1523633705454,-917504,100,-56,-1,-1,0
1523633705454,-655360,100,-56,-1,-1,0
1523633705454,-524288,100,-56,-1,-1,0
1523633705494,-131072,100,-56,-1,-1,0
1523633705494,983040,100,-56,-1,-1,0
1523633705494,2228224,100,-56,-1,-1,0
1523633705494,3014656,100,-56,-1,-1,0
1523633705494,3932160,100,-56,-1,-1,0
1523633705534,4849664,100,-56,-1,-1,0
1523633705534,5308416,100,-56,-1,-1,0
1523633705534,5177344,100,-56,-1,-1,0
1523633705534,4718592,100,-56,-1,-1,0
1523633705534,4128768,100,-56,-1,-1,0
1523633705574,3145728,100,-56,-1,-1,0
1523633705574,2293760,100,-56,-1,-1,0
1523633705574,1376256,100,-56,-1,-1,0
1523633705574,589824,100,-56,-1,-1,0
1523633705574,65536,100,-56,-1,-1,0
1523633705614,-589824,100,-56,-1,-1,0
1523633705614,-1310720,100,-56,-1,-1,0
1523633705614,-1703936,100,-56,-1,-1,0
1523633705614,-1507328,100,-56,-1,-1,0
1523633705614,-1441792,100,-56,-1,-1,0
1523633705654,-1507328,100,-56,-1,-1,0
1523633705654,-1376256,100,-56,-1,-1,0
1523633705654,-1310720,100,-56,-1,-1,0
1523633705654,-1179648,100,-56,-1,-1,0
1523633705654,-983040,100,-56,-1,-1,0
1523633705694,-983040,100,-56,-1,-1,0
1523633705694,-1179648,100,-56,-1,-1,0
1523633705694,-1376256,100,-56,-1,-1,0
1523633705694,-1245184,100,-56,-1,-1,0
1523633705694,-1179648,100,-56,-1,-1,0
1523633705734,-983040,100,-56,-1,-1,0
1523633705734,-1310720,100,-56,-1,-1,0
1523633705734,-1638400,100,-56,-1,-1,0
1523633705734,-1769472,100,-56,-1,-1,0
1523633705734,-1572864,100,-56,-1,-1,0
1523633705775,-1638400,100,-56,-1,-1,0
1523633705775,-1769472,100,-56,-1,-1,0
1523633705775,-1703936,100,-56,-1,-1,0
1523633705775,-1703936,100,-56,-1,-1,0
1523633705775,-1703936,100,-56,-1,-1,0
1523633705814,-1769472,100,-56,-1,-1,0
1523633705814,-1835008,100,-56,-1,-1,0
1523633705814,-1638400,100,-56,-1,-1,0
1523633705814,-1310720,100,-56,-1,-1,0
1523633705814,-1310720,100,-56,-1,-1,0
1523633705854,-1703936,100,-56,-1,-1,0
1523633705854,-2031616,100,-56,-1,-1,0
1523633705854,-1966080,100,-56,-1,-1,0
1523633705854,-1703936,100,-56,-1,-1,0
1523633705854,-1900544,100,-56,-1,-1,0
1523633705894,-2162688,100,-56,-1,-1,0
1523633705894,-1835008,100,-56,-1,-1,0
1523633705894,-1638400,100,-56,-1,-1,0
1523633705894,-1835008,100,-56,-1,-1,0
1523633705894,-2162688,100,-56,-1,-1,0
1523633705934,-2359296,100,-56,-1,-1,0
1523633705934,-1572864,100,-56,-1,-1,0
1523633705934,1638400,100,-56,-1,-1,0
1523633705934,6815744,100,-56,-1,-1,0
1523633705934,10158080,100,-56,-1,-1,0
1523633705974,7340032,100,-56,-1,-1,0
1523633705974,65536,100,-56,-1,-1,0
1523633705974,-5570560,100,-56,-1,-1,0
1523633705974,-6619136,100,-56,-1,-1,0
1523633705974,-5505024,100,-56,-1,-1,0
1523633706014,-4063232,100,-56,-1,-1,0
1523633706014,-2555904,100,-56,-1,-1,0
1523633706014,-1638400,100,-56,-1,-1,0
1523633706014,-1376256,100,-56,-1,-1,0
1523633706014,-1310720,100,-56,-1,-1,0
1523633706054,-1048576,100,-56,-1,-1,0
1523633706054,-655360,100,-56,-1,-1,0
1523633706054,-589824,100,-56,-1,-1,0
1523633706054,-262144,100,-56,-1,-1,0
1523633706054,-65536,100,-56,-1,-1,0
1523633706094,393216,100,-56,-1,-1,0
1523633706094,983040,100,-56,-1,-1,0
1523633706094,1507328,100,-56,-1,-1,0
1523633706094,2293760,100,-56,-1,-1,0
1523633706094,3473408,100,-56,-1,-1,0
1523633706134,4849664,100,-56,-1,-1,0
1523633706134,5767168,100,-56,-1,-1,0
1523633706134,6422528,100,-56,-1,-1,0
1523633706134,6619136,100,-56,-1,-1,0
1523633706134,6488064,100,-56,-1,-1,0
1523633706174,6029312,100,-56,-1,-1,0
1523633706174,5111808,100,-56,-1,-1,0
1523633706174,4128768,100,-56,-1,-1,0
1523633706174,3080192,100,-56,-1,-1,0
1523633706174,2162688,100,-56,-1,-1,0
1523633706214,1245184,100,-56,-1,-1,0
1523633706214,327680,100,-56,-1,-1,0
1523633706214,-262144,100,-56,-1,-1,0
1523633706214,-327680,100,-56,-1,-1,0
1523633706214,-524288,100,-56,-1,-1,0
1523633706254,-917504,100,-56,-1,-1,0
1523633706254,-917504,100,-56,-1,-1,0
1523633706254,-917504,100,-56,-1,-1,0
1523633706254,-1048576,100,-56,-1,-1,0
1523633706254,-1310720,100,-56,-1,-1,0
1523633706294,-983040,100,-56,-1,-1,0
1523633706294,-393216,100,-56,-1,-1,0
1523633706294,-393216,100,-56,-1,-1,0
1523633706294,-589824,100,-56,-1,-1,0
1523633706294,-589824,100,-56,-1,-1,0
1523633706334,-524288,100,-56,-1,-1,0
1523633706334,-589824,100,-56,-1,-1,0
1523633706334,-720896,100,-56,-1,-1,0
1523633706334,-655360,100,-56,-1,-1,0
1523633706334,-851968,100,-56,-1,-1,0
1523633706374,-1114112,100,-56,-1,-1,0
1523633706374,-1179648,100,-56,-1,-1,0
1523633706374,-1245184,100,-56,-1,-1,0
1523633706374,-1310720,100,-56,-1,-1,0
1523633706374,-1179648,100,-56,-1,-1,0
1523633706415,-1114112,100,-56,-1,-1,0
1523633706415,-1114112,100,-56,-1,-1,0
1523633706415,-1048576,100,-56,-1,-1,0
1523633706415,-983040,100,-56,-1,-1,0
1523633706415,-983040,100,-56,-1,-1,0
1523633706454,-917504,100,-56,-1,-1,0
1523633706454,-1048576,100,-56,-1,-1,0
1523633706454,-1310720,100,-56,-1,-1,0
1523633706454,-1179648,100,-56,-1,-1,0
1523633706454,-1179648,100,-56,-1,-1,0
1523633706494,-1441792,100,-56,-1,-1,0
1523633706494,-1507328,100,-56,-1,-1,0
1523633706494,-1245184,100,-56,-1,-1,0
1523633706494,-1179648,100,-56,-1,-1,0
1523633706494,-1310720,100,-56,-1,-1,0
1523633706534,-1441792,100,-56,-1,-1,0
1523633706534,-1638400,100,-56,-1,-1,0
1523633706534,-1114112,100,-56,-1,-1,0
1523633706534,1114112,100,-56,-1,-1,0
1523633706534,6160384,100,-56,-1,-1,0
1523633706574,10420224,100,-56,-1,-1,0
1523633706574,8978432,100,-56,-1,-1,0
1523633706574,1703936,100,-56,-1,-1,0
1523633706574,-4718592,100,-56,-1,-1,0
1523633706574,-6619136,100,-56,-1,-1,0
1523633706614,-5636096,100,-56,-1,-1,0
1523633706614,-3997696,100,-56,-1,-1,0
1523633706614,-2555904,100,-56,-1,-1,0
1523633706614,-1638400,100,-56,-1,-1,0
1523633706614,-1310720,100,-56,-1,-1,0
1523633706654,-1179648,100,-56,-1,-1,0
1523633706654,-983040,100,-56,-1,-1,0
1523633706654,-589824,100,-56,-1,-1,0
1523633706654,-458752,100,-56,-1,-1,0
1523633706654,-196608,100,-56,-1,-1,0
1523633706694,0,100,-56,-1,-1,0
1523633706694,262144,100,-56,-1,-1,0
1523633706694,917504,100,-56,-1,-1,0
1523633706694,1769472,100,-56,-1,-1,0
1523633706694,2490368,100,-56,-1,-1,0
1523633706734,3276800,100,-56,-1,-1,0
1523633706734,4194304,100,-56,-1,-1,0
1523633706734,5373952,100,-56,-1,-1,0
1523633706734,6160384,100,-56,-1,-1,0
1523633706734,6422528,100,-56,-1,-1,0
1523633706774,6094848,100,-56,-1,-1,0
1523633706774,5767168,100,-56,-1,-1,0
1523633706774,5242880,100,-56,-1,-1,0
1523633706774,4456448,100,-56,-1,-1,0
1523633706774,3276800,100,-56,-1,-1,0
1523633706814,2031616,100,-56,-1,-1,0
1523633706814,1048576,100,-56,-1,-1,0
1523633706814,327680,100,-56,-1,-1,0
1523633706814,-196608,100,-56,-1,-1,0
1523633706814,-524288,100,-56,-1,-1,0
1523633706854,-851968,100,-56,-1,-1,0
1523633706854,-1245184,100,-56,-1,-1,0
1523633706854,-1376256,100,-56,-1,-1,0
1523633706854,-1441792,100,-56,-1,-1,0
1523633706854,-1507328,100,-56,-1,-1,0
1523633706894,-1376256,100,-56,-1,-1,0
1523633706894,-1114112,100,-56,-1,-1,0
1523633706894,-917504,100,-56,-1,-1,0
1523633706894,-786432,100,-56,-1,-1,0
1523633706894,-786432,100,-56,-1,-1,0
1523633706934,-917504,100,-56,-1,-1,0
1523633706934,-983040,100,-56,-1,-1,0
1523633706934,-1114112,100,-56,-1,-1,0
1523633706934,-1245184,100,-56,-1,-1,0
1523633706934,-1376256,100,-56,-1,-1,0
1523633706974,-1441792,100,-56,-1,-1,0
1523633706974,-1245184,100,-56,-1,-1,0
1523633706974,-1245184,100,-56,-1,-1,0
1523633706974,-1310720,100,-56,-1,-1,0
1523633706974,-1703936,100,-56,-1,-1,0
1523633707014,-1769472,100,-56,-1,-1,0
1523633707014,-1769472,100,-56,-1,-1,0
1523633707014,-1703936,100,-56,-1,-1,0
1523633707014,-1638400,100,-56,-1,-1,0
1523633707014,-1572864,100,-56,-1,-1,0
1523633707055,-1638400,100,-56,-1,-1,0
1523633707055,-2031616,100,-56,-1,-1,0
1523633707055,-1966080,100,-56,-1,-1,0
1523633707055,-1835008,100,-56,-1,-1,0
1523633707055,-1966080,100,-56,-1,-1,0
1523633707094,-2162688,100,-56,-1,-1,0
1523633707094,-2162688,100,-56,-1,-1,0
1523633707094,-2031616,100,-56,-1,-1,0
1523633707094,-1835008,100,-56,-1,-1,0
1523633707094,-1507328,100,-56,-1,-1,0
1523633707134,-1703936,100,-56,-1,-1,0
1523633707134,-2031616,100,-56,-1,-1,0
1523633707134,-2228224,100,-56,-1,-1,0
1523633707134,-1638400,100,-56,-1,-1,0
1523633707134,983040,100,-56,-1,-1,0
1523633707174,5767168,100,-56,-1,-1,0
1523633707174,8060928,100,-56,-1,-1,0
1523633707174,4718592,100,-56,-1,-1,0
1523633707174,-1507328,100,-56,-1,-1,0
1523633707174,-5963776,100,-56,-1,-1,0
1523633707214,-7012352,100,-56,-1,-1,0
1523633707214,-5963776,100,-56,-1,-1,0
1523633707214,-3932160,100,-56,-1,-1,0
1523633707214,-2359296,100,-56,-1,-1,0
1523633707214,-1769472,100,-56,-1,-1,0
1523633707254,-1507328,100,-56,-1,-1,0
1523633707254,-1114112,100,-56,-1,-1,0
1523633707254,-786432,100,-56,-1,-1,0
1523633707254,-720896,100,-56,-1,-1,0
1523633707254,-851968,100,-56,-1,-1,0
1523633707294,-524288,100,-56,-1,-1,0
1523633707294,65536,100,-56,-1,-1,0
1523633707294,393216,100,-56,-1,-1,0
1523633707294,589824,100,-56,-1,-1,0
1523633707294,1310720,100,-56,-1,-1,0
1523633707334,2162688,100,-56,-1,-1,0
1523633707334,2686976,100,-56,-1,-1,0
1523633707334,3538944,100,-56,-1,-1,0
1523633707334,4390912,100,-56,-1,-1,0
1523633707334,5177344,100,-56,-1,-1,0
1523633707374,5373952,100,-56,-1,-1,0
1523633707374,5439488,100,-56,-1,-1,0
1523633707374,5373952,100,-56,-1,-1,0
1523633707374,4718592,100,-56,-1,-1,0
1523633707374,3473408,100,-56,-1,-1,0
1523633707414,2490368,100,-56,-1,-1,0
1523633707414,2097152,100,-56,-1,-1,0
1523633707414,1179648,100,-56,-1,-1,0
1523633707414,393216,100,-56,-1,-1,0
1523633707414,-196608,100,-56,-1,-1,0
1523633707454,-524288,100,-56,-1,-1,0
1523633707454,-786432,100,-56,-1,-1,0
1523633707454,-786432,100,-56,-1,-1,0
1523633707454,-917504,100,-56,-1,-1,0
1523633707454,-917504,100,-56,-1,-1,0
1523633707494,-1114112,100,-56,-1,-1,0
1523633707494,-1179648,100,-56,-1,-1,0
1523633707494,-1048576,100,-56,-1,-1,0
1523633707494,-786432,100,-56,-1,-1,0
1523633707494,-655360,100,-56,-1,-1,0
1523633707534,-589824,100,-56,-1,-1,0
1523633707534,-851968,100,-56,-1,-1,0
1523633707534,-1114112,100,-56,-1,-1,0
1523633707534,-917504,100,-56,-1,-1,0
1523633707534,-1048576,100,-56,-1,-1,0
1523633707574,-1114112,100,-56,-1,-1,0
1523633707574,-1310720,100,-56,-1,-1,0
1523633707574,-1507328,100,-56,-1,-1,0
1523633707574,-1507328,100,-56,-1,-1,0
1523633707574,-1310720,100,-56,-1,-1,0
1523633707614,-1179648,100,-56,-1,-1,0
1523633707614,-1245184,100,-56,-1,-1,0
1523633707614,-1441792,100,-56,-1,-1,0
1523633707614,-1572864,100,-56,-1,-1,0
1523633707614,-1507328,100,-56,-1,-1,0
1523633707654,-1441792,99,-56,-1,-1,0
1523633707654,-1310720,99,-56,-1,-1,0
1523633707654,-1245184,99,-56,-1,-1,0
1523633707654,-1376256,99,-56,-1,-1,0
1523633707654,-1703936,99,-56,-1,-1,0
1523633707695,-1703936,99,-56,-1,-1,0
1523633707695,-1507328,99,-56,-1,-1,0
1523633707695,-1310720,99,-56,-1,-1,0
1523633707695,-1245184,99,-56,-1,-1,0
1523633707695,-1245184,99,-56,-1,-1,0
1523633707734,-1245184,99,-56,-1,-1,0
1523633707734,-1179648,99,-56,-1,-1,0
1523633707734,-1441792,99,-56,-1,-1,0
1523633707734,-1507328,99,-56,-1,-1,0
1523633707734,-65536,99,-56,-1,-1,0
1523633707774,3997696,99,-56,-1,-1,0
1523633707774,9306112,99,-56,-1,-1,0
1523633707774,10485760,99,-56,-1,-1,0
1523633707774,4718592,99,-56,-1,-1,0
1523633707774,-2752512,99,-56,-1,-1,0
1523633707814,-6750208,99,-56,-1,-1,0
1523633707814,-6619136,99,-56,-1,-1,0
1523633707814,-4849664,99,-56,-1,-1,0
1523633707814,-3014656,99,-56,-1,-1,0
1523633707814,-1835008,99,-56,-1,-1,0
1523633707854,-1310720,99,-56,-1,-1,0
1523633707854,-1114112,99,-56,-1,-1,0
1523633707854,-983040,99,-56,-1,-1,0
1523633707854,-851968,99,-56,-1,-1,0
1523633707854,-786432,99,-56,-1,-1,0
1523633707894,-589824,99,-56,-1,-1,0
1523633707894,-196608,99,-56,-1,-1,0
1523633707894,262144,99,-56,-1,-1,0
1523633707894,851968,99,-56,-1,-1,0
1523633707894,1310720,99,-56,-1,-1,0
1523633707934,1900544,99,-56,-1,-1,0
1523633707934,2686976,99,-56,-1,-1,0
1523633707934,3801088,99,-56,-1,-1,0
1523633707934,5046272,99,-56,-1,-1,0
1523633707934,5898240,99,-56,-1,-1,0
1523633707974,6291456,99,-56,-1,-1,0
1523633707974,6422528,99,-56,-1,-1,0
1523633707974,6225920,99,-56,-1,-1,0
1523633707974,5701632,99,-56,-1,-1,0
1523633707974,4653056,99,-56,-1,-1,0
1523633708014,3473408,99,-56,-1,-1,0
1523633708014,2490368,99,-56,-1,-1,0
1523633708014,1769472,99,-56,-1,-1,0
1523633708014,1048576,99,-56,-1,-1,0
1523633708014,393216,99,-56,-1,-1,0
1523633708054,-65536,99,-56,-1,-1,0
1523633708054,-589824,99,-56,-1,-1,0
1523633708054,-851968,99,-56,-1,-1,0
1523633708054,-851968,99,-56,-1,-1,0
1523633708054,-720896,99,-56,-1,-1,0
1523633708094,-589824,99,-56,-1,-1,0
1523633708094,-524288,99,-56,-1,-1,0
1523633708094,-458752,99,-56,-1,-1,0
1523633708094,-327680,99,-56,-1,-1,0
1523633708094,-262144,99,-56,-1,-1,0
1523633708134,-196608,99,-56,-1,-1,0
1523633708134,-262144,99,-56,-1,-1,0
1523633708134,-327680,99,-56,-1,-1,0
1523633708134,-458752,99,-56,-1,-1,0
1523633708134,-589824,99,-56,-1,-1,0
1523633708174,-655360,99,-56,-1,-1,0
1523633708174,-655360,99,-56,-1,-1,0
1523633708174,-720896,99,-56,-1,-1,0
1523633708174,-720896,99,-56,-1,-1,0
1523633708174,-720896,99,-56,-1,-1,0
1523633708214,-655360,99,-56,-1,-1,0
1523633708214,-720896,99,-56,-1,-1,0
1523633708214,-655360,99,-56,-1,-1,0
1523633708214,-589824,99,-56,-1,-1,0
1523633708214,-524288,99,-56,-1,-1,0
1523633708254,-589824,99,-56,-1,-1,0
1523633708254,-655360,99,-56,-1,-1,0
1523633708254,-720896,99,-56,-1,-1,0
1523633708254,-720896,99,-56,-1,-1,0
1523633708254,-655360,99,-56,-1,-1,0
1523633708294,-589824,99,-56,-1,-1,0
1523633708294,-655360,99,-56,-1,-1,0
1523633708294,-655360,99,-56,-1,-1,0
1523633708294,-655360,99,-56,-1,-1,0
1523633708294,-524288,99,-56,-1,-1,0
1523633708335,-458752,99,-56,-1,-1,0
1523633708335,-458752,99,-56,-1,-1,0
1523633708335,-589824,99,-56,-1,-1,0
1523633708335,65536,99,-56,-1,-1,0
1523633708335,3080192,99,-56,-1,-1,0
1523633708374,7995392,99,-56,-1,-1,0
1523633708374,10485760,99,-56,-1,-1,0
1523633708374,7208960,99,-56,-1,-1,0
1523633708374,589824,99,-56,-1,-1,0
1523633708374,-4063232,99,-56,-1,-1,0
1523633708414,-4849664,99,-56,-1,-1,0
1523633708414,-3538944,99,-56,-1,-1,0
1523633708414,-1900544,99,-56,-1,-1,0
1523633708414,-720896,99,-56,-1,-1,0
1523633708414,-196608,99,-56,-1,-1,0
1523633708454,0,99,-56,-1,-1,0
1523633708454,393216,99,-56,-1,-1,0
1523633708454,589824,99,-56,-1,-1,0
1523633708454,720896,99,-56,-1,-1,0
1523633708454,786432,99,-56,-1,-1,0
1523633708494,1048576,99,-56,-1,-1,0
1523633708494,1376256,99,-56,-1,-1,0
1523633708494,1769472,99,-56,-1,-1,0
1523633708494,2293760,99,-56,-1,-1,0
1523633708494,2818048,99,-56,-1,-1,0
1523633708534,3538944,99,-56,-1,-1,0
1523633708534,4521984,99,-56,-1,-1,0
1523633708534,5439488,99,-56,-1,-1,0
1523633708534,6225920,99,-56,-1,-1,0
1523633708534,6750208,99,-56,-1,-1,0
1523633708574,6881280,99,-56,-1,-1,0
1523633708574,6684672,99,-56,-1,-1,0
1523633708574,6160384,99,-56,-1,-1,0
1523633708574,5505024,99,-56,-1,-1,0
1523633708574,4718592,99,-56,-1,-1,0
1523633708614,3801088,99,-56,-1,-1,0
1523633708614,2883584,99,-56,-1,-1,0
1523633708614,2097152,99,-56,-1,-1,0
1523633708614,1507328,99,-56,-1,-1,0
1523633708614,1048576,99,-56,-1,-1,0
1523633708654,655360,99,-56,-1,-1,0
1523633708654,524288,99,-56,-1,-1,0
1523633708654,458752,99,-56,-1,-1,0
1523633708654,458752,99,-56,-1,-1,0
1523633708654,524288,99,-56,-1,-1,0
1523633708694,589824,99,-56,-1,-1,0
1523633708694,589824,99,-56,-1,-1,0
1523633708694,524288,99,-56,-1,-1,0
1523633708694,524288,99,-56,-1,-1,0
1523633708694,655360,99,-56,-1,-1,0
1523633708733,720896,99,-56,-1,-1,0
1523633708733,655360,99,-56,-1,-1,0
1523633708733,524288,99,-56,-1,-1,0
1523633708733,393216,99,-56,-1,-1,0
1523633708733,196608,99,-56,-1,-1,0
1523633708774,65536,99,-56,-1,-1,0
1523633708774,-65536,99,-56,-1,-1,0
1523633708774,-196608,99,-56,-1,-1,0
1523633708774,-327680,99,-56,-1,-1,0
1523633708774,-262144,99,-56,-1,-1,0
1523633708813,-131072,99,-56,-1,-1,0
1523633708813,-65536,99,-56,-1,-1,0
1523633708813,-65536,99,-56,-1,-1,0
1523633708813,-65536,99,-56,-1,-1,0
1523633708813,-131072,99,-56,-1,-1,0
1523633708854,-327680,99,-56,-1,-1,0
1523633708854,-458752,99,-56,-1,-1,0
1523633708854,-393216,99,-56,-1,-1,0
1523633708854,-327680,99,-56,-1,-1,0
1523633708854,-393216,99,-56,-1,-1,0
1523633708893,-458752,99,-56,-1,-1,0
1523633708893,-393216,99,-56,-1,-1,0
1523633708893,-327680,99,-56,-1,-1,0
1523633708893,-262144,99,-56,-1,-1,0
1523633708893,-327680,99,-56,-1,-1,0
1523633708933,-524288,99,-56,-1,-1,0
1523633708933,-458752,99,-56,-1,-1,0
1523633708933,1179648,99,-56,-1,-1,0
1523633708933,4980736,99,-56,-1,-1,0
1523633708933,8323072,99,-56,-1,-1,0
1523633708975,7208960,99,-56,-1,-1,0
1523633708975,1966080,99,-56,-1,-1,0
1523633708975,-2883584,99,-56,-1,-1,0
1523633708975,-4915200,99,-56,-1,-1,0
1523633708975,-4587520,99,-56,-1,-1,0
1523633709013,-3145728,99,-56,-1,-1,0
1523633709013,-1638400,99,-56,-1,-1,0
1523633709013,-720896,99,-56,-1,-1,0
1523633709013,-327680,99,-56,-1,-1,0
1523633709013,-262144,99,-56,-1,-1,0
1523633709054,-196608,99,-56,-1,-1,0
1523633709054,-131072,99,-56,-1,-1,0
1523633709054,0,99,-56,-1,-1,0
1523633709054,196608,99,-56,-1,-1,0
1523633709054,458752,99,-56,-1,-1,0
1523633709093,655360,99,-56,-1,-1,0
1523633709093,917504,99,-56,-1,-1,0
1523633709093,1310720,99,-56,-1,-1,0
1523633709093,1900544,99,-56,-1,-1,0
1523633709093,2555904,99,-56,-1,-1,0
1523633709133,3211264,99,-56,-1,-1,0
1523633709133,3932160,99,-56,-1,-1,0
1523633709133,4521984,99,-56,-1,-1,0
1523633709133,4718592,99,-56,-1,-1,0
1523633709133,4653056,99,-56,-1,-1,0
1523633709173,4521984,99,-56,-1,-1,0
1523633709173,4128768,99,-56,-1,-1,0
1523633709173,3342336,99,-56,-1,-1,0
1523633709173,2490368,99,-56,-1,-1,0
1523633709173,1769472,99,-56,-1,-1,0
1523633709213,1179648,99,-56,-1,-1,0
1523633709213,589824,99,-56,-1,-1,0
1523633709213,65536,99,-56,-1,-1,0
1523633709213,-196608,99,-56,-1,-1,0
1523633709213,-393216,99,-56,-1,-1,0
1523633709253,-524288,99,-56,-1,-1,0
1523633709253,-655360,99,-56,-1,-1,0
1523633709253,-720896,99,-56,-1,-1,0
1523633709253,-851968,99,-56,-1,-1,0
1523633709253,-917504,99,-56,-1,-1,0
1523633709293,-917504,99,-56,-1,-1,0
1523633709293,-917504,99,-56,-1,-1,0
1523633709293,-917504,99,-56,-1,-1,0
1523633709293,-983040,99,-56,-1,-1,0
1523633709293,-1048576,99,-56,-1,-1,0
1523633709333,-1114112,99,-56,-1,-1,0
1523633709333,-1179648,99,-56,-1,-1,0
1523633709333,-1310720,99,-56,-1,-1,0
1523633709333,-1507328,99,-56,-1,-1,0
1523633709333,-1769472,99,-56,-1,-1,0
1523633709373,-1900544,99,-56,-1,-1,0
1523633709373,-1966080,99,-56,-1,-1,0
1523633709373,-2031616,99,-56,-1,-1,0
1523633709373,-1966080,99,-56,-1,-1,0
1523633709373,-1900544,99,-56,-1,-1,0
1523633709413,-1835008,99,-56,-1,-1,0
1523633709413,-1900544,99,-56,-1,-1,0
1523633709413,-2097152,99,-56,-1,-1,0
1523633709413,-2359296,99,-56,-1,-1,0
1523633709413,-2424832,99,-56,-1,-1,0
1523633709454,-2490368,99,-56,-1,-1,0
1523633709454,-2555904,99,-56,-1,-1,0
1523633709454,-2621440,99,-56,-1,-1,0
1523633709454,-2621440,99,-56,-1,-1,0
1523633709454,-2555904,99,-56,-1,-1,0
1523633709494,-2490368,99,-56,-1,-1,0
1523633709494,-2490368,99,-56,-1,-1,0
1523633709494,-2555904,99,-56,-1,-1,0
1523633709494,-2686976,99,-56,-1,-1,0
1523633709494,-2752512,99,-56,-1,-1,0
1523633709533,-1769472,99,-56,-1,-1,0
1523633709533,1376256,99,-56,-1,-1,0
1523633709533,5373952,99,-56,-1,-1,0
1523633709533,5701632,99,-56,-1,-1,0
1523633709533,1179648,99,-56,-1,-1,0
1523633709574,-4128768,99,-56,-1,-1,0
1523633709574,-6946816,99,-56,-1,-1,0
1523633709574,-7208960,99,-56,-1,-1,0
1523633709574,-6160384,99,-56,-1,-1,0
1523633709574,-4784128,99,-56,-1,-1,0
1523633709615,-3801088,99,-56,-1,-1,0
1523633709615,-3211264,99,-56,-1,-1,0
1523633709615,-2949120,99,-56,-1,-1,0
1523633709615,-2752512,99,-56,-1,-1,0
1523633709615,-2621440,99,-56,-1,-1,0
1523633709654,-2424832,99,-56,-1,-1,0
1523633709654,-2162688,99,-56,-1,-1,0
1523633709654,-1966080,99,-56,-1,-1,0
1523633709654,-1769472,99,-56,-1,-1,0
1523633709654,-1507328,99,-56,-1,-1,0
1523633709693,-1048576,99,-56,-1,-1,0
1523633709693,-393216,99,-56,-1,-1,0
1523633709693,327680,99,-56,-1,-1,0
1523633709693,1179648,99,-56,-1,-1,0
1523633709693,1966080,99,-56,-1,-1,0
1523633709734,2555904,99,-56,-1,-1,0
1523633709734,2883584,99,-56,-1,-1,0
1523633709734,2883584,99,-56,-1,-1,0
1523633709734,2752512,99,-56,-1,-1,0
1523633709734,2424832,99,-56,-1,-1,0
1523633709774,1769472,99,-56,-1,-1,0
1523633709774,983040,99,-56,-1,-1,0
1523633709774,196608,99,-56,-1,-1,0
1523633709774,-524288,99,-56,-1,-1,0
1523633709774,-1179648,99,-56,-1,-1,0
1523633709814,-1572864,99,-56,-1,-1,0
1523633709814,-1835008,99,-56,-1,-1,0
1523633709814,-2031616,99,-56,-1,-1,0
1523633709814,-2097152,99,-56,-1,-1,0
1523633709814,-2031616,99,-56,-1,-1,0
1523633709854,-2031616,99,-56,-1,-1,0
1523633709854,-2097152,99,-56,-1,-1,0
1523633709854,-2097152,99,-56,-1,-1,0
1523633709854,-2031616,99,-56,-1,-1,0
1523633709854,-2031616,99,-56,-1,-1,0
1523633709894,-1966080,99,-56,-1,-1,0
1523633709894,-1966080,99,-56,-1,-1,0
1523633709894,-2097152,99,-56,-1,-1,0
1523633709894,-2228224,99,-56,-1,-1,0
1523633709894,-2359296,99,-56,-1,-1,0
1523633709934,-2359296,99,-56,-1,-1,0
1523633709934,-2424832,99,-56,-1,-1,0
1523633709934,-2424832,99,-56,-1,-1,0
1523633709934,-2424832,99,-56,-1,-1,0
1523633709934,-2424832,99,-56,-1,-1,0
1523633709974,-2424832,99,-56,-1,-1,0
1523633709974,-2490368,99,-56,-1,-1,0
1523633709974,-2490368,99,-56,-1,-1,0
1523633709974,-2424832,99,-56,-1,-1,0
1523633709974,-2293760,99,-56,-1,-1,0
1523633710014,-2293760,99,-56,-1,-1,0
1523633710014,-2293760,99,-56,-1,-1,0
1523633710014,-2424832,99,-56,-1,-1,0
1523633710014,-2424832,99,-56,-1,-1,0
1523633710014,-2424832,99,-56,-1,-1,0
1523633710054,-2490368,99,-56,-1,-1,0
1523633710054,-2490368,99,-56,-1,-1,0
1523633710054,-2490368,99,-56,-1,-1,0
1523633710054,-2424832,99,-56,-1,-1,0
1523633710054,-2359296,99,-56,-1,-1,0
1523633710094,-2293760,99,-56,-1,-1,0
1523633710094,-2359296,99,-56,-1,-1,0
1523633710094,-2359296,99,-56,-1,-1,0
1523633710094,-2424832,99,-56,-1,-1,0
1523633710094,-1048576,99,-56,-1,-1,0
1523633710134,2752512,99,-56,-1,-1,0
1523633710134,7274496,99,-56,-1,-1,0
1523633710134,7405568,99,-56,-1,-1,0
1523633710134,1900544,99,-56,-1,-1,0
1523633710134,-4128768,99,-56,-1,-1,0
1523633710174,-6881280,99,-56,-1,-1,0
1523633710174,-6619136,99,-56,-1,-1,0
1523633710174,-5046272,99,-56,-1,-1,0
1523633710174,-3342336,99,-56,-1,-1,0
1523633710174,-2359296,99,-56,-1,-1,0
1523633710214,-1900544,99,-56,-1,-1,0
1523633710214,-1572864,99,-56,-1,-1,0
1523633710214,-1310720,99,-56,-1,-1,0
1523633710214,-1179648,99,-56,-1,-1,0
1523633710214,-1048576,99,-56,-1,-1,0
1523633710255,-851968,99,-56,-1,-1,0
1523633710255,-655360,99,-56,-1,-1,0
1523633710255,-458752,99,-56,-1,-1,0
1523633710255,-131072,99,-56,-1,-1,0
1523633710255,393216,99,-56,-1,-1,0
1523633710294,1179648,99,-56,-1,-1,0
1523633710294,2031616,99,-56,-1,-1,0
1523633710294,2949120,99,-56,-1,-1,0
1523633710294,3801088,99,-56,-1,-1,0
1523633710294,4390912,99,-56,-1,-1,0
1523633710334,4653056,99,-56,-1,-1,0
1523633710334,4849664,99,-56,-1,-1,0
1523633710334,4587520,99,-56,-1,-1,0
1523633710334,3932160,99,-56,-1,-1,0
1523633710334,3080192,99,-56,-1,-1,0
1523633710374,2293760,99,-56,-1,-1,0
1523633710374,1376256,99,-56,-1,-1,0
1523633710374,458752,99,-56,-1,-1,0
1523633710374,-65536,99,-56,-1,-1,0
1523633710374,-458752,99,-56,-1,-1,0
1523633710414,-589824,99,-56,-1,-1,0
1523633710414,-786432,99,-56,-1,-1,0
1523633710414,-983040,99,-56,-1,-1,0
1523633710414,-1048576,99,-56,-1,-1,0
1523633710414,-917504,99,-56,-1,-1,0
1523633710454,-720896,99,-56,-1,-1,0
1523633710454,-589824,99,-56,-1,-1,0
1523633710454,-524288,99,-56,-1,-1,0
1523633710454,-458752,99,-56,-1,-1,0
1523633710454,-458752,99,-56,-1,-1,0
1523633710494,-393216,99,-56,-1,-1,0
1523633710494,-458752,99,-56,-1,-1,0
1523633710494,-589824,99,-56,-1,-1,0
1523633710494,-655360,99,-56,-1,-1,0
1523633710494,-786432,99,-56,-1,-1,0
1523633710534,-851968,99,-56,-1,-1,0
1523633710534,-917504,99,-56,-1,-1,0
1523633710534,-917504,99,-56,-1,-1,0
1523633710534,-917504,99,-56,-1,-1,0
1523633710534,-851968,99,-56,-1,-1,0
1523633710574,-851968,99,-56,-1,-1,0
1523633710574,-851968,99,-56,-1,-1,0
1523633710574,-786432,99,-56,-1,-1,0
1523633710574,-851968,99,-56,-1,-1,0
1523633710574,-917504,99,-56,-1,-1,0
1523633710614,-1048576,99,-56,-1,-1,0
1523633710614,-983040,99,-56,-1,-1,0
1523633710614,-983040,99,-56,-1,-1,0
1523633710614,-983040,99,-56,-1,-1,0
1523633710614,-1048576,99,-56,-1,-1,0
1523633710654,-983040,99,-56,-1,-1,0
1523633710654,-917504,99,-56,-1,-1,0
1523633710654,-851968,99,-56,-1,-1,0
1523633710654,-983040,99,-56,-1,-1,0
1523633710654,-1114112,99,-56,-1,-1,0
1523633710694,-393216,99,-56,-1,-1,0
1523633710694,2490368,99,-56,-1,-1,0
1523633710694,7012352,99,-56,-1,-1,0
1523633710694,9043968,99,-56,-1,-1,0
1523633710694,5177344,99,-56,-1,-1,0
1523633710734,-1310720,99,-56,-1,-1,0
1523633710734,-5570560,99,-56,-1,-1,0
1523633710734,-6160384,99,-56,-1,-1,0
1523633710734,-4980736,99,-56,-1,-1,0
1523633710734,-3080192,99,-56,-1,-1,0
1523633710774,-1703936,99,-56,-1,-1,0
1523633710774,-983040,99,-56,-1,-1,0
1523633710774,-589824,99,-56,-1,-1,0
1523633710774,-393216,99,-56,-1,-1,0
1523633710774,-327680,99,-56,-1,-1,0
1523633710814,-262144,99,-56,-1,-1,0
1523633710814,-196608,99,-56,-1,-1,0
1523633710814,0,99,-56,-1,-1,0
1523633710814,327680,99,-56,-1,-1,0
1523633710814,655360,99,-56,-1,-1,0
1523633710854,851968,99,-56,-1,-1,0
1523633710854,1376256,99,-56,-1,-1,0
1523633710854,2424832,99,-56,-1,-1,0
1523633710854,3932160,99,-56,-1,-1,0
1523633710854,5242880,99,-56,-1,-1,0
1523633710895,5963776,99,-56,-1,-1,0
1523633710895,6029312,99,-56,-1,-1,0
1523633710895,5636096,99,-56,-1,-1,0
1523633710895,5046272,99,-56,-1,-1,0
1523633710895,4325376,99,-56,-1,-1,0
1523633710934,3604480,99,-56,-1,-1,0
1523633710934,2752512,99,-56,-1,-1,0
1523633710934,1703936,99,-56,-1,-1,0
1523633710934,720896,99,-56,-1,-1,0
1523633710934,0,99,-56,-1,-1,0
1523633710974,-327680,99,-56,-1,-1,0
1523633710974,-524288,99,-56,-1,-1,0
1523633710974,-720896,99,-56,-1,-1,0
1523633710974,-851968,99,-56,-1,-1,0
1523633710974,-983040,99,-56,-1,-1,0
1523633711014,-983040,99,-56,-1,-1,0
1523633711014,-851968,99,-56,-1,-1,0
1523633711014,-655360,99,-56,-1,-1,0
1523633711014,-327680,99,-56,-1,-1,0
1523633711014,-131072,99,-56,-1,-1,0
1523633711054,0,99,-56,-1,-1,0
1523633711054,0,99,-56,-1,-1,0
1523633711054,0,99,-56,-1,-1,0
1523633711054,0,99,-56,-1,-1,0
1523633711054,131072,99,-56,-1,-1,0
1523633711093,65536,99,-56,-1,-1,0
1523633711093,-65536,99,-56,-1,-1,0
1523633711093,-327680,99,-56,-1,-1,0
1523633711093,-458752,99,-56,-1,-1,0
1523633711093,-393216,99,-56,-1,-1,0
1523633711133,-196608,99,-56,-1,-1,0
1523633711133,0,99,-56,-1,-1,0
1523633711133,262144,99,-56,-1,-1,0
1523633711133,327680,99,-56,-1,-1,0
1523633711133,327680,99,-56,-1,-1,0
1523633711173,589824,99,-56,-1,-1,0
1523633711173,589824,99,-56,-1,-1,0
1523633711173,0,99,-56,-1,-1,0
1523633711173,-393216,99,-56,-1,-1,0
1523633711173,-393216,99,-56,-1,-1,0
1523633711213,-524288,99,-56,-1,-1,0
1523633711213,-917504,99,-56,-1,-1,0
1523633711213,-1114112,99,-56,-1,-1,0
1523633711213,-917504,99,-56,-1,-1,0
1523633711213,-1179648,99,-56,-1,-1,0
1523633711253,-1507328,99,-56,-1,-1,0
1523633711253,-131072,99,-56,-1,-1,0
1523633711253,4325376,99,-56,-1,-1,0
1523633711253,9699328,99,-56,-1,-1,0
1523633711253,10616832,99,-56,-1,-1,0
1523633711293,5111808,99,-56,-1,-1,0
1523633711293,-1703936,99,-56,-1,-1,0
1523633711293,-5111808,99,-56,-1,-1,0
1523633711293,-5046272,99,-56,-1,-1,0
1523633711293,-3407872,99,-56,-1,-1,0
1523633711333,-1835008,99,-56,-1,-1,0
1523633711333,-720896,99,-56,-1,-1,0
1523633711333,-524288,99,-56,-1,-1,0
1523633711333,-917504,99,-56,-1,-1,0
1523633711333,-1179648,99,-56,-1,-1,0
1523633711373,-655360,99,-56,-1,-1,0
1523633711373,65536,99,-56,-1,-1,0
1523633711373,655360,99,-56,-1,-1,0
1523633711373,1048576,99,-56,-1,-1,0
1523633711373,1507328,99,-56,-1,-1,0
1523633711413,1966080,99,-56,-1,-1,0
1523633711413,2162688,99,-56,-1,-1,0
1523633711413,2293760,99,-56,-1,-1,0
1523633711413,2490368,99,-56,-1,-1,0
1523633711413,3014656,99,-56,-1,-1,0
1523633711454,3735552,99,-56,-1,-1,0
1523633711454,4653056,99,-56,-1,-1,0
1523633711454,5242880,99,-56,-1,-1,0
1523633711454,5373952,99,-56,-1,-1,0
1523633711454,5111808,99,-56,-1,-1,0
1523633711493,4456448,99,-56,-1,-1,0
1523633711493,3604480,99,-56,-1,-1,0
1523633711493,2686976,99,-56,-1,-1,0
1523633711493,1900544,99,-56,-1,-1,0
1523633711493,1310720,99,-56,-1,-1,0
1523633711535,786432,99,-56,-1,-1,0
1523633711535,196608,99,-56,-1,-1,0
1523633711535,-589824,99,-56,-1,-1,0
1523633711535,-1441792,99,-56,-1,-1,0
1523633711535,-1769472,99,-56,-1,-1,0
1523633711573,-1507328,99,-56,-1,-1,0
1523633711573,-1114112,99,-56,-1,-1,0
1523633711573,-983040,99,-56,-1,-1,0
1523633711573,-1048576,99,-56,-1,-1,0
1523633711573,-1114112,99,-56,-1,-1,0
1523633711613,-1179648,99,-56,-1,-1,0
1523633711613,-1179648,99,-56,-1,-1,0
1523633711613,-1245184,99,-56,-1,-1,0
1523633711613,-1310720,99,-56,-1,-1,0
1523633711613,-1441792,99,-56,-1,-1,0
1523633711653,-1638400,99,-56,-1,-1,0
1523633711653,-1900544,99,-56,-1,-1,0
1523633711653,-1900544,99,-56,-1,-1,0
1523633711653,-1900544,99,-56,-1,-1,0
1523633711653,-2031616,99,-56,-1,-1,0
1523633711693,-2162688,100,-56,-1,-1,0
1523633711693,-2228224,100,-56,-1,-1,0
1523633711693,-2162688,100,-56,-1,-1,0
1523633711693,-2097152,100,-56,-1,-1,0
1523633711693,-2293760,100,-56,-1,-1,0
1523633711733,-2424832,100,-56,-1,-1,0
1523633711733,-2359296,100,-56,-1,-1,0
1523633711733,-2228224,100,-56,-1,-1,0
1523633711733,-2293760,100,-56,-1,-1,0
1523633711733,-2490368,100,-56,-1,-1,0
1523633711773,-2555904,100,-56,-1,-1,0
1523633711773,-2424832,100,-56,-1,-1,0
1523633711773,-2162688,100,-56,-1,-1,0
1523633711773,-2162688,100,-56,-1,-1,0
1523633711773,-2228224,100,-56,-1,-1,0
1523633711813,-2490368,100,-56,-1,-1,0
1523633711813,-2686976,100,-56,-1,-1,0
1523633711813,-1572864,100,-56,-1,-1,0
1523633711813,2228224,100,-56,-1,-1,0
1523633711813,6946816,100,-56,-1,-1,0
1523633711853,7733248,100,-56,-1,-1,0
1523633711853,2752512,100,-56,-1,-1,0
1523633711853,-3604480,100,-56,-1,-1,0
1523633711853,-7208960,100,-56,-1,-1,0
1523633711853,-7405568,100,-56,-1,-1,0
1523633711893,-6029312,100,-56,-1,-1,0
1523633711893,-4325376,100,-56,-1,-1,0
1523633711893,-3145728,100,-56,-1,-1,0
1523633711893,-2621440,100,-56,-1,-1,0
1523633711893,-2359296,100,-56,-1,-1,0
1523633711933,-2097152,100,-56,-1,-1,0
1523633711933,-1900544,100,-56,-1,-1,0
1523633711933,-1638400,100,-56,-1,-1,0
1523633711933,-1441792,100,-56,-1,-1,0
1523633711933,-1048576,100,-56,-1,-1,0
1523633711973,-655360,100,-56,-1,-1,0
1523633711973,-131072,100,-56,-1,-1,0
1523633711973,262144,100,-56,-1,-1,0
1523633711973,851968,100,-56,-1,-1,0
1523633711973,1703936,100,-56,-1,-1,0
1523633712013,2555904,100,-56,-1,-1,0
1523633712013,3407872,100,-56,-1,-1,0
1523633712013,4063232,100,-56,-1,-1,0
1523633712013,4456448,100,-56,-1,-1,0
1523633712013,4456448,100,-56,-1,-1,0
1523633712053,4194304,100,-56,-1,-1,0
1523633712053,3735552,100,-56,-1,-1,0
1523633712053,3014656,100,-56,-1,-1,0
1523633712053,2228224,100,-56,-1,-1,0
1523633712053,1310720,100,-56,-1,-1,0
1523633712093,458752,100,-56,-1,-1,0
1523633712093,-196608,100,-56,-1,-1,0
1523633712093,-786432,100,-56,-1,-1,0
1523633712093,-1179648,100,-56,-1,-1,0
1523633712093,-1376256,100,-56,-1,-1,0
1523633712133,-1441792,100,-56,-1,-1,0
1523633712133,-1441792,100,-56,-1,-1,0
1523633712133,-1441792,100,-56,-1,-1,0
1523633712133,-1376256,100,-56,-1,-1,0
1523633712133,-1310720,100,-56,-1,-1,0
1523633712175,-1245184,100,-56,-1,-1,0
1523633712175,-1114112,100,-56,-1,-1,0
1523633712175,-1048576,100,-56,-1,-1,0
1523633712175,-1179648,100,-56,-1,-1,0
1523633712175,-1245184,100,-56,-1,-1,0
1523633712213,-1376256,100,-56,-1,-1,0
1523633712213,-1572864,100,-56,-1,-1,0
1523633712213,-1638400,100,-56,-1,-1,0
1523633712213,-1441792,100,-56,-1,-1,0
1523633712213,-1441792,100,-56,-1,-1,0
1523633712253,-1572864,100,-56,-1,-1,0
1523633712253,-1441792,100,-56,-1,-1,0
1523633712253,-1376256,100,-56,-1,-1,0
1523633712253,-1310720,100,-56,-1,-1,0
1523633712253,-1245184,100,-56,-1,-1,0
1523633712293,-1245184,100,-56,-1,-1,0
1523633712293,-1376256,100,-56,-1,-1,0
1523633712293,-1507328,100,-56,-1,-1,0
1523633712293,-1572864,100,-56,-1,-1,0
1523633712293,-1441792,100,-56,-1,-1,0
1523633712333,-1310720,100,-56,-1,-1,0
1523633712333,-1245184,100,-56,-1,-1,0
1523633712333,-1179648,100,-56,-1,-1,0
1523633712333,-1048576,100,-56,-1,-1,0
1523633712333,-1048576,100,-56,-1,-1,0
1523633712373,-1048576,100,-56,-1,-1,0
1523633712373,-1245184,100,-56,-1,-1,0
1523633712373,-1572864,100,-56,-1,-1,0
1523633712373,-131072,100,-56,-1,-1,0
1523633712373,4718592,100,-56,-1,-1,0
1523633712413,10354688,100,-56,-1,-1,0
1523633712413,10747904,100,-56,-1,-1,0
1523633712413,4784128,100,-56,-1,-1,0
1523633712413,-2031616,100,-56,-1,-1,0
1523633712413,-5242880,100,-56,-1,-1,0
1523633712454,-4915200,100,-56,-1,-1,0
1523633712454,-3211264,100,-56,-1,-1,0
1523633712454,-1769472,100,-56,-1,-1,0
1523633712454,-1114112,100,-56,-1,-1,0
1523633712454,-1048576,100,-56,-1,-1,0
1523633712493,-851968,100,-56,-1,-1,0
1523633712493,-655360,100,-56,-1,-1,0
1523633712493,-589824,100,-56,-1,-1,0
1523633712493,-524288,100,-56,-1,-1,0
1523633712493,-327680,100,-56,-1,-1,0
1523633712534,-65536,100,-56,-1,-1,0
1523633712534,65536,100,-56,-1,-1,0
1523633712534,327680,100,-56,-1,-1,0
1523633712534,851968,100,-56,-1,-1,0
1523633712534,1441792,100,-56,-1,-1,0
1523633712574,2097152,100,-56,-1,-1,0
1523633712574,2555904,100,-56,-1,-1,0
1523633712574,3145728,100,-56,-1,-1,0
1523633712574,3735552,100,-56,-1,-1,0
1523633712574,3997696,100,-56,-1,-1,0
1523633712613,4063232,100,-56,-1,-1,0
1523633712613,4128768,100,-56,-1,-1,0
1523633712613,3932160,100,-56,-1,-1,0
1523633712613,3080192,100,-56,-1,-1,0
1523633712613,1966080,100,-56,-1,-1,0
1523633712653,1048576,100,-56,-1,-1,0
1523633712653,196608,100,-56,-1,-1,0
1523633712653,-196608,100,-56,-1,-1,0
1523633712653,-458752,100,-56,-1,-1,0
1523633712653,-589824,100,-56,-1,-1,0
1523633712693,-851968,100,-56,-1,-1,0
1523633712693,-983040,100,-56,-1,-1,0
1523633712693,-983040,100,-56,-1,-1,0
1523633712693,-1048576,100,-56,-1,-1,0
1523633712693,-983040,100,-56,-1,-1,0
1523633712733,-983040,100,-56,-1,-1,0
1523633712733,-851968,100,-56,-1,-1,0
1523633712733,-851968,100,-56,-1,-1,0
1523633712733,-720896,100,-56,-1,-1,0
1523633712733,-655360,100,-56,-1,-1,0
1523633712773,-655360,100,-56,-1,-1,0
1523633712773,-851968,100,-56,-1,-1,0
1523633712773,-1114112,100,-56,-1,-1,0
1523633712773,-1310720,100,-56,-1,-1,0
1523633712773,-1310720,100,-56,-1,-1,0
1523633712815,-1245184,100,-56,-1,-1,0
1523633712815,-1245184,100,-56,-1,-1,0
1523633712815,-1441792,100,-56,-1,-1,0
1523633712815,-1507328,100,-56,-1,-1,0
1523633712815,-1245184,100,-56,-1,-1,0
1523633712853,-983040,101,-56,-1,-1,0
1523633712853,-851968,101,-56,-1,-1,0
1523633712853,-983040,101,-56,-1,-1,0
1523633712853,-1048576,101,-56,-1,-1,0
1523633712853,-1114112,101,-56,-1,-1,0
1523633712894,-1179648,101,-56,-1,-1,0
1523633712894,-1114112,101,-56,-1,-1,0
1523633712894,-917504,101,-56,-1,-1,0
1523633712894,-851968,101,-56,-1,-1,0
1523633712894,-851968,101,-56,-1,-1,0
1523633712934,-851968,101,-56,-1,-1,0
1523633712934,-786432,101,-56,-1,-1,0
1523633712934,-851968,101,-56,-1,-1,0
1523633712934,-1179648,101,-56,-1,-1,0
1523633712934,-1441792,101,-56,-1,-1,0
1523633712973,196608,101,-56,-1,-1,0
1523633712973,5242880,101,-56,-1,-1,0
1523633712973,10354688,101,-56,-1,-1,0
1523633712973,9961472,101,-56,-1,-1,0
1523633712973,3473408,101,-56,-1,-1,0
1523633713013,-2949120,101,-56,-1,-1,0
1523633713013,-5570560,101,-56,-1,-1,0
1523633713013,-4849664,101,-56,-1,-1,0
1523633713013,-3276800,101,-56,-1,-1,0
1523633713013,-2097152,101,-56,-1,-1,0
1523633713054,-1441792,101,-56,-1,-1,0
1523633713054,-1179648,101,-56,-1,-1,0
1523633713054,-917504,101,-56,-1,-1,0
1523633713054,-655360,101,-56,-1,-1,0
1523633713054,-327680,101,-56,-1,-1,0
1523633713093,-131072,101,-56,-1,-1,0
1523633713093,-65536,101,-56,-1,-1,0
1523633713093,0,101,-56,-1,-1,0
1523633713093,196608,101,-56,-1,-1,0
1523633713093,786432,101,-56,-1,-1,0
1523633713133,1441792,101,-56,-1,-1,0
1523633713133,2097152,101,-56,-1,-1,0
1523633713133,2752512,101,-56,-1,-1,0
1523633713133,3473408,101,-56,-1,-1,0
1523633713133,4128768,101,-56,-1,-1,0
1523633713174,4653056,101,-56,-1,-1,0
1523633713174,4849664,101,-56,-1,-1,0
1523633713174,4784128,101,-56,-1,-1,0
1523633713174,4521984,101,-56,-1,-1,0
1523633713174,4063232,101,-56,-1,-1,0
1523633713214,3211264,101,-56,-1,-1,0
1523633713214,2228224,101,-56,-1,-1,0
1523633713214,1441792,101,-56,-1,-1,0
1523633713214,983040,101,-56,-1,-1,0
1523633713214,589824,101,-56,-1,-1,0
1523633713254,131072,101,-56,-1,-1,0
1523633713254,-196608,101,-56,-1,-1,0
1523633713254,-393216,101,-56,-1,-1,0
1523633713254,-458752,101,-56,-1,-1,0
1523633713254,-458752,101,-56,-1,-1,0
1523633713294,-458752,101,-56,-1,-1,0
1523633713294,-458752,101,-56,-1,-1,0
1523633713294,-524288,101,-56,-1,-1,0
1523633713294,-524288,101,-56,-1,-1,0
1523633713294,-458752,101,-56,-1,-1,0
1523633713334,-458752,101,-56,-1,-1,0
1523633713334,-524288,101,-56,-1,-1,0
1523633713334,-655360,101,-56,-1,-1,0
1523633713334,-851968,101,-56,-1,-1,0
1523633713334,-983040,101,-56,-1,-1,0
1523633713373,-851968,101,-56,-1,-1,0
1523633713373,-720896,101,-56,-1,-1,0
1523633713373,-786432,101,-56,-1,-1,0
1523633713373,-1048576,101,-56,-1,-1,0
1523633713373,-1114112,101,-56,-1,-1,0
1523633713415,-1048576,101,-56,-1,-1,0
1523633713415,-1114112,101,-56,-1,-1,0
1523633713415,-1245184,101,-56,-1,-1,0
1523633713415,-1179648,101,-56,-1,-1,0
1523633713415,-1048576,101,-56,-1,-1,0
1523633713456,-1048576,102,-56,-1,-1,0
1523633713456,-1179648,102,-56,-1,-1,0
1523633713456,-1245184,102,-56,-1,-1,0
1523633713456,-1245184,102,-56,-1,-1,0
1523633713456,-1245184,102,-56,-1,-1,0
1523633713494,-1310720,102,-56,-1,-1,0
1523633713494,-1179648,102,-56,-1,-1,0
1523633713494,-1245184,102,-56,-1,-1,0
1523633713494,-1245184,102,-56,-1,-1,0
1523633713494,-1245184,102,-56,-1,-1,0
1523633713534,-1179648,102,-56,-1,-1,0
1523633713534,-1310720,102,-56,-1,-1,0
1523633713534,-1769472,102,-56,-1,-1,0
1523633713534,-1441792,102,-56,-1,-1,0
1523633713534,1179648,102,-56,-1,-1,0
1523633713574,6160384,102,-56,-1,-1,0
1523633713574,9502720,102,-56,-1,-1,0
1523633713574,7143424,102,-56,-1,-1,0
1523633713574,786432,102,-56,-1,-1,0
1523633713574,-4390912,102,-56,-1,-1,0
1523633713614,-5898240,102,-56,-1,-1,0
1523633713614,-5046272,102,-56,-1,-1,0
1523633713614,-3342336,102,-56,-1,-1,0
1523633713614,-1966080,102,-56,-1,-1,0
1523633713614,-1179648,102,-56,-1,-1,0
1523633713654,-917504,102,-56,-1,-1,0
1523633713654,-917504,102,-56,-1,-1,0
1523633713654,-917504,102,-56,-1,-1,0
1523633713654,-786432,102,-56,-1,-1,0
1523633713654,-720896,102,-56,-1,-1,0
1523633713694,-393216,102,-56,-1,-1,0
1523633713694,0,102,-56,-1,-1,0
1523633713694,393216,102,-56,-1,-1,0
1523633713694,720896,102,-56,-1,-1,0
1523633713694,1114112,102,-56,-1,-1,0
1523633713734,1769472,102,-56,-1,-1,0
1523633713734,2424832,102,-56,-1,-1,0
1523633713734,3080192,102,-56,-1,-1,0
1523633713734,3735552,102,-56,-1,-1,0
1523633713734,4128768,102,-56,-1,-1,0
1523633713774,4390912,102,-56,-1,-1,0
1523633713774,4194304,102,-56,-1,-1,0
1523633713774,3866624,102,-56,-1,-1,0
1523633713774,3342336,102,-56,-1,-1,0
1523633713774,2818048,102,-56,-1,-1,0
1523633713814,2228224,102,-56,-1,-1,0
1523633713814,1441792,102,-56,-1,-1,0
1523633713814,655360,102,-56,-1,-1,0
1523633713814,196608,102,-56,-1,-1,0
1523633713814,0,102,-56,-1,-1,0
1523633713854,-262144,102,-56,-1,-1,0
1523633713854,-393216,102,-56,-1,-1,0
1523633713854,-458752,102,-56,-1,-1,0
1523633713854,-458752,102,-56,-1,-1,0
1523633713854,-458752,102,-56,-1,-1,0
1523633713894,-327680,102,-56,-1,-1,0
1523633713894,-262144,102,-56,-1,-1,0
1523633713894,-327680,102,-56,-1,-1,0
1523633713894,-393216,102,-56,-1,-1,0
1523633713894,-393216,102,-56,-1,-1,0
1523633713934,-393216,102,-56,-1,-1,0
1523633713934,-589824,102,-56,-1,-1,0
1523633713934,-720896,102,-56,-1,-1,0
1523633713934,-720896,102,-56,-1,-1,0
1523633713934,-786432,102,-56,-1,-1,0
1523633713974,-917504,102,-56,-1,-1,0
1523633713974,-1048576,102,-56,-1,-1,0
1523633713974,-1048576,102,-56,-1,-1,0
1523633713974,-1179648,102,-56,-1,-1,0
1523633713974,-1376256,102,-56,-1,-1,0
1523633714014,-1376256,102,-56,-1,-1,0
1523633714014,-1245184,102,-56,-1,-1,0
1523633714014,-1179648,102,-56,-1,-1,0
1523633714014,-1114112,102,-56,-1,-1,0
1523633714014,-983040,102,-56,-1,-1,0
1523633714052,-786432,102,-56,-1,-1,0
1523633714052,-851968,102,-56,-1,-1,0
1523633714052,-983040,102,-56,-1,-1,0
1523633714052,-1048576,102,-56,-1,-1,0
1523633714052,-1114112,102,-56,-1,-1,0
1523633714094,-1245184,102,-56,-1,-1,0
1523633714094,-1376256,102,-56,-1,-1,0
1523633714094,-1441792,102,-56,-1,-1,0
1523633714094,-1441792,102,-56,-1,-1,0
1523633714094,-1376256,102,-56,-1,-1,0
1523633714132,-1310720,102,-56,-1,-1,0
1523633714132,-1310720,102,-56,-1,-1,0
1523633714132,-1441792,102,-56,-1,-1,0
1523633714132,-983040,102,-56,-1,-1,0
1523633714132,1376256,102,-56,-1,-1,0
1523633714174,5767168,102,-56,-1,-1,0
1523633714174,7667712,102,-56,-1,-1,0
1523633714174,4390912,102,-56,-1,-1,0
1523633714174,-1245184,102,-56,-1,-1,0
1523633714174,-4915200,102,-56,-1,-1,0
1523633714212,-5832704,102,-56,-1,-1,0
1523633714212,-5111808,102,-56,-1,-1,0
1523633714212,-3670016,102,-56,-1,-1,0
1523633714212,-2490368,102,-56,-1,-1,0
1523633714212,-1900544,102,-56,-1,-1,0
1523633714254,-1638400,102,-56,-1,-1,0
1523633714254,-1376256,102,-56,-1,-1,0
1523633714254,-1179648,102,-56,-1,-1,0
1523633714254,-983040,102,-56,-1,-1,0
1523633714254,-786432,102,-56,-1,-1,0
1523633714294,-589824,102,-56,-1,-1,0
1523633714294,-262144,102,-56,-1,-1,0
1523633714294,65536,102,-56,-1,-1,0
1523633714294,393216,102,-56,-1,-1,0
1523633714294,851968,102,-56,-1,-1,0
1523633714334,1507328,102,-56,-1,-1,0
1523633714334,2228224,102,-56,-1,-1,0
1523633714334,2949120,102,-56,-1,-1,0
1523633714334,3538944,102,-56,-1,-1,0
1523633714334,3997696,102,-56,-1,-1,0
1523633714374,4194304,102,-56,-1,-1,0
1523633714374,4194304,102,-56,-1,-1,0
1523633714374,3997696,102,-56,-1,-1,0
1523633714374,3604480,102,-56,-1,-1,0
1523633714374,3014656,102,-56,-1,-1,0
1523633714414,2228224,102,-56,-1,-1,0
1523633714414,1441792,102,-56,-1,-1,0
1523633714414,786432,102,-56,-1,-1,0
1523633714414,327680,102,-56,-1,-1,0
1523633714414,0,102,-56,-1,-1,0
1523633714454,-65536,102,-56,-1,-1,0
1523633714454,-131072,102,-56,-1,-1,0
1523633714454,-327680,102,-56,-1,-1,0
1523633714454,-458752,102,-56,-1,-1,0
1523633714454,-393216,102,-56,-1,-1,0
1523633714494,-393216,102,-56,-1,-1,0
1523633714494,-393216,102,-56,-1,-1,0
1523633714494,-327680,102,-56,-1,-1,0
1523633714494,-327680,102,-56,-1,-1,0
1523633714494,-327680,102,-56,-1,-1,0
1523633714532,-327680,102,-56,-1,-1,0
1523633714532,-393216,102,-56,-1,-1,0
1523633714532,-458752,102,-56,-1,-1,0
1523633714532,-524288,102,-56,-1,-1,0
1523633714532,-720896,102,-56,-1,-1,0
1523633714574,-851968,102,-56,-1,-1,0
1523633714574,-917504,102,-56,-1,-1,0
1523633714574,-983040,102,-56,-1,-1,0
1523633714574,-1048576,102,-56,-1,-1,0
1523633714574,-1048576,102,-56,-1,-1,0
1523633714612,-1114112,102,-56,-1,-1,0
1523633714612,-1114112,102,-56,-1,-1,0
1523633714612,-983040,102,-56,-1,-1,0
1523633714612,-851968,102,-56,-1,-1,0
1523633714612,-851968,102,-56,-1,-1,0
1523633714654,-851968,102,-56,-1,-1,0
1523633714654,-917504,102,-56,-1,-1,0
1523633714654,-983040,102,-56,-1,-1,0
1523633714654,-1048576,102,-56,-1,-1,0
1523633714654,-1048576,102,-56,-1,-1,0
1523633714692,-1114112,102,-56,-1,-1,0
1523633714692,-1048576,102,-56,-1,-1,0
1523633714692,-983040,102,-56,-1,-1,0
1523633714692,-983040,102,-56,-1,-1,0
1523633714692,-917504,102,-56,-1,-1,0
1523633714734,-917504,102,-56,-1,-1,0
1523633714734,-983040,102,-56,-1,-1,0
1523633714734,-1245184,102,-56,-1,-1,0
1523633714734,-983040,102,-56,-1,-1,0
1523633714734,1376256,102,-56,-1,-1,0
1523633714774,6291456,102,-56,-1,-1,0
1523633714774,9502720,102,-56,-1,-1,0
1523633714774,6946816,102,-56,-1,-1,0
1523633714774,589824,102,-56,-1,-1,0
1523633714774,-4194304,102,-56,-1,-1,0
1523633714814,-5570560,102,-56,-1,-1,0
1523633714814,-4980736,102,-56,-1,-1,0
1523633714814,-3407872,102,-56,-1,-1,0
1523633714814,-2097152,102,-56,-1,-1,0
1523633714814,-1310720,102,-56,-1,-1,0
1523633714852,-917504,102,-56,-1,-1,0
1523633714852,-589824,102,-56,-1,-1,0
1523633714852,-262144,102,-56,-1,-1,0
1523633714852,-131072,102,-56,-1,-1,0
1523633714852,0,102,-56,-1,-1,0
1523633714894,131072,102,-56,-1,-1,0
1523633714894,327680,102,-56,-1,-1,0
1523633714894,655360,102,-56,-1,-1,0
1523633714894,1048576,102,-56,-1,-1,0
1523633714894,1572864,102,-56,-1,-1,0
1523633714932,2228224,102,-56,-1,-1,0
1523633714932,3014656,102,-56,-1,-1,0
1523633714932,3866624,102,-56,-1,-1,0
1523633714932,4587520,102,-56,-1,-1,0
1523633714932,5111808,102,-56,-1,-1,0
1523633714974,5308416,102,-56,-1,-1,0
1523633714974,5111808,102,-56,-1,-1,0
1523633714974,4784128,102,-56,-1,-1,0
1523633714974,4128768,102,-56,-1,-1,0
1523633714974,3276800,102,-56,-1,-1,0
1523633715012,2490368,102,-56,-1,-1,0
1523633715012,1703936,102,-56,-1,-1,0
1523633715012,917504,102,-56,-1,-1,0
1523633715012,262144,102,-56,-1,-1,0
1523633715012,-131072,102,-56,-1,-1,0
1523633715054,-458752,102,-56,-1,-1,0
1523633715054,-524288,102,-56,-1,-1,0
1523633715054,-524288,102,-56,-1,-1,0
1523633715054,-458752,102,-56,-1,-1,0
1523633715054,-393216,102,-56,-1,-1,0
1523633715092,-327680,102,-56,-1,-1,0
1523633715092,-327680,102,-56,-1,-1,0
1523633715092,-327680,102,-56,-1,-1,0
1523633715092,-327680,102,-56,-1,-1,0
1523633715092,-262144,102,-56,-1,-1,0
1523633715132,-262144,102,-56,-1,-1,0
1523633715132,-327680,102,-56,-1,-1,0
1523633715132,-458752,102,-56,-1,-1,0
1523633715132,-720896,102,-56,-1,-1,0
1523633715132,-851968,102,-56,-1,-1,0
1523633715172,-983040,102,-56,-1,-1,0
1523633715172,-983040,102,-56,-1,-1,0
1523633715172,-983040,102,-56,-1,-1,0
1523633715172,-1048576,102,-56,-1,-1,0
1523633715172,-1179648,102,-56,-1,-1,0
1523633715214,-1245184,102,-56,-1,-1,0
1523633715214,-1179648,102,-56,-1,-1,0
1523633715214,-1048576,102,-56,-1,-1,0
1523633715214,-917504,102,-56,-1,-1,0
1523633715214,-983040,102,-56,-1,-1,0
1523633715252,-1245184,102,-56,-1,-1,0
1523633715252,-1441792,102,-56,-1,-1,0
1523633715252,-1507328,102,-56,-1,-1,0
1523633715252,-1441792,102,-56,-1,-1,0
1523633715252,-1441792,102,-56,-1,-1,0
1523633715294,-1441792,102,-56,-1,-1,0
1523633715294,-1310720,102,-56,-1,-1,0
1523633715294,-1245184,102,-56,-1,-1,0
1523633715294,-1179648,102,-56,-1,-1,0
1523633715294,-1245184,102,-56,-1,-1,0
1523633715332,-1376256,102,-56,-1,-1,0
1523633715332,-1310720,102,-56,-1,-1,0
1523633715332,589824,102,-56,-1,-1,0
1523633715332,5111808,102,-56,-1,-1,0
1523633715332,8781824,102,-56,-1,-1,0
1523633715374,6815744,102,-56,-1,-1,0
1523633715374,393216,102,-56,-1,-1,0
1523633715374,-4849664,102,-56,-1,-1,0
1523633715374,-6422528,102,-56,-1,-1,0
1523633715374,-5701632,102,-56,-1,-1,0
1523633715412,-4063232,102,-56,-1,-1,0
1523633715412,-2621440,102,-56,-1,-1,0
1523633715412,-1703936,102,-56,-1,-1,0
1523633715412,-1310720,102,-56,-1,-1,0
1523633715412,-1179648,102,-56,-1,-1,0
1523633715454,-1048576,102,-56,-1,-1,0
1523633715454,-851968,102,-56,-1,-1,0
1523633715454,-720896,102,-56,-1,-1,0
1523633715454,-589824,102,-56,-1,-1,0
1523633715454,-458752,102,-56,-1,-1,0
1523633715492,-65536,102,-56,-1,-1,0
1523633715492,327680,102,-56,-1,-1,0
1523633715492,917504,102,-56,-1,-1,0
1523633715492,1507328,102,-56,-1,-1,0
1523633715492,2293760,102,-56,-1,-1,0
1523633715534,3080192,102,-56,-1,-1,0
1523633715534,3801088,102,-56,-1,-1,0
1523633715534,4325376,102,-56,-1,-1,0
1523633715534,4587520,102,-56,-1,-1,0
1523633715534,4456448,102,-56,-1,-1,0
1523633715572,3932160,102,-56,-1,-1,0
1523633715572,3211264,102,-56,-1,-1,0
1523633715572,2359296,102,-56,-1,-1,0
1523633715572,1507328,102,-56,-1,-1,0
1523633715572,655360,102,-56,-1,-1,0
1523633715614,-65536,102,-56,-1,-1,0
1523633715614,-524288,102,-56,-1,-1,0
1523633715614,-851968,102,-56,-1,-1,0
1523633715614,-1179648,102,-56,-1,-1,0
1523633715614,-1376256,102,-56,-1,-1,0
1523633715652,-1507328,102,-56,-1,-1,0
1523633715652,-1507328,102,-56,-1,-1,0
1523633715652,-1507328,102,-56,-1,-1,0
1523633715652,-1376256,102,-56,-1,-1,0
1523633715652,-1245184,102,-56,-1,-1,0
1523633715692,-1114112,102,-56,-1,-1,0
1523633715692,-917504,102,-56,-1,-1,0
1523633715692,-917504,102,-56,-1,-1,0
1523633715692,-1048576,102,-56,-1,-1,0
1523633715692,-1179648,102,-56,-1,-1,0
1523633715732,-1179648,102,-56,-1,-1,0
1523633715732,-1245184,102,-56,-1,-1,0
1523633715732,-1441792,102,-56,-1,-1,0
1523633715732,-1572864,102,-56,-1,-1,0
1523633715732,-1507328,102,-56,-1,-1,0
1523633715772,-1507328,102,-56,-1,-1,0
1523633715772,-1638400,102,-56,-1,-1,0
1523633715772,-1769472,102,-56,-1,-1,0
1523633715772,-1769472,102,-56,-1,-1,0
1523633715772,-1638400,102,-56,-1,-1,0
1523633715812,-1507328,102,-56,-1,-1,0
1523633715812,-1441792,102,-56,-1,-1,0
1523633715812,-1507328,102,-56,-1,-1,0
1523633715812,-1572864,102,-56,-1,-1,0
1523633715812,-1703936,102,-56,-1,-1,0
1523633715852,-1638400,102,-56,-1,-1,0
1523633715852,-1572864,102,-56,-1,-1,0
1523633715852,-1507328,102,-56,-1,-1,0
1523633715852,-1507328,102,-56,-1,-1,0
1523633715852,-1572864,102,-56,-1,-1,0
1523633715892,-1507328,102,-56,-1,-1,0
1523633715892,-1507328,102,-56,-1,-1,0
1523633715892,-1703936,102,-56,-1,-1,0
1523633715892,-1900544,102,-56,-1,-1,0
1523633715892,-1114112,102,-56,-1,-1,0
1523633715932,2359296,102,-56,-1,-1,0
1523633715932,7471104,102,-56,-1,-1,0
1523633715932,9502720,102,-56,-1,-1,0
1523633715932,5570560,102,-56,-1,-1,0
1523633715932,-917504,102,-56,-1,-1,0
1523633715972,-5111808,102,-56,-1,-1,0
1523633715972,-5570560,102,-56,-1,-1,0
1523633715972,-4325376,102,-56,-1,-1,0
1523633715972,-2818048,102,-56,-1,-1,0
1523633715972,-1835008,102,-56,-1,-1,0
1523633716014,-1310720,102,-56,-1,-1,0
1523633716014,-1179648,102,-56,-1,-1,0
1523633716014,-1114112,102,-56,-1,-1,0
1523633716014,-917504,102,-56,-1,-1,0
1523633716014,-655360,102,-56,-1,-1,0
1523633716052,-589824,102,-56,-1,-1,0
1523633716052,-524288,102,-56,-1,-1,0
1523633716052,-262144,102,-56,-1,-1,0
1523633716052,65536,102,-56,-1,-1,0
1523633716052,589824,102,-56,-1,-1,0
1523633716092,1245184,102,-56,-1,-1,0
1523633716092,1900544,102,-56,-1,-1,0
1523633716092,2621440,102,-56,-1,-1,0
1523633716092,3407872,102,-56,-1,-1,0
1523633716092,4194304,102,-56,-1,-1,0
1523633716132,4653056,102,-56,-1,-1,0
1523633716132,4718592,102,-56,-1,-1,0
1523633716132,4521984,102,-56,-1,-1,0
1523633716132,4259840,102,-56,-1,-1,0
1523633716132,3801088,102,-56,-1,-1,0
1523633716172,3080192,102,-56,-1,-1,0
1523633716172,2228224,102,-56,-1,-1,0
1523633716172,1441792,102,-56,-1,-1,0
1523633716172,720896,102,-56,-1,-1,0
1523633716172,131072,102,-56,-1,-1,0
1523633716212,-262144,102,-56,-1,-1,0
1523633716212,-524288,102,-56,-1,-1,0
1523633716212,-655360,102,-56,-1,-1,0
1523633716212,-786432,102,-56,-1,-1,0
1523633716212,-786432,102,-56,-1,-1,0
1523633716252,-786432,102,-56,-1,-1,0
1523633716252,-720896,102,-56,-1,-1,0
1523633716252,-720896,102,-56,-1,-1,0
1523633716252,-589824,102,-56,-1,-1,0
1523633716252,-524288,102,-56,-1,-1,0
1523633716292,-524288,102,-56,-1,-1,0
1523633716292,-589824,102,-56,-1,-1,0
1523633716292,-655360,102,-56,-1,-1,0
1523633716292,-786432,102,-56,-1,-1,0
1523633716292,-851968,102,-56,-1,-1,0
1523633716332,-917504,102,-56,-1,-1,0
1523633716332,-983040,102,-56,-1,-1,0
1523633716332,-1114112,102,-56,-1,-1,0
1523633716332,-1179648,102,-56,-1,-1,0
1523633716332,-1179648,102,-56,-1,-1,0
1523633716372,-1179648,102,-56,-1,-1,0
1523633716372,-1179648,102,-56,-1,-1,0
1523633716372,-1179648,102,-56,-1,-1,0
1523633716372,-1179648,102,-56,-1,-1,0
1523633716372,-1179648,102,-56,-1,-1,0
1523633716412,-1245184,102,-56,-1,-1,0
1523633716412,-1376256,102,-56,-1,-1,0
1523633716412,-1441792,102,-56,-1,-1,0
1523633716412,-1441792,102,-56,-1,-1,0
1523633716412,-1376256,102,-56,-1,-1,0
1523633716452,-1310720,102,-56,-1,-1,0
1523633716452,-1245184,102,-56,-1,-1,0
1523633716452,-1376256,102,-56,-1,-1,0
1523633716452,-1441792,102,-56,-1,-1,0
1523633716452,-1441792,102,-56,-1,-1,0
1523633716492,-1441792,102,-56,-1,-1,0
1523633716492,-1638400,102,-56,-1,-1,0
1523633716492,-1245184,102,-56,-1,-1,0
1523633716492,1114112,102,-56,-1,-1,0
1523633716492,5701632,102,-56,-1,-1,0
1523633716532,8650752,102,-56,-1,-1,0
1523633716532,6291456,102,-56,-1,-1,0
1523633716532,196608,102,-56,-1,-1,0
1523633716532,-4521984,102,-56,-1,-1,0
1523633716532,-5898240,102,-56,-1,-1,0
1523633716572,-5177344,102,-56,-1,-1,0
1523633716572,-3670016,102,-56,-1,-1,0
1523633716572,-2359296,102,-56,-1,-1,0
1523633716572,-1572864,102,-56,-1,-1,0
1523633716572,-1245184,102,-56,-1,-1,0
1523633716612,-1048576,102,-56,-1,-1,0
1523633716612,-851968,102,-56,-1,-1,0
1523633716612,-720896,102,-56,-1,-1,0
1523633716612,-524288,102,-56,-1,-1,0
1523633716612,-327680,102,-56,-1,-1,0
1523633716654,0,102,-56,-1,-1,0
1523633716654,327680,102,-56,-1,-1,0
1523633716654,786432,102,-56,-1,-1,0
1523633716654,1376256,102,-56,-1,-1,0
1523633716654,2097152,102,-56,-1,-1,0
1523633716692,2883584,102,-56,-1,-1,0
1523633716692,3735552,102,-56,-1,-1,0
1523633716692,4521984,102,-56,-1,-1,0
1523633716692,5177344,102,-56,-1,-1,0
1523633716692,5505024,102,-56,-1,-1,0
1523633716732,5439488,102,-56,-1,-1,0
1523633716732,5111808,102,-56,-1,-1,0
1523633716732,4587520,102,-56,-1,-1,0
1523633716732,3735552,102,-56,-1,-1,0
1523633716732,2818048,102,-56,-1,-1,0
1523633716772,2031616,102,-56,-1,-1,0
1523633716772,1376256,102,-56,-1,-1,0
1523633716772,720896,102,-56,-1,-1,0
1523633716772,131072,102,-56,-1,-1,0
1523633716772,-196608,102,-56,-1,-1,0
1523633716812,-327680,102,-56,-1,-1,0
1523633716812,-393216,102,-56,-1,-1,0
1523633716812,-393216,102,-56,-1,-1,0
1523633716812,-393216,102,-56,-1,-1,0
1523633716812,-327680,102,-56,-1,-1,0
1523633716852,-262144,102,-56,-1,-1,0
1523633716852,-262144,102,-56,-1,-1,0
1523633716852,-262144,102,-56,-1,-1,0
1523633716852,-262144,102,-56,-1,-1,0
1523633716852,-262144,102,-56,-1,-1,0
1523633716892,-262144,102,-56,-1,-1,0
1523633716892,-196608,102,-56,-1,-1,0
1523633716892,-262144,102,-56,-1,-1,0
1523633716892,-393216,102,-56,-1,-1,0
1523633716892,-589824,102,-56,-1,-1,0
1523633716932,-720896,102,-56,-1,-1,0
1523633716932,-786432,102,-56,-1,-1,0
1523633716932,-851968,102,-56,-1,-1,0
1523633716932,-851968,102,-56,-1,-1,0
1523633716932,-917504,102,-56,-1,-1,0
1523633716972,-983040,102,-56,-1,-1,0
1523633716972,-1048576,102,-56,-1,-1,0
1523633716972,-983040,102,-56,-1,-1,0
1523633716972,-917504,102,-56,-1,-1,0
1523633716972,-786432,102,-56,-1,-1,0
1523633717012,-851968,102,-56,-1,-1,0
1523633717012,-1048576,102,-56,-1,-1,0
1523633717012,-1114112,102,-56,-1,-1,0
1523633717012,-1114112,102,-56,-1,-1,0
1523633717012,-1179648,102,-56,-1,-1,0
1523633717052,-1179648,102,-56,-1,-1,0
1523633717052,-1245184,102,-56,-1,-1,0
1523633717052,-1310720,102,-56,-1,-1,0
1523633717052,-1179648,102,-56,-1,-1,0
1523633717052,-1114112,102,-56,-1,-1,0
1523633717092,-1245184,102,-56,-1,-1,0
1523633717092,-1376256,102,-56,-1,-1,0
1523633717092,-327680,102,-56,-1,-1,0
1523633717092,3145728,102,-56,-1,-1,0
1523633717092,7798784,102,-56,-1,-1,0
1523633717132,8912896,102,-56,-1,-1,0
1523633717132,4063232,102,-56,-1,-1,0
1523633717132,-2228224,102,-56,-1,-1,0
1523633717132,-5832704,102,-56,-1,-1,0
1523633717132,-6160384,102,-56,-1,-1,0
1523633717172,-4849664,102,-56,-1,-1,0
1523633717172,-3145728,102,-56,-1,-1,0
1523633717172,-1900544,102,-56,-1,-1,0
1523633717172,-1179648,102,-56,-1,-1,0
1523633717172,-786432,102,-56,-1,-1,0
1523633717212,-655360,102,-56,-1,-1,0
1523633717212,-458752,102,-56,-1,-1,0
1523633717212,-262144,102,-56,-1,-1,0
1523633717212,-196608,102,-56,-1,-1,0
1523633717212,-131072,102,-56,-1,-1,0
1523633717252,131072,102,-56,-1,-1,0
1523633717252,458752,102,-56,-1,-1,0
1523633717252,917504,102,-56,-1,-1,0
1523633717252,1507328,102,-56,-1,-1,0
1523633717252,2228224,102,-56,-1,-1,0
1523633717294,3080192,102,-56,-1,-1,0
1523633717294,3932160,102,-56,-1,-1,0
1523633717294,4653056,102,-56,-1,-1,0
1523633717294,5111808,102,-56,-1,-1,0
1523633717294,5242880,102,-56,-1,-1,0
1523633717332,4980736,102,-56,-1,-1,0
1523633717332,4521984,102,-56,-1,-1,0
1523633717332,3866624,102,-56,-1,-1,0
1523633717332,2949120,102,-56,-1,-1,0
1523633717332,1966080,102,-56,-1,-1,0
1523633717372,1048576,102,-56,-1,-1,0
1523633717372,262144,102,-56,-1,-1,0
1523633717372,-196608,102,-56,-1,-1,0
1523633717372,-589824,102,-56,-1,-1,0
1523633717372,-917504,102,-56,-1,-1,0
1523633717412,-1048576,102,-56,-1,-1,0
1523633717412,-1114112,102,-56,-1,-1,0
1523633717412,-1048576,102,-56,-1,-1,0
1523633717412,-983040,102,-56,-1,-1,0
1523633717412,-851968,102,-56,-1,-1,0
1523633717452,-786432,102,-56,-1,-1,0
1523633717452,-655360,102,-56,-1,-1,0
1523633717452,-589824,102,-56,-1,-1,0
1523633717452,-524288,102,-56,-1,-1,0
1523633717452,-524288,102,-56,-1,-1,0
1523633717492,-589824,102,-56,-1,-1,0
1523633717492,-786432,102,-56,-1,-1,0
1523633717492,-983040,102,-56,-1,-1,0
1523633717492,-983040,102,-56,-1,-1,0
1523633717492,-983040,102,-56,-1,-1,0
1523633717532,-1114112,102,-56,-1,-1,0
1523633717532,-1310720,102,-56,-1,-1,0
1523633717532,-1441792,102,-56,-1,-1,0
1523633717532,-1441792,102,-56,-1,-1,0
1523633717532,-1441792,102,-56,-1,-1,0
1523633717574,-1507328,102,-56,-1,-1,0
1523633717574,-1441792,102,-56,-1,-1,0
1523633717574,-1310720,102,-56,-1,-1,0
1523633717574,-1245184,102,-56,-1,-1,0
1523633717574,-1376256,102,-56,-1,-1,0
1523633717612,-1441792,102,-56,-1,-1,0
1523633717612,-1507328,102,-56,-1,-1,0
1523633717612,-1572864,102,-56,-1,-1,0
1523633717612,-1572864,102,-56,-1,-1,0
1523633717612,-1638400,102,-56,-1,-1,0
1523633717652,-1638400,102,-56,-1,-1,0
1523633717652,-1703936,102,-56,-1,-1,0
1523633717652,-1703936,102,-56,-1,-1,0
1523633717652,-1703936,102,-56,-1,-1,0
1523633717652,-1638400,102,-56,-1,-1,0
1523633717692,-1703936,102,-56,-1,-1,0
1523633717692,-1703936,102,-56,-1,-1,0
1523633717692,-196608,102,-56,-1,-1,0
1523633717692,3932160,102,-56,-1,-1,0
1523633717692,8388608,102,-56,-1,-1,0
1523633717732,8388608,102,-56,-1,-1,0
1523633717732,2818048,102,-56,-1,-1,0
1523633717732,-3276800,102,-56,-1,-1,0
1523633717732,-6094848,102,-56,-1,-1,0
1523633717732,-5898240,102,-56,-1,-1,0
1523633717772,-4456448,102,-56,-1,-1,0
1523633717772,-2949120,102,-56,-1,-1,0
1523633717772,-1966080,102,-56,-1,-1,0
1523633717772,-1507328,102,-56,-1,-1,0
1523633717772,-1310720,102,-56,-1,-1,0
1523633717812,-1179648,102,-56,-1,-1,0
1523633717812,-983040,102,-56,-1,-1,0
1523633717812,-851968,102,-56,-1,-1,0
1523633717812,-589824,102,-56,-1,-1,0
1523633717812,-327680,102,-56,-1,-1,0
1523633717852,-65536,102,-56,-1,-1,0
1523633717852,196608,102,-56,-1,-1,0
1523633717852,589824,102,-56,-1,-1,0
1523633717852,1114112,102,-56,-1,-1,0
1523633717852,1835008,102,-56,-1,-1,0
1523633717892,2621440,102,-56,-1,-1,0
1523633717892,3407872,102,-56,-1,-1,0
1523633717892,4063232,102,-56,-1,-1,0
1523633717892,4521984,102,-56,-1,-1,0
1523633717892,4653056,102,-56,-1,-1,0
1523633717934,4521984,102,-56,-1,-1,0
1523633717934,4128768,102,-56,-1,-1,0
1523633717934,3538944,102,-56,-1,-1,0
1523633717934,2621440,102,-56,-1,-1,0
1523633717934,1638400,102,-56,-1,-1,0
1523633717972,851968,102,-56,-1,-1,0
1523633717972,262144,102,-56,-1,-1,0
1523633717972,-196608,102,-56,-1,-1,0
1523633717972,-524288,102,-56,-1,-1,0
1523633717972,-786432,102,-56,-1,-1,0
1523633718012,-917504,102,-56,-1,-1,0
1523633718012,-983040,102,-56,-1,-1,0
1523633718012,-983040,102,-56,-1,-1,0
1523633718012,-917504,102,-56,-1,-1,0
1523633718012,-786432,102,-56,-1,-1,0
1523633718052,-786432,102,-56,-1,-1,0
1523633718052,-720896,102,-56,-1,-1,0
1523633718052,-524288,102,-56,-1,-1,0
1523633718052,-458752,102,-56,-1,-1,0
1523633718052,-458752,102,-56,-1,-1,0
1523633718092,-458752,102,-56,-1,-1,0
1523633718092,-524288,102,-56,-1,-1,0
1523633718092,-655360,102,-56,-1,-1,0
1523633718092,-655360,102,-56,-1,-1,0
1523633718092,-655360,102,-56,-1,-1,0
1523633718132,-720896,102,-56,-1,-1,0
1523633718132,-851968,102,-56,-1,-1,0
1523633718132,-851968,102,-56,-1,-1,0
1523633718132,-917504,102,-56,-1,-1,0
1523633718132,-917504,102,-56,-1,-1,0
1523633718172,-851968,102,-56,-1,-1,0
1523633718172,-851968,102,-56,-1,-1,0
1523633718172,-983040,102,-56,-1,-1,0
1523633718172,-1179648,102,-56,-1,-1,0
1523633718172,-1245184,102,-56,-1,-1,0
1523633718212,-1179648,102,-56,-1,-1,0
1523633718212,-1114112,102,-56,-1,-1,0
1523633718212,-1048576,102,-56,-1,-1,0
1523633718212,-917504,102,-56,-1,-1,0
1523633718212,-786432,102,-56,-1,-1,0
1523633718252,-720896,102,-56,-1,-1,0
1523633718252,-786432,102,-56,-1,-1,0
1523633718252,-786432,102,-56,-1,-1,0
1523633718252,-720896,102,-56,-1,-1,0
1523633718252,-851968,102,-56,-1,-1,0
1523633718292,-1048576,102,-56,-1,-1,0
1523633718292,-1179648,102,-56,-1,-1,0
1523633718292,-1245184,102,-56,-1,-1,0
1523633718292,-1114112,102,-56,-1,-1,0
1523633718292,-1048576,102,-56,-1,-1,0
1523633718332,-983040,102,-56,-1,-1,0
1523633718332,-917504,102,-56,-1,-1,0
1523633718332,-983040,102,-56,-1,-1,0
1523633718332,-1179648,102,-56,-1,-1,0
1523633718332,-196608,102,-56,-1,-1,0
1523633718372,3473408,102,-56,-1,-1,0
1523633718372,8585216,102,-56,-1,-1,0
1523633718372,10223616,102,-56,-1,-1,0
1523633718372,5701632,102,-56,-1,-1,0
1523633718372,-1114112,102,-56,-1,-1,0
1523633718412,-5177344,102,-56,-1,-1,0
1523633718412,-5439488,102,-56,-1,-1,0
1523633718412,-3997696,102,-56,-1,-1,0
1523633718412,-2424832,102,-56,-1,-1,0
1523633718412,-1441792,102,-56,-1,-1,0
1523633718452,-983040,102,-56,-1,-1,0
1523633718452,-983040,102,-56,-1,-1,0
1523633718452,-983040,102,-56,-1,-1,0
1523633718452,-851968,102,-56,-1,-1,0
1523633718452,-655360,102,-56,-1,-1,0
1523633718492,-458752,102,-56,-1,-1,0
1523633718492,-131072,102,-56,-1,-1,0
1523633718492,131072,102,-56,-1,-1,0
1523633718492,458752,102,-56,-1,-1,0
1523633718492,917504,102,-56,-1,-1,0
1523633718532,1376256,102,-56,-1,-1,0
1523633718532,1966080,102,-56,-1,-1,0
1523633718532,2555904,102,-56,-1,-1,0
1523633718532,3276800,102,-56,-1,-1,0
1523633718532,3997696,102,-56,-1,-1,0
1523633718573,4521984,102,-56,-1,-1,0
1523633718573,4653056,102,-56,-1,-1,0
1523633718573,4653056,102,-56,-1,-1,0
1523633718573,4390912,102,-56,-1,-1,0
1523633718573,3932160,102,-56,-1,-1,0
1523633718612,3276800,102,-56,-1,-1,0
1523633718612,2424832,102,-56,-1,-1,0
1523633718612,1638400,102,-56,-1,-1,0
1523633718612,917504,102,-56,-1,-1,0
1523633718612,458752,102,-56,-1,-1,0
1523633718652,65536,102,-56,-1,-1,0
1523633718652,-196608,102,-56,-1,-1,0
1523633718652,-393216,102,-56,-1,-1,0
1523633718652,-458752,102,-56,-1,-1,0
1523633718652,-458752,102,-56,-1,-1,0
1523633718692,-458752,102,-56,-1,-1,0
1523633718692,-393216,102,-56,-1,-1,0
1523633718692,-327680,102,-56,-1,-1,0
1523633718692,-262144,102,-56,-1,-1,0
1523633718692,-196608,102,-56,-1,-1,0
1523633718732,-65536,102,-56,-1,-1,0
1523633718732,-65536,102,-56,-1,-1,0
1523633718732,-131072,102,-56,-1,-1,0
1523633718732,-196608,102,-56,-1,-1,0
1523633718732,-262144,102,-56,-1,-1,0
1523633718772,-262144,102,-56,-1,-1,0
1523633718772,-196608,102,-56,-1,-1,0
1523633718772,-262144,102,-56,-1,-1,0
1523633718772,-393216,102,-56,-1,-1,0
1523633718772,-393216,102,-56,-1,-1,0
1523633718812,-458752,102,-56,-1,-1,0
1523633718812,-589824,102,-56,-1,-1,0
1523633718812,-589824,102,-56,-1,-1,0
1523633718812,-655360,102,-56,-1,-1,0
1523633718812,-655360,102,-56,-1,-1,0
1523633718852,-655360,102,-56,-1,-1,0
1523633718852,-655360,102,-56,-1,-1,0
1523633718852,-589824,102,-56,-1,-1,0
1523633718852,-589824,102,-56,-1,-1,0
1523633718852,-524288,102,-56,-1,-1,0
1523633718892,-458752,102,-56,-1,-1,0
1523633718892,-393216,102,-56,-1,-1,0
1523633718892,-327680,102,-56,-1,-1,0
1523633718892,-393216,102,-56,-1,-1,0
1523633718892,-393216,102,-56,-1,-1,0
1523633718932,-393216,102,-56,-1,-1,0
1523633718932,-458752,102,-56,-1,-1,0
1523633718932,-458752,102,-56,-1,-1,0
1523633718932,-327680,102,-56,-1,-1,0
1523633718932,-262144,102,-56,-1,-1,0
1523633718972,-131072,102,-56,-1,-1,0
1523633718972,-65536,102,-56,-1,-1,0
1523633718972,-65536,102,-56,-1,-1,0
1523633718972,-196608,102,-56,-1,-1,0
1523633718972,-262144,102,-56,-1,-1,0
1523633719012,-262144,102,-56,-1,-1,0
1523633719012,-262144,102,-56,-1,-1,0
1523633719012,-262144,102,-56,-1,-1,0
1523633719012,-131072,102,-56,-1,-1,0
1523633719012,-131072,102,-56,-1,-1,0
1523633719052,-65536,102,-56,-1,-1,0
1523633719052,0,102,-56,-1,-1,0
1523633719052,0,102,-56,-1,-1,0
1523633719052,-65536,102,-56,-1,-1,0
1523633719052,262144,102,-56,-1,-1,0
1523633719092,2752512,102,-56,-1,-1,0
1523633719092,7208960,102,-56,-1,-1,0
1523633719092,9961472,102,-56,-1,-1,0
1523633719092,7340032,102,-56,-1,-1,0
1523633719092,1114112,102,-56,-1,-1,0
1523633719132,-3538944,102,-56,-1,-1,0
1523633719132,-4653056,102,-56,-1,-1,0
1523633719132,-3735552,102,-56,-1,-1,0
1523633719132,-2162688,102,-56,-1,-1,0
1523633719132,-786432,102,-56,-1,-1,0
1523633719172,0,102,-56,-1,-1,0
1523633719172,262144,102,-56,-1,-1,0
1523633719172,458752,102,-56,-1,-1,0
1523633719172,786432,102,-56,-1,-1,0
1523633719172,1048576,102,-56,-1,-1,0
1523633719213,1114112,102,-56,-1,-1,0
1523633719213,1245184,102,-56,-1,-1,0
1523633719213,1507328,102,-56,-1,-1,0
1523633719213,1900544,102,-56,-1,-1,0
1523633719213,2228224,102,-56,-1,-1,0
1523633719252,2621440,102,-56,-1,-1,0
1523633719252,3145728,102,-56,-1,-1,0
1523633719252,3801088,102,-56,-1,-1,0
1523633719252,4653056,102,-56,-1,-1,0
1523633719252,5505024,102,-56,-1,-1,0
1523633719292,6291456,102,-56,-1,-1,0
1523633719292,6750208,102,-56,-1,-1,0
1523633719292,6881280,102,-56,-1,-1,0
1523633719292,6684672,102,-56,-1,-1,0
1523633719292,6225920,102,-56,-1,-1,0
1523633719332,5439488,102,-56,-1,-1,0
1523633719332,4653056,102,-56,-1,-1,0
1523633719332,3866624,102,-56,-1,-1,0
1523633719332,3014656,102,-56,-1,-1,0
1523633719332,2293760,102,-56,-1,-1,0
1523633719372,1703936,102,-56,-1,-1,0
1523633719372,1310720,102,-56,-1,-1,0
1523633719372,983040,102,-56,-1,-1,0
1523633719372,786432,102,-56,-1,-1,0
1523633719372,655360,102,-56,-1,-1,0
1523633719412,655360,102,-56,-1,-1,0
1523633719412,786432,102,-56,-1,-1,0
1523633719412,917504,102,-56,-1,-1,0
1523633719412,1048576,102,-56,-1,-1,0
1523633719412,1048576,102,-56,-1,-1,0
1523633719452,1114112,102,-56,-1,-1,0
1523633719452,1114112,102,-56,-1,-1,0
1523633719452,1179648,102,-56,-1,-1,0
1523633719452,1114112,102,-56,-1,-1,0
1523633719452,983040,102,-56,-1,-1,0
1523633719492,786432,102,-56,-1,-1,0
1523633719492,655360,102,-56,-1,-1,0
1523633719492,589824,102,-56,-1,-1,0
1523633719492,524288,102,-56,-1,-1,0
1523633719492,327680,102,-56,-1,-1,0
1523633719532,196608,102,-56,-1,-1,0
1523633719532,65536,102,-56,-1,-1,0
1523633719532,0,102,-56,-1,-1,0
1523633719532,0,102,-56,-1,-1,0
1523633719532,0,102,-56,-1,-1,0
1523633719572,-65536,102,-56,-1,-1,0
1523633719572,-196608,102,-56,-1,-1,0
1523633719572,-262144,102,-56,-1,-1,0
1523633719572,-327680,102,-56,-1,-1,0
1523633719572,-458752,102,-56,-1,-1,0
1523633719612,-458752,102,-56,-1,-1,0
1523633719612,-458752,102,-56,-1,-1,0
1523633719612,-524288,102,-56,-1,-1,0
1523633719612,-589824,102,-56,-1,-1,0
1523633719612,-655360,102,-56,-1,-1,0
1523633719653,-720896,102,-56,-1,-1,0
1523633719653,-851968,102,-56,-1,-1,0
1523633719653,-917504,102,-56,-1,-1,0
1523633719653,-983040,102,-56,-1,-1,0
1523633719653,-1048576,102,-56,-1,-1,0
1523633719692,-1048576,102,-56,-1,-1,0
1523633719692,-1114112,102,-56,-1,-1,0
1523633719692,-1114112,102,-56,-1,-1,0
1523633719692,-1179648,102,-56,-1,-1,0
1523633719692,-1310720,102,-56,-1,-1,0
1523633719732,-1376256,102,-56,-1,-1,0
1523633719732,-196608,102,-56,-1,-1,0
1523633719732,3407872,102,-56,-1,-1,0
1523633719732,7602176,102,-56,-1,-1,0
1523633719732,7864320,102,-56,-1,-1,0
1523633719772,2686976,102,-56,-1,-1,0
1523633719772,-3145728,102,-56,-1,-1,0
1523633719772,-6029312,102,-56,-1,-1,0
1523633719772,-5963776,102,-56,-1,-1,0
1523633719772,-4718592,102,-56,-1,-1,0
1523633719812,-3211264,102,-56,-1,-1,0
1523633719812,-2228224,102,-56,-1,-1,0
1523633719812,-1835008,102,-56,-1,-1,0
1523633719812,-1638400,102,-56,-1,-1,0
1523633719812,-1572864,102,-56,-1,-1,0
1523633719854,-1507328,102,-56,-1,-1,0
1523633719854,-1507328,102,-56,-1,-1,0
1523633719854,-1376256,102,-56,-1,-1,0
1523633719854,-1179648,102,-56,-1,-1,0
1523633719854,-917504,102,-56,-1,-1,0
1523633719892,-655360,102,-56,-1,-1,0
1523633719892,-327680,102,-56,-1,-1,0
1523633719892,131072,102,-56,-1,-1,0
1523633719892,720896,102,-56,-1,-1,0
1523633719892,1441792,102,-56,-1,-1,0
1523633719932,2293760,102,-56,-1,-1,0
1523633719932,3080192,102,-56,-1,-1,0
1523633719932,3604480,102,-56,-1,-1,0
1523633719932,3801088,102,-56,-1,-1,0
1523633719932,3604480,102,-56,-1,-1,0
1523633719972,3145728,102,-56,-1,-1,0
1523633719972,2490368,102,-56,-1,-1,0
1523633719972,1703936,102,-56,-1,-1,0
1523633719972,786432,102,-56,-1,-1,0
1523633719972,0,102,-56,-1,-1,0
1523633720012,-720896,102,-56,-1,-1,0
1523633720012,-1310720,102,-56,-1,-1,0
1523633720012,-1769472,102,-56,-1,-1,0
1523633720012,-2162688,102,-56,-1,-1,0
1523633720012,-2424832,102,-56,-1,-1,0
1523633720052,-2555904,102,-56,-1,-1,0
1523633720052,-2555904,102,-56,-1,-1,0
1523633720052,-2490368,102,-56,-1,-1,0
1523633720052,-2424832,102,-56,-1,-1,0
1523633720052,-2293760,102,-56,-1,-1,0
1523633720092,-2162688,102,-56,-1,-1,0
1523633720092,-2031616,102,-56,-1,-1,0
1523633720092,-1966080,102,-56,-1,-1,0
1523633720092,-1966080,102,-56,-1,-1,0
1523633720092,-1966080,102,-56,-1,-1,0
1523633720132,-1966080,102,-56,-1,-1,0
1523633720132,-1966080,102,-56,-1,-1,0
1523633720132,-2031616,102,-56,-1,-1,0
1523633720132,-2097152,102,-56,-1,-1,0
1523633720132,-2162688,102,-56,-1,-1,0
1523633720172,-2162688,102,-56,-1,-1,0
1523633720172,-2162688,102,-56,-1,-1,0
1523633720172,-2228224,102,-56,-1,-1,0
1523633720172,-2228224,102,-56,-1,-1,0
1523633720172,-2293760,102,-56,-1,-1,0
1523633720212,-2228224,102,-56,-1,-1,0
1523633720212,-2293760,102,-56,-1,-1,0
1523633720212,-2293760,102,-56,-1,-1,0
1523633720212,-2359296,102,-56,-1,-1,0
1523633720212,-2490368,102,-56,-1,-1,0
1523633720252,-2490368,102,-56,-1,-1,0
1523633720252,-2490368,102,-56,-1,-1,0
1523633720252,-2490368,102,-56,-1,-1,0
1523633720252,-2424832,102,-56,-1,-1,0
1523633720252,-2359296,102,-56,-1,-1,0
1523633720292,-2162688,102,-56,-1,-1,0
1523633720292,-2031616,102,-56,-1,-1,0
1523633720292,-1966080,102,-56,-1,-1,0
1523633720292,-1966080,102,-56,-1,-1,0
1523633720292,-1966080,102,-56,-1,-1,0
1523633720332,-2031616,102,-56,-1,-1,0
1523633720332,-2097152,102,-56,-1,-1,0
1523633720332,-2031616,102,-56,-1,-1,0
1523633720332,-1966080,102,-56,-1,-1,0
1523633720332,-2031616,102,-56,-1,-1,0
1523633720372,-2031616,101,-56,-1,-1,0
1523633720372,-1966080,101,-56,-1,-1,0
1523633720372,-1835008,101,-56,-1,-1,0
1523633720372,-1835008,101,-56,-1,-1,0
1523633720372,-1966080,101,-56,-1,-1,0
1523633720412,-1966080,101,-56,-1,-1,0
1523633720412,-655360,101,-56,-1,-1,0
1523633720412,2818048,101,-56,-1,-1,0
1523633720412,7077888,101,-56,-1,-1,0
1523633720412,7733248,101,-56,-1,-1,0
1523633720452,3276800,101,-56,-1,-1,0
1523633720452,-2555904,101,-56,-1,-1,0
1523633720452,-5767168,101,-56,-1,-1,0
1523633720452,-5963776,101,-56,-1,-1,0
1523633720452,-4718592,101,-56,-1,-1,0
1523633720493,-3342336,101,-56,-1,-1,0
1523633720493,-2359296,101,-56,-1,-1,0
1523633720493,-1900544,101,-56,-1,-1,0
1523633720493,-1638400,101,-56,-1,-1,0
1523633720493,-1441792,101,-56,-1,-1,0
1523633720532,-1245184,101,-56,-1,-1,0
1523633720532,-1048576,101,-56,-1,-1,0
1523633720532,-851968,101,-56,-1,-1,0
1523633720532,-655360,101,-56,-1,-1,0
1523633720532,-327680,101,-56,-1,-1,0
1523633720572,0,101,-56,-1,-1,0
1523633720572,458752,101,-56,-1,-1,0
1523633720572,983040,101,-56,-1,-1,0
1523633720572,1638400,101,-56,-1,-1,0
1523633720572,2424832,101,-56,-1,-1,0
1523633720612,3342336,101,-56,-1,-1,0
1523633720612,4259840,101,-56,-1,-1,0
1523633720612,4980736,101,-56,-1,-1,0
1523633720612,5308416,101,-56,-1,-1,0
1523633720612,5308416,101,-56,-1,-1,0
1523633720652,4980736,101,-56,-1,-1,0
1523633720652,4456448,101,-56,-1,-1,0
1523633720652,3670016,101,-56,-1,-1,0
1523633720652,2752512,101,-56,-1,-1,0
1523633720652,1900544,101,-56,-1,-1,0
1523633720692,1114112,101,-56,-1,-1,0
1523633720692,524288,101,-56,-1,-1,0
1523633720692,65536,101,-56,-1,-1,0
1523633720692,-262144,101,-56,-1,-1,0
1523633720692,-655360,101,-56,-1,-1,0
1523633720732,-851968,101,-56,-1,-1,0
1523633720732,-917504,101,-56,-1,-1,0
1523633720732,-851968,101,-56,-1,-1,0
1523633720732,-851968,101,-56,-1,-1,0
1523633720732,-786432,101,-56,-1,-1,0
1523633720772,-786432,101,-56,-1,-1,0
1523633720772,-720896,101,-56,-1,-1,0
1523633720772,-655360,101,-56,-1,-1,0
1523633720772,-655360,101,-56,-1,-1,0
1523633720772,-589824,101,-56,-1,-1,0
1523633720812,-589824,101,-56,-1,-1,0
1523633720812,-655360,101,-56,-1,-1,0
1523633720812,-720896,101,-56,-1,-1,0
1523633720812,-786432,101,-56,-1,-1,0
1523633720812,-851968,101,-56,-1,-1,0
1523633720852,-917504,101,-56,-1,-1,0
1523633720852,-1048576,101,-56,-1,-1,0
1523633720852,-1179648,101,-56,-1,-1,0
1523633720852,-1245184,101,-56,-1,-1,0
1523633720852,-1310720,101,-56,-1,-1,0
1523633720892,-1245184,101,-56,-1,-1,0
1523633720892,-1245184,101,-56,-1,-1,0
1523633720892,-1245184,101,-56,-1,-1,0
1523633720892,-1310720,101,-56,-1,-1,0
1523633720892,-1310720,101,-56,-1,-1,0
1523633720932,-1376256,101,-56,-1,-1,0
1523633720932,-1376256,101,-56,-1,-1,0
1523633720932,-1441792,101,-56,-1,-1,0
1523633720932,-1441792,101,-56,-1,-1,0
1523633720932,-1376256,101,-56,-1,-1,0
1523633720972,-1310720,101,-56,-1,-1,0
1523633720972,-1245184,101,-56,-1,-1,0
1523633720972,-1179648,101,-56,-1,-1,0
1523633720972,-1245184,101,-56,-1,-1,0
1523633720972,-1441792,101,-56,-1,-1,0
1523633721012,-1572864,101,-56,-1,-1,0
1523633721012,-1572864,101,-56,-1,-1,0
1523633721012,-1441792,101,-56,-1,-1,0
1523633721012,-1441792,101,-56,-1,-1,0
1523633721012,-1507328,101,-56,-1,-1,0
1523633721052,-1441792,101,-56,-1,-1,0
1523633721052,-1376256,101,-56,-1,-1,0
1523633721052,-1310720,101,-56,-1,-1,0
1523633721052,-1376256,101,-56,-1,-1,0
1523633721052,-1507328,101,-56,-1,-1,0
1523633721092,-1507328,101,-56,-1,-1,0
1523633721092,-131072,101,-56,-1,-1,0
1523633721092,3538944,101,-56,-1,-1,0
1523633721092,7667712,101,-56,-1,-1,0
1523633721092,7602176,101,-56,-1,-1,0
1523633721133,2031616,101,-56,-1,-1,0
1523633721133,-3866624,101,-56,-1,-1,0
1523633721133,-6488064,101,-56,-1,-1,0
1523633721133,-6094848,101,-56,-1,-1,0
1523633721133,-4587520,101,-56,-1,-1,0
1523633721172,-2949120,101,-56,-1,-1,0
1523633721172,-1900544,101,-56,-1,-1,0
1523633721172,-1441792,101,-56,-1,-1,0
1523633721172,-1048576,101,-56,-1,-1,0
1523633721172,-851968,101,-56,-1,-1,0
1523633721212,-720896,101,-56,-1,-1,0
1523633721212,-589824,101,-56,-1,-1,0
1523633721212,-262144,101,-56,-1,-1,0
1523633721212,-65536,101,-56,-1,-1,0
1523633721212,65536,101,-56,-1,-1,0
1523633721252,327680,101,-56,-1,-1,0
1523633721252,720896,101,-56,-1,-1,0
1523633721252,1245184,101,-56,-1,-1,0
1523633721252,1966080,101,-56,-1,-1,0
1523633721252,2686976,101,-56,-1,-1,0
1523633721292,3538944,101,-56,-1,-1,0
1523633721292,4390912,101,-56,-1,-1,0
1523633721292,4980736,101,-56,-1,-1,0
1523633721292,5177344,101,-56,-1,-1,0
1523633721292,5111808,101,-56,-1,-1,0
1523633721332,4718592,101,-56,-1,-1,0
1523633721332,4128768,101,-56,-1,-1,0
1523633721332,3276800,101,-56,-1,-1,0
1523633721332,2424832,101,-56,-1,-1,0
1523633721332,1572864,101,-56,-1,-1,0
1523633721372,851968,101,-56,-1,-1,0
1523633721372,131072,101,-56,-1,-1,0
1523633721372,-262144,101,-56,-1,-1,0
1523633721372,-589824,101,-56,-1,-1,0
1523633721372,-786432,101,-56,-1,-1,0
1523633721412,-917504,101,-56,-1,-1,0
1523633721412,-983040,101,-56,-1,-1,0
1523633721412,-1048576,101,-56,-1,-1,0
1523633721412,-1048576,101,-56,-1,-1,0
1523633721412,-851968,101,-56,-1,-1,0
1523633721452,-720896,101,-56,-1,-1,0
