milliseconds, ECG, ECG HR, PPG, PPG HR, SpO2, PI
0,-458752,77,-56,-1,-1,0
33,262144,77,-56,-1,-1,0
66,1245184,77,-56,-1,-1,0
100,1310720,77,-56,-1,-1,0
133,262144,77,-56,-1,-1,0
166,0,77,-56,-1,-1,0
200,0,77,-56,-1,-1,0
233,-327680,77,-56,-1,-1,0
266,-327680,77,-56,-1,-1,0
300,-458752,77,-56,-1,-1,0
333,-524288,77,-56,-1,-1,0
366,-524288,77,-56,-1,-1,0
400,-655360,77,-56,-1,-1,0
433,-720896,77,-56,-1,-1,0
466,-458752,77,-56,-1,-1,0
500,-720896,77,-56,-1,-1,0
533,-983040,77,-56,-1,-1,0
566,8126464,77,-56,-1,-1,0
600,-1310720,77,-56,-1,-1,0
633,-720896,77,-56,-1,-1,0
666,-589824,77,-56,-1,-1,0
700,-65536,77,-56,-1,-1,0
733,589824,77,-56,-1,-1,0
766,1376256,77,-56,-1,-1,0
800,1310720,77,-56,-1,-1,0
833,196608,77,-56,-1,-1,0
866,0,77,-56,-1,-1,0
900,-196608,77,-56,-1,-1,0
933,-327680,77,-56,-1,-1,0
966,-524288,77,-56,-1,-1,0
1000,-589824,77,-56,-1,-1,0
1033,-786432,77,-56,-1,-1,0
1066,-589824,77,-56,-1,-1,0
1100,-524288,77,-56,-1,-1,0
1133,-655360,77,-56,-1,-1,0
1166,-458752,77,-56,-1,-1,0
1200,-393216,77,-56,-1,-1,0
1233,-458752,77,-56,-1,-1,0
1266,6160384,77,-56,-1,-1,0
1300,-720896,77,-56,-1,-1,0
1333,-589824,76,-56,-1,-1,0
1366,-393216,76,-56,-1,-1,0
1400,-65536,76,-56,-1,-1,0
1433,720896,76,-56,-1,-1,0
1466,1441792,76,-56,-1,-1,0
1500,983040,76,-56,-1,-1,0
1533,0,76,-56,-1,-1,0
1566,-131072,76,-56,-1,-1,0
1600,-262144,76,-56,-1,-1,0
1633,-393216,76,-56,-1,-1,0
1666,-655360,76,-56,-1,-1,0
1700,-655360,76,-56,-1,-1,0
1733,-720896,76,-56,-1,-1,0
1766,-786432,76,-56,-1,-1,0
1800,-851968,76,-56,-1,-1,0
1833,-589824,76,-56,-1,-1,0
1866,-851968,76,-56,-1,-1,0
1900,-983040,76,-56,-1,-1,0
1933,9175040,76,-56,-1,-1,0
1966,-1769472,76,-56,-1,-1,0
2000,-851968,75,-56,-1,-1,0
2033,-917504,75,-56,-1,-1,0
2066,-393216,75,-56,-1,-1,0
2100,262144,75,-56,-1,-1,0
2133,1114112,75,-56,-1,-1,0
2166,1245184,75,-56,-1,-1,0
2200,131072,75,-56,-1,-1,0
2233,-131072,75,-56,-1,-1,0
2266,-65536,75,-56,-1,-1,0
2300,-262144,75,-56,-1,-1,0
2333,-196608,75,-56,-1,-1,0
2366,-196608,75,-56,-1,-1,0
2400,-393216,75,-56,-1,-1,0
2433,-393216,75,-56,-1,-1,0
2466,-524288,75,-56,-1,-1,0
2500,-196608,75,-56,-1,-1,0
2533,-524288,75,-56,-1,-1,0
2566,-458752,75,-56,-1,-1,0
2600,983040,75,-56,-1,-1,0
2633,917504,75,-56,-1,-1,0
2666,-786432,75,-56,-1,-1,0
2700,-786432,75,-56,-1,-1,0
2733,-589824,75,-56,-1,-1,0
2766,-65536,75,-56,-1,-1,0
2800,720896,75,-56,-1,-1,0
2833,1048576,75,-56,-1,-1,0
2866,524288,75,-56,-1,-1,0
2900,-196608,75,-56,-1,-1,0
2933,-393216,75,-56,-1,-1,0
2966,-458752,75,-56,-1,-1,0
3000,-720896,75,-56,-1,-1,0
3033,-851968,75,-56,-1,-1,0
3066,-1048576,75,-56,-1,-1,0
3100,-1048576,75,-56,-1,-1,0
3133,-1179648,75,-56,-1,-1,0
3166,-1114112,75,-56,-1,-1,0
3200,-786432,75,-56,-1,-1,0
3233,-851968,75,-56,-1,-1,0
3266,-983040,75,-56,-1,-1,0
3300,7143424,75,-56,-1,-1,0
3333,-1048576,74,-56,-1,-1,0
3366,-720896,74,-56,-1,-1,0
3400,-458752,74,-56,-1,-1,0
3433,65536,74,-56,-1,-1,0
3466,983040,74,-56,-1,-1,0
3500,1638400,74,-56,-1,-1,0
3533,1769472,74,-56,-1,-1,0
3566,655360,74,-56,-1,-1,0
3600,393216,74,-56,-1,-1,0
3633,524288,74,-56,-1,-1,0
3666,327680,74,-56,-1,-1,0
3699,0,74,-56,-1,-1,0
3733,0,74,-56,-1,-1,0
3766,-196608,74,-56,-1,-1,0
3800,-131072,74,-56,-1,-1,0
3833,0,74,-56,-1,-1,0
3866,0,74,-56,-1,-1,0
3900,0,74,-56,-1,-1,0
3933,917504,74,-56,-1,-1,0
3966,2490368,74,-56,-1,-1,0
4000,-589824,74,-56,-1,-1,0
4033,-327680,74,-56,-1,-1,0
4066,-458752,74,-56,-1,-1,0
4100,131072,74,-56,-1,-1,0
4133,1048576,74,-56,-1,-1,0
4166,1310720,74,-56,-1,-1,0
4200,851968,74,-56,-1,-1,0
4233,0,74,-56,-1,-1,0
4266,-65536,74,-56,-1,-1,0
4300,-327680,74,-56,-1,-1,0
4333,-262144,74,-56,-1,-1,0
4366,-917504,74,-56,-1,-1,0
4400,-393216,74,-56,-1,-1,0
4433,-589824,74,-56,-1,-1,0
4466,-851968,74,-56,-1,-1,0
4500,-458752,74,-56,-1,-1,0
4533,-786432,74,-56,-1,-1,0
4566,-786432,74,-56,-1,-1,0
4600,6488064,74,-56,-1,-1,0
4633,-2162688,74,-56,-1,-1,0
4666,-1048576,74,-56,-1,-1,0
4700,-1114112,74,-56,-1,-1,0
4733,-786432,74,-56,-1,-1,0
4766,-65536,74,-56,-1,-1,0
4800,917504,74,-56,-1,-1,0
4833,917504,74,-56,-1,-1,0
4866,0,74,-56,-1,-1,0
4900,-327680,74,-56,-1,-1,0
4933,-458752,74,-56,-1,-1,0
4966,-393216,74,-56,-1,-1,0
5000,-786432,74,-56,-1,-1,0
5033,-720896,74,-56,-1,-1,0
5066,-851968,74,-56,-1,-1,0
5100,-786432,74,-56,-1,-1,0
5133,-917504,74,-56,-1,-1,0
5166,-655360,74,-56,-1,-1,0
5200,-983040,74,-56,-1,-1,0
5233,-655360,74,-56,-1,-1,0
5266,3866624,74,-56,-1,-1,0
5300,-1114112,74,-56,-1,-1,0
5333,-1114112,74,-56,-1,-1,0
5366,-983040,74,-56,-1,-1,0
5400,-393216,74,-56,-1,-1,0
5433,131072,74,-56,-1,-1,0
5466,786432,74,-56,-1,-1,0
5500,917504,74,-56,-1,-1,0
5533,-131072,74,-56,-1,-1,0
5566,-393216,74,-56,-1,-1,0
5600,-262144,74,-56,-1,-1,0
5633,-458752,74,-56,-1,-1,0
5666,-655360,74,-56,-1,-1,0
5700,-589824,74,-56,-1,-1,0
5733,-458752,74,-56,-1,-1,0
5766,-589824,74,-56,-1,-1,0
5800,-131072,74,-56,-1,-1,0
5833,-524288,74,-56,-1,-1,0
5866,-720896,74,-56,-1,-1,0
5900,2686976,74,-56,-1,-1,0
5933,-655360,74,-56,-1,-1,0
5966,-786432,74,-56,-1,-1,0
6000,-786432,74,-56,-1,-1,0
6033,-589824,74,-56,-1,-1,0
6066,0,74,-56,-1,-1,0
6100,786432,74,-56,-1,-1,0
6133,1114112,74,-56,-1,-1,0
6166,524288,74,-56,-1,-1,0
6200,-196608,74,-56,-1,-1,0
6233,-327680,74,-56,-1,-1,0
6266,-327680,74,-56,-1,-1,0
6300,-720896,74,-56,-1,-1,0
6333,-458752,74,-56,-1,-1,0
6366,-524288,74,-56,-1,-1,0
6400,-524288,74,-56,-1,-1,0
6433,-589824,74,-56,-1,-1,0
6466,-327680,74,-56,-1,-1,0
6500,-458752,74,-56,-1,-1,0
6533,-720896,74,-56,-1,-1,0
6566,8519680,74,-56,-1,-1,0
6600,-1835008,74,-56,-1,-1,0
6633,-786432,74,-56,-1,-1,0
6666,-262144,74,-56,-1,-1,0
6700,-327680,74,-56,-1,-1,0
6733,262144,74,-56,-1,-1,0
6766,1179648,74,-56,-1,-1,0
6800,1114112,74,-56,-1,-1,0
6833,262144,74,-56,-1,-1,0
6866,-196608,74,-56,-1,-1,0
6899,-131072,74,-56,-1,-1,0
6933,-327680,74,-56,-1,-1,0
6966,-458752,74,-56,-1,-1,0
7000,-458752,74,-56,-1,-1,0
7033,-589824,74,-56,-1,-1,0
7066,-786432,74,-56,-1,-1,0
7100,-327680,74,-56,-1,-1,0
7133,-262144,74,-56,-1,-1,0
7166,-524288,74,-56,-1,-1,0
7200,9961472,74,-56,-1,-1,0
7233,-1048576,74,-56,-1,-1,0
7266,-327680,74,-56,-1,-1,0
7300,-524288,74,-56,-1,-1,0
7333,-262144,74,-56,-1,-1,0
7366,458752,74,-56,-1,-1,0
7399,1245184,74,-56,-1,-1,0
7433,1310720,74,-56,-1,-1,0
7466,65536,74,-56,-1,-1,0
7500,-262144,74,-56,-1,-1,0
7533,-131072,74,-56,-1,-1,0
7566,-196608,74,-56,-1,-1,0
7600,-393216,74,-56,-1,-1,0
7633,-393216,74,-56,-1,-1,0
7666,-589824,74,-56,-1,-1,0
7700,-851968,74,-56,-1,-1,0
7733,-393216,74,-56,-1,-1,0
7766,-524288,74,-56,-1,-1,0
7800,-851968,74,-56,-1,-1,0
7833,7602176,75,-56,-1,-1,0
7866,-1245184,75,-56,-1,-1,0
7899,-720896,75,-56,-1,-1,0
7933,-524288,75,-56,-1,-1,0
7966,-458752,75,-56,-1,-1,0
8000,327680,75,-56,-1,-1,0
8033,1179648,75,-56,-1,-1,0
8066,786432,75,-56,-1,-1,0
8100,-262144,75,-56,-1,-1,0
8133,-131072,75,-56,-1,-1,0
8166,-327680,75,-56,-1,-1,0
8200,-262144,75,-56,-1,-1,0
8233,-458752,75,-56,-1,-1,0
8266,-589824,75,-56,-1,-1,0
8300,-917504,75,-56,-1,-1,0
8333,-786432,75,-56,-1,-1,0
8366,-327680,75,-56,-1,-1,0
8400,-589824,75,-56,-1,-1,0
8433,-786432,75,-56,-1,-1,0
8466,6815744,75,-56,-1,-1,0
8500,-1048576,75,-56,-1,-1,0
8533,-786432,75,-56,-1,-1,0
8566,-786432,75,-56,-1,-1,0
8600,-262144,75,-56,-1,-1,0
8633,262144,75,-56,-1,-1,0
8666,917504,75,-56,-1,-1,0
8700,655360,75,-56,-1,-1,0
8733,0,75,-56,-1,-1,0
8766,-65536,75,-56,-1,-1,0
8800,-327680,75,-56,-1,-1,0
8833,-393216,75,-56,-1,-1,0
8866,-589824,75,-56,-1,-1,0
8900,-589824,75,-56,-1,-1,0
8933,-720896,75,-56,-1,-1,0
8966,-786432,75,-56,-1,-1,0
9000,-262144,75,-56,-1,-1,0
9033,-262144,75,-56,-1,-1,0
9066,-655360,75,-56,-1,-1,0
9100,8192000,75,-56,-1,-1,0
9133,-1376256,76,-56,-1,-1,0
9166,-655360,76,-56,-1,-1,0
9200,-720896,76,-56,-1,-1,0
9233,-393216,76,-56,-1,-1,0
9266,196608,76,-56,-1,-1,0
9300,917504,76,-56,-1,-1,0
9333,1048576,76,-56,-1,-1,0
9366,65536,76,-56,-1,-1,0
9400,-131072,76,-56,-1,-1,0
9433,-327680,76,-56,-1,-1,0
9466,-524288,76,-56,-1,-1,0
9500,-589824,76,-56,-1,-1,0
9533,-720896,76,-56,-1,-1,0
9566,-655360,76,-56,-1,-1,0
9600,-720896,76,-56,-1,-1,0
9633,-327680,76,-56,-1,-1,0
9666,-524288,76,-56,-1,-1,0
9700,-589824,76,-56,-1,-1,0
9733,1638400,76,-56,-1,-1,0
9766,-1179648,76,-56,-1,-1,0
9800,-1048576,76,-56,-1,-1,0
9833,-786432,76,-56,-1,-1,0
9866,-655360,76,-56,-1,-1,0
9900,-65536,76,-56,-1,-1,0
9933,589824,76,-56,-1,-1,0
9966,851968,76,-56,-1,-1,0
10000,524288,76,-56,-1,-1,0
10033,-196608,76,-56,-1,-1,0
10066,-196608,76,-56,-1,-1,0
10100,-458752,76,-56,-1,-1,0
10133,-589824,76,-56,-1,-1,0
10166,-655360,76,-56,-1,-1,0
10200,-720896,76,-56,-1,-1,0
10233,-786432,76,-56,-1,-1,0
10266,-524288,76,-56,-1,-1,0
10300,-327680,76,-56,-1,-1,0
10333,-524288,76,-56,-1,-1,0
10366,3735552,76,-56,-1,-1,0
10400,-2097152,77,-56,-1,-1,0
10433,-393216,77,-56,-1,-1,0
10466,-262144,77,-56,-1,-1,0
10500,-65536,77,-56,-1,-1,0
10533,655360,77,-56,-1,-1,0
10566,1507328,77,-56,-1,-1,0
10600,1769472,77,-56,-1,-1,0
10633,655360,77,-56,-1,-1,0
10666,0,77,-56,-1,-1,0
10700,196608,77,-56,-1,-1,0
10733,131072,77,-56,-1,-1,0
10766,-196608,77,-56,-1,-1,0
10800,-327680,77,-56,-1,-1,0
10833,-327680,77,-56,-1,-1,0
10866,-524288,77,-56,-1,-1,0
10900,-458752,77,-56,-1,-1,0
10933,-458752,77,-56,-1,-1,0
10966,-1048576,77,-56,-1,-1,0
11000,8978432,77,-56,-1,-1,0
11033,-1441792,77,-56,-1,-1,0
11066,-786432,77,-56,-1,-1,0
11100,-589824,77,-56,-1,-1,0
11133,-262144,77,-56,-1,-1,0
11166,262144,77,-56,-1,-1,0
11200,1114112,77,-56,-1,-1,0
11233,851968,77,-56,-1,-1,0
11266,-262144,77,-56,-1,-1,0
11300,-262144,77,-56,-1,-1,0
11333,-327680,77,-56,-1,-1,0
11366,-393216,77,-56,-1,-1,0
11400,-851968,77,-56,-1,-1,0
11433,-786432,77,-56,-1,-1,0
11466,-786432,77,-56,-1,-1,0
11500,-720896,77,-56,-1,-1,0
11533,-393216,77,-56,-1,-1,0
11566,-655360,77,-56,-1,-1,0
11600,-524288,77,-56,-1,-1,0
11633,4849664,78,-56,-1,-1,0
11666,-983040,78,-56,-1,-1,0
11700,-458752,78,-56,-1,-1,0
11733,-786432,78,-56,-1,-1,0
11766,-262144,78,-56,-1,-1,0
11800,524288,78,-56,-1,-1,0
11833,917504,78,-56,-1,-1,0
11866,589824,78,-56,-1,-1,0
11900,-196608,78,-56,-1,-1,0
11933,-262144,78,-56,-1,-1,0
11966,-458752,78,-56,-1,-1,0
12000,-524288,78,-56,-1,-1,0
12033,-655360,78,-56,-1,-1,0
12066,-786432,78,-56,-1,-1,0
12100,-786432,78,-56,-1,-1,0
12133,-458752,78,-56,-1,-1,0
12166,-327680,78,-56,-1,-1,0
12200,-655360,78,-56,-1,-1,0
12233,-262144,78,-56,-1,-1,0
12266,3866624,78,-56,-1,-1,0
12300,-720896,78,-56,-1,-1,0
12333,-524288,78,-56,-1,-1,0
12366,-393216,78,-56,-1,-1,0
12400,0,78,-56,-1,-1,0
12433,851968,78,-56,-1,-1,0
12466,1310720,78,-56,-1,-1,0
12500,720896,78,-56,-1,-1,0
12533,-65536,78,-56,-1,-1,0
12566,-458752,78,-56,-1,-1,0
12600,-131072,78,-56,-1,-1,0
12633,-589824,78,-56,-1,-1,0
12666,-786432,78,-56,-1,-1,0
12700,-851968,78,-56,-1,-1,0
12733,-917504,78,-56,-1,-1,0
12766,-917504,78,-56,-1,-1,0
12800,-589824,78,-56,-1,-1,0
12833,-851968,78,-56,-1,-1,0
12866,2555904,78,-56,-1,-1,0
12900,-1179648,78,-56,-1,-1,0
12933,-851968,78,-56,-1,-1,0
12966,-655360,78,-56,-1,-1,0
13000,-262144,78,-56,-1,-1,0
13033,262144,78,-56,-1,-1,0
13066,1179648,78,-56,-1,-1,0
13100,1245184,78,-56,-1,-1,0
13133,393216,78,-56,-1,-1,0
13166,-196608,78,-56,-1,-1,0
13200,-196608,78,-56,-1,-1,0
13233,-196608,78,-56,-1,-1,0
13266,-458752,78,-56,-1,-1,0
13299,-524288,78,-56,-1,-1,0
13333,-524288,78,-56,-1,-1,0
13366,-786432,78,-56,-1,-1,0
13400,-327680,78,-56,-1,-1,0
13433,-524288,78,-56,-1,-1,0
13466,-524288,78,-56,-1,-1,0
13500,1769472,78,-56,-1,-1,0
13533,-327680,78,-56,-1,-1,0
13566,-720896,79,-56,-1,-1,0
13600,-524288,79,-56,-1,-1,0
13633,-262144,79,-56,-1,-1,0
13666,0,79,-56,-1,-1,0
13700,851968,79,-56,-1,-1,0
13733,1179648,79,-56,-1,-1,0
13766,327680,79,-56,-1,-1,0
13799,-262144,79,-56,-1,-1,0
13833,-327680,79,-56,-1,-1,0
13866,-458752,79,-56,-1,-1,0
13900,-655360,79,-56,-1,-1,0
13933,-655360,79,-56,-1,-1,0
13966,-786432,79,-56,-1,-1,0
14000,-786432,79,-56,-1,-1,0
14033,-983040,79,-56,-1,-1,0
14066,-458752,79,-56,-1,-1,0
14100,-589824,79,-56,-1,-1,0
14133,-393216,79,-56,-1,-1,0
14166,9175040,79,-56,-1,-1,0
14200,-1245184,79,-56,-1,-1,0
14233,-589824,79,-56,-1,-1,0
14266,-524288,79,-56,-1,-1,0
14299,0,79,-56,-1,-1,0
14333,655360,79,-56,-1,-1,0
14366,1179648,79,-56,-1,-1,0
14400,1114112,79,-56,-1,-1,0
14433,262144,79,-56,-1,-1,0
14466,0,79,-56,-1,-1,0
14500,0,79,-56,-1,-1,0
14533,0,79,-56,-1,-1,0
14566,0,79,-56,-1,-1,0
14600,-196608,79,-56,-1,-1,0
14633,-262144,79,-56,-1,-1,0
14666,-458752,79,-56,-1,-1,0
14700,-131072,79,-56,-1,-1,0
14733,-524288,79,-56,-1,-1,0
14766,-720896,79,-56,-1,-1,0
14799,6488064,79,-56,-1,-1,0
14833,-2228224,79,-56,-1,-1,0
14866,-851968,79,-56,-1,-1,0
14900,-983040,79,-56,-1,-1,0
14933,-589824,79,-56,-1,-1,0
14966,131072,79,-56,-1,-1,0
15000,851968,79,-56,-1,-1,0
15033,983040,79,-56,-1,-1,0
15066,-65536,79,-56,-1,-1,0
15100,-393216,79,-56,-1,-1,0
15133,-327680,79,-56,-1,-1,0
15166,-589824,79,-56,-1,-1,0
15200,-589824,79,-56,-1,-1,0
15233,-786432,79,-56,-1,-1,0
15266,-655360,79,-56,-1,-1,0
15299,-720896,79,-56,-1,-1,0
15333,-786432,79,-56,-1,-1,0
15366,-458752,79,-56,-1,-1,0
15400,-524288,79,-56,-1,-1,0
15433,-720896,79,-56,-1,-1,0
15466,6291456,79,-56,-1,-1,0
15500,-1966080,79,-56,-1,-1,0
15533,-786432,78,-56,-1,-1,0
15566,-786432,78,-56,-1,-1,0
15600,-393216,78,-56,-1,-1,0
15633,0,78,-56,-1,-1,0
15666,851968,78,-56,-1,-1,0
15700,1048576,78,-56,-1,-1,0
15733,0,78,-56,-1,-1,0
15766,-327680,78,-56,-1,-1,0
15799,-458752,78,-56,-1,-1,0
15833,-524288,78,-56,-1,-1,0
15866,-655360,78,-56,-1,-1,0
15900,-655360,78,-56,-1,-1,0
15933,-720896,78,-56,-1,-1,0
15966,-655360,78,-56,-1,-1,0
16000,-393216,78,-56,-1,-1,0
16033,-327680,78,-56,-1,-1,0
16066,-131072,78,-56,-1,-1,0
16100,-327680,78,-56,-1,-1,0
16133,327680,78,-56,-1,-1,0
16166,3080192,78,-56,-1,-1,0
16200,-393216,78,-56,-1,-1,0
16233,-327680,78,-56,-1,-1,0
16266,0,78,-56,-1,-1,0
16300,196608,78,-56,-1,-1,0
16333,1048576,78,-56,-1,-1,0
16366,1703936,78,-56,-1,-1,0
16400,851968,78,-56,-1,-1,0
16433,196608,78,-56,-1,-1,0
16466,131072,78,-56,-1,-1,0
16500,131072,78,-56,-1,-1,0
16533,0,78,-56,-1,-1,0
16566,0,78,-56,-1,-1,0
16600,-131072,78,-56,-1,-1,0
16633,-196608,78,-56,-1,-1,0
16666,-524288,78,-56,-1,-1,0
16700,-262144,78,-56,-1,-1,0
16733,-131072,78,-56,-1,-1,0
16766,-458752,78,-56,-1,-1,0
16800,-524288,78,-56,-1,-1,0
16833,5242880,78,-56,-1,-1,0
16866,-983040,78,-56,-1,-1,0
16900,-655360,78,-56,-1,-1,0
16933,-786432,78,-56,-1,-1,0
16966,-196608,78,-56,-1,-1,0
17000,196608,78,-56,-1,-1,0
17033,786432,78,-56,-1,-1,0
17066,262144,78,-56,-1,-1,0
17100,-393216,78,-56,-1,-1,0
17133,-589824,78,-56,-1,-1,0
17166,-589824,78,-56,-1,-1,0
17200,-720896,78,-56,-1,-1,0
17233,-786432,78,-56,-1,-1,0
17266,-983040,78,-56,-1,-1,0
17300,-851968,78,-56,-1,-1,0
17333,-917504,78,-56,-1,-1,0
17366,-786432,78,-56,-1,-1,0
17400,-655360,78,-56,-1,-1,0
17433,-983040,78,-56,-1,-1,0
17466,-983040,78,-56,-1,-1,0
17500,5636096,78,-56,-1,-1,0
17533,-983040,77,-56,-1,-1,0
17566,-655360,77,-56,-1,-1,0
17600,-524288,77,-56,-1,-1,0
17633,0,77,-56,-1,-1,0
17666,917504,77,-56,-1,-1,0
17700,1572864,77,-56,-1,-1,0
17733,1179648,77,-56,-1,-1,0
17766,393216,77,-56,-1,-1,0
17800,393216,77,-56,-1,-1,0
17833,262144,77,-56,-1,-1,0
17866,65536,77,-56,-1,-1,0
17900,-131072,77,-56,-1,-1,0
17933,-196608,77,-56,-1,-1,0
17966,-393216,77,-56,-1,-1,0
18000,-524288,77,-56,-1,-1,0
18033,0,77,-56,-1,-1,0
18066,-327680,77,-56,-1,-1,0
18100,-524288,77,-56,-1,-1,0
18133,4718592,77,-56,-1,-1,0
18166,-1900544,77,-56,-1,-1,0
18200,-720896,77,-56,-1,-1,0
18233,-589824,77,-56,-1,-1,0
18266,-393216,77,-56,-1,-1,0
18300,65536,77,-56,-1,-1,0
18333,983040,77,-56,-1,-1,0
18366,1179648,77,-56,-1,-1,0
18400,0,77,-56,-1,-1,0
18433,-524288,77,-56,-1,-1,0
18466,-589824,77,-56,-1,-1,0
18500,-655360,77,-56,-1,-1,0
18533,-851968,77,-56,-1,-1,0
18566,-720896,77,-56,-1,-1,0
18600,-1179648,77,-56,-1,-1,0
18633,-983040,77,-56,-1,-1,0
18666,-983040,77,-56,-1,-1,0
18700,-851968,77,-56,-1,-1,0
18733,-1048576,77,-56,-1,-1,0
18766,-655360,77,-56,-1,-1,0
18800,3211264,77,-56,-1,-1,0
18833,-851968,76,-56,-1,-1,0
18866,-1245184,76,-56,-1,-1,0
18900,-1048576,76,-56,-1,-1,0
18933,-196608,76,-56,-1,-1,0
18966,524288,76,-56,-1,-1,0
19000,917504,76,-56,-1,-1,0
19033,589824,76,-56,-1,-1,0
19066,-131072,76,-56,-1,-1,0
19100,-262144,76,-56,-1,-1,0
19133,-65536,76,-56,-1,-1,0
19166,-65536,76,-56,-1,-1,0
19200,-65536,76,-56,-1,-1,0
19233,-196608,76,-56,-1,-1,0
19266,-65536,76,-56,-1,-1,0
19300,-327680,76,-56,-1,-1,0
19333,-65536,76,-56,-1,-1,0
19366,-327680,76,-56,-1,-1,0
19400,-524288,76,-56,-1,-1,0
19433,8912896,76,-56,-1,-1,0
19466,-917504,76,-56,-1,-1,0
19500,-393216,76,-56,-1,-1,0
19533,-131072,76,-56,-1,-1,0
19566,131072,76,-56,-1,-1,0
19600,917504,76,-56,-1,-1,0
19633,1441792,76,-56,-1,-1,0
19666,1245184,76,-56,-1,-1,0
19700,65536,76,-56,-1,-1,0
19733,-196608,76,-56,-1,-1,0
19766,-196608,76,-56,-1,-1,0
19800,-524288,76,-56,-1,-1,0
19833,-589824,76,-56,-1,-1,0
19866,-589824,76,-56,-1,-1,0
19900,-851968,76,-56,-1,-1,0
19933,-1245184,76,-56,-1,-1,0
19966,-720896,76,-56,-1,-1,0
20000,-917504,76,-56,-1,-1,0
20033,-1048576,76,-56,-1,-1,0
20066,8912896,76,-56,-1,-1,0
20100,-1376256,76,-56,-1,-1,0
20133,-983040,76,-56,-1,-1,0
20166,-983040,76,-56,-1,-1,0
20200,-524288,76,-56,-1,-1,0
20233,262144,76,-56,-1,-1,0
20266,917504,76,-56,-1,-1,0
20300,720896,76,-56,-1,-1,0
20333,-65536,76,-56,-1,-1,0
20366,-196608,76,-56,-1,-1,0
20400,-131072,76,-56,-1,-1,0
20433,-131072,76,-56,-1,-1,0
20466,-65536,76,-56,-1,-1,0
20500,-327680,76,-56,-1,-1,0
20533,-196608,76,-56,-1,-1,0
20566,-262144,76,-56,-1,-1,0
20600,0,76,-56,-1,-1,0
20633,-327680,76,-56,-1,-1,0
20666,-589824,76,-56,-1,-1,0
20700,8060928,76,-56,-1,-1,0
20733,-851968,76,-56,-1,-1,0
20766,-458752,76,-56,-1,-1,0
20800,-196608,76,-56,-1,-1,0
20833,0,76,-56,-1,-1,0
20866,589824,76,-56,-1,-1,0
20900,1310720,76,-56,-1,-1,0
20933,1179648,76,-56,-1,-1,0
20966,262144,76,-56,-1,-1,0
21000,65536,76,-56,-1,-1,0
21033,0,76,-56,-1,-1,0
21066,-262144,76,-56,-1,-1,0
21100,-655360,76,-56,-1,-1,0
21133,-524288,76,-56,-1,-1,0
21166,-720896,76,-56,-1,-1,0
21200,-851968,76,-56,-1,-1,0
21233,-786432,76,-56,-1,-1,0
21266,-1245184,76,-56,-1,-1,0
21300,-1376256,76,-56,-1,-1,0
21333,6160384,76,-56,-1,-1,0
21366,-1441792,76,-56,-1,-1,0
21400,-1376256,76,-56,-1,-1,0
21433,-917504,76,-56,-1,-1,0
21466,-524288,76,-56,-1,-1,0
21500,524288,76,-56,-1,-1,0
21533,786432,76,-56,-1,-1,0
21566,458752,76,-56,-1,-1,0
21600,-327680,76,-56,-1,-1,0
21633,-327680,76,-56,-1,-1,0
21666,-262144,76,-56,-1,-1,0
21700,-327680,76,-56,-1,-1,0
21733,-196608,76,-56,-1,-1,0
21766,-131072,76,-56,-1,-1,0
21800,-262144,76,-56,-1,-1,0
21833,0,76,-56,-1,-1,0
21866,-327680,76,-56,-1,-1,0
21900,-393216,76,-56,-1,-1,0
21933,6029312,77,-56,-1,-1,0
21966,-2097152,77,-56,-1,-1,0
22000,-655360,77,-56,-1,-1,0
22033,-524288,77,-56,-1,-1,0
22066,-196608,77,-56,-1,-1,0
22100,327680,77,-56,-1,-1,0
22133,1179648,77,-56,-1,-1,0
22166,1179648,77,-56,-1,-1,0
22200,65536,77,-56,-1,-1,0
22233,-65536,77,-56,-1,-1,0
22266,-327680,77,-56,-1,-1,0
22300,-458752,77,-56,-1,-1,0
22333,-655360,77,-56,-1,-1,0
22366,-524288,77,-56,-1,-1,0
22400,-983040,77,-56,-1,-1,0
22433,-786432,77,-56,-1,-1,0
22466,-917504,77,-56,-1,-1,0
22500,-917504,77,-56,-1,-1,0
22533,-393216,77,-56,-1,-1,0
22566,3407872,77,-56,-1,-1,0
22600,-1507328,77,-56,-1,-1,0
22633,-1179648,77,-56,-1,-1,0
22666,-917504,77,-56,-1,-1,0
22700,-524288,77,-56,-1,-1,0
22733,327680,77,-56,-1,-1,0
22766,983040,77,-56,-1,-1,0
22800,524288,77,-56,-1,-1,0
22833,65536,77,-56,-1,-1,0
22866,131072,77,-56,-1,-1,0
22900,65536,77,-56,-1,-1,0
22933,0,77,-56,-1,-1,0
22966,-65536,77,-56,-1,-1,0
23000,-327680,77,-56,-1,-1,0
23033,-655360,77,-56,-1,-1,0
23066,-262144,77,-56,-1,-1,0
23100,-458752,77,-56,-1,-1,0
23133,-393216,77,-56,-1,-1,0
23166,8126464,78,-56,-1,-1,0
23200,-1966080,78,-56,-1,-1,0
23233,-655360,78,-56,-1,-1,0
23266,-458752,78,-56,-1,-1,0
23300,-393216,78,-56,-1,-1,0
23333,720896,78,-56,-1,-1,0
23366,983040,78,-56,-1,-1,0
23400,1245184,78,-56,-1,-1,0
23433,196608,78,-56,-1,-1,0
23466,-65536,78,-56,-1,-1,0
23500,-458752,78,-56,-1,-1,0
23533,-851968,78,-56,-1,-1,0
23566,-983040,78,-56,-1,-1,0
23600,-983040,78,-56,-1,-1,0
23633,-983040,78,-56,-1,-1,0
23666,-917504,78,-56,-1,-1,0
23700,-983040,78,-56,-1,-1,0
23733,-851968,78,-56,-1,-1,0
23766,589824,78,-56,-1,-1,0
23800,589824,78,-56,-1,-1,0
23833,-851968,78,-56,-1,-1,0
23866,-655360,78,-56,-1,-1,0
23900,-393216,78,-56,-1,-1,0
23933,131072,78,-56,-1,-1,0
23966,983040,78,-56,-1,-1,0
24000,1376256,78,-56,-1,-1,0
24033,851968,78,-56,-1,-1,0
24066,131072,78,-56,-1,-1,0
24100,-65536,78,-56,-1,-1,0
24133,-196608,78,-56,-1,-1,0
24166,-393216,78,-56,-1,-1,0
24200,-393216,78,-56,-1,-1,0
24233,-524288,78,-56,-1,-1,0
24266,-655360,78,-56,-1,-1,0
24300,-262144,78,-56,-1,-1,0
24333,-589824,78,-56,-1,-1,0
24366,-917504,78,-56,-1,-1,0
24400,5963776,78,-56,-1,-1,0
24433,-2097152,79,-56,-1,-1,0
24466,-917504,79,-56,-1,-1,0
24500,-786432,79,-56,-1,-1,0
24533,-524288,79,-56,-1,-1,0
24566,-131072,79,-56,-1,-1,0
24600,786432,79,-56,-1,-1,0
24633,1179648,79,-56,-1,-1,0
24666,0,79,-56,-1,-1,0
24700,-327680,79,-56,-1,-1,0
24733,-262144,79,-56,-1,-1,0
24766,-524288,79,-56,-1,-1,0
24800,-655360,79,-56,-1,-1,0
24833,-720896,79,-56,-1,-1,0
24866,-786432,79,-56,-1,-1,0
24900,-851968,79,-56,-1,-1,0
24933,-393216,79,-56,-1,-1,0
24966,-589824,79,-56,-1,-1,0
25000,-655360,79,-56,-1,-1,0
25033,9437184,79,-56,-1,-1,0
25066,-1310720,79,-56,-1,-1,0
25100,-327680,79,-56,-1,-1,0
25133,-131072,79,-56,-1,-1,0
25166,0,79,-56,-1,-1,0
25200,655360,79,-56,-1,-1,0
25233,1114112,79,-56,-1,-1,0
25266,983040,79,-56,-1,-1,0
25300,131072,79,-56,-1,-1,0
25333,-65536,79,-56,-1,-1,0
25366,-196608,79,-56,-1,-1,0
25400,-327680,79,-56,-1,-1,0
25433,-458752,79,-56,-1,-1,0
25466,-524288,79,-56,-1,-1,0
25500,-655360,79,-56,-1,-1,0
25533,-720896,79,-56,-1,-1,0
25566,-524288,79,-56,-1,-1,0
25600,-720896,79,-56,-1,-1,0
25633,-1048576,79,-56,-1,-1,0
25666,8519680,79,-56,-1,-1,0
25700,-1179648,79,-56,-1,-1,0
25733,-720896,79,-56,-1,-1,0
25766,-720896,79,-56,-1,-1,0
25800,-524288,79,-56,-1,-1,0
25833,65536,79,-56,-1,-1,0
25866,851968,79,-56,-1,-1,0
25900,655360,79,-56,-1,-1,0
25933,-393216,79,-56,-1,-1,0
25966,-458752,79,-56,-1,-1,0
26000,-655360,79,-56,-1,-1,0
26033,-983040,79,-56,-1,-1,0
26066,-983040,79,-56,-1,-1,0
26099,-983040,79,-56,-1,-1,0
26133,-851968,79,-56,-1,-1,0
26166,-983040,79,-56,-1,-1,0
26200,-458752,79,-56,-1,-1,0
26233,-524288,79,-56,-1,-1,0
26266,-458752,79,-56,-1,-1,0
26300,8978432,79,-56,-1,-1,0
26333,-1703936,79,-56,-1,-1,0
26366,-655360,79,-56,-1,-1,0
26400,-458752,79,-56,-1,-1,0
26433,-196608,79,-56,-1,-1,0
26466,524288,79,-56,-1,-1,0
26500,1310720,79,-56,-1,-1,0
26533,1179648,79,-56,-1,-1,0
26566,0,79,-56,-1,-1,0
26599,65536,79,-56,-1,-1,0
26633,-65536,79,-56,-1,-1,0
26666,131072,79,-56,-1,-1,0
26700,-131072,79,-56,-1,-1,0
26733,-458752,79,-56,-1,-1,0
26766,-458752,79,-56,-1,-1,0
26800,-524288,79,-56,-1,-1,0
26833,-327680,79,-56,-1,-1,0
26866,-720896,79,-56,-1,-1,0
26900,-917504,79,-56,-1,-1,0
26933,8781824,79,-56,-1,-1,0
26966,-1179648,79,-56,-1,-1,0
27000,-655360,79,-56,-1,-1,0
27033,-458752,79,-56,-1,-1,0
27066,-131072,79,-56,-1,-1,0
27099,786432,79,-56,-1,-1,0
27133,1179648,79,-56,-1,-1,0
27166,983040,79,-56,-1,-1,0
27200,-131072,79,-56,-1,-1,0
27233,-327680,79,-56,-1,-1,0
27266,-262144,79,-56,-1,-1,0
27300,-655360,79,-56,-1,-1,0
27333,-851968,79,-56,-1,-1,0
27366,-786432,79,-56,-1,-1,0
27400,-851968,79,-56,-1,-1,0
27433,-851968,79,-56,-1,-1,0
27466,-262144,79,-56,-1,-1,0
27500,-393216,79,-56,-1,-1,0
27533,-589824,79,-56,-1,-1,0
27566,7733248,79,-56,-1,-1,0
27599,-851968,79,-56,-1,-1,0
27633,-393216,79,-56,-1,-1,0
27666,-327680,79,-56,-1,-1,0
27700,0,79,-56,-1,-1,0
27733,983040,79,-56,-1,-1,0
27766,1572864,79,-56,-1,-1,0
27800,1179648,79,-56,-1,-1,0
27833,262144,79,-56,-1,-1,0
27866,131072,79,-56,-1,-1,0
27900,0,79,-56,-1,-1,0
27933,-196608,79,-56,-1,-1,0
27966,-131072,79,-56,-1,-1,0
28000,-327680,79,-56,-1,-1,0
28033,-393216,79,-56,-1,-1,0
28066,-458752,79,-56,-1,-1,0
28099,-196608,79,-56,-1,-1,0
28133,-458752,79,-56,-1,-1,0
28166,-262144,79,-56,-1,-1,0
28200,4325376,79,-56,-1,-1,0
28233,-917504,79,-56,-1,-1,0
28266,-1376256,79,-56,-1,-1,0
28300,-786432,79,-56,-1,-1,0
28333,-655360,79,-56,-1,-1,0
28366,196608,79,-56,-1,-1,0
28400,851968,79,-56,-1,-1,0
28433,327680,79,-56,-1,-1,0
28466,-524288,79,-56,-1,-1,0
28500,-262144,79,-56,-1,-1,0
28533,-589824,79,-56,-1,-1,0
28566,-983040,79,-56,-1,-1,0
28599,-917504,79,-56,-1,-1,0
28633,-1114112,79,-56,-1,-1,0
28666,-983040,79,-56,-1,-1,0
28700,-851968,79,-56,-1,-1,0
28733,-589824,79,-56,-1,-1,0
28766,-524288,79,-56,-1,-1,0
28800,-524288,79,-56,-1,-1,0
28833,7536640,79,-56,-1,-1,0
28866,-327680,79,-56,-1,-1,0
28900,-131072,79,-56,-1,-1,0
28933,-393216,79,-56,-1,-1,0
28966,65536,79,-56,-1,-1,0
29000,786432,79,-56,-1,-1,0
