milliseconds, ECG, ECG HR, PPG, PPG HR, SpO2, PI
1523612057905,-458752,77,-56,-1,-1,0
1523612057905,-327680,77,-56,-1,-1,0
1523612057905,-196608,77,-56,-1,-1,0
1523612057905,-65536,77,-56,-1,-1,0
1523612057905,65536,77,-56,-1,-1,0
1523612057947,262144,77,-56,-1,-1,0
1523612057947,458752,77,-56,-1,-1,0
1523612057947,720896,77,-56,-1,-1,0
1523612057947,917504,77,-56,-1,-1,0
1523612057947,1114112,77,-56,-1,-1,0
1523612057985,1245184,77,-56,-1,-1,0
1523612057985,1179648,77,-56,-1,-1,0
1523612057985,1114112,77,-56,-1,-1,0
1523612057985,1179648,77,-56,-1,-1,0
1523612057985,1310720,77,-56,-1,-1,0
1523612058025,1310720,77,-56,-1,-1,0
1523612058025,1245184,77,-56,-1,-1,0
1523612058025,1114112,77,-56,-1,-1,0
1523612058025,851968,77,-56,-1,-1,0
1523612058025,524288,77,-56,-1,-1,0
1523612058065,262144,77,-56,-1,-1,0
1523612058065,131072,77,-56,-1,-1,0
1523612058065,0,77,-56,-1,-1,0
1523612058065,0,77,-56,-1,-1,0
1523612058065,0,77,-56,-1,-1,0
1523612058105,0,77,-56,-1,-1,0
1523612058105,-65536,77,-56,-1,-1,0
1523612058105,-131072,77,-56,-1,-1,0
1523612058105,0,77,-56,-1,-1,0
1523612058105,65536,77,-56,-1,-1,0
1523612058145,0,77,-56,-1,-1,0
1523612058145,-65536,77,-56,-1,-1,0
1523612058145,-131072,77,-56,-1,-1,0
1523612058145,-262144,77,-56,-1,-1,0
1523612058145,-327680,77,-56,-1,-1,0
1523612058185,-327680,77,-56,-1,-1,0
1523612058185,-262144,77,-56,-1,-1,0
1523612058185,-327680,77,-56,-1,-1,0
1523612058185,-327680,77,-56,-1,-1,0
1523612058185,-327680,77,-56,-1,-1,0
1523612058225,-327680,77,-56,-1,-1,0
1523612058225,-393216,77,-56,-1,-1,0
1523612058225,-393216,77,-56,-1,-1,0
1523612058225,-393216,77,-56,-1,-1,0
1523612058225,-458752,77,-56,-1,-1,0
1523612058265,-458752,77,-56,-1,-1,0
1523612058265,-458752,77,-56,-1,-1,0
1523612058265,-458752,77,-56,-1,-1,0
1523612058265,-524288,77,-56,-1,-1,0
1523612058265,-524288,77,-56,-1,-1,0
1523612058305,-524288,77,-56,-1,-1,0
1523612058305,-524288,77,-56,-1,-1,0
1523612058305,-589824,77,-56,-1,-1,0
1523612058305,-524288,77,-56,-1,-1,0
1523612058305,-524288,77,-56,-1,-1,0
1523612058345,-524288,77,-56,-1,-1,0
1523612058345,-589824,77,-56,-1,-1,0
1523612058345,-655360,77,-56,-1,-1,0
1523612058345,-655360,77,-56,-1,-1,0
1523612058345,-655360,77,-56,-1,-1,0
1523612058385,-655360,77,-56,-1,-1,0
1523612058385,-589824,77,-56,-1,-1,0
1523612058385,-589824,77,-56,-1,-1,0
1523612058385,-786432,77,-56,-1,-1,0
1523612058385,-851968,77,-56,-1,-1,0
1523612058425,-720896,77,-56,-1,-1,0
1523612058425,-458752,77,-56,-1,-1,0
1523612058425,-393216,77,-56,-1,-1,0
1523612058425,-393216,77,-56,-1,-1,0
1523612058425,-393216,77,-56,-1,-1,0
1523612058465,-458752,77,-56,-1,-1,0
1523612058465,-524288,77,-56,-1,-1,0
1523612058465,-655360,77,-56,-1,-1,0
1523612058465,-720896,77,-56,-1,-1,0
1523612058465,-720896,77,-56,-1,-1,0
1523612058505,-720896,77,-56,-1,-1,0
1523612058505,-786432,77,-56,-1,-1,0
1523612058505,-720896,77,-56,-1,-1,0
1523612058505,-720896,77,-56,-1,-1,0
1523612058505,-851968,77,-56,-1,-1,0
1523612058545,-983040,77,-56,-1,-1,0
1523612058545,-589824,77,-56,-1,-1,0
1523612058545,983040,77,-56,-1,-1,0
1523612058545,4128768,77,-56,-1,-1,0
1523612058545,7274496,77,-56,-1,-1,0
1523612058586,8126464,77,-56,-1,-1,0
1523612058586,4915200,77,-56,-1,-1,0
1523612058586,393216,77,-56,-1,-1,0
1523612058586,-1900544,77,-56,-1,-1,0
1523612058586,-1900544,77,-56,-1,-1,0
1523612058625,-1310720,77,-56,-1,-1,0
1523612058625,-917504,77,-56,-1,-1,0
1523612058625,-786432,77,-56,-1,-1,0
1523612058625,-786432,77,-56,-1,-1,0
1523612058625,-720896,77,-56,-1,-1,0
1523612058665,-720896,77,-56,-1,-1,0
1523612058665,-655360,77,-56,-1,-1,0
1523612058665,-589824,77,-56,-1,-1,0
1523612058665,-589824,77,-56,-1,-1,0
1523612058665,-589824,77,-56,-1,-1,0
1523612058705,-589824,77,-56,-1,-1,0
1523612058705,-524288,77,-56,-1,-1,0
1523612058705,-458752,77,-56,-1,-1,0
1523612058705,-393216,77,-56,-1,-1,0
1523612058705,-262144,77,-56,-1,-1,0
1523612058743,-65536,77,-56,-1,-1,0
1523612058743,0,77,-56,-1,-1,0
1523612058743,131072,77,-56,-1,-1,0
1523612058743,196608,77,-56,-1,-1,0
1523612058743,393216,77,-56,-1,-1,0
1523612058784,589824,77,-56,-1,-1,0
1523612058784,720896,77,-56,-1,-1,0
1523612058784,917504,77,-56,-1,-1,0
1523612058784,1179648,77,-56,-1,-1,0
1523612058784,1245184,77,-56,-1,-1,0
1523612058825,1376256,77,-56,-1,-1,0
1523612058825,1441792,77,-56,-1,-1,0
1523612058825,1441792,77,-56,-1,-1,0
1523612058825,1441792,77,-56,-1,-1,0
1523612058825,1507328,77,-56,-1,-1,0
1523612058864,1310720,77,-56,-1,-1,0
1523612058864,1048576,77,-56,-1,-1,0
1523612058864,851968,77,-56,-1,-1,0
1523612058864,655360,77,-56,-1,-1,0
1523612058864,458752,77,-56,-1,-1,0
1523612058904,196608,77,-56,-1,-1,0
1523612058904,131072,77,-56,-1,-1,0
1523612058904,131072,77,-56,-1,-1,0
1523612058904,131072,77,-56,-1,-1,0
1523612058904,0,77,-56,-1,-1,0
1523612058944,0,77,-56,-1,-1,0
1523612058944,0,77,-56,-1,-1,0
1523612058944,0,77,-56,-1,-1,0
1523612058944,0,77,-56,-1,-1,0
1523612058944,-131072,77,-56,-1,-1,0
1523612058984,-196608,77,-56,-1,-1,0
1523612058984,-196608,77,-56,-1,-1,0
1523612058984,-196608,77,-56,-1,-1,0
1523612058984,-196608,77,-56,-1,-1,0
1523612058984,-262144,77,-56,-1,-1,0
1523612059024,-327680,77,-56,-1,-1,0
1523612059024,-327680,77,-56,-1,-1,0
1523612059024,-393216,77,-56,-1,-1,0
1523612059024,-458752,77,-56,-1,-1,0
1523612059024,-458752,77,-56,-1,-1,0
1523612059064,-524288,77,-56,-1,-1,0
1523612059064,-524288,77,-56,-1,-1,0
1523612059064,-524288,77,-56,-1,-1,0
1523612059064,-524288,77,-56,-1,-1,0
1523612059064,-589824,77,-56,-1,-1,0
1523612059104,-589824,77,-56,-1,-1,0
1523612059104,-589824,77,-56,-1,-1,0
1523612059104,-589824,77,-56,-1,-1,0
1523612059104,-655360,77,-56,-1,-1,0
1523612059104,-720896,77,-56,-1,-1,0
1523612059144,-786432,77,-56,-1,-1,0
1523612059144,-655360,77,-56,-1,-1,0
1523612059144,-655360,77,-56,-1,-1,0
1523612059144,-655360,77,-56,-1,-1,0
1523612059144,-589824,77,-56,-1,-1,0
1523612059184,-589824,77,-56,-1,-1,0
1523612059184,-524288,77,-56,-1,-1,0
1523612059184,-524288,77,-56,-1,-1,0
1523612059184,-524288,77,-56,-1,-1,0
1523612059184,-524288,77,-56,-1,-1,0
1523612059226,-524288,77,-56,-1,-1,0
1523612059226,-524288,77,-56,-1,-1,0
1523612059226,-589824,77,-56,-1,-1,0
1523612059226,-786432,77,-56,-1,-1,0
1523612059226,-851968,77,-56,-1,-1,0
1523612059264,-655360,77,-56,-1,-1,0
1523612059264,-524288,77,-56,-1,-1,0
1523612059264,-393216,77,-56,-1,-1,0
1523612059264,-393216,77,-56,-1,-1,0
1523612059264,-393216,77,-56,-1,-1,0
1523612059304,-458752,77,-56,-1,-1,0
1523612059304,-589824,77,-56,-1,-1,0
1523612059304,-655360,77,-56,-1,-1,0
1523612059304,-655360,77,-56,-1,-1,0
1523612059304,-589824,77,-56,-1,-1,0
1523612059344,-393216,77,-56,-1,-1,0
1523612059344,-262144,77,-56,-1,-1,0
1523612059344,-262144,77,-56,-1,-1,0
1523612059344,-458752,77,-56,-1,-1,0
1523612059344,-655360,77,-56,-1,-1,0
1523612059384,-458752,77,-56,-1,-1,0
1523612059384,1048576,77,-56,-1,-1,0
1523612059384,4456448,77,-56,-1,-1,0
1523612059384,8323072,77,-56,-1,-1,0
1523612059384,9699328,77,-56,-1,-1,0
1523612059424,6160384,77,-56,-1,-1,0
1523612059424,917504,77,-56,-1,-1,0
1523612059424,-1966080,77,-56,-1,-1,0
1523612059424,-1966080,77,-56,-1,-1,0
1523612059424,-1245184,77,-56,-1,-1,0
1523612059464,-720896,77,-56,-1,-1,0
1523612059464,-589824,77,-56,-1,-1,0
1523612059464,-655360,77,-56,-1,-1,0
1523612059464,-589824,77,-56,-1,-1,0
1523612059464,-589824,77,-56,-1,-1,0
1523612059504,-589824,76,-56,-1,-1,0
1523612059504,-655360,76,-56,-1,-1,0
1523612059504,-655360,76,-56,-1,-1,0
1523612059504,-655360,76,-56,-1,-1,0
1523612059504,-524288,76,-56,-1,-1,0
1523612059544,-393216,76,-56,-1,-1,0
1523612059544,-393216,76,-56,-1,-1,0
1523612059544,-327680,76,-56,-1,-1,0
1523612059544,-262144,76,-56,-1,-1,0
1523612059544,-196608,76,-56,-1,-1,0
1523612059584,-65536,76,-56,-1,-1,0
1523612059584,0,76,-56,-1,-1,0
1523612059584,131072,76,-56,-1,-1,0
1523612059584,327680,76,-56,-1,-1,0
1523612059584,524288,76,-56,-1,-1,0
1523612059624,720896,76,-56,-1,-1,0
1523612059624,983040,76,-56,-1,-1,0
1523612059624,1179648,76,-56,-1,-1,0
1523612059624,1376256,76,-56,-1,-1,0
1523612059624,1507328,76,-56,-1,-1,0
1523612059664,1441792,76,-56,-1,-1,0
1523612059664,1376256,76,-56,-1,-1,0
1523612059664,1441792,76,-56,-1,-1,0
1523612059664,1441792,76,-56,-1,-1,0
1523612059664,1245184,76,-56,-1,-1,0
1523612059704,983040,76,-56,-1,-1,0
1523612059704,786432,76,-56,-1,-1,0
1523612059704,458752,76,-56,-1,-1,0
1523612059704,196608,76,-56,-1,-1,0
1523612059704,65536,76,-56,-1,-1,0
1523612059744,0,76,-56,-1,-1,0
1523612059744,-65536,76,-56,-1,-1,0
1523612059744,-196608,76,-56,-1,-1,0
1523612059744,-196608,76,-56,-1,-1,0
1523612059744,-131072,76,-56,-1,-1,0
1523612059784,-131072,76,-56,-1,-1,0
1523612059784,-196608,76,-56,-1,-1,0
1523612059784,-262144,76,-56,-1,-1,0
1523612059784,-262144,76,-56,-1,-1,0
1523612059784,-262144,76,-56,-1,-1,0
1523612059824,-262144,76,-56,-1,-1,0
1523612059824,-262144,76,-56,-1,-1,0
1523612059824,-327680,76,-56,-1,-1,0
1523612059824,-393216,76,-56,-1,-1,0
1523612059824,-458752,76,-56,-1,-1,0
1523612059866,-393216,76,-56,-1,-1,0
1523612059866,-393216,76,-56,-1,-1,0
1523612059866,-458752,76,-56,-1,-1,0
1523612059866,-524288,76,-56,-1,-1,0
1523612059866,-655360,76,-56,-1,-1,0
1523612059904,-655360,76,-56,-1,-1,0
1523612059904,-786432,76,-56,-1,-1,0
1523612059904,-655360,76,-56,-1,-1,0
1523612059904,-589824,76,-56,-1,-1,0
1523612059904,-524288,76,-56,-1,-1,0
1523612059944,-655360,76,-56,-1,-1,0
1523612059944,-720896,76,-56,-1,-1,0
1523612059944,-786432,76,-56,-1,-1,0
1523612059944,-786432,76,-56,-1,-1,0
1523612059944,-851968,76,-56,-1,-1,0
1523612059984,-720896,76,-56,-1,-1,0
1523612059984,-655360,76,-56,-1,-1,0
1523612059984,-720896,76,-56,-1,-1,0
1523612059984,-720896,76,-56,-1,-1,0
1523612059984,-720896,76,-56,-1,-1,0
1523612060024,-786432,76,-56,-1,-1,0
1523612060024,-851968,76,-56,-1,-1,0
1523612060024,-983040,76,-56,-1,-1,0
1523612060024,-983040,76,-56,-1,-1,0
1523612060024,-917504,76,-56,-1,-1,0
1523612060064,-851968,76,-56,-1,-1,0
1523612060064,-786432,76,-56,-1,-1,0
1523612060064,-720896,76,-56,-1,-1,0
1523612060064,-589824,76,-56,-1,-1,0
1523612060064,-589824,76,-56,-1,-1,0
1523612060104,-589824,76,-56,-1,-1,0
1523612060104,-589824,76,-56,-1,-1,0
1523612060104,-589824,76,-56,-1,-1,0
1523612060104,-655360,76,-56,-1,-1,0
1523612060104,-786432,76,-56,-1,-1,0
1523612060144,-851968,76,-56,-1,-1,0
1523612060144,-851968,76,-56,-1,-1,0
1523612060144,-851968,76,-56,-1,-1,0
1523612060144,-786432,76,-56,-1,-1,0
1523612060144,-851968,76,-56,-1,-1,0
1523612060184,-983040,76,-56,-1,-1,0
1523612060184,-983040,76,-56,-1,-1,0
1523612060184,-196608,76,-56,-1,-1,0
1523612060184,2162688,76,-56,-1,-1,0
1523612060184,6029312,76,-56,-1,-1,0
1523612060224,9175040,76,-56,-1,-1,0
1523612060224,8454144,76,-56,-1,-1,0
1523612060224,3801088,76,-56,-1,-1,0
1523612060224,-720896,76,-56,-1,-1,0
1523612060224,-2162688,76,-56,-1,-1,0
1523612060264,-1769472,76,-56,-1,-1,0
1523612060264,-1245184,76,-56,-1,-1,0
1523612060264,-983040,76,-56,-1,-1,0
1523612060264,-917504,76,-56,-1,-1,0
1523612060264,-917504,76,-56,-1,-1,0
1523612060304,-851968,75,-56,-1,-1,0
1523612060304,-786432,75,-56,-1,-1,0
1523612060304,-851968,75,-56,-1,-1,0
1523612060304,-983040,75,-56,-1,-1,0
1523612060304,-983040,75,-56,-1,-1,0
1523612060344,-917504,75,-56,-1,-1,0
1523612060344,-786432,75,-56,-1,-1,0
1523612060344,-720896,75,-56,-1,-1,0
1523612060344,-589824,75,-56,-1,-1,0
1523612060344,-524288,75,-56,-1,-1,0
1523612060384,-393216,75,-56,-1,-1,0
1523612060384,-262144,75,-56,-1,-1,0
1523612060384,-196608,75,-56,-1,-1,0
1523612060384,-65536,75,-56,-1,-1,0
1523612060384,65536,75,-56,-1,-1,0
1523612060424,262144,75,-56,-1,-1,0
1523612060424,524288,75,-56,-1,-1,0
1523612060424,720896,75,-56,-1,-1,0
1523612060424,851968,75,-56,-1,-1,0
1523612060424,983040,75,-56,-1,-1,0
1523612060464,1114112,75,-56,-1,-1,0
1523612060464,1245184,75,-56,-1,-1,0
1523612060464,1310720,75,-56,-1,-1,0
1523612060464,1441792,75,-56,-1,-1,0
1523612060464,1376256,75,-56,-1,-1,0
1523612060506,1245184,75,-56,-1,-1,0
1523612060506,983040,75,-56,-1,-1,0
1523612060506,786432,75,-56,-1,-1,0
1523612060506,589824,75,-56,-1,-1,0
1523612060506,327680,75,-56,-1,-1,0
1523612060544,131072,75,-56,-1,-1,0
1523612060544,0,75,-56,-1,-1,0
1523612060544,0,75,-56,-1,-1,0
1523612060544,-65536,75,-56,-1,-1,0
1523612060544,-131072,75,-56,-1,-1,0
1523612060584,-131072,75,-56,-1,-1,0
1523612060584,-65536,75,-56,-1,-1,0
1523612060584,-65536,75,-56,-1,-1,0
1523612060584,-65536,75,-56,-1,-1,0
1523612060584,-65536,75,-56,-1,-1,0
1523612060624,-65536,75,-56,-1,-1,0
1523612060624,-65536,75,-56,-1,-1,0
1523612060624,-131072,75,-56,-1,-1,0
1523612060624,-131072,75,-56,-1,-1,0
1523612060624,-131072,75,-56,-1,-1,0
1523612060664,-262144,75,-56,-1,-1,0
1523612060664,-327680,75,-56,-1,-1,0
1523612060664,-327680,75,-56,-1,-1,0
1523612060664,-262144,75,-56,-1,-1,0
1523612060664,-131072,75,-56,-1,-1,0
1523612060704,-196608,75,-56,-1,-1,0
1523612060704,-262144,75,-56,-1,-1,0
1523612060704,-262144,75,-56,-1,-1,0
1523612060704,-262144,75,-56,-1,-1,0
1523612060704,-196608,75,-56,-1,-1,0
1523612060744,-196608,75,-56,-1,-1,0
1523612060744,-262144,75,-56,-1,-1,0
1523612060744,-262144,75,-56,-1,-1,0
1523612060744,-262144,75,-56,-1,-1,0
1523612060744,-327680,75,-56,-1,-1,0
1523612060784,-393216,75,-56,-1,-1,0
1523612060784,-393216,75,-56,-1,-1,0
1523612060784,-393216,75,-56,-1,-1,0
1523612060784,-327680,75,-56,-1,-1,0
1523612060784,-327680,75,-56,-1,-1,0
1523612060825,-393216,75,-56,-1,-1,0
1523612060825,-458752,75,-56,-1,-1,0
1523612060825,-458752,75,-56,-1,-1,0
1523612060825,-458752,75,-56,-1,-1,0
1523612060825,-458752,75,-56,-1,-1,0
1523612060864,-524288,75,-56,-1,-1,0
1523612060864,-589824,75,-56,-1,-1,0
1523612060864,-655360,75,-56,-1,-1,0
1523612060864,-589824,75,-56,-1,-1,0
1523612060864,-327680,75,-56,-1,-1,0
1523612060904,-196608,75,-56,-1,-1,0
1523612060904,-131072,75,-56,-1,-1,0
1523612060904,-131072,75,-56,-1,-1,0
1523612060904,-262144,75,-56,-1,-1,0
1523612060904,-458752,75,-56,-1,-1,0
1523612060943,-524288,75,-56,-1,-1,0
1523612060943,-524288,75,-56,-1,-1,0
1523612060943,-524288,75,-56,-1,-1,0
1523612060943,-524288,75,-56,-1,-1,0
1523612060943,-524288,75,-56,-1,-1,0
1523612060984,-458752,75,-56,-1,-1,0
1523612060984,-524288,75,-56,-1,-1,0
1523612060984,-655360,75,-56,-1,-1,0
1523612060984,-786432,75,-56,-1,-1,0
1523612060984,-393216,75,-56,-1,-1,0
1523612061023,983040,75,-56,-1,-1,0
1523612061023,3932160,75,-56,-1,-1,0
1523612061023,7274496,75,-56,-1,-1,0
1523612061023,8454144,75,-56,-1,-1,0
1523612061023,5439488,75,-56,-1,-1,0
1523612061064,917504,75,-56,-1,-1,0
1523612061064,-1572864,75,-56,-1,-1,0
1523612061064,-1769472,75,-56,-1,-1,0
1523612061064,-1310720,75,-56,-1,-1,0
1523612061064,-917504,75,-56,-1,-1,0
1523612061103,-786432,75,-56,-1,-1,0
1523612061103,-786432,75,-56,-1,-1,0
1523612061103,-720896,75,-56,-1,-1,0
1523612061103,-720896,75,-56,-1,-1,0
1523612061103,-786432,75,-56,-1,-1,0
1523612061144,-786432,75,-56,-1,-1,0
1523612061144,-720896,75,-56,-1,-1,0
1523612061144,-655360,75,-56,-1,-1,0
1523612061144,-655360,75,-56,-1,-1,0
1523612061144,-589824,75,-56,-1,-1,0
1523612061184,-589824,75,-56,-1,-1,0
1523612061184,-458752,75,-56,-1,-1,0
1523612061184,-393216,75,-56,-1,-1,0
1523612061184,-262144,75,-56,-1,-1,0
1523612061184,-131072,75,-56,-1,-1,0
1523612061224,-65536,75,-56,-1,-1,0
1523612061224,0,75,-56,-1,-1,0
1523612061224,196608,75,-56,-1,-1,0
1523612061224,393216,75,-56,-1,-1,0
1523612061224,589824,75,-56,-1,-1,0
1523612061264,720896,75,-56,-1,-1,0
1523612061264,917504,75,-56,-1,-1,0
1523612061264,1048576,75,-56,-1,-1,0
1523612061264,1114112,75,-56,-1,-1,0
1523612061264,1114112,75,-56,-1,-1,0
1523612061304,1048576,75,-56,-1,-1,0
1523612061304,983040,75,-56,-1,-1,0
1523612061304,917504,75,-56,-1,-1,0
1523612061304,851968,75,-56,-1,-1,0
1523612061304,720896,75,-56,-1,-1,0
1523612061343,524288,75,-56,-1,-1,0
1523612061343,327680,75,-56,-1,-1,0
1523612061343,196608,75,-56,-1,-1,0
1523612061343,0,75,-56,-1,-1,0
1523612061343,0,75,-56,-1,-1,0
1523612061384,-196608,75,-56,-1,-1,0
1523612061384,-327680,75,-56,-1,-1,0
1523612061384,-393216,75,-56,-1,-1,0
1523612061384,-393216,75,-56,-1,-1,0
1523612061384,-393216,75,-56,-1,-1,0
1523612061423,-393216,75,-56,-1,-1,0
1523612061423,-524288,75,-56,-1,-1,0
1523612061423,-589824,75,-56,-1,-1,0
1523612061423,-458752,75,-56,-1,-1,0
1523612061423,-393216,75,-56,-1,-1,0
1523612061464,-458752,75,-56,-1,-1,0
1523612061464,-589824,75,-56,-1,-1,0
1523612061464,-655360,75,-56,-1,-1,0
1523612061464,-655360,75,-56,-1,-1,0
1523612061464,-655360,75,-56,-1,-1,0
1523612061503,-720896,75,-56,-1,-1,0
1523612061503,-720896,75,-56,-1,-1,0
1523612061503,-786432,75,-56,-1,-1,0
1523612061503,-851968,75,-56,-1,-1,0
1523612061503,-917504,75,-56,-1,-1,0
1523612061544,-851968,75,-56,-1,-1,0
1523612061544,-917504,75,-56,-1,-1,0
1523612061544,-983040,75,-56,-1,-1,0
1523612061544,-1048576,75,-56,-1,-1,0
1523612061544,-1048576,75,-56,-1,-1,0
1523612061583,-1048576,75,-56,-1,-1,0
1523612061583,-1048576,75,-56,-1,-1,0
1523612061583,-1048576,75,-56,-1,-1,0
1523612061583,-983040,75,-56,-1,-1,0
1523612061583,-983040,75,-56,-1,-1,0
1523612061624,-1048576,75,-56,-1,-1,0
1523612061624,-1048576,75,-56,-1,-1,0
1523612061624,-1048576,75,-56,-1,-1,0
1523612061624,-1048576,75,-56,-1,-1,0
1523612061624,-1114112,75,-56,-1,-1,0
1523612061663,-1179648,75,-56,-1,-1,0
1523612061663,-1114112,75,-56,-1,-1,0
1523612061663,-1114112,75,-56,-1,-1,0
1523612061663,-1179648,75,-56,-1,-1,0
1523612061663,-1245184,75,-56,-1,-1,0
1523612061704,-1114112,75,-56,-1,-1,0
1523612061704,-851968,75,-56,-1,-1,0
1523612061704,-655360,75,-56,-1,-1,0
1523612061704,-589824,75,-56,-1,-1,0
1523612061704,-655360,75,-56,-1,-1,0
1523612061743,-786432,75,-56,-1,-1,0
1523612061743,-851968,75,-56,-1,-1,0
1523612061743,-851968,75,-56,-1,-1,0
1523612061743,-851968,75,-56,-1,-1,0
1523612061743,-851968,75,-56,-1,-1,0
1523612061784,-851968,75,-56,-1,-1,0
1523612061784,-917504,75,-56,-1,-1,0
1523612061784,-917504,75,-56,-1,-1,0
1523612061784,-851968,75,-56,-1,-1,0
1523612061784,-917504,75,-56,-1,-1,0
1523612061823,-983040,75,-56,-1,-1,0
1523612061823,0,75,-56,-1,-1,0
1523612061823,2555904,75,-56,-1,-1,0
1523612061823,6160384,75,-56,-1,-1,0
1523612061823,8650752,75,-56,-1,-1,0
1523612061864,7143424,75,-56,-1,-1,0
1523612061864,2359296,75,-56,-1,-1,0
1523612061864,-1572864,75,-56,-1,-1,0
1523612061864,-2424832,75,-56,-1,-1,0
1523612061864,-1638400,75,-56,-1,-1,0
1523612061903,-1048576,74,-56,-1,-1,0
1523612061903,-851968,74,-56,-1,-1,0
1523612061903,-851968,74,-56,-1,-1,0
1523612061903,-720896,74,-56,-1,-1,0
1523612061903,-655360,74,-56,-1,-1,0
1523612061944,-720896,74,-56,-1,-1,0
1523612061944,-720896,74,-56,-1,-1,0
1523612061944,-655360,74,-56,-1,-1,0
1523612061944,-524288,74,-56,-1,-1,0
1523612061944,-524288,74,-56,-1,-1,0
1523612061984,-458752,74,-56,-1,-1,0
1523612061984,-196608,74,-56,-1,-1,0
1523612061984,-196608,74,-56,-1,-1,0
1523612061984,-262144,74,-56,-1,-1,0
1523612061984,-131072,74,-56,-1,-1,0
1523612062024,65536,74,-56,-1,-1,0
1523612062024,196608,74,-56,-1,-1,0
1523612062024,327680,74,-56,-1,-1,0
1523612062024,524288,74,-56,-1,-1,0
1523612062024,720896,74,-56,-1,-1,0
1523612062063,983040,74,-56,-1,-1,0
1523612062063,1245184,74,-56,-1,-1,0
1523612062063,1507328,74,-56,-1,-1,0
1523612062063,1703936,74,-56,-1,-1,0
1523612062063,1703936,74,-56,-1,-1,0
1523612062103,1638400,74,-56,-1,-1,0
1523612062103,1835008,74,-56,-1,-1,0
1523612062103,1966080,74,-56,-1,-1,0
1523612062103,1966080,74,-56,-1,-1,0
1523612062103,1900544,74,-56,-1,-1,0
1523612062143,1769472,74,-56,-1,-1,0
1523612062143,1507328,74,-56,-1,-1,0
1523612062143,1310720,74,-56,-1,-1,0
1523612062143,1048576,74,-56,-1,-1,0
1523612062143,786432,74,-56,-1,-1,0
1523612062183,655360,74,-56,-1,-1,0
1523612062183,589824,74,-56,-1,-1,0
1523612062183,589824,74,-56,-1,-1,0
1523612062183,524288,74,-56,-1,-1,0
1523612062183,393216,74,-56,-1,-1,0
1523612062224,393216,74,-56,-1,-1,0
1523612062224,458752,74,-56,-1,-1,0
1523612062224,393216,74,-56,-1,-1,0
1523612062224,393216,74,-56,-1,-1,0
1523612062224,458752,74,-56,-1,-1,0
1523612062264,524288,74,-56,-1,-1,0
1523612062264,458752,74,-56,-1,-1,0
1523612062264,327680,74,-56,-1,-1,0
1523612062264,262144,74,-56,-1,-1,0
1523612062264,262144,74,-56,-1,-1,0
1523612062303,327680,74,-56,-1,-1,0
1523612062303,393216,74,-56,-1,-1,0
1523612062303,327680,74,-56,-1,-1,0
1523612062303,65536,74,-56,-1,-1,0
1523612062303,0,74,-56,-1,-1,0
1523612062344,0,74,-56,-1,-1,0
1523612062344,0,74,-56,-1,-1,0
1523612062344,0,74,-56,-1,-1,0
1523612062344,-65536,74,-56,-1,-1,0
1523612062344,0,74,-56,-1,-1,0
1523612062383,0,74,-56,-1,-1,0
1523612062383,-65536,74,-56,-1,-1,0
1523612062383,-196608,74,-56,-1,-1,0
1523612062383,-262144,74,-56,-1,-1,0
1523612062383,-262144,74,-56,-1,-1,0
1523612062424,-196608,74,-56,-1,-1,0
1523612062424,-65536,74,-56,-1,-1,0
1523612062424,-131072,74,-56,-1,-1,0
1523612062424,-131072,74,-56,-1,-1,0
1523612062424,0,74,-56,-1,-1,0
1523612062464,-131072,74,-56,-1,-1,0
1523612062464,-327680,74,-56,-1,-1,0
1523612062464,-393216,74,-56,-1,-1,0
1523612062464,-196608,74,-56,-1,-1,0
1523612062464,-65536,74,-56,-1,-1,0
1523612062504,0,74,-56,-1,-1,0
1523612062504,0,74,-56,-1,-1,0
1523612062504,131072,74,-56,-1,-1,0
1523612062504,131072,74,-56,-1,-1,0
1523612062504,0,74,-56,-1,-1,0
1523612062543,0,74,-56,-1,-1,0
1523612062543,0,74,-56,-1,-1,0
1523612062543,0,74,-56,-1,-1,0
1523612062543,-65536,74,-56,-1,-1,0
1523612062543,-65536,74,-56,-1,-1,0
1523612062583,0,74,-56,-1,-1,0
1523612062583,-131072,74,-56,-1,-1,0
1523612062583,-327680,74,-56,-1,-1,0
1523612062583,-327680,74,-56,-1,-1,0
1523612062583,-131072,74,-56,-1,-1,0
1523612062623,917504,74,-56,-1,-1,0
1523612062623,3801088,74,-56,-1,-1,0
1523612062623,7733248,74,-56,-1,-1,0
1523612062623,9895936,74,-56,-1,-1,0
1523612062623,7536640,74,-56,-1,-1,0
1523612062663,2490368,74,-56,-1,-1,0
1523612062663,-983040,74,-56,-1,-1,0
1523612062663,-1376256,74,-56,-1,-1,0
1523612062663,-851968,74,-56,-1,-1,0
1523612062663,-589824,74,-56,-1,-1,0
1523612062703,-589824,74,-56,-1,-1,0
1523612062703,-524288,74,-56,-1,-1,0
1523612062703,-458752,74,-56,-1,-1,0
1523612062703,-524288,74,-56,-1,-1,0
1523612062703,-524288,74,-56,-1,-1,0
1523612062743,-327680,74,-56,-1,-1,0
1523612062743,-196608,74,-56,-1,-1,0
1523612062743,-131072,74,-56,-1,-1,0
1523612062743,-262144,74,-56,-1,-1,0
1523612062743,-393216,74,-56,-1,-1,0
1523612062784,-458752,74,-56,-1,-1,0
1523612062784,-262144,74,-56,-1,-1,0
1523612062784,-196608,74,-56,-1,-1,0
1523612062784,-65536,74,-56,-1,-1,0
1523612062784,65536,74,-56,-1,-1,0
1523612062823,131072,74,-56,-1,-1,0
1523612062823,196608,74,-56,-1,-1,0
1523612062823,458752,74,-56,-1,-1,0
1523612062823,655360,74,-56,-1,-1,0
1523612062823,917504,74,-56,-1,-1,0
1523612062863,1048576,74,-56,-1,-1,0
1523612062863,1310720,74,-56,-1,-1,0
1523612062863,1769472,74,-56,-1,-1,0
1523612062863,1769472,74,-56,-1,-1,0
1523612062863,1441792,74,-56,-1,-1,0
1523612062903,1310720,74,-56,-1,-1,0
1523612062903,1376256,74,-56,-1,-1,0
1523612062903,1310720,74,-56,-1,-1,0
1523612062903,1310720,74,-56,-1,-1,0
1523612062903,1179648,74,-56,-1,-1,0
1523612062943,851968,74,-56,-1,-1,0
1523612062943,524288,74,-56,-1,-1,0
1523612062943,458752,74,-56,-1,-1,0
1523612062943,327680,74,-56,-1,-1,0
1523612062943,131072,74,-56,-1,-1,0
1523612062983,0,74,-56,-1,-1,0
1523612062983,-131072,74,-56,-1,-1,0
1523612062983,-196608,74,-56,-1,-1,0
1523612062983,-262144,74,-56,-1,-1,0
1523612062983,-196608,74,-56,-1,-1,0
1523612063023,-65536,74,-56,-1,-1,0
1523612063023,-131072,74,-56,-1,-1,0
1523612063023,-131072,74,-56,-1,-1,0
1523612063023,-65536,74,-56,-1,-1,0
1523612063023,-65536,74,-56,-1,-1,0
1523612063064,-327680,74,-56,-1,-1,0
1523612063064,-524288,74,-56,-1,-1,0
1523612063064,-524288,74,-56,-1,-1,0
1523612063064,-524288,74,-56,-1,-1,0
1523612063064,-458752,74,-56,-1,-1,0
1523612063103,-262144,74,-56,-1,-1,0
1523612063103,-327680,74,-56,-1,-1,0
1523612063103,-458752,74,-56,-1,-1,0
1523612063103,-589824,74,-56,-1,-1,0
1523612063103,-720896,74,-56,-1,-1,0
1523612063143,-917504,74,-56,-1,-1,0
1523612063143,-786432,74,-56,-1,-1,0
1523612063143,-720896,74,-56,-1,-1,0
1523612063143,-720896,74,-56,-1,-1,0
1523612063143,-655360,74,-56,-1,-1,0
1523612063183,-393216,74,-56,-1,-1,0
1523612063183,-458752,74,-56,-1,-1,0
1523612063183,-655360,74,-56,-1,-1,0
1523612063183,-720896,74,-56,-1,-1,0
1523612063183,-589824,74,-56,-1,-1,0
1523612063223,-589824,74,-56,-1,-1,0
1523612063223,-720896,74,-56,-1,-1,0
1523612063223,-851968,74,-56,-1,-1,0
1523612063223,-786432,74,-56,-1,-1,0
1523612063223,-720896,74,-56,-1,-1,0
1523612063263,-851968,74,-56,-1,-1,0
1523612063263,-786432,74,-56,-1,-1,0
1523612063263,-655360,74,-56,-1,-1,0
1523612063263,-589824,74,-56,-1,-1,0
1523612063263,-655360,74,-56,-1,-1,0
1523612063303,-458752,74,-56,-1,-1,0
1523612063303,-196608,74,-56,-1,-1,0
1523612063303,-262144,74,-56,-1,-1,0
1523612063303,-589824,74,-56,-1,-1,0
1523612063303,-786432,74,-56,-1,-1,0
1523612063343,-786432,74,-56,-1,-1,0
1523612063343,-786432,74,-56,-1,-1,0
1523612063343,-851968,74,-56,-1,-1,0
1523612063343,-851968,74,-56,-1,-1,0
1523612063343,-851968,74,-56,-1,-1,0
1523612063383,-786432,74,-56,-1,-1,0
1523612063383,-786432,74,-56,-1,-1,0
1523612063383,-720896,74,-56,-1,-1,0
1523612063383,262144,74,-56,-1,-1,0
1523612063383,3014656,74,-56,-1,-1,0
1523612063424,6488064,74,-56,-1,-1,0
1523612063424,8454144,74,-56,-1,-1,0
1523612063424,6160384,74,-56,-1,-1,0
1523612063424,1441792,74,-56,-1,-1,0
1523612063424,-1769472,74,-56,-1,-1,0
1523612063463,-2162688,74,-56,-1,-1,0
1523612063463,-1703936,74,-56,-1,-1,0
1523612063463,-1376256,74,-56,-1,-1,0
1523612063463,-1114112,74,-56,-1,-1,0
1523612063463,-1048576,74,-56,-1,-1,0
1523612063503,-1048576,74,-56,-1,-1,0
1523612063503,-1048576,74,-56,-1,-1,0
1523612063503,-917504,74,-56,-1,-1,0
1523612063503,-917504,74,-56,-1,-1,0
1523612063503,-983040,74,-56,-1,-1,0
1523612063543,-1114112,74,-56,-1,-1,0
1523612063543,-1114112,74,-56,-1,-1,0
1523612063543,-983040,74,-56,-1,-1,0
1523612063543,-917504,74,-56,-1,-1,0
1523612063543,-786432,74,-56,-1,-1,0
1523612063583,-786432,74,-56,-1,-1,0
1523612063583,-655360,74,-56,-1,-1,0
1523612063583,-393216,74,-56,-1,-1,0
1523612063583,-131072,74,-56,-1,-1,0
1523612063583,-131072,74,-56,-1,-1,0
1523612063623,-65536,74,-56,-1,-1,0
1523612063623,65536,74,-56,-1,-1,0
1523612063623,262144,74,-56,-1,-1,0
1523612063623,524288,74,-56,-1,-1,0
1523612063623,786432,74,-56,-1,-1,0
1523612063663,917504,74,-56,-1,-1,0
1523612063663,917504,74,-56,-1,-1,0
1523612063663,983040,74,-56,-1,-1,0
1523612063663,1179648,74,-56,-1,-1,0
1523612063663,1114112,74,-56,-1,-1,0
1523612063704,917504,74,-56,-1,-1,0
1523612063704,786432,74,-56,-1,-1,0
1523612063704,786432,74,-56,-1,-1,0
1523612063704,589824,74,-56,-1,-1,0
1523612063704,196608,74,-56,-1,-1,0
1523612063743,0,74,-56,-1,-1,0
1523612063743,-65536,74,-56,-1,-1,0
1523612063743,-65536,74,-56,-1,-1,0
1523612063743,-327680,74,-56,-1,-1,0
1523612063743,-458752,74,-56,-1,-1,0
1523612063783,-327680,74,-56,-1,-1,0
1523612063783,-196608,74,-56,-1,-1,0
1523612063783,-327680,74,-56,-1,-1,0
1523612063783,-458752,74,-56,-1,-1,0
1523612063783,-524288,74,-56,-1,-1,0
1523612063823,-458752,74,-56,-1,-1,0
1523612063823,-327680,74,-56,-1,-1,0
1523612063823,-393216,74,-56,-1,-1,0
1523612063823,-458752,74,-56,-1,-1,0
1523612063823,-327680,74,-56,-1,-1,0
1523612063863,-393216,74,-56,-1,-1,0
1523612063863,-524288,74,-56,-1,-1,0
1523612063863,-524288,74,-56,-1,-1,0
1523612063863,-458752,74,-56,-1,-1,0
1523612063863,-589824,74,-56,-1,-1,0
1523612063903,-786432,74,-56,-1,-1,0
1523612063903,-851968,74,-56,-1,-1,0
1523612063903,-786432,74,-56,-1,-1,0
1523612063903,-655360,74,-56,-1,-1,0
1523612063903,-655360,74,-56,-1,-1,0
1523612063943,-720896,74,-56,-1,-1,0
1523612063943,-786432,74,-56,-1,-1,0
1523612063943,-851968,74,-56,-1,-1,0
1523612063943,-917504,74,-56,-1,-1,0
1523612063943,-851968,74,-56,-1,-1,0
1523612063983,-851968,74,-56,-1,-1,0
1523612063983,-786432,74,-56,-1,-1,0
1523612063983,-720896,74,-56,-1,-1,0
1523612063983,-720896,74,-56,-1,-1,0
1523612063983,-786432,74,-56,-1,-1,0
1523612064023,-786432,74,-56,-1,-1,0
1523612064023,-786432,74,-56,-1,-1,0
1523612064023,-851968,74,-56,-1,-1,0
1523612064023,-1048576,74,-56,-1,-1,0
1523612064023,-1048576,74,-56,-1,-1,0
1523612064063,-917504,74,-56,-1,-1,0
1523612064063,-786432,74,-56,-1,-1,0
1523612064063,-786432,74,-56,-1,-1,0
1523612064063,-720896,74,-56,-1,-1,0
1523612064063,-655360,74,-56,-1,-1,0
1523612064103,-655360,74,-56,-1,-1,0
1523612064103,-786432,74,-56,-1,-1,0
1523612064103,-851968,74,-56,-1,-1,0
1523612064103,-917504,74,-56,-1,-1,0
1523612064103,-983040,74,-56,-1,-1,0
1523612064143,-983040,74,-56,-1,-1,0
1523612064143,-983040,74,-56,-1,-1,0
1523612064143,-851968,74,-56,-1,-1,0
1523612064143,-917504,74,-56,-1,-1,0
1523612064143,-1048576,74,-56,-1,-1,0
1523612064183,-655360,74,-56,-1,-1,0
1523612064183,1048576,74,-56,-1,-1,0
1523612064183,4325376,74,-56,-1,-1,0
1523612064183,7405568,74,-56,-1,-1,0
1523612064183,7536640,74,-56,-1,-1,0
1523612064223,3866624,74,-56,-1,-1,0
1523612064223,-196608,74,-56,-1,-1,0
1523612064223,-2031616,74,-56,-1,-1,0
1523612064223,-1900544,74,-56,-1,-1,0
1523612064223,-1441792,74,-56,-1,-1,0
1523612064263,-1114112,74,-56,-1,-1,0
1523612064263,-1048576,74,-56,-1,-1,0
1523612064263,-1179648,74,-56,-1,-1,0
1523612064263,-1310720,74,-56,-1,-1,0
1523612064263,-1245184,74,-56,-1,-1,0
1523612064303,-1114112,74,-56,-1,-1,0
1523612064303,-1114112,74,-56,-1,-1,0
1523612064303,-1114112,74,-56,-1,-1,0
1523612064303,-1114112,74,-56,-1,-1,0
1523612064303,-1114112,74,-56,-1,-1,0
1523612064344,-983040,74,-56,-1,-1,0
1523612064344,-917504,74,-56,-1,-1,0
1523612064344,-851968,74,-56,-1,-1,0
1523612064344,-720896,74,-56,-1,-1,0
1523612064344,-589824,74,-56,-1,-1,0
1523612064383,-393216,74,-56,-1,-1,0
1523612064383,-327680,74,-56,-1,-1,0
1523612064383,-262144,74,-56,-1,-1,0
1523612064383,-196608,74,-56,-1,-1,0
1523612064383,0,74,-56,-1,-1,0
1523612064423,131072,74,-56,-1,-1,0
1523612064423,393216,74,-56,-1,-1,0
1523612064423,655360,74,-56,-1,-1,0
1523612064423,786432,74,-56,-1,-1,0
1523612064423,720896,74,-56,-1,-1,0
1523612064463,786432,74,-56,-1,-1,0
1523612064463,917504,74,-56,-1,-1,0
1523612064463,851968,74,-56,-1,-1,0
1523612064463,720896,74,-56,-1,-1,0
1523612064463,786432,74,-56,-1,-1,0
1523612064503,917504,74,-56,-1,-1,0
1523612064503,524288,74,-56,-1,-1,0
1523612064503,0,74,-56,-1,-1,0
1523612064503,-327680,74,-56,-1,-1,0
1523612064503,-262144,74,-56,-1,-1,0
1523612064543,-131072,74,-56,-1,-1,0
1523612064543,-65536,74,-56,-1,-1,0
1523612064543,0,74,-56,-1,-1,0
1523612064543,65536,74,-56,-1,-1,0
1523612064543,-131072,74,-56,-1,-1,0
1523612064583,-393216,74,-56,-1,-1,0
1523612064583,-327680,74,-56,-1,-1,0
1523612064583,-262144,74,-56,-1,-1,0
1523612064583,-262144,74,-56,-1,-1,0
1523612064583,-327680,74,-56,-1,-1,0
1523612064623,-262144,74,-56,-1,-1,0
1523612064623,-65536,74,-56,-1,-1,0
1523612064623,0,74,-56,-1,-1,0
1523612064623,-196608,74,-56,-1,-1,0
1523612064623,-393216,74,-56,-1,-1,0
1523612064663,-458752,74,-56,-1,-1,0
1523612064663,-393216,74,-56,-1,-1,0
1523612064663,-393216,74,-56,-1,-1,0
1523612064663,-458752,74,-56,-1,-1,0
1523612064663,-589824,74,-56,-1,-1,0
1523612064703,-655360,74,-56,-1,-1,0
1523612064703,-524288,74,-56,-1,-1,0
1523612064703,-524288,74,-56,-1,-1,0
1523612064703,-524288,74,-56,-1,-1,0
1523612064703,-589824,74,-56,-1,-1,0
1523612064743,-589824,74,-56,-1,-1,0
1523612064743,-720896,74,-56,-1,-1,0
1523612064743,-720896,74,-56,-1,-1,0
1523612064743,-524288,74,-56,-1,-1,0
1523612064743,-327680,74,-56,-1,-1,0
1523612064784,-458752,74,-56,-1,-1,0
1523612064784,-589824,74,-56,-1,-1,0
1523612064784,-720896,74,-56,-1,-1,0
1523612064784,-720896,74,-56,-1,-1,0
1523612064784,-589824,74,-56,-1,-1,0
1523612064823,-589824,74,-56,-1,-1,0
1523612064823,-589824,74,-56,-1,-1,0
1523612064823,-589824,74,-56,-1,-1,0
1523612064823,-458752,74,-56,-1,-1,0
1523612064823,-196608,74,-56,-1,-1,0
1523612064863,-131072,74,-56,-1,-1,0
1523612064863,-327680,74,-56,-1,-1,0
1523612064863,-393216,74,-56,-1,-1,0
1523612064863,-393216,74,-56,-1,-1,0
1523612064863,-393216,74,-56,-1,-1,0
1523612064903,-524288,74,-56,-1,-1,0
1523612064903,-524288,74,-56,-1,-1,0
1523612064903,-393216,74,-56,-1,-1,0
1523612064903,-327680,74,-56,-1,-1,0
1523612064903,-458752,74,-56,-1,-1,0
1523612064943,-720896,74,-56,-1,-1,0
1523612064943,-655360,74,-56,-1,-1,0
1523612064943,-458752,74,-56,-1,-1,0
1523612064943,-393216,74,-56,-1,-1,0
1523612064943,327680,74,-56,-1,-1,0
1523612064985,2686976,74,-56,-1,-1,0
1523612064985,6094848,74,-56,-1,-1,0
1523612064985,8257536,74,-56,-1,-1,0
1523612064985,6684672,74,-56,-1,-1,0
1523612064985,2490368,74,-56,-1,-1,0
1523612065023,-655360,74,-56,-1,-1,0
1523612065023,-1179648,74,-56,-1,-1,0
1523612065023,-917504,74,-56,-1,-1,0
1523612065023,-786432,74,-56,-1,-1,0
1523612065023,-720896,74,-56,-1,-1,0
1523612065063,-786432,74,-56,-1,-1,0
1523612065063,-851968,74,-56,-1,-1,0
1523612065063,-720896,74,-56,-1,-1,0
1523612065063,-786432,74,-56,-1,-1,0
1523612065063,-786432,74,-56,-1,-1,0
1523612065103,-786432,74,-56,-1,-1,0
1523612065103,-720896,74,-56,-1,-1,0
1523612065103,-720896,74,-56,-1,-1,0
1523612065103,-655360,74,-56,-1,-1,0
1523612065103,-589824,74,-56,-1,-1,0
1523612065143,-589824,74,-56,-1,-1,0
1523612065143,-458752,74,-56,-1,-1,0
1523612065143,-393216,74,-56,-1,-1,0
1523612065143,-327680,74,-56,-1,-1,0
1523612065143,-196608,74,-56,-1,-1,0
1523612065183,0,74,-56,-1,-1,0
1523612065183,196608,74,-56,-1,-1,0
1523612065183,196608,74,-56,-1,-1,0
1523612065183,262144,74,-56,-1,-1,0
1523612065183,458752,74,-56,-1,-1,0
1523612065223,786432,74,-56,-1,-1,0
1523612065223,917504,74,-56,-1,-1,0
1523612065223,851968,74,-56,-1,-1,0
1523612065223,917504,74,-56,-1,-1,0
1523612065223,1048576,74,-56,-1,-1,0
1523612065263,1114112,74,-56,-1,-1,0
1523612065263,1048576,74,-56,-1,-1,0
1523612065263,983040,74,-56,-1,-1,0
1523612065263,917504,74,-56,-1,-1,0
1523612065263,720896,74,-56,-1,-1,0
1523612065303,524288,74,-56,-1,-1,0
1523612065303,196608,74,-56,-1,-1,0
1523612065303,0,74,-56,-1,-1,0
1523612065303,0,74,-56,-1,-1,0
1523612065303,0,74,-56,-1,-1,0
1523612065343,-196608,74,-56,-1,-1,0
1523612065343,-327680,74,-56,-1,-1,0
1523612065343,-393216,74,-56,-1,-1,0
1523612065343,-458752,74,-56,-1,-1,0
1523612065343,-458752,74,-56,-1,-1,0
1523612065383,-327680,74,-56,-1,-1,0
1523612065383,-196608,74,-56,-1,-1,0
1523612065383,-196608,74,-56,-1,-1,0
1523612065383,-262144,74,-56,-1,-1,0
1523612065383,-262144,74,-56,-1,-1,0
1523612065423,-327680,74,-56,-1,-1,0
1523612065423,-393216,74,-56,-1,-1,0
1523612065423,-524288,74,-56,-1,-1,0
1523612065423,-655360,74,-56,-1,-1,0
1523612065423,-786432,74,-56,-1,-1,0
1523612065463,-720896,74,-56,-1,-1,0
1523612065463,-524288,74,-56,-1,-1,0
1523612065463,-262144,74,-56,-1,-1,0
1523612065463,-327680,74,-56,-1,-1,0
1523612065463,-458752,74,-56,-1,-1,0
1523612065503,-458752,74,-56,-1,-1,0
1523612065503,-458752,74,-56,-1,-1,0
1523612065503,-393216,74,-56,-1,-1,0
1523612065503,-458752,74,-56,-1,-1,0
1523612065503,-524288,74,-56,-1,-1,0
1523612065543,-524288,74,-56,-1,-1,0
1523612065543,-458752,74,-56,-1,-1,0
1523612065543,-393216,74,-56,-1,-1,0
1523612065543,-458752,74,-56,-1,-1,0
1523612065543,-524288,74,-56,-1,-1,0
1523612065583,-524288,74,-56,-1,-1,0
1523612065583,-458752,74,-56,-1,-1,0
1523612065583,-524288,74,-56,-1,-1,0
1523612065583,-524288,74,-56,-1,-1,0
1523612065583,-524288,74,-56,-1,-1,0
1523612065625,-589824,74,-56,-1,-1,0
1523612065625,-589824,74,-56,-1,-1,0
1523612065625,-524288,74,-56,-1,-1,0
1523612065625,-393216,74,-56,-1,-1,0
1523612065625,-393216,74,-56,-1,-1,0
1523612065663,-327680,74,-56,-1,-1,0
1523612065663,-393216,74,-56,-1,-1,0
1523612065663,-524288,74,-56,-1,-1,0
1523612065663,-458752,74,-56,-1,-1,0
1523612065663,-458752,74,-56,-1,-1,0
1523612065703,-458752,74,-56,-1,-1,0
1523612065703,-655360,74,-56,-1,-1,0
1523612065703,-655360,74,-56,-1,-1,0
1523612065703,-589824,74,-56,-1,-1,0
1523612065703,-589824,74,-56,-1,-1,0
1523612065743,-720896,74,-56,-1,-1,0
1523612065743,-720896,74,-56,-1,-1,0
1523612065743,0,74,-56,-1,-1,0
1523612065743,2162688,74,-56,-1,-1,0
1523612065743,5832704,74,-56,-1,-1,0
1523612065785,8519680,74,-56,-1,-1,0
1523612065785,7012352,74,-56,-1,-1,0
1523612065785,2228224,74,-56,-1,-1,0
1523612065785,-1572864,74,-56,-1,-1,0
1523612065785,-2293760,74,-56,-1,-1,0
1523612065823,-1835008,74,-56,-1,-1,0
1523612065823,-1310720,74,-56,-1,-1,0
1523612065823,-851968,74,-56,-1,-1,0
1523612065823,-720896,74,-56,-1,-1,0
1523612065823,-720896,74,-56,-1,-1,0
1523612065863,-786432,74,-56,-1,-1,0
1523612065863,-720896,74,-56,-1,-1,0
1523612065863,-720896,74,-56,-1,-1,0
1523612065863,-655360,74,-56,-1,-1,0
1523612065863,-458752,74,-56,-1,-1,0
1523612065903,-262144,74,-56,-1,-1,0
1523612065903,-131072,74,-56,-1,-1,0
1523612065903,-131072,74,-56,-1,-1,0
1523612065903,-196608,74,-56,-1,-1,0
1523612065903,-262144,74,-56,-1,-1,0
1523612065943,-327680,74,-56,-1,-1,0
1523612065943,-327680,74,-56,-1,-1,0
1523612065943,-131072,74,-56,-1,-1,0
1523612065943,0,74,-56,-1,-1,0
1523612065943,131072,74,-56,-1,-1,0
1523612065983,262144,74,-56,-1,-1,0
1523612065983,393216,74,-56,-1,-1,0
1523612065983,589824,74,-56,-1,-1,0
1523612065983,720896,74,-56,-1,-1,0
1523612065983,983040,74,-56,-1,-1,0
1523612066023,1179648,74,-56,-1,-1,0
1523612066023,1245184,74,-56,-1,-1,0
1523612066023,1310720,74,-56,-1,-1,0
1523612066023,1441792,74,-56,-1,-1,0
1523612066023,1310720,74,-56,-1,-1,0
1523612066063,1114112,74,-56,-1,-1,0
1523612066063,786432,74,-56,-1,-1,0
1523612066063,589824,74,-56,-1,-1,0
1523612066063,524288,74,-56,-1,-1,0
1523612066063,524288,74,-56,-1,-1,0
1523612066103,262144,74,-56,-1,-1,0
1523612066103,0,74,-56,-1,-1,0
1523612066103,-131072,74,-56,-1,-1,0
1523612066103,-131072,74,-56,-1,-1,0
1523612066103,-196608,74,-56,-1,-1,0
1523612066143,-196608,74,-56,-1,-1,0
1523612066143,-196608,74,-56,-1,-1,0
1523612066143,-131072,74,-56,-1,-1,0
1523612066143,-196608,74,-56,-1,-1,0
1523612066143,-196608,74,-56,-1,-1,0
1523612066183,-131072,74,-56,-1,-1,0
1523612066183,-131072,74,-56,-1,-1,0
1523612066183,-196608,74,-56,-1,-1,0
1523612066183,-196608,74,-56,-1,-1,0
1523612066183,-262144,74,-56,-1,-1,0
1523612066223,-327680,74,-56,-1,-1,0
1523612066223,-327680,74,-56,-1,-1,0
1523612066223,-327680,74,-56,-1,-1,0
1523612066223,-327680,74,-56,-1,-1,0
1523612066223,-327680,74,-56,-1,-1,0
1523612066265,-458752,74,-56,-1,-1,0
1523612066265,-458752,74,-56,-1,-1,0
1523612066265,-524288,74,-56,-1,-1,0
1523612066265,-458752,74,-56,-1,-1,0
1523612066265,-458752,74,-56,-1,-1,0
1523612066303,-458752,74,-56,-1,-1,0
1523612066303,-524288,74,-56,-1,-1,0
1523612066303,-524288,74,-56,-1,-1,0
1523612066303,-655360,74,-56,-1,-1,0
1523612066303,-720896,74,-56,-1,-1,0
1523612066343,-589824,74,-56,-1,-1,0
1523612066343,-458752,74,-56,-1,-1,0
1523612066343,-458752,74,-56,-1,-1,0
1523612066343,-655360,74,-56,-1,-1,0
1523612066343,-851968,74,-56,-1,-1,0
1523612066383,-786432,74,-56,-1,-1,0
1523612066383,-589824,74,-56,-1,-1,0
1523612066383,-458752,74,-56,-1,-1,0
1523612066383,-327680,74,-56,-1,-1,0
1523612066383,-262144,74,-56,-1,-1,0
1523612066423,-327680,74,-56,-1,-1,0
1523612066423,-393216,74,-56,-1,-1,0
1523612066423,-524288,74,-56,-1,-1,0
1523612066423,-524288,74,-56,-1,-1,0
1523612066423,-327680,74,-56,-1,-1,0
1523612066463,-262144,74,-56,-1,-1,0
1523612066463,-262144,74,-56,-1,-1,0
1523612066463,-393216,74,-56,-1,-1,0
1523612066463,-458752,74,-56,-1,-1,0
1523612066463,-458752,74,-56,-1,-1,0
1523612066503,-524288,74,-56,-1,-1,0
1523612066503,-786432,74,-56,-1,-1,0
1523612066503,0,74,-56,-1,-1,0
1523612066503,2949120,74,-56,-1,-1,0
1523612066503,7208960,74,-56,-1,-1,0
1523612066543,9961472,74,-56,-1,-1,0
1523612066543,8388608,74,-56,-1,-1,0
1523612066543,3342336,74,-56,-1,-1,0
1523612066543,-786432,74,-56,-1,-1,0
1523612066543,-1572864,74,-56,-1,-1,0
1523612066583,-1048576,74,-56,-1,-1,0
1523612066583,-786432,74,-56,-1,-1,0
1523612066583,-589824,74,-56,-1,-1,0
1523612066583,-458752,74,-56,-1,-1,0
1523612066583,-327680,74,-56,-1,-1,0
1523612066623,-327680,74,-56,-1,-1,0
1523612066623,-393216,74,-56,-1,-1,0
1523612066623,-458752,74,-56,-1,-1,0
1523612066623,-524288,74,-56,-1,-1,0
1523612066623,-589824,74,-56,-1,-1,0
1523612066663,-524288,74,-56,-1,-1,0
1523612066663,-262144,74,-56,-1,-1,0
1523612066663,-196608,74,-56,-1,-1,0
1523612066663,-458752,74,-56,-1,-1,0
1523612066663,-458752,74,-56,-1,-1,0
1523612066703,-262144,74,-56,-1,-1,0
1523612066703,0,74,-56,-1,-1,0
1523612066703,65536,74,-56,-1,-1,0
1523612066703,131072,74,-56,-1,-1,0
1523612066703,262144,74,-56,-1,-1,0
1523612066743,458752,74,-56,-1,-1,0
1523612066743,655360,74,-56,-1,-1,0
1523612066743,917504,74,-56,-1,-1,0
1523612066743,1114112,74,-56,-1,-1,0
1523612066743,1179648,74,-56,-1,-1,0
1523612066783,1245184,74,-56,-1,-1,0
1523612066783,1310720,74,-56,-1,-1,0
1523612066783,1376256,74,-56,-1,-1,0
1523612066783,1376256,74,-56,-1,-1,0
1523612066783,1376256,74,-56,-1,-1,0
1523612066823,1310720,74,-56,-1,-1,0
1523612066823,1114112,74,-56,-1,-1,0
1523612066823,720896,74,-56,-1,-1,0
1523612066823,327680,74,-56,-1,-1,0
1523612066823,196608,74,-56,-1,-1,0
1523612066865,65536,74,-56,-1,-1,0
1523612066865,0,74,-56,-1,-1,0
1523612066865,-131072,74,-56,-1,-1,0
1523612066865,-131072,74,-56,-1,-1,0
1523612066865,-196608,74,-56,-1,-1,0
1523612066906,-262144,74,-56,-1,-1,0
1523612066906,-327680,74,-56,-1,-1,0
1523612066906,-327680,74,-56,-1,-1,0
1523612066906,-262144,74,-56,-1,-1,0
1523612066906,-196608,74,-56,-1,-1,0
1523612066943,-131072,74,-56,-1,-1,0
1523612066943,-131072,74,-56,-1,-1,0
1523612066943,-65536,74,-56,-1,-1,0
1523612066943,-65536,74,-56,-1,-1,0
1523612066943,-131072,74,-56,-1,-1,0
1523612066983,-196608,74,-56,-1,-1,0
1523612066983,-196608,74,-56,-1,-1,0
1523612066983,-262144,74,-56,-1,-1,0
1523612066983,-262144,74,-56,-1,-1,0
1523612066983,-327680,74,-56,-1,-1,0
1523612067023,-393216,74,-56,-1,-1,0
1523612067023,-327680,74,-56,-1,-1,0
1523612067023,-196608,74,-56,-1,-1,0
1523612067023,-131072,74,-56,-1,-1,0
1523612067023,-196608,74,-56,-1,-1,0
1523612067063,-393216,74,-56,-1,-1,0
1523612067063,-524288,74,-56,-1,-1,0
1523612067063,-720896,74,-56,-1,-1,0
1523612067063,-917504,74,-56,-1,-1,0
1523612067063,-851968,74,-56,-1,-1,0
1523612067103,-589824,74,-56,-1,-1,0
1523612067103,-458752,74,-56,-1,-1,0
1523612067103,-655360,74,-56,-1,-1,0
1523612067103,-851968,74,-56,-1,-1,0
1523612067103,-917504,74,-56,-1,-1,0
1523612067143,-851968,74,-56,-1,-1,0
1523612067143,-720896,74,-56,-1,-1,0
1523612067143,-589824,74,-56,-1,-1,0
1523612067143,-393216,74,-56,-1,-1,0
1523612067143,-327680,74,-56,-1,-1,0
1523612067183,-393216,74,-56,-1,-1,0
1523612067183,-524288,74,-56,-1,-1,0
1523612067183,-393216,74,-56,-1,-1,0
1523612067183,-327680,74,-56,-1,-1,0
1523612067183,-393216,74,-56,-1,-1,0
1523612067223,-524288,74,-56,-1,-1,0
1523612067223,-589824,74,-56,-1,-1,0
1523612067223,-720896,74,-56,-1,-1,0
1523612067223,-786432,74,-56,-1,-1,0
1523612067223,-917504,74,-56,-1,-1,0
1523612067263,-851968,74,-56,-1,-1,0
1523612067263,65536,74,-56,-1,-1,0
1523612067263,2686976,74,-56,-1,-1,0
1523612067263,6619136,74,-56,-1,-1,0
1523612067263,9437184,74,-56,-1,-1,0
1523612067303,7602176,75,-56,-1,-1,0
1523612067303,2490368,75,-56,-1,-1,0
1523612067303,-1245184,75,-56,-1,-1,0
1523612067303,-1835008,75,-56,-1,-1,0
1523612067303,-1441792,75,-56,-1,-1,0
1523612067343,-1245184,75,-56,-1,-1,0
1523612067343,-1114112,75,-56,-1,-1,0
1523612067343,-917504,75,-56,-1,-1,0
1523612067343,-720896,75,-56,-1,-1,0
1523612067343,-786432,75,-56,-1,-1,0
1523612067383,-720896,75,-56,-1,-1,0
1523612067383,-720896,75,-56,-1,-1,0
1523612067383,-720896,75,-56,-1,-1,0
1523612067383,-655360,75,-56,-1,-1,0
1523612067383,-589824,75,-56,-1,-1,0
1523612067423,-524288,75,-56,-1,-1,0
1523612067423,-458752,75,-56,-1,-1,0
1523612067423,-655360,75,-56,-1,-1,0
1523612067423,-786432,75,-56,-1,-1,0
1523612067423,-720896,75,-56,-1,-1,0
1523612067463,-458752,75,-56,-1,-1,0
1523612067463,-131072,75,-56,-1,-1,0
1523612067463,65536,75,-56,-1,-1,0
1523612067463,131072,75,-56,-1,-1,0
1523612067463,131072,75,-56,-1,-1,0
1523612067503,327680,75,-56,-1,-1,0
1523612067503,589824,75,-56,-1,-1,0
1523612067503,655360,75,-56,-1,-1,0
1523612067503,655360,75,-56,-1,-1,0
1523612067503,917504,75,-56,-1,-1,0
1523612067545,1179648,75,-56,-1,-1,0
1523612067545,1114112,75,-56,-1,-1,0
1523612067545,917504,75,-56,-1,-1,0
1523612067545,917504,75,-56,-1,-1,0
1523612067545,851968,75,-56,-1,-1,0
1523612067583,786432,75,-56,-1,-1,0
1523612067583,720896,75,-56,-1,-1,0
1523612067583,524288,75,-56,-1,-1,0
1523612067583,327680,75,-56,-1,-1,0
1523612067583,0,75,-56,-1,-1,0
1523612067623,-262144,75,-56,-1,-1,0
1523612067623,-262144,75,-56,-1,-1,0
1523612067623,-65536,75,-56,-1,-1,0
1523612067623,-65536,75,-56,-1,-1,0
1523612067623,-65536,75,-56,-1,-1,0
1523612067663,-131072,75,-56,-1,-1,0
1523612067663,-196608,75,-56,-1,-1,0
1523612067663,-196608,75,-56,-1,-1,0
1523612067663,-196608,75,-56,-1,-1,0
1523612067663,-327680,75,-56,-1,-1,0
1523612067703,-327680,75,-56,-1,-1,0
1523612067703,-327680,75,-56,-1,-1,0
1523612067703,-393216,75,-56,-1,-1,0
1523612067703,-458752,75,-56,-1,-1,0
1523612067703,-262144,75,-56,-1,-1,0
1523612067743,-262144,75,-56,-1,-1,0
1523612067743,-458752,75,-56,-1,-1,0
1523612067743,-524288,75,-56,-1,-1,0
1523612067743,-458752,75,-56,-1,-1,0
1523612067743,-393216,75,-56,-1,-1,0
1523612067783,-458752,75,-56,-1,-1,0
1523612067783,-524288,75,-56,-1,-1,0
1523612067783,-589824,75,-56,-1,-1,0
1523612067783,-524288,75,-56,-1,-1,0
1523612067783,-524288,75,-56,-1,-1,0
1523612067823,-589824,75,-56,-1,-1,0
1523612067823,-589824,75,-56,-1,-1,0
1523612067823,-589824,75,-56,-1,-1,0
1523612067823,-655360,75,-56,-1,-1,0
1523612067823,-720896,75,-56,-1,-1,0
1523612067863,-917504,75,-56,-1,-1,0
1523612067863,-917504,75,-56,-1,-1,0
1523612067863,-786432,75,-56,-1,-1,0
1523612067863,-786432,75,-56,-1,-1,0
1523612067863,-851968,75,-56,-1,-1,0
1523612067903,-786432,75,-56,-1,-1,0
1523612067903,-589824,75,-56,-1,-1,0
1523612067903,-524288,75,-56,-1,-1,0
1523612067903,-393216,75,-56,-1,-1,0
1523612067903,-262144,75,-56,-1,-1,0
1523612067943,-327680,75,-56,-1,-1,0
1523612067943,-393216,75,-56,-1,-1,0
1523612067943,-393216,75,-56,-1,-1,0
1523612067943,-458752,75,-56,-1,-1,0
1523612067943,-524288,75,-56,-1,-1,0
1523612067983,-589824,75,-56,-1,-1,0
1523612067983,-589824,75,-56,-1,-1,0
1523612067983,-655360,75,-56,-1,-1,0
1523612067983,-786432,75,-56,-1,-1,0
1523612067983,-983040,75,-56,-1,-1,0
1523612068023,-786432,75,-56,-1,-1,0
1523612068023,458752,75,-56,-1,-1,0
1523612068023,3473408,75,-56,-1,-1,0
1523612068023,7340032,75,-56,-1,-1,0
1523612068023,9437184,75,-56,-1,-1,0
1523612068063,6815744,75,-56,-1,-1,0
1523612068063,1900544,75,-56,-1,-1,0
1523612068063,-1310720,75,-56,-1,-1,0
1523612068063,-1703936,75,-56,-1,-1,0
1523612068063,-1310720,75,-56,-1,-1,0
1523612068103,-1048576,75,-56,-1,-1,0
1523612068103,-851968,75,-56,-1,-1,0
1523612068103,-851968,75,-56,-1,-1,0
1523612068103,-851968,75,-56,-1,-1,0
1523612068103,-851968,75,-56,-1,-1,0
1523612068143,-786432,75,-56,-1,-1,0
1523612068143,-720896,75,-56,-1,-1,0
1523612068143,-655360,75,-56,-1,-1,0
1523612068143,-655360,75,-56,-1,-1,0
1523612068143,-720896,75,-56,-1,-1,0
1523612068184,-786432,75,-56,-1,-1,0
1523612068184,-786432,75,-56,-1,-1,0
1523612068184,-720896,75,-56,-1,-1,0
1523612068184,-524288,75,-56,-1,-1,0
1523612068184,-393216,75,-56,-1,-1,0
1523612068223,-262144,75,-56,-1,-1,0
1523612068223,-196608,75,-56,-1,-1,0
1523612068223,0,75,-56,-1,-1,0
1523612068223,327680,75,-56,-1,-1,0
1523612068223,327680,75,-56,-1,-1,0
1523612068263,262144,75,-56,-1,-1,0
1523612068263,327680,75,-56,-1,-1,0
1523612068263,655360,75,-56,-1,-1,0
1523612068263,917504,75,-56,-1,-1,0
1523612068263,851968,75,-56,-1,-1,0
1523612068303,917504,75,-56,-1,-1,0
1523612068303,983040,75,-56,-1,-1,0
1523612068303,1048576,75,-56,-1,-1,0
1523612068303,851968,75,-56,-1,-1,0
1523612068303,720896,75,-56,-1,-1,0
1523612068343,655360,75,-56,-1,-1,0
1523612068343,655360,75,-56,-1,-1,0
1523612068343,327680,75,-56,-1,-1,0
1523612068343,0,75,-56,-1,-1,0
1523612068343,-65536,75,-56,-1,-1,0
1523612068383,0,75,-56,-1,-1,0
1523612068383,-65536,75,-56,-1,-1,0
1523612068383,-131072,75,-56,-1,-1,0
1523612068383,-196608,75,-56,-1,-1,0
1523612068383,-131072,75,-56,-1,-1,0
1523612068423,-65536,75,-56,-1,-1,0
1523612068423,-196608,75,-56,-1,-1,0
1523612068423,-458752,75,-56,-1,-1,0
1523612068423,-458752,75,-56,-1,-1,0
1523612068423,-393216,75,-56,-1,-1,0
1523612068463,-327680,75,-56,-1,-1,0
1523612068463,-393216,75,-56,-1,-1,0
1523612068463,-393216,75,-56,-1,-1,0
1523612068463,-458752,75,-56,-1,-1,0
1523612068463,-393216,75,-56,-1,-1,0
1523612068503,-393216,75,-56,-1,-1,0
1523612068503,-524288,75,-56,-1,-1,0
1523612068503,-655360,75,-56,-1,-1,0
1523612068503,-720896,75,-56,-1,-1,0
1523612068503,-589824,75,-56,-1,-1,0
1523612068543,-589824,75,-56,-1,-1,0
1523612068543,-655360,75,-56,-1,-1,0
1523612068543,-655360,75,-56,-1,-1,0
1523612068543,-655360,75,-56,-1,-1,0
1523612068543,-589824,75,-56,-1,-1,0
1523612068583,-589824,75,-56,-1,-1,0
1523612068583,-720896,75,-56,-1,-1,0
1523612068583,-786432,75,-56,-1,-1,0
1523612068583,-786432,75,-56,-1,-1,0
1523612068583,-720896,75,-56,-1,-1,0
1523612068623,-720896,75,-56,-1,-1,0
1523612068623,-786432,75,-56,-1,-1,0
1523612068623,-786432,75,-56,-1,-1,0
1523612068623,-786432,75,-56,-1,-1,0
1523612068623,-786432,75,-56,-1,-1,0
1523612068663,-786432,75,-56,-1,-1,0
1523612068663,-720896,75,-56,-1,-1,0
1523612068663,-655360,75,-56,-1,-1,0
1523612068663,-458752,75,-56,-1,-1,0
1523612068663,-327680,75,-56,-1,-1,0
1523612068703,-262144,75,-56,-1,-1,0
1523612068703,-196608,75,-56,-1,-1,0
1523612068703,-196608,75,-56,-1,-1,0
1523612068703,-262144,75,-56,-1,-1,0
1523612068703,-196608,75,-56,-1,-1,0
1523612068743,-262144,75,-56,-1,-1,0
1523612068743,-327680,75,-56,-1,-1,0
1523612068743,-524288,75,-56,-1,-1,0
1523612068743,-589824,75,-56,-1,-1,0
1523612068743,-655360,75,-56,-1,-1,0
1523612068783,-655360,75,-56,-1,-1,0
1523612068783,-720896,75,-56,-1,-1,0
1523612068783,-196608,75,-56,-1,-1,0
1523612068783,1769472,75,-56,-1,-1,0
1523612068783,5308416,75,-56,-1,-1,0
1523612068824,8192000,75,-56,-1,-1,0
1523612068824,7471104,75,-56,-1,-1,0
1523612068824,3211264,75,-56,-1,-1,0
1523612068824,-720896,75,-56,-1,-1,0
1523612068824,-1835008,75,-56,-1,-1,0
1523612068863,-1376256,76,-56,-1,-1,0
1523612068863,-917504,76,-56,-1,-1,0
1523612068863,-851968,76,-56,-1,-1,0
1523612068863,-786432,76,-56,-1,-1,0
1523612068863,-786432,76,-56,-1,-1,0
1523612068903,-655360,76,-56,-1,-1,0
1523612068903,-720896,76,-56,-1,-1,0
1523612068903,-720896,76,-56,-1,-1,0
1523612068903,-786432,76,-56,-1,-1,0
1523612068903,-786432,76,-56,-1,-1,0
1523612068943,-720896,76,-56,-1,-1,0
1523612068943,-589824,76,-56,-1,-1,0
1523612068943,-458752,76,-56,-1,-1,0
1523612068943,-393216,76,-56,-1,-1,0
1523612068943,-458752,76,-56,-1,-1,0
1523612068983,-393216,76,-56,-1,-1,0
1523612068983,-262144,76,-56,-1,-1,0
1523612068983,-131072,76,-56,-1,-1,0
1523612068983,0,76,-56,-1,-1,0
1523612068983,0,76,-56,-1,-1,0
1523612069023,196608,76,-56,-1,-1,0
1523612069023,393216,76,-56,-1,-1,0
1523612069023,524288,76,-56,-1,-1,0
1523612069023,655360,76,-56,-1,-1,0
1523612069023,851968,76,-56,-1,-1,0
1523612069063,917504,76,-56,-1,-1,0
1523612069063,1048576,76,-56,-1,-1,0
1523612069063,1114112,76,-56,-1,-1,0
1523612069063,1179648,76,-56,-1,-1,0
1523612069063,1179648,76,-56,-1,-1,0
1523612069103,1048576,76,-56,-1,-1,0
1523612069103,851968,76,-56,-1,-1,0
1523612069103,655360,76,-56,-1,-1,0
1523612069103,458752,76,-56,-1,-1,0
1523612069103,262144,76,-56,-1,-1,0
1523612069143,65536,76,-56,-1,-1,0
1523612069143,0,76,-56,-1,-1,0
1523612069143,-65536,76,-56,-1,-1,0
1523612069143,-131072,76,-56,-1,-1,0
1523612069143,-131072,76,-56,-1,-1,0
1523612069183,-131072,76,-56,-1,-1,0
1523612069183,-196608,76,-56,-1,-1,0
1523612069183,-262144,76,-56,-1,-1,0
1523612069183,-262144,76,-56,-1,-1,0
1523612069183,-327680,76,-56,-1,-1,0
1523612069223,-327680,76,-56,-1,-1,0
1523612069223,-393216,76,-56,-1,-1,0
1523612069223,-458752,76,-56,-1,-1,0
1523612069223,-458752,76,-56,-1,-1,0
1523612069223,-524288,76,-56,-1,-1,0
1523612069263,-524288,76,-56,-1,-1,0
1523612069263,-524288,76,-56,-1,-1,0
1523612069263,-524288,76,-56,-1,-1,0
1523612069263,-524288,76,-56,-1,-1,0
1523612069263,-589824,76,-56,-1,-1,0
1523612069303,-589824,76,-56,-1,-1,0
1523612069303,-524288,76,-56,-1,-1,0
1523612069303,-524288,76,-56,-1,-1,0
1523612069303,-655360,76,-56,-1,-1,0
1523612069303,-720896,76,-56,-1,-1,0
1523612069343,-720896,76,-56,-1,-1,0
1523612069343,-720896,76,-56,-1,-1,0
1523612069343,-589824,76,-56,-1,-1,0
1523612069343,-589824,76,-56,-1,-1,0
1523612069343,-655360,76,-56,-1,-1,0
1523612069383,-655360,76,-56,-1,-1,0
1523612069383,-589824,76,-56,-1,-1,0
1523612069383,-589824,76,-56,-1,-1,0
1523612069383,-655360,76,-56,-1,-1,0
1523612069383,-720896,76,-56,-1,-1,0
1523612069423,-720896,76,-56,-1,-1,0
1523612069423,-786432,76,-56,-1,-1,0
1523612069423,-786432,76,-56,-1,-1,0
1523612069423,-720896,76,-56,-1,-1,0
1523612069423,-589824,76,-56,-1,-1,0
1523612069464,-327680,76,-56,-1,-1,0
1523612069464,-262144,76,-56,-1,-1,0
1523612069464,-262144,76,-56,-1,-1,0
1523612069464,-393216,76,-56,-1,-1,0
1523612069464,-458752,76,-56,-1,-1,0
1523612069503,-524288,76,-56,-1,-1,0
1523612069503,-589824,76,-56,-1,-1,0
1523612069503,-589824,76,-56,-1,-1,0
1523612069503,-524288,76,-56,-1,-1,0
1523612069503,-524288,76,-56,-1,-1,0
1523612069543,-589824,76,-56,-1,-1,0
1523612069543,-655360,76,-56,-1,-1,0
1523612069543,-786432,76,-56,-1,-1,0
1523612069543,-851968,76,-56,-1,-1,0
1523612069543,-196608,76,-56,-1,-1,0
1523612069583,1638400,76,-56,-1,-1,0
1523612069583,4849664,76,-56,-1,-1,0
1523612069583,7274496,76,-56,-1,-1,0
1523612069583,6422528,76,-56,-1,-1,0
1523612069583,2424832,76,-56,-1,-1,0
1523612069623,-1179648,76,-56,-1,-1,0
1523612069623,-2162688,76,-56,-1,-1,0
1523612069623,-1638400,76,-56,-1,-1,0
1523612069623,-1245184,76,-56,-1,-1,0
1523612069623,-1179648,76,-56,-1,-1,0
1523612069663,-1048576,76,-56,-1,-1,0
1523612069663,-851968,76,-56,-1,-1,0
1523612069663,-786432,76,-56,-1,-1,0
1523612069663,-851968,76,-56,-1,-1,0
1523612069663,-851968,76,-56,-1,-1,0
1523612069703,-786432,76,-56,-1,-1,0
1523612069703,-786432,76,-56,-1,-1,0
1523612069703,-851968,76,-56,-1,-1,0
1523612069703,-786432,76,-56,-1,-1,0
1523612069703,-786432,76,-56,-1,-1,0
1523612069743,-655360,76,-56,-1,-1,0
1523612069743,-524288,76,-56,-1,-1,0
1523612069743,-458752,76,-56,-1,-1,0
1523612069743,-458752,76,-56,-1,-1,0
1523612069743,-262144,76,-56,-1,-1,0
1523612069783,-65536,76,-56,-1,-1,0
1523612069783,0,76,-56,-1,-1,0
1523612069783,65536,76,-56,-1,-1,0
1523612069783,262144,76,-56,-1,-1,0
1523612069783,458752,76,-56,-1,-1,0
1523612069823,589824,76,-56,-1,-1,0
1523612069823,655360,76,-56,-1,-1,0
1523612069823,720896,76,-56,-1,-1,0
1523612069823,851968,76,-56,-1,-1,0
1523612069823,851968,76,-56,-1,-1,0
1523612069863,851968,76,-56,-1,-1,0
1523612069863,851968,76,-56,-1,-1,0
1523612069863,917504,76,-56,-1,-1,0
1523612069863,851968,76,-56,-1,-1,0
1523612069863,720896,76,-56,-1,-1,0
1523612069903,524288,76,-56,-1,-1,0
1523612069903,327680,76,-56,-1,-1,0
1523612069903,65536,76,-56,-1,-1,0
1523612069903,-65536,76,-56,-1,-1,0
1523612069903,-196608,76,-56,-1,-1,0
1523612069943,-196608,76,-56,-1,-1,0
1523612069943,-196608,76,-56,-1,-1,0
1523612069943,-262144,76,-56,-1,-1,0
1523612069943,-196608,76,-56,-1,-1,0
1523612069943,-131072,76,-56,-1,-1,0
1523612069983,-196608,76,-56,-1,-1,0
1523612069983,-327680,76,-56,-1,-1,0
1523612069983,-262144,76,-56,-1,-1,0
1523612069983,-196608,76,-56,-1,-1,0
1523612069983,-327680,76,-56,-1,-1,0
1523612070023,-458752,76,-56,-1,-1,0
1523612070023,-458752,76,-56,-1,-1,0
1523612070023,-393216,76,-56,-1,-1,0
1523612070023,-458752,76,-56,-1,-1,0
1523612070023,-524288,76,-56,-1,-1,0
1523612070063,-589824,76,-56,-1,-1,0
1523612070063,-589824,76,-56,-1,-1,0
1523612070063,-524288,76,-56,-1,-1,0
1523612070063,-393216,76,-56,-1,-1,0
1523612070063,-524288,76,-56,-1,-1,0
1523612070104,-655360,76,-56,-1,-1,0
1523612070104,-655360,76,-56,-1,-1,0
1523612070104,-589824,76,-56,-1,-1,0
1523612070104,-655360,76,-56,-1,-1,0
1523612070104,-786432,76,-56,-1,-1,0
1523612070143,-720896,76,-56,-1,-1,0
1523612070143,-589824,76,-56,-1,-1,0
1523612070143,-589824,76,-56,-1,-1,0
1523612070143,-720896,76,-56,-1,-1,0
1523612070143,-786432,76,-56,-1,-1,0
1523612070183,-786432,76,-56,-1,-1,0
1523612070183,-786432,76,-56,-1,-1,0
1523612070183,-720896,76,-56,-1,-1,0
1523612070183,-589824,76,-56,-1,-1,0
1523612070183,-589824,76,-56,-1,-1,0
1523612070223,-524288,76,-56,-1,-1,0
1523612070223,-327680,76,-56,-1,-1,0
1523612070223,-196608,76,-56,-1,-1,0
1523612070223,-262144,76,-56,-1,-1,0
1523612070223,-262144,76,-56,-1,-1,0
1523612070263,-327680,76,-56,-1,-1,0
1523612070263,-524288,76,-56,-1,-1,0
1523612070263,-655360,76,-56,-1,-1,0
1523612070263,-589824,76,-56,-1,-1,0
1523612070263,-524288,76,-56,-1,-1,0
1523612070303,-524288,76,-56,-1,-1,0
1523612070303,-589824,76,-56,-1,-1,0
1523612070303,-655360,76,-56,-1,-1,0
1523612070303,-458752,76,-56,-1,-1,0
1523612070303,720896,76,-56,-1,-1,0
1523612070343,3735552,76,-56,-1,-1,0
1523612070343,7602176,76,-56,-1,-1,0
1523612070343,9371648,76,-56,-1,-1,0
1523612070343,6488064,76,-56,-1,-1,0
1523612070343,1310720,76,-56,-1,-1,0
1523612070383,-2097152,77,-56,-1,-1,0
1523612070383,-2228224,77,-56,-1,-1,0
1523612070383,-1310720,77,-56,-1,-1,0
1523612070383,-786432,77,-56,-1,-1,0
1523612070383,-589824,77,-56,-1,-1,0
1523612070423,-393216,77,-56,-1,-1,0
1523612070423,-262144,77,-56,-1,-1,0
1523612070423,-262144,77,-56,-1,-1,0
1523612070423,-262144,77,-56,-1,-1,0
1523612070423,-327680,77,-56,-1,-1,0
1523612070463,-262144,77,-56,-1,-1,0
1523612070463,-196608,77,-56,-1,-1,0
1523612070463,-65536,77,-56,-1,-1,0
1523612070463,-131072,77,-56,-1,-1,0
1523612070463,-131072,77,-56,-1,-1,0
1523612070503,-65536,77,-56,-1,-1,0
1523612070503,65536,77,-56,-1,-1,0
1523612070503,196608,77,-56,-1,-1,0
1523612070503,327680,77,-56,-1,-1,0
1523612070503,524288,77,-56,-1,-1,0
1523612070543,655360,77,-56,-1,-1,0
1523612070543,851968,77,-56,-1,-1,0
1523612070543,1048576,77,-56,-1,-1,0
1523612070543,1179648,77,-56,-1,-1,0
1523612070543,1310720,77,-56,-1,-1,0
1523612070583,1507328,77,-56,-1,-1,0
1523612070583,1769472,77,-56,-1,-1,0
1523612070583,1835008,77,-56,-1,-1,0
1523612070583,1835008,77,-56,-1,-1,0
1523612070583,1769472,77,-56,-1,-1,0
1523612070623,1769472,77,-56,-1,-1,0
1523612070623,1703936,77,-56,-1,-1,0
1523612070623,1507328,77,-56,-1,-1,0
1523612070623,1179648,77,-56,-1,-1,0
1523612070623,851968,77,-56,-1,-1,0
1523612070663,655360,77,-56,-1,-1,0
1523612070663,524288,77,-56,-1,-1,0
1523612070663,327680,77,-56,-1,-1,0
1523612070663,131072,77,-56,-1,-1,0
1523612070663,65536,77,-56,-1,-1,0
1523612070703,0,77,-56,-1,-1,0
1523612070703,0,77,-56,-1,-1,0
1523612070703,65536,77,-56,-1,-1,0
1523612070703,131072,77,-56,-1,-1,0
1523612070703,131072,77,-56,-1,-1,0
1523612070744,196608,77,-56,-1,-1,0
1523612070744,196608,77,-56,-1,-1,0
1523612070744,131072,77,-56,-1,-1,0
1523612070744,0,77,-56,-1,-1,0
1523612070744,65536,77,-56,-1,-1,0
1523612070783,131072,77,-56,-1,-1,0
1523612070783,65536,77,-56,-1,-1,0
1523612070783,0,77,-56,-1,-1,0
1523612070783,-131072,77,-56,-1,-1,0
1523612070783,-131072,77,-56,-1,-1,0
1523612070823,-196608,77,-56,-1,-1,0
1523612070823,-262144,77,-56,-1,-1,0
1523612070823,-327680,77,-56,-1,-1,0
1523612070823,-196608,77,-56,-1,-1,0
1523612070823,-196608,77,-56,-1,-1,0
1523612070863,-327680,77,-56,-1,-1,0
1523612070863,-327680,77,-56,-1,-1,0
1523612070863,-262144,77,-56,-1,-1,0
1523612070863,-262144,77,-56,-1,-1,0
1523612070863,-262144,77,-56,-1,-1,0
1523612070903,-327680,77,-56,-1,-1,0
1523612070903,-458752,77,-56,-1,-1,0
1523612070903,-524288,77,-56,-1,-1,0
1523612070903,-458752,77,-56,-1,-1,0
1523612070903,-458752,77,-56,-1,-1,0
1523612070943,-524288,77,-56,-1,-1,0
1523612070943,-524288,77,-56,-1,-1,0
1523612070943,-327680,77,-56,-1,-1,0
1523612070943,-262144,77,-56,-1,-1,0
1523612070943,-393216,77,-56,-1,-1,0
1523612070983,-458752,77,-56,-1,-1,0
1523612070983,-327680,77,-56,-1,-1,0
1523612070983,-262144,77,-56,-1,-1,0
1523612070983,-458752,77,-56,-1,-1,0
1523612070983,-524288,77,-56,-1,-1,0
1523612071023,-458752,77,-56,-1,-1,0
1523612071023,-524288,77,-56,-1,-1,0
1523612071023,-720896,77,-56,-1,-1,0
1523612071023,-786432,77,-56,-1,-1,0
1523612071023,-917504,77,-56,-1,-1,0
1523612071063,-1048576,77,-56,-1,-1,0
1523612071063,-851968,77,-56,-1,-1,0
1523612071063,327680,77,-56,-1,-1,0
1523612071063,3014656,77,-56,-1,-1,0
1523612071063,6684672,77,-56,-1,-1,0
1523612071103,8978432,77,-56,-1,-1,0
1523612071103,6815744,77,-56,-1,-1,0
1523612071103,1769472,77,-56,-1,-1,0
1523612071103,-1769472,77,-56,-1,-1,0
1523612071103,-2097152,77,-56,-1,-1,0
1523612071143,-1441792,77,-56,-1,-1,0
1523612071143,-1048576,77,-56,-1,-1,0
1523612071143,-917504,77,-56,-1,-1,0
1523612071143,-917504,77,-56,-1,-1,0
1523612071143,-851968,77,-56,-1,-1,0
1523612071183,-786432,77,-56,-1,-1,0
1523612071183,-720896,77,-56,-1,-1,0
1523612071183,-720896,77,-56,-1,-1,0
1523612071183,-786432,77,-56,-1,-1,0
1523612071183,-720896,77,-56,-1,-1,0
1523612071223,-589824,77,-56,-1,-1,0
1523612071223,-524288,77,-56,-1,-1,0
1523612071223,-524288,77,-56,-1,-1,0
1523612071223,-458752,77,-56,-1,-1,0
1523612071223,-458752,77,-56,-1,-1,0
1523612071263,-262144,77,-56,-1,-1,0
1523612071263,-65536,77,-56,-1,-1,0
1523612071263,65536,77,-56,-1,-1,0
1523612071263,0,77,-56,-1,-1,0
1523612071263,65536,77,-56,-1,-1,0
1523612071303,262144,77,-56,-1,-1,0
1523612071303,524288,77,-56,-1,-1,0
1523612071303,720896,77,-56,-1,-1,0
1523612071303,983040,77,-56,-1,-1,0
1523612071303,1114112,77,-56,-1,-1,0
1523612071343,1114112,77,-56,-1,-1,0
1523612071343,1048576,77,-56,-1,-1,0
1523612071343,1048576,77,-56,-1,-1,0
1523612071343,1114112,77,-56,-1,-1,0
1523612071343,1048576,77,-56,-1,-1,0
1523612071384,851968,77,-56,-1,-1,0
1523612071384,589824,77,-56,-1,-1,0
1523612071384,393216,77,-56,-1,-1,0
1523612071384,131072,77,-56,-1,-1,0
1523612071384,0,77,-56,-1,-1,0
1523612071423,-262144,77,-56,-1,-1,0
1523612071423,-327680,77,-56,-1,-1,0
1523612071423,-262144,77,-56,-1,-1,0
1523612071423,-262144,77,-56,-1,-1,0
1523612071423,-327680,77,-56,-1,-1,0
1523612071463,-262144,77,-56,-1,-1,0
1523612071463,-131072,77,-56,-1,-1,0
1523612071463,-196608,77,-56,-1,-1,0
1523612071463,-393216,77,-56,-1,-1,0
1523612071463,-393216,77,-56,-1,-1,0
1523612071503,-327680,77,-56,-1,-1,0
1523612071503,-458752,77,-56,-1,-1,0
1523612071503,-655360,77,-56,-1,-1,0
1523612071503,-655360,77,-56,-1,-1,0
1523612071503,-524288,77,-56,-1,-1,0
1523612071543,-393216,77,-56,-1,-1,0
1523612071543,-458752,77,-56,-1,-1,0
1523612071543,-458752,77,-56,-1,-1,0
1523612071543,-524288,77,-56,-1,-1,0
1523612071543,-655360,77,-56,-1,-1,0
1523612071583,-851968,77,-56,-1,-1,0
1523612071583,-720896,77,-56,-1,-1,0
1523612071583,-589824,77,-56,-1,-1,0
1523612071583,-524288,77,-56,-1,-1,0
1523612071583,-655360,77,-56,-1,-1,0
1523612071623,-786432,77,-56,-1,-1,0
1523612071623,-851968,77,-56,-1,-1,0
1523612071623,-917504,77,-56,-1,-1,0
1523612071623,-917504,77,-56,-1,-1,0
1523612071623,-851968,77,-56,-1,-1,0
1523612071663,-786432,77,-56,-1,-1,0
1523612071663,-786432,77,-56,-1,-1,0
1523612071663,-851968,77,-56,-1,-1,0
1523612071663,-983040,77,-56,-1,-1,0
1523612071663,-917504,77,-56,-1,-1,0
1523612071703,-720896,77,-56,-1,-1,0
1523612071703,-589824,77,-56,-1,-1,0
1523612071703,-589824,77,-56,-1,-1,0
1523612071703,-655360,77,-56,-1,-1,0
1523612071703,-524288,77,-56,-1,-1,0
1523612071743,-393216,77,-56,-1,-1,0
1523612071743,-458752,77,-56,-1,-1,0
1523612071743,-655360,77,-56,-1,-1,0
1523612071743,-786432,77,-56,-1,-1,0
1523612071743,-655360,77,-56,-1,-1,0
1523612071783,-655360,77,-56,-1,-1,0
1523612071783,-786432,77,-56,-1,-1,0
1523612071783,-851968,77,-56,-1,-1,0
1523612071783,-851968,77,-56,-1,-1,0
1523612071783,-917504,77,-56,-1,-1,0
1523612071823,-524288,77,-56,-1,-1,0
1523612071823,851968,77,-56,-1,-1,0
1523612071823,3735552,77,-56,-1,-1,0
1523612071823,6946816,77,-56,-1,-1,0
1523612071823,7864320,77,-56,-1,-1,0
1523612071863,4849664,78,-56,-1,-1,0
1523612071863,524288,78,-56,-1,-1,0
1523612071863,-1638400,78,-56,-1,-1,0
1523612071863,-1703936,78,-56,-1,-1,0
1523612071863,-1310720,78,-56,-1,-1,0
1523612071903,-983040,78,-56,-1,-1,0
1523612071903,-786432,78,-56,-1,-1,0
1523612071903,-851968,78,-56,-1,-1,0
1523612071903,-786432,78,-56,-1,-1,0
1523612071903,-655360,78,-56,-1,-1,0
1523612071943,-458752,78,-56,-1,-1,0
1523612071943,-524288,78,-56,-1,-1,0
1523612071943,-786432,78,-56,-1,-1,0
1523612071943,-983040,78,-56,-1,-1,0
1523612071943,-917504,78,-56,-1,-1,0
1523612071983,-786432,78,-56,-1,-1,0
1523612071983,-720896,78,-56,-1,-1,0
1523612071983,-589824,78,-56,-1,-1,0
1523612071983,-393216,78,-56,-1,-1,0
1523612071983,-262144,78,-56,-1,-1,0
1523612072024,-262144,78,-56,-1,-1,0
1523612072024,-65536,78,-56,-1,-1,0
1523612072024,65536,78,-56,-1,-1,0
1523612072024,262144,78,-56,-1,-1,0
1523612072024,458752,78,-56,-1,-1,0
1523612072063,524288,78,-56,-1,-1,0
1523612072063,524288,78,-56,-1,-1,0
1523612072063,655360,78,-56,-1,-1,0
1523612072063,786432,78,-56,-1,-1,0
1523612072063,917504,78,-56,-1,-1,0
1523612072103,917504,78,-56,-1,-1,0
1523612072103,917504,78,-56,-1,-1,0
1523612072103,983040,78,-56,-1,-1,0
1523612072103,1048576,78,-56,-1,-1,0
1523612072103,917504,78,-56,-1,-1,0
1523612072143,589824,78,-56,-1,-1,0
1523612072143,393216,78,-56,-1,-1,0
1523612072143,327680,78,-56,-1,-1,0
1523612072143,196608,78,-56,-1,-1,0
1523612072143,0,78,-56,-1,-1,0
1523612072183,-196608,78,-56,-1,-1,0
1523612072183,-393216,78,-56,-1,-1,0
1523612072183,-524288,78,-56,-1,-1,0
1523612072183,-393216,78,-56,-1,-1,0
1523612072183,-262144,78,-56,-1,-1,0
1523612072223,-262144,78,-56,-1,-1,0
1523612072223,-327680,78,-56,-1,-1,0
1523612072223,-262144,78,-56,-1,-1,0
1523612072223,-262144,78,-56,-1,-1,0
1523612072223,-393216,78,-56,-1,-1,0
1523612072263,-458752,78,-56,-1,-1,0
1523612072263,-393216,78,-56,-1,-1,0
1523612072263,-327680,78,-56,-1,-1,0
1523612072263,-327680,78,-56,-1,-1,0
1523612072263,-327680,78,-56,-1,-1,0
1523612072303,-524288,78,-56,-1,-1,0
1523612072303,-655360,78,-56,-1,-1,0
1523612072303,-655360,78,-56,-1,-1,0
1523612072303,-589824,78,-56,-1,-1,0
1523612072303,-589824,78,-56,-1,-1,0
1523612072343,-655360,78,-56,-1,-1,0
1523612072343,-589824,78,-56,-1,-1,0
1523612072343,-458752,78,-56,-1,-1,0
1523612072343,-393216,78,-56,-1,-1,0
1523612072343,-589824,78,-56,-1,-1,0
1523612072383,-786432,78,-56,-1,-1,0
1523612072383,-720896,78,-56,-1,-1,0
1523612072383,-655360,78,-56,-1,-1,0
1523612072383,-720896,78,-56,-1,-1,0
1523612072383,-851968,78,-56,-1,-1,0
1523612072423,-786432,78,-56,-1,-1,0
1523612072423,-720896,78,-56,-1,-1,0
1523612072423,-655360,78,-56,-1,-1,0
1523612072423,-655360,78,-56,-1,-1,0
1523612072423,-655360,78,-56,-1,-1,0
1523612072463,-458752,78,-56,-1,-1,0
1523612072463,-393216,78,-56,-1,-1,0
1523612072463,-458752,78,-56,-1,-1,0
1523612072463,-458752,78,-56,-1,-1,0
1523612072463,-393216,78,-56,-1,-1,0
1523612072503,-327680,78,-56,-1,-1,0
1523612072503,-393216,78,-56,-1,-1,0
1523612072503,-393216,78,-56,-1,-1,0
1523612072503,-393216,78,-56,-1,-1,0
1523612072503,-524288,78,-56,-1,-1,0
1523612072543,-655360,78,-56,-1,-1,0
1523612072543,-524288,78,-56,-1,-1,0
1523612072543,-458752,78,-56,-1,-1,0
1523612072543,-524288,78,-56,-1,-1,0
1523612072543,-720896,78,-56,-1,-1,0
1523612072583,-262144,78,-56,-1,-1,0
1523612072583,1507328,78,-56,-1,-1,0
1523612072583,4980736,78,-56,-1,-1,0
1523612072583,8192000,78,-56,-1,-1,0
1523612072583,8060928,78,-56,-1,-1,0
1523612072623,3866624,78,-56,-1,-1,0
1523612072623,-655360,78,-56,-1,-1,0
1523612072623,-2293760,78,-56,-1,-1,0
1523612072623,-1900544,78,-56,-1,-1,0
1523612072623,-1048576,78,-56,-1,-1,0
1523612072665,-720896,78,-56,-1,-1,0
1523612072665,-786432,78,-56,-1,-1,0
1523612072665,-917504,78,-56,-1,-1,0
1523612072665,-786432,78,-56,-1,-1,0
1523612072665,-589824,78,-56,-1,-1,0
1523612072703,-524288,78,-56,-1,-1,0
1523612072703,-589824,78,-56,-1,-1,0
1523612072703,-655360,78,-56,-1,-1,0
1523612072703,-589824,78,-56,-1,-1,0
1523612072703,-458752,78,-56,-1,-1,0
1523612072743,-393216,78,-56,-1,-1,0
1523612072743,-393216,78,-56,-1,-1,0
1523612072743,-393216,78,-56,-1,-1,0
1523612072743,-458752,78,-56,-1,-1,0
1523612072743,-262144,78,-56,-1,-1,0
1523612072783,0,78,-56,-1,-1,0
1523612072783,131072,78,-56,-1,-1,0
1523612072783,196608,78,-56,-1,-1,0
1523612072783,393216,78,-56,-1,-1,0
1523612072783,655360,78,-56,-1,-1,0
1523612072823,851968,78,-56,-1,-1,0
1523612072823,983040,78,-56,-1,-1,0
1523612072823,1114112,78,-56,-1,-1,0
1523612072823,1245184,78,-56,-1,-1,0
1523612072823,1310720,78,-56,-1,-1,0
1523612072863,1310720,78,-56,-1,-1,0
1523612072863,1376256,78,-56,-1,-1,0
1523612072863,1376256,78,-56,-1,-1,0
1523612072863,1245184,78,-56,-1,-1,0
1523612072863,983040,78,-56,-1,-1,0
1523612072903,720896,78,-56,-1,-1,0
1523612072903,393216,78,-56,-1,-1,0
1523612072903,65536,78,-56,-1,-1,0
1523612072903,-131072,78,-56,-1,-1,0
1523612072903,-131072,78,-56,-1,-1,0
1523612072943,-65536,78,-56,-1,-1,0
1523612072943,-131072,78,-56,-1,-1,0
1523612072943,-262144,78,-56,-1,-1,0
1523612072943,-262144,78,-56,-1,-1,0
1523612072943,-327680,78,-56,-1,-1,0
1523612072983,-458752,78,-56,-1,-1,0
1523612072983,-589824,78,-56,-1,-1,0
1523612072983,-458752,78,-56,-1,-1,0
1523612072983,-327680,78,-56,-1,-1,0
1523612072983,-262144,78,-56,-1,-1,0
1523612073023,-131072,78,-56,-1,-1,0
1523612073023,-131072,78,-56,-1,-1,0
1523612073023,-327680,78,-56,-1,-1,0
1523612073023,-655360,78,-56,-1,-1,0
1523612073023,-720896,78,-56,-1,-1,0
1523612073063,-589824,78,-56,-1,-1,0
1523612073063,-589824,78,-56,-1,-1,0
1523612073063,-589824,78,-56,-1,-1,0
1523612073063,-458752,78,-56,-1,-1,0
1523612073063,-589824,78,-56,-1,-1,0
1523612073103,-786432,78,-56,-1,-1,0
1523612073103,-720896,78,-56,-1,-1,0
1523612073103,-524288,78,-56,-1,-1,0
1523612073103,-589824,78,-56,-1,-1,0
1523612073103,-720896,78,-56,-1,-1,0
1523612073143,-851968,78,-56,-1,-1,0
1523612073143,-917504,78,-56,-1,-1,0
1523612073143,-917504,78,-56,-1,-1,0
1523612073143,-851968,78,-56,-1,-1,0
1523612073143,-851968,78,-56,-1,-1,0
1523612073183,-917504,78,-56,-1,-1,0
1523612073183,-851968,78,-56,-1,-1,0
1523612073183,-720896,78,-56,-1,-1,0
1523612073183,-786432,78,-56,-1,-1,0
1523612073183,-983040,78,-56,-1,-1,0
1523612073223,-917504,78,-56,-1,-1,0
1523612073223,-655360,78,-56,-1,-1,0
1523612073223,-458752,78,-56,-1,-1,0
1523612073223,-458752,78,-56,-1,-1,0
1523612073223,-458752,78,-56,-1,-1,0
1523612073263,-589824,78,-56,-1,-1,0
1523612073263,-851968,78,-56,-1,-1,0
1523612073263,-917504,78,-56,-1,-1,0
1523612073263,-786432,78,-56,-1,-1,0
1523612073263,-786432,78,-56,-1,-1,0
1523612073304,-851968,78,-56,-1,-1,0
1523612073304,-917504,78,-56,-1,-1,0
1523612073304,-1048576,78,-56,-1,-1,0
1523612073304,-1048576,78,-56,-1,-1,0
1523612073304,-65536,78,-56,-1,-1,0
1523612073343,2555904,78,-56,-1,-1,0
1523612073343,6553600,78,-56,-1,-1,0
1523612073343,9502720,78,-56,-1,-1,0
1523612073343,8126464,78,-56,-1,-1,0
1523612073343,3080192,78,-56,-1,-1,0
1523612073383,-1179648,78,-56,-1,-1,0
1523612073383,-2097152,78,-56,-1,-1,0
1523612073383,-1507328,78,-56,-1,-1,0
1523612073383,-1048576,78,-56,-1,-1,0
1523612073383,-917504,78,-56,-1,-1,0
1523612073423,-851968,78,-56,-1,-1,0
1523612073423,-720896,78,-56,-1,-1,0
1523612073423,-655360,78,-56,-1,-1,0
1523612073423,-655360,78,-56,-1,-1,0
1523612073423,-655360,78,-56,-1,-1,0
1523612073463,-655360,78,-56,-1,-1,0
1523612073463,-589824,78,-56,-1,-1,0
1523612073463,-458752,78,-56,-1,-1,0
1523612073463,-393216,78,-56,-1,-1,0
1523612073463,-327680,78,-56,-1,-1,0
1523612073505,-262144,78,-56,-1,-1,0
1523612073505,-196608,78,-56,-1,-1,0
1523612073505,-131072,78,-56,-1,-1,0
1523612073505,0,78,-56,-1,-1,0
1523612073505,65536,78,-56,-1,-1,0
1523612073543,262144,78,-56,-1,-1,0
1523612073543,458752,78,-56,-1,-1,0
1523612073543,458752,78,-56,-1,-1,0
1523612073543,589824,78,-56,-1,-1,0
1523612073543,917504,78,-56,-1,-1,0
1523612073583,1179648,78,-56,-1,-1,0
1523612073583,1310720,78,-56,-1,-1,0
1523612073583,1310720,78,-56,-1,-1,0
1523612073583,1310720,78,-56,-1,-1,0
1523612073583,1310720,78,-56,-1,-1,0
1523612073623,1245184,78,-56,-1,-1,0
1523612073623,1245184,78,-56,-1,-1,0
1523612073623,1114112,78,-56,-1,-1,0
1523612073623,917504,78,-56,-1,-1,0
1523612073623,655360,78,-56,-1,-1,0
1523612073663,393216,78,-56,-1,-1,0
1523612073663,131072,78,-56,-1,-1,0
1523612073663,-65536,78,-56,-1,-1,0
1523612073663,-131072,78,-56,-1,-1,0
1523612073663,-131072,78,-56,-1,-1,0
1523612073703,-196608,78,-56,-1,-1,0
1523612073703,-262144,78,-56,-1,-1,0
1523612073703,-262144,78,-56,-1,-1,0
1523612073703,-262144,78,-56,-1,-1,0
1523612073703,-262144,78,-56,-1,-1,0
1523612073743,-196608,78,-56,-1,-1,0
1523612073743,-196608,78,-56,-1,-1,0
1523612073743,-131072,78,-56,-1,-1,0
1523612073743,-131072,78,-56,-1,-1,0
1523612073743,-131072,78,-56,-1,-1,0
1523612073783,-196608,78,-56,-1,-1,0
1523612073783,-262144,78,-56,-1,-1,0
1523612073783,-327680,78,-56,-1,-1,0
1523612073783,-327680,78,-56,-1,-1,0
1523612073783,-327680,78,-56,-1,-1,0
1523612073823,-458752,78,-56,-1,-1,0
1523612073823,-524288,78,-56,-1,-1,0
1523612073823,-393216,78,-56,-1,-1,0
1523612073823,-327680,78,-56,-1,-1,0
1523612073823,-458752,78,-56,-1,-1,0
1523612073863,-524288,78,-56,-1,-1,0
1523612073863,-524288,78,-56,-1,-1,0
1523612073863,-458752,78,-56,-1,-1,0
1523612073863,-589824,78,-56,-1,-1,0
1523612073863,-655360,78,-56,-1,-1,0
1523612073903,-524288,78,-56,-1,-1,0
1523612073903,-524288,78,-56,-1,-1,0
1523612073903,-589824,78,-56,-1,-1,0
1523612073903,-720896,78,-56,-1,-1,0
1523612073903,-786432,78,-56,-1,-1,0
1523612073944,-786432,78,-56,-1,-1,0
1523612073944,-655360,78,-56,-1,-1,0
1523612073944,-589824,78,-56,-1,-1,0
1523612073944,-589824,78,-56,-1,-1,0
1523612073944,-458752,78,-56,-1,-1,0
1523612073983,-327680,78,-56,-1,-1,0
1523612073983,-327680,78,-56,-1,-1,0
1523612073983,-262144,78,-56,-1,-1,0
1523612073983,-262144,78,-56,-1,-1,0
1523612073983,-393216,78,-56,-1,-1,0
1523612074023,-524288,78,-56,-1,-1,0
1523612074023,-393216,78,-56,-1,-1,0
1523612074023,-327680,78,-56,-1,-1,0
1523612074023,-393216,78,-56,-1,-1,0
1523612074023,-458752,78,-56,-1,-1,0
1523612074063,-524288,78,-56,-1,-1,0
1523612074063,-589824,78,-56,-1,-1,0
1523612074063,-720896,78,-56,-1,-1,0
1523612074063,-655360,78,-56,-1,-1,0
1523612074063,0,78,-56,-1,-1,0
1523612074103,1769472,78,-56,-1,-1,0
1523612074103,5111808,78,-56,-1,-1,0
1523612074103,8060928,78,-56,-1,-1,0
1523612074103,7798784,78,-56,-1,-1,0
1523612074103,3735552,78,-56,-1,-1,0
1523612074143,-327680,78,-56,-1,-1,0
1523612074143,-1769472,78,-56,-1,-1,0
1523612074143,-1507328,78,-56,-1,-1,0
1523612074143,-1048576,78,-56,-1,-1,0
1523612074143,-786432,78,-56,-1,-1,0
1523612074183,-720896,79,-56,-1,-1,0
1523612074183,-720896,79,-56,-1,-1,0
1523612074183,-720896,79,-56,-1,-1,0
1523612074183,-720896,79,-56,-1,-1,0
1523612074183,-589824,79,-56,-1,-1,0
1523612074223,-524288,79,-56,-1,-1,0
1523612074223,-589824,79,-56,-1,-1,0
1523612074223,-655360,79,-56,-1,-1,0
1523612074223,-524288,79,-56,-1,-1,0
1523612074223,-327680,79,-56,-1,-1,0
1523612074263,-262144,79,-56,-1,-1,0
1523612074263,-393216,79,-56,-1,-1,0
1523612074263,-327680,79,-56,-1,-1,0
1523612074263,-196608,79,-56,-1,-1,0
1523612074263,-65536,79,-56,-1,-1,0
1523612074303,0,79,-56,-1,-1,0
1523612074303,196608,79,-56,-1,-1,0
1523612074303,327680,79,-56,-1,-1,0
1523612074303,458752,79,-56,-1,-1,0
1523612074303,589824,79,-56,-1,-1,0
1523612074345,851968,79,-56,-1,-1,0
1523612074345,983040,79,-56,-1,-1,0
1523612074345,983040,79,-56,-1,-1,0
1523612074345,1114112,79,-56,-1,-1,0
1523612074345,1245184,79,-56,-1,-1,0
1523612074383,1179648,79,-56,-1,-1,0
1523612074383,983040,79,-56,-1,-1,0
1523612074383,917504,79,-56,-1,-1,0
1523612074383,786432,79,-56,-1,-1,0
1523612074383,589824,79,-56,-1,-1,0
1523612074423,327680,79,-56,-1,-1,0
1523612074423,131072,79,-56,-1,-1,0
1523612074423,0,79,-56,-1,-1,0
1523612074423,0,79,-56,-1,-1,0
1523612074423,-65536,79,-56,-1,-1,0
1523612074463,-262144,79,-56,-1,-1,0
1523612074463,-393216,79,-56,-1,-1,0
1523612074463,-262144,79,-56,-1,-1,0
1523612074463,-131072,79,-56,-1,-1,0
1523612074463,-196608,79,-56,-1,-1,0
1523612074503,-327680,79,-56,-1,-1,0
1523612074503,-393216,79,-56,-1,-1,0
1523612074503,-393216,79,-56,-1,-1,0
1523612074503,-393216,79,-56,-1,-1,0
1523612074503,-458752,79,-56,-1,-1,0
1523612074543,-458752,79,-56,-1,-1,0
1523612074543,-393216,79,-56,-1,-1,0
1523612074543,-458752,79,-56,-1,-1,0
1523612074543,-589824,79,-56,-1,-1,0
1523612074543,-655360,79,-56,-1,-1,0
1523612074585,-655360,79,-56,-1,-1,0
1523612074585,-720896,79,-56,-1,-1,0
1523612074585,-655360,79,-56,-1,-1,0
1523612074585,-589824,79,-56,-1,-1,0
1523612074585,-589824,79,-56,-1,-1,0
1523612074623,-655360,79,-56,-1,-1,0
1523612074623,-720896,79,-56,-1,-1,0
1523612074623,-720896,79,-56,-1,-1,0
1523612074623,-655360,79,-56,-1,-1,0
1523612074623,-720896,79,-56,-1,-1,0
1523612074663,-786432,79,-56,-1,-1,0
1523612074663,-851968,79,-56,-1,-1,0
1523612074663,-786432,79,-56,-1,-1,0
1523612074663,-720896,79,-56,-1,-1,0
1523612074663,-720896,79,-56,-1,-1,0
1523612074703,-786432,79,-56,-1,-1,0
1523612074703,-786432,79,-56,-1,-1,0
1523612074703,-786432,79,-56,-1,-1,0
1523612074703,-786432,79,-56,-1,-1,0
1523612074703,-917504,79,-56,-1,-1,0
1523612074743,-983040,79,-56,-1,-1,0
1523612074743,-851968,79,-56,-1,-1,0
1523612074743,-655360,79,-56,-1,-1,0
1523612074743,-655360,79,-56,-1,-1,0
1523612074743,-589824,79,-56,-1,-1,0
1523612074783,-458752,79,-56,-1,-1,0
1523612074783,-393216,79,-56,-1,-1,0
1523612074783,-458752,79,-56,-1,-1,0
1523612074783,-524288,79,-56,-1,-1,0
1523612074783,-524288,79,-56,-1,-1,0
1523612074823,-589824,79,-56,-1,-1,0
1523612074823,-589824,79,-56,-1,-1,0
1523612074823,-458752,79,-56,-1,-1,0
1523612074823,-393216,79,-56,-1,-1,0
1523612074823,-393216,79,-56,-1,-1,0
1523612074863,-393216,79,-56,-1,-1,0
1523612074863,-196608,79,-56,-1,-1,0
1523612074863,1048576,79,-56,-1,-1,0
1523612074863,4194304,79,-56,-1,-1,0
1523612074863,7929856,79,-56,-1,-1,0
1523612074903,9175040,79,-56,-1,-1,0
1523612074903,5767168,79,-56,-1,-1,0
1523612074903,655360,79,-56,-1,-1,0
1523612074903,-2097152,79,-56,-1,-1,0
1523612074903,-2031616,79,-56,-1,-1,0
1523612074943,-1245184,79,-56,-1,-1,0
1523612074943,-786432,79,-56,-1,-1,0
1523612074943,-851968,79,-56,-1,-1,0
1523612074943,-983040,79,-56,-1,-1,0
1523612074943,-851968,79,-56,-1,-1,0
1523612074983,-589824,79,-56,-1,-1,0
1523612074983,-458752,79,-56,-1,-1,0
1523612074983,-458752,79,-56,-1,-1,0
1523612074983,-524288,79,-56,-1,-1,0
1523612074983,-524288,79,-56,-1,-1,0
1523612075023,-524288,79,-56,-1,-1,0
1523612075023,-524288,79,-56,-1,-1,0
1523612075023,-589824,79,-56,-1,-1,0
1523612075023,-393216,79,-56,-1,-1,0
1523612075023,-131072,79,-56,-1,-1,0
1523612075063,0,79,-56,-1,-1,0
1523612075063,0,79,-56,-1,-1,0
1523612075063,0,79,-56,-1,-1,0
1523612075063,196608,79,-56,-1,-1,0
1523612075063,458752,79,-56,-1,-1,0
1523612075103,655360,79,-56,-1,-1,0
1523612075103,851968,79,-56,-1,-1,0
1523612075103,1114112,79,-56,-1,-1,0
1523612075103,1441792,79,-56,-1,-1,0
1523612075103,1376256,79,-56,-1,-1,0
1523612075143,1179648,79,-56,-1,-1,0
1523612075143,1114112,79,-56,-1,-1,0
1523612075143,1310720,79,-56,-1,-1,0
1523612075143,1376256,79,-56,-1,-1,0
1523612075143,1310720,79,-56,-1,-1,0
1523612075183,1114112,79,-56,-1,-1,0
1523612075183,983040,79,-56,-1,-1,0
1523612075183,720896,79,-56,-1,-1,0
1523612075183,393216,79,-56,-1,-1,0
1523612075183,196608,79,-56,-1,-1,0
1523612075224,262144,79,-56,-1,-1,0
1523612075224,262144,79,-56,-1,-1,0
1523612075224,65536,79,-56,-1,-1,0
1523612075224,0,79,-56,-1,-1,0
1523612075224,-65536,79,-56,-1,-1,0
1523612075263,0,79,-56,-1,-1,0
1523612075263,65536,79,-56,-1,-1,0
1523612075263,65536,79,-56,-1,-1,0
1523612075263,65536,79,-56,-1,-1,0
1523612075263,0,79,-56,-1,-1,0
1523612075303,0,79,-56,-1,-1,0
1523612075303,0,79,-56,-1,-1,0
1523612075303,131072,79,-56,-1,-1,0
1523612075303,65536,79,-56,-1,-1,0
1523612075303,0,79,-56,-1,-1,0
1523612075343,0,79,-56,-1,-1,0
1523612075343,0,79,-56,-1,-1,0
1523612075343,-131072,79,-56,-1,-1,0
1523612075343,-262144,79,-56,-1,-1,0
1523612075343,-196608,79,-56,-1,-1,0
1523612075383,0,79,-56,-1,-1,0
1523612075383,0,79,-56,-1,-1,0
1523612075383,-196608,79,-56,-1,-1,0
1523612075383,-262144,79,-56,-1,-1,0
1523612075383,-262144,79,-56,-1,-1,0
1523612075423,-196608,79,-56,-1,-1,0
1523612075423,-196608,79,-56,-1,-1,0
1523612075423,-262144,79,-56,-1,-1,0
1523612075423,-327680,79,-56,-1,-1,0
1523612075423,-327680,79,-56,-1,-1,0
1523612075463,-262144,79,-56,-1,-1,0
1523612075463,-196608,79,-56,-1,-1,0
1523612075463,-196608,79,-56,-1,-1,0
1523612075463,-393216,79,-56,-1,-1,0
1523612075463,-393216,79,-56,-1,-1,0
1523612075503,-458752,79,-56,-1,-1,0
1523612075503,-524288,79,-56,-1,-1,0
1523612075503,-458752,79,-56,-1,-1,0
1523612075503,-262144,79,-56,-1,-1,0
1523612075503,-131072,79,-56,-1,-1,0
1523612075544,-131072,79,-56,-1,-1,0
1523612075544,-196608,79,-56,-1,-1,0
1523612075544,-131072,79,-56,-1,-1,0
1523612075544,-196608,79,-56,-1,-1,0
1523612075544,-327680,79,-56,-1,-1,0
1523612075583,-524288,79,-56,-1,-1,0
1523612075583,-589824,79,-56,-1,-1,0
1523612075583,-589824,79,-56,-1,-1,0
1523612075583,-655360,79,-56,-1,-1,0
1523612075583,-655360,79,-56,-1,-1,0
1523612075623,-720896,79,-56,-1,-1,0
1523612075623,-786432,79,-56,-1,-1,0
1523612075623,-851968,79,-56,-1,-1,0
1523612075623,0,79,-56,-1,-1,0
1523612075623,2555904,79,-56,-1,-1,0
1523612075663,6488064,79,-56,-1,-1,0
1523612075663,9240576,79,-56,-1,-1,0
1523612075663,7733248,79,-56,-1,-1,0
1523612075663,2752512,79,-56,-1,-1,0
1523612075663,-1376256,79,-56,-1,-1,0
1523612075703,-2228224,79,-56,-1,-1,0
1523612075703,-1638400,79,-56,-1,-1,0
1523612075703,-1048576,79,-56,-1,-1,0
1523612075703,-786432,79,-56,-1,-1,0
1523612075703,-786432,79,-56,-1,-1,0
1523612075743,-851968,79,-56,-1,-1,0
1523612075743,-786432,79,-56,-1,-1,0
1523612075743,-655360,79,-56,-1,-1,0
1523612075743,-720896,79,-56,-1,-1,0
1523612075743,-917504,79,-56,-1,-1,0
1523612075783,-983040,79,-56,-1,-1,0
1523612075783,-851968,79,-56,-1,-1,0
1523612075783,-720896,79,-56,-1,-1,0
1523612075783,-786432,79,-56,-1,-1,0
1523612075783,-720896,79,-56,-1,-1,0
1523612075823,-589824,79,-56,-1,-1,0
1523612075823,-458752,79,-56,-1,-1,0
1523612075823,-262144,79,-56,-1,-1,0
1523612075823,-65536,79,-56,-1,-1,0
1523612075823,0,79,-56,-1,-1,0
1523612075864,131072,79,-56,-1,-1,0
1523612075864,131072,79,-56,-1,-1,0
1523612075864,393216,79,-56,-1,-1,0
1523612075864,589824,79,-56,-1,-1,0
1523612075864,720896,79,-56,-1,-1,0
1523612075903,851968,79,-56,-1,-1,0
1523612075903,851968,79,-56,-1,-1,0
1523612075903,1048576,79,-56,-1,-1,0
1523612075903,1245184,79,-56,-1,-1,0
1523612075903,1179648,79,-56,-1,-1,0
1523612075943,983040,79,-56,-1,-1,0
1523612075943,720896,79,-56,-1,-1,0
1523612075943,524288,79,-56,-1,-1,0
1523612075943,458752,79,-56,-1,-1,0
1523612075943,262144,79,-56,-1,-1,0
1523612075983,-65536,79,-56,-1,-1,0
1523612075983,-262144,79,-56,-1,-1,0
1523612075983,-327680,79,-56,-1,-1,0
1523612075983,-327680,79,-56,-1,-1,0
1523612075983,-393216,79,-56,-1,-1,0
1523612076023,-393216,79,-56,-1,-1,0
1523612076023,-393216,79,-56,-1,-1,0
1523612076023,-327680,79,-56,-1,-1,0
1523612076023,-327680,79,-56,-1,-1,0
1523612076023,-393216,79,-56,-1,-1,0
1523612076063,-327680,79,-56,-1,-1,0
1523612076063,-196608,79,-56,-1,-1,0
1523612076063,-262144,79,-56,-1,-1,0
1523612076063,-393216,79,-56,-1,-1,0
1523612076063,-458752,79,-56,-1,-1,0
1523612076103,-589824,79,-56,-1,-1,0
1523612076103,-589824,79,-56,-1,-1,0
1523612076103,-524288,79,-56,-1,-1,0
1523612076103,-589824,79,-56,-1,-1,0
1523612076103,-589824,79,-56,-1,-1,0
1523612076143,-589824,79,-56,-1,-1,0
1523612076143,-524288,79,-56,-1,-1,0
1523612076143,-458752,79,-56,-1,-1,0
1523612076143,-524288,79,-56,-1,-1,0
1523612076143,-655360,79,-56,-1,-1,0
1523612076183,-786432,79,-56,-1,-1,0
1523612076183,-786432,79,-56,-1,-1,0
1523612076183,-655360,79,-56,-1,-1,0
1523612076183,-589824,79,-56,-1,-1,0
1523612076183,-589824,79,-56,-1,-1,0
1523612076224,-655360,79,-56,-1,-1,0
1523612076224,-655360,79,-56,-1,-1,0
1523612076224,-524288,79,-56,-1,-1,0
1523612076224,-524288,79,-56,-1,-1,0
1523612076224,-655360,79,-56,-1,-1,0
1523612076263,-720896,79,-56,-1,-1,0
1523612076263,-720896,79,-56,-1,-1,0
1523612076263,-589824,79,-56,-1,-1,0
1523612076263,-524288,79,-56,-1,-1,0
1523612076263,-655360,79,-56,-1,-1,0
1523612076303,-786432,79,-56,-1,-1,0
1523612076303,-655360,79,-56,-1,-1,0
1523612076303,-524288,79,-56,-1,-1,0
1523612076303,-458752,79,-56,-1,-1,0
1523612076303,-524288,79,-56,-1,-1,0
1523612076343,-458752,79,-56,-1,-1,0
1523612076343,-393216,79,-56,-1,-1,0
1523612076343,-327680,79,-56,-1,-1,0
1523612076343,-393216,79,-56,-1,-1,0
1523612076343,-458752,79,-56,-1,-1,0
1523612076383,-524288,79,-56,-1,-1,0
1523612076383,-655360,79,-56,-1,-1,0
1523612076383,-720896,79,-56,-1,-1,0
1523612076383,-655360,79,-56,-1,-1,0
1523612076383,-720896,79,-56,-1,-1,0
1523612076423,-720896,79,-56,-1,-1,0
1523612076423,-786432,79,-56,-1,-1,0
1523612076423,-786432,79,-56,-1,-1,0
1523612076423,65536,79,-56,-1,-1,0
1523612076423,2621440,79,-56,-1,-1,0
1523612076463,6291456,79,-56,-1,-1,0
1523612076463,8519680,79,-56,-1,-1,0
1523612076463,6881280,79,-56,-1,-1,0
1523612076463,2424832,79,-56,-1,-1,0
1523612076463,-1179648,79,-56,-1,-1,0
1523612076504,-1966080,79,-56,-1,-1,0
1523612076504,-1507328,79,-56,-1,-1,0
1523612076504,-1048576,79,-56,-1,-1,0
1523612076504,-917504,79,-56,-1,-1,0
1523612076504,-851968,79,-56,-1,-1,0
1523612076543,-786432,78,-56,-1,-1,0
1523612076543,-720896,78,-56,-1,-1,0
1523612076543,-786432,78,-56,-1,-1,0
1523612076543,-851968,78,-56,-1,-1,0
1523612076543,-786432,78,-56,-1,-1,0
1523612076583,-786432,78,-56,-1,-1,0
1523612076583,-786432,78,-56,-1,-1,0
1523612076583,-655360,78,-56,-1,-1,0
1523612076583,-589824,78,-56,-1,-1,0
1523612076583,-524288,78,-56,-1,-1,0
1523612076623,-393216,78,-56,-1,-1,0
1523612076623,-262144,78,-56,-1,-1,0
1523612076623,-131072,78,-56,-1,-1,0
1523612076623,0,78,-56,-1,-1,0
1523612076623,-65536,78,-56,-1,-1,0
1523612076663,0,78,-56,-1,-1,0
1523612076663,262144,78,-56,-1,-1,0
1523612076663,524288,78,-56,-1,-1,0
1523612076663,589824,78,-56,-1,-1,0
1523612076663,655360,78,-56,-1,-1,0
1523612076703,851968,78,-56,-1,-1,0
1523612076703,983040,78,-56,-1,-1,0
1523612076703,1048576,78,-56,-1,-1,0
1523612076703,1048576,78,-56,-1,-1,0
1523612076703,1048576,78,-56,-1,-1,0
1523612076743,1048576,78,-56,-1,-1,0
1523612076743,786432,78,-56,-1,-1,0
1523612076743,524288,78,-56,-1,-1,0
1523612076743,327680,78,-56,-1,-1,0
1523612076743,196608,78,-56,-1,-1,0
1523612076783,0,78,-56,-1,-1,0
1523612076783,-65536,78,-56,-1,-1,0
1523612076783,-196608,78,-56,-1,-1,0
1523612076783,-262144,78,-56,-1,-1,0
1523612076783,-262144,78,-56,-1,-1,0
1523612076823,-327680,78,-56,-1,-1,0
1523612076823,-327680,78,-56,-1,-1,0
1523612076823,-393216,78,-56,-1,-1,0
1523612076823,-393216,78,-56,-1,-1,0
1523612076823,-458752,78,-56,-1,-1,0
1523612076863,-458752,78,-56,-1,-1,0
1523612076863,-458752,78,-56,-1,-1,0
1523612076863,-393216,78,-56,-1,-1,0
1523612076863,-458752,78,-56,-1,-1,0
1523612076863,-524288,78,-56,-1,-1,0
1523612076903,-524288,78,-56,-1,-1,0
1523612076903,-524288,78,-56,-1,-1,0
1523612076903,-589824,78,-56,-1,-1,0
1523612076903,-589824,78,-56,-1,-1,0
1523612076903,-655360,78,-56,-1,-1,0
1523612076943,-655360,78,-56,-1,-1,0
1523612076943,-655360,78,-56,-1,-1,0
1523612076943,-589824,78,-56,-1,-1,0
1523612076943,-589824,78,-56,-1,-1,0
1523612076943,-655360,78,-56,-1,-1,0
1523612076983,-655360,78,-56,-1,-1,0
1523612076983,-655360,78,-56,-1,-1,0
1523612076983,-655360,78,-56,-1,-1,0
1523612076983,-655360,78,-56,-1,-1,0
1523612076983,-720896,78,-56,-1,-1,0
1523612077023,-720896,78,-56,-1,-1,0
1523612077023,-655360,78,-56,-1,-1,0
1523612077023,-655360,78,-56,-1,-1,0
1523612077023,-655360,78,-56,-1,-1,0
1523612077023,-655360,78,-56,-1,-1,0
1523612077063,-655360,78,-56,-1,-1,0
1523612077063,-720896,78,-56,-1,-1,0
1523612077063,-786432,78,-56,-1,-1,0
1523612077063,-655360,78,-56,-1,-1,0
1523612077063,-458752,78,-56,-1,-1,0
1523612077103,-393216,78,-56,-1,-1,0
1523612077103,-458752,78,-56,-1,-1,0
1523612077103,-589824,78,-56,-1,-1,0
1523612077103,-720896,78,-56,-1,-1,0
1523612077103,-655360,78,-56,-1,-1,0
1523612077144,-327680,78,-56,-1,-1,0
1523612077144,-65536,78,-56,-1,-1,0
1523612077144,0,78,-56,-1,-1,0
1523612077144,0,78,-56,-1,-1,0
1523612077144,0,78,-56,-1,-1,0
1523612077183,-131072,78,-56,-1,-1,0
1523612077183,-196608,78,-56,-1,-1,0
1523612077183,-196608,78,-56,-1,-1,0
1523612077183,-131072,78,-56,-1,-1,0
1523612077183,-196608,78,-56,-1,-1,0
1523612077223,-327680,78,-56,-1,-1,0
1523612077223,-196608,78,-56,-1,-1,0
1523612077223,-65536,78,-56,-1,-1,0
1523612077223,-131072,78,-56,-1,-1,0
1523612077223,-327680,78,-56,-1,-1,0
1523612077263,327680,78,-56,-1,-1,0
1523612077263,2818048,78,-56,-1,-1,0
1523612077263,6684672,78,-56,-1,-1,0
1523612077263,9371648,78,-56,-1,-1,0
1523612077263,7929856,78,-56,-1,-1,0
1523612077303,3080192,78,-56,-1,-1,0
1523612077303,-917504,78,-56,-1,-1,0
1523612077303,-1835008,78,-56,-1,-1,0
1523612077303,-1310720,78,-56,-1,-1,0
1523612077303,-786432,78,-56,-1,-1,0
1523612077343,-393216,78,-56,-1,-1,0
1523612077343,-393216,78,-56,-1,-1,0
1523612077343,-458752,78,-56,-1,-1,0
1523612077343,-458752,78,-56,-1,-1,0
1523612077343,-327680,78,-56,-1,-1,0
1523612077383,-327680,78,-56,-1,-1,0
1523612077383,-458752,78,-56,-1,-1,0
1523612077383,-393216,78,-56,-1,-1,0
1523612077383,-196608,78,-56,-1,-1,0
1523612077383,0,78,-56,-1,-1,0
1523612077423,0,78,-56,-1,-1,0
1523612077423,-131072,78,-56,-1,-1,0
1523612077423,-196608,78,-56,-1,-1,0
1523612077423,0,78,-56,-1,-1,0
1523612077423,196608,78,-56,-1,-1,0
1523612077463,196608,78,-56,-1,-1,0
1523612077463,131072,78,-56,-1,-1,0
1523612077463,262144,78,-56,-1,-1,0
1523612077463,655360,78,-56,-1,-1,0
1523612077463,983040,78,-56,-1,-1,0
1523612077503,1048576,78,-56,-1,-1,0
1523612077503,1048576,78,-56,-1,-1,0
1523612077503,1114112,78,-56,-1,-1,0
1523612077503,1245184,78,-56,-1,-1,0
1523612077503,1507328,78,-56,-1,-1,0
1523612077543,1703936,78,-56,-1,-1,0
1523612077543,1507328,78,-56,-1,-1,0
1523612077543,1245184,78,-56,-1,-1,0
1523612077543,1310720,78,-56,-1,-1,0
1523612077543,1179648,78,-56,-1,-1,0
1523612077583,851968,78,-56,-1,-1,0
1523612077583,655360,78,-56,-1,-1,0
1523612077583,458752,78,-56,-1,-1,0
1523612077583,327680,78,-56,-1,-1,0
1523612077583,196608,78,-56,-1,-1,0
1523612077623,196608,78,-56,-1,-1,0
1523612077623,65536,78,-56,-1,-1,0
1523612077623,131072,78,-56,-1,-1,0
1523612077623,196608,78,-56,-1,-1,0
1523612077623,131072,78,-56,-1,-1,0
1523612077663,131072,78,-56,-1,-1,0
1523612077663,65536,78,-56,-1,-1,0
1523612077663,131072,78,-56,-1,-1,0
1523612077663,131072,78,-56,-1,-1,0
1523612077663,65536,78,-56,-1,-1,0
1523612077703,131072,78,-56,-1,-1,0
1523612077703,196608,78,-56,-1,-1,0
1523612077703,131072,78,-56,-1,-1,0
1523612077703,65536,78,-56,-1,-1,0
1523612077703,0,78,-56,-1,-1,0
1523612077743,0,78,-56,-1,-1,0
1523612077743,0,78,-56,-1,-1,0
1523612077743,-131072,78,-56,-1,-1,0
1523612077743,-65536,78,-56,-1,-1,0
1523612077743,0,78,-56,-1,-1,0
1523612077784,0,78,-56,-1,-1,0
1523612077784,65536,78,-56,-1,-1,0
1523612077784,0,78,-56,-1,-1,0
1523612077784,-131072,78,-56,-1,-1,0
1523612077784,-262144,78,-56,-1,-1,0
1523612077823,-131072,78,-56,-1,-1,0
1523612077823,-65536,78,-56,-1,-1,0
1523612077823,-131072,78,-56,-1,-1,0
1523612077823,-393216,78,-56,-1,-1,0
1523612077823,-393216,78,-56,-1,-1,0
1523612077863,-196608,78,-56,-1,-1,0
1523612077863,-131072,78,-56,-1,-1,0
1523612077863,-262144,78,-56,-1,-1,0
1523612077863,-327680,78,-56,-1,-1,0
1523612077863,-393216,78,-56,-1,-1,0
1523612077903,-524288,78,-56,-1,-1,0
1523612077903,-589824,78,-56,-1,-1,0
1523612077903,-589824,78,-56,-1,-1,0
1523612077903,-524288,78,-56,-1,-1,0
1523612077903,-458752,78,-56,-1,-1,0
1523612077943,-262144,78,-56,-1,-1,0
1523612077943,-131072,78,-56,-1,-1,0
1523612077943,-131072,78,-56,-1,-1,0
1523612077943,-262144,78,-56,-1,-1,0
1523612077943,-131072,78,-56,-1,-1,0
1523612077983,-131072,78,-56,-1,-1,0
1523612077983,-262144,78,-56,-1,-1,0
1523612077983,-458752,78,-56,-1,-1,0
1523612077983,-524288,78,-56,-1,-1,0
1523612077983,-458752,78,-56,-1,-1,0
1523612078023,-458752,78,-56,-1,-1,0
1523612078023,-524288,78,-56,-1,-1,0
1523612078023,-589824,78,-56,-1,-1,0
1523612078023,-589824,78,-56,-1,-1,0
1523612078023,-720896,78,-56,-1,-1,0
1523612078063,-524288,78,-56,-1,-1,0
1523612078063,786432,78,-56,-1,-1,0
1523612078063,3801088,78,-56,-1,-1,0
1523612078063,7208960,78,-56,-1,-1,0
1523612078063,8388608,78,-56,-1,-1,0
1523612078103,5242880,78,-56,-1,-1,0
1523612078103,655360,78,-56,-1,-1,0
1523612078103,-1638400,78,-56,-1,-1,0
1523612078103,-1638400,78,-56,-1,-1,0
1523612078103,-1179648,78,-56,-1,-1,0
1523612078143,-983040,78,-56,-1,-1,0
1523612078143,-983040,78,-56,-1,-1,0
1523612078143,-1048576,78,-56,-1,-1,0
1523612078143,-983040,78,-56,-1,-1,0
1523612078143,-786432,78,-56,-1,-1,0
1523612078183,-655360,78,-56,-1,-1,0
1523612078183,-786432,78,-56,-1,-1,0
1523612078183,-983040,78,-56,-1,-1,0
1523612078183,-1114112,78,-56,-1,-1,0
1523612078183,-983040,78,-56,-1,-1,0
1523612078223,-786432,78,-56,-1,-1,0
1523612078223,-720896,78,-56,-1,-1,0
1523612078223,-786432,78,-56,-1,-1,0
1523612078223,-720896,78,-56,-1,-1,0
1523612078223,-524288,78,-56,-1,-1,0
1523612078263,-196608,78,-56,-1,-1,0
1523612078263,-196608,78,-56,-1,-1,0
1523612078263,-262144,78,-56,-1,-1,0
1523612078263,-196608,78,-56,-1,-1,0
1523612078263,0,78,-56,-1,-1,0
1523612078304,196608,78,-56,-1,-1,0
1523612078304,524288,78,-56,-1,-1,0
1523612078304,720896,78,-56,-1,-1,0
1523612078304,589824,78,-56,-1,-1,0
1523612078304,589824,78,-56,-1,-1,0
1523612078343,786432,78,-56,-1,-1,0
1523612078343,983040,78,-56,-1,-1,0
1523612078343,917504,78,-56,-1,-1,0
1523612078343,720896,78,-56,-1,-1,0
1523612078343,458752,78,-56,-1,-1,0
1523612078383,262144,78,-56,-1,-1,0
1523612078383,196608,78,-56,-1,-1,0
1523612078383,65536,78,-56,-1,-1,0
1523612078383,0,78,-56,-1,-1,0
1523612078383,-262144,78,-56,-1,-1,0
1523612078424,-393216,78,-56,-1,-1,0
1523612078424,-393216,78,-56,-1,-1,0
1523612078424,-262144,78,-56,-1,-1,0
1523612078424,-327680,78,-56,-1,-1,0
1523612078424,-524288,78,-56,-1,-1,0
1523612078463,-589824,78,-56,-1,-1,0
1523612078463,-589824,78,-56,-1,-1,0
1523612078463,-589824,78,-56,-1,-1,0
1523612078463,-589824,78,-56,-1,-1,0
1523612078463,-589824,78,-56,-1,-1,0
1523612078503,-589824,78,-56,-1,-1,0
1523612078503,-655360,78,-56,-1,-1,0
1523612078503,-655360,78,-56,-1,-1,0
1523612078503,-655360,78,-56,-1,-1,0
1523612078503,-720896,78,-56,-1,-1,0
1523612078543,-720896,78,-56,-1,-1,0
1523612078543,-720896,78,-56,-1,-1,0
1523612078543,-720896,78,-56,-1,-1,0
1523612078543,-786432,78,-56,-1,-1,0
1523612078543,-786432,78,-56,-1,-1,0
1523612078583,-786432,78,-56,-1,-1,0
1523612078583,-786432,78,-56,-1,-1,0
1523612078583,-786432,78,-56,-1,-1,0
1523612078583,-851968,78,-56,-1,-1,0
1523612078583,-917504,78,-56,-1,-1,0
1523612078623,-983040,78,-56,-1,-1,0
1523612078623,-917504,78,-56,-1,-1,0
1523612078623,-917504,78,-56,-1,-1,0
1523612078623,-851968,78,-56,-1,-1,0
1523612078623,-786432,78,-56,-1,-1,0
1523612078664,-851968,78,-56,-1,-1,0
1523612078664,-917504,78,-56,-1,-1,0
1523612078664,-983040,78,-56,-1,-1,0
1523612078664,-917504,78,-56,-1,-1,0
1523612078664,-786432,78,-56,-1,-1,0
1523612078704,-917504,78,-56,-1,-1,0
1523612078704,-1048576,78,-56,-1,-1,0
1523612078704,-1048576,78,-56,-1,-1,0
1523612078704,-983040,78,-56,-1,-1,0
1523612078704,-917504,78,-56,-1,-1,0
1523612078743,-786432,78,-56,-1,-1,0
1523612078743,-786432,78,-56,-1,-1,0
1523612078743,-720896,78,-56,-1,-1,0
1523612078743,-589824,78,-56,-1,-1,0
1523612078743,-524288,78,-56,-1,-1,0
1523612078783,-655360,78,-56,-1,-1,0
1523612078783,-786432,78,-56,-1,-1,0
1523612078783,-786432,78,-56,-1,-1,0
1523612078783,-786432,78,-56,-1,-1,0
1523612078783,-851968,78,-56,-1,-1,0
1523612078823,-983040,78,-56,-1,-1,0
1523612078823,-917504,78,-56,-1,-1,0
1523612078823,-851968,78,-56,-1,-1,0
1523612078823,-851968,78,-56,-1,-1,0
1523612078823,-1179648,78,-56,-1,-1,0
1523612078863,-983040,78,-56,-1,-1,0
1523612078863,458752,78,-56,-1,-1,0
1523612078863,3473408,78,-56,-1,-1,0
1523612078863,7012352,78,-56,-1,-1,0
1523612078863,8519680,78,-56,-1,-1,0
1523612078903,5636096,78,-56,-1,-1,0
1523612078903,786432,78,-56,-1,-1,0
1523612078903,-1966080,78,-56,-1,-1,0
1523612078903,-2031616,78,-56,-1,-1,0
1523612078903,-1376256,78,-56,-1,-1,0
1523612078943,-983040,77,-56,-1,-1,0
1523612078943,-917504,77,-56,-1,-1,0
1523612078943,-983040,77,-56,-1,-1,0
1523612078943,-851968,77,-56,-1,-1,0
1523612078943,-786432,77,-56,-1,-1,0
1523612078983,-655360,77,-56,-1,-1,0
1523612078983,-589824,77,-56,-1,-1,0
1523612078983,-589824,77,-56,-1,-1,0
1523612078983,-589824,77,-56,-1,-1,0
1523612078983,-589824,77,-56,-1,-1,0
1523612079023,-524288,77,-56,-1,-1,0
1523612079023,-393216,77,-56,-1,-1,0
1523612079023,-327680,77,-56,-1,-1,0
1523612079023,-196608,77,-56,-1,-1,0
1523612079023,-65536,77,-56,-1,-1,0
1523612079064,0,77,-56,-1,-1,0
1523612079064,131072,77,-56,-1,-1,0
1523612079064,262144,77,-56,-1,-1,0
1523612079064,524288,77,-56,-1,-1,0
1523612079064,720896,77,-56,-1,-1,0
1523612079103,917504,77,-56,-1,-1,0
1523612079103,1114112,77,-56,-1,-1,0
1523612079103,1310720,77,-56,-1,-1,0
1523612079103,1441792,77,-56,-1,-1,0
1523612079103,1572864,77,-56,-1,-1,0
1523612079143,1572864,77,-56,-1,-1,0
1523612079143,1572864,77,-56,-1,-1,0
1523612079143,1572864,77,-56,-1,-1,0
1523612079143,1507328,77,-56,-1,-1,0
1523612079143,1310720,77,-56,-1,-1,0
1523612079183,1179648,77,-56,-1,-1,0
1523612079183,983040,77,-56,-1,-1,0
1523612079183,786432,77,-56,-1,-1,0
1523612079183,655360,77,-56,-1,-1,0
1523612079183,589824,77,-56,-1,-1,0
1523612079223,393216,77,-56,-1,-1,0
1523612079223,262144,77,-56,-1,-1,0
1523612079223,262144,77,-56,-1,-1,0
1523612079223,327680,77,-56,-1,-1,0
1523612079223,393216,77,-56,-1,-1,0
1523612079263,393216,77,-56,-1,-1,0
1523612079263,393216,77,-56,-1,-1,0
1523612079263,262144,77,-56,-1,-1,0
1523612079263,196608,77,-56,-1,-1,0
1523612079263,262144,77,-56,-1,-1,0
1523612079303,262144,77,-56,-1,-1,0
1523612079303,196608,77,-56,-1,-1,0
1523612079303,196608,77,-56,-1,-1,0
1523612079303,131072,77,-56,-1,-1,0
1523612079303,131072,77,-56,-1,-1,0
1523612079343,65536,77,-56,-1,-1,0
1523612079343,0,77,-56,-1,-1,0
1523612079343,0,77,-56,-1,-1,0
1523612079343,-65536,77,-56,-1,-1,0
1523612079343,-131072,77,-56,-1,-1,0
1523612079383,-131072,77,-56,-1,-1,0
1523612079383,-65536,77,-56,-1,-1,0
1523612079383,-131072,77,-56,-1,-1,0
1523612079383,-196608,77,-56,-1,-1,0
1523612079383,-196608,77,-56,-1,-1,0
1523612079423,-196608,77,-56,-1,-1,0
1523612079423,-262144,77,-56,-1,-1,0
1523612079423,-262144,77,-56,-1,-1,0
1523612079423,-262144,77,-56,-1,-1,0
1523612079423,-327680,77,-56,-1,-1,0
1523612079463,-393216,77,-56,-1,-1,0
1523612079463,-393216,77,-56,-1,-1,0
1523612079463,-393216,77,-56,-1,-1,0
1523612079463,-393216,77,-56,-1,-1,0
1523612079463,-458752,77,-56,-1,-1,0
1523612079503,-524288,77,-56,-1,-1,0
1523612079503,-524288,77,-56,-1,-1,0
1523612079503,-393216,77,-56,-1,-1,0
1523612079503,-262144,77,-56,-1,-1,0
1523612079503,-65536,77,-56,-1,-1,0
1523612079543,0,77,-56,-1,-1,0
1523612079543,-65536,77,-56,-1,-1,0
1523612079543,-196608,77,-56,-1,-1,0
1523612079543,-196608,77,-56,-1,-1,0
1523612079543,-196608,77,-56,-1,-1,0
1523612079583,-327680,77,-56,-1,-1,0
1523612079583,-327680,77,-56,-1,-1,0
1523612079583,-393216,77,-56,-1,-1,0
1523612079583,-327680,77,-56,-1,-1,0
1523612079583,-393216,77,-56,-1,-1,0
1523612079623,-524288,77,-56,-1,-1,0
1523612079623,-655360,77,-56,-1,-1,0
1523612079623,-655360,77,-56,-1,-1,0
1523612079623,-131072,77,-56,-1,-1,0
1523612079623,1441792,77,-56,-1,-1,0
1523612079663,4718592,77,-56,-1,-1,0
1523612079663,8323072,77,-56,-1,-1,0
1523612079663,9175040,77,-56,-1,-1,0
1523612079663,5439488,77,-56,-1,-1,0
1523612079663,458752,77,-56,-1,-1,0
1523612079704,-1900544,77,-56,-1,-1,0
1523612079704,-1769472,77,-56,-1,-1,0
1523612079704,-1114112,77,-56,-1,-1,0
1523612079704,-786432,77,-56,-1,-1,0
1523612079704,-720896,77,-56,-1,-1,0
1523612079743,-720896,77,-56,-1,-1,0
1523612079743,-589824,77,-56,-1,-1,0
1523612079743,-655360,77,-56,-1,-1,0
1523612079743,-655360,77,-56,-1,-1,0
1523612079743,-655360,77,-56,-1,-1,0
1523612079783,-589824,77,-56,-1,-1,0
1523612079783,-524288,77,-56,-1,-1,0
1523612079783,-458752,77,-56,-1,-1,0
1523612079783,-393216,77,-56,-1,-1,0
1523612079783,-393216,77,-56,-1,-1,0
1523612079823,-393216,77,-56,-1,-1,0
1523612079823,-393216,77,-56,-1,-1,0
1523612079823,-327680,77,-56,-1,-1,0
1523612079823,-196608,77,-56,-1,-1,0
1523612079823,-65536,77,-56,-1,-1,0
1523612079863,65536,77,-56,-1,-1,0
1523612079863,327680,77,-56,-1,-1,0
1523612079863,524288,77,-56,-1,-1,0
1523612079863,655360,77,-56,-1,-1,0
1523612079863,851968,77,-56,-1,-1,0
1523612079903,983040,77,-56,-1,-1,0
1523612079903,983040,77,-56,-1,-1,0
1523612079903,983040,77,-56,-1,-1,0
1523612079903,983040,77,-56,-1,-1,0
1523612079903,983040,77,-56,-1,-1,0
1523612079943,1179648,77,-56,-1,-1,0
1523612079943,1245184,77,-56,-1,-1,0
1523612079943,1048576,77,-56,-1,-1,0
1523612079943,720896,77,-56,-1,-1,0
1523612079943,393216,77,-56,-1,-1,0
1523612079983,0,77,-56,-1,-1,0
1523612079983,-327680,77,-56,-1,-1,0
1523612079983,-393216,77,-56,-1,-1,0
1523612079983,-393216,77,-56,-1,-1,0
1523612079983,-524288,77,-56,-1,-1,0
1523612080023,-524288,77,-56,-1,-1,0
1523612080023,-393216,77,-56,-1,-1,0
1523612080023,-327680,77,-56,-1,-1,0
1523612080023,-458752,77,-56,-1,-1,0
1523612080023,-524288,77,-56,-1,-1,0
1523612080063,-589824,77,-56,-1,-1,0
1523612080063,-458752,77,-56,-1,-1,0
1523612080063,-458752,77,-56,-1,-1,0
1523612080063,-524288,77,-56,-1,-1,0
1523612080063,-655360,77,-56,-1,-1,0
1523612080103,-655360,77,-56,-1,-1,0
1523612080103,-720896,77,-56,-1,-1,0
1523612080103,-786432,77,-56,-1,-1,0
1523612080103,-786432,77,-56,-1,-1,0
1523612080103,-786432,77,-56,-1,-1,0
1523612080143,-851968,77,-56,-1,-1,0
1523612080143,-983040,77,-56,-1,-1,0
1523612080143,-917504,77,-56,-1,-1,0
1523612080143,-851968,77,-56,-1,-1,0
1523612080143,-786432,77,-56,-1,-1,0
1523612080183,-720896,77,-56,-1,-1,0
1523612080183,-917504,77,-56,-1,-1,0
1523612080183,-1048576,77,-56,-1,-1,0
1523612080183,-1114112,77,-56,-1,-1,0
1523612080183,-1114112,77,-56,-1,-1,0
1523612080223,-1179648,77,-56,-1,-1,0
1523612080223,-1048576,77,-56,-1,-1,0
1523612080223,-917504,77,-56,-1,-1,0
1523612080223,-983040,77,-56,-1,-1,0
1523612080223,-1048576,77,-56,-1,-1,0
1523612080263,-983040,77,-56,-1,-1,0
1523612080263,-1048576,77,-56,-1,-1,0
1523612080263,-1245184,77,-56,-1,-1,0
1523612080263,-1310720,77,-56,-1,-1,0
1523612080263,-1114112,77,-56,-1,-1,0
1523612080303,-983040,77,-56,-1,-1,0
1523612080303,-983040,77,-56,-1,-1,0
1523612080303,-983040,77,-56,-1,-1,0
1523612080303,-917504,77,-56,-1,-1,0
1523612080303,-851968,77,-56,-1,-1,0
1523612080344,-851968,77,-56,-1,-1,0
1523612080344,-983040,77,-56,-1,-1,0
1523612080344,-1048576,77,-56,-1,-1,0
1523612080344,-1048576,77,-56,-1,-1,0
1523612080344,-983040,77,-56,-1,-1,0
1523612080383,-1048576,77,-56,-1,-1,0
1523612080383,-1245184,77,-56,-1,-1,0
1523612080383,-1376256,77,-56,-1,-1,0
1523612080383,-1441792,77,-56,-1,-1,0
1523612080383,-1441792,77,-56,-1,-1,0
1523612080423,-655360,77,-56,-1,-1,0
1523612080423,1310720,77,-56,-1,-1,0
1523612080423,4784128,77,-56,-1,-1,0
1523612080423,7798784,77,-56,-1,-1,0
1523612080423,7340032,77,-56,-1,-1,0
1523612080463,3211264,77,-56,-1,-1,0
1523612080463,-851968,77,-56,-1,-1,0
1523612080463,-1966080,77,-56,-1,-1,0
1523612080463,-1441792,77,-56,-1,-1,0
1523612080463,-917504,77,-56,-1,-1,0
1523612080503,-851968,76,-56,-1,-1,0
1523612080503,-983040,76,-56,-1,-1,0
1523612080503,-1114112,76,-56,-1,-1,0
1523612080503,-1114112,76,-56,-1,-1,0
1523612080503,-1114112,76,-56,-1,-1,0
1523612080543,-1245184,76,-56,-1,-1,0
1523612080543,-1310720,76,-56,-1,-1,0
1523612080543,-1179648,76,-56,-1,-1,0
1523612080543,-1179648,76,-56,-1,-1,0
1523612080543,-1179648,76,-56,-1,-1,0
1523612080583,-1048576,76,-56,-1,-1,0
1523612080583,-786432,76,-56,-1,-1,0
1523612080583,-589824,76,-56,-1,-1,0
1523612080583,-589824,76,-56,-1,-1,0
1523612080583,-458752,76,-56,-1,-1,0
1523612080623,-196608,76,-56,-1,-1,0
1523612080623,-65536,76,-56,-1,-1,0
1523612080623,-65536,76,-56,-1,-1,0
1523612080623,0,76,-56,-1,-1,0
1523612080623,196608,76,-56,-1,-1,0
1523612080663,524288,76,-56,-1,-1,0
1523612080663,720896,76,-56,-1,-1,0
1523612080663,786432,76,-56,-1,-1,0
1523612080663,851968,76,-56,-1,-1,0
1523612080663,851968,76,-56,-1,-1,0
1523612080703,917504,76,-56,-1,-1,0
1523612080703,1048576,76,-56,-1,-1,0
1523612080703,1114112,76,-56,-1,-1,0
1523612080703,1048576,76,-56,-1,-1,0
1523612080703,851968,76,-56,-1,-1,0
1523612080743,589824,76,-56,-1,-1,0
1523612080743,262144,76,-56,-1,-1,0
1523612080743,0,76,-56,-1,-1,0
1523612080743,0,76,-56,-1,-1,0
1523612080743,-65536,76,-56,-1,-1,0
1523612080783,-131072,76,-56,-1,-1,0
1523612080783,-262144,76,-56,-1,-1,0
1523612080783,-327680,76,-56,-1,-1,0
1523612080783,-327680,76,-56,-1,-1,0
1523612080783,-262144,76,-56,-1,-1,0
1523612080823,-262144,76,-56,-1,-1,0
1523612080823,-262144,76,-56,-1,-1,0
1523612080823,-262144,76,-56,-1,-1,0
1523612080823,-131072,76,-56,-1,-1,0
1523612080823,0,76,-56,-1,-1,0
1523612080863,-65536,76,-56,-1,-1,0
1523612080863,-65536,76,-56,-1,-1,0
1523612080863,0,76,-56,-1,-1,0
1523612080863,0,76,-56,-1,-1,0
1523612080863,-65536,76,-56,-1,-1,0
1523612080903,-65536,76,-56,-1,-1,0
1523612080903,-65536,76,-56,-1,-1,0
1523612080903,0,76,-56,-1,-1,0
1523612080903,-65536,76,-56,-1,-1,0
1523612080903,-65536,76,-56,-1,-1,0
1523612080943,-65536,76,-56,-1,-1,0
1523612080943,-65536,76,-56,-1,-1,0
1523612080943,-131072,76,-56,-1,-1,0
1523612080943,-196608,76,-56,-1,-1,0
1523612080943,-196608,76,-56,-1,-1,0
1523612080984,-196608,76,-56,-1,-1,0
1523612080984,-262144,76,-56,-1,-1,0
1523612080984,-262144,76,-56,-1,-1,0
1523612080984,-262144,76,-56,-1,-1,0
1523612080984,-131072,76,-56,-1,-1,0
1523612081023,-65536,76,-56,-1,-1,0
1523612081023,-131072,76,-56,-1,-1,0
1523612081023,-262144,76,-56,-1,-1,0
1523612081023,-327680,76,-56,-1,-1,0
1523612081023,-327680,76,-56,-1,-1,0
1523612081063,-327680,76,-56,-1,-1,0
1523612081063,-196608,76,-56,-1,-1,0
1523612081063,-131072,76,-56,-1,-1,0
1523612081063,-65536,76,-56,-1,-1,0
1523612081063,-65536,76,-56,-1,-1,0
1523612081103,-65536,76,-56,-1,-1,0
1523612081103,-65536,76,-56,-1,-1,0
1523612081103,-196608,76,-56,-1,-1,0
1523612081103,-327680,76,-56,-1,-1,0
1523612081103,-327680,76,-56,-1,-1,0
1523612081143,-327680,76,-56,-1,-1,0
1523612081143,-262144,76,-56,-1,-1,0
1523612081143,-327680,76,-56,-1,-1,0
1523612081143,-393216,76,-56,-1,-1,0
1523612081143,-458752,76,-56,-1,-1,0
1523612081183,-524288,76,-56,-1,-1,0
1523612081183,0,76,-56,-1,-1,0
1523612081183,1769472,76,-56,-1,-1,0
1523612081183,5373952,76,-56,-1,-1,0
1523612081183,8781824,76,-56,-1,-1,0
1523612081223,8912896,76,-56,-1,-1,0
1523612081223,4653056,76,-56,-1,-1,0
1523612081223,-196608,76,-56,-1,-1,0
1523612081223,-2031616,76,-56,-1,-1,0
1523612081223,-1638400,76,-56,-1,-1,0
1523612081263,-917504,76,-56,-1,-1,0
1523612081263,-458752,76,-56,-1,-1,0
1523612081263,-393216,76,-56,-1,-1,0
1523612081263,-524288,76,-56,-1,-1,0
1523612081263,-458752,76,-56,-1,-1,0
1523612081303,-393216,76,-56,-1,-1,0
1523612081303,-327680,76,-56,-1,-1,0
1523612081303,-327680,76,-56,-1,-1,0
1523612081303,-196608,76,-56,-1,-1,0
1523612081303,-196608,76,-56,-1,-1,0
1523612081343,-131072,76,-56,-1,-1,0
1523612081343,-65536,76,-56,-1,-1,0
1523612081343,0,76,-56,-1,-1,0
1523612081343,-65536,76,-56,-1,-1,0
1523612081343,0,76,-56,-1,-1,0
1523612081383,131072,76,-56,-1,-1,0
1523612081383,262144,76,-56,-1,-1,0
1523612081383,393216,76,-56,-1,-1,0
1523612081383,524288,76,-56,-1,-1,0
1523612081383,720896,76,-56,-1,-1,0
1523612081423,917504,76,-56,-1,-1,0
1523612081423,1048576,76,-56,-1,-1,0
1523612081423,1245184,76,-56,-1,-1,0
1523612081423,1441792,76,-56,-1,-1,0
1523612081423,1441792,76,-56,-1,-1,0
1523612081463,1441792,76,-56,-1,-1,0
1523612081463,1376256,76,-56,-1,-1,0
1523612081463,1376256,76,-56,-1,-1,0
1523612081463,1310720,76,-56,-1,-1,0
1523612081463,1310720,76,-56,-1,-1,0
1523612081503,1245184,76,-56,-1,-1,0
1523612081503,1048576,76,-56,-1,-1,0
1523612081503,720896,76,-56,-1,-1,0
1523612081503,393216,76,-56,-1,-1,0
1523612081503,196608,76,-56,-1,-1,0
1523612081543,65536,76,-56,-1,-1,0
1523612081543,0,76,-56,-1,-1,0
1523612081543,-65536,76,-56,-1,-1,0
1523612081543,-196608,76,-56,-1,-1,0
1523612081543,-196608,76,-56,-1,-1,0
1523612081583,-196608,76,-56,-1,-1,0
1523612081583,-196608,76,-56,-1,-1,0
1523612081583,-131072,76,-56,-1,-1,0
1523612081583,0,76,-56,-1,-1,0
1523612081583,0,76,-56,-1,-1,0
1523612081624,-196608,76,-56,-1,-1,0
1523612081624,-327680,76,-56,-1,-1,0
1523612081624,-327680,76,-56,-1,-1,0
1523612081624,-393216,76,-56,-1,-1,0
1523612081624,-458752,76,-56,-1,-1,0
1523612081663,-524288,76,-56,-1,-1,0
1523612081663,-524288,76,-56,-1,-1,0
1523612081663,-589824,76,-56,-1,-1,0
1523612081663,-589824,76,-56,-1,-1,0
1523612081663,-655360,76,-56,-1,-1,0
1523612081703,-589824,76,-56,-1,-1,0
1523612081703,-524288,76,-56,-1,-1,0
1523612081703,-589824,76,-56,-1,-1,0
1523612081703,-589824,76,-56,-1,-1,0
1523612081703,-589824,76,-56,-1,-1,0
1523612081743,-589824,76,-56,-1,-1,0
1523612081743,-655360,76,-56,-1,-1,0
1523612081743,-720896,76,-56,-1,-1,0
1523612081743,-851968,76,-56,-1,-1,0
1523612081743,-851968,76,-56,-1,-1,0
1523612081783,-851968,76,-56,-1,-1,0
1523612081783,-851968,76,-56,-1,-1,0
1523612081783,-851968,76,-56,-1,-1,0
1523612081783,-983040,76,-56,-1,-1,0
1523612081783,-1245184,76,-56,-1,-1,0
1523612081823,-1245184,76,-56,-1,-1,0
1523612081823,-1048576,76,-56,-1,-1,0
1523612081823,-851968,76,-56,-1,-1,0
1523612081823,-786432,76,-56,-1,-1,0
1523612081823,-786432,76,-56,-1,-1,0
1523612081863,-720896,76,-56,-1,-1,0
1523612081863,-786432,76,-56,-1,-1,0
1523612081863,-917504,76,-56,-1,-1,0
1523612081863,-917504,76,-56,-1,-1,0
1523612081863,-917504,76,-56,-1,-1,0
1523612081903,-917504,76,-56,-1,-1,0
1523612081903,-1048576,76,-56,-1,-1,0
1523612081903,-1048576,76,-56,-1,-1,0
1523612081903,-983040,76,-56,-1,-1,0
1523612081903,-983040,76,-56,-1,-1,0
1523612081943,-1048576,76,-56,-1,-1,0
1523612081943,-786432,76,-56,-1,-1,0
1523612081943,720896,76,-56,-1,-1,0
1523612081943,4194304,76,-56,-1,-1,0
1523612081943,7929856,76,-56,-1,-1,0
1523612081983,8912896,76,-56,-1,-1,0
1523612081983,5177344,76,-56,-1,-1,0
1523612081983,131072,76,-56,-1,-1,0
1523612081983,-2228224,76,-56,-1,-1,0
1523612081983,-1966080,76,-56,-1,-1,0
1523612082023,-1376256,76,-56,-1,-1,0
1523612082023,-1179648,76,-56,-1,-1,0
1523612082023,-1114112,76,-56,-1,-1,0
1523612082023,-1048576,76,-56,-1,-1,0
1523612082023,-1048576,76,-56,-1,-1,0
1523612082063,-983040,76,-56,-1,-1,0
1523612082063,-983040,76,-56,-1,-1,0
1523612082063,-983040,76,-56,-1,-1,0
1523612082063,-1048576,76,-56,-1,-1,0
1523612082063,-1114112,76,-56,-1,-1,0
1523612082103,-983040,76,-56,-1,-1,0
1523612082103,-851968,76,-56,-1,-1,0
1523612082103,-786432,76,-56,-1,-1,0
1523612082103,-720896,76,-56,-1,-1,0
1523612082103,-655360,76,-56,-1,-1,0
1523612082143,-524288,76,-56,-1,-1,0
1523612082143,-327680,76,-56,-1,-1,0
1523612082143,-262144,76,-56,-1,-1,0
1523612082143,-196608,76,-56,-1,-1,0
1523612082143,65536,76,-56,-1,-1,0
1523612082183,262144,76,-56,-1,-1,0
1523612082183,393216,76,-56,-1,-1,0
1523612082183,524288,76,-56,-1,-1,0
1523612082183,655360,76,-56,-1,-1,0
1523612082183,786432,76,-56,-1,-1,0
1523612082223,917504,76,-56,-1,-1,0
1523612082223,983040,76,-56,-1,-1,0
1523612082223,1048576,76,-56,-1,-1,0
1523612082223,983040,76,-56,-1,-1,0
1523612082223,851968,76,-56,-1,-1,0
1523612082264,720896,76,-56,-1,-1,0
1523612082264,589824,76,-56,-1,-1,0
1523612082264,393216,76,-56,-1,-1,0
1523612082264,262144,76,-56,-1,-1,0
1523612082264,65536,76,-56,-1,-1,0
1523612082303,-65536,76,-56,-1,-1,0
1523612082303,-131072,76,-56,-1,-1,0
1523612082303,-196608,76,-56,-1,-1,0
1523612082303,-196608,76,-56,-1,-1,0
1523612082303,-196608,76,-56,-1,-1,0
1523612082343,-196608,76,-56,-1,-1,0
1523612082343,-196608,76,-56,-1,-1,0
1523612082343,-262144,76,-56,-1,-1,0
1523612082343,-262144,76,-56,-1,-1,0
1523612082343,-196608,76,-56,-1,-1,0
1523612082383,-131072,76,-56,-1,-1,0
1523612082383,-196608,76,-56,-1,-1,0
1523612082383,-327680,76,-56,-1,-1,0
1523612082383,-393216,76,-56,-1,-1,0
1523612082383,-327680,76,-56,-1,-1,0
1523612082423,-131072,76,-56,-1,-1,0
1523612082423,0,76,-56,-1,-1,0
1523612082423,0,76,-56,-1,-1,0
1523612082423,0,76,-56,-1,-1,0
1523612082423,-65536,76,-56,-1,-1,0
1523612082463,-65536,76,-56,-1,-1,0
1523612082463,-196608,76,-56,-1,-1,0
1523612082463,-262144,76,-56,-1,-1,0
1523612082463,-196608,76,-56,-1,-1,0
1523612082463,-196608,76,-56,-1,-1,0
1523612082503,-327680,76,-56,-1,-1,0
1523612082503,-327680,76,-56,-1,-1,0
1523612082503,-262144,76,-56,-1,-1,0
1523612082503,-196608,76,-56,-1,-1,0
1523612082503,-196608,76,-56,-1,-1,0
1523612082543,-196608,76,-56,-1,-1,0
1523612082543,-262144,76,-56,-1,-1,0
1523612082543,-262144,76,-56,-1,-1,0
1523612082543,-196608,76,-56,-1,-1,0
1523612082543,-196608,76,-56,-1,-1,0
1523612082583,-262144,76,-56,-1,-1,0
1523612082583,-196608,76,-56,-1,-1,0
1523612082583,-131072,76,-56,-1,-1,0
1523612082583,0,76,-56,-1,-1,0
1523612082583,0,76,-56,-1,-1,0
1523612082623,0,76,-56,-1,-1,0
1523612082623,-196608,76,-56,-1,-1,0
1523612082623,-327680,76,-56,-1,-1,0
1523612082623,-262144,76,-56,-1,-1,0
1523612082623,-262144,76,-56,-1,-1,0
1523612082663,-327680,76,-56,-1,-1,0
1523612082663,-327680,76,-56,-1,-1,0
1523612082663,-327680,76,-56,-1,-1,0
1523612082663,-458752,76,-56,-1,-1,0
1523612082663,-655360,76,-56,-1,-1,0
1523612082703,-589824,76,-56,-1,-1,0
1523612082703,65536,76,-56,-1,-1,0
1523612082703,1900544,76,-56,-1,-1,0
1523612082703,5177344,76,-56,-1,-1,0
1523612082703,8192000,76,-56,-1,-1,0
1523612082743,8060928,76,-56,-1,-1,0
1523612082743,4063232,76,-56,-1,-1,0
1523612082743,-65536,76,-56,-1,-1,0
1523612082743,-1572864,76,-56,-1,-1,0
1523612082743,-1310720,76,-56,-1,-1,0
1523612082783,-851968,76,-56,-1,-1,0
1523612082783,-655360,76,-56,-1,-1,0
1523612082783,-589824,76,-56,-1,-1,0
1523612082783,-589824,76,-56,-1,-1,0
1523612082783,-524288,76,-56,-1,-1,0
1523612082823,-458752,76,-56,-1,-1,0
1523612082823,-393216,76,-56,-1,-1,0
1523612082823,-524288,76,-56,-1,-1,0
1523612082823,-524288,76,-56,-1,-1,0
1523612082823,-327680,76,-56,-1,-1,0
1523612082863,-196608,76,-56,-1,-1,0
1523612082863,-196608,76,-56,-1,-1,0
1523612082863,-131072,76,-56,-1,-1,0
1523612082863,-131072,76,-56,-1,-1,0
1523612082863,-65536,76,-56,-1,-1,0
1523612082904,0,76,-56,-1,-1,0
1523612082904,65536,76,-56,-1,-1,0
1523612082904,131072,76,-56,-1,-1,0
1523612082904,327680,76,-56,-1,-1,0
1523612082904,458752,76,-56,-1,-1,0
1523612082943,589824,76,-56,-1,-1,0
1523612082943,786432,76,-56,-1,-1,0
1523612082943,1048576,76,-56,-1,-1,0
1523612082943,1179648,76,-56,-1,-1,0
1523612082943,1245184,76,-56,-1,-1,0
1523612082983,1310720,76,-56,-1,-1,0
1523612082983,1376256,76,-56,-1,-1,0
1523612082983,1376256,76,-56,-1,-1,0
1523612082983,1376256,76,-56,-1,-1,0
1523612082983,1310720,76,-56,-1,-1,0
1523612083023,1179648,76,-56,-1,-1,0
1523612083023,983040,76,-56,-1,-1,0
1523612083023,720896,76,-56,-1,-1,0
1523612083023,458752,76,-56,-1,-1,0
1523612083023,262144,76,-56,-1,-1,0
1523612083063,262144,76,-56,-1,-1,0
1523612083063,131072,76,-56,-1,-1,0
1523612083063,65536,76,-56,-1,-1,0
1523612083063,0,76,-56,-1,-1,0
1523612083063,0,76,-56,-1,-1,0
1523612083103,65536,76,-56,-1,-1,0
1523612083103,0,76,-56,-1,-1,0
1523612083103,0,76,-56,-1,-1,0
1523612083103,0,76,-56,-1,-1,0
1523612083103,0,76,-56,-1,-1,0
1523612083143,0,76,-56,-1,-1,0
1523612083143,-131072,76,-56,-1,-1,0
1523612083143,-131072,76,-56,-1,-1,0
1523612083143,0,76,-56,-1,-1,0
1523612083143,0,76,-56,-1,-1,0
1523612083183,-262144,76,-56,-1,-1,0
1523612083183,-524288,76,-56,-1,-1,0
1523612083183,-720896,76,-56,-1,-1,0
1523612083183,-655360,76,-56,-1,-1,0
1523612083183,-589824,76,-56,-1,-1,0
1523612083223,-655360,76,-56,-1,-1,0
1523612083223,-655360,76,-56,-1,-1,0
1523612083223,-524288,76,-56,-1,-1,0
1523612083223,-458752,76,-56,-1,-1,0
1523612083223,-524288,76,-56,-1,-1,0
1523612083263,-524288,76,-56,-1,-1,0
1523612083263,-589824,76,-56,-1,-1,0
1523612083263,-655360,76,-56,-1,-1,0
1523612083263,-720896,76,-56,-1,-1,0
1523612083263,-720896,76,-56,-1,-1,0
1523612083303,-720896,76,-56,-1,-1,0
1523612083303,-786432,76,-56,-1,-1,0
1523612083303,-917504,76,-56,-1,-1,0
1523612083303,-983040,76,-56,-1,-1,0
1523612083303,-851968,76,-56,-1,-1,0
1523612083343,-851968,76,-56,-1,-1,0
1523612083343,-851968,76,-56,-1,-1,0
1523612083343,-851968,76,-56,-1,-1,0
1523612083343,-720896,76,-56,-1,-1,0
1523612083343,-655360,76,-56,-1,-1,0
1523612083383,-786432,76,-56,-1,-1,0
1523612083383,-983040,76,-56,-1,-1,0
1523612083383,-1048576,76,-56,-1,-1,0
1523612083383,-1048576,76,-56,-1,-1,0
1523612083383,-1114112,76,-56,-1,-1,0
1523612083423,-1245184,76,-56,-1,-1,0
1523612083423,-1179648,76,-56,-1,-1,0
1523612083423,-983040,76,-56,-1,-1,0
1523612083423,-1114112,76,-56,-1,-1,0
1523612083423,-1310720,76,-56,-1,-1,0
1523612083463,-1376256,76,-56,-1,-1,0
1523612083463,-262144,76,-56,-1,-1,0
1523612083463,2752512,76,-56,-1,-1,0
1523612083463,6750208,76,-56,-1,-1,0
1523612083463,8912896,76,-56,-1,-1,0
1523612083503,6160384,76,-56,-1,-1,0
1523612083503,786432,76,-56,-1,-1,0
1523612083503,-2621440,76,-56,-1,-1,0
1523612083503,-2752512,76,-56,-1,-1,0
1523612083503,-1900544,76,-56,-1,-1,0
1523612083544,-1441792,76,-56,-1,-1,0
1523612083544,-1376256,76,-56,-1,-1,0
1523612083544,-1310720,76,-56,-1,-1,0
1523612083544,-1245184,76,-56,-1,-1,0
1523612083544,-1245184,76,-56,-1,-1,0
1523612083583,-1376256,76,-56,-1,-1,0
1523612083583,-1310720,76,-56,-1,-1,0
1523612083583,-1245184,76,-56,-1,-1,0
1523612083583,-1114112,76,-56,-1,-1,0
1523612083583,-1048576,76,-56,-1,-1,0
1523612083623,-917504,76,-56,-1,-1,0
1523612083623,-786432,76,-56,-1,-1,0
1523612083623,-786432,76,-56,-1,-1,0
1523612083623,-851968,76,-56,-1,-1,0
1523612083623,-655360,76,-56,-1,-1,0
1523612083663,-524288,76,-56,-1,-1,0
1523612083663,-458752,76,-56,-1,-1,0
1523612083663,-327680,76,-56,-1,-1,0
1523612083663,0,76,-56,-1,-1,0
1523612083663,196608,76,-56,-1,-1,0
1523612083703,524288,76,-56,-1,-1,0
1523612083703,786432,76,-56,-1,-1,0
1523612083703,917504,76,-56,-1,-1,0
1523612083703,917504,76,-56,-1,-1,0
1523612083703,851968,76,-56,-1,-1,0
1523612083743,786432,76,-56,-1,-1,0
1523612083743,917504,76,-56,-1,-1,0
1523612083743,983040,76,-56,-1,-1,0
1523612083743,917504,76,-56,-1,-1,0
1523612083743,720896,76,-56,-1,-1,0
1523612083783,458752,76,-56,-1,-1,0
1523612083783,327680,76,-56,-1,-1,0
1523612083783,65536,76,-56,-1,-1,0
1523612083783,-131072,76,-56,-1,-1,0
1523612083783,-262144,76,-56,-1,-1,0
1523612083823,-327680,76,-56,-1,-1,0
1523612083823,-327680,76,-56,-1,-1,0
1523612083823,-393216,76,-56,-1,-1,0
1523612083823,-327680,76,-56,-1,-1,0
1523612083823,-327680,76,-56,-1,-1,0
1523612083863,-327680,76,-56,-1,-1,0
1523612083863,-327680,76,-56,-1,-1,0
1523612083863,-262144,76,-56,-1,-1,0
1523612083863,-196608,76,-56,-1,-1,0
1523612083863,-196608,76,-56,-1,-1,0
1523612083903,-262144,76,-56,-1,-1,0
1523612083903,-262144,76,-56,-1,-1,0
1523612083903,-327680,76,-56,-1,-1,0
1523612083903,-327680,76,-56,-1,-1,0
1523612083903,-327680,76,-56,-1,-1,0
1523612083943,-327680,76,-56,-1,-1,0
1523612083943,-393216,76,-56,-1,-1,0
1523612083943,-393216,76,-56,-1,-1,0
1523612083943,-393216,76,-56,-1,-1,0
1523612083943,-393216,76,-56,-1,-1,0
1523612083983,-196608,76,-56,-1,-1,0
1523612083983,-65536,76,-56,-1,-1,0
1523612083983,0,76,-56,-1,-1,0
1523612083983,-131072,76,-56,-1,-1,0
1523612083983,-131072,76,-56,-1,-1,0
1523612084023,-131072,76,-56,-1,-1,0
1523612084023,-262144,76,-56,-1,-1,0
1523612084023,-327680,76,-56,-1,-1,0
1523612084023,-327680,76,-56,-1,-1,0
1523612084023,-327680,76,-56,-1,-1,0
1523612084063,-262144,76,-56,-1,-1,0
1523612084063,-262144,76,-56,-1,-1,0
1523612084063,-196608,76,-56,-1,-1,0
1523612084063,-131072,76,-56,-1,-1,0
1523612084063,0,76,-56,-1,-1,0
1523612084103,0,76,-56,-1,-1,0
