milliseconds, ECG, ECG HR, PPG, PPG HR, SpO2, PI
1523610984752,-393216,72,-56,-1,-1,0
1523610984752,-458752,72,-56,-1,-1,0
1523610984752,-393216,72,-56,-1,-1,0
1523610984752,-393216,72,-56,-1,-1,0
1523610984752,-393216,72,-56,-1,-1,0
1523610984790,-393216,72,-56,-1,-1,0
1523610984790,-458752,72,-56,-1,-1,0
1523610984790,-458752,72,-56,-1,-1,0
1523610984790,-458752,72,-56,-1,-1,0
1523610984790,-524288,72,-56,-1,-1,0
1523610984831,-458752,72,-56,-1,-1,0
1523610984831,-458752,72,-56,-1,-1,0
1523610984831,-458752,72,-56,-1,-1,0
1523610984831,-458752,72,-56,-1,-1,0
1523610984831,-458752,72,-56,-1,-1,0
1523610984870,-458752,72,-56,-1,-1,0
1523610984870,-458752,72,-56,-1,-1,0
1523610984870,-524288,72,-56,-1,-1,0
1523610984870,-524288,72,-56,-1,-1,0
1523610984870,-524288,72,-56,-1,-1,0
1523610984910,-524288,72,-56,-1,-1,0
1523610984910,-524288,72,-56,-1,-1,0
1523610984910,-458752,72,-56,-1,-1,0
1523610984910,-458752,72,-56,-1,-1,0
1523610984910,-524288,72,-56,-1,-1,0
1523610984950,-589824,72,-56,-1,-1,0
1523610984950,-589824,72,-56,-1,-1,0
1523610984950,-524288,72,-56,-1,-1,0
1523610984950,-458752,72,-56,-1,-1,0
1523610984950,-327680,72,-56,-1,-1,0
1523610984990,-131072,72,-56,-1,-1,0
1523610984990,0,72,-56,-1,-1,0
1523610984990,-65536,72,-56,-1,-1,0
1523610984990,-196608,72,-56,-1,-1,0
1523610984990,-327680,72,-56,-1,-1,0
1523610985030,-393216,72,-56,-1,-1,0
1523610985030,-393216,72,-56,-1,-1,0
1523610985030,-393216,72,-56,-1,-1,0
1523610985030,-458752,72,-56,-1,-1,0
1523610985030,-458752,72,-56,-1,-1,0
1523610985070,-458752,72,-56,-1,-1,0
1523610985070,-393216,72,-56,-1,-1,0
1523610985070,-327680,72,-56,-1,-1,0
1523610985070,-262144,72,-56,-1,-1,0
1523610985070,327680,72,-56,-1,-1,0
1523610985110,2490368,72,-56,-1,-1,0
1523610985110,6946816,72,-56,-1,-1,0
1523610985110,11337728,72,-56,-1,-1,0
1523610985110,9961472,72,-56,-1,-1,0
1523610985110,3670016,72,-56,-1,-1,0
1523610985150,-786432,72,-56,-1,-1,0
1523610985150,-851968,72,-56,-1,-1,0
1523610985150,-131072,72,-56,-1,-1,0
1523610985150,0,72,-56,-1,-1,0
1523610985150,-65536,72,-56,-1,-1,0
1523610985190,-131072,72,-56,-1,-1,0
1523610985190,-65536,72,-56,-1,-1,0
1523610985190,0,72,-56,-1,-1,0
1523610985190,0,72,-56,-1,-1,0
1523610985190,0,72,-56,-1,-1,0
1523610985230,65536,72,-56,-1,-1,0
1523610985230,65536,72,-56,-1,-1,0
1523610985230,196608,72,-56,-1,-1,0
1523610985230,327680,72,-56,-1,-1,0
1523610985230,458752,72,-56,-1,-1,0
1523610985270,655360,72,-56,-1,-1,0
1523610985270,786432,72,-56,-1,-1,0
1523610985270,1048576,72,-56,-1,-1,0
1523610985270,1310720,72,-56,-1,-1,0
1523610985270,1572864,72,-56,-1,-1,0
1523610985310,1900544,72,-56,-1,-1,0
1523610985310,2359296,72,-56,-1,-1,0
1523610985310,2818048,72,-56,-1,-1,0
1523610985310,3211264,72,-56,-1,-1,0
1523610985310,3407872,72,-56,-1,-1,0
1523610985350,3473408,72,-56,-1,-1,0
1523610985350,3473408,72,-56,-1,-1,0
1523610985350,3211264,72,-56,-1,-1,0
1523610985350,2818048,72,-56,-1,-1,0
1523610985350,2097152,72,-56,-1,-1,0
1523610985390,1310720,72,-56,-1,-1,0
1523610985390,589824,72,-56,-1,-1,0
1523610985390,131072,72,-56,-1,-1,0
1523610985390,-131072,72,-56,-1,-1,0
1523610985390,-262144,72,-56,-1,-1,0
1523610985430,-327680,72,-56,-1,-1,0
1523610985430,-393216,72,-56,-1,-1,0
1523610985430,-458752,72,-56,-1,-1,0
1523610985430,-589824,72,-56,-1,-1,0
1523610985430,-655360,72,-56,-1,-1,0
1523610985471,-589824,72,-56,-1,-1,0
1523610985471,-458752,72,-56,-1,-1,0
1523610985471,-458752,72,-56,-1,-1,0
1523610985471,-655360,72,-56,-1,-1,0
1523610985471,-720896,72,-56,-1,-1,0
1523610985510,-589824,72,-56,-1,-1,0
1523610985510,-458752,72,-56,-1,-1,0
1523610985510,-589824,72,-56,-1,-1,0
1523610985510,-524288,72,-56,-1,-1,0
1523610985510,-458752,72,-56,-1,-1,0
1523610985550,-458752,72,-56,-1,-1,0
1523610985550,-589824,72,-56,-1,-1,0
1523610985550,-655360,72,-56,-1,-1,0
1523610985550,-720896,72,-56,-1,-1,0
1523610985550,-786432,72,-56,-1,-1,0
1523610985590,-851968,72,-56,-1,-1,0
1523610985590,-851968,72,-56,-1,-1,0
1523610985590,-983040,72,-56,-1,-1,0
1523610985590,-1048576,72,-56,-1,-1,0
1523610985590,-1114112,72,-56,-1,-1,0
1523610985630,-1048576,72,-56,-1,-1,0
1523610985630,-1179648,72,-56,-1,-1,0
1523610985630,-1245184,72,-56,-1,-1,0
1523610985630,-1245184,72,-56,-1,-1,0
1523610985630,-1376256,72,-56,-1,-1,0
1523610985670,-1179648,72,-56,-1,-1,0
1523610985670,-1245184,72,-56,-1,-1,0
1523610985670,-1310720,72,-56,-1,-1,0
1523610985670,-1310720,72,-56,-1,-1,0
1523610985670,-1376256,72,-56,-1,-1,0
1523610985710,-1310720,72,-56,-1,-1,0
1523610985710,-1179648,72,-56,-1,-1,0
1523610985710,-983040,72,-56,-1,-1,0
1523610985710,-917504,72,-56,-1,-1,0
1523610985710,-983040,72,-56,-1,-1,0
1523610985750,-1179648,72,-56,-1,-1,0
1523610985750,-1179648,72,-56,-1,-1,0
1523610985750,-1114112,72,-56,-1,-1,0
1523610985750,-1048576,72,-56,-1,-1,0
1523610985750,-1048576,72,-56,-1,-1,0
1523610985790,-1310720,72,-56,-1,-1,0
1523610985790,-1507328,72,-56,-1,-1,0
1523610985790,-1441792,72,-56,-1,-1,0
1523610985790,-1376256,72,-56,-1,-1,0
1523610985790,-1441792,72,-56,-1,-1,0
1523610985830,-1376256,72,-56,-1,-1,0
1523610985830,-196608,72,-56,-1,-1,0
1523610985830,2883584,72,-56,-1,-1,0
1523610985830,7667712,72,-56,-1,-1,0
1523610985830,10354688,72,-56,-1,-1,0
1523610985870,6815744,72,-56,-1,-1,0
1523610985870,720896,72,-56,-1,-1,0
1523610985870,-2162688,72,-56,-1,-1,0
1523610985870,-1900544,72,-56,-1,-1,0
1523610985870,-1638400,72,-56,-1,-1,0
1523610985910,-1572864,72,-56,-1,-1,0
1523610985910,-1376256,72,-56,-1,-1,0
1523610985910,-1376256,72,-56,-1,-1,0
1523610985910,-1310720,72,-56,-1,-1,0
1523610985910,-1245184,72,-56,-1,-1,0
1523610985950,-1114112,72,-56,-1,-1,0
1523610985950,-1048576,72,-56,-1,-1,0
1523610985950,-851968,72,-56,-1,-1,0
1523610985950,-786432,72,-56,-1,-1,0
1523610985950,-655360,72,-56,-1,-1,0
1523610985990,-589824,72,-56,-1,-1,0
1523610985990,-327680,72,-56,-1,-1,0
1523610985990,-131072,72,-56,-1,-1,0
1523610985990,65536,72,-56,-1,-1,0
1523610985990,393216,72,-56,-1,-1,0
1523610986030,786432,72,-56,-1,-1,0
1523610986030,1048576,72,-56,-1,-1,0
1523610986030,1376256,72,-56,-1,-1,0
1523610986030,1638400,72,-56,-1,-1,0
1523610986030,1900544,72,-56,-1,-1,0
1523610986070,2228224,72,-56,-1,-1,0
1523610986070,2490368,72,-56,-1,-1,0
1523610986070,2555904,72,-56,-1,-1,0
1523610986070,2424832,72,-56,-1,-1,0
1523610986070,2097152,72,-56,-1,-1,0
1523610986111,1572864,72,-56,-1,-1,0
1523610986111,917504,72,-56,-1,-1,0
1523610986111,262144,72,-56,-1,-1,0
1523610986111,-196608,72,-56,-1,-1,0
1523610986111,-524288,72,-56,-1,-1,0
1523610986150,-786432,72,-56,-1,-1,0
1523610986150,-917504,72,-56,-1,-1,0
1523610986150,-983040,72,-56,-1,-1,0
1523610986150,-1179648,72,-56,-1,-1,0
1523610986150,-1376256,72,-56,-1,-1,0
1523610986190,-1310720,72,-56,-1,-1,0
1523610986190,-1179648,72,-56,-1,-1,0
1523610986190,-1179648,72,-56,-1,-1,0
1523610986190,-1179648,72,-56,-1,-1,0
1523610986190,-1048576,72,-56,-1,-1,0
1523610986230,-1114112,72,-56,-1,-1,0
1523610986230,-1245184,72,-56,-1,-1,0
1523610986230,-1310720,72,-56,-1,-1,0
1523610986230,-1245184,72,-56,-1,-1,0
1523610986230,-1245184,72,-56,-1,-1,0
1523610986270,-1310720,72,-56,-1,-1,0
1523610986270,-1310720,72,-56,-1,-1,0
1523610986270,-1245184,72,-56,-1,-1,0
1523610986270,-1310720,72,-56,-1,-1,0
1523610986270,-1507328,72,-56,-1,-1,0
1523610986310,-1703936,72,-56,-1,-1,0
1523610986310,-1769472,72,-56,-1,-1,0
1523610986310,-1769472,72,-56,-1,-1,0
1523610986310,-1835008,72,-56,-1,-1,0
1523610986310,-1769472,72,-56,-1,-1,0
1523610986350,-1638400,72,-56,-1,-1,0
1523610986350,-1572864,72,-56,-1,-1,0
1523610986350,-1507328,72,-56,-1,-1,0
1523610986350,-1441792,72,-56,-1,-1,0
1523610986350,-1441792,72,-56,-1,-1,0
1523610986390,-1703936,72,-56,-1,-1,0
1523610986390,-1835008,72,-56,-1,-1,0
1523610986390,-1900544,72,-56,-1,-1,0
1523610986390,-1966080,72,-56,-1,-1,0
1523610986390,-2031616,72,-56,-1,-1,0
1523610986430,-1966080,72,-56,-1,-1,0
1523610986430,-1769472,72,-56,-1,-1,0
1523610986430,-1638400,72,-56,-1,-1,0
1523610986430,-1572864,72,-56,-1,-1,0
1523610986430,-1638400,72,-56,-1,-1,0
1523610986470,-1638400,72,-56,-1,-1,0
1523610986470,-1638400,72,-56,-1,-1,0
1523610986470,-1638400,72,-56,-1,-1,0
1523610986470,-1638400,72,-56,-1,-1,0
1523610986470,-1507328,72,-56,-1,-1,0
1523610986510,-1507328,72,-56,-1,-1,0
1523610986510,-1507328,72,-56,-1,-1,0
1523610986510,-1572864,72,-56,-1,-1,0
1523610986510,-1638400,72,-56,-1,-1,0
1523610986510,-1769472,72,-56,-1,-1,0
1523610986550,-1900544,72,-56,-1,-1,0
1523610986550,-1638400,72,-56,-1,-1,0
1523610986550,-327680,72,-56,-1,-1,0
1523610986550,2686976,72,-56,-1,-1,0
1523610986550,7471104,72,-56,-1,-1,0
1523610986590,9895936,72,-56,-1,-1,0
1523610986590,6291456,72,-56,-1,-1,0
1523610986590,458752,72,-56,-1,-1,0
1523610986590,-2031616,72,-56,-1,-1,0
1523610986590,-1703936,72,-56,-1,-1,0
1523610986630,-1310720,72,-56,-1,-1,0
1523610986630,-1179648,72,-56,-1,-1,0
1523610986630,-1114112,72,-56,-1,-1,0
1523610986630,-1114112,72,-56,-1,-1,0
1523610986630,-1179648,72,-56,-1,-1,0
1523610986670,-1179648,72,-56,-1,-1,0
1523610986670,-1179648,72,-56,-1,-1,0
1523610986670,-1179648,72,-56,-1,-1,0
1523610986670,-1048576,72,-56,-1,-1,0
1523610986670,-917504,72,-56,-1,-1,0
1523610986710,-720896,72,-56,-1,-1,0
1523610986710,-524288,72,-56,-1,-1,0
1523610986710,-458752,72,-56,-1,-1,0
1523610986710,-262144,72,-56,-1,-1,0
1523610986710,131072,72,-56,-1,-1,0
1523610986755,589824,72,-56,-1,-1,0
1523610986755,851968,72,-56,-1,-1,0
1523610986755,1048576,72,-56,-1,-1,0
1523610986755,1245184,72,-56,-1,-1,0
1523610986755,1638400,72,-56,-1,-1,0
1523610986790,2031616,72,-56,-1,-1,0
1523610986790,2293760,72,-56,-1,-1,0
1523610986790,2490368,72,-56,-1,-1,0
1523610986790,2621440,72,-56,-1,-1,0
1523610986790,2424832,72,-56,-1,-1,0
1523610986830,2031616,72,-56,-1,-1,0
1523610986830,1572864,72,-56,-1,-1,0
1523610986830,1114112,72,-56,-1,-1,0
1523610986830,524288,72,-56,-1,-1,0
1523610986830,-65536,72,-56,-1,-1,0
1523610986870,-524288,72,-56,-1,-1,0
1523610986870,-655360,72,-56,-1,-1,0
1523610986870,-655360,72,-56,-1,-1,0
1523610986870,-786432,72,-56,-1,-1,0
1523610986870,-983040,72,-56,-1,-1,0
1523610986910,-1048576,72,-56,-1,-1,0
1523610986910,-917504,72,-56,-1,-1,0
1523610986910,-917504,72,-56,-1,-1,0
1523610986910,-1114112,72,-56,-1,-1,0
1523610986910,-1179648,72,-56,-1,-1,0
1523610986950,-1048576,72,-56,-1,-1,0
1523610986950,-983040,72,-56,-1,-1,0
1523610986950,-917504,72,-56,-1,-1,0
1523610986950,-851968,72,-56,-1,-1,0
1523610986950,-851968,72,-56,-1,-1,0
1523610986990,-851968,72,-56,-1,-1,0
1523610986990,-851968,72,-56,-1,-1,0
1523610986990,-917504,72,-56,-1,-1,0
1523610986990,-917504,72,-56,-1,-1,0
1523610986990,-851968,72,-56,-1,-1,0
1523610987030,-786432,72,-56,-1,-1,0
1523610987030,-851968,72,-56,-1,-1,0
1523610987030,-983040,72,-56,-1,-1,0
1523610987030,-1048576,72,-56,-1,-1,0
1523610987030,-1048576,72,-56,-1,-1,0
1523610987070,-1048576,72,-56,-1,-1,0
1523610987070,-1048576,72,-56,-1,-1,0
1523610987070,-1179648,72,-56,-1,-1,0
1523610987070,-1310720,72,-56,-1,-1,0
1523610987070,-1310720,72,-56,-1,-1,0
1523610987110,-1441792,72,-56,-1,-1,0
1523610987110,-1507328,72,-56,-1,-1,0
1523610987110,-1441792,72,-56,-1,-1,0
1523610987110,-1310720,72,-56,-1,-1,0
1523610987110,-1179648,72,-56,-1,-1,0
1523610987150,-917504,72,-56,-1,-1,0
1523610987150,-720896,72,-56,-1,-1,0
1523610987150,-720896,72,-56,-1,-1,0
1523610987150,-917504,72,-56,-1,-1,0
1523610987150,-1114112,72,-56,-1,-1,0
1523610987190,-1179648,72,-56,-1,-1,0
1523610987190,-1114112,72,-56,-1,-1,0
1523610987190,-1048576,72,-56,-1,-1,0
1523610987190,-1048576,72,-56,-1,-1,0
1523610987190,-1114112,72,-56,-1,-1,0
1523610987230,-1114112,72,-56,-1,-1,0
1523610987230,-1179648,72,-56,-1,-1,0
1523610987230,-1179648,72,-56,-1,-1,0
1523610987230,-917504,72,-56,-1,-1,0
1523610987230,0,72,-56,-1,-1,0
1523610987270,2752512,72,-56,-1,-1,0
1523610987270,7405568,72,-56,-1,-1,0
1523610987270,10092544,72,-56,-1,-1,0
1523610987270,6946816,72,-56,-1,-1,0
1523610987270,1048576,72,-56,-1,-1,0
1523610987310,-1703936,72,-56,-1,-1,0
1523610987310,-1441792,72,-56,-1,-1,0
1523610987310,-917504,72,-56,-1,-1,0
1523610987310,-786432,72,-56,-1,-1,0
1523610987310,-655360,72,-56,-1,-1,0
1523610987350,-524288,72,-56,-1,-1,0
1523610987350,-458752,72,-56,-1,-1,0
1523610987350,-458752,72,-56,-1,-1,0
1523610987350,-393216,72,-56,-1,-1,0
1523610987350,-327680,72,-56,-1,-1,0
1523610987391,-262144,72,-56,-1,-1,0
1523610987391,-131072,72,-56,-1,-1,0
1523610987391,0,72,-56,-1,-1,0
1523610987391,131072,72,-56,-1,-1,0
1523610987391,262144,72,-56,-1,-1,0
1523610987430,393216,72,-56,-1,-1,0
1523610987430,589824,72,-56,-1,-1,0
1523610987430,786432,72,-56,-1,-1,0
1523610987430,1179648,72,-56,-1,-1,0
1523610987430,1507328,72,-56,-1,-1,0
1523610987470,1703936,72,-56,-1,-1,0
1523610987470,1966080,72,-56,-1,-1,0
1523610987470,2228224,72,-56,-1,-1,0
1523610987470,2555904,72,-56,-1,-1,0
1523610987470,2752512,72,-56,-1,-1,0
1523610987510,2818048,72,-56,-1,-1,0
1523610987510,2686976,72,-56,-1,-1,0
1523610987510,2228224,72,-56,-1,-1,0
1523610987510,1638400,72,-56,-1,-1,0
1523610987510,983040,72,-56,-1,-1,0
1523610987550,524288,72,-56,-1,-1,0
1523610987550,131072,72,-56,-1,-1,0
1523610987550,-196608,72,-56,-1,-1,0
1523610987550,-524288,72,-56,-1,-1,0
1523610987550,-720896,72,-56,-1,-1,0
1523610987591,-720896,72,-56,-1,-1,0
1523610987591,-655360,72,-56,-1,-1,0
1523610987591,-720896,72,-56,-1,-1,0
1523610987591,-720896,72,-56,-1,-1,0
1523610987591,-851968,72,-56,-1,-1,0
1523610987630,-786432,72,-56,-1,-1,0
1523610987630,-720896,72,-56,-1,-1,0
1523610987630,-720896,72,-56,-1,-1,0
1523610987630,-720896,72,-56,-1,-1,0
1523610987630,-720896,72,-56,-1,-1,0
1523610987671,-720896,72,-56,-1,-1,0
1523610987671,-655360,72,-56,-1,-1,0
1523610987671,-524288,72,-56,-1,-1,0
1523610987671,-458752,72,-56,-1,-1,0
1523610987671,-458752,72,-56,-1,-1,0
1523610987710,-458752,72,-56,-1,-1,0
1523610987710,-458752,72,-56,-1,-1,0
1523610987710,-458752,72,-56,-1,-1,0
1523610987710,-458752,72,-56,-1,-1,0
1523610987710,-524288,72,-56,-1,-1,0
1523610987750,-524288,72,-56,-1,-1,0
1523610987750,-458752,72,-56,-1,-1,0
1523610987750,-393216,72,-56,-1,-1,0
1523610987750,-458752,72,-56,-1,-1,0
1523610987750,-458752,72,-56,-1,-1,0
1523610987790,-524288,72,-56,-1,-1,0
1523610987790,-524288,72,-56,-1,-1,0
1523610987790,-524288,72,-56,-1,-1,0
1523610987790,-524288,72,-56,-1,-1,0
1523610987790,-524288,72,-56,-1,-1,0
1523610987832,-589824,72,-56,-1,-1,0
1523610987832,-720896,72,-56,-1,-1,0
1523610987832,-851968,72,-56,-1,-1,0
1523610987832,-851968,72,-56,-1,-1,0
1523610987832,-917504,72,-56,-1,-1,0
1523610987870,-851968,72,-56,-1,-1,0
1523610987870,-655360,72,-56,-1,-1,0
1523610987870,-327680,72,-56,-1,-1,0
1523610987870,-262144,72,-56,-1,-1,0
1523610987870,-393216,72,-56,-1,-1,0
1523610987911,-589824,72,-56,-1,-1,0
1523610987911,-655360,72,-56,-1,-1,0
1523610987911,-720896,72,-56,-1,-1,0
1523610987911,-720896,72,-56,-1,-1,0
1523610987911,-786432,72,-56,-1,-1,0
1523610987950,-786432,72,-56,-1,-1,0
1523610987950,-851968,72,-56,-1,-1,0
1523610987950,-851968,72,-56,-1,-1,0
1523610987950,-786432,72,-56,-1,-1,0
1523610987950,-786432,72,-56,-1,-1,0
1523610987990,-655360,72,-56,-1,-1,0
1523610987990,196608,72,-56,-1,-1,0
1523610987990,2949120,72,-56,-1,-1,0
1523610987990,7864320,72,-56,-1,-1,0
1523610987990,11206656,72,-56,-1,-1,0
1523610988032,8323072,72,-56,-1,-1,0
1523610988032,2162688,72,-56,-1,-1,0
1523610988032,-1048576,72,-56,-1,-1,0
1523610988032,-917504,72,-56,-1,-1,0
1523610988032,-524288,72,-56,-1,-1,0
1523610988070,-524288,72,-56,-1,-1,0
1523610988070,-524288,72,-56,-1,-1,0
1523610988070,-524288,72,-56,-1,-1,0
1523610988070,-458752,72,-56,-1,-1,0
1523610988070,-393216,72,-56,-1,-1,0
1523610988111,-327680,72,-56,-1,-1,0
1523610988111,-262144,72,-56,-1,-1,0
1523610988111,-196608,72,-56,-1,-1,0
1523610988111,-131072,72,-56,-1,-1,0
1523610988111,0,72,-56,-1,-1,0
1523610988150,65536,72,-56,-1,-1,0
1523610988150,262144,72,-56,-1,-1,0
1523610988150,327680,72,-56,-1,-1,0
1523610988150,458752,72,-56,-1,-1,0
1523610988150,655360,72,-56,-1,-1,0
1523610988190,917504,72,-56,-1,-1,0
1523610988190,1245184,72,-56,-1,-1,0
1523610988190,1572864,72,-56,-1,-1,0
1523610988190,1900544,72,-56,-1,-1,0
1523610988190,2097152,72,-56,-1,-1,0
1523610988230,2293760,72,-56,-1,-1,0
1523610988230,2359296,72,-56,-1,-1,0
1523610988230,2228224,72,-56,-1,-1,0
1523610988230,2097152,72,-56,-1,-1,0
1523610988230,1835008,72,-56,-1,-1,0
1523610988270,1441792,72,-56,-1,-1,0
1523610988270,851968,72,-56,-1,-1,0
1523610988270,262144,72,-56,-1,-1,0
1523610988270,-196608,72,-56,-1,-1,0
1523610988270,-524288,72,-56,-1,-1,0
1523610988310,-720896,72,-56,-1,-1,0
1523610988310,-917504,72,-56,-1,-1,0
1523610988310,-1048576,72,-56,-1,-1,0
1523610988310,-1179648,72,-56,-1,-1,0
1523610988310,-1245184,72,-56,-1,-1,0
1523610988350,-1245184,72,-56,-1,-1,0
1523610988350,-1245184,72,-56,-1,-1,0
1523610988350,-1310720,72,-56,-1,-1,0
1523610988350,-1310720,72,-56,-1,-1,0
1523610988350,-1376256,72,-56,-1,-1,0
1523610988390,-1376256,72,-56,-1,-1,0
1523610988390,-1310720,72,-56,-1,-1,0
1523610988390,-1310720,72,-56,-1,-1,0
1523610988390,-1310720,72,-56,-1,-1,0
1523610988390,-1310720,72,-56,-1,-1,0
1523610988430,-1376256,72,-56,-1,-1,0
1523610988430,-1507328,72,-56,-1,-1,0
1523610988430,-1572864,72,-56,-1,-1,0
1523610988430,-1507328,72,-56,-1,-1,0
1523610988430,-1441792,72,-56,-1,-1,0
1523610988470,-1441792,72,-56,-1,-1,0
1523610988470,-1441792,72,-56,-1,-1,0
1523610988470,-1376256,72,-56,-1,-1,0
1523610988470,-1441792,72,-56,-1,-1,0
1523610988470,-1507328,72,-56,-1,-1,0
1523610988511,-1572864,72,-56,-1,-1,0
1523610988511,-1572864,72,-56,-1,-1,0
1523610988511,-1572864,72,-56,-1,-1,0
1523610988511,-1572864,72,-56,-1,-1,0
1523610988511,-1572864,72,-56,-1,-1,0
1523610988550,-1572864,72,-56,-1,-1,0
1523610988550,-1638400,72,-56,-1,-1,0
1523610988550,-1638400,72,-56,-1,-1,0
1523610988550,-1703936,72,-56,-1,-1,0
1523610988550,-1703936,72,-56,-1,-1,0
1523610988590,-1703936,72,-56,-1,-1,0
1523610988590,-1769472,72,-56,-1,-1,0
1523610988590,-1835008,72,-56,-1,-1,0
1523610988590,-2031616,72,-56,-1,-1,0
1523610988590,-2162688,72,-56,-1,-1,0
1523610988631,-2097152,72,-56,-1,-1,0
1523610988631,-1966080,72,-56,-1,-1,0
1523610988631,-1835008,72,-56,-1,-1,0
1523610988631,-1703936,72,-56,-1,-1,0
1523610988631,-1441792,72,-56,-1,-1,0
1523610988672,-1376256,72,-56,-1,-1,0
1523610988672,-1572864,72,-56,-1,-1,0
1523610988672,-1769472,72,-56,-1,-1,0
1523610988672,-1769472,72,-56,-1,-1,0
1523610988672,-1703936,72,-56,-1,-1,0
1523610988710,-1703936,72,-56,-1,-1,0
1523610988710,-1900544,72,-56,-1,-1,0
1523610988710,-2097152,72,-56,-1,-1,0
1523610988710,-2097152,72,-56,-1,-1,0
1523610988710,-2031616,72,-56,-1,-1,0
1523610988750,-1966080,72,-56,-1,-1,0
1523610988750,-1966080,72,-56,-1,-1,0
1523610988750,-1769472,72,-56,-1,-1,0
1523610988750,-262144,72,-56,-1,-1,0
1523610988750,3473408,72,-56,-1,-1,0
1523610988790,8585216,72,-56,-1,-1,0
1523610988790,9830400,72,-56,-1,-1,0
1523610988790,5046272,72,-56,-1,-1,0
1523610988790,-655360,72,-56,-1,-1,0
1523610988790,-2359296,72,-56,-1,-1,0
1523610988830,-2031616,72,-56,-1,-1,0
1523610988830,-1900544,72,-56,-1,-1,0
1523610988830,-1966080,72,-56,-1,-1,0
1523610988830,-1966080,72,-56,-1,-1,0
1523610988830,-1966080,72,-56,-1,-1,0
1523610988870,-1900544,73,-56,-1,-1,0
1523610988870,-1769472,73,-56,-1,-1,0
1523610988870,-1572864,73,-56,-1,-1,0
1523610988870,-1441792,73,-56,-1,-1,0
1523610988870,-1245184,73,-56,-1,-1,0
1523610988910,-1048576,73,-56,-1,-1,0
1523610988910,-851968,73,-56,-1,-1,0
1523610988910,-655360,73,-56,-1,-1,0
1523610988910,-458752,73,-56,-1,-1,0
1523610988910,-262144,73,-56,-1,-1,0
1523610988950,0,73,-56,-1,-1,0
1523610988950,196608,73,-56,-1,-1,0
1523610988950,524288,73,-56,-1,-1,0
1523610988950,851968,73,-56,-1,-1,0
1523610988950,1310720,73,-56,-1,-1,0
1523610988990,1638400,73,-56,-1,-1,0
1523610988990,1966080,73,-56,-1,-1,0
1523610988990,2162688,73,-56,-1,-1,0
1523610988990,2293760,73,-56,-1,-1,0
1523610988990,2228224,73,-56,-1,-1,0
1523610989030,1900544,73,-56,-1,-1,0
1523610989030,1507328,73,-56,-1,-1,0
1523610989030,1048576,73,-56,-1,-1,0
1523610989030,524288,73,-56,-1,-1,0
1523610989030,131072,73,-56,-1,-1,0
1523610989070,-131072,73,-56,-1,-1,0
1523610989070,-393216,73,-56,-1,-1,0
1523610989070,-589824,73,-56,-1,-1,0
1523610989070,-786432,73,-56,-1,-1,0
1523610989070,-851968,73,-56,-1,-1,0
1523610989110,-786432,73,-56,-1,-1,0
1523610989110,-720896,73,-56,-1,-1,0
1523610989110,-720896,73,-56,-1,-1,0
1523610989110,-589824,73,-56,-1,-1,0
1523610989110,-589824,73,-56,-1,-1,0
1523610989150,-655360,73,-56,-1,-1,0
1523610989150,-589824,73,-56,-1,-1,0
1523610989150,-458752,73,-56,-1,-1,0
1523610989150,-458752,73,-56,-1,-1,0
1523610989150,-393216,73,-56,-1,-1,0
1523610989190,-393216,73,-56,-1,-1,0
1523610989190,-327680,73,-56,-1,-1,0
1523610989190,-327680,73,-56,-1,-1,0
1523610989190,-196608,73,-56,-1,-1,0
1523610989190,-196608,73,-56,-1,-1,0
1523610989230,-262144,73,-56,-1,-1,0
1523610989230,-262144,73,-56,-1,-1,0
1523610989230,-262144,73,-56,-1,-1,0
1523610989230,-196608,73,-56,-1,-1,0
1523610989230,-262144,73,-56,-1,-1,0
1523610989271,-262144,73,-56,-1,-1,0
1523610989271,-196608,73,-56,-1,-1,0
1523610989271,-131072,73,-56,-1,-1,0
1523610989271,-131072,73,-56,-1,-1,0
1523610989271,-131072,73,-56,-1,-1,0
1523610989321,-65536,73,-56,-1,-1,0
1523610989321,0,73,-56,-1,-1,0
1523610989321,-131072,73,-56,-1,-1,0
1523610989321,-262144,73,-56,-1,-1,0
1523610989321,-327680,73,-56,-1,-1,0
1523610989351,-327680,73,-56,-1,-1,0
1523610989351,-327680,73,-56,-1,-1,0
1523610989351,-262144,73,-56,-1,-1,0
1523610989351,-196608,73,-56,-1,-1,0
1523610989351,-196608,73,-56,-1,-1,0
1523610989390,-131072,73,-56,-1,-1,0
1523610989390,-65536,73,-56,-1,-1,0
1523610989390,-65536,73,-56,-1,-1,0
1523610989390,-262144,73,-56,-1,-1,0
1523610989390,-393216,73,-56,-1,-1,0
1523610989430,-458752,73,-56,-1,-1,0
1523610989430,-589824,73,-56,-1,-1,0
1523610989430,-524288,73,-56,-1,-1,0
1523610989430,-393216,73,-56,-1,-1,0
1523610989430,-196608,73,-56,-1,-1,0
1523610989470,65536,73,-56,-1,-1,0
1523610989470,262144,73,-56,-1,-1,0
1523610989470,262144,73,-56,-1,-1,0
1523610989470,196608,73,-56,-1,-1,0
1523610989470,131072,73,-56,-1,-1,0
1523610989511,65536,73,-56,-1,-1,0
1523610989511,65536,73,-56,-1,-1,0
1523610989511,65536,73,-56,-1,-1,0
1523610989511,131072,73,-56,-1,-1,0
1523610989511,196608,73,-56,-1,-1,0
1523610989550,262144,73,-56,-1,-1,0
1523610989550,262144,73,-56,-1,-1,0
1523610989550,262144,73,-56,-1,-1,0
1523610989550,262144,73,-56,-1,-1,0
1523610989550,851968,73,-56,-1,-1,0
1523610989591,3080192,73,-56,-1,-1,0
1523610989591,7667712,73,-56,-1,-1,0
1523610989591,12189696,73,-56,-1,-1,0
1523610989591,11075584,73,-56,-1,-1,0
1523610989591,4980736,73,-56,-1,-1,0
1523610989630,393216,73,-56,-1,-1,0
1523610989630,0,73,-56,-1,-1,0
1523610989630,524288,73,-56,-1,-1,0
1523610989630,589824,73,-56,-1,-1,0
1523610989630,524288,73,-56,-1,-1,0
1523610989670,524288,73,-56,-1,-1,0
1523610989670,589824,73,-56,-1,-1,0
1523610989670,589824,73,-56,-1,-1,0
1523610989670,655360,73,-56,-1,-1,0
1523610989670,655360,73,-56,-1,-1,0
1523610989710,720896,73,-56,-1,-1,0
1523610989710,851968,73,-56,-1,-1,0
1523610989710,983040,73,-56,-1,-1,0
1523610989710,1114112,73,-56,-1,-1,0
1523610989710,1245184,73,-56,-1,-1,0
1523610989750,1441792,73,-56,-1,-1,0
1523610989750,1703936,73,-56,-1,-1,0
1523610989750,1966080,73,-56,-1,-1,0
1523610989750,2097152,73,-56,-1,-1,0
1523610989750,2293760,73,-56,-1,-1,0
1523610989790,2555904,73,-56,-1,-1,0
1523610989790,2883584,73,-56,-1,-1,0
1523610989790,3145728,73,-56,-1,-1,0
1523610989790,3407872,73,-56,-1,-1,0
1523610989790,3604480,73,-56,-1,-1,0
1523610989831,3670016,73,-56,-1,-1,0
1523610989831,3670016,73,-56,-1,-1,0
1523610989831,3473408,73,-56,-1,-1,0
1523610989831,3080192,73,-56,-1,-1,0
1523610989831,2555904,73,-56,-1,-1,0
1523610989870,1966080,73,-56,-1,-1,0
1523610989870,1572864,73,-56,-1,-1,0
1523610989870,1245184,73,-56,-1,-1,0
1523610989870,851968,73,-56,-1,-1,0
1523610989870,589824,73,-56,-1,-1,0
1523610989910,524288,73,-56,-1,-1,0
1523610989910,458752,73,-56,-1,-1,0
1523610989910,393216,73,-56,-1,-1,0
1523610989910,327680,73,-56,-1,-1,0
1523610989910,393216,73,-56,-1,-1,0
1523610989951,327680,73,-56,-1,-1,0
1523610989951,327680,73,-56,-1,-1,0
1523610989951,393216,73,-56,-1,-1,0
1523610989951,458752,73,-56,-1,-1,0
1523610989951,458752,73,-56,-1,-1,0
1523610989990,458752,73,-56,-1,-1,0
1523610989990,393216,73,-56,-1,-1,0
1523610989990,393216,73,-56,-1,-1,0
1523610989990,393216,73,-56,-1,-1,0
1523610989990,393216,73,-56,-1,-1,0
1523610990030,327680,73,-56,-1,-1,0
1523610990030,327680,73,-56,-1,-1,0
1523610990030,262144,73,-56,-1,-1,0
1523610990030,196608,73,-56,-1,-1,0
1523610990030,196608,73,-56,-1,-1,0
1523610990070,196608,73,-56,-1,-1,0
1523610990070,196608,73,-56,-1,-1,0
1523610990070,131072,73,-56,-1,-1,0
1523610990070,131072,73,-56,-1,-1,0
1523610990070,131072,73,-56,-1,-1,0
1523610990110,65536,73,-56,-1,-1,0
1523610990110,131072,73,-56,-1,-1,0
1523610990110,65536,73,-56,-1,-1,0
1523610990110,0,73,-56,-1,-1,0
1523610990110,0,73,-56,-1,-1,0
1523610990150,0,73,-56,-1,-1,0
1523610990150,0,73,-56,-1,-1,0
1523610990150,0,73,-56,-1,-1,0
1523610990150,-65536,73,-56,-1,-1,0
1523610990150,-131072,73,-56,-1,-1,0
1523610990190,-65536,73,-56,-1,-1,0
1523610990190,-65536,73,-56,-1,-1,0
1523610990190,0,73,-56,-1,-1,0
1523610990190,0,73,-56,-1,-1,0
1523610990190,0,73,-56,-1,-1,0
1523610990230,0,73,-56,-1,-1,0
1523610990230,0,73,-56,-1,-1,0
1523610990230,0,73,-56,-1,-1,0
1523610990230,0,73,-56,-1,-1,0
1523610990230,-65536,73,-56,-1,-1,0
1523610990269,-65536,73,-56,-1,-1,0
1523610990269,-196608,73,-56,-1,-1,0
1523610990269,-262144,73,-56,-1,-1,0
1523610990269,-327680,73,-56,-1,-1,0
1523610990269,-262144,73,-56,-1,-1,0
1523610990309,-196608,73,-56,-1,-1,0
1523610990309,-131072,73,-56,-1,-1,0
1523610990309,0,73,-56,-1,-1,0
1523610990309,131072,73,-56,-1,-1,0
1523610990309,131072,73,-56,-1,-1,0
1523610990350,0,73,-56,-1,-1,0
1523610990350,-131072,73,-56,-1,-1,0
1523610990350,-196608,73,-56,-1,-1,0
1523610990350,-196608,73,-56,-1,-1,0
1523610990350,-196608,73,-56,-1,-1,0
1523610990389,-262144,73,-56,-1,-1,0
1523610990389,-262144,73,-56,-1,-1,0
1523610990389,-262144,73,-56,-1,-1,0
1523610990389,-262144,73,-56,-1,-1,0
1523610990389,-262144,73,-56,-1,-1,0
1523610990430,-262144,73,-56,-1,-1,0
1523610990430,0,73,-56,-1,-1,0
1523610990430,1507328,73,-56,-1,-1,0
1523610990430,5242880,73,-56,-1,-1,0
1523610990430,10289152,73,-56,-1,-1,0
1523610990469,11141120,73,-56,-1,-1,0
1523610990469,6029312,73,-56,-1,-1,0
1523610990469,458752,73,-56,-1,-1,0
1523610990469,-851968,73,-56,-1,-1,0
1523610990469,-327680,73,-56,-1,-1,0
1523610990509,-262144,73,-56,-1,-1,0
1523610990509,-327680,73,-56,-1,-1,0
1523610990509,-327680,73,-56,-1,-1,0
1523610990509,-262144,73,-56,-1,-1,0
1523610990509,-262144,73,-56,-1,-1,0
1523610990549,-196608,73,-56,-1,-1,0
1523610990549,-196608,73,-56,-1,-1,0
1523610990549,-131072,73,-56,-1,-1,0
1523610990549,-65536,73,-56,-1,-1,0
1523610990549,0,73,-56,-1,-1,0
1523610990592,131072,73,-56,-1,-1,0
1523610990592,196608,73,-56,-1,-1,0
1523610990592,393216,73,-56,-1,-1,0
1523610990592,589824,73,-56,-1,-1,0
1523610990592,786432,73,-56,-1,-1,0
1523610990631,983040,73,-56,-1,-1,0
1523610990631,1245184,73,-56,-1,-1,0
1523610990631,1507328,73,-56,-1,-1,0
1523610990631,1835008,73,-56,-1,-1,0
1523610990631,2097152,73,-56,-1,-1,0
1523610990669,2359296,73,-56,-1,-1,0
1523610990669,2490368,73,-56,-1,-1,0
1523610990669,2621440,73,-56,-1,-1,0
1523610990669,2686976,73,-56,-1,-1,0
1523610990669,2621440,73,-56,-1,-1,0
1523610990709,2293760,73,-56,-1,-1,0
1523610990709,1835008,73,-56,-1,-1,0
1523610990709,1376256,73,-56,-1,-1,0
1523610990709,917504,73,-56,-1,-1,0
1523610990709,458752,73,-56,-1,-1,0
1523610990749,131072,73,-56,-1,-1,0
1523610990749,0,73,-56,-1,-1,0
1523610990749,-131072,73,-56,-1,-1,0
1523610990749,-196608,73,-56,-1,-1,0
1523610990749,-262144,73,-56,-1,-1,0
1523610990789,-327680,73,-56,-1,-1,0
1523610990789,-327680,73,-56,-1,-1,0
1523610990789,-327680,73,-56,-1,-1,0
1523610990789,-327680,73,-56,-1,-1,0
1523610990789,-327680,73,-56,-1,-1,0
1523610990829,-262144,73,-56,-1,-1,0
1523610990829,-196608,73,-56,-1,-1,0
1523610990829,-196608,73,-56,-1,-1,0
1523610990829,-131072,73,-56,-1,-1,0
1523610990829,-131072,73,-56,-1,-1,0
1523610990869,-131072,73,-56,-1,-1,0
1523610990869,-131072,73,-56,-1,-1,0
1523610990869,-131072,73,-56,-1,-1,0
1523610990869,-131072,73,-56,-1,-1,0
1523610990869,-196608,73,-56,-1,-1,0
1523610990909,-196608,73,-56,-1,-1,0
1523610990909,-196608,73,-56,-1,-1,0
1523610990909,-196608,73,-56,-1,-1,0
1523610990909,-196608,73,-56,-1,-1,0
1523610990909,-262144,73,-56,-1,-1,0
1523610990949,-262144,73,-56,-1,-1,0
1523610990949,-262144,73,-56,-1,-1,0
1523610990949,-327680,73,-56,-1,-1,0
1523610990949,-393216,73,-56,-1,-1,0
1523610990949,-458752,73,-56,-1,-1,0
1523610990989,-458752,73,-56,-1,-1,0
1523610990989,-458752,73,-56,-1,-1,0
1523610990989,-458752,73,-56,-1,-1,0
1523610990989,-458752,73,-56,-1,-1,0
1523610990989,-458752,73,-56,-1,-1,0
1523610991029,-524288,73,-56,-1,-1,0
1523610991029,-524288,73,-56,-1,-1,0
1523610991029,-589824,73,-56,-1,-1,0
1523610991029,-589824,73,-56,-1,-1,0
1523610991029,-524288,73,-56,-1,-1,0
1523610991069,-524288,73,-56,-1,-1,0
1523610991069,-589824,73,-56,-1,-1,0
1523610991069,-589824,73,-56,-1,-1,0
1523610991069,-589824,73,-56,-1,-1,0
1523610991069,-589824,73,-56,-1,-1,0
1523610991109,-524288,73,-56,-1,-1,0
1523610991109,-458752,73,-56,-1,-1,0
1523610991109,-393216,73,-56,-1,-1,0
1523610991109,-393216,73,-56,-1,-1,0
1523610991109,-327680,73,-56,-1,-1,0
1523610991150,-262144,73,-56,-1,-1,0
1523610991150,-196608,73,-56,-1,-1,0
1523610991150,-131072,73,-56,-1,-1,0
1523610991150,-196608,73,-56,-1,-1,0
1523610991150,-196608,73,-56,-1,-1,0
1523610991189,-196608,73,-56,-1,-1,0
1523610991189,-65536,73,-56,-1,-1,0
1523610991189,65536,73,-56,-1,-1,0
1523610991189,196608,73,-56,-1,-1,0
1523610991189,262144,73,-56,-1,-1,0
1523610991231,393216,73,-56,-1,-1,0
1523610991231,393216,73,-56,-1,-1,0
1523610991231,262144,73,-56,-1,-1,0
1523610991231,196608,73,-56,-1,-1,0
1523610991231,196608,73,-56,-1,-1,0
1523610991269,65536,73,-56,-1,-1,0
1523610991269,-131072,73,-56,-1,-1,0
1523610991269,-196608,73,-56,-1,-1,0
1523610991269,-131072,73,-56,-1,-1,0
1523610991269,-196608,73,-56,-1,-1,0
1523610991310,-262144,73,-56,-1,-1,0
1523610991310,-327680,73,-56,-1,-1,0
1523610991310,-131072,73,-56,-1,-1,0
1523610991310,917504,73,-56,-1,-1,0
1523610991310,3866624,73,-56,-1,-1,0
1523610991349,8454144,73,-56,-1,-1,0
1523610991349,10551296,73,-56,-1,-1,0
1523610991349,6684672,73,-56,-1,-1,0
1523610991349,851968,73,-56,-1,-1,0
1523610991349,-1572864,73,-56,-1,-1,0
1523610991390,-1376256,73,-56,-1,-1,0
1523610991390,-1114112,73,-56,-1,-1,0
1523610991390,-1179648,73,-56,-1,-1,0
1523610991390,-1245184,73,-56,-1,-1,0
1523610991390,-1179648,73,-56,-1,-1,0
1523610991429,-1048576,73,-56,-1,-1,0
1523610991429,-1048576,73,-56,-1,-1,0
1523610991429,-1048576,73,-56,-1,-1,0
1523610991429,-1048576,73,-56,-1,-1,0
1523610991429,-983040,73,-56,-1,-1,0
1523610991470,-983040,73,-56,-1,-1,0
1523610991470,-983040,73,-56,-1,-1,0
1523610991470,-917504,73,-56,-1,-1,0
1523610991470,-786432,73,-56,-1,-1,0
1523610991470,-655360,73,-56,-1,-1,0
1523610991510,-524288,73,-56,-1,-1,0
1523610991510,-262144,73,-56,-1,-1,0
1523610991510,0,73,-56,-1,-1,0
1523610991510,131072,73,-56,-1,-1,0
1523610991510,458752,73,-56,-1,-1,0
1523610991550,786432,73,-56,-1,-1,0
1523610991550,1048576,73,-56,-1,-1,0
1523610991550,1245184,73,-56,-1,-1,0
1523610991550,1376256,73,-56,-1,-1,0
1523610991550,1376256,73,-56,-1,-1,0
1523610991589,1310720,73,-56,-1,-1,0
1523610991589,1179648,73,-56,-1,-1,0
1523610991589,786432,73,-56,-1,-1,0
1523610991589,262144,73,-56,-1,-1,0
1523610991589,-262144,73,-56,-1,-1,0
1523610991630,-655360,73,-56,-1,-1,0
1523610991630,-1114112,73,-56,-1,-1,0
1523610991630,-1376256,73,-56,-1,-1,0
1523610991630,-1507328,73,-56,-1,-1,0
1523610991630,-1572864,73,-56,-1,-1,0
1523610991670,-1703936,73,-56,-1,-1,0
1523610991670,-1769472,73,-56,-1,-1,0
1523610991670,-1835008,73,-56,-1,-1,0
1523610991670,-1769472,73,-56,-1,-1,0
1523610991670,-1769472,73,-56,-1,-1,0
1523610991710,-1703936,73,-56,-1,-1,0
1523610991710,-1638400,73,-56,-1,-1,0
1523610991710,-1572864,73,-56,-1,-1,0
1523610991710,-1572864,73,-56,-1,-1,0
1523610991710,-1572864,73,-56,-1,-1,0
1523610991750,-1638400,73,-56,-1,-1,0
1523610991750,-1572864,73,-56,-1,-1,0
1523610991750,-1572864,73,-56,-1,-1,0
1523610991750,-1572864,73,-56,-1,-1,0
1523610991750,-1572864,73,-56,-1,-1,0
1523610991790,-1572864,73,-56,-1,-1,0
1523610991790,-1572864,73,-56,-1,-1,0
1523610991790,-1638400,73,-56,-1,-1,0
1523610991790,-1572864,73,-56,-1,-1,0
1523610991790,-1507328,73,-56,-1,-1,0
1523610991829,-1441792,73,-56,-1,-1,0
1523610991829,-1441792,73,-56,-1,-1,0
1523610991829,-1441792,73,-56,-1,-1,0
1523610991829,-1572864,73,-56,-1,-1,0
1523610991829,-1572864,73,-56,-1,-1,0
1523610991871,-1441792,73,-56,-1,-1,0
1523610991871,-1376256,73,-56,-1,-1,0
1523610991871,-1376256,73,-56,-1,-1,0
1523610991871,-1572864,73,-56,-1,-1,0
1523610991871,-1703936,73,-56,-1,-1,0
1523610991910,-1769472,73,-56,-1,-1,0
1523610991910,-1703936,73,-56,-1,-1,0
1523610991910,-1638400,73,-56,-1,-1,0
1523610991910,-1638400,73,-56,-1,-1,0
1523610991910,-1703936,73,-56,-1,-1,0
1523610991950,-1703936,73,-56,-1,-1,0
1523610991950,-1703936,73,-56,-1,-1,0
1523610991950,-1769472,73,-56,-1,-1,0
1523610991950,-1769472,73,-56,-1,-1,0
1523610991950,-1835008,73,-56,-1,-1,0
1523610991990,-1835008,73,-56,-1,-1,0
1523610991990,-1769472,73,-56,-1,-1,0
1523610991990,-1769472,73,-56,-1,-1,0
1523610991990,-1638400,73,-56,-1,-1,0
1523610991990,-1507328,73,-56,-1,-1,0
1523610992030,-1376256,73,-56,-1,-1,0
1523610992030,-1376256,73,-56,-1,-1,0
1523610992030,-1507328,73,-56,-1,-1,0
1523610992030,-1638400,73,-56,-1,-1,0
1523610992030,-1703936,73,-56,-1,-1,0
1523610992070,-1638400,73,-56,-1,-1,0
1523610992070,-1638400,73,-56,-1,-1,0
1523610992070,-1638400,73,-56,-1,-1,0
1523610992070,-1572864,73,-56,-1,-1,0
1523610992070,-1507328,73,-56,-1,-1,0
1523610992110,-1507328,73,-56,-1,-1,0
1523610992110,-1572864,73,-56,-1,-1,0
1523610992110,-1572864,73,-56,-1,-1,0
1523610992110,-1310720,73,-56,-1,-1,0
1523610992110,0,73,-56,-1,-1,0
1523610992150,3211264,73,-56,-1,-1,0
1523610992150,7733248,73,-56,-1,-1,0
1523610992150,8978432,73,-56,-1,-1,0
1523610992150,4653056,73,-56,-1,-1,0
1523610992150,-524288,73,-56,-1,-1,0
1523610992190,-2031616,73,-56,-1,-1,0
1523610992190,-1572864,73,-56,-1,-1,0
1523610992190,-1310720,73,-56,-1,-1,0
1523610992190,-1310720,73,-56,-1,-1,0
1523610992190,-1310720,73,-56,-1,-1,0
1523610992230,-1245184,74,-56,-1,-1,0
1523610992230,-1048576,74,-56,-1,-1,0
1523610992230,-917504,74,-56,-1,-1,0
1523610992230,-917504,74,-56,-1,-1,0
1523610992230,-917504,74,-56,-1,-1,0
1523610992270,-720896,74,-56,-1,-1,0
1523610992270,-589824,74,-56,-1,-1,0
1523610992270,-458752,74,-56,-1,-1,0
1523610992270,-393216,74,-56,-1,-1,0
1523610992270,-262144,74,-56,-1,-1,0
1523610992310,-131072,74,-56,-1,-1,0
1523610992310,131072,74,-56,-1,-1,0
1523610992310,524288,74,-56,-1,-1,0
1523610992310,851968,74,-56,-1,-1,0
1523610992310,1048576,74,-56,-1,-1,0
1523610992350,1245184,74,-56,-1,-1,0
1523610992350,1441792,74,-56,-1,-1,0
1523610992350,1703936,74,-56,-1,-1,0
1523610992350,2097152,74,-56,-1,-1,0
1523610992350,2490368,74,-56,-1,-1,0
1523610992390,2621440,74,-56,-1,-1,0
1523610992390,2555904,74,-56,-1,-1,0
1523610992390,2228224,74,-56,-1,-1,0
1523610992390,1769472,74,-56,-1,-1,0
1523610992390,1310720,74,-56,-1,-1,0
1523610992430,851968,74,-56,-1,-1,0
1523610992430,655360,74,-56,-1,-1,0
1523610992430,655360,74,-56,-1,-1,0
1523610992430,589824,74,-56,-1,-1,0
1523610992430,393216,74,-56,-1,-1,0
1523610992470,65536,74,-56,-1,-1,0
1523610992470,0,74,-56,-1,-1,0
1523610992470,196608,74,-56,-1,-1,0
1523610992470,262144,74,-56,-1,-1,0
1523610992470,0,74,-56,-1,-1,0
1523610992511,-589824,74,-56,-1,-1,0
1523610992511,-1048576,74,-56,-1,-1,0
1523610992511,-983040,74,-56,-1,-1,0
1523610992511,-655360,74,-56,-1,-1,0
1523610992511,-458752,74,-56,-1,-1,0
1523610992550,-458752,74,-56,-1,-1,0
1523610992550,-458752,74,-56,-1,-1,0
1523610992550,-458752,74,-56,-1,-1,0
1523610992550,-786432,74,-56,-1,-1,0
1523610992550,-1245184,74,-56,-1,-1,0
1523610992590,-1441792,74,-56,-1,-1,0
1523610992590,-1507328,74,-56,-1,-1,0
1523610992590,-1376256,74,-56,-1,-1,0
1523610992590,-1245184,74,-56,-1,-1,0
1523610992590,-1310720,74,-56,-1,-1,0
1523610992630,-1179648,74,-56,-1,-1,0
1523610992630,-1310720,74,-56,-1,-1,0
1523610992630,-1638400,74,-56,-1,-1,0
1523610992630,-1900544,74,-56,-1,-1,0
1523610992630,-1835008,74,-56,-1,-1,0
1523610992670,-1769472,74,-56,-1,-1,0
1523610992670,-2031616,74,-56,-1,-1,0
1523610992670,-2162688,74,-56,-1,-1,0
1523610992670,-1966080,74,-56,-1,-1,0
1523610992670,-1572864,74,-56,-1,-1,0
1523610992710,-1376256,74,-56,-1,-1,0
1523610992710,-1441792,74,-56,-1,-1,0
1523610992710,-1638400,74,-56,-1,-1,0
1523610992710,-1507328,74,-56,-1,-1,0
1523610992710,-1310720,74,-56,-1,-1,0
1523610992750,-1245184,74,-56,-1,-1,0
1523610992750,-1245184,74,-56,-1,-1,0
1523610992750,-983040,74,-56,-1,-1,0
1523610992750,-1114112,74,-56,-1,-1,0
1523610992750,-1245184,74,-56,-1,-1,0
1523610992790,-1114112,74,-56,-1,-1,0
1523610992790,-524288,74,-56,-1,-1,0
1523610992790,65536,74,-56,-1,-1,0
1523610992790,393216,74,-56,-1,-1,0
1523610992790,0,74,-56,-1,-1,0
1523610992830,-458752,74,-56,-1,-1,0
1523610992830,-786432,74,-56,-1,-1,0
1523610992830,-1245184,74,-56,-1,-1,0
1523610992830,-1507328,74,-56,-1,-1,0
1523610992830,-1310720,74,-56,-1,-1,0
1523610992870,-1441792,74,-56,-1,-1,0
1523610992870,-1376256,74,-56,-1,-1,0
1523610992870,-1048576,74,-56,-1,-1,0
1523610992870,-917504,74,-56,-1,-1,0
1523610992870,-1179648,74,-56,-1,-1,0
1523610992910,-786432,74,-56,-1,-1,0
1523610992910,-458752,74,-56,-1,-1,0
1523610992910,-393216,74,-56,-1,-1,0
1523610992910,0,74,-56,-1,-1,0
1523610992910,2162688,74,-56,-1,-1,0
1523610992950,6684672,74,-56,-1,-1,0
1523610992950,10027008,74,-56,-1,-1,0
1523610992950,8257536,74,-56,-1,-1,0
1523610992950,2555904,74,-56,-1,-1,0
1523610992950,-1048576,74,-56,-1,-1,0
1523610992990,-1114112,75,-56,-1,-1,0
1523610992990,-393216,75,-56,-1,-1,0
1523610992990,-131072,75,-56,-1,-1,0
1523610992990,-196608,75,-56,-1,-1,0
1523610992990,-131072,75,-56,-1,-1,0
1523610993030,-393216,75,-56,-1,-1,0
1523610993030,-589824,75,-56,-1,-1,0
1523610993030,-458752,75,-56,-1,-1,0
1523610993030,65536,75,-56,-1,-1,0
1523610993030,393216,75,-56,-1,-1,0
1523610993070,393216,75,-56,-1,-1,0
1523610993070,131072,75,-56,-1,-1,0
1523610993070,65536,75,-56,-1,-1,0
1523610993070,327680,75,-56,-1,-1,0
1523610993070,262144,75,-56,-1,-1,0
1523610993110,262144,75,-56,-1,-1,0
1523610993110,327680,75,-56,-1,-1,0
1523610993110,786432,75,-56,-1,-1,0
1523610993110,917504,75,-56,-1,-1,0
1523610993110,1638400,75,-56,-1,-1,0
1523610993151,2097152,75,-56,-1,-1,0
1523610993151,2293760,75,-56,-1,-1,0
1523610993151,2293760,75,-56,-1,-1,0
1523610993151,2228224,75,-56,-1,-1,0
1523610993151,2293760,75,-56,-1,-1,0
1523610993190,2621440,75,-56,-1,-1,0
1523610993190,2752512,75,-56,-1,-1,0
1523610993190,1900544,75,-56,-1,-1,0
1523610993190,1310720,75,-56,-1,-1,0
1523610993190,1507328,75,-56,-1,-1,0
1523610993230,1441792,75,-56,-1,-1,0
1523610993230,589824,75,-56,-1,-1,0
1523610993230,131072,75,-56,-1,-1,0
1523610993230,-196608,75,-56,-1,-1,0
1523610993230,-655360,75,-56,-1,-1,0
1523610993270,-589824,75,-56,-1,-1,0
1523610993270,-131072,75,-56,-1,-1,0
1523610993270,0,75,-56,-1,-1,0
1523610993270,0,75,-56,-1,-1,0
1523610993270,-131072,75,-56,-1,-1,0
1523610993310,0,75,-56,-1,-1,0
1523610993310,131072,75,-56,-1,-1,0
1523610993310,131072,75,-56,-1,-1,0
1523610993310,0,75,-56,-1,-1,0
1523610993310,0,75,-56,-1,-1,0
1523610993350,0,75,-56,-1,-1,0
1523610993350,0,75,-56,-1,-1,0
1523610993350,-262144,75,-56,-1,-1,0
1523610993350,-262144,75,-56,-1,-1,0
1523610993350,-196608,75,-56,-1,-1,0
1523610993390,-65536,75,-56,-1,-1,0
1523610993390,-196608,75,-56,-1,-1,0
1523610993390,-262144,75,-56,-1,-1,0
1523610993390,-327680,75,-56,-1,-1,0
1523610993390,-458752,75,-56,-1,-1,0
1523610993430,-327680,75,-56,-1,-1,0
1523610993430,-196608,75,-56,-1,-1,0
1523610993430,-262144,75,-56,-1,-1,0
1523610993430,-327680,75,-56,-1,-1,0
1523610993430,-262144,75,-56,-1,-1,0
1523610993470,-262144,75,-56,-1,-1,0
1523610993470,-327680,75,-56,-1,-1,0
1523610993470,-327680,75,-56,-1,-1,0
1523610993470,-458752,75,-56,-1,-1,0
1523610993470,-458752,75,-56,-1,-1,0
1523610993510,-458752,75,-56,-1,-1,0
1523610993510,-393216,75,-56,-1,-1,0
1523610993510,-327680,75,-56,-1,-1,0
1523610993510,-327680,75,-56,-1,-1,0
1523610993510,-327680,75,-56,-1,-1,0
1523610993550,-458752,75,-56,-1,-1,0
1523610993550,-720896,75,-56,-1,-1,0
1523610993550,-983040,75,-56,-1,-1,0
1523610993550,-851968,75,-56,-1,-1,0
1523610993550,-655360,75,-56,-1,-1,0
1523610993590,-393216,75,-56,-1,-1,0
1523610993590,-196608,75,-56,-1,-1,0
1523610993590,-196608,75,-56,-1,-1,0
1523610993590,-262144,75,-56,-1,-1,0
1523610993590,-262144,75,-56,-1,-1,0
1523610993630,-65536,75,-56,-1,-1,0
1523610993630,0,75,-56,-1,-1,0
1523610993630,0,75,-56,-1,-1,0
1523610993630,-458752,75,-56,-1,-1,0
1523610993630,-786432,75,-56,-1,-1,0
1523610993670,-851968,75,-56,-1,-1,0
1523610993670,-655360,75,-56,-1,-1,0
1523610993670,-262144,75,-56,-1,-1,0
1523610993670,-65536,75,-56,-1,-1,0
1523610993670,720896,75,-56,-1,-1,0
1523610993710,2949120,76,-56,-1,-1,0
1523610993710,6553600,76,-56,-1,-1,0
1523610993710,9437184,76,-56,-1,-1,0
1523610993710,8192000,76,-56,-1,-1,0
1523610993710,2949120,76,-56,-1,-1,0
1523610993750,-851968,76,-56,-1,-1,0
1523610993750,-1245184,76,-56,-1,-1,0
1523610993750,-458752,76,-56,-1,-1,0
1523610993750,0,76,-56,-1,-1,0
1523610993750,262144,76,-56,-1,-1,0
1523610993797,0,76,-56,-1,-1,0
1523610993797,-589824,76,-56,-1,-1,0
1523610993797,-524288,76,-56,-1,-1,0
1523610993797,0,76,-56,-1,-1,0
1523610993797,0,76,-56,-1,-1,0
1523610993830,-327680,76,-56,-1,-1,0
1523610993830,-131072,76,-56,-1,-1,0
1523610993830,262144,76,-56,-1,-1,0
1523610993830,458752,76,-56,-1,-1,0
1523610993830,524288,76,-56,-1,-1,0
1523610993870,851968,76,-56,-1,-1,0
1523610993870,917504,76,-56,-1,-1,0
1523610993870,851968,76,-56,-1,-1,0
1523610993870,1114112,76,-56,-1,-1,0
1523610993870,1703936,76,-56,-1,-1,0
1523610993910,2031616,76,-56,-1,-1,0
1523610993910,2228224,76,-56,-1,-1,0
1523610993910,2555904,76,-56,-1,-1,0
1523610993910,2818048,76,-56,-1,-1,0
1523610993910,3014656,76,-56,-1,-1,0
1523610993950,3276800,76,-56,-1,-1,0
1523610993950,3276800,76,-56,-1,-1,0
1523610993950,3145728,76,-56,-1,-1,0
1523610993950,2818048,76,-56,-1,-1,0
1523610993950,2162688,76,-56,-1,-1,0
1523610993990,1703936,76,-56,-1,-1,0
1523610993990,1507328,76,-56,-1,-1,0
1523610993990,1310720,76,-56,-1,-1,0
1523610993990,1114112,76,-56,-1,-1,0
1523610993990,1114112,76,-56,-1,-1,0
1523610994030,1114112,76,-56,-1,-1,0
1523610994030,983040,76,-56,-1,-1,0
1523610994030,786432,76,-56,-1,-1,0
1523610994030,786432,76,-56,-1,-1,0
1523610994030,1048576,76,-56,-1,-1,0
1523610994070,1179648,76,-56,-1,-1,0
1523610994070,1376256,76,-56,-1,-1,0
1523610994070,1376256,76,-56,-1,-1,0
1523610994070,1179648,76,-56,-1,-1,0
1523610994070,1114112,76,-56,-1,-1,0
1523610994110,1441792,76,-56,-1,-1,0
1523610994110,1572864,76,-56,-1,-1,0
1523610994110,1441792,76,-56,-1,-1,0
1523610994110,1245184,76,-56,-1,-1,0
1523610994110,983040,76,-56,-1,-1,0
1523610994150,655360,76,-56,-1,-1,0
1523610994150,327680,76,-56,-1,-1,0
1523610994150,196608,76,-56,-1,-1,0
1523610994150,327680,76,-56,-1,-1,0
1523610994150,131072,76,-56,-1,-1,0
1523610994191,-262144,76,-56,-1,-1,0
1523610994191,-786432,76,-56,-1,-1,0
1523610994191,-589824,76,-56,-1,-1,0
1523610994191,-393216,76,-56,-1,-1,0
1523610994191,-458752,76,-56,-1,-1,0
1523610994231,-786432,76,-56,-1,-1,0
1523610994231,-720896,76,-56,-1,-1,0
1523610994231,-524288,76,-56,-1,-1,0
1523610994231,-589824,76,-56,-1,-1,0
1523610994231,-589824,76,-56,-1,-1,0
1523610994270,-589824,76,-56,-1,-1,0
1523610994270,-655360,76,-56,-1,-1,0
1523610994270,-917504,76,-56,-1,-1,0
1523610994270,-1048576,76,-56,-1,-1,0
1523610994270,-1114112,76,-56,-1,-1,0
1523610994310,-1048576,76,-56,-1,-1,0
1523610994310,-851968,76,-56,-1,-1,0
1523610994310,-655360,76,-56,-1,-1,0
1523610994310,-720896,76,-56,-1,-1,0
1523610994310,-655360,76,-56,-1,-1,0
1523610994350,-983040,76,-56,-1,-1,0
1523610994350,-1376256,76,-56,-1,-1,0
1523610994350,-1638400,76,-56,-1,-1,0
1523610994350,-1638400,76,-56,-1,-1,0
1523610994350,-1835008,76,-56,-1,-1,0
1523610994390,-1835008,76,-56,-1,-1,0
1523610994390,-1769472,76,-56,-1,-1,0
1523610994390,-1900544,76,-56,-1,-1,0
1523610994390,-2031616,76,-56,-1,-1,0
1523610994390,-2097152,76,-56,-1,-1,0
1523610994431,-1703936,77,-56,-1,-1,0
1523610994431,-786432,77,-56,-1,-1,0
1523610994431,1507328,77,-56,-1,-1,0
1523610994431,5767168,77,-56,-1,-1,0
1523610994431,8519680,77,-56,-1,-1,0
1523610994470,5636096,77,-56,-1,-1,0
1523610994470,65536,77,-56,-1,-1,0
1523610994470,-2555904,77,-56,-1,-1,0
1523610994470,-2359296,77,-56,-1,-1,0
1523610994470,-1835008,77,-56,-1,-1,0
1523610994510,-1900544,77,-56,-1,-1,0
1523610994510,-1900544,77,-56,-1,-1,0
1523610994510,-1900544,77,-56,-1,-1,0
1523610994510,-1900544,77,-56,-1,-1,0
1523610994510,-1900544,77,-56,-1,-1,0
1523610994550,-1900544,77,-56,-1,-1,0
1523610994550,-1703936,77,-56,-1,-1,0
1523610994550,-1572864,77,-56,-1,-1,0
1523610994550,-1507328,77,-56,-1,-1,0
1523610994550,-1441792,77,-56,-1,-1,0
1523610994590,-1179648,77,-56,-1,-1,0
1523610994590,-917504,77,-56,-1,-1,0
1523610994590,-655360,77,-56,-1,-1,0
1523610994590,-524288,77,-56,-1,-1,0
1523610994590,-327680,77,-56,-1,-1,0
1523610994630,-327680,77,-56,-1,-1,0
1523610994630,-65536,77,-56,-1,-1,0
1523610994630,196608,77,-56,-1,-1,0
1523610994630,720896,77,-56,-1,-1,0
1523610994630,983040,77,-56,-1,-1,0
1523610994670,917504,77,-56,-1,-1,0
1523610994670,720896,77,-56,-1,-1,0
1523610994670,983040,77,-56,-1,-1,0
1523610994670,1048576,77,-56,-1,-1,0
1523610994670,786432,77,-56,-1,-1,0
1523610994710,327680,77,-56,-1,-1,0
1523610994710,0,77,-56,-1,-1,0
1523610994710,-458752,77,-56,-1,-1,0
1523610994710,-983040,77,-56,-1,-1,0
1523610994710,-1179648,77,-56,-1,-1,0
1523610994750,-1245184,77,-56,-1,-1,0
1523610994750,-1310720,77,-56,-1,-1,0
1523610994750,-1441792,77,-56,-1,-1,0
1523610994750,-1507328,77,-56,-1,-1,0
1523610994750,-1638400,77,-56,-1,-1,0
1523610994790,-1703936,77,-56,-1,-1,0
1523610994790,-1441792,77,-56,-1,-1,0
1523610994790,-1245184,77,-56,-1,-1,0
1523610994790,-1376256,77,-56,-1,-1,0
1523610994790,-1572864,77,-56,-1,-1,0
1523610994830,-1441792,77,-56,-1,-1,0
1523610994830,-1179648,77,-56,-1,-1,0
1523610994830,-1245184,77,-56,-1,-1,0
1523610994830,-1507328,77,-56,-1,-1,0
1523610994830,-1441792,77,-56,-1,-1,0
1523610994870,-1310720,77,-56,-1,-1,0
1523610994870,-1245184,77,-56,-1,-1,0
1523610994870,-1376256,77,-56,-1,-1,0
1523610994870,-1376256,77,-56,-1,-1,0
1523610994870,-1245184,77,-56,-1,-1,0
1523610994910,-1179648,77,-56,-1,-1,0
1523610994910,-1179648,77,-56,-1,-1,0
1523610994910,-1376256,77,-56,-1,-1,0
1523610994910,-1376256,77,-56,-1,-1,0
1523610994910,-1245184,77,-56,-1,-1,0
1523610994950,-1245184,77,-56,-1,-1,0
1523610994950,-1310720,77,-56,-1,-1,0
1523610994950,-1310720,77,-56,-1,-1,0
1523610994950,-1310720,77,-56,-1,-1,0
1523610994950,-1441792,77,-56,-1,-1,0
1523610994990,-1572864,77,-56,-1,-1,0
1523610994990,-1769472,77,-56,-1,-1,0
1523610994990,-1769472,77,-56,-1,-1,0
1523610994990,-1507328,77,-56,-1,-1,0
1523610994990,-1245184,77,-56,-1,-1,0
1523610995030,-1114112,77,-56,-1,-1,0
1523610995030,-983040,77,-56,-1,-1,0
1523610995030,-917504,77,-56,-1,-1,0
1523610995030,-983040,77,-56,-1,-1,0
1523610995030,-1114112,77,-56,-1,-1,0
1523610995071,-1310720,77,-56,-1,-1,0
1523610995071,-1441792,77,-56,-1,-1,0
1523610995071,-1572864,77,-56,-1,-1,0
1523610995071,-1507328,77,-56,-1,-1,0
1523610995071,-1376256,77,-56,-1,-1,0
1523610995110,-1376256,77,-56,-1,-1,0
1523610995110,-1507328,77,-56,-1,-1,0
1523610995110,-1572864,77,-56,-1,-1,0
1523610995110,-1507328,77,-56,-1,-1,0
1523610995110,-1245184,77,-56,-1,-1,0
1523610995150,-458752,77,-56,-1,-1,0
1523610995150,1572864,77,-56,-1,-1,0
1523610995150,5570560,77,-56,-1,-1,0
1523610995150,8847360,77,-56,-1,-1,0
1523610995150,7012352,77,-56,-1,-1,0
1523610995190,1572864,77,-56,-1,-1,0
1523610995190,-1507328,77,-56,-1,-1,0
1523610995190,-1376256,77,-56,-1,-1,0
1523610995190,-851968,77,-56,-1,-1,0
1523610995190,-655360,77,-56,-1,-1,0
1523610995230,-458752,77,-56,-1,-1,0
1523610995230,-327680,77,-56,-1,-1,0
1523610995230,-655360,77,-56,-1,-1,0
1523610995230,-786432,77,-56,-1,-1,0
1523610995230,-524288,77,-56,-1,-1,0
1523610995270,-262144,77,-56,-1,-1,0
1523610995270,-131072,77,-56,-1,-1,0
1523610995270,-131072,77,-56,-1,-1,0
1523610995270,65536,77,-56,-1,-1,0
1523610995270,327680,77,-56,-1,-1,0
1523610995310,327680,77,-56,-1,-1,0
1523610995310,131072,77,-56,-1,-1,0
1523610995310,327680,77,-56,-1,-1,0
1523610995310,786432,77,-56,-1,-1,0
1523610995310,1179648,77,-56,-1,-1,0
1523610995350,1310720,77,-56,-1,-1,0
1523610995350,1441792,77,-56,-1,-1,0
1523610995350,1703936,77,-56,-1,-1,0
1523610995350,1900544,77,-56,-1,-1,0
1523610995350,2097152,77,-56,-1,-1,0
1523610995390,2162688,77,-56,-1,-1,0
1523610995390,2293760,77,-56,-1,-1,0
1523610995390,2293760,77,-56,-1,-1,0
1523610995390,1966080,77,-56,-1,-1,0
1523610995390,1572864,77,-56,-1,-1,0
1523610995430,917504,77,-56,-1,-1,0
1523610995430,393216,77,-56,-1,-1,0
1523610995430,0,77,-56,-1,-1,0
1523610995430,-262144,77,-56,-1,-1,0
1523610995430,-589824,77,-56,-1,-1,0
1523610995470,-786432,77,-56,-1,-1,0
1523610995470,-786432,77,-56,-1,-1,0
1523610995470,-720896,77,-56,-1,-1,0
1523610995470,-655360,77,-56,-1,-1,0
1523610995470,-720896,77,-56,-1,-1,0
1523610995510,-786432,77,-56,-1,-1,0
1523610995510,-720896,77,-56,-1,-1,0
1523610995510,-720896,77,-56,-1,-1,0
1523610995510,-917504,77,-56,-1,-1,0
1523610995510,-851968,77,-56,-1,-1,0
1523610995550,-786432,77,-56,-1,-1,0
1523610995550,-655360,77,-56,-1,-1,0
1523610995550,-720896,77,-56,-1,-1,0
1523610995550,-720896,77,-56,-1,-1,0
1523610995550,-720896,77,-56,-1,-1,0
1523610995590,-851968,77,-56,-1,-1,0
1523610995590,-983040,77,-56,-1,-1,0
1523610995590,-1114112,77,-56,-1,-1,0
1523610995590,-851968,77,-56,-1,-1,0
1523610995590,-589824,77,-56,-1,-1,0
1523610995630,-524288,77,-56,-1,-1,0
1523610995630,-524288,77,-56,-1,-1,0
1523610995630,-589824,77,-56,-1,-1,0
1523610995630,-589824,77,-56,-1,-1,0
1523610995630,-655360,77,-56,-1,-1,0
1523610995670,-851968,77,-56,-1,-1,0
1523610995670,-983040,77,-56,-1,-1,0
1523610995670,-1048576,77,-56,-1,-1,0
1523610995670,-1048576,77,-56,-1,-1,0
1523610995670,-1048576,77,-56,-1,-1,0
1523610995711,-983040,77,-56,-1,-1,0
1523610995711,-917504,77,-56,-1,-1,0
1523610995711,-786432,77,-56,-1,-1,0
1523610995711,-786432,77,-56,-1,-1,0
1523610995711,-786432,77,-56,-1,-1,0
1523610995750,-655360,77,-56,-1,-1,0
1523610995750,-655360,77,-56,-1,-1,0
1523610995750,-786432,77,-56,-1,-1,0
1523610995750,-983040,77,-56,-1,-1,0
1523610995750,-1179648,77,-56,-1,-1,0
1523610995790,-1245184,77,-56,-1,-1,0
1523610995790,-1245184,77,-56,-1,-1,0
1523610995790,-1114112,77,-56,-1,-1,0
1523610995790,-1048576,77,-56,-1,-1,0
1523610995790,-983040,77,-56,-1,-1,0
1523610995830,-1048576,78,-56,-1,-1,0
1523610995830,-1048576,78,-56,-1,-1,0
1523610995830,-720896,78,-56,-1,-1,0
1523610995830,589824,78,-56,-1,-1,0
1523610995830,3997696,78,-56,-1,-1,0
1523610995870,8388608,78,-56,-1,-1,0
1523610995870,8847360,78,-56,-1,-1,0
1523610995870,4128768,78,-56,-1,-1,0
1523610995870,-524288,78,-56,-1,-1,0
1523610995870,-1441792,78,-56,-1,-1,0
1523610995910,-917504,78,-56,-1,-1,0
1523610995910,-655360,78,-56,-1,-1,0
1523610995910,-655360,78,-56,-1,-1,0
1523610995910,-589824,78,-56,-1,-1,0
1523610995910,-393216,78,-56,-1,-1,0
1523610995950,-327680,78,-56,-1,-1,0
1523610995950,-393216,78,-56,-1,-1,0
1523610995950,-262144,78,-56,-1,-1,0
1523610995950,-131072,78,-56,-1,-1,0
1523610995950,-65536,78,-56,-1,-1,0
1523610995990,-65536,78,-56,-1,-1,0
1523610995990,0,78,-56,-1,-1,0
1523610995990,196608,78,-56,-1,-1,0
1523610995990,458752,78,-56,-1,-1,0
1523610995990,655360,78,-56,-1,-1,0
1523610996030,851968,78,-56,-1,-1,0
1523610996030,1048576,78,-56,-1,-1,0
1523610996030,1245184,78,-56,-1,-1,0
1523610996030,1507328,78,-56,-1,-1,0
1523610996030,1769472,78,-56,-1,-1,0
1523610996070,2031616,78,-56,-1,-1,0
1523610996070,2228224,78,-56,-1,-1,0
1523610996070,2424832,78,-56,-1,-1,0
1523610996070,2686976,78,-56,-1,-1,0
1523610996070,2818048,78,-56,-1,-1,0
1523610996110,2752512,78,-56,-1,-1,0
1523610996110,2359296,78,-56,-1,-1,0
1523610996110,1769472,78,-56,-1,-1,0
1523610996110,1114112,78,-56,-1,-1,0
1523610996110,655360,78,-56,-1,-1,0
1523610996150,262144,78,-56,-1,-1,0
1523610996150,0,78,-56,-1,-1,0
1523610996150,-196608,78,-56,-1,-1,0
1523610996150,-393216,78,-56,-1,-1,0
1523610996150,-458752,78,-56,-1,-1,0
1523610996190,-458752,78,-56,-1,-1,0
1523610996190,-524288,78,-56,-1,-1,0
1523610996190,-458752,78,-56,-1,-1,0
1523610996190,-393216,78,-56,-1,-1,0
1523610996190,-327680,78,-56,-1,-1,0
1523610996230,-393216,78,-56,-1,-1,0
1523610996230,-393216,78,-56,-1,-1,0
1523610996230,-393216,78,-56,-1,-1,0
1523610996230,-458752,78,-56,-1,-1,0
1523610996230,-524288,78,-56,-1,-1,0
1523610996270,-524288,78,-56,-1,-1,0
1523610996270,-589824,78,-56,-1,-1,0
1523610996270,-458752,78,-56,-1,-1,0
1523610996270,-393216,78,-56,-1,-1,0
1523610996270,-393216,78,-56,-1,-1,0
1523610996310,-327680,78,-56,-1,-1,0
1523610996310,-131072,78,-56,-1,-1,0
1523610996310,0,78,-56,-1,-1,0
1523610996310,0,78,-56,-1,-1,0
1523610996310,0,78,-56,-1,-1,0
1523610996351,0,78,-56,-1,-1,0
1523610996351,-65536,78,-56,-1,-1,0
1523610996351,-196608,78,-56,-1,-1,0
1523610996351,-65536,78,-56,-1,-1,0
1523610996351,0,78,-56,-1,-1,0
1523610996390,0,78,-56,-1,-1,0
1523610996390,-131072,78,-56,-1,-1,0
1523610996390,-196608,78,-56,-1,-1,0
1523610996390,-196608,78,-56,-1,-1,0
1523610996390,-65536,78,-56,-1,-1,0
1523610996430,0,78,-56,-1,-1,0
1523610996430,0,78,-56,-1,-1,0
1523610996430,131072,78,-56,-1,-1,0
1523610996430,196608,78,-56,-1,-1,0
1523610996430,0,78,-56,-1,-1,0
1523610996470,-65536,78,-56,-1,-1,0
1523610996470,-65536,78,-56,-1,-1,0
1523610996470,-262144,78,-56,-1,-1,0
1523610996470,-393216,78,-56,-1,-1,0
1523610996470,-327680,78,-56,-1,-1,0
1523610996510,-131072,78,-56,-1,-1,0
1523610996510,-131072,78,-56,-1,-1,0
1523610996510,-327680,78,-56,-1,-1,0
1523610996510,-458752,78,-56,-1,-1,0
1523610996510,-524288,78,-56,-1,-1,0
1523610996550,-458752,77,-56,-1,-1,0
1523610996550,196608,77,-56,-1,-1,0
1523610996550,2359296,77,-56,-1,-1,0
1523610996550,6619136,77,-56,-1,-1,0
1523610996550,9895936,77,-56,-1,-1,0
1523610996590,7602176,77,-56,-1,-1,0
1523610996590,2031616,77,-56,-1,-1,0
1523610996590,-1048576,77,-56,-1,-1,0
1523610996590,-917504,77,-56,-1,-1,0
1523610996590,-524288,77,-56,-1,-1,0
1523610996630,-655360,77,-56,-1,-1,0
1523610996630,-720896,77,-56,-1,-1,0
1523610996630,-589824,77,-56,-1,-1,0
1523610996630,-393216,77,-56,-1,-1,0
1523610996630,-327680,77,-56,-1,-1,0
1523610996670,-196608,77,-56,-1,-1,0
1523610996670,-262144,77,-56,-1,-1,0
1523610996670,-262144,77,-56,-1,-1,0
1523610996670,-196608,77,-56,-1,-1,0
1523610996670,-196608,77,-56,-1,-1,0
1523610996710,0,77,-56,-1,-1,0
1523610996710,131072,77,-56,-1,-1,0
1523610996710,196608,77,-56,-1,-1,0
1523610996710,327680,77,-56,-1,-1,0
1523610996710,655360,77,-56,-1,-1,0
1523610996750,983040,77,-56,-1,-1,0
1523610996750,1114112,77,-56,-1,-1,0
1523610996750,1310720,77,-56,-1,-1,0
1523610996750,1638400,77,-56,-1,-1,0
1523610996750,1966080,77,-56,-1,-1,0
1523610996790,2228224,77,-56,-1,-1,0
1523610996790,2490368,77,-56,-1,-1,0
1523610996790,2555904,77,-56,-1,-1,0
1523610996790,2621440,77,-56,-1,-1,0
1523610996790,2359296,77,-56,-1,-1,0
1523610996829,1835008,77,-56,-1,-1,0
1523610996829,1179648,77,-56,-1,-1,0
1523610996829,589824,77,-56,-1,-1,0
1523610996829,196608,77,-56,-1,-1,0
1523610996829,-196608,77,-56,-1,-1,0
1523610996869,-524288,77,-56,-1,-1,0
1523610996869,-655360,77,-56,-1,-1,0
1523610996869,-524288,77,-56,-1,-1,0
1523610996869,-589824,77,-56,-1,-1,0
1523610996869,-589824,77,-56,-1,-1,0
1523610996909,-589824,77,-56,-1,-1,0
1523610996909,-589824,77,-56,-1,-1,0
1523610996909,-589824,77,-56,-1,-1,0
1523610996909,-589824,77,-56,-1,-1,0
1523610996909,-655360,77,-56,-1,-1,0
1523610996949,-589824,77,-56,-1,-1,0
1523610996949,-524288,77,-56,-1,-1,0
1523610996949,-524288,77,-56,-1,-1,0
1523610996949,-524288,77,-56,-1,-1,0
1523610996949,-589824,77,-56,-1,-1,0
1523610996991,-655360,77,-56,-1,-1,0
1523610996991,-524288,77,-56,-1,-1,0
1523610996991,-589824,77,-56,-1,-1,0
1523610996991,-720896,77,-56,-1,-1,0
1523610996991,-720896,77,-56,-1,-1,0
1523610997029,-655360,77,-56,-1,-1,0
1523610997029,-720896,77,-56,-1,-1,0
1523610997029,-786432,77,-56,-1,-1,0
1523610997029,-851968,77,-56,-1,-1,0
1523610997029,-851968,77,-56,-1,-1,0
1523610997069,-917504,77,-56,-1,-1,0
1523610997069,-983040,77,-56,-1,-1,0
1523610997069,-1114112,77,-56,-1,-1,0
1523610997069,-1179648,77,-56,-1,-1,0
1523610997069,-1310720,77,-56,-1,-1,0
1523610997109,-1507328,77,-56,-1,-1,0
1523610997109,-1441792,77,-56,-1,-1,0
1523610997109,-1245184,77,-56,-1,-1,0
1523610997109,-1114112,77,-56,-1,-1,0
1523610997109,-1114112,77,-56,-1,-1,0
1523610997149,-1114112,77,-56,-1,-1,0
1523610997149,-1114112,77,-56,-1,-1,0
1523610997149,-1245184,77,-56,-1,-1,0
1523610997149,-1376256,77,-56,-1,-1,0
1523610997149,-1507328,77,-56,-1,-1,0
1523610997189,-1507328,77,-56,-1,-1,0
1523610997189,-1441792,77,-56,-1,-1,0
1523610997189,-1376256,77,-56,-1,-1,0
1523610997189,-1441792,77,-56,-1,-1,0
1523610997189,-1441792,77,-56,-1,-1,0
1523610997229,-1572864,77,-56,-1,-1,0
1523610997229,-1703936,77,-56,-1,-1,0
1523610997229,-1572864,77,-56,-1,-1,0
1523610997229,-1507328,77,-56,-1,-1,0
1523610997229,-1245184,77,-56,-1,-1,0
1523610997269,196608,78,-56,-1,-1,0
1523610997269,3801088,78,-56,-1,-1,0
1523610997269,8257536,78,-56,-1,-1,0
1523610997269,8716288,78,-56,-1,-1,0
1523610997269,3866624,78,-56,-1,-1,0
1523610997309,-1114112,78,-56,-1,-1,0
1523610997309,-2228224,78,-56,-1,-1,0
1523610997309,-1703936,78,-56,-1,-1,0
1523610997309,-1441792,78,-56,-1,-1,0
1523610997309,-1245184,78,-56,-1,-1,0
1523610997349,-1114112,78,-56,-1,-1,0
1523610997349,-1048576,78,-56,-1,-1,0
1523610997349,-983040,78,-56,-1,-1,0
1523610997349,-786432,78,-56,-1,-1,0
1523610997349,-720896,78,-56,-1,-1,0
1523610997390,-655360,78,-56,-1,-1,0
1523610997390,-589824,78,-56,-1,-1,0
1523610997390,-524288,78,-56,-1,-1,0
1523610997390,-524288,78,-56,-1,-1,0
1523610997390,-524288,78,-56,-1,-1,0
1523610997429,-196608,78,-56,-1,-1,0
1523610997429,196608,78,-56,-1,-1,0
1523610997429,458752,78,-56,-1,-1,0
1523610997429,720896,78,-56,-1,-1,0
1523610997429,1048576,78,-56,-1,-1,0
1523610997469,1179648,78,-56,-1,-1,0
1523610997469,1179648,78,-56,-1,-1,0
1523610997469,1572864,78,-56,-1,-1,0
1523610997469,2162688,78,-56,-1,-1,0
1523610997469,2424832,78,-56,-1,-1,0
1523610997509,2359296,78,-56,-1,-1,0
1523610997509,2293760,78,-56,-1,-1,0
1523610997509,2228224,78,-56,-1,-1,0
1523610997509,2031616,78,-56,-1,-1,0
1523610997509,1572864,78,-56,-1,-1,0
1523610997549,1048576,78,-56,-1,-1,0
1523610997549,524288,78,-56,-1,-1,0
1523610997549,-65536,78,-56,-1,-1,0
1523610997549,-524288,78,-56,-1,-1,0
1523610997549,-851968,78,-56,-1,-1,0
1523610997589,-1048576,78,-56,-1,-1,0
1523610997589,-1114112,78,-56,-1,-1,0
1523610997589,-983040,78,-56,-1,-1,0
1523610997589,-851968,78,-56,-1,-1,0
1523610997589,-720896,78,-56,-1,-1,0
1523610997634,-786432,78,-56,-1,-1,0
1523610997634,-983040,78,-56,-1,-1,0
1523610997634,-1048576,78,-56,-1,-1,0
1523610997634,-786432,78,-56,-1,-1,0
1523610997634,-655360,78,-56,-1,-1,0
1523610997669,-851968,78,-56,-1,-1,0
1523610997669,-851968,78,-56,-1,-1,0
1523610997669,-655360,78,-56,-1,-1,0
1523610997669,-720896,78,-56,-1,-1,0
1523610997669,-851968,78,-56,-1,-1,0
1523610997709,-786432,78,-56,-1,-1,0
1523610997709,-655360,78,-56,-1,-1,0
1523610997709,-786432,78,-56,-1,-1,0
1523610997709,-1048576,78,-56,-1,-1,0
1523610997709,-1245184,78,-56,-1,-1,0
1523610997749,-1245184,78,-56,-1,-1,0
1523610997749,-1245184,78,-56,-1,-1,0
1523610997749,-1114112,78,-56,-1,-1,0
1523610997749,-851968,78,-56,-1,-1,0
1523610997749,-917504,78,-56,-1,-1,0
1523610997789,-1179648,78,-56,-1,-1,0
1523610997789,-1114112,78,-56,-1,-1,0
1523610997789,-1179648,78,-56,-1,-1,0
1523610997789,-1441792,78,-56,-1,-1,0
1523610997789,-1441792,78,-56,-1,-1,0
1523610997829,-1114112,78,-56,-1,-1,0
1523610997829,-1048576,78,-56,-1,-1,0
1523610997829,-1179648,78,-56,-1,-1,0
1523610997829,-983040,78,-56,-1,-1,0
1523610997829,-851968,78,-56,-1,-1,0
1523610997869,-720896,78,-56,-1,-1,0
1523610997869,-851968,78,-56,-1,-1,0
1523610997869,-1310720,78,-56,-1,-1,0
1523610997869,-1441792,78,-56,-1,-1,0
1523610997869,-1310720,78,-56,-1,-1,0
1523610997909,-1376256,78,-56,-1,-1,0
1523610997909,-1441792,78,-56,-1,-1,0
1523610997909,-1048576,78,-56,-1,-1,0
1523610997909,-983040,78,-56,-1,-1,0
1523610997909,-983040,78,-56,-1,-1,0
1523610997949,-1048576,78,-56,-1,-1,0
1523610997949,-1179648,78,-56,-1,-1,0
1523610997949,-1114112,78,-56,-1,-1,0
1523610997949,196608,78,-56,-1,-1,0
1523610997949,3342336,78,-56,-1,-1,0
1523610997989,7733248,79,-56,-1,-1,0
1523610997989,9175040,79,-56,-1,-1,0
1523610997989,5242880,79,-56,-1,-1,0
1523610997989,131072,79,-56,-1,-1,0
1523610997989,-1507328,79,-56,-1,-1,0
1523610998029,-1179648,79,-56,-1,-1,0
1523610998029,-1048576,79,-56,-1,-1,0
1523610998029,-1441792,79,-56,-1,-1,0
1523610998029,-1376256,79,-56,-1,-1,0
1523610998029,-1114112,79,-56,-1,-1,0
1523610998069,-786432,79,-56,-1,-1,0
1523610998069,-720896,79,-56,-1,-1,0
1523610998069,-1048576,79,-56,-1,-1,0
1523610998069,-1245184,79,-56,-1,-1,0
1523610998069,-1114112,79,-56,-1,-1,0
1523610998109,-1245184,79,-56,-1,-1,0
1523610998109,-1114112,79,-56,-1,-1,0
1523610998109,-786432,79,-56,-1,-1,0
1523610998109,-393216,79,-56,-1,-1,0
1523610998109,-262144,79,-56,-1,-1,0
1523610998149,-65536,79,-56,-1,-1,0
1523610998149,0,79,-56,-1,-1,0
1523610998149,524288,79,-56,-1,-1,0
1523610998149,589824,79,-56,-1,-1,0
1523610998149,720896,79,-56,-1,-1,0
1523610998189,1310720,79,-56,-1,-1,0
1523610998189,1966080,79,-56,-1,-1,0
1523610998189,1966080,79,-56,-1,-1,0
1523610998189,1900544,79,-56,-1,-1,0
1523610998189,2359296,79,-56,-1,-1,0
1523610998229,2490368,79,-56,-1,-1,0
1523610998229,1572864,79,-56,-1,-1,0
1523610998229,655360,79,-56,-1,-1,0
1523610998229,262144,79,-56,-1,-1,0
1523610998229,131072,79,-56,-1,-1,0
1523610998271,-131072,79,-56,-1,-1,0
1523610998271,-589824,79,-56,-1,-1,0
1523610998271,-1245184,79,-56,-1,-1,0
1523610998271,-1245184,79,-56,-1,-1,0
1523610998271,-524288,79,-56,-1,-1,0
1523610998309,-655360,79,-56,-1,-1,0
1523610998309,-1310720,79,-56,-1,-1,0
1523610998309,-1441792,79,-56,-1,-1,0
1523610998309,-1114112,79,-56,-1,-1,0
1523610998309,-1245184,79,-56,-1,-1,0
1523610998349,-1114112,79,-56,-1,-1,0
1523610998349,-655360,79,-56,-1,-1,0
1523610998349,-720896,79,-56,-1,-1,0
1523610998349,-786432,79,-56,-1,-1,0
1523610998349,-524288,79,-56,-1,-1,0
1523610998393,-458752,79,-56,-1,-1,0
1523610998393,-720896,79,-56,-1,-1,0
1523610998393,-917504,79,-56,-1,-1,0
1523610998393,-786432,79,-56,-1,-1,0
1523610998393,-589824,79,-56,-1,-1,0
1523610998432,-589824,79,-56,-1,-1,0
1523610998432,-720896,79,-56,-1,-1,0
1523610998432,-786432,79,-56,-1,-1,0
1523610998432,-1048576,79,-56,-1,-1,0
1523610998432,-851968,79,-56,-1,-1,0
1523610998469,-589824,79,-56,-1,-1,0
1523610998469,-655360,79,-56,-1,-1,0
1523610998469,-851968,79,-56,-1,-1,0
1523610998469,-786432,79,-56,-1,-1,0
1523610998469,-720896,79,-56,-1,-1,0
1523610998509,-786432,79,-56,-1,-1,0
1523610998509,-983040,79,-56,-1,-1,0
1523610998509,-1114112,79,-56,-1,-1,0
1523610998509,-1048576,79,-56,-1,-1,0
1523610998509,-786432,79,-56,-1,-1,0
1523610998549,-589824,79,-56,-1,-1,0
1523610998549,-589824,79,-56,-1,-1,0
1523610998549,-458752,79,-56,-1,-1,0
1523610998549,-458752,79,-56,-1,-1,0
1523610998549,-524288,79,-56,-1,-1,0
1523610998589,-786432,79,-56,-1,-1,0
1523610998589,-917504,79,-56,-1,-1,0
1523610998589,-917504,79,-56,-1,-1,0
1523610998589,-851968,79,-56,-1,-1,0
1523610998589,-720896,79,-56,-1,-1,0
1523610998629,-720896,79,-56,-1,-1,0
1523610998629,-786432,79,-56,-1,-1,0
1523610998629,-851968,79,-56,-1,-1,0
1523610998629,-917504,79,-56,-1,-1,0
1523610998629,-851968,79,-56,-1,-1,0
1523610998670,-851968,79,-56,-1,-1,0
1523610998670,-589824,79,-56,-1,-1,0
1523610998670,720896,79,-56,-1,-1,0
1523610998670,4063232,79,-56,-1,-1,0
1523610998670,8847360,79,-56,-1,-1,0
1523610998709,10813440,80,-56,-1,-1,0
1523610998709,6750208,80,-56,-1,-1,0
1523610998709,983040,80,-56,-1,-1,0
1523610998709,-1179648,80,-56,-1,-1,0
1523610998709,-720896,80,-56,-1,-1,0
1523610998749,-458752,80,-56,-1,-1,0
1523610998749,-524288,80,-56,-1,-1,0
1523610998749,-655360,80,-56,-1,-1,0
1523610998749,-655360,80,-56,-1,-1,0
1523610998749,-589824,80,-56,-1,-1,0
1523610998789,-524288,80,-56,-1,-1,0
1523610998789,-393216,80,-56,-1,-1,0
1523610998789,-327680,80,-56,-1,-1,0
1523610998789,-196608,80,-56,-1,-1,0
1523610998789,-65536,80,-56,-1,-1,0
1523610998829,0,80,-56,-1,-1,0
1523610998829,65536,80,-56,-1,-1,0
1523610998829,262144,80,-56,-1,-1,0
1523610998829,393216,80,-56,-1,-1,0
1523610998829,589824,80,-56,-1,-1,0
1523610998869,851968,80,-56,-1,-1,0
1523610998869,1114112,80,-56,-1,-1,0
1523610998869,1441792,80,-56,-1,-1,0
1523610998869,1769472,80,-56,-1,-1,0
1523610998869,2097152,80,-56,-1,-1,0
1523610998911,2424832,80,-56,-1,-1,0
1523610998911,2621440,80,-56,-1,-1,0
1523610998911,2818048,80,-56,-1,-1,0
1523610998911,2883584,80,-56,-1,-1,0
1523610998911,2752512,80,-56,-1,-1,0
1523610998951,2490368,80,-56,-1,-1,0
1523610998951,1900544,80,-56,-1,-1,0
1523610998951,1245184,80,-56,-1,-1,0
1523610998951,655360,80,-56,-1,-1,0
1523610998951,196608,80,-56,-1,-1,0
1523610998989,0,80,-56,-1,-1,0
1523610998989,-196608,80,-56,-1,-1,0
1523610998989,-327680,80,-56,-1,-1,0
1523610998989,-458752,80,-56,-1,-1,0
1523610998989,-458752,80,-56,-1,-1,0
1523610999029,-458752,80,-56,-1,-1,0
1523610999029,-393216,80,-56,-1,-1,0
1523610999029,-393216,80,-56,-1,-1,0
1523610999029,-458752,80,-56,-1,-1,0
1523610999029,-524288,80,-56,-1,-1,0
1523610999069,-524288,80,-56,-1,-1,0
1523610999069,-458752,80,-56,-1,-1,0
1523610999069,-458752,80,-56,-1,-1,0
1523610999069,-458752,80,-56,-1,-1,0
1523610999069,-393216,80,-56,-1,-1,0
1523610999109,-393216,80,-56,-1,-1,0
1523610999109,-327680,80,-56,-1,-1,0
1523610999109,-327680,80,-56,-1,-1,0
1523610999109,-327680,80,-56,-1,-1,0
1523610999109,-327680,80,-56,-1,-1,0
1523610999149,-393216,80,-56,-1,-1,0
1523610999149,-458752,80,-56,-1,-1,0
1523610999149,-458752,80,-56,-1,-1,0
1523610999149,-524288,80,-56,-1,-1,0
1523610999149,-589824,80,-56,-1,-1,0
1523610999193,-589824,80,-56,-1,-1,0
1523610999193,-655360,80,-56,-1,-1,0
1523610999193,-589824,80,-56,-1,-1,0
1523610999193,-524288,80,-56,-1,-1,0
1523610999193,-524288,80,-56,-1,-1,0
1523610999231,-589824,80,-56,-1,-1,0
1523610999231,-655360,80,-56,-1,-1,0
1523610999231,-720896,80,-56,-1,-1,0
1523610999231,-720896,80,-56,-1,-1,0
1523610999231,-786432,80,-56,-1,-1,0
1523610999273,-786432,80,-56,-1,-1,0
1523610999273,-720896,80,-56,-1,-1,0
1523610999273,-589824,80,-56,-1,-1,0
1523610999273,-524288,80,-56,-1,-1,0
1523610999273,-458752,80,-56,-1,-1,0
1523610999309,-327680,80,-56,-1,-1,0
1523610999309,-393216,80,-56,-1,-1,0
1523610999309,-589824,80,-56,-1,-1,0
1523610999309,-720896,80,-56,-1,-1,0
1523610999309,-851968,80,-56,-1,-1,0
1523610999353,-851968,80,-56,-1,-1,0
1523610999353,-917504,80,-56,-1,-1,0
1523610999353,-917504,80,-56,-1,-1,0
1523610999353,-983040,80,-56,-1,-1,0
1523610999353,-983040,80,-56,-1,-1,0
1523610999389,-1048576,80,-56,-1,-1,0
1523610999389,-1048576,80,-56,-1,-1,0
1523610999389,-1048576,80,-56,-1,-1,0
1523610999389,-786432,80,-56,-1,-1,0
1523610999389,196608,80,-56,-1,-1,0
1523610999429,3080192,80,-56,-1,-1,0
1523610999429,7798784,80,-56,-1,-1,0
1523610999429,10354688,80,-56,-1,-1,0
1523610999429,7012352,80,-56,-1,-1,0
1523610999429,1179648,80,-56,-1,-1,0
1523610999471,-1376256,80,-56,-1,-1,0
1523610999471,-1179648,80,-56,-1,-1,0
1523610999471,-851968,80,-56,-1,-1,0
1523610999471,-917504,80,-56,-1,-1,0
1523610999471,-917504,80,-56,-1,-1,0
1523610999509,-917504,81,-56,-1,-1,0
1523610999509,-851968,81,-56,-1,-1,0
1523610999509,-786432,81,-56,-1,-1,0
1523610999509,-720896,81,-56,-1,-1,0
1523610999509,-655360,81,-56,-1,-1,0
1523610999551,-589824,81,-56,-1,-1,0
1523610999551,-458752,81,-56,-1,-1,0
1523610999551,-327680,81,-56,-1,-1,0
1523610999551,-196608,81,-56,-1,-1,0
1523610999551,0,81,-56,-1,-1,0
1523610999589,65536,81,-56,-1,-1,0
1523610999589,327680,81,-56,-1,-1,0
1523610999589,524288,81,-56,-1,-1,0
1523610999589,786432,81,-56,-1,-1,0
1523610999589,1048576,81,-56,-1,-1,0
1523610999629,1310720,81,-56,-1,-1,0
1523610999629,1703936,81,-56,-1,-1,0
1523610999629,2031616,81,-56,-1,-1,0
1523610999629,2293760,81,-56,-1,-1,0
1523610999629,2490368,81,-56,-1,-1,0
1523610999669,2555904,81,-56,-1,-1,0
1523610999669,2555904,81,-56,-1,-1,0
1523610999669,2293760,81,-56,-1,-1,0
1523610999669,1835008,81,-56,-1,-1,0
1523610999669,1245184,81,-56,-1,-1,0
1523610999709,655360,81,-56,-1,-1,0
1523610999709,196608,81,-56,-1,-1,0
1523610999709,-131072,81,-56,-1,-1,0
1523610999709,-393216,81,-56,-1,-1,0
1523610999709,-524288,81,-56,-1,-1,0
1523610999749,-589824,81,-56,-1,-1,0
1523610999749,-589824,81,-56,-1,-1,0
1523610999749,-589824,81,-56,-1,-1,0
1523610999749,-589824,81,-56,-1,-1,0
1523610999749,-589824,81,-56,-1,-1,0
1523610999789,-589824,81,-56,-1,-1,0
1523610999789,-524288,81,-56,-1,-1,0
1523610999789,-524288,81,-56,-1,-1,0
1523610999789,-524288,81,-56,-1,-1,0
1523610999789,-524288,81,-56,-1,-1,0
1523610999829,-524288,81,-56,-1,-1,0
1523610999829,-589824,81,-56,-1,-1,0
1523610999829,-589824,81,-56,-1,-1,0
1523610999829,-589824,81,-56,-1,-1,0
1523610999829,-589824,81,-56,-1,-1,0
1523610999869,-655360,81,-56,-1,-1,0
1523610999869,-655360,81,-56,-1,-1,0
1523610999869,-720896,81,-56,-1,-1,0
1523610999869,-786432,81,-56,-1,-1,0
1523610999869,-786432,81,-56,-1,-1,0
1523610999909,-851968,81,-56,-1,-1,0
1523610999909,-851968,81,-56,-1,-1,0
1523610999909,-851968,81,-56,-1,-1,0
1523610999909,-851968,81,-56,-1,-1,0
1523610999909,-917504,81,-56,-1,-1,0
1523610999949,-917504,81,-56,-1,-1,0
1523610999949,-917504,81,-56,-1,-1,0
1523610999949,-917504,81,-56,-1,-1,0
1523610999949,-917504,81,-56,-1,-1,0
1523610999949,-983040,81,-56,-1,-1,0
1523610999989,-983040,81,-56,-1,-1,0
1523610999989,-917504,81,-56,-1,-1,0
1523610999989,-917504,81,-56,-1,-1,0
1523610999989,-917504,81,-56,-1,-1,0
1523610999989,-917504,81,-56,-1,-1,0
1523611000029,-851968,81,-56,-1,-1,0
1523611000029,-917504,81,-56,-1,-1,0
1523611000029,-1048576,81,-56,-1,-1,0
1523611000029,-1048576,81,-56,-1,-1,0
1523611000029,-983040,81,-56,-1,-1,0
1523611000069,-851968,81,-56,-1,-1,0
1523611000069,-720896,81,-56,-1,-1,0
1523611000069,-524288,81,-56,-1,-1,0
1523611000069,-458752,81,-56,-1,-1,0
1523611000069,-589824,81,-56,-1,-1,0
1523611000109,-720896,81,-56,-1,-1,0
1523611000109,-786432,81,-56,-1,-1,0
1523611000109,-786432,81,-56,-1,-1,0
1523611000109,-851968,81,-56,-1,-1,0
1523611000109,-917504,81,-56,-1,-1,0
1523611000149,-917504,81,-56,-1,-1,0
1523611000149,-983040,81,-56,-1,-1,0
1523611000149,-917504,81,-56,-1,-1,0
1523611000149,-917504,81,-56,-1,-1,0
1523611000149,-851968,81,-56,-1,-1,0
1523611000191,-786432,81,-56,-1,-1,0
1523611000191,-327680,81,-56,-1,-1,0
1523611000191,1441792,81,-56,-1,-1,0
1523611000191,5308416,81,-56,-1,-1,0
1523611000191,9699328,81,-56,-1,-1,0
1523611000229,9502720,81,-56,-1,-1,0
1523611000229,4063232,81,-56,-1,-1,0
1523611000229,-720896,81,-56,-1,-1,0
1523611000229,-1441792,81,-56,-1,-1,0
1523611000229,-851968,81,-56,-1,-1,0
1523611000270,-655360,81,-56,-1,-1,0
1523611000270,-655360,81,-56,-1,-1,0
1523611000270,-720896,81,-56,-1,-1,0
1523611000270,-589824,81,-56,-1,-1,0
1523611000270,-524288,81,-56,-1,-1,0
1523611000309,-393216,81,-56,-1,-1,0
1523611000309,-327680,81,-56,-1,-1,0
1523611000309,-327680,81,-56,-1,-1,0
1523611000309,-262144,81,-56,-1,-1,0
1523611000309,-196608,81,-56,-1,-1,0
1523611000349,-131072,81,-56,-1,-1,0
1523611000349,-65536,81,-56,-1,-1,0
1523611000349,0,81,-56,-1,-1,0
1523611000349,196608,81,-56,-1,-1,0
1523611000349,458752,81,-56,-1,-1,0
1523611000389,720896,81,-56,-1,-1,0
1523611000389,983040,81,-56,-1,-1,0
1523611000389,1310720,81,-56,-1,-1,0
1523611000389,1703936,81,-56,-1,-1,0
1523611000389,2031616,81,-56,-1,-1,0
1523611000429,2359296,81,-56,-1,-1,0
1523611000429,2490368,81,-56,-1,-1,0
1523611000429,2686976,81,-56,-1,-1,0
1523611000429,2686976,81,-56,-1,-1,0
1523611000429,2621440,81,-56,-1,-1,0
1523611000469,2228224,81,-56,-1,-1,0
1523611000469,1638400,81,-56,-1,-1,0
1523611000469,983040,81,-56,-1,-1,0
1523611000469,393216,81,-56,-1,-1,0
1523611000469,0,81,-56,-1,-1,0
1523611000509,-393216,81,-56,-1,-1,0
1523611000509,-589824,81,-56,-1,-1,0
1523611000509,-786432,81,-56,-1,-1,0
1523611000509,-851968,81,-56,-1,-1,0
1523611000509,-917504,81,-56,-1,-1,0
1523611000549,-917504,81,-56,-1,-1,0
1523611000549,-917504,81,-56,-1,-1,0
1523611000549,-851968,81,-56,-1,-1,0
1523611000549,-786432,81,-56,-1,-1,0
1523611000549,-786432,81,-56,-1,-1,0
1523611000590,-720896,81,-56,-1,-1,0
1523611000590,-720896,81,-56,-1,-1,0
1523611000590,-655360,81,-56,-1,-1,0
1523611000590,-655360,81,-56,-1,-1,0
1523611000590,-589824,81,-56,-1,-1,0
1523611000629,-589824,81,-56,-1,-1,0
1523611000629,-655360,81,-56,-1,-1,0
1523611000629,-655360,81,-56,-1,-1,0
1523611000629,-720896,81,-56,-1,-1,0
1523611000629,-786432,81,-56,-1,-1,0
1523611000669,-786432,81,-56,-1,-1,0
1523611000669,-851968,81,-56,-1,-1,0
1523611000669,-917504,81,-56,-1,-1,0
1523611000669,-917504,81,-56,-1,-1,0
1523611000669,-917504,81,-56,-1,-1,0
1523611000709,-983040,81,-56,-1,-1,0
1523611000709,-983040,81,-56,-1,-1,0
1523611000709,-983040,81,-56,-1,-1,0
1523611000709,-983040,81,-56,-1,-1,0
1523611000709,-983040,81,-56,-1,-1,0
1523611000749,-983040,81,-56,-1,-1,0
1523611000749,-983040,81,-56,-1,-1,0
1523611000749,-1048576,81,-56,-1,-1,0
1523611000749,-1048576,81,-56,-1,-1,0
1523611000749,-1048576,81,-56,-1,-1,0
1523611000789,-1048576,81,-56,-1,-1,0
1523611000789,-1048576,81,-56,-1,-1,0
1523611000789,-1048576,81,-56,-1,-1,0
1523611000789,-1048576,81,-56,-1,-1,0
1523611000789,-1048576,81,-56,-1,-1,0
1523611000830,-1048576,81,-56,-1,-1,0
1523611000830,-1114112,81,-56,-1,-1,0
1523611000830,-1179648,81,-56,-1,-1,0
1523611000830,-1245184,81,-56,-1,-1,0
1523611000830,-1114112,81,-56,-1,-1,0
1523611000869,-1048576,81,-56,-1,-1,0
1523611000869,-851968,81,-56,-1,-1,0
1523611000869,-720896,81,-56,-1,-1,0
1523611000869,-655360,81,-56,-1,-1,0
1523611000869,-655360,81,-56,-1,-1,0
1523611000909,-786432,81,-56,-1,-1,0
1523611000909,-851968,81,-56,-1,-1,0
1523611000909,-851968,81,-56,-1,-1,0
1523611000909,-851968,81,-56,-1,-1,0
1523611000909,-851968,81,-56,-1,-1,0
1523611000949,-851968,81,-56,-1,-1,0
1523611000949,-851968,81,-56,-1,-1,0
1523611000949,-851968,81,-56,-1,-1,0
1523611000949,-851968,81,-56,-1,-1,0
1523611000949,-917504,81,-56,-1,-1,0
1523611000989,-851968,81,-56,-1,-1,0
1523611000989,-458752,81,-56,-1,-1,0
1523611000989,983040,81,-56,-1,-1,0
1523611000989,4325376,81,-56,-1,-1,0
1523611000989,9043968,81,-56,-1,-1,0
1523611001029,10289152,81,-56,-1,-1,0
1523611001029,5767168,81,-56,-1,-1,0
1523611001029,458752,81,-56,-1,-1,0
1523611001029,-1114112,81,-56,-1,-1,0
1523611001029,-655360,81,-56,-1,-1,0
1523611001069,-458752,81,-56,-1,-1,0
1523611001069,-589824,81,-56,-1,-1,0
1523611001069,-589824,81,-56,-1,-1,0
1523611001069,-524288,81,-56,-1,-1,0
1523611001069,-458752,81,-56,-1,-1,0
1523611001109,-327680,81,-56,-1,-1,0
1523611001109,-262144,81,-56,-1,-1,0
1523611001109,-196608,81,-56,-1,-1,0
1523611001109,-65536,81,-56,-1,-1,0
1523611001109,0,81,-56,-1,-1,0
1523611001150,65536,81,-56,-1,-1,0
1523611001150,196608,81,-56,-1,-1,0
1523611001150,327680,81,-56,-1,-1,0
1523611001150,458752,81,-56,-1,-1,0
1523611001150,720896,81,-56,-1,-1,0
1523611001189,917504,81,-56,-1,-1,0
1523611001189,1114112,81,-56,-1,-1,0
1523611001189,1376256,81,-56,-1,-1,0
1523611001189,1703936,81,-56,-1,-1,0
1523611001189,1966080,81,-56,-1,-1,0
1523611001229,2293760,81,-56,-1,-1,0
1523611001229,2490368,81,-56,-1,-1,0
1523611001229,2686976,81,-56,-1,-1,0
1523611001229,2752512,81,-56,-1,-1,0
1523611001229,2621440,81,-56,-1,-1,0
1523611001269,2359296,81,-56,-1,-1,0
1523611001269,1900544,81,-56,-1,-1,0
1523611001269,1310720,81,-56,-1,-1,0
1523611001269,786432,81,-56,-1,-1,0
1523611001269,327680,81,-56,-1,-1,0
1523611001309,0,81,-56,-1,-1,0
1523611001309,-196608,81,-56,-1,-1,0
1523611001309,-393216,81,-56,-1,-1,0
1523611001309,-458752,81,-56,-1,-1,0
1523611001309,-524288,81,-56,-1,-1,0
1523611001349,-589824,81,-56,-1,-1,0
1523611001349,-589824,81,-56,-1,-1,0
1523611001349,-589824,81,-56,-1,-1,0
1523611001349,-589824,81,-56,-1,-1,0
1523611001349,-524288,81,-56,-1,-1,0
1523611001389,-524288,81,-56,-1,-1,0
1523611001389,-458752,81,-56,-1,-1,0
1523611001389,-393216,81,-56,-1,-1,0
1523611001389,-393216,81,-56,-1,-1,0
1523611001389,-458752,81,-56,-1,-1,0
1523611001429,-458752,81,-56,-1,-1,0
1523611001429,-458752,81,-56,-1,-1,0
1523611001429,-458752,81,-56,-1,-1,0
1523611001429,-458752,81,-56,-1,-1,0
1523611001429,-458752,81,-56,-1,-1,0
1523611001471,-524288,81,-56,-1,-1,0
1523611001471,-524288,81,-56,-1,-1,0
1523611001471,-524288,81,-56,-1,-1,0
1523611001471,-524288,81,-56,-1,-1,0
1523611001471,-524288,81,-56,-1,-1,0
1523611001509,-524288,81,-56,-1,-1,0
1523611001509,-524288,81,-56,-1,-1,0
1523611001509,-589824,81,-56,-1,-1,0
1523611001509,-589824,81,-56,-1,-1,0
1523611001509,-589824,81,-56,-1,-1,0
1523611001549,-589824,81,-56,-1,-1,0
1523611001549,-589824,81,-56,-1,-1,0
1523611001549,-589824,81,-56,-1,-1,0
1523611001549,-589824,81,-56,-1,-1,0
1523611001549,-589824,81,-56,-1,-1,0
1523611001589,-589824,81,-56,-1,-1,0
1523611001589,-589824,81,-56,-1,-1,0
1523611001589,-589824,81,-56,-1,-1,0
1523611001589,-589824,81,-56,-1,-1,0
1523611001589,-589824,81,-56,-1,-1,0
1523611001629,-589824,81,-56,-1,-1,0
1523611001629,-589824,81,-56,-1,-1,0
1523611001629,-589824,81,-56,-1,-1,0
1523611001629,-655360,81,-56,-1,-1,0
1523611001629,-655360,81,-56,-1,-1,0
1523611001669,-655360,81,-56,-1,-1,0
1523611001669,-589824,81,-56,-1,-1,0
1523611001669,-589824,81,-56,-1,-1,0
1523611001669,-655360,81,-56,-1,-1,0
1523611001669,-655360,81,-56,-1,-1,0
1523611001709,-655360,81,-56,-1,-1,0
1523611001709,-720896,81,-56,-1,-1,0
1523611001709,-786432,81,-56,-1,-1,0
1523611001709,-851968,81,-56,-1,-1,0
1523611001709,-786432,81,-56,-1,-1,0
1523611001749,-655360,81,-56,-1,-1,0
1523611001749,-458752,81,-56,-1,-1,0
1523611001749,-327680,81,-56,-1,-1,0
1523611001749,-262144,81,-56,-1,-1,0
1523611001749,-262144,81,-56,-1,-1,0
1523611001789,-393216,81,-56,-1,-1,0
1523611001789,-524288,81,-56,-1,-1,0
1523611001789,-589824,81,-56,-1,-1,0
1523611001789,-589824,81,-56,-1,-1,0
1523611001789,-655360,81,-56,-1,-1,0
1523611001829,-655360,81,-56,-1,-1,0
1523611001829,-720896,81,-56,-1,-1,0
1523611001829,-720896,81,-56,-1,-1,0
1523611001829,-720896,81,-56,-1,-1,0
1523611001829,-720896,81,-56,-1,-1,0
1523611001869,-720896,81,-56,-1,-1,0
1523611001869,-458752,81,-56,-1,-1,0
1523611001869,458752,81,-56,-1,-1,0
1523611001869,3211264,81,-56,-1,-1,0
1523611001869,7798784,81,-56,-1,-1,0
1523611001909,10420224,81,-56,-1,-1,0
1523611001909,7274496,81,-56,-1,-1,0
1523611001909,1507328,81,-56,-1,-1,0
1523611001909,-1114112,81,-56,-1,-1,0
1523611001909,-851968,81,-56,-1,-1,0
1523611001949,-524288,81,-56,-1,-1,0
1523611001949,-589824,81,-56,-1,-1,0
1523611001949,-655360,81,-56,-1,-1,0
1523611001949,-589824,81,-56,-1,-1,0
1523611001949,-524288,81,-56,-1,-1,0
1523611001989,-458752,81,-56,-1,-1,0
1523611001989,-393216,81,-56,-1,-1,0
1523611001989,-327680,81,-56,-1,-1,0
1523611001989,-196608,81,-56,-1,-1,0
1523611001989,-131072,81,-56,-1,-1,0
1523611002029,0,81,-56,-1,-1,0
1523611002029,65536,81,-56,-1,-1,0
1523611002029,262144,81,-56,-1,-1,0
1523611002029,393216,81,-56,-1,-1,0
1523611002029,524288,81,-56,-1,-1,0
1523611002069,720896,81,-56,-1,-1,0
1523611002069,917504,81,-56,-1,-1,0
1523611002069,1245184,81,-56,-1,-1,0
1523611002069,1507328,81,-56,-1,-1,0
1523611002069,1769472,81,-56,-1,-1,0
1523611002111,2031616,81,-56,-1,-1,0
1523611002111,2293760,81,-56,-1,-1,0
1523611002111,2490368,81,-56,-1,-1,0
1523611002111,2621440,81,-56,-1,-1,0
1523611002111,2555904,81,-56,-1,-1,0
1523611002149,2424832,81,-56,-1,-1,0
1523611002149,2031616,81,-56,-1,-1,0
1523611002149,1507328,81,-56,-1,-1,0
1523611002149,983040,81,-56,-1,-1,0
1523611002149,524288,81,-56,-1,-1,0
1523611002189,65536,81,-56,-1,-1,0
1523611002189,-131072,81,-56,-1,-1,0
1523611002189,-327680,81,-56,-1,-1,0
1523611002189,-458752,81,-56,-1,-1,0
1523611002189,-524288,81,-56,-1,-1,0
1523611002229,-524288,81,-56,-1,-1,0
1523611002229,-458752,81,-56,-1,-1,0
1523611002229,-458752,81,-56,-1,-1,0
1523611002229,-524288,81,-56,-1,-1,0
1523611002229,-524288,81,-56,-1,-1,0
1523611002269,-458752,81,-56,-1,-1,0
1523611002269,-458752,81,-56,-1,-1,0
1523611002269,-458752,81,-56,-1,-1,0
1523611002269,-458752,81,-56,-1,-1,0
1523611002269,-458752,81,-56,-1,-1,0
1523611002309,-393216,81,-56,-1,-1,0
1523611002309,-458752,81,-56,-1,-1,0
1523611002309,-458752,81,-56,-1,-1,0
1523611002309,-524288,81,-56,-1,-1,0
1523611002309,-524288,81,-56,-1,-1,0
1523611002349,-589824,81,-56,-1,-1,0
1523611002349,-589824,81,-56,-1,-1,0
1523611002349,-589824,81,-56,-1,-1,0
1523611002349,-655360,81,-56,-1,-1,0
1523611002349,-655360,81,-56,-1,-1,0
1523611002389,-720896,81,-56,-1,-1,0
1523611002389,-786432,81,-56,-1,-1,0
1523611002389,-786432,81,-56,-1,-1,0
1523611002389,-786432,81,-56,-1,-1,0
1523611002389,-851968,81,-56,-1,-1,0
1523611002429,-851968,81,-56,-1,-1,0
1523611002429,-917504,81,-56,-1,-1,0
1523611002429,-851968,81,-56,-1,-1,0
1523611002429,-851968,81,-56,-1,-1,0
1523611002429,-917504,81,-56,-1,-1,0
1523611002469,-917504,81,-56,-1,-1,0
1523611002469,-983040,81,-56,-1,-1,0
1523611002469,-983040,81,-56,-1,-1,0
1523611002469,-983040,81,-56,-1,-1,0
1523611002469,-983040,81,-56,-1,-1,0
1523611002510,-983040,81,-56,-1,-1,0
1523611002510,-1048576,81,-56,-1,-1,0
1523611002510,-1048576,81,-56,-1,-1,0
1523611002510,-1048576,81,-56,-1,-1,0
1523611002510,-1114112,81,-56,-1,-1,0
1523611002549,-1114112,81,-56,-1,-1,0
1523611002549,-1114112,81,-56,-1,-1,0
1523611002549,-1179648,81,-56,-1,-1,0
1523611002549,-1179648,81,-56,-1,-1,0
1523611002549,-1179648,81,-56,-1,-1,0
1523611002589,-1114112,81,-56,-1,-1,0
1523611002589,-1114112,81,-56,-1,-1,0
1523611002589,-1179648,81,-56,-1,-1,0
1523611002589,-1179648,81,-56,-1,-1,0
1523611002589,-1310720,81,-56,-1,-1,0
1523611002629,-1441792,81,-56,-1,-1,0
1523611002629,-1441792,81,-56,-1,-1,0
1523611002629,-1179648,81,-56,-1,-1,0
1523611002629,-1048576,81,-56,-1,-1,0
1523611002629,-917504,81,-56,-1,-1,0
1523611002670,-720896,81,-56,-1,-1,0
1523611002670,-655360,81,-56,-1,-1,0
1523611002670,-720896,81,-56,-1,-1,0
1523611002670,-786432,81,-56,-1,-1,0
1523611002670,-917504,81,-56,-1,-1,0
1523611002709,-1048576,81,-56,-1,-1,0
1523611002709,-1048576,81,-56,-1,-1,0
1523611002709,-1048576,81,-56,-1,-1,0
1523611002709,-851968,81,-56,-1,-1,0
1523611002709,-655360,81,-56,-1,-1,0
1523611002751,-720896,81,-56,-1,-1,0
1523611002751,-983040,81,-56,-1,-1,0
1523611002751,-1245184,81,-56,-1,-1,0
1523611002751,-1114112,81,-56,-1,-1,0
1523611002751,-196608,81,-56,-1,-1,0
1523611002789,2228224,81,-56,-1,-1,0
1523611002789,6553600,81,-56,-1,-1,0
1523611002789,9961472,81,-56,-1,-1,0
1523611002789,7995392,81,-56,-1,-1,0
1523611002789,2293760,81,-56,-1,-1,0
1523611002830,-1179648,81,-56,-1,-1,0
1523611002830,-1310720,81,-56,-1,-1,0
1523611002830,-917504,81,-56,-1,-1,0
1523611002830,-786432,81,-56,-1,-1,0
1523611002830,-851968,81,-56,-1,-1,0
1523611002869,-786432,81,-56,-1,-1,0
1523611002869,-196608,81,-56,-1,-1,0
1523611002869,0,81,-56,-1,-1,0
1523611002869,-262144,81,-56,-1,-1,0
1523611002869,-720896,81,-56,-1,-1,0
1523611002909,-655360,81,-56,-1,-1,0
1523611002909,-524288,81,-56,-1,-1,0
1523611002909,-393216,81,-56,-1,-1,0
1523611002909,-65536,81,-56,-1,-1,0
1523611002909,65536,81,-56,-1,-1,0
1523611002949,327680,81,-56,-1,-1,0
1523611002949,589824,81,-56,-1,-1,0
1523611002949,720896,81,-56,-1,-1,0
1523611002949,851968,81,-56,-1,-1,0
1523611002949,1179648,81,-56,-1,-1,0
1523611002989,1310720,81,-56,-1,-1,0
1523611002989,1441792,81,-56,-1,-1,0
1523611002989,2097152,81,-56,-1,-1,0
1523611002989,2621440,81,-56,-1,-1,0
1523611002989,2686976,81,-56,-1,-1,0
1523611003029,2686976,81,-56,-1,-1,0
1523611003029,2883584,81,-56,-1,-1,0
1523611003029,2752512,81,-56,-1,-1,0
1523611003029,2228224,81,-56,-1,-1,0
1523611003029,1638400,81,-56,-1,-1,0
1523611003069,1179648,81,-56,-1,-1,0
1523611003069,655360,81,-56,-1,-1,0
1523611003069,131072,81,-56,-1,-1,0
1523611003069,-196608,81,-56,-1,-1,0
1523611003069,-393216,81,-56,-1,-1,0
1523611003109,-720896,81,-56,-1,-1,0
1523611003109,-851968,81,-56,-1,-1,0
1523611003109,-786432,81,-56,-1,-1,0
1523611003109,-720896,81,-56,-1,-1,0
1523611003109,-655360,81,-56,-1,-1,0
1523611003150,-655360,81,-56,-1,-1,0
1523611003150,-786432,81,-56,-1,-1,0
1523611003150,-851968,81,-56,-1,-1,0
1523611003150,-786432,81,-56,-1,-1,0
1523611003150,-720896,81,-56,-1,-1,0
1523611003189,-524288,81,-56,-1,-1,0
1523611003189,-458752,81,-56,-1,-1,0
1523611003189,-589824,81,-56,-1,-1,0
1523611003189,-851968,81,-56,-1,-1,0
1523611003189,-917504,81,-56,-1,-1,0
1523611003230,-917504,81,-56,-1,-1,0
1523611003230,-786432,81,-56,-1,-1,0
1523611003230,-458752,81,-56,-1,-1,0
1523611003230,-524288,81,-56,-1,-1,0
1523611003230,-851968,81,-56,-1,-1,0
1523611003269,-983040,81,-56,-1,-1,0
1523611003269,-720896,81,-56,-1,-1,0
1523611003269,-655360,81,-56,-1,-1,0
1523611003269,-851968,81,-56,-1,-1,0
1523611003269,-983040,81,-56,-1,-1,0
1523611003310,-1048576,81,-56,-1,-1,0
1523611003310,-917504,81,-56,-1,-1,0
1523611003310,-786432,81,-56,-1,-1,0
1523611003310,-786432,81,-56,-1,-1,0
1523611003310,-983040,81,-56,-1,-1,0
1523611003349,-917504,81,-56,-1,-1,0
1523611003349,-917504,81,-56,-1,-1,0
1523611003349,-851968,81,-56,-1,-1,0
1523611003349,-851968,81,-56,-1,-1,0
1523611003349,-851968,81,-56,-1,-1,0
1523611003391,-983040,81,-56,-1,-1,0
1523611003391,-1048576,81,-56,-1,-1,0
1523611003391,-1048576,81,-56,-1,-1,0
1523611003391,-983040,81,-56,-1,-1,0
1523611003391,-917504,81,-56,-1,-1,0
1523611003429,-917504,81,-56,-1,-1,0
1523611003429,-917504,81,-56,-1,-1,0
1523611003429,-983040,81,-56,-1,-1,0
1523611003429,-851968,81,-56,-1,-1,0
1523611003429,-851968,81,-56,-1,-1,0
1523611003470,-983040,81,-56,-1,-1,0
1523611003470,-1114112,81,-56,-1,-1,0
1523611003470,-917504,81,-56,-1,-1,0
1523611003470,-917504,81,-56,-1,-1,0
1523611003470,-1114112,81,-56,-1,-1,0
1523611003509,-1179648,81,-56,-1,-1,0
1523611003509,-983040,81,-56,-1,-1,0
1523611003509,-720896,81,-56,-1,-1,0
1523611003509,-589824,81,-56,-1,-1,0
1523611003509,-393216,81,-56,-1,-1,0
1523611003550,-393216,81,-56,-1,-1,0
1523611003550,-589824,81,-56,-1,-1,0
1523611003550,-917504,81,-56,-1,-1,0
1523611003550,-983040,81,-56,-1,-1,0
1523611003550,-851968,81,-56,-1,-1,0
1523611003589,-786432,81,-56,-1,-1,0
1523611003589,-589824,81,-56,-1,-1,0
1523611003589,-720896,81,-56,-1,-1,0
1523611003589,-983040,81,-56,-1,-1,0
1523611003589,-1179648,81,-56,-1,-1,0
1523611003630,-983040,81,-56,-1,-1,0
1523611003630,-786432,81,-56,-1,-1,0
1523611003630,-196608,81,-56,-1,-1,0
1523611003630,1835008,81,-56,-1,-1,0
1523611003630,6356992,81,-56,-1,-1,0
1523611003669,11403264,81,-56,-1,-1,0
1523611003669,10944512,81,-56,-1,-1,0
1523611003669,4784128,81,-56,-1,-1,0
1523611003669,-393216,81,-56,-1,-1,0
1523611003669,-1179648,81,-56,-1,-1,0
1523611003710,-786432,81,-56,-1,-1,0
1523611003710,-851968,81,-56,-1,-1,0
1523611003710,-720896,81,-56,-1,-1,0
1523611003710,-720896,81,-56,-1,-1,0
1523611003710,-655360,81,-56,-1,-1,0
1523611003749,-655360,81,-56,-1,-1,0
1523611003749,-524288,81,-56,-1,-1,0
1523611003749,-327680,81,-56,-1,-1,0
1523611003749,-196608,81,-56,-1,-1,0
1523611003749,-65536,81,-56,-1,-1,0
1523611003790,-65536,80,-56,-1,-1,0
1523611003790,0,80,-56,-1,-1,0
1523611003790,65536,80,-56,-1,-1,0
1523611003790,131072,80,-56,-1,-1,0
1523611003790,327680,80,-56,-1,-1,0
1523611003830,655360,80,-56,-1,-1,0
1523611003830,851968,80,-56,-1,-1,0
1523611003830,1179648,80,-56,-1,-1,0
1523611003830,1441792,80,-56,-1,-1,0
1523611003830,1900544,80,-56,-1,-1,0
1523611003870,2359296,80,-56,-1,-1,0
1523611003870,2752512,80,-56,-1,-1,0
1523611003870,2949120,80,-56,-1,-1,0
1523611003870,3080192,80,-56,-1,-1,0
1523611003870,3080192,80,-56,-1,-1,0
1523611003909,2752512,80,-56,-1,-1,0
1523611003909,2424832,80,-56,-1,-1,0
1523611003909,2031616,80,-56,-1,-1,0
1523611003909,1441792,80,-56,-1,-1,0
1523611003909,851968,80,-56,-1,-1,0
1523611003949,262144,80,-56,-1,-1,0
1523611003949,-65536,80,-56,-1,-1,0
1523611003949,-327680,80,-56,-1,-1,0
1523611003949,-458752,80,-56,-1,-1,0
1523611003949,-524288,80,-56,-1,-1,0
1523611003989,-655360,80,-56,-1,-1,0
1523611003989,-720896,80,-56,-1,-1,0
1523611003989,-524288,80,-56,-1,-1,0
1523611003989,-524288,80,-56,-1,-1,0
1523611003989,-655360,80,-56,-1,-1,0
1523611004031,-655360,80,-56,-1,-1,0
1523611004031,-524288,80,-56,-1,-1,0
1523611004031,-524288,80,-56,-1,-1,0
1523611004031,-655360,80,-56,-1,-1,0
1523611004031,-589824,80,-56,-1,-1,0
1523611004069,-524288,80,-56,-1,-1,0
1523611004069,-327680,80,-56,-1,-1,0
1523611004069,-458752,80,-56,-1,-1,0
1523611004069,-589824,80,-56,-1,-1,0
1523611004069,-524288,80,-56,-1,-1,0
1523611004110,-524288,80,-56,-1,-1,0
1523611004110,-524288,80,-56,-1,-1,0
1523611004110,-655360,80,-56,-1,-1,0
1523611004110,-786432,80,-56,-1,-1,0
1523611004110,-851968,80,-56,-1,-1,0
1523611004149,-720896,80,-56,-1,-1,0
1523611004149,-655360,80,-56,-1,-1,0
1523611004149,-655360,80,-56,-1,-1,0
1523611004149,-655360,80,-56,-1,-1,0
1523611004149,-720896,80,-56,-1,-1,0
1523611004190,-720896,80,-56,-1,-1,0
1523611004190,-851968,80,-56,-1,-1,0
1523611004190,-786432,80,-56,-1,-1,0
1523611004190,-655360,80,-56,-1,-1,0
1523611004190,-786432,80,-56,-1,-1,0
1523611004229,-983040,80,-56,-1,-1,0
1523611004229,-1048576,80,-56,-1,-1,0
1523611004229,-917504,80,-56,-1,-1,0
1523611004229,-851968,80,-56,-1,-1,0
1523611004229,-720896,80,-56,-1,-1,0
1523611004270,-786432,80,-56,-1,-1,0
1523611004270,-917504,80,-56,-1,-1,0
1523611004270,-983040,80,-56,-1,-1,0
1523611004270,-851968,80,-56,-1,-1,0
1523611004270,-851968,80,-56,-1,-1,0
1523611004309,-983040,80,-56,-1,-1,0
1523611004309,-1048576,80,-56,-1,-1,0
1523611004309,-1048576,80,-56,-1,-1,0
1523611004309,-1048576,80,-56,-1,-1,0
1523611004309,-1114112,80,-56,-1,-1,0
1523611004350,-1245184,80,-56,-1,-1,0
1523611004350,-1114112,80,-56,-1,-1,0
1523611004350,-983040,80,-56,-1,-1,0
1523611004350,-851968,80,-56,-1,-1,0
1523611004350,-786432,80,-56,-1,-1,0
1523611004390,-655360,80,-56,-1,-1,0
1523611004390,-720896,80,-56,-1,-1,0
1523611004390,-786432,80,-56,-1,-1,0
1523611004390,-851968,80,-56,-1,-1,0
1523611004390,-917504,80,-56,-1,-1,0
1523611004430,-917504,80,-56,-1,-1,0
1523611004430,-917504,80,-56,-1,-1,0
1523611004430,-851968,80,-56,-1,-1,0
1523611004430,-917504,80,-56,-1,-1,0
1523611004430,-983040,80,-56,-1,-1,0
1523611004470,-983040,80,-56,-1,-1,0
1523611004470,-917504,80,-56,-1,-1,0
1523611004470,-786432,80,-56,-1,-1,0
1523611004470,-131072,80,-56,-1,-1,0
1523611004470,1900544,80,-56,-1,-1,0
1523611004510,6225920,80,-56,-1,-1,0
1523611004510,10747904,80,-56,-1,-1,0
1523611004510,9961472,80,-56,-1,-1,0
1523611004510,4063232,80,-56,-1,-1,0
1523611004510,-524288,80,-56,-1,-1,0
1523611004550,-983040,80,-56,-1,-1,0
1523611004550,-393216,80,-56,-1,-1,0
1523611004550,-393216,80,-56,-1,-1,0
1523611004550,-458752,80,-56,-1,-1,0
1523611004550,-458752,80,-56,-1,-1,0
1523611004590,-327680,77,-56,-1,-1,0
1523611004590,-327680,77,-56,-1,-1,0
1523611004590,-327680,77,-56,-1,-1,0
1523611004590,-327680,77,-56,-1,-1,0
1523611004590,-196608,77,-56,-1,-1,0
1523611004630,-65536,77,-56,-1,-1,0
1523611004630,0,77,-56,-1,-1,0
1523611004630,65536,77,-56,-1,-1,0
1523611004630,131072,77,-56,-1,-1,0
1523611004630,262144,77,-56,-1,-1,0
1523611004671,589824,77,-56,-1,-1,0
1523611004671,983040,77,-56,-1,-1,0
1523611004671,1179648,77,-56,-1,-1,0
1523611004671,1376256,77,-56,-1,-1,0
1523611004671,1572864,77,-56,-1,-1,0
1523611004710,1900544,77,-56,-1,-1,0
1523611004710,2228224,77,-56,-1,-1,0
1523611004710,2686976,77,-56,-1,-1,0
1523611004710,2949120,77,-56,-1,-1,0
1523611004710,2949120,77,-56,-1,-1,0
1523611004750,2949120,77,-56,-1,-1,0
1523611004750,2883584,77,-56,-1,-1,0
1523611004750,2555904,77,-56,-1,-1,0
1523611004750,1966080,77,-56,-1,-1,0
1523611004750,1441792,77,-56,-1,-1,0
1523611004790,983040,77,-56,-1,-1,0
1523611004790,589824,77,-56,-1,-1,0
1523611004790,196608,77,-56,-1,-1,0
1523611004790,0,77,-56,-1,-1,0
1523611004790,-131072,77,-56,-1,-1,0
1523611004830,-327680,77,-56,-1,-1,0
1523611004830,-393216,77,-56,-1,-1,0
1523611004830,-327680,77,-56,-1,-1,0
1523611004830,-327680,77,-56,-1,-1,0
1523611004830,-327680,77,-56,-1,-1,0
1523611004870,-327680,77,-56,-1,-1,0
1523611004870,-196608,77,-56,-1,-1,0
1523611004870,-196608,77,-56,-1,-1,0
1523611004870,-131072,77,-56,-1,-1,0
1523611004870,-131072,77,-56,-1,-1,0
1523611004910,-131072,77,-56,-1,-1,0
1523611004910,-262144,77,-56,-1,-1,0
1523611004910,-327680,77,-56,-1,-1,0
1523611004910,-327680,77,-56,-1,-1,0
1523611004910,-262144,77,-56,-1,-1,0
1523611004950,-262144,77,-56,-1,-1,0
1523611004950,-196608,77,-56,-1,-1,0
1523611004950,-196608,77,-56,-1,-1,0
1523611004950,-262144,77,-56,-1,-1,0
1523611004950,-262144,77,-56,-1,-1,0
1523611004990,-262144,77,-56,-1,-1,0
1523611004990,-327680,77,-56,-1,-1,0
1523611004990,-393216,77,-56,-1,-1,0
1523611004990,-393216,77,-56,-1,-1,0
1523611004990,-524288,77,-56,-1,-1,0
1523611005030,-589824,77,-56,-1,-1,0
1523611005030,-524288,77,-56,-1,-1,0
1523611005030,-393216,77,-56,-1,-1,0
1523611005030,-524288,77,-56,-1,-1,0
1523611005030,-524288,77,-56,-1,-1,0
1523611005070,-393216,77,-56,-1,-1,0
1523611005070,-393216,77,-56,-1,-1,0
1523611005070,-524288,77,-56,-1,-1,0
1523611005070,-589824,77,-56,-1,-1,0
1523611005070,-524288,77,-56,-1,-1,0
1523611005110,-524288,77,-56,-1,-1,0
1523611005110,-589824,77,-56,-1,-1,0
1523611005110,-589824,77,-56,-1,-1,0
1523611005110,-589824,77,-56,-1,-1,0
1523611005110,-589824,77,-56,-1,-1,0
1523611005150,-720896,77,-56,-1,-1,0
1523611005150,-786432,77,-56,-1,-1,0
1523611005150,-851968,77,-56,-1,-1,0
1523611005150,-851968,77,-56,-1,-1,0
1523611005150,-786432,77,-56,-1,-1,0
1523611005190,-589824,77,-56,-1,-1,0
1523611005190,-393216,77,-56,-1,-1,0
1523611005190,-327680,77,-56,-1,-1,0
1523611005190,-393216,77,-56,-1,-1,0
1523611005190,-458752,77,-56,-1,-1,0
1523611005230,-589824,77,-56,-1,-1,0
1523611005230,-720896,77,-56,-1,-1,0
1523611005230,-786432,77,-56,-1,-1,0
1523611005230,-786432,77,-56,-1,-1,0
1523611005230,-720896,77,-56,-1,-1,0
1523611005270,-589824,77,-56,-1,-1,0
1523611005270,-720896,77,-56,-1,-1,0
1523611005270,-720896,77,-56,-1,-1,0
1523611005270,-720896,77,-56,-1,-1,0
1523611005270,-589824,77,-56,-1,-1,0
1523611005311,-196608,77,-56,-1,-1,0
1523611005311,1376256,77,-56,-1,-1,0
1523611005311,4784128,77,-56,-1,-1,0
1523611005311,9306112,77,-56,-1,-1,0
1523611005311,10027008,77,-56,-1,-1,0
1523611005350,5111808,77,-56,-1,-1,0
1523611005350,-65536,77,-56,-1,-1,0
1523611005350,-1114112,77,-56,-1,-1,0
1523611005350,-524288,77,-56,-1,-1,0
1523611005350,-524288,77,-56,-1,-1,0
1523611005390,-589824,75,-56,-1,-1,0
1523611005390,-655360,75,-56,-1,-1,0
1523611005390,-655360,75,-56,-1,-1,0
1523611005390,-720896,75,-56,-1,-1,0
1523611005390,-524288,75,-56,-1,-1,0
1523611005430,-393216,75,-56,-1,-1,0
1523611005430,-262144,75,-56,-1,-1,0
1523611005430,-262144,75,-56,-1,-1,0
1523611005430,-327680,75,-56,-1,-1,0
1523611005430,-131072,75,-56,-1,-1,0
1523611005470,65536,75,-56,-1,-1,0
1523611005470,196608,75,-56,-1,-1,0
1523611005470,196608,75,-56,-1,-1,0
1523611005470,393216,75,-56,-1,-1,0
1523611005470,589824,75,-56,-1,-1,0
1523611005510,1245184,75,-56,-1,-1,0
1523611005510,1572864,75,-56,-1,-1,0
1523611005510,1835008,75,-56,-1,-1,0
1523611005510,1900544,75,-56,-1,-1,0
1523611005510,2162688,75,-56,-1,-1,0
1523611005550,2293760,75,-56,-1,-1,0
1523611005550,2490368,75,-56,-1,-1,0
1523611005550,2818048,75,-56,-1,-1,0
1523611005550,2752512,75,-56,-1,-1,0
1523611005550,2359296,75,-56,-1,-1,0
1523611005590,1638400,75,-56,-1,-1,0
1523611005590,1048576,75,-56,-1,-1,0
1523611005590,458752,75,-56,-1,-1,0
1523611005590,65536,75,-56,-1,-1,0
1523611005590,-196608,75,-56,-1,-1,0
1523611005630,-589824,75,-56,-1,-1,0
1523611005630,-720896,75,-56,-1,-1,0
1523611005630,-786432,75,-56,-1,-1,0
1523611005630,-720896,75,-56,-1,-1,0
1523611005630,-786432,75,-56,-1,-1,0
1523611005670,-655360,75,-56,-1,-1,0
1523611005670,-589824,75,-56,-1,-1,0
1523611005670,-655360,75,-56,-1,-1,0
1523611005670,-983040,75,-56,-1,-1,0
1523611005670,-1179648,75,-56,-1,-1,0
1523611005710,-1048576,75,-56,-1,-1,0
1523611005710,-786432,75,-56,-1,-1,0
1523611005710,-720896,75,-56,-1,-1,0
1523611005710,-720896,75,-56,-1,-1,0
1523611005710,-720896,75,-56,-1,-1,0
1523611005750,-786432,75,-56,-1,-1,0
1523611005750,-917504,75,-56,-1,-1,0
1523611005750,-917504,75,-56,-1,-1,0
1523611005750,-917504,75,-56,-1,-1,0
1523611005750,-917504,75,-56,-1,-1,0
1523611005790,-917504,75,-56,-1,-1,0
1523611005790,-983040,75,-56,-1,-1,0
1523611005790,-1048576,75,-56,-1,-1,0
1523611005790,-851968,75,-56,-1,-1,0
1523611005790,-786432,75,-56,-1,-1,0
1523611005830,-1048576,75,-56,-1,-1,0
1523611005830,-1179648,75,-56,-1,-1,0
1523611005830,-983040,75,-56,-1,-1,0
1523611005830,-917504,75,-56,-1,-1,0
1523611005830,-983040,75,-56,-1,-1,0
1523611005869,-1048576,75,-56,-1,-1,0
1523611005869,-851968,75,-56,-1,-1,0
1523611005869,-786432,75,-56,-1,-1,0
1523611005869,-1114112,75,-56,-1,-1,0
1523611005869,-1572864,75,-56,-1,-1,0
1523611005909,-1507328,75,-56,-1,-1,0
1523611005909,-1376256,75,-56,-1,-1,0
1523611005909,-1769472,75,-56,-1,-1,0
1523611005909,-1638400,75,-56,-1,-1,0
1523611005909,-1507328,75,-56,-1,-1,0
1523611005951,-1572864,75,-56,-1,-1,0
1523611005951,-1638400,75,-56,-1,-1,0
1523611005951,-1703936,75,-56,-1,-1,0
1523611005951,-1638400,75,-56,-1,-1,0
1523611005951,-1572864,75,-56,-1,-1,0
1523611005989,-1245184,75,-56,-1,-1,0
1523611005989,-1179648,75,-56,-1,-1,0
1523611005989,-1114112,75,-56,-1,-1,0
1523611005989,-1048576,75,-56,-1,-1,0
1523611005989,-983040,75,-56,-1,-1,0
1523611006029,-1245184,75,-56,-1,-1,0
1523611006029,-1310720,75,-56,-1,-1,0
1523611006029,-1441792,75,-56,-1,-1,0
1523611006029,-1245184,75,-56,-1,-1,0
1523611006029,-1114112,75,-56,-1,-1,0
1523611006069,-1048576,75,-56,-1,-1,0
1523611006069,-1048576,75,-56,-1,-1,0
1523611006069,-1114112,75,-56,-1,-1,0
1523611006069,-983040,75,-56,-1,-1,0
1523611006069,-65536,75,-56,-1,-1,0
1523611006109,2162688,75,-56,-1,-1,0
1523611006109,6553600,75,-56,-1,-1,0
1523611006109,10420224,75,-56,-1,-1,0
1523611006109,8716288,75,-56,-1,-1,0
1523611006109,3014656,75,-56,-1,-1,0
1523611006149,-1048576,74,-56,-1,-1,0
1523611006149,-1310720,74,-56,-1,-1,0
1523611006149,-917504,74,-56,-1,-1,0
1523611006149,-917504,74,-56,-1,-1,0
1523611006149,-1179648,74,-56,-1,-1,0
1523611006189,-1114112,74,-56,-1,-1,0
1523611006189,-983040,74,-56,-1,-1,0
1523611006189,-917504,74,-56,-1,-1,0
1523611006189,-1048576,74,-56,-1,-1,0
1523611006189,-917504,74,-56,-1,-1,0
1523611006231,-655360,74,-56,-1,-1,0
1523611006231,-393216,74,-56,-1,-1,0
1523611006231,-262144,74,-56,-1,-1,0
1523611006231,-196608,74,-56,-1,-1,0
1523611006231,-65536,74,-56,-1,-1,0
1523611006271,65536,74,-56,-1,-1,0
1523611006271,393216,74,-56,-1,-1,0
1523611006271,655360,74,-56,-1,-1,0
1523611006271,851968,74,-56,-1,-1,0
1523611006271,1114112,74,-56,-1,-1,0
1523611006312,1441792,74,-56,-1,-1,0
1523611006312,1835008,74,-56,-1,-1,0
1523611006312,2228224,74,-56,-1,-1,0
1523611006312,2621440,74,-56,-1,-1,0
1523611006312,2949120,74,-56,-1,-1,0
1523611006351,3080192,74,-56,-1,-1,0
1523611006351,2686976,74,-56,-1,-1,0
1523611006351,2490368,74,-56,-1,-1,0
1523611006351,2293760,74,-56,-1,-1,0
1523611006351,1703936,74,-56,-1,-1,0
1523611006389,655360,74,-56,-1,-1,0
1523611006389,65536,74,-56,-1,-1,0
1523611006389,-65536,74,-56,-1,-1,0
1523611006389,-524288,74,-56,-1,-1,0
1523611006389,-851968,74,-56,-1,-1,0
1523611006429,-983040,74,-56,-1,-1,0
1523611006429,-983040,74,-56,-1,-1,0
1523611006429,-851968,74,-56,-1,-1,0
1523611006429,-720896,74,-56,-1,-1,0
1523611006429,-655360,74,-56,-1,-1,0
1523611006469,-655360,74,-56,-1,-1,0
1523611006469,-589824,74,-56,-1,-1,0
1523611006469,-589824,74,-56,-1,-1,0
1523611006469,-458752,74,-56,-1,-1,0
1523611006469,-262144,74,-56,-1,-1,0
1523611006509,-65536,74,-56,-1,-1,0
1523611006509,-131072,74,-56,-1,-1,0
1523611006509,-131072,74,-56,-1,-1,0
1523611006509,-131072,74,-56,-1,-1,0
1523611006509,-131072,74,-56,-1,-1,0
1523611006549,-131072,74,-56,-1,-1,0
1523611006549,-65536,74,-56,-1,-1,0
1523611006549,131072,74,-56,-1,-1,0
1523611006549,-65536,74,-56,-1,-1,0
1523611006549,-524288,74,-56,-1,-1,0
1523611006591,-655360,74,-56,-1,-1,0
1523611006591,-524288,74,-56,-1,-1,0
1523611006591,-720896,74,-56,-1,-1,0
1523611006591,-1048576,74,-56,-1,-1,0
1523611006591,-1114112,74,-56,-1,-1,0
1523611006629,-1114112,74,-56,-1,-1,0
1523611006629,-1114112,74,-56,-1,-1,0
1523611006629,-1048576,74,-56,-1,-1,0
1523611006629,-983040,74,-56,-1,-1,0
1523611006629,-720896,74,-56,-1,-1,0
1523611006669,-589824,74,-56,-1,-1,0
1523611006669,-589824,74,-56,-1,-1,0
1523611006669,-655360,74,-56,-1,-1,0
1523611006669,-720896,74,-56,-1,-1,0
1523611006669,-720896,74,-56,-1,-1,0
1523611006709,-589824,74,-56,-1,-1,0
1523611006709,-393216,74,-56,-1,-1,0
1523611006709,-262144,74,-56,-1,-1,0
1523611006709,-131072,74,-56,-1,-1,0
1523611006709,0,74,-56,-1,-1,0
1523611006749,0,74,-56,-1,-1,0
1523611006749,-65536,74,-56,-1,-1,0
1523611006749,-262144,74,-56,-1,-1,0
1523611006749,-327680,74,-56,-1,-1,0
1523611006749,-524288,74,-56,-1,-1,0
1523611006789,-524288,74,-56,-1,-1,0
1523611006789,-524288,74,-56,-1,-1,0
1523611006789,-524288,74,-56,-1,-1,0
1523611006789,-524288,74,-56,-1,-1,0
1523611006789,-589824,74,-56,-1,-1,0
1523611006829,-720896,74,-56,-1,-1,0
1523611006829,-786432,74,-56,-1,-1,0
1523611006829,-524288,74,-56,-1,-1,0
1523611006829,655360,74,-56,-1,-1,0
1523611006829,3670016,74,-56,-1,-1,0
1523611006869,7667712,74,-56,-1,-1,0
1523611006869,7995392,74,-56,-1,-1,0
1523611006869,3604480,74,-56,-1,-1,0
1523611006869,-786432,74,-56,-1,-1,0
1523611006869,-1703936,74,-56,-1,-1,0
1523611006909,-1179648,74,-56,-1,-1,0
1523611006909,-917504,74,-56,-1,-1,0
1523611006909,-786432,74,-56,-1,-1,0
1523611006909,-786432,74,-56,-1,-1,0
1523611006909,-720896,74,-56,-1,-1,0
1523611006949,-786432,74,-56,-1,-1,0
1523611006949,-851968,74,-56,-1,-1,0
1523611006949,-786432,74,-56,-1,-1,0
1523611006949,-655360,74,-56,-1,-1,0
1523611006949,-655360,74,-56,-1,-1,0
1523611006989,-720896,74,-56,-1,-1,0
1523611006989,-524288,74,-56,-1,-1,0
1523611006989,-327680,74,-56,-1,-1,0
1523611006989,-262144,74,-56,-1,-1,0
1523611006989,-262144,74,-56,-1,-1,0
1523611007029,-65536,74,-56,-1,-1,0
1523611007029,131072,74,-56,-1,-1,0
1523611007029,458752,74,-56,-1,-1,0
1523611007029,786432,74,-56,-1,-1,0
1523611007029,1310720,74,-56,-1,-1,0
1523611007069,1703936,74,-56,-1,-1,0
1523611007069,1966080,74,-56,-1,-1,0
1523611007069,2162688,74,-56,-1,-1,0
1523611007069,2228224,74,-56,-1,-1,0
1523611007069,1966080,74,-56,-1,-1,0
1523611007109,1769472,74,-56,-1,-1,0
1523611007109,1507328,74,-56,-1,-1,0
1523611007109,1048576,74,-56,-1,-1,0
1523611007109,393216,74,-56,-1,-1,0
1523611007109,-196608,74,-56,-1,-1,0
1523611007151,-917504,74,-56,-1,-1,0
1523611007151,-1441792,74,-56,-1,-1,0
1523611007151,-1638400,74,-56,-1,-1,0
1523611007151,-1638400,74,-56,-1,-1,0
1523611007151,-1638400,74,-56,-1,-1,0
1523611007189,-1572864,74,-56,-1,-1,0
1523611007189,-1507328,74,-56,-1,-1,0
1523611007189,-1441792,74,-56,-1,-1,0
1523611007189,-1310720,74,-56,-1,-1,0
1523611007189,-1245184,74,-56,-1,-1,0
1523611007231,-1179648,74,-56,-1,-1,0
1523611007231,-1114112,74,-56,-1,-1,0
1523611007231,-917504,74,-56,-1,-1,0
1523611007231,-851968,74,-56,-1,-1,0
1523611007231,-851968,74,-56,-1,-1,0
1523611007269,-786432,74,-56,-1,-1,0
1523611007269,-786432,74,-56,-1,-1,0
1523611007269,-720896,74,-56,-1,-1,0
1523611007269,-655360,74,-56,-1,-1,0
1523611007269,-720896,74,-56,-1,-1,0
1523611007309,-720896,74,-56,-1,-1,0
1523611007309,-655360,74,-56,-1,-1,0
1523611007309,-655360,74,-56,-1,-1,0
1523611007309,-589824,74,-56,-1,-1,0
1523611007309,-655360,74,-56,-1,-1,0
1523611007349,-655360,74,-56,-1,-1,0
1523611007349,-589824,74,-56,-1,-1,0
1523611007349,-589824,74,-56,-1,-1,0
1523611007349,-589824,74,-56,-1,-1,0
1523611007349,-786432,74,-56,-1,-1,0
1523611007389,-917504,74,-56,-1,-1,0
1523611007389,-1048576,74,-56,-1,-1,0
1523611007389,-1179648,74,-56,-1,-1,0
1523611007389,-1376256,74,-56,-1,-1,0
1523611007389,-1310720,74,-56,-1,-1,0
1523611007429,-1114112,74,-56,-1,-1,0
1523611007429,-1048576,74,-56,-1,-1,0
1523611007429,-917504,74,-56,-1,-1,0
1523611007429,-851968,74,-56,-1,-1,0
1523611007429,-917504,74,-56,-1,-1,0
1523611007469,-1048576,74,-56,-1,-1,0
1523611007469,-1114112,74,-56,-1,-1,0
1523611007469,-1048576,74,-56,-1,-1,0
1523611007469,-983040,74,-56,-1,-1,0
1523611007469,-983040,74,-56,-1,-1,0
1523611007509,-917504,74,-56,-1,-1,0
1523611007509,-917504,74,-56,-1,-1,0
1523611007509,-917504,74,-56,-1,-1,0
1523611007509,-917504,74,-56,-1,-1,0
1523611007509,-983040,74,-56,-1,-1,0
1523611007549,-851968,74,-56,-1,-1,0
1523611007549,-327680,74,-56,-1,-1,0
1523611007549,1507328,74,-56,-1,-1,0
1523611007549,5373952,74,-56,-1,-1,0
1523611007549,9371648,74,-56,-1,-1,0
1523611007589,8454144,74,-56,-1,-1,0
1523611007589,3145728,74,-56,-1,-1,0
1523611007589,-655360,74,-56,-1,-1,0
1523611007589,-1179648,74,-56,-1,-1,0
1523611007589,-851968,74,-56,-1,-1,0
1523611007629,-917504,74,-56,-1,-1,0
1523611007629,-983040,74,-56,-1,-1,0
1523611007629,-917504,74,-56,-1,-1,0
1523611007629,-720896,74,-56,-1,-1,0
1523611007629,-720896,74,-56,-1,-1,0
1523611007669,-720896,74,-56,-1,-1,0
1523611007669,-655360,74,-56,-1,-1,0
1523611007669,-458752,74,-56,-1,-1,0
1523611007669,-327680,74,-56,-1,-1,0
1523611007669,-196608,74,-56,-1,-1,0
1523611007709,0,74,-56,-1,-1,0
1523611007709,131072,74,-56,-1,-1,0
1523611007709,393216,74,-56,-1,-1,0
1523611007709,655360,74,-56,-1,-1,0
1523611007709,983040,74,-56,-1,-1,0
1523611007749,1179648,74,-56,-1,-1,0
1523611007749,1245184,74,-56,-1,-1,0
1523611007749,1245184,74,-56,-1,-1,0
1523611007749,1703936,74,-56,-1,-1,0
1523611007749,2293760,74,-56,-1,-1,0
1523611007789,2490368,74,-56,-1,-1,0
1523611007789,2424832,74,-56,-1,-1,0
1523611007789,2162688,74,-56,-1,-1,0
1523611007789,1966080,74,-56,-1,-1,0
1523611007789,1835008,74,-56,-1,-1,0
1523611007829,1835008,74,-56,-1,-1,0
1523611007829,1310720,74,-56,-1,-1,0
1523611007829,524288,74,-56,-1,-1,0
1523611007829,0,74,-56,-1,-1,0
1523611007829,-262144,74,-56,-1,-1,0
1523611007871,-458752,74,-56,-1,-1,0
1523611007871,-589824,74,-56,-1,-1,0
1523611007871,-655360,74,-56,-1,-1,0
1523611007871,-720896,74,-56,-1,-1,0
1523611007871,-786432,74,-56,-1,-1,0
1523611007909,-786432,74,-56,-1,-1,0
1523611007909,-720896,74,-56,-1,-1,0
1523611007909,-720896,74,-56,-1,-1,0
1523611007909,-655360,74,-56,-1,-1,0
1523611007909,-589824,74,-56,-1,-1,0
1523611007951,-524288,74,-56,-1,-1,0
1523611007951,-524288,74,-56,-1,-1,0
1523611007951,-458752,74,-56,-1,-1,0
1523611007951,-458752,74,-56,-1,-1,0
1523611007951,-393216,74,-56,-1,-1,0
1523611007989,-393216,74,-56,-1,-1,0
1523611007989,-393216,74,-56,-1,-1,0
1523611007989,-327680,74,-56,-1,-1,0
1523611007989,-327680,74,-56,-1,-1,0
1523611007989,-393216,74,-56,-1,-1,0
1523611008029,-458752,74,-56,-1,-1,0
1523611008029,-524288,74,-56,-1,-1,0
1523611008029,-458752,74,-56,-1,-1,0
1523611008029,-589824,74,-56,-1,-1,0
1523611008029,-720896,74,-56,-1,-1,0
1523611008071,-917504,74,-56,-1,-1,0
1523611008071,-1048576,74,-56,-1,-1,0
1523611008071,-1179648,74,-56,-1,-1,0
1523611008071,-1310720,74,-56,-1,-1,0
1523611008071,-1310720,74,-56,-1,-1,0
1523611008110,-1179648,74,-56,-1,-1,0
1523611008110,-1048576,74,-56,-1,-1,0
1523611008110,-917504,74,-56,-1,-1,0
1523611008110,-983040,74,-56,-1,-1,0
1523611008110,-983040,74,-56,-1,-1,0
1523611008149,-983040,74,-56,-1,-1,0
1523611008149,-1048576,74,-56,-1,-1,0
1523611008149,-917504,74,-56,-1,-1,0
1523611008149,-1048576,74,-56,-1,-1,0
1523611008149,-851968,74,-56,-1,-1,0
1523611008189,-1048576,74,-56,-1,-1,0
1523611008189,-1048576,74,-56,-1,-1,0
1523611008189,-1179648,74,-56,-1,-1,0
1523611008189,-1114112,74,-56,-1,-1,0
1523611008189,-1114112,74,-56,-1,-1,0
1523611008229,-1114112,74,-56,-1,-1,0
1523611008229,-983040,74,-56,-1,-1,0
1523611008229,-589824,74,-56,-1,-1,0
1523611008229,917504,74,-56,-1,-1,0
1523611008229,4128768,74,-56,-1,-1,0
1523611008269,7929856,74,-56,-1,-1,0
1523611008269,7798784,74,-56,-1,-1,0
1523611008269,3211264,74,-56,-1,-1,0
1523611008269,-720896,74,-56,-1,-1,0
1523611008269,-1310720,74,-56,-1,-1,0
1523611008311,-851968,74,-56,-1,-1,0
1523611008311,-720896,74,-56,-1,-1,0
1523611008311,-655360,74,-56,-1,-1,0
1523611008311,-655360,74,-56,-1,-1,0
1523611008311,-524288,74,-56,-1,-1,0
1523611008349,-327680,74,-56,-1,-1,0
1523611008349,-196608,74,-56,-1,-1,0
1523611008349,-196608,74,-56,-1,-1,0
1523611008349,-196608,74,-56,-1,-1,0
1523611008349,-262144,74,-56,-1,-1,0
1523611008389,-393216,74,-56,-1,-1,0
1523611008389,-196608,74,-56,-1,-1,0
1523611008389,0,74,-56,-1,-1,0
1523611008389,131072,74,-56,-1,-1,0
1523611008389,393216,74,-56,-1,-1,0
1523611008429,589824,74,-56,-1,-1,0
1523611008429,655360,74,-56,-1,-1,0
1523611008429,851968,74,-56,-1,-1,0
1523611008429,1048576,74,-56,-1,-1,0
1523611008429,1441792,74,-56,-1,-1,0
1523611008469,1703936,74,-56,-1,-1,0
1523611008469,1900544,74,-56,-1,-1,0
1523611008469,2031616,74,-56,-1,-1,0
1523611008469,2293760,74,-56,-1,-1,0
1523611008469,2359296,74,-56,-1,-1,0
1523611008511,2293760,74,-56,-1,-1,0
1523611008511,1966080,74,-56,-1,-1,0
1523611008511,1572864,74,-56,-1,-1,0
1523611008511,1114112,74,-56,-1,-1,0
1523611008511,786432,74,-56,-1,-1,0
1523611008549,393216,74,-56,-1,-1,0
1523611008549,65536,74,-56,-1,-1,0
1523611008549,0,74,-56,-1,-1,0
1523611008549,-196608,74,-56,-1,-1,0
1523611008549,-327680,74,-56,-1,-1,0
1523611008589,-458752,74,-56,-1,-1,0
1523611008589,-524288,74,-56,-1,-1,0
1523611008589,-524288,74,-56,-1,-1,0
1523611008589,-524288,74,-56,-1,-1,0
1523611008589,-524288,74,-56,-1,-1,0
1523611008629,-524288,74,-56,-1,-1,0
1523611008629,-524288,74,-56,-1,-1,0
1523611008629,-524288,74,-56,-1,-1,0
1523611008629,-524288,74,-56,-1,-1,0
1523611008629,-524288,74,-56,-1,-1,0
1523611008669,-524288,74,-56,-1,-1,0
1523611008669,-524288,74,-56,-1,-1,0
1523611008669,-524288,74,-56,-1,-1,0
1523611008669,-524288,74,-56,-1,-1,0
1523611008669,-458752,74,-56,-1,-1,0
1523611008709,-393216,74,-56,-1,-1,0
1523611008709,-458752,74,-56,-1,-1,0
1523611008709,-458752,74,-56,-1,-1,0
1523611008709,-524288,74,-56,-1,-1,0
1523611008709,-524288,74,-56,-1,-1,0
1523611008749,-589824,74,-56,-1,-1,0
1523611008749,-655360,74,-56,-1,-1,0
1523611008749,-851968,74,-56,-1,-1,0
1523611008749,-917504,74,-56,-1,-1,0
1523611008749,-786432,74,-56,-1,-1,0
1523611008789,-589824,74,-56,-1,-1,0
1523611008789,-458752,74,-56,-1,-1,0
1523611008789,-262144,74,-56,-1,-1,0
1523611008789,-393216,74,-56,-1,-1,0
1523611008789,-720896,74,-56,-1,-1,0
1523611008829,-1048576,74,-56,-1,-1,0
1523611008829,-1245184,74,-56,-1,-1,0
1523611008829,-1376256,74,-56,-1,-1,0
1523611008829,-1310720,74,-56,-1,-1,0
1523611008829,-1179648,74,-56,-1,-1,0
1523611008869,-1114112,74,-56,-1,-1,0
1523611008869,-1048576,74,-56,-1,-1,0
1523611008869,-983040,74,-56,-1,-1,0
1523611008869,-917504,74,-56,-1,-1,0
1523611008869,-917504,74,-56,-1,-1,0
1523611008909,-720896,74,-56,-1,-1,0
1523611008909,0,74,-56,-1,-1,0
1523611008909,1900544,74,-56,-1,-1,0
1523611008909,5636096,74,-56,-1,-1,0
1523611008909,8585216,74,-56,-1,-1,0
1523611008949,6750208,74,-56,-1,-1,0
1523611008949,1835008,74,-56,-1,-1,0
1523611008949,-1114112,74,-56,-1,-1,0
1523611008949,-1114112,74,-56,-1,-1,0
1523611008949,-655360,74,-56,-1,-1,0
1523611008989,-524288,74,-56,-1,-1,0
1523611008989,-524288,74,-56,-1,-1,0
1523611008989,-524288,74,-56,-1,-1,0
1523611008989,-458752,74,-56,-1,-1,0
1523611008989,-393216,74,-56,-1,-1,0
1523611009029,-262144,74,-56,-1,-1,0
1523611009029,-262144,74,-56,-1,-1,0
1523611009029,-262144,74,-56,-1,-1,0
1523611009029,-196608,74,-56,-1,-1,0
1523611009029,0,74,-56,-1,-1,0
1523611009069,65536,74,-56,-1,-1,0
1523611009069,196608,74,-56,-1,-1,0
1523611009069,327680,74,-56,-1,-1,0
1523611009069,458752,74,-56,-1,-1,0
1523611009069,589824,74,-56,-1,-1,0
1523611009109,720896,74,-56,-1,-1,0
1523611009109,983040,74,-56,-1,-1,0
1523611009109,1179648,74,-56,-1,-1,0
1523611009109,1507328,74,-56,-1,-1,0
1523611009109,1703936,74,-56,-1,-1,0
1523611009151,1900544,74,-56,-1,-1,0
1523611009151,2031616,74,-56,-1,-1,0
1523611009151,2097152,74,-56,-1,-1,0
1523611009151,2162688,74,-56,-1,-1,0
1523611009151,2031616,74,-56,-1,-1,0
1523611009189,1638400,74,-56,-1,-1,0
1523611009189,1114112,74,-56,-1,-1,0
1523611009189,589824,74,-56,-1,-1,0
1523611009189,196608,74,-56,-1,-1,0
1523611009189,-65536,74,-56,-1,-1,0
1523611009229,-327680,74,-56,-1,-1,0
1523611009229,-524288,74,-56,-1,-1,0
1523611009229,-524288,74,-56,-1,-1,0
1523611009229,-524288,74,-56,-1,-1,0
1523611009229,-589824,74,-56,-1,-1,0
1523611009269,-655360,74,-56,-1,-1,0
1523611009269,-720896,74,-56,-1,-1,0
1523611009269,-786432,74,-56,-1,-1,0
1523611009269,-786432,74,-56,-1,-1,0
1523611009269,-720896,74,-56,-1,-1,0
1523611009309,-655360,74,-56,-1,-1,0
1523611009309,-655360,74,-56,-1,-1,0
1523611009309,-655360,74,-56,-1,-1,0
1523611009309,-720896,74,-56,-1,-1,0
1523611009309,-786432,74,-56,-1,-1,0
1523611009349,-786432,74,-56,-1,-1,0
1523611009349,-786432,74,-56,-1,-1,0
1523611009349,-786432,74,-56,-1,-1,0
1523611009349,-786432,74,-56,-1,-1,0
1523611009349,-851968,74,-56,-1,-1,0
1523611009389,-917504,74,-56,-1,-1,0
1523611009389,-917504,74,-56,-1,-1,0
1523611009389,-983040,74,-56,-1,-1,0
1523611009389,-1245184,74,-56,-1,-1,0
1523611009389,-1376256,74,-56,-1,-1,0
1523611009429,-1245184,74,-56,-1,-1,0
1523611009429,-1048576,74,-56,-1,-1,0
1523611009429,-917504,74,-56,-1,-1,0
1523611009429,-786432,74,-56,-1,-1,0
1523611009429,-786432,74,-56,-1,-1,0
1523611009469,-917504,74,-56,-1,-1,0
1523611009469,-1048576,74,-56,-1,-1,0
1523611009469,-1114112,74,-56,-1,-1,0
1523611009469,-1114112,74,-56,-1,-1,0
1523611009469,-1179648,74,-56,-1,-1,0
1523611009511,-1179648,75,-56,-1,-1,0
1523611009511,-1179648,75,-56,-1,-1,0
1523611009511,-1179648,75,-56,-1,-1,0
1523611009511,-1179648,75,-56,-1,-1,0
1523611009511,-1245184,75,-56,-1,-1,0
1523611009549,-1310720,75,-56,-1,-1,0
1523611009549,-1245184,75,-56,-1,-1,0
1523611009549,-655360,75,-56,-1,-1,0
1523611009549,1310720,75,-56,-1,-1,0
1523611009549,5242880,75,-56,-1,-1,0
1523611009589,8912896,75,-56,-1,-1,0
1523611009589,7471104,75,-56,-1,-1,0
1523611009589,1966080,75,-56,-1,-1,0
1523611009589,-1638400,75,-56,-1,-1,0
1523611009589,-1703936,75,-56,-1,-1,0
1523611009629,-1114112,75,-56,-1,-1,0
1523611009629,-983040,75,-56,-1,-1,0
1523611009629,-1048576,75,-56,-1,-1,0
1523611009629,-1048576,75,-56,-1,-1,0
1523611009629,-917504,75,-56,-1,-1,0
1523611009669,-851968,75,-56,-1,-1,0
1523611009669,-786432,75,-56,-1,-1,0
1523611009669,-720896,75,-56,-1,-1,0
1523611009669,-589824,75,-56,-1,-1,0
1523611009669,-458752,75,-56,-1,-1,0
1523611009711,-393216,75,-56,-1,-1,0
1523611009711,-327680,75,-56,-1,-1,0
1523611009711,-196608,75,-56,-1,-1,0
1523611009711,0,75,-56,-1,-1,0
1523611009711,196608,75,-56,-1,-1,0
1523611009749,393216,75,-56,-1,-1,0
1523611009749,655360,75,-56,-1,-1,0
1523611009749,917504,75,-56,-1,-1,0
1523611009749,1179648,75,-56,-1,-1,0
1523611009749,1310720,75,-56,-1,-1,0
1523611009791,1572864,75,-56,-1,-1,0
1523611009791,1769472,75,-56,-1,-1,0
1523611009791,1900544,75,-56,-1,-1,0
1523611009791,2031616,75,-56,-1,-1,0
1523611009791,1966080,75,-56,-1,-1,0
1523611009829,1769472,75,-56,-1,-1,0
1523611009829,1310720,75,-56,-1,-1,0
1523611009829,720896,75,-56,-1,-1,0
1523611009829,131072,75,-56,-1,-1,0
1523611009829,-196608,75,-56,-1,-1,0
1523611009869,-524288,75,-56,-1,-1,0
1523611009869,-655360,75,-56,-1,-1,0
1523611009869,-720896,75,-56,-1,-1,0
1523611009869,-786432,75,-56,-1,-1,0
1523611009869,-851968,75,-56,-1,-1,0
1523611009909,-851968,75,-56,-1,-1,0
1523611009909,-851968,75,-56,-1,-1,0
1523611009909,-851968,75,-56,-1,-1,0
1523611009909,-851968,75,-56,-1,-1,0
1523611009909,-851968,75,-56,-1,-1,0
1523611009949,-786432,75,-56,-1,-1,0
1523611009949,-786432,75,-56,-1,-1,0
1523611009949,-786432,75,-56,-1,-1,0
1523611009949,-786432,75,-56,-1,-1,0
1523611009949,-720896,75,-56,-1,-1,0
1523611009989,-720896,75,-56,-1,-1,0
1523611009989,-720896,75,-56,-1,-1,0
1523611009989,-786432,75,-56,-1,-1,0
1523611009989,-851968,75,-56,-1,-1,0
1523611009989,-786432,75,-56,-1,-1,0
1523611010031,-786432,75,-56,-1,-1,0
1523611010031,-786432,75,-56,-1,-1,0
1523611010031,-851968,75,-56,-1,-1,0
1523611010031,-917504,75,-56,-1,-1,0
1523611010031,-983040,75,-56,-1,-1,0
1523611010069,-917504,75,-56,-1,-1,0
1523611010069,-786432,75,-56,-1,-1,0
1523611010069,-720896,75,-56,-1,-1,0
1523611010069,-655360,75,-56,-1,-1,0
1523611010069,-655360,75,-56,-1,-1,0
1523611010109,-720896,75,-56,-1,-1,0
1523611010109,-917504,75,-56,-1,-1,0
1523611010109,-983040,75,-56,-1,-1,0
1523611010109,-983040,75,-56,-1,-1,0
1523611010109,-983040,75,-56,-1,-1,0
1523611010149,-983040,77,-56,-1,-1,0
1523611010149,-1048576,77,-56,-1,-1,0
1523611010149,-1048576,77,-56,-1,-1,0
1523611010149,-1114112,77,-56,-1,-1,0
1523611010149,-1114112,77,-56,-1,-1,0
1523611010189,-1114112,77,-56,-1,-1,0
1523611010189,-1114112,77,-56,-1,-1,0
1523611010189,-720896,77,-56,-1,-1,0
1523611010189,720896,77,-56,-1,-1,0
1523611010189,3997696,77,-56,-1,-1,0
1523611010229,8257536,77,-56,-1,-1,0
1523611010229,8912896,77,-56,-1,-1,0
1523611010229,4325376,77,-56,-1,-1,0
1523611010229,-524288,77,-56,-1,-1,0
1523611010229,-1703936,77,-56,-1,-1,0
1523611010269,-1114112,77,-56,-1,-1,0
1523611010269,-851968,77,-56,-1,-1,0
1523611010269,-917504,77,-56,-1,-1,0
1523611010269,-983040,77,-56,-1,-1,0
1523611010269,-917504,77,-56,-1,-1,0
1523611010309,-786432,77,-56,-1,-1,0
1523611010309,-655360,77,-56,-1,-1,0
1523611010309,-524288,77,-56,-1,-1,0
1523611010309,-458752,77,-56,-1,-1,0
1523611010309,-393216,77,-56,-1,-1,0
1523611010349,-262144,77,-56,-1,-1,0
1523611010349,-196608,77,-56,-1,-1,0
1523611010349,-65536,77,-56,-1,-1,0
1523611010349,65536,77,-56,-1,-1,0
1523611010349,262144,77,-56,-1,-1,0
1523611010389,458752,77,-56,-1,-1,0
1523611010389,655360,77,-56,-1,-1,0
1523611010389,917504,77,-56,-1,-1,0
1523611010389,1179648,77,-56,-1,-1,0
1523611010389,1572864,77,-56,-1,-1,0
1523611010431,1835008,77,-56,-1,-1,0
1523611010431,2031616,77,-56,-1,-1,0
1523611010431,2162688,77,-56,-1,-1,0
1523611010431,2162688,77,-56,-1,-1,0
1523611010431,2162688,77,-56,-1,-1,0
1523611010469,2031616,77,-56,-1,-1,0
1523611010469,1638400,77,-56,-1,-1,0
1523611010469,1048576,77,-56,-1,-1,0
1523611010469,458752,77,-56,-1,-1,0
1523611010469,0,77,-56,-1,-1,0
1523611010509,-327680,77,-56,-1,-1,0
1523611010509,-589824,77,-56,-1,-1,0
1523611010509,-786432,77,-56,-1,-1,0
1523611010509,-917504,77,-56,-1,-1,0
1523611010509,-983040,77,-56,-1,-1,0
1523611010549,-983040,77,-56,-1,-1,0
1523611010549,-983040,77,-56,-1,-1,0
1523611010549,-983040,77,-56,-1,-1,0
1523611010549,-983040,77,-56,-1,-1,0
1523611010549,-983040,77,-56,-1,-1,0
1523611010589,-983040,77,-56,-1,-1,0
1523611010589,-917504,77,-56,-1,-1,0
1523611010589,-851968,77,-56,-1,-1,0
1523611010589,-851968,77,-56,-1,-1,0
1523611010589,-786432,77,-56,-1,-1,0
1523611010629,-786432,77,-56,-1,-1,0
1523611010629,-786432,77,-56,-1,-1,0
1523611010629,-720896,77,-56,-1,-1,0
1523611010629,-720896,77,-56,-1,-1,0
1523611010629,-720896,77,-56,-1,-1,0
1523611010669,-720896,77,-56,-1,-1,0
1523611010669,-786432,77,-56,-1,-1,0
1523611010669,-786432,77,-56,-1,-1,0
1523611010669,-851968,77,-56,-1,-1,0
1523611010669,-983040,77,-56,-1,-1,0
1523611010709,-917504,77,-56,-1,-1,0
1523611010709,-786432,77,-56,-1,-1,0
1523611010709,-720896,77,-56,-1,-1,0
