milliseconds, ECG, ECG HR, PPG, PPG HR, SpO2, PI
0,-1114112,105,-56,-1,-1,0
33,-1245184,105,-56,-1,-1,0
66,8650752,105,-56,-1,-1,0
100,-2293760,105,-56,-1,-1,0
133,-1376256,105,-56,-1,-1,0
166,-1048576,105,-56,-1,-1,0
200,65536,105,-56,-1,-1,0
233,786432,105,-56,-1,-1,0
266,-131072,105,-56,-1,-1,0
300,-720896,105,-56,-1,-1,0
333,-786432,105,-56,-1,-1,0
366,-917504,105,-56,-1,-1,0
400,-917504,105,-56,-1,-1,0
433,-720896,105,-56,-1,-1,0
466,-327680,105,-56,-1,-1,0
500,-458752,105,-56,-1,-1,0
533,7733248,105,-56,-1,-1,0
566,-2293760,105,-56,-1,-1,0
600,-524288,105,-56,-1,-1,0
633,-196608,105,-56,-1,-1,0
666,524288,105,-56,-1,-1,0
700,1179648,105,-56,-1,-1,0
733,0,105,-56,-1,-1,0
766,-851968,105,-56,-1,-1,0
800,-720896,105,-56,-1,-1,0
833,-983040,105,-56,-1,-1,0
866,-917504,105,-56,-1,-1,0
900,-983040,105,-56,-1,-1,0
933,-851968,105,-56,-1,-1,0
966,-917504,105,-56,-1,-1,0
1000,5963776,105,-56,-1,-1,0
1033,-3014656,105,-56,-1,-1,0
1066,-1048576,105,-56,-1,-1,0
1100,-393216,105,-56,-1,-1,0
1133,720896,105,-56,-1,-1,0
1166,2162688,105,-56,-1,-1,0
1200,983040,105,-56,-1,-1,0
1233,0,105,-56,-1,-1,0
1266,65536,105,-56,-1,-1,0
1300,-65536,105,-56,-1,-1,0
1333,-655360,105,-56,-1,-1,0
1366,-786432,105,-56,-1,-1,0
1400,-327680,105,-56,-1,-1,0
1433,-786432,105,-56,-1,-1,0
1466,2686976,105,-56,-1,-1,0
1500,-2359296,105,-56,-1,-1,0
1533,-917504,105,-56,-1,-1,0
1566,-589824,105,-56,-1,-1,0
1600,524288,105,-56,-1,-1,0
1633,1835008,105,-56,-1,-1,0
1666,1048576,105,-56,-1,-1,0
1700,-327680,105,-56,-1,-1,0
1733,-196608,105,-56,-1,-1,0
1766,-393216,105,-56,-1,-1,0
1800,-655360,105,-56,-1,-1,0
1833,-720896,105,-56,-1,-1,0
1866,-524288,105,-56,-1,-1,0
1900,-589824,105,-56,-1,-1,0
1933,-720896,105,-56,-1,-1,0
1966,10485760,105,-56,-1,-1,0
2000,-2031616,105,-56,-1,-1,0
2033,-786432,105,-56,-1,-1,0
2066,-327680,105,-56,-1,-1,0
2100,786432,105,-56,-1,-1,0
2133,1703936,105,-56,-1,-1,0
2166,131072,105,-56,-1,-1,0
2200,-262144,105,-56,-1,-1,0
2233,0,105,-56,-1,-1,0
2266,-196608,105,-56,-1,-1,0
2300,-458752,105,-56,-1,-1,0
2333,-393216,105,-56,-1,-1,0
2366,-655360,105,-56,-1,-1,0
2400,-524288,105,-56,-1,-1,0
2433,-786432,105,-56,-1,-1,0
2466,-1245184,105,-56,-1,-1,0
2500,10616832,105,-56,-1,-1,0
2533,-1966080,105,-56,-1,-1,0
2566,-1310720,105,-56,-1,-1,0
2600,-720896,105,-56,-1,-1,0
2633,327680,105,-56,-1,-1,0
2666,1310720,105,-56,-1,-1,0
2700,196608,105,-56,-1,-1,0
2733,-458752,105,-56,-1,-1,0
2766,-196608,105,-56,-1,-1,0
2800,-393216,105,-56,-1,-1,0
2833,-589824,105,-56,-1,-1,0
2866,-786432,105,-56,-1,-1,0
2900,-720896,105,-56,-1,-1,0
2933,-655360,105,-56,-1,-1,0
2966,-720896,105,-56,-1,-1,0
3000,-524288,105,-56,-1,-1,0
3033,-786432,105,-56,-1,-1,0
3066,10747904,105,-56,-1,-1,0
3100,-1900544,105,-56,-1,-1,0
3133,-917504,105,-56,-1,-1,0
3166,-393216,105,-56,-1,-1,0
3200,589824,105,-56,-1,-1,0
3233,1441792,105,-56,-1,-1,0
3266,262144,105,-56,-1,-1,0
3300,-393216,105,-56,-1,-1,0
3333,-393216,105,-56,-1,-1,0
3366,-655360,105,-56,-1,-1,0
3400,-786432,105,-56,-1,-1,0
3433,-720896,105,-56,-1,-1,0
3466,-786432,105,-56,-1,-1,0
3500,-786432,105,-56,-1,-1,0
3533,-720896,105,-56,-1,-1,0
3566,-393216,105,-56,-1,-1,0
3600,-393216,105,-56,-1,-1,0
3633,-720896,105,-56,-1,-1,0
3666,9961472,106,-56,-1,-1,0
3699,-1048576,106,-56,-1,-1,0
3733,-327680,106,-56,-1,-1,0
3766,262144,106,-56,-1,-1,0
3800,1638400,106,-56,-1,-1,0
3833,2293760,106,-56,-1,-1,0
3866,1245184,106,-56,-1,-1,0
3900,458752,106,-56,-1,-1,0
3933,720896,106,-56,-1,-1,0
3966,458752,106,-56,-1,-1,0
4000,131072,106,-56,-1,-1,0
4033,65536,106,-56,-1,-1,0
4066,0,106,-56,-1,-1,0
4100,-65536,106,-56,-1,-1,0
4133,-262144,106,-56,-1,-1,0
4166,-262144,106,-56,-1,-1,0
4200,-524288,106,-56,-1,-1,0
4233,-1048576,106,-56,-1,-1,0
4266,9699328,106,-56,-1,-1,0
4300,-2162688,106,-56,-1,-1,0
4333,-1507328,106,-56,-1,-1,0
4366,-1114112,106,-56,-1,-1,0
4400,-458752,106,-56,-1,-1,0
4433,0,106,-56,-1,-1,0
4466,-524288,106,-56,-1,-1,0
4500,-1441792,106,-56,-1,-1,0
4533,-1703936,106,-56,-1,-1,0
4566,-1638400,106,-56,-1,-1,0
4600,-1507328,106,-56,-1,-1,0
4633,-1310720,106,-56,-1,-1,0
4666,-1048576,106,-56,-1,-1,0
4700,-1245184,106,-56,-1,-1,0
4733,-917504,106,-56,-1,-1,0
4766,-393216,105,-56,-1,-1,0
4800,-458752,105,-56,-1,-1,0
4833,2162688,105,-56,-1,-1,0
4866,-1310720,105,-56,-1,-1,0
4900,-393216,105,-56,-1,-1,0
4933,-65536,105,-56,-1,-1,0
4966,458752,105,-56,-1,-1,0
5000,2031616,105,-56,-1,-1,0
5033,2293760,105,-56,-1,-1,0
5066,458752,105,-56,-1,-1,0
5100,0,105,-56,-1,-1,0
5133,196608,105,-56,-1,-1,0
5166,65536,105,-56,-1,-1,0
5200,-393216,105,-56,-1,-1,0
5233,-720896,105,-56,-1,-1,0
5266,-851968,105,-56,-1,-1,0
5300,-458752,103,-56,-1,-1,0
5333,-983040,103,-56,-1,-1,0
5366,2621440,103,-56,-1,-1,0
5400,-2818048,103,-56,-1,-1,0
5433,-1245184,103,-56,-1,-1,0
5466,-983040,103,-56,-1,-1,0
5500,196608,103,-56,-1,-1,0
5533,1769472,103,-56,-1,-1,0
5566,1179648,103,-56,-1,-1,0
5600,-262144,103,-56,-1,-1,0
5633,-393216,103,-56,-1,-1,0
5666,-458752,103,-56,-1,-1,0
5700,-589824,103,-56,-1,-1,0
5733,-655360,103,-56,-1,-1,0
5766,-655360,103,-56,-1,-1,0
5800,-917504,103,-56,-1,-1,0
5833,-458752,101,-56,-1,-1,0
5866,-524288,101,-56,-1,-1,0
5900,5373952,101,-56,-1,-1,0
5933,-2228224,101,-56,-1,-1,0
5966,-655360,101,-56,-1,-1,0
6000,-262144,101,-56,-1,-1,0
6033,327680,101,-56,-1,-1,0
6066,1376256,101,-56,-1,-1,0
6100,786432,101,-56,-1,-1,0
6133,-458752,101,-56,-1,-1,0
6166,-655360,101,-56,-1,-1,0
6200,-1048576,101,-56,-1,-1,0
6233,-1114112,101,-56,-1,-1,0
6266,-1114112,101,-56,-1,-1,0
6300,-1245184,101,-56,-1,-1,0
6333,-1310720,99,-56,-1,-1,0
6366,-1179648,99,-56,-1,-1,0
6400,-1376256,99,-56,-1,-1,0
6433,4915200,99,-56,-1,-1,0
6466,-3145728,99,-56,-1,-1,0
6500,-1638400,99,-56,-1,-1,0
6533,-1507328,99,-56,-1,-1,0
6566,-393216,99,-56,-1,-1,0
6600,1310720,99,-56,-1,-1,0
6633,1114112,99,-56,-1,-1,0
6666,-196608,99,-56,-1,-1,0
6700,-655360,99,-56,-1,-1,0
6733,-851968,99,-56,-1,-1,0
6766,-917504,99,-56,-1,-1,0
6800,-720896,99,-56,-1,-1,0
6833,-851968,98,-56,-1,-1,0
6866,-327680,98,-56,-1,-1,0
6899,-655360,98,-56,-1,-1,0
6933,589824,98,-56,-1,-1,0
6966,-131072,98,-56,-1,-1,0
7000,-851968,98,-56,-1,-1,0
7033,-393216,98,-56,-1,-1,0
7066,262144,98,-56,-1,-1,0
7100,1703936,98,-56,-1,-1,0
7133,1703936,98,-56,-1,-1,0
7166,196608,98,-56,-1,-1,0
7200,-131072,98,-56,-1,-1,0
7233,-262144,98,-56,-1,-1,0
7266,-589824,98,-56,-1,-1,0
7300,-524288,98,-56,-1,-1,0
7333,-524288,97,-56,-1,-1,0
7366,65536,97,-56,-1,-1,0
7399,-131072,97,-56,-1,-1,0
7433,1703936,97,-56,-1,-1,0
7466,-1179648,97,-56,-1,-1,0
7500,-1048576,97,-56,-1,-1,0
7533,-720896,97,-56,-1,-1,0
7566,-65536,97,-56,-1,-1,0
7600,1179648,97,-56,-1,-1,0
7633,1048576,97,-56,-1,-1,0
7666,-262144,97,-56,-1,-1,0
7700,-655360,97,-56,-1,-1,0
7733,-720896,97,-56,-1,-1,0
7766,-917504,97,-56,-1,-1,0
7800,-1245184,96,-56,-1,-1,0
7833,-917504,96,-56,-1,-1,0
7866,-1114112,96,-56,-1,-1,0
7899,-1245184,96,-56,-1,-1,0
7933,9240576,96,-56,-1,-1,0
7966,-2686976,96,-56,-1,-1,0
8000,-1572864,96,-56,-1,-1,0
8033,-1114112,96,-56,-1,-1,0
8066,327680,96,-56,-1,-1,0
8100,1507328,96,-56,-1,-1,0
8133,393216,96,-56,-1,-1,0
8166,-524288,96,-56,-1,-1,0
8200,-589824,96,-56,-1,-1,0
8233,-786432,96,-56,-1,-1,0
8266,-851968,96,-56,-1,-1,0
8300,-983040,96,-56,-1,-1,0
8333,-524288,96,-56,-1,-1,0
8366,-851968,96,-56,-1,-1,0
8400,-851968,96,-56,-1,-1,0
8433,5373952,96,-56,-1,-1,0
8466,-1376256,96,-56,-1,-1,0
8500,-655360,96,-56,-1,-1,0
8533,-65536,96,-56,-1,-1,0
8566,1441792,96,-56,-1,-1,0
8600,1703936,96,-56,-1,-1,0
8633,131072,96,-56,-1,-1,0
8666,-131072,96,-56,-1,-1,0
8700,-262144,96,-56,-1,-1,0
8733,-458752,96,-56,-1,-1,0
8766,-720896,96,-56,-1,-1,0
8800,-524288,96,-56,-1,-1,0
8833,-589824,96,-56,-1,-1,0
8866,-851968,96,-56,-1,-1,0
8900,9699328,96,-56,-1,-1,0
8933,-1966080,96,-56,-1,-1,0
8966,-851968,96,-56,-1,-1,0
9000,-524288,96,-56,-1,-1,0
9033,851968,96,-56,-1,-1,0
9066,1572864,96,-56,-1,-1,0
9100,262144,96,-56,-1,-1,0
9133,-327680,96,-56,-1,-1,0
9166,-131072,96,-56,-1,-1,0
9200,-196608,96,-56,-1,-1,0
9233,-327680,96,-56,-1,-1,0
9266,-262144,96,-56,-1,-1,0
9300,-196608,96,-56,-1,-1,0
9333,-458752,96,-56,-1,-1,0
9366,196608,96,-56,-1,-1,0
9400,2949120,96,-56,-1,-1,0
9433,-983040,96,-56,-1,-1,0
9466,-655360,96,-56,-1,-1,0
9500,0,96,-56,-1,-1,0
9533,1441792,96,-56,-1,-1,0
9566,1310720,96,-56,-1,-1,0
9600,-196608,96,-56,-1,-1,0
9633,-524288,96,-56,-1,-1,0
9666,-262144,96,-56,-1,-1,0
9700,-851968,96,-56,-1,-1,0
9733,-1114112,96,-56,-1,-1,0
9766,-983040,96,-56,-1,-1,0
9800,1507328,96,-56,-1,-1,0
9833,6684672,96,-56,-1,-1,0
9866,-262144,96,-56,-1,-1,0
9900,-1638400,96,-56,-1,-1,0
9933,-2162688,96,-56,-1,-1,0
9966,-2949120,96,-56,-1,-1,0
10000,-2555904,96,-56,-1,-1,0
10033,-983040,96,-56,-1,-1,0
10066,-131072,96,-56,-1,-1,0
10100,-196608,96,-56,-1,-1,0
10133,-131072,96,-56,-1,-1,0
10166,-196608,96,-56,-1,-1,0
10200,-262144,96,-56,-1,-1,0
10233,-262144,96,-56,-1,-1,0
10266,-327680,96,-56,-1,-1,0
10300,-589824,96,-56,-1,-1,0
10333,-65536,96,-56,-1,-1,0
10366,-327680,96,-56,-1,-1,0
10400,-589824,94,-56,-1,-1,0
10433,9306112,94,-56,-1,-1,0
10466,-1114112,94,-56,-1,-1,0
10500,-655360,94,-56,-1,-1,0
10533,-131072,94,-56,-1,-1,0
10566,1048576,94,-56,-1,-1,0
10600,1703936,94,-56,-1,-1,0
10633,458752,94,-56,-1,-1,0
10666,-196608,94,-56,-1,-1,0
10700,-131072,94,-56,-1,-1,0
10733,-393216,94,-56,-1,-1,0
10766,-655360,94,-56,-1,-1,0
10800,-786432,94,-56,-1,-1,0
10833,-720896,94,-56,-1,-1,0
10866,-851968,94,-56,-1,-1,0
10900,-458752,94,-56,-1,-1,0
10933,-786432,94,-56,-1,-1,0
10966,-851968,94,-56,-1,-1,0
11000,8060928,94,-56,-1,-1,0
11033,-1048576,94,-56,-1,-1,0
11066,-589824,94,-56,-1,-1,0
11100,0,94,-56,-1,-1,0
11133,1179648,94,-56,-1,-1,0
11166,1703936,94,-56,-1,-1,0
11200,458752,94,-56,-1,-1,0
11233,-131072,94,-56,-1,-1,0
11266,-131072,94,-56,-1,-1,0
11300,-524288,94,-56,-1,-1,0
11333,-851968,94,-56,-1,-1,0
11366,-1179648,94,-56,-1,-1,0
11400,-1179648,94,-56,-1,-1,0
11433,-1245184,94,-56,-1,-1,0
11466,-1245184,94,-56,-1,-1,0
11500,-983040,94,-56,-1,-1,0
11533,-1179648,94,-56,-1,-1,0
11566,-1245184,94,-56,-1,-1,0
11600,9895936,94,-56,-1,-1,0
11633,-2097152,94,-56,-1,-1,0
11666,-1114112,94,-56,-1,-1,0
11700,-589824,94,-56,-1,-1,0
11733,786432,94,-56,-1,-1,0
11766,1900544,94,-56,-1,-1,0
11800,917504,94,-56,-1,-1,0
11833,-196608,94,-56,-1,-1,0
11866,-131072,94,-56,-1,-1,0
11900,-262144,94,-56,-1,-1,0
11933,-393216,94,-56,-1,-1,0
11966,-393216,94,-56,-1,-1,0
12000,-524288,94,-56,-1,-1,0
12033,-589824,94,-56,-1,-1,0
12066,-720896,94,-56,-1,-1,0
12100,-393216,94,-56,-1,-1,0
12133,-458752,94,-56,-1,-1,0
12166,-458752,94,-56,-1,-1,0
12200,10944512,94,-56,-1,-1,0
12233,-1703936,94,-56,-1,-1,0
12266,-786432,94,-56,-1,-1,0
12300,-327680,94,-56,-1,-1,0
12333,786432,94,-56,-1,-1,0
12366,1835008,94,-56,-1,-1,0
12400,983040,94,-56,-1,-1,0
12433,-131072,94,-56,-1,-1,0
12466,-65536,94,-56,-1,-1,0
12500,-327680,94,-56,-1,-1,0
12533,-589824,94,-56,-1,-1,0
12566,-720896,94,-56,-1,-1,0
12600,-851968,94,-56,-1,-1,0
12633,-983040,94,-56,-1,-1,0
12666,-1048576,94,-56,-1,-1,0
12700,-851968,94,-56,-1,-1,0
12733,-917504,94,-56,-1,-1,0
12766,-983040,94,-56,-1,-1,0
12800,8781824,94,-56,-1,-1,0
12833,-2490368,94,-56,-1,-1,0
12866,-1114112,94,-56,-1,-1,0
12900,-655360,94,-56,-1,-1,0
12933,524288,94,-56,-1,-1,0
12966,1769472,94,-56,-1,-1,0
13000,1114112,94,-56,-1,-1,0
13033,-196608,94,-56,-1,-1,0
13066,-262144,94,-56,-1,-1,0
13100,-524288,94,-56,-1,-1,0
13133,-851968,94,-56,-1,-1,0
13166,-917504,94,-56,-1,-1,0
13200,-983040,94,-56,-1,-1,0
13233,-1048576,94,-56,-1,-1,0
13266,-1179648,94,-56,-1,-1,0
13299,-1245184,94,-56,-1,-1,0
13333,-655360,94,-56,-1,-1,0
13366,-1048576,94,-56,-1,-1,0
13400,-262144,94,-56,-1,-1,0
13433,1966080,93,-56,-1,-1,0
13466,-917504,93,-56,-1,-1,0
13500,-524288,93,-56,-1,-1,0
13533,262144,93,-56,-1,-1,0
13566,1966080,93,-56,-1,-1,0
13600,2162688,93,-56,-1,-1,0
13633,786432,93,-56,-1,-1,0
13666,458752,93,-56,-1,-1,0
13700,393216,93,-56,-1,-1,0
13733,131072,93,-56,-1,-1,0
13766,0,93,-56,-1,-1,0
13799,0,93,-56,-1,-1,0
13833,0,93,-56,-1,-1,0
13866,131072,93,-56,-1,-1,0
13900,-131072,93,-56,-1,-1,0
13933,-327680,93,-56,-1,-1,0
13966,-262144,93,-56,-1,-1,0
14000,-720896,93,-56,-1,-1,0
14033,4718592,93,-56,-1,-1,0
14066,-2424832,91,-56,-1,-1,0
14100,-1179648,91,-56,-1,-1,0
14133,-524288,91,-56,-1,-1,0
14166,196608,91,-56,-1,-1,0
14200,1376256,91,-56,-1,-1,0
14233,1310720,91,-56,-1,-1,0
14266,65536,91,-56,-1,-1,0
14299,-131072,91,-56,-1,-1,0
14333,-393216,91,-56,-1,-1,0
14366,-458752,91,-56,-1,-1,0
14400,-458752,91,-56,-1,-1,0
14433,-524288,91,-56,-1,-1,0
14466,-524288,91,-56,-1,-1,0
14500,-327680,91,-56,-1,-1,0
14533,-262144,91,-56,-1,-1,0
14566,-196608,91,-56,-1,-1,0
14600,-131072,91,-56,-1,-1,0
14633,-327680,91,-56,-1,-1,0
14666,9043968,89,-56,-1,-1,0
14700,-1638400,89,-56,-1,-1,0
14733,-524288,89,-56,-1,-1,0
14766,-196608,89,-56,-1,-1,0
14799,458752,89,-56,-1,-1,0
14833,1835008,89,-56,-1,-1,0
14866,1507328,89,-56,-1,-1,0
14900,0,89,-56,-1,-1,0
14933,-262144,89,-56,-1,-1,0
14966,-589824,89,-56,-1,-1,0
15000,-983040,89,-56,-1,-1,0
15033,-983040,89,-56,-1,-1,0
15066,-983040,89,-56,-1,-1,0
15100,-1048576,89,-56,-1,-1,0
15133,-1507328,89,-56,-1,-1,0
15166,-1638400,89,-56,-1,-1,0
15200,-1114112,89,-56,-1,-1,0
15233,-1441792,87,-56,-1,-1,0
15266,-1572864,87,-56,-1,-1,0
15299,4587520,87,-56,-1,-1,0
15333,-1835008,87,-56,-1,-1,0
15366,-1310720,87,-56,-1,-1,0
15400,-720896,87,-56,-1,-1,0
15433,720896,87,-56,-1,-1,0
15466,1966080,87,-56,-1,-1,0
15500,851968,87,-56,-1,-1,0
15533,0,87,-56,-1,-1,0
15566,0,87,-56,-1,-1,0
15600,-458752,87,-56,-1,-1,0
15633,-524288,87,-56,-1,-1,0
15666,-524288,87,-56,-1,-1,0
15700,-589824,87,-56,-1,-1,0
15733,-524288,87,-56,-1,-1,0
15766,0,87,-56,-1,-1,0
15799,-786432,85,-56,-1,-1,0
15833,-655360,85,-56,-1,-1,0
15866,3997696,85,-56,-1,-1,0
15900,-1507328,85,-56,-1,-1,0
15933,-1048576,85,-56,-1,-1,0
15966,-458752,85,-56,-1,-1,0
16000,1114112,85,-56,-1,-1,0
16033,1769472,85,-56,-1,-1,0
16066,262144,85,-56,-1,-1,0
16100,-131072,85,-56,-1,-1,0
16133,-131072,85,-56,-1,-1,0
16166,-196608,85,-56,-1,-1,0
16200,-262144,85,-56,-1,-1,0
16233,-458752,85,-56,-1,-1,0
16266,-393216,85,-56,-1,-1,0
16300,-524288,85,-56,-1,-1,0
16333,-655360,85,-56,-1,-1,0
16366,-851968,85,-56,-1,-1,0
16400,8454144,85,-56,-1,-1,0
16433,-2097152,85,-56,-1,-1,0
16466,-851968,85,-56,-1,-1,0
16500,-655360,85,-56,-1,-1,0
16533,196608,85,-56,-1,-1,0
16566,1835008,85,-56,-1,-1,0
16600,917504,85,-56,-1,-1,0
16633,-524288,85,-56,-1,-1,0
16666,-655360,85,-56,-1,-1,0
16700,-851968,85,-56,-1,-1,0
16733,-1114112,85,-56,-1,-1,0
16766,-1310720,85,-56,-1,-1,0
16800,-1376256,85,-56,-1,-1,0
16833,-1507328,85,-56,-1,-1,0
16866,-1114112,85,-56,-1,-1,0
16900,-1245184,85,-56,-1,-1,0
16933,1572864,85,-56,-1,-1,0
16966,-1966080,85,-56,-1,-1,0
17000,-1441792,85,-56,-1,-1,0
17033,-1114112,85,-56,-1,-1,0
17066,-262144,85,-56,-1,-1,0
17100,1703936,85,-56,-1,-1,0
17133,1703936,85,-56,-1,-1,0
17166,0,85,-56,-1,-1,0
17200,-393216,85,-56,-1,-1,0
17233,-393216,85,-56,-1,-1,0
17266,-589824,85,-56,-1,-1,0
17300,-720896,85,-56,-1,-1,0
17333,-786432,85,-56,-1,-1,0
17366,-917504,85,-56,-1,-1,0
17400,-458752,85,-56,-1,-1,0
17433,-655360,85,-56,-1,-1,0
17466,1572864,85,-56,-1,-1,0
17500,-1638400,85,-56,-1,-1,0
17533,-983040,85,-56,-1,-1,0
17566,-589824,85,-56,-1,-1,0
17600,262144,85,-56,-1,-1,0
17633,2162688,85,-56,-1,-1,0
17666,2162688,85,-56,-1,-1,0
17700,327680,85,-56,-1,-1,0
17733,65536,85,-56,-1,-1,0
17766,393216,85,-56,-1,-1,0
17800,0,85,-56,-1,-1,0
17833,-131072,85,-56,-1,-1,0
17866,-327680,85,-56,-1,-1,0
17900,-458752,85,-56,-1,-1,0
17933,-262144,85,-56,-1,-1,0
17966,-589824,85,-56,-1,-1,0
18000,-983040,85,-56,-1,-1,0
18033,10158080,85,-56,-1,-1,0
18066,-1638400,85,-56,-1,-1,0
18100,-1245184,85,-56,-1,-1,0
18133,-720896,85,-56,-1,-1,0
18166,393216,85,-56,-1,-1,0
18200,1703936,85,-56,-1,-1,0
18233,0,85,-56,-1,-1,0
18266,-786432,85,-56,-1,-1,0
18300,-393216,85,-56,-1,-1,0
18333,-393216,85,-56,-1,-1,0
18366,-655360,85,-56,-1,-1,0
18400,-720896,85,-56,-1,-1,0
18433,-720896,85,-56,-1,-1,0
18466,-851968,85,-56,-1,-1,0
18500,-983040,85,-56,-1,-1,0
18533,-524288,85,-56,-1,-1,0
18566,-786432,85,-56,-1,-1,0
18600,-262144,85,-56,-1,-1,0
18633,4849664,85,-56,-1,-1,0
18666,-1179648,85,-56,-1,-1,0
18700,-786432,85,-56,-1,-1,0
18733,-589824,85,-56,-1,-1,0
18766,1048576,85,-56,-1,-1,0
18800,1966080,85,-56,-1,-1,0
18833,262144,85,-56,-1,-1,0
18866,-524288,85,-56,-1,-1,0
18900,-393216,85,-56,-1,-1,0
18933,-524288,85,-56,-1,-1,0
18966,-720896,85,-56,-1,-1,0
19000,-720896,85,-56,-1,-1,0
19033,-655360,85,-56,-1,-1,0
19066,-786432,85,-56,-1,-1,0
19100,-786432,85,-56,-1,-1,0
19133,-917504,85,-56,-1,-1,0
19166,-458752,85,-56,-1,-1,0
19200,-786432,85,-56,-1,-1,0
19233,1572864,85,-56,-1,-1,0
19266,-983040,85,-56,-1,-1,0
19300,-983040,83,-56,-1,-1,0
19333,-655360,83,-56,-1,-1,0
19366,0,83,-56,-1,-1,0
19400,1769472,83,-56,-1,-1,0
19433,2097152,83,-56,-1,-1,0
19466,131072,83,-56,-1,-1,0
19500,-458752,83,-56,-1,-1,0
19533,-131072,83,-56,-1,-1,0
19566,-327680,83,-56,-1,-1,0
19600,-589824,83,-56,-1,-1,0
19633,-589824,83,-56,-1,-1,0
19666,-589824,83,-56,-1,-1,0
19700,-524288,83,-56,-1,-1,0
19733,-458752,83,-56,-1,-1,0
19766,-655360,83,-56,-1,-1,0
19800,-393216,83,-56,-1,-1,0
19833,-327680,83,-56,-1,-1,0
19866,-393216,83,-56,-1,-1,0
19900,6881280,83,-56,-1,-1,0
19933,-2359296,83,-56,-1,-1,0
19966,-917504,83,-56,-1,-1,0
20000,-589824,83,-56,-1,-1,0
20033,196608,83,-56,-1,-1,0
20066,2031616,83,-56,-1,-1,0
20100,1703936,83,-56,-1,-1,0
20133,-131072,83,-56,-1,-1,0
20166,-393216,83,-56,-1,-1,0
20200,-131072,83,-56,-1,-1,0
20233,-393216,83,-56,-1,-1,0
20266,-655360,83,-56,-1,-1,0
20300,-786432,83,-56,-1,-1,0
20333,-786432,83,-56,-1,-1,0
20366,-851968,83,-56,-1,-1,0
20400,-786432,83,-56,-1,-1,0
20433,-917504,83,-56,-1,-1,0
20466,-917504,83,-56,-1,-1,0
20500,-720896,83,-56,-1,-1,0
20533,-851968,83,-56,-1,-1,0
20566,-589824,83,-56,-1,-1,0
20600,-589824,83,-56,-1,-1,0
20633,-720896,83,-56,-1,-1,0
20666,11534336,83,-56,-1,-1,0
20700,-1310720,83,-56,-1,-1,0
20733,-655360,83,-56,-1,-1,0
20766,-327680,83,-56,-1,-1,0
20800,655360,82,-56,-1,-1,0
20833,2228224,82,-56,-1,-1,0
20866,1376256,82,-56,-1,-1,0
20900,-131072,82,-56,-1,-1,0
20933,-131072,82,-56,-1,-1,0
20966,-262144,82,-56,-1,-1,0
21000,-589824,82,-56,-1,-1,0
21033,-786432,82,-56,-1,-1,0
21066,-851968,82,-56,-1,-1,0
21100,-720896,82,-56,-1,-1,0
21133,-851968,82,-56,-1,-1,0
21166,-1048576,82,-56,-1,-1,0
21200,-1048576,82,-56,-1,-1,0
21233,-1048576,82,-56,-1,-1,0
21266,-917504,82,-56,-1,-1,0
21300,-917504,82,-56,-1,-1,0
21333,-524288,82,-56,-1,-1,0
21366,-655360,82,-56,-1,-1,0
21400,-655360,82,-56,-1,-1,0
21433,7602176,82,-56,-1,-1,0
21466,-1245184,82,-56,-1,-1,0
21500,-655360,82,-56,-1,-1,0
21533,-131072,82,-56,-1,-1,0
21566,1179648,82,-56,-1,-1,0
21600,2949120,82,-56,-1,-1,0
21633,1703936,82,-56,-1,-1,0
21666,131072,82,-56,-1,-1,0
21700,131072,82,-56,-1,-1,0
21733,131072,82,-56,-1,-1,0
21766,0,82,-56,-1,-1,0
21800,-65536,82,-56,-1,-1,0
21833,-131072,82,-56,-1,-1,0
21866,-131072,82,-56,-1,-1,0
21900,-65536,82,-56,-1,-1,0
21933,-65536,82,-56,-1,-1,0
21966,0,82,-56,-1,-1,0
22000,0,82,-56,-1,-1,0
22033,-131072,82,-56,-1,-1,0
22066,0,82,-56,-1,-1,0
22100,-262144,82,-56,-1,-1,0
22133,-65536,82,-56,-1,-1,0
22166,6291456,82,-56,-1,-1,0
22200,-917504,82,-56,-1,-1,0
22233,-589824,82,-56,-1,-1,0
22266,-131072,82,-56,-1,-1,0
22300,1245184,82,-56,-1,-1,0
22333,2555904,82,-56,-1,-1,0
22366,1245184,82,-56,-1,-1,0
22400,-196608,82,-56,-1,-1,0
22433,-196608,82,-56,-1,-1,0
22466,-393216,82,-56,-1,-1,0
22500,-720896,82,-56,-1,-1,0
22533,-851968,82,-56,-1,-1,0
22566,-983040,82,-56,-1,-1,0
22600,-983040,82,-56,-1,-1,0
22633,-1048576,82,-56,-1,-1,0
22666,-1179648,82,-56,-1,-1,0
22700,-1114112,82,-56,-1,-1,0
22733,-1179648,82,-56,-1,-1,0
22766,-1310720,82,-56,-1,-1,0
22800,-917504,82,-56,-1,-1,0
22833,-1048576,82,-56,-1,-1,0
22866,1048576,82,-56,-1,-1,0
22900,-131072,82,-56,-1,-1,0
22933,-1310720,82,-56,-1,-1,0
22966,-1048576,81,-56,-1,-1,0
23000,-393216,81,-56,-1,-1,0
23033,1310720,81,-56,-1,-1,0
23066,2555904,81,-56,-1,-1,0
23100,917504,81,-56,-1,-1,0
23133,-262144,81,-56,-1,-1,0
23166,-262144,81,-56,-1,-1,0
23200,-589824,81,-56,-1,-1,0
23233,-851968,81,-56,-1,-1,0
23266,-983040,81,-56,-1,-1,0
23300,-983040,81,-56,-1,-1,0
23333,-983040,81,-56,-1,-1,0
23366,-786432,81,-56,-1,-1,0
23400,-655360,81,-56,-1,-1,0
23433,-720896,81,-56,-1,-1,0
23466,-851968,81,-56,-1,-1,0
23500,-524288,81,-56,-1,-1,0
23533,-655360,81,-56,-1,-1,0
23566,3407872,81,-56,-1,-1,0
23600,-2031616,81,-56,-1,-1,0
23633,-917504,75,-56,-1,-1,0
23666,-589824,75,-56,-1,-1,0
23700,0,75,-56,-1,-1,0
23733,1835008,75,-56,-1,-1,0
23766,2490368,75,-56,-1,-1,0
23800,524288,75,-56,-1,-1,0
23833,-327680,75,-56,-1,-1,0
23866,-262144,75,-56,-1,-1,0
23900,-393216,75,-56,-1,-1,0
23933,-524288,75,-56,-1,-1,0
23966,-655360,75,-56,-1,-1,0
24000,-720896,75,-56,-1,-1,0
24033,-720896,75,-56,-1,-1,0
24066,-786432,75,-56,-1,-1,0
24100,-786432,75,-56,-1,-1,0
24133,-720896,75,-56,-1,-1,0
24166,-589824,75,-56,-1,-1,0
24200,-851968,75,-56,-1,-1,0
24233,5767168,75,-56,-1,-1,0
24266,-2490368,75,-56,-1,-1,0
24300,-1179648,74,-56,-1,-1,0
24333,-983040,74,-56,-1,-1,0
24366,-327680,74,-56,-1,-1,0
24400,1507328,74,-56,-1,-1,0
24433,1900544,74,-56,-1,-1,0
24466,131072,74,-56,-1,-1,0
24500,-589824,74,-56,-1,-1,0
24533,-524288,74,-56,-1,-1,0
24566,-720896,74,-56,-1,-1,0
24600,-917504,74,-56,-1,-1,0
24633,-851968,74,-56,-1,-1,0
24666,-917504,74,-56,-1,-1,0
24700,-1048576,74,-56,-1,-1,0
24733,-1114112,74,-56,-1,-1,0
24766,-1048576,74,-56,-1,-1,0
24800,-917504,74,-56,-1,-1,0
24833,-655360,74,-56,-1,-1,0
24866,-786432,74,-56,-1,-1,0
24900,6225920,74,-56,-1,-1,0
24933,-2883584,73,-56,-1,-1,0
24966,-1114112,73,-56,-1,-1,0
25000,-851968,73,-56,-1,-1,0
25033,0,73,-56,-1,-1,0
25066,2228224,73,-56,-1,-1,0
25100,2686976,73,-56,-1,-1,0
25133,589824,73,-56,-1,-1,0
25166,0,73,-56,-1,-1,0
25200,0,73,-56,-1,-1,0
25233,-327680,73,-56,-1,-1,0
25266,-589824,73,-56,-1,-1,0
25300,-655360,73,-56,-1,-1,0
25333,-589824,73,-56,-1,-1,0
25366,-655360,73,-56,-1,-1,0
25400,-655360,73,-56,-1,-1,0
25433,-327680,73,-56,-1,-1,0
25466,-393216,73,-56,-1,-1,0
25500,-589824,73,-56,-1,-1,0
25533,9895936,73,-56,-1,-1,0
25566,-2097152,73,-56,-1,-1,0
25600,-786432,73,-56,-1,-1,0
25633,-524288,73,-56,-1,-1,0
25666,327680,73,-56,-1,-1,0
25700,2293760,73,-56,-1,-1,0
25733,2031616,73,-56,-1,-1,0
25766,0,73,-56,-1,-1,0
25800,-393216,73,-56,-1,-1,0
25833,-393216,73,-56,-1,-1,0
25866,-655360,73,-56,-1,-1,0
25900,-851968,73,-56,-1,-1,0
25933,-851968,73,-56,-1,-1,0
25966,-786432,73,-56,-1,-1,0
26000,-917504,73,-56,-1,-1,0
26033,-1048576,73,-56,-1,-1,0
26066,-589824,73,-56,-1,-1,0
26099,-917504,73,-56,-1,-1,0
26133,-1114112,73,-56,-1,-1,0
26166,11141120,73,-56,-1,-1,0
26200,-1769472,73,-56,-1,-1,0
26233,-1245184,73,-56,-1,-1,0
26266,-851968,73,-56,-1,-1,0
26300,196608,73,-56,-1,-1,0
26333,2359296,73,-56,-1,-1,0
26366,1703936,73,-56,-1,-1,0
26400,-131072,73,-56,-1,-1,0
26433,-262144,73,-56,-1,-1,0
26466,-262144,73,-56,-1,-1,0
26500,-589824,73,-56,-1,-1,0
26533,-786432,73,-56,-1,-1,0
26566,-589824,73,-56,-1,-1,0
26599,-524288,73,-56,-1,-1,0
26633,-655360,73,-56,-1,-1,0
26666,-589824,73,-56,-1,-1,0
26700,-393216,73,-56,-1,-1,0
26733,-393216,73,-56,-1,-1,0
26766,-524288,73,-56,-1,-1,0
26800,6619136,73,-56,-1,-1,0
26833,-2818048,73,-56,-1,-1,0
26866,-983040,73,-56,-1,-1,0
26900,-524288,73,-56,-1,-1,0
26933,196608,73,-56,-1,-1,0
26966,2228224,73,-56,-1,-1,0
27000,2424832,73,-56,-1,-1,0
27033,524288,73,-56,-1,-1,0
27066,-196608,73,-56,-1,-1,0
27099,-65536,73,-56,-1,-1,0
27133,-327680,73,-56,-1,-1,0
27166,-589824,73,-56,-1,-1,0
27200,-655360,73,-56,-1,-1,0
27233,-720896,73,-56,-1,-1,0
27266,-851968,73,-56,-1,-1,0
27300,-917504,73,-56,-1,-1,0
27333,-655360,73,-56,-1,-1,0
27366,-524288,73,-56,-1,-1,0
27400,-786432,73,-56,-1,-1,0
27433,3801088,73,-56,-1,-1,0
27466,-1703936,73,-56,-1,-1,0
27500,-1179648,73,-56,-1,-1,0
27533,-1048576,73,-56,-1,-1,0
27566,-393216,73,-56,-1,-1,0
27599,1310720,73,-56,-1,-1,0
27633,1966080,73,-56,-1,-1,0
27666,196608,73,-56,-1,-1,0
27700,-589824,73,-56,-1,-1,0
27733,-327680,73,-56,-1,-1,0
27766,-458752,73,-56,-1,-1,0
27800,-720896,73,-56,-1,-1,0
27833,-851968,73,-56,-1,-1,0
27866,-786432,73,-56,-1,-1,0
27900,-786432,73,-56,-1,-1,0
27933,-720896,73,-56,-1,-1,0
27966,-589824,73,-56,-1,-1,0
28000,-589824,73,-56,-1,-1,0
28033,-589824,73,-56,-1,-1,0
28066,-458752,73,-56,-1,-1,0
28099,-262144,73,-56,-1,-1,0
28133,-524288,73,-56,-1,-1,0
28166,3014656,73,-56,-1,-1,0
28200,-458752,73,-56,-1,-1,0
28233,-786432,73,-56,-1,-1,0
28266,-655360,73,-56,-1,-1,0
28300,-458752,73,-56,-1,-1,0
28333,1245184,71,-56,-1,-1,0
28366,2228224,71,-56,-1,-1,0
28400,851968,71,-56,-1,-1,0
28433,-131072,71,-56,-1,-1,0
28466,-65536,71,-56,-1,-1,0
28500,-327680,71,-56,-1,-1,0
28533,-589824,71,-56,-1,-1,0
28566,-655360,71,-56,-1,-1,0
28599,-720896,71,-56,-1,-1,0
28633,-851968,71,-56,-1,-1,0
28666,-1048576,71,-56,-1,-1,0
28700,-1048576,71,-56,-1,-1,0
28733,-1245184,71,-56,-1,-1,0
28766,-1179648,71,-56,-1,-1,0
28800,-1179648,71,-56,-1,-1,0
28833,-1114112,71,-56,-1,-1,0
28866,-458752,71,-56,-1,-1,0
28900,-655360,71,-56,-1,-1,0
28933,1900544,71,-56,-1,-1,0
28966,-589824,71,-56,-1,-1,0
29000,-1114112,71,-56,-1,-1,0
29033,-983040,71,-56,-1,-1,0
29066,-327680,71,-56,-1,-1,0
29099,1245184,71,-56,-1,-1,0
29133,2621440,71,-56,-1,-1,0
29166,1179648,71,-56,-1,-1,0
29200,-131072,71,-56,-1,-1,0
29233,-65536,71,-56,-1,-1,0
29266,-65536,71,-56,-1,-1,0
29300,-262144,71,-56,-1,-1,0
29333,-458752,71,-56,-1,-1,0
29366,-458752,71,-56,-1,-1,0
29400,-524288,71,-56,-1,-1,0
29433,-589824,71,-56,-1,-1,0
29466,-655360,71,-56,-1,-1,0
29500,-655360,71,-56,-1,-1,0
29533,-851968,71,-56,-1,-1,0
29566,-393216,71,-56,-1,-1,0
29599,-655360,71,-56,-1,-1,0
29633,-589824,71,-56,-1,-1,0
29666,6750208,71,-56,-1,-1,0
29700,-1245184,71,-56,-1,-1,0
29733,-917504,72,-56,-1,-1,0
29766,-458752,72,-56,-1,-1,0
29800,851968,72,-56,-1,-1,0
29833,2686976,72,-56,-1,-1,0
29866,1703936,72,-56,-1,-1,0
29900,0,72,-56,-1,-1,0
29933,0,72,-56,-1,-1,0
29966,-131072,72,-56,-1,-1,0
30000,-458752,72,-56,-1,-1,0
30033,-589824,72,-56,-1,-1,0
30066,-655360,72,-56,-1,-1,0
30099,-655360,72,-56,-1,-1,0
30133,-655360,72,-56,-1,-1,0
30166,-720896,72,-56,-1,-1,0
30200,-720896,72,-56,-1,-1,0
30233,-786432,72,-56,-1,-1,0
30266,-524288,72,-56,-1,-1,0
30300,-786432,72,-56,-1,-1,0
30333,2818048,72,-56,-1,-1,0
30366,-1179648,72,-56,-1,-1,0
30400,-1179648,72,-56,-1,-1,0
30433,-983040,72,-56,-1,-1,0
30466,-393216,73,-56,-1,-1,0
30500,1114112,73,-56,-1,-1,0
30533,2162688,73,-56,-1,-1,0
30566,786432,73,-56,-1,-1,0
30599,-262144,73,-56,-1,-1,0
30633,-196608,73,-56,-1,-1,0
30666,-393216,73,-56,-1,-1,0
30700,-589824,73,-56,-1,-1,0
30733,-589824,73,-56,-1,-1,0
30766,-589824,73,-56,-1,-1,0
30800,-589824,73,-56,-1,-1,0
30833,-589824,73,-56,-1,-1,0
30866,-589824,73,-56,-1,-1,0
30900,-851968,73,-56,-1,-1,0
30933,-917504,73,-56,-1,-1,0
30966,-524288,73,-56,-1,-1,0
31000,-458752,73,-56,-1,-1,0
31033,-655360,73,-56,-1,-1,0
31066,11468800,73,-56,-1,-1,0
31099,-1638400,73,-56,-1,-1,0
31133,-786432,73,-56,-1,-1,0
31166,-524288,73,-56,-1,-1,0
31200,393216,73,-56,-1,-1,0
31233,2424832,73,-56,-1,-1,0
31266,2162688,73,-56,-1,-1,0
31300,458752,73,-56,-1,-1,0
31333,0,73,-56,-1,-1,0
31366,0,73,-56,-1,-1,0
31400,-262144,73,-56,-1,-1,0
31433,-589824,73,-56,-1,-1,0
31466,-720896,73,-56,-1,-1,0
31500,-720896,73,-56,-1,-1,0
31533,-786432,73,-56,-1,-1,0
31566,-983040,73,-56,-1,-1,0
31599,-917504,73,-56,-1,-1,0
31633,-1114112,73,-56,-1,-1,0
31666,-655360,73,-56,-1,-1,0
31700,-917504,73,-56,-1,-1,0
31733,-1179648,73,-56,-1,-1,0
31766,10878976,73,-56,-1,-1,0
31800,-2031616,73,-56,-1,-1,0
31833,-1376256,73,-56,-1,-1,0
31866,-983040,73,-56,-1,-1,0
31900,0,73,-56,-1,-1,0
31933,2097152,73,-56,-1,-1,0
31966,1769472,73,-56,-1,-1,0
32000,0,73,-56,-1,-1,0
32033,-458752,73,-56,-1,-1,0
32066,-327680,73,-56,-1,-1,0
32100,-524288,73,-56,-1,-1,0
32133,-720896,73,-56,-1,-1,0
32166,-851968,73,-56,-1,-1,0
32200,-786432,73,-56,-1,-1,0
32233,-851968,73,-56,-1,-1,0
32266,-851968,73,-56,-1,-1,0
32299,-786432,73,-56,-1,-1,0
32333,-851968,73,-56,-1,-1,0
32366,-589824,73,-56,-1,-1,0
32400,-458752,73,-56,-1,-1,0
32433,-655360,73,-56,-1,-1,0
32466,5439488,73,-56,-1,-1,0
32500,-2293760,73,-56,-1,-1,0
32533,-983040,73,-56,-1,-1,0
32566,-655360,73,-56,-1,-1,0
32600,0,72,-56,-1,-1,0
32633,1572864,72,-56,-1,-1,0
32666,2490368,72,-56,-1,-1,0
32700,983040,72,-56,-1,-1,0
32733,-131072,72,-56,-1,-1,0
32766,0,72,-56,-1,-1,0
32800,-196608,72,-56,-1,-1,0
32833,-458752,72,-56,-1,-1,0
32866,-589824,72,-56,-1,-1,0
32900,-720896,72,-56,-1,-1,0
32933,-720896,72,-56,-1,-1,0
32966,-786432,72,-56,-1,-1,0
33000,-851968,72,-56,-1,-1,0
33033,-917504,72,-56,-1,-1,0
33066,-983040,72,-56,-1,-1,0
33100,-786432,72,-56,-1,-1,0
33133,-851968,72,-56,-1,-1,0
33166,-983040,72,-56,-1,-1,0
33200,6422528,72,-56,-1,-1,0
33233,-2686976,72,-56,-1,-1,0
33266,-1310720,72,-56,-1,-1,0
33300,-1048576,72,-56,-1,-1,0
33333,-393216,71,-56,-1,-1,0
33366,1572864,71,-56,-1,-1,0
33400,2293760,71,-56,-1,-1,0
33433,851968,71,-56,-1,-1,0
33466,-131072,71,-56,-1,-1,0
33500,0,71,-56,-1,-1,0
33533,-131072,71,-56,-1,-1,0
33566,-262144,71,-56,-1,-1,0
33600,-393216,71,-56,-1,-1,0
33633,-458752,71,-56,-1,-1,0
33666,-327680,71,-56,-1,-1,0
33700,-262144,71,-56,-1,-1,0
33733,-262144,71,-56,-1,-1,0
33766,-393216,71,-56,-1,-1,0
33800,-458752,71,-56,-1,-1,0
33833,-327680,71,-56,-1,-1,0
33866,-262144,71,-56,-1,-1,0
33900,-524288,71,-56,-1,-1,0
33933,7340032,71,-56,-1,-1,0
33966,-2555904,71,-56,-1,-1,0
34000,-655360,71,-56,-1,-1,0
34033,-393216,70,-56,-1,-1,0
34066,196608,70,-56,-1,-1,0
34100,2031616,70,-56,-1,-1,0
34133,2686976,70,-56,-1,-1,0
34166,1048576,70,-56,-1,-1,0
34200,0,70,-56,-1,-1,0
34233,131072,70,-56,-1,-1,0
34266,-65536,70,-56,-1,-1,0
34300,-393216,70,-56,-1,-1,0
34333,-524288,70,-56,-1,-1,0
34366,-524288,70,-56,-1,-1,0
34400,-720896,70,-56,-1,-1,0
34433,-786432,70,-56,-1,-1,0
34466,-786432,70,-56,-1,-1,0
34500,-851968,70,-56,-1,-1,0
34533,-524288,70,-56,-1,-1,0
34566,-720896,70,-56,-1,-1,0
34600,-786432,70,-56,-1,-1,0
34633,7536640,70,-56,-1,-1,0
34666,-2424832,70,-56,-1,-1,0
34700,-1114112,70,-56,-1,-1,0
34733,-1114112,70,-56,-1,-1,0
34766,-458752,70,-56,-1,-1,0
34800,1310720,70,-56,-1,-1,0
34833,2162688,70,-56,-1,-1,0
34866,524288,70,-56,-1,-1,0
34900,-327680,70,-56,-1,-1,0
34933,-196608,70,-56,-1,-1,0
34966,-196608,70,-56,-1,-1,0
35000,-524288,70,-56,-1,-1,0
35033,-655360,70,-56,-1,-1,0
35066,-720896,70,-56,-1,-1,0
35100,-720896,70,-56,-1,-1,0
35133,-720896,70,-56,-1,-1,0
35166,-720896,70,-56,-1,-1,0
35200,-786432,70,-56,-1,-1,0
35233,-851968,70,-56,-1,-1,0
35266,-524288,70,-56,-1,-1,0
35300,-589824,70,-56,-1,-1,0
35333,-720896,70,-56,-1,-1,0
35366,8978432,70,-56,-1,-1,0
35400,-2293760,70,-56,-1,-1,0
35433,-1179648,70,-56,-1,-1,0
35466,-917504,70,-56,-1,-1,0
35500,-327680,70,-56,-1,-1,0
35533,1441792,69,-56,-1,-1,0
35566,2031616,69,-56,-1,-1,0
35600,655360,69,-56,-1,-1,0
35633,-196608,69,-56,-1,-1,0
35666,-131072,69,-56,-1,-1,0
35700,-327680,69,-56,-1,-1,0
35733,-524288,69,-56,-1,-1,0
35766,-655360,69,-56,-1,-1,0
35800,-720896,69,-56,-1,-1,0
35833,-655360,69,-56,-1,-1,0
35866,-786432,69,-56,-1,-1,0
35900,-851968,69,-56,-1,-1,0
35933,-983040,69,-56,-1,-1,0
35966,-917504,69,-56,-1,-1,0
36000,-1114112,69,-56,-1,-1,0
36033,-786432,69,-56,-1,-1,0
36066,-1048576,69,-56,-1,-1,0
36100,-1179648,69,-56,-1,-1,0
36133,9109504,69,-56,-1,-1,0
36166,-1572864,69,-56,-1,-1,0
36200,-851968,69,-56,-1,-1,0
36233,-524288,69,-56,-1,-1,0
36266,458752,69,-56,-1,-1,0
36300,2621440,69,-56,-1,-1,0
36333,2621440,69,-56,-1,-1,0
36366,720896,69,-56,-1,-1,0
36400,131072,69,-56,-1,-1,0
36433,0,69,-56,-1,-1,0
36466,-393216,69,-56,-1,-1,0
36500,-589824,69,-56,-1,-1,0
36533,-720896,69,-56,-1,-1,0
36566,-589824,69,-56,-1,-1,0
36600,-655360,69,-56,-1,-1,0
36633,-655360,69,-56,-1,-1,0
36666,-655360,69,-56,-1,-1,0
36700,-589824,69,-56,-1,-1,0
36733,-655360,69,-56,-1,-1,0
36766,-262144,69,-56,-1,-1,0
36800,-393216,69,-56,-1,-1,0
36833,2031616,69,-56,-1,-1,0
36866,-262144,69,-56,-1,-1,0
36900,-720896,69,-56,-1,-1,0
36933,-458752,69,-56,-1,-1,0
36966,-131072,69,-56,-1,-1,0
37000,1048576,69,-56,-1,-1,0
37033,2490368,69,-56,-1,-1,0
37066,1245184,69,-56,-1,-1,0
37100,-131072,69,-56,-1,-1,0
37133,-262144,69,-56,-1,-1,0
37166,-262144,69,-56,-1,-1,0
37200,-589824,69,-56,-1,-1,0
37233,-720896,69,-56,-1,-1,0
37266,-851968,69,-56,-1,-1,0
37300,-851968,69,-56,-1,-1,0
37333,-786432,69,-56,-1,-1,0
37366,-851968,69,-56,-1,-1,0
37400,-851968,69,-56,-1,-1,0
37433,-524288,69,-56,-1,-1,0
37466,-655360,69,-56,-1,-1,0
37500,-917504,69,-56,-1,-1,0
37533,7077888,69,-56,-1,-1,0
37566,-2490368,69,-56,-1,-1,0
37600,-1245184,69,-56,-1,-1,0
37633,-1048576,69,-56,-1,-1,0
37666,-524288,69,-56,-1,-1,0
37700,1114112,69,-56,-1,-1,0
37733,2097152,69,-56,-1,-1,0
37766,655360,69,-56,-1,-1,0
37800,-327680,69,-56,-1,-1,0
37833,-327680,69,-56,-1,-1,0
37866,-262144,69,-56,-1,-1,0
37900,-720896,69,-56,-1,-1,0
37933,-851968,69,-56,-1,-1,0
37966,-983040,69,-56,-1,-1,0
38000,-917504,69,-56,-1,-1,0
38033,-983040,69,-56,-1,-1,0
38066,-917504,69,-56,-1,-1,0
38100,-917504,69,-56,-1,-1,0
38133,-1114112,69,-56,-1,-1,0
38166,-720896,69,-56,-1,-1,0
38200,-655360,69,-56,-1,-1,0
38233,-851968,69,-56,-1,-1,0
38266,8781824,69,-56,-1,-1,0
38300,-2818048,69,-56,-1,-1,0
38333,-1179648,69,-56,-1,-1,0
38366,-786432,69,-56,-1,-1,0
38400,-65536,69,-56,-1,-1,0
38433,1835008,69,-56,-1,-1,0
38466,2752512,69,-56,-1,-1,0
38500,983040,69,-56,-1,-1,0
38533,-131072,69,-56,-1,-1,0
38566,-65536,69,-56,-1,-1,0
38600,-65536,69,-56,-1,-1,0
38633,-393216,69,-56,-1,-1,0
38666,-524288,69,-56,-1,-1,0
38700,-589824,69,-56,-1,-1,0
38733,-524288,69,-56,-1,-1,0
38766,-589824,69,-56,-1,-1,0
38800,-589824,69,-56,-1,-1,0
38833,-524288,69,-56,-1,-1,0
38866,-393216,69,-56,-1,-1,0
38900,-524288,69,-56,-1,-1,0
38933,2490368,69,-56,-1,-1,0
38966,-917504,69,-56,-1,-1,0
39000,-1114112,69,-56,-1,-1,0
39033,-851968,69,-56,-1,-1,0
39066,-327680,69,-56,-1,-1,0
39100,983040,69,-56,-1,-1,0
39133,2555904,69,-56,-1,-1,0
39166,1376256,69,-56,-1,-1,0
39200,-65536,69,-56,-1,-1,0
39233,-131072,69,-56,-1,-1,0
39266,-131072,69,-56,-1,-1,0
39300,-262144,69,-56,-1,-1,0
39333,-327680,69,-56,-1,-1,0
39366,-393216,69,-56,-1,-1,0
39400,-524288,69,-56,-1,-1,0
39433,-589824,69,-56,-1,-1,0
39466,-655360,69,-56,-1,-1,0
39500,-917504,69,-56,-1,-1,0
39533,-720896,69,-56,-1,-1,0
39566,-720896,69,-56,-1,-1,0
39600,-917504,69,-56,-1,-1,0
39633,8126464,69,-56,-1,-1,0
39666,-2293760,69,-56,-1,-1,0
39700,-983040,69,-56,-1,-1,0
39733,-786432,69,-56,-1,-1,0
39766,-327680,69,-56,-1,-1,0
39800,1376256,69,-56,-1,-1,0
39833,2162688,69,-56,-1,-1,0
39866,851968,69,-56,-1,-1,0
39900,-131072,69,-56,-1,-1,0
39933,-131072,69,-56,-1,-1,0
39966,-196608,69,-56,-1,-1,0
40000,-655360,69,-56,-1,-1,0
40033,-589824,69,-56,-1,-1,0
40066,-524288,69,-56,-1,-1,0
40100,-524288,69,-56,-1,-1,0
40133,-524288,69,-56,-1,-1,0
40166,-589824,69,-56,-1,-1,0
40200,-786432,69,-56,-1,-1,0
40233,-262144,69,-56,-1,-1,0
40266,-458752,69,-56,-1,-1,0
40300,-786432,69,-56,-1,-1,0
40333,9699328,70,-56,-1,-1,0
40366,-1310720,70,-56,-1,-1,0
40400,-983040,70,-56,-1,-1,0
40433,-655360,70,-56,-1,-1,0
40466,196608,70,-56,-1,-1,0
40500,2097152,70,-56,-1,-1,0
40533,2097152,70,-56,-1,-1,0
40566,589824,70,-56,-1,-1,0
40600,131072,70,-56,-1,-1,0
40633,196608,70,-56,-1,-1,0
40666,0,70,-56,-1,-1,0
40700,-196608,70,-56,-1,-1,0
40733,-262144,70,-56,-1,-1,0
40766,-327680,70,-56,-1,-1,0
40800,-393216,70,-56,-1,-1,0
40833,-524288,70,-56,-1,-1,0
40866,0,70,-56,-1,-1,0
40900,-327680,70,-56,-1,-1,0
40933,-262144,70,-56,-1,-1,0
40966,7471104,70,-56,-1,-1,0
41000,-1245184,70,-56,-1,-1,0
41033,-983040,70,-56,-1,-1,0
41066,-786432,70,-56,-1,-1,0
41100,0,70,-56,-1,-1,0
41133,1835008,70,-56,-1,-1,0
41166,1638400,70,-56,-1,-1,0
41200,0,70,-56,-1,-1,0
41233,-589824,70,-56,-1,-1,0
41266,-524288,70,-56,-1,-1,0
41300,-786432,70,-56,-1,-1,0
41333,-917504,70,-56,-1,-1,0
41366,-1114112,70,-56,-1,-1,0
41400,-983040,70,-56,-1,-1,0
41433,-720896,70,-56,-1,-1,0
41466,-917504,70,-56,-1,-1,0
41500,-1048576,70,-56,-1,-1,0
41533,9306112,70,-56,-1,-1,0
41566,-1900544,70,-56,-1,-1,0
41600,-1441792,70,-56,-1,-1,0
41633,-983040,70,-56,-1,-1,0
41666,-196608,70,-56,-1,-1,0
41700,1507328,70,-56,-1,-1,0
41733,1507328,70,-56,-1,-1,0
41766,0,70,-56,-1,-1,0
41800,-327680,70,-56,-1,-1,0
41833,-196608,70,-56,-1,-1,0
41866,-327680,70,-56,-1,-1,0
41900,-524288,70,-56,-1,-1,0
41933,-786432,70,-56,-1,-1,0
41966,-851968,70,-56,-1,-1,0
42000,-1048576,70,-56,-1,-1,0
42033,-1179648,70,-56,-1,-1,0
42066,-720896,70,-56,-1,-1,0
42100,-917504,70,-56,-1,-1,0
42133,-1048576,70,-56,-1,-1,0
42166,9109504,70,-56,-1,-1,0
42200,-2228224,71,-56,-1,-1,0
42233,-1245184,71,-56,-1,-1,0
42266,-1114112,71,-56,-1,-1,0
42300,-458752,71,-56,-1,-1,0
42333,1376256,71,-56,-1,-1,0
42366,2031616,71,-56,-1,-1,0
42400,589824,71,-56,-1,-1,0
42433,-262144,71,-56,-1,-1,0
42466,-262144,71,-56,-1,-1,0
42500,-458752,71,-56,-1,-1,0
42533,-720896,71,-56,-1,-1,0
42566,-720896,71,-56,-1,-1,0
42600,-655360,71,-56,-1,-1,0
42633,-720896,71,-56,-1,-1,0
42666,-720896,71,-56,-1,-1,0
42700,-393216,71,-56,-1,-1,0
42733,-327680,71,-56,-1,-1,0
42766,-327680,71,-56,-1,-1,0
42800,4128768,71,-56,-1,-1,0
42833,-2228224,72,-56,-1,-1,0
42866,-851968,72,-56,-1,-1,0
42900,-524288,72,-56,-1,-1,0
42933,-131072,72,-56,-1,-1,0
42966,1179648,72,-56,-1,-1,0
43000,2490368,72,-56,-1,-1,0
43033,1376256,72,-56,-1,-1,0
43066,65536,72,-56,-1,-1,0
43100,131072,72,-56,-1,-1,0
43133,65536,72,-56,-1,-1,0
43166,-65536,72,-56,-1,-1,0
43200,-393216,72,-56,-1,-1,0
43233,-393216,72,-56,-1,-1,0
43266,-524288,72,-56,-1,-1,0
43300,-655360,72,-56,-1,-1,0
43333,-393216,72,-56,-1,-1,0
43366,-393216,72,-56,-1,-1,0
43400,-589824,72,-56,-1,-1,0
43433,5439488,72,-56,-1,-1,0
43466,-2490368,72,-56,-1,-1,0
43500,-1114112,73,-56,-1,-1,0
43533,-851968,73,-56,-1,-1,0
43566,-327680,73,-56,-1,-1,0
43600,1048576,73,-56,-1,-1,0
43633,2097152,73,-56,-1,-1,0
43666,655360,73,-56,-1,-1,0
43700,-655360,73,-56,-1,-1,0
43733,-589824,73,-56,-1,-1,0
43766,-524288,73,-56,-1,-1,0
43800,-851968,73,-56,-1,-1,0
43833,-1048576,73,-56,-1,-1,0
43866,-1179648,73,-56,-1,-1,0
43900,-1245184,73,-56,-1,-1,0
43933,-1376256,73,-56,-1,-1,0
43966,-1310720,73,-56,-1,-1,0
44000,-1114112,73,-56,-1,-1,0
44033,-917504,73,-56,-1,-1,0
44066,-1114112,73,-56,-1,-1,0
44100,3473408,73,-56,-1,-1,0
44133,-2424832,73,-56,-1,-1,0
44166,-1703936,73,-56,-1,-1,0
44200,-1376256,73,-56,-1,-1,0
44233,-1048576,73,-56,-1,-1,0
44266,327680,74,-56,-1,-1,0
44300,1835008,74,-56,-1,-1,0
44333,983040,74,-56,-1,-1,0
44366,-327680,74,-56,-1,-1,0
44400,-393216,74,-56,-1,-1,0
44433,-458752,74,-56,-1,-1,0
44466,-720896,74,-56,-1,-1,0
44500,-851968,74,-56,-1,-1,0
44533,-983040,74,-56,-1,-1,0
44566,-720896,74,-56,-1,-1,0
44600,-786432,74,-56,-1,-1,0
44633,-720896,74,-56,-1,-1,0
44666,-786432,74,-56,-1,-1,0
44700,-720896,74,-56,-1,-1,0
44733,-720896,74,-56,-1,-1,0
44766,-786432,74,-56,-1,-1,0
44800,-262144,74,-56,-1,-1,0
44833,-458752,74,-56,-1,-1,0
44866,-196608,74,-56,-1,-1,0
44900,5767168,74,-56,-1,-1,0
44933,-917504,74,-56,-1,-1,0
44966,-524288,74,-56,-1,-1,0
45000,-262144,74,-56,-1,-1,0
45033,655360,74,-56,-1,-1,0
45066,2424832,74,-56,-1,-1,0
45100,2359296,74,-56,-1,-1,0
45133,720896,74,-56,-1,-1,0
45166,196608,74,-56,-1,-1,0
45200,262144,74,-56,-1,-1,0
45233,0,74,-56,-1,-1,0
45266,-262144,74,-56,-1,-1,0
45300,-458752,74,-56,-1,-1,0
45333,-458752,74,-56,-1,-1,0
45366,-655360,74,-56,-1,-1,0
45400,-655360,74,-56,-1,-1,0
45433,-720896,74,-56,-1,-1,0
45466,-917504,74,-56,-1,-1,0
45500,-458752,74,-56,-1,-1,0
45533,-655360,74,-56,-1,-1,0
45566,-917504,74,-56,-1,-1,0
45600,9830400,74,-56,-1,-1,0
45633,-2228224,74,-56,-1,-1,0
45666,-1245184,74,-56,-1,-1,0
45700,-917504,74,-56,-1,-1,0
45733,-458752,74,-56,-1,-1,0
45766,1179648,74,-56,-1,-1,0
45800,1900544,74,-56,-1,-1,0
45833,786432,74,-56,-1,-1,0
45866,-327680,74,-56,-1,-1,0
45900,-262144,74,-56,-1,-1,0
45933,-262144,74,-56,-1,-1,0
45966,-524288,74,-56,-1,-1,0
46000,-589824,74,-56,-1,-1,0
46033,-589824,74,-56,-1,-1,0
46066,-589824,74,-56,-1,-1,0
46100,-589824,74,-56,-1,-1,0
46133,-589824,74,-56,-1,-1,0
46166,-720896,74,-56,-1,-1,0
46200,-720896,74,-56,-1,-1,0
46233,-655360,74,-56,-1,-1,0
46266,-524288,74,-56,-1,-1,0
46300,-589824,74,-56,-1,-1,0
46333,3801088,74,-56,-1,-1,0
46366,-1966080,74,-56,-1,-1,0
46400,-1179648,74,-56,-1,-1,0
46433,-917504,74,-56,-1,-1,0
46466,-589824,74,-56,-1,-1,0
46500,655360,74,-56,-1,-1,0
46533,2228224,74,-56,-1,-1,0
46566,1507328,74,-56,-1,-1,0
46600,-65536,74,-56,-1,-1,0
46633,-131072,74,-56,-1,-1,0
46666,-131072,74,-56,-1,-1,0
46700,-458752,74,-56,-1,-1,0
46733,-720896,74,-56,-1,-1,0
46766,-720896,74,-56,-1,-1,0
46800,-655360,74,-56,-1,-1,0
46833,-589824,74,-56,-1,-1,0
46866,-524288,74,-56,-1,-1,0
46900,-524288,74,-56,-1,-1,0
46933,-589824,74,-56,-1,-1,0
46966,-196608,74,-56,-1,-1,0
47000,-393216,74,-56,-1,-1,0
47033,-655360,74,-56,-1,-1,0
47066,10616832,74,-56,-1,-1,0
47100,-1769472,74,-56,-1,-1,0
47133,-851968,74,-56,-1,-1,0
47166,-589824,73,-56,-1,-1,0
47200,0,73,-56,-1,-1,0
47233,1507328,73,-56,-1,-1,0
47266,2031616,73,-56,-1,-1,0
47300,655360,73,-56,-1,-1,0
47333,-196608,73,-56,-1,-1,0
47366,-65536,73,-56,-1,-1,0
47400,-131072,73,-56,-1,-1,0
47433,-393216,73,-56,-1,-1,0
47466,-458752,73,-56,-1,-1,0
47500,-524288,73,-56,-1,-1,0
47533,-458752,73,-56,-1,-1,0
47566,-524288,73,-56,-1,-1,0
47600,-524288,73,-56,-1,-1,0
47633,-655360,73,-56,-1,-1,0
47666,-262144,73,-56,-1,-1,0
47700,-524288,73,-56,-1,-1,0
47733,-786432,73,-56,-1,-1,0
47766,8716288,73,-56,-1,-1,0
47800,-2424832,73,-56,-1,-1,0
47833,-1114112,73,-56,-1,-1,0
47866,-983040,73,-56,-1,-1,0
47900,-589824,73,-56,-1,-1,0
47933,983040,73,-56,-1,-1,0
47966,2359296,73,-56,-1,-1,0
48000,1179648,73,-56,-1,-1,0
48033,-196608,73,-56,-1,-1,0
48066,-65536,73,-56,-1,-1,0
48100,-262144,73,-56,-1,-1,0
48133,-524288,73,-56,-1,-1,0
48166,-655360,73,-56,-1,-1,0
48200,-786432,73,-56,-1,-1,0
48233,-786432,73,-56,-1,-1,0
48266,-786432,73,-56,-1,-1,0
48300,-655360,73,-56,-1,-1,0
48333,-917504,73,-56,-1,-1,0
48366,-589824,73,-56,-1,-1,0
48400,-589824,73,-56,-1,-1,0
48433,-786432,73,-56,-1,-1,0
48466,7864320,73,-56,-1,-1,0
48500,-2883584,73,-56,-1,-1,0
48533,-983040,73,-56,-1,-1,0
48566,-786432,73,-56,-1,-1,0
48600,-196608,73,-56,-1,-1,0
48633,1441792,73,-56,-1,-1,0
48666,2621440,73,-56,-1,-1,0
48700,1179648,73,-56,-1,-1,0
48733,-131072,73,-56,-1,-1,0
48766,-131072,73,-56,-1,-1,0
48800,-131072,73,-56,-1,-1,0
48833,-524288,73,-56,-1,-1,0
48866,-786432,73,-56,-1,-1,0
48900,-917504,73,-56,-1,-1,0
48933,-655360,73,-56,-1,-1,0
48966,-786432,73,-56,-1,-1,0
49000,-851968,73,-56,-1,-1,0
49033,-720896,73,-56,-1,-1,0
49066,-655360,73,-56,-1,-1,0
49100,-786432,73,-56,-1,-1,0
49133,5177344,73,-56,-1,-1,0
49166,-2752512,73,-56,-1,-1,0
49200,-1245184,72,-56,-1,-1,0
49233,-983040,72,-56,-1,-1,0
49266,-393216,72,-56,-1,-1,0
49300,1114112,72,-56,-1,-1,0
49333,2752512,72,-56,-1,-1,0
49366,1376256,72,-56,-1,-1,0
49400,-131072,72,-56,-1,-1,0
49433,-196608,72,-56,-1,-1,0
49466,-65536,72,-56,-1,-1,0
49500,-393216,72,-56,-1,-1,0
49533,-589824,72,-56,-1,-1,0
49566,-720896,72,-56,-1,-1,0
49600,-786432,72,-56,-1,-1,0
49633,-786432,72,-56,-1,-1,0
49666,-786432,72,-56,-1,-1,0
49700,-917504,72,-56,-1,-1,0
49733,-524288,72,-56,-1,-1,0
49766,-720896,72,-56,-1,-1,0
49800,-65536,72,-56,-1,-1,0
49833,3211264,72,-56,-1,-1,0
49866,-1310720,72,-56,-1,-1,0
49900,-1179648,72,-56,-1,-1,0
49933,-851968,72,-56,-1,-1,0
49966,196608,72,-56,-1,-1,0
50000,2228224,72,-56,-1,-1,0
