milliseconds, ECG, ECG HR, PPG, PPG HR, SpO2, PI
1523614705240,-917504,118,-56,-1,-1,0
1523614705240,-851968,118,-56,-1,-1,0
1523614705240,-720896,118,-56,-1,-1,0
1523614705240,-655360,118,-56,-1,-1,0
1523614705240,-720896,118,-56,-1,-1,0
1523614705284,-720896,118,-56,-1,-1,0
1523614705284,-786432,118,-56,-1,-1,0
1523614705284,-589824,118,-56,-1,-1,0
1523614705284,-196608,118,-56,-1,-1,0
1523614705284,0,118,-56,-1,-1,0
1523614705320,-131072,118,-56,-1,-1,0
1523614705320,-393216,118,-56,-1,-1,0
1523614705320,-524288,118,-56,-1,-1,0
1523614705320,-524288,118,-56,-1,-1,0
1523614705320,-589824,118,-56,-1,-1,0
1523614705360,-786432,118,-56,-1,-1,0
1523614705360,-851968,118,-56,-1,-1,0
1523614705360,-720896,118,-56,-1,-1,0
1523614705360,-458752,118,-56,-1,-1,0
1523614705360,-393216,118,-56,-1,-1,0
1523614705400,-524288,118,-56,-1,-1,0
1523614705400,-655360,118,-56,-1,-1,0
1523614705400,-720896,118,-56,-1,-1,0
1523614705400,-655360,118,-56,-1,-1,0
1523614705400,-720896,118,-56,-1,-1,0
1523614705440,-786432,118,-56,-1,-1,0
1523614705440,-720896,118,-56,-1,-1,0
1523614705440,-720896,118,-56,-1,-1,0
1523614705440,-917504,118,-56,-1,-1,0
1523614705440,-1179648,118,-56,-1,-1,0
1523614705480,-524288,118,-56,-1,-1,0
1523614705480,3080192,118,-56,-1,-1,0
1523614705480,7405568,118,-56,-1,-1,0
1523614705480,6422528,118,-56,-1,-1,0
1523614705480,1507328,118,-56,-1,-1,0
1523614705521,-1376256,118,-56,-1,-1,0
1523614705521,-983040,118,-56,-1,-1,0
1523614705521,-655360,118,-56,-1,-1,0
1523614705521,-720896,118,-56,-1,-1,0
1523614705521,-786432,118,-56,-1,-1,0
1523614705560,-655360,118,-56,-1,-1,0
1523614705560,-393216,118,-56,-1,-1,0
1523614705560,-327680,118,-56,-1,-1,0
1523614705560,-393216,118,-56,-1,-1,0
1523614705560,-393216,118,-56,-1,-1,0
1523614705600,-262144,118,-56,-1,-1,0
1523614705600,-131072,118,-56,-1,-1,0
1523614705600,0,118,-56,-1,-1,0
1523614705600,65536,118,-56,-1,-1,0
1523614705600,131072,118,-56,-1,-1,0
1523614705640,327680,118,-56,-1,-1,0
1523614705640,524288,118,-56,-1,-1,0
1523614705640,720896,118,-56,-1,-1,0
1523614705640,917504,118,-56,-1,-1,0
1523614705640,983040,118,-56,-1,-1,0
1523614705680,1048576,118,-56,-1,-1,0
1523614705680,983040,118,-56,-1,-1,0
1523614705680,720896,118,-56,-1,-1,0
1523614705680,524288,118,-56,-1,-1,0
1523614705680,262144,118,-56,-1,-1,0
1523614705720,65536,118,-56,-1,-1,0
1523614705720,-65536,118,-56,-1,-1,0
1523614705720,-196608,118,-56,-1,-1,0
1523614705720,-393216,118,-56,-1,-1,0
1523614705720,-458752,118,-56,-1,-1,0
1523614705760,-589824,118,-56,-1,-1,0
1523614705760,-589824,118,-56,-1,-1,0
1523614705760,-589824,118,-56,-1,-1,0
1523614705760,-524288,118,-56,-1,-1,0
1523614705760,-458752,118,-56,-1,-1,0
1523614705800,-458752,117,-56,-1,-1,0
1523614705800,-589824,117,-56,-1,-1,0
1523614705800,-524288,117,-56,-1,-1,0
1523614705800,-262144,117,-56,-1,-1,0
1523614705800,-196608,117,-56,-1,-1,0
1523614705840,-196608,117,-56,-1,-1,0
1523614705840,-196608,117,-56,-1,-1,0
1523614705840,-131072,117,-56,-1,-1,0
1523614705840,-196608,117,-56,-1,-1,0
1523614705840,-262144,117,-56,-1,-1,0
1523614705880,-327680,117,-56,-1,-1,0
1523614705880,-458752,117,-56,-1,-1,0
1523614705880,-524288,117,-56,-1,-1,0
1523614705880,-589824,117,-56,-1,-1,0
1523614705880,-589824,117,-56,-1,-1,0
1523614705921,-524288,117,-56,-1,-1,0
1523614705921,-458752,117,-56,-1,-1,0
1523614705921,-458752,117,-56,-1,-1,0
1523614705921,-524288,117,-56,-1,-1,0
1523614705921,-458752,117,-56,-1,-1,0
1523614705960,-393216,117,-56,-1,-1,0
1523614705960,-458752,117,-56,-1,-1,0
1523614705960,-524288,117,-56,-1,-1,0
1523614705960,-589824,117,-56,-1,-1,0
1523614705960,-851968,117,-56,-1,-1,0
1523614706000,-917504,117,-56,-1,-1,0
1523614706000,851968,117,-56,-1,-1,0
1523614706000,5701632,117,-56,-1,-1,0
1523614706000,8716288,117,-56,-1,-1,0
1523614706000,5242880,117,-56,-1,-1,0
1523614706040,262144,117,-56,-1,-1,0
1523614706040,-1048576,117,-56,-1,-1,0
1523614706040,-589824,117,-56,-1,-1,0
1523614706040,-458752,117,-56,-1,-1,0
1523614706040,-327680,117,-56,-1,-1,0
1523614706080,-262144,117,-56,-1,-1,0
1523614706080,-393216,117,-56,-1,-1,0
1523614706080,-393216,117,-56,-1,-1,0
1523614706080,-262144,117,-56,-1,-1,0
1523614706080,-131072,117,-56,-1,-1,0
1523614706120,-131072,117,-56,-1,-1,0
1523614706120,-196608,117,-56,-1,-1,0
1523614706120,-131072,117,-56,-1,-1,0
1523614706120,0,117,-56,-1,-1,0
1523614706120,65536,117,-56,-1,-1,0
1523614706160,262144,117,-56,-1,-1,0
1523614706160,589824,117,-56,-1,-1,0
1523614706160,851968,117,-56,-1,-1,0
1523614706160,917504,117,-56,-1,-1,0
1523614706160,851968,117,-56,-1,-1,0
1523614706200,851968,117,-56,-1,-1,0
1523614706200,917504,117,-56,-1,-1,0
1523614706200,917504,117,-56,-1,-1,0
1523614706200,720896,117,-56,-1,-1,0
1523614706200,458752,117,-56,-1,-1,0
1523614706240,196608,117,-56,-1,-1,0
1523614706240,0,117,-56,-1,-1,0
1523614706240,-196608,117,-56,-1,-1,0
1523614706240,-393216,117,-56,-1,-1,0
1523614706240,-458752,117,-56,-1,-1,0
1523614706280,-458752,117,-56,-1,-1,0
1523614706280,-524288,117,-56,-1,-1,0
1523614706280,-524288,117,-56,-1,-1,0
1523614706280,-589824,117,-56,-1,-1,0
1523614706280,-720896,117,-56,-1,-1,0
1523614706320,-720896,116,-56,-1,-1,0
1523614706320,-589824,116,-56,-1,-1,0
1523614706320,-524288,116,-56,-1,-1,0
1523614706320,-393216,116,-56,-1,-1,0
1523614706320,-327680,116,-56,-1,-1,0
1523614706360,-196608,116,-56,-1,-1,0
1523614706360,-131072,116,-56,-1,-1,0
1523614706360,-196608,116,-56,-1,-1,0
1523614706360,-327680,116,-56,-1,-1,0
1523614706360,-327680,116,-56,-1,-1,0
1523614706400,-393216,116,-56,-1,-1,0
1523614706400,-458752,116,-56,-1,-1,0
1523614706400,-458752,116,-56,-1,-1,0
1523614706400,-393216,116,-56,-1,-1,0
1523614706400,-524288,116,-56,-1,-1,0
1523614706440,-589824,116,-56,-1,-1,0
1523614706440,-458752,116,-56,-1,-1,0
1523614706440,-393216,116,-56,-1,-1,0
1523614706440,-524288,116,-56,-1,-1,0
1523614706440,-720896,116,-56,-1,-1,0
1523614706480,-655360,116,-56,-1,-1,0
1523614706480,-589824,116,-56,-1,-1,0
1523614706480,-524288,116,-56,-1,-1,0
1523614706480,-589824,116,-56,-1,-1,0
1523614706480,-786432,116,-56,-1,-1,0
1523614706520,-1048576,116,-56,-1,-1,0
1523614706520,-327680,116,-56,-1,-1,0
1523614706520,3538944,116,-56,-1,-1,0
1523614706520,8519680,116,-56,-1,-1,0
1523614706520,7798784,116,-56,-1,-1,0
1523614706561,2555904,116,-56,-1,-1,0
1523614706561,-983040,116,-56,-1,-1,0
1523614706561,-917504,116,-56,-1,-1,0
1523614706561,-655360,116,-56,-1,-1,0
1523614706561,-589824,116,-56,-1,-1,0
1523614706600,-524288,116,-56,-1,-1,0
1523614706600,-524288,116,-56,-1,-1,0
1523614706600,-524288,116,-56,-1,-1,0
1523614706600,-524288,116,-56,-1,-1,0
1523614706600,-393216,116,-56,-1,-1,0
1523614706640,-393216,116,-56,-1,-1,0
1523614706640,-393216,116,-56,-1,-1,0
1523614706640,-327680,116,-56,-1,-1,0
1523614706640,-196608,116,-56,-1,-1,0
1523614706640,-196608,116,-56,-1,-1,0
1523614706680,-131072,116,-56,-1,-1,0
1523614706680,65536,116,-56,-1,-1,0
1523614706680,327680,116,-56,-1,-1,0
1523614706680,524288,116,-56,-1,-1,0
1523614706680,655360,116,-56,-1,-1,0
1523614706720,720896,116,-56,-1,-1,0
1523614706720,786432,116,-56,-1,-1,0
1523614706720,720896,116,-56,-1,-1,0
1523614706720,589824,116,-56,-1,-1,0
1523614706720,393216,116,-56,-1,-1,0
1523614706760,131072,116,-56,-1,-1,0
1523614706760,0,116,-56,-1,-1,0
1523614706760,-262144,116,-56,-1,-1,0
1523614706760,-458752,116,-56,-1,-1,0
1523614706760,-655360,116,-56,-1,-1,0
1523614706800,-655360,116,-56,-1,-1,0
1523614706800,-655360,116,-56,-1,-1,0
1523614706800,-655360,116,-56,-1,-1,0
1523614706800,-655360,116,-56,-1,-1,0
1523614706800,-655360,116,-56,-1,-1,0
1523614706840,-655360,116,-56,-1,-1,0
1523614706840,-655360,116,-56,-1,-1,0
1523614706840,-524288,116,-56,-1,-1,0
1523614706840,-589824,116,-56,-1,-1,0
1523614706840,-720896,116,-56,-1,-1,0
1523614706881,-655360,116,-56,-1,-1,0
1523614706881,-524288,116,-56,-1,-1,0
1523614706881,-458752,116,-56,-1,-1,0
1523614706881,-458752,116,-56,-1,-1,0
1523614706881,-524288,116,-56,-1,-1,0
1523614706920,-589824,116,-56,-1,-1,0
1523614706920,-655360,116,-56,-1,-1,0
1523614706920,-589824,116,-56,-1,-1,0
1523614706920,-655360,116,-56,-1,-1,0
1523614706920,-720896,116,-56,-1,-1,0
1523614706960,-786432,116,-56,-1,-1,0
1523614706960,-720896,116,-56,-1,-1,0
1523614706960,-655360,116,-56,-1,-1,0
1523614706960,-589824,116,-56,-1,-1,0
1523614706960,-655360,116,-56,-1,-1,0
1523614707000,-720896,116,-56,-1,-1,0
1523614707000,-786432,116,-56,-1,-1,0
1523614707000,-786432,116,-56,-1,-1,0
1523614707000,-786432,116,-56,-1,-1,0
1523614707000,-851968,116,-56,-1,-1,0
1523614707040,-1114112,116,-56,-1,-1,0
1523614707040,-851968,116,-56,-1,-1,0
1523614707040,2162688,116,-56,-1,-1,0
1523614707040,7602176,116,-56,-1,-1,0
1523614707040,9043968,116,-56,-1,-1,0
1523614707080,4325376,116,-56,-1,-1,0
1523614707080,-524288,116,-56,-1,-1,0
1523614707080,-1179648,116,-56,-1,-1,0
1523614707080,-786432,116,-56,-1,-1,0
1523614707080,-786432,116,-56,-1,-1,0
1523614707120,-720896,116,-56,-1,-1,0
1523614707120,-655360,116,-56,-1,-1,0
1523614707120,-589824,116,-56,-1,-1,0
1523614707120,-655360,116,-56,-1,-1,0
1523614707120,-655360,116,-56,-1,-1,0
1523614707160,-524288,116,-56,-1,-1,0
1523614707160,-458752,116,-56,-1,-1,0
1523614707160,-458752,116,-56,-1,-1,0
1523614707160,-589824,116,-56,-1,-1,0
1523614707160,-458752,116,-56,-1,-1,0
1523614707201,-196608,116,-56,-1,-1,0
1523614707201,0,116,-56,-1,-1,0
1523614707201,131072,116,-56,-1,-1,0
1523614707201,262144,116,-56,-1,-1,0
1523614707201,393216,116,-56,-1,-1,0
1523614707240,524288,116,-56,-1,-1,0
1523614707240,655360,116,-56,-1,-1,0
1523614707240,655360,116,-56,-1,-1,0
1523614707240,524288,116,-56,-1,-1,0
1523614707240,458752,116,-56,-1,-1,0
1523614707280,262144,116,-56,-1,-1,0
1523614707280,-196608,116,-56,-1,-1,0
1523614707280,-655360,116,-56,-1,-1,0
1523614707280,-720896,116,-56,-1,-1,0
1523614707280,-720896,116,-56,-1,-1,0
1523614707320,-851968,116,-56,-1,-1,0
1523614707320,-917504,116,-56,-1,-1,0
1523614707320,-917504,116,-56,-1,-1,0
1523614707320,-917504,116,-56,-1,-1,0
1523614707320,-851968,116,-56,-1,-1,0
1523614707360,-786432,116,-56,-1,-1,0
1523614707360,-786432,116,-56,-1,-1,0
1523614707360,-917504,116,-56,-1,-1,0
1523614707360,-983040,116,-56,-1,-1,0
1523614707360,-983040,116,-56,-1,-1,0
1523614707400,-1048576,115,-56,-1,-1,0
1523614707400,-1048576,115,-56,-1,-1,0
1523614707400,-917504,115,-56,-1,-1,0
1523614707400,-983040,115,-56,-1,-1,0
1523614707400,-1179648,115,-56,-1,-1,0
1523614707440,-1048576,115,-56,-1,-1,0
1523614707440,-917504,115,-56,-1,-1,0
1523614707440,-917504,115,-56,-1,-1,0
1523614707440,-1114112,115,-56,-1,-1,0
1523614707440,-1245184,115,-56,-1,-1,0
1523614707480,-1310720,115,-56,-1,-1,0
1523614707480,-1179648,115,-56,-1,-1,0
1523614707480,-1048576,115,-56,-1,-1,0
1523614707480,-1114112,115,-56,-1,-1,0
1523614707480,-1245184,115,-56,-1,-1,0
1523614707520,-1310720,115,-56,-1,-1,0
1523614707520,-1376256,115,-56,-1,-1,0
1523614707520,-1310720,115,-56,-1,-1,0
1523614707520,-1245184,115,-56,-1,-1,0
1523614707520,-1179648,115,-56,-1,-1,0
1523614707560,-1441792,115,-56,-1,-1,0
1523614707560,-1507328,115,-56,-1,-1,0
1523614707560,0,115,-56,-1,-1,0
1523614707560,4521984,115,-56,-1,-1,0
1523614707560,8454144,115,-56,-1,-1,0
1523614707600,6160384,115,-56,-1,-1,0
1523614707600,720896,115,-56,-1,-1,0
1523614707600,-1900544,115,-56,-1,-1,0
1523614707600,-1769472,115,-56,-1,-1,0
1523614707600,-1376256,115,-56,-1,-1,0
1523614707640,-1245184,115,-56,-1,-1,0
1523614707640,-1048576,115,-56,-1,-1,0
1523614707640,-1114112,115,-56,-1,-1,0
1523614707640,-1179648,115,-56,-1,-1,0
1523614707640,-1310720,115,-56,-1,-1,0
1523614707680,-1245184,115,-56,-1,-1,0
1523614707680,-1179648,115,-56,-1,-1,0
1523614707680,-1048576,115,-56,-1,-1,0
1523614707680,-851968,115,-56,-1,-1,0
1523614707680,-786432,115,-56,-1,-1,0
1523614707720,-917504,115,-56,-1,-1,0
1523614707720,-786432,115,-56,-1,-1,0
1523614707720,-655360,115,-56,-1,-1,0
1523614707720,-327680,115,-56,-1,-1,0
1523614707720,0,115,-56,-1,-1,0
1523614707760,196608,115,-56,-1,-1,0
1523614707760,0,115,-56,-1,-1,0
1523614707760,-65536,115,-56,-1,-1,0
1523614707760,0,115,-56,-1,-1,0
1523614707760,0,115,-56,-1,-1,0
1523614707800,-65536,115,-56,-1,-1,0
1523614707800,-262144,115,-56,-1,-1,0
1523614707800,-327680,115,-56,-1,-1,0
1523614707800,-458752,115,-56,-1,-1,0
1523614707800,-851968,115,-56,-1,-1,0
1523614707841,-1245184,115,-56,-1,-1,0
1523614707841,-1245184,115,-56,-1,-1,0
1523614707841,-1245184,115,-56,-1,-1,0
1523614707841,-1114112,115,-56,-1,-1,0
1523614707841,-917504,115,-56,-1,-1,0
1523614707880,-983040,115,-56,-1,-1,0
1523614707880,-1310720,115,-56,-1,-1,0
1523614707880,-1179648,115,-56,-1,-1,0
1523614707880,-917504,115,-56,-1,-1,0
1523614707880,-851968,115,-56,-1,-1,0
1523614707920,-983040,115,-56,-1,-1,0
1523614707920,-983040,115,-56,-1,-1,0
1523614707920,-983040,115,-56,-1,-1,0
1523614707920,-917504,115,-56,-1,-1,0
1523614707920,-917504,115,-56,-1,-1,0
1523614707960,-786432,115,-56,-1,-1,0
1523614707960,-786432,115,-56,-1,-1,0
1523614707960,-851968,115,-56,-1,-1,0
1523614707960,-851968,115,-56,-1,-1,0
1523614707960,-917504,115,-56,-1,-1,0
1523614708000,-1048576,115,-56,-1,-1,0
1523614708000,-1048576,115,-56,-1,-1,0
1523614708000,-983040,115,-56,-1,-1,0
1523614708000,-851968,115,-56,-1,-1,0
1523614708000,-851968,115,-56,-1,-1,0
1523614708040,-720896,115,-56,-1,-1,0
1523614708040,-655360,115,-56,-1,-1,0
1523614708040,-786432,115,-56,-1,-1,0
1523614708040,-1048576,115,-56,-1,-1,0
1523614708040,-1048576,115,-56,-1,-1,0
1523614708080,-983040,115,-56,-1,-1,0
1523614708080,-1310720,115,-56,-1,-1,0
1523614708080,-1114112,115,-56,-1,-1,0
1523614708080,1835008,115,-56,-1,-1,0
1523614708080,7143424,115,-56,-1,-1,0
1523614708120,8650752,115,-56,-1,-1,0
1523614708120,4259840,115,-56,-1,-1,0
1523614708120,-262144,115,-56,-1,-1,0
1523614708120,-983040,115,-56,-1,-1,0
1523614708120,-786432,115,-56,-1,-1,0
1523614708160,-720896,115,-56,-1,-1,0
1523614708160,-589824,115,-56,-1,-1,0
1523614708160,-589824,115,-56,-1,-1,0
1523614708160,-393216,115,-56,-1,-1,0
1523614708160,-196608,115,-56,-1,-1,0
1523614708200,-393216,115,-56,-1,-1,0
1523614708200,-524288,115,-56,-1,-1,0
1523614708200,-262144,115,-56,-1,-1,0
1523614708200,0,115,-56,-1,-1,0
1523614708200,-65536,115,-56,-1,-1,0
1523614708240,-196608,115,-56,-1,-1,0
1523614708240,-131072,115,-56,-1,-1,0
1523614708240,65536,115,-56,-1,-1,0
1523614708240,262144,115,-56,-1,-1,0
1523614708240,589824,115,-56,-1,-1,0
1523614708280,851968,115,-56,-1,-1,0
1523614708280,1048576,115,-56,-1,-1,0
1523614708280,1048576,115,-56,-1,-1,0
1523614708280,917504,115,-56,-1,-1,0
1523614708280,655360,115,-56,-1,-1,0
1523614708320,393216,115,-56,-1,-1,0
1523614708320,327680,115,-56,-1,-1,0
1523614708320,262144,115,-56,-1,-1,0
1523614708320,0,115,-56,-1,-1,0
1523614708320,-131072,115,-56,-1,-1,0
1523614708360,-196608,115,-56,-1,-1,0
1523614708360,-196608,115,-56,-1,-1,0
1523614708360,-393216,115,-56,-1,-1,0
1523614708360,-458752,115,-56,-1,-1,0
1523614708360,-393216,115,-56,-1,-1,0
1523614708400,-393216,115,-56,-1,-1,0
1523614708400,-393216,115,-56,-1,-1,0
1523614708400,-327680,115,-56,-1,-1,0
1523614708400,-131072,115,-56,-1,-1,0
1523614708400,-65536,115,-56,-1,-1,0
1523614708440,-131072,115,-56,-1,-1,0
1523614708440,-262144,115,-56,-1,-1,0
1523614708440,-196608,115,-56,-1,-1,0
1523614708440,-131072,115,-56,-1,-1,0
1523614708440,-196608,115,-56,-1,-1,0
1523614708481,-262144,115,-56,-1,-1,0
1523614708481,-196608,115,-56,-1,-1,0
1523614708481,-327680,115,-56,-1,-1,0
1523614708481,-458752,115,-56,-1,-1,0
1523614708481,-393216,115,-56,-1,-1,0
1523614708520,-327680,115,-56,-1,-1,0
1523614708520,-458752,115,-56,-1,-1,0
1523614708520,-524288,115,-56,-1,-1,0
1523614708520,-327680,115,-56,-1,-1,0
1523614708520,-262144,115,-56,-1,-1,0
1523614708560,-327680,115,-56,-1,-1,0
1523614708560,-458752,115,-56,-1,-1,0
1523614708560,-327680,115,-56,-1,-1,0
1523614708560,-327680,115,-56,-1,-1,0
1523614708560,-393216,115,-56,-1,-1,0
1523614708600,-458752,115,-56,-1,-1,0
1523614708600,-589824,115,-56,-1,-1,0
1523614708600,-851968,115,-56,-1,-1,0
1523614708600,-262144,115,-56,-1,-1,0
1523614708600,3276800,115,-56,-1,-1,0
1523614708640,8323072,115,-56,-1,-1,0
1523614708640,8257536,115,-56,-1,-1,0
1523614708640,3342336,115,-56,-1,-1,0
1523614708640,-589824,115,-56,-1,-1,0
1523614708640,-786432,115,-56,-1,-1,0
1523614708680,-458752,115,-56,-1,-1,0
1523614708680,-458752,115,-56,-1,-1,0
1523614708680,-327680,115,-56,-1,-1,0
1523614708680,-196608,115,-56,-1,-1,0
1523614708680,-196608,115,-56,-1,-1,0
1523614708720,-196608,115,-56,-1,-1,0
1523614708720,-65536,115,-56,-1,-1,0
1523614708720,-65536,115,-56,-1,-1,0
1523614708720,-131072,115,-56,-1,-1,0
1523614708720,-65536,115,-56,-1,-1,0
1523614708760,65536,115,-56,-1,-1,0
1523614708760,262144,115,-56,-1,-1,0
1523614708760,327680,115,-56,-1,-1,0
1523614708760,524288,115,-56,-1,-1,0
1523614708760,786432,115,-56,-1,-1,0
1523614708800,1048576,115,-56,-1,-1,0
1523614708800,1179648,115,-56,-1,-1,0
1523614708800,1179648,115,-56,-1,-1,0
1523614708800,1048576,115,-56,-1,-1,0
1523614708800,1114112,115,-56,-1,-1,0
1523614708840,1048576,115,-56,-1,-1,0
1523614708840,851968,115,-56,-1,-1,0
1523614708840,655360,115,-56,-1,-1,0
1523614708840,524288,115,-56,-1,-1,0
1523614708840,458752,115,-56,-1,-1,0
1523614708880,327680,115,-56,-1,-1,0
1523614708880,65536,115,-56,-1,-1,0
1523614708880,-131072,115,-56,-1,-1,0
1523614708880,-196608,115,-56,-1,-1,0
1523614708880,-131072,115,-56,-1,-1,0
1523614708920,0,115,-56,-1,-1,0
1523614708920,65536,115,-56,-1,-1,0
1523614708920,0,115,-56,-1,-1,0
1523614708920,0,115,-56,-1,-1,0
1523614708920,0,115,-56,-1,-1,0
1523614708960,65536,114,-56,-1,-1,0
1523614708960,0,114,-56,-1,-1,0
1523614708960,0,114,-56,-1,-1,0
1523614708960,0,114,-56,-1,-1,0
1523614708960,131072,114,-56,-1,-1,0
1523614709000,196608,114,-56,-1,-1,0
1523614709000,65536,114,-56,-1,-1,0
1523614709000,65536,114,-56,-1,-1,0
1523614709000,196608,114,-56,-1,-1,0
1523614709000,262144,114,-56,-1,-1,0
1523614709040,131072,114,-56,-1,-1,0
1523614709040,0,114,-56,-1,-1,0
1523614709040,-65536,114,-56,-1,-1,0
1523614709040,-65536,114,-56,-1,-1,0
1523614709040,-65536,114,-56,-1,-1,0
1523614709080,0,114,-56,-1,-1,0
1523614709080,0,114,-56,-1,-1,0
1523614709080,65536,114,-56,-1,-1,0
1523614709080,0,114,-56,-1,-1,0
1523614709080,-196608,114,-56,-1,-1,0
1523614709121,-65536,114,-56,-1,-1,0
1523614709121,196608,114,-56,-1,-1,0
1523614709121,-65536,114,-56,-1,-1,0
1523614709121,-786432,114,-56,-1,-1,0
1523614709121,-131072,114,-56,-1,-1,0
1523614709160,3735552,114,-56,-1,-1,0
1523614709160,9043968,114,-56,-1,-1,0
1523614709160,8912896,114,-56,-1,-1,0
1523614709160,3997696,114,-56,-1,-1,0
1523614709160,-131072,114,-56,-1,-1,0
1523614709200,-524288,114,-56,-1,-1,0
1523614709200,-196608,114,-56,-1,-1,0
1523614709200,0,114,-56,-1,-1,0
1523614709200,0,114,-56,-1,-1,0
1523614709200,-458752,114,-56,-1,-1,0
1523614709240,-524288,114,-56,-1,-1,0
1523614709240,-393216,114,-56,-1,-1,0
1523614709240,-65536,114,-56,-1,-1,0
1523614709240,-65536,114,-56,-1,-1,0
1523614709240,-196608,114,-56,-1,-1,0
1523614709280,-131072,114,-56,-1,-1,0
1523614709280,0,114,-56,-1,-1,0
1523614709280,196608,114,-56,-1,-1,0
1523614709280,327680,114,-56,-1,-1,0
1523614709280,327680,114,-56,-1,-1,0
1523614709320,393216,114,-56,-1,-1,0
1523614709320,720896,114,-56,-1,-1,0
1523614709320,983040,114,-56,-1,-1,0
1523614709320,1245184,114,-56,-1,-1,0
1523614709320,1376256,114,-56,-1,-1,0
1523614709360,1245184,114,-56,-1,-1,0
1523614709360,720896,114,-56,-1,-1,0
1523614709360,262144,114,-56,-1,-1,0
1523614709360,65536,114,-56,-1,-1,0
1523614709360,65536,114,-56,-1,-1,0
1523614709400,0,114,-56,-1,-1,0
1523614709400,0,114,-56,-1,-1,0
1523614709400,-65536,114,-56,-1,-1,0
1523614709400,-262144,114,-56,-1,-1,0
1523614709400,-458752,114,-56,-1,-1,0
1523614709440,-524288,114,-56,-1,-1,0
1523614709440,-524288,114,-56,-1,-1,0
1523614709440,-458752,114,-56,-1,-1,0
1523614709440,-327680,114,-56,-1,-1,0
1523614709440,-196608,114,-56,-1,-1,0
1523614709480,-393216,114,-56,-1,-1,0
1523614709480,-655360,114,-56,-1,-1,0
1523614709480,-720896,114,-56,-1,-1,0
1523614709480,-524288,114,-56,-1,-1,0
1523614709480,-393216,114,-56,-1,-1,0
1523614709520,-393216,114,-56,-1,-1,0
1523614709520,-458752,114,-56,-1,-1,0
1523614709520,-589824,114,-56,-1,-1,0
1523614709520,-589824,114,-56,-1,-1,0
1523614709520,-589824,114,-56,-1,-1,0
1523614709560,-524288,114,-56,-1,-1,0
1523614709560,-524288,114,-56,-1,-1,0
1523614709560,-720896,114,-56,-1,-1,0
1523614709560,-851968,114,-56,-1,-1,0
1523614709560,-851968,114,-56,-1,-1,0
1523614709600,-786432,114,-56,-1,-1,0
1523614709600,-720896,114,-56,-1,-1,0
1523614709600,-720896,114,-56,-1,-1,0
1523614709600,-786432,114,-56,-1,-1,0
1523614709600,-851968,114,-56,-1,-1,0
1523614709640,-786432,114,-56,-1,-1,0
1523614709640,-720896,114,-56,-1,-1,0
1523614709640,-720896,114,-56,-1,-1,0
1523614709640,-720896,114,-56,-1,-1,0
1523614709640,-983040,114,-56,-1,-1,0
1523614709680,-851968,114,-56,-1,-1,0
1523614709680,1572864,114,-56,-1,-1,0
1523614709680,6684672,114,-56,-1,-1,0
1523614709680,8716288,114,-56,-1,-1,0
1523614709680,4456448,114,-56,-1,-1,0
1523614709720,-327680,114,-56,-1,-1,0
1523614709720,-1048576,114,-56,-1,-1,0
1523614709720,-655360,114,-56,-1,-1,0
1523614709720,-524288,114,-56,-1,-1,0
1523614709720,-458752,114,-56,-1,-1,0
1523614709761,-458752,114,-56,-1,-1,0
1523614709761,-393216,114,-56,-1,-1,0
1523614709761,-262144,114,-56,-1,-1,0
1523614709761,-327680,114,-56,-1,-1,0
1523614709761,-262144,114,-56,-1,-1,0
1523614709802,-262144,114,-56,-1,-1,0
1523614709802,-262144,114,-56,-1,-1,0
1523614709802,-196608,114,-56,-1,-1,0
1523614709802,0,114,-56,-1,-1,0
1523614709802,196608,114,-56,-1,-1,0
1523614709840,327680,114,-56,-1,-1,0
1523614709840,524288,114,-56,-1,-1,0
1523614709840,786432,114,-56,-1,-1,0
1523614709840,851968,114,-56,-1,-1,0
1523614709840,917504,114,-56,-1,-1,0
1523614709880,917504,114,-56,-1,-1,0
1523614709880,983040,114,-56,-1,-1,0
1523614709880,851968,114,-56,-1,-1,0
1523614709880,655360,114,-56,-1,-1,0
1523614709880,458752,114,-56,-1,-1,0
1523614709920,196608,114,-56,-1,-1,0
1523614709920,-131072,114,-56,-1,-1,0
1523614709920,-262144,114,-56,-1,-1,0
1523614709920,-262144,114,-56,-1,-1,0
1523614709920,-196608,114,-56,-1,-1,0
1523614709960,-327680,114,-56,-1,-1,0
1523614709960,-393216,114,-56,-1,-1,0
1523614709960,-458752,114,-56,-1,-1,0
1523614709960,-393216,114,-56,-1,-1,0
1523614709960,-327680,114,-56,-1,-1,0
1523614710000,-262144,114,-56,-1,-1,0
1523614710000,-458752,114,-56,-1,-1,0
1523614710000,-655360,114,-56,-1,-1,0
1523614710000,-524288,114,-56,-1,-1,0
1523614710000,-393216,114,-56,-1,-1,0
1523614710040,-327680,114,-56,-1,-1,0
1523614710040,-327680,114,-56,-1,-1,0
1523614710040,-262144,114,-56,-1,-1,0
1523614710040,-196608,114,-56,-1,-1,0
1523614710040,-196608,114,-56,-1,-1,0
1523614710080,-262144,114,-56,-1,-1,0
1523614710080,-393216,114,-56,-1,-1,0
1523614710080,-458752,114,-56,-1,-1,0
1523614710080,-458752,114,-56,-1,-1,0
1523614710080,-458752,114,-56,-1,-1,0
1523614710120,-458752,114,-56,-1,-1,0
1523614710120,-458752,114,-56,-1,-1,0
1523614710120,-458752,114,-56,-1,-1,0
1523614710120,-393216,114,-56,-1,-1,0
1523614710120,-393216,114,-56,-1,-1,0
1523614710160,-589824,114,-56,-1,-1,0
1523614710160,-655360,114,-56,-1,-1,0
1523614710160,-524288,114,-56,-1,-1,0
1523614710160,-589824,114,-56,-1,-1,0
1523614710160,-655360,114,-56,-1,-1,0
1523614710200,-786432,114,-56,-1,-1,0
1523614710200,-983040,114,-56,-1,-1,0
1523614710200,0,114,-56,-1,-1,0
1523614710200,4128768,114,-56,-1,-1,0
1523614710200,8978432,114,-56,-1,-1,0
1523614710240,7602176,114,-56,-1,-1,0
1523614710240,2162688,114,-56,-1,-1,0
1523614710240,-1048576,114,-56,-1,-1,0
1523614710240,-851968,114,-56,-1,-1,0
1523614710240,-458752,114,-56,-1,-1,0
1523614710280,-458752,114,-56,-1,-1,0
1523614710280,-458752,114,-56,-1,-1,0
1523614710280,-458752,114,-56,-1,-1,0
1523614710280,-393216,114,-56,-1,-1,0
1523614710280,-393216,114,-56,-1,-1,0
1523614710320,-393216,114,-56,-1,-1,0
1523614710320,-262144,114,-56,-1,-1,0
1523614710320,-196608,114,-56,-1,-1,0
1523614710320,-196608,114,-56,-1,-1,0
1523614710320,-131072,114,-56,-1,-1,0
1523614710362,-65536,114,-56,-1,-1,0
1523614710362,65536,114,-56,-1,-1,0
1523614710362,196608,114,-56,-1,-1,0
1523614710362,458752,114,-56,-1,-1,0
1523614710362,720896,114,-56,-1,-1,0
1523614710403,851968,114,-56,-1,-1,0
1523614710403,917504,114,-56,-1,-1,0
1523614710403,917504,114,-56,-1,-1,0
1523614710403,851968,114,-56,-1,-1,0
1523614710403,589824,114,-56,-1,-1,0
1523614710445,327680,114,-56,-1,-1,0
1523614710445,65536,114,-56,-1,-1,0
1523614710445,-131072,114,-56,-1,-1,0
1523614710445,-524288,114,-56,-1,-1,0
1523614710445,-720896,114,-56,-1,-1,0
1523614710480,-655360,114,-56,-1,-1,0
1523614710480,-524288,114,-56,-1,-1,0
1523614710480,-655360,114,-56,-1,-1,0
1523614710480,-851968,114,-56,-1,-1,0
1523614710480,-851968,114,-56,-1,-1,0
1523614710520,-786432,114,-56,-1,-1,0
1523614710520,-786432,114,-56,-1,-1,0
1523614710520,-851968,114,-56,-1,-1,0
1523614710520,-786432,114,-56,-1,-1,0
1523614710520,-655360,114,-56,-1,-1,0
1523614710560,-458752,114,-56,-1,-1,0
1523614710560,-327680,114,-56,-1,-1,0
1523614710560,-524288,114,-56,-1,-1,0
1523614710560,-720896,114,-56,-1,-1,0
1523614710560,-720896,114,-56,-1,-1,0
1523614710600,-524288,114,-56,-1,-1,0
1523614710600,-458752,114,-56,-1,-1,0
1523614710600,-655360,114,-56,-1,-1,0
1523614710600,-851968,114,-56,-1,-1,0
1523614710600,-720896,114,-56,-1,-1,0
1523614710640,-589824,114,-56,-1,-1,0
1523614710640,-524288,114,-56,-1,-1,0
1523614710640,-655360,114,-56,-1,-1,0
1523614710640,-720896,114,-56,-1,-1,0
1523614710640,-720896,114,-56,-1,-1,0
1523614710680,-589824,114,-56,-1,-1,0
1523614710680,-524288,114,-56,-1,-1,0
1523614710680,-720896,114,-56,-1,-1,0
1523614710680,-786432,114,-56,-1,-1,0
1523614710680,-655360,114,-56,-1,-1,0
1523614710720,-655360,114,-56,-1,-1,0
1523614710720,-720896,114,-56,-1,-1,0
1523614710720,-851968,114,-56,-1,-1,0
1523614710720,-917504,114,-56,-1,-1,0
1523614710720,1310720,114,-56,-1,-1,0
1523614710760,6684672,114,-56,-1,-1,0
1523614710760,9437184,114,-56,-1,-1,0
1523614710760,5177344,114,-56,-1,-1,0
1523614710760,-131072,114,-56,-1,-1,0
1523614710760,-1114112,114,-56,-1,-1,0
1523614710800,-524288,114,-56,-1,-1,0
1523614710800,-458752,114,-56,-1,-1,0
1523614710800,-524288,114,-56,-1,-1,0
1523614710800,-393216,114,-56,-1,-1,0
1523614710800,-393216,114,-56,-1,-1,0
1523614710840,-393216,114,-56,-1,-1,0
1523614710840,-458752,114,-56,-1,-1,0
1523614710840,-524288,114,-56,-1,-1,0
1523614710840,-327680,114,-56,-1,-1,0
1523614710840,0,114,-56,-1,-1,0
1523614710880,0,114,-56,-1,-1,0
1523614710880,0,114,-56,-1,-1,0
1523614710880,65536,114,-56,-1,-1,0
1523614710880,262144,114,-56,-1,-1,0
1523614710880,458752,114,-56,-1,-1,0
1523614710920,786432,114,-56,-1,-1,0
1523614710920,983040,114,-56,-1,-1,0
1523614710920,1048576,114,-56,-1,-1,0
1523614710920,1048576,114,-56,-1,-1,0
1523614710920,1114112,114,-56,-1,-1,0
1523614710960,983040,114,-56,-1,-1,0
1523614710960,720896,114,-56,-1,-1,0
1523614710960,589824,114,-56,-1,-1,0
1523614710960,524288,114,-56,-1,-1,0
1523614710960,262144,114,-56,-1,-1,0
1523614711000,0,114,-56,-1,-1,0
1523614711000,-196608,114,-56,-1,-1,0
1523614711000,-327680,114,-56,-1,-1,0
1523614711000,-393216,114,-56,-1,-1,0
1523614711000,-458752,114,-56,-1,-1,0
1523614711043,-524288,114,-56,-1,-1,0
1523614711043,-458752,114,-56,-1,-1,0
1523614711043,-393216,114,-56,-1,-1,0
1523614711043,-458752,114,-56,-1,-1,0
1523614711043,-393216,114,-56,-1,-1,0
1523614711080,-458752,114,-56,-1,-1,0
1523614711080,-458752,114,-56,-1,-1,0
1523614711080,-393216,114,-56,-1,-1,0
1523614711080,-262144,114,-56,-1,-1,0
1523614711080,-262144,114,-56,-1,-1,0
1523614711120,-393216,114,-56,-1,-1,0
1523614711120,-327680,114,-56,-1,-1,0
1523614711120,-393216,114,-56,-1,-1,0
1523614711120,-524288,114,-56,-1,-1,0
1523614711120,-524288,114,-56,-1,-1,0
1523614711160,-327680,114,-56,-1,-1,0
1523614711160,-458752,114,-56,-1,-1,0
1523614711160,-655360,114,-56,-1,-1,0
1523614711160,-720896,114,-56,-1,-1,0
1523614711160,-589824,114,-56,-1,-1,0
1523614711200,-655360,114,-56,-1,-1,0
1523614711200,-655360,114,-56,-1,-1,0
1523614711200,-655360,114,-56,-1,-1,0
1523614711200,-589824,114,-56,-1,-1,0
1523614711200,-589824,114,-56,-1,-1,0
1523614711240,-655360,114,-56,-1,-1,0
1523614711240,-720896,114,-56,-1,-1,0
1523614711240,-917504,114,-56,-1,-1,0
1523614711240,-1114112,114,-56,-1,-1,0
1523614711240,-589824,114,-56,-1,-1,0
1523614711280,2621440,114,-56,-1,-1,0
1523614711280,7536640,114,-56,-1,-1,0
1523614711280,7995392,114,-56,-1,-1,0
1523614711280,3145728,114,-56,-1,-1,0
1523614711280,-1179648,114,-56,-1,-1,0
1523614711320,-1376256,114,-56,-1,-1,0
1523614711320,-917504,114,-56,-1,-1,0
1523614711320,-851968,114,-56,-1,-1,0
1523614711320,-851968,114,-56,-1,-1,0
1523614711320,-786432,114,-56,-1,-1,0
1523614711360,-589824,114,-56,-1,-1,0
1523614711360,-524288,114,-56,-1,-1,0
1523614711360,-589824,114,-56,-1,-1,0
1523614711360,-589824,114,-56,-1,-1,0
1523614711360,-589824,114,-56,-1,-1,0
1523614711400,-655360,114,-56,-1,-1,0
1523614711400,-720896,114,-56,-1,-1,0
1523614711400,-524288,114,-56,-1,-1,0
1523614711400,-196608,114,-56,-1,-1,0
1523614711400,0,114,-56,-1,-1,0
1523614711440,131072,114,-56,-1,-1,0
1523614711440,524288,114,-56,-1,-1,0
1523614711440,655360,114,-56,-1,-1,0
1523614711440,851968,114,-56,-1,-1,0
1523614711440,851968,114,-56,-1,-1,0
1523614711481,655360,114,-56,-1,-1,0
1523614711481,262144,114,-56,-1,-1,0
1523614711481,0,114,-56,-1,-1,0
1523614711481,-131072,114,-56,-1,-1,0
1523614711481,0,114,-56,-1,-1,0
1523614711520,-196608,114,-56,-1,-1,0
1523614711520,-589824,114,-56,-1,-1,0
1523614711520,-851968,114,-56,-1,-1,0
1523614711520,-983040,114,-56,-1,-1,0
1523614711520,-1179648,114,-56,-1,-1,0
1523614711560,-1245184,114,-56,-1,-1,0
1523614711560,-1245184,114,-56,-1,-1,0
1523614711560,-1114112,114,-56,-1,-1,0
1523614711560,-917504,114,-56,-1,-1,0
1523614711560,-851968,114,-56,-1,-1,0
1523614711600,-983040,114,-56,-1,-1,0
1523614711600,-1179648,114,-56,-1,-1,0
1523614711600,-1114112,114,-56,-1,-1,0
1523614711600,-917504,114,-56,-1,-1,0
1523614711600,-786432,114,-56,-1,-1,0
1523614711640,-720896,114,-56,-1,-1,0
1523614711640,-720896,114,-56,-1,-1,0
1523614711640,-786432,114,-56,-1,-1,0
1523614711640,-917504,114,-56,-1,-1,0
1523614711640,-917504,114,-56,-1,-1,0
1523614711681,-720896,114,-56,-1,-1,0
1523614711681,-786432,114,-56,-1,-1,0
1523614711681,-983040,114,-56,-1,-1,0
1523614711681,-983040,114,-56,-1,-1,0
1523614711681,-851968,114,-56,-1,-1,0
1523614711720,-983040,114,-56,-1,-1,0
1523614711720,-1245184,114,-56,-1,-1,0
1523614711720,-1376256,114,-56,-1,-1,0
1523614711720,-1114112,114,-56,-1,-1,0
1523614711720,-917504,114,-56,-1,-1,0
1523614711760,-1048576,114,-56,-1,-1,0
1523614711760,-1179648,114,-56,-1,-1,0
1523614711760,-1245184,114,-56,-1,-1,0
1523614711760,-1376256,114,-56,-1,-1,0
1523614711760,-917504,114,-56,-1,-1,0
1523614711800,2293760,114,-56,-1,-1,0
1523614711800,7077888,114,-56,-1,-1,0
1523614711800,7012352,114,-56,-1,-1,0
1523614711800,1769472,114,-56,-1,-1,0
1523614711800,-2031616,114,-56,-1,-1,0
1523614711840,-1572864,114,-56,-1,-1,0
1523614711840,-983040,114,-56,-1,-1,0
1523614711840,-917504,114,-56,-1,-1,0
1523614711840,-1048576,114,-56,-1,-1,0
1523614711840,-1114112,114,-56,-1,-1,0
1523614711881,-917504,114,-56,-1,-1,0
1523614711881,-786432,114,-56,-1,-1,0
1523614711881,-786432,114,-56,-1,-1,0
1523614711881,-786432,114,-56,-1,-1,0
1523614711881,-786432,114,-56,-1,-1,0
1523614711920,-720896,114,-56,-1,-1,0
1523614711920,-458752,114,-56,-1,-1,0
1523614711920,-196608,114,-56,-1,-1,0
1523614711920,-65536,114,-56,-1,-1,0
1523614711920,65536,114,-56,-1,-1,0
1523614711963,393216,114,-56,-1,-1,0
1523614711963,720896,114,-56,-1,-1,0
1523614711963,851968,114,-56,-1,-1,0
1523614711963,983040,114,-56,-1,-1,0
1523614711963,851968,114,-56,-1,-1,0
1523614712000,720896,114,-56,-1,-1,0
1523614712000,589824,114,-56,-1,-1,0
1523614712000,589824,114,-56,-1,-1,0
1523614712000,262144,114,-56,-1,-1,0
1523614712000,-262144,114,-56,-1,-1,0
1523614712040,-917504,114,-56,-1,-1,0
1523614712040,-1048576,114,-56,-1,-1,0
1523614712040,-983040,114,-56,-1,-1,0
1523614712040,-1048576,114,-56,-1,-1,0
1523614712040,-1114112,114,-56,-1,-1,0
1523614712081,-1245184,114,-56,-1,-1,0
1523614712081,-1376256,114,-56,-1,-1,0
1523614712081,-1441792,114,-56,-1,-1,0
1523614712081,-1310720,114,-56,-1,-1,0
1523614712081,-1310720,114,-56,-1,-1,0
1523614712120,-1441792,114,-56,-1,-1,0
1523614712120,-1310720,114,-56,-1,-1,0
1523614712120,-1114112,114,-56,-1,-1,0
1523614712120,-1048576,114,-56,-1,-1,0
1523614712120,-983040,114,-56,-1,-1,0
1523614712160,-983040,114,-56,-1,-1,0
1523614712160,-917504,114,-56,-1,-1,0
1523614712160,-786432,114,-56,-1,-1,0
1523614712160,-917504,114,-56,-1,-1,0
1523614712160,-1048576,114,-56,-1,-1,0
1523614712200,-983040,114,-56,-1,-1,0
1523614712200,-786432,114,-56,-1,-1,0
1523614712200,-786432,114,-56,-1,-1,0
1523614712200,-983040,114,-56,-1,-1,0
1523614712200,-1048576,114,-56,-1,-1,0
1523614712240,-1048576,114,-56,-1,-1,0
1523614712240,-1048576,114,-56,-1,-1,0
1523614712240,-1245184,114,-56,-1,-1,0
1523614712240,-1245184,114,-56,-1,-1,0
1523614712240,-1114112,114,-56,-1,-1,0
1523614712280,-917504,114,-56,-1,-1,0
1523614712280,-851968,114,-56,-1,-1,0
1523614712280,-1048576,114,-56,-1,-1,0
1523614712280,-1245184,114,-56,-1,-1,0
1523614712280,-917504,114,-56,-1,-1,0
1523614712321,1835008,114,-56,-1,-1,0
1523614712321,6094848,114,-56,-1,-1,0
1523614712321,6422528,114,-56,-1,-1,0
1523614712321,1966080,114,-56,-1,-1,0
1523614712321,-1638400,114,-56,-1,-1,0
1523614712360,-1376256,114,-56,-1,-1,0
1523614712360,-786432,114,-56,-1,-1,0
1523614712360,-851968,114,-56,-1,-1,0
1523614712360,-655360,114,-56,-1,-1,0
1523614712360,-524288,114,-56,-1,-1,0
1523614712400,-524288,114,-56,-1,-1,0
1523614712400,-524288,114,-56,-1,-1,0
1523614712400,-458752,114,-56,-1,-1,0
1523614712400,-393216,114,-56,-1,-1,0
1523614712400,-393216,114,-56,-1,-1,0
1523614712440,-327680,114,-56,-1,-1,0
1523614712440,-196608,114,-56,-1,-1,0
1523614712440,0,114,-56,-1,-1,0
1523614712440,0,114,-56,-1,-1,0
1523614712440,131072,114,-56,-1,-1,0
1523614712480,524288,114,-56,-1,-1,0
1523614712480,917504,114,-56,-1,-1,0
1523614712480,1114112,114,-56,-1,-1,0
1523614712480,1245184,114,-56,-1,-1,0
1523614712480,1507328,114,-56,-1,-1,0
1523614712520,1441792,114,-56,-1,-1,0
1523614712520,1114112,114,-56,-1,-1,0
1523614712520,851968,114,-56,-1,-1,0
1523614712520,851968,114,-56,-1,-1,0
1523614712520,458752,114,-56,-1,-1,0
1523614712560,65536,114,-56,-1,-1,0
1523614712560,-327680,114,-56,-1,-1,0
1523614712560,-655360,114,-56,-1,-1,0
1523614712560,-786432,114,-56,-1,-1,0
1523614712560,-720896,114,-56,-1,-1,0
1523614712600,-851968,114,-56,-1,-1,0
1523614712600,-1114112,114,-56,-1,-1,0
1523614712600,-1179648,114,-56,-1,-1,0
1523614712600,-1179648,114,-56,-1,-1,0
1523614712600,-1179648,114,-56,-1,-1,0
1523614712640,-1114112,114,-56,-1,-1,0
1523614712640,-786432,114,-56,-1,-1,0
1523614712640,-851968,114,-56,-1,-1,0
1523614712640,-1114112,114,-56,-1,-1,0
1523614712640,-1310720,114,-56,-1,-1,0
1523614712680,-393216,114,-56,-1,-1,0
1523614712680,131072,114,-56,-1,-1,0
1523614712680,-262144,114,-56,-1,-1,0
1523614712680,-1114112,114,-56,-1,-1,0
1523614712680,-1048576,114,-56,-1,-1,0
1523614712720,-786432,114,-56,-1,-1,0
1523614712720,-655360,114,-56,-1,-1,0
1523614712720,-1048576,114,-56,-1,-1,0
1523614712720,-1310720,114,-56,-1,-1,0
1523614712720,-1048576,114,-56,-1,-1,0
1523614712760,-983040,114,-56,-1,-1,0
1523614712760,-1048576,114,-56,-1,-1,0
1523614712760,-851968,114,-56,-1,-1,0
1523614712760,-589824,114,-56,-1,-1,0
1523614712760,-393216,114,-56,-1,-1,0
1523614712800,-327680,114,-56,-1,-1,0
1523614712800,-786432,114,-56,-1,-1,0
1523614712800,-1507328,114,-56,-1,-1,0
1523614712800,-1769472,114,-56,-1,-1,0
1523614712800,-1441792,114,-56,-1,-1,0
1523614712840,1638400,114,-56,-1,-1,0
1523614712840,6029312,114,-56,-1,-1,0
1523614712840,6225920,114,-56,-1,-1,0
1523614712840,1900544,114,-56,-1,-1,0
1523614712840,-1114112,114,-56,-1,-1,0
1523614712880,-1114112,114,-56,-1,-1,0
1523614712880,-720896,114,-56,-1,-1,0
1523614712880,-262144,114,-56,-1,-1,0
1523614712880,0,114,-56,-1,-1,0
1523614712880,-655360,114,-56,-1,-1,0
1523614712920,-1114112,114,-56,-1,-1,0
1523614712920,-458752,114,-56,-1,-1,0
1523614712920,-65536,114,-56,-1,-1,0
1523614712920,-524288,114,-56,-1,-1,0
1523614712920,-262144,114,-56,-1,-1,0
1523614712961,786432,114,-56,-1,-1,0
1523614712961,917504,114,-56,-1,-1,0
1523614712961,196608,114,-56,-1,-1,0
1523614712961,-65536,114,-56,-1,-1,0
1523614712961,589824,114,-56,-1,-1,0
1523614713000,1507328,114,-56,-1,-1,0
1523614713000,1572864,114,-56,-1,-1,0
1523614713000,1114112,114,-56,-1,-1,0
1523614713000,1310720,114,-56,-1,-1,0
1523614713000,1835008,114,-56,-1,-1,0
1523614713040,2031616,114,-56,-1,-1,0
1523614713040,1703936,114,-56,-1,-1,0
1523614713040,1441792,114,-56,-1,-1,0
1523614713040,1245184,114,-56,-1,-1,0
1523614713040,655360,114,-56,-1,-1,0
1523614713080,65536,114,-56,-1,-1,0
1523614713080,0,114,-56,-1,-1,0
1523614713080,0,114,-56,-1,-1,0
1523614713080,-262144,114,-56,-1,-1,0
1523614713080,-393216,114,-56,-1,-1,0
1523614713120,-262144,114,-56,-1,-1,0
1523614713120,-458752,114,-56,-1,-1,0
1523614713120,-524288,114,-56,-1,-1,0
1523614713120,-327680,114,-56,-1,-1,0
1523614713120,-65536,114,-56,-1,-1,0
1523614713160,-196608,114,-56,-1,-1,0
1523614713160,-327680,114,-56,-1,-1,0
1523614713160,0,114,-56,-1,-1,0
1523614713160,262144,114,-56,-1,-1,0
1523614713160,0,114,-56,-1,-1,0
1523614713200,-393216,114,-56,-1,-1,0
1523614713200,-458752,114,-56,-1,-1,0
1523614713200,-262144,114,-56,-1,-1,0
1523614713200,0,114,-56,-1,-1,0
1523614713200,393216,114,-56,-1,-1,0
1523614713240,458752,114,-56,-1,-1,0
1523614713240,262144,114,-56,-1,-1,0
1523614713240,65536,114,-56,-1,-1,0
1523614713240,262144,114,-56,-1,-1,0
1523614713240,327680,114,-56,-1,-1,0
1523614713280,0,114,-56,-1,-1,0
1523614713280,-524288,114,-56,-1,-1,0
1523614713280,-983040,114,-56,-1,-1,0
1523614713280,-1114112,114,-56,-1,-1,0
1523614713280,-917504,114,-56,-1,-1,0
1523614713320,-131072,114,-56,-1,-1,0
1523614713320,393216,114,-56,-1,-1,0
1523614713320,-327680,114,-56,-1,-1,0
1523614713320,-1507328,114,-56,-1,-1,0
1523614713320,-1310720,114,-56,-1,-1,0
1523614713360,720896,114,-56,-1,-1,0
1523614713360,4128768,114,-56,-1,-1,0
1523614713360,7929856,114,-56,-1,-1,0
1523614713360,7143424,114,-56,-1,-1,0
1523614713360,2621440,114,-56,-1,-1,0
1523614713400,-524288,114,-56,-1,-1,0
1523614713400,-393216,114,-56,-1,-1,0
1523614713400,-327680,114,-56,-1,-1,0
1523614713400,-393216,114,-56,-1,-1,0
1523614713400,0,114,-56,-1,-1,0
1523614713440,262144,114,-56,-1,-1,0
1523614713440,327680,114,-56,-1,-1,0
1523614713440,196608,114,-56,-1,-1,0
1523614713440,0,114,-56,-1,-1,0
1523614713440,-65536,114,-56,-1,-1,0
1523614713481,-65536,114,-56,-1,-1,0
1523614713481,-65536,114,-56,-1,-1,0
1523614713481,0,114,-56,-1,-1,0
1523614713481,524288,114,-56,-1,-1,0
1523614713481,851968,114,-56,-1,-1,0
1523614713520,720896,114,-56,-1,-1,0
1523614713520,786432,114,-56,-1,-1,0
1523614713520,1376256,114,-56,-1,-1,0
1523614713520,2097152,114,-56,-1,-1,0
1523614713520,2490368,114,-56,-1,-1,0
1523614713560,2555904,114,-56,-1,-1,0
1523614713560,1900544,114,-56,-1,-1,0
1523614713560,1376256,114,-56,-1,-1,0
1523614713560,1638400,114,-56,-1,-1,0
1523614713560,1572864,114,-56,-1,-1,0
1523614713604,917504,114,-56,-1,-1,0
1523614713604,393216,114,-56,-1,-1,0
1523614713604,196608,114,-56,-1,-1,0
1523614713604,0,114,-56,-1,-1,0
1523614713604,-327680,114,-56,-1,-1,0
1523614713640,-393216,114,-56,-1,-1,0
1523614713640,-327680,114,-56,-1,-1,0
1523614713640,131072,114,-56,-1,-1,0
1523614713640,393216,114,-56,-1,-1,0
1523614713640,65536,114,-56,-1,-1,0
1523614713680,-262144,114,-56,-1,-1,0
1523614713680,-327680,114,-56,-1,-1,0
1523614713680,-131072,114,-56,-1,-1,0
1523614713680,0,114,-56,-1,-1,0
1523614713680,131072,114,-56,-1,-1,0
1523614713720,262144,114,-56,-1,-1,0
1523614713720,131072,114,-56,-1,-1,0
1523614713720,65536,114,-56,-1,-1,0
1523614713720,65536,114,-56,-1,-1,0
1523614713720,0,114,-56,-1,-1,0
1523614713760,-131072,114,-56,-1,-1,0
1523614713760,0,114,-56,-1,-1,0
1523614713760,-65536,114,-56,-1,-1,0
1523614713760,-196608,114,-56,-1,-1,0
1523614713760,-196608,114,-56,-1,-1,0
1523614713800,-131072,114,-56,-1,-1,0
1523614713800,-262144,114,-56,-1,-1,0
1523614713800,-262144,114,-56,-1,-1,0
1523614713800,-65536,114,-56,-1,-1,0
1523614713800,196608,114,-56,-1,-1,0
1523614713840,65536,114,-56,-1,-1,0
1523614713840,0,114,-56,-1,-1,0
1523614713840,65536,114,-56,-1,-1,0
1523614713840,131072,114,-56,-1,-1,0
1523614713840,0,114,-56,-1,-1,0
1523614713880,-196608,114,-56,-1,-1,0
1523614713880,-393216,114,-56,-1,-1,0
1523614713880,-458752,114,-56,-1,-1,0
1523614713880,786432,114,-56,-1,-1,0
1523614713880,5242880,114,-56,-1,-1,0
1523614713920,9699328,114,-56,-1,-1,0
1523614713920,7798784,114,-56,-1,-1,0
1523614713920,2424832,114,-56,-1,-1,0
1523614713920,-393216,114,-56,-1,-1,0
1523614713920,-65536,114,-56,-1,-1,0
1523614713961,131072,114,-56,-1,-1,0
1523614713961,131072,114,-56,-1,-1,0
1523614713961,65536,114,-56,-1,-1,0
1523614713961,0,114,-56,-1,-1,0
1523614713961,131072,114,-56,-1,-1,0
1523614714000,131072,114,-56,-1,-1,0
1523614714000,65536,114,-56,-1,-1,0
1523614714000,131072,114,-56,-1,-1,0
1523614714000,393216,114,-56,-1,-1,0
1523614714000,655360,114,-56,-1,-1,0
1523614714040,786432,114,-56,-1,-1,0
1523614714040,786432,114,-56,-1,-1,0
1523614714040,851968,114,-56,-1,-1,0
1523614714040,983040,114,-56,-1,-1,0
1523614714040,1245184,114,-56,-1,-1,0
1523614714080,1441792,114,-56,-1,-1,0
1523614714080,1703936,114,-56,-1,-1,0
1523614714080,1966080,114,-56,-1,-1,0
1523614714080,1966080,114,-56,-1,-1,0
1523614714080,1835008,114,-56,-1,-1,0
1523614714121,1703936,114,-56,-1,-1,0
1523614714121,1638400,114,-56,-1,-1,0
1523614714121,1376256,114,-56,-1,-1,0
1523614714121,983040,114,-56,-1,-1,0
1523614714121,589824,114,-56,-1,-1,0
1523614714161,458752,114,-56,-1,-1,0
1523614714161,131072,114,-56,-1,-1,0
1523614714161,-131072,114,-56,-1,-1,0
1523614714161,-327680,114,-56,-1,-1,0
1523614714161,-262144,114,-56,-1,-1,0
1523614714200,-262144,114,-56,-1,-1,0
1523614714200,-327680,114,-56,-1,-1,0
1523614714200,-327680,114,-56,-1,-1,0
1523614714200,-327680,114,-56,-1,-1,0
1523614714200,-262144,114,-56,-1,-1,0
1523614714241,-196608,114,-56,-1,-1,0
1523614714241,-196608,114,-56,-1,-1,0
1523614714241,-196608,114,-56,-1,-1,0
1523614714241,-131072,114,-56,-1,-1,0
1523614714241,-196608,114,-56,-1,-1,0
1523614714280,-262144,114,-56,-1,-1,0
1523614714280,-327680,114,-56,-1,-1,0
1523614714280,-327680,114,-56,-1,-1,0
1523614714280,-327680,114,-56,-1,-1,0
1523614714280,-327680,114,-56,-1,-1,0
1523614714320,-458752,114,-56,-1,-1,0
1523614714320,-524288,114,-56,-1,-1,0
1523614714320,-589824,114,-56,-1,-1,0
1523614714320,-524288,114,-56,-1,-1,0
1523614714320,-589824,114,-56,-1,-1,0
1523614714360,-720896,114,-56,-1,-1,0
1523614714360,-720896,114,-56,-1,-1,0
1523614714360,-589824,114,-56,-1,-1,0
1523614714360,-589824,114,-56,-1,-1,0
1523614714360,-655360,114,-56,-1,-1,0
1523614714400,-786432,114,-56,-1,-1,0
1523614714400,-786432,114,-56,-1,-1,0
1523614714400,-786432,114,-56,-1,-1,0
1523614714400,-720896,114,-56,-1,-1,0
1523614714400,-720896,114,-56,-1,-1,0
1523614714440,-786432,114,-56,-1,-1,0
1523614714440,-1179648,114,-56,-1,-1,0
1523614714440,-1245184,114,-56,-1,-1,0
1523614714440,720896,114,-56,-1,-1,0
1523614714440,5898240,114,-56,-1,-1,0
1523614714480,9502720,114,-56,-1,-1,0
1523614714480,6160384,114,-56,-1,-1,0
1523614714480,589824,114,-56,-1,-1,0
1523614714480,-1310720,114,-56,-1,-1,0
1523614714480,-917504,114,-56,-1,-1,0
1523614714520,-786432,114,-56,-1,-1,0
1523614714520,-851968,114,-56,-1,-1,0
1523614714520,-917504,114,-56,-1,-1,0
1523614714520,-1048576,114,-56,-1,-1,0
1523614714520,-851968,114,-56,-1,-1,0
1523614714560,-720896,114,-56,-1,-1,0
1523614714560,-589824,114,-56,-1,-1,0
1523614714560,-655360,114,-56,-1,-1,0
1523614714560,-589824,114,-56,-1,-1,0
1523614714560,-655360,114,-56,-1,-1,0
1523614714600,-589824,114,-56,-1,-1,0
1523614714600,-524288,114,-56,-1,-1,0
1523614714600,-262144,114,-56,-1,-1,0
1523614714600,-131072,114,-56,-1,-1,0
1523614714600,0,114,-56,-1,-1,0
1523614714640,262144,114,-56,-1,-1,0
1523614714640,655360,114,-56,-1,-1,0
1523614714640,851968,114,-56,-1,-1,0
1523614714640,786432,114,-56,-1,-1,0
1523614714640,720896,114,-56,-1,-1,0
1523614714680,589824,114,-56,-1,-1,0
1523614714680,524288,114,-56,-1,-1,0
1523614714680,262144,114,-56,-1,-1,0
1523614714680,0,114,-56,-1,-1,0
1523614714680,-327680,114,-56,-1,-1,0
1523614714720,-589824,114,-56,-1,-1,0
1523614714720,-786432,114,-56,-1,-1,0
1523614714720,-851968,114,-56,-1,-1,0
1523614714720,-983040,114,-56,-1,-1,0
1523614714720,-1048576,114,-56,-1,-1,0
1523614714760,-1048576,114,-56,-1,-1,0
1523614714760,-1048576,114,-56,-1,-1,0
1523614714760,-1179648,114,-56,-1,-1,0
1523614714760,-1245184,114,-56,-1,-1,0
1523614714760,-1179648,114,-56,-1,-1,0
1523614714800,-1048576,114,-56,-1,-1,0
1523614714800,-1048576,114,-56,-1,-1,0
1523614714800,-983040,114,-56,-1,-1,0
1523614714800,-917504,114,-56,-1,-1,0
1523614714800,-917504,114,-56,-1,-1,0
1523614714840,-983040,114,-56,-1,-1,0
1523614714840,-983040,114,-56,-1,-1,0
1523614714840,-983040,114,-56,-1,-1,0
1523614714840,-917504,114,-56,-1,-1,0
1523614714840,-917504,114,-56,-1,-1,0
1523614714881,-917504,114,-56,-1,-1,0
1523614714881,-983040,114,-56,-1,-1,0
1523614714881,-983040,114,-56,-1,-1,0
1523614714881,-983040,114,-56,-1,-1,0
1523614714881,-983040,114,-56,-1,-1,0
1523614714920,-917504,114,-56,-1,-1,0
1523614714920,-983040,114,-56,-1,-1,0
1523614714920,-1114112,114,-56,-1,-1,0
1523614714920,-1114112,114,-56,-1,-1,0
1523614714920,-983040,114,-56,-1,-1,0
1523614714960,-917504,114,-56,-1,-1,0
1523614714960,-983040,114,-56,-1,-1,0
1523614714960,-983040,114,-56,-1,-1,0
1523614714960,-983040,114,-56,-1,-1,0
1523614714960,-983040,114,-56,-1,-1,0
1523614715000,-1048576,114,-56,-1,-1,0
1523614715000,-917504,114,-56,-1,-1,0
1523614715000,-1048576,114,-56,-1,-1,0
1523614715000,-1376256,114,-56,-1,-1,0
1523614715000,-983040,114,-56,-1,-1,0
1523614715040,2490368,114,-56,-1,-1,0
1523614715040,8060928,114,-56,-1,-1,0
1523614715040,8847360,114,-56,-1,-1,0
1523614715040,3735552,114,-56,-1,-1,0
1523614715040,-917504,114,-56,-1,-1,0
1523614715080,-1310720,114,-56,-1,-1,0
1523614715080,-983040,114,-56,-1,-1,0
1523614715080,-917504,114,-56,-1,-1,0
1523614715080,-917504,114,-56,-1,-1,0
1523614715080,-917504,114,-56,-1,-1,0
1523614715120,-917504,114,-56,-1,-1,0
1523614715120,-851968,114,-56,-1,-1,0
1523614715120,-851968,114,-56,-1,-1,0
1523614715120,-786432,114,-56,-1,-1,0
1523614715120,-720896,114,-56,-1,-1,0
1523614715160,-589824,114,-56,-1,-1,0
1523614715160,-524288,114,-56,-1,-1,0
1523614715160,-458752,114,-56,-1,-1,0
1523614715160,-262144,114,-56,-1,-1,0
1523614715160,0,114,-56,-1,-1,0
1523614715201,131072,114,-56,-1,-1,0
1523614715201,393216,114,-56,-1,-1,0
1523614715201,589824,114,-56,-1,-1,0
1523614715201,786432,114,-56,-1,-1,0
1523614715201,983040,114,-56,-1,-1,0
1523614715240,1179648,114,-56,-1,-1,0
1523614715240,1114112,114,-56,-1,-1,0
1523614715240,917504,114,-56,-1,-1,0
1523614715240,655360,114,-56,-1,-1,0
1523614715240,458752,114,-56,-1,-1,0
1523614715280,131072,114,-56,-1,-1,0
1523614715280,-262144,114,-56,-1,-1,0
1523614715280,-655360,114,-56,-1,-1,0
1523614715280,-720896,114,-56,-1,-1,0
1523614715280,-655360,114,-56,-1,-1,0
1523614715320,-655360,114,-56,-1,-1,0
1523614715320,-851968,114,-56,-1,-1,0
1523614715320,-983040,114,-56,-1,-1,0
1523614715320,-983040,114,-56,-1,-1,0
1523614715320,-917504,114,-56,-1,-1,0
1523614715360,-983040,114,-56,-1,-1,0
1523614715360,-917504,114,-56,-1,-1,0
1523614715360,-851968,114,-56,-1,-1,0
1523614715360,-851968,114,-56,-1,-1,0
1523614715360,-851968,114,-56,-1,-1,0
1523614715400,-786432,114,-56,-1,-1,0
1523614715400,-720896,114,-56,-1,-1,0
1523614715400,-720896,114,-56,-1,-1,0
1523614715400,-786432,114,-56,-1,-1,0
1523614715400,-851968,114,-56,-1,-1,0
1523614715440,-786432,113,-56,-1,-1,0
1523614715440,-655360,113,-56,-1,-1,0
1523614715440,-589824,113,-56,-1,-1,0
1523614715440,-589824,113,-56,-1,-1,0
1523614715440,-720896,113,-56,-1,-1,0
1523614715480,-786432,113,-56,-1,-1,0
1523614715480,-851968,113,-56,-1,-1,0
1523614715480,-917504,113,-56,-1,-1,0
1523614715480,-983040,113,-56,-1,-1,0
1523614715480,-851968,113,-56,-1,-1,0
1523614715521,-786432,113,-56,-1,-1,0
1523614715521,-851968,113,-56,-1,-1,0
1523614715521,-786432,113,-56,-1,-1,0
1523614715521,-720896,113,-56,-1,-1,0
1523614715521,-786432,113,-56,-1,-1,0
1523614715560,-851968,113,-56,-1,-1,0
1523614715560,-786432,113,-56,-1,-1,0
1523614715560,-851968,113,-56,-1,-1,0
1523614715560,-1048576,113,-56,-1,-1,0
1523614715560,-1245184,113,-56,-1,-1,0
1523614715600,262144,113,-56,-1,-1,0
1523614715600,5046272,113,-56,-1,-1,0
1523614715600,8716288,113,-56,-1,-1,0
1523614715600,5767168,113,-56,-1,-1,0
1523614715600,393216,113,-56,-1,-1,0
1523614715640,-1441792,113,-56,-1,-1,0
1523614715640,-983040,113,-56,-1,-1,0
1523614715640,-655360,113,-56,-1,-1,0
1523614715640,-524288,113,-56,-1,-1,0
1523614715640,-393216,113,-56,-1,-1,0
1523614715680,-393216,113,-56,-1,-1,0
1523614715680,-327680,113,-56,-1,-1,0
1523614715680,-393216,113,-56,-1,-1,0
1523614715680,-327680,113,-56,-1,-1,0
1523614715680,-196608,113,-56,-1,-1,0
1523614715720,-131072,113,-56,-1,-1,0
1523614715720,-131072,113,-56,-1,-1,0
1523614715720,0,113,-56,-1,-1,0
1523614715720,131072,113,-56,-1,-1,0
1523614715720,393216,113,-56,-1,-1,0
1523614715760,589824,113,-56,-1,-1,0
1523614715760,786432,113,-56,-1,-1,0
1523614715760,1048576,113,-56,-1,-1,0
1523614715760,1245184,113,-56,-1,-1,0
1523614715760,1376256,113,-56,-1,-1,0
1523614715800,1441792,113,-56,-1,-1,0
1523614715800,1441792,113,-56,-1,-1,0
1523614715800,1376256,113,-56,-1,-1,0
1523614715800,1179648,113,-56,-1,-1,0
1523614715800,851968,113,-56,-1,-1,0
1523614715840,458752,113,-56,-1,-1,0
1523614715840,65536,113,-56,-1,-1,0
1523614715840,-131072,113,-56,-1,-1,0
1523614715840,-327680,113,-56,-1,-1,0
1523614715840,-458752,113,-56,-1,-1,0
1523614715880,-524288,113,-56,-1,-1,0
1523614715880,-589824,113,-56,-1,-1,0
1523614715880,-655360,113,-56,-1,-1,0
1523614715880,-655360,113,-56,-1,-1,0
1523614715880,-720896,113,-56,-1,-1,0
1523614715920,-720896,113,-56,-1,-1,0
1523614715920,-655360,113,-56,-1,-1,0
1523614715920,-524288,113,-56,-1,-1,0
1523614715920,-393216,113,-56,-1,-1,0
1523614715920,-393216,113,-56,-1,-1,0
1523614715960,-393216,113,-56,-1,-1,0
1523614715960,-327680,113,-56,-1,-1,0
1523614715960,-196608,113,-56,-1,-1,0
1523614715960,-196608,113,-56,-1,-1,0
1523614715960,-327680,113,-56,-1,-1,0
1523614716000,-393216,113,-56,-1,-1,0
1523614716000,-393216,113,-56,-1,-1,0
1523614716000,-393216,113,-56,-1,-1,0
1523614716000,-458752,113,-56,-1,-1,0
1523614716000,-524288,113,-56,-1,-1,0
1523614716040,-589824,113,-56,-1,-1,0
1523614716040,-720896,113,-56,-1,-1,0
1523614716040,-786432,113,-56,-1,-1,0
1523614716040,-786432,113,-56,-1,-1,0
1523614716040,-851968,113,-56,-1,-1,0
1523614716080,-851968,113,-56,-1,-1,0
1523614716080,-786432,113,-56,-1,-1,0
1523614716080,-786432,113,-56,-1,-1,0
1523614716080,-851968,113,-56,-1,-1,0
1523614716080,-917504,113,-56,-1,-1,0
1523614716121,-917504,113,-56,-1,-1,0
1523614716121,-851968,113,-56,-1,-1,0
1523614716121,-786432,113,-56,-1,-1,0
1523614716121,-851968,113,-56,-1,-1,0
1523614716121,-1179648,113,-56,-1,-1,0
1523614716162,-1376256,113,-56,-1,-1,0
1523614716162,0,113,-56,-1,-1,0
1523614716162,4521984,113,-56,-1,-1,0
1523614716162,8978432,113,-56,-1,-1,0
1523614716162,7012352,113,-56,-1,-1,0
1523614716201,1441792,113,-56,-1,-1,0
1523614716201,-1376256,113,-56,-1,-1,0
1523614716201,-1048576,113,-56,-1,-1,0
1523614716201,-786432,113,-56,-1,-1,0
1523614716201,-786432,113,-56,-1,-1,0
1523614716240,-720896,113,-56,-1,-1,0
1523614716240,-786432,113,-56,-1,-1,0
1523614716240,-655360,113,-56,-1,-1,0
1523614716240,-655360,113,-56,-1,-1,0
1523614716240,-589824,113,-56,-1,-1,0
1523614716281,-524288,113,-56,-1,-1,0
1523614716281,-393216,113,-56,-1,-1,0
1523614716281,-393216,113,-56,-1,-1,0
1523614716281,-327680,113,-56,-1,-1,0
1523614716281,-262144,113,-56,-1,-1,0
1523614716320,-65536,113,-56,-1,-1,0
1523614716320,65536,113,-56,-1,-1,0
1523614716320,327680,113,-56,-1,-1,0
1523614716320,524288,113,-56,-1,-1,0
1523614716320,720896,113,-56,-1,-1,0
1523614716360,983040,113,-56,-1,-1,0
1523614716360,1114112,113,-56,-1,-1,0
1523614716360,1114112,113,-56,-1,-1,0
1523614716360,1048576,113,-56,-1,-1,0
1523614716360,851968,113,-56,-1,-1,0
1523614716402,524288,113,-56,-1,-1,0
1523614716402,196608,113,-56,-1,-1,0
1523614716402,-65536,113,-56,-1,-1,0
1523614716402,-327680,113,-56,-1,-1,0
1523614716402,-524288,113,-56,-1,-1,0
1523614716440,-655360,113,-56,-1,-1,0
1523614716440,-720896,113,-56,-1,-1,0
1523614716440,-786432,113,-56,-1,-1,0
1523614716440,-917504,113,-56,-1,-1,0
1523614716440,-917504,113,-56,-1,-1,0
1523614716481,-917504,113,-56,-1,-1,0
1523614716481,-851968,113,-56,-1,-1,0
1523614716481,-786432,113,-56,-1,-1,0
1523614716481,-720896,113,-56,-1,-1,0
1523614716481,-720896,113,-56,-1,-1,0
1523614716520,-720896,113,-56,-1,-1,0
1523614716520,-655360,113,-56,-1,-1,0
1523614716520,-589824,113,-56,-1,-1,0
1523614716520,-524288,113,-56,-1,-1,0
1523614716520,-524288,113,-56,-1,-1,0
1523614716560,-589824,113,-56,-1,-1,0
1523614716560,-589824,113,-56,-1,-1,0
1523614716560,-655360,113,-56,-1,-1,0
1523614716560,-655360,113,-56,-1,-1,0
1523614716560,-589824,113,-56,-1,-1,0
1523614716600,-589824,112,-56,-1,-1,0
1523614716600,-720896,112,-56,-1,-1,0
1523614716600,-786432,112,-56,-1,-1,0
1523614716600,-720896,112,-56,-1,-1,0
1523614716600,-720896,112,-56,-1,-1,0
1523614716640,-786432,112,-56,-1,-1,0
1523614716640,-786432,112,-56,-1,-1,0
1523614716640,-655360,112,-56,-1,-1,0
1523614716640,-655360,112,-56,-1,-1,0
1523614716640,-655360,112,-56,-1,-1,0
1523614716680,-655360,112,-56,-1,-1,0
1523614716680,-655360,112,-56,-1,-1,0
1523614716680,-720896,112,-56,-1,-1,0
1523614716680,-655360,112,-56,-1,-1,0
1523614716680,-589824,112,-56,-1,-1,0
1523614716721,-786432,112,-56,-1,-1,0
1523614716721,-1048576,112,-56,-1,-1,0
1523614716721,196608,112,-56,-1,-1,0
1523614716721,4784128,112,-56,-1,-1,0
1523614716721,9568256,112,-56,-1,-1,0
1523614716760,7798784,112,-56,-1,-1,0
1523614716760,2162688,112,-56,-1,-1,0
1523614716760,-983040,112,-56,-1,-1,0
1523614716760,-720896,112,-56,-1,-1,0
1523614716760,-458752,112,-56,-1,-1,0
1523614716804,-458752,112,-56,-1,-1,0
1523614716804,-327680,112,-56,-1,-1,0
1523614716804,-327680,112,-56,-1,-1,0
1523614716804,-196608,112,-56,-1,-1,0
1523614716804,-196608,112,-56,-1,-1,0
1523614716840,-131072,112,-56,-1,-1,0
1523614716840,-131072,112,-56,-1,-1,0
1523614716840,-65536,112,-56,-1,-1,0
1523614716840,0,112,-56,-1,-1,0
1523614716840,0,112,-56,-1,-1,0
1523614716880,65536,112,-56,-1,-1,0
1523614716880,262144,112,-56,-1,-1,0
1523614716880,458752,112,-56,-1,-1,0
1523614716880,720896,112,-56,-1,-1,0
1523614716880,983040,112,-56,-1,-1,0
1523614716921,1245184,112,-56,-1,-1,0
1523614716921,1441792,112,-56,-1,-1,0
1523614716921,1572864,112,-56,-1,-1,0
1523614716921,1572864,112,-56,-1,-1,0
1523614716921,1441792,112,-56,-1,-1,0
1523614716960,1310720,112,-56,-1,-1,0
1523614716960,983040,112,-56,-1,-1,0
1523614716960,655360,112,-56,-1,-1,0
1523614716960,262144,112,-56,-1,-1,0
1523614716960,0,112,-56,-1,-1,0
1523614717001,-65536,112,-56,-1,-1,0
1523614717001,-196608,112,-56,-1,-1,0
1523614717001,-262144,112,-56,-1,-1,0
1523614717001,-327680,112,-56,-1,-1,0
1523614717001,-458752,112,-56,-1,-1,0
1523614717040,-524288,112,-56,-1,-1,0
1523614717040,-524288,112,-56,-1,-1,0
1523614717040,-589824,112,-56,-1,-1,0
1523614717040,-655360,112,-56,-1,-1,0
1523614717040,-720896,112,-56,-1,-1,0
1523614717080,-655360,112,-56,-1,-1,0
1523614717080,-524288,112,-56,-1,-1,0
1523614717080,-393216,112,-56,-1,-1,0
1523614717080,-393216,112,-56,-1,-1,0
1523614717080,-458752,112,-56,-1,-1,0
1523614717122,-458752,112,-56,-1,-1,0
1523614717122,-458752,112,-56,-1,-1,0
1523614717122,-458752,112,-56,-1,-1,0
1523614717122,-524288,112,-56,-1,-1,0
1523614717122,-524288,112,-56,-1,-1,0
1523614717160,-524288,111,-56,-1,-1,0
1523614717160,-655360,111,-56,-1,-1,0
1523614717160,-720896,111,-56,-1,-1,0
1523614717160,-720896,111,-56,-1,-1,0
1523614717160,-720896,111,-56,-1,-1,0
1523614717201,-851968,111,-56,-1,-1,0
1523614717201,-983040,111,-56,-1,-1,0
1523614717201,-917504,111,-56,-1,-1,0
1523614717201,-786432,111,-56,-1,-1,0
1523614717201,-786432,111,-56,-1,-1,0
1523614717240,-786432,111,-56,-1,-1,0
1523614717240,-786432,111,-56,-1,-1,0
1523614717240,-786432,111,-56,-1,-1,0
1523614717240,-851968,111,-56,-1,-1,0
1523614717240,-917504,111,-56,-1,-1,0
1523614717280,-917504,111,-56,-1,-1,0
1523614717280,-1245184,111,-56,-1,-1,0
1523614717280,-1310720,111,-56,-1,-1,0
1523614717280,851968,111,-56,-1,-1,0
1523614717280,6160384,111,-56,-1,-1,0
1523614717320,9633792,111,-56,-1,-1,0
1523614717320,5963776,111,-56,-1,-1,0
1523614717320,327680,111,-56,-1,-1,0
1523614717320,-1376256,111,-56,-1,-1,0
1523614717320,-917504,111,-56,-1,-1,0
1523614717360,-786432,111,-56,-1,-1,0
1523614717360,-917504,111,-56,-1,-1,0
1523614717360,-851968,111,-56,-1,-1,0
1523614717360,-786432,111,-56,-1,-1,0
1523614717360,-655360,111,-56,-1,-1,0
1523614717400,-720896,111,-56,-1,-1,0
1523614717400,-589824,111,-56,-1,-1,0
1523614717400,-655360,111,-56,-1,-1,0
1523614717400,-589824,111,-56,-1,-1,0
1523614717400,-524288,111,-56,-1,-1,0
1523614717441,-393216,111,-56,-1,-1,0
1523614717441,-262144,111,-56,-1,-1,0
1523614717441,-65536,111,-56,-1,-1,0
1523614717441,0,111,-56,-1,-1,0
1523614717441,196608,111,-56,-1,-1,0
1523614717480,524288,111,-56,-1,-1,0
1523614717480,851968,111,-56,-1,-1,0
1523614717480,983040,111,-56,-1,-1,0
1523614717480,1048576,111,-56,-1,-1,0
1523614717480,983040,111,-56,-1,-1,0
1523614717520,851968,111,-56,-1,-1,0
1523614717520,655360,111,-56,-1,-1,0
1523614717520,262144,111,-56,-1,-1,0
1523614717520,0,111,-56,-1,-1,0
1523614717520,-131072,111,-56,-1,-1,0
1523614717560,-327680,111,-56,-1,-1,0
1523614717560,-589824,111,-56,-1,-1,0
1523614717560,-786432,111,-56,-1,-1,0
1523614717560,-786432,111,-56,-1,-1,0
1523614717560,-851968,111,-56,-1,-1,0
1523614717600,-917504,111,-56,-1,-1,0
1523614717600,-917504,111,-56,-1,-1,0
1523614717600,-851968,111,-56,-1,-1,0
1523614717600,-786432,111,-56,-1,-1,0
1523614717600,-851968,111,-56,-1,-1,0
1523614717640,-917504,111,-56,-1,-1,0
1523614717640,-917504,111,-56,-1,-1,0
1523614717640,-917504,111,-56,-1,-1,0
1523614717640,-851968,111,-56,-1,-1,0
1523614717640,-851968,111,-56,-1,-1,0
1523614717680,-851968,111,-56,-1,-1,0
1523614717680,-917504,111,-56,-1,-1,0
1523614717680,-983040,111,-56,-1,-1,0
1523614717680,-983040,111,-56,-1,-1,0
1523614717680,-851968,111,-56,-1,-1,0
1523614717720,-786432,111,-56,-1,-1,0
1523614717720,-786432,111,-56,-1,-1,0
1523614717720,-917504,111,-56,-1,-1,0
1523614717720,-983040,111,-56,-1,-1,0
1523614717720,-983040,111,-56,-1,-1,0
1523614717760,-983040,111,-56,-1,-1,0
1523614717760,-1114112,111,-56,-1,-1,0
1523614717760,-1179648,111,-56,-1,-1,0
1523614717760,-1048576,111,-56,-1,-1,0
1523614717760,-983040,111,-56,-1,-1,0
1523614717800,-917504,111,-56,-1,-1,0
1523614717800,-917504,111,-56,-1,-1,0
1523614717800,-917504,111,-56,-1,-1,0
1523614717800,-851968,111,-56,-1,-1,0
1523614717800,-917504,111,-56,-1,-1,0
1523614717840,-917504,111,-56,-1,-1,0
1523614717840,-983040,111,-56,-1,-1,0
1523614717840,-1245184,111,-56,-1,-1,0
1523614717840,-1179648,111,-56,-1,-1,0
1523614717840,1507328,111,-56,-1,-1,0
1523614717880,6946816,111,-56,-1,-1,0
1523614717880,9306112,111,-56,-1,-1,0
1523614717880,4849664,111,-56,-1,-1,0
1523614717880,-393216,111,-56,-1,-1,0
1523614717880,-1310720,111,-56,-1,-1,0
1523614717921,-786432,111,-56,-1,-1,0
1523614717921,-720896,111,-56,-1,-1,0
1523614717921,-720896,111,-56,-1,-1,0
1523614717921,-655360,111,-56,-1,-1,0
1523614717921,-720896,111,-56,-1,-1,0
1523614717961,-655360,111,-56,-1,-1,0
1523614717961,-655360,111,-56,-1,-1,0
1523614717961,-589824,111,-56,-1,-1,0
1523614717961,-589824,111,-56,-1,-1,0
1523614717961,-393216,111,-56,-1,-1,0
1523614718000,-393216,111,-56,-1,-1,0
1523614718000,-327680,111,-56,-1,-1,0
1523614718000,-196608,111,-56,-1,-1,0
1523614718000,0,111,-56,-1,-1,0
1523614718000,262144,111,-56,-1,-1,0
1523614718041,458752,111,-56,-1,-1,0
1523614718041,589824,111,-56,-1,-1,0
1523614718041,786432,111,-56,-1,-1,0
1523614718041,851968,111,-56,-1,-1,0
1523614718041,851968,111,-56,-1,-1,0
1523614718083,720896,111,-56,-1,-1,0
1523614718083,589824,111,-56,-1,-1,0
1523614718083,393216,111,-56,-1,-1,0
1523614718083,196608,111,-56,-1,-1,0
1523614718083,0,111,-56,-1,-1,0
1523614718123,-327680,111,-56,-1,-1,0
1523614718123,-655360,111,-56,-1,-1,0
1523614718123,-851968,111,-56,-1,-1,0
1523614718123,-917504,111,-56,-1,-1,0
1523614718123,-983040,111,-56,-1,-1,0
1523614718161,-851968,111,-56,-1,-1,0
1523614718161,-851968,111,-56,-1,-1,0
1523614718161,-917504,111,-56,-1,-1,0
1523614718161,-983040,111,-56,-1,-1,0
1523614718161,-917504,111,-56,-1,-1,0
1523614718200,-1048576,111,-56,-1,-1,0
1523614718200,-1114112,111,-56,-1,-1,0
1523614718200,-1048576,111,-56,-1,-1,0
1523614718200,-917504,111,-56,-1,-1,0
1523614718200,-983040,111,-56,-1,-1,0
1523614718240,-1048576,111,-56,-1,-1,0
1523614718240,-983040,111,-56,-1,-1,0
1523614718240,-983040,111,-56,-1,-1,0
1523614718240,-1114112,111,-56,-1,-1,0
1523614718240,-1179648,111,-56,-1,-1,0
1523614718280,-1114112,110,-56,-1,-1,0
1523614718280,-1114112,110,-56,-1,-1,0
1523614718280,-1114112,110,-56,-1,-1,0
1523614718280,-1114112,110,-56,-1,-1,0
1523614718280,-1179648,110,-56,-1,-1,0
1523614718320,-1179648,110,-56,-1,-1,0
1523614718320,-1310720,110,-56,-1,-1,0
1523614718320,-1441792,110,-56,-1,-1,0
1523614718320,-1507328,110,-56,-1,-1,0
1523614718320,-1376256,110,-56,-1,-1,0
1523614718360,-1179648,110,-56,-1,-1,0
1523614718360,-1179648,110,-56,-1,-1,0
1523614718360,-1310720,110,-56,-1,-1,0
1523614718360,-1441792,110,-56,-1,-1,0
1523614718360,-1310720,110,-56,-1,-1,0
1523614718403,-1245184,110,-56,-1,-1,0
1523614718403,-1310720,110,-56,-1,-1,0
1523614718403,-1441792,110,-56,-1,-1,0
1523614718403,-1703936,110,-56,-1,-1,0
1523614718403,-1638400,110,-56,-1,-1,0
1523614718440,917504,110,-56,-1,-1,0
1523614718440,6160384,110,-56,-1,-1,0
1523614718440,8519680,110,-56,-1,-1,0
1523614718440,4325376,110,-56,-1,-1,0
1523614718440,-655360,110,-56,-1,-1,0
1523614718480,-1507328,110,-56,-1,-1,0
1523614718480,-1048576,110,-56,-1,-1,0
1523614718480,-983040,110,-56,-1,-1,0
1523614718480,-983040,110,-56,-1,-1,0
1523614718480,-917504,110,-56,-1,-1,0
1523614718520,-917504,110,-56,-1,-1,0
1523614718520,-851968,110,-56,-1,-1,0
1523614718520,-851968,110,-56,-1,-1,0
1523614718520,-786432,110,-56,-1,-1,0
1523614718520,-655360,110,-56,-1,-1,0
1523614718560,-524288,110,-56,-1,-1,0
1523614718560,-458752,110,-56,-1,-1,0
1523614718560,-327680,110,-56,-1,-1,0
1523614718560,-196608,110,-56,-1,-1,0
1523614718560,0,110,-56,-1,-1,0
1523614718600,65536,110,-56,-1,-1,0
1523614718600,327680,110,-56,-1,-1,0
1523614718600,524288,110,-56,-1,-1,0
1523614718600,655360,110,-56,-1,-1,0
1523614718600,786432,110,-56,-1,-1,0
1523614718640,917504,110,-56,-1,-1,0
1523614718640,786432,110,-56,-1,-1,0
1523614718640,524288,110,-56,-1,-1,0
1523614718640,327680,110,-56,-1,-1,0
1523614718640,196608,110,-56,-1,-1,0
1523614718681,131072,110,-56,-1,-1,0
1523614718681,-65536,110,-56,-1,-1,0
1523614718681,-262144,110,-56,-1,-1,0
1523614718681,-393216,110,-56,-1,-1,0
1523614718681,-458752,110,-56,-1,-1,0
1523614718723,-589824,110,-56,-1,-1,0
1523614718723,-655360,110,-56,-1,-1,0
1523614718723,-655360,110,-56,-1,-1,0
1523614718723,-589824,110,-56,-1,-1,0
1523614718723,-589824,110,-56,-1,-1,0
1523614718760,-524288,110,-56,-1,-1,0
1523614718760,-524288,110,-56,-1,-1,0
1523614718760,-524288,110,-56,-1,-1,0
1523614718760,-458752,110,-56,-1,-1,0
1523614718760,-393216,110,-56,-1,-1,0
1523614718801,-393216,110,-56,-1,-1,0
1523614718801,-458752,110,-56,-1,-1,0
1523614718801,-458752,110,-56,-1,-1,0
1523614718801,-524288,110,-56,-1,-1,0
1523614718801,-589824,110,-56,-1,-1,0
1523614718840,-524288,109,-56,-1,-1,0
1523614718840,-458752,109,-56,-1,-1,0
1523614718840,-524288,109,-56,-1,-1,0
1523614718840,-589824,109,-56,-1,-1,0
1523614718840,-589824,109,-56,-1,-1,0
1523614718880,-524288,109,-56,-1,-1,0
1523614718880,-589824,109,-56,-1,-1,0
1523614718880,-655360,109,-56,-1,-1,0
1523614718880,-851968,109,-56,-1,-1,0
1523614718880,-851968,109,-56,-1,-1,0
1523614718920,-655360,109,-56,-1,-1,0
1523614718920,-458752,109,-56,-1,-1,0
1523614718920,-589824,109,-56,-1,-1,0
1523614718920,-786432,109,-56,-1,-1,0
1523614718920,-786432,109,-56,-1,-1,0
1523614718960,-524288,109,-56,-1,-1,0
1523614718960,-327680,109,-56,-1,-1,0
1523614718960,-327680,109,-56,-1,-1,0
1523614718960,-655360,109,-56,-1,-1,0
1523614718960,-786432,109,-56,-1,-1,0
1523614719001,524288,109,-56,-1,-1,0
1523614719001,5111808,109,-56,-1,-1,0
1523614719001,9437184,109,-56,-1,-1,0
1523614719001,7208960,109,-56,-1,-1,0
1523614719001,1703936,109,-56,-1,-1,0
1523614719040,-983040,109,-56,-1,-1,0
1523614719040,-524288,109,-56,-1,-1,0
1523614719040,-131072,109,-56,-1,-1,0
1523614719040,-196608,109,-56,-1,-1,0
1523614719040,-262144,109,-56,-1,-1,0
1523614719081,-262144,109,-56,-1,-1,0
1523614719081,-65536,109,-56,-1,-1,0
1523614719081,0,109,-56,-1,-1,0
1523614719081,131072,109,-56,-1,-1,0
1523614719081,65536,109,-56,-1,-1,0
1523614719120,0,109,-56,-1,-1,0
1523614719120,0,109,-56,-1,-1,0
1523614719120,131072,109,-56,-1,-1,0
1523614719120,327680,109,-56,-1,-1,0
1523614719120,524288,109,-56,-1,-1,0
1523614719160,720896,109,-56,-1,-1,0
1523614719160,917504,109,-56,-1,-1,0
1523614719160,1114112,109,-56,-1,-1,0
1523614719160,1310720,109,-56,-1,-1,0
1523614719160,1507328,109,-56,-1,-1,0
1523614719200,1507328,109,-56,-1,-1,0
1523614719200,1441792,109,-56,-1,-1,0
1523614719200,1245184,109,-56,-1,-1,0
1523614719200,1048576,109,-56,-1,-1,0
1523614719200,851968,109,-56,-1,-1,0
1523614719240,720896,109,-56,-1,-1,0
1523614719240,524288,109,-56,-1,-1,0
1523614719240,393216,109,-56,-1,-1,0
1523614719240,196608,109,-56,-1,-1,0
1523614719240,0,109,-56,-1,-1,0
1523614719280,-262144,109,-56,-1,-1,0
1523614719280,-327680,109,-56,-1,-1,0
1523614719280,-196608,109,-56,-1,-1,0
1523614719280,-65536,109,-56,-1,-1,0
1523614719280,0,109,-56,-1,-1,0
1523614719320,0,109,-56,-1,-1,0
1523614719320,65536,109,-56,-1,-1,0
1523614719320,131072,109,-56,-1,-1,0
1523614719320,0,109,-56,-1,-1,0
1523614719320,-131072,109,-56,-1,-1,0
1523614719361,0,109,-56,-1,-1,0
1523614719361,65536,109,-56,-1,-1,0
1523614719361,0,109,-56,-1,-1,0
1523614719361,-65536,109,-56,-1,-1,0
1523614719361,0,109,-56,-1,-1,0
1523614719400,65536,108,-56,-1,-1,0
1523614719400,131072,108,-56,-1,-1,0
1523614719400,131072,108,-56,-1,-1,0
1523614719400,65536,108,-56,-1,-1,0
1523614719400,0,108,-56,-1,-1,0
1523614719440,-65536,108,-56,-1,-1,0
1523614719440,-65536,108,-56,-1,-1,0
1523614719440,-131072,108,-56,-1,-1,0
1523614719440,-196608,108,-56,-1,-1,0
1523614719440,-196608,108,-56,-1,-1,0
1523614719480,-262144,108,-56,-1,-1,0
1523614719480,-327680,108,-56,-1,-1,0
1523614719480,-458752,108,-56,-1,-1,0
1523614719480,-393216,108,-56,-1,-1,0
1523614719480,-262144,108,-56,-1,-1,0
1523614719520,-65536,108,-56,-1,-1,0
1523614719520,-65536,108,-56,-1,-1,0
1523614719520,-131072,108,-56,-1,-1,0
1523614719520,-458752,108,-56,-1,-1,0
1523614719520,-720896,108,-56,-1,-1,0
1523614719560,720896,108,-56,-1,-1,0
1523614719560,5636096,108,-56,-1,-1,0
1523614719560,9961472,108,-56,-1,-1,0
1523614719560,7208960,108,-56,-1,-1,0
1523614719560,1376256,108,-56,-1,-1,0
1523614719600,-851968,108,-56,-1,-1,0
1523614719600,-262144,108,-56,-1,-1,0
1523614719600,0,108,-56,-1,-1,0
1523614719600,0,108,-56,-1,-1,0
1523614719600,-131072,108,-56,-1,-1,0
1523614719640,-196608,108,-56,-1,-1,0
1523614719640,-65536,108,-56,-1,-1,0
1523614719640,0,108,-56,-1,-1,0
1523614719640,0,108,-56,-1,-1,0
1523614719640,-65536,108,-56,-1,-1,0
1523614719680,0,108,-56,-1,-1,0
1523614719680,65536,108,-56,-1,-1,0
1523614719680,262144,108,-56,-1,-1,0
1523614719680,196608,108,-56,-1,-1,0
1523614719680,458752,108,-56,-1,-1,0
1523614719720,720896,108,-56,-1,-1,0
1523614719720,983040,108,-56,-1,-1,0
1523614719720,1310720,108,-56,-1,-1,0
1523614719720,1638400,108,-56,-1,-1,0
1523614719720,1703936,108,-56,-1,-1,0
1523614719760,1638400,108,-56,-1,-1,0
1523614719760,1507328,108,-56,-1,-1,0
1523614719760,1376256,108,-56,-1,-1,0
1523614719760,983040,108,-56,-1,-1,0
1523614719760,786432,108,-56,-1,-1,0
1523614719801,720896,108,-56,-1,-1,0
1523614719801,327680,108,-56,-1,-1,0
1523614719801,0,108,-56,-1,-1,0
1523614719801,-196608,108,-56,-1,-1,0
1523614719801,-196608,108,-56,-1,-1,0
1523614719840,-327680,108,-56,-1,-1,0
1523614719840,-589824,108,-56,-1,-1,0
1523614719840,-524288,108,-56,-1,-1,0
1523614719840,-327680,108,-56,-1,-1,0
1523614719840,-327680,108,-56,-1,-1,0
1523614719880,-327680,108,-56,-1,-1,0
1523614719880,-327680,108,-56,-1,-1,0
1523614719880,-327680,108,-56,-1,-1,0
1523614719880,-393216,108,-56,-1,-1,0
1523614719880,-393216,108,-56,-1,-1,0
1523614719920,-327680,108,-56,-1,-1,0
1523614719920,-262144,108,-56,-1,-1,0
1523614719920,-262144,108,-56,-1,-1,0
1523614719920,-327680,108,-56,-1,-1,0
1523614719920,-393216,108,-56,-1,-1,0
1523614719960,-393216,107,-56,-1,-1,0
1523614719960,-458752,107,-56,-1,-1,0
1523614719960,-458752,107,-56,-1,-1,0
1523614719960,-589824,107,-56,-1,-1,0
1523614719960,-655360,107,-56,-1,-1,0
1523614720001,-720896,107,-56,-1,-1,0
1523614720001,-655360,107,-56,-1,-1,0
1523614720001,-589824,107,-56,-1,-1,0
1523614720001,-655360,107,-56,-1,-1,0
1523614720001,-655360,107,-56,-1,-1,0
1523614720040,-655360,107,-56,-1,-1,0
1523614720040,-589824,107,-56,-1,-1,0
1523614720040,-720896,107,-56,-1,-1,0
1523614720040,-786432,107,-56,-1,-1,0
1523614720040,-655360,107,-56,-1,-1,0
1523614720080,-655360,107,-56,-1,-1,0
1523614720080,-655360,107,-56,-1,-1,0
1523614720080,-720896,107,-56,-1,-1,0
1523614720080,-983040,107,-56,-1,-1,0
1523614720080,-524288,107,-56,-1,-1,0
1523614720120,3080192,107,-56,-1,-1,0
1523614720120,8257536,107,-56,-1,-1,0
1523614720120,7995392,107,-56,-1,-1,0
1523614720120,2621440,107,-56,-1,-1,0
1523614720120,-1245184,107,-56,-1,-1,0
1523614720161,-1114112,107,-56,-1,-1,0
1523614720161,-524288,107,-56,-1,-1,0
1523614720161,-393216,107,-56,-1,-1,0
1523614720161,-393216,107,-56,-1,-1,0
1523614720161,-458752,107,-56,-1,-1,0
1523614720200,-524288,107,-56,-1,-1,0
1523614720200,-589824,107,-56,-1,-1,0
1523614720200,-524288,107,-56,-1,-1,0
1523614720200,-524288,107,-56,-1,-1,0
1523614720200,-327680,107,-56,-1,-1,0
1523614720240,-131072,107,-56,-1,-1,0
1523614720240,0,107,-56,-1,-1,0
1523614720240,0,107,-56,-1,-1,0
1523614720240,0,107,-56,-1,-1,0
1523614720240,131072,107,-56,-1,-1,0
1523614720280,262144,107,-56,-1,-1,0
1523614720280,524288,107,-56,-1,-1,0
1523614720280,786432,107,-56,-1,-1,0
1523614720280,1179648,107,-56,-1,-1,0
1523614720280,1245184,107,-56,-1,-1,0
1523614720320,1179648,107,-56,-1,-1,0
1523614720320,917504,107,-56,-1,-1,0
1523614720320,786432,107,-56,-1,-1,0
1523614720320,589824,107,-56,-1,-1,0
1523614720320,393216,107,-56,-1,-1,0
1523614720360,196608,107,-56,-1,-1,0
1523614720360,0,107,-56,-1,-1,0
1523614720360,-393216,107,-56,-1,-1,0
1523614720360,-655360,107,-56,-1,-1,0
1523614720360,-720896,107,-56,-1,-1,0
1523614720400,-458752,107,-56,-1,-1,0
1523614720400,-327680,107,-56,-1,-1,0
1523614720400,-524288,107,-56,-1,-1,0
1523614720400,-655360,107,-56,-1,-1,0
1523614720400,-655360,107,-56,-1,-1,0
1523614720440,-524288,107,-56,-1,-1,0
1523614720440,-458752,107,-56,-1,-1,0
1523614720440,-524288,107,-56,-1,-1,0
1523614720440,-524288,107,-56,-1,-1,0
1523614720440,-393216,107,-56,-1,-1,0
1523614720480,-393216,107,-56,-1,-1,0
1523614720480,-655360,107,-56,-1,-1,0
1523614720480,-720896,107,-56,-1,-1,0
1523614720480,-458752,107,-56,-1,-1,0
1523614720480,-327680,107,-56,-1,-1,0
1523614720520,-327680,107,-56,-1,-1,0
1523614720520,-393216,107,-56,-1,-1,0
1523614720520,-262144,107,-56,-1,-1,0
1523614720520,-262144,107,-56,-1,-1,0
1523614720520,-524288,107,-56,-1,-1,0
1523614720560,-720896,107,-56,-1,-1,0
1523614720560,-786432,107,-56,-1,-1,0
1523614720560,-851968,107,-56,-1,-1,0
1523614720560,-851968,107,-56,-1,-1,0
1523614720560,-720896,107,-56,-1,-1,0
1523614720600,-524288,107,-56,-1,-1,0
1523614720600,-458752,107,-56,-1,-1,0
1523614720600,-524288,107,-56,-1,-1,0
1523614720600,-655360,107,-56,-1,-1,0
1523614720600,-589824,107,-56,-1,-1,0
1523614720641,-589824,107,-56,-1,-1,0
1523614720641,-720896,107,-56,-1,-1,0
1523614720641,-983040,107,-56,-1,-1,0
1523614720641,-983040,107,-56,-1,-1,0
1523614720641,1769472,107,-56,-1,-1,0
1523614720680,7471104,107,-56,-1,-1,0
1523614720680,9633792,107,-56,-1,-1,0
1523614720680,4980736,107,-56,-1,-1,0
1523614720680,-262144,107,-56,-1,-1,0
1523614720680,-1179648,107,-56,-1,-1,0
1523614720720,-655360,107,-56,-1,-1,0
1523614720720,-393216,107,-56,-1,-1,0
1523614720720,-393216,107,-56,-1,-1,0
1523614720720,-393216,107,-56,-1,-1,0
1523614720720,-327680,107,-56,-1,-1,0
1523614720761,-196608,107,-56,-1,-1,0
1523614720761,-196608,107,-56,-1,-1,0
1523614720761,-262144,107,-56,-1,-1,0
1523614720761,-327680,107,-56,-1,-1,0
1523614720761,-327680,107,-56,-1,-1,0
1523614720800,-327680,107,-56,-1,-1,0
1523614720800,0,107,-56,-1,-1,0
1523614720800,0,107,-56,-1,-1,0
1523614720800,262144,107,-56,-1,-1,0
1523614720800,589824,107,-56,-1,-1,0
1523614720840,917504,107,-56,-1,-1,0
1523614720840,1048576,107,-56,-1,-1,0
1523614720840,1310720,107,-56,-1,-1,0
1523614720840,1572864,107,-56,-1,-1,0
1523614720840,1572864,107,-56,-1,-1,0
1523614720881,1441792,107,-56,-1,-1,0
1523614720881,1114112,107,-56,-1,-1,0
1523614720881,917504,107,-56,-1,-1,0
1523614720881,851968,107,-56,-1,-1,0
1523614720881,655360,107,-56,-1,-1,0
1523614720920,327680,107,-56,-1,-1,0
1523614720920,0,107,-56,-1,-1,0
1523614720920,-327680,107,-56,-1,-1,0
1523614720920,-327680,107,-56,-1,-1,0
1523614720920,-196608,107,-56,-1,-1,0
1523614720961,-131072,107,-56,-1,-1,0
1523614720961,-262144,107,-56,-1,-1,0
1523614720961,-393216,107,-56,-1,-1,0
1523614720961,-458752,107,-56,-1,-1,0
1523614720961,-393216,107,-56,-1,-1,0
1523614721000,-262144,107,-56,-1,-1,0
1523614721000,-262144,107,-56,-1,-1,0
1523614721000,-262144,107,-56,-1,-1,0
1523614721000,-327680,107,-56,-1,-1,0
1523614721000,-262144,107,-56,-1,-1,0
1523614721040,-131072,107,-56,-1,-1,0
1523614721040,-327680,107,-56,-1,-1,0
1523614721040,-393216,107,-56,-1,-1,0
1523614721040,-458752,107,-56,-1,-1,0
1523614721040,-393216,107,-56,-1,-1,0
1523614721080,-262144,107,-56,-1,-1,0
1523614721080,-131072,107,-56,-1,-1,0
1523614721080,-262144,107,-56,-1,-1,0
1523614721080,-393216,107,-56,-1,-1,0
1523614721080,-393216,107,-56,-1,-1,0
1523614721120,-393216,107,-56,-1,-1,0
1523614721120,-589824,107,-56,-1,-1,0
1523614721120,-589824,107,-56,-1,-1,0
1523614721120,-458752,107,-56,-1,-1,0
1523614721120,-393216,107,-56,-1,-1,0
1523614721160,-458752,107,-56,-1,-1,0
1523614721160,-655360,107,-56,-1,-1,0
1523614721160,-786432,107,-56,-1,-1,0
1523614721160,-655360,107,-56,-1,-1,0
1523614721160,-393216,107,-56,-1,-1,0
1523614721200,-393216,107,-56,-1,-1,0
1523614721200,-917504,107,-56,-1,-1,0
1523614721200,-1114112,107,-56,-1,-1,0
1523614721200,589824,107,-56,-1,-1,0
1523614721200,5701632,107,-56,-1,-1,0
1523614721240,9895936,107,-56,-1,-1,0
1523614721240,7012352,107,-56,-1,-1,0
1523614721240,1179648,107,-56,-1,-1,0
1523614721240,-1114112,107,-56,-1,-1,0
1523614721240,-655360,107,-56,-1,-1,0
1523614721281,-458752,107,-56,-1,-1,0
1523614721281,-589824,107,-56,-1,-1,0
1523614721281,-458752,107,-56,-1,-1,0
1523614721281,-327680,107,-56,-1,-1,0
1523614721281,-327680,107,-56,-1,-1,0
1523614721320,-458752,107,-56,-1,-1,0
1523614721320,-327680,107,-56,-1,-1,0
1523614721320,-262144,107,-56,-1,-1,0
1523614721320,-327680,107,-56,-1,-1,0
1523614721320,-393216,107,-56,-1,-1,0
1523614721360,-196608,107,-56,-1,-1,0
1523614721360,65536,107,-56,-1,-1,0
1523614721360,393216,107,-56,-1,-1,0
1523614721360,589824,107,-56,-1,-1,0
1523614721360,851968,107,-56,-1,-1,0
1523614721400,983040,107,-56,-1,-1,0
1523614721400,1179648,107,-56,-1,-1,0
1523614721400,1310720,107,-56,-1,-1,0
1523614721400,1310720,107,-56,-1,-1,0
1523614721400,1245184,107,-56,-1,-1,0
1523614721440,1179648,107,-56,-1,-1,0
1523614721440,917504,107,-56,-1,-1,0
1523614721440,524288,107,-56,-1,-1,0
1523614721440,262144,107,-56,-1,-1,0
1523614721440,131072,107,-56,-1,-1,0
1523614721480,-65536,107,-56,-1,-1,0
1523614721480,-262144,107,-56,-1,-1,0
1523614721480,-327680,107,-56,-1,-1,0
1523614721480,-393216,107,-56,-1,-1,0
1523614721480,-589824,107,-56,-1,-1,0
1523614721520,-786432,107,-56,-1,-1,0
1523614721520,-851968,107,-56,-1,-1,0
1523614721520,-786432,107,-56,-1,-1,0
1523614721520,-655360,107,-56,-1,-1,0
1523614721520,-589824,107,-56,-1,-1,0
1523614721560,-655360,107,-56,-1,-1,0
1523614721560,-720896,107,-56,-1,-1,0
1523614721560,-720896,107,-56,-1,-1,0
1523614721560,-720896,107,-56,-1,-1,0
1523614721560,-589824,107,-56,-1,-1,0
1523614721600,-524288,107,-56,-1,-1,0
1523614721600,-524288,107,-56,-1,-1,0
1523614721600,-589824,107,-56,-1,-1,0
1523614721600,-720896,107,-56,-1,-1,0
1523614721600,-786432,107,-56,-1,-1,0
1523614721640,-655360,107,-56,-1,-1,0
1523614721640,-524288,107,-56,-1,-1,0
1523614721640,-720896,107,-56,-1,-1,0
1523614721640,-786432,107,-56,-1,-1,0
1523614721640,-786432,107,-56,-1,-1,0
1523614721680,-851968,107,-56,-1,-1,0
1523614721680,-917504,107,-56,-1,-1,0
1523614721680,-917504,107,-56,-1,-1,0
1523614721680,-851968,107,-56,-1,-1,0
1523614721680,-786432,107,-56,-1,-1,0
1523614721720,-720896,107,-56,-1,-1,0
1523614721720,-720896,107,-56,-1,-1,0
1523614721720,-786432,107,-56,-1,-1,0
1523614721720,-786432,107,-56,-1,-1,0
1523614721720,-720896,107,-56,-1,-1,0
1523614721760,-720896,107,-56,-1,-1,0
1523614721760,-1114112,107,-56,-1,-1,0
1523614721760,-1114112,107,-56,-1,-1,0
1523614721760,1376256,107,-56,-1,-1,0
1523614721760,6815744,107,-56,-1,-1,0
1523614721800,9437184,107,-56,-1,-1,0
1523614721800,5242880,107,-56,-1,-1,0
1523614721800,-65536,107,-56,-1,-1,0
1523614721800,-1179648,107,-56,-1,-1,0
1523614721800,-786432,107,-56,-1,-1,0
1523614721840,-655360,107,-56,-1,-1,0
1523614721840,-655360,107,-56,-1,-1,0
1523614721840,-589824,107,-56,-1,-1,0
1523614721840,-655360,107,-56,-1,-1,0
1523614721840,-524288,107,-56,-1,-1,0
1523614721880,-393216,107,-56,-1,-1,0
1523614721880,-327680,107,-56,-1,-1,0
1523614721880,-262144,107,-56,-1,-1,0
1523614721880,-131072,107,-56,-1,-1,0
1523614721880,-131072,107,-56,-1,-1,0
1523614721922,-65536,107,-56,-1,-1,0
1523614721922,0,107,-56,-1,-1,0
1523614721922,262144,107,-56,-1,-1,0
1523614721922,458752,107,-56,-1,-1,0
1523614721922,655360,107,-56,-1,-1,0
1523614721960,917504,107,-56,-1,-1,0
1523614721960,1245184,107,-56,-1,-1,0
1523614721960,1507328,107,-56,-1,-1,0
1523614721960,1638400,107,-56,-1,-1,0
1523614721960,1507328,107,-56,-1,-1,0
1523614722000,1310720,107,-56,-1,-1,0
1523614722000,1048576,107,-56,-1,-1,0
1523614722000,786432,107,-56,-1,-1,0
1523614722000,393216,107,-56,-1,-1,0
1523614722000,196608,107,-56,-1,-1,0
1523614722040,0,107,-56,-1,-1,0
1523614722040,-262144,107,-56,-1,-1,0
1523614722040,-524288,107,-56,-1,-1,0
1523614722040,-524288,107,-56,-1,-1,0
1523614722040,-524288,107,-56,-1,-1,0
1523614722080,-524288,107,-56,-1,-1,0
1523614722080,-524288,107,-56,-1,-1,0
1523614722080,-589824,107,-56,-1,-1,0
1523614722080,-720896,107,-56,-1,-1,0
1523614722080,-720896,107,-56,-1,-1,0
1523614722120,-589824,107,-56,-1,-1,0
1523614722120,-458752,107,-56,-1,-1,0
1523614722120,-458752,107,-56,-1,-1,0
1523614722120,-393216,107,-56,-1,-1,0
1523614722120,-327680,107,-56,-1,-1,0
1523614722160,-393216,107,-56,-1,-1,0
1523614722160,-393216,107,-56,-1,-1,0
1523614722160,-393216,107,-56,-1,-1,0
1523614722160,-327680,107,-56,-1,-1,0
1523614722160,-327680,107,-56,-1,-1,0
1523614722200,-327680,107,-56,-1,-1,0
1523614722200,-458752,107,-56,-1,-1,0
1523614722200,-524288,107,-56,-1,-1,0
1523614722200,-458752,107,-56,-1,-1,0
1523614722200,-524288,107,-56,-1,-1,0
1523614722240,-589824,107,-56,-1,-1,0
1523614722240,-589824,107,-56,-1,-1,0
1523614722240,-524288,107,-56,-1,-1,0
1523614722240,-589824,107,-56,-1,-1,0
1523614722240,-655360,107,-56,-1,-1,0
1523614722283,-524288,107,-56,-1,-1,0
1523614722283,-393216,107,-56,-1,-1,0
1523614722283,-327680,107,-56,-1,-1,0
1523614722283,-393216,107,-56,-1,-1,0
1523614722283,-458752,107,-56,-1,-1,0
1523614722320,-720896,107,-56,-1,-1,0
1523614722320,-983040,107,-56,-1,-1,0
1523614722320,0,107,-56,-1,-1,0
1523614722320,4259840,107,-56,-1,-1,0
1523614722320,8716288,107,-56,-1,-1,0
1523614722360,7012352,107,-56,-1,-1,0
1523614722360,1572864,107,-56,-1,-1,0
1523614722360,-1310720,107,-56,-1,-1,0
1523614722360,-720896,107,-56,-1,-1,0
1523614722360,-262144,107,-56,-1,-1,0
1523614722400,-196608,107,-56,-1,-1,0
1523614722400,-131072,107,-56,-1,-1,0
1523614722400,-65536,107,-56,-1,-1,0
1523614722400,-65536,107,-56,-1,-1,0
1523614722400,-131072,107,-56,-1,-1,0
1523614722440,-65536,107,-56,-1,-1,0
1523614722440,0,107,-56,-1,-1,0
1523614722440,0,107,-56,-1,-1,0
1523614722440,65536,107,-56,-1,-1,0
1523614722440,131072,107,-56,-1,-1,0
1523614722486,262144,107,-56,-1,-1,0
1523614722486,524288,107,-56,-1,-1,0
1523614722486,786432,107,-56,-1,-1,0
1523614722486,1048576,107,-56,-1,-1,0
1523614722486,1310720,107,-56,-1,-1,0
1523614722520,1638400,107,-56,-1,-1,0
1523614722520,1900544,107,-56,-1,-1,0
1523614722520,1966080,107,-56,-1,-1,0
1523614722520,1900544,107,-56,-1,-1,0
1523614722520,1703936,107,-56,-1,-1,0
1523614722561,1441792,107,-56,-1,-1,0
1523614722561,1179648,107,-56,-1,-1,0
1523614722561,786432,107,-56,-1,-1,0
1523614722561,327680,107,-56,-1,-1,0
1523614722561,0,107,-56,-1,-1,0
1523614722601,-327680,107,-56,-1,-1,0
1523614722601,-458752,107,-56,-1,-1,0
1523614722601,-524288,107,-56,-1,-1,0
1523614722601,-720896,107,-56,-1,-1,0
1523614722601,-851968,107,-56,-1,-1,0
1523614722640,-851968,107,-56,-1,-1,0
1523614722640,-786432,107,-56,-1,-1,0
1523614722640,-786432,107,-56,-1,-1,0
1523614722640,-851968,107,-56,-1,-1,0
1523614722640,-917504,107,-56,-1,-1,0
1523614722684,-786432,107,-56,-1,-1,0
1523614722684,-655360,107,-56,-1,-1,0
1523614722684,-524288,107,-56,-1,-1,0
1523614722684,-524288,107,-56,-1,-1,0
1523614722684,-524288,107,-56,-1,-1,0
1523614722720,-524288,107,-56,-1,-1,0
1523614722720,-524288,107,-56,-1,-1,0
1523614722720,-524288,107,-56,-1,-1,0
1523614722720,-458752,107,-56,-1,-1,0
1523614722720,-524288,107,-56,-1,-1,0
1523614722760,-655360,107,-56,-1,-1,0
1523614722760,-655360,107,-56,-1,-1,0
1523614722760,-655360,107,-56,-1,-1,0
1523614722760,-786432,107,-56,-1,-1,0
1523614722760,-851968,107,-56,-1,-1,0
1523614722800,-720896,107,-56,-1,-1,0
1523614722800,-655360,107,-56,-1,-1,0
1523614722800,-720896,107,-56,-1,-1,0
1523614722800,-786432,107,-56,-1,-1,0
1523614722800,-786432,107,-56,-1,-1,0
1523614722841,-851968,107,-56,-1,-1,0
1523614722841,-917504,107,-56,-1,-1,0
1523614722841,-851968,107,-56,-1,-1,0
1523614722841,-1048576,107,-56,-1,-1,0
1523614722841,-1310720,107,-56,-1,-1,0
1523614722880,-786432,107,-56,-1,-1,0
1523614722880,2424832,107,-56,-1,-1,0
1523614722880,6684672,107,-56,-1,-1,0
1523614722880,6094848,107,-56,-1,-1,0
1523614722880,1376256,107,-56,-1,-1,0
1523614722920,-1769472,107,-56,-1,-1,0
1523614722920,-1376256,107,-56,-1,-1,0
1523614722920,-917504,107,-56,-1,-1,0
1523614722920,-917504,107,-56,-1,-1,0
1523614722920,-851968,107,-56,-1,-1,0
1523614722961,-786432,107,-56,-1,-1,0
1523614722961,-786432,107,-56,-1,-1,0
1523614722961,-720896,107,-56,-1,-1,0
1523614722961,-589824,107,-56,-1,-1,0
1523614722961,-720896,107,-56,-1,-1,0
1523614723000,-720896,107,-56,-1,-1,0
1523614723000,-524288,107,-56,-1,-1,0
1523614723000,-327680,107,-56,-1,-1,0
1523614723000,-196608,107,-56,-1,-1,0
1523614723000,-65536,107,-56,-1,-1,0
1523614723041,65536,107,-56,-1,-1,0
1523614723041,393216,107,-56,-1,-1,0
1523614723041,720896,107,-56,-1,-1,0
1523614723041,983040,107,-56,-1,-1,0
1523614723041,1114112,107,-56,-1,-1,0
1523614723080,1310720,107,-56,-1,-1,0
1523614723080,1441792,107,-56,-1,-1,0
1523614723080,1441792,107,-56,-1,-1,0
1523614723080,1245184,107,-56,-1,-1,0
1523614723080,851968,107,-56,-1,-1,0
1523614723121,393216,107,-56,-1,-1,0
1523614723121,-65536,107,-56,-1,-1,0
1523614723121,-524288,107,-56,-1,-1,0
1523614723121,-917504,107,-56,-1,-1,0
1523614723121,-917504,107,-56,-1,-1,0
1523614723160,-851968,107,-56,-1,-1,0
1523614723160,-983040,107,-56,-1,-1,0
1523614723160,-1179648,107,-56,-1,-1,0
1523614723160,-1245184,107,-56,-1,-1,0
1523614723160,-1179648,107,-56,-1,-1,0
1523614723201,-1245184,107,-56,-1,-1,0
1523614723201,-1179648,107,-56,-1,-1,0
1523614723201,-1048576,107,-56,-1,-1,0
1523614723201,-983040,107,-56,-1,-1,0
1523614723201,-851968,107,-56,-1,-1,0
1523614723241,-720896,107,-56,-1,-1,0
1523614723241,-524288,107,-56,-1,-1,0
1523614723241,-524288,107,-56,-1,-1,0
1523614723241,-589824,107,-56,-1,-1,0
1523614723241,-589824,107,-56,-1,-1,0
1523614723280,-589824,107,-56,-1,-1,0
1523614723280,-524288,107,-56,-1,-1,0
1523614723280,-655360,107,-56,-1,-1,0
1523614723280,-720896,107,-56,-1,-1,0
1523614723280,-851968,107,-56,-1,-1,0
1523614723321,-786432,107,-56,-1,-1,0
1523614723321,-786432,107,-56,-1,-1,0
1523614723321,-917504,107,-56,-1,-1,0
1523614723321,-983040,107,-56,-1,-1,0
1523614723321,-917504,107,-56,-1,-1,0
1523614723360,-851968,107,-56,-1,-1,0
1523614723360,-917504,107,-56,-1,-1,0
1523614723360,-917504,107,-56,-1,-1,0
1523614723360,-983040,107,-56,-1,-1,0
1523614723360,-983040,107,-56,-1,-1,0
1523614723400,-1048576,107,-56,-1,-1,0
1523614723400,-983040,107,-56,-1,-1,0
1523614723400,-1179648,107,-56,-1,-1,0
1523614723400,-1572864,107,-56,-1,-1,0
1523614723400,-1114112,107,-56,-1,-1,0
1523614723440,2424832,107,-56,-1,-1,0
1523614723440,7340032,107,-56,-1,-1,0
1523614723440,7274496,107,-56,-1,-1,0
1523614723440,2424832,107,-56,-1,-1,0
1523614723440,-1310720,107,-56,-1,-1,0
1523614723480,-1245184,107,-56,-1,-1,0
1523614723480,-851968,107,-56,-1,-1,0
1523614723480,-851968,107,-56,-1,-1,0
1523614723480,-786432,107,-56,-1,-1,0
1523614723480,-917504,107,-56,-1,-1,0
1523614723521,-983040,107,-56,-1,-1,0
1523614723521,-983040,107,-56,-1,-1,0
1523614723521,-786432,107,-56,-1,-1,0
1523614723521,-655360,107,-56,-1,-1,0
1523614723521,-589824,107,-56,-1,-1,0
1523614723560,-524288,107,-56,-1,-1,0
1523614723560,-524288,107,-56,-1,-1,0
1523614723560,-393216,107,-56,-1,-1,0
1523614723560,-262144,107,-56,-1,-1,0
1523614723560,-65536,107,-56,-1,-1,0
1523614723600,65536,107,-56,-1,-1,0
1523614723600,458752,107,-56,-1,-1,0
1523614723600,851968,107,-56,-1,-1,0
1523614723600,1179648,107,-56,-1,-1,0
1523614723600,1179648,107,-56,-1,-1,0
1523614723640,1179648,107,-56,-1,-1,0
1523614723640,1179648,107,-56,-1,-1,0
1523614723640,1114112,107,-56,-1,-1,0
1523614723640,786432,107,-56,-1,-1,0
1523614723640,393216,107,-56,-1,-1,0
1523614723680,-65536,107,-56,-1,-1,0
1523614723680,-393216,107,-56,-1,-1,0
1523614723680,-786432,107,-56,-1,-1,0
1523614723680,-851968,107,-56,-1,-1,0
1523614723680,-917504,107,-56,-1,-1,0
1523614723720,-983040,107,-56,-1,-1,0
1523614723720,-1048576,107,-56,-1,-1,0
1523614723720,-1114112,107,-56,-1,-1,0
1523614723720,-1179648,107,-56,-1,-1,0
1523614723720,-1179648,107,-56,-1,-1,0
1523614723766,-1245184,107,-56,-1,-1,0
1523614723766,-1310720,107,-56,-1,-1,0
1523614723766,-1310720,107,-56,-1,-1,0
1523614723766,-1179648,107,-56,-1,-1,0
1523614723766,-917504,107,-56,-1,-1,0
1523614723800,-786432,107,-56,-1,-1,0
1523614723800,-786432,107,-56,-1,-1,0
1523614723800,-851968,107,-56,-1,-1,0
1523614723800,-786432,107,-56,-1,-1,0
1523614723800,-786432,107,-56,-1,-1,0
1523614723844,-851968,107,-56,-1,-1,0
1523614723844,-851968,107,-56,-1,-1,0
1523614723844,-786432,107,-56,-1,-1,0
1523614723844,-786432,107,-56,-1,-1,0
1523614723844,-917504,107,-56,-1,-1,0
1523614723880,-1114112,107,-56,-1,-1,0
1523614723880,-1048576,107,-56,-1,-1,0
1523614723880,-917504,107,-56,-1,-1,0
1523614723880,-786432,107,-56,-1,-1,0
1523614723880,-851968,107,-56,-1,-1,0
1523614723920,-851968,107,-56,-1,-1,0
1523614723920,-851968,107,-56,-1,-1,0
1523614723920,-851968,107,-56,-1,-1,0
1523614723920,-983040,107,-56,-1,-1,0
1523614723920,-1048576,107,-56,-1,-1,0
1523614723966,-786432,107,-56,-1,-1,0
1523614723966,-720896,107,-56,-1,-1,0
1523614723966,-1114112,107,-56,-1,-1,0
1523614723966,-1310720,107,-56,-1,-1,0
1523614723966,589824,107,-56,-1,-1,0
1523614724000,5242880,107,-56,-1,-1,0
1523614724000,8060928,107,-56,-1,-1,0
1523614724000,4849664,107,-56,-1,-1,0
1523614724000,262144,107,-56,-1,-1,0
1523614724000,-983040,107,-56,-1,-1,0
1523614724041,-720896,107,-56,-1,-1,0
1523614724041,-524288,107,-56,-1,-1,0
1523614724041,-524288,107,-56,-1,-1,0
1523614724041,-524288,107,-56,-1,-1,0
1523614724041,-524288,107,-56,-1,-1,0
1523614724080,-458752,107,-56,-1,-1,0
1523614724080,-524288,107,-56,-1,-1,0
1523614724080,-524288,107,-56,-1,-1,0
1523614724080,-524288,107,-56,-1,-1,0
1523614724080,-262144,107,-56,-1,-1,0
1523614724120,-65536,107,-56,-1,-1,0
1523614724120,65536,107,-56,-1,-1,0
1523614724120,0,107,-56,-1,-1,0
1523614724120,0,107,-56,-1,-1,0
1523614724120,196608,107,-56,-1,-1,0
1523614724161,786432,107,-56,-1,-1,0
1523614724161,1179648,107,-56,-1,-1,0
1523614724161,1441792,107,-56,-1,-1,0
1523614724161,1769472,107,-56,-1,-1,0
1523614724161,1900544,107,-56,-1,-1,0
1523614724200,1900544,107,-56,-1,-1,0
1523614724200,1835008,107,-56,-1,-1,0
1523614724200,1441792,107,-56,-1,-1,0
1523614724200,786432,107,-56,-1,-1,0
1523614724200,327680,107,-56,-1,-1,0
1523614724244,65536,107,-56,-1,-1,0
1523614724244,0,107,-56,-1,-1,0
1523614724244,-262144,107,-56,-1,-1,0
1523614724244,-327680,107,-56,-1,-1,0
1523614724244,-458752,107,-56,-1,-1,0
1523614724280,-589824,107,-56,-1,-1,0
1523614724280,-589824,107,-56,-1,-1,0
1523614724280,-589824,107,-56,-1,-1,0
1523614724280,-655360,107,-56,-1,-1,0
1523614724280,-851968,107,-56,-1,-1,0
1523614724320,-851968,107,-56,-1,-1,0
1523614724320,-917504,107,-56,-1,-1,0
1523614724320,-655360,107,-56,-1,-1,0
1523614724320,-458752,107,-56,-1,-1,0
1523614724320,-458752,107,-56,-1,-1,0
1523614724360,-524288,107,-56,-1,-1,0
1523614724360,-655360,107,-56,-1,-1,0
1523614724360,-655360,107,-56,-1,-1,0
1523614724360,-589824,107,-56,-1,-1,0
1523614724360,-393216,107,-56,-1,-1,0
1523614724400,-393216,107,-56,-1,-1,0
1523614724400,-458752,107,-56,-1,-1,0
1523614724400,-524288,107,-56,-1,-1,0
1523614724400,-655360,107,-56,-1,-1,0
1523614724400,-655360,107,-56,-1,-1,0
1523614724440,-524288,107,-56,-1,-1,0
1523614724440,-589824,107,-56,-1,-1,0
1523614724440,-720896,107,-56,-1,-1,0
1523614724440,-786432,107,-56,-1,-1,0
1523614724440,-720896,107,-56,-1,-1,0
1523614724481,-720896,107,-56,-1,-1,0
1523614724481,-851968,107,-56,-1,-1,0
1523614724481,-851968,107,-56,-1,-1,0
1523614724481,-786432,107,-56,-1,-1,0
1523614724481,-720896,107,-56,-1,-1,0
1523614724521,-720896,107,-56,-1,-1,0
1523614724521,-851968,107,-56,-1,-1,0
1523614724521,-983040,107,-56,-1,-1,0
1523614724521,-1048576,107,-56,-1,-1,0
1523614724521,-655360,107,-56,-1,-1,0
1523614724560,1835008,107,-56,-1,-1,0
1523614724560,6422528,107,-56,-1,-1,0
1523614724560,7733248,107,-56,-1,-1,0
1523614724560,3670016,107,-56,-1,-1,0
1523614724560,-393216,107,-56,-1,-1,0
1523614724600,-786432,107,-56,-1,-1,0
1523614724600,-327680,107,-56,-1,-1,0
1523614724600,-327680,107,-56,-1,-1,0
1523614724600,-393216,107,-56,-1,-1,0
1523614724600,-393216,107,-56,-1,-1,0
1523614724640,-393216,107,-56,-1,-1,0
1523614724640,-327680,107,-56,-1,-1,0
1523614724640,-327680,107,-56,-1,-1,0
1523614724640,-393216,107,-56,-1,-1,0
1523614724640,-196608,107,-56,-1,-1,0
1523614724680,0,107,-56,-1,-1,0
1523614724680,0,107,-56,-1,-1,0
1523614724680,131072,107,-56,-1,-1,0
1523614724680,262144,107,-56,-1,-1,0
1523614724680,524288,107,-56,-1,-1,0
1523614724720,589824,107,-56,-1,-1,0
1523614724720,786432,107,-56,-1,-1,0
1523614724720,1179648,107,-56,-1,-1,0
1523614724720,1638400,107,-56,-1,-1,0
1523614724720,1835008,107,-56,-1,-1,0
1523614724760,1835008,107,-56,-1,-1,0
1523614724760,1769472,107,-56,-1,-1,0
1523614724760,1703936,107,-56,-1,-1,0
1523614724760,1441792,107,-56,-1,-1,0
1523614724760,1048576,107,-56,-1,-1,0
1523614724800,458752,107,-56,-1,-1,0
1523614724800,0,107,-56,-1,-1,0
1523614724800,-196608,107,-56,-1,-1,0
1523614724800,-327680,107,-56,-1,-1,0
1523614724800,-458752,107,-56,-1,-1,0
1523614724842,-589824,107,-56,-1,-1,0
1523614724842,-655360,107,-56,-1,-1,0
1523614724842,-786432,107,-56,-1,-1,0
1523614724842,-720896,107,-56,-1,-1,0
1523614724842,-851968,107,-56,-1,-1,0
1523614724880,-983040,107,-56,-1,-1,0
1523614724880,-1048576,107,-56,-1,-1,0
1523614724880,-917504,107,-56,-1,-1,0
1523614724880,-786432,107,-56,-1,-1,0
1523614724880,-720896,107,-56,-1,-1,0
1523614724920,-655360,107,-56,-1,-1,0
1523614724920,-589824,107,-56,-1,-1,0
1523614724920,-524288,107,-56,-1,-1,0
1523614724920,-524288,107,-56,-1,-1,0
1523614724920,-458752,107,-56,-1,-1,0
1523614724960,-458752,107,-56,-1,-1,0
1523614724960,-458752,107,-56,-1,-1,0
1523614724960,-589824,107,-56,-1,-1,0
1523614724960,-655360,107,-56,-1,-1,0
1523614724960,-655360,107,-56,-1,-1,0
1523614725000,-655360,107,-56,-1,-1,0
1523614725000,-720896,107,-56,-1,-1,0
1523614725000,-786432,107,-56,-1,-1,0
1523614725000,-720896,107,-56,-1,-1,0
1523614725000,-720896,107,-56,-1,-1,0
1523614725040,-786432,107,-56,-1,-1,0
1523614725040,-851968,107,-56,-1,-1,0
1523614725040,-851968,107,-56,-1,-1,0
1523614725040,-917504,107,-56,-1,-1,0
1523614725040,-917504,107,-56,-1,-1,0
1523614725080,-851968,107,-56,-1,-1,0
1523614725080,-851968,107,-56,-1,-1,0
1523614725080,-786432,107,-56,-1,-1,0
1523614725080,-851968,107,-56,-1,-1,0
1523614725080,-983040,107,-56,-1,-1,0
1523614725121,-917504,107,-56,-1,-1,0
1523614725121,-917504,107,-56,-1,-1,0
1523614725121,-1179648,107,-56,-1,-1,0
1523614725121,-589824,107,-56,-1,-1,0
1523614725121,3014656,107,-56,-1,-1,0
1523614725160,7667712,107,-56,-1,-1,0
1523614725160,7405568,107,-56,-1,-1,0
1523614725160,2752512,107,-56,-1,-1,0
1523614725160,-720896,107,-56,-1,-1,0
1523614725160,-786432,107,-56,-1,-1,0
1523614725200,-524288,107,-56,-1,-1,0
1523614725200,-655360,107,-56,-1,-1,0
1523614725200,-655360,107,-56,-1,-1,0
1523614725200,-589824,107,-56,-1,-1,0
1523614725200,-524288,107,-56,-1,-1,0
1523614725241,-524288,107,-56,-1,-1,0
1523614725241,-458752,107,-56,-1,-1,0
1523614725241,-393216,107,-56,-1,-1,0
1523614725241,-262144,107,-56,-1,-1,0
1523614725241,-262144,107,-56,-1,-1,0
1523614725280,-262144,107,-56,-1,-1,0
1523614725280,-131072,107,-56,-1,-1,0
1523614725280,0,107,-56,-1,-1,0
1523614725280,196608,107,-56,-1,-1,0
1523614725280,262144,107,-56,-1,-1,0
1523614725320,524288,107,-56,-1,-1,0
1523614725320,786432,107,-56,-1,-1,0
1523614725320,1114112,107,-56,-1,-1,0
1523614725320,1441792,107,-56,-1,-1,0
1523614725320,1703936,107,-56,-1,-1,0
1523614725360,1703936,107,-56,-1,-1,0
1523614725360,1507328,107,-56,-1,-1,0
1523614725360,1179648,107,-56,-1,-1,0
1523614725360,720896,107,-56,-1,-1,0
1523614725360,262144,107,-56,-1,-1,0
1523614725400,0,107,-56,-1,-1,0
1523614725400,-327680,107,-56,-1,-1,0
1523614725400,-589824,107,-56,-1,-1,0
1523614725400,-786432,107,-56,-1,-1,0
1523614725400,-917504,107,-56,-1,-1,0
1523614725440,-983040,107,-56,-1,-1,0
1523614725440,-917504,107,-56,-1,-1,0
1523614725440,-786432,107,-56,-1,-1,0
1523614725440,-720896,107,-56,-1,-1,0
1523614725440,-851968,107,-56,-1,-1,0
1523614725480,-1048576,107,-56,-1,-1,0
1523614725480,-1048576,107,-56,-1,-1,0
1523614725480,-983040,107,-56,-1,-1,0
1523614725480,-917504,107,-56,-1,-1,0
1523614725480,-851968,107,-56,-1,-1,0
1523614725520,-786432,107,-56,-1,-1,0
1523614725520,-786432,107,-56,-1,-1,0
1523614725520,-720896,107,-56,-1,-1,0
1523614725520,-786432,107,-56,-1,-1,0
1523614725520,-786432,107,-56,-1,-1,0
1523614725560,-851968,107,-56,-1,-1,0
1523614725560,-786432,107,-56,-1,-1,0
1523614725560,-655360,107,-56,-1,-1,0
1523614725560,-655360,107,-56,-1,-1,0
1523614725560,-851968,107,-56,-1,-1,0
1523614725600,-851968,107,-56,-1,-1,0
1523614725600,-786432,107,-56,-1,-1,0
1523614725600,-786432,107,-56,-1,-1,0
1523614725600,-917504,107,-56,-1,-1,0
1523614725600,-1048576,107,-56,-1,-1,0
1523614725640,-1114112,107,-56,-1,-1,0
1523614725640,-1114112,107,-56,-1,-1,0
1523614725640,-1179648,107,-56,-1,-1,0
1523614725640,-1114112,107,-56,-1,-1,0
1523614725640,-1048576,107,-56,-1,-1,0
1523614725680,-917504,107,-56,-1,-1,0
1523614725680,-917504,107,-56,-1,-1,0
1523614725680,-917504,107,-56,-1,-1,0
1523614725680,-983040,107,-56,-1,-1,0
1523614725680,-983040,107,-56,-1,-1,0
1523614725720,-983040,107,-56,-1,-1,0
1523614725720,-1114112,107,-56,-1,-1,0
1523614725720,-1245184,107,-56,-1,-1,0
1523614725720,-1507328,107,-56,-1,-1,0
1523614725720,-1114112,107,-56,-1,-1,0
1523614725761,1835008,107,-56,-1,-1,0
1523614725761,6750208,107,-56,-1,-1,0
1523614725761,8060928,107,-56,-1,-1,0
1523614725761,3801088,107,-56,-1,-1,0
1523614725761,-327680,107,-56,-1,-1,0
1523614725800,-917504,107,-56,-1,-1,0
1523614725800,-655360,107,-56,-1,-1,0
1523614725800,-720896,107,-56,-1,-1,0
1523614725800,-720896,107,-56,-1,-1,0
1523614725800,-589824,107,-56,-1,-1,0
1523614725843,-458752,107,-56,-1,-1,0
1523614725843,-458752,107,-56,-1,-1,0
1523614725843,-458752,107,-56,-1,-1,0
1523614725843,-524288,107,-56,-1,-1,0
1523614725843,-458752,107,-56,-1,-1,0
1523614725880,-262144,107,-56,-1,-1,0
1523614725880,-131072,107,-56,-1,-1,0
1523614725880,-131072,107,-56,-1,-1,0
1523614725880,-65536,107,-56,-1,-1,0
1523614725880,0,107,-56,-1,-1,0
1523614725920,262144,107,-56,-1,-1,0
1523614725920,720896,107,-56,-1,-1,0
1523614725920,1114112,107,-56,-1,-1,0
1523614725920,1310720,107,-56,-1,-1,0
1523614725920,1441792,107,-56,-1,-1,0
1523614725960,1638400,107,-56,-1,-1,0
1523614725960,1769472,107,-56,-1,-1,0
1523614725960,1769472,107,-56,-1,-1,0
1523614725960,1507328,107,-56,-1,-1,0
1523614725960,1179648,107,-56,-1,-1,0
1523614726001,720896,107,-56,-1,-1,0
1523614726001,262144,107,-56,-1,-1,0
1523614726001,-65536,107,-56,-1,-1,0
1523614726001,-327680,107,-56,-1,-1,0
1523614726001,-458752,107,-56,-1,-1,0
1523614726040,-589824,107,-56,-1,-1,0
1523614726040,-655360,107,-56,-1,-1,0
1523614726040,-524288,107,-56,-1,-1,0
1523614726040,-458752,107,-56,-1,-1,0
1523614726040,-458752,107,-56,-1,-1,0
1523614726081,-589824,107,-56,-1,-1,0
1523614726081,-655360,107,-56,-1,-1,0
1523614726081,-655360,107,-56,-1,-1,0
1523614726081,-655360,107,-56,-1,-1,0
1523614726081,-524288,107,-56,-1,-1,0
1523614726120,-524288,107,-56,-1,-1,0
1523614726120,-458752,107,-56,-1,-1,0
1523614726120,-458752,107,-56,-1,-1,0
1523614726120,-393216,107,-56,-1,-1,0
1523614726120,-327680,107,-56,-1,-1,0
1523614726160,-327680,107,-56,-1,-1,0
1523614726160,-327680,107,-56,-1,-1,0
1523614726160,-393216,107,-56,-1,-1,0
1523614726160,-393216,107,-56,-1,-1,0
1523614726160,-458752,107,-56,-1,-1,0
1523614726200,-393216,107,-56,-1,-1,0
1523614726200,-327680,107,-56,-1,-1,0
1523614726200,-327680,107,-56,-1,-1,0
1523614726200,-327680,107,-56,-1,-1,0
1523614726200,-393216,107,-56,-1,-1,0
1523614726240,-393216,107,-56,-1,-1,0
1523614726240,-393216,107,-56,-1,-1,0
1523614726240,-393216,107,-56,-1,-1,0
1523614726240,-458752,107,-56,-1,-1,0
1523614726240,-589824,107,-56,-1,-1,0
1523614726281,-589824,107,-56,-1,-1,0
1523614726281,-458752,107,-56,-1,-1,0
1523614726281,-524288,107,-56,-1,-1,0
1523614726281,-524288,107,-56,-1,-1,0
1523614726281,-524288,107,-56,-1,-1,0
1523614726320,-393216,107,-56,-1,-1,0
1523614726320,-327680,107,-56,-1,-1,0
1523614726320,-524288,107,-56,-1,-1,0
1523614726320,-589824,107,-56,-1,-1,0
1523614726320,-589824,107,-56,-1,-1,0
1523614726362,-589824,107,-56,-1,-1,0
1523614726362,-589824,107,-56,-1,-1,0
1523614726362,-589824,107,-56,-1,-1,0
1523614726362,-786432,107,-56,-1,-1,0
1523614726362,-1114112,107,-56,-1,-1,0
1523614726403,-524288,107,-56,-1,-1,0
1523614726403,3145728,107,-56,-1,-1,0
1523614726403,8060928,107,-56,-1,-1,0
1523614726403,7995392,107,-56,-1,-1,0
1523614726403,3145728,107,-56,-1,-1,0
1523614726443,-458752,107,-56,-1,-1,0
1523614726443,-524288,107,-56,-1,-1,0
1523614726443,-393216,107,-56,-1,-1,0
1523614726443,-458752,107,-56,-1,-1,0
1523614726443,-524288,107,-56,-1,-1,0
1523614726480,-524288,107,-56,-1,-1,0
1523614726480,-458752,107,-56,-1,-1,0
1523614726480,-393216,107,-56,-1,-1,0
1523614726480,-393216,107,-56,-1,-1,0
1523614726480,-393216,107,-56,-1,-1,0
1523614726520,-262144,107,-56,-1,-1,0
1523614726520,-196608,107,-56,-1,-1,0
1523614726520,-196608,107,-56,-1,-1,0
1523614726520,-131072,107,-56,-1,-1,0
1523614726520,65536,107,-56,-1,-1,0
1523614726560,327680,107,-56,-1,-1,0
1523614726560,589824,107,-56,-1,-1,0
1523614726560,786432,107,-56,-1,-1,0
1523614726560,983040,107,-56,-1,-1,0
1523614726560,1310720,107,-56,-1,-1,0
1523614726600,1638400,107,-56,-1,-1,0
1523614726600,1835008,107,-56,-1,-1,0
1523614726600,1769472,107,-56,-1,-1,0
1523614726600,1638400,107,-56,-1,-1,0
1523614726600,1376256,107,-56,-1,-1,0
1523614726640,983040,107,-56,-1,-1,0
1523614726640,524288,107,-56,-1,-1,0
1523614726640,65536,107,-56,-1,-1,0
1523614726640,-196608,107,-56,-1,-1,0
1523614726640,-458752,107,-56,-1,-1,0
1523614726681,-524288,107,-56,-1,-1,0
1523614726681,-458752,107,-56,-1,-1,0
1523614726681,-458752,107,-56,-1,-1,0
1523614726681,-458752,107,-56,-1,-1,0
1523614726681,-393216,107,-56,-1,-1,0
1523614726721,-524288,107,-56,-1,-1,0
1523614726721,-655360,107,-56,-1,-1,0
1523614726721,-720896,107,-56,-1,-1,0
1523614726721,-589824,107,-56,-1,-1,0
1523614726721,-524288,107,-56,-1,-1,0
1523614726761,-524288,107,-56,-1,-1,0
1523614726761,-524288,107,-56,-1,-1,0
1523614726761,-458752,107,-56,-1,-1,0
1523614726761,-393216,107,-56,-1,-1,0
1523614726761,-327680,107,-56,-1,-1,0
1523614726800,-262144,107,-56,-1,-1,0
1523614726800,-196608,107,-56,-1,-1,0
1523614726800,-262144,107,-56,-1,-1,0
1523614726800,-393216,107,-56,-1,-1,0
1523614726800,-393216,107,-56,-1,-1,0
1523614726840,-393216,107,-56,-1,-1,0
1523614726840,-262144,107,-56,-1,-1,0
1523614726840,-262144,107,-56,-1,-1,0
1523614726840,-262144,107,-56,-1,-1,0
1523614726840,-327680,107,-56,-1,-1,0
1523614726880,-393216,107,-56,-1,-1,0
1523614726880,-327680,107,-56,-1,-1,0
1523614726880,-262144,107,-56,-1,-1,0
1523614726880,-327680,107,-56,-1,-1,0
1523614726880,-458752,107,-56,-1,-1,0
1523614726920,-393216,107,-56,-1,-1,0
1523614726920,-327680,107,-56,-1,-1,0
1523614726920,-262144,107,-56,-1,-1,0
1523614726920,-262144,107,-56,-1,-1,0
1523614726920,-393216,107,-56,-1,-1,0
1523614726960,-458752,107,-56,-1,-1,0
1523614726960,-458752,107,-56,-1,-1,0
1523614726960,-458752,107,-56,-1,-1,0
1523614726960,-393216,107,-56,-1,-1,0
1523614726960,-327680,107,-56,-1,-1,0
1523614727000,-393216,107,-56,-1,-1,0
1523614727000,-393216,107,-56,-1,-1,0
1523614727000,-393216,107,-56,-1,-1,0
1523614727000,-327680,107,-56,-1,-1,0
1523614727000,-393216,107,-56,-1,-1,0
1523614727041,-720896,107,-56,-1,-1,0
1523614727041,-851968,107,-56,-1,-1,0
1523614727041,983040,107,-56,-1,-1,0
1523614727041,5898240,107,-56,-1,-1,0
1523614727041,9175040,107,-56,-1,-1,0
1523614727080,6094848,107,-56,-1,-1,0
1523614727080,1179648,107,-56,-1,-1,0
1523614727080,-327680,107,-56,-1,-1,0
1523614727080,0,107,-56,-1,-1,0
1523614727080,0,107,-56,-1,-1,0
1523614727121,-65536,107,-56,-1,-1,0
1523614727121,0,107,-56,-1,-1,0
1523614727121,0,107,-56,-1,-1,0
1523614727121,0,107,-56,-1,-1,0
1523614727121,65536,107,-56,-1,-1,0
1523614727160,131072,107,-56,-1,-1,0
1523614727160,131072,107,-56,-1,-1,0
1523614727160,131072,107,-56,-1,-1,0
1523614727160,65536,107,-56,-1,-1,0
1523614727160,262144,107,-56,-1,-1,0
1523614727200,393216,107,-56,-1,-1,0
1523614727200,524288,107,-56,-1,-1,0
1523614727200,589824,107,-56,-1,-1,0
1523614727200,851968,107,-56,-1,-1,0
1523614727200,1179648,107,-56,-1,-1,0
1523614727240,1572864,107,-56,-1,-1,0
1523614727240,1835008,107,-56,-1,-1,0
1523614727240,2031616,107,-56,-1,-1,0
1523614727240,2162688,107,-56,-1,-1,0
1523614727240,2162688,107,-56,-1,-1,0
1523614727281,1900544,107,-56,-1,-1,0
1523614727281,1507328,107,-56,-1,-1,0
1523614727281,1048576,107,-56,-1,-1,0
1523614727281,589824,107,-56,-1,-1,0
1523614727281,262144,107,-56,-1,-1,0
1523614727320,0,107,-56,-1,-1,0
1523614727320,-196608,107,-56,-1,-1,0
1523614727320,-327680,107,-56,-1,-1,0
1523614727320,-393216,107,-56,-1,-1,0
1523614727320,-393216,107,-56,-1,-1,0
1523614727360,-458752,107,-56,-1,-1,0
1523614727360,-589824,107,-56,-1,-1,0
1523614727360,-655360,107,-56,-1,-1,0
1523614727360,-655360,107,-56,-1,-1,0
1523614727360,-589824,107,-56,-1,-1,0
1523614727400,-655360,107,-56,-1,-1,0
1523614727400,-655360,107,-56,-1,-1,0
1523614727400,-655360,107,-56,-1,-1,0
1523614727400,-655360,107,-56,-1,-1,0
1523614727400,-655360,107,-56,-1,-1,0
1523614727441,-589824,107,-56,-1,-1,0
1523614727441,-458752,107,-56,-1,-1,0
1523614727441,-458752,107,-56,-1,-1,0
1523614727441,-524288,107,-56,-1,-1,0
1523614727441,-589824,107,-56,-1,-1,0
1523614727480,-655360,107,-56,-1,-1,0
1523614727480,-655360,107,-56,-1,-1,0
1523614727480,-589824,107,-56,-1,-1,0
1523614727480,-524288,107,-56,-1,-1,0
1523614727480,-589824,107,-56,-1,-1,0
1523614727520,-655360,107,-56,-1,-1,0
1523614727520,-720896,107,-56,-1,-1,0
1523614727520,-786432,107,-56,-1,-1,0
1523614727520,-786432,107,-56,-1,-1,0
1523614727520,-786432,107,-56,-1,-1,0
1523614727560,-851968,107,-56,-1,-1,0
1523614727560,-851968,107,-56,-1,-1,0
1523614727560,-786432,107,-56,-1,-1,0
1523614727560,-851968,107,-56,-1,-1,0
1523614727560,-983040,107,-56,-1,-1,0
1523614727601,-1048576,107,-56,-1,-1,0
1523614727601,-1114112,107,-56,-1,-1,0
1523614727601,-983040,107,-56,-1,-1,0
1523614727601,-917504,107,-56,-1,-1,0
1523614727601,-917504,107,-56,-1,-1,0
1523614727642,-917504,107,-56,-1,-1,0
1523614727642,-983040,107,-56,-1,-1,0
1523614727642,-983040,107,-56,-1,-1,0
1523614727642,-1048576,107,-56,-1,-1,0
1523614727642,-983040,107,-56,-1,-1,0
1523614727684,-983040,107,-56,-1,-1,0
1523614727684,-1179648,107,-56,-1,-1,0
1523614727684,-1376256,107,-56,-1,-1,0
1523614727684,-524288,107,-56,-1,-1,0
1523614727684,3473408,107,-56,-1,-1,0
1523614727723,8519680,107,-56,-1,-1,0
1523614727723,8257536,107,-56,-1,-1,0
1523614727723,3145728,107,-56,-1,-1,0
1523614727723,-851968,107,-56,-1,-1,0
1523614727723,-983040,107,-56,-1,-1,0
1523614727760,-655360,107,-56,-1,-1,0
1523614727760,-655360,107,-56,-1,-1,0
1523614727760,-655360,107,-56,-1,-1,0
1523614727760,-655360,107,-56,-1,-1,0
1523614727760,-524288,107,-56,-1,-1,0
1523614727800,-458752,107,-56,-1,-1,0
1523614727800,-458752,107,-56,-1,-1,0
1523614727800,-458752,107,-56,-1,-1,0
1523614727800,-393216,107,-56,-1,-1,0
1523614727800,-327680,107,-56,-1,-1,0
1523614727840,-262144,107,-56,-1,-1,0
1523614727840,-196608,107,-56,-1,-1,0
1523614727840,0,107,-56,-1,-1,0
1523614727840,196608,107,-56,-1,-1,0
1523614727840,458752,107,-56,-1,-1,0
1523614727881,720896,107,-56,-1,-1,0
1523614727881,983040,107,-56,-1,-1,0
1523614727881,1376256,107,-56,-1,-1,0
1523614727881,1638400,107,-56,-1,-1,0
1523614727881,1835008,107,-56,-1,-1,0
1523614727920,1966080,107,-56,-1,-1,0
1523614727920,1966080,107,-56,-1,-1,0
1523614727920,1703936,107,-56,-1,-1,0
1523614727920,1310720,107,-56,-1,-1,0
1523614727920,851968,107,-56,-1,-1,0
1523614727960,393216,107,-56,-1,-1,0
1523614727960,0,107,-56,-1,-1,0
1523614727960,-262144,107,-56,-1,-1,0
1523614727960,-393216,107,-56,-1,-1,0
1523614727960,-393216,107,-56,-1,-1,0
1523614728000,-393216,107,-56,-1,-1,0
1523614728000,-393216,107,-56,-1,-1,0
1523614728000,-458752,107,-56,-1,-1,0
1523614728000,-524288,107,-56,-1,-1,0
1523614728000,-458752,107,-56,-1,-1,0
1523614728040,-458752,107,-56,-1,-1,0
1523614728040,-524288,107,-56,-1,-1,0
1523614728040,-589824,107,-56,-1,-1,0
1523614728040,-589824,107,-56,-1,-1,0
1523614728040,-589824,107,-56,-1,-1,0
1523614728081,-589824,107,-56,-1,-1,0
1523614728081,-524288,107,-56,-1,-1,0
1523614728081,-458752,107,-56,-1,-1,0
1523614728081,-393216,107,-56,-1,-1,0
1523614728081,-327680,107,-56,-1,-1,0
1523614728120,-393216,107,-56,-1,-1,0
1523614728120,-393216,107,-56,-1,-1,0
1523614728120,-458752,107,-56,-1,-1,0
1523614728120,-458752,107,-56,-1,-1,0
1523614728120,-458752,107,-56,-1,-1,0
1523614728160,-393216,107,-56,-1,-1,0
1523614728160,-458752,107,-56,-1,-1,0
1523614728160,-589824,107,-56,-1,-1,0
1523614728160,-655360,107,-56,-1,-1,0
1523614728160,-655360,107,-56,-1,-1,0
1523614728200,-655360,107,-56,-1,-1,0
1523614728200,-589824,107,-56,-1,-1,0
1523614728200,-655360,107,-56,-1,-1,0
1523614728200,-720896,107,-56,-1,-1,0
1523614728200,-720896,107,-56,-1,-1,0
1523614728240,-720896,106,-56,-1,-1,0
1523614728240,-720896,106,-56,-1,-1,0
1523614728240,-786432,106,-56,-1,-1,0
1523614728240,-786432,106,-56,-1,-1,0
1523614728240,-851968,106,-56,-1,-1,0
1523614728280,-851968,106,-56,-1,-1,0
1523614728280,-851968,106,-56,-1,-1,0
1523614728280,-786432,106,-56,-1,-1,0
1523614728280,-720896,106,-56,-1,-1,0
1523614728280,-786432,106,-56,-1,-1,0
1523614728322,-851968,106,-56,-1,-1,0
1523614728322,-851968,106,-56,-1,-1,0
1523614728322,-1048576,106,-56,-1,-1,0
1523614728322,-1245184,106,-56,-1,-1,0
1523614728322,0,106,-56,-1,-1,0
1523614728361,4390912,106,-56,-1,-1,0
1523614728361,8781824,106,-56,-1,-1,0
1523614728361,6619136,106,-56,-1,-1,0
1523614728361,1114112,106,-56,-1,-1,0
1523614728361,-1507328,106,-56,-1,-1,0
1523614728400,-917504,106,-56,-1,-1,0
1523614728400,-589824,106,-56,-1,-1,0
1523614728400,-720896,106,-56,-1,-1,0
1523614728400,-720896,106,-56,-1,-1,0
1523614728400,-655360,106,-56,-1,-1,0
1523614728441,-589824,106,-56,-1,-1,0
1523614728441,-655360,106,-56,-1,-1,0
1523614728441,-589824,106,-56,-1,-1,0
1523614728441,-524288,106,-56,-1,-1,0
1523614728441,-458752,106,-56,-1,-1,0
1523614728480,-458752,106,-56,-1,-1,0
1523614728480,-327680,106,-56,-1,-1,0
1523614728480,-65536,106,-56,-1,-1,0
1523614728480,196608,106,-56,-1,-1,0
1523614728480,393216,106,-56,-1,-1,0
1523614728520,589824,106,-56,-1,-1,0
1523614728520,851968,106,-56,-1,-1,0
1523614728520,1245184,106,-56,-1,-1,0
1523614728520,1572864,106,-56,-1,-1,0
1523614728520,1835008,106,-56,-1,-1,0
1523614728560,1900544,106,-56,-1,-1,0
1523614728560,1835008,106,-56,-1,-1,0
1523614728560,1769472,106,-56,-1,-1,0
1523614728560,1507328,106,-56,-1,-1,0
1523614728560,1048576,106,-56,-1,-1,0
1523614728600,458752,106,-56,-1,-1,0
1523614728600,65536,106,-56,-1,-1,0
1523614728600,-327680,106,-56,-1,-1,0
1523614728600,-655360,106,-56,-1,-1,0
1523614728600,-851968,106,-56,-1,-1,0
1523614728640,-851968,106,-56,-1,-1,0
1523614728640,-917504,106,-56,-1,-1,0
1523614728640,-1114112,106,-56,-1,-1,0
1523614728640,-1179648,106,-56,-1,-1,0
1523614728640,-1245184,106,-56,-1,-1,0
1523614728680,-1310720,106,-56,-1,-1,0
1523614728680,-1310720,106,-56,-1,-1,0
1523614728680,-1179648,106,-56,-1,-1,0
1523614728680,-1114112,106,-56,-1,-1,0
1523614728680,-1048576,106,-56,-1,-1,0
1523614728720,-917504,106,-56,-1,-1,0
1523614728720,-851968,106,-56,-1,-1,0
1523614728720,-851968,106,-56,-1,-1,0
1523614728720,-786432,106,-56,-1,-1,0
1523614728720,-720896,106,-56,-1,-1,0
1523614728760,-655360,106,-56,-1,-1,0
1523614728760,-720896,106,-56,-1,-1,0
1523614728760,-720896,106,-56,-1,-1,0
1523614728760,-786432,106,-56,-1,-1,0
1523614728760,-851968,106,-56,-1,-1,0
1523614728800,-851968,106,-56,-1,-1,0
1523614728800,-786432,106,-56,-1,-1,0
1523614728800,-720896,106,-56,-1,-1,0
1523614728800,-655360,106,-56,-1,-1,0
1523614728800,-720896,106,-56,-1,-1,0
1523614728843,-851968,104,-56,-1,-1,0
1523614728843,-983040,104,-56,-1,-1,0
1523614728843,-1114112,104,-56,-1,-1,0
1523614728843,-1114112,104,-56,-1,-1,0
1523614728843,-917504,104,-56,-1,-1,0
1523614728880,-786432,104,-56,-1,-1,0
1523614728880,-786432,104,-56,-1,-1,0
1523614728880,-786432,104,-56,-1,-1,0
1523614728880,-851968,104,-56,-1,-1,0
1523614728880,-983040,104,-56,-1,-1,0
1523614728920,-1048576,104,-56,-1,-1,0
1523614728920,-983040,104,-56,-1,-1,0
1523614728920,-851968,104,-56,-1,-1,0
1523614728920,-917504,104,-56,-1,-1,0
1523614728920,-1245184,104,-56,-1,-1,0
1523614728961,-1179648,104,-56,-1,-1,0
1523614728961,1179648,104,-56,-1,-1,0
1523614728961,6225920,104,-56,-1,-1,0
1523614728961,8585216,104,-56,-1,-1,0
1523614728961,4718592,104,-56,-1,-1,0
1523614729000,-131072,104,-56,-1,-1,0
1523614729000,-1310720,104,-56,-1,-1,0
1523614729000,-851968,104,-56,-1,-1,0
1523614729000,-655360,104,-56,-1,-1,0
1523614729000,-720896,104,-56,-1,-1,0
1523614729041,-720896,104,-56,-1,-1,0
1523614729041,-720896,104,-56,-1,-1,0
1523614729041,-720896,104,-56,-1,-1,0
1523614729041,-655360,104,-56,-1,-1,0
1523614729041,-524288,104,-56,-1,-1,0
1523614729080,-458752,104,-56,-1,-1,0
1523614729080,-458752,104,-56,-1,-1,0
1523614729080,-393216,104,-56,-1,-1,0
1523614729080,-327680,104,-56,-1,-1,0
1523614729080,-196608,104,-56,-1,-1,0
1523614729120,0,104,-56,-1,-1,0
1523614729120,262144,104,-56,-1,-1,0
1523614729120,589824,104,-56,-1,-1,0
1523614729120,655360,104,-56,-1,-1,0
1523614729120,1114112,104,-56,-1,-1,0
1523614729160,1507328,104,-56,-1,-1,0
1523614729160,1769472,104,-56,-1,-1,0
1523614729160,1769472,104,-56,-1,-1,0
1523614729160,1769472,104,-56,-1,-1,0
1523614729160,1572864,104,-56,-1,-1,0
1523614729200,1114112,104,-56,-1,-1,0
1523614729200,524288,104,-56,-1,-1,0
1523614729200,0,104,-56,-1,-1,0
1523614729200,-393216,104,-56,-1,-1,0
1523614729200,-589824,104,-56,-1,-1,0
1523614729240,-655360,104,-56,-1,-1,0
1523614729240,-720896,104,-56,-1,-1,0
1523614729240,-786432,104,-56,-1,-1,0
1523614729240,-917504,104,-56,-1,-1,0
1523614729240,-983040,104,-56,-1,-1,0
1523614729280,-1048576,104,-56,-1,-1,0
1523614729280,-983040,104,-56,-1,-1,0
1523614729280,-917504,104,-56,-1,-1,0
1523614729280,-983040,104,-56,-1,-1,0
1523614729280,-1048576,104,-56,-1,-1,0
1523614729320,-983040,104,-56,-1,-1,0
1523614729320,-786432,104,-56,-1,-1,0
1523614729320,-720896,104,-56,-1,-1,0
1523614729320,-655360,104,-56,-1,-1,0
1523614729320,-589824,104,-56,-1,-1,0
1523614729361,-589824,104,-56,-1,-1,0
1523614729361,-589824,104,-56,-1,-1,0
1523614729361,-589824,104,-56,-1,-1,0
1523614729361,-524288,104,-56,-1,-1,0
1523614729361,-524288,104,-56,-1,-1,0
1523614729400,-524288,104,-56,-1,-1,0
1523614729400,-589824,104,-56,-1,-1,0
1523614729400,-589824,104,-56,-1,-1,0
1523614729400,-524288,104,-56,-1,-1,0
1523614729400,-589824,104,-56,-1,-1,0
1523614729440,-655360,103,-56,-1,-1,0
1523614729440,-655360,103,-56,-1,-1,0
1523614729440,-720896,103,-56,-1,-1,0
1523614729440,-851968,103,-56,-1,-1,0
1523614729440,-917504,103,-56,-1,-1,0
1523614729480,-851968,103,-56,-1,-1,0
1523614729480,-655360,103,-56,-1,-1,0
1523614729480,-655360,103,-56,-1,-1,0
1523614729480,-720896,103,-56,-1,-1,0
1523614729480,-851968,103,-56,-1,-1,0
1523614729521,-851968,103,-56,-1,-1,0
1523614729521,-851968,103,-56,-1,-1,0
1523614729521,-851968,103,-56,-1,-1,0
1523614729521,-851968,103,-56,-1,-1,0
1523614729521,-1048576,103,-56,-1,-1,0
1523614729564,-1310720,103,-56,-1,-1,0
1523614729564,-196608,103,-56,-1,-1,0
1523614729564,4128768,103,-56,-1,-1,0
1523614729564,8716288,103,-56,-1,-1,0
1523614729564,7340032,103,-56,-1,-1,0
1523614729606,2162688,103,-56,-1,-1,0
1523614729606,-917504,103,-56,-1,-1,0
1523614729606,-786432,103,-56,-1,-1,0
1523614729606,-589824,103,-56,-1,-1,0
1523614729606,-655360,103,-56,-1,-1,0
1523614729641,-589824,103,-56,-1,-1,0
1523614729641,-524288,103,-56,-1,-1,0
1523614729641,-393216,103,-56,-1,-1,0
1523614729641,-393216,103,-56,-1,-1,0
1523614729641,-327680,103,-56,-1,-1,0
1523614729680,-393216,103,-56,-1,-1,0
1523614729680,-327680,103,-56,-1,-1,0
1523614729680,-196608,103,-56,-1,-1,0
1523614729680,-65536,103,-56,-1,-1,0
1523614729680,0,103,-56,-1,-1,0
1523614729720,131072,103,-56,-1,-1,0
1523614729720,327680,103,-56,-1,-1,0
1523614729720,589824,103,-56,-1,-1,0
1523614729720,917504,103,-56,-1,-1,0
1523614729720,1179648,103,-56,-1,-1,0
1523614729761,1507328,103,-56,-1,-1,0
1523614729761,1835008,103,-56,-1,-1,0
1523614729761,2031616,103,-56,-1,-1,0
1523614729761,2031616,103,-56,-1,-1,0
1523614729761,1900544,103,-56,-1,-1,0
1523614729800,1572864,103,-56,-1,-1,0
1523614729800,1114112,103,-56,-1,-1,0
1523614729800,655360,103,-56,-1,-1,0
1523614729800,262144,103,-56,-1,-1,0
1523614729800,0,103,-56,-1,-1,0
1523614729840,-196608,103,-56,-1,-1,0
1523614729840,-393216,103,-56,-1,-1,0
1523614729840,-458752,103,-56,-1,-1,0
1523614729840,-458752,103,-56,-1,-1,0
1523614729840,-393216,103,-56,-1,-1,0
1523614729881,-393216,103,-56,-1,-1,0
1523614729881,-458752,103,-56,-1,-1,0
1523614729881,-524288,103,-56,-1,-1,0
1523614729881,-589824,103,-56,-1,-1,0
1523614729881,-589824,103,-56,-1,-1,0
1523614729920,-589824,103,-56,-1,-1,0
1523614729920,-524288,103,-56,-1,-1,0
1523614729920,-458752,103,-56,-1,-1,0
1523614729920,-458752,103,-56,-1,-1,0
1523614729920,-393216,103,-56,-1,-1,0
1523614729960,-327680,103,-56,-1,-1,0
1523614729960,-262144,103,-56,-1,-1,0
1523614729960,-262144,103,-56,-1,-1,0
1523614729960,-262144,103,-56,-1,-1,0
1523614729960,-262144,103,-56,-1,-1,0
1523614730000,-327680,103,-56,-1,-1,0
1523614730000,-393216,103,-56,-1,-1,0
1523614730000,-393216,103,-56,-1,-1,0
1523614730000,-458752,103,-56,-1,-1,0
1523614730000,-393216,103,-56,-1,-1,0
1523614730040,-393216,102,-56,-1,-1,0
1523614730040,-458752,102,-56,-1,-1,0
1523614730040,-589824,102,-56,-1,-1,0
1523614730040,-655360,102,-56,-1,-1,0
1523614730040,-589824,102,-56,-1,-1,0
1523614730083,-458752,102,-56,-1,-1,0
1523614730083,-327680,102,-56,-1,-1,0
1523614730083,-262144,102,-56,-1,-1,0
1523614730083,-327680,102,-56,-1,-1,0
1523614730083,-458752,102,-56,-1,-1,0
1523614730120,-458752,102,-56,-1,-1,0
1523614730120,-393216,102,-56,-1,-1,0
1523614730120,-327680,102,-56,-1,-1,0
1523614730120,-524288,102,-56,-1,-1,0
1523614730120,-917504,102,-56,-1,-1,0
1523614730161,-720896,102,-56,-1,-1,0
1523614730161,2359296,102,-56,-1,-1,0
1523614730161,7929856,102,-56,-1,-1,0
1523614730161,10092544,102,-56,-1,-1,0
1523614730161,5505024,102,-56,-1,-1,0
1523614730200,262144,102,-56,-1,-1,0
1523614730200,-720896,102,-56,-1,-1,0
1523614730200,-196608,102,-56,-1,-1,0
1523614730200,-65536,102,-56,-1,-1,0
1523614730200,-131072,102,-56,-1,-1,0
1523614730241,-131072,102,-56,-1,-1,0
1523614730241,-65536,102,-56,-1,-1,0
1523614730241,-65536,102,-56,-1,-1,0
1523614730241,-65536,102,-56,-1,-1,0
1523614730241,0,102,-56,-1,-1,0
1523614730280,0,102,-56,-1,-1,0
1523614730280,0,102,-56,-1,-1,0
1523614730280,65536,102,-56,-1,-1,0
1523614730280,262144,102,-56,-1,-1,0
1523614730280,524288,102,-56,-1,-1,0
1523614730320,655360,102,-56,-1,-1,0
1523614730320,851968,102,-56,-1,-1,0
1523614730320,1114112,102,-56,-1,-1,0
1523614730320,1441792,102,-56,-1,-1,0
1523614730320,1835008,102,-56,-1,-1,0
1523614730360,2228224,102,-56,-1,-1,0
1523614730360,2490368,102,-56,-1,-1,0
1523614730360,2424832,102,-56,-1,-1,0
1523614730360,2359296,102,-56,-1,-1,0
1523614730360,2162688,102,-56,-1,-1,0
1523614730400,1835008,102,-56,-1,-1,0
1523614730400,1245184,102,-56,-1,-1,0
1523614730400,720896,102,-56,-1,-1,0
1523614730400,262144,102,-56,-1,-1,0
1523614730400,65536,102,-56,-1,-1,0
1523614730440,0,102,-56,-1,-1,0
1523614730440,-262144,102,-56,-1,-1,0
1523614730440,-393216,102,-56,-1,-1,0
1523614730440,-458752,102,-56,-1,-1,0
1523614730440,-524288,102,-56,-1,-1,0
1523614730480,-655360,102,-56,-1,-1,0
1523614730480,-589824,102,-56,-1,-1,0
1523614730480,-524288,102,-56,-1,-1,0
1523614730480,-458752,102,-56,-1,-1,0
1523614730480,-524288,102,-56,-1,-1,0
1523614730520,-524288,102,-56,-1,-1,0
1523614730520,-458752,102,-56,-1,-1,0
1523614730520,-393216,102,-56,-1,-1,0
1523614730520,-458752,102,-56,-1,-1,0
1523614730520,-524288,102,-56,-1,-1,0
1523614730560,-524288,102,-56,-1,-1,0
1523614730560,-458752,102,-56,-1,-1,0
1523614730560,-458752,102,-56,-1,-1,0
1523614730560,-458752,102,-56,-1,-1,0
1523614730560,-393216,102,-56,-1,-1,0
1523614730601,-393216,102,-56,-1,-1,0
1523614730601,-458752,102,-56,-1,-1,0
1523614730601,-524288,102,-56,-1,-1,0
1523614730601,-589824,102,-56,-1,-1,0
1523614730601,-720896,102,-56,-1,-1,0
1523614730640,-720896,102,-56,-1,-1,0
1523614730640,-655360,102,-56,-1,-1,0
1523614730640,-589824,102,-56,-1,-1,0
1523614730640,-524288,102,-56,-1,-1,0
1523614730640,-524288,102,-56,-1,-1,0
1523614730681,-655360,102,-56,-1,-1,0
1523614730681,-720896,102,-56,-1,-1,0
1523614730681,-720896,102,-56,-1,-1,0
1523614730681,-720896,102,-56,-1,-1,0
