milliseconds, ECG, ECG HR, PPG, PPG HR, SpO2, PI
0,-786432,70,-56,-1,-1,0
33,-65536,70,-56,-1,-1,0
66,983040,70,-56,-1,-1,0
100,2686976,70,-56,-1,-1,0
133,2424832,70,-56,-1,-1,0
166,-131072,70,-56,-1,-1,0
200,458752,70,-56,-1,-1,0
233,-262144,70,-56,-1,-1,0
266,-131072,70,-56,-1,-1,0
300,-131072,70,-56,-1,-1,0
333,-1114112,70,-56,-1,-1,0
366,-1114112,70,-56,-1,-1,0
400,-917504,70,-56,-1,-1,0
433,-393216,70,-56,-1,-1,0
466,-917504,70,-56,-1,-1,0
500,-720896,70,-56,-1,-1,0
533,-1376256,70,-56,-1,-1,0
566,-1179648,70,-56,-1,-1,0
600,10420224,70,-56,-1,-1,0
633,-720896,71,-56,-1,-1,0
666,-262144,71,-56,-1,-1,0
700,327680,71,-56,-1,-1,0
733,589824,71,-56,-1,-1,0
766,2883584,71,-56,-1,-1,0
800,4063232,71,-56,-1,-1,0
833,1769472,71,-56,-1,-1,0
866,-1900544,71,-56,-1,-1,0
900,0,71,-56,-1,-1,0
933,-1572864,71,-56,-1,-1,0
966,-524288,71,-56,-1,-1,0
1000,-1179648,71,-56,-1,-1,0
1033,-983040,71,-56,-1,-1,0
1066,-2097152,71,-56,-1,-1,0
1100,-1048576,71,-56,-1,-1,0
1133,-851968,71,-56,-1,-1,0
1166,-786432,71,-56,-1,-1,0
1200,-720896,71,-56,-1,-1,0
1233,-1703936,71,-56,-1,-1,0
1266,10682368,71,-56,-1,-1,0
1300,131072,71,-56,-1,-1,0
1333,524288,72,-56,-1,-1,0
1366,589824,72,-56,-1,-1,0
1400,720896,72,-56,-1,-1,0
1433,0,72,-56,-1,-1,0
1466,1376256,72,-56,-1,-1,0
1500,0,72,-56,-1,-1,0
1533,-1310720,72,-56,-1,-1,0
1566,-1966080,72,-56,-1,-1,0
1600,-1835008,72,-56,-1,-1,0
1633,-851968,72,-56,-1,-1,0
1666,-1245184,72,-56,-1,-1,0
1700,-1114112,72,-56,-1,-1,0
1733,-786432,72,-56,-1,-1,0
1766,-589824,72,-56,-1,-1,0
1800,-1376256,72,-56,-1,-1,0
1833,-983040,72,-56,-1,-1,0
1866,-1507328,72,-56,-1,-1,0
1900,-2293760,72,-56,-1,-1,0
1933,11730944,72,-56,-1,-1,0
1966,-786432,72,-56,-1,-1,0
2000,-1900544,72,-56,-1,-1,0
2033,-1507328,72,-56,-1,-1,0
2066,-1114112,72,-56,-1,-1,0
2100,-196608,72,-56,-1,-1,0
2133,1835008,72,-56,-1,-1,0
2166,2883584,72,-56,-1,-1,0
2200,65536,72,-56,-1,-1,0
2233,-1310720,72,-56,-1,-1,0
2266,-2031616,72,-56,-1,-1,0
2300,-2883584,72,-56,-1,-1,0
2333,-1835008,72,-56,-1,-1,0
2366,-1507328,72,-56,-1,-1,0
2400,-1638400,72,-56,-1,-1,0
2433,-1245184,72,-56,-1,-1,0
2466,-1310720,72,-56,-1,-1,0
2500,-458752,72,-56,-1,-1,0
2533,-720896,72,-56,-1,-1,0
2566,65536,72,-56,-1,-1,0
2600,18743296,72,-56,-1,-1,0
2633,2359296,72,-56,-1,-1,0
2666,983040,72,-56,-1,-1,0
2700,589824,72,-56,-1,-1,0
2733,917504,72,-56,-1,-1,0
2766,1245184,72,-56,-1,-1,0
2800,2424832,72,-56,-1,-1,0
2833,2162688,72,-56,-1,-1,0
2866,327680,72,-56,-1,-1,0
2900,393216,72,-56,-1,-1,0
2933,131072,72,-56,-1,-1,0
2966,524288,72,-56,-1,-1,0
3000,1310720,72,-56,-1,-1,0
3033,196608,72,-56,-1,-1,0
3066,720896,72,-56,-1,-1,0
3100,131072,72,-56,-1,-1,0
3133,-196608,72,-56,-1,-1,0
3166,-1310720,72,-56,-1,-1,0
3200,-2621440,72,-56,-1,-1,0
3233,-3276800,72,-56,-1,-1,0
3266,6225920,72,-56,-1,-1,0
3300,-2818048,73,-56,-1,-1,0
3333,-2031616,73,-56,-1,-1,0
3366,-2424832,73,-56,-1,-1,0
3400,-1507328,73,-56,-1,-1,0
3433,-327680,73,-56,-1,-1,0
3466,1900544,73,-56,-1,-1,0
3500,1114112,73,-56,-1,-1,0
3533,-1835008,73,-56,-1,-1,0
3566,-2097152,73,-56,-1,-1,0
3600,-1703936,73,-56,-1,-1,0
3633,-1703936,73,-56,-1,-1,0
3666,-983040,73,-56,-1,-1,0
3699,-1703936,73,-56,-1,-1,0
3733,-1376256,73,-56,-1,-1,0
3766,-1703936,73,-56,-1,-1,0
3800,-655360,73,-56,-1,-1,0
3833,-1441792,73,-56,-1,-1,0
3866,-1572864,73,-56,-1,-1,0
3900,10682368,73,-56,-1,-1,0
3933,458752,73,-56,-1,-1,0
3966,0,73,-56,-1,-1,0
4000,720896,73,-56,-1,-1,0
4033,1507328,73,-56,-1,-1,0
4066,2555904,73,-56,-1,-1,0
4100,4063232,73,-56,-1,-1,0
4133,3407872,73,-56,-1,-1,0
4166,0,73,-56,-1,-1,0
4200,-1507328,73,-56,-1,-1,0
4233,-1048576,73,-56,-1,-1,0
4266,-1245184,73,-56,-1,-1,0
4300,-1900544,73,-56,-1,-1,0
4333,-2424832,73,-56,-1,-1,0
4366,-2686976,73,-56,-1,-1,0
4400,-1966080,73,-56,-1,-1,0
4433,-1245184,73,-56,-1,-1,0
4466,-1441792,73,-56,-1,-1,0
4500,-1900544,73,-56,-1,-1,0
4533,589824,73,-56,-1,-1,0
4566,2686976,73,-56,-1,-1,0
4600,-2162688,73,-56,-1,-1,0
4633,-3080192,73,-56,-1,-1,0
4666,-2490368,73,-56,-1,-1,0
4700,-786432,73,-56,-1,-1,0
4733,-131072,73,-56,-1,-1,0
4766,720896,73,-56,-1,-1,0
4800,-589824,73,-56,-1,-1,0
4833,-1114112,73,-56,-1,-1,0
4866,-2162688,73,-56,-1,-1,0
4900,-1376256,73,-56,-1,-1,0
4933,-1179648,73,-56,-1,-1,0
4966,-1572864,73,-56,-1,-1,0
5000,-2359296,73,-56,-1,-1,0
5033,-2883584,73,-56,-1,-1,0
5066,-2031616,73,-56,-1,-1,0
5100,-1245184,73,-56,-1,-1,0
5133,-3145728,73,-56,-1,-1,0
5166,-2424832,73,-56,-1,-1,0
5200,4259840,74,-56,-1,-1,0
5233,-1900544,74,-56,-1,-1,0
5266,-1310720,74,-56,-1,-1,0
5300,-1507328,74,-56,-1,-1,0
5333,-917504,74,-56,-1,-1,0
5366,1376256,74,-56,-1,-1,0
5400,1900544,74,-56,-1,-1,0
5433,-262144,74,-56,-1,-1,0
5466,-2228224,74,-56,-1,-1,0
5500,-1703936,74,-56,-1,-1,0
5533,-1376256,74,-56,-1,-1,0
5566,-851968,74,-56,-1,-1,0
5600,-1245184,74,-56,-1,-1,0
5633,-589824,74,-56,-1,-1,0
5666,-327680,74,-56,-1,-1,0
5700,196608,74,-56,-1,-1,0
5733,-393216,74,-56,-1,-1,0
5766,-327680,74,-56,-1,-1,0
5800,8585216,74,-56,-1,-1,0
5833,2097152,74,-56,-1,-1,0
5866,1507328,74,-56,-1,-1,0
5900,2752512,74,-56,-1,-1,0
5933,4063232,74,-56,-1,-1,0
5966,4456448,74,-56,-1,-1,0
6000,5570560,74,-56,-1,-1,0
6033,6488064,74,-56,-1,-1,0
6066,3473408,74,-56,-1,-1,0
6100,1507328,74,-56,-1,-1,0
6133,1900544,74,-56,-1,-1,0
6166,1310720,74,-56,-1,-1,0
6200,655360,74,-56,-1,-1,0
6233,524288,74,-56,-1,-1,0
6266,65536,74,-56,-1,-1,0
6300,-589824,74,-56,-1,-1,0
6333,-1179648,74,-56,-1,-1,0
6366,-1703936,74,-56,-1,-1,0
6400,-2555904,74,-56,-1,-1,0
6433,-65536,74,-56,-1,-1,0
6466,3670016,75,-56,-1,-1,0
6500,-2359296,75,-56,-1,-1,0
6533,-196608,75,-56,-1,-1,0
6566,-327680,75,-56,-1,-1,0
6600,589824,75,-56,-1,-1,0
6633,851968,75,-56,-1,-1,0
6666,1179648,75,-56,-1,-1,0
6700,524288,75,-56,-1,-1,0
6733,-1507328,75,-56,-1,-1,0
6766,-1376256,75,-56,-1,-1,0
6800,-1310720,75,-56,-1,-1,0
6833,-1179648,75,-56,-1,-1,0
6866,-1376256,75,-56,-1,-1,0
6899,-1835008,75,-56,-1,-1,0
6933,-1441792,75,-56,-1,-1,0
6966,-2097152,75,-56,-1,-1,0
7000,-2752512,75,-56,-1,-1,0
7033,-1441792,75,-56,-1,-1,0
7066,5439488,76,-56,-1,-1,0
7100,-1966080,76,-56,-1,-1,0
7133,-4128768,76,-56,-1,-1,0
7166,-2686976,76,-56,-1,-1,0
7200,-2031616,76,-56,-1,-1,0
7233,-786432,76,-56,-1,-1,0
7266,458752,76,-56,-1,-1,0
7300,1441792,76,-56,-1,-1,0
7333,-917504,76,-56,-1,-1,0
7366,-1900544,76,-56,-1,-1,0
7399,-1179648,76,-56,-1,-1,0
7433,-1114112,76,-56,-1,-1,0
7466,-1638400,76,-56,-1,-1,0
7500,-1638400,76,-56,-1,-1,0
7533,-2686976,76,-56,-1,-1,0
7566,-1245184,76,-56,-1,-1,0
7600,-1048576,76,-56,-1,-1,0
7633,-1638400,76,-56,-1,-1,0
7666,-1835008,76,-56,-1,-1,0
7700,14352384,76,-56,-1,-1,0
7733,-327680,76,-56,-1,-1,0
7766,-262144,76,-56,-1,-1,0
7800,0,76,-56,-1,-1,0
7833,983040,76,-56,-1,-1,0
7866,1900544,76,-56,-1,-1,0
7899,2883584,76,-56,-1,-1,0
7933,1835008,76,-56,-1,-1,0
7966,-720896,76,-56,-1,-1,0
8000,-1245184,76,-56,-1,-1,0
8033,-1245184,76,-56,-1,-1,0
8066,-917504,76,-56,-1,-1,0
8100,-1048576,76,-56,-1,-1,0
8133,-1179648,76,-56,-1,-1,0
8166,-1245184,76,-56,-1,-1,0
8200,-1114112,76,-56,-1,-1,0
8233,-524288,76,-56,-1,-1,0
8266,-983040,76,-56,-1,-1,0
8300,0,76,-56,-1,-1,0
8333,10158080,76,-56,-1,-1,0
8366,-65536,77,-56,-1,-1,0
8400,-1703936,77,-56,-1,-1,0
8433,-720896,77,-56,-1,-1,0
8466,-65536,77,-56,-1,-1,0
8500,-131072,77,-56,-1,-1,0
8533,1114112,77,-56,-1,-1,0
8566,262144,77,-56,-1,-1,0
8600,-196608,77,-56,-1,-1,0
8633,-1835008,77,-56,-1,-1,0
8666,-1572864,77,-56,-1,-1,0
8700,-1572864,77,-56,-1,-1,0
8733,-1966080,77,-56,-1,-1,0
8766,-2293760,77,-56,-1,-1,0
8800,-2293760,77,-56,-1,-1,0
8833,-2162688,77,-56,-1,-1,0
8866,-2621440,77,-56,-1,-1,0
8900,-2031616,77,-56,-1,-1,0
8933,-1114112,77,-56,-1,-1,0
8966,14811136,78,-56,-1,-1,0
9000,-196608,78,-56,-1,-1,0
9033,-1310720,78,-56,-1,-1,0
9066,-524288,78,-56,-1,-1,0
9100,-131072,78,-56,-1,-1,0
9133,589824,78,-56,-1,-1,0
9166,2162688,78,-56,-1,-1,0
9200,2359296,78,-56,-1,-1,0
9233,0,78,-56,-1,-1,0
9266,-655360,78,-56,-1,-1,0
9300,131072,78,-56,-1,-1,0
9333,-196608,78,-56,-1,-1,0
9366,-262144,78,-56,-1,-1,0
9400,-1245184,78,-56,-1,-1,0
9433,-983040,78,-56,-1,-1,0
9466,-1507328,78,-56,-1,-1,0
9500,-1507328,78,-56,-1,-1,0
9533,-1769472,78,-56,-1,-1,0
9566,-1507328,78,-56,-1,-1,0
9600,8388608,78,-56,-1,-1,0
9633,786432,78,-56,-1,-1,0
9666,1638400,78,-56,-1,-1,0
9700,1572864,78,-56,-1,-1,0
9733,1900544,78,-56,-1,-1,0
9766,2490368,78,-56,-1,-1,0
9800,2031616,78,-56,-1,-1,0
9833,851968,78,-56,-1,-1,0
9866,-327680,78,-56,-1,-1,0
9900,-589824,78,-56,-1,-1,0
9933,-589824,78,-56,-1,-1,0
9966,-917504,78,-56,-1,-1,0
10000,-917504,78,-56,-1,-1,0
10033,-1245184,78,-56,-1,-1,0
10066,-196608,78,-56,-1,-1,0
10100,-393216,78,-56,-1,-1,0
10133,393216,78,-56,-1,-1,0
10166,-1376256,78,-56,-1,-1,0
10200,-1900544,78,-56,-1,-1,0
10233,14745600,78,-56,-1,-1,0
10266,917504,78,-56,-1,-1,0
10300,-1638400,78,-56,-1,-1,0
10333,-2097152,78,-56,-1,-1,0
10366,-720896,78,-56,-1,-1,0
10400,-458752,78,-56,-1,-1,0
10433,0,78,-56,-1,-1,0
10466,0,78,-56,-1,-1,0
10500,-2293760,78,-56,-1,-1,0
10533,-1900544,78,-56,-1,-1,0
10566,-2031616,78,-56,-1,-1,0
10600,-1245184,78,-56,-1,-1,0
10633,-1376256,78,-56,-1,-1,0
10666,-1966080,78,-56,-1,-1,0
10700,-3342336,78,-56,-1,-1,0
10733,-1245184,78,-56,-1,-1,0
10766,-1245184,78,-56,-1,-1,0
10800,-1179648,78,-56,-1,-1,0
10833,917504,78,-56,-1,-1,0
10866,2490368,78,-56,-1,-1,0
10900,-720896,78,-56,-1,-1,0
10933,-655360,78,-56,-1,-1,0
10966,-524288,78,-56,-1,-1,0
11000,1048576,78,-56,-1,-1,0
11033,2228224,78,-56,-1,-1,0
11066,2818048,78,-56,-1,-1,0
11100,1179648,78,-56,-1,-1,0
11133,-131072,78,-56,-1,-1,0
11166,1114112,78,-56,-1,-1,0
11200,262144,78,-56,-1,-1,0
11233,65536,78,-56,-1,-1,0
11266,-393216,78,-56,-1,-1,0
11300,327680,78,-56,-1,-1,0
11333,-65536,78,-56,-1,-1,0
11366,196608,78,-56,-1,-1,0
11400,-655360,78,-56,-1,-1,0
11433,-917504,78,-56,-1,-1,0
11466,15138816,79,-56,-1,-1,0
11500,131072,79,-56,-1,-1,0
11533,851968,79,-56,-1,-1,0
11566,2359296,79,-56,-1,-1,0
11600,1900544,79,-56,-1,-1,0
11633,1835008,79,-56,-1,-1,0
11666,1245184,79,-56,-1,-1,0
11700,851968,79,-56,-1,-1,0
11733,-524288,79,-56,-1,-1,0
11766,-1245184,79,-56,-1,-1,0
11800,-1048576,79,-56,-1,-1,0
11833,-917504,79,-56,-1,-1,0
11866,-1638400,79,-56,-1,-1,0
11900,-1441792,79,-56,-1,-1,0
11933,-1441792,79,-56,-1,-1,0
11966,-1310720,79,-56,-1,-1,0
12000,-65536,79,-56,-1,-1,0
12033,-1048576,79,-56,-1,-1,0
12066,-1572864,79,-56,-1,-1,0
12100,13238272,79,-56,-1,-1,0
12133,393216,79,-56,-1,-1,0
12166,-589824,79,-56,-1,-1,0
12200,-786432,79,-56,-1,-1,0
12233,0,79,-56,-1,-1,0
12266,-196608,79,-56,-1,-1,0
12300,720896,79,-56,-1,-1,0
12333,262144,79,-56,-1,-1,0
12366,-1245184,79,-56,-1,-1,0
12400,-2031616,79,-56,-1,-1,0
12433,-1572864,79,-56,-1,-1,0
12466,-2293760,79,-56,-1,-1,0
12500,-2162688,79,-56,-1,-1,0
12533,-2359296,79,-56,-1,-1,0
12566,-2686976,79,-56,-1,-1,0
12600,-851968,79,-56,-1,-1,0
12633,-1441792,79,-56,-1,-1,0
12666,-2949120,79,-56,-1,-1,0
12700,3211264,79,-56,-1,-1,0
12733,-2490368,79,-56,-1,-1,0
12766,-2686976,79,-56,-1,-1,0
12800,-2293760,79,-56,-1,-1,0
12833,-1572864,79,-56,-1,-1,0
12866,-917504,79,-56,-1,-1,0
12900,-196608,79,-56,-1,-1,0
12933,524288,79,-56,-1,-1,0
12966,-917504,79,-56,-1,-1,0
13000,-1638400,79,-56,-1,-1,0
13033,-1638400,79,-56,-1,-1,0
13066,0,79,-56,-1,-1,0
13100,-589824,79,-56,-1,-1,0
13133,0,79,-56,-1,-1,0
13166,-262144,79,-56,-1,-1,0
13200,-917504,79,-56,-1,-1,0
13233,-1376256,79,-56,-1,-1,0
13266,-2490368,79,-56,-1,-1,0
13299,786432,79,-56,-1,-1,0
13333,2490368,80,-56,-1,-1,0
13366,-1310720,80,-56,-1,-1,0
13400,-589824,80,-56,-1,-1,0
13433,524288,80,-56,-1,-1,0
13466,1572864,80,-56,-1,-1,0
13500,2686976,80,-56,-1,-1,0
13533,3145728,80,-56,-1,-1,0
13566,-65536,80,-56,-1,-1,0
13600,-393216,80,-56,-1,-1,0
13633,-720896,80,-56,-1,-1,0
13666,0,80,-56,-1,-1,0
13700,-458752,80,-56,-1,-1,0
13733,-786432,80,-56,-1,-1,0
13766,-1048576,80,-56,-1,-1,0
13799,-1376256,80,-56,-1,-1,0
13833,-655360,80,-56,-1,-1,0
13866,-1245184,80,-56,-1,-1,0
13900,-524288,80,-56,-1,-1,0
13933,11206656,80,-56,-1,-1,0
13966,458752,80,-56,-1,-1,0
14000,-1114112,80,-56,-1,-1,0
14033,-393216,80,-56,-1,-1,0
14066,-917504,80,-56,-1,-1,0
14100,0,80,-56,-1,-1,0
14133,-131072,80,-56,-1,-1,0
14166,1245184,80,-56,-1,-1,0
14200,-1310720,80,-56,-1,-1,0
14233,-1376256,80,-56,-1,-1,0
14266,-1507328,80,-56,-1,-1,0
14299,-2097152,80,-56,-1,-1,0
14333,-1703936,80,-56,-1,-1,0
14366,-2555904,80,-56,-1,-1,0
14400,-2228224,80,-56,-1,-1,0
14433,-524288,80,-56,-1,-1,0
14466,-1572864,80,-56,-1,-1,0
14500,-2686976,80,-56,-1,-1,0
14533,3473408,80,-56,-1,-1,0
14566,131072,80,-56,-1,-1,0
14600,-1900544,80,-56,-1,-1,0
14633,-1441792,80,-56,-1,-1,0
14666,-851968,80,-56,-1,-1,0
14700,-393216,80,-56,-1,-1,0
14733,720896,80,-56,-1,-1,0
14766,1310720,80,-56,-1,-1,0
14799,524288,80,-56,-1,-1,0
14833,-851968,80,-56,-1,-1,0
14866,-983040,80,-56,-1,-1,0
14900,-917504,80,-56,-1,-1,0
14933,-720896,80,-56,-1,-1,0
14966,-851968,80,-56,-1,-1,0
15000,-458752,80,-56,-1,-1,0
15033,-720896,80,-56,-1,-1,0
15066,-851968,80,-56,-1,-1,0
15100,-1179648,80,-56,-1,-1,0
15133,2949120,80,-56,-1,-1,0
15166,1769472,80,-56,-1,-1,0
15200,0,80,-56,-1,-1,0
15233,1048576,80,-56,-1,-1,0
15266,1179648,80,-56,-1,-1,0
15299,1310720,80,-56,-1,-1,0
15333,2031616,80,-56,-1,-1,0
15366,2359296,80,-56,-1,-1,0
15400,262144,80,-56,-1,-1,0
15433,-851968,80,-56,-1,-1,0
15466,0,80,-56,-1,-1,0
15500,-524288,80,-56,-1,-1,0
15533,-851968,80,-56,-1,-1,0
15566,-1572864,80,-56,-1,-1,0
15600,-1114112,80,-56,-1,-1,0
15633,-1114112,80,-56,-1,-1,0
15666,-393216,80,-56,-1,-1,0
15700,-393216,80,-56,-1,-1,0
15733,-458752,81,-56,-1,-1,0
15766,11993088,81,-56,-1,-1,0
15799,-65536,81,-56,-1,-1,0
15833,-65536,81,-56,-1,-1,0
15866,-262144,81,-56,-1,-1,0
15900,-524288,81,-56,-1,-1,0
15933,131072,81,-56,-1,-1,0
15966,589824,81,-56,-1,-1,0
16000,65536,81,-56,-1,-1,0
16033,-1507328,81,-56,-1,-1,0
16066,-1441792,81,-56,-1,-1,0
16100,-1507328,81,-56,-1,-1,0
16133,-1638400,81,-56,-1,-1,0
16166,-1769472,81,-56,-1,-1,0
16200,-2424832,81,-56,-1,-1,0
16233,-3932160,81,-56,-1,-1,0
16266,-3473408,81,-56,-1,-1,0
16300,-1441792,81,-56,-1,-1,0
16333,-327680,81,-56,-1,-1,0
16366,11534336,81,-56,-1,-1,0
16400,0,81,-56,-1,-1,0
16433,-458752,81,-56,-1,-1,0
16466,-1048576,81,-56,-1,-1,0
16500,-589824,81,-56,-1,-1,0
16533,-917504,81,-56,-1,-1,0
16566,131072,81,-56,-1,-1,0
16600,458752,81,-56,-1,-1,0
16633,-851968,81,-56,-1,-1,0
16666,-524288,81,-56,-1,-1,0
16700,458752,81,-56,-1,-1,0
16733,-524288,81,-56,-1,-1,0
16766,-655360,81,-56,-1,-1,0
16800,-786432,81,-56,-1,-1,0
16833,-589824,81,-56,-1,-1,0
16866,-1048576,81,-56,-1,-1,0
16900,-1376256,81,-56,-1,-1,0
16933,-786432,81,-56,-1,-1,0
16966,7143424,81,-56,-1,-1,0
17000,-786432,81,-56,-1,-1,0
17033,-393216,81,-56,-1,-1,0
17066,983040,81,-56,-1,-1,0
17100,1900544,81,-56,-1,-1,0
17133,1441792,81,-56,-1,-1,0
17166,1245184,81,-56,-1,-1,0
17200,-524288,81,-56,-1,-1,0
17233,-1310720,81,-56,-1,-1,0
17266,-1245184,81,-56,-1,-1,0
17300,-1441792,81,-56,-1,-1,0
17333,-1900544,81,-56,-1,-1,0
17366,-2752512,81,-56,-1,-1,0
17400,-2359296,81,-56,-1,-1,0
17433,-1114112,81,-56,-1,-1,0
17466,-1245184,81,-56,-1,-1,0
17500,-1310720,81,-56,-1,-1,0
17533,-1048576,81,-56,-1,-1,0
17566,12910592,81,-56,-1,-1,0
17600,-65536,81,-56,-1,-1,0
17633,65536,81,-56,-1,-1,0
17666,589824,81,-56,-1,-1,0
17700,0,81,-56,-1,-1,0
17733,1507328,81,-56,-1,-1,0
17766,1245184,81,-56,-1,-1,0
17800,524288,81,-56,-1,-1,0
17833,-1638400,81,-56,-1,-1,0
17866,-2228224,81,-56,-1,-1,0
17900,-2162688,81,-56,-1,-1,0
17933,-2883584,81,-56,-1,-1,0
17966,-2490368,81,-56,-1,-1,0
18000,-2490368,81,-56,-1,-1,0
18033,-1835008,81,-56,-1,-1,0
18066,-1900544,81,-56,-1,-1,0
18100,-2883584,81,-56,-1,-1,0
18133,1835008,82,-56,-1,-1,0
18166,3866624,82,-56,-1,-1,0
18200,-262144,82,-56,-1,-1,0
18233,-65536,82,-56,-1,-1,0
18266,262144,82,-56,-1,-1,0
18300,327680,82,-56,-1,-1,0
18333,1572864,82,-56,-1,-1,0
18366,1245184,82,-56,-1,-1,0
18400,-196608,82,-56,-1,-1,0
18433,-524288,82,-56,-1,-1,0
18466,-1114112,82,-56,-1,-1,0
18500,-983040,82,-56,-1,-1,0
18533,0,82,-56,-1,-1,0
18566,-65536,82,-56,-1,-1,0
18600,-983040,82,-56,-1,-1,0
18633,-327680,82,-56,-1,-1,0
18666,-1048576,82,-56,-1,-1,0
18700,-851968,82,-56,-1,-1,0
18733,14286848,82,-56,-1,-1,0
18766,0,82,-56,-1,-1,0
18800,-917504,82,-56,-1,-1,0
18833,-1048576,82,-56,-1,-1,0
18866,-327680,82,-56,-1,-1,0
18900,655360,82,-56,-1,-1,0
18933,1507328,82,-56,-1,-1,0
18966,1376256,82,-56,-1,-1,0
19000,262144,82,-56,-1,-1,0
19033,655360,82,-56,-1,-1,0
19066,0,82,-56,-1,-1,0
19100,-196608,82,-56,-1,-1,0
19133,-1114112,82,-56,-1,-1,0
19166,-393216,82,-56,-1,-1,0
19200,-917504,82,-56,-1,-1,0
19233,-1048576,82,-56,-1,-1,0
19266,-1048576,82,-56,-1,-1,0
19300,-655360,82,-56,-1,-1,0
19333,6750208,82,-56,-1,-1,0
19366,-1769472,82,-56,-1,-1,0
19400,-786432,82,-56,-1,-1,0
19433,262144,82,-56,-1,-1,0
19466,1245184,82,-56,-1,-1,0
19500,851968,82,-56,-1,-1,0
19533,458752,82,-56,-1,-1,0
19566,917504,82,-56,-1,-1,0
19600,0,82,-56,-1,-1,0
19633,983040,82,-56,-1,-1,0
19666,-1769472,82,-56,-1,-1,0
19700,-1310720,82,-56,-1,-1,0
19733,-983040,82,-56,-1,-1,0
19766,-1638400,82,-56,-1,-1,0
19800,-1114112,82,-56,-1,-1,0
19833,-3145728,82,-56,-1,-1,0
19866,-2359296,83,-56,-1,-1,0
19900,10616832,83,-56,-1,-1,0
19933,-1048576,83,-56,-1,-1,0
19966,-2162688,83,-56,-1,-1,0
20000,-2031616,83,-56,-1,-1,0
20033,-1245184,83,-56,-1,-1,0
20066,786432,83,-56,-1,-1,0
20100,1638400,83,-56,-1,-1,0
20133,-393216,83,-56,-1,-1,0
20166,-1310720,83,-56,-1,-1,0
20200,-2162688,83,-56,-1,-1,0
20233,-3145728,83,-56,-1,-1,0
20266,-2555904,83,-56,-1,-1,0
20300,-1376256,83,-56,-1,-1,0
20333,-2359296,83,-56,-1,-1,0
20366,-1507328,83,-56,-1,-1,0
20400,-983040,83,-56,-1,-1,0
20433,-720896,83,-56,-1,-1,0
20466,4784128,83,-56,-1,-1,0
20500,2359296,83,-56,-1,-1,0
20533,917504,83,-56,-1,-1,0
20566,-393216,83,-56,-1,-1,0
20600,720896,83,-56,-1,-1,0
20633,983040,83,-56,-1,-1,0
20666,2228224,83,-56,-1,-1,0
20700,1441792,83,-56,-1,-1,0
20733,327680,83,-56,-1,-1,0
20766,-589824,83,-56,-1,-1,0
20800,-262144,83,-56,-1,-1,0
20833,720896,83,-56,-1,-1,0
20866,1114112,83,-56,-1,-1,0
20900,-262144,83,-56,-1,-1,0
20933,-131072,83,-56,-1,-1,0
20966,-131072,83,-56,-1,-1,0
21000,-1966080,84,-56,-1,-1,0
21033,10354688,84,-56,-1,-1,0
21066,-131072,84,-56,-1,-1,0
21100,-917504,84,-56,-1,-1,0
21133,-1114112,84,-56,-1,-1,0
21166,-1179648,84,-56,-1,-1,0
21200,-1703936,84,-56,-1,-1,0
21233,589824,84,-56,-1,-1,0
21266,1769472,84,-56,-1,-1,0
21300,327680,84,-56,-1,-1,0
21333,-655360,84,-56,-1,-1,0
21366,327680,84,-56,-1,-1,0
21400,851968,84,-56,-1,-1,0
21433,-131072,84,-56,-1,-1,0
21466,-1703936,84,-56,-1,-1,0
21500,-917504,84,-56,-1,-1,0
21533,-2162688,84,-56,-1,-1,0
21566,-1441792,84,-56,-1,-1,0
21600,589824,84,-56,-1,-1,0
21633,1900544,84,-56,-1,-1,0
21666,-1114112,84,-56,-1,-1,0
21700,-1900544,84,-56,-1,-1,0
21733,-1835008,84,-56,-1,-1,0
21766,65536,84,-56,-1,-1,0
21800,-720896,84,-56,-1,-1,0
21833,65536,84,-56,-1,-1,0
21866,589824,84,-56,-1,-1,0
21900,131072,84,-56,-1,-1,0
21933,-1376256,84,-56,-1,-1,0
21966,-1638400,84,-56,-1,-1,0
22000,-2228224,84,-56,-1,-1,0
22033,-1769472,84,-56,-1,-1,0
22066,-1769472,84,-56,-1,-1,0
22100,-1769472,84,-56,-1,-1,0
22133,-2097152,85,-56,-1,-1,0
22166,-851968,85,-56,-1,-1,0
22200,4194304,85,-56,-1,-1,0
22233,-1638400,85,-56,-1,-1,0
22266,-1114112,85,-56,-1,-1,0
22300,-131072,85,-56,-1,-1,0
22333,1245184,85,-56,-1,-1,0
22366,2293760,85,-56,-1,-1,0
22400,2293760,85,-56,-1,-1,0
22433,-196608,85,-56,-1,-1,0
22466,-1048576,85,-56,-1,-1,0
22500,-1376256,85,-56,-1,-1,0
22533,-1376256,85,-56,-1,-1,0
22566,-2228224,85,-56,-1,-1,0
22600,-1966080,85,-56,-1,-1,0
22633,-1900544,85,-56,-1,-1,0
22666,-1376256,85,-56,-1,-1,0
22700,-1114112,85,-56,-1,-1,0
22733,11337728,85,-56,-1,-1,0
22766,2228224,85,-56,-1,-1,0
22800,983040,85,-56,-1,-1,0
22833,851968,85,-56,-1,-1,0
22866,589824,85,-56,-1,-1,0
22900,786432,85,-56,-1,-1,0
22933,2424832,85,-56,-1,-1,0
22966,1245184,85,-56,-1,-1,0
23000,-393216,85,-56,-1,-1,0
23033,-1114112,85,-56,-1,-1,0
23066,-1310720,85,-56,-1,-1,0
23100,-1638400,85,-56,-1,-1,0
23133,-1703936,85,-56,-1,-1,0
23166,-3080192,85,-56,-1,-1,0
23200,-1900544,85,-56,-1,-1,0
23233,65536,85,-56,-1,-1,0
23266,262144,85,-56,-1,-1,0
23300,0,85,-56,-1,-1,0
23333,12976128,85,-56,-1,-1,0
23366,-1441792,85,-56,-1,-1,0
23400,-1114112,85,-56,-1,-1,0
23433,589824,85,-56,-1,-1,0
23466,-196608,85,-56,-1,-1,0
23500,786432,85,-56,-1,-1,0
23533,786432,85,-56,-1,-1,0
23566,-327680,85,-56,-1,-1,0
23600,-1572864,85,-56,-1,-1,0
23633,-2490368,85,-56,-1,-1,0
23666,-1835008,85,-56,-1,-1,0
23700,-1114112,85,-56,-1,-1,0
23733,-2097152,85,-56,-1,-1,0
23766,-2031616,85,-56,-1,-1,0
23800,-1245184,85,-56,-1,-1,0
23833,-2621440,85,-56,-1,-1,0
23866,-3014656,86,-56,-1,-1,0
23900,11075584,86,-56,-1,-1,0
23933,-917504,86,-56,-1,-1,0
23966,0,86,-56,-1,-1,0
24000,-262144,86,-56,-1,-1,0
24033,-720896,86,-56,-1,-1,0
24066,262144,86,-56,-1,-1,0
24100,1769472,86,-56,-1,-1,0
24133,-327680,86,-56,-1,-1,0
24166,-786432,86,-56,-1,-1,0
24200,-131072,86,-56,-1,-1,0
24233,-393216,86,-56,-1,-1,0
24266,-262144,86,-56,-1,-1,0
24300,-589824,86,-56,-1,-1,0
24333,-655360,86,-56,-1,-1,0
24366,-1507328,86,-56,-1,-1,0
24400,-2293760,86,-56,-1,-1,0
24433,-1900544,86,-56,-1,-1,0
24466,12386304,86,-56,-1,-1,0
24500,-851968,86,-56,-1,-1,0
24533,-2162688,86,-56,-1,-1,0
24566,-1310720,86,-56,-1,-1,0
24600,-1376256,86,-56,-1,-1,0
24633,524288,86,-56,-1,-1,0
24666,1310720,86,-56,-1,-1,0
24700,1114112,86,-56,-1,-1,0
24733,0,86,-56,-1,-1,0
24766,983040,86,-56,-1,-1,0
24800,1310720,86,-56,-1,-1,0
24833,1179648,86,-56,-1,-1,0
24866,131072,86,-56,-1,-1,0
24900,-1114112,86,-56,-1,-1,0
24933,0,86,-56,-1,-1,0
24966,-131072,86,-56,-1,-1,0
25000,-458752,86,-56,-1,-1,0
25033,-1835008,86,-56,-1,-1,0
25066,13369344,86,-56,-1,-1,0
25100,-1245184,86,-56,-1,-1,0
25133,-983040,86,-56,-1,-1,0
25166,-1769472,86,-56,-1,-1,0
25200,131072,86,-56,-1,-1,0
25233,2424832,86,-56,-1,-1,0
25266,2490368,86,-56,-1,-1,0
25300,4259840,86,-56,-1,-1,0
25333,-131072,86,-56,-1,-1,0
25366,-4063232,86,-56,-1,-1,0
25400,0,86,-56,-1,-1,0
25433,-2686976,86,-56,-1,-1,0
25466,-1376256,86,-56,-1,-1,0
25500,-1310720,86,-56,-1,-1,0
25533,-1572864,86,-56,-1,-1,0
25566,-2424832,86,-56,-1,-1,0
25600,-2686976,86,-56,-1,-1,0
25633,3145728,86,-56,-1,-1,0
25666,-2359296,86,-56,-1,-1,0
25700,-1703936,86,-56,-1,-1,0
25733,-1179648,86,-56,-1,-1,0
25766,-983040,86,-56,-1,-1,0
25800,-917504,86,-56,-1,-1,0
25833,-393216,86,-56,-1,-1,0
25866,-983040,86,-56,-1,-1,0
25900,-786432,86,-56,-1,-1,0
25933,589824,86,-56,-1,-1,0
25966,0,86,-56,-1,-1,0
26000,-262144,86,-56,-1,-1,0
26033,-327680,86,-56,-1,-1,0
26066,-917504,86,-56,-1,-1,0
26099,-1638400,86,-56,-1,-1,0
26133,131072,86,-56,-1,-1,0
26166,589824,86,-56,-1,-1,0
26200,262144,86,-56,-1,-1,0
26233,6750208,86,-56,-1,-1,0
26266,2359296,86,-56,-1,-1,0
26300,-262144,86,-56,-1,-1,0
26333,-1245184,86,-56,-1,-1,0
26366,-196608,86,-56,-1,-1,0
26400,327680,86,-56,-1,-1,0
26433,1376256,86,-56,-1,-1,0
26466,589824,86,-56,-1,-1,0
26500,-2097152,86,-56,-1,-1,0
26533,-2293760,86,-56,-1,-1,0
26566,-1900544,86,-56,-1,-1,0
26599,-1638400,86,-56,-1,-1,0
26633,-917504,86,-56,-1,-1,0
26666,-1245184,86,-56,-1,-1,0
26700,-1114112,86,-56,-1,-1,0
26733,-327680,86,-56,-1,-1,0
26766,-720896,86,-56,-1,-1,0
26800,-1703936,86,-56,-1,-1,0
26833,14811136,86,-56,-1,-1,0
26866,-327680,86,-56,-1,-1,0
26900,-1572864,86,-56,-1,-1,0
26933,-393216,86,-56,-1,-1,0
26966,-65536,86,-56,-1,-1,0
27000,1835008,86,-56,-1,-1,0
27033,1703936,86,-56,-1,-1,0
27066,-131072,86,-56,-1,-1,0
27099,-1966080,86,-56,-1,-1,0
27133,-2228224,86,-56,-1,-1,0
27166,0,86,-56,-1,-1,0
27200,1048576,86,-56,-1,-1,0
27233,262144,86,-56,-1,-1,0
27266,1048576,86,-56,-1,-1,0
27300,65536,86,-56,-1,-1,0
27333,589824,86,-56,-1,-1,0
27366,-1179648,86,-56,-1,-1,0
27400,-2686976,86,-56,-1,-1,0
27433,7208960,86,-56,-1,-1,0
27466,-2097152,86,-56,-1,-1,0
27500,-1769472,86,-56,-1,-1,0
27533,-1966080,86,-56,-1,-1,0
27566,-1114112,86,-56,-1,-1,0
27599,-786432,86,-56,-1,-1,0
27633,-786432,86,-56,-1,-1,0
27666,-1572864,86,-56,-1,-1,0
27700,-2621440,86,-56,-1,-1,0
27733,-1507328,86,-56,-1,-1,0
27766,-1048576,86,-56,-1,-1,0
27800,-1310720,86,-56,-1,-1,0
27833,-1376256,86,-56,-1,-1,0
27866,-1114112,86,-56,-1,-1,0
27900,458752,86,-56,-1,-1,0
27933,851968,86,-56,-1,-1,0
27966,327680,86,-56,-1,-1,0
28000,2818048,86,-56,-1,-1,0
28033,2293760,86,-56,-1,-1,0
28066,196608,86,-56,-1,-1,0
28099,-65536,86,-56,-1,-1,0
28133,-262144,86,-56,-1,-1,0
28166,917504,86,-56,-1,-1,0
28200,1769472,86,-56,-1,-1,0
28233,2162688,86,-56,-1,-1,0
28266,196608,86,-56,-1,-1,0
28300,-720896,86,-56,-1,-1,0
28333,-786432,86,-56,-1,-1,0
28366,-851968,86,-56,-1,-1,0
28400,-786432,86,-56,-1,-1,0
28433,-1179648,86,-56,-1,-1,0
28466,-983040,86,-56,-1,-1,0
28500,-1114112,86,-56,-1,-1,0
28533,-2031616,86,-56,-1,-1,0
28566,-1703936,86,-56,-1,-1,0
28599,14352384,86,-56,-1,-1,0
28633,-1376256,86,-56,-1,-1,0
28666,-65536,86,-56,-1,-1,0
28700,1376256,86,-56,-1,-1,0
28733,2359296,86,-56,-1,-1,0
28766,2555904,86,-56,-1,-1,0
28800,2949120,86,-56,-1,-1,0
28833,1179648,86,-56,-1,-1,0
28866,-786432,86,-56,-1,-1,0
28900,-524288,86,-56,-1,-1,0
28933,-589824,86,-56,-1,-1,0
28966,-589824,86,-56,-1,-1,0
29000,-655360,86,-56,-1,-1,0
29033,-1703936,86,-56,-1,-1,0
29066,-2752512,86,-56,-1,-1,0
29099,-1638400,86,-56,-1,-1,0
29133,-1179648,86,-56,-1,-1,0
29166,-2031616,85,-56,-1,-1,0
29200,7864320,85,-56,-1,-1,0
29233,-851968,85,-56,-1,-1,0
29266,393216,85,-56,-1,-1,0
29300,-327680,85,-56,-1,-1,0
29333,720896,85,-56,-1,-1,0
29366,393216,85,-56,-1,-1,0
29400,851968,85,-56,-1,-1,0
29433,0,85,-56,-1,-1,0
29466,-1769472,85,-56,-1,-1,0
29500,-917504,85,-56,-1,-1,0
29533,-851968,85,-56,-1,-1,0
29566,-1507328,85,-56,-1,-1,0
29599,-1703936,85,-56,-1,-1,0
29633,-1638400,85,-56,-1,-1,0
29666,-262144,85,-56,-1,-1,0
29700,2949120,85,-56,-1,-1,0
29733,1441792,85,-56,-1,-1,0
29766,13172736,85,-56,-1,-1,0
29800,-1900544,85,-56,-1,-1,0
29833,-2228224,85,-56,-1,-1,0
29866,-917504,85,-56,-1,-1,0
29900,262144,85,-56,-1,-1,0
29933,851968,85,-56,-1,-1,0
29966,524288,85,-56,-1,-1,0
30000,-65536,85,-56,-1,-1,0
30033,-1441792,85,-56,-1,-1,0
30066,-1572864,85,-56,-1,-1,0
30099,-1179648,85,-56,-1,-1,0
30133,-1441792,85,-56,-1,-1,0
30166,-1179648,85,-56,-1,-1,0
30200,-1441792,85,-56,-1,-1,0
30233,-655360,85,-56,-1,-1,0
30266,-1179648,85,-56,-1,-1,0
30300,-1441792,85,-56,-1,-1,0
30333,5242880,85,-56,-1,-1,0
30366,-65536,85,-56,-1,-1,0
30400,-1703936,85,-56,-1,-1,0
30433,-1245184,85,-56,-1,-1,0
30466,-1376256,85,-56,-1,-1,0
30500,262144,85,-56,-1,-1,0
30533,786432,85,-56,-1,-1,0
30566,131072,85,-56,-1,-1,0
30599,-1769472,85,-56,-1,-1,0
30633,-1376256,85,-56,-1,-1,0
30666,-655360,85,-56,-1,-1,0
30700,-524288,85,-56,-1,-1,0
30733,-458752,85,-56,-1,-1,0
30766,-786432,85,-56,-1,-1,0
30800,262144,85,-56,-1,-1,0
30833,-1048576,85,-56,-1,-1,0
30866,-1245184,85,-56,-1,-1,0
30900,12845056,85,-56,-1,-1,0
30933,786432,85,-56,-1,-1,0
30966,0,85,-56,-1,-1,0
31000,-65536,85,-56,-1,-1,0
31033,-327680,85,-56,-1,-1,0
31066,131072,85,-56,-1,-1,0
31099,1441792,85,-56,-1,-1,0
31133,65536,85,-56,-1,-1,0
31166,131072,85,-56,-1,-1,0
31200,851968,85,-56,-1,-1,0
31233,917504,85,-56,-1,-1,0
31266,-131072,85,-56,-1,-1,0
31300,-524288,85,-56,-1,-1,0
31333,-1310720,85,-56,-1,-1,0
31366,-720896,85,-56,-1,-1,0
31400,-2162688,86,-56,-1,-1,0
31433,-1703936,86,-56,-1,-1,0
31466,4390912,86,-56,-1,-1,0
31500,-1703936,86,-56,-1,-1,0
31533,-1572864,86,-56,-1,-1,0
31566,-1703936,86,-56,-1,-1,0
31599,-327680,86,-56,-1,-1,0
31633,589824,86,-56,-1,-1,0
31666,786432,86,-56,-1,-1,0
31700,-1638400,86,-56,-1,-1,0
31733,-2031616,86,-56,-1,-1,0
31766,196608,86,-56,-1,-1,0
31800,1441792,86,-56,-1,-1,0
31833,655360,86,-56,-1,-1,0
31866,-1572864,86,-56,-1,-1,0
31900,-1703936,86,-56,-1,-1,0
31933,-786432,86,-56,-1,-1,0
31966,-1507328,86,-56,-1,-1,0
32000,-393216,86,-56,-1,-1,0
32033,5439488,86,-56,-1,-1,0
32066,-655360,86,-56,-1,-1,0
32100,-1376256,86,-56,-1,-1,0
32133,0,86,-56,-1,-1,0
32166,917504,86,-56,-1,-1,0
32200,2228224,86,-56,-1,-1,0
32233,2359296,86,-56,-1,-1,0
32266,-1048576,86,-56,-1,-1,0
32299,-851968,86,-56,-1,-1,0
32333,-1310720,86,-56,-1,-1,0
32366,-1376256,86,-56,-1,-1,0
32400,-1638400,86,-56,-1,-1,0
32433,-1507328,86,-56,-1,-1,0
32466,-1900544,86,-56,-1,-1,0
32500,-1835008,86,-56,-1,-1,0
32533,-2621440,86,-56,-1,-1,0
32566,8912896,86,-56,-1,-1,0
32600,-589824,86,-56,-1,-1,0
32633,-983040,86,-56,-1,-1,0
32666,131072,86,-56,-1,-1,0
32700,1572864,86,-56,-1,-1,0
32733,2424832,86,-56,-1,-1,0
32766,2949120,86,-56,-1,-1,0
32800,1179648,86,-56,-1,-1,0
32833,-327680,86,-56,-1,-1,0
32866,-458752,86,-56,-1,-1,0
32900,-262144,86,-56,-1,-1,0
32933,-458752,86,-56,-1,-1,0
32966,-851968,86,-56,-1,-1,0
33000,-1114112,86,-56,-1,-1,0
33033,-1376256,86,-56,-1,-1,0
33066,-2883584,86,-56,-1,-1,0
33100,-3604480,86,-56,-1,-1,0
33133,16252928,86,-56,-1,-1,0
33166,720896,86,-56,-1,-1,0
33200,-262144,86,-56,-1,-1,0
33233,1966080,86,-56,-1,-1,0
33266,1310720,86,-56,-1,-1,0
33300,1638400,86,-56,-1,-1,0
33333,1179648,86,-56,-1,-1,0
33366,-393216,86,-56,-1,-1,0
33400,-2162688,86,-56,-1,-1,0
33433,-1900544,86,-56,-1,-1,0
33466,-1114112,86,-56,-1,-1,0
33500,-1310720,86,-56,-1,-1,0
33533,-1048576,86,-56,-1,-1,0
33566,-1835008,86,-56,-1,-1,0
33600,-1703936,86,-56,-1,-1,0
33633,-2883584,87,-56,-1,-1,0
33666,-327680,87,-56,-1,-1,0
33700,3014656,87,-56,-1,-1,0
33733,-2031616,87,-56,-1,-1,0
33766,-2424832,87,-56,-1,-1,0
33800,3276800,87,-56,-1,-1,0
33833,3276800,87,-56,-1,-1,0
33866,1114112,87,-56,-1,-1,0
33900,-393216,87,-56,-1,-1,0
33933,-1179648,87,-56,-1,-1,0
33966,-1835008,87,-56,-1,-1,0
34000,-1835008,87,-56,-1,-1,0
34033,-524288,87,-56,-1,-1,0
34066,-851968,87,-56,-1,-1,0
34100,-720896,87,-56,-1,-1,0
34133,-2031616,87,-56,-1,-1,0
34166,-1441792,87,-56,-1,-1,0
34200,-2097152,87,-56,-1,-1,0
34233,7471104,87,-56,-1,-1,0
34266,-917504,87,-56,-1,-1,0
34300,-720896,87,-56,-1,-1,0
34333,-655360,87,-56,-1,-1,0
34366,-458752,87,-56,-1,-1,0
34400,327680,87,-56,-1,-1,0
34433,1769472,87,-56,-1,-1,0
34466,393216,87,-56,-1,-1,0
34500,-1703936,87,-56,-1,-1,0
34533,-2359296,87,-56,-1,-1,0
34566,-1703936,87,-56,-1,-1,0
34600,-1441792,87,-56,-1,-1,0
34633,-983040,87,-56,-1,-1,0
34666,-65536,87,-56,-1,-1,0
34700,917504,87,-56,-1,-1,0
34733,131072,88,-56,-1,-1,0
34766,5242880,88,-56,-1,-1,0
34800,1441792,88,-56,-1,-1,0
34833,0,88,-56,-1,-1,0
34866,-131072,88,-56,-1,-1,0
34900,262144,88,-56,-1,-1,0
34933,1376256,88,-56,-1,-1,0
34966,1966080,88,-56,-1,-1,0
35000,524288,88,-56,-1,-1,0
35033,-1179648,88,-56,-1,-1,0
35066,-1966080,88,-56,-1,-1,0
35100,-1310720,88,-56,-1,-1,0
35133,-917504,88,-56,-1,-1,0
35166,327680,88,-56,-1,-1,0
35200,-458752,88,-56,-1,-1,0
35233,0,88,-56,-1,-1,0
35266,-851968,88,-56,-1,-1,0
35300,-262144,88,-56,-1,-1,0
35333,6488064,88,-56,-1,-1,0
35366,327680,88,-56,-1,-1,0
35400,-1638400,88,-56,-1,-1,0
35433,-1703936,88,-56,-1,-1,0
35466,-983040,88,-56,-1,-1,0
35500,-65536,88,-56,-1,-1,0
35533,983040,88,-56,-1,-1,0
35566,-720896,88,-56,-1,-1,0
35600,-1966080,88,-56,-1,-1,0
35633,-2097152,88,-56,-1,-1,0
35666,-983040,88,-56,-1,-1,0
35700,-786432,88,-56,-1,-1,0
35733,-1572864,88,-56,-1,-1,0
35766,-1638400,88,-56,-1,-1,0
35800,-327680,88,-56,-1,-1,0
35833,1441792,89,-56,-1,-1,0
35866,1507328,89,-56,-1,-1,0
35900,13697024,89,-56,-1,-1,0
35933,-1507328,89,-56,-1,-1,0
35966,-2031616,89,-56,-1,-1,0
36000,-1179648,89,-56,-1,-1,0
36033,-983040,89,-56,-1,-1,0
36066,0,89,-56,-1,-1,0
36100,851968,89,-56,-1,-1,0
36133,-131072,89,-56,-1,-1,0
36166,-2359296,89,-56,-1,-1,0
36200,-2359296,89,-56,-1,-1,0
36233,-1900544,89,-56,-1,-1,0
36266,-2031616,89,-56,-1,-1,0
36300,-1835008,89,-56,-1,-1,0
36333,-2228224,89,-56,-1,-1,0
36366,-2097152,89,-56,-1,-1,0
36400,-2686976,89,-56,-1,-1,0
36433,-2162688,89,-56,-1,-1,0
36466,9240576,89,-56,-1,-1,0
36500,-1376256,89,-56,-1,-1,0
36533,-2031616,89,-56,-1,-1,0
36566,-1310720,89,-56,-1,-1,0
36600,-917504,89,-56,-1,-1,0
36633,1376256,89,-56,-1,-1,0
36666,1703936,89,-56,-1,-1,0
36700,589824,89,-56,-1,-1,0
36733,655360,89,-56,-1,-1,0
36766,524288,89,-56,-1,-1,0
36800,0,89,-56,-1,-1,0
36833,0,89,-56,-1,-1,0
36866,196608,89,-56,-1,-1,0
36900,-655360,89,-56,-1,-1,0
36933,-524288,89,-56,-1,-1,0
36966,-655360,89,-56,-1,-1,0
37000,8585216,89,-56,-1,-1,0
37033,524288,89,-56,-1,-1,0
37066,-720896,89,-56,-1,-1,0
37100,-1376256,89,-56,-1,-1,0
37133,-1048576,89,-56,-1,-1,0
37166,917504,89,-56,-1,-1,0
37200,2359296,89,-56,-1,-1,0
37233,1441792,89,-56,-1,-1,0
37266,458752,89,-56,-1,-1,0
37300,-196608,89,-56,-1,-1,0
37333,-589824,89,-56,-1,-1,0
37366,-1572864,89,-56,-1,-1,0
37400,-1310720,89,-56,-1,-1,0
37433,-1900544,89,-56,-1,-1,0
37466,-2424832,89,-56,-1,-1,0
37500,-2686976,89,-56,-1,-1,0
37533,-1900544,89,-56,-1,-1,0
37566,3735552,89,-56,-1,-1,0
37600,-1572864,89,-56,-1,-1,0
37633,-393216,89,-56,-1,-1,0
37666,0,89,-56,-1,-1,0
37700,458752,89,-56,-1,-1,0
37733,917504,89,-56,-1,-1,0
37766,2228224,89,-56,-1,-1,0
37800,1966080,89,-56,-1,-1,0
37833,1441792,89,-56,-1,-1,0
37866,1638400,89,-56,-1,-1,0
37900,-3145728,89,-56,-1,-1,0
37933,-3211264,89,-56,-1,-1,0
37966,-1966080,89,-56,-1,-1,0
38000,-851968,89,-56,-1,-1,0
38033,-524288,89,-56,-1,-1,0
38066,-983040,89,-56,-1,-1,0
38100,2818048,89,-56,-1,-1,0
38133,851968,89,-56,-1,-1,0
38166,-851968,89,-56,-1,-1,0
38200,-1507328,89,-56,-1,-1,0
38233,-983040,89,-56,-1,-1,0
38266,720896,89,-56,-1,-1,0
38300,2490368,89,-56,-1,-1,0
38333,1572864,89,-56,-1,-1,0
38366,-1376256,89,-56,-1,-1,0
38400,-1507328,89,-56,-1,-1,0
38433,-1703936,89,-56,-1,-1,0
38466,-1769472,89,-56,-1,-1,0
38500,-2228224,89,-56,-1,-1,0
38533,-2555904,89,-56,-1,-1,0
38566,-1966080,89,-56,-1,-1,0
38600,-2424832,89,-56,-1,-1,0
38633,-2424832,89,-56,-1,-1,0
38666,16908288,89,-56,-1,-1,0
38700,524288,89,-56,-1,-1,0
38733,1114112,89,-56,-1,-1,0
38766,1245184,89,-56,-1,-1,0
38800,983040,89,-56,-1,-1,0
38833,2031616,89,-56,-1,-1,0
38866,2162688,89,-56,-1,-1,0
38900,458752,89,-56,-1,-1,0
38933,-524288,89,-56,-1,-1,0
38966,-196608,89,-56,-1,-1,0
39000,-983040,89,-56,-1,-1,0
39033,-1441792,89,-56,-1,-1,0
39066,-1376256,89,-56,-1,-1,0
39100,-2293760,89,-56,-1,-1,0
39133,-2686976,89,-56,-1,-1,0
39166,-1441792,89,-56,-1,-1,0
39200,-1376256,89,-56,-1,-1,0
39233,12189696,89,-56,-1,-1,0
39266,1310720,89,-56,-1,-1,0
39300,2490368,89,-56,-1,-1,0
39333,65536,89,-56,-1,-1,0
39366,0,89,-56,-1,-1,0
39400,524288,89,-56,-1,-1,0
39433,655360,89,-56,-1,-1,0
39466,-1638400,89,-56,-1,-1,0
39500,-1638400,89,-56,-1,-1,0
39533,-1179648,89,-56,-1,-1,0
39566,-1638400,89,-56,-1,-1,0
39600,-1769472,89,-56,-1,-1,0
39633,-2031616,89,-56,-1,-1,0
39666,-1572864,89,-56,-1,-1,0
39700,-1966080,89,-56,-1,-1,0
39733,-2359296,89,-56,-1,-1,0
39766,3473408,89,-56,-1,-1,0
39800,-2031616,89,-56,-1,-1,0
39833,-1245184,89,-56,-1,-1,0
39866,1769472,89,-56,-1,-1,0
39900,-1310720,89,-56,-1,-1,0
39933,-196608,89,-56,-1,-1,0
39966,1572864,89,-56,-1,-1,0
40000,196608,89,-56,-1,-1,0
40033,-1310720,89,-56,-1,-1,0
40066,-1900544,89,-56,-1,-1,0
40100,-1638400,89,-56,-1,-1,0
40133,-1572864,89,-56,-1,-1,0
40166,-1048576,89,-56,-1,-1,0
40200,-1376256,89,-56,-1,-1,0
40233,-1572864,89,-56,-1,-1,0
40266,-1900544,90,-56,-1,-1,0
40300,-1900544,90,-56,-1,-1,0
40333,16580608,90,-56,-1,-1,0
40366,-1048576,90,-56,-1,-1,0
40400,-1769472,90,-56,-1,-1,0
40433,-1441792,90,-56,-1,-1,0
40466,-262144,90,-56,-1,-1,0
40500,1572864,90,-56,-1,-1,0
40533,1048576,90,-56,-1,-1,0
40566,-851968,90,-56,-1,-1,0
40600,-1638400,90,-56,-1,-1,0
40633,-1441792,90,-56,-1,-1,0
40666,-524288,90,-56,-1,-1,0
40700,655360,90,-56,-1,-1,0
40733,983040,90,-56,-1,-1,0
40766,524288,90,-56,-1,-1,0
40800,0,90,-56,-1,-1,0
40833,-917504,90,-56,-1,-1,0
40866,8192000,90,-56,-1,-1,0
40900,327680,90,-56,-1,-1,0
40933,-851968,90,-56,-1,-1,0
40966,-720896,90,-56,-1,-1,0
41000,-655360,90,-56,-1,-1,0
41033,-65536,90,-56,-1,-1,0
41066,1048576,90,-56,-1,-1,0
41100,-393216,90,-56,-1,-1,0
41133,589824,90,-56,-1,-1,0
41166,-327680,90,-56,-1,-1,0
41200,0,90,-56,-1,-1,0
41233,131072,90,-56,-1,-1,0
41266,262144,90,-56,-1,-1,0
41300,131072,90,-56,-1,-1,0
41333,-786432,90,-56,-1,-1,0
41366,-2097152,90,-56,-1,-1,0
41400,-2555904,90,-56,-1,-1,0
41433,9568256,90,-56,-1,-1,0
41466,-1048576,90,-56,-1,-1,0
41500,-2686976,90,-56,-1,-1,0
41533,-917504,90,-56,-1,-1,0
41566,-2228224,90,-56,-1,-1,0
41600,-851968,90,-56,-1,-1,0
41633,-196608,90,-56,-1,-1,0
41666,131072,90,-56,-1,-1,0
41700,-1310720,90,-56,-1,-1,0
41733,262144,90,-56,-1,-1,0
41766,3997696,90,-56,-1,-1,0
41800,2621440,90,-56,-1,-1,0
41833,1966080,90,-56,-1,-1,0
41866,-1638400,90,-56,-1,-1,0
41900,-2621440,90,-56,-1,-1,0
41933,-2621440,89,-56,-1,-1,0
41966,-2752512,89,-56,-1,-1,0
42000,14221312,89,-56,-1,-1,0
42033,-1179648,89,-56,-1,-1,0
42066,-1114112,89,-56,-1,-1,0
42100,-131072,89,-56,-1,-1,0
42133,-65536,89,-56,-1,-1,0
42166,2490368,89,-56,-1,-1,0
42200,1507328,89,-56,-1,-1,0
42233,-65536,89,-56,-1,-1,0
42266,-1114112,89,-56,-1,-1,0
42300,-1179648,89,-56,-1,-1,0
42333,-1703936,89,-56,-1,-1,0
42366,-1966080,89,-56,-1,-1,0
42400,-1507328,89,-56,-1,-1,0
42433,-1245184,89,-56,-1,-1,0
42466,-2097152,89,-56,-1,-1,0
42500,-2424832,90,-56,-1,-1,0
42533,9633792,90,-56,-1,-1,0
42566,-1310720,90,-56,-1,-1,0
42600,-1245184,90,-56,-1,-1,0
42633,-655360,90,-56,-1,-1,0
42666,851968,90,-56,-1,-1,0
42700,2555904,90,-56,-1,-1,0
42733,2424832,90,-56,-1,-1,0
42766,1310720,90,-56,-1,-1,0
42800,-655360,90,-56,-1,-1,0
42833,-131072,90,-56,-1,-1,0
42866,-262144,90,-56,-1,-1,0
42900,-655360,90,-56,-1,-1,0
42933,-851968,90,-56,-1,-1,0
42966,-2097152,90,-56,-1,-1,0
43000,-1376256,90,-56,-1,-1,0
43033,-2293760,89,-56,-1,-1,0
43066,-2949120,89,-56,-1,-1,0
43100,14024704,89,-56,-1,-1,0
43133,196608,89,-56,-1,-1,0
43166,-655360,89,-56,-1,-1,0
43200,-65536,89,-56,-1,-1,0
43233,524288,89,-56,-1,-1,0
43266,2359296,89,-56,-1,-1,0
43300,1114112,89,-56,-1,-1,0
43333,-589824,89,-56,-1,-1,0
43366,-2818048,89,-56,-1,-1,0
43400,-1703936,89,-56,-1,-1,0
43433,-1769472,89,-56,-1,-1,0
43466,-1835008,89,-56,-1,-1,0
43500,-1441792,89,-56,-1,-1,0
43533,-2555904,89,-56,-1,-1,0
43566,-3211264,89,-56,-1,-1,0
43600,-1835008,90,-56,-1,-1,0
43633,-589824,90,-56,-1,-1,0
43666,2883584,90,-56,-1,-1,0
43700,-458752,90,-56,-1,-1,0
43733,1507328,90,-56,-1,-1,0
43766,1703936,90,-56,-1,-1,0
43800,458752,90,-56,-1,-1,0
43833,983040,90,-56,-1,-1,0
43866,-720896,90,-56,-1,-1,0
43900,-1900544,90,-56,-1,-1,0
43933,-1900544,90,-56,-1,-1,0
43966,-1441792,90,-56,-1,-1,0
44000,-1966080,90,-56,-1,-1,0
44033,-851968,90,-56,-1,-1,0
44066,-458752,90,-56,-1,-1,0
44100,-1114112,90,-56,-1,-1,0
44133,-1900544,90,-56,-1,-1,0
44166,-1441792,90,-56,-1,-1,0
44200,13041664,90,-56,-1,-1,0
44233,589824,90,-56,-1,-1,0
44266,327680,90,-56,-1,-1,0
44300,-458752,90,-56,-1,-1,0
44333,-196608,90,-56,-1,-1,0
44366,851968,90,-56,-1,-1,0
44400,2490368,90,-56,-1,-1,0
44433,-196608,90,-56,-1,-1,0
44466,-2162688,90,-56,-1,-1,0
44500,-2228224,90,-56,-1,-1,0
44533,-2097152,90,-56,-1,-1,0
44566,-2031616,90,-56,-1,-1,0
44600,-2031616,90,-56,-1,-1,0
44633,-1114112,90,-56,-1,-1,0
44666,131072,90,-56,-1,-1,0
44700,262144,90,-56,-1,-1,0
44733,6356992,90,-56,-1,-1,0
44766,917504,90,-56,-1,-1,0
44800,-262144,90,-56,-1,-1,0
44833,-327680,90,-56,-1,-1,0
44866,-262144,90,-56,-1,-1,0
44900,851968,90,-56,-1,-1,0
44933,983040,90,-56,-1,-1,0
44966,-262144,90,-56,-1,-1,0
45000,-917504,90,-56,-1,-1,0
45033,-917504,90,-56,-1,-1,0
45066,-1572864,90,-56,-1,-1,0
45100,-720896,90,-56,-1,-1,0
45133,720896,90,-56,-1,-1,0
45166,131072,90,-56,-1,-1,0
45200,0,90,-56,-1,-1,0
45233,524288,90,-56,-1,-1,0
45266,-65536,90,-56,-1,-1,0
45300,10420224,90,-56,-1,-1,0
45333,-851968,90,-56,-1,-1,0
45366,-2031616,90,-56,-1,-1,0
45400,-1769472,90,-56,-1,-1,0
45433,-1179648,90,-56,-1,-1,0
45466,-458752,90,-56,-1,-1,0
45500,-393216,90,-56,-1,-1,0
45533,-720896,90,-56,-1,-1,0
45566,-524288,90,-56,-1,-1,0
45600,-720896,90,-56,-1,-1,0
45633,-589824,90,-56,-1,-1,0
45666,786432,90,-56,-1,-1,0
45700,-131072,90,-56,-1,-1,0
45733,786432,90,-56,-1,-1,0
45766,851968,90,-56,-1,-1,0
45800,-2031616,90,-56,-1,-1,0
45833,-2621440,90,-56,-1,-1,0
45866,9633792,90,-56,-1,-1,0
45900,-1245184,90,-56,-1,-1,0
45933,-1769472,90,-56,-1,-1,0
45966,-524288,90,-56,-1,-1,0
46000,-327680,90,-56,-1,-1,0
46033,1114112,90,-56,-1,-1,0
46066,1114112,90,-56,-1,-1,0
46100,196608,90,-56,-1,-1,0
46133,-1114112,90,-56,-1,-1,0
46166,-655360,90,-56,-1,-1,0
46200,-393216,90,-56,-1,-1,0
46233,-1114112,90,-56,-1,-1,0
46266,-1376256,90,-56,-1,-1,0
46300,-917504,90,-56,-1,-1,0
46333,-1376256,90,-56,-1,-1,0
46366,-1114112,90,-56,-1,-1,0
46400,8781824,90,-56,-1,-1,0
46433,-393216,90,-56,-1,-1,0
46466,-1572864,90,-56,-1,-1,0
46500,-1507328,90,-56,-1,-1,0
46533,-786432,90,-56,-1,-1,0
46566,0,90,-56,-1,-1,0
46600,1179648,90,-56,-1,-1,0
46633,655360,90,-56,-1,-1,0
46666,524288,90,-56,-1,-1,0
46700,1441792,90,-56,-1,-1,0
46733,196608,90,-56,-1,-1,0
46766,-589824,90,-56,-1,-1,0
46800,-851968,90,-56,-1,-1,0
46833,-655360,90,-56,-1,-1,0
46866,-851968,90,-56,-1,-1,0
46900,-1441792,90,-56,-1,-1,0
46933,-2228224,90,-56,-1,-1,0
46966,13631488,90,-56,-1,-1,0
47000,-393216,90,-56,-1,-1,0
47033,-1245184,90,-56,-1,-1,0
47066,-1638400,90,-56,-1,-1,0
47100,-262144,90,-56,-1,-1,0
47133,1114112,90,-56,-1,-1,0
47166,2490368,90,-56,-1,-1,0
47200,786432,90,-56,-1,-1,0
47233,524288,90,-56,-1,-1,0
47266,720896,90,-56,-1,-1,0
47300,-983040,90,-56,-1,-1,0
47333,-983040,90,-56,-1,-1,0
47366,-851968,90,-56,-1,-1,0
47400,-1507328,90,-56,-1,-1,0
47433,-1114112,90,-56,-1,-1,0
47466,-917504,90,-56,-1,-1,0
47500,-1900544,90,-56,-1,-1,0
47533,5505024,90,-56,-1,-1,0
47566,-1638400,90,-56,-1,-1,0
47600,-2490368,90,-56,-1,-1,0
47633,-1310720,90,-56,-1,-1,0
47666,262144,90,-56,-1,-1,0
47700,5242880,90,-56,-1,-1,0
47733,4063232,90,-56,-1,-1,0
47766,2031616,90,-56,-1,-1,0
47800,1245184,90,-56,-1,-1,0
47833,-917504,90,-56,-1,-1,0
47866,-2424832,90,-56,-1,-1,0
47900,-2752512,90,-56,-1,-1,0
47933,-2359296,90,-56,-1,-1,0
47966,-2752512,90,-56,-1,-1,0
48000,-1966080,90,-56,-1,-1,0
48033,-851968,90,-56,-1,-1,0
48066,524288,90,-56,-1,-1,0
48100,3932160,90,-56,-1,-1,0
48133,-2490368,90,-56,-1,-1,0
48166,-2752512,90,-56,-1,-1,0
48200,-2162688,90,-56,-1,-1,0
48233,-393216,90,-56,-1,-1,0
48266,589824,90,-56,-1,-1,0
48300,-720896,90,-56,-1,-1,0
48333,-1572864,90,-56,-1,-1,0
48366,-1245184,90,-56,-1,-1,0
48400,-1245184,90,-56,-1,-1,0
48433,-1310720,90,-56,-1,-1,0
48466,-1179648,90,-56,-1,-1,0
48500,-1441792,90,-56,-1,-1,0
48533,-589824,90,-56,-1,-1,0
48566,-851968,90,-56,-1,-1,0
48600,-524288,90,-56,-1,-1,0
48633,13434880,90,-56,-1,-1,0
48666,983040,90,-56,-1,-1,0
48700,655360,90,-56,-1,-1,0
48733,458752,90,-56,-1,-1,0
48766,655360,90,-56,-1,-1,0
48800,1769472,90,-56,-1,-1,0
48833,2228224,90,-56,-1,-1,0
48866,1048576,90,-56,-1,-1,0
48900,-65536,90,-56,-1,-1,0
48933,131072,90,-56,-1,-1,0
48966,65536,90,-56,-1,-1,0
49000,-851968,90,-56,-1,-1,0
49033,-1769472,90,-56,-1,-1,0
49066,-2752512,90,-56,-1,-1,0
49100,-1900544,90,-56,-1,-1,0
49133,-393216,90,-56,-1,-1,0
49166,1179648,90,-56,-1,-1,0
49200,5963776,90,-56,-1,-1,0
49233,196608,90,-56,-1,-1,0
49266,720896,90,-56,-1,-1,0
49300,131072,90,-56,-1,-1,0
49333,-196608,90,-56,-1,-1,0
49366,196608,90,-56,-1,-1,0
49400,0,90,-56,-1,-1,0
49433,-1769472,90,-56,-1,-1,0
49466,-3080192,90,-56,-1,-1,0
49500,-2424832,90,-56,-1,-1,0
49533,-1835008,90,-56,-1,-1,0
49566,-2162688,90,-56,-1,-1,0
49600,-1966080,90,-56,-1,-1,0
49633,-1703936,90,-56,-1,-1,0
49666,-1900544,90,-56,-1,-1,0
49700,-851968,90,-56,-1,-1,0
49733,11665408,90,-56,-1,-1,0
49766,458752,90,-56,-1,-1,0
49800,-1179648,90,-56,-1,-1,0
49833,-1966080,90,-56,-1,-1,0
49866,-786432,90,-56,-1,-1,0
49900,327680,90,-56,-1,-1,0
49933,1245184,90,-56,-1,-1,0
49966,655360,90,-56,-1,-1,0
50000,262144,90,-56,-1,-1,0
