milliseconds, ECG, ECG HR, PPG, PPG HR, SpO2, PI
1523628270182,-786432,70,-56,-1,-1,0
1523628270182,-851968,70,-56,-1,-1,0
1523628270182,-655360,70,-56,-1,-1,0
1523628270182,-262144,70,-56,-1,-1,0
1523628270182,-131072,70,-56,-1,-1,0
1523628270229,-65536,70,-56,-1,-1,0
1523628270229,65536,70,-56,-1,-1,0
1523628270229,393216,70,-56,-1,-1,0
1523628270229,655360,70,-56,-1,-1,0
1523628270229,917504,70,-56,-1,-1,0
1523628270263,983040,70,-56,-1,-1,0
1523628270263,1245184,70,-56,-1,-1,0
1523628270263,1703936,70,-56,-1,-1,0
1523628270263,2162688,70,-56,-1,-1,0
1523628270263,2424832,70,-56,-1,-1,0
1523628270302,2686976,70,-56,-1,-1,0
1523628270302,2949120,70,-56,-1,-1,0
1523628270302,3014656,70,-56,-1,-1,0
1523628270302,2883584,70,-56,-1,-1,0
1523628270302,2752512,70,-56,-1,-1,0
1523628270342,2424832,70,-56,-1,-1,0
1523628270342,1835008,70,-56,-1,-1,0
1523628270342,1048576,70,-56,-1,-1,0
1523628270342,458752,70,-56,-1,-1,0
1523628270342,65536,70,-56,-1,-1,0
1523628270384,-131072,70,-56,-1,-1,0
1523628270384,-131072,70,-56,-1,-1,0
1523628270384,65536,70,-56,-1,-1,0
1523628270384,393216,70,-56,-1,-1,0
1523628270384,458752,70,-56,-1,-1,0
1523628270423,458752,70,-56,-1,-1,0
1523628270423,327680,70,-56,-1,-1,0
1523628270423,196608,70,-56,-1,-1,0
1523628270423,65536,70,-56,-1,-1,0
1523628270423,-65536,70,-56,-1,-1,0
1523628270463,-262144,70,-56,-1,-1,0
1523628270463,-262144,70,-56,-1,-1,0
1523628270463,-131072,70,-56,-1,-1,0
1523628270463,0,70,-56,-1,-1,0
1523628270463,-65536,70,-56,-1,-1,0
1523628270503,-131072,70,-56,-1,-1,0
1523628270503,0,70,-56,-1,-1,0
1523628270503,196608,70,-56,-1,-1,0
1523628270503,131072,70,-56,-1,-1,0
1523628270503,0,70,-56,-1,-1,0
1523628270542,-131072,70,-56,-1,-1,0
1523628270542,-262144,70,-56,-1,-1,0
1523628270542,-524288,70,-56,-1,-1,0
1523628270542,-720896,70,-56,-1,-1,0
1523628270542,-851968,70,-56,-1,-1,0
1523628270583,-1114112,70,-56,-1,-1,0
1523628270583,-1245184,70,-56,-1,-1,0
1523628270583,-1245184,70,-56,-1,-1,0
1523628270583,-1048576,70,-56,-1,-1,0
1523628270583,-983040,70,-56,-1,-1,0
1523628270623,-1114112,70,-56,-1,-1,0
1523628270623,-1114112,70,-56,-1,-1,0
1523628270623,-917504,70,-56,-1,-1,0
1523628270623,-786432,70,-56,-1,-1,0
1523628270623,-851968,70,-56,-1,-1,0
1523628270663,-917504,70,-56,-1,-1,0
1523628270663,-917504,70,-56,-1,-1,0
1523628270663,-917504,70,-56,-1,-1,0
1523628270663,-851968,70,-56,-1,-1,0
1523628270663,-589824,70,-56,-1,-1,0
1523628270703,-393216,70,-56,-1,-1,0
1523628270703,-589824,70,-56,-1,-1,0
1523628270703,-786432,70,-56,-1,-1,0
1523628270703,-720896,70,-56,-1,-1,0
1523628270703,-720896,70,-56,-1,-1,0
1523628270743,-917504,70,-56,-1,-1,0
1523628270743,-720896,70,-56,-1,-1,0
1523628270743,-393216,70,-56,-1,-1,0
1523628270743,-458752,70,-56,-1,-1,0
1523628270743,-720896,70,-56,-1,-1,0
1523628270783,-720896,70,-56,-1,-1,0
1523628270783,-720896,70,-56,-1,-1,0
1523628270783,-983040,70,-56,-1,-1,0
1523628270783,-1310720,70,-56,-1,-1,0
1523628270783,-1376256,70,-56,-1,-1,0
1523628270824,-1376256,70,-56,-1,-1,0
1523628270824,-1179648,70,-56,-1,-1,0
1523628270824,-851968,70,-56,-1,-1,0
1523628270824,-851968,70,-56,-1,-1,0
1523628270824,-1572864,70,-56,-1,-1,0
1523628270866,-1179648,70,-56,-1,-1,0
1523628270866,2031616,70,-56,-1,-1,0
1523628270866,8650752,70,-56,-1,-1,0
1523628270866,15532032,70,-56,-1,-1,0
1523628270866,16646144,70,-56,-1,-1,0
1523628270905,10420224,70,-56,-1,-1,0
1523628270905,3538944,70,-56,-1,-1,0
1523628270905,786432,70,-56,-1,-1,0
1523628270905,131072,70,-56,-1,-1,0
1523628270905,-393216,70,-56,-1,-1,0
1523628270943,-720896,71,-56,-1,-1,0
1523628270943,-655360,71,-56,-1,-1,0
1523628270943,-458752,71,-56,-1,-1,0
1523628270943,-65536,71,-56,-1,-1,0
1523628270943,-65536,71,-56,-1,-1,0
1523628270982,-262144,71,-56,-1,-1,0
1523628270982,-524288,71,-56,-1,-1,0
1523628270982,-458752,71,-56,-1,-1,0
1523628270982,-131072,71,-56,-1,-1,0
1523628270982,196608,71,-56,-1,-1,0
1523628271023,327680,71,-56,-1,-1,0
1523628271023,0,71,-56,-1,-1,0
1523628271023,-589824,71,-56,-1,-1,0
1523628271023,-458752,71,-56,-1,-1,0
1523628271023,262144,71,-56,-1,-1,0
1523628271063,589824,71,-56,-1,-1,0
1523628271063,851968,71,-56,-1,-1,0
1523628271063,1310720,71,-56,-1,-1,0
1523628271063,1769472,71,-56,-1,-1,0
1523628271063,2424832,71,-56,-1,-1,0
1523628271103,2883584,71,-56,-1,-1,0
1523628271103,3145728,71,-56,-1,-1,0
1523628271103,3407872,71,-56,-1,-1,0
1523628271103,3866624,71,-56,-1,-1,0
1523628271103,3866624,71,-56,-1,-1,0
1523628271143,4063232,71,-56,-1,-1,0
1523628271143,4456448,71,-56,-1,-1,0
1523628271143,4128768,71,-56,-1,-1,0
1523628271143,3407872,71,-56,-1,-1,0
1523628271143,2555904,71,-56,-1,-1,0
1523628271183,1769472,71,-56,-1,-1,0
1523628271183,1114112,71,-56,-1,-1,0
1523628271183,1048576,71,-56,-1,-1,0
1523628271183,786432,71,-56,-1,-1,0
1523628271183,-786432,71,-56,-1,-1,0
1523628271223,-1900544,71,-56,-1,-1,0
1523628271223,-1245184,71,-56,-1,-1,0
1523628271223,-655360,71,-56,-1,-1,0
1523628271223,-851968,71,-56,-1,-1,0
1523628271223,-524288,71,-56,-1,-1,0
1523628271263,0,71,-56,-1,-1,0
1523628271263,0,71,-56,-1,-1,0
1523628271263,0,71,-56,-1,-1,0
1523628271263,-393216,71,-56,-1,-1,0
1523628271263,-1179648,71,-56,-1,-1,0
1523628271303,-1572864,71,-56,-1,-1,0
1523628271303,-1638400,71,-56,-1,-1,0
1523628271303,-1048576,71,-56,-1,-1,0
1523628271303,-327680,71,-56,-1,-1,0
1523628271303,-262144,71,-56,-1,-1,0
1523628271343,-524288,71,-56,-1,-1,0
1523628271343,-917504,71,-56,-1,-1,0
1523628271343,-1376256,71,-56,-1,-1,0
1523628271343,-1310720,71,-56,-1,-1,0
1523628271343,-1179648,71,-56,-1,-1,0
1523628271383,-1179648,71,-56,-1,-1,0
1523628271383,-1376256,71,-56,-1,-1,0
1523628271383,-1572864,71,-56,-1,-1,0
1523628271383,-1638400,71,-56,-1,-1,0
1523628271383,-1245184,71,-56,-1,-1,0
1523628271423,-983040,71,-56,-1,-1,0
1523628271423,-917504,71,-56,-1,-1,0
1523628271423,-851968,71,-56,-1,-1,0
1523628271423,-1114112,71,-56,-1,-1,0
1523628271423,-1703936,71,-56,-1,-1,0
1523628271463,-2097152,71,-56,-1,-1,0
1523628271463,-1966080,71,-56,-1,-1,0
1523628271463,-1835008,71,-56,-1,-1,0
1523628271463,-1703936,71,-56,-1,-1,0
1523628271463,-1572864,71,-56,-1,-1,0
1523628271503,-1048576,71,-56,-1,-1,0
1523628271503,-786432,71,-56,-1,-1,0
1523628271503,-655360,71,-56,-1,-1,0
1523628271503,-851968,71,-56,-1,-1,0
1523628271503,-983040,71,-56,-1,-1,0
1523628271543,-851968,71,-56,-1,-1,0
1523628271543,-1245184,71,-56,-1,-1,0
1523628271543,-1376256,71,-56,-1,-1,0
1523628271543,-983040,71,-56,-1,-1,0
1523628271543,-655360,71,-56,-1,-1,0
1523628271582,-786432,71,-56,-1,-1,0
1523628271582,-983040,71,-56,-1,-1,0
1523628271582,-1114112,71,-56,-1,-1,0
1523628271582,-1114112,71,-56,-1,-1,0
1523628271582,-917504,71,-56,-1,-1,0
1523628271623,-720896,71,-56,-1,-1,0
1523628271623,-720896,71,-56,-1,-1,0
1523628271623,-524288,71,-56,-1,-1,0
1523628271623,-262144,71,-56,-1,-1,0
1523628271623,-983040,71,-56,-1,-1,0
1523628271663,-1703936,71,-56,-1,-1,0
1523628271663,0,71,-56,-1,-1,0
1523628271663,4653056,71,-56,-1,-1,0
1523628271663,10092544,71,-56,-1,-1,0
1523628271663,13041664,71,-56,-1,-1,0
1523628271703,10682368,71,-56,-1,-1,0
1523628271703,5242880,71,-56,-1,-1,0
1523628271703,1835008,71,-56,-1,-1,0
1523628271703,1114112,71,-56,-1,-1,0
1523628271703,720896,71,-56,-1,-1,0
1523628271742,131072,71,-56,-1,-1,0
1523628271742,65536,71,-56,-1,-1,0
1523628271742,196608,71,-56,-1,-1,0
1523628271742,65536,71,-56,-1,-1,0
1523628271742,65536,71,-56,-1,-1,0
1523628271783,524288,72,-56,-1,-1,0
1523628271783,851968,72,-56,-1,-1,0
1523628271783,786432,72,-56,-1,-1,0
1523628271783,720896,72,-56,-1,-1,0
1523628271783,655360,72,-56,-1,-1,0
1523628271823,589824,72,-56,-1,-1,0
1523628271823,458752,72,-56,-1,-1,0
1523628271823,655360,72,-56,-1,-1,0
1523628271823,851968,72,-56,-1,-1,0
1523628271823,917504,72,-56,-1,-1,0
1523628271863,720896,72,-56,-1,-1,0
1523628271863,327680,72,-56,-1,-1,0
1523628271863,196608,72,-56,-1,-1,0
1523628271863,131072,72,-56,-1,-1,0
1523628271863,0,72,-56,-1,-1,0
1523628271903,0,72,-56,-1,-1,0
1523628271903,327680,72,-56,-1,-1,0
1523628271903,327680,72,-56,-1,-1,0
1523628271903,262144,72,-56,-1,-1,0
1523628271903,655360,72,-56,-1,-1,0
1523628271943,1376256,72,-56,-1,-1,0
1523628271943,1572864,72,-56,-1,-1,0
1523628271943,1376256,72,-56,-1,-1,0
1523628271943,1114112,72,-56,-1,-1,0
1523628271943,655360,72,-56,-1,-1,0
1523628271983,0,72,-56,-1,-1,0
1523628271983,-196608,72,-56,-1,-1,0
1523628271983,-458752,72,-56,-1,-1,0
1523628271983,-720896,72,-56,-1,-1,0
1523628271983,-917504,72,-56,-1,-1,0
1523628272023,-1310720,72,-56,-1,-1,0
1523628272023,-1835008,72,-56,-1,-1,0
1523628272023,-1900544,72,-56,-1,-1,0
1523628272023,-1769472,72,-56,-1,-1,0
1523628272023,-1638400,72,-56,-1,-1,0
1523628272063,-1966080,72,-56,-1,-1,0
1523628272063,-2097152,72,-56,-1,-1,0
1523628272063,-1441792,72,-56,-1,-1,0
1523628272063,-1245184,72,-56,-1,-1,0
1523628272063,-1769472,72,-56,-1,-1,0
1523628272103,-1835008,72,-56,-1,-1,0
1523628272103,-1638400,72,-56,-1,-1,0
1523628272103,-1376256,72,-56,-1,-1,0
1523628272103,-1245184,72,-56,-1,-1,0
1523628272103,-983040,72,-56,-1,-1,0
1523628272144,-851968,72,-56,-1,-1,0
1523628272144,-917504,72,-56,-1,-1,0
1523628272144,-983040,72,-56,-1,-1,0
1523628272144,-1245184,72,-56,-1,-1,0
1523628272144,-1441792,72,-56,-1,-1,0
1523628272183,-1245184,72,-56,-1,-1,0
1523628272183,-983040,72,-56,-1,-1,0
1523628272183,-1048576,72,-56,-1,-1,0
1523628272183,-1179648,72,-56,-1,-1,0
1523628272183,-1245184,72,-56,-1,-1,0
1523628272223,-1114112,72,-56,-1,-1,0
1523628272223,-1048576,72,-56,-1,-1,0
1523628272223,-983040,72,-56,-1,-1,0
1523628272223,-524288,72,-56,-1,-1,0
1523628272223,-393216,72,-56,-1,-1,0
1523628272263,-786432,72,-56,-1,-1,0
1523628272263,-1048576,72,-56,-1,-1,0
1523628272263,-1048576,72,-56,-1,-1,0
1523628272263,-655360,72,-56,-1,-1,0
1523628272263,-327680,72,-56,-1,-1,0
1523628272303,-589824,72,-56,-1,-1,0
1523628272303,-1507328,72,-56,-1,-1,0
1523628272303,-1441792,72,-56,-1,-1,0
1523628272303,-589824,72,-56,-1,-1,0
1523628272303,-589824,72,-56,-1,-1,0
1523628272345,-1376256,72,-56,-1,-1,0
1523628272345,-1507328,72,-56,-1,-1,0
1523628272345,-917504,72,-56,-1,-1,0
1523628272345,-1179648,72,-56,-1,-1,0
1523628272345,-1376256,72,-56,-1,-1,0
1523628272383,-983040,72,-56,-1,-1,0
1523628272383,-589824,72,-56,-1,-1,0
1523628272383,-917504,72,-56,-1,-1,0
1523628272383,-1114112,72,-56,-1,-1,0
1523628272383,-1310720,72,-56,-1,-1,0
1523628272423,-1507328,72,-56,-1,-1,0
1523628272423,-1310720,72,-56,-1,-1,0
1523628272423,-786432,72,-56,-1,-1,0
1523628272423,-1048576,72,-56,-1,-1,0
1523628272423,-1966080,72,-56,-1,-1,0
1523628272463,-2293760,72,-56,-1,-1,0
1523628272463,-1966080,72,-56,-1,-1,0
1523628272463,-1376256,72,-56,-1,-1,0
1523628272463,458752,72,-56,-1,-1,0
1523628272463,5242880,72,-56,-1,-1,0
1523628272503,11730944,72,-56,-1,-1,0
1523628272503,15138816,72,-56,-1,-1,0
1523628272503,11272192,72,-56,-1,-1,0
1523628272503,3604480,72,-56,-1,-1,0
1523628272503,-524288,72,-56,-1,-1,0
1523628272543,-786432,72,-56,-1,-1,0
1523628272543,-851968,72,-56,-1,-1,0
1523628272543,-1179648,72,-56,-1,-1,0
1523628272543,-1441792,72,-56,-1,-1,0
1523628272543,-1769472,72,-56,-1,-1,0
1523628272585,-1900544,72,-56,-1,-1,0
1523628272585,-1835008,72,-56,-1,-1,0
1523628272585,-1769472,72,-56,-1,-1,0
1523628272585,-1703936,72,-56,-1,-1,0
1523628272585,-1638400,72,-56,-1,-1,0
1523628272623,-1507328,72,-56,-1,-1,0
1523628272623,-1441792,72,-56,-1,-1,0
1523628272623,-1507328,72,-56,-1,-1,0
1523628272623,-1507328,72,-56,-1,-1,0
1523628272623,-1245184,72,-56,-1,-1,0
1523628272663,-1114112,72,-56,-1,-1,0
1523628272663,-983040,72,-56,-1,-1,0
1523628272663,-917504,72,-56,-1,-1,0
1523628272663,-786432,72,-56,-1,-1,0
1523628272663,-524288,72,-56,-1,-1,0
1523628272704,-196608,72,-56,-1,-1,0
1523628272704,65536,72,-56,-1,-1,0
1523628272704,524288,72,-56,-1,-1,0
1523628272704,983040,72,-56,-1,-1,0
1523628272704,1507328,72,-56,-1,-1,0
1523628272743,1835008,72,-56,-1,-1,0
1523628272743,2162688,72,-56,-1,-1,0
1523628272743,2424832,72,-56,-1,-1,0
1523628272743,2752512,72,-56,-1,-1,0
1523628272743,2883584,72,-56,-1,-1,0
1523628272784,2883584,72,-56,-1,-1,0
1523628272784,2424832,72,-56,-1,-1,0
1523628272784,1769472,72,-56,-1,-1,0
1523628272784,1114112,72,-56,-1,-1,0
1523628272784,524288,72,-56,-1,-1,0
1523628272823,65536,72,-56,-1,-1,0
1523628272823,-327680,72,-56,-1,-1,0
1523628272823,-851968,72,-56,-1,-1,0
1523628272823,-1245184,72,-56,-1,-1,0
1523628272823,-1310720,72,-56,-1,-1,0
1523628272863,-1310720,72,-56,-1,-1,0
1523628272863,-1245184,72,-56,-1,-1,0
1523628272863,-1245184,72,-56,-1,-1,0
1523628272863,-1376256,72,-56,-1,-1,0
1523628272863,-1638400,72,-56,-1,-1,0
1523628272903,-2031616,72,-56,-1,-1,0
1523628272903,-2555904,72,-56,-1,-1,0
1523628272903,-2949120,72,-56,-1,-1,0
1523628272903,-3014656,72,-56,-1,-1,0
1523628272903,-3014656,72,-56,-1,-1,0
1523628272943,-2883584,72,-56,-1,-1,0
1523628272943,-2490368,72,-56,-1,-1,0
1523628272943,-2031616,72,-56,-1,-1,0
1523628272943,-1966080,72,-56,-1,-1,0
1523628272943,-1966080,72,-56,-1,-1,0
1523628272983,-1835008,72,-56,-1,-1,0
1523628272983,-1769472,72,-56,-1,-1,0
1523628272983,-2097152,72,-56,-1,-1,0
1523628272983,-2228224,72,-56,-1,-1,0
1523628272983,-1900544,72,-56,-1,-1,0
1523628273023,-1507328,72,-56,-1,-1,0
1523628273023,-1507328,72,-56,-1,-1,0
1523628273023,-1703936,72,-56,-1,-1,0
1523628273023,-1835008,72,-56,-1,-1,0
1523628273023,-1703936,72,-56,-1,-1,0
1523628273065,-1638400,72,-56,-1,-1,0
1523628273065,-1835008,72,-56,-1,-1,0
1523628273065,-2031616,72,-56,-1,-1,0
1523628273065,-1900544,72,-56,-1,-1,0
1523628273065,-1572864,72,-56,-1,-1,0
1523628273103,-1245184,72,-56,-1,-1,0
1523628273103,-851968,72,-56,-1,-1,0
1523628273103,-1114112,72,-56,-1,-1,0
1523628273103,-1769472,72,-56,-1,-1,0
1523628273103,-1835008,72,-56,-1,-1,0
1523628273143,-1310720,72,-56,-1,-1,0
1523628273143,-851968,72,-56,-1,-1,0
1523628273143,-917504,72,-56,-1,-1,0
1523628273143,-917504,72,-56,-1,-1,0
1523628273143,-589824,72,-56,-1,-1,0
1523628273183,-458752,72,-56,-1,-1,0
1523628273183,-786432,72,-56,-1,-1,0
1523628273183,-720896,72,-56,-1,-1,0
1523628273183,-458752,72,-56,-1,-1,0
1523628273183,-655360,72,-56,-1,-1,0
1523628273223,-720896,72,-56,-1,-1,0
1523628273223,-262144,72,-56,-1,-1,0
1523628273223,65536,72,-56,-1,-1,0
1523628273223,65536,72,-56,-1,-1,0
1523628273223,131072,72,-56,-1,-1,0
1523628273263,65536,72,-56,-1,-1,0
1523628273263,-196608,72,-56,-1,-1,0
1523628273263,786432,72,-56,-1,-1,0
1523628273263,5242880,72,-56,-1,-1,0
1523628273263,12451840,72,-56,-1,-1,0
1523628273303,18743296,72,-56,-1,-1,0
1523628273303,18087936,72,-56,-1,-1,0
1523628273303,10682368,72,-56,-1,-1,0
1523628273303,4128768,72,-56,-1,-1,0
1523628273303,2490368,72,-56,-1,-1,0
1523628273343,2359296,72,-56,-1,-1,0
1523628273343,1769472,72,-56,-1,-1,0
1523628273343,1048576,72,-56,-1,-1,0
1523628273343,589824,72,-56,-1,-1,0
1523628273343,720896,72,-56,-1,-1,0
1523628273383,983040,72,-56,-1,-1,0
1523628273383,917504,72,-56,-1,-1,0
1523628273383,655360,72,-56,-1,-1,0
1523628273383,393216,72,-56,-1,-1,0
1523628273383,393216,72,-56,-1,-1,0
1523628273424,589824,72,-56,-1,-1,0
1523628273424,655360,72,-56,-1,-1,0
1523628273424,262144,72,-56,-1,-1,0
1523628273424,131072,72,-56,-1,-1,0
1523628273424,458752,72,-56,-1,-1,0
1523628273463,917504,72,-56,-1,-1,0
1523628273463,1114112,72,-56,-1,-1,0
1523628273463,1441792,72,-56,-1,-1,0
1523628273463,1441792,72,-56,-1,-1,0
1523628273463,1245184,72,-56,-1,-1,0
1523628273502,1245184,72,-56,-1,-1,0
1523628273502,1572864,72,-56,-1,-1,0
1523628273502,2031616,72,-56,-1,-1,0
1523628273502,2293760,72,-56,-1,-1,0
1523628273502,2555904,72,-56,-1,-1,0
1523628273542,2424832,72,-56,-1,-1,0
1523628273542,2359296,72,-56,-1,-1,0
1523628273542,2490368,72,-56,-1,-1,0
1523628273542,2686976,72,-56,-1,-1,0
1523628273542,2424832,72,-56,-1,-1,0
1523628273582,2162688,72,-56,-1,-1,0
1523628273582,2162688,72,-56,-1,-1,0
1523628273582,1966080,72,-56,-1,-1,0
1523628273582,1245184,72,-56,-1,-1,0
1523628273582,655360,72,-56,-1,-1,0
1523628273622,327680,72,-56,-1,-1,0
1523628273622,524288,72,-56,-1,-1,0
1523628273622,786432,72,-56,-1,-1,0
1523628273622,786432,72,-56,-1,-1,0
1523628273622,393216,72,-56,-1,-1,0
1523628273662,393216,72,-56,-1,-1,0
1523628273662,589824,72,-56,-1,-1,0
1523628273662,917504,72,-56,-1,-1,0
1523628273662,851968,72,-56,-1,-1,0
1523628273662,327680,72,-56,-1,-1,0
1523628273702,131072,72,-56,-1,-1,0
1523628273702,393216,72,-56,-1,-1,0
1523628273702,786432,72,-56,-1,-1,0
1523628273702,917504,72,-56,-1,-1,0
1523628273702,589824,72,-56,-1,-1,0
1523628273742,524288,72,-56,-1,-1,0
1523628273742,720896,72,-56,-1,-1,0
1523628273742,983040,72,-56,-1,-1,0
1523628273742,917504,72,-56,-1,-1,0
1523628273742,983040,72,-56,-1,-1,0
1523628273782,1310720,72,-56,-1,-1,0
1523628273782,1507328,72,-56,-1,-1,0
1523628273782,917504,72,-56,-1,-1,0
1523628273782,393216,72,-56,-1,-1,0
1523628273782,196608,72,-56,-1,-1,0
1523628273822,196608,72,-56,-1,-1,0
1523628273822,458752,72,-56,-1,-1,0
1523628273822,1114112,72,-56,-1,-1,0
1523628273822,1376256,72,-56,-1,-1,0
1523628273822,1114112,72,-56,-1,-1,0
1523628273862,720896,72,-56,-1,-1,0
1523628273862,524288,72,-56,-1,-1,0
1523628273862,458752,72,-56,-1,-1,0
1523628273862,327680,72,-56,-1,-1,0
1523628273862,131072,72,-56,-1,-1,0
1523628273902,131072,72,-56,-1,-1,0
1523628273902,65536,72,-56,-1,-1,0
1523628273902,0,72,-56,-1,-1,0
1523628273902,-65536,72,-56,-1,-1,0
1523628273902,0,72,-56,-1,-1,0
1523628273942,-196608,72,-56,-1,-1,0
1523628273942,-524288,72,-56,-1,-1,0
1523628273942,-524288,72,-56,-1,-1,0
1523628273942,-327680,72,-56,-1,-1,0
1523628273942,-458752,72,-56,-1,-1,0
1523628273982,-1310720,72,-56,-1,-1,0
1523628273982,-1703936,72,-56,-1,-1,0
1523628273982,-1638400,72,-56,-1,-1,0
1523628273982,-1638400,72,-56,-1,-1,0
1523628273982,-2031616,72,-56,-1,-1,0
1523628274022,-2621440,72,-56,-1,-1,0
1523628274022,-3211264,72,-56,-1,-1,0
1523628274022,-3866624,72,-56,-1,-1,0
1523628274022,-3801088,72,-56,-1,-1,0
1523628274022,-3604480,72,-56,-1,-1,0
1523628274064,-3276800,72,-56,-1,-1,0
1523628274064,-786432,72,-56,-1,-1,0
1523628274064,4718592,72,-56,-1,-1,0
1523628274064,10682368,72,-56,-1,-1,0
1523628274064,11730944,72,-56,-1,-1,0
1523628274102,6225920,72,-56,-1,-1,0
1523628274102,262144,72,-56,-1,-1,0
1523628274102,-2097152,72,-56,-1,-1,0
1523628274102,-2883584,72,-56,-1,-1,0
1523628274102,-3276800,72,-56,-1,-1,0
1523628274142,-2818048,73,-56,-1,-1,0
1523628274142,-2359296,73,-56,-1,-1,0
1523628274142,-2293760,73,-56,-1,-1,0
1523628274142,-2228224,73,-56,-1,-1,0
1523628274142,-2097152,73,-56,-1,-1,0
1523628274182,-2031616,73,-56,-1,-1,0
1523628274182,-2097152,73,-56,-1,-1,0
1523628274182,-2162688,73,-56,-1,-1,0
1523628274182,-2162688,73,-56,-1,-1,0
1523628274182,-2359296,73,-56,-1,-1,0
1523628274222,-2424832,73,-56,-1,-1,0
1523628274222,-1966080,73,-56,-1,-1,0
1523628274222,-1572864,73,-56,-1,-1,0
1523628274222,-1900544,73,-56,-1,-1,0
1523628274222,-2031616,73,-56,-1,-1,0
1523628274262,-1507328,73,-56,-1,-1,0
1523628274262,-655360,73,-56,-1,-1,0
1523628274262,-458752,73,-56,-1,-1,0
1523628274262,-196608,73,-56,-1,-1,0
1523628274262,-458752,73,-56,-1,-1,0
1523628274302,-327680,73,-56,-1,-1,0
1523628274302,327680,73,-56,-1,-1,0
1523628274302,1179648,73,-56,-1,-1,0
1523628274302,1245184,73,-56,-1,-1,0
1523628274302,1441792,73,-56,-1,-1,0
1523628274344,1900544,73,-56,-1,-1,0
1523628274344,2359296,73,-56,-1,-1,0
1523628274344,2752512,73,-56,-1,-1,0
1523628274344,2752512,73,-56,-1,-1,0
1523628274344,2162688,73,-56,-1,-1,0
1523628274382,1114112,73,-56,-1,-1,0
1523628274382,589824,73,-56,-1,-1,0
1523628274382,524288,73,-56,-1,-1,0
1523628274382,0,73,-56,-1,-1,0
1523628274382,-1179648,73,-56,-1,-1,0
1523628274422,-1835008,73,-56,-1,-1,0
1523628274422,-1769472,73,-56,-1,-1,0
1523628274422,-1441792,73,-56,-1,-1,0
1523628274422,-1507328,73,-56,-1,-1,0
1523628274422,-1769472,73,-56,-1,-1,0
1523628274462,-2097152,73,-56,-1,-1,0
1523628274462,-2359296,73,-56,-1,-1,0
1523628274462,-2686976,73,-56,-1,-1,0
1523628274462,-2883584,73,-56,-1,-1,0
1523628274462,-2359296,73,-56,-1,-1,0
1523628274502,-1703936,73,-56,-1,-1,0
1523628274502,-1835008,73,-56,-1,-1,0
1523628274502,-2228224,73,-56,-1,-1,0
1523628274502,-1900544,73,-56,-1,-1,0
1523628274502,-1572864,73,-56,-1,-1,0
1523628274542,-1703936,73,-56,-1,-1,0
1523628274542,-1835008,73,-56,-1,-1,0
1523628274542,-1638400,73,-56,-1,-1,0
1523628274542,-1114112,73,-56,-1,-1,0
1523628274542,-851968,73,-56,-1,-1,0
1523628274582,-983040,73,-56,-1,-1,0
1523628274582,-1245184,73,-56,-1,-1,0
1523628274582,-1179648,73,-56,-1,-1,0
1523628274582,-1114112,73,-56,-1,-1,0
1523628274582,-1376256,73,-56,-1,-1,0
1523628274622,-1703936,73,-56,-1,-1,0
1523628274622,-1703936,73,-56,-1,-1,0
1523628274622,-1900544,73,-56,-1,-1,0
1523628274622,-2097152,73,-56,-1,-1,0
1523628274622,-1900544,73,-56,-1,-1,0
1523628274662,-1376256,73,-56,-1,-1,0
1523628274662,-1441792,73,-56,-1,-1,0
1523628274662,-1769472,73,-56,-1,-1,0
1523628274662,-1769472,73,-56,-1,-1,0
1523628274662,-1638400,73,-56,-1,-1,0
1523628274704,-1703936,73,-56,-1,-1,0
1523628274704,-1703936,73,-56,-1,-1,0
1523628274704,-1769472,73,-56,-1,-1,0
1523628274704,-1572864,73,-56,-1,-1,0
1523628274704,-1114112,73,-56,-1,-1,0
1523628274747,-655360,73,-56,-1,-1,0
1523628274747,-589824,73,-56,-1,-1,0
1523628274747,-1114112,73,-56,-1,-1,0
1523628274747,-1507328,73,-56,-1,-1,0
1523628274747,-1376256,73,-56,-1,-1,0
1523628274782,-1441792,73,-56,-1,-1,0
1523628274782,-1769472,73,-56,-1,-1,0
1523628274782,-2097152,73,-56,-1,-1,0
1523628274782,-1966080,73,-56,-1,-1,0
1523628274782,-1572864,73,-56,-1,-1,0
1523628274825,-1572864,73,-56,-1,-1,0
1523628274825,-2359296,73,-56,-1,-1,0
1523628274825,-2686976,73,-56,-1,-1,0
1523628274825,-327680,73,-56,-1,-1,0
1523628274825,4653056,73,-56,-1,-1,0
1523628274862,10682368,73,-56,-1,-1,0
1523628274862,15532032,73,-56,-1,-1,0
1523628274862,13893632,73,-56,-1,-1,0
1523628274862,6750208,73,-56,-1,-1,0
1523628274862,1310720,73,-56,-1,-1,0
1523628274902,458752,73,-56,-1,-1,0
1523628274902,327680,73,-56,-1,-1,0
1523628274902,65536,73,-56,-1,-1,0
1523628274902,65536,73,-56,-1,-1,0
1523628274902,65536,73,-56,-1,-1,0
1523628274942,0,73,-56,-1,-1,0
1523628274942,131072,73,-56,-1,-1,0
1523628274942,196608,73,-56,-1,-1,0
1523628274942,327680,73,-56,-1,-1,0
1523628274942,524288,73,-56,-1,-1,0
1523628274982,720896,73,-56,-1,-1,0
1523628274982,655360,73,-56,-1,-1,0
1523628274982,786432,73,-56,-1,-1,0
1523628274982,1114112,73,-56,-1,-1,0
1523628274982,1441792,73,-56,-1,-1,0
1523628275022,1507328,73,-56,-1,-1,0
1523628275022,1769472,73,-56,-1,-1,0
1523628275022,2031616,73,-56,-1,-1,0
1523628275022,2293760,73,-56,-1,-1,0
1523628275022,2359296,73,-56,-1,-1,0
1523628275062,2555904,73,-56,-1,-1,0
1523628275062,2686976,73,-56,-1,-1,0
1523628275062,3014656,73,-56,-1,-1,0
1523628275062,3276800,73,-56,-1,-1,0
1523628275062,3670016,73,-56,-1,-1,0
1523628275102,4063232,73,-56,-1,-1,0
1523628275102,4653056,73,-56,-1,-1,0
1523628275102,4915200,73,-56,-1,-1,0
1523628275102,4718592,73,-56,-1,-1,0
1523628275102,4128768,73,-56,-1,-1,0
1523628275142,3407872,73,-56,-1,-1,0
1523628275142,2752512,73,-56,-1,-1,0
1523628275142,2031616,73,-56,-1,-1,0
1523628275142,1245184,73,-56,-1,-1,0
1523628275142,589824,73,-56,-1,-1,0
1523628275184,0,73,-56,-1,-1,0
1523628275184,-458752,73,-56,-1,-1,0
1523628275184,-851968,73,-56,-1,-1,0
1523628275184,-1245184,73,-56,-1,-1,0
1523628275184,-1507328,73,-56,-1,-1,0
1523628275222,-1507328,73,-56,-1,-1,0
1523628275222,-1507328,73,-56,-1,-1,0
1523628275222,-1638400,73,-56,-1,-1,0
1523628275222,-1703936,73,-56,-1,-1,0
1523628275222,-1376256,73,-56,-1,-1,0
1523628275262,-1048576,73,-56,-1,-1,0
1523628275262,-1114112,73,-56,-1,-1,0
1523628275262,-1310720,73,-56,-1,-1,0
1523628275262,-1507328,73,-56,-1,-1,0
1523628275262,-1441792,73,-56,-1,-1,0
1523628275302,-1245184,73,-56,-1,-1,0
1523628275302,-1114112,73,-56,-1,-1,0
1523628275302,-1245184,73,-56,-1,-1,0
1523628275302,-1376256,73,-56,-1,-1,0
1523628275302,-1441792,73,-56,-1,-1,0
1523628275344,-1900544,73,-56,-1,-1,0
1523628275344,-2359296,73,-56,-1,-1,0
1523628275344,-2359296,73,-56,-1,-1,0
1523628275344,-2162688,73,-56,-1,-1,0
1523628275344,-2228224,73,-56,-1,-1,0
1523628275382,-2424832,73,-56,-1,-1,0
1523628275382,-2490368,73,-56,-1,-1,0
1523628275382,-2555904,73,-56,-1,-1,0
1523628275382,-2424832,73,-56,-1,-1,0
1523628275382,-2424832,73,-56,-1,-1,0
1523628275422,-2686976,73,-56,-1,-1,0
1523628275422,-2490368,73,-56,-1,-1,0
1523628275422,-1769472,73,-56,-1,-1,0
1523628275422,-1507328,73,-56,-1,-1,0
1523628275422,-1900544,73,-56,-1,-1,0
1523628275462,-1966080,73,-56,-1,-1,0
1523628275462,-1572864,73,-56,-1,-1,0
1523628275462,-1441792,73,-56,-1,-1,0
1523628275462,-1769472,73,-56,-1,-1,0
1523628275462,-1769472,73,-56,-1,-1,0
1523628275502,-1245184,73,-56,-1,-1,0
1523628275502,-983040,73,-56,-1,-1,0
1523628275502,-917504,73,-56,-1,-1,0
1523628275502,-917504,73,-56,-1,-1,0
1523628275502,-1179648,73,-56,-1,-1,0
1523628275542,-1441792,73,-56,-1,-1,0
1523628275542,-1507328,73,-56,-1,-1,0
1523628275542,-1507328,73,-56,-1,-1,0
1523628275542,-1245184,73,-56,-1,-1,0
1523628275542,-1310720,73,-56,-1,-1,0
1523628275582,-1900544,73,-56,-1,-1,0
1523628275582,-2228224,73,-56,-1,-1,0
1523628275582,-1835008,73,-56,-1,-1,0
1523628275582,-2031616,73,-56,-1,-1,0
1523628275582,-1966080,73,-56,-1,-1,0
1523628275622,589824,73,-56,-1,-1,0
1523628275622,6881280,73,-56,-1,-1,0
1523628275622,14155776,73,-56,-1,-1,0
1523628275622,16252928,73,-56,-1,-1,0
1523628275622,10158080,73,-56,-1,-1,0
1523628275662,2686976,73,-56,-1,-1,0
1523628275662,-196608,73,-56,-1,-1,0
1523628275662,-589824,73,-56,-1,-1,0
1523628275662,-1179648,73,-56,-1,-1,0
1523628275662,-1966080,73,-56,-1,-1,0
1523628275702,-2162688,73,-56,-1,-1,0
1523628275702,-1572864,73,-56,-1,-1,0
1523628275702,-1048576,73,-56,-1,-1,0
1523628275702,-2031616,73,-56,-1,-1,0
1523628275702,-3014656,73,-56,-1,-1,0
1523628275742,-3080192,73,-56,-1,-1,0
1523628275742,-2424832,73,-56,-1,-1,0
1523628275742,-2490368,73,-56,-1,-1,0
1523628275742,-3211264,73,-56,-1,-1,0
1523628275742,-3211264,73,-56,-1,-1,0
1523628275782,-2490368,73,-56,-1,-1,0
1523628275782,-1507328,73,-56,-1,-1,0
1523628275782,-1376256,73,-56,-1,-1,0
1523628275782,-1179648,73,-56,-1,-1,0
1523628275782,-851968,73,-56,-1,-1,0
1523628275822,-786432,73,-56,-1,-1,0
1523628275822,-655360,73,-56,-1,-1,0
1523628275822,-655360,73,-56,-1,-1,0
1523628275822,-458752,73,-56,-1,-1,0
1523628275822,-393216,73,-56,-1,-1,0
1523628275862,-131072,73,-56,-1,-1,0
1523628275862,131072,73,-56,-1,-1,0
1523628275862,524288,73,-56,-1,-1,0
1523628275862,917504,73,-56,-1,-1,0
1523628275862,786432,73,-56,-1,-1,0
1523628275902,720896,73,-56,-1,-1,0
1523628275902,655360,73,-56,-1,-1,0
1523628275902,393216,73,-56,-1,-1,0
1523628275902,-65536,73,-56,-1,-1,0
1523628275902,-327680,73,-56,-1,-1,0
1523628275942,-589824,73,-56,-1,-1,0
1523628275942,-851968,73,-56,-1,-1,0
1523628275942,-1114112,73,-56,-1,-1,0
1523628275942,-1310720,73,-56,-1,-1,0
1523628275942,-1245184,73,-56,-1,-1,0
1523628275984,-1114112,73,-56,-1,-1,0
1523628275984,-1441792,73,-56,-1,-1,0
1523628275984,-2162688,73,-56,-1,-1,0
1523628275984,-2686976,73,-56,-1,-1,0
1523628275984,-2752512,73,-56,-1,-1,0
1523628276022,-2162688,73,-56,-1,-1,0
1523628276022,-1769472,73,-56,-1,-1,0
1523628276022,-1900544,73,-56,-1,-1,0
1523628276022,-1966080,73,-56,-1,-1,0
1523628276022,-1638400,73,-56,-1,-1,0
1523628276062,-1376256,73,-56,-1,-1,0
1523628276062,-1507328,73,-56,-1,-1,0
1523628276062,-1703936,73,-56,-1,-1,0
1523628276062,-1441792,73,-56,-1,-1,0
1523628276062,-1245184,73,-56,-1,-1,0
1523628276102,-1179648,73,-56,-1,-1,0
1523628276102,-1310720,73,-56,-1,-1,0
1523628276102,-1507328,73,-56,-1,-1,0
1523628276102,-1835008,73,-56,-1,-1,0
1523628276102,-1703936,73,-56,-1,-1,0
1523628276142,-1572864,73,-56,-1,-1,0
1523628276142,-1572864,73,-56,-1,-1,0
1523628276142,-1507328,73,-56,-1,-1,0
1523628276142,-1441792,73,-56,-1,-1,0
1523628276142,-1900544,73,-56,-1,-1,0
1523628276182,-2359296,73,-56,-1,-1,0
1523628276182,-2686976,73,-56,-1,-1,0
1523628276182,-2686976,73,-56,-1,-1,0
1523628276182,-2621440,73,-56,-1,-1,0
1523628276182,-2949120,73,-56,-1,-1,0
1523628276222,-2883584,73,-56,-1,-1,0
1523628276222,-1966080,73,-56,-1,-1,0
1523628276222,-1310720,73,-56,-1,-1,0
1523628276222,-1769472,73,-56,-1,-1,0
1523628276222,-2359296,73,-56,-1,-1,0
1523628276262,-2031616,73,-56,-1,-1,0
1523628276262,-1310720,73,-56,-1,-1,0
1523628276262,-655360,73,-56,-1,-1,0
1523628276262,-720896,73,-56,-1,-1,0
1523628276262,-1048576,73,-56,-1,-1,0
1523628276302,-1245184,73,-56,-1,-1,0
1523628276302,-1376256,73,-56,-1,-1,0
1523628276302,-1638400,73,-56,-1,-1,0
1523628276302,-2162688,73,-56,-1,-1,0
1523628276302,-2949120,73,-56,-1,-1,0
1523628276342,-3145728,73,-56,-1,-1,0
1523628276342,-2949120,73,-56,-1,-1,0
1523628276342,-2949120,73,-56,-1,-1,0
1523628276342,-3407872,73,-56,-1,-1,0
1523628276342,-3670016,73,-56,-1,-1,0
1523628276382,-2424832,73,-56,-1,-1,0
1523628276382,2359296,73,-56,-1,-1,0
1523628276382,9764864,73,-56,-1,-1,0
1523628276382,14548992,73,-56,-1,-1,0
1523628276382,11599872,73,-56,-1,-1,0
1523628276422,4259840,74,-56,-1,-1,0
1523628276422,-393216,74,-56,-1,-1,0
1523628276422,-1441792,74,-56,-1,-1,0
1523628276422,-2228224,74,-56,-1,-1,0
1523628276422,-2293760,74,-56,-1,-1,0
1523628276462,-1900544,74,-56,-1,-1,0
1523628276462,-2097152,74,-56,-1,-1,0
1523628276462,-1900544,74,-56,-1,-1,0
1523628276462,-1310720,74,-56,-1,-1,0
1523628276462,-983040,74,-56,-1,-1,0
1523628276502,-1310720,74,-56,-1,-1,0
1523628276502,-1441792,74,-56,-1,-1,0
1523628276502,-1769472,74,-56,-1,-1,0
1523628276502,-1900544,74,-56,-1,-1,0
1523628276502,-1769472,74,-56,-1,-1,0
1523628276542,-1507328,74,-56,-1,-1,0
1523628276542,-1638400,74,-56,-1,-1,0
1523628276542,-1572864,74,-56,-1,-1,0
1523628276542,-1507328,74,-56,-1,-1,0
1523628276542,-1179648,74,-56,-1,-1,0
1523628276582,-917504,74,-56,-1,-1,0
1523628276582,-983040,74,-56,-1,-1,0
1523628276582,-851968,74,-56,-1,-1,0
1523628276582,-458752,74,-56,-1,-1,0
1523628276582,589824,74,-56,-1,-1,0
1523628276624,1376256,74,-56,-1,-1,0
1523628276624,1179648,74,-56,-1,-1,0
1523628276624,196608,74,-56,-1,-1,0
1523628276624,393216,74,-56,-1,-1,0
1523628276624,1703936,74,-56,-1,-1,0
1523628276662,1900544,74,-56,-1,-1,0
1523628276662,1310720,74,-56,-1,-1,0
1523628276662,524288,74,-56,-1,-1,0
1523628276662,524288,74,-56,-1,-1,0
1523628276662,327680,74,-56,-1,-1,0
1523628276702,-262144,74,-56,-1,-1,0
1523628276702,-1179648,74,-56,-1,-1,0
1523628276702,-1376256,74,-56,-1,-1,0
1523628276702,-1507328,74,-56,-1,-1,0
1523628276702,-2162688,74,-56,-1,-1,0
1523628276742,-2228224,74,-56,-1,-1,0
1523628276742,-1769472,74,-56,-1,-1,0
1523628276742,-786432,74,-56,-1,-1,0
1523628276742,-655360,74,-56,-1,-1,0
1523628276742,-1310720,74,-56,-1,-1,0
1523628276782,-1703936,74,-56,-1,-1,0
1523628276782,-983040,74,-56,-1,-1,0
1523628276782,-131072,74,-56,-1,-1,0
1523628276782,-786432,74,-56,-1,-1,0
1523628276782,-1310720,74,-56,-1,-1,0
1523628276822,-1376256,74,-56,-1,-1,0
1523628276822,-655360,74,-56,-1,-1,0
1523628276822,-262144,74,-56,-1,-1,0
1523628276822,-327680,74,-56,-1,-1,0
1523628276822,-917504,74,-56,-1,-1,0
1523628276862,-851968,74,-56,-1,-1,0
1523628276862,-720896,74,-56,-1,-1,0
1523628276862,-720896,74,-56,-1,-1,0
1523628276862,-1048576,74,-56,-1,-1,0
1523628276862,-1376256,74,-56,-1,-1,0
1523628276902,-1245184,74,-56,-1,-1,0
1523628276902,-655360,74,-56,-1,-1,0
1523628276902,-65536,74,-56,-1,-1,0
1523628276902,-524288,74,-56,-1,-1,0
1523628276902,-786432,74,-56,-1,-1,0
1523628276942,-589824,74,-56,-1,-1,0
1523628276942,-262144,74,-56,-1,-1,0
1523628276942,-393216,74,-56,-1,-1,0
1523628276942,-655360,74,-56,-1,-1,0
1523628276942,-720896,74,-56,-1,-1,0
1523628276982,-327680,74,-56,-1,-1,0
1523628276982,-131072,74,-56,-1,-1,0
1523628276982,-393216,74,-56,-1,-1,0
1523628276982,-655360,74,-56,-1,-1,0
1523628276982,-196608,74,-56,-1,-1,0
1523628277022,196608,74,-56,-1,-1,0
1523628277022,393216,74,-56,-1,-1,0
1523628277022,65536,74,-56,-1,-1,0
1523628277022,-131072,74,-56,-1,-1,0
1523628277022,-131072,74,-56,-1,-1,0
1523628277064,-393216,74,-56,-1,-1,0
1523628277064,-655360,74,-56,-1,-1,0
1523628277064,-458752,74,-56,-1,-1,0
1523628277064,-65536,74,-56,-1,-1,0
1523628277064,-196608,74,-56,-1,-1,0
1523628277102,-327680,74,-56,-1,-1,0
1523628277102,-327680,74,-56,-1,-1,0
1523628277102,-720896,74,-56,-1,-1,0
1523628277102,-458752,74,-56,-1,-1,0
1523628277102,2555904,74,-56,-1,-1,0
1523628277142,8585216,74,-56,-1,-1,0
1523628277142,15400960,74,-56,-1,-1,0
1523628277142,17760256,74,-56,-1,-1,0
1523628277142,12582912,74,-56,-1,-1,0
1523628277142,5439488,74,-56,-1,-1,0
1523628277182,2097152,74,-56,-1,-1,0
1523628277182,1769472,74,-56,-1,-1,0
1523628277182,1703936,74,-56,-1,-1,0
1523628277182,1376256,74,-56,-1,-1,0
1523628277182,1048576,74,-56,-1,-1,0
1523628277222,1507328,74,-56,-1,-1,0
1523628277222,2359296,74,-56,-1,-1,0
1523628277222,2752512,74,-56,-1,-1,0
1523628277222,2752512,74,-56,-1,-1,0
1523628277222,2686976,74,-56,-1,-1,0
1523628277264,2752512,74,-56,-1,-1,0
1523628277264,2818048,74,-56,-1,-1,0
1523628277264,3080192,74,-56,-1,-1,0
1523628277264,3473408,74,-56,-1,-1,0
1523628277264,3801088,74,-56,-1,-1,0
1523628277302,4063232,74,-56,-1,-1,0
1523628277302,4259840,74,-56,-1,-1,0
1523628277302,4194304,74,-56,-1,-1,0
1523628277302,4063232,74,-56,-1,-1,0
1523628277302,4194304,74,-56,-1,-1,0
1523628277342,4456448,74,-56,-1,-1,0
1523628277342,4653056,74,-56,-1,-1,0
1523628277342,4784128,74,-56,-1,-1,0
1523628277342,4849664,74,-56,-1,-1,0
1523628277342,5177344,74,-56,-1,-1,0
1523628277382,5570560,74,-56,-1,-1,0
1523628277382,5898240,74,-56,-1,-1,0
1523628277382,6160384,74,-56,-1,-1,0
1523628277382,6356992,74,-56,-1,-1,0
1523628277382,6553600,74,-56,-1,-1,0
1523628277424,6488064,74,-56,-1,-1,0
1523628277424,6225920,74,-56,-1,-1,0
1523628277424,5767168,74,-56,-1,-1,0
1523628277424,5177344,74,-56,-1,-1,0
1523628277424,4259840,74,-56,-1,-1,0
1523628277462,3473408,74,-56,-1,-1,0
1523628277462,2818048,74,-56,-1,-1,0
1523628277462,2293760,74,-56,-1,-1,0
1523628277462,1835008,74,-56,-1,-1,0
1523628277462,1638400,74,-56,-1,-1,0
1523628277502,1507328,74,-56,-1,-1,0
1523628277502,1441792,74,-56,-1,-1,0
1523628277502,1507328,74,-56,-1,-1,0
1523628277502,1638400,74,-56,-1,-1,0
1523628277502,1769472,74,-56,-1,-1,0
1523628277542,1900544,74,-56,-1,-1,0
1523628277542,1835008,74,-56,-1,-1,0
1523628277542,1769472,74,-56,-1,-1,0
1523628277542,1572864,74,-56,-1,-1,0
1523628277542,1376256,74,-56,-1,-1,0
1523628277582,1310720,74,-56,-1,-1,0
1523628277582,1310720,74,-56,-1,-1,0
1523628277582,1114112,74,-56,-1,-1,0
1523628277582,983040,74,-56,-1,-1,0
1523628277582,851968,74,-56,-1,-1,0
1523628277622,655360,74,-56,-1,-1,0
1523628277622,524288,74,-56,-1,-1,0
1523628277622,589824,74,-56,-1,-1,0
1523628277622,720896,74,-56,-1,-1,0
1523628277622,720896,74,-56,-1,-1,0
1523628277662,524288,74,-56,-1,-1,0
1523628277662,327680,74,-56,-1,-1,0
1523628277662,196608,74,-56,-1,-1,0
1523628277662,131072,74,-56,-1,-1,0
1523628277662,65536,74,-56,-1,-1,0
1523628277702,65536,74,-56,-1,-1,0
1523628277702,65536,74,-56,-1,-1,0
1523628277702,-327680,74,-56,-1,-1,0
1523628277702,-851968,74,-56,-1,-1,0
1523628277702,-786432,74,-56,-1,-1,0
1523628277742,-589824,74,-56,-1,-1,0
1523628277742,-720896,74,-56,-1,-1,0
1523628277742,-917504,74,-56,-1,-1,0
1523628277742,-1048576,74,-56,-1,-1,0
1523628277742,-1179648,74,-56,-1,-1,0
1523628277782,-1179648,74,-56,-1,-1,0
1523628277782,-1114112,74,-56,-1,-1,0
1523628277782,-1114112,74,-56,-1,-1,0
1523628277782,-1245184,74,-56,-1,-1,0
1523628277782,-1441792,74,-56,-1,-1,0
1523628277822,-1703936,74,-56,-1,-1,0
1523628277822,-2031616,74,-56,-1,-1,0
1523628277822,-2424832,74,-56,-1,-1,0
1523628277822,-2818048,74,-56,-1,-1,0
1523628277822,-2818048,74,-56,-1,-1,0
1523628277862,-2555904,74,-56,-1,-1,0
1523628277862,-2621440,74,-56,-1,-1,0
1523628277862,-3145728,74,-56,-1,-1,0
1523628277862,-3670016,74,-56,-1,-1,0
1523628277862,-3080192,74,-56,-1,-1,0
1523628277903,-65536,74,-56,-1,-1,0
1523628277903,5898240,74,-56,-1,-1,0
1523628277903,12910592,74,-56,-1,-1,0
1523628277903,15663104,74,-56,-1,-1,0
1523628277903,10747904,74,-56,-1,-1,0
1523628277942,3670016,75,-56,-1,-1,0
1523628277942,458752,75,-56,-1,-1,0
1523628277942,-262144,75,-56,-1,-1,0
1523628277942,-1703936,75,-56,-1,-1,0
1523628277942,-2752512,75,-56,-1,-1,0
1523628277982,-2359296,75,-56,-1,-1,0
1523628277982,-1703936,75,-56,-1,-1,0
1523628277982,-1179648,75,-56,-1,-1,0
1523628277982,-589824,75,-56,-1,-1,0
1523628277982,-196608,75,-56,-1,-1,0
1523628278022,-196608,75,-56,-1,-1,0
1523628278022,-655360,75,-56,-1,-1,0
1523628278022,-917504,75,-56,-1,-1,0
1523628278022,-720896,75,-56,-1,-1,0
1523628278022,-393216,75,-56,-1,-1,0
1523628278062,-327680,75,-56,-1,-1,0
1523628278062,-262144,75,-56,-1,-1,0
1523628278062,-327680,75,-56,-1,-1,0
1523628278062,-524288,75,-56,-1,-1,0
1523628278062,-196608,75,-56,-1,-1,0
1523628278103,589824,75,-56,-1,-1,0
1523628278103,786432,75,-56,-1,-1,0
1523628278103,262144,75,-56,-1,-1,0
1523628278103,65536,75,-56,-1,-1,0
1523628278103,327680,75,-56,-1,-1,0
1523628278142,851968,75,-56,-1,-1,0
1523628278142,1114112,75,-56,-1,-1,0
1523628278142,1310720,75,-56,-1,-1,0
1523628278142,1441792,75,-56,-1,-1,0
1523628278142,1441792,75,-56,-1,-1,0
1523628278182,1179648,75,-56,-1,-1,0
1523628278182,1114112,75,-56,-1,-1,0
1523628278182,1245184,75,-56,-1,-1,0
1523628278182,1179648,75,-56,-1,-1,0
1523628278182,983040,75,-56,-1,-1,0
1523628278222,524288,75,-56,-1,-1,0
1523628278222,131072,75,-56,-1,-1,0
1523628278222,-393216,75,-56,-1,-1,0
1523628278222,-1048576,75,-56,-1,-1,0
1523628278222,-1441792,75,-56,-1,-1,0
1523628278262,-1507328,75,-56,-1,-1,0
1523628278262,-1507328,75,-56,-1,-1,0
1523628278262,-1507328,75,-56,-1,-1,0
1523628278262,-1245184,75,-56,-1,-1,0
1523628278262,-1310720,75,-56,-1,-1,0
1523628278302,-1376256,75,-56,-1,-1,0
1523628278302,-1114112,75,-56,-1,-1,0
1523628278302,-917504,75,-56,-1,-1,0
1523628278302,-1048576,75,-56,-1,-1,0
1523628278302,-1048576,75,-56,-1,-1,0
1523628278342,-1310720,75,-56,-1,-1,0
1523628278342,-1507328,75,-56,-1,-1,0
1523628278342,-1441792,75,-56,-1,-1,0
1523628278342,-983040,75,-56,-1,-1,0
1523628278342,-983040,75,-56,-1,-1,0
1523628278382,-1179648,75,-56,-1,-1,0
1523628278382,-1114112,75,-56,-1,-1,0
1523628278382,-1114112,75,-56,-1,-1,0
1523628278382,-1310720,75,-56,-1,-1,0
1523628278382,-1441792,75,-56,-1,-1,0
1523628278422,-1376256,75,-56,-1,-1,0
1523628278422,-1441792,75,-56,-1,-1,0
1523628278422,-1703936,75,-56,-1,-1,0
1523628278422,-1900544,75,-56,-1,-1,0
1523628278422,-1835008,75,-56,-1,-1,0
1523628278462,-1835008,75,-56,-1,-1,0
1523628278462,-1900544,75,-56,-1,-1,0
1523628278462,-1966080,75,-56,-1,-1,0
1523628278462,-2097152,75,-56,-1,-1,0
1523628278462,-1900544,75,-56,-1,-1,0
1523628278502,-1441792,75,-56,-1,-1,0
1523628278502,-1769472,75,-56,-1,-1,0
1523628278502,-2359296,75,-56,-1,-1,0
1523628278502,-2555904,75,-56,-1,-1,0
1523628278502,-2293760,75,-56,-1,-1,0
1523628278543,-2097152,75,-56,-1,-1,0
1523628278543,-1769472,75,-56,-1,-1,0
1523628278543,-1769472,75,-56,-1,-1,0
1523628278543,-2031616,75,-56,-1,-1,0
1523628278543,-2490368,75,-56,-1,-1,0
1523628278582,-2752512,75,-56,-1,-1,0
1523628278582,-2752512,75,-56,-1,-1,0
1523628278582,-2490368,75,-56,-1,-1,0
1523628278582,-2031616,75,-56,-1,-1,0
1523628278582,-1703936,75,-56,-1,-1,0
1523628278622,-1441792,75,-56,-1,-1,0
1523628278622,-1769472,75,-56,-1,-1,0
1523628278622,-2621440,75,-56,-1,-1,0
1523628278622,-2686976,75,-56,-1,-1,0
1523628278622,-65536,75,-56,-1,-1,0
1523628278662,5439488,76,-56,-1,-1,0
1523628278662,11862016,76,-56,-1,-1,0
1523628278662,13959168,76,-56,-1,-1,0
1523628278662,8650752,76,-56,-1,-1,0
1523628278662,1179648,76,-56,-1,-1,0
1523628278702,-1966080,76,-56,-1,-1,0
1523628278702,-1769472,76,-56,-1,-1,0
1523628278702,-1966080,76,-56,-1,-1,0
1523628278702,-3014656,76,-56,-1,-1,0
1523628278702,-3932160,76,-56,-1,-1,0
1523628278742,-4128768,76,-56,-1,-1,0
1523628278742,-3670016,76,-56,-1,-1,0
1523628278742,-3211264,76,-56,-1,-1,0
1523628278742,-3145728,76,-56,-1,-1,0
1523628278742,-2883584,76,-56,-1,-1,0
1523628278785,-2686976,76,-56,-1,-1,0
1523628278785,-2818048,76,-56,-1,-1,0
1523628278785,-2621440,76,-56,-1,-1,0
1523628278785,-1966080,76,-56,-1,-1,0
1523628278785,-1703936,76,-56,-1,-1,0
1523628278822,-2031616,76,-56,-1,-1,0
1523628278822,-2162688,76,-56,-1,-1,0
1523628278822,-2162688,76,-56,-1,-1,0
1523628278822,-2031616,76,-56,-1,-1,0
1523628278822,-1507328,76,-56,-1,-1,0
1523628278862,-786432,76,-56,-1,-1,0
1523628278862,-524288,76,-56,-1,-1,0
1523628278862,-524288,76,-56,-1,-1,0
1523628278862,-65536,76,-56,-1,-1,0
1523628278862,327680,76,-56,-1,-1,0
1523628278902,458752,76,-56,-1,-1,0
1523628278902,720896,76,-56,-1,-1,0
1523628278902,917504,76,-56,-1,-1,0
1523628278902,1114112,76,-56,-1,-1,0
1523628278902,1441792,76,-56,-1,-1,0
1523628278942,1441792,76,-56,-1,-1,0
1523628278942,589824,76,-56,-1,-1,0
1523628278942,196608,76,-56,-1,-1,0
1523628278942,-65536,76,-56,-1,-1,0
1523628278942,-524288,76,-56,-1,-1,0
1523628278982,-917504,76,-56,-1,-1,0
1523628278982,-1245184,76,-56,-1,-1,0
1523628278982,-2031616,76,-56,-1,-1,0
1523628278982,-2359296,76,-56,-1,-1,0
1523628278982,-2097152,76,-56,-1,-1,0
1523628279022,-1900544,76,-56,-1,-1,0
1523628279022,-1900544,76,-56,-1,-1,0
1523628279022,-1966080,76,-56,-1,-1,0
1523628279022,-2097152,76,-56,-1,-1,0
1523628279022,-1900544,76,-56,-1,-1,0
1523628279062,-1179648,76,-56,-1,-1,0
1523628279062,-589824,76,-56,-1,-1,0
1523628279062,-1114112,76,-56,-1,-1,0
1523628279062,-1441792,76,-56,-1,-1,0
1523628279062,-1245184,76,-56,-1,-1,0
1523628279103,-1114112,76,-56,-1,-1,0
1523628279103,-1245184,76,-56,-1,-1,0
1523628279103,-983040,76,-56,-1,-1,0
1523628279103,-917504,76,-56,-1,-1,0
1523628279103,-1245184,76,-56,-1,-1,0
1523628279142,-1638400,76,-56,-1,-1,0
1523628279142,-1638400,76,-56,-1,-1,0
1523628279142,-1572864,76,-56,-1,-1,0
1523628279142,-1310720,76,-56,-1,-1,0
1523628279142,-1376256,76,-56,-1,-1,0
1523628279183,-1638400,76,-56,-1,-1,0
1523628279183,-1769472,76,-56,-1,-1,0
1523628279183,-1572864,76,-56,-1,-1,0
1523628279183,-1703936,76,-56,-1,-1,0
1523628279183,-2097152,76,-56,-1,-1,0
1523628279222,-2686976,76,-56,-1,-1,0
1523628279222,-1966080,76,-56,-1,-1,0
1523628279222,-524288,76,-56,-1,-1,0
1523628279222,-393216,76,-56,-1,-1,0
1523628279222,-1114112,76,-56,-1,-1,0
1523628279262,-1245184,76,-56,-1,-1,0
1523628279262,-851968,76,-56,-1,-1,0
1523628279262,-1048576,76,-56,-1,-1,0
1523628279262,-1441792,76,-56,-1,-1,0
1523628279262,-1310720,76,-56,-1,-1,0
1523628279302,-1048576,76,-56,-1,-1,0
1523628279302,-1376256,76,-56,-1,-1,0
1523628279302,-1572864,76,-56,-1,-1,0
1523628279302,-1507328,76,-56,-1,-1,0
1523628279302,-1441792,76,-56,-1,-1,0
1523628279342,-1638400,76,-56,-1,-1,0
1523628279342,-1769472,76,-56,-1,-1,0
1523628279342,-1900544,76,-56,-1,-1,0
1523628279342,-1835008,76,-56,-1,-1,0
1523628279342,-1638400,76,-56,-1,-1,0
1523628279382,-1835008,76,-56,-1,-1,0
1523628279382,-2359296,76,-56,-1,-1,0
1523628279382,-983040,76,-56,-1,-1,0
1523628279382,3473408,76,-56,-1,-1,0
1523628279382,9830400,76,-56,-1,-1,0
1523628279422,14352384,76,-56,-1,-1,0
1523628279422,12779520,76,-56,-1,-1,0
1523628279422,6225920,76,-56,-1,-1,0
1523628279422,851968,76,-56,-1,-1,0
1523628279422,-196608,76,-56,-1,-1,0
1523628279462,-327680,76,-56,-1,-1,0
1523628279462,-458752,76,-56,-1,-1,0
1523628279462,-655360,76,-56,-1,-1,0
1523628279462,-589824,76,-56,-1,-1,0
1523628279462,-458752,76,-56,-1,-1,0
1523628279502,-262144,76,-56,-1,-1,0
1523628279502,-262144,76,-56,-1,-1,0
1523628279502,-131072,76,-56,-1,-1,0
1523628279502,0,76,-56,-1,-1,0
1523628279502,0,76,-56,-1,-1,0
1523628279542,0,76,-56,-1,-1,0
1523628279542,131072,76,-56,-1,-1,0
1523628279542,393216,76,-56,-1,-1,0
1523628279542,655360,76,-56,-1,-1,0
1523628279542,786432,76,-56,-1,-1,0
1523628279582,983040,76,-56,-1,-1,0
1523628279582,1179648,76,-56,-1,-1,0
1523628279582,1310720,76,-56,-1,-1,0
1523628279582,1441792,76,-56,-1,-1,0
1523628279582,1638400,76,-56,-1,-1,0
1523628279622,1900544,76,-56,-1,-1,0
1523628279622,2162688,76,-56,-1,-1,0
1523628279622,2359296,76,-56,-1,-1,0
1523628279622,2555904,76,-56,-1,-1,0
1523628279622,2752512,76,-56,-1,-1,0
1523628279662,2883584,76,-56,-1,-1,0
1523628279662,2883584,76,-56,-1,-1,0
1523628279662,2949120,76,-56,-1,-1,0
1523628279662,2883584,76,-56,-1,-1,0
1523628279662,2555904,76,-56,-1,-1,0
1523628279702,1835008,76,-56,-1,-1,0
1523628279702,1245184,76,-56,-1,-1,0
1523628279702,851968,76,-56,-1,-1,0
1523628279702,327680,76,-56,-1,-1,0
1523628279702,-262144,76,-56,-1,-1,0
1523628279742,-720896,76,-56,-1,-1,0
1523628279742,-983040,76,-56,-1,-1,0
1523628279742,-1310720,76,-56,-1,-1,0
1523628279742,-1441792,76,-56,-1,-1,0
1523628279742,-1245184,76,-56,-1,-1,0
1523628279782,-1245184,76,-56,-1,-1,0
1523628279782,-1572864,76,-56,-1,-1,0
1523628279782,-1638400,76,-56,-1,-1,0
1523628279782,-1441792,76,-56,-1,-1,0
1523628279782,-1245184,76,-56,-1,-1,0
1523628279823,-1245184,76,-56,-1,-1,0
1523628279823,-1310720,76,-56,-1,-1,0
1523628279823,-1245184,76,-56,-1,-1,0
1523628279823,-1245184,76,-56,-1,-1,0
1523628279823,-1114112,76,-56,-1,-1,0
1523628279862,-917504,76,-56,-1,-1,0
1523628279862,-917504,76,-56,-1,-1,0
1523628279862,-1310720,76,-56,-1,-1,0
1523628279862,-1703936,76,-56,-1,-1,0
1523628279862,-1507328,76,-56,-1,-1,0
1523628279902,-1048576,76,-56,-1,-1,0
1523628279902,-1048576,76,-56,-1,-1,0
1523628279902,-1179648,76,-56,-1,-1,0
1523628279902,-1179648,76,-56,-1,-1,0
1523628279902,-1114112,76,-56,-1,-1,0
1523628279942,-1179648,76,-56,-1,-1,0
1523628279942,-1310720,76,-56,-1,-1,0
1523628279942,-1245184,76,-56,-1,-1,0
1523628279942,-983040,76,-56,-1,-1,0
1523628279942,-917504,76,-56,-1,-1,0
1523628279982,-1245184,76,-56,-1,-1,0
1523628279982,-1310720,76,-56,-1,-1,0
1523628279982,-1048576,76,-56,-1,-1,0
1523628279982,-786432,76,-56,-1,-1,0
1523628279982,-720896,76,-56,-1,-1,0
1523628280022,-1114112,76,-56,-1,-1,0
1523628280022,-1638400,76,-56,-1,-1,0
1523628280022,-1507328,76,-56,-1,-1,0
1523628280022,-851968,76,-56,-1,-1,0
1523628280022,-524288,76,-56,-1,-1,0
1523628280062,-524288,76,-56,-1,-1,0
1523628280062,-655360,76,-56,-1,-1,0
1523628280062,-786432,76,-56,-1,-1,0
1523628280062,-851968,76,-56,-1,-1,0
1523628280062,-917504,76,-56,-1,-1,0
1523628280102,-983040,76,-56,-1,-1,0
1523628280102,-983040,76,-56,-1,-1,0
1523628280102,-589824,76,-56,-1,-1,0
1523628280102,-262144,76,-56,-1,-1,0
1523628280102,-131072,76,-56,-1,-1,0
1523628280142,0,76,-56,-1,-1,0
1523628280142,-327680,76,-56,-1,-1,0
1523628280142,-917504,76,-56,-1,-1,0
1523628280142,-262144,76,-56,-1,-1,0
1523628280142,3473408,76,-56,-1,-1,0
1523628280182,10158080,76,-56,-1,-1,0
1523628280182,16121856,76,-56,-1,-1,0
1523628280182,15269888,76,-56,-1,-1,0
1523628280182,7929856,76,-56,-1,-1,0
1523628280182,1572864,76,-56,-1,-1,0
1523628280222,-65536,77,-56,-1,-1,0
1523628280222,-131072,77,-56,-1,-1,0
1523628280222,-655360,77,-56,-1,-1,0
1523628280222,-1507328,77,-56,-1,-1,0
1523628280222,-2031616,77,-56,-1,-1,0
1523628280262,-1703936,77,-56,-1,-1,0
1523628280262,-1245184,77,-56,-1,-1,0
1523628280262,-1114112,77,-56,-1,-1,0
1523628280262,-851968,77,-56,-1,-1,0
1523628280262,-720896,77,-56,-1,-1,0
1523628280302,-720896,77,-56,-1,-1,0
1523628280302,-851968,77,-56,-1,-1,0
1523628280302,-589824,77,-56,-1,-1,0
1523628280302,-589824,77,-56,-1,-1,0
1523628280302,-393216,77,-56,-1,-1,0
1523628280342,-65536,77,-56,-1,-1,0
1523628280342,0,77,-56,-1,-1,0
1523628280342,0,77,-56,-1,-1,0
1523628280342,0,77,-56,-1,-1,0
1523628280342,-131072,77,-56,-1,-1,0
1523628280382,-131072,77,-56,-1,-1,0
1523628280382,327680,77,-56,-1,-1,0
1523628280382,786432,77,-56,-1,-1,0
1523628280382,458752,77,-56,-1,-1,0
1523628280382,196608,77,-56,-1,-1,0
1523628280422,1114112,77,-56,-1,-1,0
1523628280422,1966080,77,-56,-1,-1,0
1523628280422,2097152,77,-56,-1,-1,0
1523628280422,1441792,77,-56,-1,-1,0
1523628280422,655360,77,-56,-1,-1,0
1523628280463,262144,77,-56,-1,-1,0
1523628280463,196608,77,-56,-1,-1,0
1523628280463,655360,77,-56,-1,-1,0
1523628280463,1048576,77,-56,-1,-1,0
1523628280463,589824,77,-56,-1,-1,0
1523628280502,-196608,77,-56,-1,-1,0
1523628280502,-917504,77,-56,-1,-1,0
1523628280502,-1114112,77,-56,-1,-1,0
1523628280502,-1179648,77,-56,-1,-1,0
1523628280502,-1245184,77,-56,-1,-1,0
1523628280542,-1835008,77,-56,-1,-1,0
1523628280542,-2359296,77,-56,-1,-1,0
1523628280542,-2162688,77,-56,-1,-1,0
1523628280542,-1638400,77,-56,-1,-1,0
1523628280542,-1441792,77,-56,-1,-1,0
1523628280582,-1572864,77,-56,-1,-1,0
1523628280582,-1572864,77,-56,-1,-1,0
1523628280582,-1441792,77,-56,-1,-1,0
1523628280582,-1441792,77,-56,-1,-1,0
1523628280582,-1507328,77,-56,-1,-1,0
1523628280622,-1572864,77,-56,-1,-1,0
1523628280622,-1507328,77,-56,-1,-1,0
1523628280622,-1703936,77,-56,-1,-1,0
1523628280622,-2031616,77,-56,-1,-1,0
1523628280622,-2228224,77,-56,-1,-1,0
1523628280662,-1966080,77,-56,-1,-1,0
1523628280662,-1441792,77,-56,-1,-1,0
1523628280662,-1179648,77,-56,-1,-1,0
1523628280662,-1572864,77,-56,-1,-1,0
1523628280662,-2031616,77,-56,-1,-1,0
1523628280702,-2293760,77,-56,-1,-1,0
1523628280702,-1966080,77,-56,-1,-1,0
1523628280702,-1638400,77,-56,-1,-1,0
1523628280702,-1769472,77,-56,-1,-1,0
1523628280702,-2228224,77,-56,-1,-1,0
1523628280742,-2293760,77,-56,-1,-1,0
1523628280742,-2162688,77,-56,-1,-1,0
1523628280742,-2359296,77,-56,-1,-1,0
1523628280742,-2293760,77,-56,-1,-1,0
1523628280742,-2097152,77,-56,-1,-1,0
1523628280782,-2162688,77,-56,-1,-1,0
1523628280782,-2555904,77,-56,-1,-1,0
1523628280782,-2621440,77,-56,-1,-1,0
1523628280782,-2293760,77,-56,-1,-1,0
1523628280782,-2359296,77,-56,-1,-1,0
1523628280822,-2621440,77,-56,-1,-1,0
1523628280822,-2686976,77,-56,-1,-1,0
1523628280822,-2555904,77,-56,-1,-1,0
1523628280822,-2621440,77,-56,-1,-1,0
1523628280822,-2490368,77,-56,-1,-1,0
1523628280862,-2031616,77,-56,-1,-1,0
1523628280862,-1769472,77,-56,-1,-1,0
1523628280862,-1507328,77,-56,-1,-1,0
1523628280862,-1048576,77,-56,-1,-1,0
1523628280862,-655360,77,-56,-1,-1,0
1523628280902,-1114112,77,-56,-1,-1,0
1523628280902,-2359296,77,-56,-1,-1,0
1523628280902,-2031616,77,-56,-1,-1,0
1523628280902,1966080,77,-56,-1,-1,0
1523628280902,8781824,77,-56,-1,-1,0
1523628280943,14811136,78,-56,-1,-1,0
1523628280943,14680064,78,-56,-1,-1,0
1523628280943,8454144,78,-56,-1,-1,0
1523628280943,2686976,78,-56,-1,-1,0
1523628280943,524288,78,-56,-1,-1,0
1523628280982,-196608,78,-56,-1,-1,0
1523628280982,-917504,78,-56,-1,-1,0
1523628280982,-851968,78,-56,-1,-1,0
1523628280982,-1114112,78,-56,-1,-1,0
1523628280982,-1376256,78,-56,-1,-1,0
1523628281022,-1310720,78,-56,-1,-1,0
1523628281022,-1310720,78,-56,-1,-1,0
1523628281022,-1179648,78,-56,-1,-1,0
1523628281022,-1179648,78,-56,-1,-1,0
1523628281022,-851968,78,-56,-1,-1,0
1523628281062,-524288,78,-56,-1,-1,0
1523628281062,-131072,78,-56,-1,-1,0
1523628281062,-393216,78,-56,-1,-1,0
1523628281062,-458752,78,-56,-1,-1,0
1523628281062,-393216,78,-56,-1,-1,0
1523628281103,-131072,78,-56,-1,-1,0
1523628281103,-262144,78,-56,-1,-1,0
1523628281103,-262144,78,-56,-1,-1,0
1523628281103,0,78,-56,-1,-1,0
1523628281103,524288,78,-56,-1,-1,0
1523628281142,589824,78,-56,-1,-1,0
1523628281142,786432,78,-56,-1,-1,0
1523628281142,1245184,78,-56,-1,-1,0
1523628281142,1703936,78,-56,-1,-1,0
1523628281142,1900544,78,-56,-1,-1,0
1523628281182,2162688,78,-56,-1,-1,0
1523628281182,2293760,78,-56,-1,-1,0
1523628281182,2162688,78,-56,-1,-1,0
1523628281182,2162688,78,-56,-1,-1,0
1523628281182,2359296,78,-56,-1,-1,0
1523628281225,2359296,78,-56,-1,-1,0
1523628281225,1769472,78,-56,-1,-1,0
1523628281225,917504,78,-56,-1,-1,0
1523628281225,589824,78,-56,-1,-1,0
1523628281225,262144,78,-56,-1,-1,0
1523628281262,0,78,-56,-1,-1,0
1523628281262,131072,78,-56,-1,-1,0
1523628281262,393216,78,-56,-1,-1,0
1523628281262,-196608,78,-56,-1,-1,0
1523628281262,-589824,78,-56,-1,-1,0
1523628281302,-655360,78,-56,-1,-1,0
1523628281302,-65536,78,-56,-1,-1,0
1523628281302,0,78,-56,-1,-1,0
1523628281302,-393216,78,-56,-1,-1,0
1523628281302,-327680,78,-56,-1,-1,0
1523628281343,131072,78,-56,-1,-1,0
1523628281343,458752,78,-56,-1,-1,0
1523628281343,-65536,78,-56,-1,-1,0
1523628281343,-393216,78,-56,-1,-1,0
1523628281343,-262144,78,-56,-1,-1,0
1523628281382,-196608,78,-56,-1,-1,0
1523628281382,-786432,78,-56,-1,-1,0
1523628281382,-1245184,78,-56,-1,-1,0
1523628281382,-655360,78,-56,-1,-1,0
1523628281382,0,78,-56,-1,-1,0
1523628281422,-262144,78,-56,-1,-1,0
1523628281422,-786432,78,-56,-1,-1,0
1523628281422,-983040,78,-56,-1,-1,0
1523628281422,-1114112,78,-56,-1,-1,0
1523628281422,-1245184,78,-56,-1,-1,0
1523628281462,-1245184,78,-56,-1,-1,0
1523628281462,-1638400,78,-56,-1,-1,0
1523628281462,-1703936,78,-56,-1,-1,0
1523628281462,-1114112,78,-56,-1,-1,0
1523628281462,-786432,78,-56,-1,-1,0
1523628281502,-983040,78,-56,-1,-1,0
1523628281502,-1048576,78,-56,-1,-1,0
1523628281502,-1048576,78,-56,-1,-1,0
1523628281502,-1441792,78,-56,-1,-1,0
1523628281502,-1703936,78,-56,-1,-1,0
1523628281542,-1507328,78,-56,-1,-1,0
1523628281542,-1179648,78,-56,-1,-1,0
1523628281542,-1114112,78,-56,-1,-1,0
1523628281542,-1376256,78,-56,-1,-1,0
1523628281542,-1572864,78,-56,-1,-1,0
1523628281585,-1507328,78,-56,-1,-1,0
1523628281585,-1507328,78,-56,-1,-1,0
1523628281585,-1638400,78,-56,-1,-1,0
1523628281585,-1769472,78,-56,-1,-1,0
1523628281585,-1835008,78,-56,-1,-1,0
1523628281622,-1769472,78,-56,-1,-1,0
1523628281622,-1703936,78,-56,-1,-1,0
1523628281622,-1769472,78,-56,-1,-1,0
1523628281622,-1966080,78,-56,-1,-1,0
1523628281622,-2490368,78,-56,-1,-1,0
1523628281662,-1507328,78,-56,-1,-1,0
1523628281662,2293760,78,-56,-1,-1,0
1523628281662,8585216,78,-56,-1,-1,0
1523628281662,14483456,78,-56,-1,-1,0
1523628281662,14680064,78,-56,-1,-1,0
1523628281703,8388608,78,-56,-1,-1,0
1523628281703,2424832,78,-56,-1,-1,0
1523628281703,851968,78,-56,-1,-1,0
1523628281703,786432,78,-56,-1,-1,0
1523628281703,720896,78,-56,-1,-1,0
1523628281745,786432,78,-56,-1,-1,0
1523628281745,851968,78,-56,-1,-1,0
1523628281745,917504,78,-56,-1,-1,0
1523628281745,1114112,78,-56,-1,-1,0
1523628281745,1376256,78,-56,-1,-1,0
1523628281782,1638400,78,-56,-1,-1,0
1523628281782,1703936,78,-56,-1,-1,0
1523628281782,1703936,78,-56,-1,-1,0
1523628281782,1638400,78,-56,-1,-1,0
1523628281782,1638400,78,-56,-1,-1,0
1523628281823,1572864,78,-56,-1,-1,0
1523628281823,1638400,78,-56,-1,-1,0
1523628281823,1835008,78,-56,-1,-1,0
1523628281823,2031616,78,-56,-1,-1,0
1523628281823,1966080,78,-56,-1,-1,0
1523628281862,1900544,78,-56,-1,-1,0
1523628281862,2097152,78,-56,-1,-1,0
1523628281862,2293760,78,-56,-1,-1,0
1523628281862,2359296,78,-56,-1,-1,0
1523628281862,2490368,78,-56,-1,-1,0
1523628281902,2490368,78,-56,-1,-1,0
1523628281902,2293760,78,-56,-1,-1,0
1523628281902,2097152,78,-56,-1,-1,0
1523628281902,2031616,78,-56,-1,-1,0
1523628281902,2031616,78,-56,-1,-1,0
1523628281942,2031616,78,-56,-1,-1,0
1523628281942,1769472,78,-56,-1,-1,0
1523628281942,1441792,78,-56,-1,-1,0
1523628281942,1245184,78,-56,-1,-1,0
1523628281942,1179648,78,-56,-1,-1,0
1523628281983,851968,78,-56,-1,-1,0
1523628281983,393216,78,-56,-1,-1,0
1523628281983,0,78,-56,-1,-1,0
1523628281983,-262144,78,-56,-1,-1,0
1523628281983,-327680,78,-56,-1,-1,0
1523628282022,-327680,78,-56,-1,-1,0
1523628282022,-327680,78,-56,-1,-1,0
1523628282022,-393216,78,-56,-1,-1,0
1523628282022,-524288,78,-56,-1,-1,0
1523628282022,-589824,78,-56,-1,-1,0
1523628282062,-589824,78,-56,-1,-1,0
1523628282062,-458752,78,-56,-1,-1,0
1523628282062,-458752,78,-56,-1,-1,0
1523628282062,-589824,78,-56,-1,-1,0
1523628282062,-655360,78,-56,-1,-1,0
1523628282102,-589824,78,-56,-1,-1,0
1523628282102,-458752,78,-56,-1,-1,0
1523628282102,-393216,78,-56,-1,-1,0
1523628282102,-393216,78,-56,-1,-1,0
1523628282102,-589824,78,-56,-1,-1,0
1523628282143,-917504,78,-56,-1,-1,0
1523628282143,-1310720,78,-56,-1,-1,0
1523628282143,-1376256,78,-56,-1,-1,0
1523628282143,-1245184,78,-56,-1,-1,0
1523628282143,-983040,78,-56,-1,-1,0
1523628282182,-917504,78,-56,-1,-1,0
1523628282182,-1245184,78,-56,-1,-1,0
1523628282182,-1638400,78,-56,-1,-1,0
1523628282182,-1572864,78,-56,-1,-1,0
1523628282182,-1376256,78,-56,-1,-1,0
1523628282222,-1245184,78,-56,-1,-1,0
1523628282222,-1114112,78,-56,-1,-1,0
1523628282222,-720896,78,-56,-1,-1,0
1523628282222,-262144,78,-56,-1,-1,0
1523628282222,-65536,78,-56,-1,-1,0
1523628282262,-196608,78,-56,-1,-1,0
1523628282262,-196608,78,-56,-1,-1,0
1523628282262,196608,78,-56,-1,-1,0
1523628282262,458752,78,-56,-1,-1,0
1523628282262,65536,78,-56,-1,-1,0
1523628282303,-393216,78,-56,-1,-1,0
1523628282303,-393216,78,-56,-1,-1,0
1523628282303,-262144,78,-56,-1,-1,0
1523628282303,0,78,-56,-1,-1,0
1523628282303,458752,78,-56,-1,-1,0
1523628282342,393216,78,-56,-1,-1,0
1523628282342,-196608,78,-56,-1,-1,0
1523628282342,-589824,78,-56,-1,-1,0
1523628282342,-655360,78,-56,-1,-1,0
1523628282342,-1048576,78,-56,-1,-1,0
1523628282384,-1376256,78,-56,-1,-1,0
1523628282384,-1703936,78,-56,-1,-1,0
1523628282384,-1900544,78,-56,-1,-1,0
1523628282384,-1703936,78,-56,-1,-1,0
1523628282384,-1507328,78,-56,-1,-1,0
1523628282422,-1900544,78,-56,-1,-1,0
1523628282422,-2228224,78,-56,-1,-1,0
1523628282422,-196608,78,-56,-1,-1,0
1523628282422,5242880,78,-56,-1,-1,0
1523628282422,12386304,78,-56,-1,-1,0
1523628282463,14745600,78,-56,-1,-1,0
1523628282463,8060928,78,-56,-1,-1,0
1523628282463,1114112,78,-56,-1,-1,0
1523628282463,-393216,78,-56,-1,-1,0
1523628282463,786432,78,-56,-1,-1,0
1523628282502,917504,78,-56,-1,-1,0
1523628282502,589824,78,-56,-1,-1,0
1523628282502,0,78,-56,-1,-1,0
1523628282502,-589824,78,-56,-1,-1,0
1523628282502,-917504,78,-56,-1,-1,0
1523628282542,-1638400,78,-56,-1,-1,0
1523628282542,-1769472,78,-56,-1,-1,0
1523628282542,-1441792,78,-56,-1,-1,0
1523628282542,-851968,78,-56,-1,-1,0
1523628282542,-1376256,78,-56,-1,-1,0
1523628282582,-2097152,78,-56,-1,-1,0
1523628282582,-1835008,78,-56,-1,-1,0
1523628282582,-1114112,78,-56,-1,-1,0
1523628282582,-851968,78,-56,-1,-1,0
1523628282582,-851968,78,-56,-1,-1,0
1523628282622,-720896,78,-56,-1,-1,0
1523628282622,-917504,78,-56,-1,-1,0
1523628282622,-917504,78,-56,-1,-1,0
1523628282622,-589824,78,-56,-1,-1,0
1523628282622,-589824,78,-56,-1,-1,0
1523628282662,-458752,78,-56,-1,-1,0
1523628282662,-65536,78,-56,-1,-1,0
1523628282662,-393216,78,-56,-1,-1,0
1523628282662,-786432,78,-56,-1,-1,0
1523628282662,-524288,78,-56,-1,-1,0
1523628282702,0,78,-56,-1,-1,0
1523628282702,131072,78,-56,-1,-1,0
1523628282702,-65536,78,-56,-1,-1,0
1523628282702,0,78,-56,-1,-1,0
1523628282702,131072,78,-56,-1,-1,0
1523628282742,0,78,-56,-1,-1,0
1523628282742,-393216,78,-56,-1,-1,0
1523628282742,-524288,78,-56,-1,-1,0
1523628282742,-720896,78,-56,-1,-1,0
1523628282742,-1572864,78,-56,-1,-1,0
1523628282782,-2293760,78,-56,-1,-1,0
1523628282782,-2424832,78,-56,-1,-1,0
1523628282782,-2097152,78,-56,-1,-1,0
1523628282782,-1966080,78,-56,-1,-1,0
1523628282782,-1900544,78,-56,-1,-1,0
1523628282822,-1900544,78,-56,-1,-1,0
1523628282822,-1966080,78,-56,-1,-1,0
1523628282822,-2097152,78,-56,-1,-1,0
1523628282822,-1835008,78,-56,-1,-1,0
1523628282822,-1769472,78,-56,-1,-1,0
1523628282862,-2031616,78,-56,-1,-1,0
1523628282862,-1835008,78,-56,-1,-1,0
1523628282862,-1703936,78,-56,-1,-1,0
1523628282862,-1572864,78,-56,-1,-1,0
1523628282862,-1507328,78,-56,-1,-1,0
1523628282902,-1245184,78,-56,-1,-1,0
1523628282902,-1441792,78,-56,-1,-1,0
1523628282902,-1638400,78,-56,-1,-1,0
1523628282902,-1769472,78,-56,-1,-1,0
1523628282902,-1507328,78,-56,-1,-1,0
1523628282942,-1376256,78,-56,-1,-1,0
1523628282942,-1638400,78,-56,-1,-1,0
1523628282942,-1769472,78,-56,-1,-1,0
1523628282942,-1900544,78,-56,-1,-1,0
1523628282942,-1966080,78,-56,-1,-1,0
1523628282982,-1966080,78,-56,-1,-1,0
1523628282982,-1900544,78,-56,-1,-1,0
1523628282982,-2228224,78,-56,-1,-1,0
1523628282982,-2752512,78,-56,-1,-1,0
1523628282982,-3211264,78,-56,-1,-1,0
1523628283024,-3342336,78,-56,-1,-1,0
1523628283024,-3801088,78,-56,-1,-1,0
1523628283024,-3997696,78,-56,-1,-1,0
1523628283024,-3211264,78,-56,-1,-1,0
1523628283024,-1900544,78,-56,-1,-1,0
1523628283062,-1245184,78,-56,-1,-1,0
1523628283062,-917504,78,-56,-1,-1,0
1523628283062,-720896,78,-56,-1,-1,0
1523628283062,-655360,78,-56,-1,-1,0
1523628283062,-917504,78,-56,-1,-1,0
1523628283102,-1245184,78,-56,-1,-1,0
1523628283102,-1441792,78,-56,-1,-1,0
1523628283102,-1769472,78,-56,-1,-1,0
1523628283102,-2031616,78,-56,-1,-1,0
1523628283102,-1507328,78,-56,-1,-1,0
1523628283142,-1179648,78,-56,-1,-1,0
1523628283142,-1179648,78,-56,-1,-1,0
1523628283142,-1835008,78,-56,-1,-1,0
1523628283142,-2752512,78,-56,-1,-1,0
1523628283142,-2097152,78,-56,-1,-1,0
1523628283182,917504,78,-56,-1,-1,0
1523628283182,6356992,78,-56,-1,-1,0
1523628283182,12910592,78,-56,-1,-1,0
1523628283182,15269888,78,-56,-1,-1,0
1523628283182,9830400,78,-56,-1,-1,0
1523628283222,2490368,78,-56,-1,-1,0
1523628283222,-589824,78,-56,-1,-1,0
1523628283222,-786432,78,-56,-1,-1,0
1523628283222,-327680,78,-56,-1,-1,0
1523628283222,-262144,78,-56,-1,-1,0
1523628283262,-720896,78,-56,-1,-1,0
1523628283262,-1048576,78,-56,-1,-1,0
1523628283262,-917504,78,-56,-1,-1,0
1523628283262,-983040,78,-56,-1,-1,0
1523628283262,-851968,78,-56,-1,-1,0
1523628283302,-655360,78,-56,-1,-1,0
1523628283302,-983040,78,-56,-1,-1,0
1523628283302,-1114112,78,-56,-1,-1,0
1523628283302,-524288,78,-56,-1,-1,0
1523628283302,-196608,78,-56,-1,-1,0
1523628283342,-524288,78,-56,-1,-1,0
1523628283342,-327680,78,-56,-1,-1,0
1523628283342,458752,78,-56,-1,-1,0
1523628283342,1245184,78,-56,-1,-1,0
1523628283342,1245184,78,-56,-1,-1,0
1523628283382,1048576,78,-56,-1,-1,0
1523628283382,1114112,78,-56,-1,-1,0
1523628283382,1245184,78,-56,-1,-1,0
1523628283382,1048576,78,-56,-1,-1,0
1523628283382,1048576,78,-56,-1,-1,0
1523628283422,2228224,78,-56,-1,-1,0
1523628283422,2621440,78,-56,-1,-1,0
1523628283422,2686976,78,-56,-1,-1,0
1523628283422,2818048,78,-56,-1,-1,0
1523628283422,2949120,78,-56,-1,-1,0
1523628283462,2818048,78,-56,-1,-1,0
1523628283462,2621440,78,-56,-1,-1,0
1523628283462,2818048,78,-56,-1,-1,0
1523628283462,2490368,78,-56,-1,-1,0
1523628283462,1638400,78,-56,-1,-1,0
1523628283502,1179648,78,-56,-1,-1,0
1523628283502,1507328,78,-56,-1,-1,0
1523628283502,1245184,78,-56,-1,-1,0
1523628283502,786432,78,-56,-1,-1,0
1523628283502,262144,78,-56,-1,-1,0
1523628283542,-131072,78,-56,-1,-1,0
1523628283542,-327680,78,-56,-1,-1,0
1523628283542,524288,78,-56,-1,-1,0
1523628283542,1048576,78,-56,-1,-1,0
1523628283542,1245184,78,-56,-1,-1,0
1523628283582,1114112,78,-56,-1,-1,0
1523628283582,262144,78,-56,-1,-1,0
1523628283582,-262144,78,-56,-1,-1,0
1523628283582,-131072,78,-56,-1,-1,0
1523628283582,262144,78,-56,-1,-1,0
1523628283622,262144,78,-56,-1,-1,0
1523628283622,0,78,-56,-1,-1,0
1523628283622,-524288,78,-56,-1,-1,0
1523628283622,-524288,78,-56,-1,-1,0
1523628283622,-131072,78,-56,-1,-1,0
1523628283664,65536,78,-56,-1,-1,0
1523628283664,131072,78,-56,-1,-1,0
1523628283664,262144,78,-56,-1,-1,0
1523628283664,196608,78,-56,-1,-1,0
1523628283664,-65536,78,-56,-1,-1,0
1523628283704,-393216,78,-56,-1,-1,0
1523628283704,-327680,78,-56,-1,-1,0
1523628283704,-65536,78,-56,-1,-1,0
1523628283704,-65536,78,-56,-1,-1,0
1523628283704,0,78,-56,-1,-1,0
1523628283742,327680,78,-56,-1,-1,0
1523628283742,458752,78,-56,-1,-1,0
1523628283742,131072,78,-56,-1,-1,0
1523628283742,-65536,78,-56,-1,-1,0
1523628283742,-131072,78,-56,-1,-1,0
1523628283782,-65536,78,-56,-1,-1,0
1523628283782,-196608,78,-56,-1,-1,0
1523628283782,-327680,78,-56,-1,-1,0
1523628283782,-65536,78,-56,-1,-1,0
1523628283782,196608,78,-56,-1,-1,0
1523628283822,196608,78,-56,-1,-1,0
1523628283822,-65536,78,-56,-1,-1,0
1523628283822,-327680,78,-56,-1,-1,0
1523628283822,-524288,78,-56,-1,-1,0
1523628283822,-589824,78,-56,-1,-1,0
1523628283862,-655360,78,-56,-1,-1,0
1523628283862,-589824,78,-56,-1,-1,0
1523628283862,-589824,78,-56,-1,-1,0
1523628283862,-524288,78,-56,-1,-1,0
1523628283862,-655360,78,-56,-1,-1,0
1523628283902,-917504,78,-56,-1,-1,0
1523628283902,0,78,-56,-1,-1,0
1523628283902,3538944,78,-56,-1,-1,0
1523628283902,9568256,78,-56,-1,-1,0
1523628283902,15204352,78,-56,-1,-1,0
1523628283943,15138816,79,-56,-1,-1,0
1523628283943,8650752,79,-56,-1,-1,0
1523628283943,2621440,79,-56,-1,-1,0
1523628283943,786432,79,-56,-1,-1,0
1523628283943,524288,79,-56,-1,-1,0
1523628283982,131072,79,-56,-1,-1,0
1523628283982,0,79,-56,-1,-1,0
1523628283982,65536,79,-56,-1,-1,0
1523628283982,262144,79,-56,-1,-1,0
1523628283982,589824,79,-56,-1,-1,0
1523628284022,851968,79,-56,-1,-1,0
1523628284022,1179648,79,-56,-1,-1,0
1523628284022,1507328,79,-56,-1,-1,0
1523628284022,1900544,79,-56,-1,-1,0
1523628284022,2228224,79,-56,-1,-1,0
1523628284062,2359296,79,-56,-1,-1,0
1523628284062,2162688,79,-56,-1,-1,0
1523628284062,1966080,79,-56,-1,-1,0
1523628284062,1835008,79,-56,-1,-1,0
1523628284062,1769472,79,-56,-1,-1,0
1523628284102,1900544,79,-56,-1,-1,0
1523628284102,2097152,79,-56,-1,-1,0
1523628284102,2097152,79,-56,-1,-1,0
1523628284102,1900544,79,-56,-1,-1,0
1523628284102,1769472,79,-56,-1,-1,0
1523628284142,1835008,79,-56,-1,-1,0
1523628284142,1835008,79,-56,-1,-1,0
1523628284142,1572864,79,-56,-1,-1,0
1523628284142,1245184,79,-56,-1,-1,0
1523628284142,1114112,79,-56,-1,-1,0
1523628284182,1245184,79,-56,-1,-1,0
1523628284182,1310720,79,-56,-1,-1,0
1523628284182,1310720,79,-56,-1,-1,0
1523628284182,1179648,79,-56,-1,-1,0
1523628284182,1048576,79,-56,-1,-1,0
1523628284222,851968,79,-56,-1,-1,0
1523628284222,262144,79,-56,-1,-1,0
1523628284222,-196608,79,-56,-1,-1,0
1523628284222,-458752,79,-56,-1,-1,0
1523628284222,-524288,79,-56,-1,-1,0
1523628284262,-524288,79,-56,-1,-1,0
1523628284262,-458752,79,-56,-1,-1,0
1523628284262,-458752,79,-56,-1,-1,0
1523628284262,-589824,79,-56,-1,-1,0
1523628284262,-851968,79,-56,-1,-1,0
1523628284304,-1245184,79,-56,-1,-1,0
1523628284304,-1507328,79,-56,-1,-1,0
1523628284304,-1245184,79,-56,-1,-1,0
1523628284304,-983040,79,-56,-1,-1,0
1523628284304,-983040,79,-56,-1,-1,0
1523628284342,-1048576,79,-56,-1,-1,0
1523628284342,-851968,79,-56,-1,-1,0
1523628284342,-786432,79,-56,-1,-1,0
1523628284342,-851968,79,-56,-1,-1,0
1523628284342,-917504,79,-56,-1,-1,0
1523628284382,-917504,79,-56,-1,-1,0
1523628284382,-983040,79,-56,-1,-1,0
1523628284382,-1179648,79,-56,-1,-1,0
1523628284382,-1441792,79,-56,-1,-1,0
1523628284382,-1638400,79,-56,-1,-1,0
1523628284422,-1638400,79,-56,-1,-1,0
1523628284422,-1441792,79,-56,-1,-1,0
1523628284422,-1245184,79,-56,-1,-1,0
1523628284422,-1376256,79,-56,-1,-1,0
1523628284422,-1572864,79,-56,-1,-1,0
1523628284462,-1441792,79,-56,-1,-1,0
1523628284462,-1507328,79,-56,-1,-1,0
1523628284462,-1638400,79,-56,-1,-1,0
1523628284462,-1376256,79,-56,-1,-1,0
1523628284462,-1114112,79,-56,-1,-1,0
1523628284502,-1441792,79,-56,-1,-1,0
1523628284502,-1769472,79,-56,-1,-1,0
1523628284502,-1638400,79,-56,-1,-1,0
1523628284502,-1441792,79,-56,-1,-1,0
1523628284502,-1376256,79,-56,-1,-1,0
1523628284542,-1310720,79,-56,-1,-1,0
1523628284542,-1179648,79,-56,-1,-1,0
1523628284542,-1048576,79,-56,-1,-1,0
1523628284542,-720896,79,-56,-1,-1,0
1523628284542,-327680,79,-56,-1,-1,0
1523628284582,-65536,79,-56,-1,-1,0
1523628284582,-65536,79,-56,-1,-1,0
1523628284582,-262144,79,-56,-1,-1,0
1523628284582,-589824,79,-56,-1,-1,0
1523628284582,-983040,79,-56,-1,-1,0
1523628284622,-1048576,79,-56,-1,-1,0
1523628284622,-1179648,79,-56,-1,-1,0
1523628284622,-786432,79,-56,-1,-1,0
1523628284622,-524288,79,-56,-1,-1,0
1523628284622,-786432,79,-56,-1,-1,0
1523628284662,-1572864,79,-56,-1,-1,0
1523628284662,-1245184,79,-56,-1,-1,0
1523628284662,1703936,79,-56,-1,-1,0
1523628284662,7929856,79,-56,-1,-1,0
1523628284662,13500416,79,-56,-1,-1,0
1523628284702,13238272,79,-56,-1,-1,0
1523628284702,7405568,79,-56,-1,-1,0
1523628284702,1572864,79,-56,-1,-1,0
1523628284702,-196608,79,-56,-1,-1,0
1523628284702,131072,79,-56,-1,-1,0
1523628284742,393216,79,-56,-1,-1,0
1523628284742,-131072,79,-56,-1,-1,0
1523628284742,-786432,79,-56,-1,-1,0
1523628284742,-655360,79,-56,-1,-1,0
1523628284742,-720896,79,-56,-1,-1,0
1523628284782,-589824,79,-56,-1,-1,0
1523628284782,-458752,79,-56,-1,-1,0
1523628284782,-196608,79,-56,-1,-1,0
1523628284782,-983040,79,-56,-1,-1,0
1523628284782,-1245184,79,-56,-1,-1,0
1523628284822,-786432,79,-56,-1,-1,0
1523628284822,-65536,79,-56,-1,-1,0
1523628284822,-393216,79,-56,-1,-1,0
1523628284822,-524288,79,-56,-1,-1,0
1523628284822,-262144,79,-56,-1,-1,0
1523628284862,0,79,-56,-1,-1,0
1523628284862,-393216,79,-56,-1,-1,0
1523628284862,-262144,79,-56,-1,-1,0
1523628284862,131072,79,-56,-1,-1,0
1523628284862,262144,79,-56,-1,-1,0
1523628284902,-196608,79,-56,-1,-1,0
1523628284902,-393216,79,-56,-1,-1,0
1523628284902,131072,79,-56,-1,-1,0
1523628284902,196608,79,-56,-1,-1,0
1523628284902,65536,79,-56,-1,-1,0
1523628284944,720896,79,-56,-1,-1,0
1523628284944,983040,79,-56,-1,-1,0
1523628284944,786432,79,-56,-1,-1,0
1523628284944,851968,79,-56,-1,-1,0
1523628284944,1048576,79,-56,-1,-1,0
1523628284982,262144,79,-56,-1,-1,0
1523628284982,-196608,79,-56,-1,-1,0
1523628284982,-851968,79,-56,-1,-1,0
1523628284982,-1507328,79,-56,-1,-1,0
1523628284982,-1769472,79,-56,-1,-1,0
1523628285022,-1245184,79,-56,-1,-1,0
1523628285022,-983040,79,-56,-1,-1,0
1523628285022,-1245184,79,-56,-1,-1,0
1523628285022,-1572864,79,-56,-1,-1,0
1523628285022,-1769472,79,-56,-1,-1,0
1523628285062,-2031616,79,-56,-1,-1,0
1523628285062,-2097152,79,-56,-1,-1,0
1523628285062,-2097152,79,-56,-1,-1,0
1523628285062,-2097152,79,-56,-1,-1,0
1523628285062,-1835008,79,-56,-1,-1,0
1523628285102,-1572864,79,-56,-1,-1,0
1523628285102,-1376256,79,-56,-1,-1,0
1523628285102,-1572864,79,-56,-1,-1,0
1523628285102,-1966080,79,-56,-1,-1,0
1523628285102,-2097152,79,-56,-1,-1,0
1523628285142,-2293760,79,-56,-1,-1,0
1523628285142,-2621440,79,-56,-1,-1,0
1523628285142,-2686976,79,-56,-1,-1,0
1523628285142,-2293760,79,-56,-1,-1,0
1523628285142,-2097152,79,-56,-1,-1,0
1523628285182,-2162688,79,-56,-1,-1,0
1523628285182,-2490368,79,-56,-1,-1,0
1523628285182,-2555904,79,-56,-1,-1,0
1523628285182,-2293760,79,-56,-1,-1,0
1523628285182,-2097152,79,-56,-1,-1,0
1523628285222,-2359296,79,-56,-1,-1,0
1523628285222,-2686976,79,-56,-1,-1,0
1523628285222,-2949120,79,-56,-1,-1,0
1523628285222,-2883584,79,-56,-1,-1,0
1523628285222,-2621440,79,-56,-1,-1,0
1523628285262,-2686976,79,-56,-1,-1,0
1523628285262,-2424832,79,-56,-1,-1,0
1523628285262,-2097152,79,-56,-1,-1,0
1523628285262,-1835008,79,-56,-1,-1,0
1523628285262,-1376256,79,-56,-1,-1,0
1523628285302,-851968,79,-56,-1,-1,0
1523628285302,-786432,79,-56,-1,-1,0
1523628285302,-983040,79,-56,-1,-1,0
1523628285302,-1114112,79,-56,-1,-1,0
1523628285302,-1179648,79,-56,-1,-1,0
1523628285342,-1441792,79,-56,-1,-1,0
1523628285342,-1835008,79,-56,-1,-1,0
1523628285342,-2097152,79,-56,-1,-1,0
1523628285342,-2031616,79,-56,-1,-1,0
1523628285342,-2293760,79,-56,-1,-1,0
1523628285382,-2949120,79,-56,-1,-1,0
1523628285382,-3670016,79,-56,-1,-1,0
1523628285382,-4456448,79,-56,-1,-1,0
1523628285382,-4390912,79,-56,-1,-1,0
1523628285382,-1900544,79,-56,-1,-1,0
1523628285422,3211264,79,-56,-1,-1,0
1523628285422,9306112,79,-56,-1,-1,0
1523628285422,11206656,79,-56,-1,-1,0
1523628285422,6750208,79,-56,-1,-1,0
1523628285422,393216,79,-56,-1,-1,0
1523628285462,-2490368,79,-56,-1,-1,0
1523628285462,-3014656,79,-56,-1,-1,0
1523628285462,-2752512,79,-56,-1,-1,0
1523628285462,-2359296,79,-56,-1,-1,0
1523628285462,-2424832,79,-56,-1,-1,0
1523628285502,-2686976,79,-56,-1,-1,0
1523628285502,-2752512,79,-56,-1,-1,0
1523628285502,-2686976,79,-56,-1,-1,0
1523628285502,-2228224,79,-56,-1,-1,0
1523628285502,-2031616,79,-56,-1,-1,0
1523628285542,-2293760,79,-56,-1,-1,0
1523628285542,-2621440,79,-56,-1,-1,0
1523628285542,-2359296,79,-56,-1,-1,0
1523628285542,-2031616,79,-56,-1,-1,0
1523628285542,-1572864,79,-56,-1,-1,0
1523628285584,-1572864,79,-56,-1,-1,0
1523628285584,-1441792,79,-56,-1,-1,0
1523628285584,-983040,79,-56,-1,-1,0
1523628285584,-393216,79,-56,-1,-1,0
1523628285584,-327680,79,-56,-1,-1,0
1523628285622,-917504,79,-56,-1,-1,0
1523628285622,-1179648,79,-56,-1,-1,0
1523628285622,-655360,79,-56,-1,-1,0
1523628285622,0,79,-56,-1,-1,0
1523628285622,-131072,79,-56,-1,-1,0
1523628285662,-196608,79,-56,-1,-1,0
1523628285662,0,79,-56,-1,-1,0
1523628285662,720896,79,-56,-1,-1,0
1523628285662,720896,79,-56,-1,-1,0
1523628285662,589824,79,-56,-1,-1,0
1523628285702,524288,79,-56,-1,-1,0
1523628285702,524288,79,-56,-1,-1,0
1523628285702,327680,79,-56,-1,-1,0
1523628285702,-262144,79,-56,-1,-1,0
1523628285702,-917504,79,-56,-1,-1,0
1523628285742,-917504,79,-56,-1,-1,0
1523628285742,-851968,79,-56,-1,-1,0
1523628285742,-983040,79,-56,-1,-1,0
1523628285742,-917504,79,-56,-1,-1,0
1523628285742,-1376256,79,-56,-1,-1,0
1523628285782,-1638400,79,-56,-1,-1,0
1523628285782,-1507328,79,-56,-1,-1,0
1523628285782,-786432,79,-56,-1,-1,0
1523628285782,-327680,79,-56,-1,-1,0
1523628285782,-851968,79,-56,-1,-1,0
1523628285822,-1638400,79,-56,-1,-1,0
1523628285822,-1376256,79,-56,-1,-1,0
1523628285822,-524288,79,-56,-1,-1,0
1523628285822,-786432,79,-56,-1,-1,0
1523628285822,-458752,79,-56,-1,-1,0
1523628285862,0,79,-56,-1,-1,0
1523628285862,-131072,79,-56,-1,-1,0
1523628285862,-327680,79,-56,-1,-1,0
1523628285862,-65536,79,-56,-1,-1,0
1523628285862,-524288,79,-56,-1,-1,0
1523628285902,-589824,79,-56,-1,-1,0
1523628285902,0,79,-56,-1,-1,0
1523628285902,393216,79,-56,-1,-1,0
1523628285902,65536,79,-56,-1,-1,0
1523628285902,0,79,-56,-1,-1,0
1523628285942,0,79,-56,-1,-1,0
1523628285942,-589824,79,-56,-1,-1,0
1523628285942,-851968,79,-56,-1,-1,0
1523628285942,-524288,79,-56,-1,-1,0
1523628285942,-393216,79,-56,-1,-1,0
1523628285982,-262144,79,-56,-1,-1,0
1523628285982,-393216,79,-56,-1,-1,0
1523628285982,-720896,79,-56,-1,-1,0
1523628285982,-786432,79,-56,-1,-1,0
1523628285982,-720896,79,-56,-1,-1,0
1523628286022,-917504,79,-56,-1,-1,0
1523628286022,-589824,79,-56,-1,-1,0
1523628286022,-524288,79,-56,-1,-1,0
1523628286022,-655360,79,-56,-1,-1,0
1523628286022,-1114112,79,-56,-1,-1,0
1523628286062,-1376256,79,-56,-1,-1,0
1523628286062,-1441792,79,-56,-1,-1,0
1523628286062,-1703936,79,-56,-1,-1,0
1523628286062,-1966080,79,-56,-1,-1,0
1523628286062,-2162688,79,-56,-1,-1,0
1523628286102,-2490368,79,-56,-1,-1,0
1523628286102,-2359296,79,-56,-1,-1,0
1523628286102,-2293760,79,-56,-1,-1,0
1523628286102,-2686976,79,-56,-1,-1,0
1523628286102,-2031616,79,-56,-1,-1,0
1523628286142,786432,79,-56,-1,-1,0
1523628286142,5636096,79,-56,-1,-1,0
1523628286142,11599872,79,-56,-1,-1,0
1523628286142,14155776,79,-56,-1,-1,0
1523628286142,9502720,79,-56,-1,-1,0
1523628286182,2490368,80,-56,-1,-1,0
1523628286182,-720896,80,-56,-1,-1,0
1523628286182,-589824,80,-56,-1,-1,0
1523628286182,-851968,80,-56,-1,-1,0
1523628286182,-1245184,80,-56,-1,-1,0
1523628286224,-1310720,80,-56,-1,-1,0
1523628286224,-1245184,80,-56,-1,-1,0
1523628286224,-1048576,80,-56,-1,-1,0
1523628286224,-983040,80,-56,-1,-1,0
1523628286224,-786432,80,-56,-1,-1,0
1523628286262,-589824,80,-56,-1,-1,0
1523628286262,-458752,80,-56,-1,-1,0
1523628286262,-262144,80,-56,-1,-1,0
1523628286262,0,80,-56,-1,-1,0
1523628286262,262144,80,-56,-1,-1,0
1523628286302,524288,80,-56,-1,-1,0
1523628286302,786432,80,-56,-1,-1,0
1523628286302,983040,80,-56,-1,-1,0
1523628286302,1114112,80,-56,-1,-1,0
1523628286302,1310720,80,-56,-1,-1,0
1523628286342,1572864,80,-56,-1,-1,0
1523628286342,1835008,80,-56,-1,-1,0
1523628286342,2097152,80,-56,-1,-1,0
1523628286342,2424832,80,-56,-1,-1,0
1523628286342,2621440,80,-56,-1,-1,0
1523628286382,2686976,80,-56,-1,-1,0
1523628286382,2752512,80,-56,-1,-1,0
1523628286382,2883584,80,-56,-1,-1,0
1523628286382,3014656,80,-56,-1,-1,0
1523628286382,3145728,80,-56,-1,-1,0
1523628286424,3145728,80,-56,-1,-1,0
1523628286424,2818048,80,-56,-1,-1,0
1523628286424,2359296,80,-56,-1,-1,0
1523628286424,1638400,80,-56,-1,-1,0
1523628286424,786432,80,-56,-1,-1,0
1523628286462,-65536,80,-56,-1,-1,0
1523628286462,-655360,80,-56,-1,-1,0
1523628286462,-917504,80,-56,-1,-1,0
1523628286462,-851968,80,-56,-1,-1,0
1523628286462,-655360,80,-56,-1,-1,0
1523628286502,-393216,80,-56,-1,-1,0
1523628286502,-327680,80,-56,-1,-1,0
1523628286502,-393216,80,-56,-1,-1,0
1523628286502,-524288,80,-56,-1,-1,0
1523628286502,-720896,80,-56,-1,-1,0
1523628286542,-720896,80,-56,-1,-1,0
1523628286542,-524288,80,-56,-1,-1,0
1523628286542,-131072,80,-56,-1,-1,0
1523628286542,65536,80,-56,-1,-1,0
1523628286542,131072,80,-56,-1,-1,0
1523628286582,0,80,-56,-1,-1,0
1523628286582,-262144,80,-56,-1,-1,0
1523628286582,-524288,80,-56,-1,-1,0
1523628286582,-524288,80,-56,-1,-1,0
1523628286582,-393216,80,-56,-1,-1,0
1523628286622,-458752,80,-56,-1,-1,0
1523628286622,-720896,80,-56,-1,-1,0
1523628286622,-851968,80,-56,-1,-1,0
1523628286622,-851968,80,-56,-1,-1,0
1523628286622,-786432,80,-56,-1,-1,0
1523628286662,-786432,80,-56,-1,-1,0
1523628286662,-983040,80,-56,-1,-1,0
1523628286662,-1245184,80,-56,-1,-1,0
1523628286662,-1572864,80,-56,-1,-1,0
1523628286662,-1507328,80,-56,-1,-1,0
1523628286702,-1048576,80,-56,-1,-1,0
1523628286702,-786432,80,-56,-1,-1,0
1523628286702,-1048576,80,-56,-1,-1,0
1523628286702,-1310720,80,-56,-1,-1,0
1523628286702,-1310720,80,-56,-1,-1,0
1523628286742,-1376256,80,-56,-1,-1,0
1523628286742,-1572864,80,-56,-1,-1,0
1523628286742,-1638400,80,-56,-1,-1,0
1523628286742,-1310720,80,-56,-1,-1,0
1523628286742,-851968,80,-56,-1,-1,0
1523628286782,-655360,80,-56,-1,-1,0
1523628286782,-786432,80,-56,-1,-1,0
1523628286782,-720896,80,-56,-1,-1,0
1523628286782,-851968,80,-56,-1,-1,0
1523628286782,-1245184,80,-56,-1,-1,0
1523628286822,-1245184,80,-56,-1,-1,0
1523628286822,-851968,80,-56,-1,-1,0
1523628286822,-720896,80,-56,-1,-1,0
1523628286822,-1179648,80,-56,-1,-1,0
1523628286822,-983040,80,-56,-1,-1,0
1523628286865,-524288,80,-56,-1,-1,0
1523628286865,-262144,80,-56,-1,-1,0
1523628286865,-589824,80,-56,-1,-1,0
1523628286865,917504,80,-56,-1,-1,0
1523628286865,4980736,80,-56,-1,-1,0
1523628286902,11206656,80,-56,-1,-1,0
1523628286902,15466496,80,-56,-1,-1,0
1523628286902,13172736,80,-56,-1,-1,0
1523628286902,6422528,80,-56,-1,-1,0
1523628286902,1769472,80,-56,-1,-1,0
1523628286942,458752,80,-56,-1,-1,0
1523628286942,-262144,80,-56,-1,-1,0
1523628286942,-720896,80,-56,-1,-1,0
1523628286942,-917504,80,-56,-1,-1,0
1523628286942,-1310720,80,-56,-1,-1,0
1523628286982,-1114112,80,-56,-1,-1,0
1523628286982,-1507328,80,-56,-1,-1,0
1523628286982,-1310720,80,-56,-1,-1,0
1523628286982,-327680,80,-56,-1,-1,0
1523628286982,196608,80,-56,-1,-1,0
1523628287022,-393216,80,-56,-1,-1,0
1523628287022,-1310720,80,-56,-1,-1,0
1523628287022,-1507328,80,-56,-1,-1,0
1523628287022,-1441792,80,-56,-1,-1,0
1523628287022,-786432,80,-56,-1,-1,0
1523628287062,-917504,80,-56,-1,-1,0
1523628287062,-786432,80,-56,-1,-1,0
1523628287062,-196608,80,-56,-1,-1,0
1523628287062,-131072,80,-56,-1,-1,0
1523628287062,0,80,-56,-1,-1,0
1523628287102,0,80,-56,-1,-1,0
1523628287102,-262144,80,-56,-1,-1,0
1523628287102,-131072,80,-56,-1,-1,0
1523628287102,0,80,-56,-1,-1,0
1523628287102,131072,80,-56,-1,-1,0
1523628287142,-131072,80,-56,-1,-1,0
1523628287142,196608,80,-56,-1,-1,0
1523628287142,1114112,80,-56,-1,-1,0
1523628287142,1638400,80,-56,-1,-1,0
1523628287142,1441792,80,-56,-1,-1,0
1523628287182,1245184,80,-56,-1,-1,0
1523628287182,720896,80,-56,-1,-1,0
1523628287182,0,80,-56,-1,-1,0
1523628287182,-524288,80,-56,-1,-1,0
1523628287182,-1114112,80,-56,-1,-1,0
1523628287222,-1310720,80,-56,-1,-1,0
1523628287222,-786432,80,-56,-1,-1,0
1523628287222,-327680,80,-56,-1,-1,0
1523628287222,-524288,80,-56,-1,-1,0
1523628287222,-1114112,80,-56,-1,-1,0
1523628287262,-1376256,80,-56,-1,-1,0
1523628287262,-1507328,80,-56,-1,-1,0
1523628287262,-1507328,80,-56,-1,-1,0
1523628287262,-1507328,80,-56,-1,-1,0
1523628287262,-1441792,80,-56,-1,-1,0
1523628287302,-1507328,80,-56,-1,-1,0
1523628287302,-1638400,80,-56,-1,-1,0
1523628287302,-1507328,80,-56,-1,-1,0
1523628287302,-1441792,80,-56,-1,-1,0
1523628287302,-1835008,80,-56,-1,-1,0
1523628287342,-2097152,80,-56,-1,-1,0
1523628287342,-1966080,80,-56,-1,-1,0
1523628287342,-1638400,80,-56,-1,-1,0
1523628287342,-1703936,80,-56,-1,-1,0
1523628287342,-1703936,80,-56,-1,-1,0
1523628287382,-1703936,80,-56,-1,-1,0
1523628287382,-2097152,80,-56,-1,-1,0
1523628287382,-2555904,80,-56,-1,-1,0
1523628287382,-2424832,80,-56,-1,-1,0
1523628287382,-2424832,80,-56,-1,-1,0
1523628287422,-2555904,80,-56,-1,-1,0
1523628287422,-2621440,80,-56,-1,-1,0
1523628287422,-2490368,80,-56,-1,-1,0
1523628287422,-2293760,80,-56,-1,-1,0
1523628287422,-2359296,80,-56,-1,-1,0
1523628287462,-2228224,80,-56,-1,-1,0
1523628287462,-2162688,80,-56,-1,-1,0
1523628287462,-1835008,80,-56,-1,-1,0
1523628287462,-1572864,80,-56,-1,-1,0
1523628287462,-983040,80,-56,-1,-1,0
1523628287503,-524288,80,-56,-1,-1,0
1523628287503,-524288,80,-56,-1,-1,0
1523628287503,-524288,80,-56,-1,-1,0
1523628287503,-786432,80,-56,-1,-1,0
1523628287503,-1114112,80,-56,-1,-1,0
1523628287542,-1572864,80,-56,-1,-1,0
1523628287542,-1507328,80,-56,-1,-1,0
1523628287542,-1572864,80,-56,-1,-1,0
1523628287542,-2031616,80,-56,-1,-1,0
1523628287542,-2621440,80,-56,-1,-1,0
1523628287582,-2686976,80,-56,-1,-1,0
1523628287582,-2424832,80,-56,-1,-1,0
1523628287582,-2686976,80,-56,-1,-1,0
1523628287582,-2686976,80,-56,-1,-1,0
1523628287582,-851968,80,-56,-1,-1,0
1523628287622,3473408,80,-56,-1,-1,0
1523628287622,9240576,80,-56,-1,-1,0
1523628287622,12910592,80,-56,-1,-1,0
1523628287622,10223616,80,-56,-1,-1,0
1523628287622,4063232,80,-56,-1,-1,0
1523628287662,131072,80,-56,-1,-1,0
1523628287662,-655360,80,-56,-1,-1,0
1523628287662,-1245184,80,-56,-1,-1,0
1523628287662,-1638400,80,-56,-1,-1,0
1523628287662,-1703936,80,-56,-1,-1,0
1523628287702,-1900544,80,-56,-1,-1,0
1523628287702,-1769472,80,-56,-1,-1,0
1523628287702,-1835008,80,-56,-1,-1,0
1523628287702,-1638400,80,-56,-1,-1,0
1523628287702,-1507328,80,-56,-1,-1,0
1523628287742,-1441792,80,-56,-1,-1,0
1523628287742,-1507328,80,-56,-1,-1,0
1523628287742,-1179648,80,-56,-1,-1,0
1523628287742,-851968,80,-56,-1,-1,0
1523628287742,-720896,80,-56,-1,-1,0
1523628287782,-851968,80,-56,-1,-1,0
1523628287782,-917504,80,-56,-1,-1,0
1523628287782,-720896,80,-56,-1,-1,0
1523628287782,-327680,80,-56,-1,-1,0
1523628287782,-262144,80,-56,-1,-1,0
1523628287822,-393216,80,-56,-1,-1,0
1523628287822,-327680,80,-56,-1,-1,0
1523628287822,0,80,-56,-1,-1,0
1523628287822,327680,80,-56,-1,-1,0
1523628287822,720896,80,-56,-1,-1,0
1523628287862,720896,80,-56,-1,-1,0
1523628287862,1245184,80,-56,-1,-1,0
1523628287862,2359296,80,-56,-1,-1,0
1523628287862,2752512,80,-56,-1,-1,0
1523628287862,2097152,80,-56,-1,-1,0
1523628287903,1310720,80,-56,-1,-1,0
1523628287903,983040,80,-56,-1,-1,0
1523628287903,1376256,80,-56,-1,-1,0
1523628287903,1441792,80,-56,-1,-1,0
1523628287903,851968,80,-56,-1,-1,0
1523628287942,524288,80,-56,-1,-1,0
1523628287942,262144,80,-56,-1,-1,0
1523628287942,-655360,80,-56,-1,-1,0
1523628287942,-1572864,80,-56,-1,-1,0
1523628287942,-1441792,80,-56,-1,-1,0
1523628287982,-851968,80,-56,-1,-1,0
1523628287982,-720896,80,-56,-1,-1,0
1523628287982,-655360,80,-56,-1,-1,0
1523628287982,-589824,80,-56,-1,-1,0
1523628287982,-720896,80,-56,-1,-1,0
1523628288023,-983040,80,-56,-1,-1,0
1523628288023,-917504,80,-56,-1,-1,0
1523628288023,-393216,80,-56,-1,-1,0
1523628288023,-131072,80,-56,-1,-1,0
1523628288023,-393216,80,-56,-1,-1,0
1523628288062,-917504,80,-56,-1,-1,0
1523628288062,-1114112,80,-56,-1,-1,0
1523628288062,-786432,80,-56,-1,-1,0
1523628288062,-655360,80,-56,-1,-1,0
1523628288062,-458752,80,-56,-1,-1,0
1523628288102,-720896,80,-56,-1,-1,0
1523628288102,-720896,80,-56,-1,-1,0
1523628288102,-720896,80,-56,-1,-1,0
1523628288102,-786432,80,-56,-1,-1,0
1523628288102,-851968,80,-56,-1,-1,0
1523628288143,-851968,80,-56,-1,-1,0
1523628288143,-1114112,80,-56,-1,-1,0
1523628288143,-1507328,80,-56,-1,-1,0
1523628288143,-1376256,80,-56,-1,-1,0
1523628288143,-983040,80,-56,-1,-1,0
1523628288182,-458752,80,-56,-1,-1,0
1523628288182,-458752,80,-56,-1,-1,0
1523628288182,-1048576,80,-56,-1,-1,0
1523628288182,-1376256,80,-56,-1,-1,0
1523628288182,-851968,80,-56,-1,-1,0
1523628288222,-720896,80,-56,-1,-1,0
1523628288222,-1114112,80,-56,-1,-1,0
1523628288222,-1376256,80,-56,-1,-1,0
1523628288222,-1114112,80,-56,-1,-1,0
1523628288222,-786432,80,-56,-1,-1,0
1523628288262,-851968,80,-56,-1,-1,0
1523628288262,-1310720,80,-56,-1,-1,0
1523628288262,-1572864,80,-56,-1,-1,0
1523628288262,-1507328,80,-56,-1,-1,0
1523628288262,-1179648,80,-56,-1,-1,0
1523628288302,-1179648,80,-56,-1,-1,0
1523628288302,-1441792,80,-56,-1,-1,0
1523628288302,-1769472,80,-56,-1,-1,0
1523628288302,-1507328,80,-56,-1,-1,0
1523628288302,-262144,80,-56,-1,-1,0
1523628288342,2949120,80,-56,-1,-1,0
1523628288342,8650752,80,-56,-1,-1,0
1523628288342,14286848,80,-56,-1,-1,0
1523628288342,14221312,80,-56,-1,-1,0
1523628288342,7798784,80,-56,-1,-1,0
1523628288382,1769472,80,-56,-1,-1,0
1523628288382,131072,80,-56,-1,-1,0
1523628288382,196608,80,-56,-1,-1,0
1523628288382,131072,80,-56,-1,-1,0
1523628288382,131072,80,-56,-1,-1,0
1523628288422,0,80,-56,-1,-1,0
1523628288422,-65536,80,-56,-1,-1,0
1523628288422,524288,80,-56,-1,-1,0
1523628288422,1245184,80,-56,-1,-1,0
1523628288422,1179648,80,-56,-1,-1,0
1523628288462,1048576,80,-56,-1,-1,0
1523628288462,1114112,80,-56,-1,-1,0
1523628288462,1048576,80,-56,-1,-1,0
1523628288462,1048576,80,-56,-1,-1,0
1523628288462,1048576,80,-56,-1,-1,0
1523628288503,1179648,80,-56,-1,-1,0
1523628288503,1114112,80,-56,-1,-1,0
1523628288503,1114112,80,-56,-1,-1,0
1523628288503,1179648,80,-56,-1,-1,0
1523628288503,1245184,80,-56,-1,-1,0
1523628288542,1310720,80,-56,-1,-1,0
1523628288542,1441792,80,-56,-1,-1,0
1523628288542,1572864,80,-56,-1,-1,0
1523628288542,1703936,80,-56,-1,-1,0
1523628288542,1835008,80,-56,-1,-1,0
1523628288582,2031616,80,-56,-1,-1,0
1523628288582,2228224,80,-56,-1,-1,0
1523628288582,2228224,80,-56,-1,-1,0
1523628288582,2228224,80,-56,-1,-1,0
1523628288582,2293760,80,-56,-1,-1,0
1523628288622,2359296,80,-56,-1,-1,0
1523628288622,2228224,80,-56,-1,-1,0
1523628288622,1900544,80,-56,-1,-1,0
1523628288622,1376256,80,-56,-1,-1,0
1523628288622,851968,80,-56,-1,-1,0
1523628288662,262144,80,-56,-1,-1,0
1523628288662,-196608,80,-56,-1,-1,0
1523628288662,-524288,80,-56,-1,-1,0
1523628288662,-655360,80,-56,-1,-1,0
1523628288662,-786432,80,-56,-1,-1,0
1523628288702,-851968,80,-56,-1,-1,0
1523628288702,-720896,80,-56,-1,-1,0
1523628288702,-393216,80,-56,-1,-1,0
1523628288702,-131072,80,-56,-1,-1,0
1523628288702,0,80,-56,-1,-1,0
1523628288743,0,80,-56,-1,-1,0
1523628288743,0,80,-56,-1,-1,0
1523628288743,-196608,80,-56,-1,-1,0
1523628288743,-327680,80,-56,-1,-1,0
1523628288743,-327680,80,-56,-1,-1,0
1523628288786,-524288,80,-56,-1,-1,0
1523628288786,-720896,80,-56,-1,-1,0
1523628288786,-720896,80,-56,-1,-1,0
1523628288786,-720896,80,-56,-1,-1,0
1523628288786,-786432,80,-56,-1,-1,0
1523628288822,-851968,80,-56,-1,-1,0
1523628288822,-1048576,80,-56,-1,-1,0
1523628288822,-1376256,80,-56,-1,-1,0
1523628288822,-1638400,80,-56,-1,-1,0
1523628288822,-1703936,80,-56,-1,-1,0
1523628288862,-1572864,80,-56,-1,-1,0
1523628288862,-1441792,80,-56,-1,-1,0
1523628288862,-1507328,80,-56,-1,-1,0
1523628288862,-1507328,80,-56,-1,-1,0
1523628288862,-1245184,80,-56,-1,-1,0
1523628288902,-1114112,80,-56,-1,-1,0
1523628288902,-1179648,80,-56,-1,-1,0
1523628288902,-1245184,80,-56,-1,-1,0
1523628288902,-1245184,80,-56,-1,-1,0
1523628288902,-1179648,80,-56,-1,-1,0
1523628288942,-1114112,80,-56,-1,-1,0
1523628288942,-1114112,80,-56,-1,-1,0
1523628288942,-983040,80,-56,-1,-1,0
1523628288942,-786432,80,-56,-1,-1,0
1523628288942,-458752,80,-56,-1,-1,0
1523628288982,-393216,80,-56,-1,-1,0
1523628288982,-458752,80,-56,-1,-1,0
1523628288982,-851968,80,-56,-1,-1,0
1523628288982,-983040,80,-56,-1,-1,0
1523628288982,-786432,80,-56,-1,-1,0
1523628289022,-393216,80,-56,-1,-1,0
1523628289022,0,80,-56,-1,-1,0
1523628289022,131072,80,-56,-1,-1,0
1523628289022,0,80,-56,-1,-1,0
1523628289022,-131072,80,-56,-1,-1,0
1523628289062,-458752,81,-56,-1,-1,0
1523628289062,-131072,81,-56,-1,-1,0
1523628289062,2818048,81,-56,-1,-1,0
1523628289062,7995392,81,-56,-1,-1,0
1523628289062,12648448,81,-56,-1,-1,0
1523628289102,11993088,81,-56,-1,-1,0
1523628289102,6750208,81,-56,-1,-1,0
1523628289102,2162688,81,-56,-1,-1,0
1523628289102,917504,81,-56,-1,-1,0
1523628289102,393216,81,-56,-1,-1,0
1523628289142,-65536,81,-56,-1,-1,0
1523628289142,-393216,81,-56,-1,-1,0
1523628289142,-262144,81,-56,-1,-1,0
1523628289142,65536,81,-56,-1,-1,0
1523628289142,131072,81,-56,-1,-1,0
1523628289182,-65536,81,-56,-1,-1,0
1523628289182,-131072,81,-56,-1,-1,0
1523628289182,131072,81,-56,-1,-1,0
1523628289182,262144,81,-56,-1,-1,0
1523628289182,65536,81,-56,-1,-1,0
1523628289222,-262144,81,-56,-1,-1,0
1523628289222,-524288,81,-56,-1,-1,0
1523628289222,-458752,81,-56,-1,-1,0
1523628289222,-393216,81,-56,-1,-1,0
1523628289222,-589824,81,-56,-1,-1,0
1523628289262,-524288,81,-56,-1,-1,0
1523628289262,-262144,81,-56,-1,-1,0
1523628289262,-131072,81,-56,-1,-1,0
1523628289262,-393216,81,-56,-1,-1,0
1523628289262,-458752,81,-56,-1,-1,0
1523628289302,131072,81,-56,-1,-1,0
1523628289302,524288,81,-56,-1,-1,0
1523628289302,327680,81,-56,-1,-1,0
1523628289302,327680,81,-56,-1,-1,0
1523628289302,524288,81,-56,-1,-1,0
1523628289342,589824,81,-56,-1,-1,0
1523628289342,720896,81,-56,-1,-1,0
1523628289342,786432,81,-56,-1,-1,0
1523628289342,458752,81,-56,-1,-1,0
1523628289342,65536,81,-56,-1,-1,0
1523628289382,65536,81,-56,-1,-1,0
1523628289382,0,81,-56,-1,-1,0
1523628289382,-655360,81,-56,-1,-1,0
1523628289382,-1507328,81,-56,-1,-1,0
1523628289382,-1703936,81,-56,-1,-1,0
1523628289423,-1507328,81,-56,-1,-1,0
1523628289423,-1310720,81,-56,-1,-1,0
1523628289423,-1507328,81,-56,-1,-1,0
1523628289423,-1703936,81,-56,-1,-1,0
1523628289423,-1638400,81,-56,-1,-1,0
1523628289462,-1441792,81,-56,-1,-1,0
1523628289462,-1703936,81,-56,-1,-1,0
1523628289462,-1835008,81,-56,-1,-1,0
1523628289462,-1507328,81,-56,-1,-1,0
1523628289462,-1310720,81,-56,-1,-1,0
1523628289502,-1507328,81,-56,-1,-1,0
1523628289502,-1638400,81,-56,-1,-1,0
1523628289502,-1441792,81,-56,-1,-1,0
1523628289502,-1310720,81,-56,-1,-1,0
1523628289502,-1441792,81,-56,-1,-1,0
1523628289542,-1638400,81,-56,-1,-1,0
1523628289542,-1703936,81,-56,-1,-1,0
1523628289542,-1703936,81,-56,-1,-1,0
1523628289542,-1835008,81,-56,-1,-1,0
1523628289542,-1769472,81,-56,-1,-1,0
1523628289582,-1769472,81,-56,-1,-1,0
1523628289582,-1835008,81,-56,-1,-1,0
1523628289582,-1900544,81,-56,-1,-1,0
1523628289582,-2031616,81,-56,-1,-1,0
1523628289582,-2293760,81,-56,-1,-1,0
1523628289622,-2424832,81,-56,-1,-1,0
1523628289622,-2359296,81,-56,-1,-1,0
1523628289622,-2621440,81,-56,-1,-1,0
1523628289622,-3342336,81,-56,-1,-1,0
1523628289622,-3932160,81,-56,-1,-1,0
1523628289662,-3932160,81,-56,-1,-1,0
1523628289662,-4063232,81,-56,-1,-1,0
1523628289662,-4456448,81,-56,-1,-1,0
1523628289662,-4456448,81,-56,-1,-1,0
1523628289662,-4063232,81,-56,-1,-1,0
1523628289702,-3473408,81,-56,-1,-1,0
1523628289702,-2883584,81,-56,-1,-1,0
1523628289702,-2621440,81,-56,-1,-1,0
1523628289702,-2555904,81,-56,-1,-1,0
1523628289702,-2097152,81,-56,-1,-1,0
1523628289742,-1441792,81,-56,-1,-1,0
1523628289742,-917504,81,-56,-1,-1,0
1523628289742,-458752,81,-56,-1,-1,0
1523628289742,-65536,81,-56,-1,-1,0
1523628289742,-327680,81,-56,-1,-1,0
1523628289782,-327680,81,-56,-1,-1,0
1523628289782,1703936,81,-56,-1,-1,0
1523628289782,6488064,81,-56,-1,-1,0
1523628289782,12124160,81,-56,-1,-1,0
1523628289782,14876672,81,-56,-1,-1,0
1523628289822,11534336,81,-56,-1,-1,0
1523628289822,5242880,81,-56,-1,-1,0
1523628289822,1310720,81,-56,-1,-1,0
1523628289822,393216,81,-56,-1,-1,0
1523628289822,393216,81,-56,-1,-1,0
1523628289862,0,81,-56,-1,-1,0
1523628289862,-589824,81,-56,-1,-1,0
1523628289862,-786432,81,-56,-1,-1,0
1523628289862,-524288,81,-56,-1,-1,0
1523628289862,-196608,81,-56,-1,-1,0
1523628289902,-458752,81,-56,-1,-1,0
1523628289902,-1048576,81,-56,-1,-1,0
1523628289902,-1310720,81,-56,-1,-1,0
1523628289902,-1245184,81,-56,-1,-1,0
1523628289902,-917504,81,-56,-1,-1,0
1523628289943,-1048576,81,-56,-1,-1,0
1523628289943,-983040,81,-56,-1,-1,0
1523628289943,-655360,81,-56,-1,-1,0
1523628289943,-786432,81,-56,-1,-1,0
1523628289943,-851968,81,-56,-1,-1,0
1523628289982,-589824,81,-56,-1,-1,0
1523628289982,-262144,81,-56,-1,-1,0
1523628289982,-65536,81,-56,-1,-1,0
1523628289982,-262144,81,-56,-1,-1,0
1523628289982,-720896,81,-56,-1,-1,0
1523628290022,-917504,81,-56,-1,-1,0
1523628290022,-131072,81,-56,-1,-1,0
1523628290022,786432,81,-56,-1,-1,0
1523628290022,655360,81,-56,-1,-1,0
1523628290022,65536,81,-56,-1,-1,0
1523628290063,131072,81,-56,-1,-1,0
1523628290063,786432,81,-56,-1,-1,0
1523628290063,1245184,81,-56,-1,-1,0
1523628290063,1114112,81,-56,-1,-1,0
1523628290063,524288,81,-56,-1,-1,0
1523628290103,458752,81,-56,-1,-1,0
1523628290103,589824,81,-56,-1,-1,0
1523628290103,589824,81,-56,-1,-1,0
1523628290103,0,81,-56,-1,-1,0
1523628290103,-524288,81,-56,-1,-1,0
1523628290142,-851968,81,-56,-1,-1,0
1523628290142,-851968,81,-56,-1,-1,0
1523628290142,-720896,81,-56,-1,-1,0
1523628290142,-196608,81,-56,-1,-1,0
1523628290142,-65536,81,-56,-1,-1,0
1523628290182,-524288,81,-56,-1,-1,0
1523628290182,-983040,81,-56,-1,-1,0
1523628290182,-917504,81,-56,-1,-1,0
1523628290182,-720896,81,-56,-1,-1,0
1523628290182,-65536,81,-56,-1,-1,0
1523628290222,458752,81,-56,-1,-1,0
1523628290222,589824,81,-56,-1,-1,0
1523628290222,131072,81,-56,-1,-1,0
1523628290222,-131072,81,-56,-1,-1,0
1523628290222,-327680,81,-56,-1,-1,0
1523628290262,-524288,81,-56,-1,-1,0
1523628290262,-655360,81,-56,-1,-1,0
1523628290262,-131072,81,-56,-1,-1,0
1523628290262,-131072,81,-56,-1,-1,0
1523628290262,-589824,81,-56,-1,-1,0
1523628290302,-655360,81,-56,-1,-1,0
1523628290302,-196608,81,-56,-1,-1,0
1523628290302,-131072,81,-56,-1,-1,0
1523628290302,-262144,81,-56,-1,-1,0
1523628290302,-589824,81,-56,-1,-1,0
1523628290343,-786432,81,-56,-1,-1,0
1523628290343,-720896,81,-56,-1,-1,0
1523628290343,-524288,81,-56,-1,-1,0
1523628290343,-786432,81,-56,-1,-1,0
1523628290343,-786432,81,-56,-1,-1,0
1523628290382,-589824,81,-56,-1,-1,0
1523628290382,-196608,81,-56,-1,-1,0
1523628290382,-262144,81,-56,-1,-1,0
1523628290382,-458752,81,-56,-1,-1,0
1523628290382,-720896,81,-56,-1,-1,0
1523628290422,-1048576,81,-56,-1,-1,0
1523628290422,-1179648,81,-56,-1,-1,0
1523628290422,-1245184,81,-56,-1,-1,0
1523628290422,-1310720,81,-56,-1,-1,0
1523628290422,-1310720,81,-56,-1,-1,0
1523628290462,-1376256,81,-56,-1,-1,0
1523628290462,-1376256,81,-56,-1,-1,0
1523628290462,-1376256,81,-56,-1,-1,0
1523628290462,-1572864,81,-56,-1,-1,0
1523628290462,-1900544,81,-56,-1,-1,0
1523628290502,-786432,81,-56,-1,-1,0
1523628290502,2883584,81,-56,-1,-1,0
1523628290502,9043968,81,-56,-1,-1,0
1523628290502,14417920,81,-56,-1,-1,0
1523628290502,13828096,81,-56,-1,-1,0
1523628290542,7143424,81,-56,-1,-1,0
1523628290542,1310720,81,-56,-1,-1,0
1523628290542,-196608,81,-56,-1,-1,0
1523628290542,-458752,81,-56,-1,-1,0
1523628290542,-589824,81,-56,-1,-1,0
1523628290582,-786432,81,-56,-1,-1,0
1523628290582,-1048576,81,-56,-1,-1,0
1523628290582,-1048576,81,-56,-1,-1,0
1523628290582,-851968,81,-56,-1,-1,0
1523628290582,-655360,81,-56,-1,-1,0
1523628290622,-393216,81,-56,-1,-1,0
1523628290622,-196608,81,-56,-1,-1,0
1523628290622,0,81,-56,-1,-1,0
1523628290622,262144,81,-56,-1,-1,0
1523628290622,589824,81,-56,-1,-1,0
1523628290662,983040,81,-56,-1,-1,0
1523628290662,1310720,81,-56,-1,-1,0
1523628290662,1507328,81,-56,-1,-1,0
1523628290662,1703936,81,-56,-1,-1,0
1523628290662,1900544,81,-56,-1,-1,0
1523628290703,1900544,81,-56,-1,-1,0
1523628290703,1703936,81,-56,-1,-1,0
1523628290703,1572864,81,-56,-1,-1,0
1523628290703,1441792,81,-56,-1,-1,0
1523628290703,1376256,81,-56,-1,-1,0
1523628290742,1441792,81,-56,-1,-1,0
1523628290742,1507328,81,-56,-1,-1,0
1523628290742,1572864,81,-56,-1,-1,0
1523628290742,1638400,81,-56,-1,-1,0
1523628290742,1441792,81,-56,-1,-1,0
1523628290782,1245184,81,-56,-1,-1,0
1523628290782,1048576,81,-56,-1,-1,0
1523628290782,851968,81,-56,-1,-1,0
1523628290782,524288,81,-56,-1,-1,0
1523628290782,0,81,-56,-1,-1,0
1523628290822,-524288,81,-56,-1,-1,0
1523628290822,-983040,81,-56,-1,-1,0
1523628290822,-1441792,81,-56,-1,-1,0
1523628290822,-1572864,81,-56,-1,-1,0
1523628290822,-1376256,81,-56,-1,-1,0
1523628290862,-1310720,81,-56,-1,-1,0
1523628290862,-1310720,81,-56,-1,-1,0
1523628290862,-1114112,81,-56,-1,-1,0
1523628290862,-851968,81,-56,-1,-1,0
1523628290862,-917504,81,-56,-1,-1,0
1523628290902,-1245184,81,-56,-1,-1,0
1523628290902,-1376256,81,-56,-1,-1,0
1523628290902,-1245184,81,-56,-1,-1,0
1523628290902,-1179648,81,-56,-1,-1,0
1523628290902,-1376256,81,-56,-1,-1,0
1523628290942,-1441792,81,-56,-1,-1,0
1523628290942,-1441792,81,-56,-1,-1,0
1523628290942,-1507328,81,-56,-1,-1,0
1523628290942,-1835008,81,-56,-1,-1,0
1523628290942,-1966080,81,-56,-1,-1,0
1523628290982,-1900544,81,-56,-1,-1,0
1523628290982,-2097152,81,-56,-1,-1,0
1523628290982,-2359296,81,-56,-1,-1,0
1523628290982,-2490368,81,-56,-1,-1,0
1523628290982,-2555904,81,-56,-1,-1,0
1523628291022,-2752512,81,-56,-1,-1,0
1523628291022,-3080192,81,-56,-1,-1,0
1523628291022,-3014656,81,-56,-1,-1,0
1523628291022,-2686976,81,-56,-1,-1,0
1523628291022,-2490368,81,-56,-1,-1,0
1523628291062,-2359296,81,-56,-1,-1,0
1523628291062,-1900544,81,-56,-1,-1,0
1523628291062,-1441792,81,-56,-1,-1,0
1523628291062,-1114112,81,-56,-1,-1,0
1523628291062,-1114112,81,-56,-1,-1,0
1523628291102,-1114112,81,-56,-1,-1,0
1523628291102,-1048576,81,-56,-1,-1,0
1523628291102,-983040,81,-56,-1,-1,0
1523628291102,-1048576,81,-56,-1,-1,0
1523628291102,-1048576,81,-56,-1,-1,0
1523628291142,-1245184,81,-56,-1,-1,0
1523628291142,-1572864,81,-56,-1,-1,0
1523628291142,-1703936,81,-56,-1,-1,0
1523628291142,-1572864,81,-56,-1,-1,0
1523628291142,-1310720,81,-56,-1,-1,0
1523628291182,-1310720,81,-56,-1,-1,0
1523628291182,-983040,81,-56,-1,-1,0
1523628291182,-524288,81,-56,-1,-1,0
1523628291182,-589824,81,-56,-1,-1,0
1523628291182,-1114112,81,-56,-1,-1,0
1523628291222,-1048576,81,-56,-1,-1,0
1523628291222,917504,81,-56,-1,-1,0
1523628291222,5701632,81,-56,-1,-1,0
1523628291222,12386304,81,-56,-1,-1,0
1523628291222,16318464,81,-56,-1,-1,0
1523628291262,12910592,81,-56,-1,-1,0
1523628291262,6160384,81,-56,-1,-1,0
1523628291262,2424832,81,-56,-1,-1,0
1523628291262,1769472,81,-56,-1,-1,0
1523628291262,720896,81,-56,-1,-1,0
1523628291302,-65536,81,-56,-1,-1,0
1523628291302,-917504,81,-56,-1,-1,0
1523628291302,-1507328,81,-56,-1,-1,0
1523628291302,-1048576,81,-56,-1,-1,0
1523628291302,-131072,81,-56,-1,-1,0
1523628291343,65536,81,-56,-1,-1,0
1523628291343,0,81,-56,-1,-1,0
1523628291343,524288,81,-56,-1,-1,0
1523628291343,786432,81,-56,-1,-1,0
1523628291343,786432,81,-56,-1,-1,0
1523628291382,589824,81,-56,-1,-1,0
1523628291382,458752,81,-56,-1,-1,0
1523628291382,65536,81,-56,-1,-1,0
1523628291382,-196608,81,-56,-1,-1,0
1523628291382,-655360,81,-56,-1,-1,0
1523628291422,0,81,-56,-1,-1,0
1523628291422,1245184,81,-56,-1,-1,0
1523628291422,1966080,81,-56,-1,-1,0
1523628291422,2162688,81,-56,-1,-1,0
1523628291422,1835008,81,-56,-1,-1,0
1523628291462,1507328,81,-56,-1,-1,0
1523628291462,1310720,81,-56,-1,-1,0
1523628291462,1179648,81,-56,-1,-1,0
1523628291462,786432,81,-56,-1,-1,0
1523628291462,851968,81,-56,-1,-1,0
1523628291502,1245184,81,-56,-1,-1,0
1523628291502,1114112,81,-56,-1,-1,0
1523628291502,851968,81,-56,-1,-1,0
1523628291502,851968,81,-56,-1,-1,0
1523628291502,983040,81,-56,-1,-1,0
1523628291542,524288,81,-56,-1,-1,0
1523628291542,0,81,-56,-1,-1,0
1523628291542,-458752,81,-56,-1,-1,0
1523628291542,-524288,81,-56,-1,-1,0
1523628291542,-983040,81,-56,-1,-1,0
1523628291582,-1638400,81,-56,-1,-1,0
1523628291582,-1703936,81,-56,-1,-1,0
1523628291582,-1179648,81,-56,-1,-1,0
1523628291582,-1048576,81,-56,-1,-1,0
1523628291582,-1703936,81,-56,-1,-1,0
1523628291622,-2228224,81,-56,-1,-1,0
1523628291622,-2031616,81,-56,-1,-1,0
1523628291622,-1703936,81,-56,-1,-1,0
1523628291622,-1703936,81,-56,-1,-1,0
1523628291622,-1966080,81,-56,-1,-1,0
1523628291662,-2162688,81,-56,-1,-1,0
1523628291662,-2359296,81,-56,-1,-1,0
1523628291662,-2424832,81,-56,-1,-1,0
1523628291662,-2555904,81,-56,-1,-1,0
1523628291662,-2752512,81,-56,-1,-1,0
1523628291702,-2883584,81,-56,-1,-1,0
1523628291702,-2818048,81,-56,-1,-1,0
1523628291702,-2293760,81,-56,-1,-1,0
1523628291702,-2031616,81,-56,-1,-1,0
1523628291702,-2359296,81,-56,-1,-1,0
1523628291742,-2490368,81,-56,-1,-1,0
1523628291742,-2228224,81,-56,-1,-1,0
1523628291742,-2097152,81,-56,-1,-1,0
1523628291742,-2424832,81,-56,-1,-1,0
1523628291742,-2621440,81,-56,-1,-1,0
1523628291782,-2490368,81,-56,-1,-1,0
1523628291782,-2293760,81,-56,-1,-1,0
1523628291782,-2228224,81,-56,-1,-1,0
1523628291782,-2031616,81,-56,-1,-1,0
1523628291782,-1769472,81,-56,-1,-1,0
1523628291822,-1835008,81,-56,-1,-1,0
1523628291822,-2293760,81,-56,-1,-1,0
1523628291822,-2359296,81,-56,-1,-1,0
1523628291822,-1835008,81,-56,-1,-1,0
1523628291822,-1507328,81,-56,-1,-1,0
1523628291862,-1900544,81,-56,-1,-1,0
1523628291862,-2359296,81,-56,-1,-1,0
1523628291862,-2752512,81,-56,-1,-1,0
1523628291862,-2883584,81,-56,-1,-1,0
1523628291862,-2686976,81,-56,-1,-1,0
1523628291902,-2883584,81,-56,-1,-1,0
1523628291902,-3604480,81,-56,-1,-1,0
1523628291902,-3670016,81,-56,-1,-1,0
1523628291902,-3014656,81,-56,-1,-1,0
1523628291902,-1507328,81,-56,-1,-1,0
1523628291942,1835008,82,-56,-1,-1,0
1523628291942,7340032,82,-56,-1,-1,0
1523628291942,13107200,82,-56,-1,-1,0
1523628291942,14417920,82,-56,-1,-1,0
1523628291942,9633792,82,-56,-1,-1,0
1523628291983,3866624,82,-56,-1,-1,0
1523628291983,1310720,82,-56,-1,-1,0
1523628291983,655360,82,-56,-1,-1,0
1523628291983,0,82,-56,-1,-1,0
1523628291983,-262144,82,-56,-1,-1,0
1523628292022,-262144,82,-56,-1,-1,0
1523628292022,-262144,82,-56,-1,-1,0
1523628292022,-196608,82,-56,-1,-1,0
1523628292022,-65536,82,-56,-1,-1,0
1523628292022,-131072,82,-56,-1,-1,0
1523628292062,-65536,82,-56,-1,-1,0
1523628292062,-131072,82,-56,-1,-1,0
1523628292062,0,82,-56,-1,-1,0
1523628292062,196608,82,-56,-1,-1,0
1523628292062,327680,82,-56,-1,-1,0
1523628292102,262144,82,-56,-1,-1,0
1523628292102,0,82,-56,-1,-1,0
1523628292102,131072,82,-56,-1,-1,0
1523628292102,262144,82,-56,-1,-1,0
1523628292102,327680,82,-56,-1,-1,0
1523628292142,327680,82,-56,-1,-1,0
1523628292142,458752,82,-56,-1,-1,0
1523628292142,720896,82,-56,-1,-1,0
1523628292142,589824,82,-56,-1,-1,0
1523628292142,917504,82,-56,-1,-1,0
1523628292182,1572864,82,-56,-1,-1,0
1523628292182,1966080,82,-56,-1,-1,0
1523628292182,1638400,82,-56,-1,-1,0
1523628292182,1441792,82,-56,-1,-1,0
1523628292182,1245184,82,-56,-1,-1,0
1523628292222,1245184,82,-56,-1,-1,0
1523628292222,1376256,82,-56,-1,-1,0
1523628292222,983040,82,-56,-1,-1,0
1523628292222,393216,82,-56,-1,-1,0
1523628292222,65536,82,-56,-1,-1,0
1523628292262,-196608,82,-56,-1,-1,0
1523628292262,-262144,82,-56,-1,-1,0
1523628292262,-720896,82,-56,-1,-1,0
1523628292262,-917504,82,-56,-1,-1,0
1523628292262,-786432,82,-56,-1,-1,0
1523628292302,-524288,82,-56,-1,-1,0
1523628292302,-983040,82,-56,-1,-1,0
1523628292302,-1376256,82,-56,-1,-1,0
1523628292302,-1376256,82,-56,-1,-1,0
1523628292302,-1179648,82,-56,-1,-1,0
1523628292342,-1114112,82,-56,-1,-1,0
1523628292342,-1179648,82,-56,-1,-1,0
1523628292342,-983040,82,-56,-1,-1,0
1523628292342,-786432,82,-56,-1,-1,0
1523628292342,-851968,82,-56,-1,-1,0
1523628292382,-983040,82,-56,-1,-1,0
1523628292382,-1048576,82,-56,-1,-1,0
1523628292382,-917504,82,-56,-1,-1,0
1523628292382,-196608,82,-56,-1,-1,0
1523628292382,131072,82,-56,-1,-1,0
1523628292422,0,82,-56,-1,-1,0
1523628292422,-327680,82,-56,-1,-1,0
1523628292422,-196608,82,-56,-1,-1,0
1523628292422,-131072,82,-56,-1,-1,0
1523628292422,-131072,82,-56,-1,-1,0
1523628292462,-65536,82,-56,-1,-1,0
1523628292462,-262144,82,-56,-1,-1,0
1523628292462,-131072,82,-56,-1,-1,0
1523628292462,-65536,82,-56,-1,-1,0
1523628292462,-393216,82,-56,-1,-1,0
1523628292502,-983040,82,-56,-1,-1,0
1523628292502,-1048576,82,-56,-1,-1,0
1523628292502,-589824,82,-56,-1,-1,0
1523628292502,-524288,82,-56,-1,-1,0
1523628292502,-327680,82,-56,-1,-1,0
1523628292542,-327680,82,-56,-1,-1,0
1523628292542,-327680,82,-56,-1,-1,0
1523628292542,-262144,82,-56,-1,-1,0
1523628292542,-327680,82,-56,-1,-1,0
1523628292542,-524288,82,-56,-1,-1,0
1523628292582,-1048576,82,-56,-1,-1,0
1523628292582,-1572864,82,-56,-1,-1,0
1523628292582,-1441792,82,-56,-1,-1,0
1523628292582,-1114112,82,-56,-1,-1,0
1523628292582,-917504,82,-56,-1,-1,0
1523628292624,-851968,82,-56,-1,-1,0
1523628292624,-1048576,82,-56,-1,-1,0
1523628292624,-786432,82,-56,-1,-1,0
1523628292624,1835008,82,-56,-1,-1,0
1523628292624,7929856,82,-56,-1,-1,0
1523628292662,14286848,82,-56,-1,-1,0
1523628292662,14680064,82,-56,-1,-1,0
1523628292662,8192000,82,-56,-1,-1,0
1523628292662,2228224,82,-56,-1,-1,0
1523628292662,196608,82,-56,-1,-1,0
1523628292702,0,82,-56,-1,-1,0
1523628292702,-327680,82,-56,-1,-1,0
1523628292702,-851968,82,-56,-1,-1,0
1523628292702,-1376256,82,-56,-1,-1,0
1523628292702,-1245184,82,-56,-1,-1,0
1523628292742,-917504,82,-56,-1,-1,0
1523628292742,-1048576,82,-56,-1,-1,0
1523628292742,-1048576,82,-56,-1,-1,0
1523628292742,-983040,82,-56,-1,-1,0
1523628292742,-917504,82,-56,-1,-1,0
1523628292782,-1048576,82,-56,-1,-1,0
1523628292782,-917504,82,-56,-1,-1,0
1523628292782,-851968,82,-56,-1,-1,0
1523628292782,-851968,82,-56,-1,-1,0
1523628292782,-655360,82,-56,-1,-1,0
1523628292822,-327680,82,-56,-1,-1,0
1523628292822,-65536,82,-56,-1,-1,0
1523628292822,65536,82,-56,-1,-1,0
1523628292822,262144,82,-56,-1,-1,0
1523628292822,458752,82,-56,-1,-1,0
1523628292862,655360,82,-56,-1,-1,0
1523628292862,720896,82,-56,-1,-1,0
1523628292862,1048576,82,-56,-1,-1,0
1523628292862,1310720,82,-56,-1,-1,0
1523628292862,1441792,82,-56,-1,-1,0
1523628292902,1507328,82,-56,-1,-1,0
1523628292902,1572864,82,-56,-1,-1,0
1523628292902,1638400,82,-56,-1,-1,0
1523628292902,1572864,82,-56,-1,-1,0
1523628292902,1507328,82,-56,-1,-1,0
1523628292942,1376256,82,-56,-1,-1,0
1523628292942,1048576,82,-56,-1,-1,0
1523628292942,655360,82,-56,-1,-1,0
1523628292942,524288,82,-56,-1,-1,0
1523628292942,393216,82,-56,-1,-1,0
1523628292982,262144,82,-56,-1,-1,0
1523628292982,393216,82,-56,-1,-1,0
1523628292982,655360,82,-56,-1,-1,0
1523628292982,655360,82,-56,-1,-1,0
1523628292982,589824,82,-56,-1,-1,0
1523628293022,655360,82,-56,-1,-1,0
1523628293022,655360,82,-56,-1,-1,0
1523628293022,524288,82,-56,-1,-1,0
1523628293022,393216,82,-56,-1,-1,0
1523628293022,196608,82,-56,-1,-1,0
1523628293062,0,82,-56,-1,-1,0
1523628293062,0,82,-56,-1,-1,0
1523628293062,0,82,-56,-1,-1,0
1523628293062,-65536,82,-56,-1,-1,0
1523628293062,-131072,82,-56,-1,-1,0
1523628293102,-196608,82,-56,-1,-1,0
1523628293102,-262144,82,-56,-1,-1,0
1523628293102,-393216,82,-56,-1,-1,0
1523628293102,-458752,82,-56,-1,-1,0
1523628293102,-720896,82,-56,-1,-1,0
1523628293142,-1114112,82,-56,-1,-1,0
1523628293142,-1376256,82,-56,-1,-1,0
1523628293142,-1245184,82,-56,-1,-1,0
1523628293142,-851968,82,-56,-1,-1,0
1523628293142,-589824,82,-56,-1,-1,0
1523628293182,-393216,82,-56,-1,-1,0
1523628293182,-458752,82,-56,-1,-1,0
1523628293182,-655360,82,-56,-1,-1,0
1523628293182,-851968,82,-56,-1,-1,0
1523628293182,-917504,82,-56,-1,-1,0
1523628293222,-917504,82,-56,-1,-1,0
1523628293222,-917504,82,-56,-1,-1,0
1523628293222,-1114112,82,-56,-1,-1,0
1523628293222,-1114112,82,-56,-1,-1,0
1523628293222,-983040,82,-56,-1,-1,0
1523628293263,-1048576,82,-56,-1,-1,0
1523628293263,-1048576,82,-56,-1,-1,0
1523628293263,-917504,82,-56,-1,-1,0
1523628293263,-786432,82,-56,-1,-1,0
1523628293263,-851968,82,-56,-1,-1,0
1523628293302,-1048576,82,-56,-1,-1,0
1523628293302,-1114112,82,-56,-1,-1,0
1523628293302,-1114112,82,-56,-1,-1,0
1523628293302,-1572864,82,-56,-1,-1,0
1523628293302,-2097152,82,-56,-1,-1,0
1523628293342,-655360,82,-56,-1,-1,0
1523628293342,3932160,82,-56,-1,-1,0
1523628293342,10878976,82,-56,-1,-1,0
1523628293342,16187392,82,-56,-1,-1,0
1523628293342,14417920,82,-56,-1,-1,0
1523628293382,6750208,82,-56,-1,-1,0
1523628293382,851968,82,-56,-1,-1,0
1523628293382,-393216,82,-56,-1,-1,0
1523628293382,-917504,82,-56,-1,-1,0
1523628293382,-1572864,82,-56,-1,-1,0
1523628293422,-1769472,82,-56,-1,-1,0
1523628293422,-1835008,82,-56,-1,-1,0
1523628293422,-1835008,82,-56,-1,-1,0
1523628293422,-1638400,82,-56,-1,-1,0
1523628293422,-1245184,82,-56,-1,-1,0
1523628293462,-786432,82,-56,-1,-1,0
1523628293462,-458752,82,-56,-1,-1,0
1523628293462,-393216,82,-56,-1,-1,0
1523628293462,-327680,82,-56,-1,-1,0
1523628293462,0,82,-56,-1,-1,0
1523628293502,262144,82,-56,-1,-1,0
1523628293502,196608,82,-56,-1,-1,0
1523628293502,327680,82,-56,-1,-1,0
1523628293502,720896,82,-56,-1,-1,0
1523628293502,1114112,82,-56,-1,-1,0
1523628293542,1245184,82,-56,-1,-1,0
1523628293542,851968,82,-56,-1,-1,0
1523628293542,917504,82,-56,-1,-1,0
1523628293542,1245184,82,-56,-1,-1,0
1523628293542,1245184,82,-56,-1,-1,0
1523628293582,851968,82,-56,-1,-1,0
1523628293582,1114112,82,-56,-1,-1,0
1523628293582,1966080,82,-56,-1,-1,0
1523628293582,2162688,82,-56,-1,-1,0
1523628293582,1441792,82,-56,-1,-1,0
1523628293622,458752,82,-56,-1,-1,0
1523628293622,1245184,82,-56,-1,-1,0
1523628293622,2162688,82,-56,-1,-1,0
1523628293622,2097152,82,-56,-1,-1,0
1523628293622,1376256,82,-56,-1,-1,0
1523628293662,917504,82,-56,-1,-1,0
1523628293662,917504,82,-56,-1,-1,0
1523628293662,786432,82,-56,-1,-1,0
1523628293662,524288,82,-56,-1,-1,0
1523628293662,0,82,-56,-1,-1,0
1523628293703,0,82,-56,-1,-1,0
1523628293703,-327680,82,-56,-1,-1,0
1523628293703,-983040,82,-56,-1,-1,0
1523628293703,-1572864,82,-56,-1,-1,0
1523628293703,-524288,82,-56,-1,-1,0
1523628293742,983040,82,-56,-1,-1,0
1523628293742,917504,82,-56,-1,-1,0
1523628293742,0,82,-56,-1,-1,0
1523628293742,-720896,82,-56,-1,-1,0
1523628293742,-1245184,82,-56,-1,-1,0
1523628293782,-1769472,82,-56,-1,-1,0
1523628293782,-1376256,82,-56,-1,-1,0
1523628293782,-720896,82,-56,-1,-1,0
1523628293782,-524288,82,-56,-1,-1,0
1523628293782,-1048576,82,-56,-1,-1,0
1523628293822,-1310720,82,-56,-1,-1,0
1523628293822,-1310720,82,-56,-1,-1,0
1523628293822,-1245184,82,-56,-1,-1,0
1523628293822,-983040,82,-56,-1,-1,0
1523628293822,-851968,82,-56,-1,-1,0
1523628293862,-983040,82,-56,-1,-1,0
1523628293862,-1310720,82,-56,-1,-1,0
1523628293862,-1507328,82,-56,-1,-1,0
1523628293862,-1048576,82,-56,-1,-1,0
1523628293862,-1114112,82,-56,-1,-1,0
1523628293903,-1638400,82,-56,-1,-1,0
1523628293903,-1966080,82,-56,-1,-1,0
1523628293903,-1966080,82,-56,-1,-1,0
1523628293903,-1835008,82,-56,-1,-1,0
1523628293903,-1572864,82,-56,-1,-1,0
1523628293942,-1114112,82,-56,-1,-1,0
1523628293942,-1703936,82,-56,-1,-1,0
1523628293942,-2293760,82,-56,-1,-1,0
1523628293942,-2424832,82,-56,-1,-1,0
1523628293942,-2883584,82,-56,-1,-1,0
1523628293982,-3145728,82,-56,-1,-1,0
1523628293982,-2752512,82,-56,-1,-1,0
1523628293982,-2031616,82,-56,-1,-1,0
1523628293982,-1966080,82,-56,-1,-1,0
1523628293982,-2228224,82,-56,-1,-1,0
1523628294022,-2359296,83,-56,-1,-1,0
1523628294022,-2359296,83,-56,-1,-1,0
1523628294022,-1114112,83,-56,-1,-1,0
1523628294022,1966080,83,-56,-1,-1,0
1523628294022,6881280,83,-56,-1,-1,0
1523628294062,10616832,83,-56,-1,-1,0
1523628294062,9043968,83,-56,-1,-1,0
1523628294062,3276800,83,-56,-1,-1,0
1523628294062,-327680,83,-56,-1,-1,0
1523628294062,-786432,83,-56,-1,-1,0
1523628294102,-1048576,83,-56,-1,-1,0
1523628294102,-2162688,83,-56,-1,-1,0
1523628294102,-2490368,83,-56,-1,-1,0
1523628294102,-2031616,83,-56,-1,-1,0
1523628294102,-1835008,83,-56,-1,-1,0
1523628294142,-2162688,83,-56,-1,-1,0
1523628294142,-2424832,83,-56,-1,-1,0
1523628294142,-2228224,83,-56,-1,-1,0
1523628294142,-2031616,83,-56,-1,-1,0
1523628294142,-1966080,83,-56,-1,-1,0
1523628294182,-2031616,83,-56,-1,-1,0
1523628294182,-2228224,83,-56,-1,-1,0
1523628294182,-1966080,83,-56,-1,-1,0
1523628294182,-1769472,83,-56,-1,-1,0
1523628294182,-1572864,83,-56,-1,-1,0
1523628294222,-1245184,83,-56,-1,-1,0
1523628294222,-327680,83,-56,-1,-1,0
1523628294222,-131072,83,-56,-1,-1,0
1523628294222,131072,83,-56,-1,-1,0
1523628294222,458752,83,-56,-1,-1,0
1523628294262,786432,83,-56,-1,-1,0
1523628294262,1376256,83,-56,-1,-1,0
1523628294262,1638400,83,-56,-1,-1,0
1523628294262,1769472,83,-56,-1,-1,0
1523628294262,1638400,83,-56,-1,-1,0
1523628294302,1638400,83,-56,-1,-1,0
1523628294302,1638400,83,-56,-1,-1,0
1523628294302,1245184,83,-56,-1,-1,0
1523628294302,589824,83,-56,-1,-1,0
1523628294302,-196608,83,-56,-1,-1,0
1523628294342,-393216,83,-56,-1,-1,0
1523628294342,-327680,83,-56,-1,-1,0
1523628294342,-524288,83,-56,-1,-1,0
1523628294342,-851968,83,-56,-1,-1,0
1523628294342,-917504,83,-56,-1,-1,0
1523628294382,-1310720,83,-56,-1,-1,0
1523628294382,-1900544,83,-56,-1,-1,0
1523628294382,-1769472,83,-56,-1,-1,0
1523628294382,-1638400,83,-56,-1,-1,0
1523628294382,-1703936,83,-56,-1,-1,0
1523628294422,-2162688,83,-56,-1,-1,0
1523628294422,-2621440,83,-56,-1,-1,0
1523628294422,-3080192,83,-56,-1,-1,0
1523628294422,-2818048,83,-56,-1,-1,0
1523628294422,-3080192,83,-56,-1,-1,0
1523628294462,-3145728,83,-56,-1,-1,0
1523628294462,-3276800,83,-56,-1,-1,0
1523628294462,-2818048,83,-56,-1,-1,0
1523628294462,-2883584,83,-56,-1,-1,0
1523628294462,-2555904,83,-56,-1,-1,0
1523628294502,-2555904,83,-56,-1,-1,0
1523628294502,-2359296,83,-56,-1,-1,0
1523628294502,-1638400,83,-56,-1,-1,0
1523628294502,-1507328,83,-56,-1,-1,0
1523628294502,-1835008,83,-56,-1,-1,0
1523628294543,-1376256,83,-56,-1,-1,0
1523628294543,-983040,83,-56,-1,-1,0
1523628294543,-983040,83,-56,-1,-1,0
1523628294543,-983040,83,-56,-1,-1,0
1523628294543,-1245184,83,-56,-1,-1,0
1523628294582,-2359296,83,-56,-1,-1,0
1523628294582,-2162688,83,-56,-1,-1,0
1523628294582,-1114112,83,-56,-1,-1,0
1523628294582,-655360,83,-56,-1,-1,0
1523628294582,-1114112,83,-56,-1,-1,0
1523628294622,-1507328,83,-56,-1,-1,0
1523628294622,-2162688,83,-56,-1,-1,0
1523628294622,-2621440,83,-56,-1,-1,0
1523628294622,-1835008,83,-56,-1,-1,0
1523628294622,-1048576,83,-56,-1,-1,0
1523628294662,-983040,83,-56,-1,-1,0
1523628294662,-1114112,83,-56,-1,-1,0
1523628294662,-917504,83,-56,-1,-1,0
1523628294662,-851968,83,-56,-1,-1,0
1523628294662,-786432,83,-56,-1,-1,0
1523628294703,-720896,83,-56,-1,-1,0
1523628294703,-458752,83,-56,-1,-1,0
1523628294703,-589824,83,-56,-1,-1,0
1523628294703,-786432,83,-56,-1,-1,0
1523628294703,458752,83,-56,-1,-1,0
1523628294742,4784128,83,-56,-1,-1,0
1523628294742,11206656,83,-56,-1,-1,0
1523628294742,16056320,83,-56,-1,-1,0
1523628294742,14876672,83,-56,-1,-1,0
1523628294742,7995392,83,-56,-1,-1,0
1523628294782,2359296,83,-56,-1,-1,0
1523628294782,524288,83,-56,-1,-1,0
1523628294782,-655360,83,-56,-1,-1,0
1523628294782,-524288,83,-56,-1,-1,0
1523628294782,458752,83,-56,-1,-1,0
1523628294822,917504,83,-56,-1,-1,0
1523628294822,262144,83,-56,-1,-1,0
1523628294822,196608,83,-56,-1,-1,0
1523628294822,65536,83,-56,-1,-1,0
1523628294822,0,83,-56,-1,-1,0
1523628294862,-393216,83,-56,-1,-1,0
1523628294862,-458752,83,-56,-1,-1,0
1523628294862,0,83,-56,-1,-1,0
1523628294862,524288,83,-56,-1,-1,0
1523628294862,655360,83,-56,-1,-1,0
1523628294902,720896,83,-56,-1,-1,0
1523628294902,851968,83,-56,-1,-1,0
1523628294902,851968,83,-56,-1,-1,0
1523628294902,851968,83,-56,-1,-1,0
1523628294902,917504,83,-56,-1,-1,0
1523628294942,983040,83,-56,-1,-1,0
1523628294942,1441792,83,-56,-1,-1,0
1523628294942,1900544,83,-56,-1,-1,0
1523628294942,2031616,83,-56,-1,-1,0
1523628294942,1966080,83,-56,-1,-1,0
1523628294982,2228224,83,-56,-1,-1,0
1523628294982,2424832,83,-56,-1,-1,0
1523628294982,2555904,83,-56,-1,-1,0
1523628294982,2490368,83,-56,-1,-1,0
1523628294982,2031616,83,-56,-1,-1,0
1523628295022,1441792,83,-56,-1,-1,0
1523628295022,786432,83,-56,-1,-1,0
1523628295022,655360,83,-56,-1,-1,0
1523628295022,983040,83,-56,-1,-1,0
1523628295022,1048576,83,-56,-1,-1,0
1523628295062,327680,83,-56,-1,-1,0
1523628295062,-262144,83,-56,-1,-1,0
1523628295062,-327680,83,-56,-1,-1,0
1523628295062,-393216,83,-56,-1,-1,0
1523628295062,-458752,83,-56,-1,-1,0
1523628295102,-589824,83,-56,-1,-1,0
1523628295102,-393216,83,-56,-1,-1,0
1523628295102,-262144,83,-56,-1,-1,0
1523628295102,-327680,83,-56,-1,-1,0
1523628295102,-393216,83,-56,-1,-1,0
1523628295142,-262144,83,-56,-1,-1,0
1523628295142,-65536,83,-56,-1,-1,0
1523628295142,65536,83,-56,-1,-1,0
1523628295142,327680,83,-56,-1,-1,0
1523628295142,524288,83,-56,-1,-1,0
1523628295183,720896,83,-56,-1,-1,0
1523628295183,851968,83,-56,-1,-1,0
1523628295183,983040,83,-56,-1,-1,0
1523628295183,1048576,83,-56,-1,-1,0
1523628295183,1179648,83,-56,-1,-1,0
1523628295222,1114112,83,-56,-1,-1,0
1523628295222,983040,83,-56,-1,-1,0
1523628295222,655360,83,-56,-1,-1,0
1523628295222,327680,83,-56,-1,-1,0
1523628295222,0,83,-56,-1,-1,0
1523628295262,-262144,83,-56,-1,-1,0
1523628295262,-327680,83,-56,-1,-1,0
1523628295262,-196608,83,-56,-1,-1,0
1523628295262,-196608,83,-56,-1,-1,0
1523628295262,-196608,83,-56,-1,-1,0
1523628295302,-131072,83,-56,-1,-1,0
1523628295302,-131072,83,-56,-1,-1,0
1523628295302,-65536,83,-56,-1,-1,0
1523628295302,0,83,-56,-1,-1,0
1523628295302,0,83,-56,-1,-1,0
1523628295342,-131072,83,-56,-1,-1,0
1523628295342,-393216,83,-56,-1,-1,0
1523628295342,-720896,83,-56,-1,-1,0
1523628295342,-1114112,83,-56,-1,-1,0
1523628295342,-1638400,83,-56,-1,-1,0
1523628295382,-1966080,84,-56,-1,-1,0
1523628295382,-2228224,84,-56,-1,-1,0
1523628295382,-2359296,84,-56,-1,-1,0
1523628295382,-1048576,84,-56,-1,-1,0
1523628295382,3276800,84,-56,-1,-1,0
1523628295422,10354688,84,-56,-1,-1,0
1523628295422,16252928,84,-56,-1,-1,0
1523628295422,15073280,84,-56,-1,-1,0
1523628295422,7602176,84,-56,-1,-1,0
1523628295422,1310720,84,-56,-1,-1,0
1523628295462,-131072,84,-56,-1,-1,0
1523628295462,-327680,84,-56,-1,-1,0
1523628295462,-458752,84,-56,-1,-1,0
1523628295462,-720896,84,-56,-1,-1,0
1523628295462,-917504,84,-56,-1,-1,0
1523628295502,-917504,84,-56,-1,-1,0
1523628295502,-851968,84,-56,-1,-1,0
1523628295502,-851968,84,-56,-1,-1,0
1523628295502,-786432,84,-56,-1,-1,0
1523628295502,-1048576,84,-56,-1,-1,0
1523628295542,-1114112,84,-56,-1,-1,0
1523628295542,-655360,84,-56,-1,-1,0
1523628295542,-458752,84,-56,-1,-1,0
1523628295542,-917504,84,-56,-1,-1,0
1523628295542,-1310720,84,-56,-1,-1,0
1523628295582,-1179648,84,-56,-1,-1,0
1523628295582,-1048576,84,-56,-1,-1,0
1523628295582,-1245184,84,-56,-1,-1,0
1523628295582,-1441792,84,-56,-1,-1,0
1523628295582,-1638400,84,-56,-1,-1,0
1523628295622,-1703936,84,-56,-1,-1,0
1523628295622,-1507328,84,-56,-1,-1,0
1523628295622,-1114112,84,-56,-1,-1,0
1523628295622,-589824,84,-56,-1,-1,0
1523628295622,0,84,-56,-1,-1,0
1523628295662,589824,84,-56,-1,-1,0
1523628295662,851968,84,-56,-1,-1,0
1523628295662,1048576,84,-56,-1,-1,0
1523628295662,1245184,84,-56,-1,-1,0
1523628295662,1507328,84,-56,-1,-1,0
1523628295702,1769472,84,-56,-1,-1,0
1523628295702,1769472,84,-56,-1,-1,0
1523628295702,1507328,84,-56,-1,-1,0
1523628295702,1048576,84,-56,-1,-1,0
1523628295702,589824,84,-56,-1,-1,0
1523628295742,327680,84,-56,-1,-1,0
1523628295742,131072,84,-56,-1,-1,0
1523628295742,-131072,84,-56,-1,-1,0
1523628295742,-589824,84,-56,-1,-1,0
1523628295742,-983040,84,-56,-1,-1,0
1523628295783,-655360,84,-56,-1,-1,0
1523628295783,-65536,84,-56,-1,-1,0
1523628295783,131072,84,-56,-1,-1,0
1523628295783,0,84,-56,-1,-1,0
1523628295783,65536,84,-56,-1,-1,0
1523628295825,327680,84,-56,-1,-1,0
1523628295825,1114112,84,-56,-1,-1,0
1523628295825,1441792,84,-56,-1,-1,0
1523628295825,1376256,84,-56,-1,-1,0
1523628295825,1179648,84,-56,-1,-1,0
1523628295862,851968,84,-56,-1,-1,0
1523628295862,983040,84,-56,-1,-1,0
1523628295862,1376256,84,-56,-1,-1,0
1523628295862,786432,84,-56,-1,-1,0
1523628295862,0,84,-56,-1,-1,0
1523628295902,-131072,84,-56,-1,-1,0
1523628295902,-131072,84,-56,-1,-1,0
1523628295902,-196608,84,-56,-1,-1,0
1523628295902,-851968,84,-56,-1,-1,0
1523628295902,-1572864,84,-56,-1,-1,0
1523628295942,-1703936,84,-56,-1,-1,0
1523628295942,-1310720,84,-56,-1,-1,0
1523628295942,-1179648,84,-56,-1,-1,0
1523628295942,-917504,84,-56,-1,-1,0
1523628295942,-524288,84,-56,-1,-1,0
1523628295982,-917504,84,-56,-1,-1,0
1523628295982,-1507328,84,-56,-1,-1,0
1523628295982,-1703936,84,-56,-1,-1,0
1523628295982,-1376256,84,-56,-1,-1,0
1523628295982,-1572864,84,-56,-1,-1,0
1523628296022,-2162688,84,-56,-1,-1,0
1523628296022,-2686976,84,-56,-1,-1,0
1523628296022,-1835008,84,-56,-1,-1,0
1523628296022,-1310720,84,-56,-1,-1,0
1523628296022,-917504,84,-56,-1,-1,0
