milliseconds, ECG, ECG HR, PPG, PPG HR, SpO2, PI,Landmark_0,Landmark_1,Landmark_2,Landmark_3,Landmark_4,Landmark_5,Landmark_6,Landmark_7,Landmark_8,Landmark_9,Landmark_10,Landmark_11,Landmark_12,Landmark_13,Landmark_14,Landmark_15,Landmark_16,Landmark_17,Landmark_18,Landmark_19,Landmark_20,Landmark_21,Landmark_22,Landmark_23,Landmark_24,Landmark_25,Landmark_26,Landmark_27,Landmark_28,Landmark_29,Landmark_30,Landmark_31,Landmark_32,Landmark_33,Landmark_34,Landmark_35,Landmark_36,Landmark_37,Landmark_38,Landmark_39,Landmark_40,Landmark_41,Landmark_42,Landmark_43,Landmark_44,Landmark_45,Landmark_46,Landmark_47,Landmark_48,Landmark_49,Landmark_50,Landmark_51,Landmark_52,Landmark_53,Landmark_54,Landmark_55,Landmark_56,Landmark_57,Landmark_58,Landmark_59,Landmark_60,Landmark_61,Landmark_62,Landmark_63,Landmark_64,Landmark_65,Landmark_66,Landmark_67,EyeAspectRatio,MouthAspectRatio,LightIntensity,FaceWidthRatio,EyebrowHeight,LipsWidthRatio,LipsHeightRatio,EyeOpening,NoseWidthRatio,NoseHeightRatio,AvgRedForehead,AvgGreenForehead,AvgBlueForehead,AvgRedLips,AvgGreenLips,AvgBlueLips,AvgRedCheeks,AvgGreenCheeks,AvgBlueCheeks
0,-1048576,83,-56,-1,-1,0,"(850, 473)","(852, 507)","(856, 541)","(862, 576)","(874, 611)","(893, 643)","(919, 669)","(948, 688)","(985, 693)","(1026, 685)","(1062, 663)","(1092, 635)","(1114, 601)","(1125, 563)","(1126, 523)","(1126, 484)","(1124, 445)","(856, 450)","(864, 426)","(886, 417)","(911, 419)","(936, 428)","(969, 424)","(997, 409)","(1029, 404)","(1060, 411)","(1079, 433)","(955, 449)","(954, 472)","(953, 495)","(952, 520)","(934, 540)","(946, 544)","(960, 547)","(976, 541)","(992, 536)","(884, 467)","(895, 462)","(909, 459)","(926, 460)","(911, 465)","(897, 468)","(1000, 454)","(1015, 451)","(1030, 451)","(1046, 454)","(1031, 457)","(1016, 457)","(923, 592)","(936, 582)","(951, 577)","(966, 580)","(981, 575)","(1006, 578)","(1032, 585)","(1011, 606)","(989, 613)","(972, 615)","(957, 614)","(940, 608)","(930, 591)","(953, 586)","(968, 587)","(983, 584)","(1024, 586)","(986, 599)","(970, 600)","(955, 599)",0.13,1.1,119.0,0.32,-0.09,0.39,0.03,-4.5,0.13,0.29,62.1,72.8,113.5,57.0,60.2,112.65,86.52,81.35,97.76
33,-720896,83,-56,-1,-1,0,"(1078, 395)","(1080, 412)","(1084, 430)","(1089, 446)","(1097, 462)","(1109, 476)","(1124, 487)","(1142, 495)","(1160, 495)","(1177, 489)","(1191, 478)","(1202, 463)","(1209, 447)","(1212, 429)","(1211, 411)","(1209, 392)","(1206, 374)","(1087, 388)","(1095, 380)","(1108, 378)","(1121, 379)","(1134, 383)","(1152, 379)","(1162, 373)","(1174, 367)","(1187, 365)","(1197, 370)","(1145, 388)","(1147, 401)","(1149, 414)","(1151, 427)","(1139, 434)","(1145, 436)","(1152, 437)","(1159, 434)","(1165, 430)","(1104, 392)","(1110, 388)","(1119, 386)","(1128, 390)","(1119, 393)","(1111, 394)","(1162, 384)","(1169, 378)","(1177, 377)","(1184, 379)","(1179, 383)","(1171, 384)","(1131, 456)","(1140, 453)","(1148, 451)","(1154, 452)","(1161, 449)","(1169, 448)","(1179, 448)","(1170, 455)","(1163, 458)","(1157, 459)","(1150, 460)","(1142, 460)","(1135, 456)","(1149, 455)","(1155, 455)","(1161, 453)","(1175, 449)","(1162, 451)","(1155, 453)","(1149, 453)",0.28,0.83,119.0,0.35,-0.15,0.37,0.0,-5.0,0.15,0.36,45.2,57.5,101.2,32.3,36.3,85.6,70.0,59.82,67.64
66,-1048576,85,-56,-1,-1,0,"(1078, 392)","(1080, 409)","(1083, 426)","(1089, 442)","(1097, 458)","(1109, 472)","(1124, 484)","(1140, 493)","(1158, 492)","(1175, 487)","(1189, 475)","(1200, 460)","(1208, 443)","(1211, 425)","(1211, 407)","(1210, 388)","(1206, 370)","(1085, 387)","(1093, 380)","(1105, 378)","(1117, 379)","(1130, 383)","(1148, 379)","(1158, 372)","(1170, 366)","(1184, 364)","(1194, 369)","(1141, 389)","(1143, 402)","(1145, 415)","(1147, 428)","(1135, 434)","(1142, 437)","(1149, 438)","(1156, 434)","(1162, 430)","(1101, 393)","(1108, 389)","(1116, 387)","(1125, 390)","(1117, 393)","(1109, 395)","(1159, 384)","(1166, 379)","(1174, 377)","(1182, 378)","(1176, 383)","(1168, 385)","(1130, 457)","(1138, 454)","(1145, 452)","(1151, 452)","(1157, 449)","(1165, 449)","(1174, 448)","(1167, 455)","(1160, 458)","(1154, 460)","(1147, 461)","(1140, 461)","(1134, 457)","(1146, 456)","(1152, 456)","(1158, 454)","(1171, 449)","(1159, 451)","(1152, 453)","(1146, 454)",0.26,0.85,119.0,0.36,-0.15,0.34,0.0,-4.0,0.16,0.37,45.9,62.2,106.4,31.75,34.2,89.75,60.29,56.7,73.23
100,-1835008,85,-56,-1,-1,0,"(1079, 393)","(1082, 409)","(1085, 426)","(1090, 442)","(1098, 457)","(1109, 472)","(1123, 484)","(1139, 493)","(1157, 493)","(1174, 488)","(1188, 475)","(1199, 460)","(1206, 443)","(1209, 425)","(1209, 407)","(1207, 388)","(1203, 370)","(1083, 389)","(1090, 381)","(1102, 379)","(1114, 381)","(1127, 384)","(1144, 380)","(1155, 373)","(1167, 367)","(1180, 366)","(1191, 370)","(1138, 389)","(1140, 402)","(1142, 415)","(1144, 429)","(1132, 435)","(1139, 437)","(1146, 438)","(1153, 435)","(1159, 430)","(1099, 393)","(1105, 389)","(1113, 388)","(1122, 391)","(1114, 394)","(1106, 396)","(1156, 385)","(1163, 379)","(1171, 377)","(1178, 379)","(1173, 383)","(1164, 385)","(1127, 457)","(1135, 454)","(1142, 452)","(1148, 453)","(1154, 450)","(1163, 449)","(1173, 448)","(1165, 455)","(1158, 459)","(1152, 461)","(1145, 461)","(1138, 461)","(1131, 456)","(1143, 456)","(1149, 456)","(1155, 454)","(1169, 449)","(1156, 452)","(1150, 454)","(1144, 454)",0.27,0.91,119.0,0.36,-0.16,0.37,0.0,-4.5,0.16,0.38,42.2,56.7,99.1,33.85,33.3,90.8,55.94,53.35,73.82
133,-1966080,85,-56,-1,-1,0,"(1076, 392)","(1079, 409)","(1083, 426)","(1088, 442)","(1095, 457)","(1106, 471)","(1119, 483)","(1135, 492)","(1153, 492)","(1170, 487)","(1185, 475)","(1196, 460)","(1204, 443)","(1208, 424)","(1208, 406)","(1206, 387)","(1203, 368)","(1079, 388)","(1086, 381)","(1097, 379)","(1110, 380)","(1122, 384)","(1140, 380)","(1152, 372)","(1164, 367)","(1177, 365)","(1188, 369)","(1134, 389)","(1136, 402)","(1138, 415)","(1140, 428)","(1128, 434)","(1135, 437)","(1142, 438)","(1149, 434)","(1155, 430)","(1095, 393)","(1101, 389)","(1109, 388)","(1118, 391)","(1110, 394)","(1102, 395)","(1153, 384)","(1159, 379)","(1167, 377)","(1175, 378)","(1169, 383)","(1161, 385)","(1124, 456)","(1131, 454)","(1138, 452)","(1144, 453)","(1150, 450)","(1158, 448)","(1168, 447)","(1161, 455)","(1154, 459)","(1147, 461)","(1141, 462)","(1134, 461)","(1128, 456)","(1139, 456)","(1145, 456)","(1151, 454)","(1165, 449)","(1152, 452)","(1146, 454)","(1140, 454)",0.27,0.94,119.0,0.35,-0.15,0.34,0.0,-4.5,0.16,0.37,42.3,56.0,99.4,32.4,34.4,92.2,55.41,55.64,77.11
166,-2490368,85,-56,-1,-1,0,"(1066, 395)","(1069, 411)","(1073, 427)","(1079, 443)","(1087, 459)","(1099, 473)","(1113, 485)","(1130, 494)","(1148, 495)","(1166, 489)","(1179, 477)","(1190, 461)","(1196, 444)","(1198, 425)","(1198, 407)","(1195, 389)","(1191, 371)","(1073, 389)","(1081, 382)","(1093, 380)","(1105, 381)","(1117, 384)","(1135, 380)","(1146, 373)","(1157, 367)","(1170, 365)","(1180, 369)","(1129, 389)","(1131, 402)","(1133, 415)","(1135, 429)","(1123, 435)","(1130, 437)","(1138, 439)","(1144, 435)","(1150, 430)","(1090, 394)","(1096, 390)","(1104, 388)","(1113, 391)","(1105, 394)","(1097, 396)","(1146, 385)","(1153, 379)","(1160, 377)","(1168, 379)","(1162, 383)","(1155, 385)","(1117, 457)","(1126, 454)","(1133, 452)","(1139, 453)","(1146, 450)","(1154, 448)","(1164, 447)","(1157, 456)","(1150, 461)","(1144, 463)","(1137, 463)","(1128, 462)","(1121, 457)","(1134, 456)","(1140, 456)","(1147, 454)","(1160, 448)","(1148, 453)","(1142, 455)","(1135, 455)",0.27,0.87,119.0,0.36,-0.17,0.37,0.01,-4.0,0.16,0.37,42.0,54.2,99.0,30.0,33.6,90.0,55.52,56.52,78.94
200,1835008,85,-56,-1,-1,0,"(1066, 395)","(1069, 411)","(1073, 427)","(1079, 443)","(1086, 458)","(1097, 473)","(1111, 485)","(1127, 495)","(1145, 495)","(1163, 490)","(1177, 477)","(1188, 461)","(1195, 444)","(1198, 425)","(1197, 407)","(1195, 388)","(1191, 370)","(1069, 391)","(1075, 384)","(1087, 382)","(1099, 383)","(1112, 386)","(1131, 381)","(1142, 374)","(1154, 368)","(1168, 365)","(1179, 370)","(1124, 391)","(1126, 404)","(1128, 417)","(1130, 431)","(1119, 436)","(1125, 439)","(1133, 440)","(1140, 436)","(1147, 431)","(1085, 396)","(1091, 391)","(1099, 390)","(1108, 393)","(1100, 396)","(1092, 398)","(1143, 386)","(1150, 380)","(1158, 378)","(1166, 379)","(1160, 384)","(1152, 386)","(1114, 456)","(1122, 454)","(1129, 453)","(1136, 454)","(1142, 450)","(1151, 448)","(1162, 447)","(1154, 456)","(1147, 461)","(1139, 463)","(1132, 464)","(1124, 463)","(1118, 456)","(1130, 457)","(1137, 456)","(1143, 454)","(1158, 448)","(1145, 454)","(1138, 456)","(1131, 456)",0.26,0.95,119.0,0.37,-0.16,0.38,0.02,-4.5,0.18,0.38,44.4,56.3,100.6,32.8,35.25,95.35,50.7,53.05,78.29
233,-2883584,85,-56,-1,-1,0,"(1061, 401)","(1066, 417)","(1071, 434)","(1078, 449)","(1086, 463)","(1098, 477)","(1112, 489)","(1128, 497)","(1146, 497)","(1164, 492)","(1177, 478)","(1188, 462)","(1195, 444)","(1197, 425)","(1196, 406)","(1193, 387)","(1189, 369)","(1064, 399)","(1070, 390)","(1081, 387)","(1094, 388)","(1107, 391)","(1124, 386)","(1135, 378)","(1148, 371)","(1162, 369)","(1174, 373)","(1118, 394)","(1121, 408)","(1123, 421)","(1126, 435)","(1115, 440)","(1122, 442)","(1130, 444)","(1137, 439)","(1143, 433)","(1081, 400)","(1087, 396)","(1094, 394)","(1103, 397)","(1096, 400)","(1088, 402)","(1138, 389)","(1144, 383)","(1152, 380)","(1160, 381)","(1155, 386)","(1147, 388)","(1110, 459)","(1118, 458)","(1126, 456)","(1133, 457)","(1139, 453)","(1148, 451)","(1160, 447)","(1152, 457)","(1144, 463)","(1137, 465)","(1130, 466)","(1121, 464)","(1114, 459)","(1127, 459)","(1134, 459)","(1141, 457)","(1156, 449)","(1142, 456)","(1135, 458)","(1128, 459)",0.26,0.96,119.0,0.34,-0.21,0.39,0.01,-3.5,0.19,0.39,40.7,53.7,96.7,32.0,35.1,92.05,49.52,48.64,69.41
266,-2883584,85,-56,-1,-1,0,"(1059, 402)","(1064, 419)","(1070, 434)","(1077, 449)","(1085, 464)","(1097, 477)","(1111, 489)","(1127, 498)","(1145, 498)","(1162, 492)","(1176, 478)","(1187, 461)","(1195, 443)","(1197, 424)","(1196, 404)","(1193, 385)","(1189, 365)","(1059, 401)","(1065, 392)","(1077, 390)","(1090, 390)","(1103, 392)","(1120, 387)","(1132, 378)","(1145, 372)","(1160, 369)","(1172, 374)","(1114, 396)","(1117, 410)","(1120, 424)","(1122, 438)","(1111, 442)","(1118, 444)","(1126, 446)","(1134, 440)","(1140, 435)","(1077, 403)","(1083, 398)","(1091, 396)","(1100, 399)","(1092, 402)","(1084, 404)","(1135, 390)","(1141, 383)","(1150, 381)","(1158, 382)","(1152, 387)","(1144, 389)","(1108, 460)","(1116, 459)","(1123, 458)","(1130, 458)","(1137, 455)","(1147, 451)","(1159, 447)","(1151, 458)","(1142, 463)","(1135, 466)","(1128, 467)","(1119, 465)","(1112, 460)","(1124, 461)","(1131, 460)","(1138, 457)","(1155, 449)","(1140, 457)","(1133, 459)","(1126, 460)",0.26,1.03,119.0,0.35,-0.22,0.39,0.01,-4.0,0.2,0.41,50.6,64.4,104.8,29.2,32.85,86.45,47.29,47.35,71.23
300,-3014656,85,-56,-1,-1,0,"(1055, 404)","(1060, 421)","(1066, 437)","(1072, 452)","(1081, 467)","(1093, 480)","(1107, 492)","(1124, 500)","(1142, 500)","(1160, 493)","(1174, 478)","(1186, 461)","(1194, 442)","(1197, 422)","(1196, 402)","(1193, 383)","(1189, 363)","(1056, 399)","(1062, 392)","(1073, 390)","(1086, 391)","(1098, 393)","(1117, 387)","(1128, 379)","(1140, 371)","(1154, 368)","(1167, 370)","(1111, 397)","(1114, 410)","(1117, 424)","(1119, 437)","(1108, 442)","(1116, 444)","(1124, 445)","(1132, 440)","(1139, 434)","(1074, 405)","(1079, 401)","(1087, 398)","(1097, 400)","(1089, 403)","(1081, 406)","(1132, 390)","(1138, 384)","(1146, 382)","(1155, 382)","(1148, 386)","(1141, 388)","(1104, 459)","(1112, 458)","(1120, 457)","(1128, 457)","(1135, 453)","(1145, 449)","(1158, 444)","(1150, 457)","(1141, 464)","(1134, 467)","(1126, 468)","(1116, 467)","(1108, 459)","(1122, 459)","(1129, 458)","(1136, 455)","(1154, 446)","(1138, 458)","(1131, 461)","(1123, 462)",0.19,1.02,119.0,0.34,-0.23,0.4,0.02,-2.0,0.2,0.38,44.3,59.4,104.1,29.6,34.0,87.35,64.94,62.0,83.52
333,-1376256,85,-56,-1,-1,0,"(1055, 404)","(1060, 421)","(1066, 436)","(1072, 450)","(1082, 464)","(1095, 476)","(1110, 486)","(1127, 493)","(1145, 492)","(1161, 484)","(1174, 470)","(1184, 454)","(1190, 436)","(1191, 417)","(1188, 398)","(1184, 380)","(1178, 362)","(1053, 400)","(1058, 392)","(1069, 390)","(1080, 390)","(1093, 392)","(1112, 385)","(1122, 376)","(1134, 368)","(1148, 364)","(1161, 367)","(1107, 396)","(1110, 409)","(1113, 422)","(1116, 435)","(1106, 439)","(1113, 442)","(1121, 443)","(1129, 437)","(1136, 431)","(1071, 404)","(1076, 400)","(1084, 397)","(1093, 399)","(1086, 403)","(1078, 405)","(1127, 388)","(1134, 382)","(1142, 379)","(1150, 379)","(1144, 384)","(1136, 387)","(1105, 457)","(1112, 456)","(1120, 454)","(1126, 454)","(1133, 450)","(1144, 446)","(1157, 442)","(1149, 453)","(1141, 460)","(1134, 463)","(1126, 464)","(1117, 464)","(1109, 457)","(1121, 457)","(1128, 457)","(1135, 454)","(1152, 444)","(1137, 454)","(1130, 457)","(1123, 458)",0.21,1.1,119.0,0.36,-0.27,0.42,0.01,-2.5,0.23,0.4,50.0,63.9,110.3,34.5,39.25,93.3,47.88,51.29,74.58
366,1048576,85,-56,-1,-1,0,"(1049, 404)","(1054, 420)","(1062, 435)","(1069, 450)","(1079, 464)","(1092, 476)","(1108, 486)","(1125, 492)","(1143, 490)","(1160, 482)","(1174, 468)","(1184, 451)","(1190, 432)","(1190, 412)","(1187, 393)","(1181, 374)","(1175, 355)","(1045, 400)","(1051, 392)","(1062, 389)","(1074, 389)","(1087, 391)","(1107, 383)","(1118, 373)","(1130, 365)","(1145, 361)","(1159, 363)","(1102, 394)","(1106, 408)","(1109, 422)","(1113, 436)","(1103, 440)","(1111, 442)","(1119, 443)","(1126, 437)","(1133, 431)","(1063, 403)","(1069, 398)","(1077, 396)","(1087, 398)","(1079, 401)","(1071, 404)","(1123, 385)","(1130, 378)","(1138, 375)","(1147, 375)","(1141, 380)","(1133, 383)","(1101, 457)","(1109, 456)","(1116, 454)","(1124, 454)","(1130, 449)","(1141, 444)","(1155, 438)","(1147, 450)","(1139, 457)","(1131, 461)","(1124, 462)","(1114, 462)","(1105, 457)","(1118, 457)","(1126, 456)","(1133, 452)","(1150, 441)","(1135, 451)","(1128, 454)","(1120, 456)",0.22,1.11,119.0,0.37,-0.28,0.42,0.01,-2.5,0.24,0.43,51.2,64.4,107.4,34.05,37.85,95.65,54.35,55.11,80.23
400,-393216,85,-56,-1,-1,0,"(1026, 421)","(1032, 440)","(1039, 459)","(1049, 476)","(1063, 492)","(1081, 504)","(1100, 513)","(1122, 519)","(1143, 516)","(1162, 505)","(1175, 487)","(1186, 466)","(1192, 444)","(1193, 422)","(1189, 401)","(1183, 380)","(1175, 360)","(1035, 403)","(1042, 393)","(1054, 389)","(1068, 387)","(1082, 388)","(1103, 379)","(1113, 369)","(1126, 360)","(1141, 356)","(1155, 358)","(1098, 390)","(1102, 403)","(1107, 416)","(1112, 429)","(1099, 441)","(1108, 442)","(1117, 442)","(1124, 437)","(1131, 430)","(1055, 406)","(1061, 399)","(1070, 395)","(1080, 397)","(1072, 401)","(1064, 405)","(1119, 382)","(1126, 374)","(1134, 371)","(1143, 371)","(1137, 376)","(1129, 380)","(1091, 465)","(1102, 461)","(1113, 458)","(1122, 457)","(1130, 452)","(1143, 447)","(1157, 443)","(1149, 459)","(1138, 469)","(1130, 473)","(1120, 474)","(1107, 474)","(1095, 465)","(1115, 462)","(1124, 460)","(1132, 456)","(1153, 446)","(1134, 461)","(1126, 465)","(1117, 467)",0.23,0.94,119.0,0.32,-0.33,0.44,0.03,-2.0,0.22,0.3,52.7,68.4,110.4,46.4,55.4,109.1,105.58,80.82,72.17
433,-2490368,85,-56,-1,-1,0,"(1039, 402)","(1045, 419)","(1053, 435)","(1062, 450)","(1074, 464)","(1088, 476)","(1104, 486)","(1122, 494)","(1141, 492)","(1158, 483)","(1172, 466)","(1182, 447)","(1188, 426)","(1189, 405)","(1186, 384)","(1180, 364)","(1173, 344)","(1037, 397)","(1041, 389)","(1052, 385)","(1065, 385)","(1078, 387)","(1097, 378)","(1108, 367)","(1121, 358)","(1136, 353)","(1150, 355)","(1093, 390)","(1097, 404)","(1100, 417)","(1104, 431)","(1095, 436)","(1103, 439)","(1111, 439)","(1119, 433)","(1126, 425)","(1056, 401)","(1061, 396)","(1069, 393)","(1079, 394)","(1072, 399)","(1064, 402)","(1115, 380)","(1122, 373)","(1130, 370)","(1140, 369)","(1133, 375)","(1125, 378)","(1097, 455)","(1104, 453)","(1111, 450)","(1118, 449)","(1124, 444)","(1136, 439)","(1150, 433)","(1143, 447)","(1134, 455)","(1127, 459)","(1120, 461)","(1110, 461)","(1101, 455)","(1113, 453)","(1120, 451)","(1127, 447)","(1146, 436)","(1130, 449)","(1123, 453)","(1116, 455)",0.21,1.17,119.0,0.35,-0.31,0.39,0.02,-2.5,0.24,0.4,52.1,66.9,112.3,35.6,40.6,96.3,57.64,59.7,87.23
466,-2490368,85,-56,-1,-1,0,"(1033, 401)","(1039, 418)","(1047, 434)","(1055, 449)","(1066, 464)","(1079, 476)","(1095, 487)","(1113, 495)","(1132, 493)","(1150, 485)","(1165, 468)","(1177, 449)","(1184, 428)","(1186, 406)","(1183, 384)","(1178, 363)","(1172, 341)","(1028, 395)","(1032, 386)","(1043, 383)","(1056, 382)","(1070, 384)","(1092, 376)","(1104, 365)","(1118, 355)","(1135, 351)","(1150, 354)","(1086, 389)","(1090, 403)","(1094, 417)","(1098, 432)","(1088, 436)","(1096, 439)","(1105, 439)","(1113, 433)","(1120, 427)","(1048, 399)","(1053, 394)","(1062, 391)","(1072, 393)","(1064, 397)","(1055, 400)","(1111, 379)","(1118, 371)","(1126, 368)","(1136, 368)","(1130, 374)","(1121, 377)","(1089, 455)","(1097, 454)","(1104, 452)","(1111, 451)","(1118, 447)","(1129, 441)","(1144, 435)","(1135, 448)","(1126, 456)","(1119, 460)","(1111, 462)","(1101, 461)","(1093, 454)","(1106, 454)","(1113, 453)","(1121, 449)","(1139, 437)","(1122, 451)","(1115, 454)","(1108, 455)",0.25,1.13,118.0,0.34,-0.3,0.39,0.01,-3.0,0.24,0.41,57.7,73.0,116.4,34.95,38.85,94.9,58.11,58.17,82.29
500,-2555904,85,-56,-1,-1,0,"(1022, 400)","(1029, 418)","(1036, 435)","(1045, 451)","(1057, 467)","(1072, 479)","(1090, 488)","(1110, 495)","(1130, 492)","(1148, 482)","(1163, 466)","(1174, 448)","(1181, 427)","(1182, 405)","(1178, 384)","(1171, 363)","(1164, 342)","(1020, 395)","(1025, 386)","(1036, 383)","(1049, 382)","(1063, 384)","(1087, 375)","(1098, 363)","(1112, 354)","(1128, 349)","(1143, 351)","(1081, 389)","(1086, 404)","(1090, 418)","(1095, 433)","(1084, 438)","(1092, 440)","(1102, 440)","(1110, 434)","(1117, 427)","(1040, 401)","(1046, 396)","(1055, 393)","(1066, 394)","(1058, 399)","(1049, 402)","(1105, 379)","(1111, 371)","(1121, 367)","(1131, 366)","(1125, 373)","(1115, 377)","(1083, 455)","(1092, 454)","(1100, 452)","(1108, 451)","(1115, 447)","(1127, 441)","(1142, 433)","(1133, 447)","(1124, 455)","(1116, 459)","(1108, 461)","(1097, 461)","(1087, 454)","(1103, 455)","(1110, 453)","(1117, 449)","(1137, 436)","(1120, 449)","(1112, 453)","(1104, 455)",0.24,1.1,118.0,0.36,-0.32,0.41,0.01,-2.5,0.25,0.42,64.7,80.9,127.3,33.35,36.25,91.4,59.05,58.11,78.82
533,-1507328,85,-56,-1,-1,0,"(1016, 403)","(1022, 421)","(1029, 438)","(1038, 454)","(1051, 470)","(1067, 483)","(1085, 494)","(1105, 502)","(1126, 500)","(1145, 490)","(1160, 472)","(1172, 452)","(1178, 430)","(1179, 407)","(1175, 385)","(1169, 363)","(1160, 341)","(1014, 397)","(1019, 388)","(1031, 384)","(1044, 383)","(1058, 385)","(1082, 376)","(1094, 364)","(1108, 355)","(1124, 350)","(1139, 352)","(1076, 390)","(1081, 405)","(1085, 420)","(1090, 435)","(1079, 440)","(1087, 442)","(1097, 443)","(1105, 436)","(1113, 429)","(1035, 402)","(1040, 396)","(1049, 393)","(1061, 395)","(1052, 400)","(1043, 403)","(1100, 380)","(1107, 372)","(1116, 368)","(1127, 367)","(1120, 374)","(1111, 378)","(1078, 459)","(1087, 458)","(1096, 456)","(1104, 455)","(1111, 450)","(1123, 444)","(1138, 437)","(1129, 452)","(1120, 461)","(1112, 464)","(1104, 466)","(1093, 466)","(1083, 459)","(1098, 458)","(1106, 457)","(1113, 453)","(1133, 440)","(1116, 454)","(1108, 458)","(1100, 459)",0.24,1.07,119.0,0.36,-0.32,0.41,0.01,-3.0,0.25,0.4,63.1,77.8,122.0,36.5,40.5,98.8,62.64,61.23,83.29
566,-1441792,88,-56,-1,-1,0,"(1014, 402)","(1019, 420)","(1026, 437)","(1034, 454)","(1046, 470)","(1060, 484)","(1077, 496)","(1097, 505)","(1117, 503)","(1137, 494)","(1153, 478)","(1166, 458)","(1174, 436)","(1176, 412)","(1172, 390)","(1166, 367)","(1158, 345)","(1010, 398)","(1015, 389)","(1027, 385)","(1041, 386)","(1055, 388)","(1078, 380)","(1090, 368)","(1104, 358)","(1121, 354)","(1136, 357)","(1072, 393)","(1076, 408)","(1080, 423)","(1084, 439)","(1073, 444)","(1081, 446)","(1091, 447)","(1099, 440)","(1107, 433)","(1030, 403)","(1036, 398)","(1045, 395)","(1057, 397)","(1048, 401)","(1038, 404)","(1097, 383)","(1104, 375)","(1113, 371)","(1124, 371)","(1117, 377)","(1107, 381)","(1072, 462)","(1081, 461)","(1090, 459)","(1098, 459)","(1105, 454)","(1118, 448)","(1133, 442)","(1124, 456)","(1114, 465)","(1105, 469)","(1097, 470)","(1086, 470)","(1077, 462)","(1092, 462)","(1100, 461)","(1108, 457)","(1129, 444)","(1110, 458)","(1102, 461)","(1094, 463)",0.23,1.1,118.0,0.36,-0.29,0.42,0.02,-2.5,0.24,0.41,47.9,61.4,102.3,37.55,40.75,98.25,61.23,59.05,80.88
600,-1179648,88,-56,-1,-1,0,"(1004, 410)","(1011, 428)","(1020, 446)","(1030, 462)","(1042, 478)","(1059, 491)","(1077, 502)","(1096, 510)","(1117, 508)","(1136, 498)","(1152, 481)","(1165, 460)","(1173, 437)","(1174, 414)","(1170, 391)","(1163, 368)","(1154, 346)","(1002, 406)","(1008, 395)","(1021, 391)","(1036, 390)","(1051, 393)","(1068, 383)","(1080, 370)","(1096, 361)","(1113, 356)","(1130, 359)","(1064, 395)","(1069, 410)","(1074, 426)","(1078, 442)","(1066, 447)","(1075, 450)","(1085, 451)","(1095, 443)","(1103, 436)","(1023, 407)","(1029, 401)","(1038, 398)","(1049, 400)","(1040, 405)","(1031, 408)","(1090, 384)","(1096, 376)","(1105, 372)","(1116, 371)","(1109, 378)","(1100, 382)","(1067, 467)","(1076, 466)","(1085, 464)","(1093, 463)","(1100, 458)","(1113, 452)","(1129, 445)","(1119, 460)","(1110, 468)","(1101, 472)","(1093, 474)","(1082, 474)","(1072, 467)","(1087, 466)","(1095, 465)","(1103, 461)","(1124, 447)","(1105, 461)","(1097, 465)","(1089, 467)",0.24,1.11,118.0,0.34,-0.3,0.41,0.01,-3.0,0.26,0.41,55.3,67.7,109.8,34.25,37.95,94.05,64.35,62.29,82.35
633,-1114112,88,-56,-1,-1,0,"(996, 412)","(1002, 431)","(1010, 449)","(1019, 466)","(1031, 483)","(1047, 497)","(1065, 510)","(1086, 518)","(1109, 516)","(1130, 506)","(1147, 489)","(1159, 468)","(1167, 445)","(1167, 421)","(1162, 398)","(1155, 374)","(1146, 350)","(993, 408)","(999, 398)","(1012, 394)","(1026, 394)","(1041, 396)","(1062, 387)","(1075, 374)","(1090, 364)","(1108, 359)","(1125, 362)","(1057, 399)","(1061, 415)","(1066, 431)","(1071, 447)","(1059, 453)","(1068, 456)","(1078, 456)","(1087, 449)","(1095, 442)","(1014, 410)","(1021, 405)","(1030, 402)","(1041, 403)","(1032, 408)","(1023, 411)","(1083, 388)","(1090, 380)","(1100, 376)","(1111, 375)","(1104, 382)","(1094, 386)","(1059, 473)","(1069, 472)","(1077, 470)","(1086, 469)","(1094, 464)","(1107, 458)","(1123, 451)","(1113, 465)","(1103, 474)","(1094, 478)","(1086, 480)","(1074, 479)","(1064, 473)","(1080, 473)","(1088, 472)","(1096, 467)","(1118, 454)","(1099, 467)","(1090, 471)","(1082, 472)",0.23,1.08,118.0,0.36,-0.3,0.42,0.01,-2.5,0.25,0.41,53.1,66.1,109.4,36.7,39.75,98.85,67.88,65.82,87.11
666,-524288,88,-56,-1,-1,0,"(985, 422)","(991, 443)","(998, 463)","(1008, 482)","(1022, 500)","(1039, 515)","(1059, 527)","(1082, 536)","(1106, 533)","(1129, 522)","(1148, 502)","(1161, 478)","(1170, 452)","(1171, 425)","(1167, 401)","(1160, 376)","(1151, 351)","(982, 415)","(988, 404)","(1002, 401)","(1018, 400)","(1034, 402)","(1055, 392)","(1069, 379)","(1086, 367)","(1106, 361)","(1125, 364)","(1050, 405)","(1055, 420)","(1060, 436)","(1065, 453)","(1052, 459)","(1062, 462)","(1072, 463)","(1082, 455)","(1091, 447)","(1005, 419)","(1012, 413)","(1022, 409)","(1034, 410)","(1024, 415)","(1014, 419)","(1079, 393)","(1087, 385)","(1097, 381)","(1109, 380)","(1101, 387)","(1090, 391)","(1050, 483)","(1061, 479)","(1071, 476)","(1080, 475)","(1088, 469)","(1102, 463)","(1121, 456)","(1110, 474)","(1099, 485)","(1090, 489)","(1080, 491)","(1068, 492)","(1056, 482)","(1073, 479)","(1082, 477)","(1091, 472)","(1115, 459)","(1094, 478)","(1086, 482)","(1076, 484)",0.21,1.05,118.0,0.34,-0.3,0.42,0.03,-2.0,0.24,0.37,48.7,62.8,102.5,39.65,45.6,99.6,86.41,76.94,89.41
700,6029312,88,-56,-1,-1,0,"(975, 426)","(982, 447)","(990, 467)","(1000, 486)","(1015, 503)","(1034, 518)","(1056, 529)","(1079, 536)","(1102, 534)","(1124, 522)","(1141, 502)","(1154, 480)","(1162, 455)","(1163, 430)","(1158, 405)","(1151, 380)","(1142, 356)","(971, 418)","(977, 408)","(989, 403)","(1005, 402)","(1020, 405)","(1050, 394)","(1062, 381)","(1079, 370)","(1098, 365)","(1116, 368)","(1042, 413)","(1048, 430)","(1053, 447)","(1059, 464)","(1046, 470)","(1056, 472)","(1067, 473)","(1076, 465)","(1085, 457)","(996, 426)","(1003, 420)","(1013, 417)","(1026, 418)","(1016, 423)","(1006, 427)","(1071, 401)","(1079, 392)","(1090, 388)","(1102, 387)","(1094, 394)","(1083, 398)","(1045, 489)","(1056, 489)","(1065, 487)","(1075, 486)","(1083, 481)","(1097, 473)","(1116, 464)","(1105, 481)","(1094, 491)","(1085, 496)","(1075, 498)","(1062, 497)","(1050, 489)","(1068, 489)","(1077, 488)","(1086, 483)","(1111, 467)","(1089, 485)","(1080, 489)","(1071, 491)",0.21,1.12,118.0,0.35,-0.31,0.42,0.01,-2.5,0.25,0.42,75.1,90.0,133.8,39.2,41.85,101.95,69.94,63.47,78.94
733,-458752,88,-56,-1,-1,0,"(966, 438)","(973, 460)","(981, 481)","(992, 501)","(1006, 521)","(1024, 537)","(1046, 550)","(1070, 559)","(1095, 557)","(1118, 544)","(1136, 522)","(1151, 497)","(1158, 471)","(1159, 443)","(1154, 418)","(1147, 392)","(1138, 367)","(965, 434)","(971, 422)","(985, 416)","(1002, 415)","(1019, 417)","(1041, 406)","(1055, 392)","(1073, 381)","(1093, 376)","(1111, 380)","(1036, 418)","(1042, 436)","(1047, 453)","(1052, 472)","(1039, 478)","(1049, 481)","(1060, 482)","(1069, 473)","(1078, 465)","(990, 433)","(997, 427)","(1007, 423)","(1019, 424)","(1010, 429)","(1000, 433)","(1065, 407)","(1073, 398)","(1083, 394)","(1094, 393)","(1087, 400)","(1077, 404)","(1036, 502)","(1047, 499)","(1058, 496)","(1067, 495)","(1076, 489)","(1091, 482)","(1109, 474)","(1099, 491)","(1088, 502)","(1078, 507)","(1068, 509)","(1054, 510)","(1042, 502)","(1060, 498)","(1070, 496)","(1079, 491)","(1104, 477)","(1083, 495)","(1073, 500)","(1064, 502)",0.22,1.07,119.0,0.33,-0.32,0.42,0.02,-2.0,0.24,0.38,49.5,63.4,103.2,39.6,44.65,102.95,85.52,73.7,87.47
766,-393216,88,-56,-1,-1,0,"(965, 442)","(971, 463)","(980, 483)","(991, 501)","(1005, 520)","(1023, 536)","(1042, 550)","(1064, 560)","(1087, 558)","(1110, 547)","(1129, 526)","(1144, 501)","(1153, 475)","(1155, 447)","(1152, 421)","(1144, 394)","(1134, 368)","(958, 436)","(964, 426)","(978, 423)","(994, 423)","(1010, 425)","(1033, 414)","(1048, 400)","(1065, 388)","(1085, 382)","(1105, 384)","(1027, 428)","(1033, 447)","(1037, 465)","(1043, 484)","(1030, 488)","(1040, 491)","(1051, 492)","(1061, 484)","(1071, 475)","(981, 441)","(988, 435)","(998, 431)","(1011, 433)","(1001, 438)","(991, 442)","(1058, 415)","(1067, 406)","(1077, 402)","(1090, 402)","(1082, 409)","(1071, 413)","(1032, 510)","(1041, 508)","(1051, 506)","(1060, 505)","(1069, 500)","(1085, 493)","(1103, 485)","(1092, 503)","(1080, 514)","(1070, 519)","(1060, 521)","(1048, 520)","(1038, 510)","(1053, 509)","(1063, 508)","(1072, 503)","(1098, 488)","(1075, 506)","(1065, 510)","(1056, 512)",0.24,1.17,119.0,0.35,-0.29,0.42,0.02,-3.0,0.26,0.43,59.9,72.4,115.8,42.05,46.6,103.95,71.58,64.05,82.35
800,393216,88,-56,-1,-1,0,"(950, 458)","(957, 480)","(966, 501)","(978, 522)","(993, 542)","(1012, 559)","(1034, 572)","(1059, 581)","(1085, 578)","(1109, 565)","(1128, 543)","(1142, 518)","(1150, 491)","(1150, 463)","(1144, 437)","(1136, 410)","(1126, 384)","(946, 451)","(952, 439)","(967, 434)","(984, 434)","(1002, 436)","(1024, 424)","(1039, 410)","(1057, 398)","(1078, 393)","(1097, 397)","(1019, 437)","(1025, 456)","(1030, 474)","(1036, 494)","(1023, 499)","(1033, 503)","(1045, 504)","(1056, 495)","(1065, 485)","(971, 452)","(978, 445)","(989, 441)","(1002, 442)","(992, 448)","(982, 452)","(1050, 424)","(1058, 415)","(1069, 410)","(1081, 410)","(1073, 417)","(1062, 421)","(1024, 525)","(1034, 522)","(1044, 518)","(1054, 517)","(1064, 511)","(1079, 503)","(1098, 496)","(1088, 513)","(1076, 524)","(1066, 529)","(1056, 532)","(1042, 533)","(1030, 524)","(1047, 521)","(1057, 519)","(1067, 514)","(1093, 499)","(1071, 516)","(1061, 521)","(1051, 524)",0.22,1.11,120.0,0.34,-0.3,0.42,0.02,-2.5,0.26,0.4,58.4,71.4,112.9,45.1,49.25,108.55,87.58,76.64,90.23
866,5373952,88,-56,-1,-1,0,"(913, 490)","(921, 517)","(932, 544)","(946, 570)","(965, 593)","(989, 612)","(1017, 626)","(1047, 635)","(1076, 632)","(1102, 617)","(1121, 590)","(1135, 559)","(1144, 526)","(1145, 493)","(1140, 461)","(1132, 430)","(1121, 400)","(920, 474)","(927, 461)","(944, 456)","(965, 456)","(985, 458)","(1006, 446)","(1022, 430)","(1042, 417)","(1066, 410)","(1086, 414)","(1002, 460)","(1009, 479)","(1015, 499)","(1022, 519)","(1006, 532)","(1018, 535)","(1030, 535)","(1041, 525)","(1051, 515)","(948, 478)","(956, 471)","(967, 466)","(982, 466)","(970, 473)","(959, 478)","(1035, 446)","(1044, 437)","(1056, 433)","(1068, 433)","(1059, 439)","(1048, 443)","(1005, 567)","(1017, 560)","(1028, 555)","(1040, 553)","(1049, 546)","(1066, 539)","(1085, 533)","(1076, 554)","(1064, 567)","(1053, 573)","(1041, 575)","(1026, 576)","(1011, 566)","(1031, 559)","(1042, 556)","(1053, 551)","(1079, 536)","(1058, 557)","(1048, 563)","(1036, 566)",0.19,1.02,121.0,0.31,-0.3,0.38,0.03,-2.0,0.23,0.34,68.9,82.3,123.6,61.85,62.4,117.0,120.05,86.41,71.7
1533,-1900544,88,-56,-1,-1,0,"(861, 502)","(866, 535)","(875, 567)","(888, 598)","(903, 629)","(924, 659)","(948, 685)","(977, 705)","(1011, 707)","(1046, 694)","(1079, 667)","(1106, 634)","(1126, 596)","(1136, 555)","(1136, 514)","(1131, 471)","(1123, 430)","(855, 487)","(863, 474)","(881, 471)","(902, 474)","(923, 479)","(954, 466)","(978, 449)","(1007, 436)","(1038, 431)","(1066, 439)","(944, 488)","(947, 513)","(950, 539)","(952, 566)","(938, 579)","(950, 584)","(965, 586)","(979, 577)","(994, 568)","(884, 500)","(894, 493)","(909, 489)","(925, 492)","(911, 499)","(897, 503)","(994, 476)","(1006, 466)","(1022, 462)","(1040, 463)","(1027, 472)","(1010, 476)","(943, 629)","(950, 620)","(962, 613)","(975, 614)","(988, 607)","(1010, 604)","(1036, 604)","(1019, 626)","(1000, 639)","(986, 643)","(973, 644)","(958, 642)","(951, 628)","(965, 623)","(977, 621)","(991, 617)","(1027, 606)","(995, 622)","(981, 626)","(969, 627)",0.22,1.19,123.0,0.32,-0.17,0.35,0.02,-6.0,0.19,0.35,73.8,86.9,128.4,62.35,61.45,110.65,122.88,99.64,95.0
1600,-3014656,91,-56,-1,-1,0,"(883, 455)","(886, 486)","(893, 517)","(903, 548)","(917, 579)","(937, 607)","(962, 633)","(992, 652)","(1026, 654)","(1060, 644)","(1090, 620)","(1113, 590)","(1129, 555)","(1136, 518)","(1135, 482)","(1131, 444)","(1124, 408)","(884, 445)","(896, 432)","(918, 429)","(941, 433)","(963, 439)","(992, 429)","(1014, 415)","(1039, 404)","(1066, 401)","(1090, 410)","(982, 447)","(985, 471)","(987, 496)","(990, 521)","(971, 532)","(983, 537)","(997, 540)","(1011, 533)","(1023, 524)","(914, 455)","(925, 447)","(941, 445)","(957, 451)","(942, 457)","(927, 459)","(1019, 439)","(1032, 427)","(1048, 424)","(1064, 427)","(1052, 436)","(1036, 439)","(966, 576)","(978, 570)","(991, 565)","(1003, 567)","(1015, 561)","(1033, 560)","(1055, 560)","(1039, 579)","(1023, 589)","(1010, 592)","(998, 593)","(982, 589)","(973, 576)","(993, 574)","(1004, 573)","(1017, 570)","(1048, 562)","(1019, 575)","(1007, 578)","(995, 579)",0.27,1.01,122.0,0.36,-0.13,0.36,0.02,-9.5,0.17,0.35,72.0,86.7,128.8,66.25,64.9,111.7,104.0,90.82,100.41
1633,-2949120,91,-56,-1,-1,0,"(912, 438)","(914, 468)","(921, 497)","(931, 526)","(944, 555)","(963, 582)","(986, 606)","(1013, 625)","(1045, 627)","(1078, 618)","(1108, 597)","(1132, 569)","(1149, 536)","(1157, 501)","(1156, 465)","(1151, 429)","(1144, 393)","(909, 429)","(921, 418)","(940, 417)","(961, 421)","(981, 427)","(1009, 418)","(1031, 404)","(1055, 394)","(1081, 390)","(1105, 397)","(1000, 437)","(1002, 459)","(1005, 482)","(1007, 506)","(989, 515)","(1001, 521)","(1014, 524)","(1028, 517)","(1041, 509)","(937, 442)","(947, 436)","(962, 434)","(978, 439)","(964, 444)","(949, 447)","(1037, 428)","(1050, 418)","(1065, 416)","(1081, 417)","(1069, 426)","(1054, 429)","(987, 556)","(997, 550)","(1009, 547)","(1020, 549)","(1032, 544)","(1051, 542)","(1073, 542)","(1057, 560)","(1041, 569)","(1028, 572)","(1016, 572)","(1002, 569)","(994, 556)","(1011, 556)","(1022, 556)","(1034, 553)","(1065, 544)","(1037, 555)","(1025, 558)","(1013, 558)",0.24,1.12,121.0,0.36,-0.12,0.37,0.01,-8.0,0.17,0.36,80.3,94.6,137.8,62.15,64.5,114.95,101.05,83.76,85.7
1666,5308416,91,-56,-1,-1,0,"(942, 436)","(944, 464)","(950, 492)","(960, 519)","(972, 545)","(990, 570)","(1010, 592)","(1034, 609)","(1064, 611)","(1094, 602)","(1121, 580)","(1143, 555)","(1159, 525)","(1168, 493)","(1170, 461)","(1167, 427)","(1162, 393)","(942, 427)","(951, 415)","(969, 412)","(988, 415)","(1008, 422)","(1031, 413)","(1052, 400)","(1076, 391)","(1101, 389)","(1123, 398)","(1023, 429)","(1024, 450)","(1026, 472)","(1027, 494)","(1014, 505)","(1024, 510)","(1035, 512)","(1048, 505)","(1059, 499)","(967, 437)","(976, 430)","(990, 429)","(1004, 433)","(991, 439)","(978, 441)","(1060, 423)","(1072, 414)","(1086, 412)","(1100, 414)","(1089, 422)","(1075, 424)","(1010, 544)","(1020, 538)","(1031, 534)","(1042, 536)","(1053, 530)","(1071, 528)","(1092, 527)","(1077, 543)","(1062, 551)","(1050, 554)","(1038, 555)","(1025, 553)","(1016, 544)","(1033, 541)","(1044, 540)","(1055, 537)","(1085, 529)","(1058, 538)","(1047, 542)","(1036, 542)",0.25,1.09,120.0,0.34,-0.11,0.37,0.02,-8.5,0.16,0.35,67.5,82.0,123.8,56.5,60.55,115.85,94.23,76.94,78.76
1700,-2424832,91,-56,-1,-1,0,"(935, 437)","(939, 467)","(946, 497)","(957, 526)","(972, 554)","(992, 579)","(1017, 598)","(1045, 613)","(1076, 615)","(1104, 605)","(1129, 583)","(1150, 557)","(1165, 526)","(1173, 493)","(1174, 461)","(1171, 427)","(1166, 394)","(951, 422)","(963, 411)","(982, 408)","(1003, 410)","(1023, 416)","(1048, 408)","(1068, 395)","(1090, 386)","(1113, 385)","(1132, 394)","(1040, 424)","(1043, 444)","(1046, 464)","(1049, 485)","(1032, 501)","(1043, 505)","(1054, 506)","(1065, 501)","(1075, 494)","(980, 435)","(990, 429)","(1004, 426)","(1018, 429)","(1005, 435)","(992, 437)","(1072, 420)","(1084, 412)","(1097, 410)","(1109, 412)","(1099, 419)","(1086, 421)","(1022, 543)","(1035, 536)","(1048, 531)","(1058, 532)","(1068, 528)","(1083, 527)","(1101, 529)","(1088, 545)","(1075, 553)","(1064, 556)","(1053, 557)","(1039, 555)","(1028, 543)","(1049, 538)","(1059, 537)","(1070, 534)","(1095, 530)","(1072, 541)","(1062, 544)","(1051, 545)",0.24,0.91,120.0,0.32,-0.12,0.34,0.03,-6.5,0.15,0.31,67.4,81.3,121.5,62.2,66.5,115.1,115.82,88.17,77.52
1733,-2621440,91,-56,-1,-1,0,"(983, 424)","(986, 448)","(993, 471)","(1001, 494)","(1010, 517)","(1024, 539)","(1041, 557)","(1061, 571)","(1085, 573)","(1112, 567)","(1137, 551)","(1157, 531)","(1172, 506)","(1179, 478)","(1180, 449)","(1178, 418)","(1175, 388)","(979, 415)","(986, 403)","(1002, 400)","(1020, 402)","(1037, 407)","(1062, 402)","(1081, 390)","(1103, 383)","(1126, 382)","(1145, 391)","(1052, 416)","(1054, 436)","(1055, 455)","(1056, 475)","(1045, 486)","(1054, 489)","(1064, 490)","(1074, 485)","(1083, 480)","(1002, 424)","(1010, 419)","(1022, 417)","(1035, 421)","(1023, 426)","(1011, 428)","(1087, 413)","(1098, 405)","(1110, 403)","(1123, 405)","(1113, 412)","(1100, 414)","(1044, 519)","(1052, 516)","(1060, 513)","(1068, 514)","(1077, 510)","(1090, 509)","(1109, 508)","(1095, 516)","(1083, 521)","(1074, 523)","(1065, 524)","(1056, 523)","(1049, 519)","(1062, 519)","(1070, 518)","(1079, 516)","(1102, 509)","(1080, 510)","(1072, 513)","(1063, 513)",0.25,1.11,119.0,0.35,-0.13,0.33,0.0,-7.0,0.16,0.37,60.0,75.2,115.4,54.15,55.6,119.25,80.41,71.52,85.82
1766,-2228224,91,-56,-1,-1,0,"(990, 416)","(992, 439)","(997, 462)","(1004, 484)","(1012, 507)","(1026, 527)","(1045, 544)","(1066, 556)","(1091, 557)","(1117, 551)","(1140, 535)","(1159, 516)","(1172, 492)","(1178, 466)","(1179, 439)","(1179, 411)","(1177, 384)","(990, 408)","(998, 396)","(1015, 393)","(1033, 395)","(1051, 400)","(1071, 394)","(1089, 384)","(1109, 376)","(1131, 376)","(1148, 385)","(1063, 407)","(1065, 425)","(1067, 444)","(1068, 463)","(1056, 473)","(1064, 476)","(1073, 478)","(1083, 473)","(1092, 468)","(1013, 414)","(1021, 408)","(1033, 406)","(1045, 411)","(1034, 415)","(1023, 417)","(1094, 403)","(1104, 395)","(1116, 394)","(1127, 397)","(1118, 403)","(1106, 404)","(1052, 506)","(1061, 502)","(1069, 499)","(1077, 500)","(1085, 496)","(1098, 496)","(1114, 495)","(1101, 502)","(1090, 506)","(1082, 508)","(1074, 509)","(1064, 509)","(1057, 505)","(1071, 505)","(1079, 505)","(1087, 502)","(1108, 496)","(1088, 497)","(1080, 499)","(1072, 499)",0.27,1.03,119.0,0.34,-0.12,0.33,-0.0,-7.5,0.15,0.37,50.4,63.1,103.8,54.05,56.9,123.7,80.11,72.76,87.52
1800,-1245184,91,-56,-1,-1,0,"(1005, 399)","(1008, 422)","(1013, 445)","(1020, 467)","(1029, 489)","(1042, 510)","(1060, 527)","(1079, 541)","(1103, 542)","(1127, 536)","(1151, 521)","(1171, 502)","(1186, 478)","(1193, 452)","(1194, 424)","(1193, 395)","(1190, 366)","(1004, 393)","(1012, 382)","(1027, 380)","(1044, 382)","(1061, 388)","(1083, 382)","(1101, 371)","(1121, 364)","(1143, 363)","(1161, 371)","(1074, 396)","(1075, 414)","(1076, 431)","(1077, 450)","(1066, 459)","(1074, 463)","(1083, 464)","(1093, 460)","(1102, 455)","(1026, 402)","(1034, 397)","(1045, 395)","(1057, 399)","(1046, 404)","(1035, 406)","(1106, 391)","(1115, 384)","(1127, 382)","(1139, 384)","(1130, 391)","(1118, 393)","(1064, 491)","(1073, 488)","(1080, 485)","(1088, 486)","(1095, 482)","(1107, 482)","(1124, 481)","(1111, 490)","(1100, 494)","(1092, 496)","(1084, 496)","(1076, 496)","(1069, 491)","(1082, 490)","(1089, 490)","(1097, 488)","(1118, 482)","(1098, 484)","(1090, 486)","(1083, 487)",0.28,1.04,119.0,0.34,-0.11,0.32,0.0,-7.0,0.15,0.36,60.9,75.6,117.0,53.15,55.85,122.45,77.82,73.05,92.41
1833,1179648,91,-56,-1,-1,0,"(1009, 391)","(1013, 414)","(1018, 436)","(1025, 458)","(1034, 480)","(1049, 499)","(1067, 514)","(1087, 527)","(1110, 529)","(1133, 522)","(1155, 506)","(1174, 488)","(1188, 466)","(1195, 441)","(1196, 415)","(1196, 388)","(1194, 361)","(1015, 387)","(1022, 376)","(1037, 372)","(1054, 373)","(1071, 378)","(1091, 372)","(1108, 362)","(1127, 355)","(1148, 355)","(1165, 364)","(1083, 385)","(1085, 401)","(1086, 418)","(1087, 436)","(1076, 446)","(1084, 449)","(1092, 450)","(1102, 446)","(1111, 442)","(1036, 392)","(1044, 386)","(1055, 384)","(1066, 388)","(1056, 392)","(1045, 394)","(1112, 381)","(1122, 374)","(1133, 372)","(1144, 375)","(1135, 381)","(1124, 382)","(1072, 477)","(1080, 473)","(1089, 470)","(1096, 471)","(1104, 468)","(1116, 467)","(1132, 467)","(1120, 476)","(1109, 480)","(1101, 482)","(1093, 483)","(1083, 482)","(1077, 476)","(1090, 475)","(1098, 475)","(1106, 473)","(1127, 468)","(1107, 471)","(1099, 473)","(1091, 473)",0.26,1.03,119.0,0.33,-0.13,0.32,0.0,-6.5,0.15,0.35,53.1,67.4,105.6,50.85,54.85,120.1,74.82,73.11,93.94
1866,2883584,91,-56,-1,-1,0,"(1031, 384)","(1035, 404)","(1041, 424)","(1047, 444)","(1054, 464)","(1065, 483)","(1080, 499)","(1098, 511)","(1120, 512)","(1142, 506)","(1162, 492)","(1178, 474)","(1190, 452)","(1195, 428)","(1196, 404)","(1195, 379)","(1192, 354)","(1028, 378)","(1034, 368)","(1048, 365)","(1063, 366)","(1079, 369)","(1101, 363)","(1117, 354)","(1135, 347)","(1155, 347)","(1170, 355)","(1092, 377)","(1094, 393)","(1095, 410)","(1096, 426)","(1085, 436)","(1093, 439)","(1102, 440)","(1110, 436)","(1119, 431)","(1048, 385)","(1055, 380)","(1065, 378)","(1077, 381)","(1066, 386)","(1056, 388)","(1121, 374)","(1130, 367)","(1141, 365)","(1151, 367)","(1143, 373)","(1132, 375)","(1082, 466)","(1090, 463)","(1097, 460)","(1105, 461)","(1112, 457)","(1124, 456)","(1139, 456)","(1128, 463)","(1118, 468)","(1110, 470)","(1102, 471)","(1093, 470)","(1087, 466)","(1099, 465)","(1106, 465)","(1114, 462)","(1133, 457)","(1115, 459)","(1108, 462)","(1100, 462)",0.26,1.06,118.0,0.36,-0.14,0.35,0.0,-6.0,0.16,0.36,54.1,68.2,108.7,48.5,51.1,116.4,58.11,59.76,87.82
1900,458752,91,-56,-1,-1,0,"(1043, 380)","(1047, 400)","(1052, 419)","(1059, 438)","(1067, 456)","(1078, 474)","(1093, 488)","(1109, 500)","(1130, 502)","(1151, 497)","(1171, 483)","(1188, 466)","(1201, 446)","(1207, 423)","(1208, 398)","(1207, 373)","(1205, 348)","(1040, 373)","(1046, 363)","(1059, 360)","(1075, 362)","(1090, 366)","(1110, 360)","(1126, 351)","(1144, 344)","(1164, 343)","(1180, 351)","(1102, 373)","(1103, 389)","(1104, 406)","(1105, 423)","(1096, 432)","(1103, 434)","(1111, 435)","(1119, 431)","(1128, 426)","(1059, 379)","(1065, 373)","(1076, 371)","(1087, 376)","(1077, 381)","(1066, 382)","(1131, 369)","(1140, 361)","(1151, 359)","(1161, 362)","(1153, 369)","(1142, 370)","(1094, 459)","(1101, 456)","(1108, 453)","(1115, 454)","(1122, 450)","(1133, 449)","(1148, 448)","(1137, 456)","(1127, 461)","(1119, 463)","(1112, 464)","(1104, 463)","(1098, 459)","(1109, 458)","(1116, 458)","(1123, 455)","(1143, 450)","(1124, 452)","(1117, 454)","(1110, 454)",0.31,1.07,118.0,0.35,-0.13,0.33,0.0,-8.0,0.16,0.38,54.9,68.7,109.7,42.85,45.95,110.85,56.35,57.17,86.05
1933,-589824,91,-56,-1,-1,0,"(1050, 377)","(1054, 397)","(1060, 416)","(1066, 434)","(1075, 453)","(1087, 470)","(1102, 483)","(1119, 495)","(1138, 496)","(1158, 491)","(1177, 477)","(1193, 461)","(1204, 441)","(1210, 418)","(1211, 395)","(1209, 371)","(1207, 347)","(1050, 372)","(1056, 362)","(1069, 359)","(1084, 361)","(1098, 365)","(1118, 359)","(1133, 350)","(1149, 343)","(1167, 343)","(1182, 350)","(1110, 371)","(1112, 387)","(1113, 403)","(1114, 419)","(1105, 427)","(1112, 430)","(1120, 431)","(1128, 427)","(1135, 422)","(1069, 377)","(1075, 372)","(1085, 371)","(1095, 375)","(1086, 379)","(1076, 380)","(1136, 368)","(1144, 361)","(1155, 359)","(1164, 361)","(1157, 367)","(1147, 369)","(1103, 454)","(1110, 452)","(1117, 449)","(1123, 450)","(1130, 446)","(1140, 445)","(1154, 444)","(1144, 453)","(1135, 458)","(1128, 460)","(1121, 460)","(1113, 460)","(1108, 454)","(1118, 453)","(1124, 453)","(1131, 451)","(1149, 446)","(1133, 449)","(1126, 451)","(1120, 451)",0.29,1.05,118.0,0.34,-0.14,0.32,0.01,-6.5,0.15,0.38,55.3,71.7,110.7,45.15,49.55,113.05,50.0,51.11,75.05
1966,-65536,91,-56,-1,-1,0,"(1057, 377)","(1061, 397)","(1067, 416)","(1072, 434)","(1080, 452)","(1092, 468)","(1107, 480)","(1125, 490)","(1144, 490)","(1164, 485)","(1182, 472)","(1197, 457)","(1208, 438)","(1212, 416)","(1213, 394)","(1212, 371)","(1211, 348)","(1056, 373)","(1063, 364)","(1076, 361)","(1091, 362)","(1106, 366)","(1127, 360)","(1141, 351)","(1158, 345)","(1176, 344)","(1191, 350)","(1119, 373)","(1120, 388)","(1122, 403)","(1123, 418)","(1114, 427)","(1121, 429)","(1128, 430)","(1136, 426)","(1143, 422)","(1075, 378)","(1082, 373)","(1092, 372)","(1103, 376)","(1093, 380)","(1083, 382)","(1145, 369)","(1153, 360)","(1164, 358)","(1174, 361)","(1166, 367)","(1155, 369)","(1111, 453)","(1118, 450)","(1125, 447)","(1131, 448)","(1138, 444)","(1148, 443)","(1161, 443)","(1152, 450)","(1143, 454)","(1136, 456)","(1130, 457)","(1122, 457)","(1115, 453)","(1126, 452)","(1132, 451)","(1139, 449)","(1156, 443)","(1141, 446)","(1134, 448)","(1128, 449)",0.3,1.02,118.0,0.37,-0.14,0.32,0.0,-7.0,0.15,0.38,54.8,68.9,108.8,40.05,45.15,108.6,54.82,54.17,74.58
2000,196608,91,-56,-1,-1,0,"(1064, 388)","(1067, 407)","(1070, 426)","(1074, 444)","(1081, 462)","(1092, 479)","(1107, 492)","(1126, 502)","(1146, 502)","(1167, 496)","(1184, 483)","(1199, 466)","(1209, 447)","(1213, 426)","(1214, 404)","(1213, 382)","(1212, 359)","(1064, 383)","(1069, 371)","(1083, 367)","(1098, 368)","(1113, 372)","(1131, 366)","(1146, 357)","(1162, 351)","(1180, 351)","(1193, 359)","(1124, 377)","(1126, 391)","(1128, 406)","(1129, 421)","(1119, 428)","(1126, 431)","(1133, 432)","(1141, 428)","(1149, 424)","(1083, 384)","(1090, 379)","(1099, 377)","(1109, 381)","(1101, 385)","(1091, 386)","(1148, 373)","(1157, 366)","(1166, 365)","(1175, 367)","(1168, 372)","(1159, 373)","(1114, 455)","(1122, 451)","(1129, 448)","(1137, 449)","(1144, 445)","(1154, 444)","(1167, 444)","(1157, 451)","(1149, 455)","(1141, 457)","(1133, 458)","(1125, 459)","(1118, 454)","(1131, 452)","(1138, 452)","(1145, 449)","(1162, 445)","(1147, 448)","(1139, 451)","(1132, 451)",0.26,0.95,118.0,0.35,-0.16,0.35,0.0,-6.0,0.16,0.35,43.5,56.6,95.2,40.25,43.3,102.7,71.17,63.29,74.94
2033,393216,94,-56,-1,-1,0,"(1071, 386)","(1073, 404)","(1076, 422)","(1081, 439)","(1088, 457)","(1099, 473)","(1114, 487)","(1131, 498)","(1150, 499)","(1170, 493)","(1187, 479)","(1202, 463)","(1213, 444)","(1218, 423)","(1219, 402)","(1218, 381)","(1216, 358)","(1072, 383)","(1078, 374)","(1091, 371)","(1105, 373)","(1118, 377)","(1137, 372)","(1151, 363)","(1166, 357)","(1182, 356)","(1196, 363)","(1130, 383)","(1131, 397)","(1133, 411)","(1134, 426)","(1123, 432)","(1130, 435)","(1138, 437)","(1146, 433)","(1153, 428)","(1090, 388)","(1096, 384)","(1105, 382)","(1115, 385)","(1106, 388)","(1098, 390)","(1153, 378)","(1161, 372)","(1170, 370)","(1179, 372)","(1172, 377)","(1163, 378)","(1119, 454)","(1127, 452)","(1134, 450)","(1141, 452)","(1147, 449)","(1158, 447)","(1171, 446)","(1160, 454)","(1151, 459)","(1144, 461)","(1137, 461)","(1129, 460)","(1123, 454)","(1135, 454)","(1142, 454)","(1149, 452)","(1166, 447)","(1149, 452)","(1142, 454)","(1136, 454)",0.25,1.03,119.0,0.35,-0.14,0.35,0.01,-4.5,0.15,0.37,50.0,64.6,105.9,36.5,39.0,92.2,64.82,59.05,73.88
2066,-327680,94,-56,-1,-1,0,"(1077, 391)","(1078, 409)","(1082, 426)","(1086, 442)","(1094, 459)","(1105, 474)","(1119, 487)","(1135, 497)","(1153, 499)","(1171, 492)","(1188, 479)","(1203, 464)","(1214, 446)","(1220, 425)","(1221, 405)","(1220, 384)","(1218, 363)","(1075, 385)","(1081, 377)","(1092, 374)","(1105, 375)","(1117, 380)","(1143, 376)","(1156, 367)","(1170, 362)","(1186, 361)","(1199, 366)","(1133, 390)","(1135, 404)","(1136, 419)","(1137, 433)","(1126, 437)","(1133, 440)","(1141, 442)","(1149, 438)","(1157, 433)","(1092, 394)","(1099, 389)","(1108, 388)","(1118, 392)","(1109, 395)","(1100, 396)","(1156, 385)","(1164, 378)","(1174, 376)","(1183, 378)","(1176, 383)","(1167, 385)","(1120, 455)","(1128, 454)","(1136, 454)","(1143, 455)","(1151, 452)","(1162, 450)","(1176, 448)","(1165, 460)","(1155, 466)","(1147, 468)","(1139, 467)","(1130, 464)","(1124, 455)","(1138, 457)","(1145, 457)","(1152, 456)","(1171, 450)","(1152, 459)","(1145, 461)","(1137, 461)",0.26,1.04,119.0,0.37,-0.14,0.39,0.03,-5.5,0.17,0.39,61.9,79.6,125.9,38.15,41.95,91.45,63.94,57.47,70.29
2100,-458752,94,-56,-1,-1,0,"(1080, 399)","(1083, 415)","(1088, 431)","(1093, 446)","(1100, 462)","(1112, 476)","(1125, 487)","(1142, 496)","(1160, 496)","(1177, 492)","(1192, 480)","(1204, 465)","(1211, 448)","(1214, 430)","(1214, 411)","(1212, 393)","(1209, 374)","(1082, 395)","(1089, 387)","(1101, 386)","(1114, 387)","(1126, 391)","(1143, 387)","(1154, 380)","(1167, 374)","(1182, 372)","(1194, 377)","(1136, 396)","(1138, 410)","(1140, 424)","(1142, 438)","(1131, 441)","(1138, 444)","(1145, 446)","(1153, 441)","(1159, 437)","(1098, 399)","(1104, 395)","(1112, 394)","(1121, 398)","(1113, 400)","(1105, 401)","(1157, 392)","(1164, 386)","(1172, 384)","(1180, 385)","(1174, 390)","(1166, 392)","(1128, 460)","(1136, 459)","(1142, 458)","(1149, 459)","(1155, 456)","(1165, 454)","(1177, 452)","(1168, 460)","(1160, 465)","(1153, 466)","(1146, 467)","(1138, 465)","(1131, 460)","(1143, 461)","(1150, 461)","(1156, 459)","(1173, 453)","(1158, 458)","(1151, 460)","(1144, 460)",0.26,1.02,120.0,0.35,-0.14,0.37,0.01,-4.5,0.17,0.42,42.1,56.8,98.3,27.35,29.45,84.0,53.11,50.52,68.05
2133,-458752,94,-56,-1,-1,0,"(1080, 402)","(1083, 419)","(1087, 435)","(1091, 451)","(1099, 466)","(1111, 479)","(1125, 491)","(1142, 499)","(1160, 500)","(1176, 495)","(1190, 483)","(1201, 468)","(1208, 451)","(1211, 434)","(1211, 416)","(1209, 398)","(1206, 381)","(1084, 400)","(1092, 394)","(1104, 392)","(1116, 394)","(1128, 398)","(1146, 395)","(1157, 387)","(1169, 382)","(1182, 380)","(1193, 384)","(1139, 403)","(1141, 417)","(1143, 430)","(1145, 444)","(1133, 447)","(1140, 450)","(1148, 451)","(1155, 447)","(1161, 442)","(1100, 405)","(1107, 402)","(1115, 401)","(1123, 404)","(1116, 406)","(1108, 407)","(1158, 398)","(1165, 393)","(1173, 392)","(1181, 393)","(1175, 397)","(1167, 398)","(1128, 464)","(1136, 464)","(1144, 463)","(1150, 464)","(1156, 461)","(1165, 459)","(1176, 457)","(1168, 466)","(1161, 470)","(1154, 472)","(1147, 472)","(1139, 471)","(1132, 465)","(1144, 466)","(1151, 466)","(1157, 464)","(1172, 458)","(1159, 463)","(1152, 465)","(1146, 465)",0.22,0.95,120.0,0.36,-0.13,0.38,0.01,-4.0,0.17,0.42,42.2,55.6,96.2,29.0,30.55,85.1,56.64,50.17,62.0
2166,9961472,94,-56,-1,-1,0,"(1083, 407)","(1085, 424)","(1088, 440)","(1092, 455)","(1099, 470)","(1110, 484)","(1124, 496)","(1139, 505)","(1157, 506)","(1173, 501)","(1187, 489)","(1198, 475)","(1206, 459)","(1209, 441)","(1209, 424)","(1207, 406)","(1204, 389)","(1086, 406)","(1093, 399)","(1105, 398)","(1117, 401)","(1128, 405)","(1146, 402)","(1157, 395)","(1169, 389)","(1182, 388)","(1192, 392)","(1139, 410)","(1141, 424)","(1143, 437)","(1144, 450)","(1131, 452)","(1138, 455)","(1146, 458)","(1154, 453)","(1160, 449)","(1102, 412)","(1108, 410)","(1115, 409)","(1124, 411)","(1116, 413)","(1108, 414)","(1158, 406)","(1164, 402)","(1172, 400)","(1179, 401)","(1173, 405)","(1166, 406)","(1125, 468)","(1133, 468)","(1141, 468)","(1148, 469)","(1155, 467)","(1164, 464)","(1176, 461)","(1167, 471)","(1159, 476)","(1152, 477)","(1144, 477)","(1135, 476)","(1129, 469)","(1142, 471)","(1149, 471)","(1156, 469)","(1172, 463)","(1157, 470)","(1150, 471)","(1143, 471)",0.22,0.96,120.0,0.35,-0.11,0.42,0.01,-3.0,0.17,0.41,42.1,54.8,97.7,29.1,31.2,84.35,72.0,60.88,67.82
2200,-917504,94,-56,-1,-1,0,"(1081, 414)","(1084, 431)","(1088, 446)","(1093, 461)","(1100, 475)","(1111, 488)","(1124, 499)","(1140, 508)","(1156, 509)","(1173, 505)","(1187, 494)","(1198, 480)","(1206, 464)","(1209, 447)","(1209, 430)","(1208, 412)","(1205, 394)","(1085, 413)","(1092, 406)","(1104, 406)","(1116, 407)","(1128, 411)","(1146, 407)","(1157, 401)","(1169, 396)","(1182, 394)","(1192, 398)","(1139, 416)","(1141, 429)","(1143, 442)","(1144, 456)","(1132, 458)","(1139, 461)","(1147, 463)","(1154, 459)","(1161, 454)","(1101, 418)","(1107, 416)","(1115, 415)","(1123, 417)","(1116, 419)","(1108, 420)","(1158, 412)","(1164, 407)","(1172, 405)","(1180, 406)","(1174, 410)","(1166, 411)","(1127, 473)","(1135, 473)","(1142, 473)","(1149, 474)","(1156, 471)","(1165, 469)","(1176, 466)","(1167, 476)","(1159, 480)","(1152, 482)","(1145, 481)","(1137, 480)","(1130, 474)","(1143, 476)","(1150, 476)","(1157, 474)","(1172, 468)","(1157, 474)","(1151, 475)","(1144, 475)",0.21,0.95,120.0,0.35,-0.11,0.39,0.01,-3.0,0.17,0.43,43.9,57.0,97.6,27.05,29.3,81.8,62.11,50.05,58.05
2233,-917504,94,-56,-1,-1,0,"(1080, 419)","(1083, 435)","(1086, 451)","(1091, 465)","(1099, 480)","(1110, 493)","(1123, 504)","(1138, 512)","(1155, 513)","(1171, 509)","(1184, 497)","(1195, 483)","(1203, 467)","(1207, 451)","(1207, 433)","(1205, 416)","(1202, 398)","(1083, 417)","(1091, 411)","(1103, 410)","(1115, 412)","(1127, 417)","(1144, 413)","(1155, 406)","(1166, 400)","(1180, 397)","(1190, 402)","(1137, 421)","(1139, 434)","(1141, 447)","(1142, 461)","(1130, 462)","(1137, 466)","(1144, 468)","(1152, 463)","(1158, 458)","(1099, 423)","(1106, 421)","(1113, 420)","(1122, 422)","(1114, 424)","(1106, 425)","(1156, 416)","(1163, 412)","(1170, 410)","(1178, 411)","(1172, 414)","(1164, 416)","(1125, 478)","(1133, 478)","(1140, 477)","(1146, 478)","(1153, 476)","(1162, 473)","(1173, 471)","(1164, 481)","(1157, 485)","(1150, 487)","(1143, 487)","(1135, 485)","(1129, 478)","(1141, 480)","(1147, 481)","(1154, 479)","(1169, 472)","(1155, 479)","(1148, 480)","(1142, 480)",0.19,0.96,120.0,0.36,-0.11,0.39,0.01,-2.5,0.17,0.43,42.7,55.8,98.3,27.35,28.55,84.7,57.35,48.47,58.41
2266,-786432,94,-56,-1,-1,0,"(1079, 421)","(1081, 438)","(1085, 454)","(1090, 469)","(1097, 483)","(1108, 496)","(1122, 507)","(1137, 515)","(1154, 516)","(1170, 511)","(1183, 499)","(1195, 485)","(1203, 469)","(1207, 452)","(1206, 434)","(1204, 416)","(1201, 398)","(1082, 420)","(1089, 413)","(1101, 412)","(1113, 414)","(1126, 418)","(1142, 414)","(1152, 407)","(1165, 401)","(1178, 399)","(1188, 403)","(1136, 423)","(1138, 436)","(1139, 449)","(1141, 463)","(1128, 465)","(1135, 468)","(1143, 470)","(1151, 465)","(1157, 461)","(1098, 425)","(1105, 422)","(1112, 421)","(1120, 423)","(1113, 426)","(1105, 427)","(1154, 418)","(1161, 413)","(1168, 411)","(1176, 412)","(1170, 416)","(1163, 417)","(1123, 481)","(1132, 480)","(1139, 480)","(1145, 481)","(1152, 478)","(1160, 476)","(1171, 473)","(1163, 483)","(1155, 487)","(1149, 489)","(1142, 489)","(1134, 487)","(1127, 481)","(1140, 483)","(1146, 483)","(1153, 481)","(1167, 475)","(1154, 481)","(1147, 483)","(1140, 482)",0.21,0.91,120.0,0.36,-0.13,0.39,0.01,-3.5,0.17,0.43,46.6,60.4,103.8,25.45,27.4,79.4,56.64,49.23,60.29
2300,131072,94,-56,-1,-1,0,"(1078, 422)","(1080, 439)","(1084, 454)","(1089, 469)","(1097, 484)","(1107, 497)","(1120, 507)","(1136, 515)","(1152, 516)","(1169, 511)","(1183, 499)","(1194, 485)","(1202, 468)","(1206, 450)","(1206, 433)","(1204, 415)","(1201, 396)","(1080, 420)","(1087, 413)","(1098, 412)","(1110, 414)","(1122, 418)","(1139, 414)","(1149, 406)","(1161, 400)","(1175, 397)","(1186, 401)","(1132, 422)","(1134, 436)","(1136, 449)","(1137, 463)","(1125, 465)","(1132, 468)","(1140, 470)","(1148, 465)","(1154, 460)","(1096, 425)","(1102, 422)","(1109, 421)","(1118, 423)","(1110, 426)","(1103, 427)","(1152, 417)","(1158, 412)","(1166, 410)","(1173, 411)","(1168, 415)","(1160, 417)","(1121, 481)","(1129, 480)","(1136, 480)","(1143, 481)","(1149, 478)","(1158, 475)","(1169, 473)","(1161, 483)","(1153, 488)","(1146, 490)","(1139, 490)","(1131, 487)","(1125, 481)","(1137, 483)","(1144, 483)","(1150, 481)","(1165, 474)","(1151, 481)","(1145, 483)","(1138, 483)",0.24,0.97,120.0,0.34,-0.15,0.39,0.02,-3.5,0.17,0.43,46.1,61.8,104.9,28.95,30.9,83.95,49.47,43.29,56.64
2333,3014656,94,-56,-1,-1,0,"(1071, 421)","(1074, 438)","(1077, 454)","(1082, 469)","(1090, 484)","(1102, 497)","(1116, 508)","(1132, 516)","(1149, 517)","(1165, 512)","(1178, 500)","(1188, 486)","(1195, 470)","(1198, 453)","(1197, 435)","(1195, 418)","(1192, 401)","(1076, 420)","(1083, 413)","(1095, 412)","(1107, 414)","(1118, 418)","(1137, 414)","(1147, 407)","(1159, 401)","(1171, 399)","(1181, 403)","(1130, 423)","(1132, 436)","(1134, 449)","(1136, 462)","(1123, 465)","(1130, 468)","(1138, 470)","(1145, 465)","(1152, 460)","(1092, 426)","(1099, 422)","(1106, 421)","(1114, 424)","(1107, 426)","(1099, 427)","(1148, 418)","(1155, 413)","(1162, 411)","(1169, 412)","(1164, 416)","(1156, 417)","(1118, 481)","(1126, 481)","(1133, 480)","(1140, 481)","(1146, 478)","(1155, 476)","(1166, 473)","(1158, 483)","(1151, 488)","(1144, 490)","(1137, 490)","(1129, 488)","(1122, 482)","(1134, 483)","(1141, 483)","(1147, 481)","(1162, 475)","(1149, 481)","(1142, 483)","(1136, 483)",0.21,0.96,120.0,0.35,-0.14,0.39,0.02,-3.5,0.18,0.41,41.1,55.1,97.5,30.15,32.95,84.75,56.64,52.23,67.0
2366,4587520,94,-56,-1,-1,0,"(1070, 422)","(1073, 439)","(1076, 455)","(1081, 470)","(1089, 485)","(1100, 499)","(1114, 510)","(1130, 518)","(1147, 518)","(1164, 514)","(1177, 502)","(1187, 487)","(1194, 471)","(1197, 454)","(1197, 436)","(1195, 419)","(1191, 401)","(1074, 422)","(1082, 414)","(1093, 413)","(1106, 414)","(1118, 418)","(1136, 414)","(1146, 406)","(1158, 401)","(1171, 399)","(1181, 403)","(1129, 423)","(1131, 437)","(1133, 450)","(1135, 463)","(1122, 466)","(1129, 469)","(1137, 470)","(1145, 466)","(1151, 461)","(1091, 427)","(1097, 424)","(1105, 423)","(1113, 425)","(1106, 427)","(1098, 429)","(1147, 418)","(1154, 414)","(1162, 412)","(1169, 412)","(1164, 416)","(1156, 418)","(1117, 483)","(1125, 482)","(1132, 481)","(1139, 481)","(1146, 478)","(1154, 476)","(1165, 474)","(1158, 484)","(1150, 489)","(1143, 491)","(1136, 492)","(1127, 490)","(1121, 483)","(1133, 484)","(1140, 484)","(1147, 482)","(1161, 476)","(1148, 482)","(1142, 484)","(1135, 484)",0.19,0.93,120.0,0.36,-0.16,0.39,0.01,-2.5,0.18,0.42,49.6,62.1,105.4,32.1,33.45,91.35,59.11,52.58,65.11
2400,1048576,94,-56,-1,-1,0,"(1069, 423)","(1072, 439)","(1076, 455)","(1082, 470)","(1090, 484)","(1101, 498)","(1115, 509)","(1132, 517)","(1149, 517)","(1166, 512)","(1179, 500)","(1189, 485)","(1196, 468)","(1198, 450)","(1197, 433)","(1194, 415)","(1190, 398)","(1072, 421)","(1079, 413)","(1091, 412)","(1104, 413)","(1116, 417)","(1134, 412)","(1144, 405)","(1156, 399)","(1169, 396)","(1179, 401)","(1128, 421)","(1130, 434)","(1132, 447)","(1135, 461)","(1122, 463)","(1129, 466)","(1137, 468)","(1144, 464)","(1151, 459)","(1089, 425)","(1095, 422)","(1103, 421)","(1111, 423)","(1104, 426)","(1096, 427)","(1146, 416)","(1152, 411)","(1159, 409)","(1167, 410)","(1162, 414)","(1154, 416)","(1118, 481)","(1126, 480)","(1133, 479)","(1140, 480)","(1146, 477)","(1155, 475)","(1167, 472)","(1159, 482)","(1151, 487)","(1144, 490)","(1137, 490)","(1128, 488)","(1122, 481)","(1134, 483)","(1141, 482)","(1148, 480)","(1163, 474)","(1149, 480)","(1142, 483)","(1135, 483)",0.25,0.98,120.0,0.35,-0.16,0.4,0.02,-3.5,0.19,0.41,38.9,53.3,96.1,30.3,31.95,90.65,57.35,49.47,63.17
2433,-393216,94,-56,-1,-1,0,"(1067, 420)","(1070, 437)","(1075, 452)","(1081, 467)","(1088, 481)","(1099, 495)","(1113, 506)","(1129, 514)","(1147, 514)","(1164, 509)","(1178, 497)","(1189, 482)","(1196, 465)","(1199, 447)","(1198, 430)","(1195, 412)","(1192, 394)","(1069, 417)","(1075, 410)","(1087, 408)","(1100, 409)","(1112, 412)","(1130, 408)","(1141, 400)","(1153, 394)","(1167, 392)","(1178, 397)","(1124, 417)","(1126, 430)","(1128, 444)","(1130, 457)","(1118, 460)","(1125, 463)","(1133, 465)","(1141, 461)","(1148, 455)","(1085, 421)","(1091, 418)","(1099, 416)","(1108, 419)","(1100, 422)","(1092, 423)","(1143, 412)","(1150, 406)","(1158, 404)","(1166, 405)","(1160, 410)","(1152, 411)","(1114, 478)","(1122, 477)","(1129, 476)","(1136, 477)","(1143, 474)","(1152, 472)","(1164, 469)","(1156, 479)","(1147, 484)","(1140, 486)","(1133, 486)","(1124, 484)","(1118, 478)","(1130, 479)","(1137, 479)","(1144, 477)","(1160, 471)","(1145, 477)","(1138, 479)","(1131, 479)",0.24,0.98,120.0,0.36,-0.16,0.4,0.02,-4.0,0.19,0.41,41.7,55.4,98.2,30.25,33.05,88.35,53.7,48.11,62.82
2466,-131072,94,-56,-1,-1,0,"(1063, 414)","(1067, 431)","(1071, 447)","(1077, 462)","(1085, 477)","(1097, 490)","(1111, 502)","(1127, 511)","(1145, 512)","(1163, 506)","(1177, 493)","(1187, 477)","(1195, 460)","(1198, 442)","(1197, 423)","(1194, 405)","(1190, 387)","(1066, 413)","(1073, 405)","(1085, 403)","(1097, 405)","(1110, 408)","(1127, 404)","(1138, 396)","(1151, 390)","(1164, 387)","(1176, 391)","(1121, 412)","(1123, 426)","(1126, 440)","(1128, 454)","(1116, 456)","(1123, 459)","(1131, 461)","(1139, 456)","(1145, 451)","(1083, 416)","(1089, 413)","(1097, 411)","(1105, 414)","(1098, 417)","(1090, 418)","(1141, 407)","(1147, 401)","(1155, 399)","(1163, 400)","(1158, 404)","(1150, 406)","(1111, 473)","(1120, 472)","(1127, 472)","(1134, 473)","(1141, 469)","(1151, 467)","(1163, 463)","(1154, 474)","(1146, 479)","(1138, 481)","(1131, 481)","(1122, 480)","(1115, 473)","(1128, 474)","(1135, 475)","(1143, 472)","(1159, 465)","(1144, 472)","(1136, 474)","(1129, 474)",0.25,0.98,120.0,0.34,-0.18,0.4,0.01,-3.5,0.18,0.42,38.9,53.0,94.9,27.55,30.45,85.3,52.23,48.94,66.47
2500,-131072,94,-56,-1,-1,0,"(1061, 410)","(1065, 427)","(1070, 443)","(1076, 458)","(1085, 474)","(1096, 488)","(1110, 501)","(1126, 510)","(1144, 510)","(1162, 504)","(1176, 490)","(1187, 473)","(1195, 455)","(1198, 436)","(1197, 417)","(1194, 397)","(1189, 378)","(1062, 407)","(1068, 399)","(1080, 397)","(1092, 398)","(1105, 402)","(1124, 396)","(1135, 388)","(1148, 381)","(1162, 379)","(1174, 383)","(1117, 406)","(1120, 420)","(1122, 434)","(1125, 448)","(1113, 452)","(1120, 455)","(1128, 456)","(1136, 451)","(1143, 446)","(1079, 411)","(1085, 407)","(1093, 406)","(1102, 408)","(1094, 411)","(1086, 413)","(1138, 400)","(1145, 394)","(1153, 392)","(1161, 393)","(1155, 397)","(1147, 399)","(1109, 469)","(1117, 468)","(1125, 467)","(1132, 468)","(1139, 464)","(1149, 462)","(1161, 459)","(1152, 469)","(1144, 475)","(1136, 477)","(1129, 478)","(1120, 476)","(1113, 470)","(1126, 470)","(1133, 470)","(1140, 468)","(1157, 460)","(1141, 468)","(1134, 470)","(1127, 471)",0.22,0.98,120.0,0.35,-0.18,0.4,0.01,-3.5,0.2,0.4,48.0,62.3,105.5,31.0,32.65,91.8,54.41,55.05,77.0
2533,-327680,97,-56,-1,-1,0,"(1059, 413)","(1062, 430)","(1066, 447)","(1072, 463)","(1080, 478)","(1092, 493)","(1106, 505)","(1122, 514)","(1141, 514)","(1159, 507)","(1173, 493)","(1183, 476)","(1190, 458)","(1193, 438)","(1192, 419)","(1189, 400)","(1185, 381)","(1061, 404)","(1066, 395)","(1077, 392)","(1089, 393)","(1101, 396)","(1119, 390)","(1130, 382)","(1142, 377)","(1156, 375)","(1167, 380)","(1113, 400)","(1115, 414)","(1118, 428)","(1120, 442)","(1109, 446)","(1116, 450)","(1124, 451)","(1132, 446)","(1139, 440)","(1078, 408)","(1083, 404)","(1090, 402)","(1099, 403)","(1092, 407)","(1085, 409)","(1133, 395)","(1139, 390)","(1147, 388)","(1154, 389)","(1149, 392)","(1141, 394)","(1105, 466)","(1113, 464)","(1120, 463)","(1128, 463)","(1135, 460)","(1146, 457)","(1160, 454)","(1150, 465)","(1141, 471)","(1133, 473)","(1125, 474)","(1116, 473)","(1109, 466)","(1122, 466)","(1129, 465)","(1137, 463)","(1156, 456)","(1138, 464)","(1131, 467)","(1123, 467)",0.2,1.05,120.0,0.33,-0.2,0.43,0.02,-2.5,0.2,0.36,46.9,61.4,104.2,31.1,34.4,90.25,55.23,52.17,75.64
2566,-1179648,97,-56,-1,-1,0,"(1055, 406)","(1058, 422)","(1063, 438)","(1069, 453)","(1078, 468)","(1090, 482)","(1104, 494)","(1120, 503)","(1138, 502)","(1156, 497)","(1170, 484)","(1181, 469)","(1189, 451)","(1192, 433)","(1190, 414)","(1187, 395)","(1183, 377)","(1058, 399)","(1064, 390)","(1075, 388)","(1087, 389)","(1099, 392)","(1116, 387)","(1127, 379)","(1139, 372)","(1152, 370)","(1163, 375)","(1110, 397)","(1113, 410)","(1115, 424)","(1117, 439)","(1106, 443)","(1113, 446)","(1121, 448)","(1129, 443)","(1136, 437)","(1075, 403)","(1080, 400)","(1088, 398)","(1096, 400)","(1089, 403)","(1082, 404)","(1130, 392)","(1136, 387)","(1144, 385)","(1152, 385)","(1146, 390)","(1139, 392)","(1104, 463)","(1111, 461)","(1118, 460)","(1125, 461)","(1132, 457)","(1142, 455)","(1155, 452)","(1146, 462)","(1137, 467)","(1130, 469)","(1123, 470)","(1115, 469)","(1108, 463)","(1120, 463)","(1126, 463)","(1133, 460)","(1151, 454)","(1135, 460)","(1128, 462)","(1121, 463)",0.24,1.05,120.0,0.33,-0.2,0.39,0.01,-3.0,0.2,0.4,45.9,59.7,102.2,30.65,32.75,87.75,51.64,55.35,80.94
2600,-1441792,97,-56,-1,-1,0,"(1019, 419)","(1024, 441)","(1031, 463)","(1041, 483)","(1056, 501)","(1075, 514)","(1096, 523)","(1119, 528)","(1142, 525)","(1161, 514)","(1174, 496)","(1183, 476)","(1189, 456)","(1191, 435)","(1189, 414)","(1184, 393)","(1178, 373)","(1030, 403)","(1039, 391)","(1055, 385)","(1072, 384)","(1089, 387)","(1113, 379)","(1125, 368)","(1139, 360)","(1154, 357)","(1167, 362)","(1105, 395)","(1110, 409)","(1114, 422)","(1119, 435)","(1100, 448)","(1111, 448)","(1122, 449)","(1131, 443)","(1139, 436)","(1050, 412)","(1058, 404)","(1068, 400)","(1081, 403)","(1071, 408)","(1060, 412)","(1126, 390)","(1134, 381)","(1145, 378)","(1155, 379)","(1148, 385)","(1138, 388)","(1085, 473)","(1099, 466)","(1114, 461)","(1124, 460)","(1132, 455)","(1146, 452)","(1159, 451)","(1151, 471)","(1140, 482)","(1130, 486)","(1120, 489)","(1103, 487)","(1091, 473)","(1115, 466)","(1125, 464)","(1134, 460)","(1154, 453)","(1136, 473)","(1127, 477)","(1117, 479)",0.25,0.8,120.0,0.38,-0.28,0.46,0.05,-4.0,0.21,0.3,65.0,83.1,125.2,39.6,46.0,95.1,86.58,66.7,63.52
2633,-1769472,97,-56,-1,-1,0,"(1025, 415)","(1029, 435)","(1035, 455)","(1044, 475)","(1057, 492)","(1073, 506)","(1093, 517)","(1114, 525)","(1136, 523)","(1155, 513)","(1169, 495)","(1181, 474)","(1189, 453)","(1192, 431)","(1190, 410)","(1185, 389)","(1180, 368)","(1034, 397)","(1042, 387)","(1056, 383)","(1071, 382)","(1086, 385)","(1110, 379)","(1122, 370)","(1136, 362)","(1150, 360)","(1162, 364)","(1102, 391)","(1106, 405)","(1109, 420)","(1113, 434)","(1096, 443)","(1106, 446)","(1116, 447)","(1125, 441)","(1133, 434)","(1054, 402)","(1062, 396)","(1071, 393)","(1082, 396)","(1073, 399)","(1064, 401)","(1123, 385)","(1131, 378)","(1140, 375)","(1148, 376)","(1142, 380)","(1133, 383)","(1082, 467)","(1096, 463)","(1109, 460)","(1118, 459)","(1127, 455)","(1140, 451)","(1154, 448)","(1145, 464)","(1134, 474)","(1125, 477)","(1115, 479)","(1100, 478)","(1087, 467)","(1110, 463)","(1120, 462)","(1129, 458)","(1150, 450)","(1131, 467)","(1122, 470)","(1112, 472)",0.2,0.85,120.0,0.34,-0.25,0.46,0.03,-2.5,0.2,0.32,57.8,73.7,114.9,36.9,42.15,94.25,78.94,66.82,74.29
2666,11010048,97,-56,-1,-1,0,"(1034, 399)","(1037, 419)","(1042, 438)","(1048, 456)","(1059, 474)","(1074, 490)","(1091, 503)","(1110, 513)","(1132, 512)","(1152, 504)","(1168, 487)","(1181, 467)","(1190, 446)","(1193, 424)","(1192, 402)","(1189, 380)","(1184, 358)","(1037, 394)","(1044, 385)","(1057, 381)","(1071, 381)","(1086, 384)","(1104, 379)","(1117, 370)","(1132, 362)","(1148, 360)","(1162, 365)","(1098, 389)","(1101, 403)","(1104, 418)","(1107, 434)","(1094, 439)","(1102, 442)","(1111, 444)","(1120, 438)","(1128, 432)","(1056, 396)","(1062, 391)","(1071, 389)","(1081, 392)","(1073, 396)","(1064, 398)","(1121, 382)","(1128, 375)","(1137, 373)","(1146, 374)","(1140, 379)","(1131, 381)","(1089, 461)","(1098, 459)","(1108, 457)","(1116, 457)","(1124, 454)","(1136, 450)","(1150, 447)","(1140, 459)","(1130, 465)","(1121, 468)","(1113, 469)","(1102, 468)","(1093, 461)","(1109, 460)","(1117, 460)","(1125, 457)","(1146, 448)","(1127, 459)","(1119, 462)","(1110, 462)",0.25,0.99,120.0,0.33,-0.21,0.4,0.01,-4.5,0.2,0.36,51.4,67.3,108.7,33.9,36.55,92.25,74.05,69.0,87.05
2700,-1835008,97,-56,-1,-1,0,"(1030, 396)","(1035, 415)","(1041, 433)","(1048, 450)","(1057, 467)","(1071, 483)","(1088, 496)","(1107, 506)","(1127, 506)","(1147, 499)","(1164, 484)","(1177, 466)","(1186, 445)","(1190, 424)","(1189, 402)","(1186, 379)","(1182, 357)","(1033, 392)","(1039, 383)","(1053, 379)","(1067, 380)","(1081, 383)","(1102, 377)","(1115, 367)","(1130, 360)","(1147, 358)","(1161, 363)","(1095, 389)","(1097, 404)","(1100, 419)","(1103, 435)","(1091, 441)","(1099, 444)","(1108, 445)","(1116, 440)","(1124, 434)","(1052, 396)","(1058, 390)","(1068, 388)","(1078, 392)","(1069, 396)","(1060, 398)","(1119, 382)","(1126, 374)","(1136, 372)","(1146, 373)","(1139, 379)","(1129, 382)","(1089, 463)","(1097, 461)","(1105, 459)","(1113, 460)","(1120, 456)","(1131, 453)","(1146, 450)","(1136, 461)","(1126, 467)","(1118, 470)","(1110, 470)","(1101, 469)","(1093, 463)","(1106, 462)","(1114, 462)","(1122, 459)","(1141, 452)","(1123, 460)","(1116, 463)","(1108, 463)",0.28,1.05,120.0,0.34,-0.2,0.37,0.01,-5.5,0.19,0.39,47.7,62.9,103.8,33.9,37.45,96.3,62.05,59.29,80.05
2733,-1703936,97,-56,-1,-1,0,"(1025, 397)","(1030, 415)","(1037, 433)","(1045, 450)","(1054, 467)","(1067, 483)","(1082, 497)","(1100, 508)","(1120, 509)","(1141, 502)","(1158, 487)","(1172, 469)","(1182, 448)","(1186, 425)","(1186, 403)","(1184, 379)","(1179, 357)","(1026, 391)","(1033, 381)","(1046, 379)","(1061, 380)","(1075, 383)","(1096, 377)","(1109, 367)","(1125, 359)","(1142, 357)","(1157, 361)","(1088, 389)","(1091, 404)","(1094, 420)","(1096, 437)","(1084, 442)","(1093, 445)","(1101, 447)","(1110, 441)","(1118, 435)","(1045, 396)","(1052, 390)","(1061, 388)","(1072, 392)","(1063, 396)","(1053, 398)","(1114, 382)","(1121, 374)","(1131, 371)","(1142, 373)","(1134, 379)","(1124, 382)","(1082, 465)","(1091, 462)","(1098, 460)","(1106, 461)","(1114, 457)","(1125, 455)","(1140, 452)","(1129, 465)","(1119, 471)","(1111, 473)","(1103, 474)","(1094, 472)","(1087, 465)","(1100, 464)","(1108, 464)","(1116, 461)","(1135, 454)","(1116, 462)","(1108, 465)","(1101, 465)",0.29,1.01,120.0,0.35,-0.2,0.37,0.01,-5.5,0.19,0.4,49.0,63.3,106.2,34.3,36.6,96.65,61.29,60.82,84.17
2766,-1507328,97,-56,-1,-1,0,"(1013, 399)","(1016, 419)","(1022, 438)","(1029, 457)","(1039, 476)","(1054, 492)","(1072, 506)","(1093, 515)","(1116, 515)","(1137, 508)","(1155, 492)","(1169, 474)","(1178, 452)","(1181, 430)","(1179, 407)","(1175, 383)","(1170, 360)","(1017, 394)","(1025, 383)","(1039, 379)","(1054, 380)","(1070, 383)","(1089, 376)","(1103, 366)","(1118, 358)","(1136, 356)","(1150, 362)","(1083, 388)","(1085, 404)","(1088, 419)","(1091, 436)","(1079, 443)","(1087, 446)","(1096, 448)","(1105, 442)","(1113, 436)","(1038, 397)","(1045, 391)","(1055, 389)","(1066, 392)","(1056, 397)","(1046, 399)","(1107, 382)","(1115, 374)","(1125, 371)","(1135, 372)","(1128, 379)","(1118, 381)","(1076, 469)","(1085, 466)","(1093, 463)","(1101, 464)","(1108, 460)","(1120, 457)","(1134, 455)","(1124, 466)","(1114, 471)","(1106, 474)","(1098, 475)","(1089, 475)","(1081, 468)","(1095, 468)","(1102, 467)","(1110, 464)","(1129, 457)","(1111, 463)","(1104, 466)","(1096, 467)",0.27,1.01,120.0,0.35,-0.21,0.36,0.01,-5.5,0.19,0.37,52.7,67.8,109.3,35.95,39.3,98.55,65.82,64.35,85.64
2800,-262144,97,-56,-1,-1,0,"(1008, 398)","(1014, 418)","(1021, 437)","(1029, 455)","(1039, 474)","(1053, 491)","(1070, 505)","(1089, 516)","(1111, 516)","(1133, 509)","(1151, 493)","(1166, 474)","(1175, 452)","(1178, 428)","(1176, 405)","(1172, 380)","(1166, 356)","(1011, 395)","(1017, 384)","(1031, 380)","(1046, 380)","(1061, 383)","(1082, 375)","(1096, 365)","(1112, 357)","(1130, 354)","(1145, 361)","(1075, 388)","(1078, 404)","(1081, 421)","(1083, 438)","(1072, 445)","(1080, 447)","(1089, 449)","(1098, 443)","(1106, 437)","(1031, 398)","(1038, 392)","(1048, 389)","(1059, 393)","(1049, 397)","(1040, 400)","(1101, 382)","(1108, 374)","(1119, 370)","(1129, 372)","(1122, 379)","(1112, 382)","(1070, 470)","(1078, 468)","(1086, 465)","(1095, 466)","(1102, 461)","(1114, 459)","(1130, 457)","(1119, 469)","(1109, 476)","(1100, 478)","(1092, 479)","(1082, 478)","(1075, 470)","(1088, 469)","(1096, 469)","(1104, 466)","(1124, 459)","(1106, 467)","(1098, 470)","(1090, 470)",0.3,1.06,120.0,0.35,-0.22,0.37,0.01,-5.0,0.19,0.39,56.5,71.4,113.5,38.55,41.95,99.55,64.41,62.41,84.23
2833,2621440,97,-56,-1,-1,0,"(985, 416)","(988, 440)","(993, 463)","(1001, 486)","(1014, 507)","(1032, 525)","(1054, 539)","(1079, 549)","(1105, 548)","(1129, 537)","(1148, 517)","(1162, 493)","(1173, 468)","(1177, 442)","(1176, 415)","(1172, 389)","(1166, 364)","(989, 400)","(998, 386)","(1014, 380)","(1033, 380)","(1051, 383)","(1076, 374)","(1092, 362)","(1110, 354)","(1129, 353)","(1144, 361)","(1068, 388)","(1072, 404)","(1075, 420)","(1079, 437)","(1061, 451)","(1072, 453)","(1083, 454)","(1093, 448)","(1102, 441)","(1014, 403)","(1023, 395)","(1034, 391)","(1047, 395)","(1036, 399)","(1025, 403)","(1094, 382)","(1104, 373)","(1115, 370)","(1125, 372)","(1117, 378)","(1106, 381)","(1048, 484)","(1061, 476)","(1075, 471)","(1085, 471)","(1095, 466)","(1110, 462)","(1126, 461)","(1116, 478)","(1104, 488)","(1093, 493)","(1082, 495)","(1066, 494)","(1054, 484)","(1077, 477)","(1087, 475)","(1097, 471)","(1121, 463)","(1100, 479)","(1090, 483)","(1080, 486)",0.25,0.88,120.0,0.35,-0.22,0.43,0.03,-4.5,0.18,0.3,58.6,71.2,111.3,43.05,49.45,102.35,90.47,76.0,81.29
2866,2686976,97,-56,-1,-1,0,"(987, 411)","(992, 432)","(999, 452)","(1008, 471)","(1020, 490)","(1036, 507)","(1055, 520)","(1077, 530)","(1101, 529)","(1124, 521)","(1144, 504)","(1160, 483)","(1170, 459)","(1173, 433)","(1171, 408)","(1167, 382)","(1161, 356)","(987, 398)","(994, 387)","(1008, 383)","(1025, 383)","(1041, 386)","(1064, 377)","(1079, 365)","(1096, 357)","(1116, 354)","(1132, 360)","(1057, 391)","(1061, 408)","(1064, 425)","(1068, 443)","(1056, 452)","(1065, 455)","(1074, 456)","(1084, 450)","(1092, 443)","(1010, 403)","(1017, 396)","(1028, 393)","(1040, 396)","(1030, 402)","(1019, 405)","(1086, 384)","(1094, 375)","(1105, 372)","(1117, 374)","(1109, 380)","(1098, 383)","(1055, 479)","(1064, 476)","(1073, 473)","(1081, 473)","(1089, 468)","(1103, 465)","(1119, 463)","(1108, 476)","(1097, 483)","(1088, 486)","(1080, 487)","(1069, 486)","(1061, 479)","(1075, 477)","(1083, 476)","(1092, 473)","(1114, 465)","(1093, 473)","(1085, 477)","(1076, 477)",0.27,1.06,120.0,0.34,-0.22,0.36,0.02,-5.5,0.2,0.37,62.3,77.1,116.4,42.9,48.45,104.5,75.0,68.41,83.0
2900,-196608,97,-56,-1,-1,0,"(967, 430)","(971, 453)","(979, 477)","(989, 500)","(1004, 521)","(1023, 539)","(1045, 553)","(1071, 562)","(1097, 561)","(1122, 549)","(1140, 528)","(1155, 503)","(1164, 475)","(1167, 447)","(1164, 419)","(1158, 393)","(1150, 366)","(972, 408)","(979, 394)","(994, 387)","(1012, 385)","(1030, 388)","(1057, 377)","(1072, 365)","(1089, 356)","(1108, 354)","(1124, 361)","(1049, 393)","(1054, 410)","(1058, 426)","(1062, 443)","(1047, 459)","(1057, 461)","(1068, 461)","(1078, 454)","(1086, 447)","(998, 411)","(1005, 403)","(1016, 399)","(1029, 401)","(1019, 406)","(1008, 411)","(1076, 386)","(1085, 377)","(1096, 374)","(1107, 375)","(1099, 381)","(1089, 384)","(1035, 496)","(1049, 487)","(1061, 481)","(1072, 480)","(1082, 475)","(1097, 470)","(1115, 468)","(1104, 486)","(1092, 495)","(1082, 500)","(1071, 503)","(1055, 504)","(1041, 494)","(1064, 487)","(1074, 484)","(1084, 480)","(1109, 470)","(1088, 486)","(1078, 491)","(1067, 494)",0.23,0.89,120.0,0.33,-0.27,0.43,0.03,-3.5,0.2,0.29,67.0,81.0,122.0,45.15,50.85,106.2,98.82,83.0,90.35
2933,-851968,97,-56,-1,-1,0,"(972, 418)","(977, 440)","(984, 460)","(993, 480)","(1005, 501)","(1021, 519)","(1040, 533)","(1062, 544)","(1087, 543)","(1111, 534)","(1132, 516)","(1148, 494)","(1159, 469)","(1162, 442)","(1160, 414)","(1154, 387)","(1147, 360)","(967, 405)","(973, 392)","(987, 388)","(1003, 387)","(1020, 391)","(1046, 381)","(1061, 368)","(1079, 359)","(1100, 357)","(1117, 362)","(1038, 397)","(1042, 415)","(1045, 433)","(1049, 451)","(1038, 462)","(1047, 464)","(1057, 465)","(1066, 458)","(1075, 452)","(990, 410)","(997, 403)","(1009, 400)","(1021, 403)","(1011, 409)","(1000, 412)","(1069, 390)","(1077, 380)","(1089, 377)","(1101, 378)","(1093, 385)","(1081, 389)","(1039, 492)","(1047, 487)","(1056, 483)","(1064, 483)","(1073, 478)","(1087, 475)","(1105, 473)","(1094, 487)","(1082, 495)","(1073, 498)","(1064, 500)","(1053, 499)","(1045, 492)","(1058, 489)","(1067, 487)","(1075, 484)","(1099, 475)","(1078, 486)","(1069, 489)","(1061, 490)",0.27,1.1,120.0,0.35,-0.25,0.37,0.02,-5.5,0.21,0.36,67.5,82.2,122.9,46.55,51.85,109.9,77.35,70.11,87.64
2966,-524288,97,-56,-1,-1,0,"(958, 419)","(964, 442)","(973, 464)","(984, 485)","(997, 506)","(1014, 524)","(1034, 540)","(1056, 551)","(1081, 551)","(1106, 541)","(1126, 522)","(1143, 498)","(1154, 471)","(1157, 442)","(1154, 414)","(1148, 384)","(1140, 355)","(956, 408)","(961, 396)","(976, 391)","(993, 391)","(1010, 394)","(1037, 383)","(1052, 369)","(1071, 359)","(1092, 355)","(1110, 360)","(1029, 401)","(1033, 419)","(1037, 437)","(1041, 455)","(1030, 467)","(1039, 470)","(1049, 470)","(1059, 463)","(1068, 456)","(979, 415)","(987, 408)","(998, 405)","(1012, 408)","(1001, 414)","(989, 417)","(1060, 393)","(1069, 383)","(1081, 378)","(1094, 379)","(1085, 388)","(1073, 392)","(1032, 499)","(1040, 494)","(1048, 490)","(1057, 490)","(1065, 484)","(1080, 481)","(1098, 478)","(1087, 494)","(1075, 502)","(1066, 506)","(1057, 508)","(1046, 507)","(1037, 498)","(1051, 496)","(1059, 494)","(1068, 490)","(1091, 481)","(1070, 492)","(1062, 496)","(1053, 497)",0.28,1.13,121.0,0.36,-0.27,0.36,0.02,-5.5,0.21,0.36,77.6,92.5,135.2,49.45,53.8,111.95,73.35,66.29,83.64
3000,-262144,97,-56,-1,-1,0,"(938, 428)","(945, 452)","(954, 475)","(966, 498)","(981, 520)","(1001, 539)","(1024, 553)","(1048, 563)","(1074, 561)","(1099, 551)","(1119, 531)","(1135, 508)","(1144, 481)","(1146, 453)","(1142, 424)","(1136, 395)","(1127, 367)","(943, 416)","(950, 402)","(966, 396)","(984, 395)","(1001, 398)","(1025, 388)","(1040, 374)","(1059, 364)","(1080, 360)","(1098, 367)","(1019, 404)","(1023, 422)","(1027, 441)","(1031, 460)","(1020, 472)","(1029, 475)","(1039, 475)","(1050, 468)","(1059, 461)","(968, 421)","(975, 413)","(987, 409)","(1000, 412)","(990, 418)","(978, 422)","(1048, 396)","(1057, 386)","(1069, 382)","(1081, 384)","(1073, 391)","(1061, 395)","(1021, 506)","(1029, 501)","(1038, 496)","(1048, 495)","(1057, 490)","(1072, 487)","(1091, 485)","(1079, 500)","(1068, 508)","(1058, 512)","(1048, 514)","(1036, 513)","(1027, 506)","(1041, 501)","(1050, 500)","(1060, 495)","(1085, 488)","(1063, 498)","(1053, 502)","(1044, 503)",0.28,1.09,122.0,0.34,-0.28,0.37,0.01,-5.0,0.21,0.35,76.0,90.3,130.9,51.85,57.75,116.4,80.35,76.23,96.35
3033,-917504,100,-56,-1,-1,0,"(913, 430)","(920, 457)","(929, 484)","(942, 510)","(959, 535)","(982, 555)","(1008, 571)","(1036, 582)","(1067, 580)","(1094, 567)","(1117, 543)","(1134, 516)","(1145, 485)","(1147, 453)","(1144, 423)","(1137, 392)","(1129, 361)","(924, 417)","(933, 405)","(951, 400)","(970, 400)","(990, 403)","(1017, 391)","(1034, 376)","(1053, 365)","(1076, 360)","(1096, 365)","(1010, 409)","(1015, 427)","(1019, 446)","(1024, 465)","(1010, 479)","(1021, 482)","(1032, 482)","(1043, 474)","(1052, 467)","(952, 426)","(961, 419)","(974, 414)","(989, 416)","(977, 424)","(964, 428)","(1042, 399)","(1052, 389)","(1065, 385)","(1077, 386)","(1069, 394)","(1056, 398)","(1007, 519)","(1018, 508)","(1030, 502)","(1040, 501)","(1050, 495)","(1067, 491)","(1086, 490)","(1075, 510)","(1062, 521)","(1051, 526)","(1041, 528)","(1026, 528)","(1014, 517)","(1033, 508)","(1043, 505)","(1053, 501)","(1079, 493)","(1057, 509)","(1047, 514)","(1037, 516)",0.26,0.96,122.0,0.33,-0.26,0.36,0.03,-5.0,0.19,0.32,79.6,93.5,133.0,48.65,56.65,113.6,98.47,86.94,100.47
3066,-1507328,100,-56,-1,-1,0,"(915, 435)","(920, 462)","(929, 488)","(940, 514)","(956, 540)","(977, 561)","(1001, 579)","(1028, 592)","(1057, 591)","(1086, 577)","(1109, 553)","(1128, 526)","(1140, 495)","(1144, 463)","(1141, 431)","(1135, 399)","(1127, 367)","(915, 420)","(923, 408)","(939, 403)","(958, 403)","(978, 406)","(1008, 393)","(1026, 377)","(1047, 365)","(1070, 361)","(1091, 366)","(1000, 414)","(1004, 433)","(1009, 452)","(1013, 472)","(998, 487)","(1009, 489)","(1021, 490)","(1033, 482)","(1043, 474)","(942, 431)","(951, 423)","(965, 419)","(980, 422)","(967, 429)","(954, 433)","(1034, 404)","(1044, 392)","(1058, 388)","(1072, 389)","(1063, 398)","(1049, 402)","(991, 525)","(1003, 516)","(1017, 510)","(1028, 509)","(1040, 503)","(1059, 499)","(1079, 497)","(1067, 519)","(1051, 532)","(1038, 537)","(1026, 539)","(1010, 538)","(999, 524)","(1020, 516)","(1031, 514)","(1043, 510)","(1072, 500)","(1046, 519)","(1034, 524)","(1022, 527)",0.27,0.99,123.0,0.35,-0.26,0.41,0.04,-6.0,0.2,0.32,80.5,95.1,136.5,50.8,59.35,113.75,96.64,87.94,99.52
3100,-1703936,100,-56,-1,-1,0,"(890, 438)","(895, 467)","(904, 494)","(916, 522)","(935, 548)","(958, 570)","(985, 589)","(1015, 602)","(1047, 600)","(1076, 587)","(1099, 562)","(1119, 535)","(1132, 503)","(1136, 469)","(1131, 435)","(1124, 402)","(1115, 369)","(897, 420)","(907, 408)","(925, 404)","(945, 404)","(966, 407)","(1000, 393)","(1018, 377)","(1039, 365)","(1062, 360)","(1083, 365)","(991, 417)","(996, 436)","(1001, 456)","(1006, 476)","(989, 491)","(1001, 494)","(1014, 495)","(1025, 487)","(1035, 479)","(927, 436)","(936, 427)","(951, 422)","(967, 426)","(954, 434)","(940, 438)","(1026, 407)","(1036, 396)","(1049, 391)","(1063, 392)","(1055, 402)","(1041, 406)","(981, 532)","(994, 524)","(1008, 518)","(1020, 517)","(1031, 511)","(1051, 507)","(1072, 505)","(1059, 529)","(1044, 542)","(1031, 547)","(1019, 549)","(1001, 547)","(988, 532)","(1011, 525)","(1023, 523)","(1034, 518)","(1065, 508)","(1038, 530)","(1026, 535)","(1014, 537)",0.29,1.0,123.0,0.34,-0.25,0.4,0.04,-6.5,0.19,0.32,91.7,107.4,148.1,51.4,58.1,113.6,98.7,89.88,104.41
3133,-1638400,100,-56,-1,-1,0,"(896, 448)","(901, 475)","(911, 500)","(924, 526)","(941, 551)","(963, 572)","(988, 590)","(1016, 603)","(1046, 601)","(1076, 588)","(1100, 564)","(1119, 536)","(1131, 505)","(1134, 471)","(1129, 437)","(1121, 403)","(1110, 370)","(894, 430)","(900, 416)","(916, 410)","(935, 409)","(954, 412)","(985, 398)","(1002, 381)","(1023, 369)","(1047, 365)","(1069, 371)","(978, 421)","(983, 441)","(988, 461)","(992, 482)","(981, 496)","(991, 499)","(1003, 499)","(1015, 491)","(1026, 483)","(922, 443)","(930, 435)","(942, 430)","(958, 430)","(946, 438)","(934, 443)","(1014, 412)","(1024, 402)","(1036, 398)","(1051, 397)","(1042, 405)","(1029, 410)","(984, 536)","(992, 528)","(1002, 521)","(1014, 521)","(1024, 515)","(1043, 512)","(1065, 511)","(1052, 531)","(1038, 541)","(1026, 545)","(1015, 547)","(1001, 546)","(991, 535)","(1006, 528)","(1017, 527)","(1028, 522)","(1058, 513)","(1032, 528)","(1021, 533)","(1010, 534)",0.23,1.13,124.0,0.34,-0.29,0.37,0.02,-3.0,0.22,0.33,91.1,104.9,145.8,63.35,70.5,123.65,88.52,80.94,97.17
3166,1245184,100,-56,-1,-1,0,"(879, 456)","(888, 484)","(900, 511)","(914, 538)","(932, 563)","(955, 583)","(982, 599)","(1009, 611)","(1039, 608)","(1069, 595)","(1093, 572)","(1112, 545)","(1124, 514)","(1127, 480)","(1122, 445)","(1114, 411)","(1104, 378)","(884, 440)","(891, 423)","(908, 415)","(929, 412)","(950, 415)","(976, 402)","(994, 386)","(1016, 375)","(1041, 372)","(1063, 380)","(970, 423)","(975, 443)","(979, 463)","(984, 484)","(974, 501)","(984, 503)","(995, 503)","(1006, 495)","(1016, 487)","(915, 447)","(923, 438)","(936, 432)","(951, 435)","(940, 443)","(927, 448)","(1007, 415)","(1016, 405)","(1029, 400)","(1043, 401)","(1034, 410)","(1020, 415)","(979, 544)","(986, 534)","(996, 527)","(1006, 526)","(1016, 520)","(1034, 518)","(1054, 518)","(1042, 536)","(1029, 545)","(1018, 549)","(1007, 551)","(995, 551)","(986, 542)","(999, 534)","(1010, 532)","(1020, 527)","(1047, 520)","(1023, 532)","(1013, 536)","(1002, 538)",0.28,1.08,125.0,0.32,-0.29,0.33,0.02,-5.0,0.2,0.32,70.7,83.0,121.0,59.45,63.8,119.2,85.23,78.88,95.47
3200,-2293760,100,-56,-1,-1,0,"(876, 458)","(885, 485)","(897, 513)","(912, 539)","(928, 565)","(949, 588)","(972, 607)","(998, 622)","(1029, 620)","(1060, 607)","(1086, 581)","(1108, 552)","(1122, 518)","(1125, 482)","(1120, 445)","(1111, 408)","(1100, 372)","(875, 442)","(880, 425)","(896, 417)","(915, 415)","(936, 417)","(966, 402)","(985, 385)","(1007, 373)","(1033, 369)","(1057, 377)","(958, 425)","(962, 446)","(966, 468)","(970, 490)","(963, 507)","(973, 509)","(983, 509)","(994, 500)","(1005, 493)","(904, 449)","(910, 438)","(924, 433)","(941, 436)","(928, 445)","(915, 451)","(998, 416)","(1007, 404)","(1022, 398)","(1037, 400)","(1028, 411)","(1013, 416)","(968, 553)","(974, 543)","(984, 535)","(995, 534)","(1005, 528)","(1024, 525)","(1045, 525)","(1033, 546)","(1019, 558)","(1007, 563)","(996, 565)","(983, 563)","(975, 551)","(988, 543)","(998, 541)","(1009, 536)","(1038, 528)","(1013, 543)","(1002, 548)","(991, 550)",0.32,1.12,125.0,0.33,-0.32,0.34,0.03,-7.0,0.2,0.33,82.2,95.3,134.6,57.85,62.65,118.7,99.29,90.23,107.0
3233,-2162688,100,-56,-1,-1,0,"(862, 467)","(870, 496)","(882, 524)","(896, 553)","(914, 580)","(936, 603)","(963, 621)","(991, 634)","(1024, 631)","(1056, 617)","(1082, 591)","(1103, 561)","(1116, 527)","(1118, 491)","(1111, 454)","(1102, 418)","(1091, 383)","(861, 448)","(865, 430)","(882, 420)","(903, 417)","(924, 419)","(954, 405)","(973, 388)","(997, 377)","(1023, 375)","(1045, 385)","(946, 430)","(951, 451)","(956, 472)","(961, 494)","(952, 513)","(962, 515)","(974, 515)","(986, 506)","(997, 498)","(891, 456)","(898, 446)","(911, 440)","(928, 442)","(916, 452)","(903, 457)","(987, 422)","(996, 410)","(1011, 405)","(1025, 407)","(1016, 417)","(1002, 421)","(959, 562)","(965, 550)","(975, 541)","(986, 540)","(997, 533)","(1017, 531)","(1039, 531)","(1028, 550)","(1013, 561)","(1001, 566)","(989, 568)","(975, 568)","(966, 560)","(979, 550)","(990, 547)","(1002, 542)","(1032, 534)","(1007, 547)","(995, 552)","(984, 554)",0.31,1.11,126.0,0.32,-0.31,0.34,0.02,-6.5,0.22,0.31,81.5,95.9,132.7,61.85,64.75,119.6,93.41,86.88,103.23
3266,-1835008,100,-56,-1,-1,0,"(853, 473)","(863, 502)","(876, 530)","(893, 557)","(911, 584)","(934, 607)","(960, 625)","(987, 639)","(1019, 637)","(1051, 623)","(1077, 596)","(1098, 565)","(1111, 530)","(1113, 492)","(1107, 455)","(1097, 417)","(1085, 380)","(846, 450)","(850, 431)","(867, 421)","(888, 419)","(910, 421)","(940, 406)","(960, 388)","(985, 375)","(1012, 373)","(1037, 382)","(933, 433)","(939, 454)","(944, 476)","(949, 498)","(942, 519)","(952, 520)","(964, 519)","(975, 511)","(985, 503)","(877, 458)","(884, 447)","(898, 441)","(916, 445)","(902, 454)","(888, 460)","(976, 424)","(985, 410)","(1001, 405)","(1016, 407)","(1007, 418)","(991, 423)","(952, 568)","(956, 555)","(966, 546)","(977, 545)","(987, 538)","(1008, 536)","(1031, 538)","(1019, 558)","(1003, 569)","(991, 574)","(980, 577)","(967, 576)","(959, 566)","(970, 555)","(980, 553)","(992, 548)","(1024, 541)","(997, 554)","(985, 559)","(974, 561)",0.32,1.16,126.0,0.33,-0.32,0.34,0.02,-7.5,0.22,0.31,97.9,110.9,148.2,65.8,68.15,124.0,94.11,88.64,105.05
3300,-327680,100,-56,-1,-1,0,"(829, 478)","(838, 508)","(852, 539)","(869, 568)","(889, 597)","(914, 620)","(943, 639)","(973, 653)","(1008, 650)","(1040, 635)","(1065, 607)","(1083, 574)","(1094, 538)","(1095, 500)","(1089, 462)","(1081, 424)","(1069, 388)","(829, 457)","(835, 437)","(853, 427)","(875, 423)","(898, 424)","(930, 409)","(950, 391)","(975, 380)","(1002, 378)","(1026, 389)","(923, 435)","(929, 457)","(934, 479)","(939, 502)","(929, 524)","(940, 525)","(953, 524)","(964, 516)","(975, 508)","(861, 463)","(869, 452)","(884, 446)","(901, 449)","(888, 459)","(874, 465)","(964, 428)","(974, 415)","(990, 410)","(1005, 412)","(995, 423)","(980, 428)","(936, 577)","(943, 564)","(953, 553)","(965, 553)","(976, 545)","(996, 544)","(1019, 546)","(1008, 567)","(993, 578)","(981, 583)","(969, 586)","(954, 586)","(944, 576)","(958, 564)","(969, 561)","(981, 556)","(1011, 549)","(986, 562)","(975, 567)","(963, 570)",0.32,1.06,126.0,0.33,-0.31,0.34,0.02,-7.5,0.21,0.31,91.7,103.0,139.7,64.25,67.1,122.2,92.0,87.35,108.11
3333,2031616,100,-56,-1,-1,0,"(827, 482)","(838, 514)","(852, 544)","(868, 574)","(887, 602)","(910, 627)","(936, 648)","(964, 663)","(997, 660)","(1031, 646)","(1057, 618)","(1077, 584)","(1090, 547)","(1093, 509)","(1087, 469)","(1079, 429)","(1069, 391)","(821, 463)","(824, 442)","(842, 431)","(864, 427)","(886, 428)","(921, 414)","(943, 396)","(968, 385)","(997, 383)","(1020, 395)","(912, 441)","(917, 463)","(922, 486)","(927, 509)","(918, 530)","(929, 532)","(942, 531)","(954, 522)","(965, 514)","(853, 470)","(861, 459)","(875, 453)","(893, 455)","(880, 465)","(866, 471)","(956, 433)","(966, 422)","(981, 417)","(997, 418)","(987, 429)","(972, 433)","(928, 587)","(932, 572)","(942, 562)","(954, 561)","(966, 554)","(987, 553)","(1010, 556)","(999, 579)","(983, 591)","(970, 596)","(957, 598)","(943, 596)","(935, 585)","(947, 572)","(958, 570)","(970, 565)","(1003, 559)","(975, 573)","(963, 579)","(952, 580)",0.29,1.12,127.0,0.33,-0.33,0.33,0.03,-6.5,0.21,0.31,68.0,81.4,123.5,64.15,67.15,122.1,95.82,91.23,109.64
3366,262144,100,-56,-1,-1,0,"(806, 476)","(812, 510)","(823, 543)","(839, 575)","(859, 606)","(884, 632)","(914, 656)","(946, 672)","(981, 671)","(1015, 656)","(1044, 628)","(1068, 594)","(1085, 556)","(1092, 514)","(1088, 472)","(1079, 429)","(1067, 388)","(801, 450)","(808, 434)","(826, 429)","(848, 428)","(870, 431)","(913, 414)","(935, 395)","(962, 380)","(991, 376)","(1018, 384)","(901, 447)","(906, 470)","(910, 492)","(915, 516)","(902, 539)","(915, 541)","(929, 540)","(942, 532)","(955, 524)","(833, 471)","(843, 462)","(860, 456)","(879, 459)","(864, 470)","(847, 475)","(947, 437)","(959, 425)","(976, 419)","(994, 420)","(983, 432)","(965, 438)","(905, 591)","(914, 580)","(927, 571)","(939, 571)","(952, 564)","(977, 562)","(1003, 562)","(988, 589)","(969, 603)","(954, 608)","(940, 610)","(923, 607)","(913, 590)","(931, 583)","(943, 581)","(957, 576)","(994, 565)","(962, 585)","(948, 590)","(935, 591)",0.29,1.16,127.0,0.35,-0.27,0.37,0.03,-7.5,0.2,0.3,96.2,110.6,148.7,60.8,65.5,118.95,96.58,89.76,106.29
3400,-1572864,100,-56,-1,-1,0,"(787, 487)","(796, 521)","(810, 554)","(828, 587)","(851, 618)","(879, 643)","(911, 663)","(944, 679)","(979, 677)","(1014, 660)","(1044, 629)","(1070, 595)","(1086, 557)","(1090, 514)","(1084, 471)","(1075, 428)","(1062, 385)","(781, 463)","(789, 444)","(810, 436)","(834, 435)","(859, 437)","(894, 420)","(918, 399)","(948, 384)","(981, 378)","(1012, 388)","(886, 449)","(891, 473)","(896, 497)","(901, 523)","(891, 546)","(904, 548)","(918, 547)","(931, 538)","(944, 528)","(816, 476)","(826, 464)","(845, 458)","(865, 464)","(849, 475)","(830, 480)","(934, 440)","(947, 423)","(967, 417)","(987, 419)","(974, 434)","(954, 440)","(900, 601)","(907, 589)","(919, 579)","(931, 579)","(943, 571)","(967, 568)","(995, 567)","(980, 593)","(963, 607)","(949, 613)","(936, 615)","(920, 613)","(908, 600)","(923, 590)","(935, 587)","(948, 581)","(985, 571)","(954, 589)","(942, 594)","(929, 597)",0.32,1.19,127.0,0.36,-0.28,0.34,0.03,-11.0,0.21,0.32,101.8,113.4,150.2,59.95,64.0,119.5,97.94,90.0,105.05
3433,-1703936,100,-56,-1,-1,0,"(786, 489)","(794, 523)","(807, 556)","(824, 588)","(843, 620)","(869, 648)","(898, 672)","(931, 689)","(968, 688)","(1005, 673)","(1038, 643)","(1065, 608)","(1083, 568)","(1088, 525)","(1084, 480)","(1075, 436)","(1062, 393)","(781, 463)","(789, 445)","(809, 439)","(832, 437)","(856, 439)","(896, 421)","(921, 400)","(950, 386)","(982, 382)","(1011, 390)","(885, 452)","(889, 477)","(893, 502)","(897, 529)","(888, 552)","(899, 555)","(913, 554)","(926, 545)","(939, 536)","(814, 479)","(824, 468)","(843, 462)","(863, 466)","(847, 478)","(829, 483)","(934, 443)","(947, 427)","(966, 421)","(985, 423)","(973, 437)","(954, 443)","(890, 610)","(898, 597)","(911, 587)","(924, 587)","(936, 578)","(961, 576)","(988, 576)","(973, 601)","(954, 615)","(940, 620)","(926, 623)","(909, 621)","(899, 609)","(915, 599)","(928, 596)","(941, 591)","(978, 579)","(947, 596)","(933, 601)","(920, 604)",0.31,1.13,127.0,0.36,-0.28,0.35,0.02,-10.0,0.19,0.32,98.9,111.5,147.9,58.4,61.05,114.7,101.76,94.29,110.64
3466,-1310720,100,-56,-1,-1,0,"(785, 488)","(792, 520)","(805, 552)","(822, 583)","(840, 616)","(864, 645)","(892, 671)","(923, 692)","(959, 694)","(997, 679)","(1031, 649)","(1060, 613)","(1080, 571)","(1087, 527)","(1082, 482)","(1072, 437)","(1059, 394)","(772, 465)","(778, 446)","(798, 439)","(821, 439)","(845, 443)","(885, 427)","(910, 407)","(940, 394)","(972, 390)","(1001, 399)","(873, 458)","(877, 483)","(881, 508)","(885, 535)","(874, 555)","(887, 559)","(901, 560)","(915, 550)","(930, 542)","(805, 480)","(814, 470)","(831, 465)","(852, 469)","(835, 478)","(819, 484)","(923, 449)","(935, 435)","(954, 430)","(974, 431)","(961, 443)","(942, 448)","(879, 607)","(888, 597)","(900, 590)","(914, 592)","(927, 584)","(953, 582)","(982, 581)","(963, 606)","(942, 619)","(927, 624)","(912, 625)","(896, 621)","(887, 606)","(904, 601)","(917, 601)","(931, 596)","(973, 584)","(935, 601)","(920, 606)","(907, 607)",0.27,1.24,127.0,0.35,-0.26,0.37,0.02,-8.0,0.2,0.32,91.7,103.9,139.4,53.95,56.85,103.1,96.41,90.17,106.52
3500,-917504,100,-56,-1,-1,0,"(782, 499)","(791, 532)","(805, 564)","(823, 595)","(843, 626)","(867, 655)","(896, 678)","(929, 696)","(966, 695)","(1005, 679)","(1038, 650)","(1066, 614)","(1084, 573)","(1090, 528)","(1084, 482)","(1072, 438)","(1057, 394)","(771, 473)","(775, 453)","(794, 442)","(817, 440)","(842, 441)","(878, 424)","(904, 403)","(934, 389)","(969, 386)","(999, 397)","(869, 457)","(875, 483)","(879, 508)","(884, 535)","(875, 558)","(888, 561)","(902, 561)","(916, 550)","(929, 540)","(805, 486)","(812, 472)","(830, 466)","(850, 471)","(835, 483)","(818, 489)","(921, 447)","(933, 430)","(952, 424)","(972, 427)","(959, 441)","(939, 447)","(884, 616)","(891, 605)","(902, 595)","(915, 594)","(927, 586)","(952, 583)","(982, 581)","(964, 603)","(945, 614)","(932, 620)","(918, 623)","(903, 624)","(893, 614)","(907, 606)","(919, 603)","(932, 597)","(972, 584)","(938, 599)","(924, 605)","(912, 607)",0.33,1.22,127.0,0.34,-0.31,0.35,0.01,-11.0,0.21,0.32,105.8,118.4,155.1,61.8,67.55,111.45,103.76,93.05,104.11
3533,-1310720,100,-56,-1,-1,0,"(784, 488)","(792, 522)","(806, 555)","(824, 588)","(843, 621)","(866, 652)","(894, 679)","(925, 699)","(961, 699)","(1000, 683)","(1034, 652)","(1061, 614)","(1080, 573)","(1087, 528)","(1082, 482)","(1073, 437)","(1060, 392)","(767, 463)","(774, 444)","(793, 437)","(816, 438)","(840, 441)","(882, 423)","(908, 403)","(938, 388)","(972, 384)","(1002, 394)","(869, 456)","(874, 482)","(877, 508)","(881, 535)","(871, 555)","(884, 560)","(898, 560)","(912, 550)","(927, 541)","(800, 479)","(808, 466)","(827, 460)","(848, 468)","(832, 479)","(813, 484)","(921, 445)","(935, 428)","(955, 422)","(975, 426)","(962, 440)","(941, 446)","(879, 614)","(886, 603)","(898, 594)","(911, 595)","(925, 587)","(951, 585)","(981, 585)","(962, 612)","(941, 625)","(926, 630)","(912, 632)","(896, 628)","(888, 613)","(902, 606)","(915, 604)","(930, 599)","(972, 589)","(934, 607)","(919, 612)","(905, 613)",0.33,1.25,127.0,0.36,-0.26,0.36,0.03,-12.5,0.21,0.32,102.4,114.3,151.8,56.05,58.15,114.7,96.82,90.47,107.0
3566,-1441792,100,-56,-1,-1,0,"(776, 487)","(782, 521)","(793, 553)","(809, 586)","(826, 619)","(847, 650)","(873, 678)","(904, 700)","(943, 703)","(986, 691)","(1024, 662)","(1056, 625)","(1078, 582)","(1087, 536)","(1083, 490)","(1073, 444)","(1061, 399)","(764, 462)","(772, 443)","(792, 435)","(817, 434)","(841, 438)","(881, 420)","(907, 399)","(939, 387)","(972, 385)","(1001, 395)","(868, 455)","(872, 481)","(875, 507)","(878, 534)","(863, 554)","(878, 560)","(894, 561)","(910, 551)","(926, 541)","(796, 479)","(806, 468)","(824, 463)","(845, 467)","(828, 478)","(810, 483)","(921, 446)","(934, 433)","(953, 428)","(974, 430)","(959, 442)","(940, 447)","(863, 608)","(874, 599)","(889, 593)","(903, 594)","(918, 587)","(946, 584)","(978, 583)","(955, 611)","(932, 625)","(915, 629)","(899, 630)","(881, 624)","(872, 609)","(892, 605)","(907, 604)","(922, 599)","(968, 587)","(925, 607)","(909, 611)","(894, 612)",0.27,1.22,127.0,0.35,-0.25,0.4,0.02,-9.5,0.2,0.31,99.9,111.0,146.6,57.05,61.65,110.6,108.11,99.17,111.41
3600,-1507328,100,-56,-1,-1,0,"(785, 481)","(794, 516)","(809, 551)","(828, 584)","(848, 618)","(873, 649)","(901, 674)","(932, 693)","(969, 692)","(1007, 676)","(1041, 645)","(1069, 610)","(1089, 570)","(1095, 525)","(1089, 479)","(1080, 432)","(1068, 386)","(772, 457)","(778, 437)","(798, 429)","(822, 427)","(847, 431)","(882, 413)","(909, 392)","(940, 379)","(976, 376)","(1007, 387)","(872, 444)","(876, 470)","(880, 497)","(884, 524)","(877, 548)","(889, 551)","(902, 550)","(915, 541)","(929, 531)","(806, 471)","(814, 458)","(833, 452)","(854, 459)","(837, 471)","(819, 476)","(925, 436)","(938, 418)","(958, 412)","(978, 416)","(965, 431)","(944, 437)","(887, 610)","(891, 596)","(902, 586)","(914, 586)","(926, 577)","(951, 576)","(980, 578)","(964, 602)","(945, 614)","(931, 620)","(917, 622)","(903, 620)","(895, 608)","(906, 597)","(918, 595)","(932, 589)","(970, 581)","(937, 595)","(924, 601)","(911, 603)",0.35,1.23,127.0,0.35,-0.26,0.32,0.02,-13.0,0.2,0.32,105.1,117.6,153.0,59.3,60.8,115.25,102.23,94.29,107.82
3633,-720896,100,-56,-1,-1,0,"(786, 473)","(795, 508)","(810, 541)","(828, 575)","(847, 607)","(871, 637)","(900, 661)","(932, 680)","(968, 680)","(1006, 665)","(1039, 636)","(1066, 602)","(1085, 563)","(1092, 521)","(1088, 476)","(1080, 430)","(1070, 386)","(775, 448)","(782, 428)","(803, 419)","(828, 418)","(853, 421)","(890, 405)","(918, 386)","(950, 373)","(985, 372)","(1016, 384)","(880, 437)","(884, 461)","(887, 487)","(891, 513)","(881, 537)","(893, 540)","(907, 539)","(921, 530)","(935, 522)","(809, 462)","(818, 450)","(837, 445)","(858, 452)","(841, 463)","(823, 468)","(932, 431)","(945, 414)","(965, 409)","(986, 413)","(972, 426)","(951, 432)","(890, 598)","(897, 585)","(907, 575)","(919, 575)","(932, 568)","(956, 568)","(985, 570)","(968, 592)","(949, 604)","(935, 608)","(922, 610)","(907, 608)","(899, 596)","(911, 587)","(923, 585)","(936, 580)","(975, 573)","(942, 586)","(929, 590)","(916, 592)",0.32,1.2,127.0,0.36,-0.24,0.33,0.02,-12.5,0.19,0.31,104.1,116.5,151.2,61.65,63.45,117.35,99.82,92.7,109.35
3666,1245184,100,-56,-1,-1,0,"(788, 470)","(795, 504)","(807, 538)","(823, 570)","(842, 601)","(866, 630)","(897, 654)","(931, 671)","(970, 671)","(1009, 658)","(1042, 631)","(1070, 597)","(1088, 556)","(1093, 513)","(1089, 469)","(1080, 425)","(1068, 384)","(781, 433)","(791, 415)","(812, 409)","(837, 408)","(862, 412)","(899, 396)","(925, 377)","(955, 365)","(987, 362)","(1015, 373)","(890, 429)","(895, 452)","(899, 475)","(904, 499)","(889, 526)","(902, 529)","(917, 529)","(931, 521)","(944, 512)","(813, 454)","(823, 442)","(842, 437)","(862, 443)","(846, 454)","(828, 459)","(938, 423)","(951, 408)","(970, 404)","(990, 407)","(977, 420)","(957, 425)","(892, 590)","(900, 574)","(914, 563)","(927, 564)","(941, 557)","(965, 557)","(993, 562)","(976, 587)","(956, 599)","(941, 604)","(927, 605)","(910, 603)","(901, 588)","(918, 577)","(930, 575)","(945, 570)","(982, 565)","(949, 580)","(935, 585)","(921, 587)",0.32,1.09,127.0,0.35,-0.22,0.36,0.03,-12.0,0.19,0.28,116.8,128.9,162.7,66.6,69.5,122.7,96.52,89.58,104.82
3699,-1507328,100,-56,-1,-1,0,"(809, 461)","(819, 494)","(833, 526)","(850, 558)","(870, 589)","(894, 617)","(923, 640)","(954, 656)","(989, 655)","(1026, 641)","(1057, 613)","(1083, 579)","(1100, 540)","(1105, 498)","(1100, 455)","(1091, 413)","(1080, 371)","(798, 432)","(806, 411)","(828, 402)","(854, 400)","(880, 404)","(910, 389)","(937, 369)","(968, 357)","(1001, 356)","(1029, 368)","(903, 418)","(908, 442)","(913, 466)","(917, 491)","(907, 517)","(919, 519)","(932, 518)","(944, 510)","(957, 502)","(832, 445)","(841, 434)","(859, 428)","(880, 432)","(863, 443)","(846, 449)","(951, 412)","(964, 398)","(983, 394)","(1002, 396)","(989, 409)","(969, 413)","(913, 578)","(920, 564)","(931, 554)","(943, 554)","(954, 546)","(977, 546)","(1002, 547)","(987, 568)","(970, 580)","(957, 585)","(945, 588)","(930, 587)","(921, 576)","(935, 565)","(947, 563)","(959, 558)","(993, 550)","(964, 563)","(951, 568)","(939, 570)",0.29,1.11,127.0,0.36,-0.24,0.32,0.02,-10.0,0.19,0.3,100.5,113.0,146.9,61.35,63.25,116.8,101.41,95.76,111.35
3733,-1179648,100,-56,-1,-1,0,"(813, 455)","(823, 489)","(836, 522)","(854, 555)","(875, 585)","(901, 610)","(932, 630)","(965, 642)","(1000, 640)","(1036, 626)","(1066, 600)","(1090, 569)","(1106, 532)","(1110, 493)","(1105, 452)","(1098, 411)","(1088, 371)","(818, 425)","(827, 405)","(848, 394)","(873, 391)","(898, 394)","(925, 381)","(949, 363)","(978, 352)","(1009, 353)","(1035, 366)","(920, 406)","(924, 428)","(928, 449)","(933, 473)","(923, 501)","(934, 503)","(946, 502)","(958, 495)","(969, 487)","(852, 437)","(861, 427)","(877, 420)","(896, 422)","(882, 432)","(866, 438)","(963, 404)","(975, 393)","(991, 390)","(1009, 392)","(996, 401)","(979, 405)","(928, 563)","(936, 549)","(947, 538)","(958, 538)","(968, 531)","(988, 531)","(1012, 533)","(997, 550)","(982, 559)","(971, 564)","(960, 566)","(946, 568)","(936, 561)","(951, 548)","(961, 546)","(972, 541)","(1003, 535)","(976, 545)","(965, 550)","(955, 552)",0.26,1.02,126.0,0.32,-0.24,0.3,0.01,-6.5,0.17,0.28,86.1,100.5,134.1,57.5,60.2,116.05,99.05,93.52,110.47
3766,-589824,100,-56,-1,-1,0,"(815, 441)","(824, 476)","(837, 510)","(853, 542)","(875, 572)","(904, 595)","(938, 612)","(973, 623)","(1009, 619)","(1044, 607)","(1073, 582)","(1096, 553)","(1111, 517)","(1113, 479)","(1107, 440)","(1098, 402)","(1087, 364)","(821, 408)","(833, 389)","(856, 380)","(882, 379)","(908, 384)","(940, 372)","(963, 354)","(990, 343)","(1020, 342)","(1044, 354)","(933, 399)","(939, 419)","(944, 440)","(949, 461)","(933, 492)","(946, 492)","(960, 491)","(972, 484)","(983, 477)","(854, 426)","(865, 415)","(883, 409)","(903, 414)","(887, 423)","(870, 428)","(973, 396)","(987, 384)","(1004, 381)","(1021, 384)","(1009, 393)","(991, 397)","(932, 550)","(944, 535)","(957, 524)","(968, 524)","(979, 517)","(998, 518)","(1022, 521)","(1008, 537)","(994, 545)","(982, 550)","(970, 552)","(953, 554)","(940, 547)","(960, 536)","(971, 534)","(983, 530)","(1013, 523)","(988, 529)","(976, 533)","(965, 535)",0.26,0.92,126.0,0.35,-0.21,0.33,0.01,-8.5,0.18,0.28,93.3,106.2,140.5,62.05,67.75,129.4,100.64,95.23,111.35
3800,1310720,100,-56,-1,-1,0,"(853, 434)","(859, 465)","(867, 495)","(880, 524)","(898, 552)","(922, 575)","(951, 592)","(983, 602)","(1018, 600)","(1052, 588)","(1083, 566)","(1108, 540)","(1123, 506)","(1127, 469)","(1123, 432)","(1113, 395)","(1102, 359)","(851, 400)","(859, 381)","(878, 372)","(902, 371)","(925, 376)","(956, 364)","(979, 346)","(1006, 335)","(1035, 334)","(1058, 346)","(950, 391)","(954, 410)","(958, 429)","(962, 449)","(950, 479)","(961, 480)","(973, 478)","(985, 472)","(996, 465)","(881, 418)","(891, 409)","(906, 403)","(925, 405)","(910, 414)","(895, 419)","(990, 387)","(1003, 378)","(1019, 375)","(1035, 377)","(1023, 385)","(1007, 388)","(951, 535)","(959, 518)","(970, 507)","(981, 508)","(991, 501)","(1010, 502)","(1031, 508)","(1019, 521)","(1005, 529)","(993, 533)","(981, 536)","(968, 537)","(959, 531)","(973, 519)","(984, 517)","(995, 513)","(1023, 508)","(999, 513)","(988, 517)","(977, 519)",0.23,0.95,126.0,0.35,-0.24,0.32,0.01,-6.0,0.18,0.27,89.2,100.8,137.7,68.55,75.75,138.9,96.35,92.52,111.52
3833,4390912,100,-56,-1,-1,0,"(879, 426)","(886, 453)","(895, 480)","(906, 507)","(920, 534)","(941, 556)","(965, 574)","(993, 586)","(1025, 584)","(1058, 573)","(1085, 551)","(1107, 524)","(1122, 493)","(1126, 459)","(1122, 424)","(1115, 390)","(1107, 357)","(882, 401)","(887, 381)","(904, 370)","(925, 366)","(947, 369)","(970, 358)","(991, 342)","(1016, 334)","(1042, 335)","(1062, 349)","(965, 381)","(969, 399)","(972, 417)","(975, 437)","(965, 462)","(975, 463)","(986, 463)","(997, 456)","(1007, 450)","(911, 410)","(918, 402)","(930, 396)","(946, 395)","(934, 404)","(923, 409)","(1003, 379)","(1013, 372)","(1026, 369)","(1039, 371)","(1029, 377)","(1016, 379)","(967, 514)","(974, 502)","(983, 494)","(993, 494)","(1003, 488)","(1019, 488)","(1039, 491)","(1026, 502)","(1013, 509)","(1003, 512)","(993, 514)","(981, 516)","(973, 512)","(986, 502)","(996, 500)","(1006, 497)","(1032, 492)","(1008, 496)","(998, 499)","(989, 501)",0.21,1.01,125.0,0.31,-0.26,0.31,0.01,-3.5,0.18,0.27,74.9,89.1,126.7,58.8,63.7,127.45,92.64,90.64,109.0
3866,2424832,100,-56,-1,-1,0,"(866, 405)","(871, 442)","(880, 479)","(894, 513)","(913, 545)","(938, 573)","(968, 597)","(1001, 616)","(1035, 618)","(1069, 605)","(1100, 578)","(1126, 544)","(1144, 505)","(1151, 464)","(1148, 422)","(1142, 381)","(1133, 340)","(880, 381)","(892, 364)","(914, 358)","(939, 360)","(963, 367)","(993, 353)","(1016, 335)","(1042, 323)","(1070, 321)","(1092, 331)","(985, 386)","(990, 409)","(993, 432)","(997, 456)","(978, 482)","(991, 484)","(1004, 484)","(1016, 477)","(1028, 469)","(910, 406)","(922, 396)","(939, 392)","(957, 397)","(941, 406)","(924, 410)","(1022, 380)","(1035, 368)","(1052, 363)","(1067, 366)","(1056, 377)","(1039, 381)","(971, 539)","(983, 525)","(998, 515)","(1010, 515)","(1022, 508)","(1042, 508)","(1061, 514)","(1049, 541)","(1033, 556)","(1020, 562)","(1006, 563)","(989, 558)","(980, 539)","(1000, 529)","(1012, 527)","(1024, 522)","(1053, 516)","(1028, 536)","(1016, 541)","(1003, 543)",0.29,0.91,125.0,0.34,-0.19,0.33,0.04,-9.5,0.16,0.3,93.5,108.9,146.0,62.9,69.6,112.1,112.47,105.94,118.23
3900,131072,100,-56,-1,-1,0,"(926, 413)","(932, 439)","(941, 464)","(952, 488)","(964, 512)","(981, 533)","(1003, 550)","(1027, 563)","(1055, 561)","(1084, 552)","(1109, 531)","(1130, 507)","(1145, 479)","(1151, 448)","(1149, 417)","(1144, 386)","(1137, 354)","(923, 395)","(927, 377)","(944, 369)","(963, 367)","(983, 371)","(1009, 360)","(1029, 346)","(1052, 338)","(1077, 340)","(1096, 350)","(1001, 383)","(1005, 401)","(1007, 419)","(1010, 437)","(1000, 456)","(1009, 458)","(1019, 458)","(1029, 453)","(1039, 447)","(949, 404)","(956, 396)","(968, 391)","(983, 394)","(971, 401)","(959, 406)","(1037, 380)","(1047, 371)","(1060, 369)","(1073, 371)","(1064, 379)","(1050, 381)","(1000, 501)","(1008, 491)","(1017, 484)","(1026, 485)","(1034, 479)","(1050, 479)","(1068, 481)","(1055, 494)","(1043, 502)","(1033, 504)","(1024, 507)","(1013, 506)","(1006, 499)","(1019, 492)","(1028, 491)","(1037, 487)","(1061, 482)","(1039, 488)","(1030, 491)","(1021, 492)",0.28,1.01,124.0,0.33,-0.24,0.32,0.01,-6.5,0.18,0.3,67.4,81.2,120.3,62.2,70.35,136.2,81.29,80.0,103.94
3933,131072,100,-56,-1,-1,0,"(951, 412)","(958, 436)","(967, 460)","(977, 482)","(988, 505)","(1003, 526)","(1021, 543)","(1041, 557)","(1067, 556)","(1094, 548)","(1118, 528)","(1138, 505)","(1152, 478)","(1158, 449)","(1157, 419)","(1152, 388)","(1147, 357)","(947, 400)","(950, 383)","(965, 374)","(983, 372)","(1001, 375)","(1029, 365)","(1047, 352)","(1069, 345)","(1092, 347)","(1109, 358)","(1019, 386)","(1022, 404)","(1024, 422)","(1026, 440)","(1017, 456)","(1025, 458)","(1035, 459)","(1045, 453)","(1054, 447)","(971, 406)","(977, 398)","(989, 394)","(1002, 396)","(992, 403)","(981, 407)","(1054, 383)","(1064, 375)","(1076, 373)","(1088, 375)","(1079, 381)","(1066, 384)","(1019, 498)","(1024, 490)","(1032, 484)","(1041, 484)","(1050, 479)","(1064, 479)","(1082, 481)","(1070, 494)","(1058, 501)","(1049, 504)","(1040, 505)","(1030, 504)","(1024, 497)","(1035, 491)","(1043, 490)","(1052, 487)","(1076, 482)","(1054, 488)","(1045, 491)","(1036, 492)",0.25,1.09,123.0,0.33,-0.25,0.32,0.02,-5.5,0.17,0.31,59.1,73.3,115.4,60.45,67.6,133.6,68.7,73.11,104.05
3966,393216,100,-56,-1,-1,0,"(969, 409)","(975, 432)","(983, 455)","(992, 477)","(1002, 499)","(1017, 518)","(1034, 535)","(1054, 549)","(1079, 548)","(1105, 541)","(1128, 522)","(1148, 500)","(1162, 474)","(1168, 447)","(1168, 417)","(1163, 388)","(1158, 359)","(966, 398)","(970, 382)","(985, 375)","(1002, 374)","(1019, 376)","(1045, 367)","(1063, 355)","(1084, 348)","(1106, 349)","(1123, 359)","(1035, 387)","(1037, 404)","(1039, 421)","(1042, 439)","(1032, 454)","(1040, 456)","(1050, 457)","(1060, 451)","(1070, 446)","(989, 403)","(995, 396)","(1007, 392)","(1020, 395)","(1009, 401)","(998, 405)","(1069, 383)","(1078, 375)","(1090, 372)","(1102, 375)","(1093, 381)","(1081, 384)","(1033, 494)","(1039, 486)","(1048, 481)","(1056, 482)","(1064, 477)","(1078, 476)","(1095, 477)","(1083, 489)","(1072, 496)","(1062, 499)","(1054, 500)","(1044, 500)","(1038, 493)","(1050, 487)","(1058, 486)","(1066, 483)","(1089, 478)","(1068, 484)","(1059, 487)","(1051, 488)",0.27,1.07,123.0,0.33,-0.24,0.32,0.02,-5.5,0.18,0.32,61.1,75.1,116.3,56.45,63.4,125.85,69.94,75.58,107.82
4000,393216,100,-56,-1,-1,0,"(978, 418)","(984, 440)","(991, 461)","(999, 482)","(1011, 502)","(1027, 519)","(1047, 531)","(1068, 540)","(1092, 538)","(1115, 530)","(1134, 514)","(1150, 494)","(1161, 472)","(1164, 447)","(1163, 421)","(1161, 395)","(1157, 369)","(979, 398)","(984, 382)","(999, 375)","(1016, 372)","(1034, 374)","(1058, 366)","(1075, 356)","(1094, 350)","(1114, 351)","(1129, 362)","(1050, 385)","(1053, 401)","(1055, 417)","(1058, 433)","(1048, 450)","(1057, 451)","(1065, 451)","(1074, 447)","(1082, 442)","(1003, 403)","(1010, 396)","(1021, 393)","(1033, 395)","(1023, 401)","(1013, 404)","(1080, 383)","(1089, 376)","(1100, 374)","(1111, 376)","(1102, 382)","(1091, 384)","(1047, 490)","(1053, 483)","(1061, 476)","(1069, 477)","(1076, 472)","(1089, 472)","(1105, 473)","(1095, 482)","(1085, 488)","(1077, 490)","(1069, 492)","(1059, 493)","(1052, 488)","(1064, 482)","(1071, 481)","(1079, 478)","(1100, 474)","(1081, 477)","(1074, 480)","(1066, 481)",0.25,1.04,122.0,0.33,-0.22,0.32,0.01,-5.5,0.17,0.31,51.2,66.3,106.3,50.15,56.4,121.3,66.94,66.7,90.7
4033,-65536,100,-56,-1,-1,0,"(994, 400)","(999, 422)","(1006, 442)","(1014, 462)","(1023, 482)","(1037, 500)","(1056, 514)","(1076, 525)","(1100, 524)","(1124, 517)","(1144, 501)","(1162, 483)","(1174, 460)","(1179, 435)","(1178, 408)","(1175, 382)","(1171, 356)","(992, 389)","(997, 374)","(1012, 367)","(1030, 365)","(1048, 368)","(1070, 360)","(1087, 349)","(1106, 342)","(1127, 344)","(1142, 354)","(1062, 378)","(1065, 393)","(1067, 408)","(1069, 424)","(1060, 440)","(1068, 441)","(1076, 441)","(1085, 436)","(1093, 432)","(1016, 394)","(1023, 388)","(1034, 384)","(1046, 386)","(1036, 392)","(1025, 396)","(1092, 375)","(1101, 368)","(1112, 365)","(1123, 368)","(1115, 374)","(1103, 376)","(1059, 477)","(1066, 470)","(1073, 464)","(1081, 465)","(1088, 460)","(1100, 460)","(1115, 461)","(1105, 470)","(1095, 476)","(1087, 479)","(1080, 480)","(1071, 481)","(1064, 475)","(1075, 471)","(1082, 470)","(1090, 467)","(1110, 462)","(1092, 466)","(1084, 468)","(1077, 469)",0.27,0.99,122.0,0.34,-0.21,0.31,0.01,-5.0,0.17,0.31,58.9,72.9,110.8,55.25,60.25,127.15,67.05,71.58,99.58
4066,-524288,100,-56,-1,-1,0,"(1003, 386)","(1009, 407)","(1016, 427)","(1024, 448)","(1034, 467)","(1048, 484)","(1065, 498)","(1084, 508)","(1107, 507)","(1129, 501)","(1148, 484)","(1162, 465)","(1172, 443)","(1176, 419)","(1175, 394)","(1172, 369)","(1168, 344)","(1006, 377)","(1011, 363)","(1025, 355)","(1041, 354)","(1058, 356)","(1079, 349)","(1094, 338)","(1111, 332)","(1130, 334)","(1143, 343)","(1071, 365)","(1074, 380)","(1076, 395)","(1078, 411)","(1068, 425)","(1076, 426)","(1084, 427)","(1093, 422)","(1100, 417)","(1028, 380)","(1034, 374)","(1044, 370)","(1056, 373)","(1046, 378)","(1036, 381)","(1097, 362)","(1106, 355)","(1116, 353)","(1126, 355)","(1118, 361)","(1108, 363)","(1067, 459)","(1073, 453)","(1081, 448)","(1089, 449)","(1096, 445)","(1107, 444)","(1121, 445)","(1111, 454)","(1102, 460)","(1095, 462)","(1087, 464)","(1078, 464)","(1072, 459)","(1083, 454)","(1090, 453)","(1098, 451)","(1116, 446)","(1099, 450)","(1092, 453)","(1085, 454)",0.27,1.0,121.0,0.34,-0.23,0.32,0.01,-5.0,0.17,0.32,51.3,65.0,100.5,53.05,59.35,125.35,63.52,69.82,97.58
4100,-786432,100,-56,-1,-1,0,"(1016, 373)","(1021, 393)","(1028, 412)","(1036, 431)","(1045, 450)","(1058, 467)","(1074, 480)","(1093, 490)","(1115, 490)","(1137, 482)","(1157, 466)","(1173, 448)","(1184, 426)","(1188, 402)","(1186, 377)","(1183, 353)","(1179, 328)","(1016, 364)","(1020, 350)","(1034, 343)","(1049, 341)","(1065, 344)","(1087, 336)","(1102, 325)","(1120, 319)","(1139, 320)","(1154, 329)","(1078, 352)","(1081, 367)","(1083, 381)","(1085, 396)","(1075, 411)","(1083, 412)","(1091, 412)","(1099, 407)","(1107, 403)","(1036, 367)","(1042, 361)","(1052, 358)","(1064, 360)","(1054, 366)","(1044, 369)","(1106, 349)","(1114, 342)","(1125, 340)","(1135, 342)","(1127, 348)","(1116, 350)","(1073, 444)","(1079, 437)","(1088, 432)","(1095, 432)","(1102, 428)","(1114, 428)","(1128, 428)","(1118, 439)","(1109, 445)","(1101, 447)","(1093, 448)","(1084, 448)","(1078, 443)","(1089, 438)","(1097, 437)","(1104, 435)","(1123, 430)","(1106, 434)","(1098, 437)","(1091, 438)",0.27,0.99,121.0,0.34,-0.24,0.33,0.01,-5.5,0.17,0.31,54.0,68.4,107.6,53.6,59.85,124.4,62.11,68.11,101.23
4133,-1179648,100,-56,-1,-1,0,"(1024, 362)","(1030, 381)","(1037, 400)","(1044, 418)","(1053, 436)","(1065, 452)","(1081, 465)","(1100, 474)","(1121, 473)","(1142, 466)","(1161, 451)","(1176, 433)","(1186, 412)","(1190, 389)","(1189, 366)","(1186, 342)","(1182, 318)","(1025, 352)","(1029, 338)","(1041, 331)","(1056, 329)","(1072, 331)","(1094, 323)","(1108, 313)","(1125, 307)","(1143, 308)","(1158, 317)","(1086, 340)","(1088, 354)","(1090, 368)","(1092, 382)","(1083, 397)","(1091, 398)","(1098, 398)","(1106, 393)","(1114, 389)","(1045, 356)","(1051, 350)","(1060, 346)","(1071, 348)","(1063, 354)","(1053, 357)","(1113, 337)","(1120, 330)","(1130, 328)","(1140, 330)","(1133, 335)","(1122, 338)","(1082, 429)","(1088, 422)","(1096, 417)","(1103, 418)","(1110, 413)","(1121, 413)","(1135, 414)","(1125, 423)","(1116, 429)","(1109, 431)","(1101, 433)","(1092, 433)","(1087, 428)","(1097, 423)","(1104, 422)","(1112, 419)","(1130, 415)","(1113, 419)","(1106, 422)","(1099, 423)",0.28,0.97,121.0,0.33,-0.25,0.33,0.01,-4.5,0.17,0.31,57.1,71.4,111.8,49.75,56.95,122.6,58.41,65.17,97.05
4166,5177344,100,-56,-1,-1,0,"(1033, 354)","(1038, 374)","(1045, 392)","(1052, 409)","(1061, 427)","(1074, 442)","(1090, 454)","(1109, 462)","(1130, 460)","(1150, 453)","(1168, 439)","(1182, 421)","(1191, 400)","(1194, 378)","(1191, 355)","(1187, 333)","(1183, 311)","(1031, 344)","(1035, 330)","(1048, 323)","(1063, 321)","(1078, 323)","(1101, 315)","(1114, 305)","(1131, 299)","(1148, 300)","(1161, 309)","(1093, 332)","(1096, 345)","(1098, 358)","(1100, 372)","(1092, 387)","(1099, 387)","(1106, 387)","(1114, 383)","(1121, 379)","(1052, 349)","(1058, 343)","(1067, 339)","(1079, 341)","(1070, 346)","(1060, 350)","(1118, 330)","(1126, 323)","(1136, 321)","(1145, 323)","(1138, 328)","(1128, 330)","(1090, 418)","(1096, 411)","(1103, 406)","(1110, 406)","(1117, 402)","(1128, 401)","(1141, 402)","(1133, 412)","(1124, 418)","(1117, 421)","(1109, 422)","(1100, 422)","(1094, 417)","(1105, 412)","(1112, 411)","(1119, 408)","(1136, 403)","(1121, 408)","(1114, 411)","(1107, 412)",0.26,0.99,121.0,0.35,-0.25,0.34,0.01,-4.0,0.18,0.31,58.0,72.5,108.4,45.55,54.25,116.7,51.94,59.82,92.11
4200,-1441792,100,-56,-1,-1,0,"(1040, 349)","(1045, 368)","(1052, 385)","(1060, 402)","(1069, 418)","(1081, 433)","(1097, 445)","(1115, 453)","(1135, 452)","(1154, 445)","(1171, 431)","(1185, 415)","(1194, 395)","(1197, 373)","(1195, 351)","(1193, 329)","(1189, 306)","(1039, 339)","(1043, 326)","(1055, 319)","(1069, 317)","(1083, 318)","(1108, 310)","(1121, 301)","(1136, 295)","(1153, 296)","(1166, 304)","(1099, 327)","(1102, 340)","(1104, 353)","(1106, 366)","(1098, 380)","(1105, 381)","(1112, 381)","(1119, 376)","(1126, 372)","(1059, 344)","(1065, 338)","(1074, 334)","(1084, 336)","(1076, 341)","(1067, 344)","(1124, 325)","(1132, 318)","(1141, 316)","(1150, 317)","(1143, 322)","(1134, 324)","(1096, 412)","(1102, 405)","(1109, 400)","(1116, 400)","(1122, 396)","(1133, 395)","(1145, 396)","(1138, 406)","(1129, 412)","(1122, 414)","(1116, 416)","(1107, 416)","(1101, 410)","(1111, 405)","(1117, 404)","(1124, 402)","(1141, 397)","(1126, 402)","(1120, 405)","(1113, 406)",0.23,0.98,122.0,0.34,-0.26,0.32,0.02,-3.5,0.18,0.31,51.2,67.3,106.5,42.1,50.6,110.9,46.41,52.64,81.23
4233,-1376256,100,-56,-1,-1,0,"(1049, 347)","(1054, 365)","(1061, 383)","(1067, 401)","(1076, 418)","(1088, 432)","(1103, 443)","(1120, 450)","(1139, 448)","(1157, 441)","(1172, 428)","(1184, 411)","(1191, 392)","(1193, 372)","(1192, 351)","(1189, 331)","(1185, 310)","(1049, 336)","(1053, 323)","(1064, 316)","(1078, 314)","(1092, 316)","(1113, 309)","(1125, 300)","(1139, 295)","(1155, 296)","(1166, 305)","(1106, 325)","(1108, 338)","(1110, 351)","(1112, 364)","(1103, 377)","(1110, 378)","(1117, 378)","(1124, 374)","(1131, 370)","(1067, 340)","(1073, 335)","(1081, 332)","(1091, 333)","(1083, 338)","(1075, 341)","(1128, 323)","(1135, 317)","(1144, 315)","(1152, 317)","(1146, 321)","(1137, 323)","(1101, 408)","(1107, 402)","(1114, 397)","(1121, 398)","(1127, 394)","(1137, 393)","(1149, 394)","(1142, 403)","(1134, 408)","(1127, 411)","(1120, 412)","(1111, 412)","(1105, 407)","(1116, 403)","(1123, 402)","(1129, 399)","(1145, 395)","(1131, 399)","(1125, 402)","(1118, 403)",0.25,0.98,122.0,0.35,-0.24,0.35,0.01,-3.5,0.18,0.31,48.3,62.6,101.5,46.25,52.3,111.75,51.05,58.88,90.0
4266,-720896,100,-56,-1,-1,0,"(1053, 348)","(1059, 366)","(1067, 383)","(1074, 400)","(1083, 416)","(1094, 431)","(1109, 442)","(1126, 450)","(1146, 448)","(1165, 442)","(1182, 429)","(1196, 413)","(1205, 394)","(1208, 372)","(1206, 350)","(1204, 328)","(1200, 306)","(1051, 337)","(1055, 324)","(1066, 318)","(1080, 316)","(1095, 317)","(1115, 310)","(1128, 301)","(1144, 295)","(1161, 296)","(1175, 304)","(1108, 325)","(1111, 338)","(1113, 350)","(1114, 364)","(1108, 377)","(1114, 378)","(1121, 378)","(1128, 374)","(1135, 370)","(1071, 341)","(1076, 335)","(1085, 332)","(1095, 333)","(1087, 338)","(1079, 341)","(1134, 323)","(1141, 317)","(1150, 315)","(1159, 316)","(1152, 321)","(1143, 323)","(1108, 408)","(1113, 402)","(1119, 397)","(1126, 397)","(1132, 393)","(1142, 393)","(1155, 393)","(1147, 402)","(1139, 407)","(1133, 409)","(1126, 411)","(1118, 411)","(1113, 407)","(1121, 402)","(1127, 401)","(1134, 398)","(1150, 394)","(1136, 398)","(1130, 401)","(1124, 402)",0.24,1.02,122.0,0.33,-0.25,0.31,0.01,-3.5,0.18,0.31,56.4,72.4,110.6,41.15,46.15,104.3,52.47,60.76,92.17
4300,851968,100,-56,-1,-1,0,"(1057, 347)","(1062, 365)","(1069, 381)","(1076, 398)","(1084, 414)","(1096, 429)","(1111, 441)","(1127, 450)","(1146, 449)","(1165, 443)","(1182, 429)","(1197, 413)","(1206, 393)","(1209, 371)","(1208, 350)","(1205, 328)","(1201, 306)","(1054, 336)","(1059, 325)","(1070, 320)","(1083, 319)","(1097, 321)","(1118, 314)","(1131, 305)","(1146, 299)","(1162, 299)","(1176, 305)","(1111, 329)","(1113, 341)","(1115, 354)","(1116, 367)","(1111, 379)","(1117, 380)","(1123, 380)","(1130, 376)","(1136, 372)","(1074, 343)","(1079, 337)","(1088, 334)","(1098, 336)","(1090, 341)","(1081, 344)","(1136, 326)","(1143, 320)","(1152, 318)","(1161, 319)","(1155, 324)","(1145, 326)","(1112, 410)","(1116, 405)","(1122, 400)","(1128, 400)","(1133, 396)","(1144, 396)","(1157, 396)","(1149, 405)","(1141, 411)","(1134, 413)","(1128, 415)","(1121, 415)","(1116, 409)","(1124, 405)","(1130, 404)","(1136, 402)","(1151, 397)","(1138, 402)","(1132, 405)","(1126, 406)",0.25,1.11,123.0,0.34,-0.24,0.31,0.01,-4.0,0.17,0.31,56.1,70.2,108.2,41.1,45.6,106.4,54.35,61.82,93.35
4333,4128768,100,-56,-1,-1,0,"(1060, 351)","(1064, 369)","(1070, 385)","(1077, 401)","(1085, 418)","(1096, 433)","(1111, 445)","(1127, 454)","(1145, 453)","(1164, 446)","(1180, 433)","(1193, 416)","(1201, 397)","(1204, 376)","(1202, 355)","(1199, 334)","(1194, 314)","(1057, 342)","(1061, 331)","(1072, 325)","(1085, 325)","(1098, 327)","(1118, 320)","(1130, 311)","(1145, 305)","(1161, 305)","(1173, 312)","(1111, 335)","(1114, 347)","(1116, 360)","(1118, 373)","(1111, 384)","(1117, 386)","(1124, 386)","(1130, 382)","(1137, 377)","(1075, 347)","(1080, 342)","(1089, 339)","(1098, 341)","(1090, 346)","(1082, 348)","(1135, 332)","(1141, 326)","(1150, 324)","(1159, 325)","(1153, 330)","(1144, 332)","(1110, 413)","(1115, 408)","(1122, 404)","(1128, 404)","(1134, 400)","(1145, 399)","(1157, 400)","(1149, 410)","(1141, 416)","(1134, 418)","(1127, 420)","(1119, 419)","(1114, 413)","(1123, 409)","(1130, 408)","(1136, 405)","(1152, 401)","(1138, 407)","(1131, 410)","(1125, 411)",0.26,1.06,123.0,0.35,-0.24,0.35,0.02,-4.0,0.19,0.32,51.8,67.9,105.8,42.5,48.5,105.85,49.52,57.64,88.76
4366,2686976,100,-56,-1,-1,0,"(1060, 359)","(1065, 376)","(1071, 392)","(1078, 408)","(1086, 424)","(1097, 439)","(1111, 451)","(1126, 460)","(1145, 460)","(1163, 454)","(1179, 440)","(1193, 424)","(1202, 405)","(1205, 385)","(1203, 363)","(1200, 342)","(1196, 320)","(1059, 351)","(1063, 340)","(1074, 335)","(1087, 334)","(1099, 336)","(1116, 330)","(1129, 320)","(1143, 315)","(1159, 314)","(1172, 321)","(1111, 343)","(1113, 356)","(1115, 368)","(1117, 382)","(1110, 392)","(1116, 394)","(1123, 394)","(1130, 390)","(1136, 385)","(1076, 356)","(1081, 351)","(1089, 348)","(1099, 350)","(1091, 354)","(1083, 357)","(1134, 340)","(1140, 335)","(1149, 332)","(1157, 334)","(1151, 338)","(1143, 340)","(1110, 419)","(1114, 414)","(1121, 410)","(1127, 411)","(1134, 407)","(1144, 406)","(1157, 407)","(1149, 418)","(1140, 424)","(1133, 426)","(1126, 427)","(1118, 426)","(1114, 419)","(1123, 415)","(1129, 414)","(1136, 412)","(1153, 408)","(1137, 415)","(1130, 418)","(1124, 419)",0.25,1.1,123.0,0.33,-0.25,0.34,0.03,-3.0,0.18,0.33,49.7,63.4,100.1,44.5,50.9,108.4,49.94,56.11,85.0
