milliseconds, ECG, ECG HR, PPG, PPG HR, SpO2, PI
1523617810667,-1048576,-108,-56,-1,-1,0
1523617810667,-917504,-108,-56,-1,-1,0
1523617810667,-524288,-108,-56,-1,-1,0
1523617810667,65536,-108,-56,-1,-1,0
1523617810667,720896,-108,-56,-1,-1,0
1523617810717,1310720,-108,-56,-1,-1,0
1523617810717,2097152,-108,-56,-1,-1,0
1523617810717,2752512,-108,-56,-1,-1,0
1523617810717,3276800,-108,-56,-1,-1,0
1523617810717,3538944,-108,-56,-1,-1,0
1523617810747,3342336,-108,-56,-1,-1,0
1523617810747,2752512,-108,-56,-1,-1,0
1523617810747,1835008,-108,-56,-1,-1,0
1523617810747,851968,-108,-56,-1,-1,0
1523617810747,0,-108,-56,-1,-1,0
1523617810787,-589824,-108,-56,-1,-1,0
1523617810787,-786432,-108,-56,-1,-1,0
1523617810787,-917504,-108,-56,-1,-1,0
1523617810787,-917504,-108,-56,-1,-1,0
1523617810787,-786432,-108,-56,-1,-1,0
1523617810827,-851968,-108,-56,-1,-1,0
1523617810827,-983040,-108,-56,-1,-1,0
1523617810827,-917504,-108,-56,-1,-1,0
1523617810827,-851968,-108,-56,-1,-1,0
1523617810827,-1048576,-108,-56,-1,-1,0
1523617810867,-1376256,-108,-56,-1,-1,0
1523617810867,-1507328,-108,-56,-1,-1,0
1523617810867,-1638400,-108,-56,-1,-1,0
1523617810867,-1703936,-108,-56,-1,-1,0
1523617810867,-1769472,-108,-56,-1,-1,0
1523617810907,-1769472,-108,-56,-1,-1,0
1523617810907,-1769472,-108,-56,-1,-1,0
1523617810907,-1703936,-108,-56,-1,-1,0
1523617810907,-1703936,-108,-56,-1,-1,0
1523617810907,-1835008,-108,-56,-1,-1,0
1523617810947,-2228224,-108,-56,-1,-1,0
1523617810947,-2555904,-108,-56,-1,-1,0
1523617810947,-1114112,-108,-56,-1,-1,0
1523617810947,3604480,-108,-56,-1,-1,0
1523617810947,8060928,-108,-56,-1,-1,0
1523617810987,7012352,-108,-56,-1,-1,0
1523617810987,2031616,-108,-56,-1,-1,0
1523617810987,-1310720,-108,-56,-1,-1,0
1523617810987,-1900544,-108,-56,-1,-1,0
1523617810987,-1835008,-108,-56,-1,-1,0
1523617811027,-1900544,-108,-56,-1,-1,0
1523617811027,-1900544,-108,-56,-1,-1,0
1523617811027,-1900544,-108,-56,-1,-1,0
1523617811027,-1769472,-108,-56,-1,-1,0
1523617811027,-1703936,-108,-56,-1,-1,0
1523617811067,-1507328,-109,-56,-1,-1,0
1523617811067,-1310720,-109,-56,-1,-1,0
1523617811067,-1048576,-109,-56,-1,-1,0
1523617811067,-720896,-109,-56,-1,-1,0
1523617811067,-393216,-109,-56,-1,-1,0
1523617811107,0,-109,-56,-1,-1,0
1523617811107,589824,-109,-56,-1,-1,0
1523617811107,1245184,-109,-56,-1,-1,0
1523617811107,2031616,-109,-56,-1,-1,0
1523617811107,2621440,-109,-56,-1,-1,0
1523617811147,3080192,-109,-56,-1,-1,0
1523617811147,3342336,-109,-56,-1,-1,0
1523617811147,3407872,-109,-56,-1,-1,0
1523617811147,3145728,-109,-56,-1,-1,0
1523617811147,2490368,-109,-56,-1,-1,0
1523617811187,1572864,-109,-56,-1,-1,0
1523617811187,786432,-109,-56,-1,-1,0
1523617811187,196608,-109,-56,-1,-1,0
1523617811187,0,-109,-56,-1,-1,0
1523617811187,-196608,-109,-56,-1,-1,0
1523617811227,-196608,-109,-56,-1,-1,0
1523617811227,-65536,-109,-56,-1,-1,0
1523617811227,0,-109,-56,-1,-1,0
1523617811227,-65536,-109,-56,-1,-1,0
1523617811227,-131072,-109,-56,-1,-1,0
1523617811267,-262144,-109,-56,-1,-1,0
1523617811267,-458752,-109,-56,-1,-1,0
1523617811267,-655360,-109,-56,-1,-1,0
1523617811267,-851968,-109,-56,-1,-1,0
1523617811267,-1114112,-109,-56,-1,-1,0
1523617811307,-1245184,-109,-56,-1,-1,0
1523617811307,-1179648,-109,-56,-1,-1,0
1523617811307,-1114112,-109,-56,-1,-1,0
1523617811307,-1114112,-109,-56,-1,-1,0
1523617811307,-1114112,-109,-56,-1,-1,0
1523617811352,-1114112,-109,-56,-1,-1,0
1523617811352,-1179648,-109,-56,-1,-1,0
1523617811352,-1441792,-109,-56,-1,-1,0
1523617811352,-1966080,-109,-56,-1,-1,0
1523617811352,-1769472,-109,-56,-1,-1,0
1523617811387,1114112,-109,-56,-1,-1,0
1523617811387,6225920,-109,-56,-1,-1,0
1523617811387,7995392,-109,-56,-1,-1,0
1523617811387,4521984,-109,-56,-1,-1,0
1523617811387,458752,-109,-56,-1,-1,0
1523617811427,-917504,-109,-56,-1,-1,0
1523617811427,-1245184,-109,-56,-1,-1,0
1523617811427,-1376256,-109,-56,-1,-1,0
1523617811427,-1441792,-109,-56,-1,-1,0
1523617811427,-1376256,-109,-56,-1,-1,0
1523617811467,-1310720,-109,-56,-1,-1,0
1523617811467,-1179648,-109,-56,-1,-1,0
1523617811467,-1114112,-109,-56,-1,-1,0
1523617811467,-983040,-109,-56,-1,-1,0
1523617811467,-786432,-109,-56,-1,-1,0
1523617811507,-524288,-109,-56,-1,-1,0
1523617811507,-327680,-109,-56,-1,-1,0
1523617811507,-65536,-109,-56,-1,-1,0
1523617811507,327680,-109,-56,-1,-1,0
1523617811507,917504,-109,-56,-1,-1,0
1523617811547,1572864,-109,-56,-1,-1,0
1523617811547,2228224,-109,-56,-1,-1,0
1523617811547,2621440,-109,-56,-1,-1,0
1523617811547,2883584,-109,-56,-1,-1,0
1523617811547,3145728,-109,-56,-1,-1,0
1523617811587,3145728,-109,-56,-1,-1,0
1523617811587,2686976,-109,-56,-1,-1,0
1523617811587,1900544,-109,-56,-1,-1,0
1523617811587,1114112,-109,-56,-1,-1,0
1523617811587,524288,-109,-56,-1,-1,0
1523617811627,131072,-109,-56,-1,-1,0
1523617811627,0,-109,-56,-1,-1,0
1523617811627,-65536,-109,-56,-1,-1,0
1523617811627,-65536,-109,-56,-1,-1,0
1523617811627,0,-109,-56,-1,-1,0
1523617811667,65536,-109,-56,-1,-1,0
1523617811667,131072,-109,-56,-1,-1,0
1523617811667,131072,-109,-56,-1,-1,0
1523617811667,65536,-109,-56,-1,-1,0
1523617811667,-65536,-109,-56,-1,-1,0
1523617811707,-327680,-109,-56,-1,-1,0
1523617811707,-524288,-109,-56,-1,-1,0
1523617811707,-589824,-109,-56,-1,-1,0
1523617811707,-589824,-109,-56,-1,-1,0
1523617811707,-589824,-109,-56,-1,-1,0
1523617811747,-458752,-109,-56,-1,-1,0
1523617811747,-393216,-109,-56,-1,-1,0
1523617811747,-327680,-109,-56,-1,-1,0
1523617811747,-458752,-109,-56,-1,-1,0
1523617811747,-458752,-109,-56,-1,-1,0
1523617811787,-589824,-109,-56,-1,-1,0
1523617811787,-1048576,-109,-56,-1,-1,0
1523617811787,-655360,-109,-56,-1,-1,0
1523617811787,2818048,-109,-56,-1,-1,0
1523617811787,7929856,-109,-56,-1,-1,0
1523617811828,8847360,-109,-56,-1,-1,0
1523617811828,4521984,-109,-56,-1,-1,0
1523617811828,589824,-109,-56,-1,-1,0
1523617811828,-393216,-109,-56,-1,-1,0
1523617811828,-393216,-109,-56,-1,-1,0
1523617811867,-393216,-109,-56,-1,-1,0
1523617811867,-458752,-109,-56,-1,-1,0
1523617811867,-393216,-109,-56,-1,-1,0
1523617811867,-196608,-109,-56,-1,-1,0
1523617811867,-131072,-109,-56,-1,-1,0
1523617811907,-65536,-109,-56,-1,-1,0
1523617811907,65536,-109,-56,-1,-1,0
1523617811907,393216,-109,-56,-1,-1,0
1523617811907,589824,-109,-56,-1,-1,0
1523617811907,851968,-109,-56,-1,-1,0
1523617811947,1114112,-111,-56,-1,-1,0
1523617811947,1769472,-111,-56,-1,-1,0
1523617811947,2490368,-111,-56,-1,-1,0
1523617811947,3276800,-111,-56,-1,-1,0
1523617811947,3932160,-111,-56,-1,-1,0
1523617811992,4456448,-111,-56,-1,-1,0
1523617811992,4849664,-111,-56,-1,-1,0
1523617811992,5046272,-111,-56,-1,-1,0
1523617811992,4849664,-111,-56,-1,-1,0
1523617811992,4128768,-111,-56,-1,-1,0
1523617812027,3014656,-111,-56,-1,-1,0
1523617812027,1966080,-111,-56,-1,-1,0
1523617812027,1179648,-111,-56,-1,-1,0
1523617812027,720896,-111,-56,-1,-1,0
1523617812027,327680,-111,-56,-1,-1,0
1523617812068,131072,-111,-56,-1,-1,0
1523617812068,65536,-111,-56,-1,-1,0
1523617812068,196608,-111,-56,-1,-1,0
1523617812068,131072,-111,-56,-1,-1,0
1523617812068,196608,-111,-56,-1,-1,0
1523617812107,196608,-111,-56,-1,-1,0
1523617812107,0,-111,-56,-1,-1,0
1523617812107,-327680,-111,-56,-1,-1,0
1523617812107,-589824,-111,-56,-1,-1,0
1523617812107,-786432,-111,-56,-1,-1,0
1523617812147,-917504,-111,-56,-1,-1,0
1523617812147,-983040,-111,-56,-1,-1,0
1523617812147,-1179648,-111,-56,-1,-1,0
1523617812147,-1310720,-111,-56,-1,-1,0
1523617812147,-1376256,-111,-56,-1,-1,0
1523617812187,-1376256,-111,-56,-1,-1,0
1523617812187,-1310720,-111,-56,-1,-1,0
1523617812187,-1310720,-111,-56,-1,-1,0
1523617812187,-1507328,-111,-56,-1,-1,0
1523617812187,-1769472,-111,-56,-1,-1,0
1523617812227,-1769472,-111,-56,-1,-1,0
1523617812227,524288,-111,-56,-1,-1,0
1523617812227,6029312,-111,-56,-1,-1,0
1523617812227,9371648,-111,-56,-1,-1,0
1523617812227,6225920,-111,-56,-1,-1,0
1523617812267,458752,-111,-56,-1,-1,0
1523617812267,-2097152,-111,-56,-1,-1,0
1523617812267,-2097152,-111,-56,-1,-1,0
1523617812267,-1769472,-111,-56,-1,-1,0
1523617812267,-1835008,-111,-56,-1,-1,0
1523617812307,-1769472,-111,-56,-1,-1,0
1523617812307,-1769472,-111,-56,-1,-1,0
1523617812307,-1703936,-111,-56,-1,-1,0
1523617812307,-1638400,-111,-56,-1,-1,0
1523617812307,-1507328,-111,-56,-1,-1,0
1523617812347,-1179648,-111,-56,-1,-1,0
1523617812347,-851968,-111,-56,-1,-1,0
1523617812347,-589824,-111,-56,-1,-1,0
1523617812347,-262144,-111,-56,-1,-1,0
1523617812347,262144,-111,-56,-1,-1,0
1523617812387,786432,-111,-56,-1,-1,0
1523617812387,1245184,-111,-56,-1,-1,0
1523617812387,2162688,-111,-56,-1,-1,0
1523617812387,2949120,-111,-56,-1,-1,0
1523617812387,3276800,-111,-56,-1,-1,0
1523617812427,3342336,-111,-56,-1,-1,0
1523617812427,3473408,-111,-56,-1,-1,0
1523617812427,2686976,-111,-56,-1,-1,0
1523617812427,1507328,-111,-56,-1,-1,0
1523617812427,393216,-111,-56,-1,-1,0
1523617812467,-458752,-111,-56,-1,-1,0
1523617812467,-1179648,-111,-56,-1,-1,0
1523617812467,-1507328,-111,-56,-1,-1,0
1523617812467,-1835008,-111,-56,-1,-1,0
1523617812467,-1966080,-111,-56,-1,-1,0
1523617812507,-1835008,-111,-56,-1,-1,0
1523617812507,-1572864,-111,-56,-1,-1,0
1523617812507,-1703936,-111,-56,-1,-1,0
1523617812507,-1835008,-111,-56,-1,-1,0
1523617812507,-1769472,-111,-56,-1,-1,0
1523617812547,-1769472,-111,-56,-1,-1,0
1523617812547,-2031616,-111,-56,-1,-1,0
1523617812547,-2424832,-111,-56,-1,-1,0
1523617812547,-2686976,-111,-56,-1,-1,0
1523617812547,-2752512,-111,-56,-1,-1,0
1523617812587,-2818048,-111,-56,-1,-1,0
1523617812587,-2883584,-111,-56,-1,-1,0
1523617812587,-2883584,-111,-56,-1,-1,0
1523617812587,-2883584,-111,-56,-1,-1,0
1523617812587,-2752512,-111,-56,-1,-1,0
1523617812632,-2818048,-111,-56,-1,-1,0
1523617812632,-3014656,-111,-56,-1,-1,0
1523617812632,-3211264,-111,-56,-1,-1,0
1523617812632,-3407872,-111,-56,-1,-1,0
1523617812632,-2424832,-111,-56,-1,-1,0
1523617812667,1769472,-111,-56,-1,-1,0
1523617812667,6881280,-111,-56,-1,-1,0
1523617812667,6815744,-111,-56,-1,-1,0
1523617812667,1441792,-111,-56,-1,-1,0
1523617812667,-2818048,-111,-56,-1,-1,0
1523617812707,-3670016,-111,-56,-1,-1,0
1523617812707,-3276800,-111,-56,-1,-1,0
1523617812707,-3145728,-111,-56,-1,-1,0
1523617812707,-3014656,-111,-56,-1,-1,0
1523617812707,-2883584,-111,-56,-1,-1,0
1523617812747,-2818048,-111,-56,-1,-1,0
1523617812747,-2818048,-111,-56,-1,-1,0
1523617812747,-2686976,-111,-56,-1,-1,0
1523617812747,-2424832,-111,-56,-1,-1,0
1523617812747,-2097152,-111,-56,-1,-1,0
1523617812787,-1835008,-111,-56,-1,-1,0
1523617812787,-1441792,-111,-56,-1,-1,0
1523617812787,-1048576,-111,-56,-1,-1,0
1523617812787,-589824,-111,-56,-1,-1,0
1523617812787,65536,-111,-56,-1,-1,0
1523617812827,851968,-111,-56,-1,-1,0
1523617812827,1507328,-111,-56,-1,-1,0
1523617812827,2162688,-111,-56,-1,-1,0
1523617812827,2555904,-111,-56,-1,-1,0
1523617812827,2686976,-111,-56,-1,-1,0
1523617812867,2359296,-111,-56,-1,-1,0
1523617812867,1703936,-111,-56,-1,-1,0
1523617812867,720896,-111,-56,-1,-1,0
1523617812867,-131072,-111,-56,-1,-1,0
1523617812867,-851968,-111,-56,-1,-1,0
1523617812907,-1310720,-111,-56,-1,-1,0
1523617812907,-1638400,-111,-56,-1,-1,0
1523617812907,-1703936,-111,-56,-1,-1,0
1523617812907,-1572864,-111,-56,-1,-1,0
1523617812907,-1376256,-111,-56,-1,-1,0
1523617812947,-1245184,-111,-56,-1,-1,0
1523617812947,-1245184,-111,-56,-1,-1,0
1523617812947,-1245184,-111,-56,-1,-1,0
1523617812947,-1245184,-111,-56,-1,-1,0
1523617812947,-1376256,-111,-56,-1,-1,0
1523617812987,-1638400,-111,-56,-1,-1,0
1523617812987,-1900544,-111,-56,-1,-1,0
1523617812987,-1966080,-111,-56,-1,-1,0
1523617812987,-1835008,-111,-56,-1,-1,0
1523617812987,-1835008,-111,-56,-1,-1,0
1523617813027,-1900544,-111,-56,-1,-1,0
1523617813027,-1835008,-111,-56,-1,-1,0
1523617813027,-1769472,-111,-56,-1,-1,0
1523617813027,-1769472,-111,-56,-1,-1,0
1523617813027,-1835008,-111,-56,-1,-1,0
1523617813067,-2031616,-111,-56,-1,-1,0
1523617813067,-2490368,-111,-56,-1,-1,0
1523617813067,-2359296,-111,-56,-1,-1,0
1523617813067,327680,-111,-56,-1,-1,0
1523617813067,5701632,-111,-56,-1,-1,0
1523617813107,8257536,-111,-56,-1,-1,0
1523617813107,4915200,-111,-56,-1,-1,0
1523617813107,196608,-111,-56,-1,-1,0
1523617813107,-1638400,-111,-56,-1,-1,0
1523617813107,-1769472,-111,-56,-1,-1,0
1523617813147,-1769472,-111,-56,-1,-1,0
1523617813147,-1769472,-111,-56,-1,-1,0
1523617813147,-1769472,-111,-56,-1,-1,0
1523617813147,-1638400,-111,-56,-1,-1,0
1523617813147,-1507328,-111,-56,-1,-1,0
1523617813187,-1376256,-111,-56,-1,-1,0
1523617813187,-1179648,-111,-56,-1,-1,0
1523617813187,-917504,-111,-56,-1,-1,0
1523617813187,-655360,-111,-56,-1,-1,0
1523617813187,-327680,-111,-56,-1,-1,0
1523617813227,65536,-111,-56,-1,-1,0
1523617813227,524288,-111,-56,-1,-1,0
1523617813227,1114112,-111,-56,-1,-1,0
1523617813227,1835008,-111,-56,-1,-1,0
1523617813227,2555904,-111,-56,-1,-1,0
1523617813272,3145728,-111,-56,-1,-1,0
1523617813272,3538944,-111,-56,-1,-1,0
1523617813272,3735552,-111,-56,-1,-1,0
1523617813272,3735552,-111,-56,-1,-1,0
1523617813272,3211264,-111,-56,-1,-1,0
1523617813307,2424832,-111,-56,-1,-1,0
1523617813307,1441792,-111,-56,-1,-1,0
1523617813307,720896,-111,-56,-1,-1,0
1523617813307,262144,-111,-56,-1,-1,0
1523617813307,0,-111,-56,-1,-1,0
1523617813347,-65536,-111,-56,-1,-1,0
1523617813347,0,-111,-56,-1,-1,0
1523617813347,0,-111,-56,-1,-1,0
1523617813347,65536,-111,-56,-1,-1,0
1523617813347,65536,-111,-56,-1,-1,0
1523617813387,0,-111,-56,-1,-1,0
1523617813387,0,-111,-56,-1,-1,0
1523617813387,0,-111,-56,-1,-1,0
1523617813387,-131072,-111,-56,-1,-1,0
1523617813387,-458752,-111,-56,-1,-1,0
1523617813427,-786432,-111,-56,-1,-1,0
1523617813427,-917504,-111,-56,-1,-1,0
1523617813427,-983040,-111,-56,-1,-1,0
1523617813427,-983040,-111,-56,-1,-1,0
1523617813427,-917504,-111,-56,-1,-1,0
1523617813467,-917504,-111,-56,-1,-1,0
1523617813467,-786432,-111,-56,-1,-1,0
1523617813467,-786432,-111,-56,-1,-1,0
1523617813467,-851968,-111,-56,-1,-1,0
1523617813467,-1114112,-111,-56,-1,-1,0
1523617813507,-1638400,-111,-56,-1,-1,0
1523617813507,-1310720,-111,-56,-1,-1,0
1523617813507,1966080,-111,-56,-1,-1,0
1523617813507,6946816,-111,-56,-1,-1,0
1523617813507,7929856,-111,-56,-1,-1,0
1523617813547,3932160,-111,-56,-1,-1,0
1523617813547,65536,-111,-56,-1,-1,0
1523617813547,-983040,-111,-56,-1,-1,0
1523617813547,-1179648,-111,-56,-1,-1,0
1523617813547,-1310720,-111,-56,-1,-1,0
1523617813587,-1310720,-111,-56,-1,-1,0
1523617813587,-1376256,-111,-56,-1,-1,0
1523617813587,-1310720,-111,-56,-1,-1,0
1523617813587,-1310720,-111,-56,-1,-1,0
1523617813587,-1114112,-111,-56,-1,-1,0
1523617813627,-1048576,-111,-56,-1,-1,0
1523617813627,-851968,-111,-56,-1,-1,0
1523617813627,-655360,-111,-56,-1,-1,0
1523617813627,-393216,-111,-56,-1,-1,0
1523617813627,-65536,-111,-56,-1,-1,0
1523617813667,262144,-112,-56,-1,-1,0
1523617813667,786432,-112,-56,-1,-1,0
1523617813667,1376256,-112,-56,-1,-1,0
1523617813667,1900544,-112,-56,-1,-1,0
1523617813667,2490368,-112,-56,-1,-1,0
1523617813707,2949120,-112,-56,-1,-1,0
1523617813707,3145728,-112,-56,-1,-1,0
1523617813707,2949120,-112,-56,-1,-1,0
1523617813707,2359296,-112,-56,-1,-1,0
1523617813707,1572864,-112,-56,-1,-1,0
1523617813747,786432,-112,-56,-1,-1,0
1523617813747,196608,-112,-56,-1,-1,0
1523617813747,-65536,-112,-56,-1,-1,0
1523617813747,-327680,-112,-56,-1,-1,0
1523617813747,-524288,-112,-56,-1,-1,0
1523617813787,-524288,-112,-56,-1,-1,0
1523617813787,-458752,-112,-56,-1,-1,0
1523617813787,-393216,-112,-56,-1,-1,0
1523617813787,-393216,-112,-56,-1,-1,0
1523617813787,-327680,-112,-56,-1,-1,0
1523617813827,-327680,-112,-56,-1,-1,0
1523617813827,-524288,-112,-56,-1,-1,0
1523617813827,-851968,-112,-56,-1,-1,0
1523617813827,-1114112,-112,-56,-1,-1,0
1523617813827,-1245184,-112,-56,-1,-1,0
1523617813867,-1310720,-112,-56,-1,-1,0
1523617813867,-1376256,-112,-56,-1,-1,0
1523617813867,-1376256,-112,-56,-1,-1,0
1523617813867,-1310720,-112,-56,-1,-1,0
1523617813867,-1310720,-112,-56,-1,-1,0
1523617813913,-1310720,-112,-56,-1,-1,0
1523617813913,-1310720,-112,-56,-1,-1,0
1523617813913,-1441792,-112,-56,-1,-1,0
1523617813913,-1703936,-112,-56,-1,-1,0
1523617813913,-2031616,-112,-56,-1,-1,0
1523617813947,-1179648,-112,-56,-1,-1,0
1523617813947,2818048,-112,-56,-1,-1,0
1523617813947,7143424,-112,-56,-1,-1,0
1523617813947,6684672,-112,-56,-1,-1,0
1523617813947,2162688,-112,-56,-1,-1,0
1523617813987,-983040,-112,-56,-1,-1,0
1523617813987,-1638400,-112,-56,-1,-1,0
1523617813987,-1703936,-112,-56,-1,-1,0
1523617813987,-1638400,-112,-56,-1,-1,0
1523617813987,-1572864,-112,-56,-1,-1,0
1523617814028,-1507328,-112,-56,-1,-1,0
1523617814028,-1507328,-112,-56,-1,-1,0
1523617814028,-1441792,-112,-56,-1,-1,0
1523617814028,-1245184,-112,-56,-1,-1,0
1523617814028,-1114112,-112,-56,-1,-1,0
1523617814067,-917504,-112,-56,-1,-1,0
1523617814067,-655360,-112,-56,-1,-1,0
1523617814067,-196608,-112,-56,-1,-1,0
1523617814067,196608,-112,-56,-1,-1,0
1523617814067,720896,-112,-56,-1,-1,0
1523617814107,1310720,-112,-56,-1,-1,0
1523617814107,2031616,-112,-56,-1,-1,0
1523617814107,2686976,-112,-56,-1,-1,0
1523617814107,3276800,-112,-56,-1,-1,0
1523617814107,3604480,-112,-56,-1,-1,0
1523617814147,3670016,-112,-56,-1,-1,0
1523617814147,3407872,-112,-56,-1,-1,0
1523617814147,2752512,-112,-56,-1,-1,0
1523617814147,1900544,-112,-56,-1,-1,0
1523617814147,917504,-112,-56,-1,-1,0
1523617814187,65536,-112,-56,-1,-1,0
1523617814187,-393216,-112,-56,-1,-1,0
1523617814187,-524288,-112,-56,-1,-1,0
1523617814187,-589824,-112,-56,-1,-1,0
1523617814187,-589824,-112,-56,-1,-1,0
1523617814227,-458752,-112,-56,-1,-1,0
1523617814227,-327680,-112,-56,-1,-1,0
1523617814227,-393216,-112,-56,-1,-1,0
1523617814227,-458752,-112,-56,-1,-1,0
1523617814227,-458752,-112,-56,-1,-1,0
1523617814267,-524288,-112,-56,-1,-1,0
1523617814267,-851968,-112,-56,-1,-1,0
1523617814267,-1179648,-112,-56,-1,-1,0
1523617814267,-1310720,-112,-56,-1,-1,0
1523617814267,-1310720,-112,-56,-1,-1,0
1523617814307,-1441792,-112,-56,-1,-1,0
1523617814307,-1507328,-112,-56,-1,-1,0
1523617814307,-1507328,-112,-56,-1,-1,0
1523617814307,-1572864,-112,-56,-1,-1,0
1523617814307,-1572864,-112,-56,-1,-1,0
1523617814347,-1441792,-112,-56,-1,-1,0
1523617814347,-1441792,-112,-56,-1,-1,0
1523617814347,-1703936,-112,-56,-1,-1,0
1523617814347,-2097152,-112,-56,-1,-1,0
1523617814347,-1769472,-112,-56,-1,-1,0
1523617814388,1638400,-112,-56,-1,-1,0
1523617814388,7208960,-112,-56,-1,-1,0
1523617814388,8781824,-112,-56,-1,-1,0
1523617814388,4259840,-112,-56,-1,-1,0
1523617814388,-393216,-112,-56,-1,-1,0
1523617814427,-1835008,-112,-56,-1,-1,0
1523617814427,-1835008,-112,-56,-1,-1,0
1523617814427,-1966080,-112,-56,-1,-1,0
1523617814427,-1900544,-112,-56,-1,-1,0
1523617814427,-1769472,-112,-56,-1,-1,0
1523617814467,-1638400,-112,-56,-1,-1,0
1523617814467,-1638400,-112,-56,-1,-1,0
1523617814467,-1638400,-112,-56,-1,-1,0
1523617814467,-1441792,-112,-56,-1,-1,0
1523617814467,-1179648,-112,-56,-1,-1,0
1523617814507,-983040,-112,-56,-1,-1,0
1523617814507,-655360,-112,-56,-1,-1,0
1523617814507,-262144,-112,-56,-1,-1,0
1523617814507,196608,-112,-56,-1,-1,0
1523617814507,786432,-112,-56,-1,-1,0
1523617814552,1572864,-112,-56,-1,-1,0
1523617814552,2359296,-112,-56,-1,-1,0
1523617814552,3080192,-112,-56,-1,-1,0
1523617814552,3473408,-112,-56,-1,-1,0
1523617814552,3735552,-112,-56,-1,-1,0
1523617814587,3473408,-112,-56,-1,-1,0
1523617814587,2818048,-112,-56,-1,-1,0
1523617814587,1835008,-112,-56,-1,-1,0
1523617814587,720896,-112,-56,-1,-1,0
1523617814587,-131072,-112,-56,-1,-1,0
1523617814627,-655360,-112,-56,-1,-1,0
1523617814627,-983040,-112,-56,-1,-1,0
1523617814627,-1048576,-112,-56,-1,-1,0
1523617814627,-1114112,-112,-56,-1,-1,0
1523617814627,-1114112,-112,-56,-1,-1,0
1523617814667,-1048576,-112,-56,-1,-1,0
1523617814667,-1048576,-112,-56,-1,-1,0
1523617814667,-1048576,-112,-56,-1,-1,0
1523617814667,-917504,-112,-56,-1,-1,0
1523617814667,-851968,-112,-56,-1,-1,0
1523617814707,-1114112,-112,-56,-1,-1,0
1523617814707,-1507328,-112,-56,-1,-1,0
1523617814707,-1835008,-112,-56,-1,-1,0
1523617814707,-1966080,-112,-56,-1,-1,0
1523617814707,-1900544,-112,-56,-1,-1,0
1523617814747,-1900544,-112,-56,-1,-1,0
1523617814747,-2031616,-112,-56,-1,-1,0
1523617814747,-2097152,-112,-56,-1,-1,0
1523617814747,-2031616,-112,-56,-1,-1,0
1523617814747,-2031616,-112,-56,-1,-1,0
1523617814787,-2031616,-112,-56,-1,-1,0
1523617814787,-2228224,-112,-56,-1,-1,0
1523617814787,-2621440,-112,-56,-1,-1,0
1523617814787,-2621440,-112,-56,-1,-1,0
1523617814787,-589824,-112,-56,-1,-1,0
1523617814827,4587520,-112,-56,-1,-1,0
1523617814827,8454144,-112,-56,-1,-1,0
1523617814827,6029312,-112,-56,-1,-1,0
1523617814827,589824,-112,-56,-1,-1,0
1523617814827,-2293760,-112,-56,-1,-1,0
1523617814867,-2621440,-112,-56,-1,-1,0
1523617814867,-2555904,-112,-56,-1,-1,0
1523617814867,-2555904,-112,-56,-1,-1,0
1523617814867,-2490368,-112,-56,-1,-1,0
1523617814867,-2359296,-112,-56,-1,-1,0
1523617814907,-2162688,-112,-56,-1,-1,0
1523617814907,-2097152,-112,-56,-1,-1,0
1523617814907,-1966080,-112,-56,-1,-1,0
1523617814907,-1769472,-112,-56,-1,-1,0
1523617814907,-1507328,-112,-56,-1,-1,0
1523617814947,-1310720,-112,-56,-1,-1,0
1523617814947,-917504,-112,-56,-1,-1,0
1523617814947,-458752,-112,-56,-1,-1,0
1523617814947,0,-112,-56,-1,-1,0
1523617814947,524288,-112,-56,-1,-1,0
1523617814987,1245184,-112,-56,-1,-1,0
1523617814987,1966080,-112,-56,-1,-1,0
1523617814987,2621440,-112,-56,-1,-1,0
1523617814987,3080192,-112,-56,-1,-1,0
1523617814987,3145728,-112,-56,-1,-1,0
1523617815027,2752512,-112,-56,-1,-1,0
1523617815027,1966080,-112,-56,-1,-1,0
1523617815027,983040,-112,-56,-1,-1,0
1523617815027,65536,-112,-56,-1,-1,0
1523617815027,-524288,-112,-56,-1,-1,0
1523617815067,-917504,-112,-56,-1,-1,0
1523617815067,-1048576,-112,-56,-1,-1,0
1523617815067,-1048576,-112,-56,-1,-1,0
1523617815067,-1048576,-112,-56,-1,-1,0
1523617815067,-917504,-112,-56,-1,-1,0
1523617815107,-786432,-112,-56,-1,-1,0
1523617815107,-786432,-112,-56,-1,-1,0
1523617815107,-786432,-112,-56,-1,-1,0
1523617815107,-786432,-112,-56,-1,-1,0
1523617815107,-917504,-112,-56,-1,-1,0
1523617815147,-1245184,-112,-56,-1,-1,0
1523617815147,-1507328,-112,-56,-1,-1,0
1523617815147,-1638400,-112,-56,-1,-1,0
1523617815147,-1703936,-112,-56,-1,-1,0
1523617815147,-1703936,-112,-56,-1,-1,0
1523617815192,-1703936,-112,-56,-1,-1,0
1523617815192,-1638400,-112,-56,-1,-1,0
1523617815192,-1703936,-112,-56,-1,-1,0
1523617815192,-1703936,-112,-56,-1,-1,0
1523617815192,-1769472,-112,-56,-1,-1,0
1523617815227,-1835008,-112,-56,-1,-1,0
1523617815227,-2162688,-112,-56,-1,-1,0
1523617815227,-2424832,-112,-56,-1,-1,0
1523617815227,-1376256,-112,-56,-1,-1,0
1523617815227,2883584,-112,-56,-1,-1,0
1523617815267,7733248,-112,-56,-1,-1,0
1523617815267,7536640,-112,-56,-1,-1,0
1523617815267,2818048,-112,-56,-1,-1,0
1523617815267,-720896,-112,-56,-1,-1,0
1523617815267,-1572864,-112,-56,-1,-1,0
1523617815307,-1638400,-112,-56,-1,-1,0
1523617815307,-1703936,-112,-56,-1,-1,0
1523617815307,-1703936,-112,-56,-1,-1,0
1523617815307,-1703936,-112,-56,-1,-1,0
1523617815307,-1572864,-112,-56,-1,-1,0
1523617815347,-1441792,-112,-56,-1,-1,0
1523617815347,-1310720,-112,-56,-1,-1,0
1523617815347,-1179648,-112,-56,-1,-1,0
1523617815347,-917504,-112,-56,-1,-1,0
1523617815347,-655360,-112,-56,-1,-1,0
1523617815387,-327680,-114,-56,-1,-1,0
1523617815387,0,-114,-56,-1,-1,0
1523617815387,393216,-114,-56,-1,-1,0
1523617815387,983040,-114,-56,-1,-1,0
1523617815387,1703936,-114,-56,-1,-1,0
1523617815427,2490368,-114,-56,-1,-1,0
1523617815427,3014656,-114,-56,-1,-1,0
1523617815427,3276800,-114,-56,-1,-1,0
1523617815427,3276800,-114,-56,-1,-1,0
1523617815427,3014656,-114,-56,-1,-1,0
1523617815468,2424832,-114,-56,-1,-1,0
1523617815468,1572864,-114,-56,-1,-1,0
1523617815468,655360,-114,-56,-1,-1,0
1523617815468,0,-114,-56,-1,-1,0
1523617815468,-458752,-114,-56,-1,-1,0
1523617815507,-720896,-114,-56,-1,-1,0
1523617815507,-589824,-114,-56,-1,-1,0
1523617815507,-524288,-114,-56,-1,-1,0
1523617815507,-458752,-114,-56,-1,-1,0
1523617815507,-458752,-114,-56,-1,-1,0
1523617815547,-393216,-114,-56,-1,-1,0
1523617815547,-458752,-114,-56,-1,-1,0
1523617815547,-655360,-114,-56,-1,-1,0
1523617815547,-786432,-114,-56,-1,-1,0
1523617815547,-851968,-114,-56,-1,-1,0
1523617815587,-1179648,-114,-56,-1,-1,0
1523617815587,-1376256,-114,-56,-1,-1,0
1523617815587,-1507328,-114,-56,-1,-1,0
1523617815587,-1638400,-114,-56,-1,-1,0
1523617815587,-1638400,-114,-56,-1,-1,0
1523617815627,-1703936,-114,-56,-1,-1,0
1523617815627,-1769472,-114,-56,-1,-1,0
1523617815627,-1835008,-114,-56,-1,-1,0
1523617815627,-1835008,-114,-56,-1,-1,0
1523617815627,-1835008,-114,-56,-1,-1,0
1523617815667,-2031616,-114,-56,-1,-1,0
1523617815667,-2359296,-114,-56,-1,-1,0
1523617815667,-2228224,-114,-56,-1,-1,0
1523617815667,458752,-114,-56,-1,-1,0
1523617815667,5373952,-114,-56,-1,-1,0
1523617815707,7143424,-114,-56,-1,-1,0
1523617815707,3735552,-114,-56,-1,-1,0
1523617815707,-196608,-114,-56,-1,-1,0
1523617815707,-1572864,-114,-56,-1,-1,0
1523617815707,-1835008,-114,-56,-1,-1,0
1523617815747,-2031616,-114,-56,-1,-1,0
1523617815747,-2162688,-114,-56,-1,-1,0
1523617815747,-2162688,-114,-56,-1,-1,0
1523617815747,-2097152,-114,-56,-1,-1,0
1523617815747,-1900544,-114,-56,-1,-1,0
1523617815787,-1572864,-114,-56,-1,-1,0
1523617815787,-1376256,-114,-56,-1,-1,0
1523617815787,-1179648,-114,-56,-1,-1,0
1523617815787,-1048576,-114,-56,-1,-1,0
1523617815787,-786432,-114,-56,-1,-1,0
1523617815832,-393216,-114,-56,-1,-1,0
1523617815832,0,-114,-56,-1,-1,0
1523617815832,655360,-114,-56,-1,-1,0
1523617815832,1507328,-114,-56,-1,-1,0
1523617815832,2293760,-114,-56,-1,-1,0
1523617815867,2883584,-114,-56,-1,-1,0
1523617815867,3342336,-114,-56,-1,-1,0
1523617815867,3670016,-114,-56,-1,-1,0
1523617815867,3866624,-114,-56,-1,-1,0
1523617815867,3538944,-114,-56,-1,-1,0
1523617815907,2818048,-114,-56,-1,-1,0
1523617815907,1835008,-114,-56,-1,-1,0
1523617815907,983040,-114,-56,-1,-1,0
1523617815907,458752,-114,-56,-1,-1,0
1523617815907,65536,-114,-56,-1,-1,0
1523617815947,-65536,-114,-56,-1,-1,0
1523617815947,65536,-114,-56,-1,-1,0
1523617815947,327680,-114,-56,-1,-1,0
1523617815947,393216,-114,-56,-1,-1,0
1523617815947,262144,-114,-56,-1,-1,0
1523617815987,327680,-114,-56,-1,-1,0
1523617815987,327680,-114,-56,-1,-1,0
1523617815987,196608,-114,-56,-1,-1,0
1523617815987,131072,-114,-56,-1,-1,0
1523617815987,-65536,-114,-56,-1,-1,0
1523617816027,-589824,-114,-56,-1,-1,0
1523617816027,-851968,-114,-56,-1,-1,0
1523617816027,-786432,-114,-56,-1,-1,0
1523617816027,-786432,-114,-56,-1,-1,0
1523617816027,-589824,-114,-56,-1,-1,0
1523617816067,-655360,-114,-56,-1,-1,0
1523617816067,-720896,-114,-56,-1,-1,0
1523617816067,-917504,-114,-56,-1,-1,0
1523617816067,-983040,-114,-56,-1,-1,0
1523617816067,-983040,-114,-56,-1,-1,0
1523617816107,-1310720,-114,-56,-1,-1,0
1523617816107,-1638400,-114,-56,-1,-1,0
1523617816107,-65536,-114,-56,-1,-1,0
1523617816107,5177344,-114,-56,-1,-1,0
1523617816107,9175040,-114,-56,-1,-1,0
1523617816147,6881280,-114,-56,-1,-1,0
1523617816147,1507328,-114,-56,-1,-1,0
1523617816147,-1114112,-114,-56,-1,-1,0
1523617816147,-1310720,-114,-56,-1,-1,0
1523617816147,-1245184,-114,-56,-1,-1,0
1523617816187,-1310720,-114,-56,-1,-1,0
1523617816187,-1572864,-114,-56,-1,-1,0
1523617816187,-1572864,-114,-56,-1,-1,0
1523617816187,-1310720,-114,-56,-1,-1,0
1523617816187,-1114112,-114,-56,-1,-1,0
1523617816227,-1245184,-114,-56,-1,-1,0
1523617816227,-1114112,-114,-56,-1,-1,0
1523617816227,-851968,-114,-56,-1,-1,0
1523617816227,-393216,-114,-56,-1,-1,0
1523617816227,0,-114,-56,-1,-1,0
1523617816267,196608,-114,-56,-1,-1,0
1523617816267,655360,-114,-56,-1,-1,0
1523617816267,1441792,-114,-56,-1,-1,0
1523617816267,2359296,-114,-56,-1,-1,0
1523617816267,3080192,-114,-56,-1,-1,0
1523617816308,3538944,-114,-56,-1,-1,0
1523617816308,3735552,-114,-56,-1,-1,0
1523617816308,3801088,-114,-56,-1,-1,0
1523617816308,3473408,-114,-56,-1,-1,0
1523617816308,2686976,-114,-56,-1,-1,0
1523617816347,1507328,-114,-56,-1,-1,0
1523617816347,393216,-114,-56,-1,-1,0
1523617816347,-131072,-114,-56,-1,-1,0
1523617816347,-589824,-114,-56,-1,-1,0
1523617816347,-786432,-114,-56,-1,-1,0
1523617816387,-720896,-114,-56,-1,-1,0
1523617816387,-655360,-114,-56,-1,-1,0
1523617816387,-524288,-114,-56,-1,-1,0
1523617816387,-458752,-114,-56,-1,-1,0
1523617816387,-458752,-114,-56,-1,-1,0
1523617816427,-524288,-114,-56,-1,-1,0
1523617816427,-655360,-114,-56,-1,-1,0
1523617816427,-917504,-114,-56,-1,-1,0
1523617816427,-1179648,-114,-56,-1,-1,0
1523617816427,-1376256,-114,-56,-1,-1,0
1523617816472,-1638400,-114,-56,-1,-1,0
1523617816472,-1835008,-114,-56,-1,-1,0
1523617816472,-1769472,-114,-56,-1,-1,0
1523617816472,-1638400,-114,-56,-1,-1,0
1523617816472,-1572864,-114,-56,-1,-1,0
1523617816507,-1507328,-114,-56,-1,-1,0
1523617816507,-1572864,-114,-56,-1,-1,0
1523617816507,-1703936,-114,-56,-1,-1,0
1523617816507,-1769472,-114,-56,-1,-1,0
1523617816507,-2031616,-114,-56,-1,-1,0
1523617816547,-2359296,-114,-56,-1,-1,0
1523617816547,-1572864,-114,-56,-1,-1,0
1523617816547,2031616,-114,-56,-1,-1,0
1523617816547,7340032,-114,-56,-1,-1,0
1523617816547,8716288,-114,-56,-1,-1,0
1523617816587,4325376,-114,-56,-1,-1,0
1523617816587,-327680,-114,-56,-1,-1,0
1523617816587,-1769472,-114,-56,-1,-1,0
1523617816587,-1900544,-114,-56,-1,-1,0
1523617816587,-1835008,-114,-56,-1,-1,0
1523617816627,-1835008,-114,-56,-1,-1,0
1523617816627,-1835008,-114,-56,-1,-1,0
1523617816627,-1769472,-114,-56,-1,-1,0
1523617816627,-1572864,-114,-56,-1,-1,0
1523617816627,-1507328,-114,-56,-1,-1,0
1523617816667,-1376256,-114,-56,-1,-1,0
1523617816667,-1179648,-114,-56,-1,-1,0
1523617816667,-851968,-114,-56,-1,-1,0
1523617816667,-720896,-114,-56,-1,-1,0
1523617816667,-458752,-114,-56,-1,-1,0
1523617816707,0,-115,-56,-1,-1,0
1523617816707,720896,-115,-56,-1,-1,0
1523617816707,1441792,-115,-56,-1,-1,0
1523617816707,2162688,-115,-56,-1,-1,0
1523617816707,2818048,-115,-56,-1,-1,0
1523617816747,3211264,-115,-56,-1,-1,0
1523617816747,3473408,-115,-56,-1,-1,0
1523617816747,3538944,-115,-56,-1,-1,0
1523617816747,2949120,-115,-56,-1,-1,0
1523617816747,1835008,-115,-56,-1,-1,0
1523617816787,786432,-115,-56,-1,-1,0
1523617816787,65536,-115,-56,-1,-1,0
1523617816787,-262144,-115,-56,-1,-1,0
1523617816787,-589824,-115,-56,-1,-1,0
1523617816787,-917504,-115,-56,-1,-1,0
1523617816827,-1114112,-115,-56,-1,-1,0
1523617816827,-917504,-115,-56,-1,-1,0
1523617816827,-655360,-115,-56,-1,-1,0
1523617816827,-524288,-115,-56,-1,-1,0
1523617816827,-524288,-115,-56,-1,-1,0
1523617816867,-589824,-115,-56,-1,-1,0
1523617816867,-655360,-115,-56,-1,-1,0
1523617816867,-917504,-115,-56,-1,-1,0
1523617816867,-1114112,-115,-56,-1,-1,0
1523617816867,-1245184,-115,-56,-1,-1,0
1523617816907,-1376256,-115,-56,-1,-1,0
1523617816907,-1507328,-115,-56,-1,-1,0
1523617816907,-1572864,-115,-56,-1,-1,0
1523617816907,-1638400,-115,-56,-1,-1,0
1523617816907,-1638400,-115,-56,-1,-1,0
1523617816947,-1638400,-115,-56,-1,-1,0
1523617816947,-1572864,-115,-56,-1,-1,0
1523617816947,-1572864,-115,-56,-1,-1,0
1523617816947,-1638400,-115,-56,-1,-1,0
1523617816947,-1966080,-115,-56,-1,-1,0
1523617816987,-2097152,-115,-56,-1,-1,0
1523617816987,-393216,-115,-56,-1,-1,0
1523617816987,4456448,-115,-56,-1,-1,0
1523617816987,8257536,-115,-56,-1,-1,0
1523617816987,6553600,-115,-56,-1,-1,0
1523617817027,1769472,-115,-56,-1,-1,0
1523617817027,-917504,-115,-56,-1,-1,0
1523617817027,-1507328,-115,-56,-1,-1,0
1523617817027,-1703936,-115,-56,-1,-1,0
1523617817027,-1769472,-115,-56,-1,-1,0
1523617817067,-1769472,-115,-56,-1,-1,0
1523617817067,-1638400,-115,-56,-1,-1,0
1523617817067,-1638400,-115,-56,-1,-1,0
1523617817067,-1507328,-115,-56,-1,-1,0
1523617817067,-1310720,-115,-56,-1,-1,0
1523617817112,-1114112,-115,-56,-1,-1,0
1523617817112,-1048576,-115,-56,-1,-1,0
1523617817112,-851968,-115,-56,-1,-1,0
1523617817112,-327680,-115,-56,-1,-1,0
1523617817112,262144,-115,-56,-1,-1,0
1523617817147,786432,-115,-56,-1,-1,0
1523617817147,1245184,-115,-56,-1,-1,0
1523617817147,1769472,-115,-56,-1,-1,0
1523617817147,2424832,-115,-56,-1,-1,0
1523617817147,3014656,-115,-56,-1,-1,0
1523617817187,3211264,-115,-56,-1,-1,0
1523617817187,3145728,-115,-56,-1,-1,0
1523617817187,2949120,-115,-56,-1,-1,0
1523617817187,2424832,-115,-56,-1,-1,0
1523617817187,1638400,-115,-56,-1,-1,0
1523617817227,786432,-115,-56,-1,-1,0
1523617817227,131072,-115,-56,-1,-1,0
1523617817227,-327680,-115,-56,-1,-1,0
1523617817227,-720896,-115,-56,-1,-1,0
1523617817227,-655360,-115,-56,-1,-1,0
1523617817267,-327680,-115,-56,-1,-1,0
1523617817267,-262144,-115,-56,-1,-1,0
1523617817267,-327680,-115,-56,-1,-1,0
1523617817267,-327680,-115,-56,-1,-1,0
1523617817267,-196608,-115,-56,-1,-1,0
1523617817307,-131072,-115,-56,-1,-1,0
1523617817307,-393216,-115,-56,-1,-1,0
1523617817307,-851968,-115,-56,-1,-1,0
1523617817307,-1114112,-115,-56,-1,-1,0
1523617817307,-1179648,-115,-56,-1,-1,0
1523617817347,-1310720,-115,-56,-1,-1,0
1523617817347,-1376256,-115,-56,-1,-1,0
1523617817347,-1245184,-115,-56,-1,-1,0
1523617817347,-1245184,-115,-56,-1,-1,0
1523617817347,-1245184,-115,-56,-1,-1,0
1523617817387,-1114112,-115,-56,-1,-1,0
1523617817387,-1048576,-115,-56,-1,-1,0
1523617817387,-1179648,-115,-56,-1,-1,0
1523617817387,-1638400,-115,-56,-1,-1,0
1523617817387,-2162688,-115,-56,-1,-1,0
1523617817427,-1376256,-115,-56,-1,-1,0
1523617817427,2621440,-115,-56,-1,-1,0
1523617817427,7274496,-115,-56,-1,-1,0
1523617817427,7077888,-115,-56,-1,-1,0
1523617817427,2883584,-115,-56,-1,-1,0
1523617817467,-131072,-115,-56,-1,-1,0
1523617817467,-1048576,-115,-56,-1,-1,0
1523617817467,-1507328,-115,-56,-1,-1,0
1523617817467,-1441792,-115,-56,-1,-1,0
1523617817467,-1245184,-115,-56,-1,-1,0
1523617817507,-1310720,-115,-56,-1,-1,0
1523617817507,-1441792,-115,-56,-1,-1,0
1523617817507,-1376256,-115,-56,-1,-1,0
1523617817507,-1179648,-115,-56,-1,-1,0
1523617817507,-917504,-115,-56,-1,-1,0
1523617817547,-720896,-115,-56,-1,-1,0
1523617817547,-720896,-115,-56,-1,-1,0
1523617817547,-589824,-115,-56,-1,-1,0
1523617817547,-196608,-115,-56,-1,-1,0
1523617817547,524288,-115,-56,-1,-1,0
1523617817587,1245184,-115,-56,-1,-1,0
1523617817587,1638400,-115,-56,-1,-1,0
1523617817587,2097152,-115,-56,-1,-1,0
1523617817587,2752512,-115,-56,-1,-1,0
1523617817587,3407872,-115,-56,-1,-1,0
1523617817627,3604480,-115,-56,-1,-1,0
1523617817627,3473408,-115,-56,-1,-1,0
1523617817627,2621440,-115,-56,-1,-1,0
1523617817627,1441792,-115,-56,-1,-1,0
1523617817627,458752,-115,-56,-1,-1,0
1523617817667,-131072,-115,-56,-1,-1,0
1523617817667,-524288,-115,-56,-1,-1,0
1523617817667,-589824,-115,-56,-1,-1,0
1523617817667,-524288,-115,-56,-1,-1,0
1523617817667,-589824,-115,-56,-1,-1,0
1523617817707,-655360,-115,-56,-1,-1,0
1523617817707,-720896,-115,-56,-1,-1,0
1523617817707,-786432,-115,-56,-1,-1,0
1523617817707,-720896,-115,-56,-1,-1,0
1523617817707,-589824,-115,-56,-1,-1,0
1523617817752,-851968,-115,-56,-1,-1,0
1523617817752,-1179648,-115,-56,-1,-1,0
1523617817752,-1179648,-115,-56,-1,-1,0
1523617817752,-1572864,-115,-56,-1,-1,0
1523617817752,-2031616,-115,-56,-1,-1,0
1523617817787,-2162688,-115,-56,-1,-1,0
1523617817787,-1966080,-115,-56,-1,-1,0
1523617817787,-1900544,-115,-56,-1,-1,0
1523617817787,-2031616,-115,-56,-1,-1,0
1523617817787,-2031616,-115,-56,-1,-1,0
1523617817827,-2162688,-115,-56,-1,-1,0
1523617817827,-2228224,-115,-56,-1,-1,0
1523617817827,-2490368,-115,-56,-1,-1,0
1523617817827,-2752512,-115,-56,-1,-1,0
1523617817827,-2162688,-115,-56,-1,-1,0
1523617817867,589824,-115,-56,-1,-1,0
1523617817867,5308416,-115,-56,-1,-1,0
1523617817867,7405568,-115,-56,-1,-1,0
1523617817867,4194304,-115,-56,-1,-1,0
1523617817867,-196608,-115,-56,-1,-1,0
1523617817907,-2097152,-115,-56,-1,-1,0
1523617817907,-2359296,-115,-56,-1,-1,0
1523617817907,-2555904,-115,-56,-1,-1,0
1523617817907,-2621440,-115,-56,-1,-1,0
1523617817907,-2490368,-115,-56,-1,-1,0
1523617817947,-2293760,-115,-56,-1,-1,0
1523617817947,-2359296,-115,-56,-1,-1,0
1523617817947,-2293760,-115,-56,-1,-1,0
1523617817947,-2031616,-115,-56,-1,-1,0
1523617817947,-1769472,-115,-56,-1,-1,0
1523617817987,-1638400,-115,-56,-1,-1,0
1523617817987,-1507328,-115,-56,-1,-1,0
1523617817987,-1245184,-115,-56,-1,-1,0
1523617817987,-851968,-115,-56,-1,-1,0
1523617817987,-393216,-115,-56,-1,-1,0
1523617818027,458752,-116,-56,-1,-1,0
1523617818027,1572864,-116,-56,-1,-1,0
1523617818027,2293760,-116,-56,-1,-1,0
1523617818027,2621440,-116,-56,-1,-1,0
1523617818027,2949120,-116,-56,-1,-1,0
1523617818067,3080192,-116,-56,-1,-1,0
1523617818067,2752512,-116,-56,-1,-1,0
1523617818067,1769472,-116,-56,-1,-1,0
1523617818067,655360,-116,-56,-1,-1,0
1523617818067,-196608,-116,-56,-1,-1,0
1523617818107,-720896,-116,-56,-1,-1,0
1523617818107,-851968,-116,-56,-1,-1,0
1523617818107,-917504,-116,-56,-1,-1,0
1523617818107,-917504,-116,-56,-1,-1,0
1523617818107,-786432,-116,-56,-1,-1,0
1523617818147,-524288,-116,-56,-1,-1,0
1523617818147,-589824,-116,-56,-1,-1,0
1523617818147,-786432,-116,-56,-1,-1,0
1523617818147,-720896,-116,-56,-1,-1,0
1523617818147,-786432,-116,-56,-1,-1,0
1523617818187,-983040,-116,-56,-1,-1,0
1523617818187,-1245184,-116,-56,-1,-1,0
1523617818187,-1441792,-116,-56,-1,-1,0
1523617818187,-1572864,-116,-56,-1,-1,0
1523617818187,-1703936,-116,-56,-1,-1,0
1523617818227,-1900544,-116,-56,-1,-1,0
1523617818227,-1900544,-116,-56,-1,-1,0
1523617818227,-1769472,-116,-56,-1,-1,0
1523617818227,-1835008,-116,-56,-1,-1,0
1523617818227,-1966080,-116,-56,-1,-1,0
1523617818267,-1900544,-116,-56,-1,-1,0
1523617818267,-1769472,-116,-56,-1,-1,0
1523617818267,-2031616,-116,-56,-1,-1,0
1523617818267,-2424832,-116,-56,-1,-1,0
1523617818267,-1703936,-116,-56,-1,-1,0
1523617818307,2359296,-116,-56,-1,-1,0
1523617818307,7929856,-116,-56,-1,-1,0
1523617818307,8847360,-116,-56,-1,-1,0
1523617818307,4128768,-116,-56,-1,-1,0
1523617818307,-393216,-116,-56,-1,-1,0
1523617818347,-1900544,-116,-56,-1,-1,0
1523617818347,-1835008,-116,-56,-1,-1,0
1523617818347,-1572864,-116,-56,-1,-1,0
1523617818347,-1703936,-116,-56,-1,-1,0
1523617818347,-1769472,-116,-56,-1,-1,0
1523617818392,-1638400,-116,-56,-1,-1,0
1523617818392,-1572864,-116,-56,-1,-1,0
1523617818392,-1376256,-116,-56,-1,-1,0
1523617818392,-1114112,-116,-56,-1,-1,0
1523617818392,-655360,-116,-56,-1,-1,0
1523617818427,-131072,-116,-56,-1,-1,0
1523617818427,65536,-116,-56,-1,-1,0
1523617818427,0,-116,-56,-1,-1,0
1523617818427,458752,-116,-56,-1,-1,0
1523617818427,1572864,-116,-56,-1,-1,0
1523617818467,2490368,-116,-56,-1,-1,0
1523617818467,2883584,-116,-56,-1,-1,0
1523617818467,3538944,-116,-56,-1,-1,0
1523617818467,4259840,-116,-56,-1,-1,0
1523617818467,4521984,-116,-56,-1,-1,0
1523617818507,4063232,-116,-56,-1,-1,0
1523617818507,3473408,-116,-56,-1,-1,0
1523617818507,2818048,-116,-56,-1,-1,0
1523617818507,1900544,-116,-56,-1,-1,0
1523617818507,786432,-116,-56,-1,-1,0
1523617818547,196608,-116,-56,-1,-1,0
1523617818547,0,-116,-56,-1,-1,0
1523617818547,-131072,-116,-56,-1,-1,0
1523617818547,-131072,-116,-56,-1,-1,0
1523617818547,0,-116,-56,-1,-1,0
1523617818587,196608,-116,-56,-1,-1,0
1523617818587,196608,-116,-56,-1,-1,0
1523617818587,65536,-116,-56,-1,-1,0
1523617818587,65536,-116,-56,-1,-1,0
1523617818587,262144,-116,-56,-1,-1,0
1523617818627,131072,-116,-56,-1,-1,0
1523617818627,-196608,-116,-56,-1,-1,0
1523617818627,-786432,-116,-56,-1,-1,0
1523617818627,-917504,-116,-56,-1,-1,0
1523617818627,-655360,-116,-56,-1,-1,0
1523617818667,-524288,-116,-56,-1,-1,0
1523617818667,-720896,-116,-56,-1,-1,0
1523617818667,-917504,-116,-56,-1,-1,0
1523617818667,-786432,-116,-56,-1,-1,0
1523617818667,-786432,-116,-56,-1,-1,0
1523617818707,-1048576,-116,-56,-1,-1,0
1523617818707,-1179648,-116,-56,-1,-1,0
1523617818707,-1179648,-116,-56,-1,-1,0
1523617818707,-1376256,-116,-56,-1,-1,0
1523617818707,-131072,-116,-56,-1,-1,0
1523617818747,4325376,-116,-56,-1,-1,0
1523617818747,8519680,-116,-56,-1,-1,0
1523617818747,7602176,-116,-56,-1,-1,0
1523617818747,2949120,-116,-56,-1,-1,0
1523617818747,-196608,-116,-56,-1,-1,0
1523617818787,-1114112,-116,-56,-1,-1,0
1523617818787,-1179648,-116,-56,-1,-1,0
1523617818787,-1114112,-116,-56,-1,-1,0
1523617818787,-983040,-116,-56,-1,-1,0
1523617818787,-851968,-116,-56,-1,-1,0
1523617818827,-720896,-116,-56,-1,-1,0
1523617818827,-589824,-116,-56,-1,-1,0
1523617818827,-327680,-116,-56,-1,-1,0
1523617818827,-196608,-116,-56,-1,-1,0
1523617818827,-131072,-116,-56,-1,-1,0
1523617818867,0,-116,-56,-1,-1,0
1523617818867,327680,-116,-56,-1,-1,0
1523617818867,786432,-116,-56,-1,-1,0
1523617818867,1376256,-116,-56,-1,-1,0
1523617818867,1900544,-116,-56,-1,-1,0
1523617818907,2555904,-116,-56,-1,-1,0
1523617818907,3276800,-116,-56,-1,-1,0
1523617818907,3997696,-116,-56,-1,-1,0
1523617818907,4456448,-116,-56,-1,-1,0
1523617818907,4194304,-116,-56,-1,-1,0
1523617818947,3670016,-116,-56,-1,-1,0
1523617818947,3407872,-116,-56,-1,-1,0
1523617818947,2949120,-116,-56,-1,-1,0
1523617818947,1703936,-116,-56,-1,-1,0
1523617818947,1048576,-116,-56,-1,-1,0
1523617818987,917504,-116,-56,-1,-1,0
1523617818987,786432,-116,-56,-1,-1,0
1523617818987,720896,-116,-56,-1,-1,0
1523617818987,786432,-116,-56,-1,-1,0
1523617818987,720896,-116,-56,-1,-1,0
1523617819032,655360,-116,-56,-1,-1,0
1523617819032,786432,-116,-56,-1,-1,0
1523617819032,1114112,-116,-56,-1,-1,0
1523617819032,1179648,-116,-56,-1,-1,0
1523617819032,851968,-116,-56,-1,-1,0
1523617819067,327680,-116,-56,-1,-1,0
1523617819067,0,-116,-56,-1,-1,0
1523617819067,-65536,-116,-56,-1,-1,0
1523617819067,-262144,-116,-56,-1,-1,0
1523617819067,-524288,-116,-56,-1,-1,0
1523617819107,-524288,-116,-56,-1,-1,0
1523617819107,-393216,-116,-56,-1,-1,0
1523617819107,-393216,-116,-56,-1,-1,0
1523617819107,-589824,-116,-56,-1,-1,0
1523617819107,-524288,-116,-56,-1,-1,0
1523617819147,-458752,-116,-56,-1,-1,0
1523617819147,-655360,-116,-56,-1,-1,0
1523617819147,-1441792,-116,-56,-1,-1,0
1523617819147,-1441792,-116,-56,-1,-1,0
1523617819147,1572864,-116,-56,-1,-1,0
1523617819187,6750208,-116,-56,-1,-1,0
1523617819187,8257536,-116,-56,-1,-1,0
1523617819187,4718592,-116,-56,-1,-1,0
1523617819187,851968,-116,-56,-1,-1,0
1523617819187,-589824,-116,-56,-1,-1,0
1523617819227,-917504,-116,-56,-1,-1,0
1523617819227,-1048576,-116,-56,-1,-1,0
1523617819227,-1114112,-116,-56,-1,-1,0
1523617819227,-1376256,-116,-56,-1,-1,0
1523617819227,-1507328,-116,-56,-1,-1,0
1523617819267,-1507328,-116,-56,-1,-1,0
1523617819267,-1441792,-116,-56,-1,-1,0
1523617819267,-1310720,-116,-56,-1,-1,0
1523617819267,-1114112,-116,-56,-1,-1,0
1523617819267,-983040,-116,-56,-1,-1,0
1523617819307,-786432,-116,-56,-1,-1,0
1523617819307,-458752,-116,-56,-1,-1,0
1523617819307,-65536,-116,-56,-1,-1,0
1523617819307,262144,-116,-56,-1,-1,0
1523617819307,786432,-116,-56,-1,-1,0
1523617819347,1114112,-118,-56,-1,-1,0
1523617819347,1572864,-118,-56,-1,-1,0
1523617819347,2031616,-118,-56,-1,-1,0
1523617819347,2359296,-118,-56,-1,-1,0
1523617819347,2228224,-118,-56,-1,-1,0
1523617819387,1769472,-118,-56,-1,-1,0
1523617819387,1376256,-118,-56,-1,-1,0
1523617819387,720896,-118,-56,-1,-1,0
1523617819387,-131072,-118,-56,-1,-1,0
1523617819387,-720896,-118,-56,-1,-1,0
1523617819427,-720896,-118,-56,-1,-1,0
1523617819427,-851968,-118,-56,-1,-1,0
1523617819427,-983040,-118,-56,-1,-1,0
1523617819427,-1114112,-118,-56,-1,-1,0
1523617819427,-1179648,-118,-56,-1,-1,0
1523617819467,-1114112,-118,-56,-1,-1,0
1523617819467,-1048576,-118,-56,-1,-1,0
1523617819467,-1179648,-118,-56,-1,-1,0
1523617819467,-1507328,-118,-56,-1,-1,0
1523617819467,-1572864,-118,-56,-1,-1,0
1523617819507,-1900544,-118,-56,-1,-1,0
1523617819507,-2228224,-118,-56,-1,-1,0
1523617819507,-2621440,-118,-56,-1,-1,0
1523617819507,-2359296,-118,-56,-1,-1,0
1523617819507,-2293760,-118,-56,-1,-1,0
1523617819547,-2490368,-118,-56,-1,-1,0
1523617819547,-2686976,-118,-56,-1,-1,0
1523617819547,-2293760,-118,-56,-1,-1,0
1523617819547,-2359296,-118,-56,-1,-1,0
1523617819547,-2555904,-118,-56,-1,-1,0
1523617819587,-2424832,-118,-56,-1,-1,0
1523617819587,-2424832,-118,-56,-1,-1,0
1523617819587,-2752512,-118,-56,-1,-1,0
1523617819587,-1507328,-118,-56,-1,-1,0
1523617819587,2621440,-118,-56,-1,-1,0
1523617819627,6291456,-118,-56,-1,-1,0
1523617819627,5177344,-118,-56,-1,-1,0
1523617819627,917504,-118,-56,-1,-1,0
1523617819627,-1769472,-118,-56,-1,-1,0
1523617819627,-2490368,-118,-56,-1,-1,0
1523617819672,-2621440,-118,-56,-1,-1,0
1523617819672,-2555904,-118,-56,-1,-1,0
1523617819672,-2490368,-118,-56,-1,-1,0
1523617819672,-2424832,-118,-56,-1,-1,0
1523617819672,-2359296,-118,-56,-1,-1,0
1523617819707,-2162688,-118,-56,-1,-1,0
1523617819707,-2162688,-118,-56,-1,-1,0
1523617819707,-2162688,-118,-56,-1,-1,0
1523617819707,-2097152,-118,-56,-1,-1,0
1523617819707,-1769472,-118,-56,-1,-1,0
1523617819747,-1507328,-118,-56,-1,-1,0
1523617819747,-1114112,-118,-56,-1,-1,0
1523617819747,-393216,-118,-56,-1,-1,0
1523617819747,196608,-118,-56,-1,-1,0
1523617819747,851968,-118,-56,-1,-1,0
1523617819787,1638400,-118,-56,-1,-1,0
1523617819787,2228224,-118,-56,-1,-1,0
1523617819787,2424832,-118,-56,-1,-1,0
1523617819787,2490368,-118,-56,-1,-1,0
1523617819787,2293760,-118,-56,-1,-1,0
1523617819827,2031616,-118,-56,-1,-1,0
1523617819827,917504,-118,-56,-1,-1,0
1523617819827,-262144,-118,-56,-1,-1,0
1523617819827,-1114112,-118,-56,-1,-1,0
1523617819827,-1310720,-118,-56,-1,-1,0
1523617819867,-1507328,-118,-56,-1,-1,0
1523617819867,-1441792,-118,-56,-1,-1,0
1523617819867,-1114112,-118,-56,-1,-1,0
1523617819867,-983040,-118,-56,-1,-1,0
1523617819867,-1179648,-118,-56,-1,-1,0
1523617819907,-1310720,-118,-56,-1,-1,0
1523617819907,-1179648,-118,-56,-1,-1,0
1523617819907,-1310720,-118,-56,-1,-1,0
1523617819907,-1179648,-118,-56,-1,-1,0
1523617819907,-1048576,-118,-56,-1,-1,0
1523617819947,-1441792,-118,-56,-1,-1,0
1523617819947,-1769472,-118,-56,-1,-1,0
1523617819947,-1769472,-118,-56,-1,-1,0
1523617819947,-1769472,-118,-56,-1,-1,0
1523617819947,-1703936,-118,-56,-1,-1,0
1523617819987,-1572864,-118,-56,-1,-1,0
1523617819987,-1572864,-118,-56,-1,-1,0
1523617819987,-1703936,-118,-56,-1,-1,0
1523617819987,-1835008,-118,-56,-1,-1,0
1523617819987,-1638400,-118,-56,-1,-1,0
1523617820027,-1769472,-118,-56,-1,-1,0
1523617820027,-1966080,-118,-56,-1,-1,0
1523617820027,-1376256,-118,-56,-1,-1,0
1523617820027,1769472,-118,-56,-1,-1,0
1523617820027,6881280,-118,-56,-1,-1,0
1523617820067,8912896,-118,-56,-1,-1,0
1523617820067,5373952,-118,-56,-1,-1,0
1523617820067,851968,-118,-56,-1,-1,0
1523617820067,-1048576,-118,-56,-1,-1,0
1523617820067,-1310720,-118,-56,-1,-1,0
1523617820106,-1179648,-118,-56,-1,-1,0
1523617820106,-851968,-118,-56,-1,-1,0
1523617820106,-786432,-118,-56,-1,-1,0
1523617820106,-589824,-118,-56,-1,-1,0
1523617820106,-458752,-118,-56,-1,-1,0
1523617820146,-393216,-118,-56,-1,-1,0
1523617820146,-262144,-118,-56,-1,-1,0
1523617820146,0,-118,-56,-1,-1,0
1523617820146,262144,-118,-56,-1,-1,0
1523617820146,589824,-118,-56,-1,-1,0
1523617820186,1048576,-118,-56,-1,-1,0
1523617820186,1572864,-118,-56,-1,-1,0
1523617820186,1966080,-118,-56,-1,-1,0
1523617820186,2555904,-118,-56,-1,-1,0
1523617820186,3276800,-118,-56,-1,-1,0
1523617820226,3801088,-118,-56,-1,-1,0
1523617820226,4194304,-118,-56,-1,-1,0
1523617820226,4456448,-118,-56,-1,-1,0
1523617820226,4587520,-118,-56,-1,-1,0
1523617820226,4128768,-118,-56,-1,-1,0
1523617820266,3342336,-118,-56,-1,-1,0
1523617820266,2621440,-118,-56,-1,-1,0
1523617820266,1835008,-118,-56,-1,-1,0
1523617820266,720896,-118,-56,-1,-1,0
1523617820266,196608,-118,-56,-1,-1,0
1523617820311,196608,-118,-56,-1,-1,0
1523617820311,262144,-118,-56,-1,-1,0
1523617820311,327680,-118,-56,-1,-1,0
1523617820311,393216,-118,-56,-1,-1,0
1523617820311,393216,-118,-56,-1,-1,0
1523617820346,458752,-118,-56,-1,-1,0
1523617820346,393216,-118,-56,-1,-1,0
1523617820346,131072,-118,-56,-1,-1,0
1523617820346,-131072,-118,-56,-1,-1,0
1523617820346,-458752,-118,-56,-1,-1,0
1523617820386,-786432,-118,-56,-1,-1,0
1523617820386,-851968,-118,-56,-1,-1,0
1523617820386,-720896,-118,-56,-1,-1,0
1523617820386,-655360,-118,-56,-1,-1,0
1523617820386,-720896,-118,-56,-1,-1,0
1523617820427,-786432,-118,-56,-1,-1,0
1523617820427,-786432,-118,-56,-1,-1,0
1523617820427,-786432,-118,-56,-1,-1,0
1523617820427,-983040,-118,-56,-1,-1,0
1523617820427,-1310720,-118,-56,-1,-1,0
1523617820466,-1376256,-118,-56,-1,-1,0
1523617820466,-1441792,-118,-56,-1,-1,0
1523617820466,65536,-118,-56,-1,-1,0
1523617820466,4521984,-118,-56,-1,-1,0
1523617820466,7864320,-118,-56,-1,-1,0
1523617820506,5767168,-118,-56,-1,-1,0
1523617820506,1507328,-118,-56,-1,-1,0
1523617820506,-720896,-118,-56,-1,-1,0
1523617820506,-1245184,-118,-56,-1,-1,0
1523617820506,-1376256,-118,-56,-1,-1,0
1523617820546,-1507328,-118,-56,-1,-1,0
1523617820546,-1638400,-118,-56,-1,-1,0
1523617820546,-1572864,-118,-56,-1,-1,0
1523617820546,-1441792,-118,-56,-1,-1,0
1523617820546,-1310720,-118,-56,-1,-1,0
1523617820586,-1048576,-118,-56,-1,-1,0
1523617820586,-851968,-118,-56,-1,-1,0
1523617820586,-589824,-118,-56,-1,-1,0
1523617820586,-262144,-118,-56,-1,-1,0
1523617820586,-131072,-118,-56,-1,-1,0
1523617820626,131072,-118,-56,-1,-1,0
1523617820626,524288,-118,-56,-1,-1,0
1523617820626,1114112,-118,-56,-1,-1,0
1523617820626,1638400,-118,-56,-1,-1,0
1523617820626,1966080,-118,-56,-1,-1,0
1523617820666,2359296,-118,-56,-1,-1,0
1523617820666,2752512,-118,-56,-1,-1,0
1523617820666,3014656,-118,-56,-1,-1,0
1523617820666,2883584,-118,-56,-1,-1,0
1523617820666,2293760,-118,-56,-1,-1,0
1523617820706,1572864,-118,-56,-1,-1,0
1523617820706,917504,-118,-56,-1,-1,0
1523617820706,327680,-118,-56,-1,-1,0
1523617820706,-65536,-118,-56,-1,-1,0
1523617820706,-262144,-118,-56,-1,-1,0
1523617820746,-262144,-118,-56,-1,-1,0
1523617820746,-327680,-118,-56,-1,-1,0
1523617820746,-262144,-118,-56,-1,-1,0
1523617820746,-65536,-118,-56,-1,-1,0
1523617820746,-65536,-118,-56,-1,-1,0
1523617820786,-196608,-118,-56,-1,-1,0
1523617820786,-458752,-118,-56,-1,-1,0
1523617820786,-524288,-118,-56,-1,-1,0
1523617820786,-655360,-118,-56,-1,-1,0
1523617820786,-1048576,-118,-56,-1,-1,0
1523617820826,-1376256,-118,-56,-1,-1,0
1523617820826,-1441792,-118,-56,-1,-1,0
1523617820826,-1638400,-118,-56,-1,-1,0
1523617820826,-1769472,-118,-56,-1,-1,0
1523617820826,-1769472,-118,-56,-1,-1,0
1523617820866,-1769472,-118,-56,-1,-1,0
1523617820866,-1638400,-118,-56,-1,-1,0
1523617820866,-1572864,-118,-56,-1,-1,0
1523617820866,-1769472,-118,-56,-1,-1,0
1523617820866,-2228224,-118,-56,-1,-1,0
1523617820906,-2424832,-118,-56,-1,-1,0
1523617820906,-1376256,-118,-56,-1,-1,0
1523617820906,2293760,-118,-56,-1,-1,0
1523617820906,5963776,-118,-56,-1,-1,0
1523617820906,5111808,-118,-56,-1,-1,0
1523617820952,1310720,-118,-56,-1,-1,0
1523617820952,-1179648,-118,-56,-1,-1,0
1523617820952,-1835008,-118,-56,-1,-1,0
1523617820952,-2228224,-118,-56,-1,-1,0
1523617820952,-2424832,-118,-56,-1,-1,0
1523617820986,-2621440,-118,-56,-1,-1,0
1523617820986,-2621440,-118,-56,-1,-1,0
1523617820986,-2621440,-118,-56,-1,-1,0
1523617820986,-2424832,-118,-56,-1,-1,0
1523617820986,-2228224,-118,-56,-1,-1,0
1523617821026,-2031616,-118,-56,-1,-1,0
1523617821026,-1703936,-118,-56,-1,-1,0
1523617821026,-1441792,-118,-56,-1,-1,0
1523617821026,-1245184,-118,-56,-1,-1,0
1523617821026,-983040,-118,-56,-1,-1,0
1523617821066,-524288,-118,-56,-1,-1,0
1523617821066,0,-118,-56,-1,-1,0
1523617821066,458752,-118,-56,-1,-1,0
1523617821066,1048576,-118,-56,-1,-1,0
1523617821066,1769472,-118,-56,-1,-1,0
1523617821106,2228224,-118,-56,-1,-1,0
1523617821106,2359296,-118,-56,-1,-1,0
1523617821106,2162688,-118,-56,-1,-1,0
1523617821106,1572864,-118,-56,-1,-1,0
1523617821106,917504,-118,-56,-1,-1,0
1523617821146,262144,-118,-56,-1,-1,0
1523617821146,-393216,-118,-56,-1,-1,0
1523617821146,-720896,-118,-56,-1,-1,0
1523617821146,-720896,-118,-56,-1,-1,0
1523617821146,-720896,-118,-56,-1,-1,0
1523617821187,-720896,-118,-56,-1,-1,0
1523617821187,-524288,-118,-56,-1,-1,0
1523617821187,-327680,-118,-56,-1,-1,0
1523617821187,-458752,-118,-56,-1,-1,0
1523617821187,-589824,-118,-56,-1,-1,0
1523617821226,-589824,-118,-56,-1,-1,0
1523617821226,-655360,-118,-56,-1,-1,0
1523617821226,-851968,-118,-56,-1,-1,0
1523617821226,-1114112,-118,-56,-1,-1,0
1523617821226,-1376256,-118,-56,-1,-1,0
1523617821267,-1376256,-118,-56,-1,-1,0
1523617821267,-1441792,-118,-56,-1,-1,0
1523617821267,-1441792,-118,-56,-1,-1,0
1523617821267,-1376256,-118,-56,-1,-1,0
1523617821267,-1245184,-118,-56,-1,-1,0
1523617821307,-1114112,-118,-56,-1,-1,0
1523617821307,-1048576,-118,-56,-1,-1,0
1523617821307,-1048576,-118,-56,-1,-1,0
1523617821307,-1441792,-118,-56,-1,-1,0
1523617821307,-1966080,-118,-56,-1,-1,0
1523617821346,-983040,-118,-56,-1,-1,0
1523617821346,3145728,-118,-56,-1,-1,0
1523617821346,7929856,-118,-56,-1,-1,0
1523617821346,7864320,-118,-56,-1,-1,0
1523617821346,3276800,-118,-56,-1,-1,0
1523617821387,-196608,-118,-56,-1,-1,0
1523617821387,-917504,-118,-56,-1,-1,0
1523617821387,-917504,-118,-56,-1,-1,0
1523617821387,-1048576,-118,-56,-1,-1,0
1523617821387,-1048576,-118,-56,-1,-1,0
1523617821426,-1114112,-118,-56,-1,-1,0
1523617821426,-917504,-118,-56,-1,-1,0
1523617821426,-524288,-118,-56,-1,-1,0
1523617821426,-262144,-118,-56,-1,-1,0
1523617821426,-327680,-118,-56,-1,-1,0
1523617821467,-327680,-118,-56,-1,-1,0
1523617821467,-196608,-118,-56,-1,-1,0
1523617821467,65536,-118,-56,-1,-1,0
1523617821467,393216,-118,-56,-1,-1,0
1523617821467,1048576,-118,-56,-1,-1,0
1523617821507,1507328,-118,-56,-1,-1,0
1523617821507,2359296,-118,-56,-1,-1,0
1523617821507,3145728,-118,-56,-1,-1,0
1523617821507,3801088,-118,-56,-1,-1,0
1523617821507,3866624,-118,-56,-1,-1,0
1523617821547,3932160,-118,-56,-1,-1,0
1523617821547,3932160,-118,-56,-1,-1,0
1523617821547,3801088,-118,-56,-1,-1,0
1523617821547,2686976,-118,-56,-1,-1,0
1523617821547,1507328,-118,-56,-1,-1,0
1523617821592,917504,-118,-56,-1,-1,0
1523617821592,262144,-118,-56,-1,-1,0
1523617821592,0,-118,-56,-1,-1,0
1523617821592,0,-118,-56,-1,-1,0
1523617821592,65536,-118,-56,-1,-1,0
1523617821627,0,-118,-56,-1,-1,0
1523617821627,0,-118,-56,-1,-1,0
1523617821627,327680,-118,-56,-1,-1,0
1523617821627,327680,-118,-56,-1,-1,0
1523617821627,0,-118,-56,-1,-1,0
1523617821666,-131072,-118,-56,-1,-1,0
1523617821666,-262144,-118,-56,-1,-1,0
1523617821666,-458752,-118,-56,-1,-1,0
1523617821666,-655360,-118,-56,-1,-1,0
1523617821666,-851968,-118,-56,-1,-1,0
1523617821706,-1048576,-118,-56,-1,-1,0
1523617821706,-1048576,-118,-56,-1,-1,0
1523617821706,-917504,-118,-56,-1,-1,0
1523617821706,-851968,-118,-56,-1,-1,0
1523617821706,-851968,-118,-56,-1,-1,0
1523617821747,-983040,-118,-56,-1,-1,0
1523617821747,-1114112,-118,-56,-1,-1,0
1523617821747,-1310720,-118,-56,-1,-1,0
1523617821747,-2031616,-118,-56,-1,-1,0
1523617821747,-1572864,-118,-56,-1,-1,0
1523617821786,1835008,-118,-56,-1,-1,0
1523617821786,8060928,-118,-56,-1,-1,0
1523617821786,10289152,-118,-56,-1,-1,0
1523617821786,5701632,-118,-56,-1,-1,0
1523617821786,196608,-118,-56,-1,-1,0
1523617821827,-1572864,-118,-56,-1,-1,0
1523617821827,-1376256,-118,-56,-1,-1,0
1523617821827,-1310720,-118,-56,-1,-1,0
1523617821827,-1048576,-118,-56,-1,-1,0
1523617821827,-851968,-118,-56,-1,-1,0
1523617821867,-1114112,-118,-56,-1,-1,0
1523617821867,-1114112,-118,-56,-1,-1,0
1523617821867,-720896,-118,-56,-1,-1,0
1523617821867,-458752,-118,-56,-1,-1,0
1523617821867,-262144,-118,-56,-1,-1,0
1523617821907,0,-118,-56,-1,-1,0
1523617821907,393216,-118,-56,-1,-1,0
1523617821907,786432,-118,-56,-1,-1,0
1523617821907,1245184,-118,-56,-1,-1,0
1523617821907,1966080,-118,-56,-1,-1,0
1523617821946,2555904,-118,-56,-1,-1,0
1523617821946,3604480,-118,-56,-1,-1,0
1523617821946,4325376,-118,-56,-1,-1,0
1523617821946,4587520,-118,-56,-1,-1,0
1523617821946,4784128,-118,-56,-1,-1,0
1523617821986,4784128,-118,-56,-1,-1,0
1523617821986,3997696,-118,-56,-1,-1,0
1523617821986,2949120,-118,-56,-1,-1,0
1523617821986,1769472,-118,-56,-1,-1,0
1523617821986,720896,-118,-56,-1,-1,0
1523617822027,65536,-118,-56,-1,-1,0
1523617822027,-196608,-118,-56,-1,-1,0
1523617822027,-327680,-118,-56,-1,-1,0
1523617822027,-393216,-118,-56,-1,-1,0
1523617822027,-262144,-118,-56,-1,-1,0
1523617822066,-327680,-118,-56,-1,-1,0
1523617822066,-327680,-118,-56,-1,-1,0
1523617822066,-589824,-118,-56,-1,-1,0
1523617822066,-589824,-118,-56,-1,-1,0
1523617822066,-655360,-118,-56,-1,-1,0
1523617822107,-1114112,-118,-56,-1,-1,0
1523617822107,-1441792,-118,-56,-1,-1,0
1523617822107,-1900544,-118,-56,-1,-1,0
1523617822107,-2424832,-118,-56,-1,-1,0
1523617822107,-2686976,-118,-56,-1,-1,0
1523617822147,-2686976,-118,-56,-1,-1,0
1523617822147,-2818048,-118,-56,-1,-1,0
1523617822147,-2949120,-118,-56,-1,-1,0
1523617822147,-3407872,-118,-56,-1,-1,0
1523617822147,-3473408,-118,-56,-1,-1,0
1523617822186,-3473408,-118,-56,-1,-1,0
1523617822186,-3801088,-118,-56,-1,-1,0
1523617822186,-4587520,-118,-56,-1,-1,0
1523617822186,-4456448,-118,-56,-1,-1,0
1523617822186,-1966080,-118,-56,-1,-1,0
1523617822232,3407872,-118,-56,-1,-1,0
1523617822232,6815744,-118,-56,-1,-1,0
1523617822232,3538944,-118,-56,-1,-1,0
1523617822232,-2555904,-118,-56,-1,-1,0
1523617822232,-5177344,-118,-56,-1,-1,0
1523617822267,-4653056,-118,-56,-1,-1,0
1523617822267,-4390912,-118,-56,-1,-1,0
1523617822267,-4718592,-118,-56,-1,-1,0
1523617822267,-4915200,-118,-56,-1,-1,0
1523617822267,-4784128,-118,-56,-1,-1,0
1523617822307,-4456448,-118,-56,-1,-1,0
1523617822307,-4259840,-118,-56,-1,-1,0
1523617822307,-3997696,-118,-56,-1,-1,0
1523617822307,-3735552,-118,-56,-1,-1,0
1523617822307,-3670016,-118,-56,-1,-1,0
1523617822347,-3538944,-118,-56,-1,-1,0
1523617822347,-3080192,-118,-56,-1,-1,0
1523617822347,-2359296,-118,-56,-1,-1,0
1523617822347,-1769472,-118,-56,-1,-1,0
1523617822347,-1048576,-118,-56,-1,-1,0
1523617822387,-327680,-118,-56,-1,-1,0
1523617822387,327680,-118,-56,-1,-1,0
1523617822387,1114112,-118,-56,-1,-1,0
1523617822387,1507328,-118,-56,-1,-1,0
1523617822387,1572864,-118,-56,-1,-1,0
1523617822426,1179648,-118,-56,-1,-1,0
1523617822426,458752,-118,-56,-1,-1,0
1523617822426,-589824,-118,-56,-1,-1,0
1523617822426,-1703936,-118,-56,-1,-1,0
1523617822426,-2424832,-118,-56,-1,-1,0
1523617822466,-2752512,-118,-56,-1,-1,0
1523617822466,-3014656,-118,-56,-1,-1,0
1523617822466,-3145728,-118,-56,-1,-1,0
1523617822466,-3211264,-118,-56,-1,-1,0
1523617822466,-3080192,-118,-56,-1,-1,0
1523617822506,-2752512,-118,-56,-1,-1,0
1523617822506,-2621440,-118,-56,-1,-1,0
1523617822506,-2490368,-118,-56,-1,-1,0
1523617822506,-2490368,-118,-56,-1,-1,0
1523617822506,-2490368,-118,-56,-1,-1,0
1523617822546,-2555904,-118,-56,-1,-1,0
1523617822546,-2752512,-118,-56,-1,-1,0
1523617822546,-2949120,-118,-56,-1,-1,0
1523617822546,-3080192,-118,-56,-1,-1,0
1523617822546,-2883584,-118,-56,-1,-1,0
1523617822586,-2818048,-118,-56,-1,-1,0
1523617822586,-2949120,-118,-56,-1,-1,0
1523617822586,-2949120,-118,-56,-1,-1,0
1523617822586,-2818048,-118,-56,-1,-1,0
1523617822586,-2818048,-118,-56,-1,-1,0
1523617822626,-3080192,-118,-56,-1,-1,0
1523617822626,-3342336,-118,-56,-1,-1,0
1523617822626,-3538944,-118,-56,-1,-1,0
1523617822626,-2228224,-118,-56,-1,-1,0
1523617822626,2293760,-118,-56,-1,-1,0
1523617822666,7077888,-118,-56,-1,-1,0
1523617822666,6225920,-118,-56,-1,-1,0
1523617822666,1114112,-118,-56,-1,-1,0
1523617822666,-2359296,-118,-56,-1,-1,0
1523617822666,-2818048,-118,-56,-1,-1,0
1523617822706,-2621440,-118,-56,-1,-1,0
1523617822706,-2359296,-118,-56,-1,-1,0
1523617822706,-2359296,-118,-56,-1,-1,0
1523617822706,-2359296,-118,-56,-1,-1,0
1523617822706,-2228224,-118,-56,-1,-1,0
1523617822746,-1966080,-118,-56,-1,-1,0
1523617822746,-1769472,-118,-56,-1,-1,0
1523617822746,-1638400,-118,-56,-1,-1,0
1523617822746,-1441792,-118,-56,-1,-1,0
1523617822746,-983040,-118,-56,-1,-1,0
1523617822786,-524288,-119,-56,-1,-1,0
1523617822786,0,-119,-56,-1,-1,0
1523617822786,393216,-119,-56,-1,-1,0
1523617822786,983040,-119,-56,-1,-1,0
1523617822786,1835008,-119,-56,-1,-1,0
1523617822826,2621440,-119,-56,-1,-1,0
1523617822826,3211264,-119,-56,-1,-1,0
1523617822826,3670016,-119,-56,-1,-1,0
1523617822826,3997696,-119,-56,-1,-1,0
1523617822826,3866624,-119,-56,-1,-1,0
1523617822871,3276800,-119,-56,-1,-1,0
1523617822871,2686976,-119,-56,-1,-1,0
1523617822871,2162688,-119,-56,-1,-1,0
1523617822871,1441792,-119,-56,-1,-1,0
1523617822871,786432,-119,-56,-1,-1,0
1523617822906,393216,-119,-56,-1,-1,0
1523617822906,327680,-119,-56,-1,-1,0
1523617822906,393216,-119,-56,-1,-1,0
1523617822906,524288,-119,-56,-1,-1,0
1523617822906,655360,-119,-56,-1,-1,0
1523617822946,720896,-119,-56,-1,-1,0
1523617822946,851968,-119,-56,-1,-1,0
1523617822946,917504,-119,-56,-1,-1,0
1523617822946,851968,-119,-56,-1,-1,0
1523617822946,655360,-119,-56,-1,-1,0
1523617822986,393216,-119,-56,-1,-1,0
1523617822986,196608,-119,-56,-1,-1,0
1523617822986,262144,-119,-56,-1,-1,0
1523617822986,327680,-119,-56,-1,-1,0
1523617822986,458752,-119,-56,-1,-1,0
1523617823026,393216,-119,-56,-1,-1,0
1523617823026,196608,-119,-56,-1,-1,0
1523617823026,65536,-119,-56,-1,-1,0
1523617823026,131072,-119,-56,-1,-1,0
1523617823026,262144,-119,-56,-1,-1,0
1523617823066,196608,-119,-56,-1,-1,0
1523617823066,-262144,-119,-56,-1,-1,0
1523617823066,-655360,-119,-56,-1,-1,0
1523617823066,1507328,-119,-56,-1,-1,0
1523617823066,6946816,-119,-56,-1,-1,0
1523617823106,9895936,-119,-56,-1,-1,0
1523617823106,6881280,-119,-56,-1,-1,0
1523617823106,2228224,-119,-56,-1,-1,0
1523617823106,196608,-119,-56,-1,-1,0
1523617823106,0,-119,-56,-1,-1,0
1523617823146,0,-119,-56,-1,-1,0
1523617823146,0,-119,-56,-1,-1,0
1523617823146,-131072,-119,-56,-1,-1,0
1523617823146,-65536,-119,-56,-1,-1,0
1523617823146,0,-119,-56,-1,-1,0
1523617823186,196608,-119,-56,-1,-1,0
1523617823186,327680,-119,-56,-1,-1,0
1523617823186,524288,-119,-56,-1,-1,0
1523617823186,720896,-119,-56,-1,-1,0
1523617823186,1048576,-119,-56,-1,-1,0
1523617823226,1310720,-119,-56,-1,-1,0
1523617823226,1769472,-119,-56,-1,-1,0
1523617823226,2424832,-119,-56,-1,-1,0
1523617823226,3080192,-119,-56,-1,-1,0
1523617823226,3670016,-119,-56,-1,-1,0
1523617823266,4325376,-119,-56,-1,-1,0
1523617823266,4849664,-119,-56,-1,-1,0
1523617823266,5177344,-119,-56,-1,-1,0
1523617823266,5373952,-119,-56,-1,-1,0
1523617823266,5111808,-119,-56,-1,-1,0
1523617823307,4390912,-119,-56,-1,-1,0
1523617823307,3342336,-119,-56,-1,-1,0
1523617823307,2490368,-119,-56,-1,-1,0
1523617823307,1966080,-119,-56,-1,-1,0
1523617823307,1507328,-119,-56,-1,-1,0
1523617823346,1114112,-119,-56,-1,-1,0
1523617823346,917504,-119,-56,-1,-1,0
1523617823346,983040,-119,-56,-1,-1,0
1523617823346,1114112,-119,-56,-1,-1,0
1523617823346,1245184,-119,-56,-1,-1,0
1523617823386,1179648,-119,-56,-1,-1,0
1523617823386,1048576,-119,-56,-1,-1,0
1523617823386,1048576,-119,-56,-1,-1,0
1523617823386,1114112,-119,-56,-1,-1,0
1523617823386,917504,-119,-56,-1,-1,0
1523617823426,589824,-119,-56,-1,-1,0
1523617823426,262144,-119,-56,-1,-1,0
1523617823426,65536,-119,-56,-1,-1,0
1523617823426,0,-119,-56,-1,-1,0
1523617823426,0,-119,-56,-1,-1,0
1523617823466,0,-119,-56,-1,-1,0
1523617823466,0,-119,-56,-1,-1,0
1523617823466,131072,-119,-56,-1,-1,0
1523617823466,65536,-119,-56,-1,-1,0
1523617823466,-131072,-119,-56,-1,-1,0
1523617823511,-393216,-119,-56,-1,-1,0
1523617823511,-655360,-119,-56,-1,-1,0
1523617823511,-1245184,-119,-56,-1,-1,0
1523617823511,-655360,-119,-56,-1,-1,0
1523617823511,3407872,-119,-56,-1,-1,0
1523617823546,8257536,-119,-56,-1,-1,0
1523617823546,8126464,-119,-56,-1,-1,0
1523617823546,3670016,-119,-56,-1,-1,0
1523617823546,196608,-119,-56,-1,-1,0
1523617823546,-655360,-119,-56,-1,-1,0
1523617823586,-851968,-119,-56,-1,-1,0
1523617823586,-983040,-119,-56,-1,-1,0
1523617823586,-1048576,-119,-56,-1,-1,0
1523617823586,-1048576,-119,-56,-1,-1,0
1523617823586,-983040,-119,-56,-1,-1,0
1523617823627,-1048576,-119,-56,-1,-1,0
1523617823627,-1048576,-119,-56,-1,-1,0
1523617823627,-983040,-119,-56,-1,-1,0
1523617823627,-786432,-119,-56,-1,-1,0
1523617823627,-655360,-119,-56,-1,-1,0
1523617823666,-458752,-119,-56,-1,-1,0
1523617823666,-196608,-119,-56,-1,-1,0
1523617823666,131072,-119,-56,-1,-1,0
1523617823666,524288,-119,-56,-1,-1,0
1523617823666,1048576,-119,-56,-1,-1,0
1523617823706,1703936,-119,-56,-1,-1,0
1523617823706,2424832,-119,-56,-1,-1,0
1523617823706,2949120,-119,-56,-1,-1,0
1523617823706,3080192,-119,-56,-1,-1,0
1523617823706,3014656,-119,-56,-1,-1,0
1523617823746,2621440,-119,-56,-1,-1,0
1523617823746,1835008,-119,-56,-1,-1,0
1523617823746,720896,-119,-56,-1,-1,0
1523617823746,-196608,-119,-56,-1,-1,0
1523617823746,-851968,-119,-56,-1,-1,0
1523617823786,-1114112,-119,-56,-1,-1,0
1523617823786,-1179648,-119,-56,-1,-1,0
1523617823786,-1179648,-119,-56,-1,-1,0
1523617823786,-1310720,-119,-56,-1,-1,0
1523617823786,-1441792,-119,-56,-1,-1,0
1523617823826,-1376256,-119,-56,-1,-1,0
1523617823826,-1114112,-119,-56,-1,-1,0
1523617823826,-1179648,-119,-56,-1,-1,0
1523617823826,-1310720,-119,-56,-1,-1,0
1523617823826,-1441792,-119,-56,-1,-1,0
1523617823866,-1638400,-119,-56,-1,-1,0
1523617823866,-1966080,-119,-56,-1,-1,0
1523617823866,-2424832,-119,-56,-1,-1,0
1523617823866,-2752512,-119,-56,-1,-1,0
1523617823866,-2621440,-119,-56,-1,-1,0
1523617823906,-2162688,-119,-56,-1,-1,0
1523617823906,-2228224,-119,-56,-1,-1,0
1523617823906,-2686976,-119,-56,-1,-1,0
1523617823906,-3014656,-119,-56,-1,-1,0
1523617823906,-2949120,-119,-56,-1,-1,0
1523617823946,-2883584,-119,-56,-1,-1,0
1523617823946,-3014656,-119,-56,-1,-1,0
1523617823946,-3538944,-119,-56,-1,-1,0
1523617823946,-3670016,-119,-56,-1,-1,0
1523617823946,-1179648,-119,-56,-1,-1,0
1523617823986,4194304,-119,-56,-1,-1,0
1523617823986,7143424,-119,-56,-1,-1,0
1523617823986,4063232,-119,-56,-1,-1,0
1523617823986,-1179648,-119,-56,-1,-1,0
1523617823986,-3538944,-119,-56,-1,-1,0
1523617824026,-3670016,-119,-56,-1,-1,0
1523617824026,-3670016,-119,-56,-1,-1,0
1523617824026,-3735552,-119,-56,-1,-1,0
1523617824026,-3538944,-119,-56,-1,-1,0
1523617824026,-3407872,-119,-56,-1,-1,0
1523617824066,-3604480,-119,-56,-1,-1,0
1523617824066,-3670016,-119,-56,-1,-1,0
1523617824066,-3145728,-119,-56,-1,-1,0
1523617824066,-2490368,-119,-56,-1,-1,0
1523617824066,-2359296,-119,-56,-1,-1,0
1523617824106,-2686976,-119,-56,-1,-1,0
1523617824106,-2555904,-119,-56,-1,-1,0
1523617824106,-1900544,-119,-56,-1,-1,0
1523617824106,-1114112,-119,-56,-1,-1,0
1523617824106,-524288,-119,-56,-1,-1,0
1523617824152,131072,-119,-56,-1,-1,0
1523617824152,1114112,-119,-56,-1,-1,0
1523617824152,2031616,-119,-56,-1,-1,0
1523617824152,2359296,-119,-56,-1,-1,0
1523617824152,2359296,-119,-56,-1,-1,0
1523617824186,2162688,-119,-56,-1,-1,0
1523617824186,1572864,-119,-56,-1,-1,0
1523617824186,327680,-119,-56,-1,-1,0
1523617824186,-1048576,-119,-56,-1,-1,0
1523617824186,-1769472,-119,-56,-1,-1,0
1523617824226,-1835008,-119,-56,-1,-1,0
1523617824226,-2097152,-119,-56,-1,-1,0
1523617824226,-2555904,-119,-56,-1,-1,0
1523617824226,-2883584,-119,-56,-1,-1,0
1523617824226,-3014656,-119,-56,-1,-1,0
1523617824267,-2621440,-119,-56,-1,-1,0
1523617824267,-1703936,-119,-56,-1,-1,0
1523617824267,-1376256,-119,-56,-1,-1,0
1523617824267,-1900544,-119,-56,-1,-1,0
1523617824267,-2555904,-119,-56,-1,-1,0
1523617824307,-2555904,-119,-56,-1,-1,0
1523617824307,-2621440,-119,-56,-1,-1,0
1523617824307,-2883584,-119,-56,-1,-1,0
1523617824307,-3145728,-119,-56,-1,-1,0
1523617824307,-2883584,-119,-56,-1,-1,0
1523617824346,-3080192,-119,-56,-1,-1,0
1523617824346,-3473408,-119,-56,-1,-1,0
1523617824346,-3211264,-119,-56,-1,-1,0
1523617824346,-2621440,-119,-56,-1,-1,0
1523617824346,-2883584,-119,-56,-1,-1,0
1523617824387,-3670016,-119,-56,-1,-1,0
1523617824387,-3866624,-119,-56,-1,-1,0
1523617824387,-3866624,-119,-56,-1,-1,0
1523617824387,-4063232,-119,-56,-1,-1,0
1523617824387,-3342336,-119,-56,-1,-1,0
1523617824426,458752,-119,-56,-1,-1,0
1523617824426,6291456,-119,-56,-1,-1,0
1523617824426,7864320,-119,-56,-1,-1,0
1523617824426,3276800,-119,-56,-1,-1,0
1523617824426,-1703936,-119,-56,-1,-1,0
1523617824466,-3211264,-119,-56,-1,-1,0
1523617824466,-2949120,-119,-56,-1,-1,0
1523617824466,-2818048,-119,-56,-1,-1,0
1523617824466,-3211264,-119,-56,-1,-1,0
1523617824466,-3473408,-119,-56,-1,-1,0
1523617824506,-3145728,-119,-56,-1,-1,0
1523617824506,-2752512,-119,-56,-1,-1,0
1523617824506,-2621440,-119,-56,-1,-1,0
1523617824506,-2424832,-119,-56,-1,-1,0
1523617824506,-2228224,-119,-56,-1,-1,0
1523617824546,-2097152,-119,-56,-1,-1,0
1523617824546,-1900544,-119,-56,-1,-1,0
1523617824546,-1310720,-119,-56,-1,-1,0
1523617824546,-589824,-119,-56,-1,-1,0
1523617824546,0,-119,-56,-1,-1,0
1523617824586,655360,-119,-56,-1,-1,0
1523617824586,1572864,-119,-56,-1,-1,0
1523617824586,2162688,-119,-56,-1,-1,0
1523617824586,2818048,-119,-56,-1,-1,0
1523617824586,3538944,-119,-56,-1,-1,0
1523617824626,3670016,-119,-56,-1,-1,0
1523617824626,3080192,-119,-56,-1,-1,0
1523617824626,2359296,-119,-56,-1,-1,0
1523617824626,1638400,-119,-56,-1,-1,0
1523617824626,655360,-119,-56,-1,-1,0
1523617824666,-131072,-119,-56,-1,-1,0
1523617824666,-589824,-119,-56,-1,-1,0
1523617824666,-720896,-119,-56,-1,-1,0
1523617824666,-983040,-119,-56,-1,-1,0
1523617824666,-917504,-119,-56,-1,-1,0
1523617824707,-917504,-119,-56,-1,-1,0
1523617824707,-851968,-119,-56,-1,-1,0
1523617824707,-589824,-119,-56,-1,-1,0
1523617824707,-327680,-119,-56,-1,-1,0
1523617824707,-131072,-119,-56,-1,-1,0
1523617824747,327680,-119,-56,-1,-1,0
1523617824747,0,-119,-56,-1,-1,0
1523617824747,-1048576,-119,-56,-1,-1,0
1523617824747,-1441792,-119,-56,-1,-1,0
1523617824747,-1048576,-119,-56,-1,-1,0
1523617824792,-851968,-119,-56,-1,-1,0
1523617824792,-851968,-119,-56,-1,-1,0
1523617824792,-917504,-119,-56,-1,-1,0
1523617824792,-1048576,-119,-56,-1,-1,0
1523617824792,-1179648,-119,-56,-1,-1,0
1523617824827,-1048576,-119,-56,-1,-1,0
1523617824827,-786432,-119,-56,-1,-1,0
1523617824827,-851968,-119,-56,-1,-1,0
1523617824827,-1245184,-119,-56,-1,-1,0
1523617824827,-1638400,-119,-56,-1,-1,0
1523617824867,-851968,-119,-56,-1,-1,0
1523617824867,2883584,-119,-56,-1,-1,0
1523617824867,8388608,-119,-56,-1,-1,0
1523617824867,9306112,-119,-56,-1,-1,0
1523617824867,3997696,-119,-56,-1,-1,0
1523617824906,-655360,-119,-56,-1,-1,0
1523617824906,-1441792,-119,-56,-1,-1,0
1523617824906,-1245184,-119,-56,-1,-1,0
1523617824906,-1114112,-119,-56,-1,-1,0
1523617824906,-917504,-119,-56,-1,-1,0
1523617824946,-851968,-119,-56,-1,-1,0
1523617824946,-655360,-119,-56,-1,-1,0
1523617824946,-393216,-119,-56,-1,-1,0
1523617824946,-524288,-119,-56,-1,-1,0
1523617824946,-720896,-119,-56,-1,-1,0
1523617824987,-262144,-119,-56,-1,-1,0
1523617824987,589824,-119,-56,-1,-1,0
1523617824987,983040,-119,-56,-1,-1,0
1523617824987,917504,-119,-56,-1,-1,0
1523617824987,983040,-119,-56,-1,-1,0
1523617825026,1572864,-119,-56,-1,-1,0
1523617825026,2359296,-119,-56,-1,-1,0
1523617825026,3145728,-119,-56,-1,-1,0
1523617825026,3670016,-119,-56,-1,-1,0
1523617825026,4325376,-119,-56,-1,-1,0
1523617825067,4521984,-119,-56,-1,-1,0
1523617825067,4390912,-119,-56,-1,-1,0
1523617825067,4259840,-119,-56,-1,-1,0
1523617825067,4128768,-119,-56,-1,-1,0
1523617825067,3080192,-119,-56,-1,-1,0
1523617825106,1769472,-119,-56,-1,-1,0
1523617825106,983040,-119,-56,-1,-1,0
1523617825106,589824,-119,-56,-1,-1,0
1523617825106,393216,-119,-56,-1,-1,0
1523617825106,458752,-119,-56,-1,-1,0
1523617825146,655360,-119,-56,-1,-1,0
1523617825146,917504,-119,-56,-1,-1,0
1523617825146,983040,-119,-56,-1,-1,0
1523617825146,983040,-119,-56,-1,-1,0
1523617825146,983040,-119,-56,-1,-1,0
1523617825187,917504,-119,-56,-1,-1,0
1523617825187,720896,-119,-56,-1,-1,0
1523617825187,786432,-119,-56,-1,-1,0
1523617825187,1048576,-119,-56,-1,-1,0
1523617825187,851968,-119,-56,-1,-1,0
1523617825226,917504,-119,-56,-1,-1,0
1523617825226,589824,-119,-56,-1,-1,0
1523617825226,-131072,-119,-56,-1,-1,0
1523617825226,-1048576,-119,-56,-1,-1,0
1523617825226,-1048576,-119,-56,-1,-1,0
1523617825267,-458752,-119,-56,-1,-1,0
1523617825267,0,-119,-56,-1,-1,0
1523617825267,196608,-119,-56,-1,-1,0
1523617825267,0,-119,-56,-1,-1,0
1523617825267,-458752,-119,-56,-1,-1,0
1523617825306,-917504,-119,-56,-1,-1,0
1523617825306,-393216,-119,-56,-1,-1,0
1523617825306,2752512,-119,-56,-1,-1,0
1523617825306,7929856,-119,-56,-1,-1,0
1523617825306,9306112,-119,-56,-1,-1,0
1523617825347,4915200,-119,-56,-1,-1,0
1523617825347,393216,-119,-56,-1,-1,0
1523617825347,-851968,-119,-56,-1,-1,0
1523617825347,-786432,-119,-56,-1,-1,0
1523617825347,-983040,-119,-56,-1,-1,0
1523617825387,-851968,-119,-56,-1,-1,0
1523617825387,-458752,-119,-56,-1,-1,0
1523617825387,-393216,-119,-56,-1,-1,0
1523617825387,-786432,-119,-56,-1,-1,0
1523617825387,-1114112,-119,-56,-1,-1,0
1523617825432,-786432,-119,-56,-1,-1,0
1523617825432,-393216,-119,-56,-1,-1,0
1523617825432,0,-119,-56,-1,-1,0
1523617825432,0,-119,-56,-1,-1,0
1523617825432,196608,-119,-56,-1,-1,0
1523617825466,524288,-119,-56,-1,-1,0
1523617825466,851968,-119,-56,-1,-1,0
1523617825466,917504,-119,-56,-1,-1,0
1523617825466,1507328,-119,-56,-1,-1,0
1523617825466,2621440,-119,-56,-1,-1,0
1523617825507,3276800,-119,-56,-1,-1,0
1523617825507,3145728,-119,-56,-1,-1,0
1523617825507,2883584,-119,-56,-1,-1,0
1523617825507,2490368,-119,-56,-1,-1,0
1523617825507,2293760,-119,-56,-1,-1,0
1523617825547,1638400,-119,-56,-1,-1,0
1523617825547,524288,-119,-56,-1,-1,0
1523617825547,-655360,-119,-56,-1,-1,0
1523617825547,-1310720,-119,-56,-1,-1,0
1523617825547,-1638400,-119,-56,-1,-1,0
1523617825587,-1638400,-119,-56,-1,-1,0
1523617825587,-2031616,-119,-56,-1,-1,0
1523617825587,-2097152,-119,-56,-1,-1,0
1523617825587,-1703936,-119,-56,-1,-1,0
1523617825587,-2162688,-119,-56,-1,-1,0
1523617825627,-2424832,-119,-56,-1,-1,0
1523617825627,-1769472,-119,-56,-1,-1,0
1523617825627,-720896,-119,-56,-1,-1,0
1523617825627,-1441792,-119,-56,-1,-1,0
1523617825627,-2359296,-119,-56,-1,-1,0
1523617825667,-2883584,-119,-56,-1,-1,0
1523617825667,-3080192,-119,-56,-1,-1,0
1523617825667,-3145728,-119,-56,-1,-1,0
1523617825667,-2686976,-119,-56,-1,-1,0
1523617825667,-2686976,-119,-56,-1,-1,0
1523617825707,-3276800,-119,-56,-1,-1,0
1523617825707,-3604480,-119,-56,-1,-1,0
1523617825707,-3866624,-119,-56,-1,-1,0
1523617825707,-4063232,-119,-56,-1,-1,0
1523617825707,-3735552,-119,-56,-1,-1,0
1523617825747,-3145728,-119,-56,-1,-1,0
1523617825747,-3932160,-119,-56,-1,-1,0
1523617825747,-4915200,-119,-56,-1,-1,0
1523617825747,-3145728,-119,-56,-1,-1,0
1523617825747,3080192,-119,-56,-1,-1,0
1523617825787,7405568,-119,-56,-1,-1,0
1523617825787,4587520,-119,-56,-1,-1,0
1523617825787,-1114112,-119,-56,-1,-1,0
1523617825787,-4063232,-119,-56,-1,-1,0
1523617825787,-4653056,-119,-56,-1,-1,0
1523617825827,-4587520,-119,-56,-1,-1,0
1523617825827,-4325376,-119,-56,-1,-1,0
1523617825827,-4194304,-119,-56,-1,-1,0
1523617825827,-4390912,-119,-56,-1,-1,0
1523617825827,-4063232,-119,-56,-1,-1,0
1523617825868,-3473408,-119,-56,-1,-1,0
1523617825868,-3407872,-119,-56,-1,-1,0
1523617825868,-4063232,-119,-56,-1,-1,0
1523617825868,-3932160,-119,-56,-1,-1,0
1523617825868,-2883584,-119,-56,-1,-1,0
1523617825907,-1835008,-119,-56,-1,-1,0
1523617825907,-1769472,-119,-56,-1,-1,0
1523617825907,-1966080,-119,-56,-1,-1,0
1523617825907,-1441792,-119,-56,-1,-1,0
1523617825907,-458752,-119,-56,-1,-1,0
1523617825947,327680,-119,-56,-1,-1,0
1523617825947,1114112,-119,-56,-1,-1,0
1523617825947,1572864,-119,-56,-1,-1,0
1523617825947,1835008,-119,-56,-1,-1,0
1523617825947,1638400,-119,-56,-1,-1,0
1523617825987,1245184,-119,-56,-1,-1,0
1523617825987,327680,-119,-56,-1,-1,0
1523617825987,-1048576,-119,-56,-1,-1,0
1523617825987,-2162688,-119,-56,-1,-1,0
1523617825987,-2686976,-119,-56,-1,-1,0
1523617826027,-2752512,-119,-56,-1,-1,0
1523617826027,-3080192,-119,-56,-1,-1,0
1523617826027,-3080192,-119,-56,-1,-1,0
1523617826027,-2490368,-119,-56,-1,-1,0
1523617826027,-2031616,-119,-56,-1,-1,0
1523617826072,-2424832,-119,-56,-1,-1,0
1523617826072,-2818048,-119,-56,-1,-1,0
1523617826072,-2293760,-119,-56,-1,-1,0
1523617826072,-1638400,-119,-56,-1,-1,0
1523617826072,-1835008,-119,-56,-1,-1,0
1523617826107,-2621440,-119,-56,-1,-1,0
1523617826107,-2424832,-119,-56,-1,-1,0
1523617826107,-1900544,-119,-56,-1,-1,0
1523617826107,-2162688,-119,-56,-1,-1,0
1523617826107,-2490368,-119,-56,-1,-1,0
1523617826147,-2293760,-119,-56,-1,-1,0
1523617826147,-2621440,-119,-56,-1,-1,0
1523617826147,-2686976,-119,-56,-1,-1,0
1523617826147,-1966080,-119,-56,-1,-1,0
1523617826147,-1966080,-119,-56,-1,-1,0
1523617826187,-2621440,-119,-56,-1,-1,0
1523617826187,-2424832,-119,-56,-1,-1,0
1523617826187,-2424832,-119,-56,-1,-1,0
1523617826187,-3276800,-119,-56,-1,-1,0
1523617826187,-2555904,-119,-56,-1,-1,0
1523617826227,2162688,-119,-56,-1,-1,0
1523617826227,7143424,-119,-56,-1,-1,0
1523617826227,6422528,-119,-56,-1,-1,0
1523617826227,1507328,-119,-56,-1,-1,0
1523617826227,-2162688,-119,-56,-1,-1,0
1523617826267,-1835008,-119,-56,-1,-1,0
1523617826267,-1310720,-119,-56,-1,-1,0
1523617826267,-1572864,-119,-56,-1,-1,0
1523617826267,-1966080,-119,-56,-1,-1,0
1523617826267,-2359296,-119,-56,-1,-1,0
1523617826307,-2293760,-119,-56,-1,-1,0
1523617826307,-2097152,-119,-56,-1,-1,0
1523617826307,-1900544,-119,-56,-1,-1,0
1523617826307,-1769472,-119,-56,-1,-1,0
1523617826307,-1507328,-119,-56,-1,-1,0
1523617826347,-393216,-119,-56,-1,-1,0
1523617826347,-851968,-119,-56,-1,-1,0
1523617826347,-1048576,-119,-56,-1,-1,0
1523617826347,-65536,-119,-56,-1,-1,0
1523617826347,1572864,-119,-56,-1,-1,0
1523617826388,983040,-119,-56,-1,-1,0
1523617826388,1638400,-119,-56,-1,-1,0
1523617826388,3211264,-119,-56,-1,-1,0
1523617826388,4194304,-119,-56,-1,-1,0
1523617826388,3211264,-119,-56,-1,-1,0
1523617826427,2686976,-119,-56,-1,-1,0
1523617826427,2818048,-119,-56,-1,-1,0
1523617826427,2883584,-119,-56,-1,-1,0
1523617826427,2031616,-119,-56,-1,-1,0
1523617826427,393216,-119,-56,-1,-1,0
1523617826467,-327680,-119,-56,-1,-1,0
1523617826467,-196608,-119,-56,-1,-1,0
1523617826467,327680,-119,-56,-1,-1,0
1523617826467,-393216,-119,-56,-1,-1,0
1523617826467,-1310720,-119,-56,-1,-1,0
1523617826508,-524288,-119,-56,-1,-1,0
1523617826508,524288,-119,-56,-1,-1,0
1523617826508,196608,-119,-56,-1,-1,0
1523617826508,327680,-119,-56,-1,-1,0
1523617826508,1048576,-119,-56,-1,-1,0
1523617826547,0,-119,-56,-1,-1,0
1523617826547,393216,-119,-56,-1,-1,0
1523617826547,0,-119,-56,-1,-1,0
1523617826547,-917504,-119,-56,-1,-1,0
1523617826547,-1245184,-119,-56,-1,-1,0
1523617826587,393216,-119,-56,-1,-1,0
1523617826587,786432,-119,-56,-1,-1,0
1523617826587,0,-119,-56,-1,-1,0
1523617826587,-393216,-119,-56,-1,-1,0
1523617826587,0,-119,-56,-1,-1,0
1523617826628,65536,-119,-56,-1,-1,0
1523617826628,-262144,-119,-56,-1,-1,0
1523617826628,-1048576,-119,-56,-1,-1,0
1523617826628,-851968,-119,-56,-1,-1,0
1523617826628,-393216,-119,-56,-1,-1,0
1523617826667,655360,-119,-56,-1,-1,0
1523617826667,3014656,-119,-56,-1,-1,0
1523617826667,7405568,-119,-56,-1,-1,0
1523617826667,7798784,-119,-56,-1,-1,0
1523617826667,3997696,-119,-56,-1,-1,0
1523617826712,589824,-119,-56,-1,-1,0
1523617826712,-262144,-119,-56,-1,-1,0
1523617826712,-131072,-119,-56,-1,-1,0
1523617826712,-131072,-119,-56,-1,-1,0
1523617826712,-720896,-119,-56,-1,-1,0
1523617826747,-983040,-119,-56,-1,-1,0
1523617826747,-131072,-119,-56,-1,-1,0
1523617826747,655360,-119,-56,-1,-1,0
1523617826747,589824,-119,-56,-1,-1,0
1523617826747,458752,-119,-56,-1,-1,0
1523617826787,655360,-119,-56,-1,-1,0
1523617826787,1048576,-119,-56,-1,-1,0
1523617826787,1507328,-119,-56,-1,-1,0
1523617826787,1769472,-119,-56,-1,-1,0
1523617826787,2228224,-119,-56,-1,-1,0
1523617826827,2949120,-119,-56,-1,-1,0
1523617826827,3801088,-119,-56,-1,-1,0
1523617826827,4456448,-119,-56,-1,-1,0
1523617826827,5177344,-119,-56,-1,-1,0
1523617826827,5898240,-119,-56,-1,-1,0
1523617826867,6356992,-119,-56,-1,-1,0
1523617826867,6488064,-119,-56,-1,-1,0
1523617826867,6422528,-119,-56,-1,-1,0
1523617826867,5963776,-119,-56,-1,-1,0
1523617826867,5242880,-119,-56,-1,-1,0
1523617826907,4390912,-119,-56,-1,-1,0
1523617826907,3735552,-119,-56,-1,-1,0
1523617826907,3145728,-119,-56,-1,-1,0
1523617826907,2621440,-119,-56,-1,-1,0
1523617826907,2490368,-119,-56,-1,-1,0
1523617826947,2621440,-119,-56,-1,-1,0
1523617826947,2752512,-119,-56,-1,-1,0
1523617826947,2818048,-119,-56,-1,-1,0
1523617826947,2752512,-119,-56,-1,-1,0
1523617826947,2686976,-119,-56,-1,-1,0
1523617826987,2686976,-119,-56,-1,-1,0
1523617826987,2686976,-119,-56,-1,-1,0
1523617826987,2555904,-119,-56,-1,-1,0
1523617826987,2359296,-119,-56,-1,-1,0
1523617826987,2162688,-119,-56,-1,-1,0
1523617827027,2031616,-119,-56,-1,-1,0
1523617827027,1835008,-119,-56,-1,-1,0
1523617827027,1507328,-119,-56,-1,-1,0
1523617827027,983040,-119,-56,-1,-1,0
1523617827027,720896,-119,-56,-1,-1,0
1523617827067,655360,-119,-56,-1,-1,0
1523617827067,786432,-119,-56,-1,-1,0
1523617827067,786432,-119,-56,-1,-1,0
1523617827067,524288,-119,-56,-1,-1,0
1523617827067,131072,-119,-56,-1,-1,0
1523617827107,-262144,-119,-56,-1,-1,0
1523617827107,327680,-119,-56,-1,-1,0
1523617827107,4390912,-119,-56,-1,-1,0
1523617827107,9240576,-119,-56,-1,-1,0
1523617827107,8847360,-119,-56,-1,-1,0
1523617827147,3604480,-119,-56,-1,-1,0
1523617827147,131072,-119,-56,-1,-1,0
1523617827147,0,-119,-56,-1,-1,0
1523617827147,393216,-119,-56,-1,-1,0
1523617827147,131072,-119,-56,-1,-1,0
1523617827187,-196608,-119,-56,-1,-1,0
1523617827187,-131072,-119,-56,-1,-1,0
1523617827187,0,-119,-56,-1,-1,0
1523617827187,65536,-119,-56,-1,-1,0
1523617827187,65536,-119,-56,-1,-1,0
1523617827227,65536,-119,-56,-1,-1,0
1523617827227,0,-119,-56,-1,-1,0
1523617827227,65536,-119,-56,-1,-1,0
1523617827227,327680,-119,-56,-1,-1,0
1523617827227,720896,-119,-56,-1,-1,0
1523617827267,1245184,-119,-56,-1,-1,0
1523617827267,1966080,-119,-56,-1,-1,0
1523617827267,2818048,-119,-56,-1,-1,0
1523617827267,3276800,-119,-56,-1,-1,0
1523617827267,3801088,-119,-56,-1,-1,0
1523617827307,4390912,-119,-56,-1,-1,0
1523617827307,4718592,-119,-56,-1,-1,0
1523617827307,4653056,-119,-56,-1,-1,0
1523617827307,4259840,-119,-56,-1,-1,0
1523617827307,3473408,-119,-56,-1,-1,0
1523617827352,2293760,-119,-56,-1,-1,0
1523617827352,1310720,-119,-56,-1,-1,0
1523617827352,655360,-119,-56,-1,-1,0
1523617827352,131072,-119,-56,-1,-1,0
1523617827352,-65536,-119,-56,-1,-1,0
1523617827387,-262144,-119,-56,-1,-1,0
1523617827387,-262144,-119,-56,-1,-1,0
1523617827387,65536,-119,-56,-1,-1,0
1523617827387,327680,-119,-56,-1,-1,0
1523617827387,393216,-119,-56,-1,-1,0
1523617827427,327680,-119,-56,-1,-1,0
1523617827427,458752,-119,-56,-1,-1,0
1523617827427,458752,-119,-56,-1,-1,0
1523617827427,327680,-119,-56,-1,-1,0
1523617827427,0,-119,-56,-1,-1,0
1523617827467,-196608,-119,-56,-1,-1,0
1523617827467,-327680,-119,-56,-1,-1,0
1523617827467,-327680,-119,-56,-1,-1,0
1523617827467,-327680,-119,-56,-1,-1,0
1523617827467,-262144,-119,-56,-1,-1,0
1523617827507,-131072,-119,-56,-1,-1,0
1523617827507,0,-119,-56,-1,-1,0
1523617827507,65536,-119,-56,-1,-1,0
1523617827507,65536,-119,-56,-1,-1,0
1523617827507,131072,-119,-56,-1,-1,0
1523617827547,65536,-119,-56,-1,-1,0
1523617827547,-65536,-119,-56,-1,-1,0
1523617827547,458752,-119,-56,-1,-1,0
1523617827547,4063232,-119,-56,-1,-1,0
1523617827547,9175040,-119,-56,-1,-1,0
1523617827587,9895936,-119,-56,-1,-1,0
1523617827587,5177344,-119,-56,-1,-1,0
1523617827587,786432,-119,-56,-1,-1,0
1523617827587,-262144,-119,-56,-1,-1,0
1523617827587,-65536,-119,-56,-1,-1,0
1523617827627,-65536,-119,-56,-1,-1,0
1523617827627,-196608,-119,-56,-1,-1,0
1523617827627,-262144,-119,-56,-1,-1,0
1523617827627,-327680,-119,-56,-1,-1,0
1523617827627,-327680,-119,-56,-1,-1,0
1523617827667,-524288,-119,-56,-1,-1,0
1523617827667,-458752,-119,-56,-1,-1,0
1523617827667,-131072,-119,-56,-1,-1,0
1523617827667,196608,-119,-56,-1,-1,0
1523617827667,131072,-119,-56,-1,-1,0
1523617827707,131072,-119,-56,-1,-1,0
1523617827707,655360,-119,-56,-1,-1,0
1523617827707,1441792,-119,-56,-1,-1,0
1523617827707,2162688,-119,-56,-1,-1,0
1523617827707,2883584,-119,-56,-1,-1,0
1523617827747,3801088,-120,-56,-1,-1,0
1523617827747,4587520,-120,-56,-1,-1,0
1523617827747,4980736,-120,-56,-1,-1,0
1523617827747,4784128,-120,-56,-1,-1,0
1523617827747,4194304,-120,-56,-1,-1,0
1523617827787,3473408,-120,-56,-1,-1,0
1523617827787,2752512,-120,-56,-1,-1,0
1523617827787,1835008,-120,-56,-1,-1,0
1523617827787,851968,-120,-56,-1,-1,0
1523617827787,131072,-120,-56,-1,-1,0
1523617827827,65536,-120,-56,-1,-1,0
1523617827827,131072,-120,-56,-1,-1,0
1523617827827,0,-120,-56,-1,-1,0
1523617827827,-65536,-120,-56,-1,-1,0
1523617827827,0,-120,-56,-1,-1,0
1523617827867,262144,-120,-56,-1,-1,0
1523617827867,131072,-120,-56,-1,-1,0
1523617827867,65536,-120,-56,-1,-1,0
1523617827867,0,-120,-56,-1,-1,0
1523617827867,-65536,-120,-56,-1,-1,0
1523617827907,-393216,-120,-56,-1,-1,0
1523617827907,-720896,-120,-56,-1,-1,0
1523617827907,-851968,-120,-56,-1,-1,0
1523617827907,-917504,-120,-56,-1,-1,0
1523617827907,-1310720,-120,-56,-1,-1,0
1523617827947,-1310720,-120,-56,-1,-1,0
1523617827947,-1114112,-120,-56,-1,-1,0
1523617827947,-851968,-120,-56,-1,-1,0
1523617827947,-851968,-120,-56,-1,-1,0
1523617827947,-917504,-120,-56,-1,-1,0
1523617827992,-1114112,-120,-56,-1,-1,0
1523617827992,-1572864,-120,-56,-1,-1,0
1523617827992,-2162688,-120,-56,-1,-1,0
1523617827992,-1376256,-120,-56,-1,-1,0
1523617827992,2621440,-120,-56,-1,-1,0
1523617828027,7536640,-120,-56,-1,-1,0
1523617828027,7536640,-120,-56,-1,-1,0
1523617828027,3014656,-120,-56,-1,-1,0
1523617828027,-720896,-120,-56,-1,-1,0
1523617828027,-1507328,-120,-56,-1,-1,0
1523617828067,-1376256,-120,-56,-1,-1,0
1523617828067,-1507328,-120,-56,-1,-1,0
1523617828067,-1835008,-120,-56,-1,-1,0
1523617828067,-2031616,-120,-56,-1,-1,0
1523617828067,-1966080,-120,-56,-1,-1,0
1523617828107,-1703936,-120,-56,-1,-1,0
1523617828107,-1441792,-120,-56,-1,-1,0
1523617828107,-1245184,-120,-56,-1,-1,0
1523617828107,-1114112,-120,-56,-1,-1,0
1523617828107,-1048576,-120,-56,-1,-1,0
1523617828147,-786432,-120,-56,-1,-1,0
1523617828147,-262144,-120,-56,-1,-1,0
1523617828147,196608,-120,-56,-1,-1,0
1523617828147,589824,-120,-56,-1,-1,0
1523617828147,1114112,-120,-56,-1,-1,0
1523617828187,1507328,-120,-56,-1,-1,0
1523617828187,1900544,-120,-56,-1,-1,0
1523617828187,2621440,-120,-56,-1,-1,0
1523617828187,3145728,-120,-56,-1,-1,0
1523617828187,3014656,-120,-56,-1,-1,0
1523617828227,2490368,-120,-56,-1,-1,0
1523617828227,1835008,-120,-56,-1,-1,0
1523617828227,917504,-120,-56,-1,-1,0
1523617828227,0,-120,-56,-1,-1,0
1523617828227,-524288,-120,-56,-1,-1,0
1523617828267,-720896,-120,-56,-1,-1,0
1523617828267,-851968,-120,-56,-1,-1,0
1523617828267,-983040,-120,-56,-1,-1,0
1523617828267,-1048576,-120,-56,-1,-1,0
1523617828267,-851968,-120,-56,-1,-1,0
1523617828307,-720896,-120,-56,-1,-1,0
1523617828307,-917504,-120,-56,-1,-1,0
1523617828307,-917504,-120,-56,-1,-1,0
1523617828307,-655360,-120,-56,-1,-1,0
1523617828307,-655360,-120,-56,-1,-1,0
1523617828347,-851968,-120,-56,-1,-1,0
1523617828347,-1310720,-120,-56,-1,-1,0
1523617828347,-1507328,-120,-56,-1,-1,0
1523617828347,-1507328,-120,-56,-1,-1,0
1523617828347,-1638400,-120,-56,-1,-1,0
1523617828387,-1835008,-120,-56,-1,-1,0
1523617828387,-1900544,-120,-56,-1,-1,0
1523617828387,-1900544,-120,-56,-1,-1,0
1523617828387,-1769472,-120,-56,-1,-1,0
1523617828387,-1835008,-120,-56,-1,-1,0
1523617828427,-1900544,-120,-56,-1,-1,0
1523617828427,-2162688,-120,-56,-1,-1,0
1523617828427,-2555904,-120,-56,-1,-1,0
1523617828427,-2818048,-120,-56,-1,-1,0
1523617828427,-1835008,-120,-56,-1,-1,0
1523617828467,2031616,-120,-56,-1,-1,0
1523617828467,6225920,-120,-56,-1,-1,0
1523617828467,6225920,-120,-56,-1,-1,0
1523617828467,2359296,-120,-56,-1,-1,0
1523617828467,-589824,-120,-56,-1,-1,0
1523617828507,-1703936,-120,-56,-1,-1,0
1523617828507,-2228224,-120,-56,-1,-1,0
1523617828507,-2293760,-120,-56,-1,-1,0
1523617828507,-2162688,-120,-56,-1,-1,0
1523617828507,-2097152,-120,-56,-1,-1,0
1523617828547,-2097152,-120,-56,-1,-1,0
1523617828547,-2162688,-120,-56,-1,-1,0
1523617828547,-2031616,-120,-56,-1,-1,0
1523617828547,-1900544,-120,-56,-1,-1,0
1523617828547,-1769472,-120,-56,-1,-1,0
1523617828587,-1310720,-120,-56,-1,-1,0
1523617828587,-917504,-120,-56,-1,-1,0
1523617828587,-524288,-120,-56,-1,-1,0
1523617828587,-196608,-120,-56,-1,-1,0
1523617828587,65536,-120,-56,-1,-1,0
1523617828632,655360,-120,-56,-1,-1,0
1523617828632,1376256,-120,-56,-1,-1,0
1523617828632,2097152,-120,-56,-1,-1,0
1523617828632,2424832,-120,-56,-1,-1,0
1523617828632,2686976,-120,-56,-1,-1,0
1523617828667,2686976,-120,-56,-1,-1,0
1523617828667,2293760,-120,-56,-1,-1,0
1523617828667,1638400,-120,-56,-1,-1,0
1523617828667,1048576,-120,-56,-1,-1,0
1523617828667,327680,-120,-56,-1,-1,0
1523617828707,-327680,-120,-56,-1,-1,0
1523617828707,-786432,-120,-56,-1,-1,0
1523617828707,-851968,-120,-56,-1,-1,0
1523617828707,-851968,-120,-56,-1,-1,0
1523617828707,-983040,-120,-56,-1,-1,0
1523617828747,-917504,-120,-56,-1,-1,0
1523617828747,-720896,-120,-56,-1,-1,0
1523617828747,-655360,-120,-56,-1,-1,0
1523617828747,-851968,-120,-56,-1,-1,0
1523617828747,-983040,-120,-56,-1,-1,0
1523617828787,-1048576,-120,-56,-1,-1,0
1523617828787,-1179648,-120,-56,-1,-1,0
1523617828787,-1376256,-120,-56,-1,-1,0
1523617828787,-1638400,-120,-56,-1,-1,0
1523617828787,-1769472,-120,-56,-1,-1,0
1523617828827,-1769472,-120,-56,-1,-1,0
1523617828827,-1835008,-120,-56,-1,-1,0
1523617828827,-1900544,-120,-56,-1,-1,0
1523617828827,-2031616,-120,-56,-1,-1,0
1523617828827,-2031616,-120,-56,-1,-1,0
1523617828867,-1966080,-120,-56,-1,-1,0
1523617828867,-1900544,-120,-56,-1,-1,0
1523617828867,-1900544,-120,-56,-1,-1,0
1523617828867,-2228224,-120,-56,-1,-1,0
1523617828867,-2490368,-120,-56,-1,-1,0
1523617828907,-1310720,-120,-56,-1,-1,0
1523617828907,3145728,-120,-56,-1,-1,0
1523617828907,7733248,-120,-56,-1,-1,0
1523617828907,7208960,-120,-56,-1,-1,0
1523617828907,2228224,-120,-56,-1,-1,0
1523617828947,-1310720,-120,-56,-1,-1,0
1523617828947,-2097152,-120,-56,-1,-1,0
1523617828947,-2162688,-120,-56,-1,-1,0
1523617828947,-2228224,-120,-56,-1,-1,0
1523617828947,-2293760,-120,-56,-1,-1,0
1523617828987,-2359296,-120,-56,-1,-1,0
1523617828987,-2293760,-120,-56,-1,-1,0
1523617828987,-2162688,-120,-56,-1,-1,0
1523617828987,-2031616,-120,-56,-1,-1,0
1523617828987,-2031616,-120,-56,-1,-1,0
1523617829027,-1835008,-120,-56,-1,-1,0
1523617829027,-1507328,-120,-56,-1,-1,0
1523617829027,-1179648,-120,-56,-1,-1,0
1523617829027,-851968,-120,-56,-1,-1,0
1523617829027,-327680,-120,-56,-1,-1,0
1523617829066,65536,-120,-56,-1,-1,0
1523617829066,720896,-120,-56,-1,-1,0
1523617829066,1507328,-120,-56,-1,-1,0
1523617829066,2162688,-120,-56,-1,-1,0
1523617829066,2752512,-120,-56,-1,-1,0
1523617829106,2883584,-121,-56,-1,-1,0
1523617829106,2555904,-121,-56,-1,-1,0
1523617829106,2228224,-121,-56,-1,-1,0
1523617829106,1703936,-121,-56,-1,-1,0
1523617829106,917504,-121,-56,-1,-1,0
1523617829146,-65536,-121,-56,-1,-1,0
1523617829146,-720896,-121,-56,-1,-1,0
1523617829146,-1114112,-121,-56,-1,-1,0
1523617829146,-1179648,-121,-56,-1,-1,0
1523617829146,-1245184,-121,-56,-1,-1,0
1523617829186,-1310720,-121,-56,-1,-1,0
1523617829186,-1179648,-121,-56,-1,-1,0
1523617829186,-851968,-121,-56,-1,-1,0
1523617829186,-786432,-121,-56,-1,-1,0
1523617829186,-917504,-121,-56,-1,-1,0
1523617829226,-983040,-121,-56,-1,-1,0
1523617829226,-720896,-121,-56,-1,-1,0
1523617829226,-917504,-121,-56,-1,-1,0
1523617829226,-1245184,-121,-56,-1,-1,0
1523617829226,-1638400,-121,-56,-1,-1,0
1523617829271,-1572864,-121,-56,-1,-1,0
1523617829271,-1703936,-121,-56,-1,-1,0
1523617829271,-1769472,-121,-56,-1,-1,0
1523617829271,-1835008,-121,-56,-1,-1,0
1523617829271,-1703936,-121,-56,-1,-1,0
1523617829306,-1638400,-121,-56,-1,-1,0
1523617829306,-1835008,-121,-56,-1,-1,0
1523617829306,-1835008,-121,-56,-1,-1,0
1523617829306,-1769472,-121,-56,-1,-1,0
1523617829306,-1966080,-121,-56,-1,-1,0
1523617829346,-2359296,-121,-56,-1,-1,0
1523617829346,-1441792,-121,-56,-1,-1,0
1523617829346,2949120,-121,-56,-1,-1,0
1523617829346,8454144,-121,-56,-1,-1,0
1523617829346,8650752,-121,-56,-1,-1,0
1523617829386,3080192,-121,-56,-1,-1,0
1523617829386,-1376256,-121,-56,-1,-1,0
1523617829386,-2228224,-121,-56,-1,-1,0
1523617829386,-2031616,-121,-56,-1,-1,0
1523617829386,-1966080,-121,-56,-1,-1,0
1523617829426,-1835008,-121,-56,-1,-1,0
1523617829426,-1900544,-121,-56,-1,-1,0
1523617829426,-1703936,-121,-56,-1,-1,0
1523617829426,-1572864,-121,-56,-1,-1,0
1523617829426,-1507328,-121,-56,-1,-1,0
1523617829466,-1441792,-121,-56,-1,-1,0
1523617829466,-1048576,-121,-56,-1,-1,0
1523617829466,-720896,-121,-56,-1,-1,0
1523617829466,-524288,-121,-56,-1,-1,0
1523617829466,-196608,-121,-56,-1,-1,0
1523617829506,327680,-121,-56,-1,-1,0
1523617829506,786432,-121,-56,-1,-1,0
1523617829506,1376256,-121,-56,-1,-1,0
1523617829506,2228224,-121,-56,-1,-1,0
1523617829506,3145728,-121,-56,-1,-1,0
1523617829546,3670016,-121,-56,-1,-1,0
1523617829546,3866624,-121,-56,-1,-1,0
1523617829546,3866624,-121,-56,-1,-1,0
1523617829546,3407872,-121,-56,-1,-1,0
1523617829546,2686976,-121,-56,-1,-1,0
1523617829586,1572864,-121,-56,-1,-1,0
1523617829586,589824,-121,-56,-1,-1,0
1523617829586,-196608,-121,-56,-1,-1,0
1523617829586,-524288,-121,-56,-1,-1,0
1523617829586,-655360,-121,-56,-1,-1,0
1523617829626,-917504,-121,-56,-1,-1,0
1523617829626,-1114112,-121,-56,-1,-1,0
1523617829626,-917504,-121,-56,-1,-1,0
1523617829626,-786432,-121,-56,-1,-1,0
1523617829626,-786432,-121,-56,-1,-1,0
1523617829666,-720896,-121,-56,-1,-1,0
1523617829666,-786432,-121,-56,-1,-1,0
1523617829666,-720896,-121,-56,-1,-1,0
1523617829666,-1048576,-121,-56,-1,-1,0
1523617829666,-1376256,-121,-56,-1,-1,0
1523617829706,-1572864,-121,-56,-1,-1,0
1523617829706,-1966080,-121,-56,-1,-1,0
1523617829706,-2097152,-121,-56,-1,-1,0
1523617829706,-2359296,-121,-56,-1,-1,0
1523617829706,-2359296,-121,-56,-1,-1,0
1523617829746,-2359296,-121,-56,-1,-1,0
1523617829746,-2293760,-121,-56,-1,-1,0
1523617829746,-2490368,-121,-56,-1,-1,0
1523617829746,-2555904,-121,-56,-1,-1,0
1523617829746,-2621440,-121,-56,-1,-1,0
1523617829786,-3014656,-121,-56,-1,-1,0
1523617829786,-3145728,-121,-56,-1,-1,0
1523617829786,-2293760,-121,-56,-1,-1,0
1523617829786,1572864,-121,-56,-1,-1,0
1523617829786,6553600,-121,-56,-1,-1,0
1523617829826,6946816,-121,-56,-1,-1,0
1523617829826,1507328,-121,-56,-1,-1,0
1523617829826,-3276800,-121,-56,-1,-1,0
1523617829826,-4194304,-121,-56,-1,-1,0
1523617829826,-3473408,-121,-56,-1,-1,0
1523617829866,-3407872,-121,-56,-1,-1,0
1523617829866,-3670016,-121,-56,-1,-1,0
1523617829866,-3473408,-121,-56,-1,-1,0
1523617829866,-3211264,-121,-56,-1,-1,0
1523617829866,-3145728,-121,-56,-1,-1,0
1523617829911,-3145728,-121,-56,-1,-1,0
1523617829911,-3211264,-121,-56,-1,-1,0
1523617829911,-2818048,-121,-56,-1,-1,0
1523617829911,-2490368,-121,-56,-1,-1,0
1523617829911,-2359296,-121,-56,-1,-1,0
1523617829946,-2031616,-121,-56,-1,-1,0
1523617829946,-1376256,-121,-56,-1,-1,0
1523617829946,-851968,-121,-56,-1,-1,0
1523617829946,-327680,-121,-56,-1,-1,0
1523617829946,458752,-121,-56,-1,-1,0
1523617829986,1310720,-121,-56,-1,-1,0
1523617829986,1966080,-121,-56,-1,-1,0
1523617829986,2293760,-121,-56,-1,-1,0
1523617829986,2293760,-121,-56,-1,-1,0
1523617829986,1900544,-121,-56,-1,-1,0
1523617830026,983040,-121,-56,-1,-1,0
1523617830026,0,-121,-56,-1,-1,0
1523617830026,-786432,-121,-56,-1,-1,0
1523617830026,-1441792,-121,-56,-1,-1,0
1523617830026,-1966080,-121,-56,-1,-1,0
1523617830066,-2228224,-121,-56,-1,-1,0
1523617830066,-2228224,-121,-56,-1,-1,0
1523617830066,-2162688,-121,-56,-1,-1,0
1523617830066,-2097152,-121,-56,-1,-1,0
1523617830066,-2097152,-121,-56,-1,-1,0
1523617830106,-1966080,-121,-56,-1,-1,0
1523617830106,-2031616,-121,-56,-1,-1,0
1523617830106,-1835008,-121,-56,-1,-1,0
1523617830106,-1703936,-121,-56,-1,-1,0
1523617830106,-1835008,-121,-56,-1,-1,0
1523617830146,-2097152,-121,-56,-1,-1,0
1523617830146,-2228224,-121,-56,-1,-1,0
1523617830146,-2293760,-121,-56,-1,-1,0
1523617830146,-2293760,-121,-56,-1,-1,0
1523617830146,-2359296,-121,-56,-1,-1,0
1523617830186,-2228224,-121,-56,-1,-1,0
1523617830186,-2293760,-121,-56,-1,-1,0
1523617830186,-2359296,-121,-56,-1,-1,0
1523617830186,-2424832,-121,-56,-1,-1,0
1523617830186,-2424832,-121,-56,-1,-1,0
1523617830226,-2424832,-121,-56,-1,-1,0
1523617830226,-2621440,-121,-56,-1,-1,0
1523617830226,-3080192,-121,-56,-1,-1,0
1523617830226,-2359296,-121,-56,-1,-1,0
1523617830226,1376256,-121,-56,-1,-1,0
1523617830266,6684672,-121,-56,-1,-1,0
1523617830266,7536640,-121,-56,-1,-1,0
1523617830266,2621440,-121,-56,-1,-1,0
1523617830266,-1966080,-121,-56,-1,-1,0
1523617830266,-2949120,-121,-56,-1,-1,0
1523617830306,-2621440,-121,-56,-1,-1,0
1523617830306,-2621440,-121,-56,-1,-1,0
1523617830306,-2555904,-121,-56,-1,-1,0
1523617830306,-2555904,-121,-56,-1,-1,0
1523617830306,-2424832,-121,-56,-1,-1,0
1523617830346,-2228224,-121,-56,-1,-1,0
1523617830346,-2031616,-121,-56,-1,-1,0
1523617830346,-1769472,-121,-56,-1,-1,0
1523617830346,-1572864,-121,-56,-1,-1,0
1523617830346,-1376256,-121,-56,-1,-1,0
1523617830386,-1245184,-121,-56,-1,-1,0
1523617830386,-786432,-121,-56,-1,-1,0
1523617830386,-262144,-121,-56,-1,-1,0
1523617830386,327680,-121,-56,-1,-1,0
1523617830386,917504,-121,-56,-1,-1,0
1523617830426,1703936,-121,-56,-1,-1,0
1523617830426,2359296,-121,-56,-1,-1,0
1523617830426,2949120,-121,-56,-1,-1,0
1523617830426,3342336,-121,-56,-1,-1,0
1523617830426,3276800,-121,-56,-1,-1,0
1523617830466,2949120,-121,-56,-1,-1,0
1523617830466,2359296,-121,-56,-1,-1,0
1523617830466,1572864,-121,-56,-1,-1,0
1523617830466,786432,-121,-56,-1,-1,0
1523617830466,196608,-121,-56,-1,-1,0
1523617830506,-196608,-121,-56,-1,-1,0
1523617830506,-458752,-121,-56,-1,-1,0
1523617830506,-524288,-121,-56,-1,-1,0
1523617830506,-655360,-121,-56,-1,-1,0
1523617830506,-655360,-121,-56,-1,-1,0
1523617830551,-589824,-121,-56,-1,-1,0
1523617830551,-524288,-121,-56,-1,-1,0
1523617830551,-458752,-121,-56,-1,-1,0
1523617830551,-458752,-121,-56,-1,-1,0
1523617830551,-524288,-121,-56,-1,-1,0
1523617830586,-655360,-121,-56,-1,-1,0
1523617830586,-851968,-121,-56,-1,-1,0
1523617830586,-1179648,-121,-56,-1,-1,0
1523617830586,-1441792,-121,-56,-1,-1,0
1523617830586,-1441792,-121,-56,-1,-1,0
1523617830626,-1572864,-121,-56,-1,-1,0
1523617830626,-1703936,-121,-56,-1,-1,0
1523617830626,-1572864,-121,-56,-1,-1,0
1523617830626,-1310720,-121,-56,-1,-1,0
1523617830626,-1376256,-121,-56,-1,-1,0
1523617830666,-1572864,-121,-56,-1,-1,0
1523617830666,-1572864,-121,-56,-1,-1,0
1523617830666,-1376256,-121,-56,-1,-1,0
1523617830666,-1572864,-121,-56,-1,-1,0
1523617830666,-2097152,-121,-56,-1,-1,0
1523617830706,-2228224,-121,-56,-1,-1,0
1523617830706,131072,-121,-56,-1,-1,0
1523617830706,5898240,-121,-56,-1,-1,0
1523617830706,9568256,-121,-56,-1,-1,0
1523617830706,6684672,-121,-56,-1,-1,0
1523617830746,1376256,-121,-56,-1,-1,0
1523617830746,-983040,-121,-56,-1,-1,0
1523617830746,-1114112,-121,-56,-1,-1,0
1523617830746,-1114112,-121,-56,-1,-1,0
1523617830746,-1245184,-121,-56,-1,-1,0
1523617830786,-1310720,-121,-56,-1,-1,0
1523617830786,-1245184,-121,-56,-1,-1,0
1523617830786,-1048576,-121,-56,-1,-1,0
1523617830786,-983040,-121,-56,-1,-1,0
1523617830786,-983040,-121,-56,-1,-1,0
1523617830826,-851968,-121,-56,-1,-1,0
1523617830826,-524288,-121,-56,-1,-1,0
1523617830826,-131072,-121,-56,-1,-1,0
1523617830826,65536,-121,-56,-1,-1,0
1523617830826,393216,-121,-56,-1,-1,0
1523617830866,917504,-121,-56,-1,-1,0
1523617830866,1572864,-121,-56,-1,-1,0
1523617830866,2293760,-121,-56,-1,-1,0
1523617830866,3014656,-121,-56,-1,-1,0
1523617830866,3670016,-121,-56,-1,-1,0
1523617830906,4128768,-121,-56,-1,-1,0
1523617830906,4390912,-121,-56,-1,-1,0
1523617830906,4325376,-121,-56,-1,-1,0
1523617830906,3932160,-121,-56,-1,-1,0
1523617830906,3145728,-121,-56,-1,-1,0
1523617830946,2228224,-121,-56,-1,-1,0
1523617830946,1310720,-121,-56,-1,-1,0
1523617830946,720896,-121,-56,-1,-1,0
1523617830946,393216,-121,-56,-1,-1,0
1523617830946,196608,-121,-56,-1,-1,0
1523617830986,65536,-123,-56,-1,-1,0
1523617830986,-65536,-123,-56,-1,-1,0
1523617830986,-196608,-123,-56,-1,-1,0
1523617830986,-262144,-123,-56,-1,-1,0
1523617830986,-393216,-123,-56,-1,-1,0
1523617831026,-393216,-123,-56,-1,-1,0
1523617831026,-262144,-123,-56,-1,-1,0
1523617831026,0,-123,-56,-1,-1,0
1523617831026,0,-123,-56,-1,-1,0
1523617831026,-196608,-123,-56,-1,-1,0
1523617831066,-262144,-123,-56,-1,-1,0
1523617831066,-262144,-123,-56,-1,-1,0
1523617831066,-393216,-123,-56,-1,-1,0
1523617831066,-655360,-123,-56,-1,-1,0
1523617831066,-917504,-123,-56,-1,-1,0
1523617831106,-1048576,-123,-56,-1,-1,0
1523617831106,-1048576,-123,-56,-1,-1,0
1523617831106,-1048576,-123,-56,-1,-1,0
1523617831106,-983040,-123,-56,-1,-1,0
1523617831106,-917504,-123,-56,-1,-1,0
1523617831146,-917504,-123,-56,-1,-1,0
1523617831146,-917504,-123,-56,-1,-1,0
1523617831146,-983040,-123,-56,-1,-1,0
1523617831146,-1048576,-123,-56,-1,-1,0
1523617831146,-1376256,-123,-56,-1,-1,0
1523617831191,-1769472,-123,-56,-1,-1,0
1523617831191,-786432,-123,-56,-1,-1,0
1523617831191,3211264,-123,-56,-1,-1,0
1523617831191,8257536,-123,-56,-1,-1,0
1523617831191,8716288,-123,-56,-1,-1,0
1523617831226,4194304,-123,-56,-1,-1,0
1523617831226,131072,-123,-56,-1,-1,0
1523617831226,-1048576,-123,-56,-1,-1,0
1523617831226,-1245184,-123,-56,-1,-1,0
1523617831226,-1245184,-123,-56,-1,-1,0
1523617831266,-1310720,-123,-56,-1,-1,0
1523617831266,-1376256,-123,-56,-1,-1,0
1523617831266,-1245184,-123,-56,-1,-1,0
1523617831266,-1179648,-123,-56,-1,-1,0
1523617831266,-1114112,-123,-56,-1,-1,0
1523617831306,-1048576,-123,-56,-1,-1,0
1523617831306,-917504,-123,-56,-1,-1,0
1523617831306,-851968,-123,-56,-1,-1,0
1523617831306,-589824,-123,-56,-1,-1,0
1523617831306,-262144,-123,-56,-1,-1,0
1523617831346,65536,-123,-56,-1,-1,0
1523617831346,524288,-123,-56,-1,-1,0
1523617831346,1114112,-123,-56,-1,-1,0
1523617831346,1769472,-123,-56,-1,-1,0
1523617831346,2359296,-123,-56,-1,-1,0
1523617831386,2818048,-123,-56,-1,-1,0
1523617831386,3145728,-123,-56,-1,-1,0
1523617831386,3342336,-123,-56,-1,-1,0
1523617831386,3211264,-123,-56,-1,-1,0
1523617831386,2818048,-123,-56,-1,-1,0
1523617831426,2162688,-123,-56,-1,-1,0
1523617831426,1376256,-123,-56,-1,-1,0
1523617831426,655360,-123,-56,-1,-1,0
1523617831426,131072,-123,-56,-1,-1,0
1523617831426,-131072,-123,-56,-1,-1,0
1523617831466,-327680,-123,-56,-1,-1,0
1523617831466,-524288,-123,-56,-1,-1,0
1523617831466,-524288,-123,-56,-1,-1,0
1523617831466,-589824,-123,-56,-1,-1,0
1523617831466,-655360,-123,-56,-1,-1,0
1523617831506,-655360,-123,-56,-1,-1,0
1523617831506,-655360,-123,-56,-1,-1,0
1523617831506,-655360,-123,-56,-1,-1,0
1523617831506,-589824,-123,-56,-1,-1,0
1523617831506,-458752,-123,-56,-1,-1,0
1523617831546,-458752,-123,-56,-1,-1,0
1523617831546,-524288,-123,-56,-1,-1,0
1523617831546,-524288,-123,-56,-1,-1,0
1523617831546,-524288,-123,-56,-1,-1,0
1523617831546,-786432,-123,-56,-1,-1,0
1523617831586,-1114112,-123,-56,-1,-1,0
1523617831586,-1245184,-123,-56,-1,-1,0
1523617831586,-1376256,-123,-56,-1,-1,0
1523617831586,-1376256,-123,-56,-1,-1,0
1523617831586,-1376256,-123,-56,-1,-1,0
1523617831626,-1376256,-123,-56,-1,-1,0
1523617831626,-1441792,-123,-56,-1,-1,0
1523617831626,-1441792,-123,-56,-1,-1,0
1523617831626,-1376256,-123,-56,-1,-1,0
1523617831626,-1376256,-123,-56,-1,-1,0
1523617831666,-1507328,-123,-56,-1,-1,0
1523617831666,-1835008,-123,-56,-1,-1,0
1523617831666,-2097152,-123,-56,-1,-1,0
1523617831666,-1441792,-123,-56,-1,-1,0
1523617831666,2097152,-123,-56,-1,-1,0
1523617831706,6881280,-123,-56,-1,-1,0
1523617831706,7602176,-123,-56,-1,-1,0
1523617831706,3538944,-123,-56,-1,-1,0
1523617831706,-327680,-123,-56,-1,-1,0
1523617831706,-1572864,-123,-56,-1,-1,0
1523617831746,-1703936,-123,-56,-1,-1,0
1523617831746,-1769472,-123,-56,-1,-1,0
1523617831746,-1769472,-123,-56,-1,-1,0
1523617831746,-1769472,-123,-56,-1,-1,0
1523617831746,-1769472,-123,-56,-1,-1,0
1523617831786,-1769472,-123,-56,-1,-1,0
1523617831786,-1572864,-123,-56,-1,-1,0
1523617831786,-1376256,-123,-56,-1,-1,0
1523617831786,-1179648,-123,-56,-1,-1,0
1523617831786,-983040,-123,-56,-1,-1,0
1523617831831,-720896,-123,-56,-1,-1,0
1523617831831,-458752,-123,-56,-1,-1,0
1523617831831,-131072,-123,-56,-1,-1,0
1523617831831,262144,-123,-56,-1,-1,0
1523617831831,851968,-123,-56,-1,-1,0
1523617831866,1572864,-123,-56,-1,-1,0
1523617831866,2228224,-123,-56,-1,-1,0
1523617831866,2883584,-123,-56,-1,-1,0
1523617831866,3276800,-123,-56,-1,-1,0
1523617831866,3538944,-123,-56,-1,-1,0
1523617831906,3473408,-123,-56,-1,-1,0
1523617831906,3080192,-123,-56,-1,-1,0
1523617831906,2359296,-123,-56,-1,-1,0
1523617831906,1638400,-123,-56,-1,-1,0
1523617831906,917504,-123,-56,-1,-1,0
1523617831946,196608,-123,-56,-1,-1,0
1523617831946,-196608,-123,-56,-1,-1,0
1523617831946,-393216,-123,-56,-1,-1,0
1523617831946,-524288,-123,-56,-1,-1,0
1523617831946,-524288,-123,-56,-1,-1,0
1523617831986,-589824,-123,-56,-1,-1,0
1523617831986,-589824,-123,-56,-1,-1,0
1523617831986,-655360,-123,-56,-1,-1,0
1523617831986,-720896,-123,-56,-1,-1,0
1523617831986,-851968,-123,-56,-1,-1,0
1523617832026,-720896,-123,-56,-1,-1,0
1523617832026,-589824,-123,-56,-1,-1,0
1523617832026,-524288,-123,-56,-1,-1,0
1523617832026,-720896,-123,-56,-1,-1,0
1523617832026,-720896,-123,-56,-1,-1,0
1523617832066,-786432,-123,-56,-1,-1,0
1523617832066,-851968,-123,-56,-1,-1,0
1523617832066,-983040,-123,-56,-1,-1,0
1523617832066,-1245184,-123,-56,-1,-1,0
1523617832066,-1376256,-123,-56,-1,-1,0
1523617832106,-1310720,-123,-56,-1,-1,0
1523617832106,-1310720,-123,-56,-1,-1,0
1523617832106,-1376256,-123,-56,-1,-1,0
1523617832106,-1507328,-123,-56,-1,-1,0
1523617832106,-1441792,-123,-56,-1,-1,0
1523617832146,-1441792,-123,-56,-1,-1,0
1523617832146,-1376256,-123,-56,-1,-1,0
1523617832146,-1310720,-123,-56,-1,-1,0
1523617832146,-1572864,-123,-56,-1,-1,0
1523617832146,-2031616,-123,-56,-1,-1,0
1523617832186,-1245184,-123,-56,-1,-1,0
1523617832186,2555904,-123,-56,-1,-1,0
1523617832186,8257536,-123,-56,-1,-1,0
1523617832186,9699328,-123,-56,-1,-1,0
1523617832186,5046272,-123,-56,-1,-1,0
1523617832226,0,-123,-56,-1,-1,0
1523617832226,-1572864,-123,-56,-1,-1,0
1523617832226,-1638400,-123,-56,-1,-1,0
1523617832226,-1507328,-123,-56,-1,-1,0
1523617832226,-1441792,-123,-56,-1,-1,0
1523617832266,-1441792,-123,-56,-1,-1,0
1523617832266,-1441792,-123,-56,-1,-1,0
1523617832266,-1376256,-123,-56,-1,-1,0
1523617832266,-1310720,-123,-56,-1,-1,0
1523617832266,-983040,-123,-56,-1,-1,0
1523617832306,-786432,-123,-56,-1,-1,0
1523617832306,-589824,-123,-56,-1,-1,0
1523617832306,-393216,-123,-56,-1,-1,0
1523617832306,-65536,-123,-56,-1,-1,0
1523617832306,327680,-123,-56,-1,-1,0
1523617832346,851968,-123,-56,-1,-1,0
1523617832346,1572864,-123,-56,-1,-1,0
1523617832346,2359296,-123,-56,-1,-1,0
1523617832346,3080192,-123,-56,-1,-1,0
1523617832346,3735552,-123,-56,-1,-1,0
1523617832386,4390912,-123,-56,-1,-1,0
1523617832386,4587520,-123,-56,-1,-1,0
1523617832386,4259840,-123,-56,-1,-1,0
1523617832386,3932160,-123,-56,-1,-1,0
1523617832386,3145728,-123,-56,-1,-1,0
1523617832426,2097152,-123,-56,-1,-1,0
1523617832426,983040,-123,-56,-1,-1,0
1523617832426,327680,-123,-56,-1,-1,0
1523617832426,-131072,-123,-56,-1,-1,0
1523617832426,-393216,-123,-56,-1,-1,0
1523617832472,-655360,-123,-56,-1,-1,0
1523617832472,-589824,-123,-56,-1,-1,0
1523617832472,-655360,-123,-56,-1,-1,0
1523617832472,-524288,-123,-56,-1,-1,0
1523617832472,-589824,-123,-56,-1,-1,0
1523617832506,-655360,-123,-56,-1,-1,0
1523617832506,-655360,-123,-56,-1,-1,0
1523617832506,-524288,-123,-56,-1,-1,0
1523617832506,-524288,-123,-56,-1,-1,0
1523617832506,-589824,-123,-56,-1,-1,0
1523617832548,-589824,-123,-56,-1,-1,0
1523617832548,-655360,-123,-56,-1,-1,0
1523617832548,-786432,-123,-56,-1,-1,0
1523617832548,-1048576,-123,-56,-1,-1,0
1523617832548,-1310720,-123,-56,-1,-1,0
1523617832586,-1507328,-123,-56,-1,-1,0
1523617832586,-1572864,-123,-56,-1,-1,0
1523617832586,-1507328,-123,-56,-1,-1,0
1523617832586,-1638400,-123,-56,-1,-1,0
1523617832586,-1703936,-123,-56,-1,-1,0
1523617832626,-1638400,-123,-56,-1,-1,0
1523617832626,-1507328,-123,-56,-1,-1,0
1523617832626,-1572864,-123,-56,-1,-1,0
1523617832626,-1572864,-123,-56,-1,-1,0
1523617832626,-1769472,-123,-56,-1,-1,0
1523617832666,-2097152,-123,-56,-1,-1,0
1523617832666,-1638400,-123,-56,-1,-1,0
1523617832666,1835008,-123,-56,-1,-1,0
1523617832666,7536640,-123,-56,-1,-1,0
1523617832666,9568256,-123,-56,-1,-1,0
1523617832706,5111808,-123,-56,-1,-1,0
1523617832706,-262144,-123,-56,-1,-1,0
1523617832706,-2031616,-123,-56,-1,-1,0
1523617832706,-1966080,-123,-56,-1,-1,0
1523617832706,-1769472,-123,-56,-1,-1,0
1523617832746,-1703936,-123,-56,-1,-1,0
1523617832746,-1703936,-123,-56,-1,-1,0
1523617832746,-1769472,-123,-56,-1,-1,0
1523617832746,-1703936,-123,-56,-1,-1,0
1523617832746,-1507328,-123,-56,-1,-1,0
1523617832786,-1376256,-123,-56,-1,-1,0
1523617832786,-1179648,-123,-56,-1,-1,0
1523617832786,-983040,-123,-56,-1,-1,0
1523617832786,-655360,-123,-56,-1,-1,0
1523617832786,-393216,-123,-56,-1,-1,0
1523617832826,0,-123,-56,-1,-1,0
1523617832826,458752,-123,-56,-1,-1,0
1523617832826,983040,-123,-56,-1,-1,0
1523617832826,1769472,-123,-56,-1,-1,0
1523617832826,2686976,-123,-56,-1,-1,0
1523617832866,3342336,-123,-56,-1,-1,0
1523617832866,3866624,-123,-56,-1,-1,0
1523617832866,4128768,-123,-56,-1,-1,0
1523617832866,3997696,-123,-56,-1,-1,0
1523617832866,3538944,-123,-56,-1,-1,0
1523617832906,2621440,-123,-56,-1,-1,0
1523617832906,1638400,-123,-56,-1,-1,0
1523617832906,851968,-123,-56,-1,-1,0
1523617832906,262144,-123,-56,-1,-1,0
1523617832906,-196608,-123,-56,-1,-1,0
1523617832946,-458752,-123,-56,-1,-1,0
1523617832946,-589824,-123,-56,-1,-1,0
1523617832946,-720896,-123,-56,-1,-1,0
1523617832946,-851968,-123,-56,-1,-1,0
1523617832946,-720896,-123,-56,-1,-1,0
1523617832986,-655360,-123,-56,-1,-1,0
1523617832986,-589824,-123,-56,-1,-1,0
1523617832986,-524288,-123,-56,-1,-1,0
1523617832986,-393216,-123,-56,-1,-1,0
1523617832986,-393216,-123,-56,-1,-1,0
1523617833026,-524288,-123,-56,-1,-1,0
1523617833026,-589824,-123,-56,-1,-1,0
1523617833026,-655360,-123,-56,-1,-1,0
1523617833026,-983040,-123,-56,-1,-1,0
1523617833026,-1179648,-123,-56,-1,-1,0
1523617833066,-1245184,-123,-56,-1,-1,0
1523617833066,-1245184,-123,-56,-1,-1,0
1523617833066,-1310720,-123,-56,-1,-1,0
1523617833066,-1310720,-123,-56,-1,-1,0
1523617833066,-1376256,-123,-56,-1,-1,0
1523617833111,-1441792,-123,-56,-1,-1,0
1523617833111,-1441792,-123,-56,-1,-1,0
1523617833111,-1441792,-123,-56,-1,-1,0
1523617833111,-1376256,-123,-56,-1,-1,0
1523617833111,-1638400,-123,-56,-1,-1,0
1523617833146,-2097152,-123,-56,-1,-1,0
1523617833146,-1638400,-123,-56,-1,-1,0
1523617833146,1900544,-123,-56,-1,-1,0
1523617833146,7536640,-123,-56,-1,-1,0
1523617833146,9109504,-123,-56,-1,-1,0
1523617833186,4849664,-123,-56,-1,-1,0
1523617833186,196608,-123,-56,-1,-1,0
1523617833186,-1376256,-123,-56,-1,-1,0
1523617833186,-1572864,-123,-56,-1,-1,0
1523617833186,-1638400,-123,-56,-1,-1,0
1523617833227,-1703936,-123,-56,-1,-1,0
1523617833227,-1703936,-123,-56,-1,-1,0
1523617833227,-1572864,-123,-56,-1,-1,0
1523617833227,-1572864,-123,-56,-1,-1,0
1523617833227,-1507328,-123,-56,-1,-1,0
1523617833266,-1441792,-123,-56,-1,-1,0
1523617833266,-1245184,-123,-56,-1,-1,0
1523617833266,-1048576,-123,-56,-1,-1,0
1523617833266,-851968,-123,-56,-1,-1,0
1523617833266,-524288,-123,-56,-1,-1,0
1523617833306,-131072,-123,-56,-1,-1,0
1523617833306,262144,-123,-56,-1,-1,0
1523617833306,851968,-123,-56,-1,-1,0
1523617833306,1507328,-123,-56,-1,-1,0
1523617833306,2228224,-123,-56,-1,-1,0
1523617833346,2752512,-123,-56,-1,-1,0
1523617833346,3211264,-123,-56,-1,-1,0
1523617833346,3473408,-123,-56,-1,-1,0
1523617833346,3473408,-123,-56,-1,-1,0
1523617833346,3080192,-123,-56,-1,-1,0
1523617833386,2359296,-123,-56,-1,-1,0
1523617833386,1572864,-123,-56,-1,-1,0
1523617833386,917504,-123,-56,-1,-1,0
1523617833386,196608,-123,-56,-1,-1,0
1523617833386,-196608,-123,-56,-1,-1,0
1523617833426,-393216,-123,-56,-1,-1,0
1523617833426,-524288,-123,-56,-1,-1,0
1523617833426,-655360,-123,-56,-1,-1,0
1523617833426,-655360,-123,-56,-1,-1,0
1523617833426,-524288,-123,-56,-1,-1,0
1523617833466,-524288,-123,-56,-1,-1,0
1523617833466,-524288,-123,-56,-1,-1,0
1523617833466,-458752,-123,-56,-1,-1,0
1523617833466,-262144,-123,-56,-1,-1,0
1523617833466,-131072,-123,-56,-1,-1,0
1523617833506,-131072,-123,-56,-1,-1,0
1523617833506,-196608,-123,-56,-1,-1,0
1523617833506,-262144,-123,-56,-1,-1,0
1523617833506,-458752,-123,-56,-1,-1,0
1523617833506,-786432,-123,-56,-1,-1,0
1523617833546,-983040,-123,-56,-1,-1,0
1523617833546,-1048576,-123,-56,-1,-1,0
1523617833546,-1048576,-123,-56,-1,-1,0
1523617833546,-1114112,-123,-56,-1,-1,0
1523617833546,-1179648,-123,-56,-1,-1,0
1523617833586,-1114112,-123,-56,-1,-1,0
1523617833586,-1114112,-123,-56,-1,-1,0
1523617833586,-1114112,-123,-56,-1,-1,0
1523617833586,-1048576,-123,-56,-1,-1,0
1523617833586,-1179648,-123,-56,-1,-1,0
1523617833626,-1638400,-123,-56,-1,-1,0
1523617833626,-1966080,-123,-56,-1,-1,0
1523617833626,-458752,-123,-56,-1,-1,0
1523617833626,4128768,-123,-56,-1,-1,0
1523617833626,8060928,-123,-56,-1,-1,0
1523617833666,6750208,-123,-56,-1,-1,0
1523617833666,2162688,-123,-56,-1,-1,0
1523617833666,-589824,-123,-56,-1,-1,0
1523617833666,-1179648,-123,-56,-1,-1,0
1523617833666,-1376256,-123,-56,-1,-1,0
1523617833707,-1441792,-123,-56,-1,-1,0
1523617833707,-1441792,-123,-56,-1,-1,0
1523617833707,-1376256,-123,-56,-1,-1,0
1523617833707,-1310720,-123,-56,-1,-1,0
1523617833707,-1245184,-123,-56,-1,-1,0
1523617833752,-1179648,-123,-56,-1,-1,0
1523617833752,-1179648,-123,-56,-1,-1,0
1523617833752,-1114112,-123,-56,-1,-1,0
1523617833752,-917504,-123,-56,-1,-1,0
1523617833752,-655360,-123,-56,-1,-1,0
1523617833786,-327680,-123,-56,-1,-1,0
1523617833786,0,-123,-56,-1,-1,0
1523617833786,327680,-123,-56,-1,-1,0
1523617833786,786432,-123,-56,-1,-1,0
1523617833786,1376256,-123,-56,-1,-1,0
1523617833826,2031616,-123,-56,-1,-1,0
1523617833826,2555904,-123,-56,-1,-1,0
1523617833826,2883584,-123,-56,-1,-1,0
1523617833826,2949120,-123,-56,-1,-1,0
1523617833826,2818048,-123,-56,-1,-1,0
1523617833867,2359296,-123,-56,-1,-1,0
1523617833867,1703936,-123,-56,-1,-1,0
1523617833867,983040,-123,-56,-1,-1,0
1523617833867,393216,-123,-56,-1,-1,0
1523617833867,-65536,-123,-56,-1,-1,0
1523617833906,-327680,-124,-56,-1,-1,0
1523617833906,-393216,-124,-56,-1,-1,0
1523617833906,-524288,-124,-56,-1,-1,0
1523617833906,-786432,-124,-56,-1,-1,0
1523617833906,-917504,-124,-56,-1,-1,0
1523617833946,-851968,-124,-56,-1,-1,0
1523617833946,-851968,-124,-56,-1,-1,0
1523617833946,-786432,-124,-56,-1,-1,0
1523617833946,-786432,-124,-56,-1,-1,0
1523617833946,-655360,-124,-56,-1,-1,0
1523617833986,-524288,-124,-56,-1,-1,0
1523617833986,-458752,-124,-56,-1,-1,0
1523617833986,-524288,-124,-56,-1,-1,0
1523617833986,-655360,-124,-56,-1,-1,0
1523617833986,-983040,-124,-56,-1,-1,0
1523617834026,-1310720,-124,-56,-1,-1,0
1523617834026,-1507328,-124,-56,-1,-1,0
1523617834026,-1507328,-124,-56,-1,-1,0
1523617834026,-1572864,-124,-56,-1,-1,0
1523617834026,-1572864,-124,-56,-1,-1,0
1523617834067,-1572864,-124,-56,-1,-1,0
1523617834067,-1572864,-124,-56,-1,-1,0
1523617834067,-1638400,-124,-56,-1,-1,0
1523617834067,-1638400,-124,-56,-1,-1,0
1523617834067,-1638400,-124,-56,-1,-1,0
1523617834106,-1572864,-124,-56,-1,-1,0
1523617834106,-1769472,-124,-56,-1,-1,0
1523617834106,-2293760,-124,-56,-1,-1,0
1523617834106,-1638400,-124,-56,-1,-1,0
1523617834106,2228224,-124,-56,-1,-1,0
1523617834147,7602176,-124,-56,-1,-1,0
1523617834147,8323072,-124,-56,-1,-1,0
1523617834147,3735552,-124,-56,-1,-1,0
1523617834147,-524288,-124,-56,-1,-1,0
1523617834147,-1769472,-124,-56,-1,-1,0
1523617834188,-1835008,-124,-56,-1,-1,0
1523617834188,-1835008,-124,-56,-1,-1,0
1523617834188,-1835008,-124,-56,-1,-1,0
1523617834188,-1835008,-124,-56,-1,-1,0
1523617834188,-1835008,-124,-56,-1,-1,0
1523617834227,-1769472,-124,-56,-1,-1,0
1523617834227,-1638400,-124,-56,-1,-1,0
1523617834227,-1441792,-124,-56,-1,-1,0
1523617834227,-1376256,-124,-56,-1,-1,0
1523617834227,-1179648,-124,-56,-1,-1,0
1523617834266,-983040,-124,-56,-1,-1,0
1523617834266,-589824,-124,-56,-1,-1,0
1523617834266,-65536,-124,-56,-1,-1,0
1523617834266,458752,-124,-56,-1,-1,0
1523617834266,1048576,-124,-56,-1,-1,0
1523617834306,1638400,-124,-56,-1,-1,0
1523617834306,2359296,-124,-56,-1,-1,0
1523617834306,3080192,-124,-56,-1,-1,0
1523617834306,3670016,-124,-56,-1,-1,0
1523617834306,3932160,-124,-56,-1,-1,0
1523617834346,3801088,-124,-56,-1,-1,0
1523617834346,3211264,-124,-56,-1,-1,0
1523617834346,2293760,-124,-56,-1,-1,0
1523617834346,1376256,-124,-56,-1,-1,0
1523617834346,524288,-124,-56,-1,-1,0
1523617834392,-65536,-125,-56,-1,-1,0
1523617834392,-458752,-125,-56,-1,-1,0
1523617834392,-655360,-125,-56,-1,-1,0
1523617834392,-786432,-125,-56,-1,-1,0
1523617834392,-851968,-125,-56,-1,-1,0
1523617834426,-917504,-125,-56,-1,-1,0
1523617834426,-917504,-125,-56,-1,-1,0
1523617834426,-983040,-125,-56,-1,-1,0
1523617834426,-851968,-125,-56,-1,-1,0
1523617834426,-720896,-125,-56,-1,-1,0
1523617834467,-655360,-125,-56,-1,-1,0
1523617834467,-786432,-125,-56,-1,-1,0
1523617834467,-917504,-125,-56,-1,-1,0
1523617834467,-851968,-125,-56,-1,-1,0
1523617834467,-917504,-125,-56,-1,-1,0
1523617834507,-1179648,-125,-56,-1,-1,0
1523617834507,-1376256,-125,-56,-1,-1,0
1523617834507,-1507328,-125,-56,-1,-1,0
1523617834507,-1638400,-125,-56,-1,-1,0
1523617834507,-1703936,-125,-56,-1,-1,0
1523617834547,-1835008,-125,-56,-1,-1,0
1523617834547,-1835008,-125,-56,-1,-1,0
1523617834547,-1769472,-125,-56,-1,-1,0
1523617834547,-1835008,-125,-56,-1,-1,0
1523617834547,-1835008,-125,-56,-1,-1,0
1523617834587,-1769472,-125,-56,-1,-1,0
1523617834587,-1835008,-125,-56,-1,-1,0
1523617834587,-2293760,-125,-56,-1,-1,0
1523617834587,-2555904,-125,-56,-1,-1,0
1523617834587,-720896,-125,-56,-1,-1,0
1523617834626,4521984,-125,-56,-1,-1,0
1523617834626,9109504,-125,-56,-1,-1,0
1523617834626,7340032,-125,-56,-1,-1,0
1523617834626,1638400,-125,-56,-1,-1,0
1523617834626,-1835008,-125,-56,-1,-1,0
1523617834667,-2293760,-125,-56,-1,-1,0
1523617834667,-2228224,-125,-56,-1,-1,0
1523617834667,-2162688,-125,-56,-1,-1,0
1523617834667,-2097152,-125,-56,-1,-1,0
1523617834667,-2031616,-125,-56,-1,-1,0
1523617834707,-2031616,-125,-56,-1,-1,0
1523617834707,-1966080,-125,-56,-1,-1,0
1523617834707,-1835008,-125,-56,-1,-1,0
1523617834707,-1638400,-125,-56,-1,-1,0
1523617834707,-1376256,-125,-56,-1,-1,0
1523617834747,-1179648,-125,-56,-1,-1,0
1523617834747,-917504,-125,-56,-1,-1,0
1523617834747,-589824,-125,-56,-1,-1,0
1523617834747,-65536,-125,-56,-1,-1,0
1523617834747,393216,-125,-56,-1,-1,0
1523617834787,1114112,-125,-56,-1,-1,0
1523617834787,1769472,-125,-56,-1,-1,0
1523617834787,2555904,-125,-56,-1,-1,0
1523617834787,3145728,-125,-56,-1,-1,0
1523617834787,3407872,-125,-56,-1,-1,0
1523617834827,3538944,-126,-56,-1,-1,0
1523617834827,3407872,-126,-56,-1,-1,0
1523617834827,2752512,-126,-56,-1,-1,0
1523617834827,1835008,-126,-56,-1,-1,0
1523617834827,983040,-126,-56,-1,-1,0
1523617834867,196608,-126,-56,-1,-1,0
1523617834867,-393216,-126,-56,-1,-1,0
1523617834867,-851968,-126,-56,-1,-1,0
1523617834867,-1048576,-126,-56,-1,-1,0
1523617834867,-1048576,-126,-56,-1,-1,0
1523617834906,-983040,-126,-56,-1,-1,0
1523617834906,-983040,-126,-56,-1,-1,0
1523617834906,-983040,-126,-56,-1,-1,0
1523617834906,-917504,-126,-56,-1,-1,0
1523617834906,-720896,-126,-56,-1,-1,0
1523617834947,-589824,-126,-56,-1,-1,0
1523617834947,-655360,-126,-56,-1,-1,0
1523617834947,-589824,-126,-56,-1,-1,0
1523617834947,-655360,-126,-56,-1,-1,0
1523617834947,-786432,-126,-56,-1,-1,0
1523617834987,-1048576,-126,-56,-1,-1,0
1523617834987,-1310720,-126,-56,-1,-1,0
1523617834987,-1507328,-126,-56,-1,-1,0
1523617834987,-1507328,-126,-56,-1,-1,0
1523617834987,-1441792,-126,-56,-1,-1,0
1523617835032,-1441792,-126,-56,-1,-1,0
1523617835032,-1441792,-126,-56,-1,-1,0
1523617835032,-1441792,-126,-56,-1,-1,0
1523617835032,-1441792,-126,-56,-1,-1,0
1523617835032,-1441792,-126,-56,-1,-1,0
1523617835067,-1441792,-126,-56,-1,-1,0
1523617835067,-1769472,-126,-56,-1,-1,0
1523617835067,-2293760,-126,-56,-1,-1,0
1523617835067,-2031616,-126,-56,-1,-1,0
1523617835067,1048576,-126,-56,-1,-1,0
1523617835107,6488064,-126,-56,-1,-1,0
1523617835107,8585216,-126,-56,-1,-1,0
1523617835107,4980736,-126,-56,-1,-1,0
1523617835107,458752,-126,-56,-1,-1,0
1523617835107,-1179648,-126,-56,-1,-1,0
1523617835147,-1441792,-126,-56,-1,-1,0
1523617835147,-1572864,-126,-56,-1,-1,0
1523617835147,-1572864,-126,-56,-1,-1,0
1523617835147,-1507328,-126,-56,-1,-1,0
1523617835147,-1507328,-126,-56,-1,-1,0
