milliseconds, ECG, ECG HR, PPG, PPG HR, SpO2, PI
0,-458752,117,-56,-1,-1,0
33,-393216,117,-56,-1,-1,0
66,0,117,-56,-1,-1,0
100,720896,117,-56,-1,-1,0
133,786432,117,-56,-1,-1,0
166,0,118,-56,-1,-1,0
200,0,118,-56,-1,-1,0
233,-262144,118,-56,-1,-1,0
266,-196608,118,-56,-1,-1,0
300,-589824,118,-56,-1,-1,0
333,-589824,118,-56,-1,-1,0
366,5046272,118,-56,-1,-1,0
400,-851968,118,-56,-1,-1,0
433,-983040,118,-56,-1,-1,0
466,-655360,118,-56,-1,-1,0
500,0,118,-56,-1,-1,0
533,0,118,-56,-1,-1,0
566,-262144,119,-56,-1,-1,0
600,-327680,119,-56,-1,-1,0
633,-720896,119,-56,-1,-1,0
666,-851968,119,-56,-1,-1,0
700,-1179648,119,-56,-1,-1,0
733,-1245184,119,-56,-1,-1,0
766,4128768,119,-56,-1,-1,0
800,-1245184,119,-56,-1,-1,0
833,-1179648,119,-56,-1,-1,0
866,-851968,119,-56,-1,-1,0
900,-458752,119,-56,-1,-1,0
933,-65536,120,-56,-1,-1,0
966,-655360,120,-56,-1,-1,0
1000,-917504,120,-56,-1,-1,0
1033,-720896,120,-56,-1,-1,0
1066,-655360,120,-56,-1,-1,0
1100,-1048576,120,-56,-1,-1,0
1133,-1179648,120,-56,-1,-1,0
1166,5046272,120,-56,-1,-1,0
1200,-1048576,120,-56,-1,-1,0
1233,-655360,120,-56,-1,-1,0
1266,-65536,120,-56,-1,-1,0
1300,720896,120,-56,-1,-1,0
1333,786432,120,-56,-1,-1,0
1366,0,120,-56,-1,-1,0
1400,131072,120,-56,-1,-1,0
1433,-65536,120,-56,-1,-1,0
1466,0,120,-56,-1,-1,0
1500,-327680,120,-56,-1,-1,0
1533,-589824,120,-56,-1,-1,0
1566,2162688,120,-56,-1,-1,0
1600,-720896,120,-56,-1,-1,0
1633,-720896,120,-56,-1,-1,0
1666,-262144,120,-56,-1,-1,0
1700,327680,121,-56,-1,-1,0
1733,262144,121,-56,-1,-1,0
1766,-262144,121,-56,-1,-1,0
1800,-131072,121,-56,-1,-1,0
1833,-327680,121,-56,-1,-1,0
1866,-589824,121,-56,-1,-1,0
1900,-720896,121,-56,-1,-1,0
1933,5767168,121,-56,-1,-1,0
1966,-917504,121,-56,-1,-1,0
2000,-786432,121,-56,-1,-1,0
2033,-589824,121,-56,-1,-1,0
2066,327680,121,-56,-1,-1,0
2100,458752,121,-56,-1,-1,0
2133,-327680,121,-56,-1,-1,0
2166,-131072,121,-56,-1,-1,0
2200,-262144,121,-56,-1,-1,0
2233,-327680,121,-56,-1,-1,0
2266,-655360,121,-56,-1,-1,0
2300,-786432,121,-56,-1,-1,0
2333,6553600,121,-56,-1,-1,0
2366,-851968,121,-56,-1,-1,0
2400,-851968,121,-56,-1,-1,0
2433,-458752,121,-56,-1,-1,0
2466,327680,121,-56,-1,-1,0
2500,262144,122,-56,-1,-1,0
2533,-589824,122,-56,-1,-1,0
2566,-196608,122,-56,-1,-1,0
2600,-851968,122,-56,-1,-1,0
2633,-196608,122,-56,-1,-1,0
2666,-589824,122,-56,-1,-1,0
2700,-393216,122,-56,-1,-1,0
2733,4718592,122,-56,-1,-1,0
2766,-589824,122,-56,-1,-1,0
2800,-458752,122,-56,-1,-1,0
2833,0,122,-56,-1,-1,0
2866,65536,122,-56,-1,-1,0
2900,262144,122,-56,-1,-1,0
2933,-458752,122,-56,-1,-1,0
2966,-131072,122,-56,-1,-1,0
3000,-262144,122,-56,-1,-1,0
3033,-196608,122,-56,-1,-1,0
3066,-655360,122,-56,-1,-1,0
3100,-786432,122,-56,-1,-1,0
3133,7733248,122,-56,-1,-1,0
3166,-851968,122,-56,-1,-1,0
3200,-655360,122,-56,-1,-1,0
3233,-393216,122,-56,-1,-1,0
3266,196608,122,-56,-1,-1,0
3300,458752,122,-56,-1,-1,0
3333,-327680,122,-56,-1,-1,0
3366,-393216,122,-56,-1,-1,0
3400,-589824,122,-56,-1,-1,0
3433,-786432,122,-56,-1,-1,0
3466,-655360,122,-56,-1,-1,0
3500,-786432,122,-56,-1,-1,0
3533,-851968,122,-56,-1,-1,0
3566,7143424,122,-56,-1,-1,0
3600,-917504,122,-56,-1,-1,0
3633,-917504,122,-56,-1,-1,0
3666,-524288,122,-56,-1,-1,0
3699,65536,122,-56,-1,-1,0
3733,327680,122,-56,-1,-1,0
3766,-196608,122,-56,-1,-1,0
3800,0,122,-56,-1,-1,0
3833,0,122,-56,-1,-1,0
3866,-327680,122,-56,-1,-1,0
3900,-458752,122,-56,-1,-1,0
3933,-393216,122,-56,-1,-1,0
3966,-458752,122,-56,-1,-1,0
4000,-589824,122,-56,-1,-1,0
4033,4849664,122,-56,-1,-1,0
4066,-720896,122,-56,-1,-1,0
4100,-720896,122,-56,-1,-1,0
4133,-524288,122,-56,-1,-1,0
4166,131072,122,-56,-1,-1,0
4200,458752,122,-56,-1,-1,0
4233,-196608,122,-56,-1,-1,0
4266,-262144,122,-56,-1,-1,0
4300,-196608,122,-56,-1,-1,0
4333,-655360,122,-56,-1,-1,0
4366,-655360,122,-56,-1,-1,0
4400,-655360,122,-56,-1,-1,0
4433,-720896,122,-56,-1,-1,0
4466,-851968,122,-56,-1,-1,0
4500,4390912,122,-56,-1,-1,0
4533,-1114112,122,-56,-1,-1,0
4566,-851968,122,-56,-1,-1,0
4600,-524288,122,-56,-1,-1,0
4633,262144,122,-56,-1,-1,0
4666,524288,122,-56,-1,-1,0
4700,-196608,122,-56,-1,-1,0
4733,-327680,122,-56,-1,-1,0
4766,-327680,122,-56,-1,-1,0
4800,-589824,122,-56,-1,-1,0
4833,-917504,122,-56,-1,-1,0
4866,-983040,122,-56,-1,-1,0
4900,-786432,122,-56,-1,-1,0
4933,-917504,122,-56,-1,-1,0
4966,2293760,122,-56,-1,-1,0
5000,-1310720,122,-56,-1,-1,0
5033,-1179648,122,-56,-1,-1,0
5066,-917504,122,-56,-1,-1,0
5100,-262144,122,-56,-1,-1,0
5133,393216,122,-56,-1,-1,0
5166,-65536,122,-56,-1,-1,0
5200,-458752,122,-56,-1,-1,0
5233,-262144,122,-56,-1,-1,0
5266,-589824,122,-56,-1,-1,0
5300,-786432,121,-56,-1,-1,0
5333,-851968,121,-56,-1,-1,0
5366,-655360,121,-56,-1,-1,0
5400,-851968,121,-56,-1,-1,0
5433,1507328,121,-56,-1,-1,0
5466,-720896,121,-56,-1,-1,0
5500,-786432,121,-56,-1,-1,0
5533,-393216,121,-56,-1,-1,0
5566,196608,121,-56,-1,-1,0
5600,983040,121,-56,-1,-1,0
5633,655360,121,-56,-1,-1,0
5666,0,121,-56,-1,-1,0
5700,131072,121,-56,-1,-1,0
5733,0,121,-56,-1,-1,0
5766,-262144,121,-56,-1,-1,0
5800,-327680,121,-56,-1,-1,0
5833,-262144,121,-56,-1,-1,0
5866,-393216,121,-56,-1,-1,0
5900,4194304,121,-56,-1,-1,0
5933,-589824,121,-56,-1,-1,0
5966,-458752,121,-56,-1,-1,0
6000,-262144,121,-56,-1,-1,0
6033,524288,121,-56,-1,-1,0
6066,1179648,121,-56,-1,-1,0
6100,458752,121,-56,-1,-1,0
6133,131072,121,-56,-1,-1,0
6166,262144,121,-56,-1,-1,0
6200,0,121,-56,-1,-1,0
6233,-327680,121,-56,-1,-1,0
6266,-196608,121,-56,-1,-1,0
6300,-524288,121,-56,-1,-1,0
6333,-524288,121,-56,-1,-1,0
6366,6160384,121,-56,-1,-1,0
6400,-655360,121,-56,-1,-1,0
6433,-655360,121,-56,-1,-1,0
6466,-262144,121,-56,-1,-1,0
6500,786432,121,-56,-1,-1,0
6533,720896,121,-56,-1,-1,0
6566,0,121,-56,-1,-1,0
6600,65536,122,-56,-1,-1,0
6633,-196608,122,-56,-1,-1,0
6666,0,122,-56,-1,-1,0
6700,-393216,122,-56,-1,-1,0
6733,-524288,122,-56,-1,-1,0
6766,3801088,122,-56,-1,-1,0
6800,-524288,122,-56,-1,-1,0
6833,-589824,122,-56,-1,-1,0
6866,0,122,-56,-1,-1,0
6899,589824,122,-56,-1,-1,0
6933,851968,122,-56,-1,-1,0
6966,-327680,122,-56,-1,-1,0
7000,196608,120,-56,-1,-1,0
7033,131072,120,-56,-1,-1,0
7066,0,120,-56,-1,-1,0
7100,-131072,120,-56,-1,-1,0
7133,-196608,120,-56,-1,-1,0
7166,-720896,120,-56,-1,-1,0
7200,786432,120,-56,-1,-1,0
7233,-983040,120,-56,-1,-1,0
7266,-2097152,120,-56,-1,-1,0
7300,-1900544,120,-56,-1,-1,0
7333,-1441792,120,-56,-1,-1,0
7366,-851968,120,-56,-1,-1,0
7399,-589824,120,-56,-1,-1,0
7433,-851968,120,-56,-1,-1,0
7466,-524288,120,-56,-1,-1,0
7500,-327680,120,-56,-1,-1,0
7533,-393216,120,-56,-1,-1,0
7566,-262144,120,-56,-1,-1,0
7600,6160384,120,-56,-1,-1,0
7633,-327680,120,-56,-1,-1,0
7666,-131072,120,-56,-1,-1,0
7700,131072,120,-56,-1,-1,0
7733,917504,120,-56,-1,-1,0
7766,1048576,120,-56,-1,-1,0
7800,262144,121,-56,-1,-1,0
7833,393216,121,-56,-1,-1,0
7866,0,121,-56,-1,-1,0
7899,65536,121,-56,-1,-1,0
7933,-196608,121,-56,-1,-1,0
7966,-327680,121,-56,-1,-1,0
8000,2097152,121,-56,-1,-1,0
8033,-589824,121,-56,-1,-1,0
8066,-589824,121,-56,-1,-1,0
8100,-196608,121,-56,-1,-1,0
8133,262144,121,-56,-1,-1,0
8166,-65536,121,-56,-1,-1,0
8200,-524288,120,-56,-1,-1,0
8233,-589824,120,-56,-1,-1,0
8266,-786432,120,-56,-1,-1,0
8300,-1245184,120,-56,-1,-1,0
8333,-851968,120,-56,-1,-1,0
8366,-1179648,120,-56,-1,-1,0
8400,-65536,120,-56,-1,-1,0
8433,-524288,120,-56,-1,-1,0
8466,-1245184,120,-56,-1,-1,0
8500,-1114112,120,-56,-1,-1,0
8533,-393216,120,-56,-1,-1,0
8566,196608,120,-56,-1,-1,0
8600,0,120,-56,-1,-1,0
8633,-65536,120,-56,-1,-1,0
8666,-65536,120,-56,-1,-1,0
8700,-262144,120,-56,-1,-1,0
8733,-131072,120,-56,-1,-1,0
8766,-393216,120,-56,-1,-1,0
8800,-458752,120,-56,-1,-1,0
8833,4128768,120,-56,-1,-1,0
8866,-655360,120,-56,-1,-1,0
8900,-458752,120,-56,-1,-1,0
8933,-131072,120,-56,-1,-1,0
8966,589824,120,-56,-1,-1,0
9000,458752,120,-56,-1,-1,0
9033,0,120,-56,-1,-1,0
9066,65536,120,-56,-1,-1,0
9100,-196608,120,-56,-1,-1,0
9133,-196608,120,-56,-1,-1,0
9166,-524288,120,-56,-1,-1,0
9200,-655360,120,-56,-1,-1,0
9233,5832704,120,-56,-1,-1,0
9266,-655360,120,-56,-1,-1,0
9300,-589824,120,-56,-1,-1,0
9333,-196608,120,-56,-1,-1,0
9366,458752,120,-56,-1,-1,0
9400,524288,120,-56,-1,-1,0
9433,0,120,-56,-1,-1,0
9466,0,120,-56,-1,-1,0
9500,-262144,120,-56,-1,-1,0
9533,-458752,120,-56,-1,-1,0
9566,-655360,120,-56,-1,-1,0
9600,4521984,120,-56,-1,-1,0
9633,-786432,120,-56,-1,-1,0
9666,-589824,120,-56,-1,-1,0
9700,-458752,120,-56,-1,-1,0
9733,196608,120,-56,-1,-1,0
9766,196608,120,-56,-1,-1,0
9800,-327680,120,-56,-1,-1,0
9833,-131072,120,-56,-1,-1,0
9866,-393216,120,-56,-1,-1,0
9900,-262144,120,-56,-1,-1,0
9933,-655360,120,-56,-1,-1,0
9966,1245184,120,-56,-1,-1,0
10000,-786432,120,-56,-1,-1,0
10033,-720896,120,-56,-1,-1,0
10066,-589824,120,-56,-1,-1,0
10100,131072,120,-56,-1,-1,0
10133,524288,120,-56,-1,-1,0
10166,-65536,120,-56,-1,-1,0
10200,-131072,120,-56,-1,-1,0
10233,-65536,120,-56,-1,-1,0
10266,0,120,-56,-1,-1,0
10300,-458752,120,-56,-1,-1,0
10333,-393216,120,-56,-1,-1,0
10366,2752512,120,-56,-1,-1,0
10400,-786432,120,-56,-1,-1,0
10433,-720896,120,-56,-1,-1,0
10466,-327680,120,-56,-1,-1,0
10500,393216,120,-56,-1,-1,0
10533,0,120,-56,-1,-1,0
10566,-524288,120,-56,-1,-1,0
10600,-196608,120,-56,-1,-1,0
10633,-393216,120,-56,-1,-1,0
10666,-458752,120,-56,-1,-1,0
10700,-786432,120,-56,-1,-1,0
10733,65536,120,-56,-1,-1,0
10766,2424832,120,-56,-1,-1,0
10800,-983040,120,-56,-1,-1,0
10833,-983040,120,-56,-1,-1,0
10866,-655360,120,-56,-1,-1,0
10900,65536,120,-56,-1,-1,0
10933,-327680,120,-56,-1,-1,0
10966,-1048576,120,-56,-1,-1,0
11000,-851968,120,-56,-1,-1,0
11033,-1179648,120,-56,-1,-1,0
11066,-1245184,120,-56,-1,-1,0
11100,-1376256,120,-56,-1,-1,0
11133,2818048,120,-56,-1,-1,0
11166,-1572864,120,-56,-1,-1,0
11200,-2031616,120,-56,-1,-1,0
11233,-2031616,120,-56,-1,-1,0
11266,-1638400,120,-56,-1,-1,0
11300,-851968,120,-56,-1,-1,0
11333,-1638400,121,-56,-1,-1,0
11366,-1966080,121,-56,-1,-1,0
11400,-1835008,121,-56,-1,-1,0
11433,-1835008,121,-56,-1,-1,0
11466,-1703936,121,-56,-1,-1,0
11500,-1703936,121,-56,-1,-1,0
11533,6029312,121,-56,-1,-1,0
11566,-1507328,121,-56,-1,-1,0
11600,-1572864,121,-56,-1,-1,0
11633,-1441792,121,-56,-1,-1,0
11666,-917504,121,-56,-1,-1,0
11700,-393216,121,-56,-1,-1,0
11733,-1114112,121,-56,-1,-1,0
11766,-1245184,123,-56,-1,-1,0
11800,-983040,123,-56,-1,-1,0
11833,-851968,123,-56,-1,-1,0
11866,-327680,123,-56,-1,-1,0
11900,-458752,123,-56,-1,-1,0
11933,1769472,123,-56,-1,-1,0
11966,1048576,123,-56,-1,-1,0
12000,327680,123,-56,-1,-1,0
12033,655360,123,-56,-1,-1,0
12066,1048576,123,-56,-1,-1,0
12100,1441792,123,-56,-1,-1,0
12133,1376256,123,-56,-1,-1,0
12166,1245184,123,-56,-1,-1,0
12200,917504,123,-56,-1,-1,0
12233,851968,122,-56,-1,-1,0
12266,917504,122,-56,-1,-1,0
12300,917504,122,-56,-1,-1,0
12333,655360,122,-56,-1,-1,0
12366,1835008,122,-56,-1,-1,0
12400,2818048,122,-56,-1,-1,0
12433,589824,122,-56,-1,-1,0
12466,983040,122,-56,-1,-1,0
12500,2031616,122,-56,-1,-1,0
12533,2555904,122,-56,-1,-1,0
12566,2293760,122,-56,-1,-1,0
12600,2097152,122,-56,-1,-1,0
12633,1507328,122,-56,-1,-1,0
12666,1638400,122,-56,-1,-1,0
12700,589824,122,-56,-1,-1,0
12733,393216,122,-56,-1,-1,0
12766,0,122,-56,-1,-1,0
12800,-327680,122,-56,-1,-1,0
12833,7602176,122,-56,-1,-1,0
12866,-393216,122,-56,-1,-1,0
12900,-851968,122,-56,-1,-1,0
12933,-720896,122,-56,-1,-1,0
12966,-65536,122,-56,-1,-1,0
13000,-196608,122,-56,-1,-1,0
13033,-851968,122,-56,-1,-1,0
13066,-1376256,122,-56,-1,-1,0
13100,-1310720,122,-56,-1,-1,0
13133,-1572864,122,-56,-1,-1,0
13166,-1703936,122,-56,-1,-1,0
13200,-1900544,122,-56,-1,-1,0
13233,-1900544,122,-56,-1,-1,0
13266,-2293760,122,-56,-1,-1,0
13299,5177344,122,-56,-1,-1,0
13333,-2293760,122,-56,-1,-1,0
13366,-2490368,122,-56,-1,-1,0
13400,-2162688,122,-56,-1,-1,0
13433,-1376256,122,-56,-1,-1,0
13466,-1048576,122,-56,-1,-1,0
13500,-1638400,122,-56,-1,-1,0
13533,-1310720,122,-56,-1,-1,0
13566,-1245184,122,-56,-1,-1,0
13600,-1441792,122,-56,-1,-1,0
13633,-1769472,122,-56,-1,-1,0
13666,-1507328,122,-56,-1,-1,0
13700,-1703936,122,-56,-1,-1,0
13733,-1507328,122,-56,-1,-1,0
13766,2621440,122,-56,-1,-1,0
13799,-1441792,122,-56,-1,-1,0
13833,-1310720,122,-56,-1,-1,0
13866,-524288,122,-56,-1,-1,0
13900,196608,122,-56,-1,-1,0
13933,327680,122,-56,-1,-1,0
13966,0,122,-56,-1,-1,0
14000,327680,122,-56,-1,-1,0
14033,196608,122,-56,-1,-1,0
14066,0,122,-56,-1,-1,0
14100,-131072,122,-56,-1,-1,0
14133,65536,122,-56,-1,-1,0
14166,-131072,122,-56,-1,-1,0
14200,-196608,122,-56,-1,-1,0
14233,6488064,122,-56,-1,-1,0
14266,-131072,122,-56,-1,-1,0
14299,-131072,122,-56,-1,-1,0
14333,262144,122,-56,-1,-1,0
14366,1114112,122,-56,-1,-1,0
14400,1310720,122,-56,-1,-1,0
14433,393216,122,-56,-1,-1,0
14466,589824,122,-56,-1,-1,0
14500,524288,122,-56,-1,-1,0
14533,458752,122,-56,-1,-1,0
14566,327680,122,-56,-1,-1,0
14600,196608,122,-56,-1,-1,0
14633,6422528,122,-56,-1,-1,0
14666,0,122,-56,-1,-1,0
14700,-65536,122,-56,-1,-1,0
14733,65536,122,-56,-1,-1,0
14766,917504,122,-56,-1,-1,0
14799,1114112,122,-56,-1,-1,0
14833,131072,122,-56,-1,-1,0
14866,0,122,-56,-1,-1,0
14900,0,122,-56,-1,-1,0
14933,-262144,122,-56,-1,-1,0
14966,-589824,122,-56,-1,-1,0
15000,-589824,122,-56,-1,-1,0
15033,-720896,122,-56,-1,-1,0
15066,-720896,122,-56,-1,-1,0
15100,6946816,122,-56,-1,-1,0
15133,-786432,122,-56,-1,-1,0
15166,-720896,122,-56,-1,-1,0
15200,-524288,122,-56,-1,-1,0
15233,262144,122,-56,-1,-1,0
15266,720896,122,-56,-1,-1,0
15299,131072,122,-56,-1,-1,0
15333,0,122,-56,-1,-1,0
15366,-65536,122,-56,-1,-1,0
15400,-327680,120,-56,-1,-1,0
15433,-720896,120,-56,-1,-1,0
15466,-327680,120,-56,-1,-1,0
15500,-655360,120,-56,-1,-1,0
15533,65536,120,-56,-1,-1,0
15566,1114112,120,-56,-1,-1,0
15600,-589824,120,-56,-1,-1,0
15633,-524288,120,-56,-1,-1,0
15666,0,120,-56,-1,-1,0
15700,851968,120,-56,-1,-1,0
15733,458752,120,-56,-1,-1,0
15766,-131072,120,-56,-1,-1,0
15799,0,120,-56,-1,-1,0
15833,-262144,119,-56,-1,-1,0
15866,-524288,119,-56,-1,-1,0
15900,-458752,119,-56,-1,-1,0
15933,-786432,119,-56,-1,-1,0
15966,-655360,119,-56,-1,-1,0
16000,7208960,119,-56,-1,-1,0
16033,-720896,119,-56,-1,-1,0
16066,-720896,119,-56,-1,-1,0
16100,-327680,119,-56,-1,-1,0
16133,458752,119,-56,-1,-1,0
16166,655360,119,-56,-1,-1,0
16200,0,119,-56,-1,-1,0
16233,131072,119,-56,-1,-1,0
16266,-131072,119,-56,-1,-1,0
16300,-458752,119,-56,-1,-1,0
16333,-655360,119,-56,-1,-1,0
16366,-720896,119,-56,-1,-1,0
16400,-720896,119,-56,-1,-1,0
16433,3538944,119,-56,-1,-1,0
16466,-1179648,119,-56,-1,-1,0
16500,-1048576,119,-56,-1,-1,0
16533,-720896,119,-56,-1,-1,0
16566,-131072,119,-56,-1,-1,0
16600,131072,119,-56,-1,-1,0
16633,-393216,119,-56,-1,-1,0
16666,-524288,119,-56,-1,-1,0
16700,-589824,119,-56,-1,-1,0
16733,-786432,119,-56,-1,-1,0
16766,-1114112,119,-56,-1,-1,0
16800,-1245184,119,-56,-1,-1,0
16833,4849664,119,-56,-1,-1,0
16866,-1376256,119,-56,-1,-1,0
16900,-1310720,119,-56,-1,-1,0
16933,-983040,119,-56,-1,-1,0
16966,-196608,119,-56,-1,-1,0
17000,0,119,-56,-1,-1,0
17033,-786432,119,-56,-1,-1,0
17066,-589824,119,-56,-1,-1,0
17100,-786432,119,-56,-1,-1,0
17133,-851968,117,-56,-1,-1,0
17166,-851968,117,-56,-1,-1,0
17200,-655360,117,-56,-1,-1,0
17233,-786432,117,-56,-1,-1,0
17266,-720896,117,-56,-1,-1,0
17300,2752512,117,-56,-1,-1,0
17333,-917504,117,-56,-1,-1,0
17366,-851968,117,-56,-1,-1,0
17400,-458752,117,-56,-1,-1,0
17433,589824,117,-56,-1,-1,0
17466,524288,117,-56,-1,-1,0
17500,-65536,117,-56,-1,-1,0
17533,65536,115,-56,-1,-1,0
17566,-131072,115,-56,-1,-1,0
17600,-458752,115,-56,-1,-1,0
17633,-262144,115,-56,-1,-1,0
17666,-524288,115,-56,-1,-1,0
17700,-720896,115,-56,-1,-1,0
17733,6750208,115,-56,-1,-1,0
17766,-917504,115,-56,-1,-1,0
17800,-983040,115,-56,-1,-1,0
17833,-589824,115,-56,-1,-1,0
17866,262144,115,-56,-1,-1,0
17900,458752,115,-56,-1,-1,0
17933,-393216,115,-56,-1,-1,0
17966,-458752,115,-56,-1,-1,0
18000,-393216,115,-56,-1,-1,0
18033,-524288,115,-56,-1,-1,0
18066,-720896,115,-56,-1,-1,0
18100,-786432,115,-56,-1,-1,0
18133,7667712,115,-56,-1,-1,0
18166,-786432,115,-56,-1,-1,0
18200,-786432,115,-56,-1,-1,0
18233,-393216,115,-56,-1,-1,0
18266,655360,115,-56,-1,-1,0
18300,786432,115,-56,-1,-1,0
18333,-196608,115,-56,-1,-1,0
18366,-327680,115,-56,-1,-1,0
18400,65536,115,-56,-1,-1,0
18433,-262144,115,-56,-1,-1,0
18466,-196608,115,-56,-1,-1,0
18500,-327680,115,-56,-1,-1,0
18533,7602176,115,-56,-1,-1,0
18566,-524288,115,-56,-1,-1,0
18600,-393216,115,-56,-1,-1,0
18633,-327680,115,-56,-1,-1,0
18666,524288,115,-56,-1,-1,0
18700,983040,115,-56,-1,-1,0
18733,0,115,-56,-1,-1,0
18766,-131072,115,-56,-1,-1,0
18800,0,115,-56,-1,-1,0
18833,-131072,114,-56,-1,-1,0
18866,-262144,114,-56,-1,-1,0
18900,0,114,-56,-1,-1,0
18933,-393216,114,-56,-1,-1,0
18966,-131072,114,-56,-1,-1,0
19000,5373952,114,-56,-1,-1,0
19033,-327680,114,-56,-1,-1,0
19066,-393216,114,-56,-1,-1,0
19100,-65536,114,-56,-1,-1,0
19133,1048576,114,-56,-1,-1,0
19166,589824,114,-56,-1,-1,0
19200,-393216,114,-56,-1,-1,0
19233,-524288,114,-56,-1,-1,0
19266,-196608,114,-56,-1,-1,0
19300,-458752,111,-56,-1,-1,0
19333,-589824,111,-56,-1,-1,0
19366,-851968,111,-56,-1,-1,0
19400,-983040,111,-56,-1,-1,0
19433,8912896,111,-56,-1,-1,0
19466,-1245184,111,-56,-1,-1,0
19500,-1179648,111,-56,-1,-1,0
19533,-917504,111,-56,-1,-1,0
19566,131072,111,-56,-1,-1,0
19600,655360,111,-56,-1,-1,0
19633,-458752,111,-56,-1,-1,0
19666,-786432,111,-56,-1,-1,0
19700,-524288,111,-56,-1,-1,0
19733,-524288,111,-56,-1,-1,0
19766,-786432,111,-56,-1,-1,0
19800,-589824,111,-56,-1,-1,0
19833,-851968,111,-56,-1,-1,0
19866,-851968,111,-56,-1,-1,0
19900,7995392,111,-56,-1,-1,0
19933,-851968,111,-56,-1,-1,0
19966,-720896,111,-56,-1,-1,0
20000,-655360,111,-56,-1,-1,0
20033,393216,111,-56,-1,-1,0
20066,1114112,111,-56,-1,-1,0
20100,-131072,111,-56,-1,-1,0
20133,-720896,111,-56,-1,-1,0
20166,-393216,111,-56,-1,-1,0
20200,-262144,111,-56,-1,-1,0
20233,-524288,111,-56,-1,-1,0
20266,-786432,111,-56,-1,-1,0
20300,-786432,111,-56,-1,-1,0
20333,-524288,111,-56,-1,-1,0
20366,-851968,111,-56,-1,-1,0
20400,-917504,111,-56,-1,-1,0
20433,11665408,111,-56,-1,-1,0
20466,-917504,111,-56,-1,-1,0
20500,-851968,111,-56,-1,-1,0
20533,-458752,111,-56,-1,-1,0
20566,589824,111,-56,-1,-1,0
20600,1179648,111,-56,-1,-1,0
20633,-262144,111,-56,-1,-1,0
20666,-589824,111,-56,-1,-1,0
20700,-262144,111,-56,-1,-1,0
20733,-65536,111,-56,-1,-1,0
20766,-458752,111,-56,-1,-1,0
20800,-589824,111,-56,-1,-1,0
20833,-655360,111,-56,-1,-1,0
20866,-589824,111,-56,-1,-1,0
20900,-851968,111,-56,-1,-1,0
20933,-524288,111,-56,-1,-1,0
20966,-720896,111,-56,-1,-1,0
21000,786432,111,-56,-1,-1,0
21033,2752512,111,-56,-1,-1,0
21066,-655360,111,-56,-1,-1,0
21100,-720896,111,-56,-1,-1,0
21133,65536,111,-56,-1,-1,0
21166,1310720,111,-56,-1,-1,0
21200,851968,111,-56,-1,-1,0
21233,-196608,111,-56,-1,-1,0
21266,-262144,111,-56,-1,-1,0
21300,-131072,111,-56,-1,-1,0
21333,-131072,111,-56,-1,-1,0
21366,-327680,111,-56,-1,-1,0
21400,-393216,111,-56,-1,-1,0
21433,-524288,111,-56,-1,-1,0
21466,-589824,111,-56,-1,-1,0
21500,-786432,111,-56,-1,-1,0
21533,-196608,111,-56,-1,-1,0
21566,-589824,111,-56,-1,-1,0
21600,-262144,111,-56,-1,-1,0
21633,6553600,111,-56,-1,-1,0
21666,-655360,111,-56,-1,-1,0
21700,-524288,111,-56,-1,-1,0
21733,-65536,111,-56,-1,-1,0
21766,1245184,111,-56,-1,-1,0
21800,1245184,111,-56,-1,-1,0
21833,-196608,111,-56,-1,-1,0
21866,-589824,111,-56,-1,-1,0
21900,-131072,111,-56,-1,-1,0
21933,-262144,111,-56,-1,-1,0
21966,-524288,111,-56,-1,-1,0
22000,-917504,111,-56,-1,-1,0
22033,-786432,111,-56,-1,-1,0
22066,-917504,111,-56,-1,-1,0
22100,-851968,111,-56,-1,-1,0
22133,-589824,111,-56,-1,-1,0
22166,-655360,111,-56,-1,-1,0
22200,-655360,111,-56,-1,-1,0
22233,6815744,111,-56,-1,-1,0
22266,-917504,111,-56,-1,-1,0
22300,-720896,111,-56,-1,-1,0
22333,-393216,111,-56,-1,-1,0
22366,1376256,111,-56,-1,-1,0
22400,1441792,111,-56,-1,-1,0
22433,-131072,111,-56,-1,-1,0
22466,-589824,111,-56,-1,-1,0
22500,-262144,111,-56,-1,-1,0
22533,-327680,111,-56,-1,-1,0
22566,-458752,111,-56,-1,-1,0
22600,-720896,111,-56,-1,-1,0
22633,-720896,111,-56,-1,-1,0
22666,-720896,111,-56,-1,-1,0
22700,-983040,111,-56,-1,-1,0
22733,-524288,111,-56,-1,-1,0
22766,-720896,111,-56,-1,-1,0
22800,-65536,110,-56,-1,-1,0
22833,2752512,110,-56,-1,-1,0
22866,-851968,110,-56,-1,-1,0
22900,-917504,110,-56,-1,-1,0
22933,-262144,110,-56,-1,-1,0
22966,1114112,110,-56,-1,-1,0
23000,917504,110,-56,-1,-1,0
23033,-196608,110,-56,-1,-1,0
23066,-458752,110,-56,-1,-1,0
23100,-262144,110,-56,-1,-1,0
23133,-393216,110,-56,-1,-1,0
23166,-589824,110,-56,-1,-1,0
23200,-786432,110,-56,-1,-1,0
23233,-917504,110,-56,-1,-1,0
23266,-1048576,110,-56,-1,-1,0
23300,-786432,110,-56,-1,-1,0
23333,-1245184,107,-56,-1,-1,0
23366,-1179648,107,-56,-1,-1,0
23400,8781824,107,-56,-1,-1,0
23433,-1179648,107,-56,-1,-1,0
23466,-1245184,107,-56,-1,-1,0
23500,-983040,107,-56,-1,-1,0
23533,196608,107,-56,-1,-1,0
23566,917504,107,-56,-1,-1,0
23600,-524288,107,-56,-1,-1,0
23633,-1048576,107,-56,-1,-1,0
23666,-851968,107,-56,-1,-1,0
23700,-786432,107,-56,-1,-1,0
23733,-1114112,107,-56,-1,-1,0
23766,-1114112,107,-56,-1,-1,0
23800,-1245184,107,-56,-1,-1,0
23833,-1310720,107,-56,-1,-1,0
23866,-1114112,103,-56,-1,-1,0
23900,-1114112,103,-56,-1,-1,0
23933,-524288,103,-56,-1,-1,0
23966,1769472,103,-56,-1,-1,0
24000,-1114112,103,-56,-1,-1,0
24033,-1048576,103,-56,-1,-1,0
24066,-524288,103,-56,-1,-1,0
24100,917504,103,-56,-1,-1,0
24133,720896,103,-56,-1,-1,0
24166,-393216,103,-56,-1,-1,0
24200,-262144,103,-56,-1,-1,0
24233,-196608,103,-56,-1,-1,0
24266,-262144,103,-56,-1,-1,0
24300,-589824,103,-56,-1,-1,0
24333,-589824,101,-56,-1,-1,0
24366,-589824,101,-56,-1,-1,0
24400,-655360,101,-56,-1,-1,0
24433,-589824,101,-56,-1,-1,0
24466,5898240,101,-56,-1,-1,0
24500,-524288,101,-56,-1,-1,0
24533,-524288,101,-56,-1,-1,0
24566,-393216,101,-56,-1,-1,0
24600,262144,101,-56,-1,-1,0
24633,1441792,101,-56,-1,-1,0
24666,393216,101,-56,-1,-1,0
24700,-131072,101,-56,-1,-1,0
24733,-65536,101,-56,-1,-1,0
24766,65536,101,-56,-1,-1,0
24800,-196608,100,-56,-1,-1,0
24833,-262144,100,-56,-1,-1,0
24866,-327680,100,-56,-1,-1,0
24900,-524288,100,-56,-1,-1,0
24933,-524288,100,-56,-1,-1,0
24966,6160384,100,-56,-1,-1,0
25000,-655360,100,-56,-1,-1,0
25033,-851968,100,-56,-1,-1,0
25066,-458752,100,-56,-1,-1,0
25100,262144,100,-56,-1,-1,0
25133,655360,100,-56,-1,-1,0
25166,-458752,100,-56,-1,-1,0
25200,-720896,100,-56,-1,-1,0
25233,-458752,100,-56,-1,-1,0
25266,-458752,99,-56,-1,-1,0
25300,-1114112,99,-56,-1,-1,0
25333,-655360,99,-56,-1,-1,0
25366,-851968,99,-56,-1,-1,0
25400,-917504,99,-56,-1,-1,0
25433,6946816,99,-56,-1,-1,0
25466,-720896,99,-56,-1,-1,0
25500,-720896,99,-56,-1,-1,0
25533,-327680,99,-56,-1,-1,0
25566,589824,99,-56,-1,-1,0
25600,851968,99,-56,-1,-1,0
25633,-262144,99,-56,-1,-1,0
25666,-655360,99,-56,-1,-1,0
25700,-393216,99,-56,-1,-1,0
25733,-655360,99,-56,-1,-1,0
25766,-851968,99,-56,-1,-1,0
25800,-786432,99,-56,-1,-1,0
25833,-720896,99,-56,-1,-1,0
25866,1245184,99,-56,-1,-1,0
25900,-851968,99,-56,-1,-1,0
25933,-1179648,99,-56,-1,-1,0
25966,-917504,99,-56,-1,-1,0
26000,-196608,99,-56,-1,-1,0
26033,720896,99,-56,-1,-1,0
26066,262144,99,-56,-1,-1,0
26099,-458752,99,-56,-1,-1,0
26133,0,99,-56,-1,-1,0
26166,-262144,99,-56,-1,-1,0
26200,-393216,99,-56,-1,-1,0
26233,-720896,99,-56,-1,-1,0
26266,-720896,99,-56,-1,-1,0
26300,6291456,99,-56,-1,-1,0
26333,-917504,99,-56,-1,-1,0
26366,-720896,99,-56,-1,-1,0
26400,-262144,99,-56,-1,-1,0
26433,917504,99,-56,-1,-1,0
26466,983040,99,-56,-1,-1,0
26500,-131072,99,-56,-1,-1,0
26533,-196608,99,-56,-1,-1,0
26566,131072,99,-56,-1,-1,0
26599,0,99,-56,-1,-1,0
26633,-262144,99,-56,-1,-1,0
26666,-327680,99,-56,-1,-1,0
26700,6553600,99,-56,-1,-1,0
26733,-458752,99,-56,-1,-1,0
26766,-458752,99,-56,-1,-1,0
26800,-131072,99,-56,-1,-1,0
26833,786432,99,-56,-1,-1,0
26866,1376256,99,-56,-1,-1,0
26900,131072,99,-56,-1,-1,0
26933,-196608,99,-56,-1,-1,0
26966,65536,99,-56,-1,-1,0
27000,0,99,-56,-1,-1,0
27033,-327680,99,-56,-1,-1,0
27066,-196608,99,-56,-1,-1,0
27099,-393216,99,-56,-1,-1,0
27133,1507328,99,-56,-1,-1,0
27166,393216,99,-56,-1,-1,0
27200,-458752,99,-56,-1,-1,0
27233,-393216,99,-56,-1,-1,0
27266,65536,99,-56,-1,-1,0
27300,1245184,99,-56,-1,-1,0
27333,655360,99,-56,-1,-1,0
27366,-131072,99,-56,-1,-1,0
27400,-131072,99,-56,-1,-1,0
27433,-65536,99,-56,-1,-1,0
27466,-262144,99,-56,-1,-1,0
27500,-196608,99,-56,-1,-1,0
27533,-393216,99,-56,-1,-1,0
27566,1245184,99,-56,-1,-1,0
27599,458752,99,-56,-1,-1,0
27633,-720896,99,-56,-1,-1,0
27666,-655360,99,-56,-1,-1,0
27700,0,99,-56,-1,-1,0
27733,917504,99,-56,-1,-1,0
27766,262144,99,-56,-1,-1,0
27800,-589824,99,-56,-1,-1,0
27833,-720896,99,-56,-1,-1,0
27866,-393216,99,-56,-1,-1,0
27900,-589824,99,-56,-1,-1,0
27933,-655360,99,-56,-1,-1,0
27966,-1114112,99,-56,-1,-1,0
28000,-1310720,99,-56,-1,-1,0
28033,9371648,100,-56,-1,-1,0
28066,-1310720,100,-56,-1,-1,0
28099,-1376256,100,-56,-1,-1,0
28133,-1048576,100,-56,-1,-1,0
28166,0,100,-56,-1,-1,0
28200,655360,100,-56,-1,-1,0
28233,-589824,100,-56,-1,-1,0
28266,-917504,100,-56,-1,-1,0
28300,-851968,100,-56,-1,-1,0
28333,-720896,100,-56,-1,-1,0
28366,-917504,100,-56,-1,-1,0
28400,-1048576,100,-56,-1,-1,0
28433,-1179648,100,-56,-1,-1,0
28466,-1048576,100,-56,-1,-1,0
28500,-1114112,100,-56,-1,-1,0
28533,-851968,100,-56,-1,-1,0
28566,-1114112,100,-56,-1,-1,0
28599,-1179648,100,-56,-1,-1,0
28633,8912896,100,-56,-1,-1,0
28666,-1048576,100,-56,-1,-1,0
28700,-1114112,100,-56,-1,-1,0
28733,-786432,100,-56,-1,-1,0
28766,196608,98,-56,-1,-1,0
28800,1114112,98,-56,-1,-1,0
28833,0,98,-56,-1,-1,0
28866,-393216,98,-56,-1,-1,0
28900,-262144,98,-56,-1,-1,0
28933,-131072,98,-56,-1,-1,0
28966,-131072,98,-56,-1,-1,0
29000,-196608,98,-56,-1,-1,0
29033,-327680,98,-56,-1,-1,0
29066,-262144,98,-56,-1,-1,0
29099,-262144,98,-56,-1,-1,0
29133,-327680,98,-56,-1,-1,0
29166,-393216,98,-56,-1,-1,0
29200,-327680,98,-56,-1,-1,0
29233,-327680,98,-56,-1,-1,0
29266,-196608,98,-56,-1,-1,0
29300,-131072,98,-56,-1,-1,0
29333,-131072,98,-56,-1,-1,0
29366,5636096,98,-56,-1,-1,0
29400,-327680,98,-56,-1,-1,0
29433,-262144,98,-56,-1,-1,0
29466,-65536,98,-56,-1,-1,0
29500,524288,98,-56,-1,-1,0
29533,1703936,98,-56,-1,-1,0
29566,1179648,98,-56,-1,-1,0
29599,327680,98,-56,-1,-1,0
29633,131072,98,-56,-1,-1,0
29666,327680,98,-56,-1,-1,0
29700,262144,98,-56,-1,-1,0
29733,0,98,-56,-1,-1,0
29766,-65536,98,-56,-1,-1,0
29800,-131072,98,-56,-1,-1,0
29833,-196608,98,-56,-1,-1,0
29866,-262144,98,-56,-1,-1,0
29900,-196608,98,-56,-1,-1,0
29933,-327680,98,-56,-1,-1,0
29966,-393216,98,-56,-1,-1,0
30000,-393216,98,-56,-1,-1,0
30033,-327680,98,-56,-1,-1,0
30066,-524288,98,-56,-1,-1,0
30099,2555904,98,-56,-1,-1,0
30133,-524288,98,-56,-1,-1,0
30166,-786432,98,-56,-1,-1,0
30200,-720896,98,-56,-1,-1,0
30233,-196608,98,-56,-1,-1,0
30266,1114112,98,-56,-1,-1,0
30300,655360,98,-56,-1,-1,0
30333,-655360,98,-56,-1,-1,0
30366,-983040,98,-56,-1,-1,0
30400,-851968,98,-56,-1,-1,0
30433,-786432,98,-56,-1,-1,0
30466,-1114112,98,-56,-1,-1,0
30500,-1376256,98,-56,-1,-1,0
30533,-1441792,98,-56,-1,-1,0
30566,-1507328,98,-56,-1,-1,0
30599,-1441792,98,-56,-1,-1,0
30633,-1572864,98,-56,-1,-1,0
30666,-1310720,98,-56,-1,-1,0
30700,-1507328,98,-56,-1,-1,0
30733,-262144,98,-56,-1,-1,0
30766,1179648,98,-56,-1,-1,0
30800,-1441792,98,-56,-1,-1,0
30833,-1245184,98,-56,-1,-1,0
30866,-720896,98,-56,-1,-1,0
30900,786432,98,-56,-1,-1,0
30933,851968,98,-56,-1,-1,0
30966,-327680,98,-56,-1,-1,0
31000,-589824,98,-56,-1,-1,0
31033,-327680,98,-56,-1,-1,0
31066,-196608,98,-56,-1,-1,0
31099,-524288,98,-56,-1,-1,0
31133,-720896,98,-56,-1,-1,0
31166,-786432,98,-56,-1,-1,0
31200,-720896,98,-56,-1,-1,0
31233,-786432,98,-56,-1,-1,0
31266,-458752,98,-56,-1,-1,0
31300,-589824,98,-56,-1,-1,0
31333,-655360,98,-56,-1,-1,0
31366,8060928,98,-56,-1,-1,0
31400,-589824,98,-56,-1,-1,0
31433,-524288,98,-56,-1,-1,0
31466,-393216,98,-56,-1,-1,0
31500,589824,98,-56,-1,-1,0
31533,1638400,98,-56,-1,-1,0
31566,393216,98,-56,-1,-1,0
31599,-65536,98,-56,-1,-1,0
31633,-65536,98,-56,-1,-1,0
31666,0,98,-56,-1,-1,0
31700,0,98,-56,-1,-1,0
31733,-262144,98,-56,-1,-1,0
31766,-131072,98,-56,-1,-1,0
31800,-327680,98,-56,-1,-1,0
31833,-327680,98,-56,-1,-1,0
31866,-393216,98,-56,-1,-1,0
31900,-131072,98,-56,-1,-1,0
31933,-393216,95,-56,-1,-1,0
31966,-458752,95,-56,-1,-1,0
32000,8060928,95,-56,-1,-1,0
32033,-524288,95,-56,-1,-1,0
32066,-524288,95,-56,-1,-1,0
32100,-327680,95,-56,-1,-1,0
32133,458752,95,-56,-1,-1,0
32166,1638400,95,-56,-1,-1,0
32200,458752,95,-56,-1,-1,0
32233,-262144,95,-56,-1,-1,0
32266,-327680,95,-56,-1,-1,0
32299,-131072,95,-56,-1,-1,0
32333,-262144,95,-56,-1,-1,0
32366,-393216,95,-56,-1,-1,0
32400,-589824,95,-56,-1,-1,0
32433,-524288,95,-56,-1,-1,0
32466,-196608,94,-56,-1,-1,0
32500,-393216,94,-56,-1,-1,0
32533,0,94,-56,-1,-1,0
32566,3473408,94,-56,-1,-1,0
32600,-262144,94,-56,-1,-1,0
32633,-131072,94,-56,-1,-1,0
32666,131072,94,-56,-1,-1,0
32700,1441792,94,-56,-1,-1,0
32733,1572864,94,-56,-1,-1,0
32766,262144,94,-56,-1,-1,0
32800,0,94,-56,-1,-1,0
32833,131072,94,-56,-1,-1,0
32866,196608,94,-56,-1,-1,0
32900,0,94,-56,-1,-1,0
32933,-131072,94,-56,-1,-1,0
32966,-262144,94,-56,-1,-1,0
33000,0,93,-56,-1,-1,0
33033,-327680,93,-56,-1,-1,0
33066,1310720,93,-56,-1,-1,0
33100,786432,93,-56,-1,-1,0
33133,-393216,93,-56,-1,-1,0
33166,-458752,93,-56,-1,-1,0
33200,0,93,-56,-1,-1,0
33233,1441792,93,-56,-1,-1,0
33266,1179648,93,-56,-1,-1,0
33300,-65536,93,-56,-1,-1,0
33333,-196608,93,-56,-1,-1,0
33366,0,93,-56,-1,-1,0
33400,131072,93,-56,-1,-1,0
33433,-65536,93,-56,-1,-1,0
33466,-262144,93,-56,-1,-1,0
33500,-327680,93,-56,-1,-1,0
33533,-327680,92,-56,-1,-1,0
33566,-589824,92,-56,-1,-1,0
33600,3014656,92,-56,-1,-1,0
33633,-589824,92,-56,-1,-1,0
33666,-786432,92,-56,-1,-1,0
33700,-786432,92,-56,-1,-1,0
33733,-262144,92,-56,-1,-1,0
33766,1048576,92,-56,-1,-1,0
33800,524288,92,-56,-1,-1,0
33833,-393216,92,-56,-1,-1,0
33866,-524288,92,-56,-1,-1,0
33900,-393216,92,-56,-1,-1,0
33933,-589824,92,-56,-1,-1,0
33966,-720896,92,-56,-1,-1,0
34000,-720896,92,-56,-1,-1,0
34033,-327680,92,-56,-1,-1,0
34066,-524288,89,-56,-1,-1,0
34100,-458752,89,-56,-1,-1,0
34133,6422528,89,-56,-1,-1,0
34166,-589824,89,-56,-1,-1,0
34200,-655360,89,-56,-1,-1,0
34233,-720896,89,-56,-1,-1,0
34266,65536,89,-56,-1,-1,0
34300,1179648,89,-56,-1,-1,0
34333,131072,89,-56,-1,-1,0
34366,-589824,89,-56,-1,-1,0
34400,-393216,89,-56,-1,-1,0
34433,-393216,89,-56,-1,-1,0
34466,-458752,89,-56,-1,-1,0
34500,-851968,89,-56,-1,-1,0
34533,-1048576,89,-56,-1,-1,0
34566,-786432,89,-56,-1,-1,0
34600,-1048576,89,-56,-1,-1,0
34633,-1048576,89,-56,-1,-1,0
34666,7995392,89,-56,-1,-1,0
34700,-1048576,89,-56,-1,-1,0
34733,-1048576,89,-56,-1,-1,0
34766,-917504,89,-56,-1,-1,0
34800,0,89,-56,-1,-1,0
34833,983040,89,-56,-1,-1,0
34866,-196608,89,-56,-1,-1,0
34900,-786432,89,-56,-1,-1,0
34933,-720896,89,-56,-1,-1,0
34966,-589824,89,-56,-1,-1,0
35000,-851968,89,-56,-1,-1,0
35033,-1114112,89,-56,-1,-1,0
35066,-1310720,89,-56,-1,-1,0
35100,-983040,89,-56,-1,-1,0
35133,-1245184,89,-56,-1,-1,0
35166,-1310720,89,-56,-1,-1,0
35200,6422528,89,-56,-1,-1,0
35233,-1179648,89,-56,-1,-1,0
35266,-1179648,89,-56,-1,-1,0
35300,-786432,89,-56,-1,-1,0
35333,0,89,-56,-1,-1,0
35366,1179648,89,-56,-1,-1,0
35400,196608,89,-56,-1,-1,0
35433,-327680,89,-56,-1,-1,0
35466,-327680,89,-56,-1,-1,0
35500,-65536,89,-56,-1,-1,0
35533,-262144,89,-56,-1,-1,0
35566,-393216,89,-56,-1,-1,0
35600,-458752,89,-56,-1,-1,0
35633,-524288,89,-56,-1,-1,0
35666,-196608,89,-56,-1,-1,0
35700,-524288,88,-56,-1,-1,0
35733,-589824,88,-56,-1,-1,0
35766,6356992,88,-56,-1,-1,0
35800,-655360,88,-56,-1,-1,0
35833,-524288,88,-56,-1,-1,0
35866,-262144,88,-56,-1,-1,0
35900,851968,88,-56,-1,-1,0
35933,1507328,88,-56,-1,-1,0
35966,262144,88,-56,-1,-1,0
36000,0,88,-56,-1,-1,0
36033,196608,88,-56,-1,-1,0
36066,0,88,-56,-1,-1,0
36100,-131072,88,-56,-1,-1,0
36133,-262144,88,-56,-1,-1,0
36166,-262144,88,-56,-1,-1,0
36200,-393216,88,-56,-1,-1,0
36233,-196608,87,-56,-1,-1,0
36266,-393216,87,-56,-1,-1,0
36300,327680,87,-56,-1,-1,0
36333,1507328,87,-56,-1,-1,0
36366,-393216,87,-56,-1,-1,0
36400,-262144,87,-56,-1,-1,0
36433,0,87,-56,-1,-1,0
36466,1376256,87,-56,-1,-1,0
36500,1114112,87,-56,-1,-1,0
36533,65536,87,-56,-1,-1,0
36566,-262144,87,-56,-1,-1,0
36600,0,87,-56,-1,-1,0
36633,-196608,87,-56,-1,-1,0
36666,-458752,87,-56,-1,-1,0
36700,-589824,87,-56,-1,-1,0
36733,-524288,87,-56,-1,-1,0
36766,-720896,89,-56,-1,-1,0
36800,-786432,89,-56,-1,-1,0
36833,5636096,89,-56,-1,-1,0
36866,-983040,89,-56,-1,-1,0
36900,-851968,89,-56,-1,-1,0
36933,-786432,89,-56,-1,-1,0
36966,0,89,-56,-1,-1,0
37000,1179648,89,-56,-1,-1,0
37033,65536,89,-56,-1,-1,0
37066,-655360,89,-56,-1,-1,0
37100,-655360,89,-56,-1,-1,0
37133,-393216,89,-56,-1,-1,0
37166,-655360,89,-56,-1,-1,0
37200,-851968,89,-56,-1,-1,0
37233,-983040,89,-56,-1,-1,0
37266,-720896,92,-56,-1,-1,0
37300,-1048576,92,-56,-1,-1,0
37333,-1245184,92,-56,-1,-1,0
37366,8257536,92,-56,-1,-1,0
37400,-983040,92,-56,-1,-1,0
37433,-1048576,92,-56,-1,-1,0
37466,-786432,92,-56,-1,-1,0
37500,131072,92,-56,-1,-1,0
37533,1048576,92,-56,-1,-1,0
37566,-131072,92,-56,-1,-1,0
37600,-786432,92,-56,-1,-1,0
37633,-589824,92,-56,-1,-1,0
37666,-524288,92,-56,-1,-1,0
37700,-786432,92,-56,-1,-1,0
37733,-1114112,92,-56,-1,-1,0
37766,-983040,92,-56,-1,-1,0
37800,-1245184,92,-56,-1,-1,0
37833,-1245184,92,-56,-1,-1,0
37866,7208960,92,-56,-1,-1,0
37900,-1441792,92,-56,-1,-1,0
37933,-1441792,92,-56,-1,-1,0
37966,-1179648,92,-56,-1,-1,0
38000,-458752,92,-56,-1,-1,0
38033,327680,92,-56,-1,-1,0
38066,-524288,92,-56,-1,-1,0
38100,-1179648,92,-56,-1,-1,0
38133,-1048576,92,-56,-1,-1,0
38166,-983040,92,-56,-1,-1,0
38200,-1114112,92,-56,-1,-1,0
38233,-1441792,92,-56,-1,-1,0
38266,-1179648,93,-56,-1,-1,0
38300,-1572864,93,-56,-1,-1,0
38333,-1572864,93,-56,-1,-1,0
38366,6946816,93,-56,-1,-1,0
38400,-1572864,93,-56,-1,-1,0
38433,-1507328,93,-56,-1,-1,0
38466,-1179648,93,-56,-1,-1,0
38500,-65536,93,-56,-1,-1,0
38533,851968,93,-56,-1,-1,0
38566,327680,93,-56,-1,-1,0
38600,-393216,93,-56,-1,-1,0
38633,0,93,-56,-1,-1,0
38666,65536,93,-56,-1,-1,0
38700,-65536,93,-56,-1,-1,0
38733,-196608,93,-56,-1,-1,0
38766,262144,93,-56,-1,-1,0
38800,-327680,93,-56,-1,-1,0
38833,65536,93,-56,-1,-1,0
38866,9830400,93,-56,-1,-1,0
38900,-65536,93,-56,-1,-1,0
38933,0,93,-56,-1,-1,0
38966,393216,93,-56,-1,-1,0
39000,1441792,93,-56,-1,-1,0
39033,2293760,93,-56,-1,-1,0
39066,1048576,93,-56,-1,-1,0
39100,851968,93,-56,-1,-1,0
39133,655360,93,-56,-1,-1,0
39166,655360,93,-56,-1,-1,0
39200,524288,93,-56,-1,-1,0
39233,262144,93,-56,-1,-1,0
39266,0,94,-56,-1,-1,0
39300,131072,94,-56,-1,-1,0
39333,-131072,94,-56,-1,-1,0
39366,917504,94,-56,-1,-1,0
39400,1114112,94,-56,-1,-1,0
39433,-655360,94,-56,-1,-1,0
39466,-589824,94,-56,-1,-1,0
39500,-65536,94,-56,-1,-1,0
39533,917504,94,-56,-1,-1,0
39566,589824,94,-56,-1,-1,0
39600,-327680,94,-56,-1,-1,0
39633,-589824,94,-56,-1,-1,0
39666,-327680,94,-56,-1,-1,0
39700,-393216,94,-56,-1,-1,0
39733,-524288,94,-56,-1,-1,0
39766,-589824,95,-56,-1,-1,0
39800,-524288,95,-56,-1,-1,0
39833,-524288,95,-56,-1,-1,0
39866,3473408,95,-56,-1,-1,0
39900,-655360,95,-56,-1,-1,0
39933,-524288,95,-56,-1,-1,0
39966,-393216,95,-56,-1,-1,0
40000,131072,95,-56,-1,-1,0
40033,1310720,95,-56,-1,-1,0
40066,524288,95,-56,-1,-1,0
40100,-196608,95,-56,-1,-1,0
40133,-65536,95,-56,-1,-1,0
40166,0,95,-56,-1,-1,0
40200,-262144,95,-56,-1,-1,0
40233,-589824,95,-56,-1,-1,0
40266,-262144,95,-56,-1,-1,0
40300,-720896,95,-56,-1,-1,0
40333,-851968,95,-56,-1,-1,0
40366,6684672,95,-56,-1,-1,0
40400,-1114112,95,-56,-1,-1,0
40433,-1245184,95,-56,-1,-1,0
40466,-1048576,95,-56,-1,-1,0
40500,-262144,95,-56,-1,-1,0
40533,524288,95,-56,-1,-1,0
40566,-720896,95,-56,-1,-1,0
40600,-1441792,95,-56,-1,-1,0
40633,-1441792,95,-56,-1,-1,0
40666,-1179648,95,-56,-1,-1,0
40700,-1638400,95,-56,-1,-1,0
40733,-1507328,96,-56,-1,-1,0
40766,-1835008,96,-56,-1,-1,0
40800,-589824,96,-56,-1,-1,0
40833,458752,96,-56,-1,-1,0
40866,-1703936,96,-56,-1,-1,0
40900,-1703936,96,-56,-1,-1,0
40933,-1048576,96,-56,-1,-1,0
40966,393216,96,-56,-1,-1,0
41000,65536,96,-56,-1,-1,0
41033,-786432,96,-56,-1,-1,0
41066,-851968,96,-56,-1,-1,0
41100,-458752,96,-56,-1,-1,0
41133,-327680,96,-56,-1,-1,0
41166,-262144,96,-56,-1,-1,0
41200,-327680,96,-56,-1,-1,0
41233,-65536,96,-56,-1,-1,0
41266,-327680,96,-56,-1,-1,0
41300,-196608,96,-56,-1,-1,0
41333,10878976,96,-56,-1,-1,0
41366,-262144,96,-56,-1,-1,0
41400,-196608,96,-56,-1,-1,0
41433,-131072,96,-56,-1,-1,0
41466,720896,96,-56,-1,-1,0
41500,1900544,96,-56,-1,-1,0
41533,655360,96,-56,-1,-1,0
41566,-65536,96,-56,-1,-1,0
41600,65536,96,-56,-1,-1,0
41633,262144,96,-56,-1,-1,0
41666,65536,96,-56,-1,-1,0
41700,-131072,96,-56,-1,-1,0
41733,-65536,96,-56,-1,-1,0
41766,-393216,96,-56,-1,-1,0
41800,-524288,97,-56,-1,-1,0
41833,10027008,97,-56,-1,-1,0
41866,-458752,97,-56,-1,-1,0
41900,-655360,97,-56,-1,-1,0
41933,-393216,97,-56,-1,-1,0
41966,458752,97,-56,-1,-1,0
42000,1507328,97,-56,-1,-1,0
42033,393216,97,-56,-1,-1,0
42066,-196608,97,-56,-1,-1,0
42100,-131072,97,-56,-1,-1,0
42133,65536,97,-56,-1,-1,0
42166,0,97,-56,-1,-1,0
42200,-196608,97,-56,-1,-1,0
42233,-262144,97,-56,-1,-1,0
42266,-393216,97,-56,-1,-1,0
42300,-589824,97,-56,-1,-1,0
42333,-196608,97,-56,-1,-1,0
42366,-458752,97,-56,-1,-1,0
42400,-262144,97,-56,-1,-1,0
42433,5505024,97,-56,-1,-1,0
42466,-655360,97,-56,-1,-1,0
42500,-655360,97,-56,-1,-1,0
42533,-327680,97,-56,-1,-1,0
42566,786432,97,-56,-1,-1,0
42600,1441792,97,-56,-1,-1,0
42633,262144,97,-56,-1,-1,0
42666,-65536,97,-56,-1,-1,0
42700,-65536,97,-56,-1,-1,0
42733,0,97,-56,-1,-1,0
42766,-196608,97,-56,-1,-1,0
42800,-393216,97,-56,-1,-1,0
42833,-458752,97,-56,-1,-1,0
42866,-524288,97,-56,-1,-1,0
42900,-524288,97,-56,-1,-1,0
42933,-524288,97,-56,-1,-1,0
42966,-524288,97,-56,-1,-1,0
43000,-589824,97,-56,-1,-1,0
43033,-720896,97,-56,-1,-1,0
43066,-524288,97,-56,-1,-1,0
43100,-655360,97,-56,-1,-1,0
43133,-786432,97,-56,-1,-1,0
43166,6619136,97,-56,-1,-1,0
43200,-917504,97,-56,-1,-1,0
43233,-851968,97,-56,-1,-1,0
43266,-524288,97,-56,-1,-1,0
43300,393216,97,-56,-1,-1,0
43333,1179648,97,-56,-1,-1,0
43366,0,97,-56,-1,-1,0
43400,-589824,97,-56,-1,-1,0
43433,-589824,97,-56,-1,-1,0
43466,-524288,97,-56,-1,-1,0
43500,-589824,97,-56,-1,-1,0
43533,-851968,97,-56,-1,-1,0
43566,-1048576,97,-56,-1,-1,0
43600,-1048576,97,-56,-1,-1,0
43633,-1179648,97,-56,-1,-1,0
43666,-983040,97,-56,-1,-1,0
43700,-1179648,97,-56,-1,-1,0
43733,-1245184,97,-56,-1,-1,0
43766,6881280,97,-56,-1,-1,0
43800,-1245184,97,-56,-1,-1,0
43833,-1376256,97,-56,-1,-1,0
43866,-1245184,97,-56,-1,-1,0
43900,-589824,97,-56,-1,-1,0
43933,720896,97,-56,-1,-1,0
43966,-131072,97,-56,-1,-1,0
44000,-1245184,97,-56,-1,-1,0
44033,-1310720,97,-56,-1,-1,0
44066,-1179648,97,-56,-1,-1,0
44100,-1179648,97,-56,-1,-1,0
44133,-1441792,97,-56,-1,-1,0
44166,-1572864,97,-56,-1,-1,0
44200,-1703936,97,-56,-1,-1,0
44233,-1769472,97,-56,-1,-1,0
44266,-1769472,97,-56,-1,-1,0
44300,-1376256,97,-56,-1,-1,0
44333,-1638400,97,-56,-1,-1,0
44366,-589824,97,-56,-1,-1,0
44400,2097152,97,-56,-1,-1,0
44433,-1507328,97,-56,-1,-1,0
44466,-1310720,97,-56,-1,-1,0
44500,-720896,97,-56,-1,-1,0
44533,458752,97,-56,-1,-1,0
44566,1048576,97,-56,-1,-1,0
44600,-65536,97,-56,-1,-1,0
44633,-393216,97,-56,-1,-1,0
44666,-131072,97,-56,-1,-1,0
44700,-196608,97,-56,-1,-1,0
44733,-262144,97,-56,-1,-1,0
44766,-262144,97,-56,-1,-1,0
44800,-327680,97,-56,-1,-1,0
44833,-327680,97,-56,-1,-1,0
44866,0,97,-56,-1,-1,0
44900,-327680,95,-56,-1,-1,0
44933,-131072,95,-56,-1,-1,0
44966,7602176,95,-56,-1,-1,0
45000,-196608,95,-56,-1,-1,0
45033,-262144,95,-56,-1,-1,0
45066,-131072,95,-56,-1,-1,0
45100,458752,95,-56,-1,-1,0
45133,1703936,95,-56,-1,-1,0
45166,720896,95,-56,-1,-1,0
45200,-65536,95,-56,-1,-1,0
45233,-65536,95,-56,-1,-1,0
45266,0,95,-56,-1,-1,0
45300,-131072,95,-56,-1,-1,0
45333,-262144,95,-56,-1,-1,0
45366,-458752,95,-56,-1,-1,0
45400,-524288,95,-56,-1,-1,0
45433,-196608,94,-56,-1,-1,0
45466,-524288,94,-56,-1,-1,0
45500,-393216,94,-56,-1,-1,0
45533,5767168,94,-56,-1,-1,0
45566,-589824,94,-56,-1,-1,0
45600,-393216,94,-56,-1,-1,0
45633,65536,94,-56,-1,-1,0
45666,1376256,94,-56,-1,-1,0
45700,1966080,94,-56,-1,-1,0
45733,458752,94,-56,-1,-1,0
45766,0,94,-56,-1,-1,0
45800,196608,94,-56,-1,-1,0
45833,196608,94,-56,-1,-1,0
45866,-65536,94,-56,-1,-1,0
45900,-196608,94,-56,-1,-1,0
45933,-327680,94,-56,-1,-1,0
45966,-65536,93,-56,-1,-1,0
46000,-393216,93,-56,-1,-1,0
46033,-458752,93,-56,-1,-1,0
46066,9633792,93,-56,-1,-1,0
46100,-327680,93,-56,-1,-1,0
46133,-458752,93,-56,-1,-1,0
46166,-196608,93,-56,-1,-1,0
46200,851968,93,-56,-1,-1,0
46233,1835008,93,-56,-1,-1,0
46266,458752,93,-56,-1,-1,0
46300,-65536,93,-56,-1,-1,0
46333,0,93,-56,-1,-1,0
46366,196608,93,-56,-1,-1,0
46400,-131072,93,-56,-1,-1,0
46433,-196608,93,-56,-1,-1,0
46466,-458752,93,-56,-1,-1,0
46500,-131072,93,-56,-1,-1,0
46533,-458752,92,-56,-1,-1,0
46566,-655360,92,-56,-1,-1,0
46600,8323072,92,-56,-1,-1,0
46633,-589824,92,-56,-1,-1,0
46666,-524288,92,-56,-1,-1,0
46700,-262144,92,-56,-1,-1,0
46733,720896,92,-56,-1,-1,0
46766,1703936,92,-56,-1,-1,0
46800,196608,92,-56,-1,-1,0
46833,-196608,92,-56,-1,-1,0
46866,-196608,92,-56,-1,-1,0
46900,65536,92,-56,-1,-1,0
46933,-262144,92,-56,-1,-1,0
46966,-327680,92,-56,-1,-1,0
47000,-524288,92,-56,-1,-1,0
47033,-262144,92,-56,-1,-1,0
47066,-589824,92,-56,-1,-1,0
47100,-589824,92,-56,-1,-1,0
47133,6291456,92,-56,-1,-1,0
47166,-655360,92,-56,-1,-1,0
47200,-589824,92,-56,-1,-1,0
47233,-524288,92,-56,-1,-1,0
47266,0,92,-56,-1,-1,0
47300,1441792,92,-56,-1,-1,0
47333,720896,92,-56,-1,-1,0
47366,-327680,92,-56,-1,-1,0
47400,-393216,92,-56,-1,-1,0
47433,-131072,92,-56,-1,-1,0
47466,-327680,92,-56,-1,-1,0
47500,-458752,92,-56,-1,-1,0
47533,-655360,92,-56,-1,-1,0
47566,-786432,92,-56,-1,-1,0
47600,-720896,92,-56,-1,-1,0
47633,-1114112,92,-56,-1,-1,0
47666,-1245184,92,-56,-1,-1,0
47700,3473408,92,-56,-1,-1,0
47733,-1572864,90,-56,-1,-1,0
47766,-1441792,90,-56,-1,-1,0
47800,-1376256,90,-56,-1,-1,0
47833,-851968,90,-56,-1,-1,0
47866,458752,90,-56,-1,-1,0
47900,0,90,-56,-1,-1,0
47933,-1048576,90,-56,-1,-1,0
47966,-1179648,90,-56,-1,-1,0
48000,-917504,90,-56,-1,-1,0
48033,-851968,90,-56,-1,-1,0
48066,-1179648,90,-56,-1,-1,0
48100,-1245184,90,-56,-1,-1,0
48133,-1310720,90,-56,-1,-1,0
48166,-1245184,90,-56,-1,-1,0
48200,-1245184,90,-56,-1,-1,0
48233,-851968,90,-56,-1,-1,0
48266,-1048576,90,-56,-1,-1,0
48300,-983040,88,-56,-1,-1,0
48333,8912896,88,-56,-1,-1,0
48366,-851968,88,-56,-1,-1,0
48400,-720896,88,-56,-1,-1,0
48433,-589824,88,-56,-1,-1,0
48466,262144,88,-56,-1,-1,0
48500,1638400,88,-56,-1,-1,0
48533,589824,88,-56,-1,-1,0
48566,-262144,88,-56,-1,-1,0
48600,-327680,88,-56,-1,-1,0
48633,0,88,-56,-1,-1,0
48666,0,88,-56,-1,-1,0
48700,-196608,88,-56,-1,-1,0
48733,-262144,88,-56,-1,-1,0
48766,-458752,88,-56,-1,-1,0
48800,-65536,88,-56,-1,-1,0
48833,-393216,88,-56,-1,-1,0
48866,-458752,88,-56,-1,-1,0
48900,7667712,88,-56,-1,-1,0
48933,-655360,88,-56,-1,-1,0
48966,-786432,88,-56,-1,-1,0
49000,-655360,88,-56,-1,-1,0
49033,-65536,88,-56,-1,-1,0
49066,1245184,88,-56,-1,-1,0
49100,196608,88,-56,-1,-1,0
49133,-786432,88,-56,-1,-1,0
49166,-1114112,88,-56,-1,-1,0
49200,-786432,88,-56,-1,-1,0
49233,-983040,88,-56,-1,-1,0
49266,-1179648,88,-56,-1,-1,0
49300,-1310720,88,-56,-1,-1,0
49333,-1441792,88,-56,-1,-1,0
49366,-1376256,88,-56,-1,-1,0
49400,-983040,88,-56,-1,-1,0
49433,-1179648,88,-56,-1,-1,0
49466,-1114112,86,-56,-1,-1,0
49500,9109504,86,-56,-1,-1,0
49533,-983040,86,-56,-1,-1,0
49566,-851968,86,-56,-1,-1,0
49600,-720896,86,-56,-1,-1,0
49633,262144,86,-56,-1,-1,0
49666,1572864,86,-56,-1,-1,0
49700,589824,86,-56,-1,-1,0
49733,-262144,86,-56,-1,-1,0
49766,-65536,86,-56,-1,-1,0
49800,0,86,-56,-1,-1,0
49833,0,86,-56,-1,-1,0
49866,0,86,-56,-1,-1,0
49900,-196608,86,-56,-1,-1,0
49933,-196608,86,-56,-1,-1,0
49966,-131072,86,-56,-1,-1,0
50000,65536,86,-56,-1,-1,0
