milliseconds, ECG, ECG HR, PPG, PPG HR, SpO2, PI
0,2097152,112,-56,-1,-1,0
33,4194304,112,-56,-1,-1,0
66,1638400,112,-56,-1,-1,0
100,-851968,112,-56,-1,-1,0
133,-917504,112,-56,-1,-1,0
166,-458752,112,-56,-1,-1,0
200,-589824,112,-56,-1,-1,0
233,-851968,111,-56,-1,-1,0
266,-1179648,111,-56,-1,-1,0
300,-1048576,111,-56,-1,-1,0
333,-1179648,111,-56,-1,-1,0
366,2686976,111,-56,-1,-1,0
400,-1703936,111,-56,-1,-1,0
433,-327680,111,-56,-1,-1,0
466,262144,111,-56,-1,-1,0
500,2621440,111,-56,-1,-1,0
533,2752512,111,-56,-1,-1,0
566,0,111,-56,-1,-1,0
600,-1048576,111,-56,-1,-1,0
633,-851968,111,-56,-1,-1,0
666,-851968,111,-56,-1,-1,0
700,-983040,111,-56,-1,-1,0
733,-983040,111,-56,-1,-1,0
766,-917504,110,-56,-1,-1,0
800,-1310720,110,-56,-1,-1,0
833,-1310720,110,-56,-1,-1,0
866,1376256,110,-56,-1,-1,0
900,-1966080,110,-56,-1,-1,0
933,-524288,110,-56,-1,-1,0
966,0,110,-56,-1,-1,0
1000,1966080,110,-56,-1,-1,0
1033,2621440,110,-56,-1,-1,0
1066,327680,110,-56,-1,-1,0
1100,-720896,110,-56,-1,-1,0
1133,-655360,110,-56,-1,-1,0
1166,-458752,110,-56,-1,-1,0
1200,-524288,110,-56,-1,-1,0
1233,-524288,110,-56,-1,-1,0
1266,-458752,110,-56,-1,-1,0
1300,-458752,109,-56,-1,-1,0
1333,-786432,109,-56,-1,-1,0
1366,-786432,109,-56,-1,-1,0
1400,3145728,109,-56,-1,-1,0
1433,-1310720,109,-56,-1,-1,0
1466,0,109,-56,-1,-1,0
1500,786432,109,-56,-1,-1,0
1533,3080192,109,-56,-1,-1,0
1566,3276800,109,-56,-1,-1,0
1600,1114112,109,-56,-1,-1,0
1633,-589824,109,-56,-1,-1,0
1666,-524288,109,-56,-1,-1,0
1700,-720896,109,-56,-1,-1,0
1733,-851968,109,-56,-1,-1,0
1766,-1114112,109,-56,-1,-1,0
1800,-786432,109,-56,-1,-1,0
1833,-1310720,109,-56,-1,-1,0
1866,-917504,109,-56,-1,-1,0
1900,-1114112,109,-56,-1,-1,0
1933,3276800,109,-56,-1,-1,0
1966,-1703936,109,-56,-1,-1,0
2000,-65536,109,-56,-1,-1,0
2033,524288,109,-56,-1,-1,0
2066,1966080,109,-56,-1,-1,0
2100,3080192,109,-56,-1,-1,0
2133,786432,109,-56,-1,-1,0
2166,-589824,109,-56,-1,-1,0
2200,-589824,109,-56,-1,-1,0
2233,-131072,109,-56,-1,-1,0
2266,-720896,109,-56,-1,-1,0
2300,-851968,109,-56,-1,-1,0
2333,-458752,108,-56,-1,-1,0
2366,-851968,108,-56,-1,-1,0
2400,-1114112,108,-56,-1,-1,0
2433,5177344,108,-56,-1,-1,0
2466,-4194304,108,-56,-1,-1,0
2500,-524288,108,-56,-1,-1,0
2533,65536,108,-56,-1,-1,0
2566,1441792,108,-56,-1,-1,0
2600,3342336,108,-56,-1,-1,0
2633,2228224,108,-56,-1,-1,0
2666,-65536,108,-56,-1,-1,0
2700,-589824,108,-56,-1,-1,0
2733,-524288,108,-56,-1,-1,0
2766,-655360,108,-56,-1,-1,0
2800,-983040,108,-56,-1,-1,0
2833,-917504,107,-56,-1,-1,0
2866,-1245184,107,-56,-1,-1,0
2900,-1114112,107,-56,-1,-1,0
2933,4390912,107,-56,-1,-1,0
2966,-4718592,107,-56,-1,-1,0
3000,-786432,107,-56,-1,-1,0
3033,-196608,107,-56,-1,-1,0
3066,1114112,107,-56,-1,-1,0
3100,3145728,107,-56,-1,-1,0
3133,1703936,107,-56,-1,-1,0
3166,-1114112,107,-56,-1,-1,0
3200,-1376256,107,-56,-1,-1,0
3233,-1048576,107,-56,-1,-1,0
3266,-1048576,107,-56,-1,-1,0
3300,-1114112,106,-56,-1,-1,0
3333,-786432,106,-56,-1,-1,0
3366,-983040,106,-56,-1,-1,0
3400,-786432,106,-56,-1,-1,0
3433,8716288,106,-56,-1,-1,0
3466,-3473408,106,-56,-1,-1,0
3500,-131072,106,-56,-1,-1,0
3533,524288,106,-56,-1,-1,0
3566,2490368,106,-56,-1,-1,0
3600,3735552,106,-56,-1,-1,0
3633,851968,106,-56,-1,-1,0
3666,-1048576,106,-56,-1,-1,0
3699,-917504,106,-56,-1,-1,0
3733,-458752,106,-56,-1,-1,0
3766,-655360,105,-56,-1,-1,0
3800,-786432,105,-56,-1,-1,0
3833,-983040,105,-56,-1,-1,0
3866,-1048576,105,-56,-1,-1,0
3900,2424832,105,-56,-1,-1,0
3933,-5242880,105,-56,-1,-1,0
3966,-917504,105,-56,-1,-1,0
4000,0,105,-56,-1,-1,0
4033,1179648,105,-56,-1,-1,0
4066,3735552,105,-56,-1,-1,0
4100,1769472,105,-56,-1,-1,0
4133,-1048576,105,-56,-1,-1,0
4166,-1310720,105,-56,-1,-1,0
4200,-786432,105,-56,-1,-1,0
4233,-458752,105,-56,-1,-1,0
4266,-524288,105,-56,-1,-1,0
4300,-786432,105,-56,-1,-1,0
4333,-655360,105,-56,-1,-1,0
4366,2818048,105,-56,-1,-1,0
4400,-4325376,105,-56,-1,-1,0
4433,-196608,105,-56,-1,-1,0
4466,524288,105,-56,-1,-1,0
4500,1966080,105,-56,-1,-1,0
4533,4128768,105,-56,-1,-1,0
4566,2490368,105,-56,-1,-1,0
4600,-262144,105,-56,-1,-1,0
4633,-524288,105,-56,-1,-1,0
4666,-327680,105,-56,-1,-1,0
4700,-262144,105,-56,-1,-1,0
4733,-655360,105,-56,-1,-1,0
4766,-589824,104,-56,-1,-1,0
4800,-983040,104,-56,-1,-1,0
4833,-1114112,104,-56,-1,-1,0
4866,6356992,104,-56,-1,-1,0
4900,-2293760,104,-56,-1,-1,0
4933,-393216,104,-56,-1,-1,0
4966,393216,104,-56,-1,-1,0
5000,2752512,104,-56,-1,-1,0
5033,3604480,104,-56,-1,-1,0
5066,720896,104,-56,-1,-1,0
5100,-393216,104,-56,-1,-1,0
5133,-65536,104,-56,-1,-1,0
5166,196608,104,-56,-1,-1,0
5200,65536,104,-56,-1,-1,0
5233,-131072,104,-56,-1,-1,0
5266,-65536,103,-56,-1,-1,0
5300,-262144,103,-56,-1,-1,0
5333,-327680,103,-56,-1,-1,0
5366,9830400,103,-56,-1,-1,0
5400,-2555904,103,-56,-1,-1,0
5433,327680,103,-56,-1,-1,0
5466,1179648,103,-56,-1,-1,0
5500,3145728,103,-56,-1,-1,0
5533,4456448,103,-56,-1,-1,0
5566,1441792,103,-56,-1,-1,0
5600,-327680,103,-56,-1,-1,0
5633,-262144,103,-56,-1,-1,0
5666,-65536,103,-56,-1,-1,0
5700,-196608,103,-56,-1,-1,0
5733,-655360,103,-56,-1,-1,0
5766,-720896,103,-56,-1,-1,0
5800,-786432,103,-56,-1,-1,0
5833,-1048576,102,-56,-1,-1,0
5866,-1179648,102,-56,-1,-1,0
5900,1376256,102,-56,-1,-1,0
5933,-1900544,102,-56,-1,-1,0
5966,-786432,102,-56,-1,-1,0
6000,0,102,-56,-1,-1,0
6033,1966080,102,-56,-1,-1,0
6066,1769472,102,-56,-1,-1,0
6100,-1376256,102,-56,-1,-1,0
6133,-2424832,102,-56,-1,-1,0
6166,-2293760,102,-56,-1,-1,0
6200,-2228224,102,-56,-1,-1,0
6233,-2293760,102,-56,-1,-1,0
6266,-2359296,102,-56,-1,-1,0
6300,-2293760,102,-56,-1,-1,0
6333,-2228224,102,-56,-1,-1,0
6366,-2097152,101,-56,-1,-1,0
6400,-1900544,101,-56,-1,-1,0
6433,6815744,101,-56,-1,-1,0
6466,-4194304,101,-56,-1,-1,0
6500,-851968,101,-56,-1,-1,0
6533,0,101,-56,-1,-1,0
6566,1769472,101,-56,-1,-1,0
6600,3473408,101,-56,-1,-1,0
6633,1376256,101,-56,-1,-1,0
6666,-589824,101,-56,-1,-1,0
6700,-589824,101,-56,-1,-1,0
6733,-196608,101,-56,-1,-1,0
6766,-524288,101,-56,-1,-1,0
6800,-720896,101,-56,-1,-1,0
6833,-917504,101,-56,-1,-1,0
6866,-851968,100,-56,-1,-1,0
6899,-1245184,100,-56,-1,-1,0
6933,-1179648,100,-56,-1,-1,0
6966,7340032,100,-56,-1,-1,0
7000,-4587520,100,-56,-1,-1,0
7033,-524288,100,-56,-1,-1,0
7066,131072,100,-56,-1,-1,0
7100,1835008,100,-56,-1,-1,0
7133,3211264,100,-56,-1,-1,0
7166,589824,100,-56,-1,-1,0
7200,-1310720,100,-56,-1,-1,0
7233,-1441792,100,-56,-1,-1,0
7266,-917504,100,-56,-1,-1,0
7300,-1179648,100,-56,-1,-1,0
7333,-1441792,100,-56,-1,-1,0
7366,-1245184,100,-56,-1,-1,0
7399,-1376256,99,-56,-1,-1,0
7433,-1507328,99,-56,-1,-1,0
7466,-1245184,99,-56,-1,-1,0
7500,131072,99,-56,-1,-1,0
7533,-1572864,99,-56,-1,-1,0
7566,-327680,99,-56,-1,-1,0
7600,851968,99,-56,-1,-1,0
7633,3276800,99,-56,-1,-1,0
7666,3407872,99,-56,-1,-1,0
7700,-65536,99,-56,-1,-1,0
7733,-786432,99,-56,-1,-1,0
7766,-655360,99,-56,-1,-1,0
7800,-262144,99,-56,-1,-1,0
7833,-458752,99,-56,-1,-1,0
7866,-655360,99,-56,-1,-1,0
7899,-720896,98,-56,-1,-1,0
7933,-786432,98,-56,-1,-1,0
7966,-917504,98,-56,-1,-1,0
8000,8323072,98,-56,-1,-1,0
8033,-3866624,98,-56,-1,-1,0
8066,-524288,98,-56,-1,-1,0
8100,196608,98,-56,-1,-1,0
8133,2097152,98,-56,-1,-1,0
8166,3735552,98,-56,-1,-1,0
8200,1114112,98,-56,-1,-1,0
8233,-1048576,98,-56,-1,-1,0
8266,-983040,98,-56,-1,-1,0
8300,-655360,98,-56,-1,-1,0
8333,-655360,98,-56,-1,-1,0
8366,-917504,98,-56,-1,-1,0
8400,-851968,98,-56,-1,-1,0
8433,-1048576,98,-56,-1,-1,0
8466,-983040,98,-56,-1,-1,0
8500,720896,98,-56,-1,-1,0
8533,-3080192,98,-56,-1,-1,0
8566,-720896,98,-56,-1,-1,0
8600,65536,98,-56,-1,-1,0
8633,1310720,98,-56,-1,-1,0
8666,3801088,98,-56,-1,-1,0
8700,2949120,98,-56,-1,-1,0
8733,-196608,98,-56,-1,-1,0
8766,-851968,98,-56,-1,-1,0
8800,-720896,98,-56,-1,-1,0
8833,-786432,98,-56,-1,-1,0
8866,-917504,98,-56,-1,-1,0
8900,-1048576,98,-56,-1,-1,0
8933,-983040,97,-56,-1,-1,0
8966,-1114112,97,-56,-1,-1,0
9000,-1310720,97,-56,-1,-1,0
9033,4063232,97,-56,-1,-1,0
9066,-2359296,97,-56,-1,-1,0
9100,-327680,97,-56,-1,-1,0
9133,589824,97,-56,-1,-1,0
9166,2818048,97,-56,-1,-1,0
9200,3342336,97,-56,-1,-1,0
9233,393216,97,-56,-1,-1,0
9266,-589824,97,-56,-1,-1,0
9300,-327680,97,-56,-1,-1,0
9333,0,97,-56,-1,-1,0
9366,-196608,97,-56,-1,-1,0
9400,-393216,97,-56,-1,-1,0
9433,-327680,97,-56,-1,-1,0
9466,-524288,97,-56,-1,-1,0
9500,-393216,97,-56,-1,-1,0
9533,589824,97,-56,-1,-1,0
9566,-1835008,97,-56,-1,-1,0
9600,-458752,97,-56,-1,-1,0
9633,589824,97,-56,-1,-1,0
9666,1769472,97,-56,-1,-1,0
9700,3997696,97,-56,-1,-1,0
9733,3670016,97,-56,-1,-1,0
9766,458752,97,-56,-1,-1,0
9800,-196608,97,-56,-1,-1,0
9833,-131072,97,-56,-1,-1,0
9866,-262144,97,-56,-1,-1,0
9900,-458752,97,-56,-1,-1,0
9933,-655360,98,-56,-1,-1,0
9966,-917504,98,-56,-1,-1,0
10000,-1179648,98,-56,-1,-1,0
10033,-1179648,98,-56,-1,-1,0
10066,5177344,98,-56,-1,-1,0
10100,-2883584,98,-56,-1,-1,0
10133,-131072,98,-56,-1,-1,0
10166,524288,98,-56,-1,-1,0
10200,2883584,98,-56,-1,-1,0
10233,3801088,98,-56,-1,-1,0
10266,589824,98,-56,-1,-1,0
10300,-655360,98,-56,-1,-1,0
10333,-458752,98,-56,-1,-1,0
10366,-65536,98,-56,-1,-1,0
10400,-393216,98,-56,-1,-1,0
10433,-327680,98,-56,-1,-1,0
10466,-524288,98,-56,-1,-1,0
10500,-720896,98,-56,-1,-1,0
10533,-655360,98,-56,-1,-1,0
10566,983040,98,-56,-1,-1,0
10600,-1114112,98,-56,-1,-1,0
10633,262144,98,-56,-1,-1,0
10666,1245184,98,-56,-1,-1,0
10700,3538944,98,-56,-1,-1,0
10733,3276800,98,-56,-1,-1,0
10766,-458752,98,-56,-1,-1,0
10800,-1310720,98,-56,-1,-1,0
10833,-1310720,98,-56,-1,-1,0
10866,-983040,98,-56,-1,-1,0
10900,-1245184,98,-56,-1,-1,0
10933,-1441792,98,-56,-1,-1,0
10966,-1638400,98,-56,-1,-1,0
11000,-1835008,98,-56,-1,-1,0
11033,-1835008,98,-56,-1,-1,0
11066,1048576,98,-56,-1,-1,0
11100,-2228224,98,-56,-1,-1,0
11133,-786432,98,-56,-1,-1,0
11166,196608,98,-56,-1,-1,0
11200,2686976,98,-56,-1,-1,0
11233,3014656,98,-56,-1,-1,0
11266,-655360,98,-56,-1,-1,0
11300,-1769472,98,-56,-1,-1,0
11333,-1703936,98,-56,-1,-1,0
11366,-1310720,98,-56,-1,-1,0
11400,-1048576,98,-56,-1,-1,0
11433,-983040,98,-56,-1,-1,0
11466,-983040,98,-56,-1,-1,0
11500,-1048576,98,-56,-1,-1,0
11533,-1179648,98,-56,-1,-1,0
11566,7274496,98,-56,-1,-1,0
11600,-3407872,98,-56,-1,-1,0
11633,-262144,98,-56,-1,-1,0
11666,262144,98,-56,-1,-1,0
11700,2555904,98,-56,-1,-1,0
11733,4259840,98,-56,-1,-1,0
11766,393216,98,-56,-1,-1,0
11800,-1376256,98,-56,-1,-1,0
11833,-1507328,98,-56,-1,-1,0
11866,-1376256,98,-56,-1,-1,0
11900,-1245184,98,-56,-1,-1,0
11933,-1572864,98,-56,-1,-1,0
11966,-1835008,98,-56,-1,-1,0
12000,-1703936,98,-56,-1,-1,0
12033,-2031616,98,-56,-1,-1,0
12066,-2293760,98,-56,-1,-1,0
12100,3801088,98,-56,-1,-1,0
12133,-2883584,98,-56,-1,-1,0
12166,-1245184,98,-56,-1,-1,0
12200,65536,98,-56,-1,-1,0
12233,3014656,98,-56,-1,-1,0
12266,3866624,98,-56,-1,-1,0
12300,-65536,98,-56,-1,-1,0
12333,-1114112,98,-56,-1,-1,0
12366,-917504,98,-56,-1,-1,0
12400,-458752,98,-56,-1,-1,0
12433,-589824,98,-56,-1,-1,0
12466,-786432,98,-56,-1,-1,0
12500,-655360,98,-56,-1,-1,0
12533,-524288,98,-56,-1,-1,0
12566,-851968,98,-56,-1,-1,0
12600,-851968,98,-56,-1,-1,0
12633,4194304,96,-56,-1,-1,0
12666,-4849664,96,-56,-1,-1,0
12700,-786432,96,-56,-1,-1,0
12733,-393216,96,-56,-1,-1,0
12766,1048576,96,-56,-1,-1,0
12800,3735552,96,-56,-1,-1,0
12833,1638400,96,-56,-1,-1,0
12866,-1507328,96,-56,-1,-1,0
12900,-2097152,96,-56,-1,-1,0
12933,-1966080,96,-56,-1,-1,0
12966,-1638400,96,-56,-1,-1,0
13000,-1507328,96,-56,-1,-1,0
13033,-1572864,96,-56,-1,-1,0
13066,-1638400,96,-56,-1,-1,0
13100,-1769472,96,-56,-1,-1,0
13133,-1048576,96,-56,-1,-1,0
13166,-1376256,96,-56,-1,-1,0
13200,-1179648,96,-56,-1,-1,0
13233,2883584,96,-56,-1,-1,0
13266,-4390912,96,-56,-1,-1,0
13299,-589824,96,-56,-1,-1,0
13333,65536,96,-56,-1,-1,0
13366,1376256,96,-56,-1,-1,0
13400,3932160,96,-56,-1,-1,0
13433,2752512,96,-56,-1,-1,0
13466,0,96,-56,-1,-1,0
13500,-262144,96,-56,-1,-1,0
13533,-393216,96,-56,-1,-1,0
13566,-65536,96,-56,-1,-1,0
13600,262144,96,-56,-1,-1,0
13633,0,96,-56,-1,-1,0
13666,65536,96,-56,-1,-1,0
13700,-262144,96,-56,-1,-1,0
13733,-196608,96,-56,-1,-1,0
13766,-196608,96,-56,-1,-1,0
13799,-131072,96,-56,-1,-1,0
13833,-131072,96,-56,-1,-1,0
13866,-131072,96,-56,-1,-1,0
13900,6488064,96,-56,-1,-1,0
13933,-1769472,96,-56,-1,-1,0
13966,393216,96,-56,-1,-1,0
14000,1114112,96,-56,-1,-1,0
14033,2949120,96,-56,-1,-1,0
14066,4718592,96,-56,-1,-1,0
14100,1638400,96,-56,-1,-1,0
14133,-327680,96,-56,-1,-1,0
14166,-655360,96,-56,-1,-1,0
14200,-458752,96,-56,-1,-1,0
14233,-327680,96,-56,-1,-1,0
14266,-589824,96,-56,-1,-1,0
14299,-917504,96,-56,-1,-1,0
14333,-1048576,96,-56,-1,-1,0
14366,-983040,96,-56,-1,-1,0
14400,-1376256,96,-56,-1,-1,0
14433,-1179648,96,-56,-1,-1,0
14466,2097152,96,-56,-1,-1,0
14500,-4784128,96,-56,-1,-1,0
14533,-983040,96,-56,-1,-1,0
14566,-327680,96,-56,-1,-1,0
14600,1245184,96,-56,-1,-1,0
14633,4194304,96,-56,-1,-1,0
14666,3014656,96,-56,-1,-1,0
14700,-589824,96,-56,-1,-1,0
14733,-1376256,96,-56,-1,-1,0
14766,-1114112,96,-56,-1,-1,0
14799,-655360,96,-56,-1,-1,0
14833,-720896,96,-56,-1,-1,0
14866,-851968,96,-56,-1,-1,0
14900,-917504,96,-56,-1,-1,0
14933,-851968,96,-56,-1,-1,0
14966,-1048576,96,-56,-1,-1,0
15000,-1507328,95,-56,-1,-1,0
15033,8781824,95,-56,-1,-1,0
15066,-2424832,95,-56,-1,-1,0
15100,-196608,95,-56,-1,-1,0
15133,720896,95,-56,-1,-1,0
15166,3014656,95,-56,-1,-1,0
15200,4784128,95,-56,-1,-1,0
15233,851968,95,-56,-1,-1,0
15266,-983040,95,-56,-1,-1,0
15299,-1048576,95,-56,-1,-1,0
15333,-851968,95,-56,-1,-1,0
15366,-589824,95,-56,-1,-1,0
15400,-786432,95,-56,-1,-1,0
15433,-983040,95,-56,-1,-1,0
15466,-1048576,95,-56,-1,-1,0
15500,-983040,95,-56,-1,-1,0
15533,-1114112,95,-56,-1,-1,0
15566,-1310720,95,-56,-1,-1,0
15600,5832704,94,-56,-1,-1,0
15633,-2097152,94,-56,-1,-1,0
15666,-327680,94,-56,-1,-1,0
15700,524288,94,-56,-1,-1,0
15733,3211264,94,-56,-1,-1,0
15766,4784128,94,-56,-1,-1,0
15799,655360,94,-56,-1,-1,0
15833,-720896,94,-56,-1,-1,0
15866,-851968,94,-56,-1,-1,0
15900,-655360,94,-56,-1,-1,0
15933,-458752,94,-56,-1,-1,0
15966,-524288,94,-56,-1,-1,0
16000,-786432,94,-56,-1,-1,0
16033,-786432,94,-56,-1,-1,0
16066,-917504,94,-56,-1,-1,0
16100,-786432,94,-56,-1,-1,0
16133,-917504,94,-56,-1,-1,0
16166,-851968,94,-56,-1,-1,0
16200,5898240,94,-56,-1,-1,0
16233,-4587520,93,-56,-1,-1,0
16266,-720896,93,-56,-1,-1,0
16300,-196608,93,-56,-1,-1,0
16333,1310720,93,-56,-1,-1,0
16366,3866624,93,-56,-1,-1,0
16400,2228224,93,-56,-1,-1,0
16433,-655360,93,-56,-1,-1,0
16466,-1245184,93,-56,-1,-1,0
16500,-1048576,93,-56,-1,-1,0
16533,-655360,93,-56,-1,-1,0
16566,-720896,93,-56,-1,-1,0
16600,-786432,93,-56,-1,-1,0
16633,-720896,93,-56,-1,-1,0
16666,-851968,93,-56,-1,-1,0
16700,-917504,93,-56,-1,-1,0
16733,-524288,93,-56,-1,-1,0
16766,-786432,93,-56,-1,-1,0
16800,-655360,93,-56,-1,-1,0
16833,6291456,90,-56,-1,-1,0
16866,-4194304,90,-56,-1,-1,0
16900,-131072,90,-56,-1,-1,0
16933,524288,90,-56,-1,-1,0
16966,2031616,90,-56,-1,-1,0
17000,4718592,90,-56,-1,-1,0
17033,2752512,90,-56,-1,-1,0
17066,-327680,90,-56,-1,-1,0
17100,-917504,90,-56,-1,-1,0
17133,-786432,90,-56,-1,-1,0
17166,-458752,90,-56,-1,-1,0
17200,-524288,90,-56,-1,-1,0
17233,-786432,90,-56,-1,-1,0
17266,-851968,90,-56,-1,-1,0
17300,-1048576,90,-56,-1,-1,0
17333,-720896,90,-56,-1,-1,0
17366,-983040,90,-56,-1,-1,0
17400,-917504,90,-56,-1,-1,0
17433,458752,89,-56,-1,-1,0
17466,-2621440,89,-56,-1,-1,0
17500,-655360,89,-56,-1,-1,0
17533,65536,89,-56,-1,-1,0
17566,1245184,89,-56,-1,-1,0
17600,3997696,89,-56,-1,-1,0
17633,3538944,89,-56,-1,-1,0
17666,-131072,89,-56,-1,-1,0
17700,-1114112,89,-56,-1,-1,0
17733,-917504,89,-56,-1,-1,0
17766,-655360,89,-56,-1,-1,0
17800,-655360,89,-56,-1,-1,0
17833,-720896,89,-56,-1,-1,0
17866,-786432,89,-56,-1,-1,0
17900,-917504,89,-56,-1,-1,0
17933,-655360,89,-56,-1,-1,0
17966,-983040,89,-56,-1,-1,0
18000,-851968,89,-56,-1,-1,0
18033,2359296,89,-56,-1,-1,0
18066,-4456448,87,-56,-1,-1,0
18100,-655360,87,-56,-1,-1,0
18133,0,87,-56,-1,-1,0
18166,1376256,87,-56,-1,-1,0
18200,4194304,87,-56,-1,-1,0
18233,3276800,87,-56,-1,-1,0
18266,-589824,87,-56,-1,-1,0
18300,-1703936,87,-56,-1,-1,0
18333,-1703936,87,-56,-1,-1,0
18366,-1376256,87,-56,-1,-1,0
18400,-1376256,87,-56,-1,-1,0
18433,-1572864,87,-56,-1,-1,0
18466,-1638400,87,-56,-1,-1,0
18500,-1703936,87,-56,-1,-1,0
18533,-1769472,87,-56,-1,-1,0
18566,-1376256,87,-56,-1,-1,0
18600,-1507328,87,-56,-1,-1,0
18633,-1507328,87,-56,-1,-1,0
18666,6029312,85,-56,-1,-1,0
18700,-2424832,85,-56,-1,-1,0
18733,-458752,85,-56,-1,-1,0
18766,327680,85,-56,-1,-1,0
18800,2752512,85,-56,-1,-1,0
18833,4521984,85,-56,-1,-1,0
18866,983040,85,-56,-1,-1,0
18900,-1114112,85,-56,-1,-1,0
18933,-1245184,85,-56,-1,-1,0
18966,-917504,85,-56,-1,-1,0
19000,-720896,85,-56,-1,-1,0
19033,-851968,85,-56,-1,-1,0
19066,-786432,85,-56,-1,-1,0
19100,-720896,85,-56,-1,-1,0
19133,-1048576,85,-56,-1,-1,0
19166,-851968,85,-56,-1,-1,0
19200,-983040,85,-56,-1,-1,0
19233,-786432,85,-56,-1,-1,0
19266,3604480,84,-56,-1,-1,0
19300,-4653056,84,-56,-1,-1,0
19333,-327680,84,-56,-1,-1,0
19366,458752,84,-56,-1,-1,0
19400,2031616,84,-56,-1,-1,0
19433,4849664,84,-56,-1,-1,0
19466,3801088,84,-56,-1,-1,0
19500,131072,84,-56,-1,-1,0
19533,-786432,84,-56,-1,-1,0
19566,-655360,84,-56,-1,-1,0
19600,-524288,84,-56,-1,-1,0
19633,-589824,84,-56,-1,-1,0
19666,-786432,84,-56,-1,-1,0
19700,-851968,84,-56,-1,-1,0
19733,-983040,84,-56,-1,-1,0
19766,-786432,84,-56,-1,-1,0
19800,-1114112,84,-56,-1,-1,0
19833,-917504,84,-56,-1,-1,0
19866,7143424,82,-56,-1,-1,0
19900,-4325376,82,-56,-1,-1,0
19933,-327680,82,-56,-1,-1,0
19966,327680,82,-56,-1,-1,0
20000,2162688,82,-56,-1,-1,0
20033,4980736,82,-56,-1,-1,0
20066,2686976,82,-56,-1,-1,0
20100,-458752,82,-56,-1,-1,0
20133,-983040,82,-56,-1,-1,0
20166,-917504,82,-56,-1,-1,0
20200,-524288,82,-56,-1,-1,0
20233,-589824,82,-56,-1,-1,0
20266,-720896,82,-56,-1,-1,0
20300,-720896,82,-56,-1,-1,0
20333,-786432,82,-56,-1,-1,0
20366,-524288,82,-56,-1,-1,0
20400,-851968,82,-56,-1,-1,0
20433,-786432,82,-56,-1,-1,0
20466,8454144,82,-56,-1,-1,0
20500,-3211264,82,-56,-1,-1,0
20533,-196608,82,-56,-1,-1,0
20566,458752,82,-56,-1,-1,0
20600,2424832,82,-56,-1,-1,0
20633,4849664,82,-56,-1,-1,0
20666,1835008,82,-56,-1,-1,0
20700,-720896,82,-56,-1,-1,0
20733,-1179648,82,-56,-1,-1,0
20766,-851968,82,-56,-1,-1,0
20800,-458752,82,-56,-1,-1,0
20833,-589824,82,-56,-1,-1,0
20866,-655360,82,-56,-1,-1,0
20900,-917504,82,-56,-1,-1,0
20933,-851968,82,-56,-1,-1,0
20966,-851968,82,-56,-1,-1,0
21000,-917504,82,-56,-1,-1,0
21033,-917504,82,-56,-1,-1,0
21066,8126464,83,-56,-1,-1,0
21100,-2883584,83,-56,-1,-1,0
21133,-196608,83,-56,-1,-1,0
21166,327680,83,-56,-1,-1,0
21200,2686976,83,-56,-1,-1,0
21233,4980736,83,-56,-1,-1,0
21266,1703936,83,-56,-1,-1,0
21300,-851968,83,-56,-1,-1,0
21333,-1114112,83,-56,-1,-1,0
21366,-983040,83,-56,-1,-1,0
21400,-917504,83,-56,-1,-1,0
21433,-917504,83,-56,-1,-1,0
21466,-1114112,83,-56,-1,-1,0
21500,-983040,83,-56,-1,-1,0
21533,-1179648,83,-56,-1,-1,0
21566,-851968,83,-56,-1,-1,0
21600,-1114112,83,-56,-1,-1,0
21633,-983040,83,-56,-1,-1,0
21666,0,83,-56,-1,-1,0
21700,-2162688,83,-56,-1,-1,0
21733,-1048576,83,-56,-1,-1,0
21766,-196608,83,-56,-1,-1,0
21800,1048576,83,-56,-1,-1,0
21833,3670016,83,-56,-1,-1,0
21866,4128768,83,-56,-1,-1,0
21900,196608,83,-56,-1,-1,0
21933,-983040,83,-56,-1,-1,0
21966,-1048576,83,-56,-1,-1,0
22000,-655360,83,-56,-1,-1,0
22033,-720896,83,-56,-1,-1,0
22066,-851968,83,-56,-1,-1,0
22100,-1048576,83,-56,-1,-1,0
22133,-1179648,83,-56,-1,-1,0
22166,-1179648,83,-56,-1,-1,0
22200,-983040,83,-56,-1,-1,0
22233,-1245184,83,-56,-1,-1,0
22266,-1179648,83,-56,-1,-1,0
22300,6094848,82,-56,-1,-1,0
22333,-4587520,82,-56,-1,-1,0
22366,-589824,82,-56,-1,-1,0
22400,0,82,-56,-1,-1,0
22433,1703936,82,-56,-1,-1,0
22466,4325376,82,-56,-1,-1,0
22500,2883584,82,-56,-1,-1,0
22533,-262144,82,-56,-1,-1,0
22566,-1048576,82,-56,-1,-1,0
22600,-851968,82,-56,-1,-1,0
22633,-720896,82,-56,-1,-1,0
22666,-720896,82,-56,-1,-1,0
22700,-786432,82,-56,-1,-1,0
22733,-917504,82,-56,-1,-1,0
22766,-851968,82,-56,-1,-1,0
22800,-720896,82,-56,-1,-1,0
22833,-851968,82,-56,-1,-1,0
22866,-720896,82,-56,-1,-1,0
22900,7012352,82,-56,-1,-1,0
22933,-3997696,82,-56,-1,-1,0
22966,-393216,82,-56,-1,-1,0
23000,262144,82,-56,-1,-1,0
23033,2228224,82,-56,-1,-1,0
23066,5046272,82,-56,-1,-1,0
23100,2621440,82,-56,-1,-1,0
23133,-327680,82,-56,-1,-1,0
23166,-851968,82,-56,-1,-1,0
23200,-589824,82,-56,-1,-1,0
23233,-327680,82,-56,-1,-1,0
23266,-327680,82,-56,-1,-1,0
23300,-524288,82,-56,-1,-1,0
23333,-589824,82,-56,-1,-1,0
23366,-524288,82,-56,-1,-1,0
23400,-655360,82,-56,-1,-1,0
23433,-589824,82,-56,-1,-1,0
23466,-655360,82,-56,-1,-1,0
23500,2424832,82,-56,-1,-1,0
23533,-1572864,82,-56,-1,-1,0
23566,131072,82,-56,-1,-1,0
23600,1048576,82,-56,-1,-1,0
23633,3473408,82,-56,-1,-1,0
23666,4587520,82,-56,-1,-1,0
23700,589824,82,-56,-1,-1,0
23733,-786432,82,-56,-1,-1,0
23766,-1114112,82,-56,-1,-1,0
23800,-786432,82,-56,-1,-1,0
23833,-524288,82,-56,-1,-1,0
23866,-786432,82,-56,-1,-1,0
23900,-1048576,82,-56,-1,-1,0
23933,-1179648,82,-56,-1,-1,0
23966,-1114112,82,-56,-1,-1,0
24000,-1376256,82,-56,-1,-1,0
24033,-1376256,82,-56,-1,-1,0
24066,7274496,82,-56,-1,-1,0
24100,-4587520,82,-56,-1,-1,0
24133,-851968,82,-56,-1,-1,0
24166,-131072,82,-56,-1,-1,0
24200,1638400,82,-56,-1,-1,0
24233,4521984,82,-56,-1,-1,0
24266,2162688,82,-56,-1,-1,0
24300,-720896,82,-56,-1,-1,0
24333,-1179648,82,-56,-1,-1,0
24366,-1179648,82,-56,-1,-1,0
24400,-917504,82,-56,-1,-1,0
24433,-786432,82,-56,-1,-1,0
24466,-917504,82,-56,-1,-1,0
24500,-983040,82,-56,-1,-1,0
24533,-983040,82,-56,-1,-1,0
24566,-917504,82,-56,-1,-1,0
24600,-983040,82,-56,-1,-1,0
24633,-851968,82,-56,-1,-1,0
24666,-851968,82,-56,-1,-1,0
24700,-917504,82,-56,-1,-1,0
24733,8650752,82,-56,-1,-1,0
24766,-2686976,82,-56,-1,-1,0
24800,-65536,82,-56,-1,-1,0
24833,655360,82,-56,-1,-1,0
24866,2752512,82,-56,-1,-1,0
24900,5373952,82,-56,-1,-1,0
24933,2031616,82,-56,-1,-1,0
24966,-524288,82,-56,-1,-1,0
25000,-983040,82,-56,-1,-1,0
25033,-983040,82,-56,-1,-1,0
25066,-720896,82,-56,-1,-1,0
25100,-589824,82,-56,-1,-1,0
25133,-720896,82,-56,-1,-1,0
25166,-917504,82,-56,-1,-1,0
25200,-983040,82,-56,-1,-1,0
25233,-851968,82,-56,-1,-1,0
25266,-917504,82,-56,-1,-1,0
25300,-917504,82,-56,-1,-1,0
25333,-1048576,82,-56,-1,-1,0
25366,-917504,82,-56,-1,-1,0
25400,-786432,82,-56,-1,-1,0
25433,-983040,82,-56,-1,-1,0
25466,-1114112,82,-56,-1,-1,0
25500,7143424,82,-56,-1,-1,0
25533,-2293760,82,-56,-1,-1,0
25566,-262144,82,-56,-1,-1,0
25600,655360,82,-56,-1,-1,0
25633,3014656,82,-56,-1,-1,0
25666,5570560,82,-56,-1,-1,0
25700,2162688,82,-56,-1,-1,0
25733,-393216,82,-56,-1,-1,0
25766,-655360,82,-56,-1,-1,0
25800,-786432,82,-56,-1,-1,0
25833,-458752,82,-56,-1,-1,0
25866,-327680,82,-56,-1,-1,0
25900,-524288,82,-56,-1,-1,0
25933,-655360,82,-56,-1,-1,0
25966,-655360,82,-56,-1,-1,0
26000,-720896,82,-56,-1,-1,0
26033,-720896,82,-56,-1,-1,0
26066,-655360,82,-56,-1,-1,0
26099,-786432,82,-56,-1,-1,0
26133,-851968,82,-56,-1,-1,0
26166,-655360,82,-56,-1,-1,0
26200,-851968,82,-56,-1,-1,0
26233,-851968,82,-56,-1,-1,0
26266,4456448,82,-56,-1,-1,0
26300,-4194304,82,-56,-1,-1,0
26333,-393216,82,-56,-1,-1,0
26366,65536,82,-56,-1,-1,0
26400,1376256,82,-56,-1,-1,0
26433,4456448,82,-56,-1,-1,0
26466,4063232,82,-56,-1,-1,0
26500,0,81,-56,-1,-1,0
26533,-917504,81,-56,-1,-1,0
26566,-983040,81,-56,-1,-1,0
26599,-851968,81,-56,-1,-1,0
26633,-786432,81,-56,-1,-1,0
26666,-655360,81,-56,-1,-1,0
26700,-786432,81,-56,-1,-1,0
26733,-851968,81,-56,-1,-1,0
26766,-851968,81,-56,-1,-1,0
26800,-786432,81,-56,-1,-1,0
26833,-786432,81,-56,-1,-1,0
26866,-655360,81,-56,-1,-1,0
26900,-720896,81,-56,-1,-1,0
26933,-720896,81,-56,-1,-1,0
26966,-786432,81,-56,-1,-1,0
27000,-458752,81,-56,-1,-1,0
27033,-851968,81,-56,-1,-1,0
27066,-720896,81,-56,-1,-1,0
27099,262144,81,-56,-1,-1,0
27133,-1376256,81,-56,-1,-1,0
27166,-720896,81,-56,-1,-1,0
27200,0,81,-56,-1,-1,0
27233,1048576,81,-56,-1,-1,0
27266,3735552,81,-56,-1,-1,0
27300,4980736,81,-56,-1,-1,0
27333,1048576,81,-56,-1,-1,0
27366,-458752,81,-56,-1,-1,0
27400,-720896,81,-56,-1,-1,0
27433,-720896,81,-56,-1,-1,0
27466,-458752,81,-56,-1,-1,0
27500,-393216,81,-56,-1,-1,0
27533,-589824,81,-56,-1,-1,0
27566,-589824,81,-56,-1,-1,0
27599,-655360,81,-56,-1,-1,0
27633,-720896,81,-56,-1,-1,0
27666,-720896,81,-56,-1,-1,0
27700,-851968,81,-56,-1,-1,0
27733,-786432,81,-56,-1,-1,0
27766,-917504,81,-56,-1,-1,0
27800,-917504,81,-56,-1,-1,0
27833,-655360,81,-56,-1,-1,0
27866,-851968,81,-56,-1,-1,0
27900,-589824,81,-56,-1,-1,0
27933,3342336,81,-56,-1,-1,0
27966,-3604480,81,-56,-1,-1,0
28000,-196608,81,-56,-1,-1,0
28033,393216,76,-56,-1,-1,0
28066,1376256,76,-56,-1,-1,0
28099,4325376,76,-56,-1,-1,0
28133,4915200,76,-56,-1,-1,0
28166,786432,76,-56,-1,-1,0
28200,-786432,76,-56,-1,-1,0
28233,-1245184,76,-56,-1,-1,0
28266,-983040,76,-56,-1,-1,0
28300,-786432,76,-56,-1,-1,0
28333,-720896,76,-56,-1,-1,0
28366,-851968,76,-56,-1,-1,0
28400,-786432,76,-56,-1,-1,0
28433,-786432,76,-56,-1,-1,0
28466,-786432,76,-56,-1,-1,0
28500,-851968,76,-56,-1,-1,0
28533,-458752,76,-56,-1,-1,0
28566,-720896,76,-56,-1,-1,0
28599,-786432,76,-56,-1,-1,0
28633,1114112,76,-56,-1,-1,0
28666,-3866624,76,-56,-1,-1,0
28700,-720896,74,-56,-1,-1,0
28733,65536,74,-56,-1,-1,0
28766,1179648,74,-56,-1,-1,0
28800,3997696,74,-56,-1,-1,0
28833,4718592,74,-56,-1,-1,0
28866,589824,74,-56,-1,-1,0
28900,-720896,74,-56,-1,-1,0
28933,-983040,74,-56,-1,-1,0
28966,-786432,74,-56,-1,-1,0
29000,-589824,74,-56,-1,-1,0
29033,-720896,74,-56,-1,-1,0
29066,-851968,74,-56,-1,-1,0
29099,-983040,74,-56,-1,-1,0
29133,-1179648,74,-56,-1,-1,0
29166,-1245184,74,-56,-1,-1,0
29200,-1179648,74,-56,-1,-1,0
29233,-1507328,74,-56,-1,-1,0
29266,-1376256,74,-56,-1,-1,0
29300,7798784,74,-56,-1,-1,0
29333,-4063232,73,-56,-1,-1,0
29366,-655360,73,-56,-1,-1,0
29400,0,73,-56,-1,-1,0
29433,1703936,73,-56,-1,-1,0
29466,4784128,73,-56,-1,-1,0
29500,2752512,73,-56,-1,-1,0
29533,-851968,73,-56,-1,-1,0
29566,-1507328,73,-56,-1,-1,0
29599,-1572864,73,-56,-1,-1,0
29633,-1114112,73,-56,-1,-1,0
29666,-1048576,73,-56,-1,-1,0
29700,-1245184,73,-56,-1,-1,0
29733,-1245184,73,-56,-1,-1,0
29766,-1179648,73,-56,-1,-1,0
29800,-1179648,73,-56,-1,-1,0
29833,-1048576,73,-56,-1,-1,0
29866,-1179648,73,-56,-1,-1,0
29900,-1179648,73,-56,-1,-1,0
29933,8388608,73,-56,-1,-1,0
29966,-3080192,73,-56,-1,-1,0
30000,-393216,73,-56,-1,-1,0
30033,196608,73,-56,-1,-1,0
30066,2228224,73,-56,-1,-1,0
30099,5177344,73,-56,-1,-1,0
30133,2555904,73,-56,-1,-1,0
30166,-589824,73,-56,-1,-1,0
30200,-917504,73,-56,-1,-1,0
30233,-983040,73,-56,-1,-1,0
30266,-720896,73,-56,-1,-1,0
30300,-524288,73,-56,-1,-1,0
30333,-589824,73,-56,-1,-1,0
30366,-655360,73,-56,-1,-1,0
30400,-720896,73,-56,-1,-1,0
30433,-786432,73,-56,-1,-1,0
30466,-589824,73,-56,-1,-1,0
30500,-786432,73,-56,-1,-1,0
30533,-720896,73,-56,-1,-1,0
30566,-655360,73,-56,-1,-1,0
30599,3538944,73,-56,-1,-1,0
30633,-983040,73,-56,-1,-1,0
30666,262144,72,-56,-1,-1,0
30700,1114112,72,-56,-1,-1,0
30733,3670016,72,-56,-1,-1,0
30766,5898240,72,-56,-1,-1,0
30800,1966080,72,-56,-1,-1,0
30833,-327680,72,-56,-1,-1,0
30866,-720896,72,-56,-1,-1,0
30900,-786432,72,-56,-1,-1,0
30933,-589824,72,-56,-1,-1,0
30966,-524288,72,-56,-1,-1,0
31000,-655360,72,-56,-1,-1,0
31033,-786432,72,-56,-1,-1,0
31066,-917504,72,-56,-1,-1,0
31099,-1179648,72,-56,-1,-1,0
31133,-1114112,72,-56,-1,-1,0
31166,-983040,72,-56,-1,-1,0
31200,-1376256,72,-56,-1,-1,0
31233,-1376256,72,-56,-1,-1,0
31266,7274496,72,-56,-1,-1,0
31300,-4063232,72,-56,-1,-1,0
31333,-720896,72,-56,-1,-1,0
31366,-65536,72,-56,-1,-1,0
31400,1572864,72,-56,-1,-1,0
31433,4587520,72,-56,-1,-1,0
31466,3080192,72,-56,-1,-1,0
31500,-65536,72,-56,-1,-1,0
31533,-720896,72,-56,-1,-1,0
31566,-786432,72,-56,-1,-1,0
31599,-458752,72,-56,-1,-1,0
31633,-131072,72,-56,-1,-1,0
31666,-196608,72,-56,-1,-1,0
31700,-262144,72,-56,-1,-1,0
31733,-327680,72,-56,-1,-1,0
31766,-327680,72,-56,-1,-1,0
31800,-262144,72,-56,-1,-1,0
31833,-262144,72,-56,-1,-1,0
31866,0,72,-56,-1,-1,0
31900,-327680,72,-56,-1,-1,0
31933,-393216,72,-56,-1,-1,0
31966,65536,72,-56,-1,-1,0
32000,-1245184,72,-56,-1,-1,0
32033,-1179648,72,-56,-1,-1,0
32066,-196608,71,-56,-1,-1,0
32100,589824,71,-56,-1,-1,0
32133,3145728,71,-56,-1,-1,0
32166,4521984,71,-56,-1,-1,0
32200,720896,71,-56,-1,-1,0
32233,-1179648,71,-56,-1,-1,0
32266,-1572864,71,-56,-1,-1,0
32299,-1507328,71,-56,-1,-1,0
32333,-1179648,71,-56,-1,-1,0
32366,-1048576,71,-56,-1,-1,0
32400,-1310720,71,-56,-1,-1,0
32433,-1376256,71,-56,-1,-1,0
32466,-1376256,71,-56,-1,-1,0
32500,-1507328,71,-56,-1,-1,0
32533,-1376256,71,-56,-1,-1,0
32566,-1245184,71,-56,-1,-1,0
32600,-1376256,71,-56,-1,-1,0
32633,-1376256,71,-56,-1,-1,0
32666,6750208,71,-56,-1,-1,0
32700,-2752512,71,-56,-1,-1,0
32733,-327680,71,-56,-1,-1,0
32766,393216,71,-56,-1,-1,0
32800,2359296,70,-56,-1,-1,0
32833,5308416,70,-56,-1,-1,0
32866,2621440,70,-56,-1,-1,0
32900,-393216,70,-56,-1,-1,0
32933,-851968,70,-56,-1,-1,0
32966,-983040,70,-56,-1,-1,0
33000,-655360,70,-56,-1,-1,0
33033,-589824,70,-56,-1,-1,0
33066,-851968,70,-56,-1,-1,0
33100,-851968,70,-56,-1,-1,0
33133,-983040,70,-56,-1,-1,0
33166,-1179648,70,-56,-1,-1,0
33200,-1114112,70,-56,-1,-1,0
33233,-1179648,70,-56,-1,-1,0
33266,-1179648,70,-56,-1,-1,0
33300,-655360,70,-56,-1,-1,0
33333,-1114112,70,-56,-1,-1,0
33366,-917504,70,-56,-1,-1,0
33400,1179648,70,-56,-1,-1,0
33433,-2686976,70,-56,-1,-1,0
33466,-524288,70,-56,-1,-1,0
33500,65536,70,-56,-1,-1,0
33533,1179648,70,-56,-1,-1,0
33566,3801088,70,-56,-1,-1,0
33600,5177344,70,-56,-1,-1,0
33633,1376256,70,-56,-1,-1,0
33666,-196608,70,-56,-1,-1,0
33700,-458752,70,-56,-1,-1,0
33733,-458752,71,-56,-1,-1,0
33766,-327680,71,-56,-1,-1,0
33800,-327680,71,-56,-1,-1,0
33833,-458752,71,-56,-1,-1,0
33866,-655360,71,-56,-1,-1,0
33900,-655360,71,-56,-1,-1,0
33933,-589824,71,-56,-1,-1,0
33966,-524288,71,-56,-1,-1,0
34000,-524288,71,-56,-1,-1,0
34033,-786432,71,-56,-1,-1,0
34066,-655360,71,-56,-1,-1,0
34100,-786432,71,-56,-1,-1,0
34133,-786432,71,-56,-1,-1,0
34166,-720896,71,-56,-1,-1,0
34200,-786432,71,-56,-1,-1,0
34233,-589824,71,-56,-1,-1,0
34266,-720896,71,-56,-1,-1,0
34300,-655360,71,-56,-1,-1,0
34333,8388608,71,-56,-1,-1,0
34366,-3473408,71,-56,-1,-1,0
34400,0,71,-56,-1,-1,0
34433,524288,71,-56,-1,-1,0
34466,1966080,71,-56,-1,-1,0
34500,4849664,71,-56,-1,-1,0
34533,3735552,71,-56,-1,-1,0
34566,196608,71,-56,-1,-1,0
34600,-786432,71,-56,-1,-1,0
34633,-917504,71,-56,-1,-1,0
34666,-655360,71,-56,-1,-1,0
34700,-524288,71,-56,-1,-1,0
34733,-589824,71,-56,-1,-1,0
34766,-720896,71,-56,-1,-1,0
34800,-851968,71,-56,-1,-1,0
34833,-851968,71,-56,-1,-1,0
34866,-786432,71,-56,-1,-1,0
34900,-917504,71,-56,-1,-1,0
34933,-720896,71,-56,-1,-1,0
34966,-1048576,71,-56,-1,-1,0
35000,-1048576,71,-56,-1,-1,0
35033,-393216,71,-56,-1,-1,0
35066,-589824,71,-56,-1,-1,0
35100,-1048576,71,-56,-1,-1,0
35133,0,71,-56,-1,-1,0
35166,851968,71,-56,-1,-1,0
35200,3342336,71,-56,-1,-1,0
35233,5505024,71,-56,-1,-1,0
35266,1769472,71,-56,-1,-1,0
35300,-458752,71,-56,-1,-1,0
35333,-917504,71,-56,-1,-1,0
35366,-917504,71,-56,-1,-1,0
35400,-655360,71,-56,-1,-1,0
35433,-655360,71,-56,-1,-1,0
35466,-720896,71,-56,-1,-1,0
35500,-851968,71,-56,-1,-1,0
35533,-851968,71,-56,-1,-1,0
35566,-917504,71,-56,-1,-1,0
35600,-917504,71,-56,-1,-1,0
35633,-983040,71,-56,-1,-1,0
35666,-720896,71,-56,-1,-1,0
35700,-1048576,71,-56,-1,-1,0
35733,-1048576,71,-56,-1,-1,0
35766,7012352,71,-56,-1,-1,0
35800,-4259840,71,-56,-1,-1,0
35833,-393216,71,-56,-1,-1,0
35866,196608,71,-56,-1,-1,0
35900,1638400,71,-56,-1,-1,0
35933,4784128,71,-56,-1,-1,0
35966,4587520,71,-56,-1,-1,0
36000,262144,71,-56,-1,-1,0
36033,-786432,71,-56,-1,-1,0
36066,-1114112,71,-56,-1,-1,0
36100,-983040,71,-56,-1,-1,0
36133,-786432,71,-56,-1,-1,0
36166,-917504,71,-56,-1,-1,0
36200,-983040,71,-56,-1,-1,0
36233,-983040,71,-56,-1,-1,0
36266,-983040,71,-56,-1,-1,0
36300,-983040,71,-56,-1,-1,0
36333,-983040,71,-56,-1,-1,0
36366,-655360,71,-56,-1,-1,0
36400,-917504,71,-56,-1,-1,0
36433,-917504,71,-56,-1,-1,0
36466,1441792,71,-56,-1,-1,0
36500,-3342336,71,-56,-1,-1,0
36533,-786432,71,-56,-1,-1,0
36566,0,71,-56,-1,-1,0
36600,1048576,71,-56,-1,-1,0
36633,3670016,71,-56,-1,-1,0
36666,5046272,71,-56,-1,-1,0
36700,1245184,71,-56,-1,-1,0
36733,-458752,71,-56,-1,-1,0
36766,-851968,71,-56,-1,-1,0
36800,-851968,71,-56,-1,-1,0
36833,-720896,71,-56,-1,-1,0
36866,-786432,71,-56,-1,-1,0
36900,-917504,71,-56,-1,-1,0
36933,-983040,71,-56,-1,-1,0
36966,-1048576,71,-56,-1,-1,0
37000,-917504,71,-56,-1,-1,0
37033,-917504,71,-56,-1,-1,0
37066,-720896,71,-56,-1,-1,0
37100,-917504,71,-56,-1,-1,0
37133,-917504,71,-56,-1,-1,0
37166,-262144,71,-56,-1,-1,0
37200,-983040,71,-56,-1,-1,0
37233,-1114112,71,-56,-1,-1,0
37266,0,71,-56,-1,-1,0
37300,786432,71,-56,-1,-1,0
37333,3014656,71,-56,-1,-1,0
37366,4784128,71,-56,-1,-1,0
37400,1507328,71,-56,-1,-1,0
37433,-458752,71,-56,-1,-1,0
37466,-917504,71,-56,-1,-1,0
37500,-851968,71,-56,-1,-1,0
37533,-720896,71,-56,-1,-1,0
37566,-720896,71,-56,-1,-1,0
37600,-851968,71,-56,-1,-1,0
37633,-983040,71,-56,-1,-1,0
37666,-1179648,71,-56,-1,-1,0
37700,-1114112,71,-56,-1,-1,0
37733,-1114112,71,-56,-1,-1,0
37766,-983040,71,-56,-1,-1,0
37800,-1048576,71,-56,-1,-1,0
37833,-917504,71,-56,-1,-1,0
37866,7798784,71,-56,-1,-1,0
37900,-2490368,71,-56,-1,-1,0
37933,0,71,-56,-1,-1,0
37966,589824,71,-56,-1,-1,0
38000,2424832,71,-56,-1,-1,0
38033,5439488,71,-56,-1,-1,0
38066,3538944,71,-56,-1,-1,0
38100,0,71,-56,-1,-1,0
38133,-589824,71,-56,-1,-1,0
38166,-851968,71,-56,-1,-1,0
38200,-655360,71,-56,-1,-1,0
38233,-393216,71,-56,-1,-1,0
38266,-524288,71,-56,-1,-1,0
38300,-720896,71,-56,-1,-1,0
38333,-720896,71,-56,-1,-1,0
38366,-917504,71,-56,-1,-1,0
38400,-720896,71,-56,-1,-1,0
38433,-786432,71,-56,-1,-1,0
38466,-1048576,71,-56,-1,-1,0
38500,-1179648,71,-56,-1,-1,0
38533,4915200,71,-56,-1,-1,0
38566,-2424832,71,-56,-1,-1,0
38600,-655360,71,-56,-1,-1,0
38633,0,71,-56,-1,-1,0
38666,1966080,71,-56,-1,-1,0
38700,4718592,71,-56,-1,-1,0
38733,1900544,71,-56,-1,-1,0
38766,-1114112,71,-56,-1,-1,0
38800,-1638400,71,-56,-1,-1,0
38833,-1769472,71,-56,-1,-1,0
38866,-1703936,71,-56,-1,-1,0
38900,-1441792,71,-56,-1,-1,0
38933,-1507328,71,-56,-1,-1,0
38966,-1441792,71,-56,-1,-1,0
39000,-1441792,71,-56,-1,-1,0
39033,-1572864,71,-56,-1,-1,0
39066,-1441792,71,-56,-1,-1,0
39100,-1441792,71,-56,-1,-1,0
39133,-1048576,71,-56,-1,-1,0
39166,-1310720,71,-56,-1,-1,0
39200,-983040,71,-56,-1,-1,0
39233,1638400,71,-56,-1,-1,0
39266,-3735552,71,-56,-1,-1,0
39300,-720896,71,-56,-1,-1,0
39333,0,71,-56,-1,-1,0
39366,983040,70,-56,-1,-1,0
39400,3604480,70,-56,-1,-1,0
39433,5177344,70,-56,-1,-1,0
39466,1114112,70,-56,-1,-1,0
39500,-655360,70,-56,-1,-1,0
39533,-983040,70,-56,-1,-1,0
39566,-917504,70,-56,-1,-1,0
39600,-655360,70,-56,-1,-1,0
39633,-524288,70,-56,-1,-1,0
39666,-786432,70,-56,-1,-1,0
39700,-786432,70,-56,-1,-1,0
39733,-786432,70,-56,-1,-1,0
39766,-720896,70,-56,-1,-1,0
39800,-786432,70,-56,-1,-1,0
39833,-786432,70,-56,-1,-1,0
39866,-524288,70,-56,-1,-1,0
39900,-720896,70,-56,-1,-1,0
39933,-655360,70,-56,-1,-1,0
39966,9240576,70,-56,-1,-1,0
40000,-3276800,70,-56,-1,-1,0
40033,0,70,-56,-1,-1,0
40066,655360,70,-56,-1,-1,0
40100,2162688,70,-56,-1,-1,0
40133,5177344,70,-56,-1,-1,0
40166,4587520,70,-56,-1,-1,0
40200,458752,70,-56,-1,-1,0
40233,-393216,70,-56,-1,-1,0
40266,-589824,70,-56,-1,-1,0
40300,-524288,70,-56,-1,-1,0
40333,-262144,70,-56,-1,-1,0
40366,-65536,70,-56,-1,-1,0
40400,-327680,70,-56,-1,-1,0
40433,-262144,70,-56,-1,-1,0
40466,-393216,70,-56,-1,-1,0
40500,-589824,70,-56,-1,-1,0
40533,-720896,70,-56,-1,-1,0
40566,-851968,70,-56,-1,-1,0
40600,-589824,70,-56,-1,-1,0
40633,-851968,70,-56,-1,-1,0
40666,-786432,70,-56,-1,-1,0
40700,-1048576,70,-56,-1,-1,0
40733,3276800,70,-56,-1,-1,0
40766,-1572864,70,-56,-1,-1,0
40800,-131072,70,-56,-1,-1,0
40833,524288,70,-56,-1,-1,0
40866,2555904,70,-56,-1,-1,0
40900,5242880,70,-56,-1,-1,0
40933,2555904,70,-56,-1,-1,0
40966,-327680,70,-56,-1,-1,0
41000,-589824,70,-56,-1,-1,0
41033,-720896,70,-56,-1,-1,0
41066,-524288,70,-56,-1,-1,0
41100,-262144,70,-56,-1,-1,0
41133,-262144,70,-56,-1,-1,0
41166,-458752,70,-56,-1,-1,0
41200,-327680,69,-56,-1,-1,0
41233,-327680,69,-56,-1,-1,0
41266,-327680,69,-56,-1,-1,0
41300,-393216,69,-56,-1,-1,0
41333,-262144,69,-56,-1,-1,0
41366,-327680,69,-56,-1,-1,0
41400,-393216,69,-56,-1,-1,0
41433,-393216,69,-56,-1,-1,0
41466,-589824,69,-56,-1,-1,0
41500,-524288,69,-56,-1,-1,0
41533,-458752,69,-56,-1,-1,0
41566,-458752,69,-56,-1,-1,0
41600,-393216,69,-56,-1,-1,0
41633,-458752,69,-56,-1,-1,0
41666,-458752,69,-56,-1,-1,0
41700,-327680,69,-56,-1,-1,0
41733,-655360,69,-56,-1,-1,0
41766,-655360,69,-56,-1,-1,0
41800,7667712,69,-56,-1,-1,0
41833,-3670016,69,-56,-1,-1,0
41866,-327680,69,-56,-1,-1,0
41900,262144,69,-56,-1,-1,0
41933,1376256,69,-56,-1,-1,0
41966,4063232,69,-56,-1,-1,0
42000,4587520,69,-56,-1,-1,0
42033,917504,69,-56,-1,-1,0
42066,-327680,69,-56,-1,-1,0
42100,-720896,69,-56,-1,-1,0
42133,-851968,69,-56,-1,-1,0
42166,-917504,69,-56,-1,-1,0
42200,-720896,69,-56,-1,-1,0
42233,-983040,69,-56,-1,-1,0
42266,-1114112,69,-56,-1,-1,0
42300,-1310720,69,-56,-1,-1,0
42333,-1441792,69,-56,-1,-1,0
42366,-1376256,69,-56,-1,-1,0
42400,-1507328,69,-56,-1,-1,0
42433,-1441792,69,-56,-1,-1,0
42466,-1441792,69,-56,-1,-1,0
42500,-1507328,69,-56,-1,-1,0
42533,-1310720,69,-56,-1,-1,0
42566,-1245184,69,-56,-1,-1,0
42600,-983040,69,-56,-1,-1,0
42633,-917504,69,-56,-1,-1,0
42666,-786432,69,-56,-1,-1,0
42700,-327680,69,-56,-1,-1,0
42733,0,69,-56,-1,-1,0
42766,-917504,69,-56,-1,-1,0
42800,327680,69,-56,-1,-1,0
42833,1114112,69,-56,-1,-1,0
42866,2883584,69,-56,-1,-1,0
42900,5177344,69,-56,-1,-1,0
42933,2621440,69,-56,-1,-1,0
42966,-393216,69,-56,-1,-1,0
43000,-917504,69,-56,-1,-1,0
43033,-1114112,69,-56,-1,-1,0
43066,-983040,69,-56,-1,-1,0
43100,-720896,69,-56,-1,-1,0
43133,-851968,69,-56,-1,-1,0
43166,-917504,69,-56,-1,-1,0
43200,-1048576,69,-56,-1,-1,0
43233,-917504,69,-56,-1,-1,0
43266,-1048576,69,-56,-1,-1,0
43300,-983040,69,-56,-1,-1,0
43333,-720896,69,-56,-1,-1,0
43366,-851968,69,-56,-1,-1,0
43400,-786432,69,-56,-1,-1,0
43433,8847360,69,-56,-1,-1,0
43466,-3276800,69,-56,-1,-1,0
43500,-65536,70,-56,-1,-1,0
43533,458752,70,-56,-1,-1,0
43566,1769472,70,-56,-1,-1,0
43600,4980736,70,-56,-1,-1,0
43633,4849664,70,-56,-1,-1,0
43666,458752,70,-56,-1,-1,0
43700,-589824,70,-56,-1,-1,0
43733,-917504,70,-56,-1,-1,0
43766,-851968,70,-56,-1,-1,0
43800,-458752,70,-56,-1,-1,0
43833,-393216,70,-56,-1,-1,0
43866,-655360,70,-56,-1,-1,0
43900,-720896,70,-56,-1,-1,0
43933,-851968,70,-56,-1,-1,0
43966,-983040,70,-56,-1,-1,0
44000,-589824,70,-56,-1,-1,0
44033,-983040,70,-56,-1,-1,0
44066,-917504,70,-56,-1,-1,0
44100,262144,70,-56,-1,-1,0
44133,-1703936,70,-56,-1,-1,0
44166,-851968,70,-56,-1,-1,0
44200,0,70,-56,-1,-1,0
44233,720896,70,-56,-1,-1,0
44266,3080192,70,-56,-1,-1,0
44300,5439488,70,-56,-1,-1,0
44333,1900544,70,-56,-1,-1,0
44366,-589824,70,-56,-1,-1,0
44400,-983040,70,-56,-1,-1,0
44433,-983040,70,-56,-1,-1,0
44466,-786432,70,-56,-1,-1,0
44500,-655360,70,-56,-1,-1,0
44533,-786432,70,-56,-1,-1,0
44566,-1048576,70,-56,-1,-1,0
44600,-1048576,70,-56,-1,-1,0
44633,-1114112,70,-56,-1,-1,0
44666,-1048576,70,-56,-1,-1,0
44700,-1114112,70,-56,-1,-1,0
44733,-1114112,70,-56,-1,-1,0
44766,-983040,70,-56,-1,-1,0
44800,-983040,70,-56,-1,-1,0
44833,-983040,70,-56,-1,-1,0
44866,-720896,70,-56,-1,-1,0
44900,2359296,70,-56,-1,-1,0
44933,-1179648,70,-56,-1,-1,0
44966,0,70,-56,-1,-1,0
45000,655360,70,-56,-1,-1,0
45033,2686976,70,-56,-1,-1,0
45066,5505024,68,-56,-1,-1,0
45100,3014656,68,-56,-1,-1,0
45133,-196608,68,-56,-1,-1,0
45166,-720896,68,-56,-1,-1,0
45200,-851968,68,-56,-1,-1,0
45233,-851968,68,-56,-1,-1,0
45266,-786432,68,-56,-1,-1,0
45300,-720896,68,-56,-1,-1,0
45333,-786432,68,-56,-1,-1,0
45366,-851968,68,-56,-1,-1,0
45400,-917504,68,-56,-1,-1,0
45433,-917504,68,-56,-1,-1,0
45466,-917504,68,-56,-1,-1,0
45500,-983040,68,-56,-1,-1,0
45533,-983040,68,-56,-1,-1,0
45566,-589824,68,-56,-1,-1,0
45600,-851968,68,-56,-1,-1,0
45633,-655360,68,-56,-1,-1,0
45666,5767168,68,-56,-1,-1,0
45700,-3932160,68,-56,-1,-1,0
45733,-262144,68,-56,-1,-1,0
45766,262144,68,-56,-1,-1,0
45800,1441792,68,-56,-1,-1,0
45833,4194304,67,-56,-1,-1,0
45866,5505024,67,-56,-1,-1,0
45900,1310720,67,-56,-1,-1,0
45933,-262144,67,-56,-1,-1,0
45966,-655360,67,-56,-1,-1,0
46000,-589824,67,-56,-1,-1,0
46033,-655360,67,-56,-1,-1,0
46066,-458752,67,-56,-1,-1,0
46100,-655360,67,-56,-1,-1,0
46133,-851968,67,-56,-1,-1,0
46166,-917504,67,-56,-1,-1,0
46200,-983040,67,-56,-1,-1,0
46233,-1048576,67,-56,-1,-1,0
46266,-983040,67,-56,-1,-1,0
46300,-1048576,67,-56,-1,-1,0
46333,-786432,67,-56,-1,-1,0
46366,-983040,67,-56,-1,-1,0
46400,-983040,67,-56,-1,-1,0
46433,-917504,67,-56,-1,-1,0
46466,2424832,67,-56,-1,-1,0
46500,-1835008,67,-56,-1,-1,0
46533,-262144,67,-56,-1,-1,0
46566,393216,67,-56,-1,-1,0
46600,2228224,67,-56,-1,-1,0
46633,5111808,66,-56,-1,-1,0
46666,2949120,66,-56,-1,-1,0
46700,-262144,66,-56,-1,-1,0
46733,-786432,66,-56,-1,-1,0
46766,-1048576,66,-56,-1,-1,0
46800,-983040,66,-56,-1,-1,0
46833,-851968,66,-56,-1,-1,0
46866,-851968,66,-56,-1,-1,0
46900,-917504,66,-56,-1,-1,0
46933,-917504,66,-56,-1,-1,0
46966,-851968,66,-56,-1,-1,0
47000,-786432,66,-56,-1,-1,0
47033,-786432,66,-56,-1,-1,0
47066,-786432,66,-56,-1,-1,0
47100,-917504,66,-56,-1,-1,0
47133,-720896,66,-56,-1,-1,0
47166,-1048576,66,-56,-1,-1,0
47200,-917504,66,-56,-1,-1,0
47233,8060928,66,-56,-1,-1,0
47266,-3997696,66,-56,-1,-1,0
47300,-196608,66,-56,-1,-1,0
47333,393216,66,-56,-1,-1,0
47366,1572864,66,-56,-1,-1,0
47400,4521984,66,-56,-1,-1,0
47433,5242880,66,-56,-1,-1,0
47466,851968,66,-56,-1,-1,0
47500,-524288,66,-56,-1,-1,0
47533,-655360,66,-56,-1,-1,0
47566,-720896,66,-56,-1,-1,0
47600,-524288,66,-56,-1,-1,0
47633,-393216,66,-56,-1,-1,0
47666,-458752,66,-56,-1,-1,0
47700,-589824,64,-56,-1,-1,0
47733,-655360,64,-56,-1,-1,0
47766,-655360,64,-56,-1,-1,0
47800,-524288,64,-56,-1,-1,0
47833,-524288,64,-56,-1,-1,0
47866,-589824,64,-56,-1,-1,0
47900,-655360,64,-56,-1,-1,0
47933,-655360,64,-56,-1,-1,0
47966,-720896,64,-56,-1,-1,0
48000,-589824,64,-56,-1,-1,0
48033,-589824,64,-56,-1,-1,0
48066,-589824,64,-56,-1,-1,0
48100,-786432,64,-56,-1,-1,0
48133,-917504,64,-56,-1,-1,0
48166,-720896,64,-56,-1,-1,0
48200,-786432,64,-56,-1,-1,0
48233,-786432,64,-56,-1,-1,0
48266,-851968,64,-56,-1,-1,0
48300,6946816,64,-56,-1,-1,0
48333,-2031616,64,-56,-1,-1,0
48366,131072,64,-56,-1,-1,0
48400,655360,64,-56,-1,-1,0
48433,2228224,64,-56,-1,-1,0
48466,5111808,64,-56,-1,-1,0
48500,4521984,64,-56,-1,-1,0
48533,589824,61,-56,-1,-1,0
48566,-524288,61,-56,-1,-1,0
48600,-851968,61,-56,-1,-1,0
48633,-786432,61,-56,-1,-1,0
48666,-655360,61,-56,-1,-1,0
48700,-524288,61,-56,-1,-1,0
48733,-655360,61,-56,-1,-1,0
48766,-851968,61,-56,-1,-1,0
48800,-917504,61,-56,-1,-1,0
48833,-1048576,61,-56,-1,-1,0
48866,-1114112,61,-56,-1,-1,0
48900,-1114112,61,-56,-1,-1,0
48933,-917504,61,-56,-1,-1,0
48966,-983040,61,-56,-1,-1,0
49000,-1048576,61,-56,-1,-1,0
49033,-720896,61,-56,-1,-1,0
49066,-983040,61,-56,-1,-1,0
49100,-851968,61,-56,-1,-1,0
49133,262144,61,-56,-1,-1,0
49166,-1376256,61,-56,-1,-1,0
49200,-655360,61,-56,-1,-1,0
49233,262144,61,-56,-1,-1,0
49266,983040,61,-56,-1,-1,0
49300,3211264,62,-56,-1,-1,0
49333,5767168,62,-56,-1,-1,0
49366,3276800,62,-56,-1,-1,0
49400,-65536,62,-56,-1,-1,0
49433,-720896,62,-56,-1,-1,0
49466,-917504,62,-56,-1,-1,0
49500,-786432,62,-56,-1,-1,0
49533,-720896,62,-56,-1,-1,0
49566,-917504,62,-56,-1,-1,0
49600,-1114112,62,-56,-1,-1,0
49633,-1245184,62,-56,-1,-1,0
49666,-1245184,62,-56,-1,-1,0
49700,-1376256,62,-56,-1,-1,0
49733,-1376256,62,-56,-1,-1,0
49766,-1376256,62,-56,-1,-1,0
49800,-983040,62,-56,-1,-1,0
49833,-1245184,62,-56,-1,-1,0
49866,-1114112,62,-56,-1,-1,0
49900,2949120,62,-56,-1,-1,0
49933,-4456448,62,-56,-1,-1,0
49966,-851968,64,-56,-1,-1,0
50000,-131072,64,-56,-1,-1,0
