milliseconds, ECG, ECG HR, PPG, PPG HR, SpO2, PI,Landmark_0,Landmark_1,Landmark_2,Landmark_3,Landmark_4,Landmark_5,Landmark_6,Landmark_7,Landmark_8,Landmark_9,Landmark_10,Landmark_11,Landmark_12,Landmark_13,Landmark_14,Landmark_15,Landmark_16,Landmark_17,Landmark_18,Landmark_19,Landmark_20,Landmark_21,Landmark_22,Landmark_23,Landmark_24,Landmark_25,Landmark_26,Landmark_27,Landmark_28,Landmark_29,Landmark_30,Landmark_31,Landmark_32,Landmark_33,Landmark_34,Landmark_35,Landmark_36,Landmark_37,Landmark_38,Landmark_39,Landmark_40,Landmark_41,Landmark_42,Landmark_43,Landmark_44,Landmark_45,Landmark_46,Landmark_47,Landmark_48,Landmark_49,Landmark_50,Landmark_51,Landmark_52,Landmark_53,Landmark_54,Landmark_55,Landmark_56,Landmark_57,Landmark_58,Landmark_59,Landmark_60,Landmark_61,Landmark_62,Landmark_63,Landmark_64,Landmark_65,Landmark_66,Landmark_67,EyeAspectRatio,MouthAspectRatio,LightIntensity,FaceWidthRatio,EyebrowHeight,LipsWidthRatio,LipsHeightRatio,EyeOpening,NoseWidthRatio,NoseHeightRatio,AvgRedForehead,AvgGreenForehead,AvgBlueForehead,AvgRedLips,AvgGreenLips,AvgBlueLips,AvgRedCheeks,AvgGreenCheeks,AvgBlueCheeks
0,2097152,112,-56,-1,-1,0,"(1084, 379)","(1085, 405)","(1089, 430)","(1093, 455)","(1100, 479)","(1113, 501)","(1130, 520)","(1150, 535)","(1174, 539)","(1198, 534)","(1218, 519)","(1235, 499)","(1247, 477)","(1253, 452)","(1256, 427)","(1259, 402)","(1259, 377)","(1096, 371)","(1106, 360)","(1122, 357)","(1139, 360)","(1154, 367)","(1184, 366)","(1200, 358)","(1216, 355)","(1233, 358)","(1245, 369)","(1170, 384)","(1170, 402)","(1170, 420)","(1170, 439)","(1153, 447)","(1161, 451)","(1171, 454)","(1180, 451)","(1188, 447)","(1117, 386)","(1126, 381)","(1137, 381)","(1148, 387)","(1137, 390)","(1125, 390)","(1193, 386)","(1204, 380)","(1215, 379)","(1225, 384)","(1216, 389)","(1204, 389)","(1140, 477)","(1151, 474)","(1162, 472)","(1171, 475)","(1179, 472)","(1191, 473)","(1203, 476)","(1192, 487)","(1181, 493)","(1171, 495)","(1162, 494)","(1151, 488)","(1146, 478)","(1162, 479)","(1171, 481)","(1180, 479)","(1197, 477)","(1180, 481)","(1171, 482)","(1162, 481)",0.29,0.88,46.0,0.36,-0.0,0.36,0.02,-9.0,0.1,0.35,19.7,43.3,81.1,13.95,30.1,80.8,16.58,38.94,73.23
33,4194304,112,-56,-1,-1,0,"(1113, 424)","(1116, 451)","(1120, 477)","(1126, 502)","(1135, 526)","(1149, 549)","(1167, 567)","(1187, 582)","(1211, 586)","(1235, 581)","(1257, 566)","(1275, 547)","(1288, 523)","(1295, 498)","(1298, 472)","(1301, 444)","(1302, 417)","(1126, 418)","(1138, 408)","(1154, 407)","(1171, 411)","(1186, 418)","(1218, 417)","(1235, 408)","(1252, 403)","(1270, 404)","(1283, 413)","(1204, 436)","(1204, 455)","(1205, 475)","(1205, 495)","(1187, 501)","(1196, 506)","(1206, 509)","(1215, 505)","(1224, 500)","(1148, 438)","(1158, 435)","(1170, 434)","(1181, 439)","(1169, 443)","(1158, 443)","(1228, 437)","(1239, 432)","(1251, 431)","(1262, 434)","(1252, 440)","(1240, 440)","(1177, 529)","(1188, 527)","(1198, 526)","(1206, 528)","(1215, 525)","(1226, 526)","(1239, 528)","(1227, 540)","(1217, 546)","(1207, 547)","(1198, 546)","(1188, 540)","(1183, 531)","(1198, 533)","(1207, 534)","(1215, 532)","(1233, 529)","(1216, 532)","(1207, 534)","(1199, 533)",0.25,0.89,52.0,0.35,-0.03,0.32,0.01,-8.0,0.1,0.39,20.3,46.3,92.6,15.5,35.5,100.75,25.47,54.58,93.64
66,1638400,112,-56,-1,-1,0,"(1115, 426)","(1117, 454)","(1122, 480)","(1127, 505)","(1135, 530)","(1149, 553)","(1166, 572)","(1187, 587)","(1211, 591)","(1235, 586)","(1257, 571)","(1275, 551)","(1288, 528)","(1295, 502)","(1298, 476)","(1301, 449)","(1302, 421)","(1126, 422)","(1138, 412)","(1154, 411)","(1171, 415)","(1187, 423)","(1220, 421)","(1237, 412)","(1254, 408)","(1272, 409)","(1285, 418)","(1205, 440)","(1205, 460)","(1205, 480)","(1206, 501)","(1187, 506)","(1196, 511)","(1206, 514)","(1216, 510)","(1224, 505)","(1149, 442)","(1158, 439)","(1170, 439)","(1181, 443)","(1170, 447)","(1158, 447)","(1230, 442)","(1240, 437)","(1253, 436)","(1263, 439)","(1254, 444)","(1241, 445)","(1175, 534)","(1187, 532)","(1198, 531)","(1206, 534)","(1215, 531)","(1226, 531)","(1239, 532)","(1228, 545)","(1217, 551)","(1207, 552)","(1198, 551)","(1187, 545)","(1181, 535)","(1198, 538)","(1206, 539)","(1215, 537)","(1233, 534)","(1216, 538)","(1207, 540)","(1198, 538)",0.24,0.86,52.0,0.34,-0.01,0.34,0.02,-7.5,0.1,0.4,18.2,45.0,90.1,15.5,34.45,96.95,29.58,59.64,99.64
100,-851968,112,-56,-1,-1,0,"(1115, 430)","(1117, 457)","(1121, 484)","(1127, 509)","(1136, 534)","(1150, 557)","(1167, 577)","(1188, 593)","(1212, 597)","(1236, 592)","(1257, 575)","(1275, 555)","(1288, 531)","(1296, 505)","(1299, 478)","(1301, 451)","(1302, 424)","(1126, 425)","(1137, 416)","(1154, 415)","(1170, 419)","(1187, 427)","(1219, 426)","(1236, 416)","(1254, 411)","(1271, 412)","(1285, 421)","(1204, 444)","(1205, 464)","(1205, 484)","(1205, 505)","(1187, 510)","(1196, 515)","(1206, 519)","(1216, 515)","(1225, 509)","(1148, 446)","(1158, 443)","(1170, 443)","(1181, 447)","(1169, 451)","(1158, 451)","(1230, 446)","(1241, 441)","(1253, 440)","(1264, 443)","(1254, 448)","(1242, 449)","(1175, 538)","(1187, 537)","(1198, 535)","(1206, 538)","(1215, 535)","(1227, 536)","(1240, 536)","(1229, 551)","(1218, 558)","(1208, 559)","(1198, 558)","(1187, 552)","(1182, 540)","(1198, 542)","(1207, 543)","(1216, 542)","(1233, 538)","(1217, 545)","(1208, 546)","(1198, 545)",0.23,0.89,52.0,0.35,-0.02,0.34,0.02,-7.5,0.11,0.39,18.9,47.6,92.7,14.6,32.7,91.05,30.0,59.29,98.7
133,-917504,112,-56,-1,-1,0,"(1112, 432)","(1116, 460)","(1122, 487)","(1128, 512)","(1136, 537)","(1150, 560)","(1167, 581)","(1187, 597)","(1211, 601)","(1235, 597)","(1257, 580)","(1276, 560)","(1289, 536)","(1297, 510)","(1300, 483)","(1304, 455)","(1305, 426)","(1124, 430)","(1136, 420)","(1153, 419)","(1170, 424)","(1186, 432)","(1219, 430)","(1236, 421)","(1254, 416)","(1273, 416)","(1287, 426)","(1204, 448)","(1204, 469)","(1204, 490)","(1205, 511)","(1187, 515)","(1196, 520)","(1205, 524)","(1215, 520)","(1224, 515)","(1147, 449)","(1157, 446)","(1169, 446)","(1180, 451)","(1169, 455)","(1157, 455)","(1230, 450)","(1241, 444)","(1254, 443)","(1265, 446)","(1255, 452)","(1242, 453)","(1175, 543)","(1186, 541)","(1197, 540)","(1206, 543)","(1215, 540)","(1226, 541)","(1239, 541)","(1228, 556)","(1217, 563)","(1207, 564)","(1197, 563)","(1186, 556)","(1182, 544)","(1197, 547)","(1206, 548)","(1215, 546)","(1233, 543)","(1216, 550)","(1207, 551)","(1197, 550)",0.25,0.88,52.0,0.35,-0.01,0.33,0.02,-8.5,0.1,0.41,19.7,47.2,90.4,11.5,29.5,86.6,30.29,58.88,101.7
166,-458752,112,-56,-1,-1,0,"(1113, 435)","(1116, 463)","(1122, 490)","(1127, 515)","(1136, 540)","(1149, 563)","(1167, 583)","(1187, 600)","(1211, 604)","(1235, 599)","(1257, 583)","(1276, 563)","(1289, 539)","(1297, 513)","(1300, 486)","(1303, 458)","(1305, 430)","(1123, 433)","(1135, 423)","(1152, 422)","(1169, 427)","(1185, 435)","(1219, 434)","(1237, 424)","(1255, 420)","(1273, 421)","(1287, 430)","(1203, 452)","(1204, 472)","(1204, 494)","(1204, 515)","(1186, 518)","(1195, 523)","(1205, 527)","(1215, 523)","(1224, 518)","(1146, 452)","(1156, 449)","(1169, 449)","(1180, 454)","(1168, 457)","(1156, 458)","(1229, 453)","(1241, 447)","(1253, 447)","(1265, 450)","(1254, 456)","(1242, 456)","(1175, 545)","(1186, 544)","(1197, 544)","(1205, 547)","(1215, 544)","(1227, 544)","(1240, 544)","(1228, 558)","(1216, 564)","(1206, 565)","(1197, 564)","(1186, 557)","(1181, 547)","(1197, 550)","(1206, 551)","(1215, 550)","(1234, 546)","(1216, 551)","(1206, 553)","(1197, 551)",0.25,0.91,52.0,0.36,-0.01,0.33,0.02,-8.5,0.1,0.41,21.2,49.6,93.9,13.65,30.1,87.25,27.17,54.7,97.0
200,-589824,112,-56,-1,-1,0,"(1114, 439)","(1117, 467)","(1121, 493)","(1127, 518)","(1135, 542)","(1148, 565)","(1166, 585)","(1185, 602)","(1209, 606)","(1234, 602)","(1256, 586)","(1275, 566)","(1290, 543)","(1298, 517)","(1302, 490)","(1305, 463)","(1306, 434)","(1123, 436)","(1134, 427)","(1151, 426)","(1168, 431)","(1185, 438)","(1219, 437)","(1237, 428)","(1255, 423)","(1274, 424)","(1288, 433)","(1203, 456)","(1203, 476)","(1203, 497)","(1203, 518)","(1185, 521)","(1194, 527)","(1204, 531)","(1215, 526)","(1224, 521)","(1145, 455)","(1156, 453)","(1168, 453)","(1180, 457)","(1168, 461)","(1155, 461)","(1230, 456)","(1241, 451)","(1254, 451)","(1265, 453)","(1255, 459)","(1242, 460)","(1173, 547)","(1185, 547)","(1196, 546)","(1205, 549)","(1214, 546)","(1227, 546)","(1240, 546)","(1228, 560)","(1216, 566)","(1206, 567)","(1196, 566)","(1185, 560)","(1179, 549)","(1196, 552)","(1205, 554)","(1215, 552)","(1234, 548)","(1215, 553)","(1206, 555)","(1196, 553)",0.24,0.9,52.0,0.36,-0.01,0.34,0.02,-8.0,0.1,0.41,18.5,46.2,92.4,15.9,32.3,92.6,28.23,55.94,95.35
233,-851968,111,-56,-1,-1,0,"(1115, 441)","(1117, 468)","(1122, 494)","(1127, 520)","(1136, 544)","(1149, 568)","(1166, 589)","(1185, 606)","(1209, 610)","(1233, 605)","(1255, 588)","(1274, 568)","(1289, 544)","(1298, 519)","(1302, 492)","(1305, 465)","(1306, 437)","(1123, 438)","(1135, 429)","(1151, 428)","(1168, 433)","(1184, 441)","(1219, 440)","(1236, 431)","(1254, 426)","(1273, 427)","(1287, 436)","(1202, 458)","(1202, 479)","(1202, 500)","(1202, 521)","(1184, 525)","(1193, 530)","(1203, 534)","(1213, 530)","(1223, 525)","(1146, 458)","(1156, 455)","(1168, 455)","(1179, 460)","(1167, 463)","(1155, 463)","(1229, 459)","(1240, 453)","(1253, 453)","(1264, 456)","(1254, 462)","(1241, 462)","(1172, 550)","(1184, 550)","(1195, 550)","(1204, 553)","(1213, 550)","(1226, 550)","(1240, 549)","(1227, 563)","(1215, 570)","(1204, 572)","(1195, 570)","(1184, 563)","(1178, 552)","(1195, 556)","(1204, 557)","(1214, 556)","(1233, 551)","(1214, 557)","(1204, 559)","(1195, 557)",0.25,0.91,52.0,0.35,-0.0,0.35,0.02,-8.5,0.1,0.41,19.2,48.4,92.2,14.75,31.3,89.8,25.76,53.88,94.52
266,-1179648,111,-56,-1,-1,0,"(1114, 443)","(1116, 471)","(1120, 498)","(1126, 523)","(1134, 548)","(1147, 572)","(1163, 593)","(1183, 611)","(1207, 615)","(1232, 611)","(1255, 594)","(1274, 573)","(1289, 548)","(1298, 522)","(1302, 495)","(1305, 467)","(1306, 438)","(1121, 440)","(1133, 431)","(1149, 431)","(1166, 436)","(1183, 444)","(1217, 443)","(1234, 434)","(1253, 429)","(1272, 429)","(1286, 438)","(1201, 461)","(1201, 482)","(1201, 504)","(1200, 525)","(1182, 528)","(1191, 534)","(1201, 538)","(1212, 534)","(1222, 528)","(1144, 460)","(1154, 458)","(1166, 458)","(1178, 462)","(1166, 465)","(1154, 466)","(1228, 461)","(1240, 457)","(1252, 456)","(1264, 459)","(1253, 464)","(1240, 465)","(1171, 553)","(1182, 553)","(1193, 554)","(1202, 556)","(1212, 554)","(1225, 554)","(1239, 553)","(1226, 568)","(1213, 575)","(1202, 576)","(1192, 574)","(1182, 567)","(1177, 555)","(1193, 559)","(1202, 561)","(1212, 559)","(1233, 555)","(1212, 562)","(1202, 563)","(1193, 561)",0.22,0.93,52.0,0.36,-0.0,0.35,0.02,-7.0,0.1,0.41,18.0,46.6,90.3,13.9,29.0,84.45,28.23,57.23,99.76
300,-1048576,111,-56,-1,-1,0,"(1115, 447)","(1116, 474)","(1119, 500)","(1124, 525)","(1133, 550)","(1146, 574)","(1162, 595)","(1180, 612)","(1204, 617)","(1229, 613)","(1252, 597)","(1272, 576)","(1287, 552)","(1297, 525)","(1301, 498)","(1304, 470)","(1305, 441)","(1120, 441)","(1131, 432)","(1148, 432)","(1164, 437)","(1181, 445)","(1216, 445)","(1233, 436)","(1252, 431)","(1271, 432)","(1285, 441)","(1199, 462)","(1198, 484)","(1198, 505)","(1197, 527)","(1179, 529)","(1188, 535)","(1198, 540)","(1210, 536)","(1219, 530)","(1142, 461)","(1152, 459)","(1164, 459)","(1176, 464)","(1164, 467)","(1151, 467)","(1227, 464)","(1239, 459)","(1251, 459)","(1263, 461)","(1252, 467)","(1239, 467)","(1168, 555)","(1179, 555)","(1190, 556)","(1199, 559)","(1209, 556)","(1223, 557)","(1237, 557)","(1223, 572)","(1210, 578)","(1199, 579)","(1189, 577)","(1179, 569)","(1174, 557)","(1190, 561)","(1200, 563)","(1210, 562)","(1230, 558)","(1209, 565)","(1199, 566)","(1190, 564)",0.22,0.96,52.0,0.36,0.0,0.36,0.03,-8.0,0.1,0.41,21.1,48.0,92.6,12.3,28.3,84.75,27.82,54.58,95.64
333,-1179648,111,-56,-1,-1,0,"(1115, 449)","(1115, 476)","(1119, 502)","(1124, 526)","(1132, 551)","(1144, 575)","(1160, 597)","(1179, 614)","(1203, 620)","(1228, 616)","(1252, 599)","(1273, 579)","(1289, 554)","(1298, 527)","(1303, 499)","(1305, 470)","(1306, 441)","(1118, 444)","(1129, 434)","(1145, 434)","(1162, 439)","(1178, 447)","(1212, 446)","(1231, 437)","(1250, 432)","(1270, 433)","(1285, 443)","(1196, 465)","(1196, 486)","(1195, 507)","(1194, 529)","(1177, 531)","(1186, 537)","(1196, 542)","(1207, 537)","(1217, 532)","(1140, 463)","(1150, 460)","(1162, 461)","(1174, 465)","(1162, 469)","(1150, 469)","(1225, 465)","(1237, 460)","(1250, 460)","(1262, 463)","(1251, 469)","(1238, 469)","(1167, 557)","(1178, 557)","(1188, 558)","(1197, 561)","(1207, 558)","(1221, 558)","(1236, 559)","(1222, 574)","(1209, 580)","(1198, 581)","(1188, 579)","(1177, 572)","(1173, 559)","(1188, 563)","(1198, 565)","(1208, 564)","(1229, 560)","(1208, 567)","(1198, 569)","(1188, 567)",0.24,0.99,52.0,0.37,0.0,0.36,0.03,-9.0,0.1,0.41,19.6,48.6,94.6,12.55,29.65,84.8,30.05,58.82,100.76
366,2686976,111,-56,-1,-1,0,"(1115, 452)","(1115, 478)","(1118, 503)","(1122, 528)","(1130, 552)","(1143, 576)","(1159, 597)","(1178, 615)","(1201, 621)","(1227, 617)","(1251, 600)","(1271, 580)","(1287, 555)","(1297, 528)","(1301, 501)","(1304, 472)","(1305, 443)","(1117, 444)","(1127, 435)","(1143, 435)","(1160, 440)","(1176, 448)","(1210, 448)","(1229, 438)","(1248, 433)","(1268, 435)","(1283, 444)","(1194, 466)","(1193, 488)","(1193, 509)","(1192, 530)","(1175, 533)","(1184, 539)","(1194, 543)","(1205, 539)","(1215, 534)","(1138, 465)","(1148, 462)","(1160, 462)","(1172, 467)","(1160, 470)","(1148, 470)","(1223, 467)","(1234, 462)","(1247, 461)","(1259, 464)","(1248, 470)","(1235, 470)","(1165, 559)","(1176, 559)","(1186, 559)","(1195, 562)","(1205, 559)","(1219, 560)","(1234, 560)","(1220, 575)","(1207, 583)","(1196, 584)","(1186, 582)","(1175, 573)","(1172, 561)","(1186, 565)","(1196, 567)","(1206, 566)","(1227, 561)","(1206, 569)","(1196, 570)","(1186, 568)",0.23,0.99,52.0,0.36,0.0,0.36,0.03,-8.0,0.11,0.41,20.4,49.0,95.3,13.75,29.1,85.1,28.29,58.64,98.7
400,-1703936,111,-56,-1,-1,0,"(1109, 449)","(1110, 476)","(1115, 503)","(1120, 528)","(1127, 554)","(1140, 578)","(1157, 600)","(1176, 618)","(1200, 624)","(1225, 619)","(1248, 602)","(1268, 581)","(1283, 557)","(1292, 530)","(1295, 503)","(1297, 474)","(1298, 446)","(1113, 444)","(1124, 435)","(1140, 435)","(1157, 440)","(1173, 449)","(1208, 448)","(1225, 439)","(1244, 434)","(1263, 435)","(1277, 444)","(1192, 467)","(1191, 488)","(1190, 510)","(1190, 531)","(1173, 534)","(1182, 540)","(1192, 544)","(1202, 540)","(1211, 535)","(1135, 465)","(1145, 462)","(1158, 462)","(1169, 468)","(1157, 471)","(1145, 471)","(1219, 468)","(1231, 463)","(1244, 463)","(1255, 466)","(1245, 472)","(1232, 472)","(1163, 561)","(1173, 560)","(1184, 560)","(1193, 563)","(1203, 560)","(1216, 561)","(1231, 561)","(1219, 578)","(1206, 585)","(1195, 586)","(1185, 584)","(1174, 576)","(1169, 563)","(1184, 567)","(1193, 569)","(1203, 567)","(1224, 563)","(1205, 572)","(1194, 573)","(1185, 571)",0.25,0.99,51.0,0.37,0.01,0.35,0.02,-9.0,0.1,0.4,21.2,49.9,95.4,14.05,30.85,86.7,29.47,58.47,102.64
433,-327680,111,-56,-1,-1,0,"(1100, 438)","(1101, 467)","(1106, 494)","(1114, 520)","(1123, 546)","(1135, 571)","(1148, 597)","(1163, 619)","(1186, 627)","(1210, 623)","(1234, 606)","(1256, 585)","(1275, 561)","(1289, 533)","(1296, 504)","(1301, 473)","(1303, 442)","(1105, 432)","(1119, 427)","(1135, 431)","(1152, 438)","(1167, 448)","(1203, 448)","(1221, 439)","(1240, 435)","(1259, 435)","(1275, 442)","(1186, 465)","(1185, 488)","(1184, 511)","(1183, 534)","(1163, 531)","(1172, 540)","(1184, 546)","(1196, 541)","(1207, 536)","(1126, 456)","(1137, 454)","(1151, 456)","(1162, 463)","(1149, 466)","(1136, 464)","(1215, 466)","(1227, 461)","(1241, 461)","(1253, 465)","(1242, 471)","(1228, 471)","(1149, 552)","(1161, 556)","(1174, 558)","(1184, 562)","(1195, 560)","(1211, 561)","(1227, 560)","(1211, 581)","(1195, 589)","(1182, 589)","(1171, 586)","(1158, 574)","(1155, 556)","(1174, 564)","(1184, 567)","(1195, 566)","(1220, 563)","(1194, 575)","(1182, 575)","(1172, 572)",0.26,0.97,51.0,0.36,0.08,0.38,0.04,-11.0,0.1,0.42,27.2,58.8,106.1,21.75,43.45,101.9,23.05,51.23,91.76
466,262144,111,-56,-1,-1,0,"(1097, 444)","(1100, 472)","(1106, 498)","(1112, 523)","(1119, 548)","(1130, 573)","(1145, 596)","(1163, 615)","(1187, 622)","(1212, 618)","(1237, 602)","(1259, 582)","(1276, 558)","(1288, 531)","(1294, 502)","(1298, 473)","(1301, 443)","(1104, 440)","(1116, 433)","(1133, 434)","(1149, 439)","(1165, 448)","(1200, 447)","(1218, 438)","(1236, 433)","(1255, 434)","(1271, 441)","(1183, 466)","(1183, 487)","(1182, 509)","(1182, 531)","(1164, 532)","(1173, 539)","(1183, 543)","(1195, 539)","(1205, 534)","(1128, 462)","(1138, 460)","(1150, 461)","(1162, 466)","(1149, 469)","(1137, 469)","(1212, 466)","(1224, 462)","(1236, 462)","(1248, 464)","(1238, 470)","(1225, 470)","(1153, 556)","(1164, 557)","(1175, 558)","(1184, 562)","(1194, 559)","(1208, 560)","(1222, 559)","(1208, 574)","(1194, 581)","(1183, 582)","(1173, 579)","(1162, 571)","(1159, 558)","(1175, 564)","(1184, 566)","(1194, 565)","(1216, 561)","(1194, 568)","(1183, 569)","(1174, 567)",0.22,0.95,51.0,0.34,0.02,0.33,0.02,-8.5,0.1,0.41,23.6,52.4,97.9,15.9,34.95,98.3,23.64,51.76,92.82
500,2621440,111,-56,-1,-1,0,"(1094, 446)","(1095, 474)","(1100, 501)","(1106, 527)","(1113, 554)","(1125, 580)","(1140, 603)","(1158, 623)","(1184, 629)","(1211, 625)","(1237, 609)","(1260, 587)","(1277, 562)","(1288, 533)","(1294, 504)","(1297, 474)","(1299, 443)","(1101, 441)","(1113, 433)","(1128, 433)","(1145, 438)","(1160, 447)","(1195, 445)","(1213, 436)","(1232, 432)","(1251, 433)","(1266, 441)","(1178, 464)","(1178, 485)","(1177, 507)","(1176, 529)","(1160, 531)","(1168, 538)","(1178, 542)","(1190, 538)","(1200, 533)","(1125, 462)","(1134, 460)","(1146, 461)","(1157, 464)","(1145, 468)","(1134, 468)","(1208, 465)","(1219, 461)","(1231, 461)","(1243, 463)","(1232, 468)","(1220, 468)","(1148, 556)","(1159, 556)","(1170, 557)","(1180, 560)","(1191, 557)","(1205, 557)","(1221, 557)","(1206, 573)","(1192, 580)","(1180, 581)","(1169, 578)","(1158, 571)","(1154, 558)","(1170, 562)","(1180, 564)","(1191, 563)","(1215, 559)","(1191, 567)","(1180, 568)","(1170, 566)",0.2,0.97,51.0,0.32,0.02,0.35,0.03,-7.5,0.1,0.39,21.9,49.2,95.0,18.6,37.5,100.5,31.76,61.29,101.0
533,2752512,111,-56,-1,-1,0,"(1084, 433)","(1082, 462)","(1083, 491)","(1087, 519)","(1097, 546)","(1111, 574)","(1127, 600)","(1146, 624)","(1172, 632)","(1198, 627)","(1223, 608)","(1246, 585)","(1266, 559)","(1280, 531)","(1287, 500)","(1291, 469)","(1293, 439)","(1097, 432)","(1110, 427)","(1126, 429)","(1142, 436)","(1157, 444)","(1191, 442)","(1209, 434)","(1227, 430)","(1246, 430)","(1260, 438)","(1174, 463)","(1173, 484)","(1171, 506)","(1170, 529)","(1151, 527)","(1161, 535)","(1172, 541)","(1184, 537)","(1194, 531)","(1119, 456)","(1129, 455)","(1141, 456)","(1152, 461)","(1140, 464)","(1128, 463)","(1203, 462)","(1214, 458)","(1226, 458)","(1238, 461)","(1227, 466)","(1215, 466)","(1137, 551)","(1148, 553)","(1162, 555)","(1172, 558)","(1183, 556)","(1199, 556)","(1216, 556)","(1200, 576)","(1183, 585)","(1171, 586)","(1159, 583)","(1147, 572)","(1143, 554)","(1162, 561)","(1172, 563)","(1183, 562)","(1209, 558)","(1183, 572)","(1171, 573)","(1160, 570)",0.23,0.99,51.0,0.32,0.06,0.37,0.04,-8.5,0.09,0.39,27.4,58.2,107.0,21.3,46.5,107.25,23.17,50.29,89.0
566,0,111,-56,-1,-1,0,"(1081, 436)","(1080, 464)","(1082, 491)","(1087, 518)","(1097, 545)","(1110, 572)","(1126, 598)","(1146, 620)","(1171, 628)","(1198, 623)","(1224, 605)","(1247, 582)","(1266, 556)","(1279, 528)","(1285, 498)","(1289, 467)","(1290, 436)","(1093, 434)","(1105, 428)","(1121, 429)","(1137, 435)","(1153, 443)","(1186, 440)","(1204, 432)","(1223, 428)","(1242, 429)","(1257, 436)","(1170, 461)","(1170, 482)","(1169, 504)","(1168, 526)","(1150, 527)","(1159, 534)","(1170, 539)","(1182, 535)","(1192, 530)","(1115, 456)","(1126, 456)","(1137, 456)","(1148, 460)","(1137, 463)","(1125, 462)","(1200, 461)","(1211, 457)","(1223, 457)","(1234, 459)","(1224, 464)","(1212, 464)","(1137, 550)","(1149, 552)","(1161, 554)","(1170, 558)","(1181, 556)","(1197, 555)","(1213, 555)","(1197, 573)","(1181, 580)","(1170, 581)","(1159, 579)","(1147, 569)","(1143, 553)","(1161, 560)","(1170, 563)","(1181, 562)","(1206, 557)","(1181, 568)","(1170, 569)","(1160, 566)",0.2,0.98,51.0,0.32,0.04,0.36,0.03,-7.0,0.1,0.38,19.4,48.2,95.3,21.3,43.6,107.45,25.76,52.58,90.64
600,-1048576,111,-56,-1,-1,0,"(1081, 440)","(1083, 467)","(1087, 494)","(1092, 520)","(1101, 546)","(1114, 572)","(1129, 595)","(1149, 614)","(1173, 620)","(1199, 616)","(1225, 598)","(1248, 577)","(1265, 553)","(1278, 525)","(1283, 496)","(1286, 466)","(1289, 436)","(1088, 436)","(1099, 427)","(1115, 427)","(1132, 432)","(1148, 441)","(1182, 439)","(1200, 430)","(1219, 426)","(1239, 428)","(1255, 437)","(1166, 459)","(1165, 480)","(1163, 501)","(1162, 522)","(1147, 525)","(1155, 532)","(1165, 536)","(1176, 532)","(1186, 527)","(1112, 456)","(1123, 454)","(1134, 455)","(1145, 459)","(1134, 463)","(1122, 462)","(1196, 459)","(1207, 455)","(1220, 455)","(1231, 457)","(1221, 463)","(1208, 463)","(1136, 550)","(1147, 551)","(1157, 552)","(1167, 555)","(1177, 553)","(1192, 552)","(1208, 552)","(1194, 567)","(1179, 574)","(1168, 575)","(1158, 573)","(1147, 565)","(1142, 553)","(1158, 558)","(1167, 560)","(1178, 559)","(1201, 554)","(1178, 562)","(1167, 563)","(1158, 561)",0.22,1.02,51.0,0.32,0.02,0.34,0.02,-8.5,0.09,0.39,16.1,42.7,88.8,15.75,35.3,97.15,24.58,52.58,89.0
633,-851968,111,-56,-1,-1,0,"(1077, 440)","(1079, 467)","(1083, 494)","(1088, 520)","(1096, 546)","(1108, 572)","(1124, 595)","(1142, 615)","(1166, 621)","(1193, 618)","(1218, 601)","(1241, 580)","(1260, 556)","(1273, 528)","(1279, 498)","(1283, 467)","(1286, 436)","(1085, 434)","(1095, 425)","(1111, 424)","(1128, 429)","(1145, 438)","(1177, 435)","(1196, 426)","(1216, 423)","(1236, 425)","(1251, 435)","(1161, 455)","(1160, 476)","(1159, 497)","(1157, 519)","(1142, 522)","(1150, 529)","(1160, 534)","(1172, 529)","(1182, 524)","(1109, 455)","(1119, 453)","(1130, 453)","(1141, 456)","(1130, 460)","(1118, 460)","(1192, 457)","(1203, 453)","(1215, 453)","(1227, 455)","(1216, 460)","(1204, 461)","(1133, 550)","(1143, 550)","(1153, 550)","(1162, 554)","(1172, 552)","(1187, 552)","(1203, 552)","(1188, 567)","(1174, 574)","(1162, 574)","(1153, 572)","(1142, 565)","(1139, 552)","(1153, 556)","(1162, 558)","(1173, 557)","(1196, 554)","(1173, 561)","(1162, 562)","(1153, 560)",0.21,1.05,51.0,0.32,0.03,0.33,0.02,-7.0,0.1,0.38,18.9,45.8,91.9,17.15,35.35,94.95,25.76,53.35,91.05
666,-851968,111,-56,-1,-1,0,"(1076, 430)","(1076, 457)","(1078, 483)","(1084, 509)","(1092, 535)","(1104, 561)","(1118, 585)","(1136, 607)","(1160, 614)","(1187, 611)","(1214, 595)","(1238, 573)","(1257, 548)","(1270, 520)","(1275, 491)","(1278, 460)","(1278, 429)","(1081, 424)","(1092, 417)","(1107, 418)","(1123, 423)","(1138, 432)","(1173, 431)","(1192, 423)","(1211, 419)","(1230, 421)","(1246, 428)","(1156, 454)","(1155, 474)","(1153, 494)","(1152, 515)","(1137, 519)","(1145, 526)","(1155, 530)","(1166, 527)","(1177, 522)","(1103, 449)","(1113, 448)","(1125, 448)","(1136, 453)","(1124, 457)","(1112, 456)","(1187, 455)","(1198, 451)","(1211, 451)","(1223, 453)","(1212, 459)","(1199, 459)","(1129, 547)","(1138, 547)","(1148, 548)","(1157, 551)","(1166, 549)","(1181, 550)","(1196, 551)","(1182, 566)","(1167, 573)","(1157, 573)","(1147, 571)","(1138, 562)","(1135, 549)","(1148, 554)","(1157, 556)","(1167, 556)","(1189, 552)","(1166, 559)","(1157, 560)","(1148, 558)",0.22,1.07,51.0,0.34,0.04,0.33,0.02,-8.5,0.1,0.38,23.9,55.1,102.7,18.45,39.15,102.4,23.94,53.35,93.94
700,-983040,111,-56,-1,-1,0,"(1071, 427)","(1072, 454)","(1076, 481)","(1082, 506)","(1091, 532)","(1102, 557)","(1115, 581)","(1131, 603)","(1154, 611)","(1181, 608)","(1207, 593)","(1230, 571)","(1250, 547)","(1263, 519)","(1270, 490)","(1273, 459)","(1275, 426)","(1074, 418)","(1085, 410)","(1100, 412)","(1115, 418)","(1131, 427)","(1165, 426)","(1184, 418)","(1204, 414)","(1224, 417)","(1240, 426)","(1148, 447)","(1147, 468)","(1146, 490)","(1144, 511)","(1128, 514)","(1136, 521)","(1147, 526)","(1159, 522)","(1170, 518)","(1095, 440)","(1105, 439)","(1118, 440)","(1129, 446)","(1117, 450)","(1104, 449)","(1179, 449)","(1190, 444)","(1204, 445)","(1216, 448)","(1205, 454)","(1191, 454)","(1121, 544)","(1131, 543)","(1140, 544)","(1149, 547)","(1159, 545)","(1173, 546)","(1189, 549)","(1174, 563)","(1159, 569)","(1149, 569)","(1139, 567)","(1130, 558)","(1128, 546)","(1140, 550)","(1149, 552)","(1159, 551)","(1182, 550)","(1159, 556)","(1149, 556)","(1140, 554)",0.25,1.05,51.0,0.35,0.07,0.33,0.02,-10.5,0.1,0.39,29.3,60.4,108.6,18.7,39.0,100.85,23.17,52.88,94.23
733,-983040,111,-56,-1,-1,0,"(1064, 423)","(1063, 450)","(1066, 476)","(1070, 502)","(1077, 528)","(1089, 554)","(1102, 580)","(1120, 602)","(1144, 610)","(1172, 607)","(1199, 592)","(1223, 570)","(1242, 545)","(1256, 516)","(1262, 485)","(1265, 454)","(1267, 421)","(1070, 416)","(1080, 409)","(1094, 410)","(1109, 416)","(1124, 424)","(1158, 422)","(1176, 414)","(1195, 410)","(1214, 412)","(1230, 421)","(1141, 445)","(1139, 465)","(1137, 486)","(1135, 507)","(1122, 511)","(1129, 518)","(1139, 522)","(1151, 518)","(1161, 514)","(1090, 441)","(1100, 439)","(1112, 440)","(1123, 444)","(1111, 448)","(1099, 448)","(1172, 445)","(1182, 441)","(1195, 441)","(1207, 444)","(1196, 450)","(1184, 450)","(1115, 542)","(1124, 541)","(1133, 541)","(1141, 544)","(1151, 542)","(1166, 543)","(1182, 545)","(1167, 560)","(1153, 566)","(1142, 566)","(1133, 564)","(1124, 556)","(1121, 544)","(1133, 547)","(1142, 549)","(1152, 548)","(1175, 547)","(1152, 553)","(1142, 553)","(1133, 551)",0.26,1.12,51.0,0.33,0.06,0.33,0.02,-9.0,0.09,0.37,22.8,52.1,96.7,16.65,35.1,95.25,20.41,44.23,81.35
766,-917504,110,-56,-1,-1,0,"(1062, 430)","(1062, 456)","(1066, 483)","(1071, 509)","(1078, 534)","(1089, 559)","(1103, 582)","(1120, 601)","(1143, 608)","(1170, 604)","(1196, 589)","(1219, 568)","(1238, 544)","(1250, 516)","(1255, 486)","(1258, 455)","(1259, 423)","(1062, 417)","(1071, 406)","(1086, 406)","(1101, 411)","(1116, 419)","(1150, 417)","(1169, 409)","(1189, 405)","(1210, 408)","(1226, 419)","(1133, 438)","(1132, 459)","(1129, 480)","(1127, 502)","(1115, 508)","(1122, 514)","(1132, 518)","(1143, 514)","(1153, 510)","(1083, 437)","(1092, 434)","(1104, 434)","(1115, 440)","(1103, 443)","(1091, 443)","(1165, 441)","(1177, 435)","(1190, 436)","(1202, 439)","(1190, 445)","(1177, 445)","(1110, 541)","(1118, 539)","(1126, 538)","(1135, 541)","(1144, 538)","(1159, 540)","(1175, 543)","(1161, 556)","(1147, 562)","(1136, 563)","(1127, 561)","(1118, 554)","(1116, 543)","(1127, 545)","(1135, 546)","(1145, 545)","(1168, 544)","(1146, 548)","(1136, 549)","(1127, 547)",0.25,1.16,51.0,0.35,0.03,0.32,0.03,-9.5,0.1,0.37,22.7,51.9,100.1,15.2,31.8,93.85,27.35,56.76,99.47
800,-1310720,110,-56,-1,-1,0,"(1050, 416)","(1050, 443)","(1055, 470)","(1062, 496)","(1070, 522)","(1081, 549)","(1092, 575)","(1106, 599)","(1129, 607)","(1155, 605)","(1182, 590)","(1207, 568)","(1229, 543)","(1245, 514)","(1252, 482)","(1257, 449)","(1259, 415)","(1053, 403)","(1063, 396)","(1078, 399)","(1093, 405)","(1107, 414)","(1140, 412)","(1159, 404)","(1179, 400)","(1200, 403)","(1217, 412)","(1123, 432)","(1121, 453)","(1119, 475)","(1116, 498)","(1102, 500)","(1110, 508)","(1120, 513)","(1132, 510)","(1144, 505)","(1072, 423)","(1081, 419)","(1094, 421)","(1105, 430)","(1092, 432)","(1080, 431)","(1156, 432)","(1167, 425)","(1181, 425)","(1193, 431)","(1182, 437)","(1169, 437)","(1095, 533)","(1104, 532)","(1113, 533)","(1122, 536)","(1133, 534)","(1148, 537)","(1165, 540)","(1149, 555)","(1133, 560)","(1122, 560)","(1112, 557)","(1103, 548)","(1101, 536)","(1113, 539)","(1122, 541)","(1133, 541)","(1158, 541)","(1132, 546)","(1122, 546)","(1113, 543)",0.32,1.13,51.0,0.33,0.09,0.33,0.03,-12.5,0.1,0.37,28.7,60.3,109.4,19.2,39.1,99.5,23.88,47.94,87.76
833,-1310720,110,-56,-1,-1,0,"(1042, 410)","(1042, 436)","(1047, 462)","(1054, 488)","(1061, 514)","(1071, 540)","(1083, 566)","(1097, 589)","(1119, 598)","(1147, 596)","(1175, 582)","(1201, 562)","(1223, 538)","(1239, 510)","(1247, 479)","(1253, 446)","(1256, 412)","(1045, 394)","(1056, 388)","(1071, 391)","(1085, 398)","(1099, 406)","(1135, 405)","(1154, 398)","(1174, 395)","(1195, 398)","(1212, 406)","(1116, 425)","(1113, 447)","(1111, 469)","(1108, 492)","(1094, 494)","(1102, 502)","(1112, 508)","(1124, 504)","(1135, 500)","(1064, 415)","(1073, 409)","(1087, 411)","(1098, 422)","(1085, 425)","(1072, 424)","(1149, 425)","(1160, 416)","(1175, 417)","(1187, 424)","(1176, 430)","(1162, 430)","(1089, 527)","(1097, 527)","(1106, 528)","(1114, 531)","(1124, 530)","(1140, 532)","(1157, 534)","(1140, 547)","(1124, 552)","(1113, 552)","(1104, 549)","(1096, 540)","(1095, 529)","(1106, 534)","(1114, 536)","(1124, 536)","(1150, 536)","(1124, 539)","(1114, 539)","(1105, 536)",0.35,1.18,51.0,0.33,0.11,0.31,0.02,-15.0,0.08,0.38,28.1,60.0,110.2,17.65,36.95,97.25,26.05,52.58,91.58
866,1376256,110,-56,-1,-1,0,"(1043, 405)","(1041, 432)","(1044, 458)","(1049, 485)","(1056, 512)","(1065, 539)","(1077, 564)","(1093, 586)","(1116, 595)","(1143, 592)","(1171, 577)","(1195, 557)","(1215, 532)","(1229, 503)","(1236, 472)","(1240, 440)","(1241, 407)","(1041, 390)","(1050, 383)","(1064, 385)","(1079, 391)","(1092, 400)","(1128, 400)","(1147, 392)","(1168, 389)","(1188, 392)","(1205, 402)","(1109, 419)","(1107, 441)","(1104, 462)","(1101, 485)","(1089, 489)","(1096, 496)","(1105, 501)","(1116, 498)","(1127, 494)","(1059, 410)","(1067, 404)","(1081, 406)","(1092, 417)","(1079, 419)","(1066, 418)","(1142, 420)","(1154, 411)","(1168, 412)","(1181, 419)","(1169, 425)","(1155, 425)","(1084, 524)","(1091, 522)","(1100, 522)","(1108, 526)","(1117, 524)","(1132, 527)","(1149, 530)","(1133, 543)","(1118, 549)","(1108, 549)","(1099, 546)","(1090, 538)","(1089, 526)","(1100, 529)","(1108, 531)","(1118, 531)","(1142, 531)","(1118, 535)","(1108, 535)","(1100, 533)",0.34,1.21,51.0,0.36,0.1,0.32,0.03,-14.5,0.09,0.37,28.9,60.5,110.9,17.95,36.75,96.35,21.29,47.0,88.11
900,-1966080,110,-56,-1,-1,0,"(1034, 396)","(1032, 423)","(1034, 449)","(1039, 476)","(1046, 502)","(1057, 530)","(1068, 557)","(1084, 581)","(1108, 590)","(1136, 589)","(1164, 574)","(1188, 553)","(1208, 528)","(1222, 499)","(1229, 467)","(1233, 434)","(1234, 402)","(1035, 384)","(1045, 377)","(1059, 379)","(1073, 386)","(1087, 394)","(1122, 394)","(1141, 386)","(1162, 383)","(1183, 386)","(1200, 397)","(1104, 414)","(1101, 435)","(1098, 456)","(1094, 478)","(1082, 484)","(1090, 491)","(1099, 495)","(1111, 492)","(1121, 488)","(1053, 404)","(1062, 398)","(1075, 400)","(1086, 411)","(1073, 414)","(1060, 412)","(1137, 415)","(1148, 405)","(1163, 406)","(1175, 413)","(1164, 420)","(1149, 419)","(1078, 519)","(1085, 517)","(1093, 516)","(1101, 520)","(1111, 518)","(1126, 521)","(1143, 526)","(1128, 539)","(1113, 545)","(1103, 545)","(1094, 542)","(1085, 534)","(1084, 521)","(1094, 524)","(1102, 526)","(1111, 525)","(1136, 526)","(1112, 531)","(1103, 531)","(1095, 528)",0.36,1.25,51.0,0.35,0.11,0.32,0.03,-15.5,0.08,0.36,29.6,63.6,111.3,18.2,38.25,97.35,21.11,46.35,83.17
933,-524288,110,-56,-1,-1,0,"(1030, 397)","(1028, 424)","(1031, 450)","(1036, 477)","(1044, 504)","(1054, 531)","(1066, 557)","(1082, 580)","(1105, 588)","(1133, 586)","(1160, 571)","(1185, 551)","(1206, 526)","(1220, 497)","(1226, 466)","(1230, 433)","(1231, 400)","(1032, 382)","(1041, 374)","(1055, 376)","(1069, 382)","(1082, 390)","(1116, 389)","(1135, 381)","(1155, 378)","(1176, 381)","(1193, 392)","(1098, 410)","(1095, 431)","(1092, 452)","(1089, 474)","(1078, 480)","(1085, 486)","(1094, 491)","(1105, 488)","(1116, 484)","(1051, 402)","(1059, 395)","(1072, 397)","(1082, 408)","(1070, 411)","(1057, 410)","(1131, 410)","(1142, 400)","(1156, 401)","(1168, 409)","(1157, 415)","(1143, 415)","(1075, 517)","(1080, 513)","(1089, 512)","(1097, 515)","(1107, 513)","(1123, 516)","(1139, 521)","(1125, 534)","(1110, 540)","(1099, 541)","(1090, 538)","(1081, 530)","(1080, 518)","(1089, 519)","(1097, 521)","(1107, 520)","(1132, 522)","(1109, 527)","(1099, 527)","(1090, 525)",0.39,1.3,51.0,0.34,0.09,0.31,0.03,-15.5,0.08,0.35,28.5,62.3,109.5,19.25,39.55,99.4,23.76,50.17,86.41
966,0,110,-56,-1,-1,0,"(1027, 397)","(1026, 424)","(1028, 450)","(1034, 477)","(1042, 502)","(1052, 529)","(1064, 554)","(1079, 577)","(1102, 584)","(1129, 582)","(1157, 567)","(1182, 547)","(1203, 523)","(1217, 495)","(1223, 463)","(1227, 430)","(1228, 398)","(1028, 382)","(1036, 373)","(1050, 373)","(1064, 378)","(1078, 385)","(1112, 384)","(1132, 376)","(1152, 373)","(1173, 378)","(1189, 389)","(1094, 405)","(1091, 426)","(1088, 447)","(1084, 468)","(1074, 475)","(1081, 482)","(1090, 486)","(1101, 483)","(1112, 478)","(1047, 400)","(1055, 393)","(1068, 395)","(1078, 405)","(1066, 408)","(1054, 407)","(1127, 406)","(1138, 396)","(1153, 396)","(1165, 404)","(1154, 410)","(1139, 410)","(1072, 513)","(1077, 509)","(1085, 507)","(1093, 510)","(1103, 508)","(1119, 511)","(1136, 516)","(1121, 529)","(1106, 536)","(1096, 536)","(1087, 534)","(1078, 526)","(1077, 514)","(1086, 514)","(1094, 516)","(1103, 515)","(1129, 516)","(1105, 522)","(1095, 523)","(1087, 521)",0.36,1.33,51.0,0.34,0.06,0.31,0.03,-14.5,0.08,0.35,32.0,63.1,108.7,18.45,38.8,97.7,26.0,52.11,89.88
1000,1966080,110,-56,-1,-1,0,"(1022, 393)","(1021, 418)","(1023, 444)","(1028, 470)","(1036, 496)","(1046, 521)","(1058, 546)","(1073, 569)","(1096, 577)","(1124, 575)","(1152, 560)","(1177, 540)","(1199, 517)","(1214, 489)","(1220, 457)","(1224, 424)","(1225, 391)","(1025, 377)","(1033, 368)","(1046, 368)","(1060, 372)","(1073, 378)","(1107, 376)","(1126, 368)","(1146, 366)","(1167, 371)","(1184, 382)","(1089, 398)","(1086, 419)","(1082, 439)","(1079, 460)","(1070, 468)","(1076, 474)","(1085, 478)","(1096, 475)","(1106, 471)","(1042, 394)","(1050, 387)","(1063, 388)","(1074, 399)","(1062, 402)","(1049, 401)","(1122, 400)","(1132, 389)","(1147, 389)","(1159, 397)","(1148, 403)","(1134, 404)","(1067, 505)","(1072, 501)","(1081, 499)","(1089, 502)","(1098, 500)","(1115, 503)","(1132, 508)","(1117, 522)","(1101, 529)","(1091, 529)","(1082, 527)","(1073, 519)","(1072, 506)","(1081, 507)","(1089, 509)","(1099, 508)","(1125, 509)","(1100, 515)","(1090, 516)","(1082, 513)",0.39,1.35,51.0,0.34,0.04,0.32,0.03,-14.5,0.08,0.34,30.1,64.7,108.6,19.2,39.95,98.1,23.47,47.94,81.41
1033,2621440,110,-56,-1,-1,0,"(1024, 391)","(1021, 416)","(1023, 442)","(1027, 467)","(1035, 493)","(1045, 519)","(1057, 543)","(1072, 565)","(1095, 573)","(1123, 570)","(1151, 555)","(1177, 536)","(1198, 512)","(1212, 484)","(1218, 452)","(1221, 420)","(1221, 388)","(1024, 375)","(1031, 366)","(1044, 365)","(1057, 369)","(1070, 376)","(1104, 373)","(1123, 365)","(1144, 362)","(1164, 367)","(1180, 379)","(1086, 396)","(1083, 415)","(1080, 435)","(1077, 455)","(1067, 464)","(1074, 470)","(1083, 474)","(1093, 471)","(1104, 467)","(1041, 393)","(1048, 386)","(1061, 386)","(1072, 396)","(1060, 400)","(1047, 399)","(1119, 397)","(1130, 387)","(1144, 387)","(1156, 395)","(1145, 401)","(1131, 401)","(1065, 502)","(1070, 498)","(1078, 496)","(1086, 499)","(1096, 496)","(1112, 499)","(1129, 504)","(1114, 517)","(1099, 522)","(1089, 523)","(1080, 521)","(1071, 514)","(1070, 503)","(1079, 503)","(1087, 505)","(1096, 504)","(1122, 504)","(1098, 510)","(1088, 510)","(1080, 508)",0.37,1.32,51.0,0.34,0.05,0.32,0.03,-14.0,0.09,0.33,33.4,66.7,111.2,19.3,40.2,98.8,22.29,47.0,81.58
1066,327680,110,-56,-1,-1,0,"(1024, 389)","(1022, 414)","(1024, 439)","(1028, 464)","(1034, 490)","(1044, 515)","(1056, 539)","(1071, 561)","(1094, 568)","(1121, 566)","(1149, 552)","(1174, 533)","(1196, 510)","(1210, 482)","(1217, 451)","(1220, 419)","(1220, 387)","(1024, 374)","(1031, 364)","(1043, 362)","(1057, 366)","(1070, 372)","(1104, 370)","(1122, 362)","(1143, 360)","(1164, 366)","(1180, 378)","(1086, 392)","(1083, 412)","(1079, 431)","(1076, 451)","(1067, 460)","(1073, 466)","(1082, 470)","(1093, 466)","(1103, 463)","(1042, 389)","(1049, 382)","(1061, 383)","(1072, 393)","(1060, 396)","(1048, 396)","(1119, 393)","(1129, 384)","(1143, 384)","(1155, 392)","(1144, 397)","(1130, 397)","(1065, 497)","(1070, 493)","(1078, 491)","(1086, 495)","(1095, 492)","(1111, 495)","(1128, 499)","(1113, 511)","(1098, 517)","(1088, 517)","(1079, 515)","(1071, 509)","(1070, 498)","(1078, 499)","(1086, 501)","(1096, 500)","(1122, 500)","(1097, 504)","(1087, 505)","(1079, 503)",0.36,1.33,51.0,0.33,0.03,0.32,0.02,-13.5,0.08,0.33,31.7,63.0,108.3,17.75,39.85,97.85,23.7,48.41,81.23
1100,-720896,110,-56,-1,-1,0,"(1026, 388)","(1024, 412)","(1026, 437)","(1030, 461)","(1037, 486)","(1047, 511)","(1059, 534)","(1073, 556)","(1096, 563)","(1123, 561)","(1150, 547)","(1176, 528)","(1197, 505)","(1212, 478)","(1218, 447)","(1220, 415)","(1221, 383)","(1026, 373)","(1032, 362)","(1044, 360)","(1058, 364)","(1072, 371)","(1103, 368)","(1122, 360)","(1143, 357)","(1164, 362)","(1180, 374)","(1086, 390)","(1083, 409)","(1080, 428)","(1077, 448)","(1068, 457)","(1075, 463)","(1083, 466)","(1094, 463)","(1105, 459)","(1043, 388)","(1050, 381)","(1063, 381)","(1073, 391)","(1061, 395)","(1049, 394)","(1119, 391)","(1129, 381)","(1144, 381)","(1155, 389)","(1145, 395)","(1131, 395)","(1066, 493)","(1071, 490)","(1079, 489)","(1087, 492)","(1096, 489)","(1112, 491)","(1130, 494)","(1114, 506)","(1099, 512)","(1089, 512)","(1081, 511)","(1073, 504)","(1071, 494)","(1080, 496)","(1088, 497)","(1097, 496)","(1124, 495)","(1098, 499)","(1089, 500)","(1081, 498)",0.39,1.34,51.0,0.33,0.01,0.32,0.02,-14.0,0.09,0.33,28.1,60.0,105.4,18.55,39.0,102.4,22.82,47.41,80.41
1133,-655360,110,-56,-1,-1,0,"(1026, 386)","(1025, 410)","(1027, 435)","(1031, 461)","(1038, 485)","(1048, 509)","(1060, 533)","(1075, 553)","(1098, 560)","(1125, 557)","(1152, 543)","(1178, 525)","(1199, 503)","(1213, 476)","(1219, 446)","(1222, 414)","(1222, 383)","(1027, 370)","(1034, 359)","(1047, 357)","(1061, 360)","(1074, 367)","(1106, 364)","(1125, 356)","(1146, 354)","(1167, 359)","(1183, 372)","(1089, 386)","(1086, 405)","(1083, 423)","(1080, 442)","(1070, 452)","(1077, 458)","(1086, 461)","(1097, 458)","(1107, 455)","(1045, 386)","(1052, 378)","(1064, 379)","(1075, 388)","(1063, 392)","(1051, 391)","(1122, 388)","(1133, 378)","(1146, 378)","(1158, 386)","(1147, 391)","(1134, 391)","(1066, 489)","(1072, 485)","(1081, 483)","(1089, 486)","(1098, 483)","(1114, 486)","(1132, 490)","(1116, 500)","(1101, 505)","(1091, 506)","(1083, 504)","(1074, 499)","(1071, 490)","(1082, 491)","(1090, 493)","(1099, 491)","(1125, 491)","(1100, 493)","(1091, 494)","(1083, 492)",0.36,1.25,51.0,0.33,0.01,0.33,0.01,-13.5,0.09,0.32,32.7,65.3,110.7,21.1,43.55,110.9,22.58,47.58,80.29
1166,-458752,110,-56,-1,-1,0,"(1033, 381)","(1030, 405)","(1031, 429)","(1035, 454)","(1041, 479)","(1051, 504)","(1063, 527)","(1079, 547)","(1102, 554)","(1129, 551)","(1156, 537)","(1181, 519)","(1201, 496)","(1215, 469)","(1220, 439)","(1222, 408)","(1222, 378)","(1030, 365)","(1037, 355)","(1049, 353)","(1063, 357)","(1077, 364)","(1109, 362)","(1128, 353)","(1148, 350)","(1169, 355)","(1185, 367)","(1092, 383)","(1089, 402)","(1086, 420)","(1083, 439)","(1073, 448)","(1080, 454)","(1089, 457)","(1100, 454)","(1110, 450)","(1048, 382)","(1055, 375)","(1067, 376)","(1078, 384)","(1066, 388)","(1054, 388)","(1125, 384)","(1135, 375)","(1149, 376)","(1161, 383)","(1150, 388)","(1136, 388)","(1071, 485)","(1076, 481)","(1085, 479)","(1092, 481)","(1101, 479)","(1117, 481)","(1136, 485)","(1120, 496)","(1105, 501)","(1095, 502)","(1087, 500)","(1078, 495)","(1076, 486)","(1085, 487)","(1093, 488)","(1102, 487)","(1128, 486)","(1104, 488)","(1094, 489)","(1087, 488)",0.34,1.33,51.0,0.34,0.02,0.34,0.01,-13.0,0.09,0.32,32.4,64.9,111.9,20.5,43.55,113.05,21.11,45.41,79.35
1200,-524288,110,-56,-1,-1,0,"(1036, 376)","(1034, 401)","(1036, 425)","(1039, 450)","(1046, 475)","(1056, 500)","(1068, 523)","(1083, 544)","(1106, 550)","(1133, 547)","(1160, 534)","(1185, 515)","(1205, 493)","(1219, 466)","(1224, 435)","(1226, 404)","(1226, 374)","(1034, 361)","(1041, 352)","(1053, 351)","(1067, 355)","(1080, 361)","(1112, 359)","(1130, 350)","(1151, 348)","(1171, 353)","(1188, 364)","(1096, 381)","(1093, 399)","(1089, 417)","(1086, 436)","(1077, 445)","(1084, 451)","(1092, 455)","(1103, 451)","(1114, 447)","(1052, 378)","(1059, 371)","(1071, 372)","(1082, 381)","(1070, 385)","(1058, 385)","(1128, 382)","(1138, 372)","(1152, 373)","(1163, 380)","(1153, 386)","(1139, 386)","(1073, 481)","(1079, 477)","(1087, 476)","(1095, 479)","(1105, 476)","(1121, 478)","(1139, 481)","(1123, 492)","(1108, 497)","(1098, 498)","(1090, 496)","(1081, 491)","(1078, 482)","(1088, 484)","(1096, 485)","(1105, 484)","(1132, 482)","(1107, 485)","(1098, 486)","(1090, 484)",0.38,1.28,51.0,0.34,0.03,0.34,0.01,-14.0,0.09,0.32,29.7,62.3,108.5,21.5,43.45,114.0,19.76,44.47,79.17
1233,-524288,110,-56,-1,-1,0,"(1038, 374)","(1036, 398)","(1037, 423)","(1040, 447)","(1047, 472)","(1057, 496)","(1069, 520)","(1084, 541)","(1107, 548)","(1134, 545)","(1161, 532)","(1186, 514)","(1206, 492)","(1219, 465)","(1225, 436)","(1227, 405)","(1227, 375)","(1038, 361)","(1044, 351)","(1057, 349)","(1071, 352)","(1085, 359)","(1116, 357)","(1135, 349)","(1155, 347)","(1175, 352)","(1191, 364)","(1099, 379)","(1096, 396)","(1093, 414)","(1089, 432)","(1080, 442)","(1087, 448)","(1095, 451)","(1106, 448)","(1117, 444)","(1056, 377)","(1063, 370)","(1075, 371)","(1085, 380)","(1074, 383)","(1062, 383)","(1131, 380)","(1141, 371)","(1155, 371)","(1166, 378)","(1156, 384)","(1142, 384)","(1076, 477)","(1082, 474)","(1091, 472)","(1098, 475)","(1107, 473)","(1124, 474)","(1142, 478)","(1126, 488)","(1111, 493)","(1101, 494)","(1093, 492)","(1084, 487)","(1082, 478)","(1091, 480)","(1099, 481)","(1108, 480)","(1135, 479)","(1110, 481)","(1101, 482)","(1093, 481)",0.37,1.31,51.0,0.33,0.02,0.34,0.01,-13.0,0.09,0.31,29.8,61.0,105.4,21.1,43.45,113.35,18.94,43.47,76.82
1266,-458752,110,-56,-1,-1,0,"(1042, 371)","(1039, 395)","(1040, 419)","(1044, 443)","(1050, 468)","(1060, 492)","(1072, 516)","(1088, 537)","(1110, 544)","(1136, 542)","(1163, 529)","(1188, 512)","(1208, 490)","(1222, 464)","(1227, 434)","(1230, 404)","(1231, 374)","(1041, 358)","(1048, 348)","(1061, 347)","(1075, 351)","(1088, 358)","(1120, 356)","(1138, 348)","(1159, 346)","(1179, 351)","(1194, 364)","(1103, 377)","(1100, 395)","(1096, 413)","(1093, 431)","(1084, 440)","(1090, 446)","(1099, 449)","(1109, 447)","(1120, 443)","(1060, 374)","(1067, 367)","(1079, 368)","(1089, 378)","(1078, 381)","(1066, 380)","(1134, 379)","(1145, 369)","(1158, 370)","(1169, 377)","(1159, 383)","(1146, 383)","(1080, 475)","(1086, 472)","(1094, 471)","(1102, 474)","(1110, 471)","(1126, 473)","(1144, 476)","(1128, 486)","(1114, 490)","(1104, 491)","(1096, 490)","(1088, 485)","(1085, 476)","(1095, 478)","(1102, 480)","(1111, 479)","(1137, 477)","(1113, 479)","(1104, 480)","(1096, 478)",0.38,1.3,51.0,0.34,0.05,0.33,0.01,-14.0,0.08,0.32,26.5,57.1,102.0,21.15,43.6,114.9,19.47,42.35,76.23
1300,-458752,109,-56,-1,-1,0,"(1041, 366)","(1039, 390)","(1040, 415)","(1044, 439)","(1051, 464)","(1061, 488)","(1074, 512)","(1089, 533)","(1113, 540)","(1139, 538)","(1165, 525)","(1190, 507)","(1210, 486)","(1223, 459)","(1228, 430)","(1231, 400)","(1232, 370)","(1043, 353)","(1051, 344)","(1064, 344)","(1077, 349)","(1091, 355)","(1124, 354)","(1142, 346)","(1162, 344)","(1182, 349)","(1197, 360)","(1106, 375)","(1103, 393)","(1100, 410)","(1096, 429)","(1087, 438)","(1094, 443)","(1102, 447)","(1112, 444)","(1123, 440)","(1061, 371)","(1069, 365)","(1081, 366)","(1091, 375)","(1080, 379)","(1068, 378)","(1138, 376)","(1149, 367)","(1162, 368)","(1173, 375)","(1163, 381)","(1150, 380)","(1082, 472)","(1089, 469)","(1097, 468)","(1105, 470)","(1113, 468)","(1129, 470)","(1147, 473)","(1131, 483)","(1117, 487)","(1108, 488)","(1099, 487)","(1091, 481)","(1088, 473)","(1098, 475)","(1105, 477)","(1114, 476)","(1140, 474)","(1116, 476)","(1107, 476)","(1100, 475)",0.37,1.26,51.0,0.34,0.06,0.34,0.01,-14.0,0.08,0.32,29.7,61.3,105.8,21.7,42.95,113.7,18.17,42.41,74.64
1333,-786432,109,-56,-1,-1,0,"(1045, 365)","(1043, 389)","(1043, 413)","(1047, 436)","(1054, 460)","(1064, 484)","(1077, 508)","(1093, 529)","(1116, 537)","(1142, 535)","(1167, 522)","(1192, 506)","(1212, 485)","(1225, 459)","(1230, 429)","(1234, 400)","(1235, 371)","(1049, 353)","(1056, 345)","(1069, 344)","(1082, 348)","(1096, 354)","(1127, 352)","(1145, 345)","(1165, 343)","(1185, 348)","(1200, 360)","(1111, 373)","(1107, 390)","(1104, 408)","(1100, 427)","(1091, 435)","(1098, 440)","(1106, 444)","(1116, 441)","(1126, 438)","(1067, 369)","(1074, 362)","(1086, 363)","(1096, 373)","(1085, 376)","(1073, 375)","(1142, 375)","(1152, 365)","(1166, 366)","(1176, 373)","(1166, 379)","(1153, 379)","(1087, 468)","(1093, 466)","(1101, 464)","(1108, 467)","(1117, 465)","(1132, 467)","(1150, 471)","(1135, 480)","(1121, 485)","(1111, 485)","(1103, 484)","(1095, 479)","(1092, 469)","(1101, 472)","(1109, 473)","(1118, 473)","(1143, 471)","(1120, 474)","(1111, 474)","(1104, 472)",0.39,1.3,51.0,0.33,0.06,0.33,0.01,-14.0,0.07,0.32,27.8,60.0,104.7,22.25,44.9,114.3,18.0,42.29,75.88
1366,-786432,109,-56,-1,-1,0,"(1056, 368)","(1055, 392)","(1057, 416)","(1061, 440)","(1067, 463)","(1075, 487)","(1086, 509)","(1099, 529)","(1121, 535)","(1146, 533)","(1172, 521)","(1197, 504)","(1218, 484)","(1232, 459)","(1239, 430)","(1242, 401)","(1244, 371)","(1056, 354)","(1063, 345)","(1075, 343)","(1088, 346)","(1101, 353)","(1131, 351)","(1149, 344)","(1169, 342)","(1190, 348)","(1205, 360)","(1115, 371)","(1111, 389)","(1107, 407)","(1103, 425)","(1095, 434)","(1101, 439)","(1109, 443)","(1120, 440)","(1130, 436)","(1073, 369)","(1080, 362)","(1092, 363)","(1102, 373)","(1091, 376)","(1079, 375)","(1146, 374)","(1156, 364)","(1169, 365)","(1180, 373)","(1170, 378)","(1157, 378)","(1091, 467)","(1097, 464)","(1105, 463)","(1112, 466)","(1121, 464)","(1136, 465)","(1154, 468)","(1138, 478)","(1124, 482)","(1114, 482)","(1106, 481)","(1098, 476)","(1096, 468)","(1105, 470)","(1112, 471)","(1122, 470)","(1147, 469)","(1123, 471)","(1114, 472)","(1106, 470)",0.39,1.28,51.0,0.33,0.04,0.33,0.01,-14.0,0.07,0.32,29.2,60.2,104.8,20.4,42.5,113.65,18.7,41.41,75.47
1400,3145728,109,-56,-1,-1,0,"(1059, 369)","(1058, 393)","(1060, 416)","(1065, 440)","(1071, 463)","(1080, 486)","(1090, 507)","(1103, 526)","(1124, 532)","(1149, 530)","(1175, 518)","(1199, 503)","(1220, 483)","(1234, 459)","(1240, 430)","(1244, 401)","(1246, 371)","(1061, 353)","(1068, 343)","(1080, 342)","(1093, 345)","(1106, 352)","(1136, 350)","(1154, 343)","(1173, 341)","(1193, 346)","(1209, 358)","(1120, 370)","(1116, 387)","(1112, 405)","(1108, 423)","(1100, 431)","(1106, 437)","(1114, 440)","(1124, 438)","(1135, 434)","(1078, 368)","(1085, 362)","(1097, 362)","(1107, 372)","(1096, 374)","(1084, 374)","(1150, 372)","(1160, 363)","(1173, 364)","(1184, 371)","(1174, 376)","(1161, 376)","(1095, 464)","(1101, 461)","(1109, 460)","(1116, 462)","(1126, 460)","(1141, 462)","(1158, 466)","(1142, 476)","(1128, 480)","(1119, 481)","(1110, 480)","(1102, 474)","(1100, 465)","(1109, 467)","(1117, 468)","(1126, 467)","(1151, 467)","(1127, 469)","(1118, 469)","(1111, 468)",0.36,1.25,51.0,0.33,0.04,0.33,0.01,-12.5,0.08,0.32,25.7,58.6,103.7,20.65,43.55,112.5,19.17,40.82,73.0
1433,-1310720,109,-56,-1,-1,0,"(1062, 366)","(1061, 389)","(1063, 413)","(1069, 436)","(1075, 459)","(1084, 482)","(1095, 504)","(1108, 523)","(1129, 530)","(1154, 527)","(1179, 515)","(1203, 500)","(1224, 480)","(1237, 456)","(1244, 427)","(1247, 398)","(1249, 368)","(1064, 350)","(1072, 341)","(1085, 340)","(1098, 344)","(1111, 351)","(1139, 349)","(1157, 342)","(1177, 340)","(1196, 345)","(1212, 357)","(1124, 368)","(1121, 386)","(1117, 403)","(1113, 422)","(1104, 430)","(1111, 435)","(1119, 438)","(1129, 436)","(1139, 432)","(1082, 366)","(1089, 359)","(1101, 360)","(1110, 369)","(1099, 373)","(1088, 372)","(1154, 371)","(1164, 362)","(1177, 362)","(1188, 370)","(1178, 375)","(1165, 375)","(1100, 462)","(1106, 460)","(1114, 459)","(1121, 461)","(1130, 459)","(1145, 461)","(1162, 464)","(1147, 473)","(1133, 478)","(1123, 478)","(1115, 477)","(1107, 472)","(1105, 463)","(1114, 465)","(1122, 467)","(1131, 466)","(1156, 465)","(1132, 467)","(1123, 468)","(1116, 466)",0.38,1.27,51.0,0.33,0.06,0.33,0.01,-13.5,0.08,0.33,27.1,58.2,102.3,20.7,42.7,112.6,18.76,42.64,75.88
1466,0,109,-56,-1,-1,0,"(1062, 363)","(1060, 386)","(1062, 409)","(1067, 432)","(1074, 455)","(1084, 478)","(1096, 500)","(1110, 519)","(1132, 526)","(1156, 524)","(1181, 512)","(1205, 497)","(1225, 477)","(1239, 453)","(1245, 424)","(1248, 395)","(1250, 367)","(1068, 348)","(1076, 340)","(1089, 338)","(1102, 342)","(1115, 349)","(1144, 348)","(1161, 340)","(1180, 338)","(1199, 343)","(1214, 354)","(1128, 366)","(1125, 384)","(1121, 401)","(1118, 419)","(1109, 427)","(1115, 432)","(1123, 436)","(1133, 433)","(1143, 429)","(1086, 364)","(1093, 357)","(1105, 358)","(1114, 367)","(1103, 371)","(1092, 370)","(1158, 369)","(1167, 360)","(1180, 360)","(1191, 368)","(1181, 373)","(1169, 373)","(1103, 457)","(1110, 456)","(1118, 455)","(1125, 457)","(1134, 456)","(1149, 457)","(1167, 461)","(1151, 470)","(1137, 475)","(1128, 475)","(1120, 474)","(1111, 468)","(1108, 459)","(1118, 461)","(1126, 463)","(1135, 462)","(1161, 461)","(1136, 464)","(1127, 465)","(1120, 463)",0.39,1.25,51.0,0.32,0.05,0.34,0.01,-13.5,0.07,0.33,29.4,60.8,104.4,20.4,43.9,113.25,18.76,41.88,74.17
1500,786432,109,-56,-1,-1,0,"(1078, 366)","(1077, 389)","(1079, 413)","(1082, 436)","(1086, 458)","(1093, 481)","(1104, 501)","(1117, 518)","(1138, 523)","(1162, 521)","(1187, 510)","(1210, 495)","(1228, 475)","(1241, 452)","(1246, 425)","(1250, 397)","(1251, 369)","(1076, 353)","(1082, 341)","(1094, 338)","(1108, 341)","(1120, 347)","(1149, 346)","(1167, 339)","(1186, 337)","(1204, 343)","(1218, 356)","(1133, 365)","(1130, 381)","(1127, 398)","(1124, 415)","(1115, 425)","(1121, 430)","(1128, 433)","(1138, 430)","(1148, 427)","(1092, 364)","(1099, 357)","(1110, 358)","(1120, 367)","(1109, 370)","(1098, 369)","(1163, 368)","(1172, 359)","(1185, 359)","(1195, 367)","(1186, 371)","(1173, 371)","(1109, 458)","(1115, 454)","(1123, 452)","(1131, 454)","(1140, 452)","(1154, 455)","(1170, 460)","(1155, 469)","(1142, 474)","(1132, 474)","(1124, 473)","(1116, 468)","(1114, 459)","(1124, 459)","(1131, 461)","(1140, 460)","(1164, 460)","(1141, 462)","(1132, 463)","(1124, 462)",0.37,1.19,51.0,0.34,0.0,0.35,0.01,-12.5,0.08,0.31,24.9,55.8,101.0,21.3,44.25,112.45,18.52,45.47,85.17
1533,3080192,109,-56,-1,-1,0,"(1083, 366)","(1082, 389)","(1084, 412)","(1087, 434)","(1091, 457)","(1099, 478)","(1108, 498)","(1121, 515)","(1141, 520)","(1165, 518)","(1189, 507)","(1212, 492)","(1231, 473)","(1244, 450)","(1250, 423)","(1254, 396)","(1255, 367)","(1080, 351)","(1086, 341)","(1098, 338)","(1111, 340)","(1124, 346)","(1152, 345)","(1169, 338)","(1188, 336)","(1207, 342)","(1221, 355)","(1137, 364)","(1133, 380)","(1130, 396)","(1126, 413)","(1118, 424)","(1124, 428)","(1132, 431)","(1141, 429)","(1151, 426)","(1096, 363)","(1103, 356)","(1114, 357)","(1124, 366)","(1113, 369)","(1102, 368)","(1166, 367)","(1176, 358)","(1188, 358)","(1198, 366)","(1189, 370)","(1176, 370)","(1114, 456)","(1119, 452)","(1127, 450)","(1134, 453)","(1143, 450)","(1157, 453)","(1173, 458)","(1159, 467)","(1145, 471)","(1135, 472)","(1127, 470)","(1120, 466)","(1118, 457)","(1127, 457)","(1134, 459)","(1143, 458)","(1167, 458)","(1144, 460)","(1135, 461)","(1128, 459)",0.37,1.26,51.0,0.34,0.01,0.34,0.02,-12.5,0.08,0.31,23.8,51.3,94.5,20.95,43.05,112.0,20.29,45.88,84.88
1566,3276800,109,-56,-1,-1,0,"(1089, 364)","(1087, 386)","(1088, 408)","(1091, 430)","(1095, 453)","(1102, 475)","(1112, 495)","(1125, 512)","(1145, 518)","(1169, 515)","(1194, 504)","(1216, 489)","(1234, 469)","(1246, 446)","(1251, 419)","(1254, 392)","(1255, 365)","(1084, 348)","(1090, 338)","(1102, 335)","(1114, 338)","(1127, 345)","(1156, 343)","(1173, 336)","(1192, 334)","(1211, 340)","(1224, 352)","(1140, 362)","(1137, 378)","(1133, 394)","(1130, 411)","(1122, 421)","(1128, 426)","(1135, 429)","(1145, 426)","(1154, 423)","(1099, 361)","(1106, 355)","(1117, 355)","(1127, 364)","(1117, 366)","(1106, 366)","(1169, 365)","(1180, 356)","(1192, 357)","(1202, 364)","(1192, 368)","(1180, 368)","(1117, 454)","(1122, 449)","(1130, 447)","(1137, 450)","(1146, 448)","(1160, 450)","(1177, 455)","(1162, 464)","(1148, 469)","(1139, 469)","(1131, 468)","(1123, 463)","(1121, 454)","(1131, 455)","(1138, 456)","(1146, 455)","(1170, 455)","(1148, 458)","(1139, 459)","(1132, 457)",0.34,1.27,51.0,0.36,0.03,0.36,0.02,-11.5,0.08,0.31,26.5,56.1,99.5,21.0,43.1,111.65,21.88,48.29,89.29
1600,1114112,109,-56,-1,-1,0,"(1093, 363)","(1090, 384)","(1091, 406)","(1093, 428)","(1097, 450)","(1103, 473)","(1113, 493)","(1126, 510)","(1146, 515)","(1170, 513)","(1195, 502)","(1217, 488)","(1236, 469)","(1248, 445)","(1253, 419)","(1256, 392)","(1258, 365)","(1088, 345)","(1094, 336)","(1106, 334)","(1118, 337)","(1131, 344)","(1159, 342)","(1176, 335)","(1195, 333)","(1213, 339)","(1226, 351)","(1144, 361)","(1140, 377)","(1137, 393)","(1133, 410)","(1125, 419)","(1131, 424)","(1138, 427)","(1148, 425)","(1157, 422)","(1103, 360)","(1110, 353)","(1121, 353)","(1131, 363)","(1120, 365)","(1109, 365)","(1172, 363)","(1183, 355)","(1195, 355)","(1205, 363)","(1195, 367)","(1183, 367)","(1120, 452)","(1125, 448)","(1133, 446)","(1140, 448)","(1149, 446)","(1163, 449)","(1179, 454)","(1164, 462)","(1151, 467)","(1142, 467)","(1134, 466)","(1126, 461)","(1125, 452)","(1133, 453)","(1140, 454)","(1149, 454)","(1173, 454)","(1150, 456)","(1142, 456)","(1134, 455)",0.36,1.25,51.0,0.37,0.05,0.35,0.02,-12.0,0.07,0.31,23.6,54.4,99.7,20.05,42.1,110.8,20.23,46.17,81.88
1633,-589824,109,-56,-1,-1,0,"(1096, 362)","(1092, 383)","(1093, 405)","(1095, 426)","(1100, 448)","(1107, 470)","(1117, 490)","(1129, 507)","(1149, 512)","(1173, 510)","(1198, 499)","(1221, 485)","(1241, 466)","(1254, 444)","(1260, 417)","(1263, 390)","(1264, 363)","(1093, 348)","(1098, 338)","(1110, 334)","(1122, 337)","(1135, 342)","(1162, 341)","(1179, 334)","(1198, 332)","(1216, 338)","(1230, 350)","(1147, 360)","(1143, 376)","(1140, 391)","(1136, 407)","(1127, 418)","(1133, 422)","(1141, 425)","(1151, 423)","(1161, 420)","(1108, 360)","(1114, 353)","(1125, 354)","(1135, 362)","(1124, 365)","(1114, 365)","(1175, 362)","(1185, 354)","(1197, 354)","(1207, 361)","(1197, 366)","(1185, 365)","(1123, 450)","(1128, 446)","(1136, 444)","(1143, 446)","(1152, 444)","(1166, 447)","(1182, 451)","(1167, 460)","(1153, 464)","(1144, 465)","(1136, 463)","(1128, 459)","(1127, 450)","(1136, 451)","(1143, 452)","(1152, 451)","(1176, 451)","(1153, 454)","(1144, 454)","(1137, 453)",0.35,1.24,51.0,0.35,-0.0,0.35,0.02,-12.0,0.08,0.3,24.4,52.5,93.2,19.65,39.4,109.2,17.58,41.52,78.17
1666,-524288,109,-56,-1,-1,0,"(1099, 361)","(1096, 382)","(1095, 403)","(1098, 425)","(1102, 446)","(1110, 468)","(1119, 488)","(1132, 504)","(1151, 510)","(1175, 508)","(1199, 498)","(1222, 484)","(1241, 466)","(1255, 443)","(1261, 417)","(1264, 390)","(1265, 363)","(1097, 345)","(1102, 336)","(1113, 333)","(1125, 336)","(1137, 341)","(1165, 340)","(1181, 333)","(1200, 332)","(1218, 338)","(1231, 349)","(1149, 359)","(1146, 375)","(1142, 390)","(1138, 406)","(1130, 417)","(1136, 421)","(1143, 424)","(1153, 422)","(1162, 419)","(1111, 358)","(1117, 352)","(1128, 352)","(1137, 361)","(1127, 363)","(1116, 363)","(1178, 361)","(1187, 353)","(1199, 354)","(1209, 361)","(1199, 365)","(1188, 365)","(1126, 448)","(1131, 445)","(1138, 443)","(1145, 445)","(1154, 443)","(1168, 446)","(1184, 450)","(1169, 458)","(1155, 462)","(1146, 463)","(1139, 461)","(1131, 457)","(1130, 449)","(1139, 449)","(1146, 451)","(1154, 450)","(1178, 450)","(1155, 452)","(1146, 453)","(1139, 451)",0.37,1.28,51.0,0.34,0.01,0.34,0.01,-11.5,0.07,0.31,23.5,52.4,94.2,17.2,38.65,106.3,17.88,41.41,76.35
1700,-720896,109,-56,-1,-1,0,"(1101, 359)","(1097, 380)","(1097, 401)","(1100, 423)","(1104, 444)","(1112, 465)","(1121, 485)","(1133, 503)","(1152, 509)","(1175, 507)","(1199, 497)","(1222, 483)","(1241, 465)","(1255, 442)","(1262, 416)","(1265, 389)","(1266, 362)","(1099, 345)","(1104, 336)","(1115, 333)","(1127, 335)","(1139, 341)","(1167, 340)","(1183, 333)","(1202, 332)","(1220, 337)","(1233, 349)","(1151, 359)","(1147, 374)","(1144, 390)","(1140, 406)","(1132, 416)","(1138, 420)","(1145, 423)","(1154, 421)","(1164, 418)","(1113, 358)","(1119, 351)","(1130, 352)","(1140, 361)","(1129, 363)","(1118, 363)","(1179, 361)","(1189, 352)","(1201, 353)","(1211, 360)","(1201, 364)","(1189, 364)","(1127, 447)","(1132, 444)","(1140, 442)","(1147, 444)","(1155, 442)","(1169, 445)","(1184, 449)","(1170, 457)","(1157, 461)","(1148, 462)","(1140, 460)","(1133, 456)","(1132, 448)","(1140, 449)","(1147, 450)","(1155, 449)","(1179, 449)","(1156, 451)","(1148, 452)","(1141, 450)",0.35,1.25,51.0,0.35,0.01,0.34,0.01,-12.0,0.07,0.31,21.3,50.7,92.8,19.5,40.45,107.75,17.58,41.82,77.76
1733,-851968,109,-56,-1,-1,0,"(1102, 358)","(1098, 379)","(1098, 400)","(1100, 421)","(1104, 443)","(1112, 464)","(1121, 484)","(1134, 501)","(1153, 507)","(1176, 506)","(1200, 495)","(1223, 482)","(1243, 464)","(1256, 441)","(1262, 416)","(1266, 389)","(1267, 362)","(1101, 344)","(1106, 335)","(1118, 332)","(1130, 335)","(1142, 341)","(1168, 340)","(1185, 333)","(1203, 332)","(1221, 338)","(1235, 350)","(1153, 358)","(1150, 373)","(1146, 388)","(1142, 405)","(1134, 415)","(1140, 419)","(1147, 422)","(1156, 420)","(1166, 417)","(1115, 356)","(1121, 350)","(1132, 350)","(1142, 359)","(1131, 362)","(1120, 361)","(1181, 361)","(1191, 352)","(1203, 353)","(1212, 360)","(1203, 364)","(1191, 364)","(1129, 446)","(1134, 443)","(1142, 441)","(1148, 444)","(1157, 442)","(1170, 444)","(1186, 449)","(1171, 456)","(1158, 460)","(1149, 460)","(1142, 459)","(1135, 454)","(1133, 447)","(1142, 448)","(1149, 449)","(1157, 448)","(1180, 449)","(1158, 450)","(1150, 450)","(1143, 449)",0.37,1.24,51.0,0.35,0.03,0.34,0.01,-12.0,0.07,0.31,23.6,52.9,96.1,19.9,40.5,107.65,18.41,42.58,75.0
1766,-1114112,109,-56,-1,-1,0,"(1103, 357)","(1099, 378)","(1099, 399)","(1101, 420)","(1106, 442)","(1114, 463)","(1123, 483)","(1135, 501)","(1155, 507)","(1178, 505)","(1202, 495)","(1224, 481)","(1244, 462)","(1257, 440)","(1263, 414)","(1267, 387)","(1268, 360)","(1102, 344)","(1107, 334)","(1118, 332)","(1131, 335)","(1143, 341)","(1170, 340)","(1187, 333)","(1205, 332)","(1222, 337)","(1236, 349)","(1154, 358)","(1151, 373)","(1148, 389)","(1145, 405)","(1136, 415)","(1142, 419)","(1149, 422)","(1158, 420)","(1168, 417)","(1116, 355)","(1122, 349)","(1133, 350)","(1143, 359)","(1132, 361)","(1121, 361)","(1182, 360)","(1192, 352)","(1204, 352)","(1213, 359)","(1204, 364)","(1192, 364)","(1131, 445)","(1137, 442)","(1144, 441)","(1151, 443)","(1159, 441)","(1172, 444)","(1188, 448)","(1174, 456)","(1161, 460)","(1152, 460)","(1145, 459)","(1137, 454)","(1136, 446)","(1144, 447)","(1151, 449)","(1159, 448)","(1182, 448)","(1160, 449)","(1152, 450)","(1145, 448)",0.38,1.23,51.0,0.35,0.03,0.34,0.01,-12.0,0.08,0.31,22.1,49.8,92.8,18.55,39.8,106.65,20.0,41.23,75.58
1800,-786432,109,-56,-1,-1,0,"(1104, 354)","(1100, 375)","(1100, 396)","(1102, 417)","(1107, 438)","(1114, 459)","(1123, 479)","(1135, 497)","(1155, 504)","(1178, 502)","(1202, 492)","(1225, 479)","(1244, 460)","(1257, 438)","(1264, 412)","(1267, 385)","(1269, 359)","(1104, 342)","(1109, 333)","(1120, 331)","(1132, 334)","(1144, 340)","(1171, 339)","(1187, 333)","(1205, 331)","(1223, 337)","(1236, 348)","(1155, 357)","(1152, 372)","(1149, 388)","(1145, 404)","(1137, 413)","(1142, 417)","(1149, 421)","(1159, 418)","(1168, 416)","(1118, 354)","(1124, 349)","(1135, 349)","(1144, 358)","(1134, 360)","(1123, 360)","(1183, 359)","(1193, 351)","(1205, 352)","(1214, 359)","(1205, 363)","(1193, 362)","(1132, 443)","(1137, 440)","(1144, 439)","(1151, 442)","(1159, 440)","(1172, 442)","(1187, 446)","(1173, 454)","(1160, 458)","(1152, 458)","(1144, 457)","(1137, 452)","(1136, 444)","(1144, 445)","(1151, 447)","(1159, 446)","(1181, 446)","(1160, 448)","(1152, 448)","(1145, 447)",0.35,1.26,51.0,0.34,0.04,0.33,0.01,-11.5,0.07,0.31,23.7,53.8,96.5,16.7,36.7,103.55,16.11,38.23,71.76
1833,-1310720,109,-56,-1,-1,0,"(1104, 353)","(1101, 374)","(1101, 395)","(1103, 416)","(1108, 437)","(1116, 458)","(1125, 477)","(1138, 495)","(1157, 502)","(1179, 501)","(1203, 491)","(1226, 477)","(1245, 459)","(1258, 436)","(1264, 410)","(1268, 383)","(1269, 356)","(1105, 341)","(1110, 332)","(1121, 331)","(1133, 334)","(1145, 340)","(1172, 339)","(1188, 332)","(1206, 331)","(1223, 335)","(1237, 346)","(1156, 357)","(1153, 373)","(1150, 388)","(1146, 405)","(1138, 413)","(1144, 417)","(1151, 421)","(1160, 418)","(1170, 415)","(1118, 354)","(1125, 348)","(1136, 349)","(1145, 357)","(1135, 360)","(1124, 359)","(1184, 358)","(1193, 350)","(1205, 351)","(1215, 357)","(1206, 362)","(1194, 362)","(1134, 442)","(1139, 440)","(1147, 439)","(1153, 441)","(1161, 439)","(1174, 442)","(1189, 445)","(1175, 453)","(1162, 457)","(1154, 457)","(1147, 456)","(1140, 451)","(1138, 443)","(1147, 445)","(1153, 446)","(1161, 446)","(1183, 446)","(1162, 447)","(1154, 447)","(1147, 446)",0.37,1.24,51.0,0.35,0.04,0.33,0.01,-12.0,0.08,0.33,25.0,53.2,95.6,17.3,38.15,104.7,17.0,38.29,69.76
1866,-917504,109,-56,-1,-1,0,"(1105, 353)","(1102, 373)","(1102, 394)","(1104, 415)","(1109, 436)","(1116, 457)","(1126, 476)","(1137, 494)","(1156, 501)","(1179, 500)","(1202, 490)","(1225, 476)","(1244, 458)","(1257, 436)","(1263, 411)","(1267, 384)","(1268, 358)","(1107, 342)","(1112, 333)","(1123, 331)","(1134, 334)","(1146, 340)","(1172, 338)","(1188, 332)","(1206, 331)","(1223, 336)","(1236, 347)","(1157, 356)","(1154, 372)","(1150, 387)","(1147, 403)","(1139, 412)","(1144, 416)","(1151, 420)","(1160, 417)","(1170, 415)","(1120, 354)","(1127, 348)","(1137, 348)","(1146, 357)","(1136, 360)","(1126, 359)","(1184, 358)","(1194, 350)","(1206, 350)","(1215, 357)","(1206, 362)","(1194, 362)","(1134, 441)","(1139, 439)","(1147, 438)","(1153, 440)","(1161, 438)","(1174, 441)","(1189, 445)","(1175, 452)","(1162, 456)","(1154, 456)","(1147, 455)","(1140, 450)","(1139, 442)","(1147, 444)","(1153, 445)","(1161, 445)","(1183, 445)","(1162, 446)","(1154, 447)","(1147, 445)",0.38,1.25,51.0,0.35,0.04,0.33,0.01,-12.0,0.07,0.32,22.1,50.2,91.8,18.75,37.75,104.1,18.35,40.35,73.29
1900,-1114112,109,-56,-1,-1,0,"(1105, 351)","(1101, 371)","(1101, 392)","(1103, 414)","(1107, 435)","(1115, 455)","(1125, 475)","(1138, 493)","(1156, 499)","(1179, 498)","(1202, 488)","(1225, 475)","(1244, 457)","(1257, 435)","(1263, 410)","(1266, 384)","(1268, 357)","(1107, 339)","(1112, 331)","(1123, 330)","(1135, 333)","(1147, 339)","(1173, 338)","(1189, 332)","(1206, 330)","(1224, 335)","(1237, 346)","(1158, 356)","(1154, 371)","(1151, 386)","(1147, 402)","(1139, 410)","(1145, 415)","(1151, 418)","(1161, 416)","(1170, 413)","(1120, 352)","(1127, 346)","(1137, 347)","(1146, 356)","(1136, 359)","(1125, 358)","(1185, 358)","(1194, 349)","(1206, 350)","(1215, 357)","(1206, 362)","(1194, 361)","(1135, 440)","(1140, 438)","(1147, 436)","(1153, 439)","(1161, 437)","(1174, 440)","(1188, 444)","(1174, 451)","(1162, 455)","(1154, 455)","(1147, 453)","(1140, 449)","(1139, 441)","(1147, 443)","(1154, 444)","(1161, 444)","(1182, 444)","(1162, 445)","(1154, 445)","(1148, 443)",0.39,1.26,51.0,0.34,0.06,0.32,0.01,-13.0,0.07,0.32,24.6,53.0,95.5,17.75,37.55,104.4,15.82,38.58,68.82
1933,3276800,109,-56,-1,-1,0,"(1105, 350)","(1102, 371)","(1102, 391)","(1104, 412)","(1108, 433)","(1116, 454)","(1126, 474)","(1138, 492)","(1158, 498)","(1180, 497)","(1204, 487)","(1226, 473)","(1245, 455)","(1257, 433)","(1263, 407)","(1267, 381)","(1268, 355)","(1106, 340)","(1112, 332)","(1123, 330)","(1134, 334)","(1146, 340)","(1173, 338)","(1189, 332)","(1206, 330)","(1223, 335)","(1237, 346)","(1157, 356)","(1154, 371)","(1151, 387)","(1148, 403)","(1139, 410)","(1145, 415)","(1152, 419)","(1161, 416)","(1170, 413)","(1120, 352)","(1127, 347)","(1137, 348)","(1146, 356)","(1136, 359)","(1126, 358)","(1185, 357)","(1194, 349)","(1206, 350)","(1215, 357)","(1206, 361)","(1195, 361)","(1135, 439)","(1140, 437)","(1148, 436)","(1154, 438)","(1162, 437)","(1175, 439)","(1190, 443)","(1176, 450)","(1163, 454)","(1155, 455)","(1148, 453)","(1141, 448)","(1139, 440)","(1148, 442)","(1154, 444)","(1162, 443)","(1184, 443)","(1163, 445)","(1155, 445)","(1149, 443)",0.38,1.25,51.0,0.34,0.06,0.33,0.01,-12.0,0.07,0.33,22.3,48.0,89.8,17.65,39.5,106.25,17.0,37.29,70.05
1966,-1703936,109,-56,-1,-1,0,"(1106, 348)","(1103, 369)","(1103, 390)","(1105, 411)","(1110, 432)","(1118, 452)","(1127, 472)","(1139, 490)","(1158, 497)","(1180, 496)","(1203, 486)","(1225, 472)","(1244, 454)","(1257, 432)","(1263, 407)","(1267, 380)","(1269, 354)","(1107, 338)","(1113, 329)","(1124, 329)","(1135, 332)","(1147, 339)","(1173, 338)","(1189, 331)","(1206, 329)","(1224, 334)","(1237, 344)","(1158, 355)","(1155, 370)","(1152, 386)","(1148, 402)","(1140, 409)","(1145, 414)","(1152, 417)","(1161, 415)","(1170, 412)","(1120, 351)","(1127, 345)","(1138, 346)","(1147, 355)","(1136, 357)","(1126, 356)","(1185, 357)","(1194, 348)","(1206, 349)","(1216, 356)","(1206, 361)","(1195, 360)","(1135, 438)","(1140, 436)","(1148, 435)","(1154, 437)","(1162, 436)","(1174, 438)","(1189, 442)","(1175, 450)","(1163, 453)","(1155, 454)","(1148, 452)","(1141, 447)","(1140, 439)","(1148, 441)","(1154, 443)","(1162, 442)","(1183, 442)","(1163, 443)","(1155, 444)","(1149, 442)",0.38,1.22,51.0,0.35,0.05,0.33,0.01,-12.5,0.07,0.33,23.7,53.3,96.6,17.45,38.45,105.1,17.76,38.29,70.52
2000,-65536,109,-56,-1,-1,0,"(1106, 348)","(1103, 369)","(1103, 390)","(1105, 411)","(1110, 432)","(1118, 452)","(1128, 472)","(1140, 489)","(1159, 496)","(1181, 495)","(1204, 485)","(1226, 471)","(1244, 454)","(1258, 432)","(1264, 406)","(1268, 380)","(1269, 354)","(1108, 337)","(1114, 329)","(1124, 328)","(1136, 331)","(1147, 337)","(1173, 336)","(1189, 330)","(1206, 328)","(1223, 333)","(1236, 343)","(1158, 354)","(1155, 369)","(1152, 384)","(1148, 400)","(1141, 409)","(1146, 413)","(1153, 416)","(1161, 414)","(1170, 411)","(1121, 350)","(1128, 345)","(1138, 346)","(1147, 355)","(1137, 357)","(1127, 356)","(1185, 356)","(1194, 348)","(1206, 348)","(1215, 355)","(1206, 359)","(1195, 359)","(1136, 437)","(1141, 435)","(1148, 434)","(1155, 436)","(1162, 435)","(1175, 437)","(1190, 441)","(1176, 449)","(1164, 452)","(1155, 453)","(1148, 451)","(1142, 446)","(1140, 438)","(1148, 440)","(1155, 441)","(1162, 441)","(1184, 441)","(1163, 442)","(1156, 443)","(1149, 441)",0.36,1.28,51.0,0.34,0.05,0.33,0.02,-11.5,0.07,0.32,25.9,56.4,100.7,17.55,38.05,104.05,18.05,39.58,71.52
2033,524288,109,-56,-1,-1,0,"(1106, 348)","(1102, 369)","(1103, 389)","(1105, 410)","(1110, 431)","(1118, 451)","(1127, 471)","(1139, 489)","(1158, 495)","(1180, 494)","(1203, 484)","(1225, 470)","(1243, 452)","(1257, 430)","(1263, 405)","(1266, 379)","(1268, 353)","(1107, 337)","(1113, 329)","(1124, 328)","(1135, 331)","(1147, 337)","(1172, 336)","(1188, 330)","(1205, 328)","(1223, 332)","(1236, 343)","(1157, 353)","(1154, 369)","(1151, 384)","(1148, 400)","(1140, 408)","(1145, 413)","(1152, 416)","(1161, 414)","(1170, 411)","(1120, 350)","(1127, 344)","(1137, 345)","(1146, 354)","(1136, 356)","(1126, 355)","(1185, 355)","(1194, 347)","(1205, 347)","(1215, 354)","(1206, 358)","(1194, 358)","(1135, 437)","(1140, 435)","(1148, 433)","(1154, 436)","(1162, 434)","(1175, 436)","(1190, 440)","(1176, 447)","(1163, 451)","(1155, 451)","(1148, 450)","(1141, 446)","(1139, 438)","(1148, 440)","(1154, 441)","(1162, 440)","(1184, 440)","(1163, 441)","(1155, 442)","(1148, 440)",0.36,1.24,51.0,0.34,0.05,0.33,0.01,-11.5,0.08,0.33,26.5,53.0,94.7,15.65,37.3,102.95,17.23,38.58,69.58
2066,1966080,109,-56,-1,-1,0,"(1107, 346)","(1103, 367)","(1103, 387)","(1104, 408)","(1109, 430)","(1117, 451)","(1126, 470)","(1139, 488)","(1158, 495)","(1180, 494)","(1204, 483)","(1225, 469)","(1243, 450)","(1256, 427)","(1262, 403)","(1265, 377)","(1265, 351)","(1107, 334)","(1113, 327)","(1123, 326)","(1135, 330)","(1146, 336)","(1173, 336)","(1189, 329)","(1206, 327)","(1223, 332)","(1236, 341)","(1157, 353)","(1155, 368)","(1151, 383)","(1148, 399)","(1140, 407)","(1145, 412)","(1152, 415)","(1161, 413)","(1170, 410)","(1120, 349)","(1126, 344)","(1137, 345)","(1146, 353)","(1136, 356)","(1125, 355)","(1185, 355)","(1194, 347)","(1206, 348)","(1215, 355)","(1206, 359)","(1195, 359)","(1135, 436)","(1140, 433)","(1148, 432)","(1154, 435)","(1162, 433)","(1175, 436)","(1189, 440)","(1175, 449)","(1163, 452)","(1154, 453)","(1147, 451)","(1140, 446)","(1139, 437)","(1147, 439)","(1154, 440)","(1162, 440)","(1183, 440)","(1162, 442)","(1155, 442)","(1148, 441)",0.38,1.24,51.0,0.35,0.06,0.34,0.02,-12.0,0.08,0.32,25.1,55.3,100.0,18.0,39.4,104.85,14.58,35.7,67.58
2100,3080192,109,-56,-1,-1,0,"(1107, 348)","(1104, 368)","(1103, 389)","(1105, 410)","(1110, 431)","(1118, 452)","(1127, 471)","(1139, 488)","(1158, 495)","(1180, 493)","(1203, 483)","(1225, 469)","(1243, 450)","(1256, 428)","(1262, 404)","(1264, 378)","(1265, 353)","(1106, 335)","(1112, 327)","(1122, 326)","(1134, 330)","(1145, 336)","(1172, 336)","(1187, 329)","(1205, 327)","(1222, 332)","(1235, 342)","(1156, 354)","(1153, 368)","(1150, 383)","(1147, 399)","(1139, 407)","(1144, 412)","(1151, 415)","(1160, 413)","(1169, 410)","(1119, 350)","(1126, 345)","(1136, 345)","(1145, 353)","(1135, 356)","(1125, 355)","(1184, 355)","(1193, 348)","(1205, 349)","(1214, 355)","(1205, 359)","(1193, 359)","(1134, 437)","(1139, 434)","(1147, 432)","(1153, 435)","(1161, 433)","(1174, 435)","(1188, 440)","(1175, 448)","(1162, 452)","(1154, 452)","(1147, 451)","(1140, 446)","(1138, 438)","(1147, 439)","(1153, 440)","(1161, 440)","(1183, 440)","(1162, 442)","(1154, 442)","(1148, 441)",0.35,1.23,51.0,0.35,0.06,0.34,0.02,-11.0,0.08,0.31,25.0,55.0,99.5,17.8,40.15,105.15,15.7,37.7,71.64
2133,786432,109,-56,-1,-1,0,"(1106, 348)","(1102, 368)","(1102, 388)","(1104, 409)","(1108, 431)","(1116, 451)","(1126, 471)","(1139, 489)","(1157, 496)","(1180, 494)","(1203, 484)","(1225, 469)","(1243, 450)","(1256, 427)","(1261, 403)","(1264, 377)","(1264, 351)","(1106, 336)","(1111, 328)","(1121, 327)","(1133, 330)","(1144, 337)","(1172, 336)","(1187, 329)","(1205, 327)","(1222, 331)","(1235, 341)","(1156, 354)","(1153, 369)","(1150, 384)","(1147, 399)","(1139, 408)","(1144, 413)","(1151, 415)","(1160, 413)","(1169, 411)","(1119, 350)","(1125, 345)","(1136, 345)","(1145, 354)","(1134, 356)","(1124, 356)","(1183, 355)","(1193, 347)","(1204, 348)","(1214, 354)","(1205, 359)","(1193, 358)","(1134, 437)","(1139, 434)","(1147, 433)","(1153, 435)","(1161, 433)","(1173, 436)","(1188, 440)","(1174, 448)","(1162, 452)","(1154, 452)","(1147, 451)","(1139, 446)","(1138, 438)","(1147, 439)","(1153, 441)","(1161, 440)","(1182, 440)","(1162, 442)","(1154, 442)","(1147, 440)",0.35,1.21,51.0,0.36,0.05,0.34,0.01,-11.5,0.08,0.31,24.1,55.7,99.7,16.95,37.75,104.35,14.88,37.23,71.23
2166,-589824,109,-56,-1,-1,0,"(1106, 349)","(1102, 369)","(1102, 390)","(1104, 411)","(1109, 432)","(1117, 453)","(1126, 472)","(1139, 489)","(1158, 496)","(1180, 494)","(1204, 484)","(1225, 469)","(1243, 451)","(1256, 428)","(1261, 403)","(1264, 378)","(1264, 352)","(1105, 335)","(1110, 327)","(1121, 327)","(1132, 330)","(1144, 337)","(1171, 336)","(1186, 329)","(1204, 327)","(1221, 331)","(1234, 341)","(1155, 354)","(1153, 368)","(1150, 383)","(1146, 399)","(1139, 408)","(1144, 413)","(1151, 416)","(1160, 414)","(1169, 411)","(1118, 351)","(1124, 345)","(1135, 346)","(1144, 354)","(1134, 357)","(1123, 356)","(1183, 355)","(1192, 348)","(1204, 348)","(1213, 355)","(1204, 359)","(1193, 359)","(1134, 438)","(1139, 434)","(1147, 433)","(1153, 435)","(1161, 434)","(1174, 436)","(1188, 441)","(1175, 449)","(1162, 453)","(1154, 453)","(1147, 451)","(1140, 447)","(1138, 438)","(1147, 440)","(1153, 441)","(1161, 441)","(1182, 441)","(1162, 442)","(1154, 443)","(1147, 441)",0.36,1.24,51.0,0.35,0.06,0.34,0.01,-11.5,0.08,0.31,24.8,55.0,100.6,19.65,41.0,106.9,14.88,36.94,70.52
2200,-589824,109,-56,-1,-1,0,"(1103, 351)","(1100, 372)","(1100, 393)","(1102, 414)","(1107, 434)","(1115, 454)","(1125, 473)","(1137, 490)","(1156, 497)","(1178, 496)","(1201, 485)","(1223, 472)","(1241, 454)","(1254, 433)","(1260, 408)","(1264, 382)","(1265, 356)","(1105, 339)","(1111, 330)","(1122, 328)","(1133, 331)","(1145, 337)","(1171, 336)","(1187, 330)","(1204, 328)","(1222, 333)","(1235, 344)","(1156, 353)","(1153, 369)","(1150, 384)","(1147, 400)","(1139, 408)","(1144, 413)","(1151, 416)","(1160, 413)","(1169, 411)","(1118, 351)","(1125, 345)","(1136, 346)","(1145, 355)","(1134, 357)","(1124, 356)","(1183, 356)","(1192, 347)","(1204, 347)","(1213, 354)","(1204, 359)","(1193, 359)","(1133, 437)","(1138, 435)","(1146, 433)","(1153, 436)","(1160, 434)","(1173, 436)","(1188, 440)","(1174, 448)","(1161, 452)","(1153, 452)","(1146, 451)","(1139, 446)","(1137, 438)","(1146, 440)","(1153, 441)","(1160, 441)","(1182, 441)","(1161, 442)","(1153, 442)","(1147, 441)",0.39,1.23,51.0,0.35,0.03,0.33,0.01,-12.0,0.08,0.32,24.3,53.7,96.8,18.7,38.9,104.05,17.52,38.58,71.47
2233,-131072,109,-56,-1,-1,0,"(1104, 351)","(1101, 371)","(1101, 392)","(1104, 413)","(1109, 434)","(1116, 454)","(1125, 474)","(1137, 491)","(1156, 498)","(1179, 496)","(1202, 486)","(1223, 472)","(1242, 454)","(1255, 432)","(1261, 407)","(1265, 381)","(1266, 354)","(1104, 338)","(1110, 329)","(1121, 328)","(1132, 331)","(1144, 337)","(1170, 336)","(1186, 330)","(1203, 328)","(1221, 333)","(1234, 344)","(1155, 353)","(1152, 369)","(1149, 384)","(1145, 400)","(1137, 408)","(1143, 413)","(1150, 416)","(1159, 413)","(1168, 411)","(1118, 351)","(1124, 345)","(1135, 346)","(1144, 354)","(1133, 357)","(1123, 356)","(1183, 355)","(1192, 347)","(1203, 348)","(1213, 355)","(1204, 359)","(1192, 359)","(1133, 438)","(1138, 435)","(1145, 434)","(1152, 436)","(1160, 434)","(1173, 437)","(1187, 441)","(1173, 448)","(1161, 452)","(1153, 452)","(1145, 451)","(1138, 446)","(1137, 438)","(1145, 440)","(1152, 441)","(1160, 441)","(1181, 441)","(1161, 442)","(1153, 443)","(1146, 441)",0.38,1.23,51.0,0.34,0.04,0.33,0.01,-12.0,0.08,0.32,22.3,52.1,95.0,19.3,39.05,103.65,16.7,38.47,71.7
2266,-720896,109,-56,-1,-1,0,"(1103, 352)","(1100, 373)","(1100, 394)","(1103, 415)","(1107, 435)","(1115, 456)","(1124, 476)","(1136, 493)","(1156, 499)","(1179, 497)","(1202, 487)","(1223, 472)","(1242, 454)","(1254, 432)","(1260, 408)","(1264, 381)","(1265, 356)","(1103, 339)","(1109, 330)","(1120, 329)","(1132, 331)","(1143, 337)","(1170, 336)","(1186, 329)","(1203, 328)","(1221, 333)","(1234, 344)","(1155, 354)","(1152, 369)","(1149, 384)","(1145, 400)","(1137, 409)","(1143, 413)","(1150, 416)","(1159, 414)","(1168, 411)","(1117, 352)","(1124, 346)","(1134, 346)","(1143, 355)","(1133, 358)","(1123, 357)","(1182, 356)","(1192, 348)","(1203, 348)","(1213, 355)","(1204, 360)","(1192, 359)","(1132, 438)","(1137, 435)","(1145, 434)","(1152, 436)","(1160, 434)","(1173, 437)","(1187, 441)","(1174, 449)","(1161, 453)","(1152, 453)","(1145, 452)","(1138, 447)","(1136, 439)","(1145, 440)","(1152, 442)","(1160, 441)","(1181, 441)","(1161, 442)","(1153, 443)","(1146, 441)",0.37,1.21,51.0,0.35,0.03,0.33,0.01,-12.0,0.08,0.31,22.8,52.9,95.0,17.3,38.1,104.1,15.52,38.11,72.7
2300,-851968,109,-56,-1,-1,0,"(1101, 352)","(1099, 373)","(1099, 394)","(1102, 415)","(1106, 436)","(1114, 457)","(1124, 477)","(1136, 494)","(1155, 500)","(1178, 499)","(1201, 488)","(1223, 473)","(1241, 455)","(1254, 433)","(1260, 408)","(1263, 381)","(1265, 355)","(1101, 339)","(1107, 330)","(1118, 328)","(1130, 331)","(1142, 337)","(1169, 336)","(1185, 329)","(1202, 328)","(1220, 333)","(1233, 344)","(1153, 354)","(1151, 369)","(1148, 385)","(1144, 401)","(1136, 410)","(1142, 414)","(1149, 417)","(1158, 415)","(1167, 412)","(1115, 352)","(1122, 346)","(1133, 346)","(1142, 355)","(1132, 358)","(1121, 357)","(1181, 356)","(1190, 348)","(1202, 348)","(1212, 355)","(1203, 360)","(1191, 359)","(1130, 439)","(1136, 436)","(1144, 435)","(1151, 438)","(1159, 436)","(1172, 438)","(1187, 442)","(1173, 450)","(1160, 455)","(1151, 455)","(1144, 453)","(1136, 449)","(1135, 440)","(1144, 441)","(1151, 443)","(1159, 442)","(1181, 442)","(1160, 444)","(1151, 445)","(1144, 443)",0.37,1.19,51.0,0.35,0.03,0.34,0.02,-12.0,0.08,0.32,23.4,52.3,96.4,18.5,39.35,105.4,16.17,38.23,72.29
2333,-458752,108,-56,-1,-1,0,"(1100, 350)","(1098, 372)","(1098, 393)","(1100, 415)","(1105, 436)","(1112, 457)","(1122, 477)","(1134, 495)","(1154, 501)","(1177, 499)","(1200, 489)","(1222, 474)","(1240, 455)","(1253, 433)","(1259, 407)","(1262, 381)","(1264, 354)","(1100, 340)","(1105, 331)","(1117, 329)","(1129, 331)","(1141, 337)","(1168, 336)","(1184, 330)","(1202, 328)","(1219, 333)","(1233, 345)","(1152, 353)","(1150, 369)","(1146, 385)","(1143, 402)","(1135, 410)","(1140, 415)","(1147, 418)","(1157, 415)","(1166, 412)","(1114, 351)","(1121, 346)","(1131, 346)","(1141, 355)","(1130, 357)","(1120, 357)","(1180, 356)","(1190, 348)","(1202, 348)","(1211, 355)","(1202, 359)","(1190, 359)","(1130, 440)","(1135, 437)","(1143, 436)","(1149, 438)","(1158, 436)","(1171, 438)","(1186, 442)","(1172, 451)","(1159, 454)","(1150, 455)","(1143, 453)","(1136, 449)","(1134, 441)","(1143, 442)","(1150, 444)","(1158, 443)","(1180, 443)","(1158, 444)","(1150, 445)","(1143, 443)",0.35,1.23,51.0,0.35,0.03,0.34,0.01,-11.0,0.08,0.33,24.8,52.1,94.9,18.0,38.4,105.45,16.23,38.29,72.94
2366,-851968,108,-56,-1,-1,0,"(1100, 350)","(1097, 371)","(1097, 393)","(1099, 415)","(1103, 436)","(1111, 458)","(1120, 478)","(1132, 495)","(1151, 502)","(1175, 500)","(1198, 490)","(1220, 475)","(1239, 457)","(1252, 435)","(1258, 409)","(1262, 383)","(1264, 356)","(1099, 340)","(1105, 331)","(1116, 329)","(1128, 331)","(1140, 337)","(1166, 336)","(1183, 330)","(1200, 329)","(1218, 334)","(1231, 345)","(1151, 354)","(1148, 369)","(1145, 385)","(1141, 401)","(1133, 409)","(1138, 414)","(1146, 418)","(1155, 415)","(1165, 412)","(1113, 351)","(1119, 346)","(1130, 346)","(1140, 355)","(1129, 358)","(1118, 357)","(1179, 356)","(1188, 348)","(1200, 349)","(1210, 355)","(1201, 360)","(1189, 360)","(1128, 440)","(1133, 437)","(1141, 436)","(1148, 438)","(1156, 436)","(1169, 439)","(1184, 443)","(1169, 451)","(1156, 455)","(1148, 455)","(1140, 454)","(1133, 449)","(1132, 441)","(1141, 442)","(1148, 444)","(1156, 443)","(1178, 443)","(1156, 445)","(1148, 445)","(1141, 444)",0.37,1.21,51.0,0.35,0.03,0.34,0.01,-12.0,0.08,0.31,22.1,52.4,94.5,17.95,38.7,104.45,16.94,38.11,72.94
2400,-1114112,108,-56,-1,-1,0,"(1096, 349)","(1094, 371)","(1095, 393)","(1097, 415)","(1102, 437)","(1109, 459)","(1119, 479)","(1133, 497)","(1152, 503)","(1176, 501)","(1199, 490)","(1221, 475)","(1239, 456)","(1252, 433)","(1258, 407)","(1262, 380)","(1263, 353)","(1095, 338)","(1101, 329)","(1114, 328)","(1127, 331)","(1139, 337)","(1166, 337)","(1182, 330)","(1200, 328)","(1218, 333)","(1232, 344)","(1151, 354)","(1148, 370)","(1145, 386)","(1142, 402)","(1132, 411)","(1138, 416)","(1145, 419)","(1155, 416)","(1164, 414)","(1109, 350)","(1116, 344)","(1128, 345)","(1137, 354)","(1126, 357)","(1115, 356)","(1178, 356)","(1188, 348)","(1200, 348)","(1210, 355)","(1201, 360)","(1189, 360)","(1126, 442)","(1132, 439)","(1140, 437)","(1147, 440)","(1156, 438)","(1169, 440)","(1184, 444)","(1170, 453)","(1157, 456)","(1148, 457)","(1140, 455)","(1133, 451)","(1131, 442)","(1140, 444)","(1147, 445)","(1156, 444)","(1178, 444)","(1157, 446)","(1148, 447)","(1141, 445)",0.37,1.17,51.0,0.36,0.04,0.34,0.02,-12.5,0.07,0.32,24.2,52.2,92.7,18.4,37.65,104.9,16.58,37.76,71.94
2433,5177344,108,-56,-1,-1,0,"(1095, 352)","(1093, 374)","(1094, 396)","(1096, 418)","(1101, 440)","(1108, 461)","(1118, 482)","(1131, 499)","(1150, 504)","(1174, 502)","(1197, 491)","(1220, 477)","(1239, 458)","(1252, 435)","(1258, 409)","(1261, 382)","(1263, 355)","(1094, 340)","(1100, 330)","(1112, 328)","(1125, 331)","(1137, 337)","(1164, 335)","(1181, 329)","(1199, 328)","(1217, 333)","(1230, 344)","(1149, 354)","(1146, 370)","(1143, 386)","(1140, 402)","(1131, 411)","(1137, 416)","(1144, 419)","(1153, 417)","(1163, 414)","(1109, 352)","(1116, 346)","(1127, 346)","(1137, 355)","(1126, 358)","(1115, 357)","(1177, 356)","(1187, 348)","(1199, 348)","(1209, 355)","(1199, 360)","(1187, 360)","(1125, 442)","(1131, 439)","(1139, 437)","(1146, 440)","(1154, 438)","(1167, 440)","(1182, 445)","(1168, 453)","(1155, 457)","(1146, 457)","(1138, 456)","(1131, 451)","(1129, 443)","(1139, 444)","(1146, 446)","(1154, 445)","(1176, 445)","(1155, 446)","(1146, 447)","(1139, 445)",0.37,1.18,51.0,0.35,0.03,0.33,0.01,-12.0,0.08,0.32,22.9,52.4,94.4,19.2,40.3,107.05,16.82,39.7,74.41
2466,-4194304,108,-56,-1,-1,0,"(1094, 353)","(1092, 375)","(1093, 397)","(1095, 420)","(1099, 442)","(1106, 464)","(1116, 484)","(1129, 501)","(1149, 507)","(1173, 505)","(1197, 494)","(1219, 478)","(1238, 460)","(1250, 437)","(1256, 411)","(1260, 383)","(1261, 356)","(1092, 342)","(1098, 331)","(1110, 328)","(1123, 331)","(1136, 337)","(1163, 336)","(1180, 329)","(1199, 328)","(1217, 334)","(1230, 346)","(1148, 354)","(1145, 370)","(1141, 386)","(1138, 403)","(1129, 412)","(1135, 417)","(1142, 420)","(1152, 417)","(1161, 415)","(1107, 353)","(1114, 347)","(1125, 347)","(1135, 356)","(1124, 359)","(1113, 358)","(1176, 357)","(1185, 348)","(1198, 349)","(1207, 356)","(1198, 361)","(1186, 360)","(1124, 444)","(1129, 440)","(1137, 438)","(1144, 441)","(1153, 439)","(1166, 442)","(1181, 446)","(1167, 454)","(1154, 458)","(1145, 459)","(1137, 457)","(1129, 453)","(1128, 444)","(1137, 445)","(1145, 447)","(1153, 446)","(1175, 447)","(1153, 448)","(1145, 448)","(1138, 447)",0.38,1.21,51.0,0.35,0.01,0.34,0.01,-12.5,0.07,0.32,23.0,51.1,94.1,18.9,40.85,107.25,18.82,42.23,76.64
2500,-524288,108,-56,-1,-1,0,"(1093, 353)","(1091, 375)","(1092, 398)","(1094, 420)","(1098, 443)","(1105, 465)","(1115, 486)","(1128, 503)","(1149, 509)","(1173, 507)","(1196, 496)","(1218, 480)","(1235, 461)","(1247, 437)","(1253, 411)","(1256, 384)","(1258, 357)","(1090, 339)","(1096, 329)","(1109, 327)","(1122, 330)","(1135, 337)","(1161, 336)","(1178, 329)","(1197, 328)","(1215, 333)","(1229, 346)","(1146, 354)","(1143, 370)","(1140, 387)","(1137, 404)","(1127, 413)","(1134, 418)","(1141, 421)","(1151, 418)","(1160, 415)","(1106, 352)","(1113, 346)","(1124, 347)","(1134, 356)","(1123, 358)","(1112, 358)","(1174, 357)","(1185, 349)","(1197, 349)","(1207, 357)","(1197, 361)","(1185, 361)","(1122, 445)","(1128, 441)","(1136, 439)","(1143, 442)","(1151, 440)","(1165, 443)","(1180, 448)","(1167, 456)","(1154, 460)","(1144, 461)","(1136, 459)","(1129, 455)","(1126, 446)","(1136, 447)","(1143, 448)","(1152, 447)","(1174, 448)","(1153, 449)","(1144, 450)","(1137, 448)",0.36,1.23,51.0,0.37,0.05,0.35,0.02,-12.0,0.08,0.32,27.2,56.9,102.0,20.15,42.8,108.45,18.94,43.7,79.88
2533,65536,108,-56,-1,-1,0,"(1089, 353)","(1088, 376)","(1090, 398)","(1092, 421)","(1096, 444)","(1103, 466)","(1112, 487)","(1126, 505)","(1147, 511)","(1171, 509)","(1195, 497)","(1216, 481)","(1233, 462)","(1245, 438)","(1250, 412)","(1254, 385)","(1256, 358)","(1087, 340)","(1094, 330)","(1106, 328)","(1119, 331)","(1132, 337)","(1160, 337)","(1177, 330)","(1196, 329)","(1214, 334)","(1227, 347)","(1145, 355)","(1142, 371)","(1139, 388)","(1135, 405)","(1126, 414)","(1132, 419)","(1140, 422)","(1149, 420)","(1158, 417)","(1103, 353)","(1110, 347)","(1122, 348)","(1131, 357)","(1121, 359)","(1109, 359)","(1173, 358)","(1183, 349)","(1196, 350)","(1205, 358)","(1196, 362)","(1184, 362)","(1121, 446)","(1126, 443)","(1134, 441)","(1141, 444)","(1150, 442)","(1164, 444)","(1178, 449)","(1165, 458)","(1152, 462)","(1143, 462)","(1135, 461)","(1127, 456)","(1125, 447)","(1134, 448)","(1142, 450)","(1150, 449)","(1172, 449)","(1152, 451)","(1143, 451)","(1135, 449)",0.39,1.24,51.0,0.36,0.04,0.34,0.01,-12.5,0.07,0.32,24.5,54.9,98.2,17.75,38.0,104.6,20.82,43.64,80.52
2566,1441792,108,-56,-1,-1,0,"(1088, 355)","(1086, 378)","(1088, 401)","(1090, 423)","(1094, 446)","(1102, 469)","(1111, 490)","(1125, 507)","(1146, 513)","(1170, 511)","(1194, 499)","(1215, 484)","(1233, 464)","(1244, 440)","(1250, 414)","(1253, 386)","(1255, 359)","(1085, 340)","(1092, 330)","(1104, 328)","(1117, 331)","(1130, 338)","(1158, 337)","(1176, 330)","(1194, 328)","(1213, 334)","(1226, 347)","(1143, 355)","(1140, 372)","(1137, 388)","(1133, 406)","(1124, 416)","(1130, 420)","(1138, 423)","(1147, 421)","(1156, 418)","(1101, 354)","(1108, 347)","(1119, 348)","(1129, 357)","(1118, 360)","(1107, 359)","(1171, 358)","(1182, 349)","(1194, 350)","(1204, 358)","(1195, 362)","(1182, 362)","(1118, 448)","(1124, 444)","(1132, 442)","(1139, 445)","(1148, 443)","(1162, 446)","(1177, 451)","(1163, 459)","(1150, 463)","(1141, 463)","(1133, 462)","(1125, 457)","(1123, 449)","(1132, 450)","(1140, 451)","(1148, 450)","(1170, 451)","(1150, 452)","(1141, 452)","(1133, 451)",0.37,1.21,51.0,0.36,0.05,0.35,0.01,-13.0,0.07,0.32,27.7,59.3,102.2,17.95,40.25,106.4,18.29,42.47,80.11
2600,3342336,108,-56,-1,-1,0,"(1084, 354)","(1083, 377)","(1085, 400)","(1088, 423)","(1091, 447)","(1099, 470)","(1109, 491)","(1122, 509)","(1143, 515)","(1168, 513)","(1192, 502)","(1214, 486)","(1232, 466)","(1244, 442)","(1249, 415)","(1253, 387)","(1254, 359)","(1082, 340)","(1089, 331)","(1102, 329)","(1115, 332)","(1128, 339)","(1157, 337)","(1174, 331)","(1193, 329)","(1211, 334)","(1225, 347)","(1141, 356)","(1138, 372)","(1134, 389)","(1131, 406)","(1122, 416)","(1128, 421)","(1135, 424)","(1145, 422)","(1154, 419)","(1098, 354)","(1105, 348)","(1117, 349)","(1127, 358)","(1116, 361)","(1104, 360)","(1170, 359)","(1180, 351)","(1193, 351)","(1203, 359)","(1193, 364)","(1180, 363)","(1116, 450)","(1122, 446)","(1130, 444)","(1137, 446)","(1146, 444)","(1160, 447)","(1175, 453)","(1161, 461)","(1148, 465)","(1139, 466)","(1131, 464)","(1123, 460)","(1121, 451)","(1130, 451)","(1138, 453)","(1146, 452)","(1169, 453)","(1147, 454)","(1139, 455)","(1131, 453)",0.37,1.2,51.0,0.36,0.06,0.34,0.01,-13.0,0.07,0.31,27.0,58.0,102.3,20.85,42.9,108.35,19.41,43.58,80.0
2633,2228224,108,-56,-1,-1,0,"(1081, 353)","(1079, 377)","(1082, 401)","(1085, 424)","(1089, 448)","(1097, 471)","(1107, 493)","(1121, 512)","(1142, 518)","(1167, 516)","(1192, 504)","(1214, 487)","(1231, 466)","(1243, 441)","(1248, 413)","(1252, 385)","(1253, 356)","(1080, 341)","(1087, 331)","(1099, 330)","(1112, 333)","(1126, 340)","(1155, 339)","(1172, 332)","(1191, 330)","(1210, 335)","(1224, 347)","(1139, 357)","(1136, 374)","(1132, 391)","(1129, 409)","(1120, 419)","(1126, 423)","(1133, 426)","(1143, 424)","(1152, 421)","(1096, 355)","(1103, 349)","(1115, 350)","(1125, 359)","(1114, 362)","(1102, 361)","(1167, 360)","(1178, 351)","(1191, 352)","(1201, 359)","(1191, 364)","(1178, 364)","(1115, 452)","(1120, 448)","(1128, 447)","(1135, 449)","(1144, 447)","(1157, 450)","(1173, 455)","(1159, 465)","(1146, 469)","(1137, 469)","(1129, 468)","(1121, 463)","(1119, 453)","(1128, 454)","(1136, 455)","(1144, 455)","(1166, 455)","(1145, 458)","(1137, 458)","(1129, 456)",0.36,1.24,51.0,0.36,0.04,0.33,0.02,-13.0,0.07,0.32,25.9,58.3,101.1,18.4,40.05,106.35,18.76,43.41,80.58
2666,-65536,108,-56,-1,-1,0,"(1075, 355)","(1074, 379)","(1077, 403)","(1081, 426)","(1086, 450)","(1094, 474)","(1105, 496)","(1118, 515)","(1139, 521)","(1164, 519)","(1188, 507)","(1212, 490)","(1232, 471)","(1245, 446)","(1253, 418)","(1257, 389)","(1260, 360)","(1077, 343)","(1085, 333)","(1098, 332)","(1111, 335)","(1125, 342)","(1153, 341)","(1170, 334)","(1189, 332)","(1209, 338)","(1224, 350)","(1137, 359)","(1134, 376)","(1130, 394)","(1126, 412)","(1118, 420)","(1124, 425)","(1131, 429)","(1141, 426)","(1150, 423)","(1094, 356)","(1102, 350)","(1114, 351)","(1123, 360)","(1112, 363)","(1101, 362)","(1166, 362)","(1176, 353)","(1189, 354)","(1200, 361)","(1190, 366)","(1177, 366)","(1113, 456)","(1118, 451)","(1126, 449)","(1133, 452)","(1142, 450)","(1155, 453)","(1170, 458)","(1156, 467)","(1143, 472)","(1134, 472)","(1126, 471)","(1119, 465)","(1118, 456)","(1126, 456)","(1133, 458)","(1142, 457)","(1164, 458)","(1143, 460)","(1134, 461)","(1127, 459)",0.36,1.21,51.0,0.34,0.05,0.3,0.02,-13.0,0.07,0.32,24.2,52.9,94.4,16.15,35.4,99.1,13.94,36.41,68.41
2700,-589824,108,-56,-1,-1,0,"(1076, 354)","(1074, 378)","(1076, 402)","(1079, 426)","(1084, 450)","(1092, 475)","(1102, 498)","(1115, 518)","(1137, 524)","(1162, 522)","(1188, 509)","(1212, 492)","(1232, 471)","(1245, 445)","(1251, 417)","(1255, 388)","(1257, 358)","(1075, 340)","(1082, 332)","(1094, 331)","(1107, 335)","(1120, 342)","(1151, 341)","(1168, 334)","(1187, 332)","(1206, 336)","(1221, 348)","(1134, 360)","(1131, 377)","(1127, 394)","(1123, 412)","(1116, 422)","(1121, 427)","(1128, 430)","(1138, 428)","(1147, 425)","(1092, 357)","(1099, 350)","(1111, 351)","(1121, 361)","(1109, 364)","(1098, 363)","(1164, 362)","(1174, 353)","(1187, 354)","(1198, 362)","(1188, 367)","(1174, 366)","(1111, 457)","(1116, 453)","(1124, 451)","(1130, 454)","(1139, 451)","(1153, 454)","(1168, 460)","(1154, 470)","(1141, 475)","(1132, 475)","(1124, 474)","(1117, 468)","(1116, 458)","(1124, 459)","(1131, 460)","(1139, 459)","(1162, 460)","(1140, 463)","(1132, 463)","(1125, 461)",0.38,1.27,51.0,0.34,0.07,0.31,0.02,-14.0,0.07,0.31,27.2,59.2,103.6,15.6,35.1,95.8,15.64,39.76,74.82
2733,-524288,108,-56,-1,-1,0,"(1074, 359)","(1072, 383)","(1074, 407)","(1079, 430)","(1083, 454)","(1091, 479)","(1101, 502)","(1114, 521)","(1135, 528)","(1160, 525)","(1186, 512)","(1211, 495)","(1231, 474)","(1244, 448)","(1251, 420)","(1255, 391)","(1256, 361)","(1073, 344)","(1079, 334)","(1091, 333)","(1104, 336)","(1117, 343)","(1148, 342)","(1166, 334)","(1185, 332)","(1204, 338)","(1219, 349)","(1131, 362)","(1128, 379)","(1124, 397)","(1120, 415)","(1113, 425)","(1119, 430)","(1126, 433)","(1135, 430)","(1145, 427)","(1089, 360)","(1096, 353)","(1108, 354)","(1119, 363)","(1107, 367)","(1095, 366)","(1162, 364)","(1172, 355)","(1185, 356)","(1196, 363)","(1186, 369)","(1173, 368)","(1109, 461)","(1114, 455)","(1121, 453)","(1129, 456)","(1137, 453)","(1152, 456)","(1167, 462)","(1153, 473)","(1139, 478)","(1130, 479)","(1122, 477)","(1115, 472)","(1114, 461)","(1122, 461)","(1129, 462)","(1138, 461)","(1160, 462)","(1139, 466)","(1130, 467)","(1123, 465)",0.38,1.29,51.0,0.35,0.03,0.31,0.03,-14.0,0.07,0.31,29.1,61.1,105.3,16.65,37.75,96.95,18.35,42.76,78.47
2766,-655360,108,-56,-1,-1,0,"(1060, 354)","(1058, 379)","(1059, 404)","(1064, 428)","(1072, 452)","(1082, 477)","(1094, 501)","(1109, 522)","(1130, 531)","(1156, 529)","(1181, 516)","(1205, 499)","(1226, 478)","(1240, 453)","(1247, 423)","(1252, 393)","(1254, 362)","(1066, 341)","(1076, 333)","(1089, 333)","(1103, 338)","(1116, 345)","(1145, 343)","(1163, 336)","(1182, 334)","(1202, 340)","(1217, 351)","(1129, 363)","(1126, 381)","(1122, 399)","(1118, 418)","(1108, 425)","(1114, 431)","(1123, 435)","(1134, 432)","(1144, 429)","(1085, 359)","(1093, 353)","(1105, 354)","(1114, 364)","(1103, 366)","(1091, 365)","(1159, 366)","(1170, 357)","(1183, 358)","(1194, 365)","(1183, 370)","(1171, 370)","(1103, 459)","(1109, 456)","(1118, 455)","(1125, 458)","(1134, 456)","(1149, 459)","(1166, 464)","(1151, 476)","(1136, 481)","(1127, 481)","(1119, 479)","(1110, 472)","(1108, 460)","(1118, 462)","(1125, 464)","(1134, 463)","(1159, 464)","(1135, 469)","(1126, 469)","(1119, 467)",0.35,1.27,51.0,0.33,0.09,0.32,0.02,-13.0,0.07,0.32,30.0,61.9,107.8,18.2,39.35,98.8,18.05,41.23,72.17
2800,-983040,108,-56,-1,-1,0,"(1062, 358)","(1061, 382)","(1063, 407)","(1068, 431)","(1075, 455)","(1083, 479)","(1094, 503)","(1108, 524)","(1129, 533)","(1154, 531)","(1180, 518)","(1204, 502)","(1224, 481)","(1239, 456)","(1246, 426)","(1250, 395)","(1253, 365)","(1066, 343)","(1075, 335)","(1087, 335)","(1100, 339)","(1113, 346)","(1143, 345)","(1161, 338)","(1180, 336)","(1200, 341)","(1215, 352)","(1126, 365)","(1123, 383)","(1119, 401)","(1115, 420)","(1106, 428)","(1113, 434)","(1121, 437)","(1131, 435)","(1141, 431)","(1084, 361)","(1092, 354)","(1104, 356)","(1113, 366)","(1102, 368)","(1090, 367)","(1157, 368)","(1167, 358)","(1181, 359)","(1192, 367)","(1182, 372)","(1169, 372)","(1102, 462)","(1107, 459)","(1115, 458)","(1122, 461)","(1131, 459)","(1146, 462)","(1163, 467)","(1148, 478)","(1134, 483)","(1124, 484)","(1116, 482)","(1108, 475)","(1107, 464)","(1116, 465)","(1123, 467)","(1132, 466)","(1156, 467)","(1133, 471)","(1124, 472)","(1117, 469)",0.38,1.34,51.0,0.33,0.08,0.31,0.02,-14.0,0.07,0.32,29.2,61.3,105.3,17.9,38.6,97.1,18.88,41.76,73.0
2833,-917504,107,-56,-1,-1,0,"(1060, 359)","(1058, 384)","(1060, 408)","(1066, 433)","(1073, 457)","(1082, 481)","(1093, 505)","(1107, 527)","(1129, 534)","(1154, 533)","(1180, 519)","(1204, 502)","(1224, 481)","(1238, 455)","(1244, 426)","(1249, 395)","(1251, 365)","(1063, 344)","(1072, 336)","(1085, 336)","(1099, 341)","(1112, 349)","(1140, 347)","(1158, 340)","(1178, 338)","(1198, 343)","(1213, 354)","(1124, 367)","(1121, 385)","(1117, 403)","(1113, 423)","(1104, 430)","(1111, 436)","(1119, 440)","(1129, 437)","(1139, 433)","(1081, 361)","(1089, 355)","(1101, 357)","(1110, 367)","(1099, 370)","(1087, 369)","(1155, 369)","(1165, 360)","(1179, 360)","(1190, 368)","(1180, 374)","(1166, 373)","(1101, 465)","(1106, 462)","(1114, 460)","(1121, 463)","(1130, 461)","(1145, 464)","(1161, 469)","(1147, 480)","(1133, 485)","(1123, 485)","(1115, 484)","(1107, 477)","(1106, 466)","(1114, 467)","(1122, 469)","(1131, 469)","(1155, 470)","(1132, 473)","(1123, 474)","(1115, 471)",0.38,1.32,51.0,0.33,0.09,0.31,0.02,-14.5,0.07,0.33,30.4,60.3,105.6,16.95,37.55,95.6,18.11,40.58,72.7
2866,-1245184,107,-56,-1,-1,0,"(1060, 362)","(1058, 386)","(1060, 411)","(1064, 435)","(1070, 459)","(1079, 484)","(1090, 508)","(1104, 530)","(1125, 537)","(1151, 536)","(1177, 523)","(1202, 506)","(1222, 485)","(1237, 459)","(1243, 429)","(1248, 399)","(1250, 368)","(1062, 347)","(1070, 338)","(1083, 338)","(1096, 342)","(1109, 350)","(1139, 348)","(1158, 341)","(1177, 339)","(1197, 344)","(1212, 356)","(1122, 368)","(1119, 387)","(1115, 405)","(1111, 424)","(1102, 432)","(1109, 438)","(1117, 442)","(1127, 439)","(1137, 435)","(1080, 364)","(1087, 358)","(1099, 359)","(1109, 369)","(1098, 372)","(1086, 371)","(1154, 371)","(1164, 361)","(1177, 362)","(1188, 370)","(1178, 375)","(1165, 375)","(1099, 468)","(1104, 464)","(1112, 463)","(1119, 466)","(1128, 463)","(1142, 466)","(1159, 471)","(1144, 482)","(1130, 487)","(1121, 488)","(1113, 486)","(1105, 480)","(1104, 469)","(1112, 470)","(1119, 471)","(1128, 471)","(1152, 471)","(1129, 475)","(1121, 476)","(1113, 474)",0.39,1.29,51.0,0.33,0.08,0.31,0.03,-14.0,0.07,0.33,28.3,61.2,104.3,17.1,36.35,95.15,16.76,39.35,70.29
2900,-1114112,107,-56,-1,-1,0,"(1060, 363)","(1058, 387)","(1060, 412)","(1064, 436)","(1070, 460)","(1078, 485)","(1089, 509)","(1102, 531)","(1124, 539)","(1149, 537)","(1175, 525)","(1200, 508)","(1221, 487)","(1236, 461)","(1243, 431)","(1247, 400)","(1250, 369)","(1060, 349)","(1068, 340)","(1081, 340)","(1094, 344)","(1107, 351)","(1137, 350)","(1156, 342)","(1176, 340)","(1197, 346)","(1212, 359)","(1120, 370)","(1117, 388)","(1113, 407)","(1108, 426)","(1100, 434)","(1106, 440)","(1114, 443)","(1125, 441)","(1135, 437)","(1078, 366)","(1085, 359)","(1097, 360)","(1107, 370)","(1096, 373)","(1084, 372)","(1152, 372)","(1162, 363)","(1176, 364)","(1187, 371)","(1177, 377)","(1163, 376)","(1097, 470)","(1101, 466)","(1109, 465)","(1116, 467)","(1125, 465)","(1141, 468)","(1157, 473)","(1142, 484)","(1128, 489)","(1119, 490)","(1110, 488)","(1103, 482)","(1102, 471)","(1109, 472)","(1117, 473)","(1126, 473)","(1150, 474)","(1127, 477)","(1118, 478)","(1111, 475)",0.37,1.38,51.0,0.33,0.08,0.31,0.02,-14.0,0.07,0.33,30.6,61.6,105.0,16.95,36.8,97.7,16.23,39.64,71.82
2933,4390912,107,-56,-1,-1,0,"(1059, 367)","(1058, 392)","(1061, 416)","(1066, 440)","(1072, 464)","(1080, 489)","(1090, 513)","(1103, 534)","(1125, 541)","(1150, 539)","(1176, 526)","(1201, 509)","(1222, 487)","(1236, 461)","(1243, 431)","(1247, 400)","(1249, 370)","(1059, 351)","(1067, 342)","(1079, 341)","(1092, 345)","(1105, 352)","(1136, 351)","(1154, 343)","(1174, 341)","(1195, 346)","(1210, 358)","(1119, 371)","(1116, 389)","(1112, 408)","(1108, 427)","(1100, 436)","(1106, 441)","(1114, 445)","(1124, 442)","(1134, 439)","(1077, 368)","(1084, 361)","(1096, 362)","(1106, 372)","(1095, 375)","(1083, 374)","(1151, 373)","(1161, 364)","(1175, 365)","(1186, 372)","(1175, 378)","(1162, 377)","(1097, 472)","(1101, 468)","(1109, 466)","(1116, 469)","(1125, 467)","(1140, 470)","(1156, 475)","(1142, 486)","(1128, 491)","(1118, 492)","(1110, 490)","(1103, 484)","(1102, 473)","(1109, 473)","(1117, 475)","(1126, 474)","(1149, 475)","(1127, 479)","(1118, 480)","(1111, 478)",0.37,1.36,51.0,0.33,0.05,0.31,0.02,-14.0,0.07,0.32,30.0,62.5,107.7,15.85,35.95,94.75,22.35,46.94,81.82
2966,-4718592,107,-56,-1,-1,0,"(1059, 368)","(1057, 392)","(1059, 417)","(1064, 441)","(1070, 465)","(1077, 491)","(1087, 515)","(1101, 536)","(1123, 543)","(1149, 541)","(1176, 528)","(1200, 510)","(1221, 489)","(1236, 462)","(1243, 433)","(1247, 402)","(1249, 371)","(1058, 354)","(1065, 344)","(1077, 343)","(1091, 346)","(1104, 353)","(1135, 351)","(1154, 344)","(1175, 343)","(1195, 349)","(1211, 361)","(1118, 373)","(1114, 391)","(1110, 410)","(1106, 429)","(1098, 437)","(1104, 443)","(1112, 447)","(1122, 444)","(1133, 441)","(1076, 369)","(1083, 362)","(1095, 363)","(1105, 374)","(1094, 377)","(1082, 376)","(1151, 375)","(1161, 365)","(1175, 366)","(1186, 374)","(1175, 379)","(1162, 379)","(1096, 475)","(1100, 470)","(1107, 468)","(1115, 471)","(1124, 468)","(1139, 471)","(1155, 477)","(1141, 488)","(1127, 493)","(1117, 493)","(1109, 492)","(1101, 486)","(1101, 475)","(1108, 475)","(1115, 476)","(1124, 476)","(1148, 477)","(1126, 481)","(1117, 481)","(1109, 479)",0.38,1.35,51.0,0.33,0.05,0.31,0.03,-14.5,0.07,0.32,26.8,58.5,102.8,17.05,36.25,94.9,17.88,42.11,74.58
3000,-786432,107,-56,-1,-1,0,"(1058, 367)","(1057, 392)","(1059, 417)","(1063, 441)","(1069, 466)","(1077, 491)","(1087, 515)","(1101, 536)","(1123, 544)","(1149, 542)","(1176, 528)","(1201, 510)","(1221, 488)","(1235, 462)","(1242, 432)","(1246, 401)","(1247, 370)","(1058, 354)","(1064, 345)","(1077, 344)","(1090, 347)","(1104, 354)","(1134, 353)","(1153, 346)","(1174, 344)","(1194, 349)","(1210, 362)","(1117, 374)","(1114, 392)","(1110, 411)","(1106, 430)","(1098, 438)","(1104, 444)","(1112, 448)","(1122, 445)","(1133, 442)","(1075, 370)","(1082, 363)","(1094, 364)","(1104, 374)","(1093, 377)","(1081, 376)","(1150, 376)","(1160, 366)","(1174, 367)","(1185, 375)","(1174, 380)","(1161, 380)","(1096, 475)","(1100, 471)","(1108, 469)","(1115, 472)","(1124, 470)","(1139, 473)","(1155, 478)","(1141, 489)","(1127, 494)","(1117, 495)","(1109, 493)","(1101, 487)","(1101, 476)","(1108, 476)","(1115, 478)","(1124, 477)","(1148, 478)","(1126, 482)","(1117, 482)","(1109, 480)",0.38,1.36,51.0,0.34,0.05,0.31,0.02,-14.0,0.08,0.32,29.5,60.0,104.1,14.3,33.6,92.4,18.41,41.58,74.7
3033,-196608,107,-56,-1,-1,0,"(1058, 369)","(1057, 394)","(1059, 418)","(1063, 442)","(1069, 466)","(1076, 492)","(1086, 516)","(1100, 537)","(1122, 544)","(1148, 543)","(1175, 530)","(1200, 512)","(1221, 490)","(1235, 464)","(1242, 434)","(1246, 403)","(1247, 372)","(1057, 354)","(1064, 345)","(1077, 344)","(1090, 348)","(1104, 355)","(1134, 354)","(1153, 346)","(1174, 344)","(1195, 350)","(1210, 362)","(1117, 374)","(1114, 393)","(1110, 412)","(1106, 431)","(1097, 439)","(1104, 445)","(1112, 449)","(1122, 446)","(1133, 442)","(1075, 370)","(1082, 364)","(1094, 365)","(1104, 375)","(1093, 378)","(1081, 377)","(1150, 376)","(1160, 367)","(1174, 368)","(1185, 376)","(1174, 381)","(1161, 381)","(1094, 475)","(1099, 472)","(1107, 470)","(1114, 473)","(1123, 471)","(1138, 474)","(1155, 479)","(1140, 489)","(1126, 495)","(1116, 495)","(1108, 493)","(1100, 487)","(1099, 476)","(1107, 477)","(1115, 479)","(1124, 478)","(1148, 479)","(1125, 482)","(1116, 483)","(1108, 481)",0.38,1.33,51.0,0.34,0.06,0.32,0.02,-14.0,0.08,0.33,31.1,60.8,106.3,16.6,35.2,94.15,19.17,42.58,75.58
3066,1114112,107,-56,-1,-1,0,"(1058, 369)","(1056, 393)","(1058, 418)","(1062, 442)","(1068, 466)","(1076, 492)","(1086, 516)","(1100, 537)","(1122, 545)","(1149, 543)","(1175, 530)","(1200, 512)","(1221, 490)","(1235, 464)","(1241, 434)","(1246, 403)","(1247, 373)","(1057, 355)","(1064, 346)","(1076, 344)","(1090, 348)","(1104, 355)","(1134, 353)","(1153, 346)","(1174, 345)","(1194, 351)","(1210, 363)","(1117, 375)","(1114, 394)","(1109, 412)","(1105, 431)","(1097, 440)","(1103, 445)","(1112, 449)","(1122, 446)","(1132, 443)","(1075, 372)","(1082, 365)","(1094, 366)","(1104, 376)","(1093, 379)","(1081, 378)","(1150, 377)","(1160, 368)","(1174, 368)","(1185, 376)","(1174, 382)","(1161, 381)","(1095, 477)","(1099, 472)","(1107, 470)","(1114, 473)","(1124, 471)","(1139, 474)","(1155, 479)","(1141, 490)","(1126, 495)","(1116, 496)","(1108, 494)","(1100, 488)","(1100, 477)","(1107, 478)","(1115, 479)","(1124, 478)","(1148, 479)","(1125, 483)","(1116, 484)","(1108, 482)",0.38,1.34,51.0,0.34,0.06,0.31,0.02,-14.0,0.07,0.32,32.5,64.7,107.6,16.95,35.85,93.9,17.17,40.23,74.94
3100,3145728,107,-56,-1,-1,0,"(1059, 370)","(1057, 395)","(1059, 419)","(1064, 443)","(1070, 467)","(1077, 493)","(1087, 517)","(1100, 538)","(1122, 546)","(1148, 544)","(1175, 531)","(1200, 513)","(1220, 492)","(1235, 466)","(1241, 436)","(1245, 405)","(1247, 374)","(1058, 356)","(1064, 346)","(1077, 345)","(1091, 349)","(1104, 356)","(1135, 355)","(1153, 347)","(1174, 346)","(1195, 352)","(1210, 365)","(1117, 375)","(1114, 394)","(1110, 412)","(1106, 432)","(1097, 439)","(1103, 445)","(1112, 449)","(1122, 446)","(1133, 443)","(1075, 371)","(1082, 365)","(1094, 366)","(1105, 375)","(1093, 378)","(1081, 378)","(1150, 377)","(1160, 368)","(1174, 369)","(1185, 377)","(1174, 382)","(1161, 381)","(1094, 476)","(1099, 472)","(1107, 471)","(1114, 474)","(1123, 472)","(1138, 474)","(1155, 479)","(1140, 490)","(1126, 495)","(1116, 495)","(1108, 494)","(1100, 487)","(1099, 477)","(1107, 478)","(1115, 479)","(1124, 479)","(1148, 479)","(1125, 483)","(1116, 484)","(1108, 482)",0.37,1.33,51.0,0.34,0.06,0.32,0.02,-13.5,0.08,0.33,28.2,59.9,102.0,15.95,34.65,92.9,21.41,44.35,80.35
3133,1703936,107,-56,-1,-1,0,"(1060, 370)","(1058, 394)","(1060, 418)","(1065, 442)","(1070, 466)","(1078, 492)","(1088, 516)","(1101, 538)","(1122, 546)","(1149, 544)","(1175, 531)","(1200, 514)","(1221, 492)","(1235, 466)","(1242, 436)","(1246, 405)","(1248, 374)","(1058, 356)","(1065, 347)","(1078, 345)","(1092, 349)","(1105, 356)","(1136, 355)","(1155, 348)","(1175, 346)","(1196, 351)","(1212, 364)","(1119, 376)","(1115, 394)","(1111, 413)","(1107, 432)","(1099, 440)","(1105, 446)","(1113, 450)","(1123, 447)","(1134, 444)","(1076, 373)","(1083, 366)","(1096, 367)","(1106, 377)","(1094, 380)","(1082, 379)","(1151, 378)","(1162, 369)","(1176, 369)","(1187, 377)","(1177, 383)","(1163, 383)","(1097, 477)","(1101, 473)","(1108, 471)","(1116, 474)","(1125, 472)","(1140, 475)","(1156, 480)","(1141, 491)","(1127, 496)","(1117, 497)","(1109, 495)","(1102, 489)","(1102, 478)","(1109, 478)","(1116, 480)","(1125, 479)","(1149, 480)","(1126, 484)","(1117, 485)","(1110, 483)",0.38,1.36,51.0,0.35,0.05,0.31,0.02,-14.0,0.07,0.32,29.6,59.4,103.1,15.65,34.55,95.8,20.82,44.7,80.11
3166,-1114112,107,-56,-1,-1,0,"(1059, 367)","(1057, 392)","(1059, 416)","(1063, 441)","(1069, 465)","(1078, 491)","(1088, 515)","(1103, 537)","(1125, 545)","(1151, 543)","(1178, 530)","(1203, 512)","(1223, 490)","(1237, 463)","(1244, 433)","(1248, 402)","(1250, 371)","(1059, 353)","(1066, 345)","(1079, 345)","(1092, 349)","(1105, 357)","(1137, 355)","(1156, 348)","(1176, 346)","(1197, 351)","(1213, 363)","(1120, 376)","(1117, 395)","(1113, 414)","(1109, 433)","(1100, 441)","(1106, 446)","(1115, 450)","(1125, 447)","(1135, 444)","(1076, 371)","(1084, 364)","(1097, 365)","(1106, 376)","(1095, 379)","(1083, 377)","(1153, 378)","(1164, 368)","(1178, 369)","(1189, 377)","(1178, 383)","(1165, 382)","(1098, 476)","(1102, 473)","(1110, 471)","(1117, 474)","(1126, 472)","(1141, 475)","(1158, 479)","(1143, 490)","(1129, 496)","(1119, 496)","(1111, 494)","(1104, 488)","(1103, 477)","(1110, 478)","(1118, 480)","(1127, 479)","(1151, 480)","(1128, 483)","(1119, 484)","(1111, 482)",0.38,1.37,51.0,0.34,0.09,0.31,0.02,-15.0,0.07,0.33,27.6,60.1,102.4,15.25,34.4,93.3,17.0,38.94,72.58
3200,-1376256,107,-56,-1,-1,0,"(1061, 368)","(1059, 393)","(1062, 417)","(1067, 441)","(1073, 466)","(1081, 491)","(1091, 515)","(1105, 536)","(1127, 544)","(1153, 542)","(1179, 529)","(1204, 512)","(1224, 491)","(1238, 464)","(1245, 434)","(1249, 403)","(1251, 372)","(1060, 354)","(1068, 346)","(1081, 345)","(1094, 349)","(1108, 356)","(1139, 355)","(1158, 347)","(1178, 345)","(1199, 351)","(1215, 363)","(1122, 376)","(1119, 394)","(1115, 413)","(1111, 433)","(1102, 441)","(1109, 446)","(1117, 450)","(1127, 447)","(1137, 444)","(1079, 371)","(1087, 365)","(1099, 366)","(1109, 376)","(1097, 379)","(1085, 378)","(1155, 378)","(1166, 369)","(1180, 369)","(1190, 377)","(1180, 383)","(1167, 382)","(1100, 476)","(1104, 473)","(1112, 471)","(1119, 474)","(1128, 472)","(1143, 474)","(1160, 479)","(1145, 490)","(1131, 495)","(1122, 495)","(1114, 494)","(1106, 488)","(1105, 477)","(1112, 478)","(1120, 480)","(1129, 479)","(1153, 479)","(1130, 483)","(1121, 484)","(1114, 481)",0.38,1.37,51.0,0.34,0.07,0.31,0.02,-14.0,0.07,0.33,27.9,61.5,106.6,16.6,34.75,92.55,19.58,44.29,78.58
3233,-1048576,107,-56,-1,-1,0,"(1062, 368)","(1060, 393)","(1062, 417)","(1067, 441)","(1073, 465)","(1082, 490)","(1093, 514)","(1107, 535)","(1128, 543)","(1154, 542)","(1180, 529)","(1205, 512)","(1225, 491)","(1239, 464)","(1246, 435)","(1250, 404)","(1252, 373)","(1062, 353)","(1071, 345)","(1084, 345)","(1097, 349)","(1111, 356)","(1142, 354)","(1161, 347)","(1181, 345)","(1201, 351)","(1217, 362)","(1125, 376)","(1122, 394)","(1118, 413)","(1114, 432)","(1106, 440)","(1112, 446)","(1120, 449)","(1130, 447)","(1140, 443)","(1081, 371)","(1089, 364)","(1102, 366)","(1112, 376)","(1100, 379)","(1088, 378)","(1157, 378)","(1168, 369)","(1182, 369)","(1193, 377)","(1183, 383)","(1169, 383)","(1102, 475)","(1107, 472)","(1115, 470)","(1123, 473)","(1131, 471)","(1147, 474)","(1163, 479)","(1148, 489)","(1134, 494)","(1125, 495)","(1116, 493)","(1109, 487)","(1107, 476)","(1116, 477)","(1123, 479)","(1132, 478)","(1156, 479)","(1133, 482)","(1124, 482)","(1117, 480)",0.38,1.33,51.0,0.35,0.08,0.32,0.02,-14.5,0.07,0.33,28.7,60.6,106.4,16.6,35.45,93.35,19.41,43.35,78.82
3266,-1048576,107,-56,-1,-1,0,"(1064, 366)","(1063, 391)","(1066, 416)","(1070, 440)","(1076, 465)","(1084, 490)","(1095, 513)","(1109, 534)","(1131, 542)","(1157, 540)","(1183, 527)","(1208, 510)","(1227, 488)","(1241, 462)","(1247, 432)","(1251, 401)","(1253, 370)","(1065, 352)","(1073, 344)","(1086, 344)","(1099, 349)","(1113, 356)","(1145, 355)","(1163, 347)","(1183, 345)","(1203, 349)","(1219, 360)","(1128, 375)","(1125, 393)","(1121, 411)","(1118, 431)","(1109, 439)","(1115, 444)","(1123, 448)","(1133, 445)","(1143, 442)","(1083, 370)","(1091, 364)","(1104, 365)","(1114, 375)","(1102, 378)","(1090, 377)","(1159, 377)","(1170, 367)","(1184, 368)","(1195, 376)","(1185, 382)","(1171, 381)","(1105, 474)","(1110, 471)","(1118, 469)","(1125, 472)","(1134, 470)","(1149, 472)","(1165, 477)","(1151, 487)","(1137, 493)","(1128, 493)","(1119, 491)","(1111, 486)","(1110, 475)","(1118, 476)","(1126, 478)","(1135, 477)","(1158, 478)","(1136, 480)","(1127, 481)","(1120, 479)",0.38,1.31,51.0,0.35,0.07,0.31,0.02,-14.5,0.07,0.33,25.7,56.7,101.7,15.4,35.05,93.85,17.41,43.11,78.88
3300,-1114112,106,-56,-1,-1,0,"(1061, 364)","(1059, 389)","(1061, 415)","(1066, 439)","(1073, 464)","(1083, 488)","(1096, 512)","(1111, 533)","(1134, 540)","(1159, 539)","(1185, 526)","(1209, 509)","(1228, 487)","(1241, 460)","(1248, 431)","(1252, 400)","(1254, 370)","(1065, 351)","(1075, 343)","(1088, 343)","(1102, 347)","(1117, 355)","(1149, 354)","(1167, 347)","(1186, 344)","(1206, 349)","(1220, 360)","(1131, 373)","(1128, 392)","(1125, 411)","(1122, 431)","(1112, 438)","(1119, 444)","(1127, 447)","(1137, 444)","(1146, 441)","(1085, 369)","(1094, 362)","(1106, 363)","(1116, 373)","(1104, 376)","(1092, 375)","(1162, 376)","(1173, 367)","(1187, 367)","(1197, 375)","(1188, 381)","(1174, 380)","(1107, 472)","(1113, 469)","(1121, 468)","(1129, 471)","(1138, 469)","(1152, 471)","(1168, 476)","(1154, 486)","(1140, 491)","(1131, 491)","(1123, 489)","(1114, 483)","(1112, 473)","(1122, 475)","(1129, 477)","(1138, 476)","(1162, 476)","(1139, 479)","(1131, 479)","(1123, 477)",0.38,1.23,51.0,0.34,0.08,0.31,0.02,-14.0,0.07,0.34,26.6,59.8,103.3,17.15,36.65,93.6,17.41,41.94,73.11
3333,-786432,106,-56,-1,-1,0,"(1062, 360)","(1060, 385)","(1062, 411)","(1067, 436)","(1074, 460)","(1085, 485)","(1098, 508)","(1114, 529)","(1136, 537)","(1162, 536)","(1187, 523)","(1210, 506)","(1229, 484)","(1242, 458)","(1249, 428)","(1253, 398)","(1255, 368)","(1067, 345)","(1078, 339)","(1093, 341)","(1107, 347)","(1121, 355)","(1153, 354)","(1171, 347)","(1190, 344)","(1210, 348)","(1225, 358)","(1136, 373)","(1133, 392)","(1130, 411)","(1127, 431)","(1116, 437)","(1123, 443)","(1131, 447)","(1141, 444)","(1151, 441)","(1086, 365)","(1096, 359)","(1109, 361)","(1118, 372)","(1107, 375)","(1094, 373)","(1166, 375)","(1178, 366)","(1192, 366)","(1203, 374)","(1193, 381)","(1179, 380)","(1110, 470)","(1117, 468)","(1126, 467)","(1133, 470)","(1142, 468)","(1156, 471)","(1172, 475)","(1158, 485)","(1144, 490)","(1135, 490)","(1126, 488)","(1118, 482)","(1115, 472)","(1126, 474)","(1133, 476)","(1142, 475)","(1165, 475)","(1144, 478)","(1135, 478)","(1127, 476)",0.39,1.18,51.0,0.36,0.11,0.32,0.02,-15.5,0.07,0.35,27.2,57.9,104.3,17.4,36.45,97.5,18.35,41.0,73.82
3366,-983040,106,-56,-1,-1,0,"(1070, 363)","(1070, 389)","(1074, 414)","(1079, 439)","(1084, 464)","(1093, 489)","(1106, 511)","(1122, 530)","(1144, 536)","(1169, 534)","(1194, 521)","(1217, 503)","(1235, 481)","(1247, 455)","(1254, 427)","(1258, 397)","(1260, 366)","(1071, 352)","(1080, 343)","(1095, 342)","(1109, 346)","(1124, 354)","(1157, 353)","(1175, 345)","(1195, 343)","(1215, 348)","(1230, 360)","(1140, 372)","(1137, 391)","(1134, 409)","(1131, 429)","(1121, 437)","(1127, 442)","(1135, 446)","(1145, 443)","(1155, 440)","(1091, 368)","(1099, 361)","(1113, 363)","(1123, 373)","(1111, 376)","(1098, 375)","(1170, 375)","(1181, 365)","(1195, 366)","(1206, 374)","(1195, 380)","(1182, 380)","(1114, 471)","(1121, 468)","(1130, 466)","(1138, 469)","(1146, 467)","(1160, 469)","(1175, 474)","(1161, 484)","(1148, 488)","(1139, 489)","(1130, 487)","(1122, 482)","(1119, 472)","(1130, 473)","(1138, 475)","(1147, 474)","(1168, 474)","(1148, 476)","(1139, 477)","(1131, 475)",0.4,1.14,51.0,0.35,0.06,0.32,0.02,-15.0,0.07,0.34,27.3,60.2,104.8,19.55,40.05,101.45,21.82,45.52,83.29
3400,-786432,106,-56,-1,-1,0,"(1073, 363)","(1073, 389)","(1076, 414)","(1080, 438)","(1086, 463)","(1096, 487)","(1108, 509)","(1124, 528)","(1146, 535)","(1171, 532)","(1196, 519)","(1219, 502)","(1238, 480)","(1250, 455)","(1256, 426)","(1260, 397)","(1262, 367)","(1075, 355)","(1084, 345)","(1099, 343)","(1114, 347)","(1129, 354)","(1158, 352)","(1177, 345)","(1197, 343)","(1217, 348)","(1232, 360)","(1143, 372)","(1140, 391)","(1138, 409)","(1135, 428)","(1124, 437)","(1131, 442)","(1139, 445)","(1149, 442)","(1159, 439)","(1095, 369)","(1104, 362)","(1117, 363)","(1128, 374)","(1116, 377)","(1103, 376)","(1172, 375)","(1184, 365)","(1198, 366)","(1208, 374)","(1198, 380)","(1185, 379)","(1117, 470)","(1125, 467)","(1134, 465)","(1141, 468)","(1150, 466)","(1163, 468)","(1178, 472)","(1164, 481)","(1152, 486)","(1142, 487)","(1134, 485)","(1126, 480)","(1123, 471)","(1134, 472)","(1141, 474)","(1150, 473)","(1172, 472)","(1151, 474)","(1142, 475)","(1135, 473)",0.38,1.08,51.0,0.36,0.04,0.32,0.01,-15.0,0.08,0.34,25.7,57.3,102.0,19.6,41.1,107.05,21.29,47.11,84.05
3433,8716288,106,-56,-1,-1,0,"(1078, 365)","(1077, 390)","(1079, 415)","(1083, 439)","(1088, 463)","(1098, 487)","(1110, 508)","(1126, 526)","(1148, 532)","(1173, 530)","(1197, 517)","(1218, 500)","(1234, 479)","(1244, 454)","(1249, 427)","(1253, 399)","(1254, 371)","(1082, 356)","(1089, 345)","(1103, 343)","(1118, 346)","(1132, 353)","(1163, 352)","(1180, 344)","(1199, 342)","(1218, 347)","(1231, 360)","(1147, 372)","(1145, 389)","(1142, 407)","(1140, 425)","(1128, 435)","(1135, 439)","(1143, 443)","(1153, 440)","(1162, 437)","(1099, 370)","(1107, 363)","(1120, 363)","(1130, 374)","(1119, 377)","(1106, 376)","(1175, 375)","(1186, 365)","(1200, 365)","(1210, 373)","(1201, 379)","(1187, 379)","(1120, 468)","(1127, 463)","(1137, 461)","(1144, 464)","(1153, 462)","(1166, 465)","(1180, 471)","(1167, 481)","(1154, 486)","(1145, 487)","(1137, 485)","(1127, 479)","(1125, 468)","(1137, 469)","(1144, 471)","(1153, 470)","(1174, 471)","(1154, 474)","(1145, 475)","(1137, 473)",0.4,1.09,51.0,0.37,0.02,0.34,0.02,-14.0,0.08,0.33,29.0,60.3,106.2,22.0,44.2,108.55,21.76,48.11,89.41
3466,-3473408,106,-56,-1,-1,0,"(1075, 359)","(1075, 385)","(1078, 410)","(1083, 435)","(1090, 459)","(1101, 483)","(1115, 505)","(1131, 525)","(1153, 532)","(1178, 529)","(1202, 515)","(1224, 498)","(1242, 476)","(1253, 450)","(1259, 421)","(1263, 392)","(1264, 362)","(1080, 349)","(1090, 341)","(1105, 341)","(1119, 346)","(1133, 353)","(1166, 352)","(1184, 344)","(1202, 342)","(1222, 345)","(1237, 355)","(1149, 371)","(1148, 389)","(1145, 408)","(1143, 427)","(1131, 435)","(1138, 440)","(1147, 443)","(1156, 441)","(1165, 437)","(1100, 366)","(1109, 359)","(1122, 360)","(1132, 371)","(1120, 374)","(1107, 373)","(1178, 373)","(1189, 363)","(1203, 363)","(1214, 371)","(1204, 377)","(1190, 377)","(1124, 468)","(1132, 466)","(1141, 464)","(1148, 467)","(1157, 465)","(1170, 467)","(1185, 470)","(1172, 480)","(1159, 485)","(1150, 485)","(1141, 484)","(1133, 478)","(1130, 469)","(1141, 472)","(1148, 473)","(1157, 472)","(1179, 471)","(1158, 473)","(1150, 473)","(1142, 471)",0.38,1.09,51.0,0.36,0.05,0.32,0.01,-14.5,0.08,0.34,24.7,54.5,97.5,18.65,39.55,106.6,18.41,42.29,78.58
3500,-131072,106,-56,-1,-1,0,"(1087, 369)","(1086, 393)","(1088, 417)","(1091, 441)","(1097, 464)","(1106, 487)","(1118, 507)","(1135, 525)","(1157, 530)","(1182, 528)","(1206, 515)","(1227, 498)","(1244, 476)","(1254, 452)","(1260, 425)","(1263, 397)","(1264, 369)","(1088, 355)","(1096, 344)","(1110, 342)","(1124, 345)","(1138, 352)","(1168, 351)","(1186, 343)","(1206, 341)","(1224, 346)","(1238, 359)","(1152, 370)","(1151, 388)","(1148, 405)","(1146, 424)","(1134, 433)","(1141, 438)","(1149, 441)","(1159, 439)","(1169, 435)","(1106, 369)","(1114, 362)","(1126, 362)","(1136, 372)","(1125, 375)","(1113, 375)","(1181, 373)","(1192, 363)","(1206, 364)","(1216, 372)","(1206, 377)","(1193, 377)","(1128, 468)","(1135, 463)","(1144, 461)","(1151, 464)","(1160, 461)","(1173, 465)","(1188, 470)","(1174, 480)","(1161, 485)","(1152, 485)","(1143, 484)","(1135, 478)","(1133, 468)","(1144, 469)","(1152, 470)","(1160, 469)","(1181, 470)","(1160, 472)","(1152, 473)","(1144, 471)",0.38,1.11,51.0,0.36,0.02,0.33,0.02,-13.5,0.09,0.33,28.1,60.3,106.5,17.2,35.7,95.2,18.58,45.82,85.47
3533,524288,106,-56,-1,-1,0,"(1088, 366)","(1087, 390)","(1089, 414)","(1093, 438)","(1099, 462)","(1109, 485)","(1121, 506)","(1137, 523)","(1159, 529)","(1183, 526)","(1206, 513)","(1227, 495)","(1243, 474)","(1254, 450)","(1260, 423)","(1263, 395)","(1265, 367)","(1092, 355)","(1099, 344)","(1113, 341)","(1127, 344)","(1141, 351)","(1172, 350)","(1189, 342)","(1207, 340)","(1226, 345)","(1239, 357)","(1156, 369)","(1154, 387)","(1152, 404)","(1149, 423)","(1137, 432)","(1144, 437)","(1152, 440)","(1162, 437)","(1171, 434)","(1109, 368)","(1117, 361)","(1129, 361)","(1139, 371)","(1128, 374)","(1116, 373)","(1184, 371)","(1195, 362)","(1208, 362)","(1217, 370)","(1208, 375)","(1195, 375)","(1130, 466)","(1137, 462)","(1147, 460)","(1154, 462)","(1163, 460)","(1176, 463)","(1190, 467)","(1177, 478)","(1164, 483)","(1155, 484)","(1146, 483)","(1138, 477)","(1135, 467)","(1147, 467)","(1154, 468)","(1163, 467)","(1184, 468)","(1163, 471)","(1155, 472)","(1147, 471)",0.39,1.07,51.0,0.35,0.01,0.33,0.02,-13.0,0.08,0.33,28.6,60.2,104.7,17.5,36.7,96.4,18.7,44.76,85.58
3566,2490368,106,-56,-1,-1,0,"(1091, 366)","(1090, 390)","(1093, 415)","(1097, 439)","(1103, 462)","(1113, 484)","(1126, 504)","(1142, 521)","(1163, 526)","(1188, 524)","(1210, 510)","(1230, 493)","(1246, 472)","(1257, 448)","(1262, 421)","(1266, 394)","(1266, 366)","(1095, 354)","(1103, 343)","(1117, 340)","(1131, 344)","(1145, 350)","(1175, 349)","(1192, 342)","(1210, 339)","(1228, 344)","(1241, 356)","(1159, 368)","(1157, 385)","(1155, 403)","(1153, 422)","(1141, 431)","(1148, 435)","(1156, 439)","(1166, 436)","(1175, 432)","(1112, 366)","(1120, 360)","(1133, 360)","(1142, 370)","(1131, 373)","(1119, 372)","(1187, 370)","(1198, 361)","(1211, 361)","(1220, 369)","(1211, 374)","(1198, 374)","(1133, 465)","(1141, 461)","(1150, 458)","(1158, 461)","(1167, 459)","(1180, 461)","(1194, 466)","(1181, 476)","(1168, 481)","(1159, 482)","(1151, 480)","(1142, 475)","(1138, 466)","(1150, 466)","(1158, 467)","(1167, 466)","(1188, 466)","(1168, 469)","(1159, 470)","(1151, 468)",0.39,1.05,51.0,0.36,0.01,0.34,0.02,-13.0,0.09,0.34,27.5,58.2,104.2,17.55,38.95,99.3,19.58,45.94,85.7
3600,3735552,106,-56,-1,-1,0,"(1091, 364)","(1091, 388)","(1094, 413)","(1098, 437)","(1105, 460)","(1116, 482)","(1129, 501)","(1145, 518)","(1167, 523)","(1191, 520)","(1212, 507)","(1232, 490)","(1248, 469)","(1258, 445)","(1263, 419)","(1266, 392)","(1267, 364)","(1097, 353)","(1105, 342)","(1119, 339)","(1134, 342)","(1148, 349)","(1177, 348)","(1194, 340)","(1212, 338)","(1230, 343)","(1243, 355)","(1162, 366)","(1161, 384)","(1159, 402)","(1157, 420)","(1145, 429)","(1152, 434)","(1160, 437)","(1169, 434)","(1178, 431)","(1115, 365)","(1123, 359)","(1135, 359)","(1145, 369)","(1134, 371)","(1122, 371)","(1189, 369)","(1200, 360)","(1212, 360)","(1222, 367)","(1213, 373)","(1200, 372)","(1137, 462)","(1145, 458)","(1154, 456)","(1161, 459)","(1170, 456)","(1182, 459)","(1195, 463)","(1183, 473)","(1171, 478)","(1163, 479)","(1154, 478)","(1146, 472)","(1142, 463)","(1154, 463)","(1162, 465)","(1170, 463)","(1190, 463)","(1171, 466)","(1162, 467)","(1155, 466)",0.37,1.02,51.0,0.35,0.01,0.32,0.02,-12.5,0.09,0.34,28.8,61.4,108.1,17.35,36.5,94.45,19.0,45.58,87.05
