milliseconds, ECG, ECG HR, PPG, PPG HR, SpO2, PI
1523633450859,2097152,112,-56,-1,-1,0
1523633450859,2686976,112,-56,-1,-1,0
1523633450859,3342336,112,-56,-1,-1,0
1523633450859,3801088,112,-56,-1,-1,0
1523633450859,4128768,112,-56,-1,-1,0
1523633450922,4194304,112,-56,-1,-1,0
1523633450922,4128768,112,-56,-1,-1,0
1523633450922,3801088,112,-56,-1,-1,0
1523633450922,3276800,112,-56,-1,-1,0
1523633450922,2555904,112,-56,-1,-1,0
1523633450939,1638400,112,-56,-1,-1,0
1523633450939,851968,112,-56,-1,-1,0
1523633450939,262144,112,-56,-1,-1,0
1523633450939,-196608,112,-56,-1,-1,0
1523633450939,-589824,112,-56,-1,-1,0
1523633450979,-851968,112,-56,-1,-1,0
1523633450979,-983040,112,-56,-1,-1,0
1523633450979,-1114112,112,-56,-1,-1,0
1523633450979,-1114112,112,-56,-1,-1,0
1523633450979,-1048576,112,-56,-1,-1,0
1523633451019,-917504,112,-56,-1,-1,0
1523633451019,-851968,112,-56,-1,-1,0
1523633451019,-720896,112,-56,-1,-1,0
1523633451019,-589824,112,-56,-1,-1,0
1523633451019,-524288,112,-56,-1,-1,0
1523633451060,-458752,112,-56,-1,-1,0
1523633451060,-393216,112,-56,-1,-1,0
1523633451060,-393216,112,-56,-1,-1,0
1523633451060,-393216,112,-56,-1,-1,0
1523633451060,-524288,112,-56,-1,-1,0
1523633451100,-589824,112,-56,-1,-1,0
1523633451100,-720896,112,-56,-1,-1,0
1523633451100,-851968,112,-56,-1,-1,0
1523633451100,-851968,112,-56,-1,-1,0
1523633451100,-851968,112,-56,-1,-1,0
1523633451139,-851968,111,-56,-1,-1,0
1523633451139,-851968,111,-56,-1,-1,0
1523633451139,-851968,111,-56,-1,-1,0
1523633451139,-983040,111,-56,-1,-1,0
1523633451139,-1048576,111,-56,-1,-1,0
1523633451179,-1179648,111,-56,-1,-1,0
1523633451179,-1179648,111,-56,-1,-1,0
1523633451179,-1114112,111,-56,-1,-1,0
1523633451179,-1114112,111,-56,-1,-1,0
1523633451179,-1114112,111,-56,-1,-1,0
1523633451219,-1048576,111,-56,-1,-1,0
1523633451219,-1048576,111,-56,-1,-1,0
1523633451219,-1048576,111,-56,-1,-1,0
1523633451219,-1048576,111,-56,-1,-1,0
1523633451219,-1245184,111,-56,-1,-1,0
1523633451259,-1179648,111,-56,-1,-1,0
1523633451259,589824,111,-56,-1,-1,0
1523633451259,5177344,111,-56,-1,-1,0
1523633451259,9371648,111,-56,-1,-1,0
1523633451259,8585216,111,-56,-1,-1,0
1523633451299,2686976,111,-56,-1,-1,0
1523633451299,-2818048,111,-56,-1,-1,0
1523633451299,-4718592,111,-56,-1,-1,0
1523633451299,-3932160,111,-56,-1,-1,0
1523633451299,-2686976,111,-56,-1,-1,0
1523633451339,-1703936,111,-56,-1,-1,0
1523633451339,-1179648,111,-56,-1,-1,0
1523633451339,-917504,111,-56,-1,-1,0
1523633451339,-655360,111,-56,-1,-1,0
1523633451339,-458752,111,-56,-1,-1,0
1523633451379,-327680,111,-56,-1,-1,0
1523633451379,-393216,111,-56,-1,-1,0
1523633451379,-393216,111,-56,-1,-1,0
1523633451379,-327680,111,-56,-1,-1,0
1523633451379,0,111,-56,-1,-1,0
1523633451419,262144,111,-56,-1,-1,0
1523633451419,655360,111,-56,-1,-1,0
1523633451419,1114112,111,-56,-1,-1,0
1523633451419,1638400,111,-56,-1,-1,0
1523633451419,2162688,111,-56,-1,-1,0
1523633451460,2621440,111,-56,-1,-1,0
1523633451460,2949120,111,-56,-1,-1,0
1523633451460,3145728,111,-56,-1,-1,0
1523633451460,3276800,111,-56,-1,-1,0
1523633451460,3014656,111,-56,-1,-1,0
1523633451499,2752512,111,-56,-1,-1,0
1523633451499,2359296,111,-56,-1,-1,0
1523633451499,1638400,111,-56,-1,-1,0
1523633451499,786432,111,-56,-1,-1,0
1523633451499,262144,111,-56,-1,-1,0
1523633451559,0,111,-56,-1,-1,0
1523633451559,-393216,111,-56,-1,-1,0
1523633451559,-786432,111,-56,-1,-1,0
1523633451559,-917504,111,-56,-1,-1,0
1523633451559,-983040,111,-56,-1,-1,0
1523633451579,-1048576,111,-56,-1,-1,0
1523633451579,-983040,111,-56,-1,-1,0
1523633451579,-983040,111,-56,-1,-1,0
1523633451579,-983040,111,-56,-1,-1,0
1523633451579,-917504,111,-56,-1,-1,0
1523633451619,-851968,111,-56,-1,-1,0
1523633451619,-917504,111,-56,-1,-1,0
1523633451619,-720896,111,-56,-1,-1,0
1523633451619,-524288,111,-56,-1,-1,0
1523633451619,-589824,111,-56,-1,-1,0
1523633451659,-851968,111,-56,-1,-1,0
1523633451659,-983040,111,-56,-1,-1,0
1523633451659,-786432,111,-56,-1,-1,0
1523633451659,-589824,111,-56,-1,-1,0
1523633451659,-720896,111,-56,-1,-1,0
1523633451700,-983040,111,-56,-1,-1,0
1523633451700,-1048576,111,-56,-1,-1,0
1523633451700,-917504,111,-56,-1,-1,0
1523633451700,-917504,111,-56,-1,-1,0
1523633451700,-1048576,111,-56,-1,-1,0
1523633451739,-983040,111,-56,-1,-1,0
1523633451739,-917504,111,-56,-1,-1,0
1523633451739,-851968,111,-56,-1,-1,0
1523633451739,-786432,111,-56,-1,-1,0
1523633451739,-851968,111,-56,-1,-1,0
1523633451779,-917504,110,-56,-1,-1,0
1523633451779,-983040,110,-56,-1,-1,0
1523633451779,-983040,110,-56,-1,-1,0
1523633451779,-1114112,110,-56,-1,-1,0
1523633451779,-1245184,110,-56,-1,-1,0
1523633451819,-1310720,110,-56,-1,-1,0
1523633451819,-1245184,110,-56,-1,-1,0
1523633451819,-1114112,110,-56,-1,-1,0
1523633451819,-1114112,110,-56,-1,-1,0
1523633451819,-1310720,110,-56,-1,-1,0
1523633451859,-1310720,110,-56,-1,-1,0
1523633451859,0,110,-56,-1,-1,0
1523633451859,3670016,110,-56,-1,-1,0
1523633451859,7012352,110,-56,-1,-1,0
1523633451859,6094848,110,-56,-1,-1,0
1523633451900,1376256,110,-56,-1,-1,0
1523633451900,-2818048,110,-56,-1,-1,0
1523633451900,-4325376,110,-56,-1,-1,0
1523633451900,-3997696,110,-56,-1,-1,0
1523633451900,-2883584,110,-56,-1,-1,0
1523633451939,-1966080,110,-56,-1,-1,0
1523633451939,-1310720,110,-56,-1,-1,0
1523633451939,-917504,110,-56,-1,-1,0
1523633451939,-786432,110,-56,-1,-1,0
1523633451939,-655360,110,-56,-1,-1,0
1523633451980,-524288,110,-56,-1,-1,0
1523633451980,-393216,110,-56,-1,-1,0
1523633451980,-327680,110,-56,-1,-1,0
1523633451980,-262144,110,-56,-1,-1,0
1523633451980,-131072,110,-56,-1,-1,0
1523633452019,0,110,-56,-1,-1,0
1523633452019,393216,110,-56,-1,-1,0
1523633452019,786432,110,-56,-1,-1,0
1523633452019,1114112,110,-56,-1,-1,0
1523633452019,1507328,110,-56,-1,-1,0
1523633452059,1966080,110,-56,-1,-1,0
1523633452059,2293760,110,-56,-1,-1,0
1523633452059,2490368,110,-56,-1,-1,0
1523633452059,2621440,110,-56,-1,-1,0
1523633452059,2686976,110,-56,-1,-1,0
1523633452099,2621440,110,-56,-1,-1,0
1523633452099,2424832,110,-56,-1,-1,0
1523633452099,1900544,110,-56,-1,-1,0
1523633452099,1310720,110,-56,-1,-1,0
1523633452099,786432,110,-56,-1,-1,0
1523633452140,327680,110,-56,-1,-1,0
1523633452140,-65536,110,-56,-1,-1,0
1523633452140,-393216,110,-56,-1,-1,0
1523633452140,-589824,110,-56,-1,-1,0
1523633452140,-720896,110,-56,-1,-1,0
1523633452179,-720896,110,-56,-1,-1,0
1523633452179,-720896,110,-56,-1,-1,0
1523633452179,-720896,110,-56,-1,-1,0
1523633452179,-786432,110,-56,-1,-1,0
1523633452179,-720896,110,-56,-1,-1,0
1523633452220,-655360,110,-56,-1,-1,0
1523633452220,-589824,110,-56,-1,-1,0
1523633452220,-524288,110,-56,-1,-1,0
1523633452220,-393216,110,-56,-1,-1,0
1523633452220,-393216,110,-56,-1,-1,0
1523633452259,-458752,110,-56,-1,-1,0
1523633452259,-524288,110,-56,-1,-1,0
1523633452259,-458752,110,-56,-1,-1,0
1523633452259,-458752,110,-56,-1,-1,0
1523633452259,-458752,110,-56,-1,-1,0
1523633452299,-524288,110,-56,-1,-1,0
1523633452299,-524288,110,-56,-1,-1,0
1523633452299,-589824,110,-56,-1,-1,0
1523633452299,-589824,110,-56,-1,-1,0
1523633452299,-589824,110,-56,-1,-1,0
1523633452339,-524288,110,-56,-1,-1,0
1523633452339,-524288,110,-56,-1,-1,0
1523633452339,-655360,110,-56,-1,-1,0
1523633452339,-655360,110,-56,-1,-1,0
1523633452339,-524288,110,-56,-1,-1,0
1523633452379,-458752,110,-56,-1,-1,0
1523633452379,-524288,110,-56,-1,-1,0
1523633452379,-524288,110,-56,-1,-1,0
1523633452379,-458752,110,-56,-1,-1,0
1523633452379,-393216,110,-56,-1,-1,0
1523633452419,-458752,109,-56,-1,-1,0
1523633452419,-524288,109,-56,-1,-1,0
1523633452419,-524288,109,-56,-1,-1,0
1523633452419,-458752,109,-56,-1,-1,0
1523633452419,-655360,109,-56,-1,-1,0
1523633452459,-786432,109,-56,-1,-1,0
1523633452459,-786432,109,-56,-1,-1,0
1523633452459,-720896,109,-56,-1,-1,0
1523633452459,-589824,109,-56,-1,-1,0
1523633452459,-786432,109,-56,-1,-1,0
1523633452499,-786432,109,-56,-1,-1,0
1523633452499,393216,109,-56,-1,-1,0
1523633452499,4063232,109,-56,-1,-1,0
1523633452499,7929856,109,-56,-1,-1,0
1523633452499,7929856,109,-56,-1,-1,0
1523633452540,3145728,109,-56,-1,-1,0
1523633452540,-1900544,109,-56,-1,-1,0
1523633452540,-4128768,109,-56,-1,-1,0
1523633452540,-3735552,109,-56,-1,-1,0
1523633452540,-2555904,109,-56,-1,-1,0
1523633452579,-1310720,109,-56,-1,-1,0
1523633452579,-524288,109,-56,-1,-1,0
1523633452579,-196608,109,-56,-1,-1,0
1523633452579,-65536,109,-56,-1,-1,0
1523633452579,0,109,-56,-1,-1,0
1523633452619,0,109,-56,-1,-1,0
1523633452619,65536,109,-56,-1,-1,0
1523633452619,262144,109,-56,-1,-1,0
1523633452619,458752,109,-56,-1,-1,0
1523633452619,589824,109,-56,-1,-1,0
1523633452659,786432,109,-56,-1,-1,0
1523633452659,917504,109,-56,-1,-1,0
1523633452659,1245184,109,-56,-1,-1,0
1523633452659,1835008,109,-56,-1,-1,0
1523633452659,2621440,109,-56,-1,-1,0
1523633452699,3080192,109,-56,-1,-1,0
1523633452699,3342336,109,-56,-1,-1,0
1523633452699,3670016,109,-56,-1,-1,0
1523633452699,3932160,109,-56,-1,-1,0
1523633452699,3801088,109,-56,-1,-1,0
1523633452740,3276800,109,-56,-1,-1,0
1523633452740,2883584,109,-56,-1,-1,0
1523633452740,2555904,109,-56,-1,-1,0
1523633452740,2097152,109,-56,-1,-1,0
1523633452740,1507328,109,-56,-1,-1,0
1523633452779,1114112,109,-56,-1,-1,0
1523633452779,589824,109,-56,-1,-1,0
1523633452779,262144,109,-56,-1,-1,0
1523633452779,0,109,-56,-1,-1,0
1523633452779,-262144,109,-56,-1,-1,0
1523633452819,-589824,109,-56,-1,-1,0
1523633452819,-786432,109,-56,-1,-1,0
1523633452819,-786432,109,-56,-1,-1,0
1523633452819,-720896,109,-56,-1,-1,0
1523633452819,-458752,109,-56,-1,-1,0
1523633452860,-524288,109,-56,-1,-1,0
1523633452860,-458752,109,-56,-1,-1,0
1523633452860,-65536,109,-56,-1,-1,0
1523633452860,262144,109,-56,-1,-1,0
1523633452860,-131072,109,-56,-1,-1,0
1523633452900,-720896,109,-56,-1,-1,0
1523633452900,-589824,109,-56,-1,-1,0
1523633452900,-131072,109,-56,-1,-1,0
1523633452900,0,109,-56,-1,-1,0
1523633452900,-393216,109,-56,-1,-1,0
1523633452939,-851968,109,-56,-1,-1,0
1523633452939,-1048576,109,-56,-1,-1,0
1523633452939,-1048576,109,-56,-1,-1,0
1523633452939,-1114112,109,-56,-1,-1,0
1523633452939,-1310720,109,-56,-1,-1,0
1523633452979,-1114112,109,-56,-1,-1,0
1523633452979,-917504,109,-56,-1,-1,0
1523633452979,-1310720,109,-56,-1,-1,0
1523633452979,-1507328,109,-56,-1,-1,0
1523633452979,-1048576,109,-56,-1,-1,0
1523633453020,-786432,109,-56,-1,-1,0
1523633453020,-851968,109,-56,-1,-1,0
1523633453020,-786432,109,-56,-1,-1,0
1523633453020,-917504,109,-56,-1,-1,0
1523633453020,-1310720,109,-56,-1,-1,0
1523633453059,-1310720,109,-56,-1,-1,0
1523633453059,-1114112,109,-56,-1,-1,0
1523633453059,-1114112,109,-56,-1,-1,0
1523633453059,-1179648,109,-56,-1,-1,0
1523633453059,-917504,109,-56,-1,-1,0
1523633453099,-917504,109,-56,-1,-1,0
1523633453099,-851968,109,-56,-1,-1,0
1523633453099,-720896,109,-56,-1,-1,0
1523633453099,-786432,109,-56,-1,-1,0
1523633453099,-1048576,109,-56,-1,-1,0
1523633453140,-1114112,109,-56,-1,-1,0
1523633453140,-262144,109,-56,-1,-1,0
1523633453140,2424832,109,-56,-1,-1,0
1523633453140,6094848,109,-56,-1,-1,0
1523633453140,6881280,109,-56,-1,-1,0
1523633453179,3276800,109,-56,-1,-1,0
1523633453179,-1572864,109,-56,-1,-1,0
1523633453179,-4063232,109,-56,-1,-1,0
1523633453179,-4128768,109,-56,-1,-1,0
1523633453179,-3080192,109,-56,-1,-1,0
1523633453220,-1703936,109,-56,-1,-1,0
1523633453220,-655360,109,-56,-1,-1,0
1523633453220,-655360,109,-56,-1,-1,0
1523633453220,-851968,109,-56,-1,-1,0
1523633453220,-524288,109,-56,-1,-1,0
1523633453259,-65536,109,-56,-1,-1,0
1523633453259,0,109,-56,-1,-1,0
1523633453259,131072,109,-56,-1,-1,0
1523633453259,196608,109,-56,-1,-1,0
1523633453259,262144,109,-56,-1,-1,0
1523633453301,524288,109,-56,-1,-1,0
1523633453301,786432,109,-56,-1,-1,0
1523633453301,1048576,109,-56,-1,-1,0
1523633453301,1441792,109,-56,-1,-1,0
1523633453301,1638400,109,-56,-1,-1,0
1523633453339,1966080,109,-56,-1,-1,0
1523633453339,2424832,109,-56,-1,-1,0
1523633453339,3014656,109,-56,-1,-1,0
1523633453339,3145728,109,-56,-1,-1,0
1523633453339,3145728,109,-56,-1,-1,0
1523633453379,3080192,109,-56,-1,-1,0
1523633453379,2621440,109,-56,-1,-1,0
1523633453379,2097152,109,-56,-1,-1,0
1523633453379,1441792,109,-56,-1,-1,0
1523633453379,1048576,109,-56,-1,-1,0
1523633453419,786432,109,-56,-1,-1,0
1523633453419,393216,109,-56,-1,-1,0
1523633453419,0,109,-56,-1,-1,0
1523633453419,-196608,109,-56,-1,-1,0
1523633453419,-393216,109,-56,-1,-1,0
1523633453459,-589824,109,-56,-1,-1,0
1523633453459,-720896,109,-56,-1,-1,0
1523633453459,-851968,109,-56,-1,-1,0
1523633453459,-786432,109,-56,-1,-1,0
1523633453459,-655360,109,-56,-1,-1,0
1523633453501,-589824,109,-56,-1,-1,0
1523633453501,-655360,109,-56,-1,-1,0
1523633453501,-589824,109,-56,-1,-1,0
1523633453501,-524288,109,-56,-1,-1,0
1523633453501,-327680,109,-56,-1,-1,0
1523633453539,-131072,109,-56,-1,-1,0
1523633453539,-131072,109,-56,-1,-1,0
1523633453539,-458752,109,-56,-1,-1,0
1523633453539,-524288,109,-56,-1,-1,0
1523633453539,-524288,109,-56,-1,-1,0
1523633453579,-720896,109,-56,-1,-1,0
1523633453579,-786432,109,-56,-1,-1,0
1523633453579,-655360,109,-56,-1,-1,0
1523633453579,-655360,109,-56,-1,-1,0
1523633453579,-851968,109,-56,-1,-1,0
1523633453619,-851968,109,-56,-1,-1,0
1523633453619,-851968,109,-56,-1,-1,0
1523633453619,-786432,109,-56,-1,-1,0
1523633453619,-655360,109,-56,-1,-1,0
1523633453619,-458752,109,-56,-1,-1,0
1523633453659,-458752,108,-56,-1,-1,0
1523633453659,-655360,108,-56,-1,-1,0
1523633453659,-786432,108,-56,-1,-1,0
1523633453659,-983040,108,-56,-1,-1,0
1523633453659,-1048576,108,-56,-1,-1,0
1523633453699,-851968,108,-56,-1,-1,0
1523633453699,-851968,108,-56,-1,-1,0
1523633453699,-851968,108,-56,-1,-1,0
1523633453699,-786432,108,-56,-1,-1,0
1523633453699,-851968,108,-56,-1,-1,0
1523633453739,-1114112,108,-56,-1,-1,0
1523633453739,-1179648,108,-56,-1,-1,0
1523633453739,-1048576,108,-56,-1,-1,0
1523633453739,-327680,108,-56,-1,-1,0
1523633453739,1966080,108,-56,-1,-1,0
1523633453779,5177344,108,-56,-1,-1,0
1523633453779,6225920,108,-56,-1,-1,0
1523633453779,3342336,108,-56,-1,-1,0
1523633453779,-917504,108,-56,-1,-1,0
1523633453779,-3604480,108,-56,-1,-1,0
1523633453819,-4194304,108,-56,-1,-1,0
1523633453819,-3407872,108,-56,-1,-1,0
1523633453819,-2162688,108,-56,-1,-1,0
1523633453819,-1179648,108,-56,-1,-1,0
1523633453819,-655360,108,-56,-1,-1,0
1523633453859,-524288,108,-56,-1,-1,0
1523633453859,-458752,108,-56,-1,-1,0
1523633453859,-327680,108,-56,-1,-1,0
1523633453859,-196608,108,-56,-1,-1,0
1523633453859,-65536,108,-56,-1,-1,0
1523633453899,65536,108,-56,-1,-1,0
1523633453899,262144,108,-56,-1,-1,0
1523633453899,393216,108,-56,-1,-1,0
1523633453899,589824,108,-56,-1,-1,0
1523633453899,1048576,108,-56,-1,-1,0
1523633453939,1441792,108,-56,-1,-1,0
1523633453939,1769472,108,-56,-1,-1,0
1523633453939,2162688,108,-56,-1,-1,0
1523633453939,2686976,108,-56,-1,-1,0
1523633453939,3014656,108,-56,-1,-1,0
1523633453979,3342336,108,-56,-1,-1,0
1523633453979,3538944,108,-56,-1,-1,0
1523633453979,3342336,108,-56,-1,-1,0
1523633453979,2949120,108,-56,-1,-1,0
1523633453979,2621440,108,-56,-1,-1,0
1523633454019,2228224,108,-56,-1,-1,0
1523633454019,1507328,108,-56,-1,-1,0
1523633454019,655360,108,-56,-1,-1,0
1523633454019,196608,108,-56,-1,-1,0
1523633454019,65536,108,-56,-1,-1,0
1523633454059,-65536,108,-56,-1,-1,0
1523633454059,-393216,108,-56,-1,-1,0
1523633454059,-655360,108,-56,-1,-1,0
1523633454059,-851968,108,-56,-1,-1,0
1523633454059,-786432,108,-56,-1,-1,0
1523633454099,-589824,108,-56,-1,-1,0
1523633454099,-524288,108,-56,-1,-1,0
1523633454099,-524288,108,-56,-1,-1,0
1523633454099,-524288,108,-56,-1,-1,0
1523633454099,-458752,108,-56,-1,-1,0
1523633454141,-524288,108,-56,-1,-1,0
1523633454141,-589824,108,-56,-1,-1,0
1523633454141,-786432,108,-56,-1,-1,0
1523633454141,-851968,108,-56,-1,-1,0
1523633454141,-786432,108,-56,-1,-1,0
1523633454179,-655360,108,-56,-1,-1,0
1523633454179,-655360,108,-56,-1,-1,0
1523633454179,-851968,108,-56,-1,-1,0
1523633454179,-917504,108,-56,-1,-1,0
1523633454179,-983040,108,-56,-1,-1,0
1523633454219,-983040,108,-56,-1,-1,0
1523633454219,-917504,108,-56,-1,-1,0
1523633454219,-983040,108,-56,-1,-1,0
1523633454219,-1114112,108,-56,-1,-1,0
1523633454219,-1048576,108,-56,-1,-1,0
1523633454259,-917504,107,-56,-1,-1,0
1523633454259,-851968,107,-56,-1,-1,0
1523633454259,-983040,107,-56,-1,-1,0
1523633454259,-1114112,107,-56,-1,-1,0
1523633454259,-1245184,107,-56,-1,-1,0
1523633454299,-1245184,107,-56,-1,-1,0
1523633454299,-1179648,107,-56,-1,-1,0
1523633454299,-1179648,107,-56,-1,-1,0
1523633454299,-1114112,107,-56,-1,-1,0
1523633454299,-1048576,107,-56,-1,-1,0
1523633454339,-1114112,107,-56,-1,-1,0
1523633454339,-1179648,107,-56,-1,-1,0
1523633454339,-1245184,107,-56,-1,-1,0
1523633454339,-1048576,107,-56,-1,-1,0
1523633454339,655360,107,-56,-1,-1,0
1523633454379,4390912,107,-56,-1,-1,0
1523633454379,7274496,107,-56,-1,-1,0
1523633454379,5898240,107,-56,-1,-1,0
1523633454379,917504,107,-56,-1,-1,0
1523633454379,-3342336,107,-56,-1,-1,0
1523633454419,-4718592,107,-56,-1,-1,0
1523633454419,-3997696,107,-56,-1,-1,0
1523633454419,-2686976,107,-56,-1,-1,0
1523633454419,-1638400,107,-56,-1,-1,0
1523633454419,-1048576,107,-56,-1,-1,0
1523633454459,-786432,107,-56,-1,-1,0
1523633454459,-589824,107,-56,-1,-1,0
1523633454459,-589824,107,-56,-1,-1,0
1523633454459,-524288,107,-56,-1,-1,0
1523633454459,-393216,107,-56,-1,-1,0
1523633454499,-196608,107,-56,-1,-1,0
1523633454499,-65536,107,-56,-1,-1,0
1523633454499,65536,107,-56,-1,-1,0
1523633454499,262144,107,-56,-1,-1,0
1523633454499,655360,107,-56,-1,-1,0
1523633454539,1114112,107,-56,-1,-1,0
1523633454539,1638400,107,-56,-1,-1,0
1523633454539,2031616,107,-56,-1,-1,0
1523633454539,2490368,107,-56,-1,-1,0
1523633454539,2883584,107,-56,-1,-1,0
1523633454579,3145728,107,-56,-1,-1,0
1523633454579,3276800,107,-56,-1,-1,0
1523633454579,3080192,107,-56,-1,-1,0
1523633454579,2686976,107,-56,-1,-1,0
1523633454579,2228224,107,-56,-1,-1,0
1523633454621,1703936,107,-56,-1,-1,0
1523633454621,917504,107,-56,-1,-1,0
1523633454621,196608,107,-56,-1,-1,0
1523633454621,-327680,107,-56,-1,-1,0
1523633454621,-720896,107,-56,-1,-1,0
1523633454659,-1114112,107,-56,-1,-1,0
1523633454659,-1310720,107,-56,-1,-1,0
1523633454659,-1441792,107,-56,-1,-1,0
1523633454659,-1507328,107,-56,-1,-1,0
1523633454659,-1441792,107,-56,-1,-1,0
1523633454699,-1376256,107,-56,-1,-1,0
1523633454699,-1245184,107,-56,-1,-1,0
1523633454699,-1245184,107,-56,-1,-1,0
1523633454699,-1179648,107,-56,-1,-1,0
1523633454699,-1114112,107,-56,-1,-1,0
1523633454739,-1048576,107,-56,-1,-1,0
1523633454739,-1048576,107,-56,-1,-1,0
1523633454739,-983040,107,-56,-1,-1,0
1523633454739,-983040,107,-56,-1,-1,0
1523633454739,-983040,107,-56,-1,-1,0
1523633454781,-1048576,107,-56,-1,-1,0
1523633454781,-1114112,107,-56,-1,-1,0
1523633454781,-1114112,107,-56,-1,-1,0
1523633454781,-1114112,107,-56,-1,-1,0
1523633454781,-1114112,107,-56,-1,-1,0
1523633454819,-1114112,106,-56,-1,-1,0
1523633454819,-983040,106,-56,-1,-1,0
1523633454819,-851968,106,-56,-1,-1,0
1523633454819,-786432,106,-56,-1,-1,0
1523633454819,-786432,106,-56,-1,-1,0
1523633454859,-786432,106,-56,-1,-1,0
1523633454859,-983040,106,-56,-1,-1,0
1523633454859,-1114112,106,-56,-1,-1,0
1523633454859,-1114112,106,-56,-1,-1,0
1523633454859,-1048576,106,-56,-1,-1,0
1523633454899,-983040,106,-56,-1,-1,0
1523633454899,-983040,106,-56,-1,-1,0
1523633454899,-917504,106,-56,-1,-1,0
1523633454899,-851968,106,-56,-1,-1,0
1523633454899,-786432,106,-56,-1,-1,0
1523633454939,-786432,106,-56,-1,-1,0
1523633454939,-851968,106,-56,-1,-1,0
1523633454939,-262144,106,-56,-1,-1,0
1523633454939,2293760,106,-56,-1,-1,0
1523633454939,6553600,106,-56,-1,-1,0
1523633454979,8716288,106,-56,-1,-1,0
1523633454979,5505024,106,-56,-1,-1,0
1523633454979,-393216,106,-56,-1,-1,0
1523633454979,-4325376,106,-56,-1,-1,0
1523633454979,-4653056,106,-56,-1,-1,0
1523633455019,-3473408,106,-56,-1,-1,0
1523633455019,-1966080,106,-56,-1,-1,0
1523633455019,-917504,106,-56,-1,-1,0
1523633455019,-458752,106,-56,-1,-1,0
1523633455019,-327680,106,-56,-1,-1,0
1523633455059,-131072,106,-56,-1,-1,0
1523633455059,0,106,-56,-1,-1,0
1523633455059,0,106,-56,-1,-1,0
1523633455059,65536,106,-56,-1,-1,0
1523633455059,327680,106,-56,-1,-1,0
1523633455099,524288,106,-56,-1,-1,0
1523633455099,720896,106,-56,-1,-1,0
1523633455099,917504,106,-56,-1,-1,0
1523633455099,1376256,106,-56,-1,-1,0
1523633455099,1966080,106,-56,-1,-1,0
1523633455139,2490368,106,-56,-1,-1,0
1523633455139,2883584,106,-56,-1,-1,0
1523633455139,3276800,106,-56,-1,-1,0
1523633455139,3735552,106,-56,-1,-1,0
1523633455139,3866624,106,-56,-1,-1,0
1523633455179,3735552,106,-56,-1,-1,0
1523633455179,3407872,106,-56,-1,-1,0
1523633455179,3014656,106,-56,-1,-1,0
1523633455179,2424832,106,-56,-1,-1,0
1523633455179,1638400,106,-56,-1,-1,0
1523633455219,851968,106,-56,-1,-1,0
1523633455219,131072,106,-56,-1,-1,0
1523633455219,-262144,106,-56,-1,-1,0
1523633455219,-720896,106,-56,-1,-1,0
1523633455219,-917504,106,-56,-1,-1,0
1523633455259,-1048576,106,-56,-1,-1,0
1523633455259,-983040,106,-56,-1,-1,0
1523633455259,-983040,106,-56,-1,-1,0
1523633455259,-983040,106,-56,-1,-1,0
1523633455259,-983040,106,-56,-1,-1,0
1523633455299,-917504,106,-56,-1,-1,0
1523633455299,-786432,106,-56,-1,-1,0
1523633455299,-720896,106,-56,-1,-1,0
1523633455299,-720896,106,-56,-1,-1,0
1523633455299,-524288,106,-56,-1,-1,0
1523633455339,-458752,106,-56,-1,-1,0
1523633455339,-393216,106,-56,-1,-1,0
1523633455339,-458752,106,-56,-1,-1,0
1523633455339,-524288,106,-56,-1,-1,0
1523633455339,-524288,106,-56,-1,-1,0
1523633455379,-655360,105,-56,-1,-1,0
1523633455379,-786432,105,-56,-1,-1,0
1523633455379,-720896,105,-56,-1,-1,0
1523633455379,-655360,105,-56,-1,-1,0
1523633455379,-655360,105,-56,-1,-1,0
1523633455421,-786432,105,-56,-1,-1,0
1523633455421,-786432,105,-56,-1,-1,0
1523633455421,-851968,105,-56,-1,-1,0
1523633455421,-983040,105,-56,-1,-1,0
1523633455421,-1048576,105,-56,-1,-1,0
1523633455459,-983040,105,-56,-1,-1,0
1523633455459,-1048576,105,-56,-1,-1,0
1523633455459,-1048576,105,-56,-1,-1,0
1523633455459,-1048576,105,-56,-1,-1,0
1523633455459,-1048576,105,-56,-1,-1,0
1523633455499,-1048576,105,-56,-1,-1,0
1523633455499,-1114112,105,-56,-1,-1,0
1523633455499,-1245184,105,-56,-1,-1,0
1523633455499,-1441792,105,-56,-1,-1,0
1523633455499,-720896,105,-56,-1,-1,0
1523633455539,2424832,105,-56,-1,-1,0
1523633455539,7143424,105,-56,-1,-1,0
1523633455539,8519680,105,-56,-1,-1,0
1523633455539,4128768,105,-56,-1,-1,0
1523633455539,-2031616,105,-56,-1,-1,0
1523633455579,-5242880,105,-56,-1,-1,0
1523633455579,-5111808,105,-56,-1,-1,0
1523633455579,-3604480,105,-56,-1,-1,0
1523633455579,-2097152,105,-56,-1,-1,0
1523633455579,-1179648,105,-56,-1,-1,0
1523633455619,-917504,105,-56,-1,-1,0
1523633455619,-655360,105,-56,-1,-1,0
1523633455619,-458752,105,-56,-1,-1,0
1523633455619,-393216,105,-56,-1,-1,0
1523633455619,-262144,105,-56,-1,-1,0
1523633455659,0,105,-56,-1,-1,0
1523633455659,131072,105,-56,-1,-1,0
1523633455659,262144,105,-56,-1,-1,0
1523633455659,393216,105,-56,-1,-1,0
1523633455659,786432,105,-56,-1,-1,0
1523633455699,1179648,105,-56,-1,-1,0
1523633455699,1769472,105,-56,-1,-1,0
1523633455699,2424832,105,-56,-1,-1,0
1523633455699,2949120,105,-56,-1,-1,0
1523633455699,3407872,105,-56,-1,-1,0
1523633455739,3735552,105,-56,-1,-1,0
1523633455739,3670016,105,-56,-1,-1,0
1523633455739,3670016,105,-56,-1,-1,0
1523633455739,3276800,105,-56,-1,-1,0
1523633455739,2621440,105,-56,-1,-1,0
1523633455779,1769472,105,-56,-1,-1,0
1523633455779,1048576,105,-56,-1,-1,0
1523633455779,327680,105,-56,-1,-1,0
1523633455779,-262144,105,-56,-1,-1,0
1523633455779,-786432,105,-56,-1,-1,0
1523633455819,-1048576,105,-56,-1,-1,0
1523633455819,-1245184,105,-56,-1,-1,0
1523633455819,-1310720,105,-56,-1,-1,0
1523633455819,-1310720,105,-56,-1,-1,0
1523633455819,-1310720,105,-56,-1,-1,0
1523633455859,-1310720,105,-56,-1,-1,0
1523633455859,-1245184,105,-56,-1,-1,0
1523633455859,-1114112,105,-56,-1,-1,0
1523633455859,-1048576,105,-56,-1,-1,0
1523633455859,-917504,105,-56,-1,-1,0
1523633455899,-786432,105,-56,-1,-1,0
1523633455899,-655360,105,-56,-1,-1,0
1523633455899,-524288,105,-56,-1,-1,0
1523633455899,-458752,105,-56,-1,-1,0
1523633455899,-458752,105,-56,-1,-1,0
1523633455939,-458752,105,-56,-1,-1,0
1523633455939,-524288,105,-56,-1,-1,0
1523633455939,-524288,105,-56,-1,-1,0
1523633455939,-655360,105,-56,-1,-1,0
1523633455939,-589824,105,-56,-1,-1,0
1523633455979,-524288,105,-56,-1,-1,0
1523633455979,-458752,105,-56,-1,-1,0
1523633455979,-524288,105,-56,-1,-1,0
1523633455979,-655360,105,-56,-1,-1,0
1523633455979,-720896,105,-56,-1,-1,0
1523633456019,-786432,105,-56,-1,-1,0
1523633456019,-786432,105,-56,-1,-1,0
1523633456019,-720896,105,-56,-1,-1,0
1523633456019,-720896,105,-56,-1,-1,0
1523633456019,-720896,105,-56,-1,-1,0
1523633456061,-655360,105,-56,-1,-1,0
1523633456061,-655360,105,-56,-1,-1,0
1523633456061,-655360,105,-56,-1,-1,0
1523633456061,-720896,105,-56,-1,-1,0
1523633456061,0,105,-56,-1,-1,0
1523633456099,2818048,105,-56,-1,-1,0
1523633456099,7143424,105,-56,-1,-1,0
1523633456099,8781824,105,-56,-1,-1,0
1523633456099,4784128,105,-56,-1,-1,0
1523633456099,-1048576,105,-56,-1,-1,0
1523633456139,-4325376,105,-56,-1,-1,0
1523633456139,-4259840,105,-56,-1,-1,0
1523633456139,-3014656,105,-56,-1,-1,0
1523633456139,-1572864,105,-56,-1,-1,0
1523633456139,-589824,105,-56,-1,-1,0
1523633456179,-196608,105,-56,-1,-1,0
1523633456179,-65536,105,-56,-1,-1,0
1523633456179,65536,105,-56,-1,-1,0
1523633456179,327680,105,-56,-1,-1,0
1523633456179,393216,105,-56,-1,-1,0
1523633456219,524288,105,-56,-1,-1,0
1523633456219,786432,105,-56,-1,-1,0
1523633456219,983040,105,-56,-1,-1,0
1523633456219,1179648,105,-56,-1,-1,0
1523633456219,1507328,105,-56,-1,-1,0
1523633456259,1966080,105,-56,-1,-1,0
1523633456259,2359296,105,-56,-1,-1,0
1523633456259,2949120,105,-56,-1,-1,0
1523633456259,3538944,105,-56,-1,-1,0
1523633456259,3997696,105,-56,-1,-1,0
1523633456299,4128768,105,-56,-1,-1,0
1523633456299,4194304,105,-56,-1,-1,0
1523633456299,3997696,105,-56,-1,-1,0
1523633456299,3735552,105,-56,-1,-1,0
1523633456299,3145728,105,-56,-1,-1,0
1523633456339,2490368,105,-56,-1,-1,0
1523633456339,1703936,105,-56,-1,-1,0
1523633456339,983040,105,-56,-1,-1,0
1523633456339,393216,105,-56,-1,-1,0
1523633456339,0,105,-56,-1,-1,0
1523633456379,-262144,105,-56,-1,-1,0
1523633456379,-589824,105,-56,-1,-1,0
1523633456379,-786432,105,-56,-1,-1,0
1523633456379,-786432,105,-56,-1,-1,0
1523633456379,-655360,105,-56,-1,-1,0
1523633456419,-524288,105,-56,-1,-1,0
1523633456419,-589824,105,-56,-1,-1,0
1523633456419,-589824,105,-56,-1,-1,0
1523633456419,-589824,105,-56,-1,-1,0
1523633456419,-393216,105,-56,-1,-1,0
1523633456459,-327680,105,-56,-1,-1,0
1523633456459,-262144,105,-56,-1,-1,0
1523633456459,-262144,105,-56,-1,-1,0
1523633456459,-262144,105,-56,-1,-1,0
1523633456459,-196608,105,-56,-1,-1,0
1523633456499,-262144,105,-56,-1,-1,0
1523633456499,-393216,105,-56,-1,-1,0
1523633456499,-458752,105,-56,-1,-1,0
1523633456499,-524288,105,-56,-1,-1,0
1523633456499,-655360,105,-56,-1,-1,0
1523633456539,-655360,105,-56,-1,-1,0
1523633456539,-458752,105,-56,-1,-1,0
1523633456539,-393216,105,-56,-1,-1,0
1523633456539,-458752,105,-56,-1,-1,0
1523633456539,-524288,105,-56,-1,-1,0
1523633456579,-589824,104,-56,-1,-1,0
1523633456579,-720896,104,-56,-1,-1,0
1523633456579,-851968,104,-56,-1,-1,0
1523633456579,-917504,104,-56,-1,-1,0
1523633456579,-983040,104,-56,-1,-1,0
1523633456619,-983040,104,-56,-1,-1,0
1523633456619,-917504,104,-56,-1,-1,0
1523633456619,-851968,104,-56,-1,-1,0
1523633456619,-786432,104,-56,-1,-1,0
1523633456619,-851968,104,-56,-1,-1,0
1523633456659,-1114112,104,-56,-1,-1,0
1523633456659,-917504,104,-56,-1,-1,0
1523633456659,1245184,104,-56,-1,-1,0
1523633456659,5701632,104,-56,-1,-1,0
1523633456659,8716288,104,-56,-1,-1,0
1523633456701,6356992,104,-56,-1,-1,0
1523633456701,524288,104,-56,-1,-1,0
1523633456701,-3801088,104,-56,-1,-1,0
1523633456701,-4653056,104,-56,-1,-1,0
1523633456701,-3670016,104,-56,-1,-1,0
1523633456739,-2293760,104,-56,-1,-1,0
1523633456739,-1310720,104,-56,-1,-1,0
1523633456739,-851968,104,-56,-1,-1,0
1523633456739,-589824,104,-56,-1,-1,0
1523633456739,-458752,104,-56,-1,-1,0
1523633456779,-393216,104,-56,-1,-1,0
1523633456779,-262144,104,-56,-1,-1,0
1523633456779,-131072,104,-56,-1,-1,0
1523633456779,65536,104,-56,-1,-1,0
1523633456779,196608,104,-56,-1,-1,0
1523633456819,393216,104,-56,-1,-1,0
1523633456819,720896,104,-56,-1,-1,0
1523633456819,1114112,104,-56,-1,-1,0
1523633456819,1572864,104,-56,-1,-1,0
1523633456819,2162688,104,-56,-1,-1,0
1523633456859,2752512,104,-56,-1,-1,0
1523633456859,3342336,104,-56,-1,-1,0
1523633456859,3735552,104,-56,-1,-1,0
1523633456859,3866624,104,-56,-1,-1,0
1523633456859,3735552,104,-56,-1,-1,0
1523633456899,3604480,104,-56,-1,-1,0
1523633456899,3276800,104,-56,-1,-1,0
1523633456899,2752512,104,-56,-1,-1,0
1523633456899,2097152,104,-56,-1,-1,0
1523633456899,1376256,104,-56,-1,-1,0
1523633456939,720896,104,-56,-1,-1,0
1523633456939,262144,104,-56,-1,-1,0
1523633456939,0,104,-56,-1,-1,0
1523633456939,-196608,104,-56,-1,-1,0
1523633456939,-327680,104,-56,-1,-1,0
1523633456979,-393216,104,-56,-1,-1,0
1523633456979,-327680,104,-56,-1,-1,0
1523633456979,-262144,104,-56,-1,-1,0
1523633456979,-196608,104,-56,-1,-1,0
1523633456979,-131072,104,-56,-1,-1,0
1523633457019,-65536,104,-56,-1,-1,0
1523633457019,0,104,-56,-1,-1,0
1523633457019,131072,104,-56,-1,-1,0
1523633457019,131072,104,-56,-1,-1,0
1523633457019,196608,104,-56,-1,-1,0
1523633457059,196608,104,-56,-1,-1,0
1523633457059,196608,104,-56,-1,-1,0
1523633457059,262144,104,-56,-1,-1,0
1523633457059,262144,104,-56,-1,-1,0
1523633457059,196608,104,-56,-1,-1,0
1523633457099,65536,104,-56,-1,-1,0
1523633457099,0,104,-56,-1,-1,0
1523633457099,0,104,-56,-1,-1,0
1523633457099,-131072,104,-56,-1,-1,0
1523633457099,-131072,104,-56,-1,-1,0
1523633457139,-131072,104,-56,-1,-1,0
1523633457139,-65536,104,-56,-1,-1,0
1523633457139,0,104,-56,-1,-1,0
1523633457139,0,104,-56,-1,-1,0
1523633457139,0,104,-56,-1,-1,0
1523633457179,-65536,103,-56,-1,-1,0
1523633457179,-196608,103,-56,-1,-1,0
1523633457179,-262144,103,-56,-1,-1,0
1523633457179,-262144,103,-56,-1,-1,0
1523633457179,-327680,103,-56,-1,-1,0
1523633457219,-262144,103,-56,-1,-1,0
1523633457219,-262144,103,-56,-1,-1,0
1523633457219,-262144,103,-56,-1,-1,0
1523633457219,-262144,103,-56,-1,-1,0
1523633457219,-196608,103,-56,-1,-1,0
1523633457259,-327680,103,-56,-1,-1,0
1523633457259,-458752,103,-56,-1,-1,0
1523633457259,262144,103,-56,-1,-1,0
1523633457259,3473408,103,-56,-1,-1,0
1523633457259,8060928,103,-56,-1,-1,0
1523633457299,9830400,103,-56,-1,-1,0
1523633457299,6029312,103,-56,-1,-1,0
1523633457299,-65536,103,-56,-1,-1,0
1523633457299,-3670016,103,-56,-1,-1,0
1523633457299,-3801088,103,-56,-1,-1,0
1523633457340,-2555904,103,-56,-1,-1,0
1523633457340,-1245184,103,-56,-1,-1,0
1523633457340,-393216,103,-56,-1,-1,0
1523633457340,0,103,-56,-1,-1,0
1523633457340,196608,103,-56,-1,-1,0
1523633457379,327680,103,-56,-1,-1,0
1523633457379,393216,103,-56,-1,-1,0
1523633457379,524288,103,-56,-1,-1,0
1523633457379,720896,103,-56,-1,-1,0
1523633457379,983040,103,-56,-1,-1,0
1523633457419,1179648,103,-56,-1,-1,0
1523633457419,1441792,103,-56,-1,-1,0
1523633457419,1769472,103,-56,-1,-1,0
1523633457419,2228224,103,-56,-1,-1,0
1523633457419,2686976,103,-56,-1,-1,0
1523633457459,3145728,103,-56,-1,-1,0
1523633457459,3670016,103,-56,-1,-1,0
1523633457459,4128768,103,-56,-1,-1,0
1523633457459,4456448,103,-56,-1,-1,0
1523633457459,4521984,103,-56,-1,-1,0
1523633457499,4456448,103,-56,-1,-1,0
1523633457499,4128768,103,-56,-1,-1,0
1523633457499,3670016,103,-56,-1,-1,0
1523633457499,3014656,103,-56,-1,-1,0
1523633457499,2293760,103,-56,-1,-1,0
1523633457539,1441792,103,-56,-1,-1,0
1523633457539,786432,103,-56,-1,-1,0
1523633457539,327680,103,-56,-1,-1,0
1523633457539,0,103,-56,-1,-1,0
1523633457539,-131072,103,-56,-1,-1,0
1523633457579,-327680,103,-56,-1,-1,0
1523633457579,-327680,103,-56,-1,-1,0
1523633457579,-327680,103,-56,-1,-1,0
1523633457579,-327680,103,-56,-1,-1,0
1523633457579,-327680,103,-56,-1,-1,0
1523633457619,-262144,103,-56,-1,-1,0
1523633457619,-196608,103,-56,-1,-1,0
1523633457619,-196608,103,-56,-1,-1,0
1523633457619,-131072,103,-56,-1,-1,0
1523633457619,-131072,103,-56,-1,-1,0
1523633457659,-65536,103,-56,-1,-1,0
1523633457659,0,103,-56,-1,-1,0
1523633457659,0,103,-56,-1,-1,0
1523633457659,-65536,103,-56,-1,-1,0
1523633457659,-131072,103,-56,-1,-1,0
1523633457699,-196608,103,-56,-1,-1,0
1523633457699,-262144,103,-56,-1,-1,0
1523633457699,-262144,103,-56,-1,-1,0
1523633457699,-393216,103,-56,-1,-1,0
1523633457699,-524288,103,-56,-1,-1,0
1523633457739,-655360,103,-56,-1,-1,0
1523633457739,-720896,103,-56,-1,-1,0
1523633457739,-786432,103,-56,-1,-1,0
1523633457739,-786432,103,-56,-1,-1,0
1523633457739,-720896,103,-56,-1,-1,0
1523633457779,-720896,103,-56,-1,-1,0
1523633457779,-655360,103,-56,-1,-1,0
1523633457779,-589824,103,-56,-1,-1,0
1523633457779,-589824,103,-56,-1,-1,0
1523633457779,-720896,103,-56,-1,-1,0
1523633457819,-786432,103,-56,-1,-1,0
1523633457819,-851968,103,-56,-1,-1,0
1523633457819,-917504,103,-56,-1,-1,0
1523633457819,-983040,103,-56,-1,-1,0
1523633457819,-983040,103,-56,-1,-1,0
1523633457859,-1048576,102,-56,-1,-1,0
1523633457859,-1048576,102,-56,-1,-1,0
1523633457859,-1114112,102,-56,-1,-1,0
1523633457859,-1245184,102,-56,-1,-1,0
1523633457859,-1441792,102,-56,-1,-1,0
1523633457899,-1179648,102,-56,-1,-1,0
1523633457899,720896,102,-56,-1,-1,0
1523633457899,4915200,102,-56,-1,-1,0
1523633457899,8454144,102,-56,-1,-1,0
1523633457899,7077888,102,-56,-1,-1,0
1523633457939,1376256,102,-56,-1,-1,0
1523633457939,-3604480,102,-56,-1,-1,0
1523633457939,-5046272,102,-56,-1,-1,0
1523633457939,-4259840,102,-56,-1,-1,0
1523633457939,-2949120,102,-56,-1,-1,0
1523633457980,-1900544,102,-56,-1,-1,0
1523633457980,-1310720,102,-56,-1,-1,0
1523633457980,-1114112,102,-56,-1,-1,0
1523633457980,-917504,102,-56,-1,-1,0
1523633457980,-851968,102,-56,-1,-1,0
1523633458019,-786432,102,-56,-1,-1,0
1523633458019,-720896,102,-56,-1,-1,0
1523633458019,-655360,102,-56,-1,-1,0
1523633458019,-393216,102,-56,-1,-1,0
1523633458019,-131072,102,-56,-1,-1,0
1523633458059,0,102,-56,-1,-1,0
1523633458059,196608,102,-56,-1,-1,0
1523633458059,524288,102,-56,-1,-1,0
1523633458059,1048576,102,-56,-1,-1,0
1523633458059,1507328,102,-56,-1,-1,0
1523633458099,1966080,102,-56,-1,-1,0
1523633458099,2359296,102,-56,-1,-1,0
1523633458099,2490368,102,-56,-1,-1,0
1523633458099,2424832,102,-56,-1,-1,0
1523633458099,2162688,102,-56,-1,-1,0
1523633458139,1769472,102,-56,-1,-1,0
1523633458139,1245184,102,-56,-1,-1,0
1523633458139,589824,102,-56,-1,-1,0
1523633458139,-131072,102,-56,-1,-1,0
1523633458139,-851968,102,-56,-1,-1,0
1523633458179,-1376256,102,-56,-1,-1,0
1523633458179,-1703936,102,-56,-1,-1,0
1523633458179,-1966080,102,-56,-1,-1,0
1523633458179,-2162688,102,-56,-1,-1,0
1523633458179,-2293760,102,-56,-1,-1,0
1523633458219,-2424832,102,-56,-1,-1,0
1523633458219,-2490368,102,-56,-1,-1,0
1523633458219,-2424832,102,-56,-1,-1,0
1523633458219,-2293760,102,-56,-1,-1,0
1523633458219,-2293760,102,-56,-1,-1,0
1523633458260,-2293760,102,-56,-1,-1,0
1523633458260,-2228224,102,-56,-1,-1,0
1523633458260,-2228224,102,-56,-1,-1,0
1523633458260,-2293760,102,-56,-1,-1,0
1523633458260,-2228224,102,-56,-1,-1,0
1523633458299,-2228224,102,-56,-1,-1,0
1523633458299,-2162688,102,-56,-1,-1,0
1523633458299,-2162688,102,-56,-1,-1,0
1523633458299,-2293760,102,-56,-1,-1,0
1523633458299,-2359296,102,-56,-1,-1,0
1523633458339,-2293760,102,-56,-1,-1,0
1523633458339,-2293760,102,-56,-1,-1,0
1523633458339,-2293760,102,-56,-1,-1,0
1523633458339,-2293760,102,-56,-1,-1,0
1523633458339,-2359296,102,-56,-1,-1,0
1523633458379,-2359296,102,-56,-1,-1,0
1523633458379,-2293760,102,-56,-1,-1,0
1523633458379,-2293760,102,-56,-1,-1,0
1523633458379,-2293760,102,-56,-1,-1,0
1523633458379,-2228224,102,-56,-1,-1,0
1523633458420,-2293760,102,-56,-1,-1,0
1523633458420,-2293760,102,-56,-1,-1,0
1523633458420,-2162688,102,-56,-1,-1,0
1523633458420,-1966080,102,-56,-1,-1,0
1523633458420,-2097152,102,-56,-1,-1,0
1523633458459,-2228224,102,-56,-1,-1,0
1523633458459,-2359296,102,-56,-1,-1,0
1523633458459,-2359296,102,-56,-1,-1,0
1523633458459,-2359296,102,-56,-1,-1,0
1523633458459,-2228224,102,-56,-1,-1,0
1523633458499,-2097152,101,-56,-1,-1,0
1523633458499,-2097152,101,-56,-1,-1,0
1523633458499,-2031616,101,-56,-1,-1,0
1523633458499,-1966080,101,-56,-1,-1,0
1523633458499,-1900544,101,-56,-1,-1,0
1523633458539,-1900544,101,-56,-1,-1,0
1523633458539,-1900544,101,-56,-1,-1,0
1523633458539,-1507328,101,-56,-1,-1,0
1523633458539,393216,101,-56,-1,-1,0
1523633458539,4194304,101,-56,-1,-1,0
1523633458579,6815744,101,-56,-1,-1,0
1523633458579,4980736,101,-56,-1,-1,0
1523633458579,0,101,-56,-1,-1,0
1523633458579,-4063232,101,-56,-1,-1,0
1523633458579,-5046272,101,-56,-1,-1,0
1523633458622,-4194304,101,-56,-1,-1,0
1523633458622,-2883584,101,-56,-1,-1,0
1523633458622,-1835008,101,-56,-1,-1,0
1523633458622,-1245184,101,-56,-1,-1,0
1523633458622,-1048576,101,-56,-1,-1,0
1523633458659,-851968,101,-56,-1,-1,0
1523633458659,-786432,101,-56,-1,-1,0
1523633458659,-589824,101,-56,-1,-1,0
1523633458659,-393216,101,-56,-1,-1,0
1523633458659,-196608,101,-56,-1,-1,0
1523633458699,0,101,-56,-1,-1,0
1523633458699,262144,101,-56,-1,-1,0
1523633458699,589824,101,-56,-1,-1,0
1523633458699,917504,101,-56,-1,-1,0
1523633458699,1310720,101,-56,-1,-1,0
1523633458739,1769472,101,-56,-1,-1,0
1523633458739,2293760,101,-56,-1,-1,0
1523633458739,2752512,101,-56,-1,-1,0
1523633458739,3145728,101,-56,-1,-1,0
1523633458739,3407872,101,-56,-1,-1,0
1523633458779,3473408,101,-56,-1,-1,0
1523633458779,3342336,101,-56,-1,-1,0
1523633458779,3080192,101,-56,-1,-1,0
1523633458779,2621440,101,-56,-1,-1,0
1523633458779,2031616,101,-56,-1,-1,0
1523633458819,1376256,101,-56,-1,-1,0
1523633458819,786432,101,-56,-1,-1,0
1523633458819,262144,101,-56,-1,-1,0
1523633458819,-131072,101,-56,-1,-1,0
1523633458819,-458752,101,-56,-1,-1,0
1523633458859,-589824,101,-56,-1,-1,0
1523633458859,-589824,101,-56,-1,-1,0
1523633458859,-589824,101,-56,-1,-1,0
1523633458859,-655360,101,-56,-1,-1,0
1523633458859,-720896,101,-56,-1,-1,0
1523633458899,-589824,101,-56,-1,-1,0
1523633458899,-393216,101,-56,-1,-1,0
1523633458899,-262144,101,-56,-1,-1,0
1523633458899,-196608,101,-56,-1,-1,0
1523633458899,-196608,101,-56,-1,-1,0
1523633458939,-196608,101,-56,-1,-1,0
1523633458939,-196608,101,-56,-1,-1,0
1523633458939,-196608,101,-56,-1,-1,0
1523633458939,-262144,101,-56,-1,-1,0
1523633458939,-393216,101,-56,-1,-1,0
1523633458979,-524288,101,-56,-1,-1,0
1523633458979,-524288,101,-56,-1,-1,0
1523633458979,-524288,101,-56,-1,-1,0
1523633458979,-589824,101,-56,-1,-1,0
1523633458979,-655360,101,-56,-1,-1,0
1523633459019,-720896,101,-56,-1,-1,0
1523633459019,-786432,101,-56,-1,-1,0
1523633459019,-917504,101,-56,-1,-1,0
1523633459019,-983040,101,-56,-1,-1,0
1523633459019,-917504,101,-56,-1,-1,0
1523633459059,-917504,101,-56,-1,-1,0
1523633459059,-983040,101,-56,-1,-1,0
1523633459059,-983040,101,-56,-1,-1,0
1523633459059,-917504,101,-56,-1,-1,0
1523633459059,-851968,101,-56,-1,-1,0
1523633459099,-851968,100,-56,-1,-1,0
1523633459099,-851968,100,-56,-1,-1,0
1523633459099,-917504,100,-56,-1,-1,0
1523633459099,-983040,100,-56,-1,-1,0
1523633459099,-1179648,100,-56,-1,-1,0
1523633459139,-1245184,100,-56,-1,-1,0
1523633459139,-1245184,100,-56,-1,-1,0
1523633459139,-1179648,100,-56,-1,-1,0
1523633459139,-1179648,100,-56,-1,-1,0
1523633459139,-1179648,100,-56,-1,-1,0
1523633459179,-1179648,100,-56,-1,-1,0
1523633459179,-1310720,100,-56,-1,-1,0
1523633459179,-983040,100,-56,-1,-1,0
1523633459179,917504,100,-56,-1,-1,0
1523633459179,4784128,100,-56,-1,-1,0
1523633459219,7340032,100,-56,-1,-1,0
1523633459219,5046272,100,-56,-1,-1,0
1523633459219,-393216,100,-56,-1,-1,0
1523633459219,-4521984,100,-56,-1,-1,0
1523633459219,-5439488,100,-56,-1,-1,0
1523633459260,-4587520,100,-56,-1,-1,0
1523633459260,-3014656,100,-56,-1,-1,0
1523633459260,-1703936,100,-56,-1,-1,0
1523633459260,-983040,100,-56,-1,-1,0
1523633459260,-720896,100,-56,-1,-1,0
1523633459299,-524288,100,-56,-1,-1,0
1523633459299,-327680,100,-56,-1,-1,0
1523633459299,-196608,100,-56,-1,-1,0
1523633459299,-65536,100,-56,-1,-1,0
1523633459299,0,100,-56,-1,-1,0
1523633459339,131072,100,-56,-1,-1,0
1523633459339,393216,100,-56,-1,-1,0
1523633459339,655360,100,-56,-1,-1,0
1523633459339,917504,100,-56,-1,-1,0
1523633459339,1310720,100,-56,-1,-1,0
1523633459379,1835008,100,-56,-1,-1,0
1523633459379,2424832,100,-56,-1,-1,0
1523633459379,2949120,100,-56,-1,-1,0
1523633459379,3211264,100,-56,-1,-1,0
1523633459379,3276800,100,-56,-1,-1,0
1523633459419,3211264,100,-56,-1,-1,0
1523633459419,3014656,100,-56,-1,-1,0
1523633459419,2555904,100,-56,-1,-1,0
1523633459419,2031616,100,-56,-1,-1,0
1523633459419,1310720,100,-56,-1,-1,0
1523633459459,589824,100,-56,-1,-1,0
1523633459459,0,100,-56,-1,-1,0
1523633459459,-589824,100,-56,-1,-1,0
1523633459459,-1048576,100,-56,-1,-1,0
1523633459459,-1245184,100,-56,-1,-1,0
1523633459499,-1310720,100,-56,-1,-1,0
1523633459499,-1376256,100,-56,-1,-1,0
1523633459499,-1507328,100,-56,-1,-1,0
1523633459499,-1507328,100,-56,-1,-1,0
1523633459499,-1441792,100,-56,-1,-1,0
1523633459539,-1441792,100,-56,-1,-1,0
1523633459539,-1310720,100,-56,-1,-1,0
1523633459539,-1179648,100,-56,-1,-1,0
1523633459539,-1048576,100,-56,-1,-1,0
1523633459539,-983040,100,-56,-1,-1,0
1523633459579,-917504,100,-56,-1,-1,0
1523633459579,-917504,100,-56,-1,-1,0
1523633459579,-983040,100,-56,-1,-1,0
1523633459579,-983040,100,-56,-1,-1,0
1523633459579,-1114112,100,-56,-1,-1,0
1523633459619,-1179648,100,-56,-1,-1,0
1523633459619,-1245184,100,-56,-1,-1,0
1523633459619,-1310720,100,-56,-1,-1,0
1523633459619,-1310720,100,-56,-1,-1,0
1523633459619,-1376256,100,-56,-1,-1,0
1523633459659,-1441792,100,-56,-1,-1,0
1523633459659,-1507328,100,-56,-1,-1,0
1523633459659,-1441792,100,-56,-1,-1,0
1523633459659,-1376256,100,-56,-1,-1,0
1523633459659,-1310720,100,-56,-1,-1,0
1523633459699,-1245184,100,-56,-1,-1,0
1523633459699,-1114112,100,-56,-1,-1,0
1523633459699,-1114112,100,-56,-1,-1,0
1523633459699,-1179648,100,-56,-1,-1,0
1523633459699,-1310720,100,-56,-1,-1,0
1523633459739,-1376256,99,-56,-1,-1,0
1523633459739,-1441792,99,-56,-1,-1,0
1523633459739,-1507328,99,-56,-1,-1,0
1523633459739,-1507328,99,-56,-1,-1,0
1523633459739,-1507328,99,-56,-1,-1,0
1523633459779,-1507328,99,-56,-1,-1,0
1523633459779,-1441792,99,-56,-1,-1,0
1523633459779,-1441792,99,-56,-1,-1,0
1523633459779,-1441792,99,-56,-1,-1,0
1523633459779,-1572864,99,-56,-1,-1,0
1523633459819,-1245184,99,-56,-1,-1,0
1523633459819,983040,99,-56,-1,-1,0
1523633459819,5373952,99,-56,-1,-1,0
1523633459819,8257536,99,-56,-1,-1,0
1523633459819,5963776,99,-56,-1,-1,0
1523633459859,131072,99,-56,-1,-1,0
1523633459859,-4128768,99,-56,-1,-1,0
1523633459859,-4849664,99,-56,-1,-1,0
1523633459859,-3801088,99,-56,-1,-1,0
1523633459859,-2555904,99,-56,-1,-1,0
1523633459902,-1572864,99,-56,-1,-1,0
1523633459902,-1114112,99,-56,-1,-1,0
1523633459902,-851968,99,-56,-1,-1,0
1523633459902,-589824,99,-56,-1,-1,0
1523633459902,-458752,99,-56,-1,-1,0
1523633459939,-327680,99,-56,-1,-1,0
1523633459939,-131072,99,-56,-1,-1,0
1523633459939,0,99,-56,-1,-1,0
1523633459939,262144,99,-56,-1,-1,0
1523633459939,524288,99,-56,-1,-1,0
1523633459979,851968,99,-56,-1,-1,0
1523633459979,1245184,99,-56,-1,-1,0
1523633459979,1703936,99,-56,-1,-1,0
1523633459979,2162688,99,-56,-1,-1,0
1523633459979,2752512,99,-56,-1,-1,0
1523633460019,3276800,99,-56,-1,-1,0
1523633460019,3735552,99,-56,-1,-1,0
1523633460019,4063232,99,-56,-1,-1,0
1523633460019,4128768,99,-56,-1,-1,0
1523633460019,3932160,99,-56,-1,-1,0
1523633460059,3407872,99,-56,-1,-1,0
1523633460059,2818048,99,-56,-1,-1,0
1523633460059,1966080,99,-56,-1,-1,0
1523633460059,1114112,99,-56,-1,-1,0
1523633460059,393216,99,-56,-1,-1,0
1523633460099,-65536,99,-56,-1,-1,0
1523633460099,-393216,99,-56,-1,-1,0
1523633460099,-655360,99,-56,-1,-1,0
1523633460099,-720896,99,-56,-1,-1,0
1523633460099,-786432,99,-56,-1,-1,0
1523633460139,-786432,99,-56,-1,-1,0
1523633460139,-720896,99,-56,-1,-1,0
1523633460139,-655360,99,-56,-1,-1,0
1523633460139,-655360,99,-56,-1,-1,0
1523633460139,-655360,99,-56,-1,-1,0
1523633460179,-655360,99,-56,-1,-1,0
1523633460179,-655360,99,-56,-1,-1,0
1523633460179,-589824,99,-56,-1,-1,0
1523633460179,-458752,99,-56,-1,-1,0
1523633460179,-262144,99,-56,-1,-1,0
1523633460219,-262144,99,-56,-1,-1,0
1523633460219,-393216,99,-56,-1,-1,0
1523633460219,-393216,99,-56,-1,-1,0
1523633460219,-393216,99,-56,-1,-1,0
1523633460219,-393216,99,-56,-1,-1,0
1523633460259,-458752,99,-56,-1,-1,0
1523633460259,-524288,99,-56,-1,-1,0
1523633460259,-720896,99,-56,-1,-1,0
1523633460259,-786432,99,-56,-1,-1,0
1523633460259,-720896,99,-56,-1,-1,0
1523633460299,-655360,99,-56,-1,-1,0
1523633460299,-589824,99,-56,-1,-1,0
1523633460299,-524288,99,-56,-1,-1,0
1523633460299,-524288,99,-56,-1,-1,0
1523633460299,-589824,99,-56,-1,-1,0
1523633460339,-720896,98,-56,-1,-1,0
1523633460339,-786432,98,-56,-1,-1,0
1523633460339,-720896,98,-56,-1,-1,0
1523633460339,-720896,98,-56,-1,-1,0
1523633460339,-786432,98,-56,-1,-1,0
1523633460379,-786432,98,-56,-1,-1,0
1523633460379,-851968,98,-56,-1,-1,0
1523633460379,-851968,98,-56,-1,-1,0
1523633460379,-786432,98,-56,-1,-1,0
1523633460379,-786432,98,-56,-1,-1,0
1523633460419,-917504,98,-56,-1,-1,0
1523633460419,-1114112,98,-56,-1,-1,0
1523633460419,-1048576,98,-56,-1,-1,0
1523633460419,786432,98,-56,-1,-1,0
1523633460419,4980736,98,-56,-1,-1,0
1523633460459,8323072,98,-56,-1,-1,0
1523633460459,6815744,98,-56,-1,-1,0
1523633460459,1245184,98,-56,-1,-1,0
1523633460459,-3538944,98,-56,-1,-1,0
1523633460459,-4849664,98,-56,-1,-1,0
1523633460499,-3866624,98,-56,-1,-1,0
1523633460499,-2424832,98,-56,-1,-1,0
1523633460499,-1441792,98,-56,-1,-1,0
1523633460499,-917504,98,-56,-1,-1,0
1523633460499,-720896,98,-56,-1,-1,0
1523633460540,-524288,98,-56,-1,-1,0
1523633460540,-393216,98,-56,-1,-1,0
1523633460540,-262144,98,-56,-1,-1,0
1523633460540,-131072,98,-56,-1,-1,0
1523633460540,0,98,-56,-1,-1,0
1523633460579,196608,98,-56,-1,-1,0
1523633460579,393216,98,-56,-1,-1,0
1523633460579,720896,98,-56,-1,-1,0
1523633460579,1114112,98,-56,-1,-1,0
1523633460579,1572864,98,-56,-1,-1,0
1523633460619,2097152,98,-56,-1,-1,0
1523633460619,2686976,98,-56,-1,-1,0
1523633460619,3211264,98,-56,-1,-1,0
1523633460619,3538944,98,-56,-1,-1,0
1523633460619,3735552,98,-56,-1,-1,0
1523633460659,3735552,98,-56,-1,-1,0
1523633460659,3604480,98,-56,-1,-1,0
1523633460659,3276800,98,-56,-1,-1,0
1523633460659,2686976,98,-56,-1,-1,0
1523633460659,1900544,98,-56,-1,-1,0
1523633460699,1114112,98,-56,-1,-1,0
1523633460699,327680,98,-56,-1,-1,0
1523633460699,-196608,98,-56,-1,-1,0
1523633460699,-589824,98,-56,-1,-1,0
1523633460699,-851968,98,-56,-1,-1,0
1523633460739,-1048576,98,-56,-1,-1,0
1523633460739,-1048576,98,-56,-1,-1,0
1523633460739,-1048576,98,-56,-1,-1,0
1523633460739,-1048576,98,-56,-1,-1,0
1523633460739,-1048576,98,-56,-1,-1,0
1523633460779,-983040,98,-56,-1,-1,0
1523633460779,-851968,98,-56,-1,-1,0
1523633460779,-720896,98,-56,-1,-1,0
1523633460779,-655360,98,-56,-1,-1,0
1523633460779,-655360,98,-56,-1,-1,0
1523633460819,-655360,98,-56,-1,-1,0
1523633460819,-655360,98,-56,-1,-1,0
1523633460819,-720896,98,-56,-1,-1,0
1523633460819,-720896,98,-56,-1,-1,0
1523633460819,-720896,98,-56,-1,-1,0
1523633460861,-655360,98,-56,-1,-1,0
1523633460861,-655360,98,-56,-1,-1,0
1523633460861,-720896,98,-56,-1,-1,0
1523633460861,-786432,98,-56,-1,-1,0
1523633460861,-851968,98,-56,-1,-1,0
1523633460899,-917504,98,-56,-1,-1,0
1523633460899,-983040,98,-56,-1,-1,0
1523633460899,-983040,98,-56,-1,-1,0
1523633460899,-983040,98,-56,-1,-1,0
1523633460899,-917504,98,-56,-1,-1,0
1523633460939,-851968,98,-56,-1,-1,0
1523633460939,-851968,98,-56,-1,-1,0
1523633460939,-851968,98,-56,-1,-1,0
1523633460939,-983040,98,-56,-1,-1,0
1523633460939,-1048576,98,-56,-1,-1,0
1523633460979,-1048576,98,-56,-1,-1,0
1523633460979,-1048576,98,-56,-1,-1,0
1523633460979,-983040,98,-56,-1,-1,0
1523633460979,-983040,98,-56,-1,-1,0
1523633460979,-983040,98,-56,-1,-1,0
1523633461019,-983040,98,-56,-1,-1,0
1523633461019,-917504,98,-56,-1,-1,0
1523633461019,-917504,98,-56,-1,-1,0
1523633461019,-1048576,98,-56,-1,-1,0
1523633461019,-917504,98,-56,-1,-1,0
1523633461059,720896,98,-56,-1,-1,0
1523633461059,4718592,98,-56,-1,-1,0
1523633461059,8192000,98,-56,-1,-1,0
1523633461059,7077888,98,-56,-1,-1,0
1523633461059,1703936,98,-56,-1,-1,0
1523633461099,-3080192,98,-56,-1,-1,0
1523633461099,-4653056,98,-56,-1,-1,0
1523633461099,-3932160,98,-56,-1,-1,0
1523633461099,-2555904,98,-56,-1,-1,0
1523633461099,-1376256,98,-56,-1,-1,0
1523633461139,-720896,98,-56,-1,-1,0
1523633461139,-458752,98,-56,-1,-1,0
1523633461139,-327680,98,-56,-1,-1,0
1523633461139,-196608,98,-56,-1,-1,0
1523633461139,-65536,98,-56,-1,-1,0
1523633461181,65536,98,-56,-1,-1,0
1523633461181,196608,98,-56,-1,-1,0
1523633461181,458752,98,-56,-1,-1,0
1523633461181,720896,98,-56,-1,-1,0
1523633461181,983040,98,-56,-1,-1,0
1523633461219,1310720,98,-56,-1,-1,0
1523633461219,1769472,98,-56,-1,-1,0
1523633461219,2359296,98,-56,-1,-1,0
1523633461219,2883584,98,-56,-1,-1,0
1523633461219,3342336,98,-56,-1,-1,0
1523633461259,3801088,98,-56,-1,-1,0
1523633461259,4128768,98,-56,-1,-1,0
1523633461259,4194304,98,-56,-1,-1,0
1523633461259,3997696,98,-56,-1,-1,0
1523633461259,3604480,98,-56,-1,-1,0
1523633461299,2949120,98,-56,-1,-1,0
1523633461299,2228224,98,-56,-1,-1,0
1523633461299,1441792,98,-56,-1,-1,0
1523633461299,786432,98,-56,-1,-1,0
1523633461299,196608,98,-56,-1,-1,0
1523633461339,-196608,98,-56,-1,-1,0
1523633461339,-458752,98,-56,-1,-1,0
1523633461339,-655360,98,-56,-1,-1,0
1523633461339,-786432,98,-56,-1,-1,0
1523633461339,-786432,98,-56,-1,-1,0
1523633461379,-851968,98,-56,-1,-1,0
1523633461379,-851968,98,-56,-1,-1,0
1523633461379,-720896,98,-56,-1,-1,0
1523633461379,-655360,98,-56,-1,-1,0
1523633461379,-720896,98,-56,-1,-1,0
1523633461419,-720896,98,-56,-1,-1,0
1523633461419,-720896,98,-56,-1,-1,0
1523633461419,-655360,98,-56,-1,-1,0
1523633461419,-589824,98,-56,-1,-1,0
1523633461419,-720896,98,-56,-1,-1,0
1523633461459,-786432,98,-56,-1,-1,0
1523633461459,-786432,98,-56,-1,-1,0
1523633461459,-786432,98,-56,-1,-1,0
1523633461459,-851968,98,-56,-1,-1,0
1523633461459,-917504,98,-56,-1,-1,0
1523633461499,-917504,98,-56,-1,-1,0
1523633461499,-983040,98,-56,-1,-1,0
1523633461499,-983040,98,-56,-1,-1,0
1523633461499,-1048576,98,-56,-1,-1,0
1523633461499,-1048576,98,-56,-1,-1,0
1523633461539,-1048576,98,-56,-1,-1,0
1523633461539,-983040,98,-56,-1,-1,0
1523633461539,-851968,98,-56,-1,-1,0
1523633461539,-851968,98,-56,-1,-1,0
1523633461539,-917504,98,-56,-1,-1,0
1523633461579,-983040,97,-56,-1,-1,0
1523633461579,-1114112,97,-56,-1,-1,0
1523633461579,-1114112,97,-56,-1,-1,0
1523633461579,-1114112,97,-56,-1,-1,0
1523633461579,-1114112,97,-56,-1,-1,0
1523633461619,-1114112,97,-56,-1,-1,0
1523633461619,-1048576,97,-56,-1,-1,0
1523633461619,-1048576,97,-56,-1,-1,0
1523633461619,-1048576,97,-56,-1,-1,0
1523633461619,-1114112,97,-56,-1,-1,0
1523633461659,-1310720,97,-56,-1,-1,0
1523633461659,-851968,97,-56,-1,-1,0
1523633461659,1703936,97,-56,-1,-1,0
1523633461659,5701632,97,-56,-1,-1,0
1523633461659,7274496,97,-56,-1,-1,0
1523633461699,4063232,97,-56,-1,-1,0
1523633461699,-983040,97,-56,-1,-1,0
1523633461699,-4128768,97,-56,-1,-1,0
1523633461699,-4587520,97,-56,-1,-1,0
1523633461699,-3670016,97,-56,-1,-1,0
1523633461739,-2359296,97,-56,-1,-1,0
1523633461739,-1441792,97,-56,-1,-1,0
1523633461739,-917504,97,-56,-1,-1,0
1523633461739,-720896,97,-56,-1,-1,0
1523633461739,-524288,97,-56,-1,-1,0
1523633461779,-327680,97,-56,-1,-1,0
1523633461779,-196608,97,-56,-1,-1,0
1523633461779,-131072,97,-56,-1,-1,0
1523633461779,0,97,-56,-1,-1,0
1523633461779,327680,97,-56,-1,-1,0
1523633461820,589824,97,-56,-1,-1,0
1523633461820,917504,97,-56,-1,-1,0
1523633461820,1310720,97,-56,-1,-1,0
1523633461820,1769472,97,-56,-1,-1,0
1523633461820,2359296,97,-56,-1,-1,0
1523633461859,2818048,97,-56,-1,-1,0
1523633461859,3211264,97,-56,-1,-1,0
1523633461859,3604480,97,-56,-1,-1,0
1523633461859,3735552,97,-56,-1,-1,0
1523633461859,3670016,97,-56,-1,-1,0
1523633461899,3342336,97,-56,-1,-1,0
1523633461899,2949120,97,-56,-1,-1,0
1523633461899,2424832,97,-56,-1,-1,0
1523633461899,1769472,97,-56,-1,-1,0
1523633461899,1048576,97,-56,-1,-1,0
1523633461939,393216,97,-56,-1,-1,0
1523633461939,-65536,97,-56,-1,-1,0
1523633461939,-393216,97,-56,-1,-1,0
1523633461939,-655360,97,-56,-1,-1,0
1523633461939,-655360,97,-56,-1,-1,0
1523633461979,-589824,97,-56,-1,-1,0
1523633461979,-524288,97,-56,-1,-1,0
1523633461979,-524288,97,-56,-1,-1,0
1523633461979,-458752,97,-56,-1,-1,0
1523633461979,-458752,97,-56,-1,-1,0
1523633462019,-327680,97,-56,-1,-1,0
1523633462019,-196608,97,-56,-1,-1,0
1523633462019,-65536,97,-56,-1,-1,0
1523633462019,0,97,-56,-1,-1,0
1523633462019,0,97,-56,-1,-1,0
1523633462059,0,97,-56,-1,-1,0
1523633462059,0,97,-56,-1,-1,0
1523633462059,0,97,-56,-1,-1,0
1523633462059,-65536,97,-56,-1,-1,0
1523633462059,-131072,97,-56,-1,-1,0
1523633462099,-196608,97,-56,-1,-1,0
1523633462099,-196608,97,-56,-1,-1,0
1523633462099,-196608,97,-56,-1,-1,0
1523633462099,-262144,97,-56,-1,-1,0
1523633462099,-327680,97,-56,-1,-1,0
1523633462139,-393216,97,-56,-1,-1,0
1523633462139,-393216,97,-56,-1,-1,0
1523633462139,-393216,97,-56,-1,-1,0
1523633462139,-327680,97,-56,-1,-1,0
1523633462139,-327680,97,-56,-1,-1,0
1523633462179,-327680,97,-56,-1,-1,0
1523633462179,-262144,97,-56,-1,-1,0
1523633462179,-262144,97,-56,-1,-1,0
1523633462179,-393216,97,-56,-1,-1,0
1523633462179,-524288,97,-56,-1,-1,0
1523633462219,-524288,97,-56,-1,-1,0
1523633462219,-458752,97,-56,-1,-1,0
1523633462219,-458752,97,-56,-1,-1,0
1523633462219,-393216,97,-56,-1,-1,0
1523633462219,-327680,97,-56,-1,-1,0
1523633462259,-393216,97,-56,-1,-1,0
1523633462259,-458752,97,-56,-1,-1,0
1523633462259,-524288,97,-56,-1,-1,0
1523633462259,-589824,97,-56,-1,-1,0
1523633462259,-524288,97,-56,-1,-1,0
1523633462299,589824,97,-56,-1,-1,0
1523633462299,3735552,97,-56,-1,-1,0
1523633462299,7208960,97,-56,-1,-1,0
1523633462299,7143424,97,-56,-1,-1,0
1523633462299,2818048,97,-56,-1,-1,0
1523633462339,-1835008,97,-56,-1,-1,0
1523633462339,-3801088,97,-56,-1,-1,0
1523633462339,-3407872,97,-56,-1,-1,0
1523633462339,-2293760,97,-56,-1,-1,0
1523633462339,-1179648,97,-56,-1,-1,0
1523633462379,-458752,97,-56,-1,-1,0
1523633462379,0,97,-56,-1,-1,0
1523633462379,196608,97,-56,-1,-1,0
1523633462379,262144,97,-56,-1,-1,0
1523633462379,393216,97,-56,-1,-1,0
1523633462419,589824,97,-56,-1,-1,0
1523633462419,851968,97,-56,-1,-1,0
1523633462419,1048576,97,-56,-1,-1,0
1523633462419,1310720,97,-56,-1,-1,0
1523633462419,1507328,97,-56,-1,-1,0
1523633462461,1769472,97,-56,-1,-1,0
1523633462461,2228224,97,-56,-1,-1,0
1523633462461,2686976,97,-56,-1,-1,0
1523633462461,3145728,97,-56,-1,-1,0
1523633462461,3604480,97,-56,-1,-1,0
1523633462499,3997696,97,-56,-1,-1,0
1523633462499,4325376,97,-56,-1,-1,0
1523633462499,4456448,97,-56,-1,-1,0
1523633462499,4325376,97,-56,-1,-1,0
1523633462499,4063232,97,-56,-1,-1,0
1523633462539,3670016,97,-56,-1,-1,0
1523633462539,3014656,97,-56,-1,-1,0
1523633462539,2293760,97,-56,-1,-1,0
1523633462539,1507328,97,-56,-1,-1,0
1523633462539,917504,97,-56,-1,-1,0
1523633462579,458752,97,-56,-1,-1,0
1523633462579,65536,97,-56,-1,-1,0
1523633462579,-65536,97,-56,-1,-1,0
1523633462579,-65536,97,-56,-1,-1,0
1523633462579,-65536,97,-56,-1,-1,0
1523633462619,-196608,97,-56,-1,-1,0
1523633462619,-262144,97,-56,-1,-1,0
1523633462619,-262144,97,-56,-1,-1,0
1523633462619,-196608,97,-56,-1,-1,0
1523633462619,-131072,97,-56,-1,-1,0
1523633462659,-131072,97,-56,-1,-1,0
1523633462659,-196608,97,-56,-1,-1,0
1523633462659,-196608,97,-56,-1,-1,0
1523633462659,-196608,97,-56,-1,-1,0
1523633462659,-262144,97,-56,-1,-1,0
1523633462699,-262144,97,-56,-1,-1,0
1523633462699,-327680,97,-56,-1,-1,0
1523633462699,-393216,97,-56,-1,-1,0
1523633462699,-393216,97,-56,-1,-1,0
1523633462699,-393216,97,-56,-1,-1,0
1523633462739,-458752,97,-56,-1,-1,0
1523633462739,-524288,97,-56,-1,-1,0
1523633462739,-589824,97,-56,-1,-1,0
1523633462739,-589824,97,-56,-1,-1,0
1523633462739,-589824,97,-56,-1,-1,0
1523633462779,-655360,98,-56,-1,-1,0
1523633462779,-655360,98,-56,-1,-1,0
1523633462779,-589824,98,-56,-1,-1,0
1523633462779,-589824,98,-56,-1,-1,0
1523633462779,-720896,98,-56,-1,-1,0
1523633462819,-917504,98,-56,-1,-1,0
1523633462819,-1048576,98,-56,-1,-1,0
1523633462819,-1114112,98,-56,-1,-1,0
1523633462819,-1114112,98,-56,-1,-1,0
1523633462819,-1114112,98,-56,-1,-1,0
1523633462859,-1179648,98,-56,-1,-1,0
1523633462859,-1245184,98,-56,-1,-1,0
1523633462859,-1179648,98,-56,-1,-1,0
1523633462859,-1048576,98,-56,-1,-1,0
1523633462859,-1048576,98,-56,-1,-1,0
1523633462899,-1179648,98,-56,-1,-1,0
1523633462899,-983040,98,-56,-1,-1,0
1523633462899,720896,98,-56,-1,-1,0
1523633462899,4390912,98,-56,-1,-1,0
1523633462899,6946816,98,-56,-1,-1,0
1523633462941,5177344,98,-56,-1,-1,0
1523633462941,65536,98,-56,-1,-1,0
1523633462941,-3735552,98,-56,-1,-1,0
1523633462941,-4915200,98,-56,-1,-1,0
1523633462941,-4259840,98,-56,-1,-1,0
1523633462979,-2883584,98,-56,-1,-1,0
1523633462979,-1638400,98,-56,-1,-1,0
1523633462979,-851968,98,-56,-1,-1,0
1523633462979,-524288,98,-56,-1,-1,0
1523633462979,-327680,98,-56,-1,-1,0
1523633463019,-131072,98,-56,-1,-1,0
1523633463019,0,98,-56,-1,-1,0
1523633463019,0,98,-56,-1,-1,0
1523633463019,65536,98,-56,-1,-1,0
1523633463019,262144,98,-56,-1,-1,0
1523633463059,524288,98,-56,-1,-1,0
1523633463059,917504,98,-56,-1,-1,0
1523633463059,1310720,98,-56,-1,-1,0
1523633463059,1769472,98,-56,-1,-1,0
1523633463059,2293760,98,-56,-1,-1,0
1523633463101,2883584,98,-56,-1,-1,0
1523633463101,3473408,98,-56,-1,-1,0
1523633463101,3866624,98,-56,-1,-1,0
1523633463101,3997696,98,-56,-1,-1,0
1523633463101,3997696,98,-56,-1,-1,0
1523633463139,3801088,98,-56,-1,-1,0
1523633463139,3538944,98,-56,-1,-1,0
1523633463139,2949120,98,-56,-1,-1,0
1523633463139,2162688,98,-56,-1,-1,0
1523633463139,1310720,98,-56,-1,-1,0
1523633463179,589824,98,-56,-1,-1,0
1523633463179,0,98,-56,-1,-1,0
1523633463179,-262144,98,-56,-1,-1,0
1523633463179,-458752,98,-56,-1,-1,0
1523633463179,-655360,98,-56,-1,-1,0
1523633463219,-655360,98,-56,-1,-1,0
1523633463219,-655360,98,-56,-1,-1,0
1523633463219,-589824,98,-56,-1,-1,0
1523633463219,-589824,98,-56,-1,-1,0
1523633463219,-589824,98,-56,-1,-1,0
1523633463259,-458752,98,-56,-1,-1,0
1523633463259,-327680,98,-56,-1,-1,0
1523633463259,-262144,98,-56,-1,-1,0
1523633463259,-196608,98,-56,-1,-1,0
1523633463259,-131072,98,-56,-1,-1,0
1523633463299,-65536,98,-56,-1,-1,0
1523633463299,-131072,98,-56,-1,-1,0
1523633463299,-196608,98,-56,-1,-1,0
1523633463299,-196608,98,-56,-1,-1,0
1523633463299,-262144,98,-56,-1,-1,0
1523633463339,-393216,98,-56,-1,-1,0
1523633463339,-393216,98,-56,-1,-1,0
1523633463339,-393216,98,-56,-1,-1,0
1523633463339,-393216,98,-56,-1,-1,0
1523633463339,-393216,98,-56,-1,-1,0
1523633463379,-327680,98,-56,-1,-1,0
1523633463379,-262144,98,-56,-1,-1,0
1523633463379,-262144,98,-56,-1,-1,0
1523633463379,-327680,98,-56,-1,-1,0
1523633463379,-393216,98,-56,-1,-1,0
1523633463419,-524288,98,-56,-1,-1,0
1523633463419,-589824,98,-56,-1,-1,0
1523633463419,-655360,98,-56,-1,-1,0
1523633463419,-655360,98,-56,-1,-1,0
1523633463419,-655360,98,-56,-1,-1,0
1523633463459,-720896,98,-56,-1,-1,0
1523633463459,-655360,98,-56,-1,-1,0
1523633463459,-589824,98,-56,-1,-1,0
1523633463459,-589824,98,-56,-1,-1,0
1523633463459,-786432,98,-56,-1,-1,0
1523633463499,-655360,98,-56,-1,-1,0
1523633463499,1048576,98,-56,-1,-1,0
1523633463499,5177344,98,-56,-1,-1,0
1523633463499,8257536,98,-56,-1,-1,0
1523633463499,6488064,98,-56,-1,-1,0
1523633463539,983040,98,-56,-1,-1,0
1523633463539,-3145728,98,-56,-1,-1,0
1523633463539,-4194304,98,-56,-1,-1,0
1523633463539,-3538944,98,-56,-1,-1,0
1523633463539,-2228224,98,-56,-1,-1,0
1523633463579,-1114112,98,-56,-1,-1,0
1523633463579,-458752,98,-56,-1,-1,0
1523633463579,-131072,98,-56,-1,-1,0
1523633463579,0,98,-56,-1,-1,0
1523633463579,131072,98,-56,-1,-1,0
1523633463619,262144,98,-56,-1,-1,0
1523633463619,393216,98,-56,-1,-1,0
1523633463619,524288,98,-56,-1,-1,0
1523633463619,720896,98,-56,-1,-1,0
1523633463619,983040,98,-56,-1,-1,0
1523633463659,1245184,98,-56,-1,-1,0
1523633463659,1638400,98,-56,-1,-1,0
1523633463659,2031616,98,-56,-1,-1,0
1523633463659,2490368,98,-56,-1,-1,0
1523633463659,3014656,98,-56,-1,-1,0
1523633463699,3538944,98,-56,-1,-1,0
1523633463699,3932160,98,-56,-1,-1,0
1523633463699,4063232,98,-56,-1,-1,0
1523633463699,3932160,98,-56,-1,-1,0
1523633463699,3735552,98,-56,-1,-1,0
1523633463740,3276800,98,-56,-1,-1,0
1523633463740,2555904,98,-56,-1,-1,0
1523633463740,1638400,98,-56,-1,-1,0
1523633463740,720896,98,-56,-1,-1,0
1523633463740,0,98,-56,-1,-1,0
1523633463779,-458752,98,-56,-1,-1,0
1523633463779,-720896,98,-56,-1,-1,0
1523633463779,-983040,98,-56,-1,-1,0
1523633463779,-1179648,98,-56,-1,-1,0
1523633463779,-1245184,98,-56,-1,-1,0
1523633463819,-1310720,98,-56,-1,-1,0
1523633463819,-1310720,98,-56,-1,-1,0
1523633463819,-1376256,98,-56,-1,-1,0
1523633463819,-1376256,98,-56,-1,-1,0
1523633463819,-1376256,98,-56,-1,-1,0
1523633463859,-1310720,98,-56,-1,-1,0
1523633463859,-1245184,98,-56,-1,-1,0
1523633463859,-1245184,98,-56,-1,-1,0
1523633463859,-1179648,98,-56,-1,-1,0
1523633463859,-1048576,98,-56,-1,-1,0
1523633463899,-983040,98,-56,-1,-1,0
1523633463899,-1048576,98,-56,-1,-1,0
1523633463899,-1114112,98,-56,-1,-1,0
1523633463899,-1114112,98,-56,-1,-1,0
1523633463899,-1114112,98,-56,-1,-1,0
1523633463939,-1245184,98,-56,-1,-1,0
1523633463939,-1376256,98,-56,-1,-1,0
1523633463939,-1507328,98,-56,-1,-1,0
1523633463939,-1507328,98,-56,-1,-1,0
1523633463939,-1507328,98,-56,-1,-1,0
1523633463979,-1441792,98,-56,-1,-1,0
1523633463979,-1441792,98,-56,-1,-1,0
1523633463979,-1376256,98,-56,-1,-1,0
1523633463979,-1376256,98,-56,-1,-1,0
1523633463979,-1507328,98,-56,-1,-1,0
1523633464019,-1638400,98,-56,-1,-1,0
1523633464019,-1703936,98,-56,-1,-1,0
1523633464019,-1769472,98,-56,-1,-1,0
1523633464019,-1835008,98,-56,-1,-1,0
1523633464019,-1900544,98,-56,-1,-1,0
1523633464059,-1835008,98,-56,-1,-1,0
1523633464059,-1769472,98,-56,-1,-1,0
1523633464059,-1703936,98,-56,-1,-1,0
1523633464059,-1769472,98,-56,-1,-1,0
1523633464059,-1900544,98,-56,-1,-1,0
1523633464099,-1835008,98,-56,-1,-1,0
1523633464099,-196608,98,-56,-1,-1,0
1523633464099,3670016,98,-56,-1,-1,0
1523633464099,7208960,98,-56,-1,-1,0
1523633464099,6225920,98,-56,-1,-1,0
1523633464139,1048576,98,-56,-1,-1,0
1523633464139,-3735552,98,-56,-1,-1,0
1523633464139,-5373952,98,-56,-1,-1,0
1523633464139,-4653056,98,-56,-1,-1,0
1523633464139,-3342336,98,-56,-1,-1,0
1523633464179,-2228224,98,-56,-1,-1,0
1523633464179,-1572864,98,-56,-1,-1,0
1523633464179,-1245184,98,-56,-1,-1,0
1523633464179,-1048576,98,-56,-1,-1,0
1523633464179,-917504,98,-56,-1,-1,0
1523633464219,-786432,98,-56,-1,-1,0
1523633464219,-655360,98,-56,-1,-1,0
1523633464219,-458752,98,-56,-1,-1,0
1523633464219,-262144,98,-56,-1,-1,0
1523633464219,-65536,98,-56,-1,-1,0
1523633464259,196608,98,-56,-1,-1,0
1523633464259,524288,98,-56,-1,-1,0
1523633464259,983040,98,-56,-1,-1,0
1523633464259,1572864,98,-56,-1,-1,0
1523633464259,2162688,98,-56,-1,-1,0
1523633464302,2686976,98,-56,-1,-1,0
1523633464302,3145728,98,-56,-1,-1,0
1523633464302,3538944,98,-56,-1,-1,0
1523633464302,3670016,98,-56,-1,-1,0
1523633464302,3538944,98,-56,-1,-1,0
1523633464340,3014656,98,-56,-1,-1,0
1523633464340,2162688,98,-56,-1,-1,0
1523633464340,1310720,98,-56,-1,-1,0
1523633464340,524288,98,-56,-1,-1,0
1523633464340,-65536,98,-56,-1,-1,0
1523633464383,-655360,98,-56,-1,-1,0
1523633464383,-1114112,98,-56,-1,-1,0
1523633464383,-1376256,98,-56,-1,-1,0
1523633464383,-1507328,98,-56,-1,-1,0
1523633464383,-1638400,98,-56,-1,-1,0
1523633464419,-1769472,98,-56,-1,-1,0
1523633464419,-1835008,98,-56,-1,-1,0
1523633464419,-1835008,98,-56,-1,-1,0
1523633464419,-1835008,98,-56,-1,-1,0
1523633464419,-1835008,98,-56,-1,-1,0
1523633464459,-1703936,98,-56,-1,-1,0
1523633464459,-1572864,98,-56,-1,-1,0
1523633464459,-1507328,98,-56,-1,-1,0
1523633464459,-1507328,98,-56,-1,-1,0
1523633464459,-1441792,98,-56,-1,-1,0
1523633464499,-1310720,98,-56,-1,-1,0
1523633464499,-1245184,98,-56,-1,-1,0
1523633464499,-1179648,98,-56,-1,-1,0
1523633464499,-1179648,98,-56,-1,-1,0
1523633464499,-1114112,98,-56,-1,-1,0
1523633464539,-1048576,98,-56,-1,-1,0
1523633464539,-1048576,98,-56,-1,-1,0
1523633464539,-1179648,98,-56,-1,-1,0
1523633464539,-1245184,98,-56,-1,-1,0
1523633464539,-1179648,98,-56,-1,-1,0
1523633464579,-983040,98,-56,-1,-1,0
1523633464579,-851968,98,-56,-1,-1,0
1523633464579,-786432,98,-56,-1,-1,0
1523633464579,-786432,98,-56,-1,-1,0
1523633464579,-786432,98,-56,-1,-1,0
1523633464619,-983040,98,-56,-1,-1,0
1523633464619,-1114112,98,-56,-1,-1,0
1523633464619,-1179648,98,-56,-1,-1,0
1523633464619,-1114112,98,-56,-1,-1,0
1523633464619,-1048576,98,-56,-1,-1,0
1523633464659,-1048576,98,-56,-1,-1,0
1523633464659,-1048576,98,-56,-1,-1,0
1523633464659,-983040,98,-56,-1,-1,0
1523633464659,-917504,98,-56,-1,-1,0
1523633464659,-983040,98,-56,-1,-1,0
1523633464699,-1179648,98,-56,-1,-1,0
1523633464699,-1245184,98,-56,-1,-1,0
1523633464699,-65536,98,-56,-1,-1,0
1523633464699,3342336,98,-56,-1,-1,0
1523633464699,7143424,98,-56,-1,-1,0
1523633464739,7274496,98,-56,-1,-1,0
1523633464739,2752512,98,-56,-1,-1,0
1523633464739,-2228224,98,-56,-1,-1,0
1523633464739,-4456448,98,-56,-1,-1,0
1523633464739,-4456448,98,-56,-1,-1,0
1523633464779,-3407872,98,-56,-1,-1,0
1523633464779,-2097152,98,-56,-1,-1,0
1523633464779,-983040,98,-56,-1,-1,0
1523633464779,-524288,98,-56,-1,-1,0
1523633464779,-327680,98,-56,-1,-1,0
1523633464819,-262144,98,-56,-1,-1,0
1523633464819,-196608,98,-56,-1,-1,0
1523633464819,0,98,-56,-1,-1,0
1523633464819,0,98,-56,-1,-1,0
1523633464819,131072,98,-56,-1,-1,0
1523633464859,262144,98,-56,-1,-1,0
1523633464859,720896,98,-56,-1,-1,0
1523633464859,1310720,98,-56,-1,-1,0
1523633464859,1703936,98,-56,-1,-1,0
1523633464859,1966080,98,-56,-1,-1,0
1523633464899,2555904,98,-56,-1,-1,0
1523633464899,3276800,98,-56,-1,-1,0
1523633464899,3997696,98,-56,-1,-1,0
1523633464899,4325376,98,-56,-1,-1,0
1523633464899,4390912,98,-56,-1,-1,0
1523633464939,4259840,98,-56,-1,-1,0
1523633464939,3801088,98,-56,-1,-1,0
1523633464939,3014656,98,-56,-1,-1,0
1523633464939,1835008,98,-56,-1,-1,0
1523633464939,983040,98,-56,-1,-1,0
1523633464999,393216,98,-56,-1,-1,0
1523633464999,-131072,98,-56,-1,-1,0
1523633464999,-655360,98,-56,-1,-1,0
1523633464999,-786432,98,-56,-1,-1,0
1523633464999,-917504,98,-56,-1,-1,0
1523633465019,-1376256,98,-56,-1,-1,0
1523633465019,-1638400,98,-56,-1,-1,0
1523633465019,-1507328,98,-56,-1,-1,0
1523633465019,-1376256,98,-56,-1,-1,0
1523633465019,-1376256,98,-56,-1,-1,0
1523633465059,-1507328,98,-56,-1,-1,0
1523633465059,-1376256,98,-56,-1,-1,0
1523633465059,-1376256,98,-56,-1,-1,0
1523633465059,-1441792,98,-56,-1,-1,0
1523633465059,-1376256,98,-56,-1,-1,0
1523633465099,-1376256,98,-56,-1,-1,0
1523633465099,-1507328,98,-56,-1,-1,0
1523633465099,-1376256,98,-56,-1,-1,0
1523633465099,-1114112,98,-56,-1,-1,0
1523633465099,-1114112,98,-56,-1,-1,0
1523633465139,-1245184,98,-56,-1,-1,0
1523633465139,-1310720,98,-56,-1,-1,0
1523633465139,-1376256,98,-56,-1,-1,0
1523633465139,-1376256,98,-56,-1,-1,0
1523633465139,-1507328,98,-56,-1,-1,0
1523633465179,-1572864,98,-56,-1,-1,0
1523633465179,-1507328,98,-56,-1,-1,0
1523633465179,-1507328,98,-56,-1,-1,0
1523633465179,-1638400,98,-56,-1,-1,0
1523633465179,-1835008,98,-56,-1,-1,0
1523633465219,-1835008,98,-56,-1,-1,0
1523633465219,-1638400,98,-56,-1,-1,0
1523633465219,-1507328,98,-56,-1,-1,0
1523633465219,-1572864,98,-56,-1,-1,0
1523633465219,-1638400,98,-56,-1,-1,0
1523633465259,-1703936,98,-56,-1,-1,0
1523633465259,-1769472,98,-56,-1,-1,0
1523633465259,-1966080,98,-56,-1,-1,0
1523633465259,-2031616,98,-56,-1,-1,0
1523633465259,-2097152,98,-56,-1,-1,0
1523633465299,-2031616,98,-56,-1,-1,0
1523633465299,-1966080,98,-56,-1,-1,0
1523633465299,-2031616,98,-56,-1,-1,0
1523633465299,-1966080,98,-56,-1,-1,0
1523633465299,-2162688,98,-56,-1,-1,0
1523633465339,-2293760,98,-56,-1,-1,0
1523633465339,-1245184,98,-56,-1,-1,0
1523633465339,2293760,98,-56,-1,-1,0
1523633465339,6881280,98,-56,-1,-1,0
1523633465339,8192000,98,-56,-1,-1,0
1523633465379,3801088,98,-56,-1,-1,0
1523633465379,-2097152,98,-56,-1,-1,0
1523633465379,-5373952,98,-56,-1,-1,0
1523633465379,-5439488,98,-56,-1,-1,0
1523633465379,-4194304,98,-56,-1,-1,0
1523633465419,-2883584,98,-56,-1,-1,0
1523633465419,-2097152,98,-56,-1,-1,0
1523633465419,-1703936,98,-56,-1,-1,0
1523633465419,-1441792,98,-56,-1,-1,0
1523633465419,-1310720,98,-56,-1,-1,0
1523633465459,-1245184,98,-56,-1,-1,0
1523633465459,-983040,98,-56,-1,-1,0
1523633465459,-655360,98,-56,-1,-1,0
1523633465459,-524288,98,-56,-1,-1,0
1523633465459,-393216,98,-56,-1,-1,0
1523633465499,65536,98,-56,-1,-1,0
1523633465499,655360,98,-56,-1,-1,0
1523633465499,1114112,98,-56,-1,-1,0
1523633465499,1572864,98,-56,-1,-1,0
1523633465499,2293760,98,-56,-1,-1,0
1523633465539,3014656,98,-56,-1,-1,0
1523633465539,3604480,98,-56,-1,-1,0
1523633465539,4063232,98,-56,-1,-1,0
1523633465539,4259840,98,-56,-1,-1,0
1523633465539,4194304,98,-56,-1,-1,0
1523633465579,3866624,98,-56,-1,-1,0
1523633465579,3276800,98,-56,-1,-1,0
1523633465579,2359296,98,-56,-1,-1,0
1523633465579,1310720,98,-56,-1,-1,0
1523633465579,458752,98,-56,-1,-1,0
1523633465619,-65536,98,-56,-1,-1,0
1523633465619,-458752,98,-56,-1,-1,0
1523633465619,-720896,98,-56,-1,-1,0
1523633465619,-917504,98,-56,-1,-1,0
1523633465619,-1048576,98,-56,-1,-1,0
1523633465660,-1114112,98,-56,-1,-1,0
1523633465660,-1179648,98,-56,-1,-1,0
1523633465660,-1245184,98,-56,-1,-1,0
1523633465660,-1179648,98,-56,-1,-1,0
1523633465660,-1048576,98,-56,-1,-1,0
1523633465699,-917504,98,-56,-1,-1,0
1523633465699,-917504,98,-56,-1,-1,0
1523633465699,-786432,98,-56,-1,-1,0
1523633465699,-720896,98,-56,-1,-1,0
1523633465699,-720896,98,-56,-1,-1,0
1523633465739,-458752,98,-56,-1,-1,0
1523633465739,-65536,98,-56,-1,-1,0
1523633465739,-65536,98,-56,-1,-1,0
1523633465739,-327680,98,-56,-1,-1,0
1523633465739,-458752,98,-56,-1,-1,0
1523633465779,-589824,98,-56,-1,-1,0
1523633465779,-786432,98,-56,-1,-1,0
1523633465779,-786432,98,-56,-1,-1,0
1523633465779,-786432,98,-56,-1,-1,0
1523633465779,-786432,98,-56,-1,-1,0
1523633465819,-786432,98,-56,-1,-1,0
1523633465819,-655360,98,-56,-1,-1,0
1523633465819,-655360,98,-56,-1,-1,0
1523633465819,-589824,98,-56,-1,-1,0
1523633465819,-524288,98,-56,-1,-1,0
1523633465859,-655360,98,-56,-1,-1,0
1523633465859,-720896,98,-56,-1,-1,0
1523633465859,-524288,98,-56,-1,-1,0
1523633465859,-393216,98,-56,-1,-1,0
1523633465859,-524288,98,-56,-1,-1,0
1523633465899,-524288,98,-56,-1,-1,0
1523633465899,-524288,98,-56,-1,-1,0
1523633465899,-720896,98,-56,-1,-1,0
1523633465899,-917504,98,-56,-1,-1,0
1523633465899,-917504,98,-56,-1,-1,0
1523633465939,-851968,98,-56,-1,-1,0
1523633465939,-655360,98,-56,-1,-1,0
1523633465939,-720896,98,-56,-1,-1,0
1523633465939,-655360,98,-56,-1,-1,0
1523633465939,-720896,98,-56,-1,-1,0
1523633465979,-851968,98,-56,-1,-1,0
1523633465979,-851968,98,-56,-1,-1,0
1523633465979,-917504,98,-56,-1,-1,0
1523633465979,-786432,98,-56,-1,-1,0
1523633465979,524288,98,-56,-1,-1,0
1523633466019,4194304,96,-56,-1,-1,0
1523633466019,7602176,96,-56,-1,-1,0
1523633466019,6946816,96,-56,-1,-1,0
1523633466019,1900544,96,-56,-1,-1,0
1523633466019,-2949120,96,-56,-1,-1,0
1523633466059,-4849664,96,-56,-1,-1,0
1523633466059,-4390912,96,-56,-1,-1,0
1523633466059,-3080192,96,-56,-1,-1,0
1523633466059,-1900544,96,-56,-1,-1,0
1523633466059,-1114112,96,-56,-1,-1,0
1523633466099,-786432,96,-56,-1,-1,0
1523633466099,-655360,96,-56,-1,-1,0
1523633466099,-589824,96,-56,-1,-1,0
1523633466099,-524288,96,-56,-1,-1,0
1523633466099,-458752,96,-56,-1,-1,0
1523633466139,-393216,96,-56,-1,-1,0
1523633466139,-196608,96,-56,-1,-1,0
1523633466139,0,96,-56,-1,-1,0
1523633466139,327680,96,-56,-1,-1,0
1523633466139,720896,96,-56,-1,-1,0
1523633466179,1048576,96,-56,-1,-1,0
1523633466179,1441792,96,-56,-1,-1,0
1523633466179,2031616,96,-56,-1,-1,0
1523633466179,2752512,96,-56,-1,-1,0
1523633466179,3276800,96,-56,-1,-1,0
1523633466219,3735552,96,-56,-1,-1,0
1523633466219,3997696,96,-56,-1,-1,0
1523633466219,3801088,96,-56,-1,-1,0
1523633466219,3276800,96,-56,-1,-1,0
1523633466219,2555904,96,-56,-1,-1,0
1523633466259,1638400,96,-56,-1,-1,0
1523633466259,655360,96,-56,-1,-1,0
1523633466259,-131072,96,-56,-1,-1,0
1523633466259,-786432,96,-56,-1,-1,0
1523633466259,-1245184,96,-56,-1,-1,0
1523633466300,-1507328,96,-56,-1,-1,0
1523633466300,-1703936,96,-56,-1,-1,0
1523633466300,-1835008,96,-56,-1,-1,0
1523633466300,-1900544,96,-56,-1,-1,0
1523633466300,-2031616,96,-56,-1,-1,0
1523633466339,-2097152,96,-56,-1,-1,0
1523633466339,-2097152,96,-56,-1,-1,0
1523633466339,-2097152,96,-56,-1,-1,0
1523633466339,-2097152,96,-56,-1,-1,0
1523633466339,-2097152,96,-56,-1,-1,0
1523633466379,-1966080,96,-56,-1,-1,0
1523633466379,-1835008,96,-56,-1,-1,0
1523633466379,-1769472,96,-56,-1,-1,0
1523633466379,-1769472,96,-56,-1,-1,0
1523633466379,-1703936,96,-56,-1,-1,0
1523633466419,-1638400,96,-56,-1,-1,0
1523633466419,-1572864,96,-56,-1,-1,0
1523633466419,-1507328,96,-56,-1,-1,0
1523633466419,-1441792,96,-56,-1,-1,0
1523633466419,-1441792,96,-56,-1,-1,0
1523633466459,-1507328,96,-56,-1,-1,0
1523633466459,-1572864,96,-56,-1,-1,0
1523633466459,-1638400,96,-56,-1,-1,0
1523633466459,-1638400,96,-56,-1,-1,0
1523633466459,-1638400,96,-56,-1,-1,0
1523633466499,-1572864,96,-56,-1,-1,0
1523633466499,-1572864,96,-56,-1,-1,0
1523633466499,-1572864,96,-56,-1,-1,0
1523633466499,-1572864,96,-56,-1,-1,0
1523633466499,-1572864,96,-56,-1,-1,0
1523633466539,-1638400,96,-56,-1,-1,0
1523633466539,-1638400,96,-56,-1,-1,0
1523633466539,-1703936,96,-56,-1,-1,0
1523633466539,-1703936,96,-56,-1,-1,0
1523633466539,-1769472,96,-56,-1,-1,0
1523633466579,-1769472,96,-56,-1,-1,0
1523633466579,-1769472,96,-56,-1,-1,0
1523633466579,-1638400,96,-56,-1,-1,0
1523633466579,-1507328,96,-56,-1,-1,0
1523633466579,-1245184,96,-56,-1,-1,0
1523633466619,-1048576,96,-56,-1,-1,0
1523633466619,-1048576,96,-56,-1,-1,0
1523633466619,-1179648,96,-56,-1,-1,0
1523633466619,-1245184,96,-56,-1,-1,0
1523633466619,-1310720,96,-56,-1,-1,0
1523633466659,-1376256,96,-56,-1,-1,0
1523633466659,-1441792,96,-56,-1,-1,0
1523633466659,-1376256,96,-56,-1,-1,0
1523633466659,-1310720,96,-56,-1,-1,0
1523633466659,-1179648,96,-56,-1,-1,0
1523633466699,-1179648,96,-56,-1,-1,0
1523633466699,-1179648,96,-56,-1,-1,0
1523633466699,-1114112,96,-56,-1,-1,0
1523633466699,-983040,96,-56,-1,-1,0
1523633466699,0,96,-56,-1,-1,0
1523633466740,2883584,96,-56,-1,-1,0
1523633466740,5963776,96,-56,-1,-1,0
1523633466740,5832704,96,-56,-1,-1,0
1523633466740,1835008,96,-56,-1,-1,0
1523633466740,-2424832,96,-56,-1,-1,0
1523633466779,-4390912,96,-56,-1,-1,0
1523633466779,-4128768,96,-56,-1,-1,0
1523633466779,-2949120,96,-56,-1,-1,0
1523633466779,-1769472,96,-56,-1,-1,0
1523633466779,-1048576,96,-56,-1,-1,0
1523633466819,-589824,96,-56,-1,-1,0
1523633466819,-393216,96,-56,-1,-1,0
1523633466819,-262144,96,-56,-1,-1,0
1523633466819,-65536,96,-56,-1,-1,0
1523633466819,0,96,-56,-1,-1,0
1523633466859,65536,96,-56,-1,-1,0
1523633466859,196608,96,-56,-1,-1,0
1523633466859,458752,96,-56,-1,-1,0
1523633466859,720896,96,-56,-1,-1,0
1523633466859,1048576,96,-56,-1,-1,0
1523633466900,1376256,96,-56,-1,-1,0
1523633466900,1900544,96,-56,-1,-1,0
1523633466900,2555904,96,-56,-1,-1,0
1523633466900,3145728,96,-56,-1,-1,0
1523633466900,3538944,96,-56,-1,-1,0
1523633466939,3932160,96,-56,-1,-1,0
1523633466939,4194304,96,-56,-1,-1,0
1523633466939,4128768,96,-56,-1,-1,0
1523633466939,3866624,96,-56,-1,-1,0
1523633466939,3407872,96,-56,-1,-1,0
1523633466979,2752512,96,-56,-1,-1,0
1523633466979,1900544,96,-56,-1,-1,0
1523633466979,1245184,96,-56,-1,-1,0
1523633466979,655360,96,-56,-1,-1,0
1523633466979,262144,96,-56,-1,-1,0
1523633467019,0,96,-56,-1,-1,0
1523633467019,-196608,96,-56,-1,-1,0
1523633467019,-327680,96,-56,-1,-1,0
1523633467019,-393216,96,-56,-1,-1,0
1523633467019,-262144,96,-56,-1,-1,0
1523633467059,-262144,96,-56,-1,-1,0
1523633467059,-262144,96,-56,-1,-1,0
1523633467059,-196608,96,-56,-1,-1,0
1523633467059,-196608,96,-56,-1,-1,0
1523633467059,-393216,96,-56,-1,-1,0
1523633467099,-393216,96,-56,-1,-1,0
1523633467099,-196608,96,-56,-1,-1,0
1523633467099,0,96,-56,-1,-1,0
1523633467099,0,96,-56,-1,-1,0
1523633467099,0,96,-56,-1,-1,0
1523633467139,-65536,96,-56,-1,-1,0
1523633467139,0,96,-56,-1,-1,0
1523633467139,262144,96,-56,-1,-1,0
1523633467139,393216,96,-56,-1,-1,0
1523633467139,327680,96,-56,-1,-1,0
1523633467180,262144,96,-56,-1,-1,0
1523633467180,131072,96,-56,-1,-1,0
1523633467180,65536,96,-56,-1,-1,0
1523633467180,0,96,-56,-1,-1,0
1523633467180,0,96,-56,-1,-1,0
1523633467219,0,96,-56,-1,-1,0
1523633467219,65536,96,-56,-1,-1,0
1523633467219,65536,96,-56,-1,-1,0
1523633467219,65536,96,-56,-1,-1,0
1523633467219,131072,96,-56,-1,-1,0
1523633467259,65536,96,-56,-1,-1,0
1523633467259,0,96,-56,-1,-1,0
1523633467259,-65536,96,-56,-1,-1,0
1523633467259,-131072,96,-56,-1,-1,0
1523633467259,-131072,96,-56,-1,-1,0
1523633467299,-262144,96,-56,-1,-1,0
1523633467299,-196608,96,-56,-1,-1,0
1523633467299,-65536,96,-56,-1,-1,0
1523633467299,0,96,-56,-1,-1,0
1523633467299,-65536,96,-56,-1,-1,0
1523633467339,-196608,96,-56,-1,-1,0
1523633467339,-196608,96,-56,-1,-1,0
1523633467339,-131072,96,-56,-1,-1,0
1523633467339,-131072,96,-56,-1,-1,0
1523633467339,-196608,96,-56,-1,-1,0
1523633467379,-196608,96,-56,-1,-1,0
1523633467379,-131072,96,-56,-1,-1,0
1523633467379,0,96,-56,-1,-1,0
1523633467379,0,96,-56,-1,-1,0
1523633467379,0,96,-56,-1,-1,0
1523633467419,-131072,96,-56,-1,-1,0
1523633467419,-196608,96,-56,-1,-1,0
1523633467419,-196608,96,-56,-1,-1,0
1523633467419,-262144,96,-56,-1,-1,0
1523633467419,-196608,96,-56,-1,-1,0
1523633467459,-131072,96,-56,-1,-1,0
1523633467459,0,96,-56,-1,-1,0
1523633467459,0,96,-56,-1,-1,0
1523633467459,0,96,-56,-1,-1,0
1523633467459,-65536,96,-56,-1,-1,0
1523633467499,-131072,96,-56,-1,-1,0
1523633467499,0,96,-56,-1,-1,0
1523633467499,1441792,96,-56,-1,-1,0
1523633467499,4653056,96,-56,-1,-1,0
1523633467499,7471104,96,-56,-1,-1,0
1523633467539,6488064,96,-56,-1,-1,0
1523633467539,2031616,96,-56,-1,-1,0
1523633467539,-1900544,96,-56,-1,-1,0
1523633467539,-3342336,96,-56,-1,-1,0
1523633467539,-2883584,96,-56,-1,-1,0
1523633467580,-1769472,96,-56,-1,-1,0
1523633467580,-655360,96,-56,-1,-1,0
1523633467580,-65536,96,-56,-1,-1,0
1523633467580,65536,96,-56,-1,-1,0
1523633467580,262144,96,-56,-1,-1,0
1523633467619,393216,96,-56,-1,-1,0
1523633467619,458752,96,-56,-1,-1,0
1523633467619,524288,96,-56,-1,-1,0
1523633467619,720896,96,-56,-1,-1,0
1523633467619,917504,96,-56,-1,-1,0
1523633467659,1114112,96,-56,-1,-1,0
1523633467659,1376256,96,-56,-1,-1,0
1523633467659,1703936,96,-56,-1,-1,0
1523633467659,2031616,96,-56,-1,-1,0
1523633467659,2490368,96,-56,-1,-1,0
1523633467699,2949120,96,-56,-1,-1,0
1523633467699,3473408,96,-56,-1,-1,0
1523633467699,3997696,96,-56,-1,-1,0
1523633467699,4456448,96,-56,-1,-1,0
1523633467699,4718592,96,-56,-1,-1,0
1523633467739,4718592,96,-56,-1,-1,0
1523633467739,4521984,96,-56,-1,-1,0
1523633467739,4063232,96,-56,-1,-1,0
1523633467739,3276800,96,-56,-1,-1,0
1523633467739,2424832,96,-56,-1,-1,0
1523633467779,1638400,96,-56,-1,-1,0
1523633467779,983040,96,-56,-1,-1,0
1523633467779,458752,96,-56,-1,-1,0
1523633467779,131072,96,-56,-1,-1,0
1523633467779,-65536,96,-56,-1,-1,0
1523633467819,-327680,96,-56,-1,-1,0
1523633467819,-524288,96,-56,-1,-1,0
1523633467819,-589824,96,-56,-1,-1,0
1523633467819,-589824,96,-56,-1,-1,0
1523633467819,-655360,96,-56,-1,-1,0
1523633467859,-655360,96,-56,-1,-1,0
1523633467859,-786432,96,-56,-1,-1,0
1523633467859,-786432,96,-56,-1,-1,0
1523633467859,-720896,96,-56,-1,-1,0
1523633467859,-524288,96,-56,-1,-1,0
1523633467899,-458752,96,-56,-1,-1,0
1523633467899,-458752,96,-56,-1,-1,0
1523633467899,-458752,96,-56,-1,-1,0
1523633467899,-393216,96,-56,-1,-1,0
1523633467899,-327680,96,-56,-1,-1,0
1523633467939,-327680,96,-56,-1,-1,0
1523633467939,-393216,96,-56,-1,-1,0
1523633467939,-393216,96,-56,-1,-1,0
1523633467939,-393216,96,-56,-1,-1,0
1523633467939,-458752,96,-56,-1,-1,0
1523633467979,-589824,96,-56,-1,-1,0
1523633467979,-655360,96,-56,-1,-1,0
1523633467979,-720896,96,-56,-1,-1,0
1523633467979,-786432,96,-56,-1,-1,0
1523633467979,-851968,96,-56,-1,-1,0
1523633468019,-917504,96,-56,-1,-1,0
1523633468019,-851968,96,-56,-1,-1,0
1523633468019,-851968,96,-56,-1,-1,0
1523633468019,-917504,96,-56,-1,-1,0
1523633468019,-983040,96,-56,-1,-1,0
1523633468059,-1048576,96,-56,-1,-1,0
1523633468059,-1114112,96,-56,-1,-1,0
1523633468059,-1114112,96,-56,-1,-1,0
1523633468059,-1114112,96,-56,-1,-1,0
1523633468059,-1048576,96,-56,-1,-1,0
1523633468099,-983040,96,-56,-1,-1,0
1523633468099,-983040,96,-56,-1,-1,0
1523633468099,-1048576,96,-56,-1,-1,0
1523633468099,-1179648,96,-56,-1,-1,0
1523633468099,-1310720,96,-56,-1,-1,0
1523633468139,-1376256,96,-56,-1,-1,0
1523633468139,-1376256,96,-56,-1,-1,0
1523633468139,-1245184,96,-56,-1,-1,0
1523633468139,-1245184,96,-56,-1,-1,0
1523633468139,-1245184,96,-56,-1,-1,0
1523633468179,-1179648,96,-56,-1,-1,0
1523633468179,-1114112,96,-56,-1,-1,0
1523633468179,-1179648,96,-56,-1,-1,0
1523633468179,-1310720,96,-56,-1,-1,0
1523633468179,-589824,96,-56,-1,-1,0
1523633468220,2097152,96,-56,-1,-1,0
1523633468220,5898240,96,-56,-1,-1,0
1523633468220,7143424,96,-56,-1,-1,0
1523633468220,3538944,96,-56,-1,-1,0
1523633468220,-1703936,96,-56,-1,-1,0
1523633468259,-4784128,96,-56,-1,-1,0
1523633468259,-5046272,96,-56,-1,-1,0
1523633468259,-3932160,96,-56,-1,-1,0
1523633468259,-2555904,96,-56,-1,-1,0
1523633468259,-1507328,96,-56,-1,-1,0
1523633468299,-983040,96,-56,-1,-1,0
1523633468299,-655360,96,-56,-1,-1,0
1523633468299,-524288,96,-56,-1,-1,0
1523633468299,-393216,96,-56,-1,-1,0
1523633468299,-393216,96,-56,-1,-1,0
1523633468339,-327680,96,-56,-1,-1,0
1523633468339,-65536,96,-56,-1,-1,0
1523633468339,262144,96,-56,-1,-1,0
1523633468339,589824,96,-56,-1,-1,0
1523633468339,851968,96,-56,-1,-1,0
1523633468379,1245184,96,-56,-1,-1,0
1523633468379,1703936,96,-56,-1,-1,0
1523633468379,2359296,96,-56,-1,-1,0
1523633468379,3080192,96,-56,-1,-1,0
1523633468379,3670016,96,-56,-1,-1,0
1523633468419,4194304,96,-56,-1,-1,0
1523633468419,4521984,96,-56,-1,-1,0
1523633468419,4587520,96,-56,-1,-1,0
1523633468419,4390912,96,-56,-1,-1,0
1523633468419,3866624,96,-56,-1,-1,0
1523633468459,3014656,96,-56,-1,-1,0
1523633468459,2031616,96,-56,-1,-1,0
1523633468459,1114112,96,-56,-1,-1,0
1523633468459,327680,96,-56,-1,-1,0
1523633468459,-131072,96,-56,-1,-1,0
1523633468499,-589824,96,-56,-1,-1,0
1523633468499,-786432,96,-56,-1,-1,0
1523633468499,-983040,96,-56,-1,-1,0
1523633468499,-1179648,96,-56,-1,-1,0
1523633468499,-1310720,96,-56,-1,-1,0
1523633468539,-1376256,96,-56,-1,-1,0
1523633468539,-1310720,96,-56,-1,-1,0
1523633468539,-1245184,96,-56,-1,-1,0
1523633468539,-1179648,96,-56,-1,-1,0
1523633468539,-1179648,96,-56,-1,-1,0
1523633468579,-1114112,96,-56,-1,-1,0
1523633468579,-917504,96,-56,-1,-1,0
1523633468579,-851968,96,-56,-1,-1,0
1523633468579,-786432,96,-56,-1,-1,0
1523633468579,-720896,96,-56,-1,-1,0
1523633468620,-655360,96,-56,-1,-1,0
1523633468620,-655360,96,-56,-1,-1,0
1523633468620,-655360,96,-56,-1,-1,0
1523633468620,-720896,96,-56,-1,-1,0
1523633468620,-720896,96,-56,-1,-1,0
1523633468659,-720896,96,-56,-1,-1,0
1523633468659,-720896,96,-56,-1,-1,0
1523633468659,-720896,96,-56,-1,-1,0
1523633468659,-851968,96,-56,-1,-1,0
1523633468659,-851968,96,-56,-1,-1,0
1523633468699,-851968,96,-56,-1,-1,0
1523633468699,-917504,96,-56,-1,-1,0
1523633468699,-917504,96,-56,-1,-1,0
1523633468699,-917504,96,-56,-1,-1,0
1523633468699,-917504,96,-56,-1,-1,0
1523633468739,-917504,96,-56,-1,-1,0
1523633468739,-917504,96,-56,-1,-1,0
1523633468739,-851968,96,-56,-1,-1,0
1523633468739,-786432,96,-56,-1,-1,0
1523633468739,-786432,96,-56,-1,-1,0
1523633468780,-851968,96,-56,-1,-1,0
1523633468780,-917504,96,-56,-1,-1,0
1523633468780,-1048576,96,-56,-1,-1,0
1523633468780,-1114112,96,-56,-1,-1,0
1523633468780,-1114112,96,-56,-1,-1,0
1523633468819,-1048576,96,-56,-1,-1,0
1523633468819,-983040,96,-56,-1,-1,0
1523633468819,-983040,96,-56,-1,-1,0
1523633468819,-983040,96,-56,-1,-1,0
1523633468819,-1179648,96,-56,-1,-1,0
1523633468860,-1507328,95,-56,-1,-1,0
1523633468860,-1572864,95,-56,-1,-1,0
1523633468860,131072,95,-56,-1,-1,0
1523633468860,4718592,95,-56,-1,-1,0
1523633468860,9175040,95,-56,-1,-1,0
1523633468899,8781824,95,-56,-1,-1,0
1523633468899,3211264,95,-56,-1,-1,0
1523633468899,-2359296,95,-56,-1,-1,0
1523633468899,-4390912,95,-56,-1,-1,0
1523633468899,-3735552,95,-56,-1,-1,0
1523633468939,-2424832,95,-56,-1,-1,0
1523633468939,-1441792,95,-56,-1,-1,0
1523633468939,-917504,95,-56,-1,-1,0
1523633468939,-589824,95,-56,-1,-1,0
1523633468939,-327680,95,-56,-1,-1,0
1523633468979,-196608,95,-56,-1,-1,0
1523633468979,-131072,95,-56,-1,-1,0
1523633468979,-131072,95,-56,-1,-1,0
1523633468979,65536,95,-56,-1,-1,0
1523633468979,393216,95,-56,-1,-1,0
1523633469019,720896,95,-56,-1,-1,0
1523633469019,917504,95,-56,-1,-1,0
1523633469019,1310720,95,-56,-1,-1,0
1523633469019,1703936,95,-56,-1,-1,0
1523633469019,2359296,95,-56,-1,-1,0
1523633469059,3014656,95,-56,-1,-1,0
1523633469059,3670016,95,-56,-1,-1,0
1523633469059,4194304,95,-56,-1,-1,0
1523633469059,4653056,95,-56,-1,-1,0
1523633469059,4915200,95,-56,-1,-1,0
1523633469099,4784128,95,-56,-1,-1,0
1523633469099,4259840,95,-56,-1,-1,0
1523633469099,3538944,95,-56,-1,-1,0
1523633469099,2555904,95,-56,-1,-1,0
1523633469099,1638400,95,-56,-1,-1,0
1523633469140,851968,95,-56,-1,-1,0
1523633469140,262144,95,-56,-1,-1,0
1523633469140,-65536,95,-56,-1,-1,0
1523633469140,-458752,95,-56,-1,-1,0
1523633469140,-851968,95,-56,-1,-1,0
1523633469180,-983040,95,-56,-1,-1,0
1523633469180,-983040,95,-56,-1,-1,0
1523633469180,-983040,95,-56,-1,-1,0
1523633469180,-1048576,95,-56,-1,-1,0
1523633469180,-1048576,95,-56,-1,-1,0
1523633469219,-1048576,95,-56,-1,-1,0
1523633469219,-1048576,95,-56,-1,-1,0
1523633469219,-1048576,95,-56,-1,-1,0
1523633469219,-1048576,95,-56,-1,-1,0
1523633469219,-983040,95,-56,-1,-1,0
1523633469259,-851968,95,-56,-1,-1,0
1523633469259,-786432,95,-56,-1,-1,0
1523633469259,-786432,95,-56,-1,-1,0
1523633469259,-786432,95,-56,-1,-1,0
1523633469259,-655360,95,-56,-1,-1,0
1523633469299,-589824,95,-56,-1,-1,0
1523633469299,-655360,95,-56,-1,-1,0
1523633469299,-655360,95,-56,-1,-1,0
1523633469299,-655360,95,-56,-1,-1,0
1523633469299,-720896,95,-56,-1,-1,0
1523633469339,-786432,95,-56,-1,-1,0
1523633469339,-851968,95,-56,-1,-1,0
1523633469339,-851968,95,-56,-1,-1,0
1523633469339,-851968,95,-56,-1,-1,0
1523633469339,-917504,95,-56,-1,-1,0
1523633469379,-983040,95,-56,-1,-1,0
1523633469379,-1048576,95,-56,-1,-1,0
1523633469379,-1048576,95,-56,-1,-1,0
1523633469379,-1048576,95,-56,-1,-1,0
1523633469379,-1048576,95,-56,-1,-1,0
1523633469419,-1048576,95,-56,-1,-1,0
1523633469419,-983040,95,-56,-1,-1,0
1523633469419,-917504,95,-56,-1,-1,0
1523633469419,-917504,95,-56,-1,-1,0
1523633469419,-983040,95,-56,-1,-1,0
1523633469459,-983040,95,-56,-1,-1,0
1523633469459,-983040,95,-56,-1,-1,0
1523633469459,-1048576,95,-56,-1,-1,0
1523633469459,-1114112,95,-56,-1,-1,0
1523633469459,-1114112,95,-56,-1,-1,0
1523633469500,-1114112,95,-56,-1,-1,0
1523633469500,-1114112,95,-56,-1,-1,0
1523633469500,-1048576,95,-56,-1,-1,0
1523633469500,-1048576,95,-56,-1,-1,0
1523633469500,-1114112,95,-56,-1,-1,0
1523633469539,-1310720,95,-56,-1,-1,0
1523633469539,-655360,95,-56,-1,-1,0
1523633469539,2293760,95,-56,-1,-1,0
1523633469539,6881280,95,-56,-1,-1,0
1523633469539,9043968,95,-56,-1,-1,0
1523633469579,5832704,94,-56,-1,-1,0
1523633469579,-65536,94,-56,-1,-1,0
1523633469579,-3997696,94,-56,-1,-1,0
1523633469579,-4456448,94,-56,-1,-1,0
1523633469579,-3342336,94,-56,-1,-1,0
1523633469619,-2097152,94,-56,-1,-1,0
1523633469619,-1179648,94,-56,-1,-1,0
1523633469619,-720896,94,-56,-1,-1,0
1523633469619,-524288,94,-56,-1,-1,0
1523633469619,-393216,94,-56,-1,-1,0
1523633469659,-327680,94,-56,-1,-1,0
1523633469659,-262144,94,-56,-1,-1,0
1523633469659,-65536,94,-56,-1,-1,0
1523633469659,65536,94,-56,-1,-1,0
1523633469659,262144,94,-56,-1,-1,0
1523633469699,524288,94,-56,-1,-1,0
1523633469699,851968,94,-56,-1,-1,0
1523633469699,1441792,94,-56,-1,-1,0
1523633469699,1966080,94,-56,-1,-1,0
1523633469699,2555904,94,-56,-1,-1,0
1523633469739,3211264,94,-56,-1,-1,0
1523633469739,3866624,94,-56,-1,-1,0
1523633469739,4456448,94,-56,-1,-1,0
1523633469739,4849664,94,-56,-1,-1,0
1523633469739,4980736,94,-56,-1,-1,0
1523633469779,4784128,94,-56,-1,-1,0
1523633469779,4259840,94,-56,-1,-1,0
1523633469779,3538944,94,-56,-1,-1,0
1523633469779,2555904,94,-56,-1,-1,0
1523633469779,1507328,94,-56,-1,-1,0
1523633469819,655360,94,-56,-1,-1,0
1523633469819,131072,94,-56,-1,-1,0
1523633469819,-196608,94,-56,-1,-1,0
1523633469819,-458752,94,-56,-1,-1,0
1523633469819,-655360,94,-56,-1,-1,0
1523633469859,-720896,94,-56,-1,-1,0
1523633469859,-720896,94,-56,-1,-1,0
1523633469859,-786432,94,-56,-1,-1,0
1523633469859,-851968,94,-56,-1,-1,0
1523633469859,-851968,94,-56,-1,-1,0
1523633469899,-851968,94,-56,-1,-1,0
1523633469899,-786432,94,-56,-1,-1,0
1523633469899,-786432,94,-56,-1,-1,0
1523633469899,-720896,94,-56,-1,-1,0
1523633469899,-720896,94,-56,-1,-1,0
1523633469939,-655360,94,-56,-1,-1,0
1523633469939,-589824,94,-56,-1,-1,0
1523633469939,-524288,94,-56,-1,-1,0
1523633469939,-524288,94,-56,-1,-1,0
1523633469939,-458752,94,-56,-1,-1,0
1523633469979,-458752,94,-56,-1,-1,0
1523633469979,-458752,94,-56,-1,-1,0
1523633469979,-524288,94,-56,-1,-1,0
1523633469979,-524288,94,-56,-1,-1,0
1523633469979,-524288,94,-56,-1,-1,0
1523633470019,-524288,94,-56,-1,-1,0
1523633470019,-589824,94,-56,-1,-1,0
1523633470019,-655360,94,-56,-1,-1,0
1523633470019,-655360,94,-56,-1,-1,0
1523633470019,-720896,94,-56,-1,-1,0
1523633470059,-786432,94,-56,-1,-1,0
1523633470059,-786432,94,-56,-1,-1,0
1523633470059,-786432,94,-56,-1,-1,0
1523633470059,-786432,94,-56,-1,-1,0
1523633470059,-786432,94,-56,-1,-1,0
1523633470099,-786432,94,-56,-1,-1,0
1523633470099,-786432,94,-56,-1,-1,0
1523633470099,-786432,94,-56,-1,-1,0
1523633470099,-851968,94,-56,-1,-1,0
1523633470099,-917504,94,-56,-1,-1,0
1523633470140,-917504,94,-56,-1,-1,0
1523633470140,-917504,94,-56,-1,-1,0
1523633470140,-917504,94,-56,-1,-1,0
1523633470140,-851968,94,-56,-1,-1,0
1523633470140,-786432,94,-56,-1,-1,0
1523633470179,-786432,94,-56,-1,-1,0
1523633470179,-851968,94,-56,-1,-1,0
1523633470179,-917504,94,-56,-1,-1,0
1523633470179,-983040,94,-56,-1,-1,0
1523633470179,-983040,94,-56,-1,-1,0
1523633470220,-917504,94,-56,-1,-1,0
1523633470220,-851968,94,-56,-1,-1,0
1523633470220,-851968,94,-56,-1,-1,0
1523633470220,-917504,94,-56,-1,-1,0
1523633470220,-917504,94,-56,-1,-1,0
1523633470259,-851968,94,-56,-1,-1,0
1523633470259,-917504,94,-56,-1,-1,0
1523633470259,-1048576,94,-56,-1,-1,0
1523633470259,-458752,94,-56,-1,-1,0
1523633470259,2031616,94,-56,-1,-1,0
1523633470299,5898240,94,-56,-1,-1,0
1523633470299,7274496,94,-56,-1,-1,0
1523633470299,3997696,94,-56,-1,-1,0
1523633470299,-1048576,94,-56,-1,-1,0
1523633470299,-4194304,94,-56,-1,-1,0
1523633470339,-4587520,93,-56,-1,-1,0
1523633470339,-3538944,93,-56,-1,-1,0
1523633470339,-2293760,93,-56,-1,-1,0
1523633470339,-1441792,93,-56,-1,-1,0
1523633470339,-983040,93,-56,-1,-1,0
1523633470379,-720896,93,-56,-1,-1,0
1523633470379,-589824,93,-56,-1,-1,0
1523633470379,-524288,93,-56,-1,-1,0
1523633470379,-393216,93,-56,-1,-1,0
1523633470379,-262144,93,-56,-1,-1,0
1523633470419,-196608,93,-56,-1,-1,0
1523633470419,0,93,-56,-1,-1,0
1523633470419,196608,93,-56,-1,-1,0
1523633470419,524288,93,-56,-1,-1,0
1523633470419,917504,93,-56,-1,-1,0
1523633470459,1310720,93,-56,-1,-1,0
1523633470459,1900544,93,-56,-1,-1,0
1523633470459,2555904,93,-56,-1,-1,0
1523633470459,3145728,93,-56,-1,-1,0
1523633470459,3604480,93,-56,-1,-1,0
1523633470499,3866624,93,-56,-1,-1,0
1523633470499,3932160,93,-56,-1,-1,0
1523633470499,3866624,93,-56,-1,-1,0
1523633470499,3604480,93,-56,-1,-1,0
1523633470499,3014656,93,-56,-1,-1,0
1523633470539,2228224,93,-56,-1,-1,0
1523633470539,1376256,93,-56,-1,-1,0
1523633470539,655360,93,-56,-1,-1,0
1523633470539,0,93,-56,-1,-1,0
1523633470539,-393216,93,-56,-1,-1,0
1523633470579,-655360,93,-56,-1,-1,0
1523633470579,-851968,93,-56,-1,-1,0
1523633470579,-1048576,93,-56,-1,-1,0
1523633470579,-1179648,93,-56,-1,-1,0
1523633470579,-1245184,93,-56,-1,-1,0
1523633470619,-1245184,93,-56,-1,-1,0
1523633470619,-1179648,93,-56,-1,-1,0
1523633470619,-1179648,93,-56,-1,-1,0
1523633470619,-1179648,93,-56,-1,-1,0
1523633470619,-1114112,93,-56,-1,-1,0
1523633470659,-1048576,93,-56,-1,-1,0
1523633470659,-983040,93,-56,-1,-1,0
1523633470659,-917504,93,-56,-1,-1,0
1523633470659,-720896,93,-56,-1,-1,0
1523633470659,-655360,93,-56,-1,-1,0
1523633470699,-655360,93,-56,-1,-1,0
1523633470699,-655360,93,-56,-1,-1,0
1523633470699,-655360,93,-56,-1,-1,0
1523633470699,-655360,93,-56,-1,-1,0
1523633470699,-655360,93,-56,-1,-1,0
1523633470739,-720896,93,-56,-1,-1,0
1523633470739,-720896,93,-56,-1,-1,0
1523633470739,-720896,93,-56,-1,-1,0
1523633470739,-786432,93,-56,-1,-1,0
1523633470739,-851968,93,-56,-1,-1,0
1523633470780,-786432,93,-56,-1,-1,0
1523633470780,-786432,93,-56,-1,-1,0
1523633470780,-851968,93,-56,-1,-1,0
1523633470780,-786432,93,-56,-1,-1,0
1523633470780,-720896,93,-56,-1,-1,0
1523633470819,-720896,93,-56,-1,-1,0
1523633470819,-720896,93,-56,-1,-1,0
1523633470819,-720896,93,-56,-1,-1,0
1523633470819,-786432,93,-56,-1,-1,0
1523633470819,-786432,93,-56,-1,-1,0
1523633470859,-851968,93,-56,-1,-1,0
1523633470859,-851968,93,-56,-1,-1,0
1523633470859,-786432,93,-56,-1,-1,0
1523633470859,-851968,93,-56,-1,-1,0
1523633470859,-917504,93,-56,-1,-1,0
1523633470899,-917504,93,-56,-1,-1,0
1523633470899,-851968,93,-56,-1,-1,0
1523633470899,-720896,93,-56,-1,-1,0
1523633470899,-589824,93,-56,-1,-1,0
1523633470899,-524288,93,-56,-1,-1,0
1523633470939,-524288,93,-56,-1,-1,0
1523633470939,-589824,93,-56,-1,-1,0
1523633470939,-786432,93,-56,-1,-1,0
1523633470939,-851968,93,-56,-1,-1,0
1523633470939,-851968,93,-56,-1,-1,0
1523633470979,-786432,93,-56,-1,-1,0
1523633470979,-720896,93,-56,-1,-1,0
1523633470979,-720896,93,-56,-1,-1,0
1523633470979,-655360,93,-56,-1,-1,0
1523633470979,-655360,93,-56,-1,-1,0
1523633471019,-655360,93,-56,-1,-1,0
1523633471019,-720896,93,-56,-1,-1,0
1523633471019,-786432,93,-56,-1,-1,0
1523633471019,-196608,93,-56,-1,-1,0
1523633471019,2293760,93,-56,-1,-1,0
1523633471059,6291456,90,-56,-1,-1,0
1523633471059,8126464,90,-56,-1,-1,0
1523633471059,5046272,90,-56,-1,-1,0
1523633471059,-196608,90,-56,-1,-1,0
1523633471059,-3735552,90,-56,-1,-1,0
1523633471099,-4194304,90,-56,-1,-1,0
1523633471099,-3211264,90,-56,-1,-1,0
1523633471099,-1966080,90,-56,-1,-1,0
1523633471099,-983040,90,-56,-1,-1,0
1523633471099,-393216,90,-56,-1,-1,0
1523633471139,-131072,90,-56,-1,-1,0
1523633471139,0,90,-56,-1,-1,0
1523633471139,0,90,-56,-1,-1,0
1523633471139,131072,90,-56,-1,-1,0
1523633471139,327680,90,-56,-1,-1,0
1523633471179,524288,90,-56,-1,-1,0
1523633471179,720896,90,-56,-1,-1,0
1523633471179,917504,90,-56,-1,-1,0
1523633471179,1179648,90,-56,-1,-1,0
1523633471179,1572864,90,-56,-1,-1,0
1523633471219,2031616,90,-56,-1,-1,0
1523633471219,2555904,90,-56,-1,-1,0
1523633471219,3080192,90,-56,-1,-1,0
1523633471219,3735552,90,-56,-1,-1,0
1523633471219,4325376,90,-56,-1,-1,0
1523633471259,4718592,90,-56,-1,-1,0
1523633471259,4915200,90,-56,-1,-1,0
1523633471259,4784128,90,-56,-1,-1,0
1523633471259,4259840,90,-56,-1,-1,0
1523633471259,3538944,90,-56,-1,-1,0
1523633471300,2752512,90,-56,-1,-1,0
1523633471300,1835008,90,-56,-1,-1,0
1523633471300,917504,90,-56,-1,-1,0
1523633471300,393216,90,-56,-1,-1,0
1523633471300,0,90,-56,-1,-1,0
1523633471339,-327680,90,-56,-1,-1,0
1523633471339,-589824,90,-56,-1,-1,0
1523633471339,-720896,90,-56,-1,-1,0
1523633471339,-786432,90,-56,-1,-1,0
1523633471339,-851968,90,-56,-1,-1,0
1523633471379,-917504,90,-56,-1,-1,0
1523633471379,-917504,90,-56,-1,-1,0
1523633471379,-917504,90,-56,-1,-1,0
1523633471379,-917504,90,-56,-1,-1,0
1523633471379,-851968,90,-56,-1,-1,0
1523633471420,-786432,90,-56,-1,-1,0
1523633471420,-720896,90,-56,-1,-1,0
1523633471420,-589824,90,-56,-1,-1,0
1523633471420,-524288,90,-56,-1,-1,0
1523633471420,-524288,90,-56,-1,-1,0
1523633471459,-458752,90,-56,-1,-1,0
1523633471459,-458752,90,-56,-1,-1,0
1523633471459,-524288,90,-56,-1,-1,0
1523633471459,-524288,90,-56,-1,-1,0
1523633471459,-458752,90,-56,-1,-1,0
1523633471499,-524288,90,-56,-1,-1,0
1523633471499,-589824,90,-56,-1,-1,0
1523633471499,-655360,90,-56,-1,-1,0
1523633471499,-720896,90,-56,-1,-1,0
1523633471499,-786432,90,-56,-1,-1,0
1523633471539,-786432,90,-56,-1,-1,0
1523633471539,-786432,90,-56,-1,-1,0
1523633471539,-851968,90,-56,-1,-1,0
1523633471539,-851968,90,-56,-1,-1,0
1523633471539,-851968,90,-56,-1,-1,0
1523633471579,-851968,90,-56,-1,-1,0
1523633471579,-851968,90,-56,-1,-1,0
1523633471579,-917504,90,-56,-1,-1,0
1523633471579,-983040,90,-56,-1,-1,0
1523633471579,-1048576,90,-56,-1,-1,0
1523633471619,-1048576,90,-56,-1,-1,0
1523633471619,-983040,90,-56,-1,-1,0
1523633471619,-983040,90,-56,-1,-1,0
1523633471619,-983040,90,-56,-1,-1,0
1523633471619,-917504,90,-56,-1,-1,0
1523633471659,-720896,90,-56,-1,-1,0
1523633471659,-720896,90,-56,-1,-1,0
1523633471659,-786432,90,-56,-1,-1,0
1523633471659,-851968,90,-56,-1,-1,0
1523633471659,-917504,90,-56,-1,-1,0
1523633471699,-983040,90,-56,-1,-1,0
1523633471699,-917504,90,-56,-1,-1,0
1523633471699,-917504,90,-56,-1,-1,0
1523633471699,-917504,90,-56,-1,-1,0
1523633471699,-983040,90,-56,-1,-1,0
1523633471739,-917504,90,-56,-1,-1,0
1523633471739,-851968,90,-56,-1,-1,0
1523633471739,-917504,90,-56,-1,-1,0
1523633471739,-1114112,90,-56,-1,-1,0
1523633471739,-1048576,90,-56,-1,-1,0
1523633471779,458752,89,-56,-1,-1,0
1523633471779,4653056,89,-56,-1,-1,0
1523633471779,8847360,89,-56,-1,-1,0
1523633471779,8323072,89,-56,-1,-1,0
1523633471779,2752512,89,-56,-1,-1,0
1523633471819,-2621440,89,-56,-1,-1,0
1523633471819,-4521984,89,-56,-1,-1,0
1523633471819,-3932160,89,-56,-1,-1,0
1523633471819,-2490368,89,-56,-1,-1,0
1523633471819,-1310720,89,-56,-1,-1,0
1523633471859,-655360,89,-56,-1,-1,0
1523633471859,-393216,89,-56,-1,-1,0
1523633471859,-196608,89,-56,-1,-1,0
1523633471859,-131072,89,-56,-1,-1,0
1523633471859,0,89,-56,-1,-1,0
1523633471899,65536,89,-56,-1,-1,0
1523633471899,262144,89,-56,-1,-1,0
1523633471899,393216,89,-56,-1,-1,0
1523633471899,589824,89,-56,-1,-1,0
1523633471899,917504,89,-56,-1,-1,0
1523633471939,1245184,89,-56,-1,-1,0
1523633471939,1703936,89,-56,-1,-1,0
1523633471939,2228224,89,-56,-1,-1,0
1523633471939,2752512,89,-56,-1,-1,0
1523633471939,3407872,89,-56,-1,-1,0
1523633471979,3997696,89,-56,-1,-1,0
1523633471979,4456448,89,-56,-1,-1,0
1523633471979,4587520,89,-56,-1,-1,0
1523633471979,4521984,89,-56,-1,-1,0
1523633471979,4128768,89,-56,-1,-1,0
1523633472019,3538944,89,-56,-1,-1,0
1523633472019,2752512,89,-56,-1,-1,0
1523633472019,1835008,89,-56,-1,-1,0
1523633472019,983040,89,-56,-1,-1,0
1523633472019,327680,89,-56,-1,-1,0
1523633472060,-131072,89,-56,-1,-1,0
1523633472060,-524288,89,-56,-1,-1,0
1523633472060,-786432,89,-56,-1,-1,0
1523633472060,-917504,89,-56,-1,-1,0
1523633472060,-1048576,89,-56,-1,-1,0
1523633472099,-1114112,89,-56,-1,-1,0
1523633472099,-1114112,89,-56,-1,-1,0
1523633472099,-1114112,89,-56,-1,-1,0
1523633472099,-1114112,89,-56,-1,-1,0
1523633472099,-983040,89,-56,-1,-1,0
1523633472139,-917504,89,-56,-1,-1,0
1523633472139,-851968,89,-56,-1,-1,0
1523633472139,-720896,89,-56,-1,-1,0
1523633472139,-655360,89,-56,-1,-1,0
1523633472139,-655360,89,-56,-1,-1,0
1523633472179,-655360,89,-56,-1,-1,0
1523633472179,-589824,89,-56,-1,-1,0
1523633472179,-524288,89,-56,-1,-1,0
1523633472179,-589824,89,-56,-1,-1,0
1523633472179,-589824,89,-56,-1,-1,0
1523633472219,-655360,89,-56,-1,-1,0
1523633472219,-655360,89,-56,-1,-1,0
1523633472219,-655360,89,-56,-1,-1,0
1523633472219,-655360,89,-56,-1,-1,0
1523633472219,-655360,89,-56,-1,-1,0
1523633472259,-720896,89,-56,-1,-1,0
1523633472259,-786432,89,-56,-1,-1,0
1523633472259,-786432,89,-56,-1,-1,0
1523633472259,-786432,89,-56,-1,-1,0
1523633472259,-786432,89,-56,-1,-1,0
1523633472299,-786432,89,-56,-1,-1,0
1523633472299,-786432,89,-56,-1,-1,0
1523633472299,-786432,89,-56,-1,-1,0
1523633472299,-851968,89,-56,-1,-1,0
1523633472299,-917504,89,-56,-1,-1,0
1523633472339,-917504,89,-56,-1,-1,0
1523633472339,-851968,89,-56,-1,-1,0
1523633472339,-917504,89,-56,-1,-1,0
1523633472339,-917504,89,-56,-1,-1,0
1523633472339,-786432,89,-56,-1,-1,0
1523633472379,-655360,89,-56,-1,-1,0
1523633472379,-589824,89,-56,-1,-1,0
1523633472379,-720896,89,-56,-1,-1,0
1523633472379,-786432,89,-56,-1,-1,0
1523633472379,-851968,89,-56,-1,-1,0
1523633472419,-983040,89,-56,-1,-1,0
1523633472419,-1048576,89,-56,-1,-1,0
1523633472419,-983040,89,-56,-1,-1,0
1523633472419,-917504,89,-56,-1,-1,0
1523633472419,-851968,89,-56,-1,-1,0
1523633472459,-851968,89,-56,-1,-1,0
1523633472459,-917504,89,-56,-1,-1,0
1523633472459,-983040,89,-56,-1,-1,0
1523633472459,-1048576,89,-56,-1,-1,0
1523633472459,-393216,89,-56,-1,-1,0
1523633472499,2359296,89,-56,-1,-1,0
1523633472499,6684672,89,-56,-1,-1,0
1523633472499,8388608,89,-56,-1,-1,0
1523633472499,4849664,89,-56,-1,-1,0
1523633472499,-917504,89,-56,-1,-1,0
1523633472539,-4456448,87,-56,-1,-1,0
1523633472539,-4587520,87,-56,-1,-1,0
1523633472539,-3342336,87,-56,-1,-1,0
1523633472539,-1966080,87,-56,-1,-1,0
1523633472539,-1048576,87,-56,-1,-1,0
1523633472579,-655360,87,-56,-1,-1,0
1523633472579,-458752,87,-56,-1,-1,0
1523633472579,-327680,87,-56,-1,-1,0
1523633472579,-262144,87,-56,-1,-1,0
1523633472579,-131072,87,-56,-1,-1,0
1523633472619,0,87,-56,-1,-1,0
1523633472619,65536,87,-56,-1,-1,0
1523633472619,262144,87,-56,-1,-1,0
1523633472619,589824,87,-56,-1,-1,0
1523633472619,917504,87,-56,-1,-1,0
1523633472659,1376256,87,-56,-1,-1,0
1523633472659,1835008,87,-56,-1,-1,0
1523633472659,2424832,87,-56,-1,-1,0
1523633472659,3014656,87,-56,-1,-1,0
1523633472659,3670016,87,-56,-1,-1,0
1523633472700,4194304,87,-56,-1,-1,0
1523633472700,4521984,87,-56,-1,-1,0
1523633472700,4587520,87,-56,-1,-1,0
1523633472700,4390912,87,-56,-1,-1,0
1523633472700,3997696,87,-56,-1,-1,0
1523633472739,3276800,87,-56,-1,-1,0
1523633472739,2424832,87,-56,-1,-1,0
1523633472739,1441792,87,-56,-1,-1,0
1523633472739,524288,87,-56,-1,-1,0
1523633472739,-131072,87,-56,-1,-1,0
1523633472779,-589824,87,-56,-1,-1,0
1523633472779,-983040,87,-56,-1,-1,0
1523633472779,-1245184,87,-56,-1,-1,0
1523633472779,-1441792,87,-56,-1,-1,0
1523633472779,-1572864,87,-56,-1,-1,0
1523633472819,-1703936,87,-56,-1,-1,0
1523633472819,-1769472,87,-56,-1,-1,0
1523633472819,-1769472,87,-56,-1,-1,0
1523633472819,-1703936,87,-56,-1,-1,0
1523633472819,-1703936,87,-56,-1,-1,0
1523633472859,-1703936,87,-56,-1,-1,0
1523633472859,-1638400,87,-56,-1,-1,0
1523633472859,-1507328,87,-56,-1,-1,0
1523633472859,-1441792,87,-56,-1,-1,0
1523633472859,-1376256,87,-56,-1,-1,0
1523633472899,-1376256,87,-56,-1,-1,0
1523633472899,-1376256,87,-56,-1,-1,0
1523633472899,-1376256,87,-56,-1,-1,0
1523633472899,-1310720,87,-56,-1,-1,0
1523633472899,-1376256,87,-56,-1,-1,0
1523633472939,-1376256,87,-56,-1,-1,0
1523633472939,-1441792,87,-56,-1,-1,0
1523633472939,-1507328,87,-56,-1,-1,0
1523633472939,-1638400,87,-56,-1,-1,0
1523633472939,-1638400,87,-56,-1,-1,0
1523633472979,-1572864,87,-56,-1,-1,0
1523633472979,-1572864,87,-56,-1,-1,0
1523633472979,-1507328,87,-56,-1,-1,0
1523633472979,-1507328,87,-56,-1,-1,0
1523633472979,-1572864,87,-56,-1,-1,0
1523633473019,-1638400,87,-56,-1,-1,0
1523633473019,-1638400,87,-56,-1,-1,0
1523633473019,-1638400,87,-56,-1,-1,0
1523633473019,-1638400,87,-56,-1,-1,0
1523633473019,-1703936,87,-56,-1,-1,0
1523633473059,-1703936,87,-56,-1,-1,0
1523633473059,-1703936,87,-56,-1,-1,0
1523633473059,-1769472,87,-56,-1,-1,0
1523633473059,-1769472,87,-56,-1,-1,0
1523633473059,-1769472,87,-56,-1,-1,0
1523633473099,-1769472,87,-56,-1,-1,0
1523633473099,-1638400,87,-56,-1,-1,0
1523633473099,-1441792,87,-56,-1,-1,0
1523633473099,-1376256,87,-56,-1,-1,0
1523633473099,-1310720,87,-56,-1,-1,0
1523633473140,-1376256,87,-56,-1,-1,0
1523633473140,-1441792,87,-56,-1,-1,0
1523633473140,-1507328,87,-56,-1,-1,0
1523633473140,-1507328,87,-56,-1,-1,0
1523633473140,-1507328,87,-56,-1,-1,0
1523633473179,-1507328,87,-56,-1,-1,0
1523633473179,-1441792,87,-56,-1,-1,0
1523633473179,-1376256,87,-56,-1,-1,0
1523633473179,-1310720,87,-56,-1,-1,0
1523633473179,-1310720,87,-56,-1,-1,0
1523633473219,-1507328,87,-56,-1,-1,0
1523633473219,-1114112,87,-56,-1,-1,0
1523633473219,1179648,87,-56,-1,-1,0
1523633473219,5505024,87,-56,-1,-1,0
1523633473219,8388608,87,-56,-1,-1,0
1523633473259,6029312,85,-56,-1,-1,0
1523633473259,262144,85,-56,-1,-1,0
1523633473259,-4063232,85,-56,-1,-1,0
1523633473259,-4849664,85,-56,-1,-1,0
1523633473259,-3801088,85,-56,-1,-1,0
1523633473299,-2424832,85,-56,-1,-1,0
1523633473299,-1441792,85,-56,-1,-1,0
1523633473299,-983040,85,-56,-1,-1,0
1523633473299,-786432,85,-56,-1,-1,0
1523633473299,-589824,85,-56,-1,-1,0
1523633473340,-458752,85,-56,-1,-1,0
1523633473340,-327680,85,-56,-1,-1,0
1523633473340,-196608,85,-56,-1,-1,0
1523633473340,-65536,85,-56,-1,-1,0
1523633473340,65536,85,-56,-1,-1,0
1523633473379,327680,85,-56,-1,-1,0
1523633473379,655360,85,-56,-1,-1,0
1523633473379,1114112,85,-56,-1,-1,0
1523633473379,1572864,85,-56,-1,-1,0
1523633473379,2097152,85,-56,-1,-1,0
1523633473419,2752512,85,-56,-1,-1,0
1523633473419,3407872,85,-56,-1,-1,0
1523633473419,3997696,85,-56,-1,-1,0
1523633473419,4390912,85,-56,-1,-1,0
1523633473419,4587520,85,-56,-1,-1,0
1523633473459,4521984,85,-56,-1,-1,0
1523633473459,4194304,85,-56,-1,-1,0
1523633473459,3670016,85,-56,-1,-1,0
1523633473459,2818048,85,-56,-1,-1,0
1523633473459,1835008,85,-56,-1,-1,0
1523633473499,983040,85,-56,-1,-1,0
1523633473499,262144,85,-56,-1,-1,0
1523633473499,-196608,85,-56,-1,-1,0
1523633473499,-655360,85,-56,-1,-1,0
1523633473499,-917504,85,-56,-1,-1,0
1523633473539,-1114112,85,-56,-1,-1,0
1523633473539,-1179648,85,-56,-1,-1,0
1523633473539,-1179648,85,-56,-1,-1,0
1523633473539,-1245184,85,-56,-1,-1,0
1523633473539,-1310720,85,-56,-1,-1,0
1523633473579,-1245184,85,-56,-1,-1,0
1523633473579,-1179648,85,-56,-1,-1,0
1523633473579,-1114112,85,-56,-1,-1,0
1523633473579,-1114112,85,-56,-1,-1,0
1523633473579,-983040,85,-56,-1,-1,0
1523633473619,-917504,85,-56,-1,-1,0
1523633473619,-851968,85,-56,-1,-1,0
1523633473619,-851968,85,-56,-1,-1,0
1523633473619,-786432,85,-56,-1,-1,0
1523633473619,-720896,85,-56,-1,-1,0
1523633473659,-720896,85,-56,-1,-1,0
1523633473659,-720896,85,-56,-1,-1,0
1523633473659,-655360,85,-56,-1,-1,0
1523633473659,-720896,85,-56,-1,-1,0
1523633473659,-786432,85,-56,-1,-1,0
1523633473699,-851968,85,-56,-1,-1,0
1523633473699,-851968,85,-56,-1,-1,0
1523633473699,-851968,85,-56,-1,-1,0
1523633473699,-851968,85,-56,-1,-1,0
1523633473699,-851968,85,-56,-1,-1,0
1523633473739,-786432,85,-56,-1,-1,0
1523633473739,-851968,85,-56,-1,-1,0
1523633473739,-917504,85,-56,-1,-1,0
1523633473739,-917504,85,-56,-1,-1,0
1523633473739,-851968,85,-56,-1,-1,0
1523633473779,-720896,85,-56,-1,-1,0
1523633473779,-720896,85,-56,-1,-1,0
1523633473779,-851968,85,-56,-1,-1,0
1523633473779,-983040,85,-56,-1,-1,0
1523633473779,-983040,85,-56,-1,-1,0
1523633473819,-1048576,85,-56,-1,-1,0
1523633473819,-1048576,85,-56,-1,-1,0
1523633473819,-983040,85,-56,-1,-1,0
1523633473819,-851968,85,-56,-1,-1,0
1523633473819,-851968,85,-56,-1,-1,0
1523633473859,-851968,85,-56,-1,-1,0
1523633473859,-851968,85,-56,-1,-1,0
1523633473859,-851968,85,-56,-1,-1,0
1523633473859,-917504,85,-56,-1,-1,0
1523633473859,-983040,85,-56,-1,-1,0
1523633473899,-983040,85,-56,-1,-1,0
1523633473899,-983040,85,-56,-1,-1,0
1523633473899,-917504,85,-56,-1,-1,0
1523633473899,-786432,85,-56,-1,-1,0
1523633473899,-720896,85,-56,-1,-1,0
1523633473939,-786432,85,-56,-1,-1,0
1523633473939,-786432,85,-56,-1,-1,0
1523633473939,-720896,85,-56,-1,-1,0
1523633473939,-589824,85,-56,-1,-1,0
1523633473939,458752,85,-56,-1,-1,0
1523633473980,3604480,84,-56,-1,-1,0
1523633473980,7208960,84,-56,-1,-1,0
1523633473980,7208960,84,-56,-1,-1,0
1523633473980,2555904,84,-56,-1,-1,0
1523633473980,-2424832,84,-56,-1,-1,0
1523633474019,-4653056,84,-56,-1,-1,0
1523633474019,-4325376,84,-56,-1,-1,0
1523633474019,-2949120,84,-56,-1,-1,0
1523633474019,-1572864,84,-56,-1,-1,0
1523633474019,-720896,84,-56,-1,-1,0
1523633474059,-327680,84,-56,-1,-1,0
1523633474059,-65536,84,-56,-1,-1,0
1523633474059,0,84,-56,-1,-1,0
1523633474059,196608,84,-56,-1,-1,0
1523633474059,327680,84,-56,-1,-1,0
1523633474099,458752,84,-56,-1,-1,0
1523633474099,655360,84,-56,-1,-1,0
1523633474099,917504,84,-56,-1,-1,0
1523633474099,1245184,84,-56,-1,-1,0
1523633474099,1572864,84,-56,-1,-1,0
1523633474139,2031616,84,-56,-1,-1,0
1523633474139,2555904,84,-56,-1,-1,0
1523633474139,3145728,84,-56,-1,-1,0
1523633474139,3801088,84,-56,-1,-1,0
1523633474139,4390912,84,-56,-1,-1,0
1523633474179,4849664,84,-56,-1,-1,0
1523633474179,5111808,84,-56,-1,-1,0
1523633474179,5111808,84,-56,-1,-1,0
1523633474179,4980736,84,-56,-1,-1,0
1523633474179,4521984,84,-56,-1,-1,0
1523633474219,3801088,84,-56,-1,-1,0
1523633474219,2883584,84,-56,-1,-1,0
1523633474219,2031616,84,-56,-1,-1,0
1523633474219,1179648,84,-56,-1,-1,0
1523633474219,524288,84,-56,-1,-1,0
1523633474259,131072,84,-56,-1,-1,0
1523633474259,-196608,84,-56,-1,-1,0
1523633474259,-458752,84,-56,-1,-1,0
1523633474259,-655360,84,-56,-1,-1,0
1523633474259,-720896,84,-56,-1,-1,0
1523633474299,-786432,84,-56,-1,-1,0
1523633474299,-786432,84,-56,-1,-1,0
1523633474299,-786432,84,-56,-1,-1,0
1523633474299,-786432,84,-56,-1,-1,0
1523633474299,-655360,84,-56,-1,-1,0
1523633474339,-655360,84,-56,-1,-1,0
1523633474339,-655360,84,-56,-1,-1,0
1523633474339,-589824,84,-56,-1,-1,0
1523633474339,-524288,84,-56,-1,-1,0
1523633474339,-524288,84,-56,-1,-1,0
1523633474379,-524288,84,-56,-1,-1,0
1523633474379,-524288,84,-56,-1,-1,0
1523633474379,-524288,84,-56,-1,-1,0
1523633474379,-524288,84,-56,-1,-1,0
1523633474379,-589824,84,-56,-1,-1,0
1523633474419,-589824,84,-56,-1,-1,0
1523633474419,-589824,84,-56,-1,-1,0
1523633474419,-655360,84,-56,-1,-1,0
1523633474419,-720896,84,-56,-1,-1,0
1523633474419,-786432,84,-56,-1,-1,0
1523633474459,-786432,84,-56,-1,-1,0
1523633474459,-851968,84,-56,-1,-1,0
1523633474459,-851968,84,-56,-1,-1,0
1523633474459,-917504,84,-56,-1,-1,0
1523633474459,-851968,84,-56,-1,-1,0
1523633474499,-851968,84,-56,-1,-1,0
1523633474499,-851968,84,-56,-1,-1,0
1523633474499,-917504,84,-56,-1,-1,0
1523633474499,-983040,84,-56,-1,-1,0
1523633474499,-983040,84,-56,-1,-1,0
1523633474539,-983040,84,-56,-1,-1,0
1523633474539,-917504,84,-56,-1,-1,0
1523633474539,-851968,84,-56,-1,-1,0
1523633474539,-786432,84,-56,-1,-1,0
1523633474539,-720896,84,-56,-1,-1,0
1523633474579,-786432,84,-56,-1,-1,0
1523633474579,-983040,84,-56,-1,-1,0
1523633474579,-1048576,84,-56,-1,-1,0
1523633474579,-1048576,84,-56,-1,-1,0
1523633474579,-1114112,84,-56,-1,-1,0
1523633474620,-1114112,84,-56,-1,-1,0
1523633474620,-1048576,84,-56,-1,-1,0
1523633474620,-1048576,84,-56,-1,-1,0
1523633474620,-983040,84,-56,-1,-1,0
1523633474620,-917504,84,-56,-1,-1,0
1523633474659,-917504,84,-56,-1,-1,0
1523633474659,-1048576,84,-56,-1,-1,0
1523633474659,-1179648,84,-56,-1,-1,0
1523633474659,-131072,84,-56,-1,-1,0
1523633474659,3014656,84,-56,-1,-1,0
1523633474699,7143424,82,-56,-1,-1,0
1523633474699,8060928,82,-56,-1,-1,0
1523633474699,3801088,82,-56,-1,-1,0
1523633474699,-1703936,82,-56,-1,-1,0
1523633474699,-4521984,82,-56,-1,-1,0
1523633474740,-4325376,82,-56,-1,-1,0
1523633474740,-3014656,82,-56,-1,-1,0
1523633474740,-1769472,82,-56,-1,-1,0
1523633474740,-851968,82,-56,-1,-1,0
1523633474740,-458752,82,-56,-1,-1,0
1523633474779,-327680,82,-56,-1,-1,0
1523633474779,-196608,82,-56,-1,-1,0
1523633474779,-65536,82,-56,-1,-1,0
1523633474779,0,82,-56,-1,-1,0
1523633474779,196608,82,-56,-1,-1,0
1523633474819,327680,82,-56,-1,-1,0
1523633474819,524288,82,-56,-1,-1,0
1523633474819,851968,82,-56,-1,-1,0
1523633474819,1179648,82,-56,-1,-1,0
1523633474819,1572864,82,-56,-1,-1,0
1523633474859,2162688,82,-56,-1,-1,0
1523633474859,2818048,82,-56,-1,-1,0
1523633474859,3538944,82,-56,-1,-1,0
1523633474859,4128768,82,-56,-1,-1,0
1523633474859,4653056,82,-56,-1,-1,0
1523633474899,4980736,82,-56,-1,-1,0
1523633474899,5046272,82,-56,-1,-1,0
1523633474899,4849664,82,-56,-1,-1,0
1523633474899,4390912,82,-56,-1,-1,0
1523633474899,3670016,82,-56,-1,-1,0
1523633474939,2686976,82,-56,-1,-1,0
1523633474939,1769472,82,-56,-1,-1,0
1523633474939,917504,82,-56,-1,-1,0
1523633474939,327680,82,-56,-1,-1,0
1523633474939,-131072,82,-56,-1,-1,0
1523633474979,-458752,82,-56,-1,-1,0
1523633474979,-655360,82,-56,-1,-1,0
1523633474979,-786432,82,-56,-1,-1,0
1523633474979,-917504,82,-56,-1,-1,0
1523633474979,-983040,82,-56,-1,-1,0
1523633475019,-983040,82,-56,-1,-1,0
1523633475019,-983040,82,-56,-1,-1,0
1523633475019,-983040,82,-56,-1,-1,0
1523633475019,-983040,82,-56,-1,-1,0
1523633475019,-917504,82,-56,-1,-1,0
1523633475059,-917504,82,-56,-1,-1,0
1523633475059,-851968,82,-56,-1,-1,0
1523633475059,-720896,82,-56,-1,-1,0
1523633475059,-589824,82,-56,-1,-1,0
1523633475059,-524288,82,-56,-1,-1,0
1523633475099,-524288,82,-56,-1,-1,0
1523633475099,-524288,82,-56,-1,-1,0
1523633475099,-524288,82,-56,-1,-1,0
1523633475099,-458752,82,-56,-1,-1,0
1523633475099,-524288,82,-56,-1,-1,0
1523633475139,-589824,82,-56,-1,-1,0
1523633475139,-589824,82,-56,-1,-1,0
1523633475139,-589824,82,-56,-1,-1,0
1523633475139,-655360,82,-56,-1,-1,0
1523633475139,-720896,82,-56,-1,-1,0
1523633475179,-720896,82,-56,-1,-1,0
1523633475179,-720896,82,-56,-1,-1,0
1523633475179,-720896,82,-56,-1,-1,0
1523633475179,-720896,82,-56,-1,-1,0
1523633475179,-720896,82,-56,-1,-1,0
1523633475219,-720896,82,-56,-1,-1,0
1523633475219,-786432,82,-56,-1,-1,0
1523633475219,-786432,82,-56,-1,-1,0
1523633475219,-786432,82,-56,-1,-1,0
1523633475219,-851968,82,-56,-1,-1,0
1523633475260,-786432,82,-56,-1,-1,0
1523633475260,-720896,82,-56,-1,-1,0
1523633475260,-655360,82,-56,-1,-1,0
1523633475260,-589824,82,-56,-1,-1,0
1523633475260,-524288,82,-56,-1,-1,0
1523633475299,-524288,82,-56,-1,-1,0
1523633475299,-589824,82,-56,-1,-1,0
1523633475299,-655360,82,-56,-1,-1,0
1523633475299,-720896,82,-56,-1,-1,0
1523633475299,-851968,82,-56,-1,-1,0
1523633475339,-851968,82,-56,-1,-1,0
1523633475339,-786432,82,-56,-1,-1,0
1523633475339,-720896,82,-56,-1,-1,0
1523633475339,-720896,82,-56,-1,-1,0
1523633475339,-720896,82,-56,-1,-1,0
1523633475379,-786432,82,-56,-1,-1,0
1523633475379,-917504,82,-56,-1,-1,0
1523633475379,-327680,82,-56,-1,-1,0
1523633475379,2293760,82,-56,-1,-1,0
1523633475379,6553600,82,-56,-1,-1,0
1523633475419,8454144,82,-56,-1,-1,0
1523633475419,5046272,82,-56,-1,-1,0
1523633475419,-655360,82,-56,-1,-1,0
1523633475419,-4194304,82,-56,-1,-1,0
1523633475419,-4390912,82,-56,-1,-1,0
1523633475459,-3211264,82,-56,-1,-1,0
1523633475459,-1900544,82,-56,-1,-1,0
1523633475459,-917504,82,-56,-1,-1,0
1523633475459,-524288,82,-56,-1,-1,0
1523633475459,-327680,82,-56,-1,-1,0
1523633475499,-196608,82,-56,-1,-1,0
1523633475499,-65536,82,-56,-1,-1,0
1523633475499,0,82,-56,-1,-1,0
1523633475499,131072,82,-56,-1,-1,0
1523633475499,262144,82,-56,-1,-1,0
1523633475539,458752,82,-56,-1,-1,0
1523633475539,720896,82,-56,-1,-1,0
1523633475539,983040,82,-56,-1,-1,0
1523633475539,1376256,82,-56,-1,-1,0
1523633475539,1835008,82,-56,-1,-1,0
1523633475579,2424832,82,-56,-1,-1,0
1523633475579,3080192,82,-56,-1,-1,0
1523633475579,3670016,82,-56,-1,-1,0
1523633475579,4259840,82,-56,-1,-1,0
1523633475579,4653056,82,-56,-1,-1,0
1523633475619,4849664,82,-56,-1,-1,0
1523633475619,4718592,82,-56,-1,-1,0
1523633475619,4325376,82,-56,-1,-1,0
1523633475619,3670016,82,-56,-1,-1,0
1523633475619,2818048,82,-56,-1,-1,0
1523633475659,1835008,82,-56,-1,-1,0
1523633475659,983040,82,-56,-1,-1,0
1523633475659,262144,82,-56,-1,-1,0
1523633475659,-196608,82,-56,-1,-1,0
1523633475659,-524288,82,-56,-1,-1,0
1523633475699,-720896,82,-56,-1,-1,0
1523633475699,-786432,82,-56,-1,-1,0
1523633475699,-917504,82,-56,-1,-1,0
1523633475699,-1048576,82,-56,-1,-1,0
1523633475699,-1179648,82,-56,-1,-1,0
1523633475739,-1179648,82,-56,-1,-1,0
1523633475739,-1114112,82,-56,-1,-1,0
1523633475739,-1114112,82,-56,-1,-1,0
1523633475739,-983040,82,-56,-1,-1,0
1523633475739,-917504,82,-56,-1,-1,0
1523633475779,-851968,82,-56,-1,-1,0
1523633475779,-786432,82,-56,-1,-1,0
1523633475779,-655360,82,-56,-1,-1,0
1523633475779,-589824,82,-56,-1,-1,0
1523633475779,-524288,82,-56,-1,-1,0
1523633475819,-458752,82,-56,-1,-1,0
1523633475819,-524288,82,-56,-1,-1,0
1523633475819,-524288,82,-56,-1,-1,0
1523633475819,-524288,82,-56,-1,-1,0
1523633475819,-524288,82,-56,-1,-1,0
1523633475859,-589824,82,-56,-1,-1,0
1523633475859,-589824,82,-56,-1,-1,0
1523633475859,-655360,82,-56,-1,-1,0
1523633475859,-720896,82,-56,-1,-1,0
1523633475859,-655360,82,-56,-1,-1,0
1523633475900,-655360,82,-56,-1,-1,0
1523633475900,-720896,82,-56,-1,-1,0
1523633475900,-720896,82,-56,-1,-1,0
1523633475900,-786432,82,-56,-1,-1,0
1523633475900,-786432,82,-56,-1,-1,0
1523633475940,-917504,82,-56,-1,-1,0
1523633475940,-983040,82,-56,-1,-1,0
1523633475940,-1048576,82,-56,-1,-1,0
1523633475940,-983040,82,-56,-1,-1,0
1523633475940,-917504,82,-56,-1,-1,0
1523633475979,-851968,82,-56,-1,-1,0
1523633475979,-720896,82,-56,-1,-1,0
1523633475979,-655360,82,-56,-1,-1,0
1523633475979,-655360,82,-56,-1,-1,0
1523633475979,-720896,82,-56,-1,-1,0
1523633476019,-851968,82,-56,-1,-1,0
1523633476019,-851968,82,-56,-1,-1,0
1523633476019,-851968,82,-56,-1,-1,0
1523633476019,-851968,82,-56,-1,-1,0
1523633476019,-851968,82,-56,-1,-1,0
1523633476059,-917504,82,-56,-1,-1,0
1523633476059,-917504,82,-56,-1,-1,0
1523633476059,-917504,82,-56,-1,-1,0
1523633476059,-917504,82,-56,-1,-1,0
1523633476059,-917504,82,-56,-1,-1,0
1523633476099,-917504,82,-56,-1,-1,0
1523633476099,-983040,82,-56,-1,-1,0
1523633476099,65536,82,-56,-1,-1,0
1523633476099,3473408,82,-56,-1,-1,0
1523633476099,7536640,82,-56,-1,-1,0
1523633476139,8126464,83,-56,-1,-1,0
1523633476139,3604480,83,-56,-1,-1,0
1523633476139,-1835008,83,-56,-1,-1,0
1523633476139,-4521984,83,-56,-1,-1,0
1523633476139,-4259840,83,-56,-1,-1,0
1523633476179,-2883584,83,-56,-1,-1,0
1523633476179,-1638400,83,-56,-1,-1,0
1523633476179,-917504,83,-56,-1,-1,0
1523633476179,-524288,83,-56,-1,-1,0
1523633476179,-327680,83,-56,-1,-1,0
1523633476219,-196608,83,-56,-1,-1,0
1523633476219,-65536,83,-56,-1,-1,0
1523633476219,-65536,83,-56,-1,-1,0
1523633476219,0,83,-56,-1,-1,0
1523633476219,131072,83,-56,-1,-1,0
1523633476259,327680,83,-56,-1,-1,0
1523633476259,655360,83,-56,-1,-1,0
1523633476259,1048576,83,-56,-1,-1,0
1523633476259,1507328,83,-56,-1,-1,0
1523633476259,2031616,83,-56,-1,-1,0
1523633476299,2686976,83,-56,-1,-1,0
1523633476299,3342336,83,-56,-1,-1,0
1523633476299,3997696,83,-56,-1,-1,0
1523633476299,4521984,83,-56,-1,-1,0
1523633476299,4849664,83,-56,-1,-1,0
1523633476339,4980736,83,-56,-1,-1,0
1523633476339,4784128,83,-56,-1,-1,0
1523633476339,4390912,83,-56,-1,-1,0
1523633476339,3604480,83,-56,-1,-1,0
1523633476339,2686976,83,-56,-1,-1,0
1523633476379,1703936,83,-56,-1,-1,0
1523633476379,851968,83,-56,-1,-1,0
1523633476379,196608,83,-56,-1,-1,0
1523633476379,-196608,83,-56,-1,-1,0
1523633476379,-589824,83,-56,-1,-1,0
1523633476419,-851968,83,-56,-1,-1,0
1523633476419,-1048576,83,-56,-1,-1,0
1523633476419,-1048576,83,-56,-1,-1,0
1523633476419,-983040,83,-56,-1,-1,0
1523633476419,-1048576,83,-56,-1,-1,0
1523633476459,-1114112,83,-56,-1,-1,0
1523633476459,-1179648,83,-56,-1,-1,0
1523633476459,-1114112,83,-56,-1,-1,0
1523633476459,-1048576,83,-56,-1,-1,0
1523633476459,-1048576,83,-56,-1,-1,0
1523633476499,-983040,83,-56,-1,-1,0
1523633476499,-983040,83,-56,-1,-1,0
1523633476499,-917504,83,-56,-1,-1,0
1523633476499,-917504,83,-56,-1,-1,0
1523633476499,-917504,83,-56,-1,-1,0
1523633476540,-917504,83,-56,-1,-1,0
1523633476540,-917504,83,-56,-1,-1,0
