milliseconds, ECG, ECG HR, PPG, PPG HR, SpO2, PI
1523634013765,-983040,96,-56,-1,-1,0
1523634013765,-917504,96,-56,-1,-1,0
1523634013765,-851968,96,-56,-1,-1,0
1523634013765,-786432,96,-56,-1,-1,0
1523634013765,-655360,96,-56,-1,-1,0
1523634013811,-655360,96,-56,-1,-1,0
1523634013811,-720896,96,-56,-1,-1,0
1523634013811,-851968,96,-56,-1,-1,0
1523634013811,-917504,96,-56,-1,-1,0
1523634013811,-983040,96,-56,-1,-1,0
1523634013845,-983040,96,-56,-1,-1,0
1523634013845,-983040,96,-56,-1,-1,0
1523634013845,-983040,96,-56,-1,-1,0
1523634013845,-983040,96,-56,-1,-1,0
1523634013845,-983040,96,-56,-1,-1,0
1523634013885,-983040,95,-56,-1,-1,0
1523634013885,-983040,95,-56,-1,-1,0
1523634013885,-1048576,95,-56,-1,-1,0
1523634013885,-1048576,95,-56,-1,-1,0
1523634013885,-1048576,95,-56,-1,-1,0
1523634013925,-1114112,95,-56,-1,-1,0
1523634013925,-655360,95,-56,-1,-1,0
1523634013925,1900544,95,-56,-1,-1,0
1523634013925,6750208,95,-56,-1,-1,0
1523634013925,10158080,95,-56,-1,-1,0
1523634013965,7864320,95,-56,-1,-1,0
1523634013965,1179648,95,-56,-1,-1,0
1523634013965,-4259840,95,-56,-1,-1,0
1523634013965,-5832704,95,-56,-1,-1,0
1523634013965,-4915200,95,-56,-1,-1,0
1523634014005,-3211264,95,-56,-1,-1,0
1523634014005,-1966080,95,-56,-1,-1,0
1523634014005,-1310720,95,-56,-1,-1,0
1523634014005,-1048576,95,-56,-1,-1,0
1523634014005,-851968,95,-56,-1,-1,0
1523634014045,-655360,95,-56,-1,-1,0
1523634014045,-589824,95,-56,-1,-1,0
1523634014045,-524288,95,-56,-1,-1,0
1523634014045,-393216,95,-56,-1,-1,0
1523634014045,-262144,95,-56,-1,-1,0
1523634014085,-65536,95,-56,-1,-1,0
1523634014085,0,95,-56,-1,-1,0
1523634014085,262144,95,-56,-1,-1,0
1523634014085,524288,95,-56,-1,-1,0
1523634014085,851968,95,-56,-1,-1,0
1523634014125,1376256,95,-56,-1,-1,0
1523634014125,1966080,95,-56,-1,-1,0
1523634014125,2621440,95,-56,-1,-1,0
1523634014125,3211264,95,-56,-1,-1,0
1523634014125,3670016,95,-56,-1,-1,0
1523634014165,3932160,95,-56,-1,-1,0
1523634014165,3997696,95,-56,-1,-1,0
1523634014165,3801088,95,-56,-1,-1,0
1523634014165,3342336,95,-56,-1,-1,0
1523634014165,2752512,95,-56,-1,-1,0
1523634014206,2162688,95,-56,-1,-1,0
1523634014206,1507328,95,-56,-1,-1,0
1523634014206,917504,95,-56,-1,-1,0
1523634014206,393216,95,-56,-1,-1,0
1523634014206,0,95,-56,-1,-1,0
1523634014245,-262144,95,-56,-1,-1,0
1523634014245,-524288,95,-56,-1,-1,0
1523634014245,-720896,95,-56,-1,-1,0
1523634014245,-851968,95,-56,-1,-1,0
1523634014245,-851968,95,-56,-1,-1,0
1523634014285,-851968,95,-56,-1,-1,0
1523634014285,-851968,95,-56,-1,-1,0
1523634014285,-851968,95,-56,-1,-1,0
1523634014285,-786432,95,-56,-1,-1,0
1523634014285,-720896,95,-56,-1,-1,0
1523634014325,-655360,95,-56,-1,-1,0
1523634014325,-589824,95,-56,-1,-1,0
1523634014325,-524288,95,-56,-1,-1,0
1523634014325,-589824,95,-56,-1,-1,0
1523634014325,-655360,95,-56,-1,-1,0
1523634014365,-720896,95,-56,-1,-1,0
1523634014365,-786432,95,-56,-1,-1,0
1523634014365,-851968,95,-56,-1,-1,0
1523634014365,-917504,95,-56,-1,-1,0
1523634014365,-917504,95,-56,-1,-1,0
1523634014405,-917504,95,-56,-1,-1,0
1523634014405,-983040,95,-56,-1,-1,0
1523634014405,-1114112,95,-56,-1,-1,0
1523634014405,-1048576,95,-56,-1,-1,0
1523634014405,-1048576,95,-56,-1,-1,0
1523634014446,-1048576,95,-56,-1,-1,0
1523634014446,-1114112,95,-56,-1,-1,0
1523634014446,-1048576,95,-56,-1,-1,0
1523634014446,-983040,95,-56,-1,-1,0
1523634014446,-917504,95,-56,-1,-1,0
1523634014485,-851968,95,-56,-1,-1,0
1523634014485,-917504,95,-56,-1,-1,0
1523634014485,-983040,95,-56,-1,-1,0
1523634014485,-1048576,95,-56,-1,-1,0
1523634014485,-1114112,95,-56,-1,-1,0
1523634014525,-1114112,95,-56,-1,-1,0
1523634014525,-1048576,95,-56,-1,-1,0
1523634014525,-917504,95,-56,-1,-1,0
1523634014525,-917504,95,-56,-1,-1,0
1523634014525,-917504,95,-56,-1,-1,0
1523634014565,-983040,94,-56,-1,-1,0
1523634014565,-983040,94,-56,-1,-1,0
1523634014565,-983040,94,-56,-1,-1,0
1523634014565,-917504,94,-56,-1,-1,0
1523634014565,-1048576,94,-56,-1,-1,0
1523634014605,-917504,94,-56,-1,-1,0
1523634014605,917504,94,-56,-1,-1,0
1523634014605,5439488,94,-56,-1,-1,0
1523634014605,9764864,94,-56,-1,-1,0
1523634014605,9043968,94,-56,-1,-1,0
1523634014645,2949120,94,-56,-1,-1,0
1523634014645,-3145728,94,-56,-1,-1,0
1523634014645,-5701632,94,-56,-1,-1,0
1523634014645,-5177344,94,-56,-1,-1,0
1523634014645,-3538944,94,-56,-1,-1,0
1523634014685,-2031616,94,-56,-1,-1,0
1523634014685,-1245184,94,-56,-1,-1,0
1523634014685,-917504,94,-56,-1,-1,0
1523634014685,-720896,94,-56,-1,-1,0
1523634014685,-589824,94,-56,-1,-1,0
1523634014725,-458752,94,-56,-1,-1,0
1523634014725,-458752,94,-56,-1,-1,0
1523634014725,-393216,94,-56,-1,-1,0
1523634014725,-262144,94,-56,-1,-1,0
1523634014725,-65536,94,-56,-1,-1,0
1523634014765,65536,94,-56,-1,-1,0
1523634014765,327680,94,-56,-1,-1,0
1523634014765,655360,94,-56,-1,-1,0
1523634014765,983040,94,-56,-1,-1,0
1523634014765,1376256,94,-56,-1,-1,0
1523634014805,1900544,94,-56,-1,-1,0
1523634014805,2621440,94,-56,-1,-1,0
1523634014805,3145728,94,-56,-1,-1,0
1523634014805,3604480,94,-56,-1,-1,0
1523634014805,4063232,94,-56,-1,-1,0
1523634014845,4128768,94,-56,-1,-1,0
1523634014845,3932160,94,-56,-1,-1,0
1523634014845,3670016,94,-56,-1,-1,0
1523634014845,3211264,94,-56,-1,-1,0
1523634014845,2621440,94,-56,-1,-1,0
1523634014885,2031616,94,-56,-1,-1,0
1523634014885,1310720,94,-56,-1,-1,0
1523634014885,655360,94,-56,-1,-1,0
1523634014885,0,94,-56,-1,-1,0
1523634014885,-262144,94,-56,-1,-1,0
1523634014925,-393216,94,-56,-1,-1,0
1523634014925,-589824,94,-56,-1,-1,0
1523634014925,-851968,94,-56,-1,-1,0
1523634014925,-917504,94,-56,-1,-1,0
1523634014925,-851968,94,-56,-1,-1,0
1523634014965,-851968,94,-56,-1,-1,0
1523634014965,-786432,94,-56,-1,-1,0
1523634014965,-851968,94,-56,-1,-1,0
1523634014965,-851968,94,-56,-1,-1,0
1523634014965,-786432,94,-56,-1,-1,0
1523634015005,-851968,94,-56,-1,-1,0
1523634015005,-851968,94,-56,-1,-1,0
1523634015005,-851968,94,-56,-1,-1,0
1523634015005,-851968,94,-56,-1,-1,0
1523634015005,-917504,94,-56,-1,-1,0
1523634015045,-983040,94,-56,-1,-1,0
1523634015045,-1048576,94,-56,-1,-1,0
1523634015045,-1048576,94,-56,-1,-1,0
1523634015045,-1179648,94,-56,-1,-1,0
1523634015045,-1179648,94,-56,-1,-1,0
1523634015086,-1179648,94,-56,-1,-1,0
1523634015086,-1245184,94,-56,-1,-1,0
1523634015086,-1310720,94,-56,-1,-1,0
1523634015086,-1310720,94,-56,-1,-1,0
1523634015086,-1310720,94,-56,-1,-1,0
1523634015125,-1310720,94,-56,-1,-1,0
1523634015125,-1245184,94,-56,-1,-1,0
1523634015125,-1179648,94,-56,-1,-1,0
1523634015125,-1179648,94,-56,-1,-1,0
1523634015125,-1245184,94,-56,-1,-1,0
1523634015165,-1245184,94,-56,-1,-1,0
1523634015165,-1310720,94,-56,-1,-1,0
1523634015165,-1310720,94,-56,-1,-1,0
1523634015165,-1310720,94,-56,-1,-1,0
1523634015165,-1310720,94,-56,-1,-1,0
1523634015205,-1310720,94,-56,-1,-1,0
1523634015205,-1310720,94,-56,-1,-1,0
1523634015205,-1245184,94,-56,-1,-1,0
1523634015205,-1245184,94,-56,-1,-1,0
1523634015205,-1245184,94,-56,-1,-1,0
1523634015245,-1245184,92,-56,-1,-1,0
1523634015245,-1245184,92,-56,-1,-1,0
1523634015245,-1310720,92,-56,-1,-1,0
1523634015245,-1376256,92,-56,-1,-1,0
1523634015245,-917504,92,-56,-1,-1,0
1523634015285,1376256,92,-56,-1,-1,0
1523634015285,5570560,92,-56,-1,-1,0
1523634015285,8519680,92,-56,-1,-1,0
1523634015285,6553600,92,-56,-1,-1,0
1523634015285,786432,92,-56,-1,-1,0
1523634015325,-4194304,92,-56,-1,-1,0
1523634015325,-6029312,92,-56,-1,-1,0
1523634015325,-5439488,92,-56,-1,-1,0
1523634015325,-3801088,92,-56,-1,-1,0
1523634015325,-2490368,92,-56,-1,-1,0
1523634015365,-1638400,92,-56,-1,-1,0
1523634015365,-1179648,92,-56,-1,-1,0
1523634015365,-851968,92,-56,-1,-1,0
1523634015365,-786432,92,-56,-1,-1,0
1523634015365,-720896,92,-56,-1,-1,0
1523634015405,-655360,92,-56,-1,-1,0
1523634015405,-524288,92,-56,-1,-1,0
1523634015405,-393216,92,-56,-1,-1,0
1523634015405,-262144,92,-56,-1,-1,0
1523634015405,0,92,-56,-1,-1,0
1523634015445,196608,92,-56,-1,-1,0
1523634015445,589824,92,-56,-1,-1,0
1523634015445,1048576,92,-56,-1,-1,0
1523634015445,1441792,92,-56,-1,-1,0
1523634015445,1966080,92,-56,-1,-1,0
1523634015485,2621440,92,-56,-1,-1,0
1523634015485,3342336,92,-56,-1,-1,0
1523634015485,3932160,92,-56,-1,-1,0
1523634015485,4259840,92,-56,-1,-1,0
1523634015485,4390912,92,-56,-1,-1,0
1523634015525,4259840,92,-56,-1,-1,0
1523634015525,3997696,92,-56,-1,-1,0
1523634015525,3538944,92,-56,-1,-1,0
1523634015525,2883584,92,-56,-1,-1,0
1523634015525,2228224,92,-56,-1,-1,0
1523634015565,1572864,92,-56,-1,-1,0
1523634015565,983040,92,-56,-1,-1,0
1523634015565,524288,92,-56,-1,-1,0
1523634015565,196608,92,-56,-1,-1,0
1523634015565,-196608,92,-56,-1,-1,0
1523634015605,-327680,92,-56,-1,-1,0
1523634015605,-327680,92,-56,-1,-1,0
1523634015605,-262144,92,-56,-1,-1,0
1523634015605,-327680,92,-56,-1,-1,0
1523634015605,-327680,92,-56,-1,-1,0
1523634015645,-327680,92,-56,-1,-1,0
1523634015645,-262144,92,-56,-1,-1,0
1523634015645,-327680,92,-56,-1,-1,0
1523634015645,-393216,92,-56,-1,-1,0
1523634015645,-393216,92,-56,-1,-1,0
1523634015685,-262144,92,-56,-1,-1,0
1523634015685,-196608,92,-56,-1,-1,0
1523634015685,-196608,92,-56,-1,-1,0
1523634015685,-327680,92,-56,-1,-1,0
1523634015685,-458752,92,-56,-1,-1,0
1523634015726,-524288,92,-56,-1,-1,0
1523634015726,-524288,92,-56,-1,-1,0
1523634015726,-589824,92,-56,-1,-1,0
1523634015726,-589824,92,-56,-1,-1,0
1523634015726,-655360,92,-56,-1,-1,0
1523634015765,-720896,92,-56,-1,-1,0
1523634015765,-786432,92,-56,-1,-1,0
1523634015765,-851968,92,-56,-1,-1,0
1523634015765,-851968,92,-56,-1,-1,0
1523634015765,-786432,92,-56,-1,-1,0
1523634015805,-589824,92,-56,-1,-1,0
1523634015805,-655360,92,-56,-1,-1,0
1523634015805,-917504,92,-56,-1,-1,0
1523634015805,-1245184,92,-56,-1,-1,0
1523634015805,-1310720,92,-56,-1,-1,0
1523634015845,-1179648,92,-56,-1,-1,0
1523634015845,-983040,92,-56,-1,-1,0
1523634015845,-917504,92,-56,-1,-1,0
1523634015845,-1048576,92,-56,-1,-1,0
1523634015845,-1114112,92,-56,-1,-1,0
1523634015885,-1114112,91,-56,-1,-1,0
1523634015885,-1114112,91,-56,-1,-1,0
1523634015885,-1179648,91,-56,-1,-1,0
1523634015885,-1114112,91,-56,-1,-1,0
1523634015885,-1179648,91,-56,-1,-1,0
1523634015924,-1310720,91,-56,-1,-1,0
1523634015924,-1507328,91,-56,-1,-1,0
1523634015924,-786432,91,-56,-1,-1,0
1523634015924,2555904,91,-56,-1,-1,0
1523634015924,7798784,91,-56,-1,-1,0
1523634015965,9961472,91,-56,-1,-1,0
1523634015965,5701632,91,-56,-1,-1,0
1523634015965,-1179648,91,-56,-1,-1,0
1523634015965,-5505024,91,-56,-1,-1,0
1523634015965,-6160384,91,-56,-1,-1,0
1523634016005,-4980736,91,-56,-1,-1,0
1523634016005,-3342336,91,-56,-1,-1,0
1523634016005,-2228224,91,-56,-1,-1,0
1523634016005,-1703936,91,-56,-1,-1,0
1523634016005,-1245184,91,-56,-1,-1,0
1523634016045,-983040,91,-56,-1,-1,0
1523634016045,-917504,91,-56,-1,-1,0
1523634016045,-720896,91,-56,-1,-1,0
1523634016045,-458752,91,-56,-1,-1,0
1523634016045,-458752,91,-56,-1,-1,0
1523634016085,-524288,91,-56,-1,-1,0
1523634016085,-458752,91,-56,-1,-1,0
1523634016085,-393216,91,-56,-1,-1,0
1523634016085,-131072,91,-56,-1,-1,0
1523634016085,327680,91,-56,-1,-1,0
1523634016124,851968,91,-56,-1,-1,0
1523634016124,1310720,91,-56,-1,-1,0
1523634016124,1835008,91,-56,-1,-1,0
1523634016124,2555904,91,-56,-1,-1,0
1523634016124,3342336,91,-56,-1,-1,0
1523634016164,3932160,91,-56,-1,-1,0
1523634016164,4128768,91,-56,-1,-1,0
1523634016164,3866624,91,-56,-1,-1,0
1523634016164,3538944,91,-56,-1,-1,0
1523634016164,3080192,91,-56,-1,-1,0
1523634016205,2686976,91,-56,-1,-1,0
1523634016205,1966080,91,-56,-1,-1,0
1523634016205,1245184,91,-56,-1,-1,0
1523634016205,524288,91,-56,-1,-1,0
1523634016205,0,91,-56,-1,-1,0
1523634016244,-393216,91,-56,-1,-1,0
1523634016244,-524288,91,-56,-1,-1,0
1523634016244,-655360,91,-56,-1,-1,0
1523634016244,-917504,91,-56,-1,-1,0
1523634016244,-1048576,91,-56,-1,-1,0
1523634016285,-1179648,91,-56,-1,-1,0
1523634016285,-1179648,91,-56,-1,-1,0
1523634016285,-1179648,91,-56,-1,-1,0
1523634016285,-1048576,91,-56,-1,-1,0
1523634016285,-1048576,91,-56,-1,-1,0
1523634016325,-983040,91,-56,-1,-1,0
1523634016325,-786432,91,-56,-1,-1,0
1523634016325,-589824,91,-56,-1,-1,0
1523634016325,-655360,91,-56,-1,-1,0
1523634016325,-786432,91,-56,-1,-1,0
1523634016366,-720896,91,-56,-1,-1,0
1523634016366,-720896,91,-56,-1,-1,0
1523634016366,-851968,91,-56,-1,-1,0
1523634016366,-917504,91,-56,-1,-1,0
1523634016366,-851968,91,-56,-1,-1,0
1523634016405,-851968,91,-56,-1,-1,0
1523634016405,-917504,91,-56,-1,-1,0
1523634016405,-983040,91,-56,-1,-1,0
1523634016405,-983040,91,-56,-1,-1,0
1523634016405,-917504,91,-56,-1,-1,0
1523634016444,-917504,91,-56,-1,-1,0
1523634016444,-983040,91,-56,-1,-1,0
1523634016444,-1048576,91,-56,-1,-1,0
1523634016444,-1114112,91,-56,-1,-1,0
1523634016444,-1245184,91,-56,-1,-1,0
1523634016485,-1245184,90,-56,-1,-1,0
1523634016485,-1310720,90,-56,-1,-1,0
1523634016485,-1376256,90,-56,-1,-1,0
1523634016485,-1376256,90,-56,-1,-1,0
1523634016485,-1114112,90,-56,-1,-1,0
1523634016525,-983040,90,-56,-1,-1,0
1523634016525,-917504,90,-56,-1,-1,0
1523634016525,-786432,90,-56,-1,-1,0
1523634016525,-851968,90,-56,-1,-1,0
1523634016525,-1048576,90,-56,-1,-1,0
1523634016564,-1310720,90,-56,-1,-1,0
1523634016564,-1114112,90,-56,-1,-1,0
1523634016564,786432,90,-56,-1,-1,0
1523634016564,5373952,90,-56,-1,-1,0
1523634016564,9764864,90,-56,-1,-1,0
1523634016605,9175040,90,-56,-1,-1,0
1523634016605,2949120,90,-56,-1,-1,0
1523634016605,-3342336,90,-56,-1,-1,0
1523634016605,-6094848,90,-56,-1,-1,0
1523634016605,-5701632,90,-56,-1,-1,0
1523634016645,-4194304,90,-56,-1,-1,0
1523634016645,-2621440,90,-56,-1,-1,0
1523634016645,-1638400,90,-56,-1,-1,0
1523634016645,-1179648,90,-56,-1,-1,0
1523634016645,-983040,90,-56,-1,-1,0
1523634016685,-786432,90,-56,-1,-1,0
1523634016685,-655360,90,-56,-1,-1,0
1523634016685,-720896,90,-56,-1,-1,0
1523634016685,-786432,90,-56,-1,-1,0
1523634016685,-655360,90,-56,-1,-1,0
1523634016725,-327680,90,-56,-1,-1,0
1523634016725,0,90,-56,-1,-1,0
1523634016725,131072,90,-56,-1,-1,0
1523634016725,327680,90,-56,-1,-1,0
1523634016725,720896,90,-56,-1,-1,0
1523634016765,1179648,90,-56,-1,-1,0
1523634016765,1638400,90,-56,-1,-1,0
1523634016765,2359296,90,-56,-1,-1,0
1523634016765,3145728,90,-56,-1,-1,0
1523634016765,3801088,90,-56,-1,-1,0
1523634016805,4063232,90,-56,-1,-1,0
1523634016805,4063232,90,-56,-1,-1,0
1523634016805,3997696,90,-56,-1,-1,0
1523634016805,3735552,90,-56,-1,-1,0
1523634016805,3211264,90,-56,-1,-1,0
1523634016845,2555904,90,-56,-1,-1,0
1523634016845,1835008,90,-56,-1,-1,0
1523634016845,1114112,90,-56,-1,-1,0
1523634016845,458752,90,-56,-1,-1,0
1523634016845,0,90,-56,-1,-1,0
1523634016885,-393216,90,-56,-1,-1,0
1523634016885,-589824,90,-56,-1,-1,0
1523634016885,-786432,90,-56,-1,-1,0
1523634016885,-851968,90,-56,-1,-1,0
1523634016885,-851968,90,-56,-1,-1,0
1523634016925,-786432,90,-56,-1,-1,0
1523634016925,-851968,90,-56,-1,-1,0
1523634016925,-917504,90,-56,-1,-1,0
1523634016925,-917504,90,-56,-1,-1,0
1523634016925,-851968,90,-56,-1,-1,0
1523634016965,-786432,90,-56,-1,-1,0
1523634016965,-589824,90,-56,-1,-1,0
1523634016965,-524288,90,-56,-1,-1,0
1523634016965,-655360,90,-56,-1,-1,0
1523634016965,-786432,90,-56,-1,-1,0
1523634017006,-720896,90,-56,-1,-1,0
1523634017006,-720896,90,-56,-1,-1,0
1523634017006,-786432,90,-56,-1,-1,0
1523634017006,-917504,90,-56,-1,-1,0
1523634017006,-983040,90,-56,-1,-1,0
1523634017045,-1048576,90,-56,-1,-1,0
1523634017045,-1114112,90,-56,-1,-1,0
1523634017045,-1114112,90,-56,-1,-1,0
1523634017045,-983040,90,-56,-1,-1,0
1523634017045,-917504,90,-56,-1,-1,0
1523634017086,-917504,90,-56,-1,-1,0
1523634017086,-983040,90,-56,-1,-1,0
1523634017086,-1048576,90,-56,-1,-1,0
1523634017086,-1179648,90,-56,-1,-1,0
1523634017086,-1310720,90,-56,-1,-1,0
1523634017125,-1245184,90,-56,-1,-1,0
1523634017125,-1179648,90,-56,-1,-1,0
1523634017125,-1114112,90,-56,-1,-1,0
1523634017125,-1179648,90,-56,-1,-1,0
1523634017125,-1179648,90,-56,-1,-1,0
1523634017165,-1114112,90,-56,-1,-1,0
1523634017165,-917504,90,-56,-1,-1,0
1523634017165,-851968,90,-56,-1,-1,0
1523634017165,-983040,90,-56,-1,-1,0
1523634017165,-1179648,90,-56,-1,-1,0
1523634017205,-1048576,90,-56,-1,-1,0
1523634017205,1048576,90,-56,-1,-1,0
1523634017205,5767168,90,-56,-1,-1,0
1523634017205,9633792,90,-56,-1,-1,0
1523634017205,8192000,90,-56,-1,-1,0
1523634017245,1966080,90,-56,-1,-1,0
1523634017245,-3801088,90,-56,-1,-1,0
1523634017245,-5963776,90,-56,-1,-1,0
1523634017245,-5373952,90,-56,-1,-1,0
1523634017245,-3670016,90,-56,-1,-1,0
1523634017285,-2162688,90,-56,-1,-1,0
1523634017285,-1376256,90,-56,-1,-1,0
1523634017285,-1179648,90,-56,-1,-1,0
1523634017285,-1048576,90,-56,-1,-1,0
1523634017285,-851968,90,-56,-1,-1,0
1523634017325,-655360,90,-56,-1,-1,0
1523634017325,-524288,90,-56,-1,-1,0
1523634017325,-327680,90,-56,-1,-1,0
1523634017325,-393216,90,-56,-1,-1,0
1523634017325,-393216,90,-56,-1,-1,0
1523634017365,0,90,-56,-1,-1,0
1523634017365,262144,90,-56,-1,-1,0
1523634017365,589824,90,-56,-1,-1,0
1523634017365,983040,90,-56,-1,-1,0
1523634017365,1507328,90,-56,-1,-1,0
1523634017405,1966080,90,-56,-1,-1,0
1523634017405,2555904,90,-56,-1,-1,0
1523634017405,3211264,90,-56,-1,-1,0
1523634017405,3801088,90,-56,-1,-1,0
1523634017405,4194304,90,-56,-1,-1,0
1523634017445,4325376,90,-56,-1,-1,0
1523634017445,4063232,90,-56,-1,-1,0
1523634017445,3735552,90,-56,-1,-1,0
1523634017445,3407872,90,-56,-1,-1,0
1523634017445,2949120,90,-56,-1,-1,0
1523634017485,2359296,90,-56,-1,-1,0
1523634017485,1638400,90,-56,-1,-1,0
1523634017485,851968,90,-56,-1,-1,0
1523634017485,131072,90,-56,-1,-1,0
1523634017485,-262144,90,-56,-1,-1,0
1523634017525,-393216,90,-56,-1,-1,0
1523634017525,-458752,90,-56,-1,-1,0
1523634017525,-655360,90,-56,-1,-1,0
1523634017525,-720896,90,-56,-1,-1,0
1523634017525,-720896,90,-56,-1,-1,0
1523634017565,-655360,90,-56,-1,-1,0
1523634017565,-655360,90,-56,-1,-1,0
1523634017565,-524288,90,-56,-1,-1,0
1523634017565,-458752,90,-56,-1,-1,0
1523634017565,-458752,90,-56,-1,-1,0
1523634017605,-524288,90,-56,-1,-1,0
1523634017605,-458752,90,-56,-1,-1,0
1523634017605,-393216,90,-56,-1,-1,0
1523634017605,-393216,90,-56,-1,-1,0
1523634017605,-524288,90,-56,-1,-1,0
1523634017646,-720896,90,-56,-1,-1,0
1523634017646,-720896,90,-56,-1,-1,0
1523634017646,-655360,90,-56,-1,-1,0
1523634017646,-720896,90,-56,-1,-1,0
1523634017646,-655360,90,-56,-1,-1,0
1523634017685,-655360,90,-56,-1,-1,0
1523634017685,-655360,90,-56,-1,-1,0
1523634017685,-655360,90,-56,-1,-1,0
1523634017685,-655360,90,-56,-1,-1,0
1523634017685,-655360,90,-56,-1,-1,0
1523634017725,-720896,90,-56,-1,-1,0
1523634017725,-917504,90,-56,-1,-1,0
1523634017725,-1114112,90,-56,-1,-1,0
1523634017725,-1114112,90,-56,-1,-1,0
1523634017725,-1048576,90,-56,-1,-1,0
1523634017765,-983040,90,-56,-1,-1,0
1523634017765,-983040,90,-56,-1,-1,0
1523634017765,-1114112,90,-56,-1,-1,0
1523634017765,-1114112,90,-56,-1,-1,0
1523634017765,-917504,90,-56,-1,-1,0
1523634017805,-851968,90,-56,-1,-1,0
1523634017805,-983040,90,-56,-1,-1,0
1523634017805,-1310720,90,-56,-1,-1,0
1523634017805,-1179648,90,-56,-1,-1,0
1523634017805,720896,90,-56,-1,-1,0
1523634017845,5177344,90,-56,-1,-1,0
1523634017845,9109504,90,-56,-1,-1,0
1523634017845,8388608,90,-56,-1,-1,0
1523634017845,2949120,90,-56,-1,-1,0
1523634017845,-2686976,90,-56,-1,-1,0
1523634017885,-5636096,90,-56,-1,-1,0
1523634017885,-5701632,90,-56,-1,-1,0
1523634017885,-3997696,90,-56,-1,-1,0
1523634017885,-2228224,90,-56,-1,-1,0
1523634017885,-1310720,90,-56,-1,-1,0
1523634017925,-1114112,90,-56,-1,-1,0
1523634017925,-917504,90,-56,-1,-1,0
1523634017925,-655360,90,-56,-1,-1,0
1523634017925,-524288,90,-56,-1,-1,0
1523634017925,-589824,90,-56,-1,-1,0
1523634017965,-589824,90,-56,-1,-1,0
1523634017965,-458752,90,-56,-1,-1,0
1523634017965,-131072,90,-56,-1,-1,0
1523634017965,0,90,-56,-1,-1,0
1523634017965,262144,90,-56,-1,-1,0
1523634018005,458752,90,-56,-1,-1,0
1523634018005,786432,90,-56,-1,-1,0
1523634018005,1245184,90,-56,-1,-1,0
1523634018005,1703936,90,-56,-1,-1,0
1523634018005,2293760,90,-56,-1,-1,0
1523634018045,3014656,90,-56,-1,-1,0
1523634018045,3604480,90,-56,-1,-1,0
1523634018045,3866624,90,-56,-1,-1,0
1523634018045,3997696,90,-56,-1,-1,0
1523634018045,3932160,90,-56,-1,-1,0
1523634018085,3670016,90,-56,-1,-1,0
1523634018085,3211264,90,-56,-1,-1,0
1523634018085,2621440,90,-56,-1,-1,0
1523634018085,1966080,90,-56,-1,-1,0
1523634018085,1310720,90,-56,-1,-1,0
1523634018125,851968,90,-56,-1,-1,0
1523634018125,458752,90,-56,-1,-1,0
1523634018125,0,90,-56,-1,-1,0
1523634018125,-327680,90,-56,-1,-1,0
1523634018125,-589824,90,-56,-1,-1,0
1523634018165,-589824,90,-56,-1,-1,0
1523634018165,-524288,90,-56,-1,-1,0
1523634018165,-589824,90,-56,-1,-1,0
1523634018165,-720896,90,-56,-1,-1,0
1523634018165,-720896,90,-56,-1,-1,0
1523634018205,-589824,90,-56,-1,-1,0
1523634018205,-524288,90,-56,-1,-1,0
1523634018205,-393216,90,-56,-1,-1,0
1523634018205,-327680,90,-56,-1,-1,0
1523634018205,-327680,90,-56,-1,-1,0
1523634018245,-393216,90,-56,-1,-1,0
1523634018245,-524288,90,-56,-1,-1,0
1523634018245,-589824,90,-56,-1,-1,0
1523634018245,-655360,90,-56,-1,-1,0
1523634018245,-720896,90,-56,-1,-1,0
1523634018286,-720896,90,-56,-1,-1,0
1523634018286,-851968,90,-56,-1,-1,0
1523634018286,-1048576,90,-56,-1,-1,0
1523634018286,-983040,90,-56,-1,-1,0
1523634018286,-786432,90,-56,-1,-1,0
1523634018325,-524288,90,-56,-1,-1,0
1523634018325,-589824,90,-56,-1,-1,0
1523634018325,-720896,90,-56,-1,-1,0
1523634018325,-786432,90,-56,-1,-1,0
1523634018325,-851968,90,-56,-1,-1,0
1523634018365,-1048576,90,-56,-1,-1,0
1523634018365,-1048576,90,-56,-1,-1,0
1523634018365,-983040,90,-56,-1,-1,0
1523634018365,-1114112,90,-56,-1,-1,0
1523634018365,-1179648,90,-56,-1,-1,0
1523634018405,-1114112,90,-56,-1,-1,0
1523634018405,-983040,90,-56,-1,-1,0
1523634018405,-1114112,90,-56,-1,-1,0
1523634018405,-1114112,90,-56,-1,-1,0
1523634018405,-983040,90,-56,-1,-1,0
1523634018445,-917504,90,-56,-1,-1,0
1523634018445,-1179648,90,-56,-1,-1,0
1523634018445,-917504,90,-56,-1,-1,0
1523634018445,1114112,90,-56,-1,-1,0
1523634018445,5636096,90,-56,-1,-1,0
1523634018485,9043968,90,-56,-1,-1,0
1523634018485,7405568,90,-56,-1,-1,0
1523634018485,1441792,90,-56,-1,-1,0
1523634018485,-3735552,90,-56,-1,-1,0
1523634018485,-5636096,90,-56,-1,-1,0
1523634018526,-4980736,90,-56,-1,-1,0
1523634018526,-3538944,90,-56,-1,-1,0
1523634018526,-2293760,90,-56,-1,-1,0
1523634018526,-1441792,90,-56,-1,-1,0
1523634018526,-983040,90,-56,-1,-1,0
1523634018565,-851968,90,-56,-1,-1,0
1523634018565,-917504,90,-56,-1,-1,0
1523634018565,-917504,90,-56,-1,-1,0
1523634018565,-720896,90,-56,-1,-1,0
1523634018565,-524288,90,-56,-1,-1,0
1523634018605,-458752,90,-56,-1,-1,0
1523634018605,-327680,90,-56,-1,-1,0
1523634018605,-131072,90,-56,-1,-1,0
1523634018605,0,90,-56,-1,-1,0
1523634018605,327680,90,-56,-1,-1,0
1523634018645,720896,90,-56,-1,-1,0
1523634018645,1114112,90,-56,-1,-1,0
1523634018645,1638400,90,-56,-1,-1,0
1523634018645,2228224,90,-56,-1,-1,0
1523634018645,2752512,90,-56,-1,-1,0
1523634018685,3276800,90,-56,-1,-1,0
1523634018685,3538944,90,-56,-1,-1,0
1523634018685,3670016,90,-56,-1,-1,0
1523634018685,3538944,90,-56,-1,-1,0
1523634018685,3276800,90,-56,-1,-1,0
1523634018725,2818048,90,-56,-1,-1,0
1523634018725,2424832,90,-56,-1,-1,0
1523634018725,1900544,90,-56,-1,-1,0
1523634018725,1245184,90,-56,-1,-1,0
1523634018725,655360,90,-56,-1,-1,0
1523634018765,196608,90,-56,-1,-1,0
1523634018765,-131072,90,-56,-1,-1,0
1523634018765,-458752,90,-56,-1,-1,0
1523634018765,-720896,90,-56,-1,-1,0
1523634018765,-917504,90,-56,-1,-1,0
1523634018805,-917504,90,-56,-1,-1,0
1523634018805,-917504,90,-56,-1,-1,0
1523634018805,-786432,90,-56,-1,-1,0
1523634018805,-589824,90,-56,-1,-1,0
1523634018805,-524288,90,-56,-1,-1,0
1523634018845,-589824,90,-56,-1,-1,0
1523634018845,-655360,90,-56,-1,-1,0
1523634018845,-655360,90,-56,-1,-1,0
1523634018845,-655360,90,-56,-1,-1,0
1523634018845,-589824,90,-56,-1,-1,0
1523634018885,-655360,90,-56,-1,-1,0
1523634018885,-655360,90,-56,-1,-1,0
1523634018885,-851968,90,-56,-1,-1,0
1523634018885,-983040,90,-56,-1,-1,0
1523634018885,-1048576,90,-56,-1,-1,0
1523634018926,-983040,90,-56,-1,-1,0
1523634018926,-1048576,90,-56,-1,-1,0
1523634018926,-1048576,90,-56,-1,-1,0
1523634018926,-917504,90,-56,-1,-1,0
1523634018926,-851968,90,-56,-1,-1,0
1523634018965,-786432,90,-56,-1,-1,0
1523634018965,-786432,90,-56,-1,-1,0
1523634018965,-851968,90,-56,-1,-1,0
1523634018965,-1048576,90,-56,-1,-1,0
1523634018965,-1245184,90,-56,-1,-1,0
1523634019005,-1245184,90,-56,-1,-1,0
1523634019005,-1179648,90,-56,-1,-1,0
1523634019005,-1114112,90,-56,-1,-1,0
1523634019005,-1114112,90,-56,-1,-1,0
1523634019005,-1048576,90,-56,-1,-1,0
1523634019045,-983040,90,-56,-1,-1,0
1523634019045,-983040,90,-56,-1,-1,0
1523634019045,-917504,90,-56,-1,-1,0
1523634019045,-983040,90,-56,-1,-1,0
1523634019045,-1048576,90,-56,-1,-1,0
1523634019085,-1179648,90,-56,-1,-1,0
1523634019085,-327680,90,-56,-1,-1,0
1523634019085,2555904,90,-56,-1,-1,0
1523634019085,6881280,90,-56,-1,-1,0
1523634019085,8454144,90,-56,-1,-1,0
1523634019125,5046272,90,-56,-1,-1,0
1523634019125,-720896,90,-56,-1,-1,0
1523634019125,-4653056,90,-56,-1,-1,0
1523634019125,-5636096,90,-56,-1,-1,0
1523634019125,-4653056,90,-56,-1,-1,0
1523634019165,-3080192,90,-56,-1,-1,0
1523634019165,-1966080,90,-56,-1,-1,0
1523634019165,-1310720,90,-56,-1,-1,0
1523634019165,-917504,90,-56,-1,-1,0
1523634019165,-655360,90,-56,-1,-1,0
1523634019205,-589824,90,-56,-1,-1,0
1523634019205,-589824,90,-56,-1,-1,0
1523634019205,-524288,90,-56,-1,-1,0
1523634019205,-327680,90,-56,-1,-1,0
1523634019205,-196608,90,-56,-1,-1,0
1523634019245,0,90,-56,-1,-1,0
1523634019245,65536,90,-56,-1,-1,0
1523634019245,262144,90,-56,-1,-1,0
1523634019245,524288,90,-56,-1,-1,0
1523634019245,851968,90,-56,-1,-1,0
1523634019285,1245184,90,-56,-1,-1,0
1523634019285,1835008,90,-56,-1,-1,0
1523634019285,2490368,90,-56,-1,-1,0
1523634019285,3080192,90,-56,-1,-1,0
1523634019285,3473408,90,-56,-1,-1,0
1523634019325,3604480,90,-56,-1,-1,0
1523634019325,3670016,90,-56,-1,-1,0
1523634019325,3604480,90,-56,-1,-1,0
1523634019325,3276800,90,-56,-1,-1,0
1523634019325,2818048,90,-56,-1,-1,0
1523634019365,2228224,90,-56,-1,-1,0
1523634019365,1572864,90,-56,-1,-1,0
1523634019365,983040,90,-56,-1,-1,0
1523634019365,458752,90,-56,-1,-1,0
1523634019365,0,90,-56,-1,-1,0
1523634019405,-458752,90,-56,-1,-1,0
1523634019405,-786432,90,-56,-1,-1,0
1523634019405,-851968,90,-56,-1,-1,0
1523634019405,-917504,90,-56,-1,-1,0
1523634019405,-983040,90,-56,-1,-1,0
1523634019445,-1048576,90,-56,-1,-1,0
1523634019445,-1114112,90,-56,-1,-1,0
1523634019445,-1114112,90,-56,-1,-1,0
1523634019445,-983040,90,-56,-1,-1,0
1523634019445,-851968,90,-56,-1,-1,0
1523634019485,-786432,90,-56,-1,-1,0
1523634019485,-851968,90,-56,-1,-1,0
1523634019485,-917504,90,-56,-1,-1,0
1523634019485,-917504,90,-56,-1,-1,0
1523634019485,-1048576,90,-56,-1,-1,0
1523634019525,-1114112,90,-56,-1,-1,0
1523634019525,-1179648,90,-56,-1,-1,0
1523634019525,-1179648,90,-56,-1,-1,0
1523634019525,-1245184,90,-56,-1,-1,0
1523634019525,-1245184,90,-56,-1,-1,0
1523634019566,-1114112,90,-56,-1,-1,0
1523634019566,-1048576,90,-56,-1,-1,0
1523634019566,-1114112,90,-56,-1,-1,0
1523634019566,-1179648,90,-56,-1,-1,0
1523634019566,-1179648,90,-56,-1,-1,0
1523634019606,-1245184,90,-56,-1,-1,0
1523634019606,-1310720,90,-56,-1,-1,0
1523634019606,-1310720,90,-56,-1,-1,0
1523634019606,-1245184,90,-56,-1,-1,0
1523634019606,-1310720,90,-56,-1,-1,0
1523634019645,-1376256,90,-56,-1,-1,0
1523634019645,-1441792,90,-56,-1,-1,0
1523634019645,-1441792,90,-56,-1,-1,0
1523634019645,-1376256,90,-56,-1,-1,0
1523634019645,-1376256,90,-56,-1,-1,0
1523634019685,-1245184,90,-56,-1,-1,0
1523634019685,-1245184,90,-56,-1,-1,0
1523634019685,-1441792,90,-56,-1,-1,0
1523634019685,-1507328,90,-56,-1,-1,0
1523634019685,-393216,90,-56,-1,-1,0
1523634019725,3407872,90,-56,-1,-1,0
1523634019725,8388608,90,-56,-1,-1,0
1523634019725,9633792,90,-56,-1,-1,0
1523634019725,4784128,90,-56,-1,-1,0
1523634019725,-1900544,90,-56,-1,-1,0
1523634019765,-5832704,90,-56,-1,-1,0
1523634019765,-6094848,90,-56,-1,-1,0
1523634019765,-4718592,90,-56,-1,-1,0
1523634019765,-3080192,90,-56,-1,-1,0
1523634019765,-1966080,90,-56,-1,-1,0
1523634019805,-1376256,90,-56,-1,-1,0
1523634019805,-1114112,90,-56,-1,-1,0
1523634019805,-1048576,90,-56,-1,-1,0
1523634019805,-983040,90,-56,-1,-1,0
1523634019805,-786432,90,-56,-1,-1,0
1523634019845,-655360,90,-56,-1,-1,0
1523634019845,-655360,90,-56,-1,-1,0
1523634019845,-524288,90,-56,-1,-1,0
1523634019845,-327680,90,-56,-1,-1,0
1523634019845,-65536,90,-56,-1,-1,0
1523634019885,196608,90,-56,-1,-1,0
1523634019885,524288,90,-56,-1,-1,0
1523634019885,983040,90,-56,-1,-1,0
1523634019885,1507328,90,-56,-1,-1,0
1523634019885,2162688,90,-56,-1,-1,0
1523634019925,2818048,90,-56,-1,-1,0
1523634019925,3407872,90,-56,-1,-1,0
1523634019925,3801088,90,-56,-1,-1,0
1523634019925,3997696,90,-56,-1,-1,0
1523634019925,3997696,90,-56,-1,-1,0
1523634019965,3866624,90,-56,-1,-1,0
1523634019965,3473408,90,-56,-1,-1,0
1523634019965,2818048,90,-56,-1,-1,0
1523634019965,2031616,90,-56,-1,-1,0
1523634019965,1245184,90,-56,-1,-1,0
1523634020005,589824,90,-56,-1,-1,0
1523634020005,131072,90,-56,-1,-1,0
1523634020005,-131072,90,-56,-1,-1,0
1523634020005,-393216,90,-56,-1,-1,0
1523634020005,-655360,90,-56,-1,-1,0
1523634020045,-786432,90,-56,-1,-1,0
1523634020045,-917504,90,-56,-1,-1,0
1523634020045,-917504,90,-56,-1,-1,0
1523634020045,-917504,90,-56,-1,-1,0
1523634020045,-917504,90,-56,-1,-1,0
1523634020085,-786432,90,-56,-1,-1,0
1523634020085,-720896,90,-56,-1,-1,0
1523634020085,-589824,90,-56,-1,-1,0
1523634020085,-524288,90,-56,-1,-1,0
1523634020085,-524288,90,-56,-1,-1,0
1523634020125,-458752,90,-56,-1,-1,0
1523634020125,-524288,90,-56,-1,-1,0
1523634020125,-655360,90,-56,-1,-1,0
1523634020125,-720896,90,-56,-1,-1,0
1523634020125,-786432,90,-56,-1,-1,0
1523634020165,-917504,90,-56,-1,-1,0
1523634020165,-983040,90,-56,-1,-1,0
1523634020165,-983040,90,-56,-1,-1,0
1523634020165,-917504,90,-56,-1,-1,0
1523634020165,-851968,90,-56,-1,-1,0
1523634020206,-851968,90,-56,-1,-1,0
1523634020206,-851968,90,-56,-1,-1,0
1523634020206,-983040,90,-56,-1,-1,0
1523634020206,-1114112,90,-56,-1,-1,0
1523634020206,-1179648,90,-56,-1,-1,0
1523634020245,-1179648,92,-56,-1,-1,0
1523634020245,-1179648,92,-56,-1,-1,0
1523634020245,-1179648,92,-56,-1,-1,0
1523634020245,-1179648,92,-56,-1,-1,0
1523634020245,-1245184,92,-56,-1,-1,0
1523634020285,-1310720,92,-56,-1,-1,0
1523634020285,-1310720,92,-56,-1,-1,0
1523634020285,-1310720,92,-56,-1,-1,0
1523634020285,-1245184,92,-56,-1,-1,0
1523634020285,-1179648,92,-56,-1,-1,0
1523634020325,-1179648,92,-56,-1,-1,0
1523634020325,-786432,92,-56,-1,-1,0
1523634020325,1441792,92,-56,-1,-1,0
1523634020325,6029312,92,-56,-1,-1,0
1523634020325,9568256,92,-56,-1,-1,0
1523634020365,7602176,92,-56,-1,-1,0
1523634020365,1114112,92,-56,-1,-1,0
1523634020365,-4521984,92,-56,-1,-1,0
1523634020365,-6422528,92,-56,-1,-1,0
1523634020365,-5636096,92,-56,-1,-1,0
1523634020405,-3866624,92,-56,-1,-1,0
1523634020405,-2293760,92,-56,-1,-1,0
1523634020405,-1441792,92,-56,-1,-1,0
1523634020405,-983040,92,-56,-1,-1,0
1523634020405,-720896,92,-56,-1,-1,0
1523634020445,-655360,92,-56,-1,-1,0
1523634020445,-655360,92,-56,-1,-1,0
1523634020445,-524288,92,-56,-1,-1,0
1523634020445,-393216,92,-56,-1,-1,0
1523634020445,-327680,92,-56,-1,-1,0
1523634020485,-262144,92,-56,-1,-1,0
1523634020485,-65536,92,-56,-1,-1,0
1523634020485,131072,92,-56,-1,-1,0
1523634020485,524288,92,-56,-1,-1,0
1523634020485,983040,92,-56,-1,-1,0
1523634020525,1441792,92,-56,-1,-1,0
1523634020525,2031616,92,-56,-1,-1,0
1523634020525,2621440,92,-56,-1,-1,0
1523634020525,3276800,92,-56,-1,-1,0
1523634020525,3735552,92,-56,-1,-1,0
1523634020565,3997696,92,-56,-1,-1,0
1523634020565,3997696,92,-56,-1,-1,0
1523634020565,3932160,92,-56,-1,-1,0
1523634020565,3538944,92,-56,-1,-1,0
1523634020565,2883584,92,-56,-1,-1,0
1523634020605,2162688,92,-56,-1,-1,0
1523634020605,1441792,92,-56,-1,-1,0
1523634020605,786432,92,-56,-1,-1,0
1523634020605,262144,92,-56,-1,-1,0
1523634020605,0,92,-56,-1,-1,0
1523634020646,-327680,92,-56,-1,-1,0
1523634020646,-655360,92,-56,-1,-1,0
1523634020646,-851968,92,-56,-1,-1,0
1523634020646,-917504,92,-56,-1,-1,0
1523634020646,-983040,92,-56,-1,-1,0
1523634020685,-1048576,92,-56,-1,-1,0
1523634020685,-983040,92,-56,-1,-1,0
1523634020685,-720896,92,-56,-1,-1,0
1523634020685,-655360,92,-56,-1,-1,0
1523634020685,-655360,92,-56,-1,-1,0
1523634020725,-786432,92,-56,-1,-1,0
1523634020725,-655360,92,-56,-1,-1,0
1523634020725,-589824,92,-56,-1,-1,0
1523634020725,-589824,92,-56,-1,-1,0
1523634020725,-589824,92,-56,-1,-1,0
1523634020765,-589824,92,-56,-1,-1,0
1523634020765,-524288,92,-56,-1,-1,0
1523634020765,-589824,92,-56,-1,-1,0
1523634020765,-720896,92,-56,-1,-1,0
1523634020765,-786432,92,-56,-1,-1,0
1523634020805,-851968,92,-56,-1,-1,0
1523634020805,-917504,92,-56,-1,-1,0
1523634020805,-851968,92,-56,-1,-1,0
1523634020805,-851968,92,-56,-1,-1,0
1523634020805,-720896,92,-56,-1,-1,0
1523634020846,-589824,92,-56,-1,-1,0
1523634020846,-720896,92,-56,-1,-1,0
1523634020846,-917504,92,-56,-1,-1,0
1523634020846,-1048576,92,-56,-1,-1,0
1523634020846,-983040,92,-56,-1,-1,0
1523634020885,-851968,92,-56,-1,-1,0
1523634020885,-851968,92,-56,-1,-1,0
1523634020885,-983040,92,-56,-1,-1,0
1523634020885,-917504,92,-56,-1,-1,0
1523634020885,-851968,92,-56,-1,-1,0
1523634020925,-917504,92,-56,-1,-1,0
1523634020925,-1114112,92,-56,-1,-1,0
1523634020925,-1114112,92,-56,-1,-1,0
1523634020925,-1179648,92,-56,-1,-1,0
1523634020925,-983040,92,-56,-1,-1,0
1523634020965,720896,92,-56,-1,-1,0
1523634020965,5242880,92,-56,-1,-1,0
1523634020965,9830400,92,-56,-1,-1,0
1523634020965,9568256,92,-56,-1,-1,0
1523634020965,3604480,92,-56,-1,-1,0
1523634021005,-2818048,92,-56,-1,-1,0
1523634021005,-5767168,92,-56,-1,-1,0
1523634021005,-5373952,92,-56,-1,-1,0
1523634021005,-3801088,92,-56,-1,-1,0
1523634021005,-2293760,92,-56,-1,-1,0
1523634021045,-1507328,92,-56,-1,-1,0
1523634021045,-1179648,92,-56,-1,-1,0
1523634021045,-917504,92,-56,-1,-1,0
1523634021045,-786432,92,-56,-1,-1,0
1523634021045,-720896,92,-56,-1,-1,0
1523634021085,-786432,92,-56,-1,-1,0
1523634021085,-589824,92,-56,-1,-1,0
1523634021085,-393216,92,-56,-1,-1,0
1523634021085,-196608,92,-56,-1,-1,0
1523634021085,-65536,92,-56,-1,-1,0
1523634021125,131072,92,-56,-1,-1,0
1523634021125,393216,92,-56,-1,-1,0
1523634021125,720896,92,-56,-1,-1,0
1523634021125,1245184,92,-56,-1,-1,0
1523634021125,1769472,92,-56,-1,-1,0
1523634021165,2490368,92,-56,-1,-1,0
1523634021165,3211264,92,-56,-1,-1,0
1523634021165,3866624,92,-56,-1,-1,0
1523634021165,4128768,92,-56,-1,-1,0
1523634021165,4194304,92,-56,-1,-1,0
1523634021205,3997696,92,-56,-1,-1,0
1523634021205,3735552,92,-56,-1,-1,0
1523634021205,3211264,92,-56,-1,-1,0
1523634021205,2490368,92,-56,-1,-1,0
1523634021205,1769472,92,-56,-1,-1,0
1523634021245,1114112,92,-56,-1,-1,0
1523634021245,524288,92,-56,-1,-1,0
1523634021245,131072,92,-56,-1,-1,0
1523634021245,-131072,92,-56,-1,-1,0
1523634021245,-458752,92,-56,-1,-1,0
1523634021285,-720896,92,-56,-1,-1,0
1523634021285,-917504,92,-56,-1,-1,0
1523634021285,-917504,92,-56,-1,-1,0
1523634021285,-851968,92,-56,-1,-1,0
1523634021285,-851968,92,-56,-1,-1,0
1523634021325,-917504,92,-56,-1,-1,0
1523634021325,-917504,92,-56,-1,-1,0
1523634021325,-851968,92,-56,-1,-1,0
1523634021325,-917504,92,-56,-1,-1,0
1523634021325,-917504,92,-56,-1,-1,0
1523634021365,-851968,92,-56,-1,-1,0
1523634021365,-655360,92,-56,-1,-1,0
1523634021365,-655360,92,-56,-1,-1,0
1523634021365,-720896,92,-56,-1,-1,0
1523634021365,-786432,92,-56,-1,-1,0
1523634021405,-851968,92,-56,-1,-1,0
1523634021405,-983040,92,-56,-1,-1,0
1523634021405,-1114112,92,-56,-1,-1,0
1523634021405,-1310720,92,-56,-1,-1,0
1523634021405,-1245184,92,-56,-1,-1,0
1523634021445,-1114112,92,-56,-1,-1,0
1523634021445,-983040,92,-56,-1,-1,0
1523634021445,-1114112,92,-56,-1,-1,0
1523634021445,-1179648,92,-56,-1,-1,0
1523634021445,-1114112,92,-56,-1,-1,0
1523634021486,-1114112,92,-56,-1,-1,0
1523634021486,-1245184,92,-56,-1,-1,0
1523634021486,-1376256,92,-56,-1,-1,0
1523634021486,-1376256,92,-56,-1,-1,0
1523634021486,-1310720,92,-56,-1,-1,0
1523634021525,-1441792,92,-56,-1,-1,0
1523634021525,-1507328,92,-56,-1,-1,0
1523634021525,-1441792,92,-56,-1,-1,0
1523634021525,-1245184,92,-56,-1,-1,0
1523634021525,-1245184,92,-56,-1,-1,0
1523634021565,-1245184,93,-56,-1,-1,0
1523634021565,-1376256,93,-56,-1,-1,0
1523634021565,-1376256,93,-56,-1,-1,0
1523634021565,-1507328,93,-56,-1,-1,0
1523634021565,-1572864,93,-56,-1,-1,0
1523634021605,-1376256,93,-56,-1,-1,0
1523634021605,262144,93,-56,-1,-1,0
1523634021605,4063232,93,-56,-1,-1,0
1523634021605,7864320,93,-56,-1,-1,0
1523634021605,7733248,93,-56,-1,-1,0
1523634021645,2883584,93,-56,-1,-1,0
1523634021645,-2752512,93,-56,-1,-1,0
1523634021645,-5701632,93,-56,-1,-1,0
1523634021645,-5636096,93,-56,-1,-1,0
1523634021645,-4128768,93,-56,-1,-1,0
1523634021685,-2555904,93,-56,-1,-1,0
1523634021685,-1638400,93,-56,-1,-1,0
1523634021685,-1310720,93,-56,-1,-1,0
1523634021685,-1114112,93,-56,-1,-1,0
1523634021685,-983040,93,-56,-1,-1,0
1523634021725,-786432,93,-56,-1,-1,0
1523634021725,-655360,93,-56,-1,-1,0
1523634021725,-589824,93,-56,-1,-1,0
1523634021725,-589824,93,-56,-1,-1,0
1523634021725,-393216,93,-56,-1,-1,0
1523634021765,-196608,93,-56,-1,-1,0
1523634021765,-65536,93,-56,-1,-1,0
1523634021765,131072,93,-56,-1,-1,0
1523634021765,393216,93,-56,-1,-1,0
1523634021765,983040,93,-56,-1,-1,0
1523634021805,1703936,93,-56,-1,-1,0
1523634021805,2293760,93,-56,-1,-1,0
1523634021805,2818048,93,-56,-1,-1,0
1523634021805,3538944,93,-56,-1,-1,0
1523634021805,4128768,93,-56,-1,-1,0
1523634021845,4325376,93,-56,-1,-1,0
1523634021845,4259840,93,-56,-1,-1,0
1523634021845,3997696,93,-56,-1,-1,0
1523634021845,3473408,93,-56,-1,-1,0
1523634021845,3014656,93,-56,-1,-1,0
1523634021885,2555904,93,-56,-1,-1,0
1523634021885,1769472,93,-56,-1,-1,0
1523634021885,983040,93,-56,-1,-1,0
1523634021885,458752,93,-56,-1,-1,0
1523634021885,131072,93,-56,-1,-1,0
1523634021925,-131072,93,-56,-1,-1,0
1523634021925,-458752,93,-56,-1,-1,0
1523634021925,-589824,93,-56,-1,-1,0
1523634021925,-655360,93,-56,-1,-1,0
1523634021925,-655360,93,-56,-1,-1,0
1523634021965,-589824,93,-56,-1,-1,0
1523634021965,-327680,93,-56,-1,-1,0
1523634021965,-262144,93,-56,-1,-1,0
1523634021965,-393216,93,-56,-1,-1,0
1523634021965,-524288,93,-56,-1,-1,0
1523634022005,-393216,93,-56,-1,-1,0
1523634022005,-262144,93,-56,-1,-1,0
1523634022005,-262144,93,-56,-1,-1,0
1523634022005,-262144,93,-56,-1,-1,0
1523634022005,-196608,93,-56,-1,-1,0
1523634022045,-131072,93,-56,-1,-1,0
1523634022045,-327680,93,-56,-1,-1,0
1523634022045,-393216,93,-56,-1,-1,0
1523634022045,-393216,93,-56,-1,-1,0
1523634022045,-458752,93,-56,-1,-1,0
1523634022085,-655360,93,-56,-1,-1,0
1523634022085,-720896,93,-56,-1,-1,0
1523634022085,-720896,93,-56,-1,-1,0
1523634022085,-589824,93,-56,-1,-1,0
1523634022085,-524288,93,-56,-1,-1,0
1523634022126,-458752,93,-56,-1,-1,0
1523634022126,-524288,93,-56,-1,-1,0
1523634022126,-524288,93,-56,-1,-1,0
1523634022126,-589824,93,-56,-1,-1,0
1523634022126,-720896,93,-56,-1,-1,0
1523634022165,-851968,93,-56,-1,-1,0
1523634022165,-851968,93,-56,-1,-1,0
1523634022165,-786432,93,-56,-1,-1,0
1523634022165,-786432,93,-56,-1,-1,0
1523634022165,-851968,93,-56,-1,-1,0
1523634022205,-851968,93,-56,-1,-1,0
1523634022205,-917504,93,-56,-1,-1,0
1523634022205,-917504,93,-56,-1,-1,0
1523634022205,-851968,93,-56,-1,-1,0
1523634022205,-851968,93,-56,-1,-1,0
1523634022245,-917504,93,-56,-1,-1,0
1523634022245,-983040,93,-56,-1,-1,0
1523634022245,-983040,93,-56,-1,-1,0
1523634022245,262144,93,-56,-1,-1,0
1523634022245,4259840,93,-56,-1,-1,0
1523634022285,9043968,93,-56,-1,-1,0
1523634022285,9568256,93,-56,-1,-1,0
1523634022285,4128768,93,-56,-1,-1,0
1523634022285,-2097152,93,-56,-1,-1,0
1523634022285,-5373952,93,-56,-1,-1,0
1523634022325,-5701632,93,-56,-1,-1,0
1523634022325,-4325376,93,-56,-1,-1,0
1523634022325,-2490368,93,-56,-1,-1,0
1523634022325,-1376256,93,-56,-1,-1,0
1523634022325,-983040,93,-56,-1,-1,0
1523634022365,-589824,93,-56,-1,-1,0
1523634022365,-524288,93,-56,-1,-1,0
1523634022365,-720896,93,-56,-1,-1,0
1523634022365,-720896,93,-56,-1,-1,0
1523634022365,-458752,93,-56,-1,-1,0
1523634022405,-262144,93,-56,-1,-1,0
1523634022405,-65536,93,-56,-1,-1,0
1523634022405,0,93,-56,-1,-1,0
1523634022405,131072,93,-56,-1,-1,0
1523634022405,327680,93,-56,-1,-1,0
1523634022445,655360,93,-56,-1,-1,0
1523634022445,1179648,93,-56,-1,-1,0
1523634022445,1638400,93,-56,-1,-1,0
1523634022445,2359296,93,-56,-1,-1,0
1523634022445,3080192,93,-56,-1,-1,0
1523634022485,3604480,93,-56,-1,-1,0
1523634022485,3932160,93,-56,-1,-1,0
1523634022485,4128768,93,-56,-1,-1,0
1523634022485,3997696,93,-56,-1,-1,0
1523634022485,3801088,93,-56,-1,-1,0
1523634022525,3342336,93,-56,-1,-1,0
1523634022525,2752512,93,-56,-1,-1,0
1523634022525,1966080,93,-56,-1,-1,0
1523634022525,1310720,93,-56,-1,-1,0
1523634022525,655360,93,-56,-1,-1,0
1523634022565,196608,93,-56,-1,-1,0
1523634022565,-65536,93,-56,-1,-1,0
1523634022565,-327680,93,-56,-1,-1,0
1523634022565,-458752,93,-56,-1,-1,0
1523634022565,-524288,93,-56,-1,-1,0
1523634022604,-655360,93,-56,-1,-1,0
1523634022604,-720896,93,-56,-1,-1,0
1523634022604,-786432,93,-56,-1,-1,0
1523634022604,-720896,93,-56,-1,-1,0
1523634022604,-524288,93,-56,-1,-1,0
1523634022644,-458752,93,-56,-1,-1,0
1523634022644,-327680,93,-56,-1,-1,0
1523634022644,-458752,93,-56,-1,-1,0
1523634022644,-589824,93,-56,-1,-1,0
1523634022644,-524288,93,-56,-1,-1,0
1523634022684,-458752,93,-56,-1,-1,0
1523634022684,-524288,93,-56,-1,-1,0
1523634022684,-458752,93,-56,-1,-1,0
1523634022684,-393216,93,-56,-1,-1,0
1523634022684,-524288,93,-56,-1,-1,0
1523634022724,-524288,93,-56,-1,-1,0
1523634022724,-589824,93,-56,-1,-1,0
1523634022724,-655360,93,-56,-1,-1,0
1523634022724,-720896,93,-56,-1,-1,0
1523634022724,-786432,93,-56,-1,-1,0
1523634022766,-917504,93,-56,-1,-1,0
1523634022766,-983040,93,-56,-1,-1,0
1523634022766,-851968,93,-56,-1,-1,0
1523634022766,-655360,93,-56,-1,-1,0
1523634022766,-589824,93,-56,-1,-1,0
1523634022804,-589824,93,-56,-1,-1,0
1523634022804,-589824,93,-56,-1,-1,0
1523634022804,-720896,93,-56,-1,-1,0
1523634022804,-851968,93,-56,-1,-1,0
1523634022804,-917504,93,-56,-1,-1,0
1523634022844,-983040,93,-56,-1,-1,0
1523634022844,-983040,93,-56,-1,-1,0
1523634022844,-786432,93,-56,-1,-1,0
1523634022844,-720896,93,-56,-1,-1,0
1523634022844,-720896,93,-56,-1,-1,0
1523634022884,-851968,93,-56,-1,-1,0
1523634022884,-983040,93,-56,-1,-1,0
1523634022884,-983040,93,-56,-1,-1,0
1523634022884,-917504,93,-56,-1,-1,0
1523634022884,-983040,93,-56,-1,-1,0
1523634022924,-1114112,93,-56,-1,-1,0
1523634022924,-720896,93,-56,-1,-1,0
1523634022924,1441792,93,-56,-1,-1,0
1523634022924,6029312,93,-56,-1,-1,0
1523634022924,10092544,93,-56,-1,-1,0
1523634022964,8978432,93,-56,-1,-1,0
1523634022964,2555904,93,-56,-1,-1,0
1523634022964,-3670016,93,-56,-1,-1,0
1523634022964,-6160384,93,-56,-1,-1,0
1523634022964,-5505024,93,-56,-1,-1,0
1523634023004,-3735552,93,-56,-1,-1,0
1523634023004,-2031616,93,-56,-1,-1,0
1523634023004,-1179648,93,-56,-1,-1,0
1523634023004,-983040,93,-56,-1,-1,0
1523634023004,-917504,93,-56,-1,-1,0
1523634023044,-720896,93,-56,-1,-1,0
1523634023044,-655360,93,-56,-1,-1,0
1523634023044,-720896,93,-56,-1,-1,0
1523634023044,-589824,93,-56,-1,-1,0
1523634023044,-393216,93,-56,-1,-1,0
1523634023084,-262144,93,-56,-1,-1,0
1523634023084,-196608,93,-56,-1,-1,0
1523634023084,0,93,-56,-1,-1,0
1523634023084,196608,93,-56,-1,-1,0
1523634023084,327680,93,-56,-1,-1,0
1523634023124,786432,93,-56,-1,-1,0
1523634023124,1441792,93,-56,-1,-1,0
1523634023124,2162688,93,-56,-1,-1,0
1523634023124,2752512,93,-56,-1,-1,0
1523634023124,3342336,93,-56,-1,-1,0
1523634023164,3801088,93,-56,-1,-1,0
1523634023164,3997696,93,-56,-1,-1,0
1523634023164,3866624,93,-56,-1,-1,0
1523634023164,3538944,93,-56,-1,-1,0
1523634023164,3014656,93,-56,-1,-1,0
1523634023204,2359296,93,-56,-1,-1,0
1523634023204,1703936,93,-56,-1,-1,0
1523634023204,917504,93,-56,-1,-1,0
1523634023204,262144,93,-56,-1,-1,0
1523634023204,-196608,93,-56,-1,-1,0
1523634023244,-524288,93,-56,-1,-1,0
1523634023244,-786432,93,-56,-1,-1,0
1523634023244,-1048576,93,-56,-1,-1,0
1523634023244,-1310720,93,-56,-1,-1,0
1523634023244,-1441792,93,-56,-1,-1,0
1523634023284,-1376256,93,-56,-1,-1,0
1523634023284,-1441792,93,-56,-1,-1,0
1523634023284,-1376256,93,-56,-1,-1,0
1523634023284,-1310720,93,-56,-1,-1,0
1523634023284,-1310720,93,-56,-1,-1,0
1523634023324,-1245184,93,-56,-1,-1,0
1523634023324,-1179648,93,-56,-1,-1,0
1523634023324,-1114112,93,-56,-1,-1,0
1523634023324,-1114112,93,-56,-1,-1,0
1523634023324,-1114112,93,-56,-1,-1,0
1523634023364,-1048576,93,-56,-1,-1,0
1523634023364,-1048576,93,-56,-1,-1,0
1523634023364,-1048576,93,-56,-1,-1,0
1523634023364,-1114112,93,-56,-1,-1,0
1523634023364,-1245184,93,-56,-1,-1,0
1523634023406,-1310720,93,-56,-1,-1,0
1523634023406,-1376256,93,-56,-1,-1,0
1523634023406,-1376256,93,-56,-1,-1,0
1523634023406,-1441792,93,-56,-1,-1,0
1523634023406,-1441792,93,-56,-1,-1,0
1523634023444,-1441792,93,-56,-1,-1,0
1523634023444,-1441792,93,-56,-1,-1,0
1523634023444,-1376256,93,-56,-1,-1,0
1523634023444,-1310720,93,-56,-1,-1,0
1523634023444,-1245184,93,-56,-1,-1,0
1523634023484,-1310720,93,-56,-1,-1,0
1523634023484,-1310720,93,-56,-1,-1,0
1523634023484,-1376256,93,-56,-1,-1,0
1523634023484,-1376256,93,-56,-1,-1,0
1523634023484,-1376256,93,-56,-1,-1,0
1523634023524,-1310720,93,-56,-1,-1,0
1523634023524,-1245184,93,-56,-1,-1,0
1523634023524,-1310720,93,-56,-1,-1,0
1523634023524,-1310720,93,-56,-1,-1,0
1523634023524,-1376256,93,-56,-1,-1,0
1523634023564,-1376256,93,-56,-1,-1,0
1523634023564,-1310720,93,-56,-1,-1,0
1523634023564,-1245184,93,-56,-1,-1,0
1523634023564,-1310720,93,-56,-1,-1,0
1523634023564,-1441792,93,-56,-1,-1,0
1523634023604,-720896,93,-56,-1,-1,0
1523634023604,2490368,93,-56,-1,-1,0
1523634023604,7602176,93,-56,-1,-1,0
1523634023604,10420224,93,-56,-1,-1,0
1523634023604,7208960,93,-56,-1,-1,0
1523634023644,262144,93,-56,-1,-1,0
1523634023644,-4915200,93,-56,-1,-1,0
1523634023644,-6160384,93,-56,-1,-1,0
1523634023644,-4915200,93,-56,-1,-1,0
1523634023644,-3211264,93,-56,-1,-1,0
1523634023684,-1900544,93,-56,-1,-1,0
1523634023684,-1245184,93,-56,-1,-1,0
1523634023684,-917504,93,-56,-1,-1,0
1523634023684,-851968,93,-56,-1,-1,0
1523634023684,-786432,93,-56,-1,-1,0
1523634023724,-655360,93,-56,-1,-1,0
1523634023724,-524288,93,-56,-1,-1,0
1523634023724,-327680,93,-56,-1,-1,0
1523634023724,-262144,93,-56,-1,-1,0
1523634023724,-131072,93,-56,-1,-1,0
1523634023764,65536,93,-56,-1,-1,0
1523634023764,327680,93,-56,-1,-1,0
1523634023764,524288,93,-56,-1,-1,0
1523634023764,983040,93,-56,-1,-1,0
1523634023764,1572864,93,-56,-1,-1,0
1523634023804,2228224,93,-56,-1,-1,0
1523634023804,2818048,93,-56,-1,-1,0
1523634023804,3473408,93,-56,-1,-1,0
1523634023804,3997696,93,-56,-1,-1,0
1523634023804,4390912,93,-56,-1,-1,0
1523634023844,4587520,93,-56,-1,-1,0
1523634023844,4521984,93,-56,-1,-1,0
1523634023844,4128768,93,-56,-1,-1,0
1523634023844,3473408,93,-56,-1,-1,0
1523634023844,2752512,93,-56,-1,-1,0
1523634023884,1966080,93,-56,-1,-1,0
1523634023884,1310720,93,-56,-1,-1,0
1523634023884,851968,93,-56,-1,-1,0
1523634023884,327680,93,-56,-1,-1,0
1523634023884,0,93,-56,-1,-1,0
1523634023924,-131072,93,-56,-1,-1,0
1523634023924,-262144,93,-56,-1,-1,0
1523634023924,-589824,93,-56,-1,-1,0
1523634023924,-851968,93,-56,-1,-1,0
1523634023924,-851968,93,-56,-1,-1,0
1523634023964,-655360,93,-56,-1,-1,0
1523634023964,-589824,93,-56,-1,-1,0
1523634023964,-524288,93,-56,-1,-1,0
1523634023964,-458752,93,-56,-1,-1,0
1523634023964,-393216,93,-56,-1,-1,0
1523634024004,-524288,93,-56,-1,-1,0
1523634024004,-524288,93,-56,-1,-1,0
1523634024004,-393216,93,-56,-1,-1,0
1523634024004,-196608,93,-56,-1,-1,0
1523634024004,-262144,93,-56,-1,-1,0
1523634024046,-393216,93,-56,-1,-1,0
1523634024046,-524288,93,-56,-1,-1,0
1523634024046,-524288,93,-56,-1,-1,0
1523634024046,-524288,93,-56,-1,-1,0
1523634024046,-589824,93,-56,-1,-1,0
1523634024084,-655360,93,-56,-1,-1,0
1523634024084,-720896,93,-56,-1,-1,0
1523634024084,-917504,93,-56,-1,-1,0
1523634024084,-1048576,93,-56,-1,-1,0
1523634024084,-1114112,93,-56,-1,-1,0
1523634024124,-1048576,93,-56,-1,-1,0
1523634024124,-917504,93,-56,-1,-1,0
1523634024124,-851968,93,-56,-1,-1,0
1523634024124,-720896,93,-56,-1,-1,0
1523634024124,-655360,93,-56,-1,-1,0
1523634024165,-720896,93,-56,-1,-1,0
1523634024165,-917504,93,-56,-1,-1,0
1523634024165,-983040,93,-56,-1,-1,0
1523634024165,-917504,93,-56,-1,-1,0
1523634024165,-851968,93,-56,-1,-1,0
1523634024204,-983040,93,-56,-1,-1,0
1523634024204,-983040,93,-56,-1,-1,0
1523634024204,-917504,93,-56,-1,-1,0
1523634024204,-983040,93,-56,-1,-1,0
1523634024204,-1048576,93,-56,-1,-1,0
1523634024244,-1048576,93,-56,-1,-1,0
1523634024244,-1048576,93,-56,-1,-1,0
1523634024244,-1114112,93,-56,-1,-1,0
1523634024244,-1179648,93,-56,-1,-1,0
1523634024244,-1310720,93,-56,-1,-1,0
1523634024284,-786432,93,-56,-1,-1,0
1523634024284,1703936,93,-56,-1,-1,0
1523634024284,5898240,93,-56,-1,-1,0
1523634024284,8126464,93,-56,-1,-1,0
1523634024284,5439488,93,-56,-1,-1,0
1523634024324,-65536,93,-56,-1,-1,0
1523634024324,-4325376,93,-56,-1,-1,0
1523634024324,-5898240,93,-56,-1,-1,0
1523634024324,-5439488,93,-56,-1,-1,0
1523634024324,-3932160,93,-56,-1,-1,0
1523634024364,-2424832,93,-56,-1,-1,0
1523634024364,-1703936,93,-56,-1,-1,0
1523634024364,-1441792,93,-56,-1,-1,0
1523634024364,-1310720,93,-56,-1,-1,0
1523634024364,-1179648,93,-56,-1,-1,0
1523634024404,-1179648,93,-56,-1,-1,0
1523634024404,-1245184,93,-56,-1,-1,0
1523634024404,-1245184,93,-56,-1,-1,0
1523634024404,-983040,93,-56,-1,-1,0
1523634024404,-786432,93,-56,-1,-1,0
1523634024445,-655360,93,-56,-1,-1,0
1523634024445,-458752,93,-56,-1,-1,0
1523634024445,-262144,93,-56,-1,-1,0
1523634024445,0,93,-56,-1,-1,0
1523634024445,393216,93,-56,-1,-1,0
1523634024484,983040,93,-56,-1,-1,0
1523634024484,1638400,93,-56,-1,-1,0
1523634024484,2293760,93,-56,-1,-1,0
1523634024484,2883584,93,-56,-1,-1,0
1523634024484,3211264,93,-56,-1,-1,0
1523634024524,3407872,93,-56,-1,-1,0
1523634024524,3407872,93,-56,-1,-1,0
1523634024524,3211264,93,-56,-1,-1,0
1523634024524,2883584,93,-56,-1,-1,0
1523634024524,2424832,93,-56,-1,-1,0
1523634024565,1703936,93,-56,-1,-1,0
1523634024565,983040,93,-56,-1,-1,0
1523634024565,458752,93,-56,-1,-1,0
1523634024565,0,93,-56,-1,-1,0
1523634024565,-458752,93,-56,-1,-1,0
1523634024604,-655360,93,-56,-1,-1,0
1523634024604,-589824,93,-56,-1,-1,0
1523634024604,-655360,93,-56,-1,-1,0
1523634024604,-786432,93,-56,-1,-1,0
1523634024604,-786432,93,-56,-1,-1,0
1523634024644,-720896,93,-56,-1,-1,0
1523634024644,-786432,93,-56,-1,-1,0
1523634024644,-786432,93,-56,-1,-1,0
1523634024644,-786432,93,-56,-1,-1,0
1523634024644,-851968,93,-56,-1,-1,0
1523634024686,-786432,93,-56,-1,-1,0
1523634024686,-524288,93,-56,-1,-1,0
1523634024686,-262144,93,-56,-1,-1,0
1523634024686,-327680,93,-56,-1,-1,0
1523634024686,-458752,93,-56,-1,-1,0
1523634024724,-524288,93,-56,-1,-1,0
1523634024724,-458752,93,-56,-1,-1,0
1523634024724,-524288,93,-56,-1,-1,0
1523634024724,-589824,93,-56,-1,-1,0
1523634024724,-655360,93,-56,-1,-1,0
1523634024764,-720896,93,-56,-1,-1,0
1523634024764,-786432,93,-56,-1,-1,0
1523634024764,-851968,93,-56,-1,-1,0
1523634024764,-851968,93,-56,-1,-1,0
1523634024764,-786432,93,-56,-1,-1,0
1523634024804,-655360,93,-56,-1,-1,0
1523634024804,-458752,93,-56,-1,-1,0
1523634024804,-589824,93,-56,-1,-1,0
1523634024804,-720896,93,-56,-1,-1,0
1523634024804,-720896,93,-56,-1,-1,0
1523634024845,-589824,93,-56,-1,-1,0
1523634024845,-589824,93,-56,-1,-1,0
1523634024845,-655360,93,-56,-1,-1,0
1523634024845,-720896,93,-56,-1,-1,0
1523634024845,-720896,93,-56,-1,-1,0
1523634024884,-655360,93,-56,-1,-1,0
1523634024884,-655360,93,-56,-1,-1,0
1523634024884,-589824,93,-56,-1,-1,0
1523634024884,-589824,93,-56,-1,-1,0
1523634024884,-720896,93,-56,-1,-1,0
1523634024924,-720896,93,-56,-1,-1,0
1523634024924,-655360,93,-56,-1,-1,0
1523634024924,-786432,93,-56,-1,-1,0
1523634024924,-458752,93,-56,-1,-1,0
1523634024924,2097152,93,-56,-1,-1,0
1523634024964,7012352,93,-56,-1,-1,0
1523634024964,10354688,93,-56,-1,-1,0
1523634024964,8192000,93,-56,-1,-1,0
1523634024964,1703936,93,-56,-1,-1,0
1523634024964,-3604480,93,-56,-1,-1,0
1523634025005,-5373952,93,-56,-1,-1,0
1523634025005,-4784128,93,-56,-1,-1,0
1523634025005,-3211264,93,-56,-1,-1,0
1523634025005,-1900544,93,-56,-1,-1,0
1523634025005,-1048576,93,-56,-1,-1,0
1523634025044,-589824,93,-56,-1,-1,0
1523634025044,-327680,93,-56,-1,-1,0
1523634025044,-393216,93,-56,-1,-1,0
1523634025044,-458752,93,-56,-1,-1,0
1523634025044,-262144,93,-56,-1,-1,0
1523634025085,0,93,-56,-1,-1,0
1523634025085,0,93,-56,-1,-1,0
1523634025085,0,93,-56,-1,-1,0
1523634025085,65536,93,-56,-1,-1,0
1523634025085,327680,93,-56,-1,-1,0
1523634025124,655360,93,-56,-1,-1,0
1523634025124,1048576,93,-56,-1,-1,0
1523634025124,1638400,93,-56,-1,-1,0
1523634025124,2293760,93,-56,-1,-1,0
1523634025124,2949120,93,-56,-1,-1,0
1523634025164,3538944,93,-56,-1,-1,0
1523634025164,3997696,93,-56,-1,-1,0
1523634025164,4390912,93,-56,-1,-1,0
1523634025164,4587520,93,-56,-1,-1,0
1523634025164,4521984,93,-56,-1,-1,0
1523634025204,4194304,93,-56,-1,-1,0
1523634025204,3604480,93,-56,-1,-1,0
1523634025204,2949120,93,-56,-1,-1,0
1523634025204,2162688,93,-56,-1,-1,0
1523634025204,1507328,93,-56,-1,-1,0
1523634025245,1048576,93,-56,-1,-1,0
1523634025245,655360,93,-56,-1,-1,0
1523634025245,131072,93,-56,-1,-1,0
1523634025245,-131072,93,-56,-1,-1,0
1523634025245,-262144,93,-56,-1,-1,0
1523634025284,-327680,93,-56,-1,-1,0
1523634025284,-393216,93,-56,-1,-1,0
1523634025284,-458752,93,-56,-1,-1,0
1523634025284,-458752,93,-56,-1,-1,0
1523634025284,-458752,93,-56,-1,-1,0
1523634025326,-327680,93,-56,-1,-1,0
1523634025326,-262144,93,-56,-1,-1,0
1523634025326,-262144,93,-56,-1,-1,0
1523634025326,-262144,93,-56,-1,-1,0
1523634025326,-262144,93,-56,-1,-1,0
1523634025364,-327680,93,-56,-1,-1,0
1523634025364,-393216,93,-56,-1,-1,0
1523634025364,-327680,93,-56,-1,-1,0
1523634025364,-196608,93,-56,-1,-1,0
1523634025364,-262144,93,-56,-1,-1,0
1523634025405,-458752,93,-56,-1,-1,0
1523634025405,-589824,93,-56,-1,-1,0
1523634025405,-655360,93,-56,-1,-1,0
1523634025405,-589824,93,-56,-1,-1,0
1523634025405,-458752,93,-56,-1,-1,0
1523634025445,-262144,93,-56,-1,-1,0
1523634025445,-196608,93,-56,-1,-1,0
1523634025445,-327680,93,-56,-1,-1,0
1523634025445,-458752,93,-56,-1,-1,0
1523634025445,-589824,93,-56,-1,-1,0
1523634025485,-589824,93,-56,-1,-1,0
1523634025485,-655360,93,-56,-1,-1,0
1523634025485,-720896,93,-56,-1,-1,0
1523634025485,-720896,93,-56,-1,-1,0
1523634025485,-589824,93,-56,-1,-1,0
1523634025525,-589824,93,-56,-1,-1,0
1523634025525,-655360,93,-56,-1,-1,0
1523634025525,-589824,93,-56,-1,-1,0
1523634025525,-524288,93,-56,-1,-1,0
1523634025525,-524288,93,-56,-1,-1,0
1523634025564,-589824,93,-56,-1,-1,0
1523634025564,-655360,93,-56,-1,-1,0
1523634025564,-786432,93,-56,-1,-1,0
1523634025564,-917504,93,-56,-1,-1,0
1523634025564,-196608,93,-56,-1,-1,0
1523634025605,2883584,93,-56,-1,-1,0
1523634025605,8060928,93,-56,-1,-1,0
1523634025605,10682368,93,-56,-1,-1,0
1523634025605,7143424,93,-56,-1,-1,0
1523634025605,262144,93,-56,-1,-1,0
1523634025644,-4587520,93,-56,-1,-1,0
1523634025644,-5636096,93,-56,-1,-1,0
1523634025644,-4587520,93,-56,-1,-1,0
1523634025644,-2818048,93,-56,-1,-1,0
1523634025644,-1572864,93,-56,-1,-1,0
1523634025685,-1048576,93,-56,-1,-1,0
1523634025685,-786432,93,-56,-1,-1,0
1523634025685,-589824,93,-56,-1,-1,0
1523634025685,-524288,93,-56,-1,-1,0
1523634025685,-524288,93,-56,-1,-1,0
1523634025725,-458752,93,-56,-1,-1,0
1523634025725,-327680,93,-56,-1,-1,0
1523634025725,-196608,93,-56,-1,-1,0
1523634025725,-65536,93,-56,-1,-1,0
1523634025725,0,93,-56,-1,-1,0
1523634025765,196608,93,-56,-1,-1,0
1523634025765,393216,93,-56,-1,-1,0
1523634025765,786432,93,-56,-1,-1,0
1523634025765,1179648,93,-56,-1,-1,0
1523634025765,1769472,93,-56,-1,-1,0
1523634025805,2490368,93,-56,-1,-1,0
1523634025805,3211264,93,-56,-1,-1,0
1523634025805,3670016,93,-56,-1,-1,0
1523634025805,3866624,93,-56,-1,-1,0
1523634025805,3866624,93,-56,-1,-1,0
1523634025845,3604480,93,-56,-1,-1,0
1523634025845,3145728,93,-56,-1,-1,0
1523634025845,2555904,93,-56,-1,-1,0
1523634025845,1900544,93,-56,-1,-1,0
1523634025845,1245184,93,-56,-1,-1,0
1523634025885,589824,93,-56,-1,-1,0
1523634025885,65536,93,-56,-1,-1,0
1523634025885,-327680,93,-56,-1,-1,0
1523634025885,-655360,93,-56,-1,-1,0
1523634025885,-917504,93,-56,-1,-1,0
1523634025925,-1179648,93,-56,-1,-1,0
1523634025925,-1245184,93,-56,-1,-1,0
1523634025925,-1310720,93,-56,-1,-1,0
1523634025925,-1376256,93,-56,-1,-1,0
1523634025925,-1376256,93,-56,-1,-1,0
1523634025966,-1310720,93,-56,-1,-1,0
1523634025966,-1245184,93,-56,-1,-1,0
1523634025966,-1179648,93,-56,-1,-1,0
1523634025966,-1179648,93,-56,-1,-1,0
1523634025966,-1179648,93,-56,-1,-1,0
1523634026005,-1114112,93,-56,-1,-1,0
1523634026005,-1048576,93,-56,-1,-1,0
1523634026005,-917504,93,-56,-1,-1,0
1523634026005,-1048576,93,-56,-1,-1,0
1523634026005,-1245184,93,-56,-1,-1,0
1523634026045,-1245184,93,-56,-1,-1,0
1523634026045,-1310720,93,-56,-1,-1,0
1523634026045,-1572864,93,-56,-1,-1,0
1523634026045,-1638400,93,-56,-1,-1,0
1523634026045,-1572864,93,-56,-1,-1,0
1523634026085,-1507328,93,-56,-1,-1,0
1523634026085,-1441792,93,-56,-1,-1,0
1523634026085,-1376256,93,-56,-1,-1,0
1523634026085,-1310720,93,-56,-1,-1,0
1523634026085,-1245184,93,-56,-1,-1,0
1523634026125,-1376256,93,-56,-1,-1,0
1523634026125,-1572864,93,-56,-1,-1,0
1523634026125,-1638400,93,-56,-1,-1,0
1523634026125,-1638400,93,-56,-1,-1,0
1523634026125,-1572864,93,-56,-1,-1,0
1523634026165,-1507328,93,-56,-1,-1,0
1523634026165,-1507328,93,-56,-1,-1,0
1523634026165,-1572864,93,-56,-1,-1,0
1523634026165,-1572864,93,-56,-1,-1,0
1523634026165,-1507328,93,-56,-1,-1,0
1523634026205,-1507328,93,-56,-1,-1,0
1523634026205,-1441792,93,-56,-1,-1,0
1523634026205,-1441792,93,-56,-1,-1,0
1523634026205,-1507328,93,-56,-1,-1,0
1523634026205,-851968,93,-56,-1,-1,0
1523634026245,2097152,93,-56,-1,-1,0
1523634026245,7143424,93,-56,-1,-1,0
1523634026245,9895936,93,-56,-1,-1,0
1523634026245,6619136,93,-56,-1,-1,0
1523634026245,-262144,93,-56,-1,-1,0
1523634026285,-5373952,93,-56,-1,-1,0
1523634026285,-6553600,93,-56,-1,-1,0
1523634026285,-5505024,93,-56,-1,-1,0
1523634026285,-3670016,93,-56,-1,-1,0
1523634026285,-2359296,93,-56,-1,-1,0
1523634026325,-1769472,93,-56,-1,-1,0
1523634026325,-1507328,93,-56,-1,-1,0
1523634026325,-1376256,93,-56,-1,-1,0
1523634026325,-1245184,93,-56,-1,-1,0
1523634026325,-1114112,93,-56,-1,-1,0
1523634026365,-983040,93,-56,-1,-1,0
1523634026365,-917504,93,-56,-1,-1,0
1523634026365,-786432,93,-56,-1,-1,0
1523634026365,-589824,93,-56,-1,-1,0
1523634026365,-327680,93,-56,-1,-1,0
1523634026405,-131072,93,-56,-1,-1,0
1523634026405,0,93,-56,-1,-1,0
1523634026405,393216,93,-56,-1,-1,0
1523634026405,851968,93,-56,-1,-1,0
1523634026405,1507328,93,-56,-1,-1,0
1523634026445,2162688,93,-56,-1,-1,0
1523634026445,2752512,93,-56,-1,-1,0
1523634026445,3276800,93,-56,-1,-1,0
1523634026445,3538944,93,-56,-1,-1,0
1523634026445,3473408,93,-56,-1,-1,0
1523634026485,3342336,93,-56,-1,-1,0
1523634026485,3014656,93,-56,-1,-1,0
1523634026485,2555904,93,-56,-1,-1,0
1523634026485,1900544,93,-56,-1,-1,0
1523634026485,1179648,93,-56,-1,-1,0
1523634026525,524288,93,-56,-1,-1,0
1523634026525,131072,93,-56,-1,-1,0
1523634026525,-131072,93,-56,-1,-1,0
1523634026525,-524288,93,-56,-1,-1,0
1523634026525,-851968,93,-56,-1,-1,0
1523634026565,-1114112,93,-56,-1,-1,0
1523634026565,-1310720,93,-56,-1,-1,0
1523634026565,-1310720,93,-56,-1,-1,0
1523634026565,-1245184,93,-56,-1,-1,0
1523634026565,-1245184,93,-56,-1,-1,0
1523634026606,-1245184,93,-56,-1,-1,0
1523634026606,-1114112,93,-56,-1,-1,0
1523634026606,-983040,93,-56,-1,-1,0
1523634026606,-917504,93,-56,-1,-1,0
1523634026606,-983040,93,-56,-1,-1,0
1523634026645,-917504,93,-56,-1,-1,0
1523634026645,-851968,93,-56,-1,-1,0
1523634026645,-851968,93,-56,-1,-1,0
1523634026645,-917504,93,-56,-1,-1,0
1523634026645,-983040,93,-56,-1,-1,0
1523634026685,-983040,93,-56,-1,-1,0
1523634026685,-983040,93,-56,-1,-1,0
1523634026685,-1048576,93,-56,-1,-1,0
1523634026685,-1048576,93,-56,-1,-1,0
1523634026685,-1048576,93,-56,-1,-1,0
1523634026725,-1048576,93,-56,-1,-1,0
1523634026725,-983040,93,-56,-1,-1,0
1523634026725,-1048576,93,-56,-1,-1,0
1523634026725,-1114112,93,-56,-1,-1,0
1523634026725,-1179648,93,-56,-1,-1,0
1523634026765,-1114112,93,-56,-1,-1,0
1523634026765,-1179648,93,-56,-1,-1,0
1523634026765,-1179648,93,-56,-1,-1,0
1523634026765,-1179648,93,-56,-1,-1,0
1523634026765,-1245184,93,-56,-1,-1,0
1523634026805,-1310720,93,-56,-1,-1,0
1523634026805,-1376256,93,-56,-1,-1,0
1523634026805,-1310720,93,-56,-1,-1,0
1523634026805,-1245184,93,-56,-1,-1,0
1523634026805,-1179648,93,-56,-1,-1,0
1523634026845,-1179648,93,-56,-1,-1,0
1523634026845,-1376256,93,-56,-1,-1,0
1523634026845,-1441792,93,-56,-1,-1,0
1523634026845,-65536,93,-56,-1,-1,0
1523634026845,3735552,93,-56,-1,-1,0
1523634026885,8126464,93,-56,-1,-1,0
1523634026885,8781824,93,-56,-1,-1,0
1523634026885,4390912,93,-56,-1,-1,0
1523634026885,-1572864,93,-56,-1,-1,0
1523634026885,-5308416,93,-56,-1,-1,0
1523634026925,-5767168,93,-56,-1,-1,0
1523634026925,-4521984,93,-56,-1,-1,0
1523634026925,-3014656,93,-56,-1,-1,0
1523634026925,-1966080,93,-56,-1,-1,0
1523634026925,-1310720,93,-56,-1,-1,0
1523634026965,-786432,93,-56,-1,-1,0
1523634026965,-720896,93,-56,-1,-1,0
1523634026965,-786432,93,-56,-1,-1,0
1523634026965,-720896,93,-56,-1,-1,0
1523634026965,-524288,93,-56,-1,-1,0
1523634027005,-458752,93,-56,-1,-1,0
1523634027005,-393216,93,-56,-1,-1,0
1523634027005,-262144,93,-56,-1,-1,0
1523634027005,0,93,-56,-1,-1,0
1523634027005,262144,93,-56,-1,-1,0
1523634027045,655360,93,-56,-1,-1,0
1523634027045,983040,93,-56,-1,-1,0
1523634027045,1441792,93,-56,-1,-1,0
1523634027045,1966080,93,-56,-1,-1,0
1523634027045,2490368,93,-56,-1,-1,0
1523634027085,3211264,93,-56,-1,-1,0
1523634027085,3735552,93,-56,-1,-1,0
1523634027085,3932160,93,-56,-1,-1,0
1523634027085,3866624,93,-56,-1,-1,0
1523634027085,3604480,93,-56,-1,-1,0
1523634027125,3211264,93,-56,-1,-1,0
1523634027125,2752512,93,-56,-1,-1,0
1523634027125,2228224,93,-56,-1,-1,0
1523634027125,1572864,93,-56,-1,-1,0
1523634027125,983040,93,-56,-1,-1,0
1523634027165,393216,93,-56,-1,-1,0
1523634027165,65536,93,-56,-1,-1,0
1523634027165,-65536,93,-56,-1,-1,0
1523634027165,-393216,93,-56,-1,-1,0
1523634027165,-655360,93,-56,-1,-1,0
1523634027205,-589824,93,-56,-1,-1,0
1523634027205,-524288,93,-56,-1,-1,0
1523634027205,-524288,93,-56,-1,-1,0
1523634027205,-524288,93,-56,-1,-1,0
1523634027205,-524288,93,-56,-1,-1,0
1523634027246,-524288,93,-56,-1,-1,0
1523634027246,-458752,93,-56,-1,-1,0
1523634027246,-393216,93,-56,-1,-1,0
1523634027246,-458752,93,-56,-1,-1,0
1523634027246,-524288,93,-56,-1,-1,0
1523634027285,-393216,93,-56,-1,-1,0
1523634027285,-393216,93,-56,-1,-1,0
1523634027285,-589824,93,-56,-1,-1,0
1523634027285,-720896,93,-56,-1,-1,0
1523634027285,-786432,93,-56,-1,-1,0
1523634027325,-851968,93,-56,-1,-1,0
1523634027325,-917504,93,-56,-1,-1,0
1523634027325,-851968,93,-56,-1,-1,0
1523634027325,-851968,93,-56,-1,-1,0
1523634027325,-786432,93,-56,-1,-1,0
1523634027365,-720896,93,-56,-1,-1,0
1523634027365,-720896,93,-56,-1,-1,0
1523634027365,-786432,93,-56,-1,-1,0
1523634027365,-851968,93,-56,-1,-1,0
1523634027365,-917504,93,-56,-1,-1,0
1523634027405,-983040,93,-56,-1,-1,0
1523634027405,-851968,93,-56,-1,-1,0
1523634027405,-983040,93,-56,-1,-1,0
1523634027405,-1179648,93,-56,-1,-1,0
1523634027405,-1114112,93,-56,-1,-1,0
1523634027445,-1048576,93,-56,-1,-1,0
1523634027445,-1048576,93,-56,-1,-1,0
1523634027445,-1048576,93,-56,-1,-1,0
1523634027445,-1048576,93,-56,-1,-1,0
1523634027445,-1048576,93,-56,-1,-1,0
1523634027485,-1245184,93,-56,-1,-1,0
1523634027485,-1179648,93,-56,-1,-1,0
1523634027485,196608,93,-56,-1,-1,0
1523634027485,4063232,93,-56,-1,-1,0
1523634027485,8126464,93,-56,-1,-1,0
1523634027525,8454144,93,-56,-1,-1,0
1523634027525,3932160,93,-56,-1,-1,0
1523634027525,-1703936,93,-56,-1,-1,0
1523634027525,-4980736,93,-56,-1,-1,0
1523634027525,-5373952,93,-56,-1,-1,0
1523634027565,-4259840,93,-56,-1,-1,0
1523634027565,-2752512,93,-56,-1,-1,0
1523634027565,-1703936,93,-56,-1,-1,0
1523634027565,-1245184,93,-56,-1,-1,0
1523634027565,-1179648,93,-56,-1,-1,0
1523634027605,-1048576,93,-56,-1,-1,0
1523634027605,-851968,93,-56,-1,-1,0
1523634027605,-851968,93,-56,-1,-1,0
1523634027605,-983040,93,-56,-1,-1,0
1523634027605,-1048576,93,-56,-1,-1,0
1523634027645,-851968,93,-56,-1,-1,0
1523634027645,-524288,93,-56,-1,-1,0
1523634027645,-393216,93,-56,-1,-1,0
1523634027645,-262144,93,-56,-1,-1,0
1523634027645,0,93,-56,-1,-1,0
1523634027685,262144,93,-56,-1,-1,0
1523634027685,720896,93,-56,-1,-1,0
1523634027685,1376256,93,-56,-1,-1,0
1523634027685,2097152,93,-56,-1,-1,0
1523634027685,2621440,93,-56,-1,-1,0
1523634027725,2752512,93,-56,-1,-1,0
1523634027725,2621440,93,-56,-1,-1,0
1523634027725,2621440,93,-56,-1,-1,0
1523634027725,2752512,93,-56,-1,-1,0
1523634027725,2555904,93,-56,-1,-1,0
1523634027765,1966080,93,-56,-1,-1,0
1523634027765,1310720,93,-56,-1,-1,0
1523634027765,720896,93,-56,-1,-1,0
1523634027765,196608,93,-56,-1,-1,0
1523634027765,-327680,93,-56,-1,-1,0
1523634027805,-786432,93,-56,-1,-1,0
1523634027805,-1048576,93,-56,-1,-1,0
1523634027805,-1179648,93,-56,-1,-1,0
1523634027805,-1376256,93,-56,-1,-1,0
1523634027805,-1507328,93,-56,-1,-1,0
1523634027845,-1441792,93,-56,-1,-1,0
1523634027845,-1310720,93,-56,-1,-1,0
1523634027845,-1376256,93,-56,-1,-1,0
1523634027845,-1376256,93,-56,-1,-1,0
1523634027845,-1310720,93,-56,-1,-1,0
1523634027886,-1179648,93,-56,-1,-1,0
1523634027886,-1048576,93,-56,-1,-1,0
1523634027886,-1114112,93,-56,-1,-1,0
1523634027886,-1179648,93,-56,-1,-1,0
1523634027886,-1179648,93,-56,-1,-1,0
1523634027925,-1179648,93,-56,-1,-1,0
1523634027925,-1245184,93,-56,-1,-1,0
1523634027925,-1376256,93,-56,-1,-1,0
1523634027925,-1310720,93,-56,-1,-1,0
1523634027925,-1245184,93,-56,-1,-1,0
1523634027965,-1245184,93,-56,-1,-1,0
1523634027965,-1245184,93,-56,-1,-1,0
1523634027965,-1179648,93,-56,-1,-1,0
1523634027965,-1114112,93,-56,-1,-1,0
1523634027965,-1114112,93,-56,-1,-1,0
1523634028005,-1114112,93,-56,-1,-1,0
1523634028005,-1179648,93,-56,-1,-1,0
1523634028005,-1179648,93,-56,-1,-1,0
1523634028005,-1245184,93,-56,-1,-1,0
1523634028005,-1245184,93,-56,-1,-1,0
1523634028045,-1179648,93,-56,-1,-1,0
1523634028045,-1114112,93,-56,-1,-1,0
1523634028045,-1179648,93,-56,-1,-1,0
1523634028045,-1245184,93,-56,-1,-1,0
1523634028045,-1245184,93,-56,-1,-1,0
1523634028085,-1179648,93,-56,-1,-1,0
1523634028085,-1179648,93,-56,-1,-1,0
1523634028085,-1179648,93,-56,-1,-1,0
1523634028085,-1245184,93,-56,-1,-1,0
1523634028085,-1114112,93,-56,-1,-1,0
1523634028125,0,93,-56,-1,-1,0
1523634028125,3538944,93,-56,-1,-1,0
1523634028125,7864320,93,-56,-1,-1,0
1523634028125,8847360,93,-56,-1,-1,0
1523634028125,4653056,93,-56,-1,-1,0
1523634028165,-1114112,93,-56,-1,-1,0
1523634028165,-4915200,93,-56,-1,-1,0
1523634028165,-5570560,93,-56,-1,-1,0
1523634028165,-4587520,93,-56,-1,-1,0
1523634028165,-3276800,93,-56,-1,-1,0
1523634028205,-2031616,93,-56,-1,-1,0
1523634028205,-1048576,93,-56,-1,-1,0
1523634028205,-524288,93,-56,-1,-1,0
1523634028205,-458752,93,-56,-1,-1,0
1523634028205,-458752,93,-56,-1,-1,0
1523634028245,-458752,93,-56,-1,-1,0
1523634028245,-458752,93,-56,-1,-1,0
1523634028245,-327680,93,-56,-1,-1,0
1523634028245,-196608,93,-56,-1,-1,0
1523634028245,0,93,-56,-1,-1,0
1523634028285,327680,93,-56,-1,-1,0
1523634028285,655360,93,-56,-1,-1,0
1523634028285,851968,93,-56,-1,-1,0
1523634028285,1245184,93,-56,-1,-1,0
1523634028285,1835008,93,-56,-1,-1,0
1523634028325,2490368,93,-56,-1,-1,0
1523634028325,3145728,93,-56,-1,-1,0
1523634028325,3735552,93,-56,-1,-1,0
1523634028325,4128768,93,-56,-1,-1,0
1523634028325,4325376,93,-56,-1,-1,0
1523634028365,4128768,93,-56,-1,-1,0
1523634028365,3866624,93,-56,-1,-1,0
1523634028365,3604480,93,-56,-1,-1,0
1523634028365,3211264,93,-56,-1,-1,0
1523634028365,2424832,93,-56,-1,-1,0
1523634028405,1572864,93,-56,-1,-1,0
1523634028405,917504,93,-56,-1,-1,0
1523634028405,458752,93,-56,-1,-1,0
1523634028405,262144,93,-56,-1,-1,0
1523634028405,65536,93,-56,-1,-1,0
1523634028445,-131072,93,-56,-1,-1,0
1523634028445,-327680,93,-56,-1,-1,0
1523634028445,-262144,93,-56,-1,-1,0
1523634028445,-262144,93,-56,-1,-1,0
1523634028445,-262144,93,-56,-1,-1,0
1523634028485,-393216,93,-56,-1,-1,0
1523634028485,-327680,93,-56,-1,-1,0
1523634028485,-196608,93,-56,-1,-1,0
1523634028485,0,93,-56,-1,-1,0
1523634028485,0,93,-56,-1,-1,0
1523634028526,0,93,-56,-1,-1,0
1523634028526,0,93,-56,-1,-1,0
1523634028526,-65536,93,-56,-1,-1,0
1523634028526,0,93,-56,-1,-1,0
1523634028526,0,93,-56,-1,-1,0
1523634028565,-196608,93,-56,-1,-1,0
1523634028565,-327680,93,-56,-1,-1,0
1523634028565,-327680,93,-56,-1,-1,0
1523634028565,-262144,93,-56,-1,-1,0
1523634028565,-131072,93,-56,-1,-1,0
1523634028605,0,93,-56,-1,-1,0
1523634028605,0,93,-56,-1,-1,0
1523634028605,-65536,93,-56,-1,-1,0
1523634028605,-196608,93,-56,-1,-1,0
1523634028605,-262144,93,-56,-1,-1,0
1523634028645,-393216,93,-56,-1,-1,0
1523634028645,-524288,93,-56,-1,-1,0
1523634028645,-524288,93,-56,-1,-1,0
1523634028645,-458752,93,-56,-1,-1,0
1523634028645,-458752,93,-56,-1,-1,0
1523634028685,-458752,93,-56,-1,-1,0
1523634028685,-393216,93,-56,-1,-1,0
1523634028685,-327680,93,-56,-1,-1,0
1523634028685,-196608,93,-56,-1,-1,0
1523634028685,-262144,93,-56,-1,-1,0
1523634028725,-524288,93,-56,-1,-1,0
1523634028725,-327680,93,-56,-1,-1,0
1523634028725,1900544,93,-56,-1,-1,0
1523634028725,6881280,93,-56,-1,-1,0
1523634028725,11206656,93,-56,-1,-1,0
1523634028765,10158080,93,-56,-1,-1,0
1523634028765,3801088,93,-56,-1,-1,0
1523634028765,-2293760,93,-56,-1,-1,0
1523634028765,-4587520,93,-56,-1,-1,0
1523634028765,-3997696,93,-56,-1,-1,0
1523634028805,-2621440,93,-56,-1,-1,0
1523634028805,-1310720,93,-56,-1,-1,0
1523634028805,-589824,93,-56,-1,-1,0
1523634028805,-262144,93,-56,-1,-1,0
1523634028805,-65536,93,-56,-1,-1,0
1523634028845,-65536,93,-56,-1,-1,0
1523634028845,-65536,93,-56,-1,-1,0
1523634028845,-65536,93,-56,-1,-1,0
1523634028845,0,93,-56,-1,-1,0
1523634028845,65536,93,-56,-1,-1,0
1523634028885,131072,93,-56,-1,-1,0
1523634028885,458752,93,-56,-1,-1,0
1523634028885,851968,93,-56,-1,-1,0
1523634028885,1048576,93,-56,-1,-1,0
1523634028885,1245184,93,-56,-1,-1,0
1523634028925,1769472,93,-56,-1,-1,0
1523634028925,2424832,93,-56,-1,-1,0
1523634028925,3014656,93,-56,-1,-1,0
1523634028925,3538944,93,-56,-1,-1,0
1523634028925,3997696,93,-56,-1,-1,0
1523634028966,4325376,93,-56,-1,-1,0
1523634028966,4456448,93,-56,-1,-1,0
1523634028966,4194304,93,-56,-1,-1,0
1523634028966,3735552,93,-56,-1,-1,0
1523634028966,3211264,93,-56,-1,-1,0
1523634029005,2686976,93,-56,-1,-1,0
1523634029005,2031616,93,-56,-1,-1,0
1523634029005,1310720,93,-56,-1,-1,0
1523634029005,720896,93,-56,-1,-1,0
1523634029005,327680,93,-56,-1,-1,0
1523634029045,0,93,-56,-1,-1,0
1523634029045,-196608,93,-56,-1,-1,0
1523634029045,-327680,93,-56,-1,-1,0
1523634029045,-458752,93,-56,-1,-1,0
1523634029045,-720896,93,-56,-1,-1,0
1523634029085,-720896,93,-56,-1,-1,0
1523634029085,-589824,93,-56,-1,-1,0
1523634029085,-458752,93,-56,-1,-1,0
1523634029085,-393216,93,-56,-1,-1,0
1523634029085,-393216,93,-56,-1,-1,0
1523634029125,-524288,93,-56,-1,-1,0
1523634029125,-589824,93,-56,-1,-1,0
1523634029125,-589824,93,-56,-1,-1,0
1523634029125,-458752,93,-56,-1,-1,0
1523634029125,-458752,93,-56,-1,-1,0
1523634029166,-655360,93,-56,-1,-1,0
1523634029166,-851968,93,-56,-1,-1,0
1523634029166,-851968,93,-56,-1,-1,0
1523634029166,-720896,93,-56,-1,-1,0
1523634029166,-655360,93,-56,-1,-1,0
1523634029204,-720896,93,-56,-1,-1,0
1523634029204,-720896,93,-56,-1,-1,0
1523634029204,-851968,93,-56,-1,-1,0
1523634029204,-917504,93,-56,-1,-1,0
1523634029204,-983040,93,-56,-1,-1,0
1523634029244,-1048576,93,-56,-1,-1,0
1523634029244,-1048576,93,-56,-1,-1,0
1523634029244,-1114112,93,-56,-1,-1,0
1523634029244,-1245184,93,-56,-1,-1,0
1523634029244,-1245184,93,-56,-1,-1,0
1523634029284,-1310720,93,-56,-1,-1,0
1523634029284,-1376256,93,-56,-1,-1,0
1523634029284,-1310720,93,-56,-1,-1,0
1523634029284,-1179648,93,-56,-1,-1,0
1523634029284,-1310720,93,-56,-1,-1,0
1523634029324,-1638400,93,-56,-1,-1,0
1523634029324,-1638400,93,-56,-1,-1,0
1523634029324,262144,93,-56,-1,-1,0
1523634029324,4980736,93,-56,-1,-1,0
1523634029324,9371648,93,-56,-1,-1,0
1523634029364,8847360,93,-56,-1,-1,0
1523634029364,3276800,93,-56,-1,-1,0
1523634029364,-2686976,93,-56,-1,-1,0
1523634029364,-5570560,93,-56,-1,-1,0
1523634029364,-5373952,93,-56,-1,-1,0
1523634029404,-3866624,93,-56,-1,-1,0
1523634029404,-2555904,93,-56,-1,-1,0
1523634029404,-1835008,93,-56,-1,-1,0
1523634029404,-1572864,93,-56,-1,-1,0
1523634029404,-1507328,93,-56,-1,-1,0
1523634029444,-1507328,93,-56,-1,-1,0
1523634029444,-1310720,93,-56,-1,-1,0
1523634029444,-1179648,93,-56,-1,-1,0
1523634029444,-1048576,93,-56,-1,-1,0
1523634029444,-917504,93,-56,-1,-1,0
1523634029484,-786432,93,-56,-1,-1,0
1523634029484,-589824,93,-56,-1,-1,0
1523634029484,-327680,93,-56,-1,-1,0
1523634029484,-131072,93,-56,-1,-1,0
1523634029484,65536,93,-56,-1,-1,0
1523634029526,524288,93,-56,-1,-1,0
1523634029526,1179648,93,-56,-1,-1,0
1523634029526,1769472,93,-56,-1,-1,0
1523634029526,2359296,93,-56,-1,-1,0
1523634029526,2949120,93,-56,-1,-1,0
1523634029564,3342336,93,-56,-1,-1,0
1523634029564,3342336,93,-56,-1,-1,0
1523634029564,3145728,93,-56,-1,-1,0
1523634029564,3014656,93,-56,-1,-1,0
1523634029564,2621440,93,-56,-1,-1,0
1523634029604,2097152,93,-56,-1,-1,0
1523634029604,1638400,93,-56,-1,-1,0
1523634029604,1048576,93,-56,-1,-1,0
1523634029604,327680,93,-56,-1,-1,0
1523634029604,-327680,93,-56,-1,-1,0
1523634029644,-655360,93,-56,-1,-1,0
1523634029644,-786432,93,-56,-1,-1,0
1523634029644,-851968,93,-56,-1,-1,0
1523634029644,-1048576,93,-56,-1,-1,0
1523634029644,-1114112,93,-56,-1,-1,0
1523634029684,-1179648,93,-56,-1,-1,0
1523634029684,-1114112,93,-56,-1,-1,0
1523634029684,-1048576,93,-56,-1,-1,0
1523634029684,-1048576,93,-56,-1,-1,0
1523634029684,-1048576,93,-56,-1,-1,0
1523634029724,-917504,93,-56,-1,-1,0
1523634029724,-917504,93,-56,-1,-1,0
1523634029724,-917504,93,-56,-1,-1,0
1523634029724,-917504,93,-56,-1,-1,0
1523634029724,-983040,93,-56,-1,-1,0
1523634029764,-1048576,93,-56,-1,-1,0
1523634029764,-983040,93,-56,-1,-1,0
1523634029764,-917504,93,-56,-1,-1,0
1523634029764,-983040,93,-56,-1,-1,0
1523634029764,-983040,93,-56,-1,-1,0
1523634029806,-917504,93,-56,-1,-1,0
1523634029806,-917504,93,-56,-1,-1,0
1523634029806,-1048576,93,-56,-1,-1,0
1523634029806,-1114112,93,-56,-1,-1,0
1523634029806,-1179648,93,-56,-1,-1,0
1523634029844,-1245184,93,-56,-1,-1,0
1523634029844,-1376256,93,-56,-1,-1,0
1523634029844,-1310720,93,-56,-1,-1,0
1523634029844,-1114112,93,-56,-1,-1,0
1523634029844,-1048576,93,-56,-1,-1,0
1523634029884,-1048576,93,-56,-1,-1,0
1523634029884,-1048576,93,-56,-1,-1,0
1523634029884,-1114112,93,-56,-1,-1,0
1523634029884,-1245184,93,-56,-1,-1,0
1523634029884,-1376256,93,-56,-1,-1,0
1523634029924,-1376256,93,-56,-1,-1,0
1523634029924,-131072,93,-56,-1,-1,0
1523634029924,3735552,93,-56,-1,-1,0
1523634029924,8781824,93,-56,-1,-1,0
1523634029924,10223616,93,-56,-1,-1,0
1523634029964,5832704,93,-56,-1,-1,0
1523634029964,-589824,93,-56,-1,-1,0
1523634029964,-4915200,93,-56,-1,-1,0
1523634029964,-5767168,93,-56,-1,-1,0
1523634029964,-4587520,93,-56,-1,-1,0
1523634030004,-2883584,93,-56,-1,-1,0
1523634030004,-1703936,93,-56,-1,-1,0
1523634030004,-1048576,93,-56,-1,-1,0
1523634030004,-786432,93,-56,-1,-1,0
1523634030004,-655360,93,-56,-1,-1,0
1523634030044,-589824,93,-56,-1,-1,0
1523634030044,-393216,93,-56,-1,-1,0
1523634030044,-262144,93,-56,-1,-1,0
1523634030044,-196608,93,-56,-1,-1,0
1523634030044,-65536,93,-56,-1,-1,0
1523634030084,65536,93,-56,-1,-1,0
1523634030084,131072,93,-56,-1,-1,0
1523634030084,393216,93,-56,-1,-1,0
1523634030084,786432,93,-56,-1,-1,0
1523634030084,1310720,93,-56,-1,-1,0
1523634030124,1835008,93,-56,-1,-1,0
1523634030124,2490368,93,-56,-1,-1,0
1523634030124,3080192,93,-56,-1,-1,0
1523634030124,3670016,93,-56,-1,-1,0
1523634030124,4194304,93,-56,-1,-1,0
1523634030164,4325376,93,-56,-1,-1,0
1523634030164,4325376,93,-56,-1,-1,0
1523634030164,4063232,93,-56,-1,-1,0
1523634030164,3538944,93,-56,-1,-1,0
1523634030164,2949120,93,-56,-1,-1,0
1523634030204,2293760,93,-56,-1,-1,0
1523634030204,1507328,93,-56,-1,-1,0
1523634030204,720896,93,-56,-1,-1,0
1523634030204,196608,93,-56,-1,-1,0
1523634030204,-65536,93,-56,-1,-1,0
1523634030244,-262144,93,-56,-1,-1,0
1523634030244,-524288,93,-56,-1,-1,0
1523634030244,-655360,93,-56,-1,-1,0
1523634030244,-524288,93,-56,-1,-1,0
1523634030244,-458752,93,-56,-1,-1,0
1523634030284,-589824,93,-56,-1,-1,0
1523634030284,-720896,93,-56,-1,-1,0
1523634030284,-655360,93,-56,-1,-1,0
1523634030284,-589824,93,-56,-1,-1,0
1523634030284,-458752,93,-56,-1,-1,0
1523634030324,-393216,93,-56,-1,-1,0
1523634030324,-458752,93,-56,-1,-1,0
1523634030324,-524288,93,-56,-1,-1,0
1523634030324,-393216,93,-56,-1,-1,0
1523634030324,-262144,93,-56,-1,-1,0
1523634030364,-262144,93,-56,-1,-1,0
1523634030364,-393216,93,-56,-1,-1,0
1523634030364,-393216,93,-56,-1,-1,0
1523634030364,-458752,93,-56,-1,-1,0
1523634030364,-589824,93,-56,-1,-1,0
1523634030404,-786432,93,-56,-1,-1,0
1523634030404,-851968,93,-56,-1,-1,0
1523634030404,-720896,93,-56,-1,-1,0
1523634030404,-786432,93,-56,-1,-1,0
1523634030404,-851968,93,-56,-1,-1,0
1523634030446,-917504,93,-56,-1,-1,0
1523634030446,-983040,93,-56,-1,-1,0
1523634030446,-917504,93,-56,-1,-1,0
1523634030446,-851968,93,-56,-1,-1,0
1523634030446,-851968,93,-56,-1,-1,0
1523634030484,-917504,93,-56,-1,-1,0
1523634030484,-851968,93,-56,-1,-1,0
1523634030484,-851968,93,-56,-1,-1,0
1523634030484,-983040,93,-56,-1,-1,0
1523634030484,-851968,93,-56,-1,-1,0
1523634030524,983040,93,-56,-1,-1,0
1523634030524,5505024,93,-56,-1,-1,0
1523634030524,9895936,93,-56,-1,-1,0
1523634030524,9306112,93,-56,-1,-1,0
1523634030524,3211264,93,-56,-1,-1,0
1523634030564,-3080192,93,-56,-1,-1,0
1523634030564,-6029312,93,-56,-1,-1,0
1523634030564,-5832704,93,-56,-1,-1,0
1523634030564,-4063232,93,-56,-1,-1,0
1523634030564,-2359296,93,-56,-1,-1,0
1523634030604,-1376256,93,-56,-1,-1,0
1523634030604,-917504,93,-56,-1,-1,0
1523634030604,-720896,93,-56,-1,-1,0
1523634030604,-655360,93,-56,-1,-1,0
1523634030604,-458752,93,-56,-1,-1,0
1523634030644,-327680,93,-56,-1,-1,0
1523634030644,-196608,93,-56,-1,-1,0
1523634030644,-131072,93,-56,-1,-1,0
1523634030644,-196608,93,-56,-1,-1,0
1523634030644,-65536,93,-56,-1,-1,0
1523634030684,196608,93,-56,-1,-1,0
1523634030684,524288,93,-56,-1,-1,0
1523634030684,917504,93,-56,-1,-1,0
1523634030684,1441792,93,-56,-1,-1,0
1523634030684,1900544,93,-56,-1,-1,0
1523634030724,2490368,93,-56,-1,-1,0
1523634030724,3080192,93,-56,-1,-1,0
1523634030724,3538944,93,-56,-1,-1,0
1523634030724,3866624,93,-56,-1,-1,0
1523634030724,3866624,93,-56,-1,-1,0
1523634030764,3604480,93,-56,-1,-1,0
1523634030764,3276800,93,-56,-1,-1,0
1523634030764,2752512,93,-56,-1,-1,0
1523634030764,2031616,93,-56,-1,-1,0
1523634030764,1245184,93,-56,-1,-1,0
1523634030804,589824,93,-56,-1,-1,0
1523634030804,65536,93,-56,-1,-1,0
1523634030804,-196608,93,-56,-1,-1,0
1523634030804,-589824,93,-56,-1,-1,0
1523634030804,-917504,93,-56,-1,-1,0
1523634030844,-1179648,93,-56,-1,-1,0
1523634030844,-1245184,93,-56,-1,-1,0
1523634030844,-1114112,93,-56,-1,-1,0
1523634030844,-1048576,93,-56,-1,-1,0
1523634030844,-1114112,93,-56,-1,-1,0
1523634030884,-1114112,93,-56,-1,-1,0
1523634030884,-983040,93,-56,-1,-1,0
1523634030884,-851968,93,-56,-1,-1,0
1523634030884,-786432,93,-56,-1,-1,0
1523634030884,-851968,93,-56,-1,-1,0
1523634030924,-917504,93,-56,-1,-1,0
1523634030924,-983040,93,-56,-1,-1,0
1523634030924,-983040,93,-56,-1,-1,0
1523634030924,-1048576,93,-56,-1,-1,0
1523634030924,-1114112,93,-56,-1,-1,0
1523634030964,-1114112,93,-56,-1,-1,0
1523634030964,-1114112,93,-56,-1,-1,0
1523634030964,-1048576,93,-56,-1,-1,0
1523634030964,-983040,93,-56,-1,-1,0
1523634030964,-917504,93,-56,-1,-1,0
1523634031004,-1048576,94,-56,-1,-1,0
1523634031004,-1179648,94,-56,-1,-1,0
1523634031004,-1310720,94,-56,-1,-1,0
1523634031004,-1310720,94,-56,-1,-1,0
1523634031004,-1310720,94,-56,-1,-1,0
1523634031044,-1376256,94,-56,-1,-1,0
1523634031044,-1441792,94,-56,-1,-1,0
1523634031044,-1376256,94,-56,-1,-1,0
1523634031044,-1310720,94,-56,-1,-1,0
1523634031044,-1179648,94,-56,-1,-1,0
1523634031086,-1048576,94,-56,-1,-1,0
1523634031086,-1048576,94,-56,-1,-1,0
1523634031086,-1310720,94,-56,-1,-1,0
1523634031086,-1179648,94,-56,-1,-1,0
1523634031086,917504,94,-56,-1,-1,0
1523634031124,5767168,94,-56,-1,-1,0
1523634031124,10289152,94,-56,-1,-1,0
1523634031124,9306112,94,-56,-1,-1,0
1523634031124,2621440,94,-56,-1,-1,0
1523634031124,-3997696,94,-56,-1,-1,0
1523634031164,-6619136,94,-56,-1,-1,0
1523634031164,-6029312,94,-56,-1,-1,0
1523634031164,-4259840,94,-56,-1,-1,0
1523634031164,-2686976,94,-56,-1,-1,0
1523634031164,-1769472,94,-56,-1,-1,0
1523634031204,-1376256,94,-56,-1,-1,0
1523634031204,-1179648,94,-56,-1,-1,0
1523634031204,-1048576,94,-56,-1,-1,0
1523634031204,-851968,94,-56,-1,-1,0
1523634031204,-720896,94,-56,-1,-1,0
1523634031244,-655360,94,-56,-1,-1,0
1523634031244,-589824,94,-56,-1,-1,0
1523634031244,-458752,94,-56,-1,-1,0
1523634031244,-327680,94,-56,-1,-1,0
1523634031244,-131072,94,-56,-1,-1,0
1523634031284,65536,94,-56,-1,-1,0
1523634031284,458752,94,-56,-1,-1,0
1523634031284,983040,94,-56,-1,-1,0
1523634031284,1572864,94,-56,-1,-1,0
1523634031284,2228224,94,-56,-1,-1,0
1523634031324,2818048,94,-56,-1,-1,0
1523634031324,3276800,94,-56,-1,-1,0
1523634031324,3604480,94,-56,-1,-1,0
1523634031324,3735552,94,-56,-1,-1,0
1523634031324,3604480,94,-56,-1,-1,0
1523634031364,3211264,94,-56,-1,-1,0
1523634031364,2621440,94,-56,-1,-1,0
1523634031364,1900544,94,-56,-1,-1,0
1523634031364,1179648,94,-56,-1,-1,0
1523634031364,524288,94,-56,-1,-1,0
1523634031404,65536,94,-56,-1,-1,0
1523634031404,-327680,94,-56,-1,-1,0
1523634031404,-720896,94,-56,-1,-1,0
1523634031404,-983040,94,-56,-1,-1,0
1523634031404,-1179648,94,-56,-1,-1,0
1523634031444,-1310720,94,-56,-1,-1,0
1523634031444,-1310720,94,-56,-1,-1,0
1523634031444,-1310720,94,-56,-1,-1,0
1523634031444,-1245184,94,-56,-1,-1,0
1523634031444,-1245184,94,-56,-1,-1,0
1523634031484,-1310720,94,-56,-1,-1,0
1523634031484,-1245184,94,-56,-1,-1,0
1523634031484,-983040,94,-56,-1,-1,0
1523634031484,-786432,94,-56,-1,-1,0
1523634031484,-851968,94,-56,-1,-1,0
1523634031524,-851968,94,-56,-1,-1,0
1523634031524,-851968,94,-56,-1,-1,0
1523634031524,-983040,94,-56,-1,-1,0
1523634031524,-1048576,94,-56,-1,-1,0
1523634031524,-1114112,94,-56,-1,-1,0
1523634031564,-1048576,94,-56,-1,-1,0
1523634031564,-851968,94,-56,-1,-1,0
1523634031564,-851968,94,-56,-1,-1,0
1523634031564,-1048576,94,-56,-1,-1,0
1523634031564,-1179648,94,-56,-1,-1,0
1523634031604,-1245184,95,-56,-1,-1,0
1523634031604,-1310720,95,-56,-1,-1,0
1523634031604,-1376256,95,-56,-1,-1,0
1523634031604,-1310720,95,-56,-1,-1,0
1523634031604,-1310720,95,-56,-1,-1,0
1523634031644,-1376256,95,-56,-1,-1,0
1523634031644,-1441792,95,-56,-1,-1,0
1523634031644,-1441792,95,-56,-1,-1,0
1523634031644,-1441792,95,-56,-1,-1,0
1523634031644,-1310720,95,-56,-1,-1,0
1523634031684,-1245184,95,-56,-1,-1,0
1523634031684,-1441792,95,-56,-1,-1,0
1523634031684,-1638400,95,-56,-1,-1,0
1523634031684,-393216,95,-56,-1,-1,0
1523634031684,3670016,95,-56,-1,-1,0
1523634031726,9043968,95,-56,-1,-1,0
1523634031726,10354688,95,-56,-1,-1,0
1523634031726,5111808,95,-56,-1,-1,0
1523634031726,-2162688,95,-56,-1,-1,0
1523634031726,-6225920,95,-56,-1,-1,0
1523634031764,-6553600,95,-56,-1,-1,0
1523634031764,-5046272,95,-56,-1,-1,0
1523634031764,-3276800,95,-56,-1,-1,0
1523634031764,-2031616,95,-56,-1,-1,0
1523634031764,-1441792,95,-56,-1,-1,0
1523634031804,-1179648,95,-56,-1,-1,0
1523634031804,-1048576,95,-56,-1,-1,0
1523634031804,-917504,95,-56,-1,-1,0
1523634031804,-917504,95,-56,-1,-1,0
1523634031804,-786432,95,-56,-1,-1,0
1523634031844,-589824,95,-56,-1,-1,0
1523634031844,-393216,95,-56,-1,-1,0
1523634031844,-327680,95,-56,-1,-1,0
1523634031844,-65536,95,-56,-1,-1,0
1523634031844,196608,95,-56,-1,-1,0
1523634031884,458752,95,-56,-1,-1,0
1523634031884,917504,95,-56,-1,-1,0
1523634031884,1441792,95,-56,-1,-1,0
1523634031884,2162688,95,-56,-1,-1,0
1523634031884,2818048,95,-56,-1,-1,0
1523634031924,3342336,95,-56,-1,-1,0
1523634031924,3670016,95,-56,-1,-1,0
1523634031924,3866624,95,-56,-1,-1,0
1523634031924,3801088,95,-56,-1,-1,0
1523634031924,3473408,95,-56,-1,-1,0
1523634031964,2949120,95,-56,-1,-1,0
1523634031964,2359296,95,-56,-1,-1,0
1523634031964,1769472,95,-56,-1,-1,0
1523634031964,1114112,95,-56,-1,-1,0
1523634031964,524288,95,-56,-1,-1,0
1523634032004,65536,95,-56,-1,-1,0
1523634032004,-262144,95,-56,-1,-1,0
1523634032004,-655360,95,-56,-1,-1,0
1523634032004,-983040,95,-56,-1,-1,0
1523634032004,-1114112,95,-56,-1,-1,0
1523634032044,-1114112,95,-56,-1,-1,0
1523634032044,-983040,95,-56,-1,-1,0
1523634032044,-917504,95,-56,-1,-1,0
1523634032044,-1048576,95,-56,-1,-1,0
1523634032044,-983040,95,-56,-1,-1,0
1523634032084,-983040,95,-56,-1,-1,0
1523634032084,-1114112,95,-56,-1,-1,0
1523634032084,-1179648,95,-56,-1,-1,0
1523634032084,-983040,95,-56,-1,-1,0
1523634032084,-851968,95,-56,-1,-1,0
1523634032124,-917504,95,-56,-1,-1,0
1523634032124,-983040,95,-56,-1,-1,0
1523634032124,-983040,95,-56,-1,-1,0
1523634032124,-1048576,95,-56,-1,-1,0
1523634032124,-1114112,95,-56,-1,-1,0
1523634032164,-1048576,95,-56,-1,-1,0
1523634032164,-1048576,95,-56,-1,-1,0
1523634032164,-1048576,95,-56,-1,-1,0
1523634032164,-1114112,95,-56,-1,-1,0
1523634032164,-1048576,95,-56,-1,-1,0
1523634032204,-1179648,95,-56,-1,-1,0
1523634032204,-1310720,95,-56,-1,-1,0
1523634032204,-1507328,95,-56,-1,-1,0
1523634032204,-1572864,95,-56,-1,-1,0
1523634032204,-1441792,95,-56,-1,-1,0
1523634032244,-1376256,96,-56,-1,-1,0
1523634032244,-1507328,96,-56,-1,-1,0
1523634032244,-1638400,96,-56,-1,-1,0
1523634032244,-1703936,96,-56,-1,-1,0
1523634032244,-1638400,96,-56,-1,-1,0
1523634032284,-1441792,96,-56,-1,-1,0
1523634032284,-1376256,96,-56,-1,-1,0
1523634032284,-1572864,96,-56,-1,-1,0
1523634032284,-1638400,96,-56,-1,-1,0
1523634032284,-393216,96,-56,-1,-1,0
1523634032324,2949120,96,-56,-1,-1,0
1523634032324,7077888,96,-56,-1,-1,0
1523634032324,7995392,96,-56,-1,-1,0
1523634032324,3932160,96,-56,-1,-1,0
1523634032324,-1966080,96,-56,-1,-1,0
1523634032366,-5701632,96,-56,-1,-1,0
1523634032366,-6160384,96,-56,-1,-1,0
1523634032366,-4784128,96,-56,-1,-1,0
1523634032366,-3211264,96,-56,-1,-1,0
1523634032366,-2228224,96,-56,-1,-1,0
1523634032404,-1835008,96,-56,-1,-1,0
1523634032404,-1572864,96,-56,-1,-1,0
1523634032404,-1310720,96,-56,-1,-1,0
1523634032404,-1114112,96,-56,-1,-1,0
1523634032404,-1048576,96,-56,-1,-1,0
1523634032444,-983040,96,-56,-1,-1,0
1523634032444,-917504,96,-56,-1,-1,0
1523634032444,-786432,96,-56,-1,-1,0
1523634032444,-720896,96,-56,-1,-1,0
1523634032444,-655360,96,-56,-1,-1,0
1523634032484,-327680,96,-56,-1,-1,0
1523634032484,-131072,96,-56,-1,-1,0
1523634032484,131072,96,-56,-1,-1,0
1523634032484,655360,96,-56,-1,-1,0
1523634032484,1376256,96,-56,-1,-1,0
1523634032524,1900544,96,-56,-1,-1,0
1523634032524,2359296,96,-56,-1,-1,0
1523634032524,2818048,96,-56,-1,-1,0
1523634032524,3014656,96,-56,-1,-1,0
1523634032524,3014656,96,-56,-1,-1,0
1523634032564,2686976,96,-56,-1,-1,0
1523634032564,2359296,96,-56,-1,-1,0
1523634032564,2162688,96,-56,-1,-1,0
1523634032564,1638400,96,-56,-1,-1,0
1523634032564,851968,96,-56,-1,-1,0
1523634032604,131072,96,-56,-1,-1,0
1523634032604,-327680,96,-56,-1,-1,0
1523634032604,-786432,96,-56,-1,-1,0
1523634032604,-1114112,96,-56,-1,-1,0
1523634032604,-1310720,96,-56,-1,-1,0
1523634032644,-1507328,96,-56,-1,-1,0
1523634032644,-1703936,96,-56,-1,-1,0
1523634032644,-1769472,96,-56,-1,-1,0
1523634032644,-1572864,96,-56,-1,-1,0
1523634032644,-1441792,96,-56,-1,-1,0
1523634032684,-1507328,96,-56,-1,-1,0
1523634032684,-1310720,96,-56,-1,-1,0
1523634032684,-1245184,96,-56,-1,-1,0
1523634032684,-1310720,96,-56,-1,-1,0
1523634032684,-1179648,96,-56,-1,-1,0
1523634032724,-983040,96,-56,-1,-1,0
1523634032724,-1048576,96,-56,-1,-1,0
1523634032724,-1048576,96,-56,-1,-1,0
1523634032724,-1114112,96,-56,-1,-1,0
1523634032724,-1179648,96,-56,-1,-1,0
1523634032764,-1179648,96,-56,-1,-1,0
1523634032764,-1179648,96,-56,-1,-1,0
1523634032764,-1179648,96,-56,-1,-1,0
1523634032764,-983040,96,-56,-1,-1,0
1523634032764,-851968,96,-56,-1,-1,0
1523634032804,-851968,96,-56,-1,-1,0
1523634032804,-983040,96,-56,-1,-1,0
1523634032804,-1179648,96,-56,-1,-1,0
1523634032804,-1245184,96,-56,-1,-1,0
1523634032804,-983040,96,-56,-1,-1,0
1523634032845,-720896,96,-56,-1,-1,0
1523634032845,-851968,96,-56,-1,-1,0
1523634032845,-983040,96,-56,-1,-1,0
1523634032845,-983040,96,-56,-1,-1,0
1523634032845,-1114112,96,-56,-1,-1,0
1523634032884,-1179648,96,-56,-1,-1,0
1523634032884,-1048576,96,-56,-1,-1,0
1523634032884,-851968,96,-56,-1,-1,0
1523634032884,-720896,96,-56,-1,-1,0
1523634032884,-786432,96,-56,-1,-1,0
1523634032924,-983040,96,-56,-1,-1,0
1523634032924,-983040,96,-56,-1,-1,0
1523634032924,655360,96,-56,-1,-1,0
1523634032924,5046272,96,-56,-1,-1,0
1523634032924,9633792,96,-56,-1,-1,0
1523634032964,9699328,96,-56,-1,-1,0
1523634032964,3997696,96,-56,-1,-1,0
1523634032964,-2359296,96,-56,-1,-1,0
1523634032964,-5570560,96,-56,-1,-1,0
1523634032964,-5636096,96,-56,-1,-1,0
1523634033006,-4390912,96,-56,-1,-1,0
1523634033006,-2752512,96,-56,-1,-1,0
1523634033006,-1441792,96,-56,-1,-1,0
1523634033006,-786432,96,-56,-1,-1,0
1523634033006,-720896,96,-56,-1,-1,0
1523634033044,-917504,96,-56,-1,-1,0
1523634033044,-786432,96,-56,-1,-1,0
1523634033044,-589824,96,-56,-1,-1,0
1523634033044,-524288,96,-56,-1,-1,0
1523634033044,-393216,96,-56,-1,-1,0
1523634033084,-131072,96,-56,-1,-1,0
1523634033084,-65536,96,-56,-1,-1,0
1523634033084,65536,96,-56,-1,-1,0
1523634033084,262144,96,-56,-1,-1,0
1523634033084,589824,96,-56,-1,-1,0
1523634033124,917504,96,-56,-1,-1,0
1523634033124,1441792,96,-56,-1,-1,0
1523634033124,2162688,96,-56,-1,-1,0
1523634033124,2949120,96,-56,-1,-1,0
1523634033124,3670016,96,-56,-1,-1,0
1523634033164,4063232,96,-56,-1,-1,0
1523634033164,3997696,96,-56,-1,-1,0
1523634033164,3801088,96,-56,-1,-1,0
1523634033164,3604480,96,-56,-1,-1,0
1523634033164,3211264,96,-56,-1,-1,0
1523634033204,2424832,96,-56,-1,-1,0
1523634033204,1572864,96,-56,-1,-1,0
1523634033204,917504,96,-56,-1,-1,0
1523634033204,458752,96,-56,-1,-1,0
1523634033204,-65536,96,-56,-1,-1,0
1523634033244,-589824,96,-56,-1,-1,0
1523634033244,-720896,96,-56,-1,-1,0
1523634033244,-917504,96,-56,-1,-1,0
1523634033244,-983040,96,-56,-1,-1,0
1523634033244,-1048576,96,-56,-1,-1,0
1523634033284,-1114112,96,-56,-1,-1,0
1523634033284,-1179648,96,-56,-1,-1,0
1523634033284,-1114112,96,-56,-1,-1,0
1523634033284,-1179648,96,-56,-1,-1,0
1523634033284,-1048576,96,-56,-1,-1,0
1523634033324,-851968,96,-56,-1,-1,0
1523634033324,-720896,96,-56,-1,-1,0
1523634033324,-589824,96,-56,-1,-1,0
1523634033324,-524288,96,-56,-1,-1,0
1523634033324,-655360,96,-56,-1,-1,0
1523634033364,-851968,96,-56,-1,-1,0
1523634033364,-917504,96,-56,-1,-1,0
1523634033364,-851968,96,-56,-1,-1,0
1523634033364,-786432,96,-56,-1,-1,0
1523634033364,-720896,96,-56,-1,-1,0
1523634033404,-655360,96,-56,-1,-1,0
1523634033404,-655360,96,-56,-1,-1,0
1523634033404,-655360,96,-56,-1,-1,0
1523634033404,-851968,96,-56,-1,-1,0
1523634033404,-1048576,96,-56,-1,-1,0
1523634033444,-1048576,97,-56,-1,-1,0
1523634033444,-851968,97,-56,-1,-1,0
1523634033444,-786432,97,-56,-1,-1,0
1523634033444,-917504,97,-56,-1,-1,0
1523634033444,-917504,97,-56,-1,-1,0
1523634033484,-917504,97,-56,-1,-1,0
1523634033484,-983040,97,-56,-1,-1,0
1523634033484,-983040,97,-56,-1,-1,0
1523634033484,-983040,97,-56,-1,-1,0
1523634033484,-917504,97,-56,-1,-1,0
1523634033524,-917504,97,-56,-1,-1,0
1523634033524,-917504,97,-56,-1,-1,0
1523634033524,-1179648,97,-56,-1,-1,0
1523634033524,-589824,97,-56,-1,-1,0
1523634033524,2424832,97,-56,-1,-1,0
1523634033564,7471104,97,-56,-1,-1,0
1523634033564,10158080,97,-56,-1,-1,0
1523634033564,6881280,97,-56,-1,-1,0
1523634033564,262144,97,-56,-1,-1,0
1523634033564,-4587520,97,-56,-1,-1,0
1523634033604,-5898240,97,-56,-1,-1,0
1523634033604,-5046272,97,-56,-1,-1,0
1523634033604,-3276800,97,-56,-1,-1,0
1523634033604,-1769472,97,-56,-1,-1,0
1523634033604,-1114112,97,-56,-1,-1,0
1523634033645,-851968,97,-56,-1,-1,0
1523634033645,-655360,97,-56,-1,-1,0
1523634033645,-524288,97,-56,-1,-1,0
1523634033645,-458752,97,-56,-1,-1,0
1523634033645,-458752,97,-56,-1,-1,0
1523634033684,-393216,97,-56,-1,-1,0
1523634033684,-393216,97,-56,-1,-1,0
1523634033684,-196608,97,-56,-1,-1,0
1523634033684,0,97,-56,-1,-1,0
1523634033684,393216,97,-56,-1,-1,0
1523634033724,786432,97,-56,-1,-1,0
1523634033724,1179648,97,-56,-1,-1,0
1523634033724,1507328,97,-56,-1,-1,0
1523634033724,2031616,97,-56,-1,-1,0
1523634033724,2621440,97,-56,-1,-1,0
1523634033764,3211264,97,-56,-1,-1,0
1523634033764,3670016,97,-56,-1,-1,0
1523634033764,4063232,97,-56,-1,-1,0
1523634033764,4063232,97,-56,-1,-1,0
1523634033764,3735552,97,-56,-1,-1,0
1523634033804,3211264,97,-56,-1,-1,0
1523634033804,2621440,97,-56,-1,-1,0
1523634033804,1966080,97,-56,-1,-1,0
1523634033804,1376256,97,-56,-1,-1,0
1523634033804,851968,97,-56,-1,-1,0
1523634033844,458752,97,-56,-1,-1,0
1523634033844,131072,97,-56,-1,-1,0
1523634033844,-65536,97,-56,-1,-1,0
1523634033844,-327680,97,-56,-1,-1,0
1523634033844,-524288,97,-56,-1,-1,0
1523634033884,-589824,97,-56,-1,-1,0
1523634033884,-589824,97,-56,-1,-1,0
1523634033884,-589824,97,-56,-1,-1,0
1523634033884,-655360,97,-56,-1,-1,0
1523634033884,-589824,97,-56,-1,-1,0
1523634033924,-458752,97,-56,-1,-1,0
1523634033924,-524288,97,-56,-1,-1,0
1523634033924,-589824,97,-56,-1,-1,0
1523634033924,-458752,97,-56,-1,-1,0
1523634033924,-262144,97,-56,-1,-1,0
1523634033964,-196608,97,-56,-1,-1,0
1523634033964,-262144,97,-56,-1,-1,0
1523634033964,-458752,97,-56,-1,-1,0
1523634033964,-524288,97,-56,-1,-1,0
1523634033964,-458752,97,-56,-1,-1,0
1523634034004,-327680,97,-56,-1,-1,0
1523634034004,-393216,97,-56,-1,-1,0
1523634034004,-393216,97,-56,-1,-1,0
1523634034004,-458752,97,-56,-1,-1,0
1523634034004,-458752,97,-56,-1,-1,0
1523634034044,-458752,98,-56,-1,-1,0
1523634034044,-458752,98,-56,-1,-1,0
1523634034044,-524288,98,-56,-1,-1,0
1523634034044,-589824,98,-56,-1,-1,0
1523634034044,-720896,98,-56,-1,-1,0
1523634034084,-720896,98,-56,-1,-1,0
1523634034084,-655360,98,-56,-1,-1,0
1523634034084,-589824,98,-56,-1,-1,0
1523634034084,-720896,98,-56,-1,-1,0
1523634034084,-655360,98,-56,-1,-1,0
1523634034124,-458752,98,-56,-1,-1,0
1523634034124,-393216,98,-56,-1,-1,0
1523634034124,-524288,98,-56,-1,-1,0
1523634034124,-786432,98,-56,-1,-1,0
1523634034124,-131072,98,-56,-1,-1,0
1523634034166,2752512,98,-56,-1,-1,0
1523634034166,7864320,98,-56,-1,-1,0
1523634034166,11075584,98,-56,-1,-1,0
1523634034166,8650752,98,-56,-1,-1,0
1523634034166,2031616,98,-56,-1,-1,0
1523634034204,-3342336,98,-56,-1,-1,0
1523634034204,-4980736,98,-56,-1,-1,0
1523634034204,-4194304,98,-56,-1,-1,0
1523634034204,-2818048,98,-56,-1,-1,0
1523634034204,-1638400,98,-56,-1,-1,0
1523634034244,-851968,98,-56,-1,-1,0
1523634034244,-393216,98,-56,-1,-1,0
1523634034244,-262144,98,-56,-1,-1,0
1523634034244,-458752,98,-56,-1,-1,0
1523634034244,-393216,98,-56,-1,-1,0
1523634034285,-131072,98,-56,-1,-1,0
1523634034285,0,98,-56,-1,-1,0
1523634034285,-65536,98,-56,-1,-1,0
1523634034285,0,98,-56,-1,-1,0
1523634034285,327680,98,-56,-1,-1,0
1523634034324,524288,98,-56,-1,-1,0
1523634034324,851968,98,-56,-1,-1,0
1523634034324,1114112,98,-56,-1,-1,0
1523634034324,1310720,98,-56,-1,-1,0
1523634034324,1966080,98,-56,-1,-1,0
1523634034364,2752512,98,-56,-1,-1,0
1523634034364,3407872,98,-56,-1,-1,0
1523634034364,3932160,98,-56,-1,-1,0
1523634034364,4128768,98,-56,-1,-1,0
1523634034364,3997696,98,-56,-1,-1,0
1523634034404,3801088,98,-56,-1,-1,0
1523634034404,3473408,98,-56,-1,-1,0
1523634034404,3080192,98,-56,-1,-1,0
1523634034404,2555904,98,-56,-1,-1,0
1523634034404,1835008,98,-56,-1,-1,0
1523634034444,1048576,98,-56,-1,-1,0
1523634034444,393216,98,-56,-1,-1,0
1523634034444,65536,98,-56,-1,-1,0
1523634034444,-65536,98,-56,-1,-1,0
1523634034444,-262144,98,-56,-1,-1,0
1523634034484,-524288,98,-56,-1,-1,0
1523634034484,-720896,98,-56,-1,-1,0
1523634034484,-720896,98,-56,-1,-1,0
1523634034484,-720896,98,-56,-1,-1,0
1523634034484,-589824,98,-56,-1,-1,0
1523634034524,-589824,98,-56,-1,-1,0
1523634034524,-589824,98,-56,-1,-1,0
1523634034524,-589824,98,-56,-1,-1,0
1523634034524,-589824,98,-56,-1,-1,0
1523634034524,-524288,98,-56,-1,-1,0
1523634034564,-458752,98,-56,-1,-1,0
1523634034564,-458752,98,-56,-1,-1,0
1523634034564,-524288,98,-56,-1,-1,0
1523634034564,-720896,98,-56,-1,-1,0
1523634034564,-851968,98,-56,-1,-1,0
1523634034604,-851968,98,-56,-1,-1,0
1523634034604,-786432,98,-56,-1,-1,0
1523634034604,-786432,98,-56,-1,-1,0
1523634034604,-786432,98,-56,-1,-1,0
1523634034604,-655360,98,-56,-1,-1,0
1523634034644,-589824,98,-56,-1,-1,0
1523634034644,-720896,98,-56,-1,-1,0
1523634034644,-851968,98,-56,-1,-1,0
1523634034644,-983040,98,-56,-1,-1,0
1523634034644,-1048576,98,-56,-1,-1,0
1523634034684,-1114112,98,-56,-1,-1,0
1523634034684,-1048576,98,-56,-1,-1,0
1523634034684,-851968,98,-56,-1,-1,0
1523634034684,-720896,98,-56,-1,-1,0
1523634034684,-786432,98,-56,-1,-1,0
1523634034724,-786432,98,-56,-1,-1,0
1523634034724,-786432,98,-56,-1,-1,0
1523634034724,-983040,98,-56,-1,-1,0
1523634034724,-1114112,98,-56,-1,-1,0
1523634034724,-983040,98,-56,-1,-1,0
1523634034764,196608,98,-56,-1,-1,0
1523634034764,3670016,98,-56,-1,-1,0
1523634034764,8257536,98,-56,-1,-1,0
1523634034764,9568256,98,-56,-1,-1,0
1523634034764,5505024,98,-56,-1,-1,0
1523634034804,-458752,98,-56,-1,-1,0
1523634034804,-4194304,98,-56,-1,-1,0
1523634034804,-4915200,98,-56,-1,-1,0
1523634034804,-4063232,98,-56,-1,-1,0
1523634034804,-2424832,98,-56,-1,-1,0
1523634034844,-1114112,98,-56,-1,-1,0
1523634034844,-458752,98,-56,-1,-1,0
1523634034844,-327680,98,-56,-1,-1,0
1523634034844,-65536,98,-56,-1,-1,0
1523634034844,65536,98,-56,-1,-1,0
1523634034884,65536,98,-56,-1,-1,0
1523634034884,65536,98,-56,-1,-1,0
1523634034884,131072,98,-56,-1,-1,0
1523634034884,65536,98,-56,-1,-1,0
1523634034884,393216,98,-56,-1,-1,0
1523634034926,983040,98,-56,-1,-1,0
1523634034926,1310720,98,-56,-1,-1,0
1523634034926,1507328,98,-56,-1,-1,0
1523634034926,1900544,98,-56,-1,-1,0
1523634034926,2359296,98,-56,-1,-1,0
1523634034964,2818048,98,-56,-1,-1,0
1523634034964,3407872,98,-56,-1,-1,0
1523634034964,3997696,98,-56,-1,-1,0
1523634034964,4587520,98,-56,-1,-1,0
1523634034964,4915200,98,-56,-1,-1,0
1523634035004,4915200,98,-56,-1,-1,0
1523634035004,4587520,98,-56,-1,-1,0
1523634035004,4259840,98,-56,-1,-1,0
1523634035004,3801088,98,-56,-1,-1,0
1523634035004,3342336,98,-56,-1,-1,0
1523634035044,2686976,98,-56,-1,-1,0
1523634035044,2031616,98,-56,-1,-1,0
1523634035044,1441792,98,-56,-1,-1,0
1523634035044,1048576,98,-56,-1,-1,0
1523634035044,655360,98,-56,-1,-1,0
1523634035084,262144,98,-56,-1,-1,0
1523634035084,196608,98,-56,-1,-1,0
1523634035084,327680,98,-56,-1,-1,0
1523634035084,458752,98,-56,-1,-1,0
1523634035084,393216,98,-56,-1,-1,0
1523634035124,327680,98,-56,-1,-1,0
1523634035124,327680,98,-56,-1,-1,0
1523634035124,458752,98,-56,-1,-1,0
1523634035124,458752,98,-56,-1,-1,0
1523634035124,458752,98,-56,-1,-1,0
1523634035164,458752,98,-56,-1,-1,0
1523634035164,327680,98,-56,-1,-1,0
1523634035164,131072,98,-56,-1,-1,0
1523634035164,0,98,-56,-1,-1,0
1523634035164,0,98,-56,-1,-1,0
1523634035204,0,98,-56,-1,-1,0
1523634035204,0,98,-56,-1,-1,0
1523634035204,0,98,-56,-1,-1,0
1523634035204,65536,98,-56,-1,-1,0
1523634035204,-65536,98,-56,-1,-1,0
1523634035244,-262144,98,-56,-1,-1,0
1523634035244,-327680,98,-56,-1,-1,0
1523634035244,-393216,98,-56,-1,-1,0
1523634035244,-524288,98,-56,-1,-1,0
1523634035244,-589824,98,-56,-1,-1,0
1523634035284,-524288,98,-56,-1,-1,0
1523634035284,-655360,98,-56,-1,-1,0
1523634035284,-786432,98,-56,-1,-1,0
1523634035284,-917504,98,-56,-1,-1,0
1523634035284,-917504,98,-56,-1,-1,0
1523634035324,-851968,98,-56,-1,-1,0
1523634035324,-786432,98,-56,-1,-1,0
1523634035324,-786432,98,-56,-1,-1,0
1523634035324,-917504,98,-56,-1,-1,0
1523634035324,-1114112,98,-56,-1,-1,0
1523634035364,-917504,98,-56,-1,-1,0
1523634035364,983040,98,-56,-1,-1,0
1523634035364,5767168,98,-56,-1,-1,0
1523634035364,10027008,98,-56,-1,-1,0
1523634035364,8847360,98,-56,-1,-1,0
1523634035404,2097152,98,-56,-1,-1,0
1523634035404,-4128768,98,-56,-1,-1,0
1523634035404,-6488064,98,-56,-1,-1,0
1523634035404,-6094848,98,-56,-1,-1,0
1523634035404,-4521984,98,-56,-1,-1,0
1523634035444,-2949120,98,-56,-1,-1,0
1523634035444,-1900544,98,-56,-1,-1,0
1523634035444,-1441792,98,-56,-1,-1,0
1523634035444,-1179648,98,-56,-1,-1,0
1523634035444,-983040,98,-56,-1,-1,0
1523634035484,-983040,98,-56,-1,-1,0
1523634035484,-983040,98,-56,-1,-1,0
1523634035484,-983040,98,-56,-1,-1,0
1523634035484,-983040,98,-56,-1,-1,0
1523634035484,-851968,98,-56,-1,-1,0
1523634035524,-655360,98,-56,-1,-1,0
1523634035524,-458752,98,-56,-1,-1,0
1523634035524,-262144,98,-56,-1,-1,0
1523634035524,0,98,-56,-1,-1,0
1523634035524,393216,98,-56,-1,-1,0
1523634035566,983040,98,-56,-1,-1,0
1523634035566,1572864,98,-56,-1,-1,0
1523634035566,2293760,98,-56,-1,-1,0
1523634035566,2818048,98,-56,-1,-1,0
1523634035566,3080192,98,-56,-1,-1,0
1523634035604,3080192,98,-56,-1,-1,0
1523634035604,2949120,98,-56,-1,-1,0
1523634035604,2621440,98,-56,-1,-1,0
1523634035604,2031616,98,-56,-1,-1,0
1523634035604,1376256,98,-56,-1,-1,0
1523634035644,655360,98,-56,-1,-1,0
1523634035644,0,98,-56,-1,-1,0
1523634035644,-524288,98,-56,-1,-1,0
1523634035644,-983040,98,-56,-1,-1,0
1523634035644,-1245184,98,-56,-1,-1,0
1523634035684,-1572864,98,-56,-1,-1,0
1523634035684,-1835008,98,-56,-1,-1,0
1523634035684,-1966080,98,-56,-1,-1,0
1523634035684,-2097152,98,-56,-1,-1,0
1523634035684,-2162688,98,-56,-1,-1,0
1523634035724,-2097152,98,-56,-1,-1,0
1523634035724,-1966080,98,-56,-1,-1,0
1523634035724,-1769472,98,-56,-1,-1,0
1523634035724,-1638400,98,-56,-1,-1,0
1523634035724,-1703936,98,-56,-1,-1,0
1523634035764,-1835008,98,-56,-1,-1,0
1523634035764,-1835008,98,-56,-1,-1,0
1523634035764,-1703936,98,-56,-1,-1,0
1523634035764,-1703936,98,-56,-1,-1,0
1523634035764,-1769472,98,-56,-1,-1,0
1523634035804,-1900544,98,-56,-1,-1,0
1523634035804,-1966080,98,-56,-1,-1,0
1523634035804,-1835008,98,-56,-1,-1,0
1523634035804,-1638400,98,-56,-1,-1,0
1523634035804,-1638400,98,-56,-1,-1,0
1523634035844,-1769472,99,-56,-1,-1,0
1523634035844,-2031616,99,-56,-1,-1,0
1523634035844,-2162688,99,-56,-1,-1,0
1523634035844,-2293760,99,-56,-1,-1,0
1523634035844,-2293760,99,-56,-1,-1,0
1523634035884,-2293760,99,-56,-1,-1,0
1523634035884,-2293760,99,-56,-1,-1,0
1523634035884,-2228224,99,-56,-1,-1,0
1523634035884,-2097152,99,-56,-1,-1,0
1523634035884,-2097152,99,-56,-1,-1,0
1523634035924,-2162688,99,-56,-1,-1,0
1523634035924,-2228224,99,-56,-1,-1,0
1523634035924,-2293760,99,-56,-1,-1,0
1523634035924,-2359296,99,-56,-1,-1,0
1523634035924,-2097152,99,-56,-1,-1,0
1523634035964,-393216,99,-56,-1,-1,0
1523634035964,4063232,99,-56,-1,-1,0
1523634035964,8912896,99,-56,-1,-1,0
1523634035964,9043968,99,-56,-1,-1,0
1523634035964,3014656,99,-56,-1,-1,0
1523634036004,-3801088,99,-56,-1,-1,0
1523634036004,-7077888,99,-56,-1,-1,0
1523634036004,-6815744,99,-56,-1,-1,0
1523634036004,-5111808,99,-56,-1,-1,0
1523634036004,-3473408,99,-56,-1,-1,0
1523634036044,-2555904,99,-56,-1,-1,0
1523634036044,-2228224,99,-56,-1,-1,0
1523634036044,-2031616,99,-56,-1,-1,0
1523634036044,-1769472,99,-56,-1,-1,0
1523634036044,-1572864,99,-56,-1,-1,0
1523634036084,-1638400,99,-56,-1,-1,0
1523634036084,-1638400,99,-56,-1,-1,0
1523634036084,-1507328,99,-56,-1,-1,0
1523634036084,-1376256,99,-56,-1,-1,0
1523634036084,-1114112,99,-56,-1,-1,0
1523634036124,-851968,99,-56,-1,-1,0
1523634036124,-655360,99,-56,-1,-1,0
1523634036124,-327680,99,-56,-1,-1,0
1523634036124,65536,99,-56,-1,-1,0
1523634036124,589824,99,-56,-1,-1,0
1523634036164,1179648,99,-56,-1,-1,0
1523634036164,1835008,99,-56,-1,-1,0
1523634036164,2424832,99,-56,-1,-1,0
1523634036164,2883584,99,-56,-1,-1,0
1523634036164,3014656,99,-56,-1,-1,0
1523634036205,2949120,99,-56,-1,-1,0
1523634036205,2621440,99,-56,-1,-1,0
1523634036205,2162688,99,-56,-1,-1,0
1523634036205,1507328,99,-56,-1,-1,0
1523634036205,786432,99,-56,-1,-1,0
1523634036245,131072,99,-56,-1,-1,0
1523634036245,-196608,99,-56,-1,-1,0
1523634036245,-524288,99,-56,-1,-1,0
1523634036245,-851968,99,-56,-1,-1,0
1523634036245,-1179648,99,-56,-1,-1,0
1523634036284,-1310720,99,-56,-1,-1,0
1523634036284,-1376256,99,-56,-1,-1,0
1523634036284,-1310720,99,-56,-1,-1,0
1523634036284,-1376256,99,-56,-1,-1,0
1523634036284,-1507328,99,-56,-1,-1,0
1523634036324,-1376256,99,-56,-1,-1,0
1523634036324,-1179648,99,-56,-1,-1,0
1523634036324,-983040,99,-56,-1,-1,0
1523634036324,-983040,99,-56,-1,-1,0
1523634036324,-983040,99,-56,-1,-1,0
1523634036364,-983040,99,-56,-1,-1,0
1523634036364,-1048576,99,-56,-1,-1,0
1523634036364,-1114112,99,-56,-1,-1,0
1523634036364,-1048576,99,-56,-1,-1,0
1523634036364,-983040,99,-56,-1,-1,0
1523634036404,-1114112,99,-56,-1,-1,0
1523634036404,-1179648,99,-56,-1,-1,0
1523634036404,-983040,99,-56,-1,-1,0
1523634036404,-851968,99,-56,-1,-1,0
1523634036404,-983040,99,-56,-1,-1,0
1523634036444,-1245184,99,-56,-1,-1,0
1523634036444,-1310720,99,-56,-1,-1,0
1523634036444,-1376256,99,-56,-1,-1,0
1523634036444,-1310720,99,-56,-1,-1,0
1523634036444,-1245184,99,-56,-1,-1,0
1523634036484,-1245184,99,-56,-1,-1,0
1523634036484,-1310720,99,-56,-1,-1,0
1523634036484,-1376256,99,-56,-1,-1,0
1523634036484,-1441792,99,-56,-1,-1,0
1523634036484,-1376256,99,-56,-1,-1,0
1523634036524,-1376256,99,-56,-1,-1,0
1523634036524,-1310720,99,-56,-1,-1,0
1523634036524,-1376256,99,-56,-1,-1,0
1523634036524,-1572864,99,-56,-1,-1,0
1523634036524,-524288,99,-56,-1,-1,0
1523634036564,3604480,99,-56,-1,-1,0
1523634036564,9240576,99,-56,-1,-1,0
1523634036564,11206656,99,-56,-1,-1,0
1523634036564,6553600,99,-56,-1,-1,0
1523634036564,-786432,99,-56,-1,-1,0
1523634036604,-5505024,99,-56,-1,-1,0
1523634036604,-6160384,99,-56,-1,-1,0
1523634036604,-4784128,99,-56,-1,-1,0
1523634036604,-3211264,99,-56,-1,-1,0
1523634036604,-2031616,99,-56,-1,-1,0
1523634036644,-1310720,99,-56,-1,-1,0
1523634036644,-917504,99,-56,-1,-1,0
1523634036644,-917504,99,-56,-1,-1,0
1523634036644,-786432,99,-56,-1,-1,0
1523634036644,-786432,99,-56,-1,-1,0
1523634036684,-851968,99,-56,-1,-1,0
1523634036684,-851968,99,-56,-1,-1,0
1523634036684,-458752,99,-56,-1,-1,0
1523634036684,-131072,99,-56,-1,-1,0
1523634036684,0,99,-56,-1,-1,0
1523634036724,65536,99,-56,-1,-1,0
1523634036724,393216,99,-56,-1,-1,0
1523634036724,851968,99,-56,-1,-1,0
1523634036724,1376256,99,-56,-1,-1,0
1523634036724,2097152,99,-56,-1,-1,0
1523634036764,2621440,99,-56,-1,-1,0
1523634036764,3080192,99,-56,-1,-1,0
1523634036764,3473408,99,-56,-1,-1,0
1523634036764,3604480,99,-56,-1,-1,0
1523634036764,3538944,99,-56,-1,-1,0
1523634036804,3342336,99,-56,-1,-1,0
1523634036804,2818048,99,-56,-1,-1,0
1523634036804,2097152,99,-56,-1,-1,0
1523634036804,1376256,99,-56,-1,-1,0
1523634036804,720896,99,-56,-1,-1,0
1523634036845,131072,99,-56,-1,-1,0
1523634036845,-262144,99,-56,-1,-1,0
1523634036845,-589824,99,-56,-1,-1,0
1523634036845,-851968,99,-56,-1,-1,0
1523634036845,-1048576,99,-56,-1,-1,0
1523634036884,-1179648,99,-56,-1,-1,0
1523634036884,-1376256,99,-56,-1,-1,0
1523634036884,-1507328,99,-56,-1,-1,0
1523634036884,-1441792,99,-56,-1,-1,0
1523634036884,-1179648,99,-56,-1,-1,0
1523634036924,-917504,99,-56,-1,-1,0
1523634036924,-917504,99,-56,-1,-1,0
1523634036924,-983040,99,-56,-1,-1,0
1523634036924,-1114112,99,-56,-1,-1,0
1523634036924,-1179648,99,-56,-1,-1,0
1523634036964,-1114112,99,-56,-1,-1,0
1523634036964,-1048576,99,-56,-1,-1,0
1523634036964,-1179648,99,-56,-1,-1,0
1523634036964,-1310720,99,-56,-1,-1,0
1523634036964,-1376256,99,-56,-1,-1,0
1523634037004,-1441792,99,-56,-1,-1,0
1523634037004,-1310720,99,-56,-1,-1,0
1523634037004,-1245184,99,-56,-1,-1,0
1523634037004,-1114112,99,-56,-1,-1,0
1523634037004,-1179648,99,-56,-1,-1,0
1523634037044,-1245184,100,-56,-1,-1,0
1523634037044,-1441792,100,-56,-1,-1,0
1523634037044,-1572864,100,-56,-1,-1,0
1523634037044,-1572864,100,-56,-1,-1,0
1523634037044,-1507328,100,-56,-1,-1,0
1523634037085,-1572864,100,-56,-1,-1,0
1523634037085,-1572864,100,-56,-1,-1,0
1523634037085,-1572864,100,-56,-1,-1,0
1523634037085,-1507328,100,-56,-1,-1,0
1523634037085,-1441792,100,-56,-1,-1,0
1523634037124,-1310720,100,-56,-1,-1,0
1523634037124,-1572864,100,-56,-1,-1,0
1523634037124,-1769472,100,-56,-1,-1,0
1523634037124,-458752,100,-56,-1,-1,0
1523634037124,3407872,100,-56,-1,-1,0
1523634037164,8126464,100,-56,-1,-1,0
1523634037164,9109504,100,-56,-1,-1,0
1523634037164,4587520,100,-56,-1,-1,0
1523634037164,-1507328,100,-56,-1,-1,0
1523634037164,-5111808,100,-56,-1,-1,0
1523634037204,-5570560,100,-56,-1,-1,0
1523634037204,-4390912,100,-56,-1,-1,0
1523634037204,-2883584,100,-56,-1,-1,0
1523634037204,-2031616,100,-56,-1,-1,0
1523634037204,-1572864,100,-56,-1,-1,0
1523634037245,-1310720,100,-56,-1,-1,0
1523634037245,-1245184,100,-56,-1,-1,0
1523634037245,-1179648,100,-56,-1,-1,0
1523634037245,-851968,100,-56,-1,-1,0
1523634037245,-720896,100,-56,-1,-1,0
1523634037284,-851968,100,-56,-1,-1,0
1523634037284,-720896,100,-56,-1,-1,0
1523634037284,-393216,100,-56,-1,-1,0
1523634037284,-327680,100,-56,-1,-1,0
1523634037284,-262144,100,-56,-1,-1,0
1523634037324,0,100,-56,-1,-1,0
1523634037324,524288,100,-56,-1,-1,0
1523634037324,917504,100,-56,-1,-1,0
1523634037324,1376256,100,-56,-1,-1,0
1523634037324,1835008,100,-56,-1,-1,0
1523634037365,2293760,100,-56,-1,-1,0
1523634037365,2686976,100,-56,-1,-1,0
1523634037365,2883584,100,-56,-1,-1,0
1523634037365,2949120,100,-56,-1,-1,0
1523634037365,2949120,100,-56,-1,-1,0
1523634037404,2621440,100,-56,-1,-1,0
1523634037404,2031616,100,-56,-1,-1,0
1523634037404,1376256,100,-56,-1,-1,0
1523634037404,786432,100,-56,-1,-1,0
1523634037404,196608,100,-56,-1,-1,0
1523634037444,-262144,100,-56,-1,-1,0
1523634037444,-589824,100,-56,-1,-1,0
1523634037444,-983040,100,-56,-1,-1,0
1523634037444,-1179648,100,-56,-1,-1,0
1523634037444,-1245184,100,-56,-1,-1,0
1523634037486,-1310720,100,-56,-1,-1,0
1523634037486,-1179648,100,-56,-1,-1,0
1523634037486,-1114112,100,-56,-1,-1,0
1523634037486,-917504,100,-56,-1,-1,0
1523634037486,-786432,100,-56,-1,-1,0
1523634037524,-720896,100,-56,-1,-1,0
1523634037524,-655360,100,-56,-1,-1,0
1523634037524,-655360,100,-56,-1,-1,0
1523634037524,-720896,100,-56,-1,-1,0
1523634037524,-851968,100,-56,-1,-1,0
1523634037564,-917504,100,-56,-1,-1,0
1523634037564,-917504,100,-56,-1,-1,0
1523634037564,-851968,100,-56,-1,-1,0
1523634037564,-786432,100,-56,-1,-1,0
1523634037564,-655360,100,-56,-1,-1,0
1523634037605,-524288,100,-56,-1,-1,0
1523634037605,-524288,100,-56,-1,-1,0
1523634037605,-589824,100,-56,-1,-1,0
1523634037605,-655360,100,-56,-1,-1,0
1523634037605,-917504,100,-56,-1,-1,0
1523634037645,-917504,100,-56,-1,-1,0
1523634037645,-917504,100,-56,-1,-1,0
1523634037645,-1048576,100,-56,-1,-1,0
1523634037645,-1179648,100,-56,-1,-1,0
1523634037645,-1179648,100,-56,-1,-1,0
1523634037684,-1114112,100,-56,-1,-1,0
1523634037684,-851968,100,-56,-1,-1,0
1523634037684,-720896,100,-56,-1,-1,0
1523634037684,-786432,100,-56,-1,-1,0
1523634037684,-786432,100,-56,-1,-1,0
1523634037725,-786432,100,-56,-1,-1,0
1523634037725,-917504,100,-56,-1,-1,0
1523634037725,0,100,-56,-1,-1,0
1523634037725,3473408,100,-56,-1,-1,0
1523634037725,7929856,100,-56,-1,-1,0
1523634037765,8978432,100,-56,-1,-1,0
1523634037765,4849664,100,-56,-1,-1,0
1523634037765,-786432,100,-56,-1,-1,0
1523634037765,-4390912,100,-56,-1,-1,0
1523634037765,-5046272,100,-56,-1,-1,0
1523634037804,-3997696,100,-56,-1,-1,0
1523634037804,-2490368,100,-56,-1,-1,0
1523634037804,-1572864,100,-56,-1,-1,0
1523634037804,-1114112,100,-56,-1,-1,0
1523634037804,-851968,100,-56,-1,-1,0
1523634037845,-655360,100,-56,-1,-1,0
1523634037845,-589824,100,-56,-1,-1,0
1523634037845,-458752,100,-56,-1,-1,0
1523634037845,-393216,100,-56,-1,-1,0
1523634037845,-327680,100,-56,-1,-1,0
1523634037885,-196608,100,-56,-1,-1,0
1523634037885,0,100,-56,-1,-1,0
1523634037885,196608,100,-56,-1,-1,0
1523634037885,393216,100,-56,-1,-1,0
1523634037885,655360,100,-56,-1,-1,0
1523634037925,1048576,100,-56,-1,-1,0
1523634037925,1638400,100,-56,-1,-1,0
1523634037925,2162688,100,-56,-1,-1,0
1523634037925,2818048,100,-56,-1,-1,0
1523634037925,3276800,100,-56,-1,-1,0
1523634037964,3473408,100,-56,-1,-1,0
1523634037964,3538944,100,-56,-1,-1,0
1523634037964,3604480,100,-56,-1,-1,0
1523634037964,3473408,100,-56,-1,-1,0
1523634037964,3211264,100,-56,-1,-1,0
1523634038005,2752512,100,-56,-1,-1,0
1523634038005,2097152,100,-56,-1,-1,0
1523634038005,1441792,100,-56,-1,-1,0
1523634038005,917504,100,-56,-1,-1,0
1523634038005,393216,100,-56,-1,-1,0
1523634038045,0,100,-56,-1,-1,0
1523634038045,-131072,100,-56,-1,-1,0
1523634038045,-458752,100,-56,-1,-1,0
1523634038045,-720896,100,-56,-1,-1,0
1523634038045,-851968,100,-56,-1,-1,0
1523634038085,-655360,100,-56,-1,-1,0
1523634038085,-458752,100,-56,-1,-1,0
1523634038085,-458752,100,-56,-1,-1,0
1523634038085,-589824,100,-56,-1,-1,0
1523634038085,-720896,100,-56,-1,-1,0
1523634038126,-720896,100,-56,-1,-1,0
1523634038126,-786432,100,-56,-1,-1,0
1523634038126,-917504,100,-56,-1,-1,0
1523634038126,-1048576,100,-56,-1,-1,0
1523634038126,-917504,100,-56,-1,-1,0
1523634038165,-917504,100,-56,-1,-1,0
1523634038165,-1179648,100,-56,-1,-1,0
1523634038165,-1310720,100,-56,-1,-1,0
1523634038165,-1245184,100,-56,-1,-1,0
1523634038165,-1114112,100,-56,-1,-1,0
1523634038205,-1114112,100,-56,-1,-1,0
1523634038205,-1376256,100,-56,-1,-1,0
1523634038205,-1769472,100,-56,-1,-1,0
1523634038205,-1835008,100,-56,-1,-1,0
1523634038205,-1507328,100,-56,-1,-1,0
1523634038245,-1507328,100,-56,-1,-1,0
1523634038245,-1638400,100,-56,-1,-1,0
1523634038245,-1703936,100,-56,-1,-1,0
1523634038245,-1835008,100,-56,-1,-1,0
1523634038245,-1900544,100,-56,-1,-1,0
1523634038285,-1835008,100,-56,-1,-1,0
1523634038285,-1703936,100,-56,-1,-1,0
1523634038285,-1900544,100,-56,-1,-1,0
1523634038285,-2097152,100,-56,-1,-1,0
1523634038285,-2228224,100,-56,-1,-1,0
1523634038324,-1835008,100,-56,-1,-1,0
1523634038324,458752,100,-56,-1,-1,0
1523634038324,5373952,100,-56,-1,-1,0
1523634038324,8978432,100,-56,-1,-1,0
1523634038324,7274496,100,-56,-1,-1,0
1523634038364,786432,100,-56,-1,-1,0
1523634038364,-4784128,100,-56,-1,-1,0
1523634038364,-6881280,100,-56,-1,-1,0
1523634038364,-6291456,100,-56,-1,-1,0
1523634038364,-4849664,100,-56,-1,-1,0
1523634038404,-3342336,100,-56,-1,-1,0
1523634038404,-2424832,100,-56,-1,-1,0
1523634038404,-2228224,100,-56,-1,-1,0
1523634038404,-2097152,100,-56,-1,-1,0
1523634038404,-1835008,100,-56,-1,-1,0
1523634038444,-1638400,100,-56,-1,-1,0
1523634038444,-1703936,100,-56,-1,-1,0
1523634038444,-1835008,100,-56,-1,-1,0
1523634038444,-1835008,100,-56,-1,-1,0
1523634038444,-1572864,100,-56,-1,-1,0
1523634038484,-1310720,100,-56,-1,-1,0
1523634038484,-1048576,100,-56,-1,-1,0
1523634038484,-720896,100,-56,-1,-1,0
1523634038484,-393216,100,-56,-1,-1,0
1523634038484,-65536,100,-56,-1,-1,0
1523634038524,524288,100,-56,-1,-1,0
1523634038524,1245184,100,-56,-1,-1,0
1523634038524,1769472,100,-56,-1,-1,0
1523634038524,2097152,100,-56,-1,-1,0
1523634038524,2359296,100,-56,-1,-1,0
1523634038564,2490368,100,-56,-1,-1,0
1523634038564,2424832,100,-56,-1,-1,0
1523634038564,2228224,100,-56,-1,-1,0
1523634038564,1769472,100,-56,-1,-1,0
1523634038564,1048576,100,-56,-1,-1,0
1523634038604,458752,100,-56,-1,-1,0
1523634038604,0,100,-56,-1,-1,0
1523634038604,-524288,100,-56,-1,-1,0
1523634038604,-917504,100,-56,-1,-1,0
1523634038604,-1114112,100,-56,-1,-1,0
1523634038644,-1114112,100,-56,-1,-1,0
1523634038644,-1114112,100,-56,-1,-1,0
1523634038644,-1179648,100,-56,-1,-1,0
1523634038644,-1179648,100,-56,-1,-1,0
1523634038644,-1114112,100,-56,-1,-1,0
1523634038684,-1048576,100,-56,-1,-1,0
1523634038684,-1048576,100,-56,-1,-1,0
1523634038684,-1114112,100,-56,-1,-1,0
1523634038684,-983040,100,-56,-1,-1,0
1523634038684,-720896,100,-56,-1,-1,0
1523634038724,-720896,100,-56,-1,-1,0
1523634038724,-720896,100,-56,-1,-1,0
1523634038724,-720896,100,-56,-1,-1,0
1523634038724,-720896,100,-56,-1,-1,0
1523634038724,-524288,100,-56,-1,-1,0
1523634038766,-589824,100,-56,-1,-1,0
1523634038766,-720896,100,-56,-1,-1,0
1523634038766,-655360,100,-56,-1,-1,0
1523634038766,-458752,100,-56,-1,-1,0
1523634038766,-524288,100,-56,-1,-1,0
1523634038804,-589824,100,-56,-1,-1,0
1523634038804,-655360,100,-56,-1,-1,0
1523634038804,-720896,100,-56,-1,-1,0
1523634038804,-786432,100,-56,-1,-1,0
1523634038804,-917504,100,-56,-1,-1,0
1523634038844,-983040,100,-56,-1,-1,0
1523634038844,-917504,100,-56,-1,-1,0
1523634038844,-851968,100,-56,-1,-1,0
1523634038844,-851968,100,-56,-1,-1,0
1523634038844,-851968,100,-56,-1,-1,0
1523634038884,-786432,100,-56,-1,-1,0
1523634038884,-655360,100,-56,-1,-1,0
1523634038884,-655360,100,-56,-1,-1,0
1523634038884,-458752,100,-56,-1,-1,0
1523634038884,1572864,100,-56,-1,-1,0
1523634038924,6356992,100,-56,-1,-1,0
1523634038924,10747904,100,-56,-1,-1,0
1523634038924,10027008,100,-56,-1,-1,0
1523634038924,3604480,100,-56,-1,-1,0
1523634038924,-2621440,100,-56,-1,-1,0
1523634038964,-5177344,100,-56,-1,-1,0
1523634038964,-4718592,100,-56,-1,-1,0
1523634038964,-3145728,100,-56,-1,-1,0
1523634038964,-1507328,100,-56,-1,-1,0
1523634038964,-393216,100,-56,-1,-1,0
1523634039004,-65536,100,-56,-1,-1,0
1523634039004,-65536,100,-56,-1,-1,0
1523634039004,0,100,-56,-1,-1,0
1523634039004,131072,100,-56,-1,-1,0
1523634039004,196608,100,-56,-1,-1,0
1523634039044,327680,100,-56,-1,-1,0
1523634039044,524288,100,-56,-1,-1,0
1523634039044,589824,100,-56,-1,-1,0
1523634039044,786432,100,-56,-1,-1,0
1523634039044,851968,100,-56,-1,-1,0
1523634039084,983040,100,-56,-1,-1,0
1523634039084,1310720,100,-56,-1,-1,0
1523634039084,1835008,100,-56,-1,-1,0
1523634039084,2359296,100,-56,-1,-1,0
1523634039084,2883584,100,-56,-1,-1,0
1523634039124,3538944,100,-56,-1,-1,0
1523634039124,4063232,100,-56,-1,-1,0
1523634039124,4194304,100,-56,-1,-1,0
1523634039124,4128768,100,-56,-1,-1,0
1523634039124,3932160,100,-56,-1,-1,0
1523634039164,3801088,100,-56,-1,-1,0
1523634039164,3276800,100,-56,-1,-1,0
1523634039164,2621440,100,-56,-1,-1,0
1523634039164,2097152,100,-56,-1,-1,0
1523634039164,1572864,100,-56,-1,-1,0
1523634039204,1048576,100,-56,-1,-1,0
1523634039204,655360,100,-56,-1,-1,0
1523634039204,458752,100,-56,-1,-1,0
1523634039204,262144,100,-56,-1,-1,0
1523634039204,0,100,-56,-1,-1,0
1523634039244,-131072,100,-56,-1,-1,0
1523634039244,-196608,100,-56,-1,-1,0
1523634039244,-65536,100,-56,-1,-1,0
1523634039244,0,100,-56,-1,-1,0
1523634039244,0,100,-56,-1,-1,0
1523634039284,0,100,-56,-1,-1,0
1523634039284,131072,100,-56,-1,-1,0
1523634039284,131072,100,-56,-1,-1,0
1523634039284,131072,100,-56,-1,-1,0
1523634039284,196608,100,-56,-1,-1,0
1523634039324,131072,100,-56,-1,-1,0
1523634039324,0,100,-56,-1,-1,0
1523634039324,-65536,100,-56,-1,-1,0
1523634039324,-65536,100,-56,-1,-1,0
1523634039324,0,100,-56,-1,-1,0
1523634039364,0,101,-56,-1,-1,0
1523634039364,65536,101,-56,-1,-1,0
1523634039364,0,101,-56,-1,-1,0
1523634039364,-131072,101,-56,-1,-1,0
1523634039364,-262144,101,-56,-1,-1,0
1523634039406,-458752,101,-56,-1,-1,0
1523634039406,-589824,101,-56,-1,-1,0
1523634039406,-589824,101,-56,-1,-1,0
1523634039406,-589824,101,-56,-1,-1,0
1523634039406,-589824,101,-56,-1,-1,0
1523634039444,-589824,101,-56,-1,-1,0
1523634039444,-589824,101,-56,-1,-1,0
1523634039444,-589824,101,-56,-1,-1,0
1523634039444,-589824,101,-56,-1,-1,0
1523634039444,-589824,101,-56,-1,-1,0
1523634039484,-589824,101,-56,-1,-1,0
1523634039484,-524288,101,-56,-1,-1,0
1523634039484,655360,101,-56,-1,-1,0
1523634039484,4325376,101,-56,-1,-1,0
1523634039484,8454144,101,-56,-1,-1,0
1523634039524,8716288,101,-56,-1,-1,0
1523634039524,3735552,101,-56,-1,-1,0
1523634039524,-2097152,101,-56,-1,-1,0
1523634039524,-5242880,101,-56,-1,-1,0
1523634039524,-5242880,101,-56,-1,-1,0
