milliseconds, ECG, ECG HR, PPG, PPG HR, SpO2, PI
0,-917504,92,-56,-1,-1,0
33,-1048576,92,-56,-1,-1,0
66,-917504,92,-56,-1,-1,0
100,-983040,92,-56,-1,-1,0
133,-1245184,92,-56,-1,-1,0
166,-1245184,92,-56,-1,-1,0
200,9371648,92,-56,-1,-1,0
233,-393216,92,-56,-1,-1,0
266,-851968,92,-56,-1,-1,0
300,-131072,92,-56,-1,-1,0
333,655360,92,-56,-1,-1,0
366,1900544,92,-56,-1,-1,0
400,720896,92,-56,-1,-1,0
433,-720896,92,-56,-1,-1,0
466,-917504,92,-56,-1,-1,0
500,-589824,92,-56,-1,-1,0
533,-589824,92,-56,-1,-1,0
566,-786432,92,-56,-1,-1,0
600,-393216,92,-56,-1,-1,0
633,-589824,92,-56,-1,-1,0
666,-589824,92,-56,-1,-1,0
700,262144,92,-56,-1,-1,0
733,6750208,92,-56,-1,-1,0
766,-65536,92,-56,-1,-1,0
800,0,92,-56,-1,-1,0
833,327680,92,-56,-1,-1,0
866,1507328,92,-56,-1,-1,0
900,1900544,92,-56,-1,-1,0
933,0,92,-56,-1,-1,0
966,-983040,92,-56,-1,-1,0
1000,-1114112,92,-56,-1,-1,0
1033,-1179648,92,-56,-1,-1,0
1066,-1179648,92,-56,-1,-1,0
1100,-1507328,92,-56,-1,-1,0
1133,-1048576,92,-56,-1,-1,0
1166,-1638400,92,-56,-1,-1,0
1200,-1703936,92,-56,-1,-1,0
1233,2949120,92,-56,-1,-1,0
1266,-262144,92,-56,-1,-1,0
1300,-1245184,92,-56,-1,-1,0
1333,-851968,92,-56,-1,-1,0
1366,-196608,92,-56,-1,-1,0
1400,917504,92,-56,-1,-1,0
1433,655360,92,-56,-1,-1,0
1466,-786432,92,-56,-1,-1,0
1500,-1376256,92,-56,-1,-1,0
1533,-1179648,92,-56,-1,-1,0
1566,-1114112,92,-56,-1,-1,0
1600,-1245184,92,-56,-1,-1,0
1633,-1376256,92,-56,-1,-1,0
1666,-851968,92,-56,-1,-1,0
1700,-1245184,92,-56,-1,-1,0
1733,-1179648,92,-56,-1,-1,0
1766,5308416,92,-56,-1,-1,0
1800,-131072,92,-56,-1,-1,0
1833,-720896,92,-56,-1,-1,0
1866,-393216,92,-56,-1,-1,0
1900,262144,92,-56,-1,-1,0
1933,1507328,92,-56,-1,-1,0
1966,1048576,92,-56,-1,-1,0
2000,-655360,92,-56,-1,-1,0
2033,-917504,92,-56,-1,-1,0
2066,-917504,92,-56,-1,-1,0
2100,-851968,92,-56,-1,-1,0
2133,-917504,92,-56,-1,-1,0
2166,-1048576,92,-56,-1,-1,0
2200,-720896,92,-56,-1,-1,0
2233,-1179648,92,-56,-1,-1,0
2266,-1114112,92,-56,-1,-1,0
2300,3866624,92,-56,-1,-1,0
2333,327680,92,-56,-1,-1,0
2366,-524288,92,-56,-1,-1,0
2400,-262144,92,-56,-1,-1,0
2433,458752,92,-56,-1,-1,0
2466,1769472,92,-56,-1,-1,0
2500,1703936,92,-56,-1,-1,0
2533,-262144,92,-56,-1,-1,0
2566,-786432,92,-56,-1,-1,0
2600,-786432,92,-56,-1,-1,0
2633,-589824,92,-56,-1,-1,0
2666,-720896,92,-56,-1,-1,0
2700,-851968,92,-56,-1,-1,0
2733,-524288,92,-56,-1,-1,0
2766,-917504,92,-56,-1,-1,0
2800,-983040,92,-56,-1,-1,0
2833,1703936,92,-56,-1,-1,0
2866,2031616,92,-56,-1,-1,0
2900,-524288,92,-56,-1,-1,0
2933,-393216,92,-56,-1,-1,0
2966,327680,92,-56,-1,-1,0
3000,1900544,92,-56,-1,-1,0
3033,1900544,92,-56,-1,-1,0
3066,-65536,92,-56,-1,-1,0
3100,-851968,92,-56,-1,-1,0
3133,-786432,92,-56,-1,-1,0
3166,-720896,92,-56,-1,-1,0
3200,-917504,92,-56,-1,-1,0
3233,-1048576,92,-56,-1,-1,0
3266,-589824,92,-56,-1,-1,0
3300,-1114112,92,-56,-1,-1,0
3333,-1245184,92,-56,-1,-1,0
3366,-393216,92,-56,-1,-1,0
3400,6291456,92,-56,-1,-1,0
3433,-655360,92,-56,-1,-1,0
3466,-589824,92,-56,-1,-1,0
3500,-65536,92,-56,-1,-1,0
3533,1114112,92,-56,-1,-1,0
3566,1703936,92,-56,-1,-1,0
3600,-65536,92,-56,-1,-1,0
3633,-1048576,92,-56,-1,-1,0
3666,-917504,92,-56,-1,-1,0
3699,-720896,92,-56,-1,-1,0
3733,-786432,92,-56,-1,-1,0
3766,-851968,92,-56,-1,-1,0
3800,-983040,92,-56,-1,-1,0
3833,-393216,92,-56,-1,-1,0
3866,-720896,92,-56,-1,-1,0
3900,-720896,92,-56,-1,-1,0
3933,589824,91,-56,-1,-1,0
3966,4849664,91,-56,-1,-1,0
4000,-65536,91,-56,-1,-1,0
4033,0,91,-56,-1,-1,0
4066,589824,91,-56,-1,-1,0
4100,1769472,91,-56,-1,-1,0
4133,2097152,91,-56,-1,-1,0
4166,327680,91,-56,-1,-1,0
4200,-589824,91,-56,-1,-1,0
4233,-589824,91,-56,-1,-1,0
4266,-524288,91,-56,-1,-1,0
4300,-655360,91,-56,-1,-1,0
4333,-851968,91,-56,-1,-1,0
4366,-917504,91,-56,-1,-1,0
4400,-1376256,91,-56,-1,-1,0
4433,-917504,91,-56,-1,-1,0
4466,-1441792,91,-56,-1,-1,0
4500,-1376256,91,-56,-1,-1,0
4533,3211264,90,-56,-1,-1,0
4566,-262144,90,-56,-1,-1,0
4600,-1048576,90,-56,-1,-1,0
4633,-655360,90,-56,-1,-1,0
4666,-65536,90,-56,-1,-1,0
4700,1114112,90,-56,-1,-1,0
4733,917504,90,-56,-1,-1,0
4766,-720896,90,-56,-1,-1,0
4800,-1114112,90,-56,-1,-1,0
4833,-1048576,90,-56,-1,-1,0
4866,-1179648,90,-56,-1,-1,0
4900,-1048576,90,-56,-1,-1,0
4933,-1245184,90,-56,-1,-1,0
4966,-1179648,90,-56,-1,-1,0
5000,-1179648,90,-56,-1,-1,0
5033,-1114112,90,-56,-1,-1,0
5066,-1114112,90,-56,-1,-1,0
5100,-1245184,90,-56,-1,-1,0
5133,10092544,90,-56,-1,-1,0
5166,-262144,90,-56,-1,-1,0
5200,-524288,90,-56,-1,-1,0
5233,-131072,90,-56,-1,-1,0
5266,1048576,90,-56,-1,-1,0
5300,2359296,90,-56,-1,-1,0
5333,786432,90,-56,-1,-1,0
5366,-720896,90,-56,-1,-1,0
5400,-917504,90,-56,-1,-1,0
5433,-786432,90,-56,-1,-1,0
5466,-720896,90,-56,-1,-1,0
5500,-786432,90,-56,-1,-1,0
5533,-917504,90,-56,-1,-1,0
5566,-1114112,90,-56,-1,-1,0
5600,-720896,90,-56,-1,-1,0
5633,-1048576,90,-56,-1,-1,0
5666,-1114112,90,-56,-1,-1,0
5700,5505024,90,-56,-1,-1,0
5733,65536,90,-56,-1,-1,0
5766,-458752,90,-56,-1,-1,0
5800,-262144,90,-56,-1,-1,0
5833,589824,90,-56,-1,-1,0
5866,2031616,90,-56,-1,-1,0
5900,1638400,90,-56,-1,-1,0
5933,-393216,90,-56,-1,-1,0
5966,-983040,90,-56,-1,-1,0
6000,-851968,90,-56,-1,-1,0
6033,-720896,90,-56,-1,-1,0
6066,-786432,90,-56,-1,-1,0
6100,-851968,90,-56,-1,-1,0
6133,-1114112,90,-56,-1,-1,0
6166,-589824,90,-56,-1,-1,0
6200,-983040,90,-56,-1,-1,0
6233,-1048576,90,-56,-1,-1,0
6266,3276800,90,-56,-1,-1,0
6300,458752,90,-56,-1,-1,0
6333,-458752,90,-56,-1,-1,0
6366,-262144,90,-56,-1,-1,0
6400,393216,90,-56,-1,-1,0
6433,1638400,90,-56,-1,-1,0
6466,1835008,90,-56,-1,-1,0
6500,-131072,90,-56,-1,-1,0
6533,-851968,90,-56,-1,-1,0
6566,-655360,90,-56,-1,-1,0
6600,-589824,90,-56,-1,-1,0
6633,-589824,90,-56,-1,-1,0
6666,-786432,90,-56,-1,-1,0
6700,-1114112,90,-56,-1,-1,0
6733,-524288,90,-56,-1,-1,0
6766,-983040,90,-56,-1,-1,0
6800,-1179648,90,-56,-1,-1,0
6833,2949120,90,-56,-1,-1,0
6866,589824,90,-56,-1,-1,0
6899,-851968,90,-56,-1,-1,0
6933,-393216,90,-56,-1,-1,0
6966,196608,90,-56,-1,-1,0
7000,1507328,90,-56,-1,-1,0
7033,1376256,90,-56,-1,-1,0
7066,-458752,90,-56,-1,-1,0
7100,-1114112,90,-56,-1,-1,0
7133,-983040,90,-56,-1,-1,0
7166,-917504,90,-56,-1,-1,0
7200,-917504,90,-56,-1,-1,0
7233,-983040,90,-56,-1,-1,0
7266,-1245184,90,-56,-1,-1,0
7300,-655360,90,-56,-1,-1,0
7333,-1048576,90,-56,-1,-1,0
7366,-983040,90,-56,-1,-1,0
7399,1310720,90,-56,-1,-1,0
7433,2555904,90,-56,-1,-1,0
7466,-393216,90,-56,-1,-1,0
7500,-262144,90,-56,-1,-1,0
7533,327680,90,-56,-1,-1,0
7566,1703936,90,-56,-1,-1,0
7600,2097152,90,-56,-1,-1,0
7633,131072,90,-56,-1,-1,0
7666,-786432,90,-56,-1,-1,0
7700,-917504,90,-56,-1,-1,0
7733,-786432,90,-56,-1,-1,0
7766,-917504,90,-56,-1,-1,0
7800,-983040,90,-56,-1,-1,0
7833,-1179648,90,-56,-1,-1,0
7866,-786432,90,-56,-1,-1,0
7899,-1048576,89,-56,-1,-1,0
7933,-1245184,89,-56,-1,-1,0
7966,5636096,89,-56,-1,-1,0
8000,-65536,89,-56,-1,-1,0
8033,-786432,89,-56,-1,-1,0
8066,-196608,89,-56,-1,-1,0
8100,393216,89,-56,-1,-1,0
8133,1966080,89,-56,-1,-1,0
8166,1572864,89,-56,-1,-1,0
8200,-327680,89,-56,-1,-1,0
8233,-983040,89,-56,-1,-1,0
8266,-786432,89,-56,-1,-1,0
8300,-786432,89,-56,-1,-1,0
8333,-786432,89,-56,-1,-1,0
8366,-1114112,89,-56,-1,-1,0
8400,-589824,89,-56,-1,-1,0
8433,-983040,89,-56,-1,-1,0
8466,-1048576,89,-56,-1,-1,0
8500,0,89,-56,-1,-1,0
8533,5242880,89,-56,-1,-1,0
8566,-655360,89,-56,-1,-1,0
8600,-589824,89,-56,-1,-1,0
8633,0,89,-56,-1,-1,0
8666,1245184,89,-56,-1,-1,0
8700,1966080,89,-56,-1,-1,0
8733,65536,89,-56,-1,-1,0
8766,-917504,89,-56,-1,-1,0
8800,-983040,89,-56,-1,-1,0
8833,-786432,89,-56,-1,-1,0
8866,-786432,89,-56,-1,-1,0
8900,-983040,89,-56,-1,-1,0
8933,-655360,89,-56,-1,-1,0
8966,-851968,89,-56,-1,-1,0
9000,-1048576,89,-56,-1,-1,0
9033,-786432,89,-56,-1,-1,0
9066,9175040,89,-56,-1,-1,0
9100,-262144,89,-56,-1,-1,0
9133,-393216,89,-56,-1,-1,0
9166,65536,89,-56,-1,-1,0
9200,1310720,89,-56,-1,-1,0
9233,2228224,89,-56,-1,-1,0
9266,720896,89,-56,-1,-1,0
9300,-524288,89,-56,-1,-1,0
9333,-589824,89,-56,-1,-1,0
9366,-458752,89,-56,-1,-1,0
9400,-589824,89,-56,-1,-1,0
9433,-917504,89,-56,-1,-1,0
9466,-655360,89,-56,-1,-1,0
9500,-917504,89,-56,-1,-1,0
9533,-1179648,89,-56,-1,-1,0
9566,-1245184,89,-56,-1,-1,0
9600,9109504,89,-56,-1,-1,0
9633,-589824,89,-56,-1,-1,0
9666,-1048576,89,-56,-1,-1,0
9700,-589824,89,-56,-1,-1,0
9733,131072,89,-56,-1,-1,0
9766,1245184,89,-56,-1,-1,0
9800,-131072,89,-56,-1,-1,0
9833,-1441792,89,-56,-1,-1,0
9866,-1638400,89,-56,-1,-1,0
9900,-1507328,89,-56,-1,-1,0
9933,-1441792,89,-56,-1,-1,0
9966,-1572864,89,-56,-1,-1,0
10000,-1179648,89,-56,-1,-1,0
10033,-1376256,89,-56,-1,-1,0
10066,-1376256,89,-56,-1,-1,0
10100,-1376256,89,-56,-1,-1,0
10133,9306112,89,-56,-1,-1,0
10166,-524288,89,-56,-1,-1,0
10200,-589824,89,-56,-1,-1,0
10233,-131072,89,-56,-1,-1,0
10266,851968,89,-56,-1,-1,0
10300,1835008,89,-56,-1,-1,0
10333,524288,89,-56,-1,-1,0
10366,-786432,89,-56,-1,-1,0
10400,-720896,89,-56,-1,-1,0
10433,-851968,89,-56,-1,-1,0
10466,-786432,89,-56,-1,-1,0
10500,-1114112,89,-56,-1,-1,0
10533,-720896,89,-56,-1,-1,0
10566,-983040,89,-56,-1,-1,0
10600,-1048576,89,-56,-1,-1,0
10633,-917504,89,-56,-1,-1,0
10666,8126464,89,-56,-1,-1,0
10700,-458752,89,-56,-1,-1,0
10733,-786432,89,-56,-1,-1,0
10766,-196608,89,-56,-1,-1,0
10800,851968,89,-56,-1,-1,0
10833,1703936,89,-56,-1,-1,0
10866,0,89,-56,-1,-1,0
10900,-983040,89,-56,-1,-1,0
10933,-983040,89,-56,-1,-1,0
10966,-917504,89,-56,-1,-1,0
11000,-1048576,89,-56,-1,-1,0
11033,-1310720,89,-56,-1,-1,0
11066,-655360,89,-56,-1,-1,0
11100,-1179648,89,-56,-1,-1,0
11133,-1179648,89,-56,-1,-1,0
11166,458752,89,-56,-1,-1,0
11200,4063232,89,-56,-1,-1,0
11233,-458752,89,-56,-1,-1,0
11266,-327680,89,-56,-1,-1,0
11300,196608,89,-56,-1,-1,0
11333,1572864,89,-56,-1,-1,0
11366,1835008,89,-56,-1,-1,0
11400,0,89,-56,-1,-1,0
11433,-786432,89,-56,-1,-1,0
11466,-851968,89,-56,-1,-1,0
11500,-655360,89,-56,-1,-1,0
11533,-720896,89,-56,-1,-1,0
11566,-917504,89,-56,-1,-1,0
11600,-720896,89,-56,-1,-1,0
11633,-786432,89,-56,-1,-1,0
11666,-983040,90,-56,-1,-1,0
11700,-983040,90,-56,-1,-1,0
11733,8781824,90,-56,-1,-1,0
11766,-327680,90,-56,-1,-1,0
11800,-458752,90,-56,-1,-1,0
11833,0,90,-56,-1,-1,0
11866,1048576,90,-56,-1,-1,0
11900,1638400,90,-56,-1,-1,0
11933,196608,90,-56,-1,-1,0
11966,-851968,90,-56,-1,-1,0
12000,-917504,90,-56,-1,-1,0
12033,-917504,90,-56,-1,-1,0
12066,-851968,90,-56,-1,-1,0
12100,-1048576,90,-56,-1,-1,0
12133,-1114112,90,-56,-1,-1,0
12166,-589824,90,-56,-1,-1,0
12200,-983040,90,-56,-1,-1,0
12233,-1048576,89,-56,-1,-1,0
12266,0,89,-56,-1,-1,0
12300,5177344,89,-56,-1,-1,0
12333,-589824,89,-56,-1,-1,0
12366,-327680,89,-56,-1,-1,0
12400,131072,89,-56,-1,-1,0
12433,1376256,89,-56,-1,-1,0
12466,1835008,89,-56,-1,-1,0
12500,196608,89,-56,-1,-1,0
12533,-720896,89,-56,-1,-1,0
12566,-720896,89,-56,-1,-1,0
12600,-589824,89,-56,-1,-1,0
12633,-655360,89,-56,-1,-1,0
12666,-851968,89,-56,-1,-1,0
12700,-917504,89,-56,-1,-1,0
12733,-458752,89,-56,-1,-1,0
12766,-851968,90,-56,-1,-1,0
12800,-917504,90,-56,-1,-1,0
12833,5111808,90,-56,-1,-1,0
12866,262144,90,-56,-1,-1,0
12900,-327680,90,-56,-1,-1,0
12933,-65536,90,-56,-1,-1,0
12966,589824,90,-56,-1,-1,0
13000,1966080,90,-56,-1,-1,0
13033,1769472,90,-56,-1,-1,0
13066,-196608,90,-56,-1,-1,0
13100,-786432,90,-56,-1,-1,0
13133,-720896,90,-56,-1,-1,0
13166,-720896,90,-56,-1,-1,0
13200,-851968,90,-56,-1,-1,0
13233,-1048576,90,-56,-1,-1,0
13266,-851968,90,-56,-1,-1,0
13299,-1048576,90,-56,-1,-1,0
13333,-1114112,90,-56,-1,-1,0
13366,-720896,90,-56,-1,-1,0
13400,7798784,90,-56,-1,-1,0
13433,-458752,90,-56,-1,-1,0
13466,-589824,90,-56,-1,-1,0
13500,-65536,90,-56,-1,-1,0
13533,983040,90,-56,-1,-1,0
13566,1769472,90,-56,-1,-1,0
13600,65536,90,-56,-1,-1,0
13633,-1048576,90,-56,-1,-1,0
13666,-1048576,90,-56,-1,-1,0
13700,-917504,90,-56,-1,-1,0
13733,-917504,90,-56,-1,-1,0
13766,-1048576,90,-56,-1,-1,0
13799,-1245184,90,-56,-1,-1,0
13833,-720896,90,-56,-1,-1,0
13866,-1114112,90,-56,-1,-1,0
13900,-1114112,90,-56,-1,-1,0
13933,2424832,90,-56,-1,-1,0
13966,720896,90,-56,-1,-1,0
14000,-589824,90,-56,-1,-1,0
14033,-458752,90,-56,-1,-1,0
14066,262144,90,-56,-1,-1,0
14100,1507328,90,-56,-1,-1,0
14133,1572864,90,-56,-1,-1,0
14166,-393216,90,-56,-1,-1,0
14200,-917504,90,-56,-1,-1,0
14233,-720896,90,-56,-1,-1,0
14266,-720896,90,-56,-1,-1,0
14299,-786432,90,-56,-1,-1,0
14333,-917504,90,-56,-1,-1,0
14366,-1114112,90,-56,-1,-1,0
14400,-720896,90,-56,-1,-1,0
14433,-1048576,90,-56,-1,-1,0
14466,-1114112,90,-56,-1,-1,0
14500,5963776,90,-56,-1,-1,0
14533,0,90,-56,-1,-1,0
14566,-720896,90,-56,-1,-1,0
14600,-327680,90,-56,-1,-1,0
14633,327680,90,-56,-1,-1,0
14666,1441792,90,-56,-1,-1,0
14700,983040,90,-56,-1,-1,0
14733,-655360,90,-56,-1,-1,0
14766,-1048576,90,-56,-1,-1,0
14799,-917504,90,-56,-1,-1,0
14833,-851968,90,-56,-1,-1,0
14866,-1048576,90,-56,-1,-1,0
14900,-1179648,90,-56,-1,-1,0
14933,-786432,90,-56,-1,-1,0
14966,-1114112,91,-56,-1,-1,0
15000,-1114112,91,-56,-1,-1,0
15033,0,91,-56,-1,-1,0
15066,5373952,91,-56,-1,-1,0
15100,-524288,91,-56,-1,-1,0
15133,-393216,91,-56,-1,-1,0
15166,0,91,-56,-1,-1,0
15200,1179648,91,-56,-1,-1,0
15233,1769472,91,-56,-1,-1,0
15266,131072,91,-56,-1,-1,0
15299,-786432,91,-56,-1,-1,0
15333,-851968,91,-56,-1,-1,0
15366,-720896,91,-56,-1,-1,0
15400,-720896,91,-56,-1,-1,0
15433,-917504,91,-56,-1,-1,0
15466,-786432,91,-56,-1,-1,0
15500,-786432,91,-56,-1,-1,0
15533,-983040,91,-56,-1,-1,0
15566,-851968,91,-56,-1,-1,0
15600,9961472,91,-56,-1,-1,0
15633,-262144,91,-56,-1,-1,0
15666,-458752,91,-56,-1,-1,0
15700,-65536,91,-56,-1,-1,0
15733,983040,91,-56,-1,-1,0
15766,1966080,91,-56,-1,-1,0
15799,393216,91,-56,-1,-1,0
15833,-917504,91,-56,-1,-1,0
15866,-1048576,91,-56,-1,-1,0
15900,-917504,91,-56,-1,-1,0
15933,-917504,91,-56,-1,-1,0
15966,-1179648,91,-56,-1,-1,0
16000,-983040,91,-56,-1,-1,0
16033,-983040,91,-56,-1,-1,0
16066,-1245184,92,-56,-1,-1,0
16100,-1179648,92,-56,-1,-1,0
16133,9633792,92,-56,-1,-1,0
16166,-327680,92,-56,-1,-1,0
16200,-655360,92,-56,-1,-1,0
16233,-131072,92,-56,-1,-1,0
16266,851968,92,-56,-1,-1,0
16300,1966080,92,-56,-1,-1,0
16333,589824,92,-56,-1,-1,0
16366,-786432,92,-56,-1,-1,0
16400,-917504,92,-56,-1,-1,0
16433,-720896,92,-56,-1,-1,0
16466,-786432,92,-56,-1,-1,0
16500,-851968,92,-56,-1,-1,0
16533,-983040,92,-56,-1,-1,0
16566,-589824,92,-56,-1,-1,0
16600,-983040,92,-56,-1,-1,0
16633,-983040,92,-56,-1,-1,0
16666,5373952,92,-56,-1,-1,0
16700,131072,92,-56,-1,-1,0
16733,-589824,92,-56,-1,-1,0
16766,-262144,92,-56,-1,-1,0
16800,393216,92,-56,-1,-1,0
16833,1638400,92,-56,-1,-1,0
16866,1179648,92,-56,-1,-1,0
16900,-524288,92,-56,-1,-1,0
16933,-983040,92,-56,-1,-1,0
16966,-786432,92,-56,-1,-1,0
17000,-786432,92,-56,-1,-1,0
17033,-1048576,92,-56,-1,-1,0
17066,-983040,92,-56,-1,-1,0
17100,-655360,92,-56,-1,-1,0
17133,-983040,92,-56,-1,-1,0
17166,-1048576,92,-56,-1,-1,0
17200,-196608,92,-56,-1,-1,0
17233,5373952,92,-56,-1,-1,0
17266,-655360,92,-56,-1,-1,0
17300,-589824,92,-56,-1,-1,0
17333,-65536,92,-56,-1,-1,0
17366,1048576,92,-56,-1,-1,0
17400,1441792,92,-56,-1,-1,0
17433,-65536,92,-56,-1,-1,0
17466,-917504,92,-56,-1,-1,0
17500,-917504,92,-56,-1,-1,0
17533,-851968,92,-56,-1,-1,0
17566,-917504,92,-56,-1,-1,0
17600,-1048576,92,-56,-1,-1,0
17633,-1245184,92,-56,-1,-1,0
17666,-720896,92,-56,-1,-1,0
17700,-1179648,91,-56,-1,-1,0
17733,-1114112,91,-56,-1,-1,0
17766,6684672,91,-56,-1,-1,0
17800,0,91,-56,-1,-1,0
17833,-655360,91,-56,-1,-1,0
17866,-393216,91,-56,-1,-1,0
17900,458752,91,-56,-1,-1,0
17933,1638400,91,-56,-1,-1,0
17966,1114112,91,-56,-1,-1,0
18000,-589824,91,-56,-1,-1,0
18033,-983040,91,-56,-1,-1,0
18066,-851968,91,-56,-1,-1,0
18100,-851968,91,-56,-1,-1,0
18133,-983040,91,-56,-1,-1,0
18166,-1048576,91,-56,-1,-1,0
18200,-589824,91,-56,-1,-1,0
18233,-983040,91,-56,-1,-1,0
18266,-1048576,91,-56,-1,-1,0
18300,1966080,91,-56,-1,-1,0
18333,2097152,91,-56,-1,-1,0
18366,-458752,91,-56,-1,-1,0
18400,-262144,91,-56,-1,-1,0
18433,327680,91,-56,-1,-1,0
18466,1638400,91,-56,-1,-1,0
18500,1966080,91,-56,-1,-1,0
18533,-196608,91,-56,-1,-1,0
18566,-983040,91,-56,-1,-1,0
18600,-786432,91,-56,-1,-1,0
18633,-917504,91,-56,-1,-1,0
18666,-917504,91,-56,-1,-1,0
18700,-1245184,91,-56,-1,-1,0
18733,-655360,91,-56,-1,-1,0
18766,-1310720,91,-56,-1,-1,0
18800,-1245184,91,-56,-1,-1,0
18833,524288,91,-56,-1,-1,0
18866,3473408,91,-56,-1,-1,0
18900,-655360,91,-56,-1,-1,0
18933,-524288,91,-56,-1,-1,0
18966,131072,91,-56,-1,-1,0
19000,1376256,91,-56,-1,-1,0
19033,1835008,91,-56,-1,-1,0
19066,-65536,91,-56,-1,-1,0
19100,-983040,91,-56,-1,-1,0
19133,-1048576,91,-56,-1,-1,0
19166,-720896,91,-56,-1,-1,0
19200,-1048576,91,-56,-1,-1,0
19233,-1245184,91,-56,-1,-1,0
19266,-786432,91,-56,-1,-1,0
19300,-1245184,91,-56,-1,-1,0
19333,-1310720,91,-56,-1,-1,0
19366,-458752,91,-56,-1,-1,0
19400,5701632,91,-56,-1,-1,0
19433,-655360,91,-56,-1,-1,0
19466,-589824,91,-56,-1,-1,0
19500,0,91,-56,-1,-1,0
19533,1048576,91,-56,-1,-1,0
19566,1769472,91,-56,-1,-1,0
19600,0,91,-56,-1,-1,0
19633,-917504,91,-56,-1,-1,0
19666,-917504,91,-56,-1,-1,0
19700,-851968,91,-56,-1,-1,0
19733,-917504,91,-56,-1,-1,0
19766,-1114112,91,-56,-1,-1,0
19800,-851968,91,-56,-1,-1,0
19833,-1048576,91,-56,-1,-1,0
19866,-1114112,91,-56,-1,-1,0
19900,-1114112,91,-56,-1,-1,0
19933,8323072,91,-56,-1,-1,0
19966,-524288,91,-56,-1,-1,0
20000,-655360,91,-56,-1,-1,0
20033,-196608,91,-56,-1,-1,0
20066,786432,91,-56,-1,-1,0
20100,1703936,91,-56,-1,-1,0
20133,327680,91,-56,-1,-1,0
20166,-917504,91,-56,-1,-1,0
20200,-1048576,91,-56,-1,-1,0
20233,-786432,91,-56,-1,-1,0
20266,-917504,91,-56,-1,-1,0
20300,-983040,91,-56,-1,-1,0
20333,-1048576,91,-56,-1,-1,0
20366,-655360,91,-56,-1,-1,0
20400,-983040,92,-56,-1,-1,0
20433,-983040,92,-56,-1,-1,0
20466,7012352,92,-56,-1,-1,0
20500,0,92,-56,-1,-1,0
20533,-458752,92,-56,-1,-1,0
20566,-196608,92,-56,-1,-1,0
20600,655360,92,-56,-1,-1,0
20633,1966080,92,-56,-1,-1,0
20666,1441792,92,-56,-1,-1,0
20700,-458752,92,-56,-1,-1,0
20733,-786432,92,-56,-1,-1,0
20766,-655360,92,-56,-1,-1,0
20800,-589824,92,-56,-1,-1,0
20833,-720896,92,-56,-1,-1,0
20866,-851968,92,-56,-1,-1,0
20900,-458752,92,-56,-1,-1,0
20933,-851968,92,-56,-1,-1,0
20966,-983040,92,-56,-1,-1,0
21000,720896,92,-56,-1,-1,0
21033,3932160,92,-56,-1,-1,0
21066,-393216,92,-56,-1,-1,0
21100,-327680,92,-56,-1,-1,0
21133,262144,92,-56,-1,-1,0
21166,1507328,92,-56,-1,-1,0
21200,1966080,92,-56,-1,-1,0
21233,0,92,-56,-1,-1,0
21266,-917504,92,-56,-1,-1,0
21300,-917504,92,-56,-1,-1,0
21333,-786432,92,-56,-1,-1,0
21366,-851968,92,-56,-1,-1,0
21400,-1048576,92,-56,-1,-1,0
21433,-851968,92,-56,-1,-1,0
21466,-851968,92,-56,-1,-1,0
21500,-1114112,92,-56,-1,-1,0
21533,-1114112,92,-56,-1,-1,0
21566,9568256,92,-56,-1,-1,0
21600,-131072,92,-56,-1,-1,0
21633,-393216,92,-56,-1,-1,0
21666,0,92,-56,-1,-1,0
21700,983040,92,-56,-1,-1,0
21733,2097152,92,-56,-1,-1,0
21766,720896,92,-56,-1,-1,0
21800,-655360,92,-56,-1,-1,0
21833,-851968,92,-56,-1,-1,0
21866,-786432,92,-56,-1,-1,0
21900,-786432,92,-56,-1,-1,0
21933,-917504,92,-56,-1,-1,0
21966,-1114112,92,-56,-1,-1,0
22000,-655360,92,-56,-1,-1,0
22033,-1179648,92,-56,-1,-1,0
22066,-1245184,92,-56,-1,-1,0
22100,393216,92,-56,-1,-1,0
22133,2949120,92,-56,-1,-1,0
22166,-786432,92,-56,-1,-1,0
22200,-655360,92,-56,-1,-1,0
22233,-131072,92,-56,-1,-1,0
22266,1048576,92,-56,-1,-1,0
22300,1441792,92,-56,-1,-1,0
22333,-327680,92,-56,-1,-1,0
22366,-1245184,92,-56,-1,-1,0
22400,-1114112,92,-56,-1,-1,0
22433,-983040,92,-56,-1,-1,0
22466,-1114112,92,-56,-1,-1,0
22500,-1179648,92,-56,-1,-1,0
22533,-1376256,92,-56,-1,-1,0
22566,-786432,92,-56,-1,-1,0
22600,-1179648,92,-56,-1,-1,0
22633,-1245184,92,-56,-1,-1,0
22666,3211264,92,-56,-1,-1,0
22700,262144,92,-56,-1,-1,0
22733,-655360,92,-56,-1,-1,0
22766,-393216,92,-56,-1,-1,0
22800,262144,92,-56,-1,-1,0
22833,1507328,92,-56,-1,-1,0
22866,1572864,92,-56,-1,-1,0
22900,-262144,92,-56,-1,-1,0
22933,-917504,92,-56,-1,-1,0
22966,-720896,92,-56,-1,-1,0
23000,-720896,92,-56,-1,-1,0
23033,-720896,92,-56,-1,-1,0
23066,-917504,92,-56,-1,-1,0
23100,-1048576,92,-56,-1,-1,0
23133,-524288,92,-56,-1,-1,0
23166,-983040,92,-56,-1,-1,0
23200,-983040,92,-56,-1,-1,0
23233,4128768,92,-56,-1,-1,0
23266,393216,92,-56,-1,-1,0
23300,-524288,92,-56,-1,-1,0
23333,-196608,92,-56,-1,-1,0
23366,393216,92,-56,-1,-1,0
23400,1769472,92,-56,-1,-1,0
23433,1507328,92,-56,-1,-1,0
23466,-327680,92,-56,-1,-1,0
23500,-917504,92,-56,-1,-1,0
23533,-917504,92,-56,-1,-1,0
23566,-720896,92,-56,-1,-1,0
23600,-917504,92,-56,-1,-1,0
23633,-1048576,92,-56,-1,-1,0
23666,-1048576,92,-56,-1,-1,0
23700,-786432,92,-56,-1,-1,0
23733,-1048576,92,-56,-1,-1,0
23766,-1179648,92,-56,-1,-1,0
23800,6684672,92,-56,-1,-1,0
23833,0,92,-56,-1,-1,0
23866,-589824,92,-56,-1,-1,0
23900,-327680,92,-56,-1,-1,0
23933,524288,92,-56,-1,-1,0
23966,1703936,92,-56,-1,-1,0
24000,917504,92,-56,-1,-1,0
24033,-720896,92,-56,-1,-1,0
24066,-1179648,92,-56,-1,-1,0
24100,-917504,92,-56,-1,-1,0
24133,-983040,92,-56,-1,-1,0
24166,-1048576,92,-56,-1,-1,0
24200,-1179648,92,-56,-1,-1,0
24233,-917504,92,-56,-1,-1,0
24266,-1179648,92,-56,-1,-1,0
24300,-1245184,91,-56,-1,-1,0
24333,-1048576,91,-56,-1,-1,0
24366,7733248,91,-56,-1,-1,0
24400,-524288,91,-56,-1,-1,0
24433,-655360,91,-56,-1,-1,0
24466,-131072,91,-56,-1,-1,0
24500,917504,91,-56,-1,-1,0
24533,1703936,91,-56,-1,-1,0
24566,262144,91,-56,-1,-1,0
24600,-851968,91,-56,-1,-1,0
24633,-917504,91,-56,-1,-1,0
24666,-720896,91,-56,-1,-1,0
24700,-851968,91,-56,-1,-1,0
24733,-851968,91,-56,-1,-1,0
24766,-983040,91,-56,-1,-1,0
24800,-589824,91,-56,-1,-1,0
24833,-851968,91,-56,-1,-1,0
24866,-983040,91,-56,-1,-1,0
24900,7405568,91,-56,-1,-1,0
24933,65536,91,-56,-1,-1,0
24966,-458752,91,-56,-1,-1,0
25000,-65536,91,-56,-1,-1,0
25033,655360,91,-56,-1,-1,0
25066,1835008,91,-56,-1,-1,0
25100,1310720,91,-56,-1,-1,0
25133,-589824,91,-56,-1,-1,0
25166,-983040,91,-56,-1,-1,0
25200,-851968,91,-56,-1,-1,0
25233,-786432,91,-56,-1,-1,0
25266,-851968,91,-56,-1,-1,0
25300,-1048576,91,-56,-1,-1,0
25333,-589824,91,-56,-1,-1,0
25366,-1048576,91,-56,-1,-1,0
25400,-1114112,91,-56,-1,-1,0
25433,3604480,91,-56,-1,-1,0
25466,196608,91,-56,-1,-1,0
25500,-655360,91,-56,-1,-1,0
25533,-327680,91,-56,-1,-1,0
25566,262144,91,-56,-1,-1,0
25600,1572864,91,-56,-1,-1,0
25633,1441792,91,-56,-1,-1,0
25666,-524288,91,-56,-1,-1,0
25700,-1048576,91,-56,-1,-1,0
25733,-983040,91,-56,-1,-1,0
25766,-917504,91,-56,-1,-1,0
25800,-917504,91,-56,-1,-1,0
25833,-1179648,91,-56,-1,-1,0
25866,-720896,91,-56,-1,-1,0
25900,-1048576,92,-56,-1,-1,0
25933,-1114112,92,-56,-1,-1,0
25966,2621440,92,-56,-1,-1,0
26000,720896,92,-56,-1,-1,0
26033,-524288,92,-56,-1,-1,0
26066,-327680,92,-56,-1,-1,0
26099,393216,92,-56,-1,-1,0
26133,1572864,92,-56,-1,-1,0
26166,1572864,92,-56,-1,-1,0
26200,-262144,92,-56,-1,-1,0
26233,-851968,92,-56,-1,-1,0
26266,-786432,92,-56,-1,-1,0
26300,-720896,92,-56,-1,-1,0
26333,-786432,92,-56,-1,-1,0
26366,-1048576,92,-56,-1,-1,0
26400,-655360,92,-56,-1,-1,0
26433,-983040,92,-56,-1,-1,0
26466,-1114112,92,-56,-1,-1,0
26500,-131072,92,-56,-1,-1,0
26533,5242880,92,-56,-1,-1,0
26566,-589824,92,-56,-1,-1,0
26599,-589824,92,-56,-1,-1,0
26633,-131072,92,-56,-1,-1,0
26666,917504,92,-56,-1,-1,0
26700,1376256,92,-56,-1,-1,0
26733,-131072,92,-56,-1,-1,0
26766,-1048576,92,-56,-1,-1,0
26800,-983040,92,-56,-1,-1,0
26833,-851968,92,-56,-1,-1,0
26866,-851968,92,-56,-1,-1,0
26900,-1048576,92,-56,-1,-1,0
26933,-1179648,92,-56,-1,-1,0
26966,-720896,92,-56,-1,-1,0
27000,-983040,92,-56,-1,-1,0
27033,-1114112,91,-56,-1,-1,0
27066,5701632,91,-56,-1,-1,0
27099,65536,91,-56,-1,-1,0
27133,-524288,91,-56,-1,-1,0
27166,-262144,91,-56,-1,-1,0
27200,458752,91,-56,-1,-1,0
27233,1572864,91,-56,-1,-1,0
27266,1114112,91,-56,-1,-1,0
27300,-524288,91,-56,-1,-1,0
27333,-851968,91,-56,-1,-1,0
27366,-786432,91,-56,-1,-1,0
27400,-786432,91,-56,-1,-1,0
27433,-786432,91,-56,-1,-1,0
27466,-983040,91,-56,-1,-1,0
27500,-983040,91,-56,-1,-1,0
27533,-786432,91,-56,-1,-1,0
27566,-983040,91,-56,-1,-1,0
27599,-1048576,91,-56,-1,-1,0
27633,9961472,91,-56,-1,-1,0
27666,-65536,91,-56,-1,-1,0
27700,-393216,91,-56,-1,-1,0
27733,65536,91,-56,-1,-1,0
27766,917504,91,-56,-1,-1,0
27800,2031616,91,-56,-1,-1,0
27833,786432,91,-56,-1,-1,0
27866,-655360,91,-56,-1,-1,0
27900,-786432,91,-56,-1,-1,0
27933,-589824,91,-56,-1,-1,0
27966,-589824,91,-56,-1,-1,0
28000,-720896,91,-56,-1,-1,0
28033,-851968,91,-56,-1,-1,0
28066,-458752,91,-56,-1,-1,0
28099,-720896,91,-56,-1,-1,0
28133,-786432,90,-56,-1,-1,0
28166,589824,90,-56,-1,-1,0
28200,4653056,90,-56,-1,-1,0
28233,-65536,90,-56,-1,-1,0
28266,0,90,-56,-1,-1,0
28300,458752,90,-56,-1,-1,0
28333,1835008,90,-56,-1,-1,0
28366,2555904,90,-56,-1,-1,0
28400,393216,90,-56,-1,-1,0
28433,-393216,90,-56,-1,-1,0
28466,-458752,90,-56,-1,-1,0
28500,-458752,90,-56,-1,-1,0
28533,-589824,90,-56,-1,-1,0
28566,-851968,90,-56,-1,-1,0
28599,-917504,90,-56,-1,-1,0
28633,-851968,90,-56,-1,-1,0
28666,-1245184,90,-56,-1,-1,0
28700,-1376256,90,-56,-1,-1,0
28733,9306112,90,-56,-1,-1,0
28766,-655360,90,-56,-1,-1,0
28800,-1048576,90,-56,-1,-1,0
28833,-720896,90,-56,-1,-1,0
28866,196608,90,-56,-1,-1,0
28900,1179648,90,-56,-1,-1,0
28933,-65536,90,-56,-1,-1,0
28966,-1507328,90,-56,-1,-1,0
29000,-1638400,90,-56,-1,-1,0
29033,-1441792,90,-56,-1,-1,0
29066,-1441792,90,-56,-1,-1,0
29099,-1376256,90,-56,-1,-1,0
29133,-1441792,90,-56,-1,-1,0
29166,-1048576,90,-56,-1,-1,0
29200,-1310720,90,-56,-1,-1,0
29233,-1310720,90,-56,-1,-1,0
29266,6291456,90,-56,-1,-1,0
29300,-65536,90,-56,-1,-1,0
29333,-655360,90,-56,-1,-1,0
29366,-327680,90,-56,-1,-1,0
29400,524288,90,-56,-1,-1,0
29433,1572864,90,-56,-1,-1,0
29466,1048576,90,-56,-1,-1,0
29500,-524288,90,-56,-1,-1,0
29533,-786432,90,-56,-1,-1,0
29566,-851968,90,-56,-1,-1,0
29599,-786432,90,-56,-1,-1,0
29633,-983040,90,-56,-1,-1,0
29666,-1114112,90,-56,-1,-1,0
29700,-589824,90,-56,-1,-1,0
29733,-1179648,90,-56,-1,-1,0
29766,-1048576,90,-56,-1,-1,0
29800,5505024,90,-56,-1,-1,0
29833,0,90,-56,-1,-1,0
29866,-983040,90,-56,-1,-1,0
29900,-458752,90,-56,-1,-1,0
29933,0,90,-56,-1,-1,0
29966,1114112,90,-56,-1,-1,0
30000,851968,90,-56,-1,-1,0
30033,-1114112,90,-56,-1,-1,0
30066,-1441792,90,-56,-1,-1,0
30099,-1376256,90,-56,-1,-1,0
30133,-1310720,90,-56,-1,-1,0
30166,-1441792,90,-56,-1,-1,0
30200,-1376256,90,-56,-1,-1,0
30233,-1245184,91,-56,-1,-1,0
30266,-1638400,91,-56,-1,-1,0
30300,-1638400,91,-56,-1,-1,0
30333,10354688,91,-56,-1,-1,0
30366,-262144,91,-56,-1,-1,0
30400,-786432,91,-56,-1,-1,0
30433,-458752,91,-56,-1,-1,0
30466,786432,91,-56,-1,-1,0
30500,2097152,91,-56,-1,-1,0
30533,1048576,91,-56,-1,-1,0
30566,-786432,91,-56,-1,-1,0
30599,-1376256,91,-56,-1,-1,0
30633,-1179648,91,-56,-1,-1,0
30666,-1376256,91,-56,-1,-1,0
30700,-1245184,91,-56,-1,-1,0
30733,-983040,91,-56,-1,-1,0
30766,-1376256,91,-56,-1,-1,0
30800,-1441792,91,-56,-1,-1,0
30833,4980736,91,-56,-1,-1,0
30866,65536,91,-56,-1,-1,0
30900,-458752,91,-56,-1,-1,0
30933,0,91,-56,-1,-1,0
30966,851968,91,-56,-1,-1,0
31000,2883584,91,-56,-1,-1,0
31033,2359296,91,-56,-1,-1,0
31066,-589824,91,-56,-1,-1,0
31099,-1114112,91,-56,-1,-1,0
31133,-1376256,91,-56,-1,-1,0
31166,-851968,91,-56,-1,-1,0
31200,-524288,92,-56,-1,-1,0
31233,-589824,92,-56,-1,-1,0
31266,-1114112,92,-56,-1,-1,0
31300,-851968,92,-56,-1,-1,0
31333,9437184,92,-56,-1,-1,0
31366,65536,92,-56,-1,-1,0
31400,-65536,92,-56,-1,-1,0
31433,589824,92,-56,-1,-1,0
31466,2162688,92,-56,-1,-1,0
31500,4063232,92,-56,-1,-1,0
31533,2752512,92,-56,-1,-1,0
31566,-65536,92,-56,-1,-1,0
31599,-851968,92,-56,-1,-1,0
31633,-589824,92,-56,-1,-1,0
31666,-458752,92,-56,-1,-1,0
31700,-393216,92,-56,-1,-1,0
31733,-917504,92,-56,-1,-1,0
31766,-1245184,92,-56,-1,-1,0
31800,-1310720,92,-56,-1,-1,0
31833,7995392,92,-56,-1,-1,0
31866,-720896,92,-56,-1,-1,0
31900,-1048576,92,-56,-1,-1,0
31933,-917504,92,-56,-1,-1,0
31966,327680,92,-56,-1,-1,0
32000,1769472,92,-56,-1,-1,0
32033,196608,92,-56,-1,-1,0
32066,-1507328,92,-56,-1,-1,0
32100,-1507328,92,-56,-1,-1,0
32133,-1638400,92,-56,-1,-1,0
32166,-1572864,93,-56,-1,-1,0
32200,-1245184,93,-56,-1,-1,0
32233,-1703936,93,-56,-1,-1,0
32266,-1900544,93,-56,-1,-1,0
32299,2228224,93,-56,-1,-1,0
32333,-65536,93,-56,-1,-1,0
32366,-1376256,93,-56,-1,-1,0
32400,-1048576,93,-56,-1,-1,0
32433,-196608,93,-56,-1,-1,0
32466,1179648,93,-56,-1,-1,0
32500,1441792,93,-56,-1,-1,0
32533,-917504,93,-56,-1,-1,0
32566,-1638400,93,-56,-1,-1,0
32600,-1507328,93,-56,-1,-1,0
32633,-1507328,93,-56,-1,-1,0
32666,-1179648,93,-56,-1,-1,0
32700,-1507328,93,-56,-1,-1,0
32733,-1572864,93,-56,-1,-1,0
32766,-1310720,93,-56,-1,-1,0
32800,8585216,93,-56,-1,-1,0
32833,-393216,93,-56,-1,-1,0
32866,-393216,93,-56,-1,-1,0
32900,131072,93,-56,-1,-1,0
32933,1376256,93,-56,-1,-1,0
32966,2621440,93,-56,-1,-1,0
33000,720896,93,-56,-1,-1,0
33033,-589824,93,-56,-1,-1,0
33066,-655360,93,-56,-1,-1,0
33100,-524288,93,-56,-1,-1,0
33133,-524288,94,-56,-1,-1,0
33166,-393216,94,-56,-1,-1,0
33200,-786432,94,-56,-1,-1,0
33233,-917504,94,-56,-1,-1,0
33266,8519680,94,-56,-1,-1,0
33300,-131072,94,-56,-1,-1,0
33333,-589824,94,-56,-1,-1,0
33366,-720896,94,-56,-1,-1,0
33400,0,94,-56,-1,-1,0
33433,1769472,94,-56,-1,-1,0
33466,720896,94,-56,-1,-1,0
33500,-1703936,94,-56,-1,-1,0
33533,-1835008,94,-56,-1,-1,0
33566,-1572864,94,-56,-1,-1,0
33600,-1441792,96,-56,-1,-1,0
33633,-1114112,96,-56,-1,-1,0
33666,-1507328,96,-56,-1,-1,0
33700,-1572864,96,-56,-1,-1,0
33733,2424832,96,-56,-1,-1,0
33766,-262144,96,-56,-1,-1,0
33800,-1114112,96,-56,-1,-1,0
33833,-851968,96,-56,-1,-1,0
33866,-196608,96,-56,-1,-1,0
33900,1245184,96,-56,-1,-1,0
33933,1310720,96,-56,-1,-1,0
33966,-589824,96,-56,-1,-1,0
34000,-1310720,96,-56,-1,-1,0
34033,-1245184,96,-56,-1,-1,0
34066,-1441792,97,-56,-1,-1,0
34100,-1245184,97,-56,-1,-1,0
34133,-1376256,97,-56,-1,-1,0
34166,-983040,97,-56,-1,-1,0
34200,458752,97,-56,-1,-1,0
34233,4390912,97,-56,-1,-1,0
34266,-131072,97,-56,-1,-1,0
34300,-327680,97,-56,-1,-1,0
34333,393216,97,-56,-1,-1,0
34366,1572864,97,-56,-1,-1,0
34400,2359296,97,-56,-1,-1,0
34433,131072,97,-56,-1,-1,0
34466,-1048576,97,-56,-1,-1,0
34500,-655360,97,-56,-1,-1,0
34533,-524288,98,-56,-1,-1,0
34566,-262144,98,-56,-1,-1,0
34600,-851968,98,-56,-1,-1,0
34633,-1048576,98,-56,-1,-1,0
34666,65536,98,-56,-1,-1,0
34700,5373952,98,-56,-1,-1,0
34733,-524288,98,-56,-1,-1,0
34766,-720896,98,-56,-1,-1,0
34800,-786432,98,-56,-1,-1,0
34833,720896,98,-56,-1,-1,0
34866,1179648,98,-56,-1,-1,0
34900,-655360,98,-56,-1,-1,0
34933,-1245184,98,-56,-1,-1,0
34966,-1114112,100,-56,-1,-1,0
35000,-1638400,100,-56,-1,-1,0
35033,-1048576,100,-56,-1,-1,0
35066,-1441792,100,-56,-1,-1,0
35100,-1835008,100,-56,-1,-1,0
35133,2883584,100,-56,-1,-1,0
35166,-262144,100,-56,-1,-1,0
35200,-1376256,100,-56,-1,-1,0
35233,-1048576,100,-56,-1,-1,0
35266,-65536,100,-56,-1,-1,0
35300,983040,100,-56,-1,-1,0
35333,1441792,100,-56,-1,-1,0
35366,-655360,100,-56,-1,-1,0
35400,-1572864,100,-56,-1,-1,0
35433,-1376256,102,-56,-1,-1,0
35466,-1245184,102,-56,-1,-1,0
35500,-1114112,102,-56,-1,-1,0
35533,-1245184,102,-56,-1,-1,0
35566,-1048576,102,-56,-1,-1,0
35600,8912896,102,-56,-1,-1,0
35633,0,102,-56,-1,-1,0
35666,-327680,102,-56,-1,-1,0
35700,65536,102,-56,-1,-1,0
35733,1114112,102,-56,-1,-1,0
35766,2621440,102,-56,-1,-1,0
35800,1703936,102,-56,-1,-1,0
35833,-524288,102,-56,-1,-1,0
35866,-589824,102,-56,-1,-1,0
35900,-458752,102,-56,-1,-1,0
35933,-131072,102,-56,-1,-1,0
35966,-786432,102,-56,-1,-1,0
36000,-851968,102,-56,-1,-1,0
36033,1703936,102,-56,-1,-1,0
36066,2555904,102,-56,-1,-1,0
36100,-655360,102,-56,-1,-1,0
36133,-786432,102,-56,-1,-1,0
36166,-131072,102,-56,-1,-1,0
36200,458752,102,-56,-1,-1,0
36233,1114112,102,-56,-1,-1,0
36266,-917504,102,-56,-1,-1,0
36300,-1638400,102,-56,-1,-1,0
36333,-1507328,104,-56,-1,-1,0
36366,-1572864,104,-56,-1,-1,0
36400,-1441792,104,-56,-1,-1,0
36433,-1441792,104,-56,-1,-1,0
36466,-1835008,104,-56,-1,-1,0
36500,8650752,104,-56,-1,-1,0
36533,-1245184,104,-56,-1,-1,0
36566,-1376256,104,-56,-1,-1,0
36600,-655360,104,-56,-1,-1,0
36633,262144,104,-56,-1,-1,0
36666,1179648,104,-56,-1,-1,0
36700,196608,104,-56,-1,-1,0
36733,-1310720,104,-56,-1,-1,0
36766,-1638400,104,-56,-1,-1,0
36800,-1769472,104,-56,-1,-1,0
36833,-851968,104,-56,-1,-1,0
36866,-1245184,104,-56,-1,-1,0
36900,-1114112,104,-56,-1,-1,0
36933,4063232,104,-56,-1,-1,0
36966,393216,104,-56,-1,-1,0
37000,-524288,104,-56,-1,-1,0
37033,-131072,104,-56,-1,-1,0
37066,589824,104,-56,-1,-1,0
37100,1900544,104,-56,-1,-1,0
37133,1900544,104,-56,-1,-1,0
37166,-393216,104,-56,-1,-1,0
37200,-851968,104,-56,-1,-1,0
37233,-655360,105,-56,-1,-1,0
37266,-393216,105,-56,-1,-1,0
37300,-655360,105,-56,-1,-1,0
37333,-983040,105,-56,-1,-1,0
37366,-393216,105,-56,-1,-1,0
37400,7012352,105,-56,-1,-1,0
37433,-589824,105,-56,-1,-1,0
37466,-917504,105,-56,-1,-1,0
37500,-327680,105,-56,-1,-1,0
37533,524288,105,-56,-1,-1,0
37566,1114112,105,-56,-1,-1,0
37600,-524288,105,-56,-1,-1,0
37633,-1966080,105,-56,-1,-1,0
37666,-1703936,106,-56,-1,-1,0
37700,-1441792,106,-56,-1,-1,0
37733,-1572864,106,-56,-1,-1,0
37766,-1507328,106,-56,-1,-1,0
37800,-1572864,106,-56,-1,-1,0
37833,7208960,106,-56,-1,-1,0
37866,-786432,106,-56,-1,-1,0
37900,-1179648,106,-56,-1,-1,0
37933,-917504,106,-56,-1,-1,0
37966,65536,106,-56,-1,-1,0
38000,917504,106,-56,-1,-1,0
38033,458752,106,-56,-1,-1,0
38066,-1048576,106,-56,-1,-1,0
38100,-983040,107,-56,-1,-1,0
38133,-1245184,107,-56,-1,-1,0
38166,-720896,107,-56,-1,-1,0
38200,-1245184,107,-56,-1,-1,0
38233,-1245184,107,-56,-1,-1,0
38266,1245184,107,-56,-1,-1,0
38300,2031616,107,-56,-1,-1,0
38333,-458752,107,-56,-1,-1,0
38366,-393216,107,-56,-1,-1,0
38400,196608,107,-56,-1,-1,0
38433,1245184,107,-56,-1,-1,0
38466,1507328,107,-56,-1,-1,0
38500,-262144,107,-56,-1,-1,0
38533,-983040,107,-56,-1,-1,0
38566,-851968,107,-56,-1,-1,0
38600,-655360,107,-56,-1,-1,0
38633,-786432,107,-56,-1,-1,0
38666,-1048576,107,-56,-1,-1,0
38700,-1245184,107,-56,-1,-1,0
38733,9109504,107,-56,-1,-1,0
38766,-327680,107,-56,-1,-1,0
38800,-524288,107,-56,-1,-1,0
38833,-131072,107,-56,-1,-1,0
38866,524288,107,-56,-1,-1,0
38900,1441792,107,-56,-1,-1,0
38933,-131072,107,-56,-1,-1,0
38966,-983040,107,-56,-1,-1,0
39000,-1048576,108,-56,-1,-1,0
39033,-1507328,108,-56,-1,-1,0
39066,-589824,108,-56,-1,-1,0
39100,-1310720,108,-56,-1,-1,0
39133,-1507328,108,-56,-1,-1,0
39166,4194304,108,-56,-1,-1,0
39200,-720896,108,-56,-1,-1,0
39233,-1245184,108,-56,-1,-1,0
39266,-917504,108,-56,-1,-1,0
39300,-327680,108,-56,-1,-1,0
39333,786432,108,-56,-1,-1,0
39366,720896,108,-56,-1,-1,0
39400,-917504,108,-56,-1,-1,0
39433,-1245184,109,-56,-1,-1,0
39466,-1114112,109,-56,-1,-1,0
39500,-1245184,109,-56,-1,-1,0
39533,-1376256,109,-56,-1,-1,0
39566,-1572864,109,-56,-1,-1,0
39600,-393216,109,-56,-1,-1,0
39633,5898240,109,-56,-1,-1,0
39666,-589824,109,-56,-1,-1,0
39700,-393216,109,-56,-1,-1,0
39733,131072,109,-56,-1,-1,0
39766,1376256,109,-56,-1,-1,0
39800,1835008,109,-56,-1,-1,0
39833,196608,109,-56,-1,-1,0
39866,-720896,109,-56,-1,-1,0
39900,-851968,110,-56,-1,-1,0
39933,-458752,110,-56,-1,-1,0
39966,-393216,110,-56,-1,-1,0
40000,-851968,110,-56,-1,-1,0
40033,-1048576,110,-56,-1,-1,0
40066,10551296,110,-56,-1,-1,0
40100,-131072,110,-56,-1,-1,0
40133,-458752,110,-56,-1,-1,0
40166,0,110,-56,-1,-1,0
40200,589824,110,-56,-1,-1,0
40233,1441792,110,-56,-1,-1,0
40266,-327680,110,-56,-1,-1,0
40300,-1703936,110,-56,-1,-1,0
40333,-1638400,111,-56,-1,-1,0
40366,-1245184,111,-56,-1,-1,0
40400,-1376256,111,-56,-1,-1,0
40433,-1572864,111,-56,-1,-1,0
40466,-1048576,111,-56,-1,-1,0
40500,4259840,111,-56,-1,-1,0
40533,-393216,111,-56,-1,-1,0
40566,-851968,111,-56,-1,-1,0
40600,-786432,111,-56,-1,-1,0
40633,-131072,111,-56,-1,-1,0
40666,1048576,111,-56,-1,-1,0
40700,851968,111,-56,-1,-1,0
40733,-720896,111,-56,-1,-1,0
40766,-786432,111,-56,-1,-1,0
40800,-1114112,111,-56,-1,-1,0
40833,-851968,111,-56,-1,-1,0
40866,-1572864,111,-56,-1,-1,0
40900,-1507328,111,-56,-1,-1,0
40933,393216,111,-56,-1,-1,0
40966,3014656,111,-56,-1,-1,0
41000,-720896,111,-56,-1,-1,0
41033,-393216,111,-56,-1,-1,0
41066,0,111,-56,-1,-1,0
41100,917504,111,-56,-1,-1,0
41133,1179648,111,-56,-1,-1,0
41166,-458752,111,-56,-1,-1,0
41200,-1507328,111,-56,-1,-1,0
41233,-1179648,111,-56,-1,-1,0
41266,-917504,111,-56,-1,-1,0
41300,-983040,111,-56,-1,-1,0
41333,-1310720,111,-56,-1,-1,0
41366,-589824,111,-56,-1,-1,0
41400,6881280,111,-56,-1,-1,0
41433,-786432,111,-56,-1,-1,0
41466,-524288,111,-56,-1,-1,0
41500,0,111,-56,-1,-1,0
41533,393216,111,-56,-1,-1,0
41566,1376256,111,-56,-1,-1,0
41600,-655360,111,-56,-1,-1,0
41633,-1376256,111,-56,-1,-1,0
41666,-1507328,111,-56,-1,-1,0
41700,-1245184,111,-56,-1,-1,0
41733,-1048576,111,-56,-1,-1,0
41766,-1703936,111,-56,-1,-1,0
41800,-1048576,111,-56,-1,-1,0
41833,10354688,111,-56,-1,-1,0
41866,-720896,111,-56,-1,-1,0
41900,-1310720,111,-56,-1,-1,0
41933,-655360,111,-56,-1,-1,0
41966,786432,111,-56,-1,-1,0
42000,1835008,111,-56,-1,-1,0
42033,131072,111,-56,-1,-1,0
42066,-1245184,112,-56,-1,-1,0
42100,-1376256,112,-56,-1,-1,0
42133,-1638400,112,-56,-1,-1,0
42166,-1638400,112,-56,-1,-1,0
42200,-1900544,112,-56,-1,-1,0
42233,-1835008,112,-56,-1,-1,0
42266,10289152,112,-56,-1,-1,0
42300,-589824,112,-56,-1,-1,0
42333,-917504,112,-56,-1,-1,0
42366,-393216,112,-56,-1,-1,0
42400,851968,112,-56,-1,-1,0
42433,2490368,112,-56,-1,-1,0
42466,655360,112,-56,-1,-1,0
42500,-1048576,112,-56,-1,-1,0
42533,-917504,112,-56,-1,-1,0
42566,-983040,112,-56,-1,-1,0
42600,-589824,112,-56,-1,-1,0
42633,-720896,112,-56,-1,-1,0
42666,-655360,112,-56,-1,-1,0
42700,11010048,112,-56,-1,-1,0
42733,-262144,112,-56,-1,-1,0
42766,-524288,112,-56,-1,-1,0
42800,65536,112,-56,-1,-1,0
42833,1179648,112,-56,-1,-1,0
42866,2031616,112,-56,-1,-1,0
42900,-262144,112,-56,-1,-1,0
42933,-1048576,112,-56,-1,-1,0
42966,-2162688,112,-56,-1,-1,0
43000,-1310720,112,-56,-1,-1,0
43033,-1179648,112,-56,-1,-1,0
43066,-1114112,112,-56,-1,-1,0
43100,-1245184,112,-56,-1,-1,0
43133,8978432,112,-56,-1,-1,0
43166,-655360,112,-56,-1,-1,0
43200,-786432,112,-56,-1,-1,0
43233,-458752,112,-56,-1,-1,0
43266,917504,112,-56,-1,-1,0
43300,1769472,112,-56,-1,-1,0
43333,-196608,112,-56,-1,-1,0
43366,-1507328,112,-56,-1,-1,0
43400,-1245184,112,-56,-1,-1,0
43433,-1179648,112,-56,-1,-1,0
43466,-1507328,112,-56,-1,-1,0
43500,-1376256,112,-56,-1,-1,0
43533,-393216,112,-56,-1,-1,0
43566,4915200,112,-56,-1,-1,0
43600,-1703936,112,-56,-1,-1,0
43633,-1441792,112,-56,-1,-1,0
43666,-655360,112,-56,-1,-1,0
43700,1245184,112,-56,-1,-1,0
43733,1703936,112,-56,-1,-1,0
43766,-131072,112,-56,-1,-1,0
43800,-983040,112,-56,-1,-1,0
43833,-1114112,112,-56,-1,-1,0
43866,-524288,112,-56,-1,-1,0
43900,-1114112,112,-56,-1,-1,0
43933,-1179648,112,-56,-1,-1,0
43966,1638400,112,-56,-1,-1,0
44000,1638400,112,-56,-1,-1,0
44033,-524288,112,-56,-1,-1,0
44066,-458752,112,-56,-1,-1,0
44100,393216,112,-56,-1,-1,0
44133,1507328,112,-56,-1,-1,0
44166,1441792,112,-56,-1,-1,0
44200,-524288,112,-56,-1,-1,0
44233,-1441792,113,-56,-1,-1,0
44266,-1245184,113,-56,-1,-1,0
44300,-1507328,113,-56,-1,-1,0
44333,-1769472,113,-56,-1,-1,0
44366,-1769472,113,-56,-1,-1,0
44400,-720896,113,-56,-1,-1,0
44433,3473408,113,-56,-1,-1,0
44466,-1441792,113,-56,-1,-1,0
44500,-1310720,113,-56,-1,-1,0
44533,-851968,113,-56,-1,-1,0
44566,524288,113,-56,-1,-1,0
44600,917504,113,-56,-1,-1,0
44633,-720896,113,-56,-1,-1,0
44666,-1441792,113,-56,-1,-1,0
44700,-1310720,113,-56,-1,-1,0
44733,-1048576,113,-56,-1,-1,0
44766,-983040,113,-56,-1,-1,0
44800,-720896,113,-56,-1,-1,0
44833,-1376256,113,-56,-1,-1,0
44866,9961472,113,-56,-1,-1,0
44900,-524288,113,-56,-1,-1,0
44933,-720896,113,-56,-1,-1,0
44966,-262144,113,-56,-1,-1,0
45000,1245184,113,-56,-1,-1,0
45033,2555904,113,-56,-1,-1,0
45066,1114112,113,-56,-1,-1,0
45100,-262144,113,-56,-1,-1,0
45133,-458752,113,-56,-1,-1,0
45166,-458752,113,-56,-1,-1,0
45200,-327680,113,-56,-1,-1,0
45233,-851968,113,-56,-1,-1,0
45266,-851968,113,-56,-1,-1,0
45300,9764864,113,-56,-1,-1,0
45333,-131072,113,-56,-1,-1,0
45366,-655360,113,-56,-1,-1,0
45400,-65536,113,-56,-1,-1,0
45433,851968,113,-56,-1,-1,0
45466,2031616,113,-56,-1,-1,0
45500,1114112,113,-56,-1,-1,0
45533,-786432,113,-56,-1,-1,0
45566,-1048576,113,-56,-1,-1,0
45600,-1441792,113,-56,-1,-1,0
45633,-1114112,113,-56,-1,-1,0
45666,-1835008,113,-56,-1,-1,0
45700,-2097152,113,-56,-1,-1,0
45733,4784128,113,-56,-1,-1,0
45766,-655360,113,-56,-1,-1,0
45800,-1441792,113,-56,-1,-1,0
45833,-589824,113,-56,-1,-1,0
45866,-720896,113,-56,-1,-1,0
45900,1179648,113,-56,-1,-1,0
45933,720896,113,-56,-1,-1,0
45966,-917504,113,-56,-1,-1,0
46000,-1376256,113,-56,-1,-1,0
46033,-1638400,113,-56,-1,-1,0
46066,-1048576,113,-56,-1,-1,0
46100,-1441792,113,-56,-1,-1,0
46133,-1638400,113,-56,-1,-1,0
46166,1835008,113,-56,-1,-1,0
46200,458752,113,-56,-1,-1,0
46233,-851968,113,-56,-1,-1,0
46266,-851968,113,-56,-1,-1,0
46300,-458752,113,-56,-1,-1,0
46333,655360,113,-56,-1,-1,0
46366,1114112,113,-56,-1,-1,0
46400,-393216,113,-56,-1,-1,0
46433,-1179648,114,-56,-1,-1,0
46466,-589824,114,-56,-1,-1,0
46500,-524288,114,-56,-1,-1,0
46533,-917504,114,-56,-1,-1,0
46566,-720896,114,-56,-1,-1,0
46600,655360,114,-56,-1,-1,0
46633,4194304,114,-56,-1,-1,0
46666,-327680,114,-56,-1,-1,0
46700,-327680,114,-56,-1,-1,0
46733,458752,114,-56,-1,-1,0
46766,1376256,114,-56,-1,-1,0
46800,2228224,114,-56,-1,-1,0
46833,589824,114,-56,-1,-1,0
46866,-524288,114,-56,-1,-1,0
46900,-458752,114,-56,-1,-1,0
46933,-393216,114,-56,-1,-1,0
46966,-720896,114,-56,-1,-1,0
47000,-983040,114,-56,-1,-1,0
47033,-917504,114,-56,-1,-1,0
47066,8912896,114,-56,-1,-1,0
47100,-1114112,114,-56,-1,-1,0
47133,-1179648,114,-56,-1,-1,0
47166,-1966080,114,-56,-1,-1,0
47200,-393216,114,-56,-1,-1,0
47233,393216,114,-56,-1,-1,0
47266,-196608,114,-56,-1,-1,0
47300,-1638400,114,-56,-1,-1,0
47333,-1114112,114,-56,-1,-1,0
47366,-1572864,114,-56,-1,-1,0
47400,-1245184,114,-56,-1,-1,0
47433,-1507328,114,-56,-1,-1,0
47466,-1572864,114,-56,-1,-1,0
47500,9175040,114,-56,-1,-1,0
47533,-851968,114,-56,-1,-1,0
47566,-1179648,114,-56,-1,-1,0
47600,-786432,114,-56,-1,-1,0
47633,262144,114,-56,-1,-1,0
47666,1048576,114,-56,-1,-1,0
47700,65536,114,-56,-1,-1,0
47733,-1441792,114,-56,-1,-1,0
47766,-1310720,114,-56,-1,-1,0
47800,-1507328,114,-56,-1,-1,0
47833,-720896,114,-56,-1,-1,0
47866,-983040,114,-56,-1,-1,0
47900,-786432,114,-56,-1,-1,0
47933,8388608,114,-56,-1,-1,0
47966,65536,114,-56,-1,-1,0
48000,-393216,114,-56,-1,-1,0
48033,131072,114,-56,-1,-1,0
48066,786432,114,-56,-1,-1,0
48100,2031616,114,-56,-1,-1,0
48133,851968,114,-56,-1,-1,0
48166,-262144,114,-56,-1,-1,0
48200,-327680,114,-56,-1,-1,0
48233,-524288,114,-56,-1,-1,0
48266,-589824,114,-56,-1,-1,0
48300,-983040,114,-56,-1,-1,0
48333,-983040,114,-56,-1,-1,0
48366,4915200,114,-56,-1,-1,0
48400,-131072,114,-56,-1,-1,0
48433,-1310720,114,-56,-1,-1,0
48466,-851968,114,-56,-1,-1,0
48500,-327680,114,-56,-1,-1,0
48533,458752,114,-56,-1,-1,0
48566,1310720,114,-56,-1,-1,0
48600,-1114112,114,-56,-1,-1,0
48633,-983040,114,-56,-1,-1,0
48666,-1638400,114,-56,-1,-1,0
48700,-1179648,114,-56,-1,-1,0
48733,-1507328,114,-56,-1,-1,0
48766,-1572864,114,-56,-1,-1,0
48800,3145728,114,-56,-1,-1,0
48833,0,114,-56,-1,-1,0
48866,-983040,114,-56,-1,-1,0
48900,-589824,114,-56,-1,-1,0
48933,-196608,114,-56,-1,-1,0
48966,983040,114,-56,-1,-1,0
49000,720896,114,-56,-1,-1,0
49033,-524288,114,-56,-1,-1,0
49066,-1048576,114,-56,-1,-1,0
49100,-1179648,114,-56,-1,-1,0
49133,-917504,114,-56,-1,-1,0
49166,-1441792,114,-56,-1,-1,0
49200,-1900544,114,-56,-1,-1,0
49233,-65536,114,-56,-1,-1,0
49266,4194304,114,-56,-1,-1,0
49300,-720896,114,-56,-1,-1,0
49333,-655360,114,-56,-1,-1,0
49366,-65536,114,-56,-1,-1,0
49400,917504,114,-56,-1,-1,0
49433,1245184,114,-56,-1,-1,0
49466,-65536,114,-56,-1,-1,0
49500,-851968,114,-56,-1,-1,0
49533,-655360,114,-56,-1,-1,0
49566,-983040,114,-56,-1,-1,0
49600,-917504,114,-56,-1,-1,0
49633,-851968,114,-56,-1,-1,0
49666,-327680,114,-56,-1,-1,0
49700,7340032,114,-56,-1,-1,0
49733,-524288,114,-56,-1,-1,0
49766,-851968,114,-56,-1,-1,0
49800,-458752,114,-56,-1,-1,0
49833,458752,114,-56,-1,-1,0
49866,524288,114,-56,-1,-1,0
49900,-655360,114,-56,-1,-1,0
49933,-1703936,114,-56,-1,-1,0
49966,-1507328,114,-56,-1,-1,0
50000,-1114112,114,-56,-1,-1,0
