milliseconds, ECG, ECG HR, PPG, PPG HR, SpO2, PI
1523621335058,-917504,92,-56,-1,-1,0
1523621335058,-851968,92,-56,-1,-1,0
1523621335058,-851968,92,-56,-1,-1,0
1523621335058,-983040,92,-56,-1,-1,0
1523621335058,-1048576,92,-56,-1,-1,0
1523621335099,-1048576,92,-56,-1,-1,0
1523621335099,-1114112,92,-56,-1,-1,0
1523621335099,-1245184,92,-56,-1,-1,0
1523621335099,-1245184,92,-56,-1,-1,0
1523621335099,-1114112,92,-56,-1,-1,0
1523621335138,-917504,92,-56,-1,-1,0
1523621335138,-786432,92,-56,-1,-1,0
1523621335138,-655360,92,-56,-1,-1,0
1523621335138,-720896,92,-56,-1,-1,0
1523621335138,-851968,92,-56,-1,-1,0
1523621335178,-983040,92,-56,-1,-1,0
1523621335178,-1048576,92,-56,-1,-1,0
1523621335178,-1179648,92,-56,-1,-1,0
1523621335178,-1310720,92,-56,-1,-1,0
1523621335178,-1310720,92,-56,-1,-1,0
1523621335218,-1245184,92,-56,-1,-1,0
1523621335218,-1179648,92,-56,-1,-1,0
1523621335218,-1310720,92,-56,-1,-1,0
1523621335218,-1441792,92,-56,-1,-1,0
1523621335218,-1310720,92,-56,-1,-1,0
1523621335258,-1245184,92,-56,-1,-1,0
1523621335258,-983040,92,-56,-1,-1,0
1523621335258,131072,92,-56,-1,-1,0
1523621335258,2490368,92,-56,-1,-1,0
1523621335258,5963776,92,-56,-1,-1,0
1523621335298,9371648,92,-56,-1,-1,0
1523621335298,8912896,92,-56,-1,-1,0
1523621335298,4390912,92,-56,-1,-1,0
1523621335298,589824,92,-56,-1,-1,0
1523621335298,-196608,92,-56,-1,-1,0
1523621335338,-393216,92,-56,-1,-1,0
1523621335338,-589824,92,-56,-1,-1,0
1523621335338,-655360,92,-56,-1,-1,0
1523621335338,-720896,92,-56,-1,-1,0
1523621335338,-851968,92,-56,-1,-1,0
1523621335378,-851968,92,-56,-1,-1,0
1523621335378,-786432,92,-56,-1,-1,0
1523621335378,-655360,92,-56,-1,-1,0
1523621335378,-589824,92,-56,-1,-1,0
1523621335378,-393216,92,-56,-1,-1,0
1523621335418,-131072,92,-56,-1,-1,0
1523621335418,-131072,92,-56,-1,-1,0
1523621335418,-131072,92,-56,-1,-1,0
1523621335418,0,92,-56,-1,-1,0
1523621335418,327680,92,-56,-1,-1,0
1523621335458,655360,92,-56,-1,-1,0
1523621335458,983040,92,-56,-1,-1,0
1523621335458,1376256,92,-56,-1,-1,0
1523621335458,1638400,92,-56,-1,-1,0
1523621335458,1769472,92,-56,-1,-1,0
1523621335498,1900544,92,-56,-1,-1,0
1523621335498,1966080,92,-56,-1,-1,0
1523621335498,1835008,92,-56,-1,-1,0
1523621335498,1572864,92,-56,-1,-1,0
1523621335498,1179648,92,-56,-1,-1,0
1523621335538,720896,92,-56,-1,-1,0
1523621335538,327680,92,-56,-1,-1,0
1523621335538,0,92,-56,-1,-1,0
1523621335538,-327680,92,-56,-1,-1,0
1523621335538,-589824,92,-56,-1,-1,0
1523621335578,-720896,92,-56,-1,-1,0
1523621335578,-786432,92,-56,-1,-1,0
1523621335578,-851968,92,-56,-1,-1,0
1523621335578,-917504,92,-56,-1,-1,0
1523621335578,-917504,92,-56,-1,-1,0
1523621335618,-917504,92,-56,-1,-1,0
1523621335618,-917504,92,-56,-1,-1,0
1523621335618,-851968,92,-56,-1,-1,0
1523621335618,-851968,92,-56,-1,-1,0
1523621335618,-720896,92,-56,-1,-1,0
1523621335658,-589824,92,-56,-1,-1,0
1523621335658,-589824,92,-56,-1,-1,0
1523621335658,-655360,92,-56,-1,-1,0
1523621335658,-589824,92,-56,-1,-1,0
1523621335658,-589824,92,-56,-1,-1,0
1523621335698,-589824,92,-56,-1,-1,0
1523621335698,-589824,92,-56,-1,-1,0
1523621335698,-655360,92,-56,-1,-1,0
1523621335698,-655360,92,-56,-1,-1,0
1523621335698,-720896,92,-56,-1,-1,0
1523621335739,-786432,92,-56,-1,-1,0
1523621335739,-720896,92,-56,-1,-1,0
1523621335739,-720896,92,-56,-1,-1,0
1523621335739,-655360,92,-56,-1,-1,0
1523621335739,-524288,92,-56,-1,-1,0
1523621335778,-393216,92,-56,-1,-1,0
1523621335778,-262144,92,-56,-1,-1,0
1523621335778,-196608,92,-56,-1,-1,0
1523621335778,-327680,92,-56,-1,-1,0
1523621335778,-458752,92,-56,-1,-1,0
1523621335818,-589824,92,-56,-1,-1,0
1523621335818,-589824,92,-56,-1,-1,0
1523621335818,-589824,92,-56,-1,-1,0
1523621335818,-589824,92,-56,-1,-1,0
1523621335818,-589824,92,-56,-1,-1,0
1523621335858,-589824,92,-56,-1,-1,0
1523621335858,-589824,92,-56,-1,-1,0
1523621335858,-589824,92,-56,-1,-1,0
1523621335858,-589824,92,-56,-1,-1,0
1523621335858,-458752,92,-56,-1,-1,0
1523621335898,262144,92,-56,-1,-1,0
1523621335898,2162688,92,-56,-1,-1,0
1523621335898,4980736,92,-56,-1,-1,0
1523621335898,8650752,92,-56,-1,-1,0
1523621335898,10027008,92,-56,-1,-1,0
1523621335938,6750208,92,-56,-1,-1,0
1523621335938,2359296,92,-56,-1,-1,0
1523621335938,589824,92,-56,-1,-1,0
1523621335938,393216,92,-56,-1,-1,0
1523621335938,65536,92,-56,-1,-1,0
1523621335978,-65536,92,-56,-1,-1,0
1523621335978,-196608,92,-56,-1,-1,0
1523621335978,-196608,92,-56,-1,-1,0
1523621335978,-196608,92,-56,-1,-1,0
1523621335978,-131072,92,-56,-1,-1,0
1523621336018,0,92,-56,-1,-1,0
1523621336018,0,92,-56,-1,-1,0
1523621336018,0,92,-56,-1,-1,0
1523621336018,131072,92,-56,-1,-1,0
1523621336018,196608,92,-56,-1,-1,0
1523621336058,327680,92,-56,-1,-1,0
1523621336058,524288,92,-56,-1,-1,0
1523621336058,720896,92,-56,-1,-1,0
1523621336058,983040,92,-56,-1,-1,0
1523621336058,1179648,92,-56,-1,-1,0
1523621336098,1507328,92,-56,-1,-1,0
1523621336098,1703936,92,-56,-1,-1,0
1523621336098,1900544,92,-56,-1,-1,0
1523621336098,2031616,92,-56,-1,-1,0
1523621336098,2031616,92,-56,-1,-1,0
1523621336138,1900544,92,-56,-1,-1,0
1523621336138,1638400,92,-56,-1,-1,0
1523621336138,1310720,92,-56,-1,-1,0
1523621336138,851968,92,-56,-1,-1,0
1523621336138,393216,92,-56,-1,-1,0
1523621336178,0,92,-56,-1,-1,0
1523621336178,-262144,92,-56,-1,-1,0
1523621336178,-524288,92,-56,-1,-1,0
1523621336178,-720896,92,-56,-1,-1,0
1523621336178,-851968,92,-56,-1,-1,0
1523621336218,-983040,92,-56,-1,-1,0
1523621336218,-1048576,92,-56,-1,-1,0
1523621336218,-1114112,92,-56,-1,-1,0
1523621336218,-1179648,92,-56,-1,-1,0
1523621336218,-1114112,92,-56,-1,-1,0
1523621336258,-1114112,92,-56,-1,-1,0
1523621336258,-1114112,92,-56,-1,-1,0
1523621336258,-1114112,92,-56,-1,-1,0
1523621336258,-1114112,92,-56,-1,-1,0
1523621336258,-1179648,92,-56,-1,-1,0
1523621336298,-1179648,92,-56,-1,-1,0
1523621336298,-1114112,92,-56,-1,-1,0
1523621336298,-1048576,92,-56,-1,-1,0
1523621336298,-1179648,92,-56,-1,-1,0
1523621336298,-1179648,92,-56,-1,-1,0
1523621336338,-1179648,92,-56,-1,-1,0
1523621336338,-1245184,92,-56,-1,-1,0
1523621336338,-1310720,92,-56,-1,-1,0
1523621336338,-1376256,92,-56,-1,-1,0
1523621336338,-1441792,92,-56,-1,-1,0
1523621336379,-1507328,92,-56,-1,-1,0
1523621336379,-1507328,92,-56,-1,-1,0
1523621336379,-1310720,92,-56,-1,-1,0
1523621336379,-1114112,92,-56,-1,-1,0
1523621336379,-983040,92,-56,-1,-1,0
1523621336418,-1048576,92,-56,-1,-1,0
1523621336418,-1179648,92,-56,-1,-1,0
1523621336418,-1310720,92,-56,-1,-1,0
1523621336418,-1441792,92,-56,-1,-1,0
1523621336418,-1572864,92,-56,-1,-1,0
1523621336459,-1638400,92,-56,-1,-1,0
1523621336459,-1572864,92,-56,-1,-1,0
1523621336459,-1572864,92,-56,-1,-1,0
1523621336459,-1572864,92,-56,-1,-1,0
1523621336459,-1638400,92,-56,-1,-1,0
1523621336498,-1703936,92,-56,-1,-1,0
1523621336498,-1703936,92,-56,-1,-1,0
1523621336498,-1638400,92,-56,-1,-1,0
1523621336498,-1179648,92,-56,-1,-1,0
1523621336498,393216,92,-56,-1,-1,0
1523621336538,2949120,92,-56,-1,-1,0
1523621336538,6422528,92,-56,-1,-1,0
1523621336538,8519680,92,-56,-1,-1,0
1523621336538,6291456,92,-56,-1,-1,0
1523621336538,1966080,92,-56,-1,-1,0
1523621336578,-262144,92,-56,-1,-1,0
1523621336578,-589824,92,-56,-1,-1,0
1523621336578,-917504,92,-56,-1,-1,0
1523621336578,-1179648,92,-56,-1,-1,0
1523621336578,-1245184,92,-56,-1,-1,0
1523621336618,-1245184,92,-56,-1,-1,0
1523621336618,-1179648,92,-56,-1,-1,0
1523621336618,-1179648,92,-56,-1,-1,0
1523621336618,-1048576,92,-56,-1,-1,0
1523621336618,-983040,92,-56,-1,-1,0
1523621336658,-851968,92,-56,-1,-1,0
1523621336658,-851968,92,-56,-1,-1,0
1523621336658,-720896,92,-56,-1,-1,0
1523621336658,-589824,92,-56,-1,-1,0
1523621336658,-393216,92,-56,-1,-1,0
1523621336698,-196608,92,-56,-1,-1,0
1523621336698,0,92,-56,-1,-1,0
1523621336698,196608,92,-56,-1,-1,0
1523621336698,458752,92,-56,-1,-1,0
1523621336698,720896,92,-56,-1,-1,0
1523621336738,917504,92,-56,-1,-1,0
1523621336738,1048576,92,-56,-1,-1,0
1523621336738,1114112,92,-56,-1,-1,0
1523621336738,1114112,92,-56,-1,-1,0
1523621336738,983040,92,-56,-1,-1,0
1523621336778,655360,92,-56,-1,-1,0
1523621336778,262144,92,-56,-1,-1,0
1523621336778,-131072,92,-56,-1,-1,0
1523621336778,-524288,92,-56,-1,-1,0
1523621336778,-655360,92,-56,-1,-1,0
1523621336818,-786432,92,-56,-1,-1,0
1523621336818,-983040,92,-56,-1,-1,0
1523621336818,-1179648,92,-56,-1,-1,0
1523621336818,-1310720,92,-56,-1,-1,0
1523621336818,-1376256,92,-56,-1,-1,0
1523621336858,-1376256,92,-56,-1,-1,0
1523621336858,-1376256,92,-56,-1,-1,0
1523621336858,-1376256,92,-56,-1,-1,0
1523621336858,-1310720,92,-56,-1,-1,0
1523621336858,-1245184,92,-56,-1,-1,0
1523621336898,-1179648,92,-56,-1,-1,0
1523621336898,-1245184,92,-56,-1,-1,0
1523621336898,-1114112,92,-56,-1,-1,0
1523621336898,-1048576,92,-56,-1,-1,0
1523621336898,-1048576,92,-56,-1,-1,0
1523621336938,-1114112,92,-56,-1,-1,0
1523621336938,-1114112,92,-56,-1,-1,0
1523621336938,-1114112,92,-56,-1,-1,0
1523621336938,-1114112,92,-56,-1,-1,0
1523621336938,-1179648,92,-56,-1,-1,0
1523621336978,-1245184,92,-56,-1,-1,0
1523621336978,-1245184,92,-56,-1,-1,0
1523621336978,-1245184,92,-56,-1,-1,0
1523621336978,-1310720,92,-56,-1,-1,0
1523621336978,-1376256,92,-56,-1,-1,0
1523621337019,-1376256,92,-56,-1,-1,0
1523621337019,-1179648,92,-56,-1,-1,0
1523621337019,-917504,92,-56,-1,-1,0
1523621337019,-786432,92,-56,-1,-1,0
1523621337019,-851968,92,-56,-1,-1,0
1523621337058,-851968,92,-56,-1,-1,0
1523621337058,-983040,92,-56,-1,-1,0
1523621337058,-1114112,92,-56,-1,-1,0
1523621337058,-1245184,92,-56,-1,-1,0
1523621337058,-1310720,92,-56,-1,-1,0
1523621337098,-1245184,92,-56,-1,-1,0
1523621337098,-1245184,92,-56,-1,-1,0
1523621337098,-1310720,92,-56,-1,-1,0
1523621337098,-1310720,92,-56,-1,-1,0
1523621337098,-1245184,92,-56,-1,-1,0
1523621337138,-1179648,92,-56,-1,-1,0
1523621337138,-1179648,92,-56,-1,-1,0
1523621337138,-1048576,92,-56,-1,-1,0
1523621337138,0,92,-56,-1,-1,0
1523621337138,2162688,92,-56,-1,-1,0
1523621337178,5308416,92,-56,-1,-1,0
1523621337178,8585216,92,-56,-1,-1,0
1523621337178,8519680,92,-56,-1,-1,0
1523621337178,4653056,92,-56,-1,-1,0
1523621337178,851968,92,-56,-1,-1,0
1523621337218,-131072,92,-56,-1,-1,0
1523621337218,-262144,92,-56,-1,-1,0
1523621337218,-458752,92,-56,-1,-1,0
1523621337218,-655360,92,-56,-1,-1,0
1523621337218,-720896,92,-56,-1,-1,0
1523621337258,-720896,92,-56,-1,-1,0
1523621337258,-655360,92,-56,-1,-1,0
1523621337258,-524288,92,-56,-1,-1,0
1523621337258,-458752,92,-56,-1,-1,0
1523621337258,-458752,92,-56,-1,-1,0
1523621337298,-393216,92,-56,-1,-1,0
1523621337298,-327680,92,-56,-1,-1,0
1523621337298,-196608,92,-56,-1,-1,0
1523621337298,-65536,92,-56,-1,-1,0
1523621337298,65536,92,-56,-1,-1,0
1523621337338,262144,92,-56,-1,-1,0
1523621337338,524288,92,-56,-1,-1,0
1523621337338,851968,92,-56,-1,-1,0
1523621337338,1114112,92,-56,-1,-1,0
1523621337338,1376256,92,-56,-1,-1,0
1523621337378,1507328,92,-56,-1,-1,0
1523621337378,1572864,92,-56,-1,-1,0
1523621337378,1572864,92,-56,-1,-1,0
1523621337378,1507328,92,-56,-1,-1,0
1523621337378,1310720,92,-56,-1,-1,0
1523621337418,1048576,92,-56,-1,-1,0
1523621337418,655360,92,-56,-1,-1,0
1523621337418,196608,92,-56,-1,-1,0
1523621337418,-65536,92,-56,-1,-1,0
1523621337418,-393216,92,-56,-1,-1,0
1523621337458,-655360,92,-56,-1,-1,0
1523621337458,-786432,92,-56,-1,-1,0
1523621337458,-851968,92,-56,-1,-1,0
1523621337458,-851968,92,-56,-1,-1,0
1523621337458,-851968,92,-56,-1,-1,0
1523621337498,-917504,92,-56,-1,-1,0
1523621337498,-983040,92,-56,-1,-1,0
1523621337498,-983040,92,-56,-1,-1,0
1523621337498,-983040,92,-56,-1,-1,0
1523621337498,-917504,92,-56,-1,-1,0
1523621337538,-917504,92,-56,-1,-1,0
1523621337538,-917504,92,-56,-1,-1,0
1523621337538,-786432,92,-56,-1,-1,0
1523621337538,-720896,92,-56,-1,-1,0
1523621337538,-786432,92,-56,-1,-1,0
1523621337578,-851968,92,-56,-1,-1,0
1523621337578,-851968,92,-56,-1,-1,0
1523621337578,-851968,92,-56,-1,-1,0
1523621337578,-851968,92,-56,-1,-1,0
1523621337578,-917504,92,-56,-1,-1,0
1523621337618,-917504,92,-56,-1,-1,0
1523621337618,-983040,92,-56,-1,-1,0
1523621337618,-1114112,92,-56,-1,-1,0
1523621337618,-1114112,92,-56,-1,-1,0
1523621337618,-1048576,92,-56,-1,-1,0
1523621337659,-1048576,92,-56,-1,-1,0
1523621337659,-1048576,92,-56,-1,-1,0
1523621337659,-917504,92,-56,-1,-1,0
1523621337659,-786432,92,-56,-1,-1,0
1523621337659,-720896,92,-56,-1,-1,0
1523621337698,-720896,92,-56,-1,-1,0
1523621337698,-786432,92,-56,-1,-1,0
1523621337698,-851968,92,-56,-1,-1,0
1523621337698,-983040,92,-56,-1,-1,0
1523621337698,-1114112,92,-56,-1,-1,0
1523621337738,-1179648,92,-56,-1,-1,0
1523621337738,-1179648,92,-56,-1,-1,0
1523621337738,-1179648,92,-56,-1,-1,0
1523621337738,-1179648,92,-56,-1,-1,0
1523621337738,-1179648,92,-56,-1,-1,0
1523621337779,-1114112,92,-56,-1,-1,0
1523621337779,-1179648,92,-56,-1,-1,0
1523621337779,-1114112,92,-56,-1,-1,0
1523621337779,-655360,92,-56,-1,-1,0
1523621337779,917504,92,-56,-1,-1,0
1523621337818,3866624,92,-56,-1,-1,0
1523621337818,7733248,92,-56,-1,-1,0
1523621337818,10289152,92,-56,-1,-1,0
1523621337818,8192000,92,-56,-1,-1,0
1523621337818,3276800,92,-56,-1,-1,0
1523621337858,327680,92,-56,-1,-1,0
1523621337858,0,92,-56,-1,-1,0
1523621337858,-196608,92,-56,-1,-1,0
1523621337858,-458752,92,-56,-1,-1,0
1523621337858,-524288,92,-56,-1,-1,0
1523621337898,-524288,92,-56,-1,-1,0
1523621337898,-524288,92,-56,-1,-1,0
1523621337898,-524288,92,-56,-1,-1,0
1523621337898,-393216,92,-56,-1,-1,0
1523621337898,-327680,92,-56,-1,-1,0
1523621337938,-262144,92,-56,-1,-1,0
1523621337938,-131072,92,-56,-1,-1,0
1523621337938,0,92,-56,-1,-1,0
1523621337938,65536,92,-56,-1,-1,0
1523621337938,262144,92,-56,-1,-1,0
1523621337978,458752,92,-56,-1,-1,0
1523621337978,786432,92,-56,-1,-1,0
1523621337978,983040,92,-56,-1,-1,0
1523621337978,1179648,92,-56,-1,-1,0
1523621337978,1507328,92,-56,-1,-1,0
1523621338018,1769472,92,-56,-1,-1,0
1523621338018,1966080,92,-56,-1,-1,0
1523621338018,2031616,92,-56,-1,-1,0
1523621338018,1966080,92,-56,-1,-1,0
1523621338018,1900544,92,-56,-1,-1,0
1523621338058,1703936,92,-56,-1,-1,0
1523621338058,1310720,92,-56,-1,-1,0
1523621338058,786432,92,-56,-1,-1,0
1523621338058,327680,92,-56,-1,-1,0
1523621338058,0,92,-56,-1,-1,0
1523621338098,-262144,92,-56,-1,-1,0
1523621338098,-524288,92,-56,-1,-1,0
1523621338098,-720896,92,-56,-1,-1,0
1523621338098,-786432,92,-56,-1,-1,0
1523621338098,-786432,92,-56,-1,-1,0
1523621338138,-786432,92,-56,-1,-1,0
1523621338138,-786432,92,-56,-1,-1,0
1523621338138,-720896,92,-56,-1,-1,0
1523621338138,-720896,92,-56,-1,-1,0
1523621338138,-720896,92,-56,-1,-1,0
1523621338178,-786432,92,-56,-1,-1,0
1523621338178,-720896,92,-56,-1,-1,0
1523621338178,-655360,92,-56,-1,-1,0
1523621338178,-589824,92,-56,-1,-1,0
1523621338178,-655360,92,-56,-1,-1,0
1523621338218,-589824,92,-56,-1,-1,0
1523621338218,-524288,92,-56,-1,-1,0
1523621338218,-655360,92,-56,-1,-1,0
1523621338218,-786432,92,-56,-1,-1,0
1523621338218,-786432,92,-56,-1,-1,0
1523621338258,-720896,92,-56,-1,-1,0
1523621338258,-720896,92,-56,-1,-1,0
1523621338258,-720896,92,-56,-1,-1,0
1523621338258,-786432,92,-56,-1,-1,0
1523621338258,-786432,92,-56,-1,-1,0
1523621338299,-851968,92,-56,-1,-1,0
1523621338299,-917504,92,-56,-1,-1,0
1523621338299,-851968,92,-56,-1,-1,0
1523621338299,-720896,92,-56,-1,-1,0
1523621338299,-589824,92,-56,-1,-1,0
1523621338338,-524288,92,-56,-1,-1,0
1523621338338,-458752,92,-56,-1,-1,0
1523621338338,-589824,92,-56,-1,-1,0
1523621338338,-720896,92,-56,-1,-1,0
1523621338338,-851968,92,-56,-1,-1,0
1523621338378,-917504,92,-56,-1,-1,0
1523621338378,-983040,92,-56,-1,-1,0
1523621338378,-917504,92,-56,-1,-1,0
1523621338378,-851968,92,-56,-1,-1,0
1523621338378,-917504,92,-56,-1,-1,0
1523621338418,-983040,92,-56,-1,-1,0
1523621338418,-983040,92,-56,-1,-1,0
1523621338418,-983040,92,-56,-1,-1,0
1523621338418,-917504,92,-56,-1,-1,0
1523621338418,-196608,92,-56,-1,-1,0
1523621338458,1703936,92,-56,-1,-1,0
1523621338458,4784128,92,-56,-1,-1,0
1523621338458,8781824,92,-56,-1,-1,0
1523621338458,10223616,92,-56,-1,-1,0
1523621338458,6684672,92,-56,-1,-1,0
1523621338498,2031616,92,-56,-1,-1,0
1523621338498,262144,92,-56,-1,-1,0
1523621338498,0,92,-56,-1,-1,0
1523621338498,-262144,92,-56,-1,-1,0
1523621338498,-393216,92,-56,-1,-1,0
1523621338538,-524288,92,-56,-1,-1,0
1523621338538,-589824,92,-56,-1,-1,0
1523621338538,-524288,92,-56,-1,-1,0
1523621338538,-458752,92,-56,-1,-1,0
1523621338538,-393216,92,-56,-1,-1,0
1523621338580,-393216,92,-56,-1,-1,0
1523621338580,-327680,92,-56,-1,-1,0
1523621338580,-131072,92,-56,-1,-1,0
1523621338580,65536,92,-56,-1,-1,0
1523621338580,131072,92,-56,-1,-1,0
1523621338618,327680,92,-56,-1,-1,0
1523621338618,589824,92,-56,-1,-1,0
1523621338618,786432,92,-56,-1,-1,0
1523621338618,1114112,92,-56,-1,-1,0
1523621338618,1572864,92,-56,-1,-1,0
1523621338658,1900544,92,-56,-1,-1,0
1523621338658,2031616,92,-56,-1,-1,0
1523621338658,2162688,92,-56,-1,-1,0
1523621338658,2228224,92,-56,-1,-1,0
1523621338658,2097152,92,-56,-1,-1,0
1523621338698,1900544,92,-56,-1,-1,0
1523621338698,1572864,92,-56,-1,-1,0
1523621338698,1114112,92,-56,-1,-1,0
1523621338698,720896,92,-56,-1,-1,0
1523621338698,262144,92,-56,-1,-1,0
1523621338738,-65536,92,-56,-1,-1,0
1523621338738,-458752,92,-56,-1,-1,0
1523621338738,-655360,92,-56,-1,-1,0
1523621338738,-851968,92,-56,-1,-1,0
1523621338738,-983040,92,-56,-1,-1,0
1523621338778,-851968,92,-56,-1,-1,0
1523621338778,-786432,92,-56,-1,-1,0
1523621338778,-786432,92,-56,-1,-1,0
1523621338778,-851968,92,-56,-1,-1,0
1523621338778,-851968,92,-56,-1,-1,0
1523621338818,-786432,92,-56,-1,-1,0
1523621338818,-786432,92,-56,-1,-1,0
1523621338818,-720896,92,-56,-1,-1,0
1523621338818,-720896,92,-56,-1,-1,0
1523621338818,-655360,92,-56,-1,-1,0
1523621338858,-720896,92,-56,-1,-1,0
1523621338858,-720896,92,-56,-1,-1,0
1523621338858,-655360,92,-56,-1,-1,0
1523621338858,-655360,92,-56,-1,-1,0
1523621338858,-786432,92,-56,-1,-1,0
1523621338898,-917504,92,-56,-1,-1,0
1523621338898,-917504,92,-56,-1,-1,0
1523621338898,-851968,92,-56,-1,-1,0
1523621338898,-851968,92,-56,-1,-1,0
1523621338898,-917504,92,-56,-1,-1,0
1523621338939,-1048576,92,-56,-1,-1,0
1523621338939,-1179648,92,-56,-1,-1,0
1523621338939,-1179648,92,-56,-1,-1,0
1523621338939,-1048576,92,-56,-1,-1,0
1523621338939,-786432,92,-56,-1,-1,0
1523621338978,-589824,92,-56,-1,-1,0
1523621338978,-589824,92,-56,-1,-1,0
1523621338978,-655360,92,-56,-1,-1,0
1523621338978,-786432,92,-56,-1,-1,0
1523621338978,-983040,92,-56,-1,-1,0
1523621339018,-1114112,92,-56,-1,-1,0
1523621339018,-1114112,92,-56,-1,-1,0
1523621339018,-1114112,92,-56,-1,-1,0
1523621339018,-1114112,92,-56,-1,-1,0
1523621339018,-1179648,92,-56,-1,-1,0
1523621339058,-1245184,92,-56,-1,-1,0
1523621339058,-1245184,92,-56,-1,-1,0
1523621339058,-1179648,92,-56,-1,-1,0
1523621339058,-1114112,92,-56,-1,-1,0
1523621339058,-1114112,92,-56,-1,-1,0
1523621339098,-393216,92,-56,-1,-1,0
1523621339098,1572864,92,-56,-1,-1,0
1523621339098,4784128,92,-56,-1,-1,0
1523621339098,8781824,92,-56,-1,-1,0
1523621339098,10027008,92,-56,-1,-1,0
1523621339139,6291456,92,-56,-1,-1,0
1523621339139,1638400,92,-56,-1,-1,0
1523621339139,0,92,-56,-1,-1,0
1523621339139,-131072,92,-56,-1,-1,0
1523621339139,-458752,92,-56,-1,-1,0
1523621339178,-655360,92,-56,-1,-1,0
1523621339178,-720896,92,-56,-1,-1,0
1523621339178,-786432,92,-56,-1,-1,0
1523621339178,-786432,92,-56,-1,-1,0
1523621339178,-720896,92,-56,-1,-1,0
1523621339218,-589824,92,-56,-1,-1,0
1523621339218,-524288,92,-56,-1,-1,0
1523621339218,-458752,92,-56,-1,-1,0
1523621339218,-393216,92,-56,-1,-1,0
1523621339218,-196608,92,-56,-1,-1,0
1523621339258,-65536,92,-56,-1,-1,0
1523621339258,131072,92,-56,-1,-1,0
1523621339258,327680,92,-56,-1,-1,0
1523621339258,589824,92,-56,-1,-1,0
1523621339258,851968,92,-56,-1,-1,0
1523621339298,1114112,92,-56,-1,-1,0
1523621339298,1376256,92,-56,-1,-1,0
1523621339298,1638400,92,-56,-1,-1,0
1523621339298,1769472,92,-56,-1,-1,0
1523621339298,1835008,92,-56,-1,-1,0
1523621339339,1703936,92,-56,-1,-1,0
1523621339339,1507328,92,-56,-1,-1,0
1523621339339,1179648,92,-56,-1,-1,0
1523621339339,720896,92,-56,-1,-1,0
1523621339339,262144,92,-56,-1,-1,0
1523621339378,-65536,92,-56,-1,-1,0
1523621339378,-458752,92,-56,-1,-1,0
1523621339378,-655360,92,-56,-1,-1,0
1523621339378,-851968,92,-56,-1,-1,0
1523621339378,-983040,92,-56,-1,-1,0
1523621339419,-1048576,92,-56,-1,-1,0
1523621339419,-1114112,92,-56,-1,-1,0
1523621339419,-1048576,92,-56,-1,-1,0
1523621339419,-983040,92,-56,-1,-1,0
1523621339419,-983040,92,-56,-1,-1,0
1523621339458,-917504,92,-56,-1,-1,0
1523621339458,-917504,92,-56,-1,-1,0
1523621339458,-851968,92,-56,-1,-1,0
1523621339458,-786432,92,-56,-1,-1,0
1523621339458,-786432,92,-56,-1,-1,0
1523621339498,-720896,92,-56,-1,-1,0
1523621339498,-720896,92,-56,-1,-1,0
1523621339498,-720896,92,-56,-1,-1,0
1523621339498,-720896,92,-56,-1,-1,0
1523621339498,-786432,92,-56,-1,-1,0
1523621339538,-786432,92,-56,-1,-1,0
1523621339538,-786432,92,-56,-1,-1,0
1523621339538,-786432,92,-56,-1,-1,0
1523621339538,-786432,92,-56,-1,-1,0
1523621339538,-851968,92,-56,-1,-1,0
1523621339579,-851968,92,-56,-1,-1,0
1523621339579,-917504,92,-56,-1,-1,0
1523621339579,-917504,92,-56,-1,-1,0
1523621339579,-917504,92,-56,-1,-1,0
1523621339579,-917504,92,-56,-1,-1,0
1523621339618,-983040,92,-56,-1,-1,0
1523621339618,-1048576,92,-56,-1,-1,0
1523621339618,-983040,92,-56,-1,-1,0
1523621339618,-786432,92,-56,-1,-1,0
1523621339618,-589824,92,-56,-1,-1,0
1523621339658,-393216,92,-56,-1,-1,0
1523621339658,-393216,92,-56,-1,-1,0
1523621339658,-524288,92,-56,-1,-1,0
1523621339658,-589824,92,-56,-1,-1,0
1523621339658,-720896,92,-56,-1,-1,0
1523621339698,-720896,92,-56,-1,-1,0
1523621339698,-720896,92,-56,-1,-1,0
1523621339698,-720896,92,-56,-1,-1,0
1523621339698,-720896,92,-56,-1,-1,0
1523621339698,-720896,92,-56,-1,-1,0
1523621339738,-720896,92,-56,-1,-1,0
1523621339738,-720896,92,-56,-1,-1,0
1523621339738,-720896,92,-56,-1,-1,0
1523621339738,-720896,92,-56,-1,-1,0
1523621339738,-458752,92,-56,-1,-1,0
1523621339778,589824,91,-56,-1,-1,0
1523621339778,2818048,91,-56,-1,-1,0
1523621339778,6094848,91,-56,-1,-1,0
1523621339778,9371648,91,-56,-1,-1,0
1523621339778,8912896,91,-56,-1,-1,0
1523621339818,4849664,91,-56,-1,-1,0
1523621339818,1376256,91,-56,-1,-1,0
1523621339818,589824,91,-56,-1,-1,0
1523621339818,327680,91,-56,-1,-1,0
1523621339818,0,91,-56,-1,-1,0
1523621339858,-65536,91,-56,-1,-1,0
1523621339858,-65536,91,-56,-1,-1,0
1523621339858,-65536,91,-56,-1,-1,0
1523621339858,-65536,91,-56,-1,-1,0
1523621339858,-65536,91,-56,-1,-1,0
1523621339898,0,91,-56,-1,-1,0
1523621339898,131072,91,-56,-1,-1,0
1523621339898,196608,91,-56,-1,-1,0
1523621339898,262144,91,-56,-1,-1,0
1523621339898,393216,91,-56,-1,-1,0
1523621339938,589824,91,-56,-1,-1,0
1523621339938,786432,91,-56,-1,-1,0
1523621339938,917504,91,-56,-1,-1,0
1523621339938,1179648,91,-56,-1,-1,0
1523621339938,1507328,91,-56,-1,-1,0
1523621339978,1769472,91,-56,-1,-1,0
1523621339978,1966080,91,-56,-1,-1,0
1523621339978,2162688,91,-56,-1,-1,0
1523621339978,2228224,91,-56,-1,-1,0
1523621339978,2228224,91,-56,-1,-1,0
1523621340018,2097152,91,-56,-1,-1,0
1523621340018,1900544,91,-56,-1,-1,0
1523621340018,1572864,91,-56,-1,-1,0
1523621340018,1179648,91,-56,-1,-1,0
1523621340018,720896,91,-56,-1,-1,0
1523621340058,327680,91,-56,-1,-1,0
1523621340058,0,91,-56,-1,-1,0
1523621340058,-196608,91,-56,-1,-1,0
1523621340058,-393216,91,-56,-1,-1,0
1523621340058,-524288,91,-56,-1,-1,0
1523621340098,-589824,91,-56,-1,-1,0
1523621340098,-589824,91,-56,-1,-1,0
1523621340098,-589824,91,-56,-1,-1,0
1523621340098,-655360,91,-56,-1,-1,0
1523621340098,-655360,91,-56,-1,-1,0
1523621340138,-589824,91,-56,-1,-1,0
1523621340138,-589824,91,-56,-1,-1,0
1523621340138,-524288,91,-56,-1,-1,0
1523621340138,-458752,91,-56,-1,-1,0
1523621340138,-458752,91,-56,-1,-1,0
1523621340178,-524288,91,-56,-1,-1,0
1523621340178,-655360,91,-56,-1,-1,0
1523621340178,-655360,91,-56,-1,-1,0
1523621340178,-524288,91,-56,-1,-1,0
1523621340178,-458752,91,-56,-1,-1,0
1523621340219,-655360,91,-56,-1,-1,0
1523621340219,-786432,91,-56,-1,-1,0
1523621340219,-786432,91,-56,-1,-1,0
1523621340219,-786432,91,-56,-1,-1,0
1523621340219,-786432,91,-56,-1,-1,0
1523621340258,-851968,91,-56,-1,-1,0
1523621340258,-917504,91,-56,-1,-1,0
1523621340258,-983040,91,-56,-1,-1,0
1523621340258,-983040,91,-56,-1,-1,0
1523621340258,-917504,91,-56,-1,-1,0
1523621340298,-917504,91,-56,-1,-1,0
1523621340298,-983040,91,-56,-1,-1,0
1523621340298,-1114112,91,-56,-1,-1,0
1523621340298,-1245184,91,-56,-1,-1,0
1523621340298,-1310720,91,-56,-1,-1,0
1523621340338,-1376256,91,-56,-1,-1,0
1523621340338,-1245184,91,-56,-1,-1,0
1523621340338,-1048576,91,-56,-1,-1,0
1523621340338,-917504,91,-56,-1,-1,0
1523621340338,-851968,91,-56,-1,-1,0
1523621340378,-917504,91,-56,-1,-1,0
1523621340378,-1114112,91,-56,-1,-1,0
1523621340378,-1245184,91,-56,-1,-1,0
1523621340378,-1376256,91,-56,-1,-1,0
1523621340378,-1441792,91,-56,-1,-1,0
1523621340418,-1441792,91,-56,-1,-1,0
1523621340418,-1441792,91,-56,-1,-1,0
1523621340418,-1507328,91,-56,-1,-1,0
1523621340418,-1441792,91,-56,-1,-1,0
1523621340418,-1376256,91,-56,-1,-1,0
1523621340458,-1376256,91,-56,-1,-1,0
1523621340458,-1441792,91,-56,-1,-1,0
1523621340458,-1507328,91,-56,-1,-1,0
1523621340458,-1048576,91,-56,-1,-1,0
1523621340458,458752,91,-56,-1,-1,0
1523621340498,3211264,90,-56,-1,-1,0
1523621340498,6750208,90,-56,-1,-1,0
1523621340498,8716288,90,-56,-1,-1,0
1523621340498,6422528,90,-56,-1,-1,0
1523621340498,2031616,90,-56,-1,-1,0
1523621340538,-262144,90,-56,-1,-1,0
1523621340538,-589824,90,-56,-1,-1,0
1523621340538,-786432,90,-56,-1,-1,0
1523621340538,-917504,90,-56,-1,-1,0
1523621340538,-983040,90,-56,-1,-1,0
1523621340578,-1048576,90,-56,-1,-1,0
1523621340578,-1048576,90,-56,-1,-1,0
1523621340578,-1114112,90,-56,-1,-1,0
1523621340578,-983040,90,-56,-1,-1,0
1523621340578,-786432,90,-56,-1,-1,0
1523621340618,-655360,90,-56,-1,-1,0
1523621340618,-589824,90,-56,-1,-1,0
1523621340618,-589824,90,-56,-1,-1,0
1523621340618,-458752,90,-56,-1,-1,0
1523621340618,-196608,90,-56,-1,-1,0
1523621340658,-65536,90,-56,-1,-1,0
1523621340658,0,90,-56,-1,-1,0
1523621340658,327680,90,-56,-1,-1,0
1523621340658,655360,90,-56,-1,-1,0
1523621340658,851968,90,-56,-1,-1,0
1523621340698,1114112,90,-56,-1,-1,0
1523621340698,1179648,90,-56,-1,-1,0
1523621340698,1245184,90,-56,-1,-1,0
1523621340698,1245184,90,-56,-1,-1,0
1523621340698,1114112,90,-56,-1,-1,0
1523621340738,917504,90,-56,-1,-1,0
1523621340738,655360,90,-56,-1,-1,0
1523621340738,327680,90,-56,-1,-1,0
1523621340738,-65536,90,-56,-1,-1,0
1523621340738,-393216,90,-56,-1,-1,0
1523621340778,-720896,90,-56,-1,-1,0
1523621340778,-917504,90,-56,-1,-1,0
1523621340778,-1048576,90,-56,-1,-1,0
1523621340778,-983040,90,-56,-1,-1,0
1523621340778,-1114112,90,-56,-1,-1,0
1523621340818,-1114112,90,-56,-1,-1,0
1523621340818,-1179648,90,-56,-1,-1,0
1523621340818,-1310720,90,-56,-1,-1,0
1523621340818,-1376256,90,-56,-1,-1,0
1523621340818,-1310720,90,-56,-1,-1,0
1523621340859,-1048576,90,-56,-1,-1,0
1523621340859,-851968,90,-56,-1,-1,0
1523621340859,-786432,90,-56,-1,-1,0
1523621340859,-1048576,90,-56,-1,-1,0
1523621340859,-1179648,90,-56,-1,-1,0
1523621340898,-1179648,90,-56,-1,-1,0
1523621340898,-917504,90,-56,-1,-1,0
1523621340898,-851968,90,-56,-1,-1,0
1523621340898,-917504,90,-56,-1,-1,0
1523621340898,-1048576,90,-56,-1,-1,0
1523621340938,-1048576,90,-56,-1,-1,0
1523621340938,-1114112,90,-56,-1,-1,0
1523621340938,-1114112,90,-56,-1,-1,0
1523621340938,-1048576,90,-56,-1,-1,0
1523621340938,-1245184,90,-56,-1,-1,0
1523621340978,-1245184,90,-56,-1,-1,0
1523621340978,-1179648,90,-56,-1,-1,0
1523621340978,-1179648,90,-56,-1,-1,0
1523621340978,-1179648,90,-56,-1,-1,0
1523621340978,-1114112,90,-56,-1,-1,0
1523621341018,-1179648,90,-56,-1,-1,0
1523621341018,-1310720,90,-56,-1,-1,0
1523621341018,-1310720,90,-56,-1,-1,0
1523621341018,-1310720,90,-56,-1,-1,0
1523621341018,-1376256,90,-56,-1,-1,0
1523621341058,-1179648,90,-56,-1,-1,0
1523621341058,-917504,90,-56,-1,-1,0
1523621341058,-851968,90,-56,-1,-1,0
1523621341058,-983040,90,-56,-1,-1,0
1523621341058,-983040,90,-56,-1,-1,0
1523621341098,-1114112,90,-56,-1,-1,0
1523621341098,-1245184,90,-56,-1,-1,0
1523621341098,-1310720,90,-56,-1,-1,0
1523621341098,-1179648,90,-56,-1,-1,0
1523621341098,-1048576,90,-56,-1,-1,0
1523621341138,-1114112,90,-56,-1,-1,0
1523621341138,-1245184,90,-56,-1,-1,0
1523621341138,-1376256,90,-56,-1,-1,0
1523621341138,-1376256,90,-56,-1,-1,0
1523621341138,-1310720,90,-56,-1,-1,0
1523621341178,-1245184,90,-56,-1,-1,0
1523621341178,-458752,90,-56,-1,-1,0
1523621341178,1441792,90,-56,-1,-1,0
1523621341178,4456448,90,-56,-1,-1,0
1523621341178,8257536,90,-56,-1,-1,0
1523621341218,10092544,90,-56,-1,-1,0
1523621341218,7012352,90,-56,-1,-1,0
1523621341218,2097152,90,-56,-1,-1,0
1523621341218,0,90,-56,-1,-1,0
1523621341218,-65536,90,-56,-1,-1,0
1523621341258,-262144,90,-56,-1,-1,0
1523621341258,-524288,90,-56,-1,-1,0
1523621341258,-655360,90,-56,-1,-1,0
1523621341258,-655360,90,-56,-1,-1,0
1523621341258,-524288,90,-56,-1,-1,0
1523621341298,-524288,90,-56,-1,-1,0
1523621341298,-524288,90,-56,-1,-1,0
1523621341298,-458752,90,-56,-1,-1,0
1523621341298,-196608,90,-56,-1,-1,0
1523621341298,-196608,90,-56,-1,-1,0
1523621341338,-131072,90,-56,-1,-1,0
1523621341338,0,90,-56,-1,-1,0
1523621341338,327680,90,-56,-1,-1,0
1523621341338,393216,90,-56,-1,-1,0
1523621341338,589824,90,-56,-1,-1,0
1523621341378,1048576,90,-56,-1,-1,0
1523621341378,1310720,90,-56,-1,-1,0
1523621341378,1376256,90,-56,-1,-1,0
1523621341378,1769472,90,-56,-1,-1,0
1523621341378,2228224,90,-56,-1,-1,0
1523621341418,2359296,90,-56,-1,-1,0
1523621341418,2162688,90,-56,-1,-1,0
1523621341418,2031616,90,-56,-1,-1,0
1523621341418,1769472,90,-56,-1,-1,0
1523621341418,1376256,90,-56,-1,-1,0
1523621341458,786432,90,-56,-1,-1,0
1523621341458,131072,90,-56,-1,-1,0
1523621341458,-131072,90,-56,-1,-1,0
1523621341458,-262144,90,-56,-1,-1,0
1523621341458,-458752,90,-56,-1,-1,0
1523621341499,-720896,90,-56,-1,-1,0
1523621341499,-851968,90,-56,-1,-1,0
1523621341499,-917504,90,-56,-1,-1,0
1523621341499,-1048576,90,-56,-1,-1,0
1523621341499,-1114112,90,-56,-1,-1,0
1523621341538,-917504,90,-56,-1,-1,0
1523621341538,-655360,90,-56,-1,-1,0
1523621341538,-655360,90,-56,-1,-1,0
1523621341538,-720896,90,-56,-1,-1,0
1523621341538,-786432,90,-56,-1,-1,0
1523621341578,-786432,90,-56,-1,-1,0
1523621341578,-720896,90,-56,-1,-1,0
1523621341578,-655360,90,-56,-1,-1,0
1523621341578,-720896,90,-56,-1,-1,0
1523621341578,-720896,90,-56,-1,-1,0
1523621341618,-720896,90,-56,-1,-1,0
1523621341618,-720896,90,-56,-1,-1,0
1523621341618,-720896,90,-56,-1,-1,0
1523621341618,-786432,90,-56,-1,-1,0
1523621341618,-786432,90,-56,-1,-1,0
1523621341658,-786432,90,-56,-1,-1,0
1523621341658,-786432,90,-56,-1,-1,0
1523621341658,-851968,90,-56,-1,-1,0
1523621341658,-917504,90,-56,-1,-1,0
1523621341658,-917504,90,-56,-1,-1,0
1523621341698,-917504,90,-56,-1,-1,0
1523621341698,-917504,90,-56,-1,-1,0
1523621341698,-983040,90,-56,-1,-1,0
1523621341698,-1048576,90,-56,-1,-1,0
1523621341698,-1114112,90,-56,-1,-1,0
1523621341738,-1114112,90,-56,-1,-1,0
1523621341738,-1048576,90,-56,-1,-1,0
1523621341738,-851968,90,-56,-1,-1,0
1523621341738,-720896,90,-56,-1,-1,0
1523621341738,-655360,90,-56,-1,-1,0
1523621341778,-720896,90,-56,-1,-1,0
1523621341778,-786432,90,-56,-1,-1,0
1523621341778,-917504,90,-56,-1,-1,0
1523621341778,-1048576,90,-56,-1,-1,0
1523621341778,-1048576,90,-56,-1,-1,0
1523621341818,-1048576,90,-56,-1,-1,0
1523621341818,-1048576,90,-56,-1,-1,0
1523621341818,-1114112,90,-56,-1,-1,0
1523621341818,-1114112,90,-56,-1,-1,0
1523621341818,-1114112,90,-56,-1,-1,0
1523621341858,-1114112,90,-56,-1,-1,0
1523621341858,-1114112,90,-56,-1,-1,0
1523621341858,-917504,90,-56,-1,-1,0
1523621341858,0,90,-56,-1,-1,0
1523621341858,2097152,90,-56,-1,-1,0
1523621341899,5505024,90,-56,-1,-1,0
1523621341899,9306112,90,-56,-1,-1,0
1523621341899,9502720,90,-56,-1,-1,0
1523621341899,5308416,90,-56,-1,-1,0
1523621341899,1114112,90,-56,-1,-1,0
1523621341938,65536,90,-56,-1,-1,0
1523621341938,0,90,-56,-1,-1,0
1523621341938,-196608,90,-56,-1,-1,0
1523621341938,-393216,90,-56,-1,-1,0
1523621341938,-524288,90,-56,-1,-1,0
1523621341978,-458752,90,-56,-1,-1,0
1523621341978,-458752,90,-56,-1,-1,0
1523621341978,-393216,90,-56,-1,-1,0
1523621341978,-393216,90,-56,-1,-1,0
1523621341978,-327680,90,-56,-1,-1,0
1523621342018,-262144,90,-56,-1,-1,0
1523621342018,-131072,90,-56,-1,-1,0
1523621342018,0,90,-56,-1,-1,0
1523621342018,131072,90,-56,-1,-1,0
1523621342018,393216,90,-56,-1,-1,0
1523621342058,589824,90,-56,-1,-1,0
1523621342058,917504,90,-56,-1,-1,0
1523621342058,1179648,90,-56,-1,-1,0
1523621342058,1441792,90,-56,-1,-1,0
1523621342058,1769472,90,-56,-1,-1,0
1523621342099,2031616,90,-56,-1,-1,0
1523621342099,2162688,90,-56,-1,-1,0
1523621342099,2293760,90,-56,-1,-1,0
1523621342099,2228224,90,-56,-1,-1,0
1523621342099,2031616,90,-56,-1,-1,0
1523621342140,1638400,90,-56,-1,-1,0
1523621342140,1114112,90,-56,-1,-1,0
1523621342140,589824,90,-56,-1,-1,0
1523621342140,196608,90,-56,-1,-1,0
1523621342140,-131072,90,-56,-1,-1,0
1523621342178,-393216,90,-56,-1,-1,0
1523621342178,-655360,90,-56,-1,-1,0
1523621342178,-851968,90,-56,-1,-1,0
1523621342178,-917504,90,-56,-1,-1,0
1523621342178,-917504,90,-56,-1,-1,0
1523621342218,-983040,90,-56,-1,-1,0
1523621342218,-983040,90,-56,-1,-1,0
1523621342218,-983040,90,-56,-1,-1,0
1523621342218,-983040,90,-56,-1,-1,0
1523621342218,-917504,90,-56,-1,-1,0
1523621342258,-851968,90,-56,-1,-1,0
1523621342258,-786432,90,-56,-1,-1,0
1523621342258,-786432,90,-56,-1,-1,0
1523621342258,-786432,90,-56,-1,-1,0
1523621342258,-786432,90,-56,-1,-1,0
1523621342298,-720896,90,-56,-1,-1,0
1523621342298,-720896,90,-56,-1,-1,0
1523621342298,-786432,90,-56,-1,-1,0
1523621342298,-786432,90,-56,-1,-1,0
1523621342298,-786432,90,-56,-1,-1,0
1523621342338,-786432,90,-56,-1,-1,0
1523621342338,-917504,90,-56,-1,-1,0
1523621342338,-917504,90,-56,-1,-1,0
1523621342338,-851968,90,-56,-1,-1,0
1523621342338,-786432,90,-56,-1,-1,0
1523621342378,-851968,90,-56,-1,-1,0
1523621342378,-917504,90,-56,-1,-1,0
1523621342378,-917504,90,-56,-1,-1,0
1523621342378,-983040,90,-56,-1,-1,0
1523621342378,-1048576,90,-56,-1,-1,0
1523621342418,-1114112,90,-56,-1,-1,0
1523621342418,-1048576,90,-56,-1,-1,0
1523621342418,-851968,90,-56,-1,-1,0
1523621342418,-720896,90,-56,-1,-1,0
1523621342418,-589824,90,-56,-1,-1,0
1523621342458,-589824,90,-56,-1,-1,0
1523621342458,-720896,90,-56,-1,-1,0
1523621342458,-917504,90,-56,-1,-1,0
1523621342458,-983040,90,-56,-1,-1,0
1523621342458,-1048576,90,-56,-1,-1,0
1523621342498,-983040,90,-56,-1,-1,0
1523621342498,-983040,90,-56,-1,-1,0
1523621342498,-917504,90,-56,-1,-1,0
1523621342498,-917504,90,-56,-1,-1,0
1523621342498,-917504,90,-56,-1,-1,0
1523621342538,-1048576,90,-56,-1,-1,0
1523621342538,-1179648,90,-56,-1,-1,0
1523621342538,-983040,90,-56,-1,-1,0
1523621342538,-458752,90,-56,-1,-1,0
1523621342538,917504,90,-56,-1,-1,0
1523621342578,3276800,90,-56,-1,-1,0
1523621342578,6750208,90,-56,-1,-1,0
1523621342578,9371648,90,-56,-1,-1,0
1523621342578,7602176,90,-56,-1,-1,0
1523621342578,3211264,90,-56,-1,-1,0
1523621342618,458752,90,-56,-1,-1,0
1523621342618,65536,90,-56,-1,-1,0
1523621342618,-65536,90,-56,-1,-1,0
1523621342618,-327680,90,-56,-1,-1,0
1523621342618,-458752,90,-56,-1,-1,0
1523621342658,-458752,90,-56,-1,-1,0
1523621342658,-458752,90,-56,-1,-1,0
1523621342658,-458752,90,-56,-1,-1,0
1523621342658,-393216,90,-56,-1,-1,0
1523621342658,-327680,90,-56,-1,-1,0
1523621342698,-262144,90,-56,-1,-1,0
1523621342698,-196608,90,-56,-1,-1,0
1523621342698,-65536,90,-56,-1,-1,0
1523621342698,65536,90,-56,-1,-1,0
1523621342698,327680,90,-56,-1,-1,0
1523621342738,393216,90,-56,-1,-1,0
1523621342738,720896,90,-56,-1,-1,0
1523621342738,1048576,90,-56,-1,-1,0
1523621342738,1245184,90,-56,-1,-1,0
1523621342738,1441792,90,-56,-1,-1,0
1523621342779,1638400,90,-56,-1,-1,0
1523621342779,1966080,90,-56,-1,-1,0
1523621342779,2031616,90,-56,-1,-1,0
1523621342779,2097152,90,-56,-1,-1,0
1523621342779,2031616,90,-56,-1,-1,0
1523621342818,1835008,90,-56,-1,-1,0
1523621342818,1441792,90,-56,-1,-1,0
1523621342818,917504,90,-56,-1,-1,0
1523621342818,327680,90,-56,-1,-1,0
1523621342818,0,90,-56,-1,-1,0
1523621342858,-131072,90,-56,-1,-1,0
1523621342858,-327680,90,-56,-1,-1,0
1523621342858,-589824,90,-56,-1,-1,0
1523621342858,-720896,90,-56,-1,-1,0
1523621342858,-786432,90,-56,-1,-1,0
1523621342898,-851968,90,-56,-1,-1,0
1523621342898,-917504,90,-56,-1,-1,0
1523621342898,-917504,90,-56,-1,-1,0
1523621342898,-786432,90,-56,-1,-1,0
1523621342898,-655360,90,-56,-1,-1,0
1523621342939,-655360,90,-56,-1,-1,0
1523621342939,-720896,90,-56,-1,-1,0
1523621342939,-720896,90,-56,-1,-1,0
1523621342939,-655360,90,-56,-1,-1,0
1523621342939,-589824,90,-56,-1,-1,0
1523621342978,-589824,90,-56,-1,-1,0
1523621342978,-589824,90,-56,-1,-1,0
1523621342978,-655360,90,-56,-1,-1,0
1523621342978,-655360,90,-56,-1,-1,0
1523621342978,-655360,90,-56,-1,-1,0
1523621343018,-589824,90,-56,-1,-1,0
1523621343018,-655360,90,-56,-1,-1,0
1523621343018,-917504,90,-56,-1,-1,0
1523621343018,-917504,90,-56,-1,-1,0
1523621343018,-851968,90,-56,-1,-1,0
1523621343058,-786432,90,-56,-1,-1,0
1523621343058,-786432,90,-56,-1,-1,0
1523621343058,-917504,90,-56,-1,-1,0
1523621343058,-983040,90,-56,-1,-1,0
1523621343058,-1048576,90,-56,-1,-1,0
1523621343098,-1114112,90,-56,-1,-1,0
1523621343098,-1114112,90,-56,-1,-1,0
1523621343098,-786432,90,-56,-1,-1,0
1523621343098,-524288,90,-56,-1,-1,0
1523621343098,-458752,90,-56,-1,-1,0
1523621343138,-524288,90,-56,-1,-1,0
1523621343138,-655360,90,-56,-1,-1,0
1523621343138,-851968,90,-56,-1,-1,0
1523621343138,-983040,90,-56,-1,-1,0
1523621343138,-983040,90,-56,-1,-1,0
1523621343178,-983040,90,-56,-1,-1,0
1523621343178,-983040,90,-56,-1,-1,0
1523621343178,-983040,90,-56,-1,-1,0
1523621343178,-1048576,90,-56,-1,-1,0
1523621343178,-1114112,90,-56,-1,-1,0
1523621343218,-1179648,90,-56,-1,-1,0
1523621343218,-1179648,90,-56,-1,-1,0
1523621343218,-1048576,90,-56,-1,-1,0
1523621343218,-589824,90,-56,-1,-1,0
1523621343218,589824,90,-56,-1,-1,0
1523621343258,2949120,90,-56,-1,-1,0
1523621343258,6291456,90,-56,-1,-1,0
1523621343258,8781824,90,-56,-1,-1,0
1523621343258,7340032,90,-56,-1,-1,0
1523621343258,3342336,90,-56,-1,-1,0
1523621343298,589824,90,-56,-1,-1,0
1523621343298,0,90,-56,-1,-1,0
1523621343298,-327680,90,-56,-1,-1,0
1523621343298,-524288,90,-56,-1,-1,0
1523621343298,-786432,90,-56,-1,-1,0
1523621343338,-851968,90,-56,-1,-1,0
1523621343338,-720896,90,-56,-1,-1,0
1523621343338,-589824,90,-56,-1,-1,0
1523621343338,-589824,90,-56,-1,-1,0
1523621343338,-524288,90,-56,-1,-1,0
1523621343378,-393216,90,-56,-1,-1,0
1523621343378,-196608,90,-56,-1,-1,0
1523621343378,-196608,90,-56,-1,-1,0
1523621343378,-131072,90,-56,-1,-1,0
1523621343378,0,90,-56,-1,-1,0
1523621343419,196608,90,-56,-1,-1,0
1523621343419,393216,90,-56,-1,-1,0
1523621343419,589824,90,-56,-1,-1,0
1523621343419,851968,90,-56,-1,-1,0
1523621343419,1114112,90,-56,-1,-1,0
1523621343458,1507328,90,-56,-1,-1,0
1523621343458,1703936,90,-56,-1,-1,0
1523621343458,1703936,90,-56,-1,-1,0
1523621343458,1769472,90,-56,-1,-1,0
1523621343458,1638400,90,-56,-1,-1,0
1523621343498,1376256,90,-56,-1,-1,0
1523621343498,1048576,90,-56,-1,-1,0
1523621343498,655360,90,-56,-1,-1,0
1523621343498,196608,90,-56,-1,-1,0
1523621343498,-131072,90,-56,-1,-1,0
1523621343538,-458752,90,-56,-1,-1,0
1523621343538,-655360,90,-56,-1,-1,0
1523621343538,-851968,90,-56,-1,-1,0
1523621343538,-983040,90,-56,-1,-1,0
1523621343538,-1048576,90,-56,-1,-1,0
1523621343578,-1114112,90,-56,-1,-1,0
1523621343578,-1114112,90,-56,-1,-1,0
1523621343578,-1114112,90,-56,-1,-1,0
1523621343578,-1048576,90,-56,-1,-1,0
1523621343578,-1048576,90,-56,-1,-1,0
1523621343618,-983040,90,-56,-1,-1,0
1523621343618,-917504,90,-56,-1,-1,0
1523621343618,-917504,90,-56,-1,-1,0
1523621343618,-917504,90,-56,-1,-1,0
1523621343618,-851968,90,-56,-1,-1,0
1523621343658,-917504,90,-56,-1,-1,0
1523621343658,-917504,90,-56,-1,-1,0
1523621343658,-917504,90,-56,-1,-1,0
1523621343658,-917504,90,-56,-1,-1,0
1523621343658,-917504,90,-56,-1,-1,0
1523621343697,-917504,90,-56,-1,-1,0
1523621343697,-917504,90,-56,-1,-1,0
1523621343697,-983040,90,-56,-1,-1,0
1523621343697,-983040,90,-56,-1,-1,0
1523621343697,-983040,90,-56,-1,-1,0
1523621343737,-983040,90,-56,-1,-1,0
1523621343737,-983040,90,-56,-1,-1,0
1523621343737,-1048576,90,-56,-1,-1,0
1523621343737,-1114112,90,-56,-1,-1,0
1523621343737,-1179648,90,-56,-1,-1,0
1523621343777,-1245184,90,-56,-1,-1,0
1523621343777,-1245184,90,-56,-1,-1,0
1523621343777,-1114112,90,-56,-1,-1,0
1523621343777,-917504,90,-56,-1,-1,0
1523621343777,-720896,90,-56,-1,-1,0
1523621343820,-655360,90,-56,-1,-1,0
1523621343820,-655360,90,-56,-1,-1,0
1523621343820,-720896,90,-56,-1,-1,0
1523621343820,-851968,90,-56,-1,-1,0
1523621343820,-983040,90,-56,-1,-1,0
1523621343857,-1048576,90,-56,-1,-1,0
1523621343857,-1114112,90,-56,-1,-1,0
1523621343857,-1114112,90,-56,-1,-1,0
1523621343857,-1048576,90,-56,-1,-1,0
1523621343857,-983040,90,-56,-1,-1,0
1523621343897,-983040,90,-56,-1,-1,0
1523621343897,-1048576,90,-56,-1,-1,0
1523621343897,-1048576,90,-56,-1,-1,0
1523621343897,-983040,90,-56,-1,-1,0
1523621343897,-393216,90,-56,-1,-1,0
1523621343937,1310720,90,-56,-1,-1,0
1523621343937,4063232,90,-56,-1,-1,0
1523621343937,7733248,90,-56,-1,-1,0
1523621343937,9633792,90,-56,-1,-1,0
1523621343937,7077888,90,-56,-1,-1,0
1523621343977,2555904,90,-56,-1,-1,0
1523621343977,327680,90,-56,-1,-1,0
1523621343977,65536,90,-56,-1,-1,0
1523621343977,-65536,90,-56,-1,-1,0
1523621343977,-327680,90,-56,-1,-1,0
1523621344017,-393216,90,-56,-1,-1,0
1523621344017,-393216,90,-56,-1,-1,0
1523621344017,-393216,90,-56,-1,-1,0
1523621344017,-393216,90,-56,-1,-1,0
1523621344017,-262144,90,-56,-1,-1,0
1523621344059,-262144,90,-56,-1,-1,0
1523621344059,-131072,90,-56,-1,-1,0
1523621344059,-65536,90,-56,-1,-1,0
1523621344059,0,90,-56,-1,-1,0
1523621344059,131072,90,-56,-1,-1,0
1523621344097,327680,90,-56,-1,-1,0
1523621344097,524288,90,-56,-1,-1,0
1523621344097,786432,90,-56,-1,-1,0
1523621344097,1048576,90,-56,-1,-1,0
1523621344097,1376256,90,-56,-1,-1,0
1523621344137,1703936,90,-56,-1,-1,0
1523621344137,1900544,90,-56,-1,-1,0
1523621344137,2097152,90,-56,-1,-1,0
1523621344137,2293760,90,-56,-1,-1,0
1523621344137,2293760,90,-56,-1,-1,0
1523621344177,2097152,90,-56,-1,-1,0
1523621344177,1900544,90,-56,-1,-1,0
1523621344177,1441792,90,-56,-1,-1,0
1523621344177,983040,90,-56,-1,-1,0
1523621344177,524288,90,-56,-1,-1,0
1523621344217,131072,90,-56,-1,-1,0
1523621344217,-131072,90,-56,-1,-1,0
1523621344217,-393216,90,-56,-1,-1,0
1523621344217,-589824,90,-56,-1,-1,0
1523621344217,-655360,90,-56,-1,-1,0
1523621344257,-786432,90,-56,-1,-1,0
1523621344257,-851968,90,-56,-1,-1,0
1523621344257,-917504,90,-56,-1,-1,0
1523621344257,-917504,90,-56,-1,-1,0
1523621344257,-917504,90,-56,-1,-1,0
1523621344298,-917504,90,-56,-1,-1,0
1523621344298,-851968,90,-56,-1,-1,0
1523621344298,-851968,90,-56,-1,-1,0
1523621344298,-851968,90,-56,-1,-1,0
1523621344298,-851968,90,-56,-1,-1,0
1523621344337,-786432,90,-56,-1,-1,0
1523621344337,-851968,90,-56,-1,-1,0
1523621344337,-917504,90,-56,-1,-1,0
1523621344337,-917504,90,-56,-1,-1,0
1523621344337,-917504,90,-56,-1,-1,0
1523621344379,-917504,90,-56,-1,-1,0
1523621344379,-1114112,90,-56,-1,-1,0
1523621344379,-1245184,90,-56,-1,-1,0
1523621344379,-1245184,90,-56,-1,-1,0
1523621344379,-1114112,90,-56,-1,-1,0
1523621344417,-983040,90,-56,-1,-1,0
1523621344417,-1114112,90,-56,-1,-1,0
1523621344417,-1245184,90,-56,-1,-1,0
1523621344417,-1179648,90,-56,-1,-1,0
1523621344417,-1179648,90,-56,-1,-1,0
1523621344457,-1179648,90,-56,-1,-1,0
1523621344457,-1179648,90,-56,-1,-1,0
1523621344457,-983040,90,-56,-1,-1,0
1523621344457,-851968,90,-56,-1,-1,0
1523621344457,-720896,90,-56,-1,-1,0
1523621344497,-786432,90,-56,-1,-1,0
1523621344497,-917504,90,-56,-1,-1,0
1523621344497,-983040,90,-56,-1,-1,0
1523621344497,-1048576,90,-56,-1,-1,0
1523621344497,-1048576,90,-56,-1,-1,0
1523621344537,-1048576,89,-56,-1,-1,0
1523621344537,-1179648,89,-56,-1,-1,0
1523621344537,-1179648,89,-56,-1,-1,0
1523621344537,-1179648,89,-56,-1,-1,0
1523621344537,-1245184,89,-56,-1,-1,0
1523621344577,-1245184,89,-56,-1,-1,0
1523621344577,-1179648,89,-56,-1,-1,0
1523621344577,-983040,89,-56,-1,-1,0
1523621344577,0,89,-56,-1,-1,0
1523621344577,2228224,89,-56,-1,-1,0
1523621344617,5636096,89,-56,-1,-1,0
1523621344617,9306112,89,-56,-1,-1,0
1523621344617,9633792,89,-56,-1,-1,0
1523621344617,5505024,89,-56,-1,-1,0
1523621344617,1114112,89,-56,-1,-1,0
1523621344657,-65536,89,-56,-1,-1,0
1523621344657,-196608,89,-56,-1,-1,0
1523621344657,-393216,89,-56,-1,-1,0
1523621344657,-524288,89,-56,-1,-1,0
1523621344657,-720896,89,-56,-1,-1,0
1523621344699,-786432,89,-56,-1,-1,0
1523621344699,-655360,89,-56,-1,-1,0
1523621344699,-524288,89,-56,-1,-1,0
1523621344699,-393216,89,-56,-1,-1,0
1523621344699,-327680,89,-56,-1,-1,0
1523621344737,-196608,89,-56,-1,-1,0
1523621344737,-196608,89,-56,-1,-1,0
1523621344737,-65536,89,-56,-1,-1,0
1523621344737,65536,89,-56,-1,-1,0
1523621344737,196608,89,-56,-1,-1,0
1523621344777,393216,89,-56,-1,-1,0
1523621344777,655360,89,-56,-1,-1,0
1523621344777,1048576,89,-56,-1,-1,0
1523621344777,1441792,89,-56,-1,-1,0
1523621344777,1769472,89,-56,-1,-1,0
1523621344817,1966080,89,-56,-1,-1,0
1523621344817,2162688,89,-56,-1,-1,0
1523621344817,2293760,89,-56,-1,-1,0
1523621344817,2359296,89,-56,-1,-1,0
1523621344817,2097152,89,-56,-1,-1,0
1523621344857,1572864,89,-56,-1,-1,0
1523621344857,1114112,89,-56,-1,-1,0
1523621344857,786432,89,-56,-1,-1,0
1523621344857,393216,89,-56,-1,-1,0
1523621344857,0,89,-56,-1,-1,0
1523621344897,-327680,89,-56,-1,-1,0
1523621344897,-655360,89,-56,-1,-1,0
1523621344897,-720896,89,-56,-1,-1,0
1523621344897,-786432,89,-56,-1,-1,0
1523621344897,-917504,89,-56,-1,-1,0
1523621344937,-983040,89,-56,-1,-1,0
1523621344937,-983040,89,-56,-1,-1,0
1523621344937,-983040,89,-56,-1,-1,0
1523621344937,-917504,89,-56,-1,-1,0
1523621344937,-851968,89,-56,-1,-1,0
1523621344978,-786432,89,-56,-1,-1,0
1523621344978,-851968,89,-56,-1,-1,0
1523621344978,-786432,89,-56,-1,-1,0
1523621344978,-786432,89,-56,-1,-1,0
1523621344978,-786432,89,-56,-1,-1,0
1523621345017,-786432,89,-56,-1,-1,0
1523621345017,-720896,89,-56,-1,-1,0
1523621345017,-786432,89,-56,-1,-1,0
1523621345017,-851968,89,-56,-1,-1,0
1523621345017,-851968,89,-56,-1,-1,0
1523621345057,-786432,89,-56,-1,-1,0
1523621345057,-851968,89,-56,-1,-1,0
1523621345057,-917504,89,-56,-1,-1,0
1523621345057,-983040,89,-56,-1,-1,0
1523621345057,-983040,89,-56,-1,-1,0
1523621345097,-1114112,89,-56,-1,-1,0
1523621345097,-1048576,89,-56,-1,-1,0
1523621345097,-1048576,89,-56,-1,-1,0
1523621345097,-917504,89,-56,-1,-1,0
1523621345097,-786432,89,-56,-1,-1,0
1523621345137,-589824,89,-56,-1,-1,0
1523621345137,-655360,89,-56,-1,-1,0
1523621345137,-655360,89,-56,-1,-1,0
1523621345137,-655360,89,-56,-1,-1,0
1523621345137,-786432,89,-56,-1,-1,0
1523621345177,-983040,89,-56,-1,-1,0
1523621345177,-1048576,89,-56,-1,-1,0
1523621345177,-1114112,89,-56,-1,-1,0
1523621345177,-1179648,89,-56,-1,-1,0
1523621345177,-1114112,89,-56,-1,-1,0
1523621345218,-1048576,89,-56,-1,-1,0
1523621345218,-1048576,89,-56,-1,-1,0
1523621345218,-1048576,89,-56,-1,-1,0
1523621345218,-1114112,89,-56,-1,-1,0
1523621345218,-983040,89,-56,-1,-1,0
1523621345257,0,89,-56,-1,-1,0
1523621345257,2162688,89,-56,-1,-1,0
1523621345257,5373952,89,-56,-1,-1,0
1523621345257,8847360,89,-56,-1,-1,0
1523621345257,9109504,89,-56,-1,-1,0
1523621345298,5242880,89,-56,-1,-1,0
1523621345298,1179648,89,-56,-1,-1,0
1523621345298,0,89,-56,-1,-1,0
1523621345298,-131072,89,-56,-1,-1,0
1523621345298,-393216,89,-56,-1,-1,0
1523621345339,-655360,89,-56,-1,-1,0
1523621345339,-655360,89,-56,-1,-1,0
1523621345339,-524288,89,-56,-1,-1,0
1523621345339,-589824,89,-56,-1,-1,0
1523621345339,-655360,89,-56,-1,-1,0
1523621345378,-589824,89,-56,-1,-1,0
1523621345378,-393216,89,-56,-1,-1,0
1523621345378,-131072,89,-56,-1,-1,0
1523621345378,-131072,89,-56,-1,-1,0
1523621345378,-131072,89,-56,-1,-1,0
1523621345418,0,89,-56,-1,-1,0
1523621345418,262144,89,-56,-1,-1,0
1523621345418,524288,89,-56,-1,-1,0
1523621345418,655360,89,-56,-1,-1,0
1523621345418,851968,89,-56,-1,-1,0
1523621345458,1245184,89,-56,-1,-1,0
1523621345458,1507328,89,-56,-1,-1,0
1523621345458,1769472,89,-56,-1,-1,0
1523621345458,1966080,89,-56,-1,-1,0
1523621345458,2031616,89,-56,-1,-1,0
1523621345498,1966080,89,-56,-1,-1,0
1523621345498,1769472,89,-56,-1,-1,0
1523621345498,1376256,89,-56,-1,-1,0
1523621345498,983040,89,-56,-1,-1,0
1523621345498,524288,89,-56,-1,-1,0
1523621345538,65536,89,-56,-1,-1,0
1523621345538,-196608,89,-56,-1,-1,0
1523621345538,-458752,89,-56,-1,-1,0
1523621345538,-655360,89,-56,-1,-1,0
1523621345538,-851968,89,-56,-1,-1,0
1523621345578,-917504,89,-56,-1,-1,0
1523621345578,-917504,89,-56,-1,-1,0
1523621345578,-851968,89,-56,-1,-1,0
1523621345578,-851968,89,-56,-1,-1,0
1523621345578,-917504,89,-56,-1,-1,0
1523621345618,-983040,89,-56,-1,-1,0
1523621345618,-917504,89,-56,-1,-1,0
1523621345618,-917504,89,-56,-1,-1,0
1523621345618,-786432,89,-56,-1,-1,0
1523621345618,-720896,89,-56,-1,-1,0
1523621345658,-786432,89,-56,-1,-1,0
1523621345658,-786432,89,-56,-1,-1,0
1523621345658,-786432,89,-56,-1,-1,0
1523621345658,-786432,89,-56,-1,-1,0
1523621345658,-786432,89,-56,-1,-1,0
1523621345698,-786432,89,-56,-1,-1,0
1523621345698,-786432,89,-56,-1,-1,0
1523621345698,-851968,89,-56,-1,-1,0
1523621345698,-917504,89,-56,-1,-1,0
1523621345698,-983040,89,-56,-1,-1,0
1523621345738,-983040,89,-56,-1,-1,0
1523621345738,-1048576,89,-56,-1,-1,0
1523621345738,-1048576,89,-56,-1,-1,0
1523621345738,-1048576,89,-56,-1,-1,0
1523621345738,-851968,89,-56,-1,-1,0
1523621345778,-655360,89,-56,-1,-1,0
1523621345778,-589824,89,-56,-1,-1,0
1523621345778,-589824,89,-56,-1,-1,0
1523621345778,-655360,89,-56,-1,-1,0
1523621345778,-720896,89,-56,-1,-1,0
1523621345818,-851968,89,-56,-1,-1,0
1523621345818,-917504,89,-56,-1,-1,0
1523621345818,-983040,89,-56,-1,-1,0
1523621345818,-1048576,89,-56,-1,-1,0
1523621345818,-1048576,89,-56,-1,-1,0
1523621345858,-1048576,89,-56,-1,-1,0
1523621345858,-1048576,89,-56,-1,-1,0
1523621345858,-1114112,89,-56,-1,-1,0
1523621345858,-983040,89,-56,-1,-1,0
1523621345858,-917504,89,-56,-1,-1,0
1523621345898,-786432,89,-56,-1,-1,0
1523621345898,131072,89,-56,-1,-1,0
1523621345898,2228224,89,-56,-1,-1,0
1523621345898,5439488,89,-56,-1,-1,0
1523621345898,8978432,89,-56,-1,-1,0
1523621345938,9175040,89,-56,-1,-1,0
1523621345938,5177344,89,-56,-1,-1,0
1523621345938,1245184,89,-56,-1,-1,0
1523621345938,196608,89,-56,-1,-1,0
1523621345938,0,89,-56,-1,-1,0
1523621345979,-262144,89,-56,-1,-1,0
1523621345979,-327680,89,-56,-1,-1,0
1523621345979,-393216,89,-56,-1,-1,0
1523621345979,-458752,89,-56,-1,-1,0
1523621345979,-458752,89,-56,-1,-1,0
1523621346018,-393216,89,-56,-1,-1,0
1523621346018,-262144,89,-56,-1,-1,0
1523621346018,-131072,89,-56,-1,-1,0
1523621346018,-65536,89,-56,-1,-1,0
1523621346018,0,89,-56,-1,-1,0
1523621346058,65536,89,-56,-1,-1,0
1523621346058,196608,89,-56,-1,-1,0
1523621346058,393216,89,-56,-1,-1,0
1523621346058,720896,89,-56,-1,-1,0
1523621346058,1114112,89,-56,-1,-1,0
1523621346097,1310720,89,-56,-1,-1,0
1523621346097,1507328,89,-56,-1,-1,0
1523621346097,1769472,89,-56,-1,-1,0
1523621346097,1966080,89,-56,-1,-1,0
1523621346097,2162688,89,-56,-1,-1,0
1523621346137,2228224,89,-56,-1,-1,0
1523621346137,2097152,89,-56,-1,-1,0
1523621346137,1966080,89,-56,-1,-1,0
1523621346137,1703936,89,-56,-1,-1,0
1523621346137,1245184,89,-56,-1,-1,0
1523621346177,720896,89,-56,-1,-1,0
1523621346177,262144,89,-56,-1,-1,0
1523621346177,-65536,89,-56,-1,-1,0
1523621346177,-327680,89,-56,-1,-1,0
1523621346177,-393216,89,-56,-1,-1,0
1523621346217,-524288,89,-56,-1,-1,0
1523621346217,-589824,89,-56,-1,-1,0
1523621346217,-589824,89,-56,-1,-1,0
1523621346217,-655360,89,-56,-1,-1,0
1523621346217,-655360,89,-56,-1,-1,0
1523621346257,-589824,89,-56,-1,-1,0
1523621346257,-655360,89,-56,-1,-1,0
1523621346257,-655360,89,-56,-1,-1,0
1523621346257,-524288,89,-56,-1,-1,0
1523621346257,-393216,89,-56,-1,-1,0
1523621346297,-458752,89,-56,-1,-1,0
1523621346297,-524288,89,-56,-1,-1,0
1523621346297,-589824,89,-56,-1,-1,0
1523621346297,-589824,89,-56,-1,-1,0
1523621346297,-589824,89,-56,-1,-1,0
1523621346337,-589824,89,-56,-1,-1,0
1523621346337,-655360,89,-56,-1,-1,0
1523621346337,-720896,89,-56,-1,-1,0
1523621346337,-720896,89,-56,-1,-1,0
1523621346337,-917504,89,-56,-1,-1,0
1523621346377,-917504,89,-56,-1,-1,0
1523621346377,-851968,89,-56,-1,-1,0
1523621346377,-851968,89,-56,-1,-1,0
1523621346377,-983040,89,-56,-1,-1,0
1523621346377,-851968,89,-56,-1,-1,0
1523621346417,-655360,89,-56,-1,-1,0
1523621346417,-524288,89,-56,-1,-1,0
1523621346417,-524288,89,-56,-1,-1,0
1523621346417,-655360,89,-56,-1,-1,0
1523621346417,-851968,89,-56,-1,-1,0
1523621346459,-917504,89,-56,-1,-1,0
1523621346459,-917504,89,-56,-1,-1,0
1523621346459,-983040,89,-56,-1,-1,0
1523621346459,-983040,89,-56,-1,-1,0
1523621346459,-1048576,89,-56,-1,-1,0
1523621346497,-1179648,89,-56,-1,-1,0
1523621346497,-1179648,89,-56,-1,-1,0
1523621346497,-1245184,89,-56,-1,-1,0
1523621346497,-1376256,89,-56,-1,-1,0
1523621346497,-1376256,89,-56,-1,-1,0
1523621346537,-1245184,89,-56,-1,-1,0
1523621346537,-786432,89,-56,-1,-1,0
1523621346537,720896,89,-56,-1,-1,0
1523621346537,3473408,89,-56,-1,-1,0
1523621346537,7012352,89,-56,-1,-1,0
1523621346577,9109504,89,-56,-1,-1,0
1523621346577,6750208,89,-56,-1,-1,0
1523621346577,2293760,89,-56,-1,-1,0
1523621346577,0,89,-56,-1,-1,0
1523621346577,-327680,89,-56,-1,-1,0
1523621346619,-589824,89,-56,-1,-1,0
1523621346619,-851968,89,-56,-1,-1,0
1523621346619,-917504,89,-56,-1,-1,0
1523621346619,-983040,89,-56,-1,-1,0
1523621346619,-983040,89,-56,-1,-1,0
1523621346657,-1048576,89,-56,-1,-1,0
1523621346657,-983040,89,-56,-1,-1,0
1523621346657,-917504,89,-56,-1,-1,0
1523621346657,-786432,89,-56,-1,-1,0
1523621346657,-655360,89,-56,-1,-1,0
1523621346697,-589824,89,-56,-1,-1,0
1523621346697,-589824,89,-56,-1,-1,0
1523621346697,-393216,89,-56,-1,-1,0
1523621346697,-262144,89,-56,-1,-1,0
1523621346697,-65536,89,-56,-1,-1,0
1523621346737,131072,89,-56,-1,-1,0
1523621346737,393216,89,-56,-1,-1,0
1523621346737,655360,89,-56,-1,-1,0
1523621346737,983040,89,-56,-1,-1,0
1523621346737,1179648,89,-56,-1,-1,0
1523621346777,1245184,89,-56,-1,-1,0
1523621346777,1245184,89,-56,-1,-1,0
1523621346777,983040,89,-56,-1,-1,0
1523621346777,655360,89,-56,-1,-1,0
1523621346777,262144,89,-56,-1,-1,0
1523621346817,-131072,89,-56,-1,-1,0
1523621346817,-524288,89,-56,-1,-1,0
1523621346817,-786432,89,-56,-1,-1,0
1523621346817,-1048576,89,-56,-1,-1,0
1523621346817,-1310720,89,-56,-1,-1,0
1523621346857,-1441792,89,-56,-1,-1,0
1523621346857,-1507328,89,-56,-1,-1,0
1523621346857,-1572864,89,-56,-1,-1,0
1523621346857,-1638400,89,-56,-1,-1,0
1523621346857,-1638400,89,-56,-1,-1,0
1523621346897,-1638400,89,-56,-1,-1,0
1523621346897,-1638400,89,-56,-1,-1,0
1523621346897,-1638400,89,-56,-1,-1,0
1523621346897,-1638400,89,-56,-1,-1,0
1523621346897,-1638400,89,-56,-1,-1,0
1523621346937,-1507328,89,-56,-1,-1,0
1523621346937,-1507328,89,-56,-1,-1,0
1523621346937,-1507328,89,-56,-1,-1,0
1523621346937,-1507328,89,-56,-1,-1,0
1523621346937,-1441792,89,-56,-1,-1,0
1523621346977,-1441792,89,-56,-1,-1,0
1523621346977,-1507328,89,-56,-1,-1,0
1523621346977,-1638400,89,-56,-1,-1,0
1523621346977,-1638400,89,-56,-1,-1,0
1523621346977,-1572864,89,-56,-1,-1,0
1523621347017,-1572864,89,-56,-1,-1,0
1523621347017,-1703936,89,-56,-1,-1,0
1523621347017,-1769472,89,-56,-1,-1,0
1523621347017,-1638400,89,-56,-1,-1,0
1523621347017,-1441792,89,-56,-1,-1,0
1523621347057,-1179648,89,-56,-1,-1,0
1523621347057,-1048576,89,-56,-1,-1,0
1523621347057,-1114112,89,-56,-1,-1,0
1523621347057,-1245184,89,-56,-1,-1,0
1523621347057,-1376256,89,-56,-1,-1,0
1523621347097,-1376256,89,-56,-1,-1,0
1523621347097,-1441792,89,-56,-1,-1,0
1523621347097,-1441792,89,-56,-1,-1,0
1523621347097,-1572864,89,-56,-1,-1,0
1523621347097,-1507328,89,-56,-1,-1,0
1523621347137,-1376256,89,-56,-1,-1,0
1523621347137,-1310720,89,-56,-1,-1,0
1523621347137,-1376256,89,-56,-1,-1,0
1523621347137,-1441792,89,-56,-1,-1,0
1523621347137,-1507328,89,-56,-1,-1,0
1523621347177,-1376256,89,-56,-1,-1,0
1523621347177,-458752,89,-56,-1,-1,0
1523621347177,1703936,89,-56,-1,-1,0
1523621347177,4980736,89,-56,-1,-1,0
1523621347177,8650752,89,-56,-1,-1,0
1523621347217,9306112,89,-56,-1,-1,0
1523621347217,5701632,89,-56,-1,-1,0
1523621347217,1376256,89,-56,-1,-1,0
1523621347217,0,89,-56,-1,-1,0
1523621347217,-262144,89,-56,-1,-1,0
1523621347259,-524288,89,-56,-1,-1,0
1523621347259,-720896,89,-56,-1,-1,0
1523621347259,-786432,89,-56,-1,-1,0
1523621347259,-851968,89,-56,-1,-1,0
1523621347259,-720896,89,-56,-1,-1,0
1523621347298,-589824,89,-56,-1,-1,0
1523621347298,-524288,89,-56,-1,-1,0
1523621347298,-524288,89,-56,-1,-1,0
1523621347298,-458752,89,-56,-1,-1,0
1523621347298,-262144,89,-56,-1,-1,0
1523621347337,-131072,89,-56,-1,-1,0
1523621347337,0,89,-56,-1,-1,0
1523621347337,196608,89,-56,-1,-1,0
1523621347337,458752,89,-56,-1,-1,0
1523621347337,655360,89,-56,-1,-1,0
1523621347377,851968,89,-56,-1,-1,0
1523621347377,1114112,89,-56,-1,-1,0
1523621347377,1376256,89,-56,-1,-1,0
1523621347377,1572864,89,-56,-1,-1,0
1523621347377,1703936,89,-56,-1,-1,0
1523621347417,1835008,89,-56,-1,-1,0
1523621347417,1769472,89,-56,-1,-1,0
1523621347417,1572864,89,-56,-1,-1,0
1523621347417,1376256,89,-56,-1,-1,0
1523621347417,983040,89,-56,-1,-1,0
1523621347457,524288,89,-56,-1,-1,0
1523621347457,131072,89,-56,-1,-1,0
1523621347457,-262144,89,-56,-1,-1,0
1523621347457,-655360,89,-56,-1,-1,0
1523621347457,-720896,89,-56,-1,-1,0
1523621347497,-786432,89,-56,-1,-1,0
1523621347497,-786432,89,-56,-1,-1,0
1523621347497,-917504,89,-56,-1,-1,0
1523621347497,-1048576,89,-56,-1,-1,0
1523621347497,-917504,89,-56,-1,-1,0
1523621347537,-720896,89,-56,-1,-1,0
1523621347537,-720896,89,-56,-1,-1,0
1523621347537,-786432,89,-56,-1,-1,0
1523621347537,-851968,89,-56,-1,-1,0
1523621347537,-851968,89,-56,-1,-1,0
1523621347577,-851968,89,-56,-1,-1,0
1523621347577,-786432,89,-56,-1,-1,0
1523621347577,-851968,89,-56,-1,-1,0
1523621347577,-786432,89,-56,-1,-1,0
1523621347577,-786432,89,-56,-1,-1,0
1523621347617,-786432,89,-56,-1,-1,0
1523621347617,-851968,89,-56,-1,-1,0
1523621347617,-917504,89,-56,-1,-1,0
1523621347617,-983040,89,-56,-1,-1,0
1523621347617,-1048576,89,-56,-1,-1,0
1523621347657,-1114112,89,-56,-1,-1,0
1523621347657,-1048576,89,-56,-1,-1,0
1523621347657,-1048576,89,-56,-1,-1,0
1523621347657,-983040,89,-56,-1,-1,0
1523621347657,-917504,89,-56,-1,-1,0
1523621347697,-720896,89,-56,-1,-1,0
1523621347697,-589824,89,-56,-1,-1,0
1523621347697,-655360,89,-56,-1,-1,0
1523621347697,-786432,89,-56,-1,-1,0
1523621347697,-851968,89,-56,-1,-1,0
1523621347737,-983040,89,-56,-1,-1,0
1523621347737,-1179648,89,-56,-1,-1,0
1523621347737,-1179648,89,-56,-1,-1,0
1523621347737,-1048576,89,-56,-1,-1,0
1523621347737,-983040,89,-56,-1,-1,0
1523621347777,-1048576,89,-56,-1,-1,0
1523621347777,-1179648,89,-56,-1,-1,0
1523621347777,-1245184,89,-56,-1,-1,0
1523621347777,-1310720,89,-56,-1,-1,0
1523621347777,-1245184,89,-56,-1,-1,0
1523621347817,-917504,89,-56,-1,-1,0
1523621347817,458752,89,-56,-1,-1,0
1523621347817,3145728,89,-56,-1,-1,0
1523621347817,6815744,89,-56,-1,-1,0
1523621347817,9633792,89,-56,-1,-1,0
1523621347857,8126464,89,-56,-1,-1,0
1523621347857,3473408,89,-56,-1,-1,0
1523621347857,262144,89,-56,-1,-1,0
1523621347857,-196608,89,-56,-1,-1,0
1523621347857,-262144,89,-56,-1,-1,0
1523621347899,-458752,89,-56,-1,-1,0
1523621347899,-589824,89,-56,-1,-1,0
1523621347899,-786432,89,-56,-1,-1,0
1523621347899,-786432,89,-56,-1,-1,0
1523621347899,-786432,89,-56,-1,-1,0
1523621347937,-786432,89,-56,-1,-1,0
1523621347937,-720896,89,-56,-1,-1,0
1523621347937,-589824,89,-56,-1,-1,0
1523621347937,-589824,89,-56,-1,-1,0
1523621347937,-524288,89,-56,-1,-1,0
1523621347977,-196608,89,-56,-1,-1,0
1523621347977,65536,89,-56,-1,-1,0
1523621347977,131072,89,-56,-1,-1,0
1523621347977,196608,89,-56,-1,-1,0
1523621347977,458752,89,-56,-1,-1,0
1523621348018,851968,89,-56,-1,-1,0
1523621348018,1310720,89,-56,-1,-1,0
1523621348018,1572864,89,-56,-1,-1,0
1523621348018,1572864,89,-56,-1,-1,0
1523621348018,1638400,89,-56,-1,-1,0
1523621348057,1703936,89,-56,-1,-1,0
1523621348057,1638400,89,-56,-1,-1,0
1523621348057,1441792,89,-56,-1,-1,0
1523621348057,983040,89,-56,-1,-1,0
1523621348057,524288,89,-56,-1,-1,0
1523621348097,0,89,-56,-1,-1,0
1523621348097,-262144,89,-56,-1,-1,0
1523621348097,-589824,89,-56,-1,-1,0
1523621348097,-786432,89,-56,-1,-1,0
1523621348097,-851968,89,-56,-1,-1,0
1523621348138,-983040,89,-56,-1,-1,0
1523621348138,-1114112,89,-56,-1,-1,0
1523621348138,-1114112,89,-56,-1,-1,0
1523621348138,-1114112,89,-56,-1,-1,0
1523621348138,-1114112,89,-56,-1,-1,0
1523621348178,-983040,89,-56,-1,-1,0
1523621348178,-917504,89,-56,-1,-1,0
1523621348178,-983040,89,-56,-1,-1,0
1523621348178,-983040,89,-56,-1,-1,0
1523621348178,-983040,89,-56,-1,-1,0
1523621348219,-917504,89,-56,-1,-1,0
1523621348219,-917504,89,-56,-1,-1,0
1523621348219,-917504,89,-56,-1,-1,0
1523621348219,-917504,89,-56,-1,-1,0
1523621348219,-1048576,89,-56,-1,-1,0
1523621348257,-1048576,89,-56,-1,-1,0
1523621348257,-983040,89,-56,-1,-1,0
1523621348257,-917504,89,-56,-1,-1,0
1523621348257,-1114112,89,-56,-1,-1,0
1523621348257,-1245184,89,-56,-1,-1,0
1523621348297,-1310720,89,-56,-1,-1,0
1523621348297,-1310720,89,-56,-1,-1,0
1523621348297,-1179648,89,-56,-1,-1,0
1523621348297,-983040,89,-56,-1,-1,0
1523621348297,-786432,89,-56,-1,-1,0
1523621348338,-655360,89,-56,-1,-1,0
1523621348338,-720896,89,-56,-1,-1,0
1523621348338,-851968,89,-56,-1,-1,0
1523621348338,-1048576,89,-56,-1,-1,0
1523621348338,-1114112,89,-56,-1,-1,0
1523621348377,-1179648,89,-56,-1,-1,0
1523621348377,-1179648,89,-56,-1,-1,0
1523621348377,-1245184,89,-56,-1,-1,0
1523621348377,-1245184,89,-56,-1,-1,0
1523621348377,-1179648,89,-56,-1,-1,0
1523621348418,-1179648,89,-56,-1,-1,0
1523621348418,-1114112,89,-56,-1,-1,0
1523621348418,-1114112,89,-56,-1,-1,0
1523621348418,-1114112,89,-56,-1,-1,0
1523621348418,-786432,89,-56,-1,-1,0
1523621348457,458752,89,-56,-1,-1,0
1523621348457,2818048,89,-56,-1,-1,0
1523621348457,6422528,89,-56,-1,-1,0
1523621348457,9699328,89,-56,-1,-1,0
1523621348457,8650752,89,-56,-1,-1,0
1523621348497,4063232,89,-56,-1,-1,0
1523621348497,720896,89,-56,-1,-1,0
1523621348497,131072,89,-56,-1,-1,0
1523621348497,-65536,89,-56,-1,-1,0
1523621348497,-327680,89,-56,-1,-1,0
1523621348539,-458752,89,-56,-1,-1,0
1523621348539,-589824,89,-56,-1,-1,0
1523621348539,-458752,89,-56,-1,-1,0
1523621348539,-393216,89,-56,-1,-1,0
1523621348539,-393216,89,-56,-1,-1,0
1523621348579,-327680,89,-56,-1,-1,0
1523621348579,-262144,89,-56,-1,-1,0
1523621348579,-196608,89,-56,-1,-1,0
1523621348579,-65536,89,-56,-1,-1,0
1523621348579,0,89,-56,-1,-1,0
1523621348617,196608,89,-56,-1,-1,0
1523621348617,327680,89,-56,-1,-1,0
1523621348617,524288,89,-56,-1,-1,0
1523621348617,983040,89,-56,-1,-1,0
1523621348617,1376256,89,-56,-1,-1,0
1523621348657,1572864,89,-56,-1,-1,0
1523621348657,1703936,89,-56,-1,-1,0
1523621348657,1835008,89,-56,-1,-1,0
1523621348657,1966080,89,-56,-1,-1,0
1523621348657,1966080,89,-56,-1,-1,0
1523621348697,1835008,89,-56,-1,-1,0
1523621348697,1572864,89,-56,-1,-1,0
1523621348697,1114112,89,-56,-1,-1,0
1523621348697,655360,89,-56,-1,-1,0
1523621348697,262144,89,-56,-1,-1,0
1523621348738,0,89,-56,-1,-1,0
1523621348738,-196608,89,-56,-1,-1,0
1523621348738,-458752,89,-56,-1,-1,0
1523621348738,-720896,89,-56,-1,-1,0
1523621348738,-786432,89,-56,-1,-1,0
1523621348779,-786432,89,-56,-1,-1,0
1523621348779,-720896,89,-56,-1,-1,0
1523621348779,-786432,89,-56,-1,-1,0
1523621348779,-851968,89,-56,-1,-1,0
1523621348779,-851968,89,-56,-1,-1,0
1523621348818,-851968,89,-56,-1,-1,0
1523621348818,-720896,89,-56,-1,-1,0
1523621348818,-720896,89,-56,-1,-1,0
1523621348818,-851968,89,-56,-1,-1,0
1523621348818,-786432,89,-56,-1,-1,0
1523621348858,-655360,89,-56,-1,-1,0
1523621348858,-589824,89,-56,-1,-1,0
1523621348858,-720896,89,-56,-1,-1,0
1523621348858,-786432,89,-56,-1,-1,0
1523621348858,-786432,89,-56,-1,-1,0
1523621348898,-720896,89,-56,-1,-1,0
1523621348898,-720896,89,-56,-1,-1,0
1523621348898,-851968,89,-56,-1,-1,0
1523621348898,-917504,89,-56,-1,-1,0
1523621348898,-917504,89,-56,-1,-1,0
1523621348938,-917504,89,-56,-1,-1,0
1523621348938,-983040,89,-56,-1,-1,0
1523621348938,-1048576,89,-56,-1,-1,0
1523621348938,-1048576,89,-56,-1,-1,0
1523621348938,-917504,89,-56,-1,-1,0
1523621348978,-720896,89,-56,-1,-1,0
1523621348978,-524288,89,-56,-1,-1,0
1523621348978,-458752,89,-56,-1,-1,0
1523621348978,-524288,89,-56,-1,-1,0
1523621348978,-655360,89,-56,-1,-1,0
1523621349018,-786432,89,-56,-1,-1,0
1523621349018,-917504,89,-56,-1,-1,0
1523621349018,-983040,89,-56,-1,-1,0
1523621349018,-983040,89,-56,-1,-1,0
1523621349018,-983040,89,-56,-1,-1,0
1523621349058,-983040,90,-56,-1,-1,0
1523621349058,-983040,90,-56,-1,-1,0
1523621349058,-1048576,90,-56,-1,-1,0
1523621349058,-1114112,90,-56,-1,-1,0
1523621349058,-1114112,90,-56,-1,-1,0
1523621349098,-983040,90,-56,-1,-1,0
1523621349098,0,90,-56,-1,-1,0
1523621349098,1900544,90,-56,-1,-1,0
1523621349098,4980736,90,-56,-1,-1,0
1523621349098,8388608,90,-56,-1,-1,0
1523621349138,8781824,90,-56,-1,-1,0
1523621349138,5111808,90,-56,-1,-1,0
1523621349138,1245184,90,-56,-1,-1,0
1523621349138,131072,90,-56,-1,-1,0
1523621349138,0,90,-56,-1,-1,0
1523621349179,-327680,90,-56,-1,-1,0
1523621349179,-524288,90,-56,-1,-1,0
1523621349179,-589824,90,-56,-1,-1,0
1523621349179,-589824,90,-56,-1,-1,0
1523621349179,-458752,90,-56,-1,-1,0
1523621349218,-458752,90,-56,-1,-1,0
1523621349218,-327680,90,-56,-1,-1,0
1523621349218,-262144,90,-56,-1,-1,0
1523621349218,-196608,90,-56,-1,-1,0
1523621349218,-131072,90,-56,-1,-1,0
1523621349258,0,90,-56,-1,-1,0
1523621349258,65536,90,-56,-1,-1,0
1523621349258,196608,90,-56,-1,-1,0
1523621349258,393216,90,-56,-1,-1,0
1523621349258,720896,90,-56,-1,-1,0
1523621349298,1048576,90,-56,-1,-1,0
1523621349298,1245184,90,-56,-1,-1,0
1523621349298,1376256,90,-56,-1,-1,0
1523621349298,1572864,90,-56,-1,-1,0
1523621349298,1638400,90,-56,-1,-1,0
1523621349338,1638400,90,-56,-1,-1,0
1523621349338,1572864,90,-56,-1,-1,0
1523621349338,1441792,90,-56,-1,-1,0
1523621349338,1114112,90,-56,-1,-1,0
1523621349338,655360,90,-56,-1,-1,0
1523621349378,196608,90,-56,-1,-1,0
1523621349378,-65536,90,-56,-1,-1,0
1523621349378,-327680,90,-56,-1,-1,0
1523621349378,-589824,90,-56,-1,-1,0
1523621349378,-720896,90,-56,-1,-1,0
1523621349418,-851968,90,-56,-1,-1,0
1523621349418,-917504,90,-56,-1,-1,0
1523621349418,-983040,90,-56,-1,-1,0
1523621349418,-983040,90,-56,-1,-1,0
1523621349418,-983040,90,-56,-1,-1,0
1523621349458,-917504,90,-56,-1,-1,0
1523621349458,-917504,90,-56,-1,-1,0
1523621349458,-917504,90,-56,-1,-1,0
1523621349458,-917504,90,-56,-1,-1,0
1523621349458,-851968,90,-56,-1,-1,0
1523621349498,-917504,90,-56,-1,-1,0
1523621349498,-917504,90,-56,-1,-1,0
1523621349498,-917504,90,-56,-1,-1,0
1523621349498,-851968,90,-56,-1,-1,0
1523621349498,-851968,90,-56,-1,-1,0
1523621349538,-851968,90,-56,-1,-1,0
1523621349538,-917504,90,-56,-1,-1,0
1523621349538,-917504,90,-56,-1,-1,0
1523621349538,-983040,90,-56,-1,-1,0
1523621349538,-1048576,90,-56,-1,-1,0
1523621349578,-1048576,90,-56,-1,-1,0
1523621349578,-1048576,90,-56,-1,-1,0
1523621349578,-1114112,90,-56,-1,-1,0
1523621349578,-1114112,90,-56,-1,-1,0
1523621349578,-1114112,90,-56,-1,-1,0
1523621349618,-1114112,90,-56,-1,-1,0
1523621349618,-1179648,90,-56,-1,-1,0
1523621349618,-1179648,90,-56,-1,-1,0
1523621349618,-1048576,90,-56,-1,-1,0
1523621349618,-786432,90,-56,-1,-1,0
1523621349658,-589824,90,-56,-1,-1,0
1523621349658,-589824,90,-56,-1,-1,0
1523621349658,-655360,90,-56,-1,-1,0
1523621349658,-720896,90,-56,-1,-1,0
1523621349658,-851968,90,-56,-1,-1,0
1523621349698,-983040,90,-56,-1,-1,0
1523621349698,-1048576,90,-56,-1,-1,0
1523621349698,-1048576,90,-56,-1,-1,0
1523621349698,-983040,90,-56,-1,-1,0
1523621349698,-1048576,90,-56,-1,-1,0
1523621349738,-1048576,89,-56,-1,-1,0
1523621349738,-1048576,89,-56,-1,-1,0
1523621349738,-1048576,89,-56,-1,-1,0
1523621349738,-1048576,89,-56,-1,-1,0
1523621349738,-983040,89,-56,-1,-1,0
1523621349778,0,89,-56,-1,-1,0
1523621349778,2097152,89,-56,-1,-1,0
1523621349778,5242880,89,-56,-1,-1,0
1523621349778,8650752,89,-56,-1,-1,0
1523621349778,8912896,89,-56,-1,-1,0
1523621349819,5177344,89,-56,-1,-1,0
1523621349819,1310720,89,-56,-1,-1,0
1523621349819,196608,89,-56,-1,-1,0
1523621349819,0,89,-56,-1,-1,0
1523621349819,-327680,89,-56,-1,-1,0
1523621349858,-589824,89,-56,-1,-1,0
1523621349858,-589824,89,-56,-1,-1,0
1523621349858,-458752,89,-56,-1,-1,0
1523621349858,-458752,89,-56,-1,-1,0
1523621349858,-393216,89,-56,-1,-1,0
1523621349898,-327680,89,-56,-1,-1,0
1523621349898,-196608,89,-56,-1,-1,0
1523621349898,-131072,89,-56,-1,-1,0
1523621349898,-65536,89,-56,-1,-1,0
1523621349898,0,89,-56,-1,-1,0
1523621349938,131072,89,-56,-1,-1,0
1523621349938,327680,89,-56,-1,-1,0
1523621349938,524288,89,-56,-1,-1,0
1523621349938,786432,89,-56,-1,-1,0
1523621349938,1048576,89,-56,-1,-1,0
1523621349978,1376256,89,-56,-1,-1,0
1523621349978,1638400,89,-56,-1,-1,0
1523621349978,1835008,89,-56,-1,-1,0
1523621349978,1900544,89,-56,-1,-1,0
1523621349978,1900544,89,-56,-1,-1,0
1523621350018,1835008,89,-56,-1,-1,0
1523621350018,1638400,89,-56,-1,-1,0
1523621350018,1376256,89,-56,-1,-1,0
1523621350018,983040,89,-56,-1,-1,0
1523621350018,589824,89,-56,-1,-1,0
1523621350058,196608,89,-56,-1,-1,0
1523621350058,-65536,89,-56,-1,-1,0
1523621350058,-393216,89,-56,-1,-1,0
1523621350058,-589824,89,-56,-1,-1,0
1523621350058,-655360,89,-56,-1,-1,0
1523621350099,-720896,89,-56,-1,-1,0
1523621350099,-786432,89,-56,-1,-1,0
1523621350099,-786432,89,-56,-1,-1,0
1523621350099,-720896,89,-56,-1,-1,0
1523621350099,-720896,89,-56,-1,-1,0
1523621350138,-720896,89,-56,-1,-1,0
1523621350138,-720896,89,-56,-1,-1,0
1523621350138,-720896,89,-56,-1,-1,0
1523621350138,-655360,89,-56,-1,-1,0
1523621350138,-589824,89,-56,-1,-1,0
1523621350178,-589824,89,-56,-1,-1,0
1523621350178,-589824,89,-56,-1,-1,0
1523621350178,-589824,89,-56,-1,-1,0
1523621350178,-589824,89,-56,-1,-1,0
1523621350178,-589824,89,-56,-1,-1,0
1523621350218,-655360,89,-56,-1,-1,0
1523621350218,-655360,89,-56,-1,-1,0
1523621350218,-655360,89,-56,-1,-1,0
1523621350218,-720896,89,-56,-1,-1,0
1523621350218,-786432,89,-56,-1,-1,0
1523621350258,-851968,89,-56,-1,-1,0
1523621350258,-851968,89,-56,-1,-1,0
1523621350258,-851968,89,-56,-1,-1,0
1523621350258,-851968,89,-56,-1,-1,0
1523621350258,-917504,89,-56,-1,-1,0
1523621350298,-917504,89,-56,-1,-1,0
1523621350298,-917504,89,-56,-1,-1,0
1523621350298,-786432,89,-56,-1,-1,0
1523621350298,-589824,89,-56,-1,-1,0
1523621350298,-458752,89,-56,-1,-1,0
1523621350338,-458752,89,-56,-1,-1,0
1523621350338,-524288,89,-56,-1,-1,0
1523621350338,-655360,89,-56,-1,-1,0
1523621350338,-851968,89,-56,-1,-1,0
1523621350338,-917504,89,-56,-1,-1,0
1523621350378,-851968,90,-56,-1,-1,0
1523621350378,-851968,90,-56,-1,-1,0
1523621350378,-851968,90,-56,-1,-1,0
1523621350378,-917504,90,-56,-1,-1,0
1523621350378,-917504,90,-56,-1,-1,0
1523621350418,-917504,90,-56,-1,-1,0
1523621350418,-983040,90,-56,-1,-1,0
1523621350418,-851968,90,-56,-1,-1,0
1523621350418,-65536,90,-56,-1,-1,0
1523621350418,1900544,90,-56,-1,-1,0
1523621350459,5111808,90,-56,-1,-1,0
1523621350459,8978432,90,-56,-1,-1,0
1523621350459,10354688,90,-56,-1,-1,0
1523621350459,7012352,90,-56,-1,-1,0
1523621350459,2228224,90,-56,-1,-1,0
1523621350498,262144,90,-56,-1,-1,0
1523621350498,131072,90,-56,-1,-1,0
1523621350498,-65536,90,-56,-1,-1,0
1523621350498,-262144,90,-56,-1,-1,0
1523621350498,-327680,90,-56,-1,-1,0
1523621350538,-327680,90,-56,-1,-1,0
1523621350538,-327680,90,-56,-1,-1,0
1523621350538,-327680,90,-56,-1,-1,0
1523621350538,-196608,90,-56,-1,-1,0
1523621350538,-131072,90,-56,-1,-1,0
1523621350578,-65536,90,-56,-1,-1,0
1523621350578,0,90,-56,-1,-1,0
1523621350578,65536,90,-56,-1,-1,0
1523621350578,196608,90,-56,-1,-1,0
1523621350578,393216,90,-56,-1,-1,0
1523621350618,589824,90,-56,-1,-1,0
1523621350618,851968,90,-56,-1,-1,0
1523621350618,1114112,90,-56,-1,-1,0
1523621350618,1507328,90,-56,-1,-1,0
1523621350618,1769472,90,-56,-1,-1,0
1523621350658,1966080,90,-56,-1,-1,0
1523621350658,2097152,90,-56,-1,-1,0
1523621350658,2162688,90,-56,-1,-1,0
1523621350658,2162688,90,-56,-1,-1,0
1523621350658,2031616,90,-56,-1,-1,0
1523621350698,1769472,90,-56,-1,-1,0
1523621350698,1376256,90,-56,-1,-1,0
1523621350698,851968,90,-56,-1,-1,0
1523621350698,393216,90,-56,-1,-1,0
1523621350698,0,90,-56,-1,-1,0
1523621350738,-196608,90,-56,-1,-1,0
1523621350738,-458752,90,-56,-1,-1,0
1523621350738,-589824,90,-56,-1,-1,0
1523621350738,-720896,90,-56,-1,-1,0
1523621350738,-786432,90,-56,-1,-1,0
1523621350778,-786432,90,-56,-1,-1,0
1523621350778,-786432,90,-56,-1,-1,0
1523621350778,-786432,90,-56,-1,-1,0
1523621350778,-786432,90,-56,-1,-1,0
1523621350778,-720896,90,-56,-1,-1,0
1523621350818,-720896,90,-56,-1,-1,0
1523621350818,-720896,90,-56,-1,-1,0
1523621350818,-655360,90,-56,-1,-1,0
1523621350818,-655360,90,-56,-1,-1,0
1523621350818,-655360,90,-56,-1,-1,0
1523621350858,-720896,90,-56,-1,-1,0
1523621350858,-720896,90,-56,-1,-1,0
1523621350858,-720896,90,-56,-1,-1,0
1523621350858,-720896,90,-56,-1,-1,0
1523621350858,-786432,90,-56,-1,-1,0
1523621350898,-851968,90,-56,-1,-1,0
1523621350898,-917504,90,-56,-1,-1,0
1523621350898,-917504,90,-56,-1,-1,0
1523621350898,-851968,90,-56,-1,-1,0
1523621350898,-917504,90,-56,-1,-1,0
1523621350938,-1048576,90,-56,-1,-1,0
1523621350938,-1048576,90,-56,-1,-1,0
1523621350938,-1114112,90,-56,-1,-1,0
1523621350938,-1114112,90,-56,-1,-1,0
1523621350938,-983040,90,-56,-1,-1,0
1523621350978,-851968,90,-56,-1,-1,0
1523621350978,-655360,90,-56,-1,-1,0
1523621350978,-655360,90,-56,-1,-1,0
1523621350978,-720896,90,-56,-1,-1,0
1523621350978,-917504,90,-56,-1,-1,0
1523621351018,-1048576,90,-56,-1,-1,0
1523621351018,-1114112,90,-56,-1,-1,0
1523621351018,-1048576,90,-56,-1,-1,0
1523621351018,-1114112,90,-56,-1,-1,0
1523621351018,-1114112,90,-56,-1,-1,0
1523621351058,-1114112,90,-56,-1,-1,0
1523621351058,-1114112,90,-56,-1,-1,0
1523621351058,-1114112,90,-56,-1,-1,0
1523621351058,-1179648,90,-56,-1,-1,0
1523621351058,-1114112,90,-56,-1,-1,0
1523621351099,-720896,90,-56,-1,-1,0
1523621351099,655360,90,-56,-1,-1,0
1523621351099,3145728,90,-56,-1,-1,0
1523621351099,6684672,90,-56,-1,-1,0
1523621351099,9437184,90,-56,-1,-1,0
1523621351138,7798784,90,-56,-1,-1,0
1523621351138,3276800,90,-56,-1,-1,0
1523621351138,393216,90,-56,-1,-1,0
1523621351138,0,90,-56,-1,-1,0
1523621351138,-196608,90,-56,-1,-1,0
1523621351178,-458752,90,-56,-1,-1,0
1523621351178,-589824,90,-56,-1,-1,0
1523621351178,-720896,90,-56,-1,-1,0
1523621351178,-655360,90,-56,-1,-1,0
1523621351178,-589824,90,-56,-1,-1,0
1523621351218,-589824,90,-56,-1,-1,0
1523621351218,-524288,90,-56,-1,-1,0
1523621351218,-393216,90,-56,-1,-1,0
1523621351218,-262144,90,-56,-1,-1,0
1523621351218,-196608,90,-56,-1,-1,0
1523621351259,-65536,90,-56,-1,-1,0
1523621351259,65536,90,-56,-1,-1,0
1523621351259,262144,90,-56,-1,-1,0
1523621351259,458752,90,-56,-1,-1,0
1523621351259,720896,90,-56,-1,-1,0
1523621351298,983040,90,-56,-1,-1,0
1523621351298,1310720,90,-56,-1,-1,0
1523621351298,1572864,90,-56,-1,-1,0
1523621351298,1703936,90,-56,-1,-1,0
1523621351298,1769472,90,-56,-1,-1,0
1523621351338,1769472,90,-56,-1,-1,0
1523621351338,1638400,90,-56,-1,-1,0
1523621351338,1376256,90,-56,-1,-1,0
1523621351338,983040,90,-56,-1,-1,0
1523621351338,524288,90,-56,-1,-1,0
1523621351378,65536,90,-56,-1,-1,0
1523621351378,-262144,90,-56,-1,-1,0
1523621351378,-524288,90,-56,-1,-1,0
1523621351378,-786432,90,-56,-1,-1,0
1523621351378,-983040,90,-56,-1,-1,0
1523621351418,-1048576,90,-56,-1,-1,0
1523621351418,-1114112,90,-56,-1,-1,0
1523621351418,-1114112,90,-56,-1,-1,0
1523621351418,-1114112,90,-56,-1,-1,0
1523621351418,-1114112,90,-56,-1,-1,0
1523621351458,-1048576,90,-56,-1,-1,0
1523621351458,-983040,90,-56,-1,-1,0
1523621351458,-983040,90,-56,-1,-1,0
1523621351458,-983040,90,-56,-1,-1,0
1523621351458,-983040,90,-56,-1,-1,0
1523621351498,-917504,90,-56,-1,-1,0
1523621351498,-983040,90,-56,-1,-1,0
1523621351498,-983040,90,-56,-1,-1,0
1523621351498,-983040,90,-56,-1,-1,0
1523621351498,-917504,90,-56,-1,-1,0
1523621351538,-917504,90,-56,-1,-1,0
1523621351538,-917504,90,-56,-1,-1,0
1523621351538,-983040,90,-56,-1,-1,0
1523621351538,-1048576,90,-56,-1,-1,0
1523621351538,-1048576,90,-56,-1,-1,0
1523621351578,-1048576,90,-56,-1,-1,0
1523621351578,-1048576,90,-56,-1,-1,0
1523621351578,-1114112,90,-56,-1,-1,0
1523621351578,-1179648,90,-56,-1,-1,0
1523621351578,-1245184,90,-56,-1,-1,0
1523621351618,-1245184,90,-56,-1,-1,0
1523621351618,-1114112,90,-56,-1,-1,0
1523621351618,-983040,90,-56,-1,-1,0
1523621351618,-851968,90,-56,-1,-1,0
1523621351618,-720896,90,-56,-1,-1,0
1523621351658,-720896,90,-56,-1,-1,0
1523621351658,-786432,90,-56,-1,-1,0
1523621351658,-917504,90,-56,-1,-1,0
1523621351658,-1048576,90,-56,-1,-1,0
1523621351658,-1114112,90,-56,-1,-1,0
1523621351698,-1114112,90,-56,-1,-1,0
1523621351698,-1179648,90,-56,-1,-1,0
1523621351698,-1179648,90,-56,-1,-1,0
1523621351698,-1179648,90,-56,-1,-1,0
1523621351698,-1114112,90,-56,-1,-1,0
1523621351739,-1114112,90,-56,-1,-1,0
1523621351739,-1179648,90,-56,-1,-1,0
1523621351739,-1179648,90,-56,-1,-1,0
1523621351739,-917504,90,-56,-1,-1,0
1523621351739,262144,90,-56,-1,-1,0
1523621351778,2424832,90,-56,-1,-1,0
1523621351778,5570560,90,-56,-1,-1,0
1523621351778,8650752,90,-56,-1,-1,0
1523621351778,8126464,90,-56,-1,-1,0
1523621351778,4063232,90,-56,-1,-1,0
1523621351818,720896,90,-56,-1,-1,0
1523621351818,0,90,-56,-1,-1,0
1523621351818,-131072,90,-56,-1,-1,0
1523621351818,-393216,90,-56,-1,-1,0
1523621351818,-524288,90,-56,-1,-1,0
1523621351858,-589824,90,-56,-1,-1,0
1523621351858,-589824,90,-56,-1,-1,0
1523621351858,-589824,90,-56,-1,-1,0
1523621351858,-524288,90,-56,-1,-1,0
1523621351858,-458752,90,-56,-1,-1,0
1523621351898,-458752,90,-56,-1,-1,0
1523621351898,-327680,90,-56,-1,-1,0
1523621351898,-196608,90,-56,-1,-1,0
1523621351898,0,90,-56,-1,-1,0
1523621351898,65536,90,-56,-1,-1,0
1523621351938,262144,90,-56,-1,-1,0
1523621351938,458752,90,-56,-1,-1,0
1523621351938,720896,90,-56,-1,-1,0
1523621351938,983040,90,-56,-1,-1,0
1523621351938,1245184,90,-56,-1,-1,0
1523621351978,1507328,90,-56,-1,-1,0
1523621351978,1703936,90,-56,-1,-1,0
1523621351978,1769472,90,-56,-1,-1,0
1523621351978,1769472,90,-56,-1,-1,0
1523621351978,1769472,90,-56,-1,-1,0
1523621352018,1572864,90,-56,-1,-1,0
1523621352018,1179648,90,-56,-1,-1,0
1523621352018,786432,90,-56,-1,-1,0
1523621352018,327680,90,-56,-1,-1,0
1523621352018,-65536,90,-56,-1,-1,0
1523621352058,-393216,90,-56,-1,-1,0
1523621352058,-524288,90,-56,-1,-1,0
1523621352058,-720896,90,-56,-1,-1,0
1523621352058,-851968,90,-56,-1,-1,0
1523621352058,-917504,90,-56,-1,-1,0
1523621352098,-917504,90,-56,-1,-1,0
1523621352098,-917504,90,-56,-1,-1,0
1523621352098,-917504,90,-56,-1,-1,0
1523621352098,-851968,90,-56,-1,-1,0
1523621352098,-786432,90,-56,-1,-1,0
1523621352138,-720896,90,-56,-1,-1,0
1523621352138,-720896,90,-56,-1,-1,0
1523621352138,-786432,90,-56,-1,-1,0
1523621352138,-851968,90,-56,-1,-1,0
1523621352138,-786432,90,-56,-1,-1,0
1523621352178,-720896,90,-56,-1,-1,0
1523621352178,-720896,90,-56,-1,-1,0
1523621352178,-720896,90,-56,-1,-1,0
1523621352178,-720896,90,-56,-1,-1,0
1523621352178,-786432,90,-56,-1,-1,0
1523621352218,-786432,90,-56,-1,-1,0
1523621352218,-851968,90,-56,-1,-1,0
1523621352218,-851968,90,-56,-1,-1,0
1523621352218,-851968,90,-56,-1,-1,0
1523621352218,-851968,90,-56,-1,-1,0
1523621352258,-917504,90,-56,-1,-1,0
1523621352258,-917504,90,-56,-1,-1,0
1523621352258,-1048576,90,-56,-1,-1,0
1523621352258,-1179648,90,-56,-1,-1,0
1523621352258,-1179648,90,-56,-1,-1,0
1523621352298,-1114112,90,-56,-1,-1,0
1523621352298,-917504,90,-56,-1,-1,0
1523621352298,-786432,90,-56,-1,-1,0
1523621352298,-655360,90,-56,-1,-1,0
1523621352298,-655360,90,-56,-1,-1,0
1523621352339,-720896,90,-56,-1,-1,0
1523621352339,-851968,90,-56,-1,-1,0
1523621352339,-983040,90,-56,-1,-1,0
1523621352339,-1114112,90,-56,-1,-1,0
1523621352339,-1048576,90,-56,-1,-1,0
1523621352380,-1048576,90,-56,-1,-1,0
1523621352380,-1048576,90,-56,-1,-1,0
1523621352380,-1048576,90,-56,-1,-1,0
1523621352380,-1114112,90,-56,-1,-1,0
1523621352380,-1114112,90,-56,-1,-1,0
1523621352418,-1114112,90,-56,-1,-1,0
1523621352418,-1114112,90,-56,-1,-1,0
1523621352418,-720896,90,-56,-1,-1,0
1523621352418,393216,90,-56,-1,-1,0
1523621352418,2686976,90,-56,-1,-1,0
1523621352458,5963776,90,-56,-1,-1,0
1523621352458,8650752,90,-56,-1,-1,0
1523621352458,7471104,90,-56,-1,-1,0
1523621352458,3342336,90,-56,-1,-1,0
1523621352458,458752,90,-56,-1,-1,0
1523621352498,0,90,-56,-1,-1,0
1523621352498,-196608,90,-56,-1,-1,0
1523621352498,-458752,90,-56,-1,-1,0
1523621352498,-589824,90,-56,-1,-1,0
1523621352498,-720896,90,-56,-1,-1,0
1523621352538,-720896,90,-56,-1,-1,0
1523621352538,-589824,90,-56,-1,-1,0
1523621352538,-458752,90,-56,-1,-1,0
1523621352538,-458752,90,-56,-1,-1,0
1523621352538,-393216,90,-56,-1,-1,0
1523621352578,-327680,90,-56,-1,-1,0
1523621352578,-196608,90,-56,-1,-1,0
1523621352578,-65536,90,-56,-1,-1,0
1523621352578,0,90,-56,-1,-1,0
1523621352578,65536,90,-56,-1,-1,0
1523621352618,327680,90,-56,-1,-1,0
1523621352618,655360,90,-56,-1,-1,0
1523621352618,917504,90,-56,-1,-1,0
1523621352618,1179648,90,-56,-1,-1,0
1523621352618,1310720,90,-56,-1,-1,0
1523621352658,1441792,90,-56,-1,-1,0
1523621352658,1507328,90,-56,-1,-1,0
1523621352658,1572864,90,-56,-1,-1,0
1523621352658,1507328,90,-56,-1,-1,0
1523621352658,1310720,90,-56,-1,-1,0
1523621352698,983040,90,-56,-1,-1,0
1523621352698,524288,90,-56,-1,-1,0
1523621352698,131072,90,-56,-1,-1,0
1523621352698,-196608,90,-56,-1,-1,0
1523621352698,-458752,90,-56,-1,-1,0
1523621352738,-655360,90,-56,-1,-1,0
1523621352738,-851968,90,-56,-1,-1,0
1523621352738,-983040,90,-56,-1,-1,0
1523621352738,-1114112,90,-56,-1,-1,0
1523621352738,-1114112,90,-56,-1,-1,0
1523621352777,-1048576,90,-56,-1,-1,0
1523621352777,-1048576,90,-56,-1,-1,0
1523621352777,-983040,90,-56,-1,-1,0
1523621352777,-917504,90,-56,-1,-1,0
1523621352777,-917504,90,-56,-1,-1,0
1523621352817,-917504,90,-56,-1,-1,0
1523621352817,-917504,90,-56,-1,-1,0
1523621352817,-983040,90,-56,-1,-1,0
1523621352817,-917504,90,-56,-1,-1,0
1523621352817,-851968,90,-56,-1,-1,0
1523621352857,-851968,90,-56,-1,-1,0
1523621352857,-917504,90,-56,-1,-1,0
1523621352857,-917504,90,-56,-1,-1,0
1523621352857,-917504,90,-56,-1,-1,0
1523621352857,-983040,90,-56,-1,-1,0
1523621352897,-1048576,90,-56,-1,-1,0
1523621352897,-1048576,90,-56,-1,-1,0
1523621352897,-983040,90,-56,-1,-1,0
1523621352897,-983040,90,-56,-1,-1,0
1523621352897,-1048576,90,-56,-1,-1,0
1523621352937,-1179648,90,-56,-1,-1,0
1523621352937,-1245184,90,-56,-1,-1,0
1523621352937,-1245184,90,-56,-1,-1,0
1523621352937,-1114112,90,-56,-1,-1,0
1523621352937,-917504,90,-56,-1,-1,0
1523621352977,-786432,90,-56,-1,-1,0
1523621352977,-655360,90,-56,-1,-1,0
1523621352977,-655360,90,-56,-1,-1,0
1523621352977,-851968,90,-56,-1,-1,0
1523621352977,-1048576,90,-56,-1,-1,0
1523621353019,-1114112,91,-56,-1,-1,0
1523621353019,-1114112,91,-56,-1,-1,0
1523621353019,-1114112,91,-56,-1,-1,0
1523621353019,-1179648,91,-56,-1,-1,0
1523621353019,-1179648,91,-56,-1,-1,0
1523621353057,-1114112,91,-56,-1,-1,0
1523621353057,-1114112,91,-56,-1,-1,0
1523621353057,-1114112,91,-56,-1,-1,0
1523621353057,-1048576,91,-56,-1,-1,0
1523621353057,-917504,91,-56,-1,-1,0
1523621353097,0,91,-56,-1,-1,0
1523621353097,2228224,91,-56,-1,-1,0
1523621353097,5439488,91,-56,-1,-1,0
1523621353097,8847360,91,-56,-1,-1,0
1523621353097,9175040,91,-56,-1,-1,0
1523621353137,5373952,91,-56,-1,-1,0
1523621353137,1245184,91,-56,-1,-1,0
1523621353137,0,91,-56,-1,-1,0
1523621353137,-65536,91,-56,-1,-1,0
1523621353137,-327680,91,-56,-1,-1,0
1523621353177,-524288,91,-56,-1,-1,0
1523621353177,-589824,91,-56,-1,-1,0
1523621353177,-524288,91,-56,-1,-1,0
1523621353177,-524288,91,-56,-1,-1,0
1523621353177,-458752,91,-56,-1,-1,0
1523621353217,-393216,91,-56,-1,-1,0
1523621353217,-327680,91,-56,-1,-1,0
1523621353217,-262144,91,-56,-1,-1,0
1523621353217,-196608,91,-56,-1,-1,0
1523621353217,-65536,91,-56,-1,-1,0
1523621353257,0,91,-56,-1,-1,0
1523621353257,196608,91,-56,-1,-1,0
1523621353257,458752,91,-56,-1,-1,0
1523621353257,720896,91,-56,-1,-1,0
1523621353257,983040,91,-56,-1,-1,0
1523621353297,1179648,91,-56,-1,-1,0
1523621353297,1441792,91,-56,-1,-1,0
1523621353297,1638400,91,-56,-1,-1,0
1523621353297,1835008,91,-56,-1,-1,0
1523621353297,1835008,91,-56,-1,-1,0
1523621353339,1769472,91,-56,-1,-1,0
1523621353339,1638400,91,-56,-1,-1,0
1523621353339,1310720,91,-56,-1,-1,0
1523621353339,983040,91,-56,-1,-1,0
1523621353339,524288,91,-56,-1,-1,0
1523621353377,131072,91,-56,-1,-1,0
1523621353377,-131072,91,-56,-1,-1,0
1523621353377,-393216,91,-56,-1,-1,0
1523621353377,-589824,91,-56,-1,-1,0
1523621353377,-720896,91,-56,-1,-1,0
1523621353417,-786432,91,-56,-1,-1,0
1523621353417,-851968,91,-56,-1,-1,0
1523621353417,-851968,91,-56,-1,-1,0
1523621353417,-917504,91,-56,-1,-1,0
1523621353417,-851968,91,-56,-1,-1,0
1523621353457,-851968,91,-56,-1,-1,0
1523621353457,-786432,91,-56,-1,-1,0
1523621353457,-786432,91,-56,-1,-1,0
1523621353457,-786432,91,-56,-1,-1,0
1523621353457,-720896,91,-56,-1,-1,0
1523621353497,-720896,91,-56,-1,-1,0
1523621353497,-720896,91,-56,-1,-1,0
1523621353497,-720896,91,-56,-1,-1,0
1523621353497,-720896,91,-56,-1,-1,0
1523621353497,-655360,91,-56,-1,-1,0
1523621353537,-720896,91,-56,-1,-1,0
1523621353537,-786432,91,-56,-1,-1,0
1523621353537,-851968,91,-56,-1,-1,0
1523621353537,-851968,91,-56,-1,-1,0
1523621353537,-851968,91,-56,-1,-1,0
1523621353577,-917504,91,-56,-1,-1,0
1523621353577,-983040,91,-56,-1,-1,0
1523621353577,-983040,91,-56,-1,-1,0
1523621353577,-1048576,91,-56,-1,-1,0
1523621353577,-983040,91,-56,-1,-1,0
1523621353617,-786432,91,-56,-1,-1,0
1523621353617,-655360,91,-56,-1,-1,0
1523621353617,-589824,91,-56,-1,-1,0
1523621353617,-589824,91,-56,-1,-1,0
1523621353617,-655360,91,-56,-1,-1,0
1523621353659,-786432,91,-56,-1,-1,0
1523621353659,-917504,91,-56,-1,-1,0
1523621353659,-983040,91,-56,-1,-1,0
1523621353659,-983040,91,-56,-1,-1,0
1523621353659,-983040,91,-56,-1,-1,0
1523621353697,-983040,91,-56,-1,-1,0
1523621353697,-983040,91,-56,-1,-1,0
1523621353697,-983040,91,-56,-1,-1,0
1523621353697,-983040,91,-56,-1,-1,0
1523621353697,-1048576,91,-56,-1,-1,0
1523621353737,-851968,91,-56,-1,-1,0
1523621353737,65536,91,-56,-1,-1,0
1523621353737,2359296,91,-56,-1,-1,0
1523621353737,5636096,91,-56,-1,-1,0
1523621353737,9371648,91,-56,-1,-1,0
1523621353777,9961472,91,-56,-1,-1,0
1523621353777,5898240,91,-56,-1,-1,0
1523621353777,1507328,91,-56,-1,-1,0
1523621353777,196608,91,-56,-1,-1,0
1523621353777,0,91,-56,-1,-1,0
1523621353817,-262144,91,-56,-1,-1,0
1523621353817,-393216,91,-56,-1,-1,0
1523621353817,-458752,91,-56,-1,-1,0
1523621353817,-524288,91,-56,-1,-1,0
1523621353817,-524288,91,-56,-1,-1,0
1523621353857,-458752,91,-56,-1,-1,0
1523621353857,-393216,91,-56,-1,-1,0
1523621353857,-327680,91,-56,-1,-1,0
1523621353857,-262144,91,-56,-1,-1,0
1523621353857,-196608,91,-56,-1,-1,0
1523621353897,-65536,91,-56,-1,-1,0
1523621353897,65536,91,-56,-1,-1,0
1523621353897,327680,91,-56,-1,-1,0
1523621353897,524288,91,-56,-1,-1,0
1523621353897,720896,91,-56,-1,-1,0
1523621353937,983040,91,-56,-1,-1,0
1523621353937,1310720,91,-56,-1,-1,0
1523621353937,1507328,91,-56,-1,-1,0
1523621353937,1703936,91,-56,-1,-1,0
1523621353937,1900544,91,-56,-1,-1,0
1523621353977,1966080,91,-56,-1,-1,0
1523621353977,1835008,91,-56,-1,-1,0
1523621353977,1638400,91,-56,-1,-1,0
1523621353977,1310720,91,-56,-1,-1,0
1523621353977,851968,91,-56,-1,-1,0
1523621354017,393216,91,-56,-1,-1,0
1523621354017,0,91,-56,-1,-1,0
1523621354017,-327680,91,-56,-1,-1,0
1523621354017,-655360,91,-56,-1,-1,0
1523621354017,-851968,91,-56,-1,-1,0
1523621354057,-917504,91,-56,-1,-1,0
1523621354057,-983040,91,-56,-1,-1,0
1523621354057,-1048576,91,-56,-1,-1,0
1523621354057,-1114112,91,-56,-1,-1,0
1523621354057,-1114112,91,-56,-1,-1,0
1523621354097,-1048576,91,-56,-1,-1,0
1523621354097,-983040,91,-56,-1,-1,0
1523621354097,-917504,91,-56,-1,-1,0
1523621354097,-917504,91,-56,-1,-1,0
1523621354097,-917504,91,-56,-1,-1,0
1523621354137,-917504,91,-56,-1,-1,0
1523621354137,-983040,91,-56,-1,-1,0
1523621354137,-983040,91,-56,-1,-1,0
1523621354137,-917504,91,-56,-1,-1,0
1523621354137,-917504,91,-56,-1,-1,0
1523621354177,-917504,91,-56,-1,-1,0
1523621354177,-917504,91,-56,-1,-1,0
1523621354177,-983040,91,-56,-1,-1,0
1523621354177,-1048576,91,-56,-1,-1,0
1523621354177,-1114112,91,-56,-1,-1,0
1523621354217,-1179648,91,-56,-1,-1,0
1523621354217,-1179648,91,-56,-1,-1,0
1523621354217,-1179648,91,-56,-1,-1,0
1523621354217,-1245184,91,-56,-1,-1,0
1523621354217,-1179648,91,-56,-1,-1,0
1523621354257,-983040,91,-56,-1,-1,0
1523621354257,-851968,91,-56,-1,-1,0
1523621354257,-720896,91,-56,-1,-1,0
1523621354257,-720896,91,-56,-1,-1,0
1523621354257,-851968,91,-56,-1,-1,0
1523621354299,-983040,91,-56,-1,-1,0
1523621354299,-1179648,91,-56,-1,-1,0
1523621354299,-1245184,91,-56,-1,-1,0
1523621354299,-1245184,91,-56,-1,-1,0
1523621354299,-1245184,91,-56,-1,-1,0
1523621354337,-1245184,92,-56,-1,-1,0
1523621354337,-1179648,92,-56,-1,-1,0
1523621354337,-1179648,92,-56,-1,-1,0
1523621354337,-1179648,92,-56,-1,-1,0
1523621354337,-1179648,92,-56,-1,-1,0
1523621354377,-1179648,92,-56,-1,-1,0
1523621354377,-655360,92,-56,-1,-1,0
1523621354377,851968,92,-56,-1,-1,0
1523621354377,3538944,92,-56,-1,-1,0
1523621354377,7208960,92,-56,-1,-1,0
1523621354417,9633792,92,-56,-1,-1,0
1523621354417,7471104,92,-56,-1,-1,0
1523621354417,2818048,92,-56,-1,-1,0
1523621354417,262144,92,-56,-1,-1,0
1523621354417,0,92,-56,-1,-1,0
1523621354457,-327680,92,-56,-1,-1,0
1523621354457,-524288,92,-56,-1,-1,0
1523621354457,-655360,92,-56,-1,-1,0
1523621354457,-655360,92,-56,-1,-1,0
1523621354457,-655360,92,-56,-1,-1,0
1523621354497,-655360,92,-56,-1,-1,0
1523621354497,-589824,92,-56,-1,-1,0
1523621354497,-524288,92,-56,-1,-1,0
1523621354497,-393216,92,-56,-1,-1,0
1523621354497,-262144,92,-56,-1,-1,0
1523621354537,-131072,92,-56,-1,-1,0
1523621354537,0,92,-56,-1,-1,0
1523621354537,131072,92,-56,-1,-1,0
1523621354537,327680,92,-56,-1,-1,0
1523621354537,589824,92,-56,-1,-1,0
1523621354577,851968,92,-56,-1,-1,0
1523621354577,1114112,92,-56,-1,-1,0
1523621354577,1441792,92,-56,-1,-1,0
1523621354577,1703936,92,-56,-1,-1,0
1523621354577,1900544,92,-56,-1,-1,0
1523621354617,1966080,92,-56,-1,-1,0
1523621354617,1966080,92,-56,-1,-1,0
1523621354617,1835008,92,-56,-1,-1,0
1523621354617,1572864,92,-56,-1,-1,0
1523621354617,1048576,92,-56,-1,-1,0
1523621354657,589824,92,-56,-1,-1,0
1523621354657,131072,92,-56,-1,-1,0
1523621354657,-196608,92,-56,-1,-1,0
1523621354657,-458752,92,-56,-1,-1,0
1523621354657,-589824,92,-56,-1,-1,0
1523621354697,-786432,92,-56,-1,-1,0
1523621354697,-917504,92,-56,-1,-1,0
1523621354697,-917504,92,-56,-1,-1,0
1523621354697,-917504,92,-56,-1,-1,0
1523621354697,-917504,92,-56,-1,-1,0
1523621354737,-917504,92,-56,-1,-1,0
1523621354737,-851968,92,-56,-1,-1,0
1523621354737,-851968,92,-56,-1,-1,0
1523621354737,-851968,92,-56,-1,-1,0
1523621354737,-851968,92,-56,-1,-1,0
1523621354777,-720896,92,-56,-1,-1,0
1523621354777,-720896,92,-56,-1,-1,0
1523621354777,-720896,92,-56,-1,-1,0
1523621354777,-720896,92,-56,-1,-1,0
1523621354777,-720896,92,-56,-1,-1,0
1523621354817,-786432,92,-56,-1,-1,0
1523621354817,-786432,92,-56,-1,-1,0
1523621354817,-786432,92,-56,-1,-1,0
1523621354817,-786432,92,-56,-1,-1,0
1523621354817,-720896,92,-56,-1,-1,0
1523621354857,-851968,92,-56,-1,-1,0
1523621354857,-917504,92,-56,-1,-1,0
1523621354857,-983040,92,-56,-1,-1,0
1523621354857,-1048576,92,-56,-1,-1,0
1523621354857,-1048576,92,-56,-1,-1,0
1523621354897,-983040,92,-56,-1,-1,0
1523621354897,-851968,92,-56,-1,-1,0
1523621354897,-720896,92,-56,-1,-1,0
1523621354897,-524288,92,-56,-1,-1,0
1523621354897,-458752,92,-56,-1,-1,0
1523621354939,-589824,92,-56,-1,-1,0
1523621354939,-720896,92,-56,-1,-1,0
1523621354939,-851968,92,-56,-1,-1,0
1523621354939,-983040,92,-56,-1,-1,0
1523621354939,-983040,92,-56,-1,-1,0
1523621354977,-983040,92,-56,-1,-1,0
1523621354977,-983040,92,-56,-1,-1,0
1523621354977,-1048576,92,-56,-1,-1,0
1523621354977,-983040,92,-56,-1,-1,0
1523621354977,-983040,92,-56,-1,-1,0
1523621355017,-983040,92,-56,-1,-1,0
1523621355017,-983040,92,-56,-1,-1,0
1523621355017,-786432,92,-56,-1,-1,0
1523621355017,131072,92,-56,-1,-1,0
1523621355017,2228224,92,-56,-1,-1,0
1523621355057,5373952,92,-56,-1,-1,0
1523621355057,8847360,92,-56,-1,-1,0
1523621355057,8978432,92,-56,-1,-1,0
1523621355057,5046272,92,-56,-1,-1,0
1523621355057,1179648,92,-56,-1,-1,0
1523621355097,131072,92,-56,-1,-1,0
1523621355097,0,92,-56,-1,-1,0
1523621355097,-327680,92,-56,-1,-1,0
1523621355097,-458752,92,-56,-1,-1,0
1523621355097,-524288,92,-56,-1,-1,0
1523621355137,-589824,92,-56,-1,-1,0
1523621355137,-524288,92,-56,-1,-1,0
1523621355137,-458752,92,-56,-1,-1,0
1523621355137,-393216,92,-56,-1,-1,0
1523621355137,-327680,92,-56,-1,-1,0
1523621355177,-262144,92,-56,-1,-1,0
1523621355177,-196608,92,-56,-1,-1,0
1523621355177,-65536,92,-56,-1,-1,0
1523621355177,0,92,-56,-1,-1,0
1523621355177,196608,92,-56,-1,-1,0
1523621355217,393216,92,-56,-1,-1,0
1523621355217,655360,92,-56,-1,-1,0
1523621355217,983040,92,-56,-1,-1,0
1523621355217,1245184,92,-56,-1,-1,0
1523621355217,1441792,92,-56,-1,-1,0
1523621355258,1638400,92,-56,-1,-1,0
1523621355258,1769472,92,-56,-1,-1,0
1523621355258,1769472,92,-56,-1,-1,0
1523621355258,1572864,92,-56,-1,-1,0
1523621355258,1441792,92,-56,-1,-1,0
1523621355298,1179648,92,-56,-1,-1,0
1523621355298,720896,92,-56,-1,-1,0
1523621355298,262144,92,-56,-1,-1,0
1523621355298,0,92,-56,-1,-1,0
1523621355298,-262144,92,-56,-1,-1,0
1523621355338,-524288,92,-56,-1,-1,0
1523621355338,-655360,92,-56,-1,-1,0
1523621355338,-786432,92,-56,-1,-1,0
1523621355338,-917504,92,-56,-1,-1,0
1523621355338,-983040,92,-56,-1,-1,0
1523621355377,-983040,92,-56,-1,-1,0
1523621355377,-983040,92,-56,-1,-1,0
1523621355377,-917504,92,-56,-1,-1,0
1523621355377,-917504,92,-56,-1,-1,0
1523621355377,-851968,92,-56,-1,-1,0
1523621355417,-786432,92,-56,-1,-1,0
1523621355417,-786432,92,-56,-1,-1,0
1523621355417,-786432,92,-56,-1,-1,0
1523621355417,-851968,92,-56,-1,-1,0
1523621355417,-851968,92,-56,-1,-1,0
1523621355457,-786432,92,-56,-1,-1,0
1523621355457,-786432,92,-56,-1,-1,0
1523621355457,-786432,92,-56,-1,-1,0
1523621355457,-917504,92,-56,-1,-1,0
1523621355457,-983040,92,-56,-1,-1,0
1523621355498,-1048576,92,-56,-1,-1,0
1523621355498,-983040,92,-56,-1,-1,0
1523621355498,-917504,92,-56,-1,-1,0
1523621355498,-917504,92,-56,-1,-1,0
1523621355498,-917504,92,-56,-1,-1,0
1523621355537,-983040,92,-56,-1,-1,0
1523621355537,-1048576,92,-56,-1,-1,0
1523621355537,-1179648,92,-56,-1,-1,0
1523621355537,-1114112,92,-56,-1,-1,0
1523621355537,-917504,92,-56,-1,-1,0
1523621355579,-655360,92,-56,-1,-1,0
1523621355579,-458752,92,-56,-1,-1,0
1523621355579,-458752,92,-56,-1,-1,0
1523621355579,-655360,92,-56,-1,-1,0
1523621355579,-917504,92,-56,-1,-1,0
1523621355618,-983040,92,-56,-1,-1,0
1523621355618,-917504,92,-56,-1,-1,0
1523621355618,-983040,92,-56,-1,-1,0
1523621355618,-1048576,92,-56,-1,-1,0
1523621355618,-1048576,92,-56,-1,-1,0
1523621355658,-1048576,92,-56,-1,-1,0
1523621355658,-1179648,92,-56,-1,-1,0
1523621355658,-1179648,92,-56,-1,-1,0
1523621355658,-1179648,92,-56,-1,-1,0
1523621355658,-1048576,92,-56,-1,-1,0
1523621355697,-196608,92,-56,-1,-1,0
1523621355697,1769472,92,-56,-1,-1,0
1523621355697,4653056,92,-56,-1,-1,0
1523621355697,7929856,92,-56,-1,-1,0
1523621355697,8716288,92,-56,-1,-1,0
1523621355738,5373952,92,-56,-1,-1,0
1523621355738,1441792,92,-56,-1,-1,0
1523621355738,65536,92,-56,-1,-1,0
1523621355738,-65536,92,-56,-1,-1,0
1523621355738,-393216,92,-56,-1,-1,0
1523621355777,-655360,92,-56,-1,-1,0
1523621355777,-655360,92,-56,-1,-1,0
1523621355777,-458752,92,-56,-1,-1,0
1523621355777,-458752,92,-56,-1,-1,0
1523621355777,-524288,92,-56,-1,-1,0
1523621355818,-589824,92,-56,-1,-1,0
1523621355818,-655360,92,-56,-1,-1,0
1523621355818,-589824,92,-56,-1,-1,0
1523621355818,-393216,92,-56,-1,-1,0
1523621355818,-196608,92,-56,-1,-1,0
1523621355857,-65536,92,-56,-1,-1,0
1523621355857,65536,92,-56,-1,-1,0
1523621355857,196608,92,-56,-1,-1,0
1523621355857,458752,92,-56,-1,-1,0
1523621355857,786432,92,-56,-1,-1,0
1523621355898,1048576,92,-56,-1,-1,0
1523621355898,1245184,92,-56,-1,-1,0
1523621355898,1441792,92,-56,-1,-1,0
1523621355898,1507328,92,-56,-1,-1,0
1523621355898,1441792,92,-56,-1,-1,0
1523621355937,1441792,92,-56,-1,-1,0
1523621355937,1310720,92,-56,-1,-1,0
1523621355937,1048576,92,-56,-1,-1,0
1523621355937,655360,92,-56,-1,-1,0
1523621355937,262144,92,-56,-1,-1,0
1523621355978,-65536,92,-56,-1,-1,0
1523621355978,-458752,92,-56,-1,-1,0
1523621355978,-655360,92,-56,-1,-1,0
1523621355978,-720896,92,-56,-1,-1,0
1523621355978,-786432,92,-56,-1,-1,0
1523621356018,-917504,92,-56,-1,-1,0
1523621356018,-1048576,92,-56,-1,-1,0
1523621356018,-983040,92,-56,-1,-1,0
1523621356018,-983040,92,-56,-1,-1,0
1523621356018,-917504,92,-56,-1,-1,0
1523621356058,-917504,92,-56,-1,-1,0
1523621356058,-917504,92,-56,-1,-1,0
1523621356058,-917504,92,-56,-1,-1,0
1523621356058,-917504,92,-56,-1,-1,0
1523621356058,-917504,92,-56,-1,-1,0
1523621356098,-851968,92,-56,-1,-1,0
1523621356098,-851968,92,-56,-1,-1,0
1523621356098,-851968,92,-56,-1,-1,0
1523621356098,-851968,92,-56,-1,-1,0
1523621356098,-851968,92,-56,-1,-1,0
1523621356138,-917504,92,-56,-1,-1,0
1523621356138,-1048576,92,-56,-1,-1,0
1523621356138,-1048576,92,-56,-1,-1,0
1523621356138,-983040,92,-56,-1,-1,0
1523621356138,-917504,92,-56,-1,-1,0
1523621356178,-1048576,92,-56,-1,-1,0
1523621356178,-1114112,92,-56,-1,-1,0
1523621356178,-1179648,92,-56,-1,-1,0
1523621356178,-1179648,92,-56,-1,-1,0
1523621356178,-1310720,92,-56,-1,-1,0
1523621356219,-1245184,92,-56,-1,-1,0
1523621356219,-1048576,92,-56,-1,-1,0
1523621356219,-786432,92,-56,-1,-1,0
1523621356219,-655360,92,-56,-1,-1,0
1523621356219,-655360,92,-56,-1,-1,0
1523621356258,-720896,92,-56,-1,-1,0
1523621356258,-851968,92,-56,-1,-1,0
1523621356258,-1048576,92,-56,-1,-1,0
1523621356258,-1114112,92,-56,-1,-1,0
1523621356258,-1179648,92,-56,-1,-1,0
1523621356298,-1179648,91,-56,-1,-1,0
1523621356298,-1179648,91,-56,-1,-1,0
1523621356298,-1179648,91,-56,-1,-1,0
1523621356298,-1179648,91,-56,-1,-1,0
1523621356298,-1114112,91,-56,-1,-1,0
1523621356337,-1114112,91,-56,-1,-1,0
1523621356337,-1179648,91,-56,-1,-1,0
1523621356337,-917504,91,-56,-1,-1,0
1523621356337,393216,91,-56,-1,-1,0
1523621356337,3080192,91,-56,-1,-1,0
1523621356378,6684672,91,-56,-1,-1,0
1523621356378,9502720,91,-56,-1,-1,0
1523621356378,8323072,91,-56,-1,-1,0
1523621356378,3866624,91,-56,-1,-1,0
1523621356378,524288,91,-56,-1,-1,0
1523621356417,0,91,-56,-1,-1,0
1523621356417,-131072,91,-56,-1,-1,0
1523621356417,-327680,91,-56,-1,-1,0
1523621356417,-458752,91,-56,-1,-1,0
1523621356417,-655360,91,-56,-1,-1,0
1523621356458,-655360,91,-56,-1,-1,0
1523621356458,-589824,91,-56,-1,-1,0
1523621356458,-458752,91,-56,-1,-1,0
1523621356458,-393216,91,-56,-1,-1,0
1523621356458,-327680,91,-56,-1,-1,0
1523621356498,-393216,91,-56,-1,-1,0
1523621356498,-262144,91,-56,-1,-1,0
1523621356498,-65536,91,-56,-1,-1,0
1523621356498,131072,91,-56,-1,-1,0
1523621356498,327680,91,-56,-1,-1,0
1523621356538,458752,91,-56,-1,-1,0
1523621356538,655360,91,-56,-1,-1,0
1523621356538,917504,91,-56,-1,-1,0
1523621356538,1245184,91,-56,-1,-1,0
1523621356538,1441792,91,-56,-1,-1,0
1523621356578,1638400,91,-56,-1,-1,0
1523621356578,1703936,91,-56,-1,-1,0
1523621356578,1703936,91,-56,-1,-1,0
1523621356578,1638400,91,-56,-1,-1,0
1523621356578,1507328,91,-56,-1,-1,0
1523621356618,1114112,91,-56,-1,-1,0
1523621356618,720896,91,-56,-1,-1,0
1523621356618,327680,91,-56,-1,-1,0
1523621356618,0,91,-56,-1,-1,0
1523621356618,-327680,91,-56,-1,-1,0
1523621356657,-589824,91,-56,-1,-1,0
1523621356657,-786432,91,-56,-1,-1,0
1523621356657,-851968,91,-56,-1,-1,0
1523621356657,-983040,91,-56,-1,-1,0
1523621356657,-983040,91,-56,-1,-1,0
1523621356698,-983040,91,-56,-1,-1,0
1523621356698,-983040,91,-56,-1,-1,0
1523621356698,-917504,91,-56,-1,-1,0
1523621356698,-851968,91,-56,-1,-1,0
1523621356698,-851968,91,-56,-1,-1,0
1523621356737,-851968,91,-56,-1,-1,0
1523621356737,-917504,91,-56,-1,-1,0
1523621356737,-917504,91,-56,-1,-1,0
1523621356737,-851968,91,-56,-1,-1,0
1523621356737,-851968,91,-56,-1,-1,0
1523621356778,-851968,91,-56,-1,-1,0
1523621356778,-851968,91,-56,-1,-1,0
1523621356778,-786432,91,-56,-1,-1,0
1523621356778,-851968,91,-56,-1,-1,0
1523621356778,-917504,91,-56,-1,-1,0
1523621356817,-983040,91,-56,-1,-1,0
1523621356817,-1048576,91,-56,-1,-1,0
1523621356817,-1114112,91,-56,-1,-1,0
1523621356817,-1114112,91,-56,-1,-1,0
1523621356817,-1048576,91,-56,-1,-1,0
1523621356859,-1048576,91,-56,-1,-1,0
1523621356859,-1114112,91,-56,-1,-1,0
1523621356859,-1048576,91,-56,-1,-1,0
1523621356859,-786432,91,-56,-1,-1,0
1523621356859,-655360,91,-56,-1,-1,0
1523621356898,-589824,91,-56,-1,-1,0
1523621356898,-655360,91,-56,-1,-1,0
1523621356898,-786432,91,-56,-1,-1,0
1523621356898,-917504,91,-56,-1,-1,0
1523621356898,-983040,91,-56,-1,-1,0
1523621356938,-983040,91,-56,-1,-1,0
1523621356938,-983040,91,-56,-1,-1,0
1523621356938,-983040,91,-56,-1,-1,0
1523621356938,-983040,91,-56,-1,-1,0
1523621356938,-983040,91,-56,-1,-1,0
1523621356978,-1048576,91,-56,-1,-1,0
1523621356978,-1048576,91,-56,-1,-1,0
1523621356978,-1114112,91,-56,-1,-1,0
1523621356978,-1048576,91,-56,-1,-1,0
1523621356978,-196608,91,-56,-1,-1,0
1523621357018,1966080,91,-56,-1,-1,0
1523621357018,5242880,91,-56,-1,-1,0
1523621357018,9043968,91,-56,-1,-1,0
1523621357018,10354688,91,-56,-1,-1,0
1523621357018,6881280,91,-56,-1,-1,0
1523621357058,2097152,91,-56,-1,-1,0
1523621357058,131072,91,-56,-1,-1,0
1523621357058,0,91,-56,-1,-1,0
1523621357058,-327680,91,-56,-1,-1,0
1523621357058,-458752,91,-56,-1,-1,0
1523621357098,-458752,91,-56,-1,-1,0
1523621357098,-524288,91,-56,-1,-1,0
1523621357098,-458752,91,-56,-1,-1,0
1523621357098,-458752,91,-56,-1,-1,0
1523621357098,-327680,91,-56,-1,-1,0
1523621357138,-262144,91,-56,-1,-1,0
1523621357138,-196608,91,-56,-1,-1,0
1523621357138,-196608,91,-56,-1,-1,0
1523621357138,0,91,-56,-1,-1,0
1523621357138,65536,91,-56,-1,-1,0
1523621357178,327680,91,-56,-1,-1,0
1523621357178,458752,91,-56,-1,-1,0
1523621357178,786432,91,-56,-1,-1,0
1523621357178,1114112,91,-56,-1,-1,0
1523621357178,1441792,91,-56,-1,-1,0
1523621357218,1638400,91,-56,-1,-1,0
1523621357218,1835008,91,-56,-1,-1,0
1523621357218,2031616,91,-56,-1,-1,0
1523621357218,2162688,91,-56,-1,-1,0
1523621357218,2162688,91,-56,-1,-1,0
1523621357258,1966080,91,-56,-1,-1,0
1523621357258,1638400,91,-56,-1,-1,0
1523621357258,1245184,91,-56,-1,-1,0
1523621357258,720896,91,-56,-1,-1,0
1523621357258,196608,91,-56,-1,-1,0
1523621357298,-196608,91,-56,-1,-1,0
1523621357298,-458752,91,-56,-1,-1,0
1523621357298,-589824,91,-56,-1,-1,0
1523621357298,-720896,91,-56,-1,-1,0
1523621357298,-917504,91,-56,-1,-1,0
1523621357338,-983040,91,-56,-1,-1,0
1523621357338,-983040,91,-56,-1,-1,0
1523621357338,-1114112,91,-56,-1,-1,0
1523621357338,-1114112,91,-56,-1,-1,0
1523621357338,-917504,91,-56,-1,-1,0
1523621357378,-786432,91,-56,-1,-1,0
1523621357378,-851968,91,-56,-1,-1,0
1523621357378,-917504,91,-56,-1,-1,0
1523621357378,-917504,91,-56,-1,-1,0
1523621357378,-917504,91,-56,-1,-1,0
1523621357418,-917504,91,-56,-1,-1,0
1523621357418,-983040,91,-56,-1,-1,0
1523621357418,-917504,91,-56,-1,-1,0
1523621357418,-851968,91,-56,-1,-1,0
1523621357418,-851968,91,-56,-1,-1,0
1523621357458,-917504,91,-56,-1,-1,0
1523621357458,-917504,91,-56,-1,-1,0
1523621357458,-983040,91,-56,-1,-1,0
1523621357458,-1048576,91,-56,-1,-1,0
1523621357458,-1114112,91,-56,-1,-1,0
1523621357498,-1245184,91,-56,-1,-1,0
1523621357498,-1245184,91,-56,-1,-1,0
1523621357498,-1048576,91,-56,-1,-1,0
1523621357498,-917504,91,-56,-1,-1,0
1523621357498,-720896,91,-56,-1,-1,0
1523621357538,-655360,91,-56,-1,-1,0
1523621357538,-655360,91,-56,-1,-1,0
1523621357538,-786432,91,-56,-1,-1,0
1523621357538,-983040,91,-56,-1,-1,0
1523621357538,-1179648,91,-56,-1,-1,0
1523621357578,-1310720,91,-56,-1,-1,0
1523621357578,-1245184,91,-56,-1,-1,0
1523621357578,-1048576,91,-56,-1,-1,0
1523621357578,-1048576,91,-56,-1,-1,0
1523621357578,-1179648,91,-56,-1,-1,0
1523621357618,-1245184,91,-56,-1,-1,0
1523621357618,-1245184,91,-56,-1,-1,0
1523621357618,-1245184,91,-56,-1,-1,0
1523621357618,-1245184,91,-56,-1,-1,0
1523621357618,-851968,91,-56,-1,-1,0
1523621357658,524288,91,-56,-1,-1,0
1523621357658,3145728,91,-56,-1,-1,0
1523621357658,6750208,91,-56,-1,-1,0
1523621357658,9568256,91,-56,-1,-1,0
1523621357658,8060928,91,-56,-1,-1,0
1523621357698,3473408,91,-56,-1,-1,0
1523621357698,393216,91,-56,-1,-1,0
1523621357698,0,91,-56,-1,-1,0
1523621357698,-262144,91,-56,-1,-1,0
1523621357698,-589824,91,-56,-1,-1,0
1523621357738,-655360,91,-56,-1,-1,0
1523621357738,-720896,91,-56,-1,-1,0
1523621357738,-655360,91,-56,-1,-1,0
1523621357738,-655360,91,-56,-1,-1,0
1523621357738,-589824,91,-56,-1,-1,0
1523621357778,-524288,91,-56,-1,-1,0
1523621357778,-458752,91,-56,-1,-1,0
1523621357778,-327680,91,-56,-1,-1,0
1523621357778,-131072,91,-56,-1,-1,0
1523621357778,0,91,-56,-1,-1,0
1523621357818,131072,91,-56,-1,-1,0
1523621357818,327680,91,-56,-1,-1,0
1523621357818,458752,91,-56,-1,-1,0
1523621357818,786432,91,-56,-1,-1,0
1523621357818,1114112,91,-56,-1,-1,0
1523621357858,1376256,91,-56,-1,-1,0
1523621357858,1638400,91,-56,-1,-1,0
1523621357858,1900544,91,-56,-1,-1,0
1523621357858,1966080,91,-56,-1,-1,0
1523621357858,1966080,91,-56,-1,-1,0
1523621357898,1835008,91,-56,-1,-1,0
1523621357898,1638400,91,-56,-1,-1,0
1523621357898,1179648,91,-56,-1,-1,0
1523621357898,720896,91,-56,-1,-1,0
1523621357898,262144,91,-56,-1,-1,0
1523621357938,-65536,91,-56,-1,-1,0
1523621357938,-458752,91,-56,-1,-1,0
1523621357938,-786432,91,-56,-1,-1,0
1523621357938,-917504,91,-56,-1,-1,0
1523621357938,-917504,91,-56,-1,-1,0
1523621357978,-983040,91,-56,-1,-1,0
1523621357978,-983040,91,-56,-1,-1,0
1523621357978,-1048576,91,-56,-1,-1,0
1523621357978,-1114112,91,-56,-1,-1,0
1523621357978,-1114112,91,-56,-1,-1,0
1523621358018,-1048576,91,-56,-1,-1,0
1523621358018,-983040,91,-56,-1,-1,0
1523621358018,-983040,91,-56,-1,-1,0
1523621358018,-983040,91,-56,-1,-1,0
1523621358018,-851968,91,-56,-1,-1,0
1523621358058,-720896,91,-56,-1,-1,0
1523621358058,-786432,91,-56,-1,-1,0
1523621358058,-917504,91,-56,-1,-1,0
1523621358058,-917504,91,-56,-1,-1,0
1523621358058,-917504,91,-56,-1,-1,0
1523621358098,-1048576,91,-56,-1,-1,0
1523621358098,-1114112,91,-56,-1,-1,0
1523621358098,-1179648,91,-56,-1,-1,0
1523621358098,-1114112,91,-56,-1,-1,0
1523621358098,-1179648,91,-56,-1,-1,0
1523621358139,-1245184,91,-56,-1,-1,0
1523621358139,-1245184,91,-56,-1,-1,0
1523621358139,-1245184,91,-56,-1,-1,0
1523621358139,-1179648,91,-56,-1,-1,0
1523621358139,-1048576,91,-56,-1,-1,0
1523621358178,-786432,91,-56,-1,-1,0
1523621358178,-655360,91,-56,-1,-1,0
1523621358178,-851968,91,-56,-1,-1,0
1523621358178,-1114112,91,-56,-1,-1,0
1523621358178,-1245184,91,-56,-1,-1,0
1523621358218,-1245184,91,-56,-1,-1,0
1523621358218,-1245184,91,-56,-1,-1,0
1523621358218,-1245184,91,-56,-1,-1,0
1523621358218,-1245184,91,-56,-1,-1,0
1523621358218,-1245184,91,-56,-1,-1,0
1523621358258,-1310720,91,-56,-1,-1,0
1523621358258,-1310720,91,-56,-1,-1,0
1523621358258,-1310720,91,-56,-1,-1,0
1523621358258,-1310720,91,-56,-1,-1,0
1523621358258,-1179648,91,-56,-1,-1,0
1523621358298,-458752,91,-56,-1,-1,0
1523621358298,1310720,91,-56,-1,-1,0
1523621358298,4325376,91,-56,-1,-1,0
1523621358298,7864320,91,-56,-1,-1,0
1523621358298,8978432,91,-56,-1,-1,0
1523621358338,5701632,91,-56,-1,-1,0
1523621358338,1507328,91,-56,-1,-1,0
1523621358338,0,91,-56,-1,-1,0
1523621358338,-131072,91,-56,-1,-1,0
1523621358338,-393216,91,-56,-1,-1,0
1523621358378,-655360,91,-56,-1,-1,0
1523621358378,-786432,91,-56,-1,-1,0
1523621358378,-720896,91,-56,-1,-1,0
1523621358378,-589824,91,-56,-1,-1,0
1523621358378,-655360,91,-56,-1,-1,0
1523621358418,-589824,91,-56,-1,-1,0
1523621358418,-524288,91,-56,-1,-1,0
1523621358418,-393216,91,-56,-1,-1,0
1523621358418,-393216,91,-56,-1,-1,0
1523621358418,-262144,91,-56,-1,-1,0
1523621358458,0,91,-56,-1,-1,0
1523621358458,196608,91,-56,-1,-1,0
1523621358458,327680,91,-56,-1,-1,0
1523621358458,655360,91,-56,-1,-1,0
1523621358458,917504,91,-56,-1,-1,0
1523621358498,1048576,91,-56,-1,-1,0
1523621358498,1245184,91,-56,-1,-1,0
1523621358498,1441792,91,-56,-1,-1,0
1523621358498,1638400,91,-56,-1,-1,0
1523621358498,1703936,91,-56,-1,-1,0
1523621358538,1769472,91,-56,-1,-1,0
1523621358538,1638400,91,-56,-1,-1,0
1523621358538,1245184,91,-56,-1,-1,0
1523621358538,786432,91,-56,-1,-1,0
1523621358538,262144,91,-56,-1,-1,0
1523621358578,0,91,-56,-1,-1,0
1523621358578,-393216,91,-56,-1,-1,0
1523621358578,-655360,91,-56,-1,-1,0
1523621358578,-851968,91,-56,-1,-1,0
1523621358578,-917504,91,-56,-1,-1,0
1523621358618,-917504,91,-56,-1,-1,0
1523621358618,-983040,91,-56,-1,-1,0
1523621358618,-983040,91,-56,-1,-1,0
1523621358618,-983040,91,-56,-1,-1,0
1523621358618,-917504,91,-56,-1,-1,0
1523621358658,-917504,91,-56,-1,-1,0
1523621358658,-851968,91,-56,-1,-1,0
1523621358658,-851968,91,-56,-1,-1,0
1523621358658,-1048576,91,-56,-1,-1,0
1523621358658,-1048576,91,-56,-1,-1,0
1523621358698,-851968,91,-56,-1,-1,0
1523621358698,-786432,91,-56,-1,-1,0
1523621358698,-851968,91,-56,-1,-1,0
1523621358698,-786432,91,-56,-1,-1,0
1523621358698,-786432,91,-56,-1,-1,0
1523621358738,-917504,91,-56,-1,-1,0
1523621358738,-983040,91,-56,-1,-1,0
1523621358738,-983040,91,-56,-1,-1,0
1523621358738,-917504,91,-56,-1,-1,0
1523621358738,-1048576,91,-56,-1,-1,0
1523621358779,-1114112,91,-56,-1,-1,0
1523621358779,-1179648,91,-56,-1,-1,0
1523621358779,-1114112,91,-56,-1,-1,0
1523621358779,-1048576,91,-56,-1,-1,0
1523621358779,-983040,91,-56,-1,-1,0
1523621358818,-851968,91,-56,-1,-1,0
1523621358818,-720896,91,-56,-1,-1,0
1523621358818,-589824,91,-56,-1,-1,0
1523621358818,-720896,91,-56,-1,-1,0
1523621358818,-917504,91,-56,-1,-1,0
1523621358858,-1048576,91,-56,-1,-1,0
1523621358858,-1114112,91,-56,-1,-1,0
1523621358858,-1179648,91,-56,-1,-1,0
1523621358858,-1245184,91,-56,-1,-1,0
1523621358858,-1179648,91,-56,-1,-1,0
1523621358898,-1114112,91,-56,-1,-1,0
1523621358898,-1179648,91,-56,-1,-1,0
1523621358898,-1245184,91,-56,-1,-1,0
1523621358898,-1245184,91,-56,-1,-1,0
1523621358898,-1310720,91,-56,-1,-1,0
1523621358938,-1114112,91,-56,-1,-1,0
1523621358938,-131072,91,-56,-1,-1,0
1523621358938,1835008,91,-56,-1,-1,0
1523621358938,4784128,91,-56,-1,-1,0
1523621358938,8060928,91,-56,-1,-1,0
1523621358978,8323072,91,-56,-1,-1,0
1523621358978,4718592,91,-56,-1,-1,0
1523621358978,983040,91,-56,-1,-1,0
1523621358978,-65536,91,-56,-1,-1,0
1523621358978,-262144,91,-56,-1,-1,0
1523621359018,-524288,91,-56,-1,-1,0
1523621359018,-720896,91,-56,-1,-1,0
1523621359018,-786432,91,-56,-1,-1,0
1523621359018,-786432,91,-56,-1,-1,0
1523621359018,-720896,91,-56,-1,-1,0
1523621359058,-655360,91,-56,-1,-1,0
1523621359058,-655360,91,-56,-1,-1,0
1523621359058,-655360,91,-56,-1,-1,0
1523621359058,-458752,91,-56,-1,-1,0
1523621359058,-327680,91,-56,-1,-1,0
1523621359098,-196608,91,-56,-1,-1,0
1523621359098,-65536,91,-56,-1,-1,0
1523621359098,65536,91,-56,-1,-1,0
1523621359098,262144,91,-56,-1,-1,0
1523621359098,524288,91,-56,-1,-1,0
1523621359138,786432,91,-56,-1,-1,0
1523621359138,1114112,91,-56,-1,-1,0
1523621359138,1310720,91,-56,-1,-1,0
1523621359138,1507328,91,-56,-1,-1,0
1523621359138,1638400,91,-56,-1,-1,0
1523621359178,1703936,91,-56,-1,-1,0
1523621359178,1638400,91,-56,-1,-1,0
1523621359178,1507328,91,-56,-1,-1,0
1523621359178,1179648,91,-56,-1,-1,0
1523621359178,786432,91,-56,-1,-1,0
1523621359218,327680,91,-56,-1,-1,0
1523621359218,-65536,91,-56,-1,-1,0
1523621359218,-393216,91,-56,-1,-1,0
1523621359218,-655360,91,-56,-1,-1,0
1523621359218,-851968,91,-56,-1,-1,0
1523621359258,-917504,91,-56,-1,-1,0
1523621359258,-983040,91,-56,-1,-1,0
1523621359258,-983040,91,-56,-1,-1,0
1523621359258,-1048576,91,-56,-1,-1,0
1523621359258,-1048576,91,-56,-1,-1,0
1523621359298,-1048576,91,-56,-1,-1,0
1523621359298,-1048576,91,-56,-1,-1,0
1523621359298,-983040,91,-56,-1,-1,0
1523621359298,-917504,91,-56,-1,-1,0
1523621359298,-851968,91,-56,-1,-1,0
1523621359338,-786432,91,-56,-1,-1,0
1523621359338,-786432,91,-56,-1,-1,0
1523621359338,-786432,91,-56,-1,-1,0
1523621359338,-786432,91,-56,-1,-1,0
1523621359338,-851968,91,-56,-1,-1,0
1523621359377,-917504,91,-56,-1,-1,0
1523621359377,-983040,91,-56,-1,-1,0
1523621359377,-983040,91,-56,-1,-1,0
1523621359377,-917504,91,-56,-1,-1,0
1523621359377,-917504,91,-56,-1,-1,0
1523621359419,-983040,91,-56,-1,-1,0
1523621359419,-983040,91,-56,-1,-1,0
1523621359419,-983040,91,-56,-1,-1,0
1523621359419,-1048576,91,-56,-1,-1,0
1523621359419,-1114112,91,-56,-1,-1,0
1523621359457,-1048576,91,-56,-1,-1,0
1523621359457,-917504,91,-56,-1,-1,0
1523621359457,-720896,91,-56,-1,-1,0
1523621359457,-589824,91,-56,-1,-1,0
1523621359457,-589824,91,-56,-1,-1,0
1523621359497,-655360,91,-56,-1,-1,0
1523621359497,-851968,91,-56,-1,-1,0
1523621359497,-917504,91,-56,-1,-1,0
1523621359497,-983040,91,-56,-1,-1,0
1523621359497,-983040,91,-56,-1,-1,0
1523621359537,-983040,92,-56,-1,-1,0
1523621359537,-983040,92,-56,-1,-1,0
1523621359537,-983040,92,-56,-1,-1,0
1523621359537,-983040,92,-56,-1,-1,0
1523621359537,-983040,92,-56,-1,-1,0
1523621359577,-983040,92,-56,-1,-1,0
1523621359577,-1048576,92,-56,-1,-1,0
1523621359577,-655360,92,-56,-1,-1,0
1523621359577,786432,92,-56,-1,-1,0
1523621359577,3473408,92,-56,-1,-1,0
1523621359617,7012352,92,-56,-1,-1,0
1523621359617,9699328,92,-56,-1,-1,0
1523621359617,8257536,92,-56,-1,-1,0
1523621359617,3735552,92,-56,-1,-1,0
1523621359617,589824,92,-56,-1,-1,0
1523621359657,0,92,-56,-1,-1,0
1523621359657,-65536,92,-56,-1,-1,0
1523621359657,-327680,92,-56,-1,-1,0
1523621359657,-393216,92,-56,-1,-1,0
1523621359657,-458752,92,-56,-1,-1,0
1523621359697,-458752,92,-56,-1,-1,0
1523621359697,-393216,92,-56,-1,-1,0
1523621359697,-262144,92,-56,-1,-1,0
1523621359697,-196608,92,-56,-1,-1,0
1523621359697,-262144,92,-56,-1,-1,0
1523621359737,-196608,92,-56,-1,-1,0
1523621359737,0,92,-56,-1,-1,0
1523621359737,131072,92,-56,-1,-1,0
1523621359737,327680,92,-56,-1,-1,0
1523621359737,458752,92,-56,-1,-1,0
1523621359777,655360,92,-56,-1,-1,0
1523621359777,917504,92,-56,-1,-1,0
1523621359777,1179648,92,-56,-1,-1,0
1523621359777,1507328,92,-56,-1,-1,0
1523621359777,1769472,92,-56,-1,-1,0
1523621359817,1966080,92,-56,-1,-1,0
1523621359817,2031616,92,-56,-1,-1,0
1523621359817,2031616,92,-56,-1,-1,0
1523621359817,1966080,92,-56,-1,-1,0
1523621359817,1769472,92,-56,-1,-1,0
1523621359857,1441792,92,-56,-1,-1,0
1523621359857,1048576,92,-56,-1,-1,0
1523621359857,589824,92,-56,-1,-1,0
1523621359857,131072,92,-56,-1,-1,0
1523621359857,-196608,92,-56,-1,-1,0
1523621359897,-458752,92,-56,-1,-1,0
1523621359897,-589824,92,-56,-1,-1,0
1523621359897,-655360,92,-56,-1,-1,0
1523621359897,-720896,92,-56,-1,-1,0
1523621359897,-786432,92,-56,-1,-1,0
1523621359937,-786432,92,-56,-1,-1,0
1523621359937,-851968,92,-56,-1,-1,0
1523621359937,-851968,92,-56,-1,-1,0
1523621359937,-786432,92,-56,-1,-1,0
1523621359937,-720896,92,-56,-1,-1,0
1523621359977,-655360,92,-56,-1,-1,0
1523621359977,-655360,92,-56,-1,-1,0
1523621359977,-655360,92,-56,-1,-1,0
1523621359977,-655360,92,-56,-1,-1,0
1523621359977,-589824,92,-56,-1,-1,0
1523621360017,-589824,92,-56,-1,-1,0
1523621360017,-589824,92,-56,-1,-1,0
1523621360017,-655360,92,-56,-1,-1,0
1523621360017,-655360,92,-56,-1,-1,0
1523621360017,-655360,92,-56,-1,-1,0
1523621360059,-720896,92,-56,-1,-1,0
1523621360059,-720896,92,-56,-1,-1,0
1523621360059,-720896,92,-56,-1,-1,0
1523621360059,-720896,92,-56,-1,-1,0
1523621360059,-786432,92,-56,-1,-1,0
1523621360097,-851968,92,-56,-1,-1,0
1523621360097,-917504,92,-56,-1,-1,0
1523621360097,-851968,92,-56,-1,-1,0
1523621360097,-720896,92,-56,-1,-1,0
1523621360097,-589824,92,-56,-1,-1,0
1523621360137,-458752,92,-56,-1,-1,0
1523621360137,-458752,92,-56,-1,-1,0
1523621360137,-524288,92,-56,-1,-1,0
1523621360137,-655360,92,-56,-1,-1,0
1523621360137,-786432,92,-56,-1,-1,0
1523621360179,-851968,92,-56,-1,-1,0
1523621360179,-851968,92,-56,-1,-1,0
1523621360179,-851968,92,-56,-1,-1,0
1523621360179,-851968,92,-56,-1,-1,0
1523621360179,-851968,92,-56,-1,-1,0
1523621360217,-983040,92,-56,-1,-1,0
1523621360217,-983040,92,-56,-1,-1,0
1523621360217,-917504,92,-56,-1,-1,0
1523621360217,-851968,92,-56,-1,-1,0
1523621360217,-524288,92,-56,-1,-1,0
1523621360257,720896,92,-56,-1,-1,0
1523621360257,3276800,92,-56,-1,-1,0
1523621360257,6881280,92,-56,-1,-1,0
1523621360257,9830400,92,-56,-1,-1,0
1523621360257,8519680,92,-56,-1,-1,0
1523621360297,3932160,92,-56,-1,-1,0
1523621360297,655360,92,-56,-1,-1,0
1523621360297,131072,92,-56,-1,-1,0
1523621360297,0,92,-56,-1,-1,0
1523621360297,-327680,92,-56,-1,-1,0
1523621360337,-393216,92,-56,-1,-1,0
1523621360337,-458752,92,-56,-1,-1,0
1523621360337,-393216,92,-56,-1,-1,0
1523621360337,-393216,92,-56,-1,-1,0
1523621360337,-327680,92,-56,-1,-1,0
1523621360377,-327680,92,-56,-1,-1,0
1523621360377,-262144,92,-56,-1,-1,0
1523621360377,-131072,92,-56,-1,-1,0
1523621360377,0,92,-56,-1,-1,0
1523621360377,65536,92,-56,-1,-1,0
1523621360417,262144,92,-56,-1,-1,0
1523621360417,458752,92,-56,-1,-1,0
1523621360417,655360,92,-56,-1,-1,0
1523621360417,917504,92,-56,-1,-1,0
1523621360417,1179648,92,-56,-1,-1,0
1523621360457,1507328,92,-56,-1,-1,0
1523621360457,1835008,92,-56,-1,-1,0
1523621360457,2031616,92,-56,-1,-1,0
1523621360457,2097152,92,-56,-1,-1,0
1523621360457,2097152,92,-56,-1,-1,0
1523621360497,1966080,92,-56,-1,-1,0
1523621360497,1769472,92,-56,-1,-1,0
1523621360497,1310720,92,-56,-1,-1,0
1523621360497,851968,92,-56,-1,-1,0
1523621360497,393216,92,-56,-1,-1,0
1523621360537,0,92,-56,-1,-1,0
1523621360537,-327680,92,-56,-1,-1,0
1523621360537,-524288,92,-56,-1,-1,0
1523621360537,-720896,92,-56,-1,-1,0
1523621360537,-851968,92,-56,-1,-1,0
1523621360577,-917504,92,-56,-1,-1,0
1523621360577,-983040,92,-56,-1,-1,0
1523621360577,-983040,92,-56,-1,-1,0
1523621360577,-917504,92,-56,-1,-1,0
1523621360577,-917504,92,-56,-1,-1,0
1523621360617,-917504,92,-56,-1,-1,0
1523621360617,-917504,92,-56,-1,-1,0
1523621360617,-851968,92,-56,-1,-1,0
1523621360617,-851968,92,-56,-1,-1,0
1523621360617,-786432,92,-56,-1,-1,0
1523621360657,-786432,92,-56,-1,-1,0
1523621360657,-851968,92,-56,-1,-1,0
1523621360657,-917504,92,-56,-1,-1,0
1523621360657,-851968,92,-56,-1,-1,0
1523621360657,-851968,92,-56,-1,-1,0
1523621360699,-851968,92,-56,-1,-1,0
1523621360699,-851968,92,-56,-1,-1,0
1523621360699,-917504,92,-56,-1,-1,0
1523621360699,-917504,92,-56,-1,-1,0
1523621360699,-983040,92,-56,-1,-1,0
1523621360737,-1048576,92,-56,-1,-1,0
1523621360737,-1048576,92,-56,-1,-1,0
1523621360737,-1114112,92,-56,-1,-1,0
1523621360737,-1179648,92,-56,-1,-1,0
1523621360737,-1048576,92,-56,-1,-1,0
1523621360777,-851968,92,-56,-1,-1,0
1523621360777,-655360,92,-56,-1,-1,0
1523621360777,-655360,92,-56,-1,-1,0
1523621360777,-655360,92,-56,-1,-1,0
1523621360777,-720896,92,-56,-1,-1,0
1523621360817,-851968,92,-56,-1,-1,0
1523621360817,-983040,92,-56,-1,-1,0
1523621360817,-1048576,92,-56,-1,-1,0
1523621360817,-1048576,92,-56,-1,-1,0
1523621360817,-1114112,92,-56,-1,-1,0
1523621360857,-1114112,92,-56,-1,-1,0
1523621360857,-1114112,92,-56,-1,-1,0
1523621360857,-1048576,92,-56,-1,-1,0
1523621360857,-983040,92,-56,-1,-1,0
1523621360857,-1048576,92,-56,-1,-1,0
1523621360897,-1114112,92,-56,-1,-1,0
1523621360897,-589824,92,-56,-1,-1,0
1523621360897,917504,92,-56,-1,-1,0
1523621360897,3604480,92,-56,-1,-1,0
1523621360897,7340032,92,-56,-1,-1,0
1523621360937,9568256,92,-56,-1,-1,0
1523621360937,7274496,92,-56,-1,-1,0
1523621360937,2818048,92,-56,-1,-1,0
1523621360937,458752,92,-56,-1,-1,0
1523621360937,65536,92,-56,-1,-1,0
1523621360977,-131072,92,-56,-1,-1,0
1523621360977,-393216,92,-56,-1,-1,0
1523621360977,-458752,92,-56,-1,-1,0
1523621360977,-458752,92,-56,-1,-1,0
1523621360977,-393216,92,-56,-1,-1,0
1523621361017,-393216,92,-56,-1,-1,0
1523621361017,-327680,92,-56,-1,-1,0
1523621361017,-196608,92,-56,-1,-1,0
