milliseconds, ECG, ECG HR, PPG, PPG HR, SpO2, PI
1523613129043,1507328,-80,-56,-1,-1,0
1523613129043,1572864,-80,-56,-1,-1,0
1523613129043,1638400,-80,-56,-1,-1,0
1523613129043,1769472,-80,-56,-1,-1,0
1523613129043,1900544,-80,-56,-1,-1,0
1523613129097,1966080,-80,-56,-1,-1,0
1523613129097,2097152,-80,-56,-1,-1,0
1523613129097,2228224,-80,-56,-1,-1,0
1523613129097,2162688,-80,-56,-1,-1,0
1523613129097,2228224,-80,-56,-1,-1,0
1523613129118,2293760,-80,-56,-1,-1,0
1523613129118,2228224,-80,-56,-1,-1,0
1523613129118,2097152,-80,-56,-1,-1,0
1523613129118,1966080,-80,-56,-1,-1,0
1523613129118,1835008,-80,-56,-1,-1,0
1523613129158,1703936,-80,-56,-1,-1,0
1523613129158,1507328,-80,-56,-1,-1,0
1523613129158,1310720,-80,-56,-1,-1,0
1523613129158,1048576,-80,-56,-1,-1,0
1523613129158,851968,-80,-56,-1,-1,0
1523613129198,655360,-80,-56,-1,-1,0
1523613129198,720896,-80,-56,-1,-1,0
1523613129198,786432,-80,-56,-1,-1,0
1523613129198,851968,-80,-56,-1,-1,0
1523613129198,851968,-80,-56,-1,-1,0
1523613129238,983040,-80,-56,-1,-1,0
1523613129238,1114112,-80,-56,-1,-1,0
1523613129238,1114112,-80,-56,-1,-1,0
1523613129238,917504,-80,-56,-1,-1,0
1523613129238,720896,-80,-56,-1,-1,0
1523613129278,655360,-80,-56,-1,-1,0
1523613129278,589824,-80,-56,-1,-1,0
1523613129278,524288,-80,-56,-1,-1,0
1523613129278,393216,-80,-56,-1,-1,0
1523613129278,-327680,-80,-56,-1,-1,0
1523613129318,-917504,-80,-56,-1,-1,0
1523613129318,65536,-80,-56,-1,-1,0
1523613129318,3145728,-80,-56,-1,-1,0
1523613129318,5242880,-80,-56,-1,-1,0
1523613129318,3538944,-80,-56,-1,-1,0
1523613129358,327680,-80,-56,-1,-1,0
1523613129358,-1310720,-80,-56,-1,-1,0
1523613129358,-1441792,-80,-56,-1,-1,0
1523613129358,-1114112,-80,-56,-1,-1,0
1523613129358,-786432,-80,-56,-1,-1,0
1523613129398,-589824,-80,-56,-1,-1,0
1523613129398,-589824,-80,-56,-1,-1,0
1523613129398,-589824,-80,-56,-1,-1,0
1523613129398,-655360,-80,-56,-1,-1,0
1523613129398,-589824,-80,-56,-1,-1,0
1523613129438,-458752,-80,-56,-1,-1,0
1523613129438,-327680,-80,-56,-1,-1,0
1523613129438,-327680,-80,-56,-1,-1,0
1523613129438,-327680,-80,-56,-1,-1,0
1523613129438,-262144,-80,-56,-1,-1,0
1523613129478,-131072,-80,-56,-1,-1,0
1523613129478,-196608,-80,-56,-1,-1,0
1523613129478,-393216,-80,-56,-1,-1,0
1523613129478,-524288,-80,-56,-1,-1,0
1523613129478,-458752,-80,-56,-1,-1,0
1523613129518,-524288,-80,-56,-1,-1,0
1523613129518,-851968,-80,-56,-1,-1,0
1523613129518,-1179648,-80,-56,-1,-1,0
1523613129518,-1441792,-80,-56,-1,-1,0
1523613129518,-1507328,-80,-56,-1,-1,0
1523613129558,-1441792,-80,-56,-1,-1,0
1523613129558,-1441792,-80,-56,-1,-1,0
1523613129558,-1572864,-80,-56,-1,-1,0
1523613129558,-1572864,-80,-56,-1,-1,0
1523613129558,-1507328,-80,-56,-1,-1,0
1523613129598,-1441792,-80,-56,-1,-1,0
1523613129598,-1441792,-80,-56,-1,-1,0
1523613129598,-1572864,-80,-56,-1,-1,0
1523613129598,-1703936,-80,-56,-1,-1,0
1523613129598,-1703936,-80,-56,-1,-1,0
1523613129638,-1769472,-80,-56,-1,-1,0
1523613129638,-1769472,-80,-56,-1,-1,0
1523613129638,-1966080,-80,-56,-1,-1,0
1523613129638,-2555904,-80,-56,-1,-1,0
1523613129638,-3276800,-80,-56,-1,-1,0
1523613129679,-2883584,-80,-56,-1,-1,0
1523613129679,-393216,-80,-56,-1,-1,0
1523613129679,2228224,-80,-56,-1,-1,0
1523613129679,1966080,-80,-56,-1,-1,0
1523613129679,-851968,-80,-56,-1,-1,0
1523613129728,-3342336,-80,-56,-1,-1,0
1523613129728,-3932160,-80,-56,-1,-1,0
1523613129728,-3538944,-80,-56,-1,-1,0
1523613129728,-3014656,-80,-56,-1,-1,0
1523613129728,-2621440,-80,-56,-1,-1,0
1523613129758,-2424832,-80,-56,-1,-1,0
1523613129758,-2359296,-80,-56,-1,-1,0
1523613129758,-2490368,-80,-56,-1,-1,0
1523613129758,-2359296,-80,-56,-1,-1,0
1523613129758,-2097152,-80,-56,-1,-1,0
1523613129798,-1900544,-80,-56,-1,-1,0
1523613129798,-1769472,-80,-56,-1,-1,0
1523613129798,-1572864,-80,-56,-1,-1,0
1523613129798,-1376256,-80,-56,-1,-1,0
1523613129798,-1245184,-80,-56,-1,-1,0
1523613129838,-1245184,-80,-56,-1,-1,0
1523613129838,-1245184,-80,-56,-1,-1,0
1523613129838,-1114112,-80,-56,-1,-1,0
1523613129838,-1179648,-80,-56,-1,-1,0
1523613129838,-1179648,-80,-56,-1,-1,0
1523613129878,-1245184,-80,-56,-1,-1,0
1523613129878,-1376256,-80,-56,-1,-1,0
1523613129878,-1572864,-80,-56,-1,-1,0
1523613129878,-1638400,-80,-56,-1,-1,0
1523613129878,-1638400,-80,-56,-1,-1,0
1523613129918,-1638400,-80,-56,-1,-1,0
1523613129918,-1638400,-80,-56,-1,-1,0
1523613129918,-1638400,-80,-56,-1,-1,0
1523613129918,-1441792,-80,-56,-1,-1,0
1523613129918,-1310720,-80,-56,-1,-1,0
1523613129958,-1376256,-80,-56,-1,-1,0
1523613129958,-1441792,-80,-56,-1,-1,0
1523613129958,-1376256,-80,-56,-1,-1,0
1523613129958,-1376256,-80,-56,-1,-1,0
1523613129958,-1507328,-80,-56,-1,-1,0
1523613129998,-1507328,-80,-56,-1,-1,0
1523613129998,-1507328,-80,-56,-1,-1,0
1523613129998,-1835008,-80,-56,-1,-1,0
1523613129998,-2490368,-80,-56,-1,-1,0
1523613129998,-2293760,-80,-56,-1,-1,0
1523613130038,-131072,-82,-56,-1,-1,0
1523613130038,2424832,-82,-56,-1,-1,0
1523613130038,2228224,-82,-56,-1,-1,0
1523613130038,-655360,-82,-56,-1,-1,0
1523613130038,-3145728,-82,-56,-1,-1,0
1523613130078,-3407872,-82,-56,-1,-1,0
1523613130078,-2752512,-82,-56,-1,-1,0
1523613130078,-2097152,-82,-56,-1,-1,0
1523613130078,-1703936,-82,-56,-1,-1,0
1523613130078,-1507328,-82,-56,-1,-1,0
1523613130118,-1376256,-82,-56,-1,-1,0
1523613130118,-1245184,-82,-56,-1,-1,0
1523613130118,-1179648,-82,-56,-1,-1,0
1523613130118,-1114112,-82,-56,-1,-1,0
1523613130118,-983040,-82,-56,-1,-1,0
1523613130158,-720896,-82,-56,-1,-1,0
1523613130158,-458752,-82,-56,-1,-1,0
1523613130158,-196608,-82,-56,-1,-1,0
1523613130158,-131072,-82,-56,-1,-1,0
1523613130158,-65536,-82,-56,-1,-1,0
1523613130198,-65536,-82,-56,-1,-1,0
1523613130198,0,-82,-56,-1,-1,0
1523613130198,0,-82,-56,-1,-1,0
1523613130198,0,-82,-56,-1,-1,0
1523613130198,-262144,-82,-56,-1,-1,0
1523613130238,-655360,-82,-56,-1,-1,0
1523613130238,-917504,-82,-56,-1,-1,0
1523613130238,-917504,-82,-56,-1,-1,0
1523613130238,-917504,-82,-56,-1,-1,0
1523613130238,-917504,-82,-56,-1,-1,0
1523613130279,-851968,-82,-56,-1,-1,0
1523613130279,-786432,-82,-56,-1,-1,0
1523613130279,-655360,-82,-56,-1,-1,0
1523613130279,-655360,-82,-56,-1,-1,0
1523613130279,-720896,-82,-56,-1,-1,0
1523613130318,-786432,-82,-56,-1,-1,0
1523613130318,-655360,-82,-56,-1,-1,0
1523613130318,-655360,-82,-56,-1,-1,0
1523613130318,-786432,-82,-56,-1,-1,0
1523613130318,-851968,-82,-56,-1,-1,0
1523613130367,-917504,-82,-56,-1,-1,0
1523613130367,-1179648,-82,-56,-1,-1,0
1523613130367,-1835008,-82,-56,-1,-1,0
1523613130367,-1900544,-82,-56,-1,-1,0
1523613130367,0,-82,-56,-1,-1,0
1523613130398,2752512,-82,-56,-1,-1,0
1523613130398,2949120,-82,-56,-1,-1,0
1523613130398,131072,-82,-56,-1,-1,0
1523613130398,-2424832,-82,-56,-1,-1,0
1523613130398,-2818048,-82,-56,-1,-1,0
1523613130438,-2228224,-82,-56,-1,-1,0
1523613130438,-1572864,-82,-56,-1,-1,0
1523613130438,-1114112,-82,-56,-1,-1,0
1523613130438,-851968,-82,-56,-1,-1,0
1523613130438,-720896,-82,-56,-1,-1,0
1523613130478,-589824,-82,-56,-1,-1,0
1523613130478,-458752,-82,-56,-1,-1,0
1523613130478,-393216,-82,-56,-1,-1,0
1523613130478,-262144,-82,-56,-1,-1,0
1523613130478,-131072,-82,-56,-1,-1,0
1523613130518,0,-82,-56,-1,-1,0
1523613130518,65536,-82,-56,-1,-1,0
1523613130518,196608,-82,-56,-1,-1,0
1523613130518,327680,-82,-56,-1,-1,0
1523613130518,327680,-82,-56,-1,-1,0
1523613130558,327680,-82,-56,-1,-1,0
1523613130558,327680,-82,-56,-1,-1,0
1523613130558,262144,-82,-56,-1,-1,0
1523613130558,65536,-82,-56,-1,-1,0
1523613130558,-131072,-82,-56,-1,-1,0
1523613130598,-393216,-82,-56,-1,-1,0
1523613130598,-458752,-82,-56,-1,-1,0
1523613130598,-524288,-82,-56,-1,-1,0
1523613130598,-524288,-82,-56,-1,-1,0
1523613130598,-524288,-82,-56,-1,-1,0
1523613130638,-393216,-82,-56,-1,-1,0
1523613130638,-262144,-82,-56,-1,-1,0
1523613130638,-262144,-82,-56,-1,-1,0
1523613130638,-262144,-82,-56,-1,-1,0
1523613130638,-262144,-82,-56,-1,-1,0
1523613130678,-327680,-82,-56,-1,-1,0
1523613130678,-393216,-82,-56,-1,-1,0
1523613130678,-327680,-82,-56,-1,-1,0
1523613130678,-327680,-82,-56,-1,-1,0
1523613130678,-393216,-82,-56,-1,-1,0
1523613130718,-655360,-82,-56,-1,-1,0
1523613130718,-1376256,-82,-56,-1,-1,0
1523613130718,-1638400,-82,-56,-1,-1,0
1523613130718,0,-82,-56,-1,-1,0
1523613130718,2883584,-82,-56,-1,-1,0
1523613130758,3473408,-82,-56,-1,-1,0
1523613130758,917504,-82,-56,-1,-1,0
1523613130758,-1638400,-82,-56,-1,-1,0
1523613130758,-2228224,-82,-56,-1,-1,0
1523613130758,-1769472,-82,-56,-1,-1,0
1523613130798,-1245184,-82,-56,-1,-1,0
1523613130798,-720896,-82,-56,-1,-1,0
1523613130798,-524288,-82,-56,-1,-1,0
1523613130798,-393216,-82,-56,-1,-1,0
1523613130798,-262144,-82,-56,-1,-1,0
1523613130838,-65536,-82,-56,-1,-1,0
1523613130838,0,-82,-56,-1,-1,0
1523613130838,65536,-82,-56,-1,-1,0
1523613130838,262144,-82,-56,-1,-1,0
1523613130838,458752,-82,-56,-1,-1,0
1523613130878,655360,-82,-56,-1,-1,0
1523613130878,786432,-82,-56,-1,-1,0
1523613130878,851968,-82,-56,-1,-1,0
1523613130878,917504,-82,-56,-1,-1,0
1523613130878,983040,-82,-56,-1,-1,0
1523613130918,917504,-82,-56,-1,-1,0
1523613130918,786432,-82,-56,-1,-1,0
1523613130918,589824,-82,-56,-1,-1,0
1523613130918,327680,-82,-56,-1,-1,0
1523613130918,65536,-82,-56,-1,-1,0
1523613130958,0,-82,-56,-1,-1,0
1523613130958,-65536,-82,-56,-1,-1,0
1523613130958,-131072,-82,-56,-1,-1,0
1523613130958,-65536,-82,-56,-1,-1,0
1523613130958,0,-82,-56,-1,-1,0
1523613131007,0,-82,-56,-1,-1,0
1523613131007,65536,-82,-56,-1,-1,0
1523613131007,65536,-82,-56,-1,-1,0
1523613131007,65536,-82,-56,-1,-1,0
1523613131007,0,-82,-56,-1,-1,0
1523613131038,-65536,-82,-56,-1,-1,0
1523613131038,-65536,-82,-56,-1,-1,0
1523613131038,-65536,-82,-56,-1,-1,0
1523613131038,0,-82,-56,-1,-1,0
1523613131038,-196608,-82,-56,-1,-1,0
1523613131078,-917504,-82,-56,-1,-1,0
1523613131078,-1507328,-82,-56,-1,-1,0
1523613131078,-262144,-82,-56,-1,-1,0
1523613131078,2359296,-82,-56,-1,-1,0
1523613131078,3670016,-82,-56,-1,-1,0
1523613131118,1900544,-82,-56,-1,-1,0
1523613131118,-720896,-82,-56,-1,-1,0
1523613131118,-1966080,-82,-56,-1,-1,0
1523613131118,-1769472,-82,-56,-1,-1,0
1523613131118,-1310720,-82,-56,-1,-1,0
1523613131158,-917504,-82,-56,-1,-1,0
1523613131158,-720896,-82,-56,-1,-1,0
1523613131158,-655360,-82,-56,-1,-1,0
1523613131158,-589824,-82,-56,-1,-1,0
1523613131158,-524288,-82,-56,-1,-1,0
1523613131198,-393216,-82,-56,-1,-1,0
1523613131198,-262144,-82,-56,-1,-1,0
1523613131198,-196608,-82,-56,-1,-1,0
1523613131198,-65536,-82,-56,-1,-1,0
1523613131198,65536,-82,-56,-1,-1,0
1523613131238,196608,-82,-56,-1,-1,0
1523613131238,327680,-82,-56,-1,-1,0
1523613131238,393216,-82,-56,-1,-1,0
1523613131238,327680,-82,-56,-1,-1,0
1523613131238,327680,-82,-56,-1,-1,0
1523613131278,262144,-82,-56,-1,-1,0
1523613131278,65536,-82,-56,-1,-1,0
1523613131278,-131072,-82,-56,-1,-1,0
1523613131278,-262144,-82,-56,-1,-1,0
1523613131278,-458752,-82,-56,-1,-1,0
1523613131318,-589824,-82,-56,-1,-1,0
1523613131318,-655360,-82,-56,-1,-1,0
1523613131318,-589824,-82,-56,-1,-1,0
1523613131318,-458752,-82,-56,-1,-1,0
1523613131318,-327680,-82,-56,-1,-1,0
1523613131358,-327680,-82,-56,-1,-1,0
1523613131358,-393216,-82,-56,-1,-1,0
1523613131358,-327680,-82,-56,-1,-1,0
1523613131358,-262144,-82,-56,-1,-1,0
1523613131358,-262144,-82,-56,-1,-1,0
1523613131398,-393216,-82,-56,-1,-1,0
1523613131398,-393216,-82,-56,-1,-1,0
1523613131398,-458752,-82,-56,-1,-1,0
1523613131398,-655360,-82,-56,-1,-1,0
1523613131398,-1310720,-82,-56,-1,-1,0
1523613131438,-1703936,-84,-56,-1,-1,0
1523613131438,-196608,-84,-56,-1,-1,0
1523613131438,2686976,-84,-56,-1,-1,0
1523613131438,3735552,-84,-56,-1,-1,0
1523613131438,1376256,-84,-56,-1,-1,0
1523613131478,-1507328,-84,-56,-1,-1,0
1523613131478,-2490368,-84,-56,-1,-1,0
1523613131478,-2162688,-84,-56,-1,-1,0
1523613131478,-1507328,-84,-56,-1,-1,0
1523613131478,-851968,-84,-56,-1,-1,0
1523613131518,-524288,-84,-56,-1,-1,0
1523613131518,-524288,-84,-56,-1,-1,0
1523613131518,-458752,-84,-56,-1,-1,0
1523613131518,-262144,-84,-56,-1,-1,0
1523613131518,-65536,-84,-56,-1,-1,0
1523613131558,65536,-84,-56,-1,-1,0
1523613131558,262144,-84,-56,-1,-1,0
1523613131558,393216,-84,-56,-1,-1,0
1523613131558,589824,-84,-56,-1,-1,0
1523613131558,786432,-84,-56,-1,-1,0
1523613131598,917504,-84,-56,-1,-1,0
1523613131598,1048576,-84,-56,-1,-1,0
1523613131598,1048576,-84,-56,-1,-1,0
1523613131598,983040,-84,-56,-1,-1,0
1523613131598,917504,-84,-56,-1,-1,0
1523613131647,655360,-84,-56,-1,-1,0
1523613131647,393216,-84,-56,-1,-1,0
1523613131647,196608,-84,-56,-1,-1,0
1523613131647,0,-84,-56,-1,-1,0
1523613131647,-65536,-84,-56,-1,-1,0
1523613131678,-131072,-84,-56,-1,-1,0
1523613131678,0,-84,-56,-1,-1,0
1523613131678,131072,-84,-56,-1,-1,0
1523613131678,131072,-84,-56,-1,-1,0
1523613131678,196608,-84,-56,-1,-1,0
1523613131718,196608,-84,-56,-1,-1,0
1523613131718,65536,-84,-56,-1,-1,0
1523613131718,0,-84,-56,-1,-1,0
1523613131718,-65536,-84,-56,-1,-1,0
1523613131718,-65536,-84,-56,-1,-1,0
1523613131758,0,-84,-56,-1,-1,0
1523613131758,0,-84,-56,-1,-1,0
1523613131758,-196608,-84,-56,-1,-1,0
1523613131758,-917504,-84,-56,-1,-1,0
1523613131758,-1179648,-84,-56,-1,-1,0
1523613131798,327680,-84,-56,-1,-1,0
1523613131798,3080192,-84,-56,-1,-1,0
1523613131798,3932160,-84,-56,-1,-1,0
1523613131798,1441792,-84,-56,-1,-1,0
1523613131798,-1376256,-84,-56,-1,-1,0
1523613131840,-2293760,-84,-56,-1,-1,0
1523613131840,-1835008,-84,-56,-1,-1,0
1523613131840,-1179648,-84,-56,-1,-1,0
1523613131840,-524288,-84,-56,-1,-1,0
1523613131840,-131072,-84,-56,-1,-1,0
1523613131878,0,-84,-56,-1,-1,0
1523613131878,0,-84,-56,-1,-1,0
1523613131878,65536,-84,-56,-1,-1,0
1523613131878,196608,-84,-56,-1,-1,0
1523613131878,262144,-84,-56,-1,-1,0
1523613131918,458752,-84,-56,-1,-1,0
1523613131918,655360,-84,-56,-1,-1,0
1523613131918,851968,-84,-56,-1,-1,0
1523613131918,983040,-84,-56,-1,-1,0
1523613131918,1048576,-84,-56,-1,-1,0
1523613131959,1048576,-84,-56,-1,-1,0
1523613131959,1048576,-84,-56,-1,-1,0
1523613131959,1048576,-84,-56,-1,-1,0
1523613131959,1048576,-84,-56,-1,-1,0
1523613131959,851968,-84,-56,-1,-1,0
1523613131998,458752,-84,-56,-1,-1,0
1523613131998,196608,-84,-56,-1,-1,0
1523613131998,0,-84,-56,-1,-1,0
1523613131998,0,-84,-56,-1,-1,0
1523613131998,0,-84,-56,-1,-1,0
1523613132039,65536,-84,-56,-1,-1,0
1523613132039,262144,-84,-56,-1,-1,0
1523613132039,393216,-84,-56,-1,-1,0
1523613132039,524288,-84,-56,-1,-1,0
1523613132039,524288,-84,-56,-1,-1,0
1523613132078,393216,-84,-56,-1,-1,0
1523613132078,262144,-84,-56,-1,-1,0
1523613132078,131072,-84,-56,-1,-1,0
1523613132078,131072,-84,-56,-1,-1,0
1523613132078,131072,-84,-56,-1,-1,0
1523613132118,65536,-84,-56,-1,-1,0
1523613132118,-65536,-84,-56,-1,-1,0
1523613132118,-786432,-84,-56,-1,-1,0
1523613132118,-1310720,-84,-56,-1,-1,0
1523613132118,-131072,-84,-56,-1,-1,0
1523613132158,2752512,-84,-56,-1,-1,0
1523613132158,4456448,-84,-56,-1,-1,0
1523613132158,2555904,-84,-56,-1,-1,0
1523613132158,-589824,-84,-56,-1,-1,0
1523613132158,-2031616,-84,-56,-1,-1,0
1523613132198,-1769472,-84,-56,-1,-1,0
1523613132198,-1179648,-84,-56,-1,-1,0
1523613132198,-589824,-84,-56,-1,-1,0
1523613132198,-262144,-84,-56,-1,-1,0
1523613132198,-131072,-84,-56,-1,-1,0
1523613132238,0,-84,-56,-1,-1,0
1523613132238,0,-84,-56,-1,-1,0
1523613132238,196608,-84,-56,-1,-1,0
1523613132238,327680,-84,-56,-1,-1,0
1523613132238,524288,-84,-56,-1,-1,0
1523613132287,655360,-84,-56,-1,-1,0
1523613132287,917504,-84,-56,-1,-1,0
1523613132287,1048576,-84,-56,-1,-1,0
1523613132287,1114112,-84,-56,-1,-1,0
1523613132287,1114112,-84,-56,-1,-1,0
1523613132318,1114112,-84,-56,-1,-1,0
1523613132318,1048576,-84,-56,-1,-1,0
1523613132318,983040,-84,-56,-1,-1,0
1523613132318,720896,-84,-56,-1,-1,0
1523613132318,393216,-84,-56,-1,-1,0
1523613132358,131072,-84,-56,-1,-1,0
1523613132358,0,-84,-56,-1,-1,0
1523613132358,-196608,-84,-56,-1,-1,0
1523613132358,-262144,-84,-56,-1,-1,0
1523613132358,-196608,-84,-56,-1,-1,0
1523613132398,-65536,-84,-56,-1,-1,0
1523613132398,0,-84,-56,-1,-1,0
1523613132398,0,-84,-56,-1,-1,0
1523613132398,0,-84,-56,-1,-1,0
1523613132398,-65536,-84,-56,-1,-1,0
1523613132438,-131072,-84,-56,-1,-1,0
1523613132438,-262144,-84,-56,-1,-1,0
1523613132438,-327680,-84,-56,-1,-1,0
1523613132438,-458752,-84,-56,-1,-1,0
1523613132438,-458752,-84,-56,-1,-1,0
1523613132478,-589824,-84,-56,-1,-1,0
1523613132478,-1310720,-84,-56,-1,-1,0
1523613132478,-1835008,-84,-56,-1,-1,0
1523613132478,-786432,-84,-56,-1,-1,0
1523613132478,1966080,-84,-56,-1,-1,0
1523613132518,3670016,-84,-56,-1,-1,0
1523613132518,2031616,-84,-56,-1,-1,0
1523613132518,-851968,-84,-56,-1,-1,0
1523613132518,-2359296,-84,-56,-1,-1,0
1523613132518,-2228224,-84,-56,-1,-1,0
1523613132558,-1703936,-84,-56,-1,-1,0
1523613132558,-1245184,-84,-56,-1,-1,0
1523613132558,-1048576,-84,-56,-1,-1,0
1523613132558,-983040,-84,-56,-1,-1,0
1523613132558,-851968,-84,-56,-1,-1,0
1523613132598,-786432,-84,-56,-1,-1,0
1523613132598,-589824,-84,-56,-1,-1,0
1523613132598,-458752,-84,-56,-1,-1,0
1523613132598,-262144,-84,-56,-1,-1,0
1523613132598,-131072,-84,-56,-1,-1,0
1523613132638,65536,-84,-56,-1,-1,0
1523613132638,196608,-84,-56,-1,-1,0
1523613132638,327680,-84,-56,-1,-1,0
1523613132638,327680,-84,-56,-1,-1,0
1523613132638,327680,-84,-56,-1,-1,0
1523613132678,393216,-84,-56,-1,-1,0
1523613132678,393216,-84,-56,-1,-1,0
1523613132678,327680,-84,-56,-1,-1,0
1523613132678,131072,-84,-56,-1,-1,0
1523613132678,0,-84,-56,-1,-1,0
1523613132718,-196608,-84,-56,-1,-1,0
1523613132718,-327680,-84,-56,-1,-1,0
1523613132718,-393216,-84,-56,-1,-1,0
1523613132718,-393216,-84,-56,-1,-1,0
1523613132718,-327680,-84,-56,-1,-1,0
1523613132758,-262144,-84,-56,-1,-1,0
1523613132758,-196608,-84,-56,-1,-1,0
1523613132758,-196608,-84,-56,-1,-1,0
1523613132758,-262144,-84,-56,-1,-1,0
1523613132758,-262144,-84,-56,-1,-1,0
1523613132798,-327680,-84,-56,-1,-1,0
1523613132798,-327680,-84,-56,-1,-1,0
1523613132798,-327680,-84,-56,-1,-1,0
1523613132798,-327680,-84,-56,-1,-1,0
1523613132798,-458752,-84,-56,-1,-1,0
1523613132838,-1048576,-84,-56,-1,-1,0
1523613132838,-1507328,-84,-56,-1,-1,0
1523613132838,-262144,-84,-56,-1,-1,0
1523613132838,2621440,-84,-56,-1,-1,0
1523613132838,4325376,-84,-56,-1,-1,0
1523613132878,2555904,-84,-56,-1,-1,0
1523613132878,-458752,-84,-56,-1,-1,0
1523613132878,-1835008,-84,-56,-1,-1,0
1523613132878,-1638400,-84,-56,-1,-1,0
1523613132878,-1048576,-84,-56,-1,-1,0
1523613132926,-458752,-84,-56,-1,-1,0
1523613132926,-131072,-84,-56,-1,-1,0
1523613132926,0,-84,-56,-1,-1,0
1523613132926,196608,-84,-56,-1,-1,0
1523613132926,327680,-84,-56,-1,-1,0
1523613132958,589824,-84,-56,-1,-1,0
1523613132958,786432,-84,-56,-1,-1,0
1523613132958,1048576,-84,-56,-1,-1,0
1523613132958,1310720,-84,-56,-1,-1,0
1523613132958,1507328,-84,-56,-1,-1,0
1523613132998,1703936,-84,-56,-1,-1,0
1523613132998,1835008,-84,-56,-1,-1,0
1523613132998,2031616,-84,-56,-1,-1,0
1523613132998,2031616,-84,-56,-1,-1,0
1523613132998,1835008,-84,-56,-1,-1,0
1523613133038,1769472,-84,-56,-1,-1,0
1523613133038,1638400,-84,-56,-1,-1,0
1523613133038,1507328,-84,-56,-1,-1,0
1523613133038,1376256,-84,-56,-1,-1,0
1523613133038,1179648,-84,-56,-1,-1,0
1523613133079,983040,-84,-56,-1,-1,0
1523613133079,917504,-84,-56,-1,-1,0
1523613133079,983040,-84,-56,-1,-1,0
1523613133079,1179648,-84,-56,-1,-1,0
1523613133079,1310720,-84,-56,-1,-1,0
1523613133118,1441792,-84,-56,-1,-1,0
1523613133118,1376256,-84,-56,-1,-1,0
1523613133118,1310720,-84,-56,-1,-1,0
1523613133118,1310720,-84,-56,-1,-1,0
1523613133118,1245184,-84,-56,-1,-1,0
1523613133158,1310720,-84,-56,-1,-1,0
1523613133158,1310720,-84,-56,-1,-1,0
1523613133158,1310720,-84,-56,-1,-1,0
1523613133158,1048576,-84,-56,-1,-1,0
1523613133158,393216,-84,-56,-1,-1,0
1523613133198,0,-86,-56,-1,-1,0
1523613133198,1441792,-86,-56,-1,-1,0
1523613133198,4390912,-86,-56,-1,-1,0
1523613133198,5505024,-86,-56,-1,-1,0
1523613133198,3145728,-86,-56,-1,-1,0
1523613133238,131072,-86,-56,-1,-1,0
1523613133238,-851968,-86,-56,-1,-1,0
1523613133238,-393216,-86,-56,-1,-1,0
1523613133238,196608,-86,-56,-1,-1,0
1523613133238,720896,-86,-56,-1,-1,0
1523613133278,1048576,-86,-56,-1,-1,0
1523613133278,1179648,-86,-56,-1,-1,0
1523613133278,1245184,-86,-56,-1,-1,0
1523613133278,1376256,-86,-56,-1,-1,0
1523613133278,1507328,-86,-56,-1,-1,0
1523613133320,1638400,-86,-56,-1,-1,0
1523613133320,1703936,-86,-56,-1,-1,0
1523613133320,1835008,-86,-56,-1,-1,0
1523613133320,1966080,-86,-56,-1,-1,0
1523613133320,2031616,-86,-56,-1,-1,0
1523613133358,2097152,-86,-56,-1,-1,0
1523613133358,2097152,-86,-56,-1,-1,0
1523613133358,2031616,-86,-56,-1,-1,0
1523613133358,1966080,-86,-56,-1,-1,0
1523613133358,1835008,-86,-56,-1,-1,0
1523613133398,1572864,-86,-56,-1,-1,0
1523613133398,1310720,-86,-56,-1,-1,0
1523613133398,983040,-86,-56,-1,-1,0
1523613133398,786432,-86,-56,-1,-1,0
1523613133398,655360,-86,-56,-1,-1,0
1523613133439,655360,-86,-56,-1,-1,0
1523613133439,655360,-86,-56,-1,-1,0
1523613133439,720896,-86,-56,-1,-1,0
1523613133439,786432,-86,-56,-1,-1,0
1523613133439,851968,-86,-56,-1,-1,0
1523613133478,720896,-86,-56,-1,-1,0
1523613133478,589824,-86,-56,-1,-1,0
1523613133478,524288,-86,-56,-1,-1,0
1523613133478,458752,-86,-56,-1,-1,0
1523613133478,393216,-86,-56,-1,-1,0
1523613133518,327680,-86,-56,-1,-1,0
1523613133518,262144,-86,-56,-1,-1,0
1523613133518,65536,-86,-56,-1,-1,0
1523613133518,-720896,-86,-56,-1,-1,0
1523613133518,-1114112,-86,-56,-1,-1,0
1523613133566,393216,-86,-56,-1,-1,0
1523613133566,3342336,-86,-56,-1,-1,0
1523613133566,4128768,-86,-56,-1,-1,0
1523613133566,1703936,-86,-56,-1,-1,0
1523613133566,-1048576,-86,-56,-1,-1,0
1523613133598,-1900544,-86,-56,-1,-1,0
1523613133598,-1507328,-86,-56,-1,-1,0
1523613133598,-917504,-86,-56,-1,-1,0
1523613133598,-458752,-86,-56,-1,-1,0
1523613133598,-262144,-86,-56,-1,-1,0
1523613133638,-196608,-86,-56,-1,-1,0
1523613133638,-65536,-86,-56,-1,-1,0
1523613133638,0,-86,-56,-1,-1,0
1523613133638,65536,-86,-56,-1,-1,0
1523613133638,131072,-86,-56,-1,-1,0
1523613133678,262144,-86,-56,-1,-1,0
1523613133678,393216,-86,-56,-1,-1,0
1523613133678,589824,-86,-56,-1,-1,0
1523613133678,720896,-86,-56,-1,-1,0
1523613133678,786432,-86,-56,-1,-1,0
1523613133718,786432,-86,-56,-1,-1,0
1523613133718,720896,-86,-56,-1,-1,0
1523613133718,589824,-86,-56,-1,-1,0
1523613133718,458752,-86,-56,-1,-1,0
1523613133718,196608,-86,-56,-1,-1,0
1523613133758,0,-86,-56,-1,-1,0
1523613133758,-262144,-86,-56,-1,-1,0
1523613133758,-393216,-86,-56,-1,-1,0
1523613133758,-524288,-86,-56,-1,-1,0
1523613133758,-589824,-86,-56,-1,-1,0
1523613133798,-524288,-86,-56,-1,-1,0
1523613133798,-393216,-86,-56,-1,-1,0
1523613133798,-393216,-86,-56,-1,-1,0
1523613133798,-458752,-86,-56,-1,-1,0
1523613133798,-458752,-86,-56,-1,-1,0
1523613133838,-458752,-86,-56,-1,-1,0
1523613133838,-589824,-86,-56,-1,-1,0
1523613133838,-720896,-86,-56,-1,-1,0
1523613133838,-786432,-86,-56,-1,-1,0
1523613133838,-851968,-86,-56,-1,-1,0
1523613133878,-851968,-86,-56,-1,-1,0
1523613133878,-1114112,-86,-56,-1,-1,0
1523613133878,-1900544,-86,-56,-1,-1,0
1523613133878,-2293760,-86,-56,-1,-1,0
1523613133878,-655360,-86,-56,-1,-1,0
1523613133918,2228224,-86,-56,-1,-1,0
1523613133918,2949120,-86,-56,-1,-1,0
1523613133918,458752,-86,-56,-1,-1,0
1523613133918,-2162688,-86,-56,-1,-1,0
1523613133918,-2949120,-86,-56,-1,-1,0
1523613133958,-2555904,-86,-56,-1,-1,0
1523613133958,-1966080,-86,-56,-1,-1,0
1523613133958,-1441792,-86,-56,-1,-1,0
1523613133958,-1245184,-86,-56,-1,-1,0
1523613133958,-1179648,-86,-56,-1,-1,0
1523613133998,-1114112,-86,-56,-1,-1,0
1523613133998,-983040,-86,-56,-1,-1,0
1523613133998,-786432,-86,-56,-1,-1,0
1523613133998,-589824,-86,-56,-1,-1,0
1523613133998,-393216,-86,-56,-1,-1,0
1523613134038,-262144,-86,-56,-1,-1,0
1523613134038,-131072,-86,-56,-1,-1,0
1523613134038,0,-86,-56,-1,-1,0
1523613134038,131072,-86,-56,-1,-1,0
1523613134038,65536,-86,-56,-1,-1,0
1523613134078,0,-86,-56,-1,-1,0
1523613134078,0,-86,-56,-1,-1,0
1523613134078,-65536,-86,-56,-1,-1,0
1523613134078,-262144,-86,-56,-1,-1,0
1523613134078,-589824,-86,-56,-1,-1,0
1523613134119,-786432,-86,-56,-1,-1,0
1523613134119,-917504,-86,-56,-1,-1,0
1523613134119,-983040,-86,-56,-1,-1,0
1523613134119,-983040,-86,-56,-1,-1,0
1523613134119,-917504,-86,-56,-1,-1,0
1523613134158,-786432,-86,-56,-1,-1,0
1523613134158,-720896,-86,-56,-1,-1,0
1523613134158,-655360,-86,-56,-1,-1,0
1523613134158,-655360,-86,-56,-1,-1,0
1523613134158,-720896,-86,-56,-1,-1,0
1523613134206,-720896,-86,-56,-1,-1,0
1523613134206,-786432,-86,-56,-1,-1,0
1523613134206,-786432,-86,-56,-1,-1,0
1523613134206,-851968,-86,-56,-1,-1,0
1523613134206,-786432,-86,-56,-1,-1,0
1523613134238,-1114112,-86,-56,-1,-1,0
1523613134238,-1900544,-86,-56,-1,-1,0
1523613134238,-1900544,-86,-56,-1,-1,0
1523613134238,262144,-86,-56,-1,-1,0
1523613134238,3145728,-86,-56,-1,-1,0
1523613134278,3145728,-86,-56,-1,-1,0
1523613134278,393216,-86,-56,-1,-1,0
1523613134278,-1900544,-86,-56,-1,-1,0
1523613134278,-2162688,-86,-56,-1,-1,0
1523613134278,-1703936,-86,-56,-1,-1,0
1523613134318,-1114112,-86,-56,-1,-1,0
1523613134318,-655360,-86,-56,-1,-1,0
1523613134318,-458752,-86,-56,-1,-1,0
1523613134318,-262144,-86,-56,-1,-1,0
1523613134318,-131072,-86,-56,-1,-1,0
1523613134358,0,-86,-56,-1,-1,0
1523613134358,196608,-86,-56,-1,-1,0
1523613134358,393216,-86,-56,-1,-1,0
1523613134358,589824,-86,-56,-1,-1,0
1523613134358,786432,-86,-56,-1,-1,0
1523613134398,983040,-86,-56,-1,-1,0
1523613134398,1114112,-86,-56,-1,-1,0
1523613134398,1245184,-86,-56,-1,-1,0
1523613134398,1310720,-86,-56,-1,-1,0
1523613134398,1310720,-86,-56,-1,-1,0
1523613134438,1245184,-86,-56,-1,-1,0
1523613134438,1179648,-86,-56,-1,-1,0
1523613134438,917504,-86,-56,-1,-1,0
1523613134438,655360,-86,-56,-1,-1,0
1523613134438,458752,-86,-56,-1,-1,0
1523613134478,393216,-86,-56,-1,-1,0
1523613134478,262144,-86,-56,-1,-1,0
1523613134478,196608,-86,-56,-1,-1,0
1523613134478,262144,-86,-56,-1,-1,0
1523613134478,393216,-86,-56,-1,-1,0
1523613134518,458752,-86,-56,-1,-1,0
1523613134518,524288,-86,-56,-1,-1,0
1523613134518,458752,-86,-56,-1,-1,0
1523613134518,393216,-86,-56,-1,-1,0
1523613134518,327680,-86,-56,-1,-1,0
1523613134558,327680,-86,-56,-1,-1,0
1523613134558,327680,-86,-56,-1,-1,0
1523613134558,327680,-86,-56,-1,-1,0
1523613134558,262144,-86,-56,-1,-1,0
1523613134558,-131072,-86,-56,-1,-1,0
1523613134598,-917504,-86,-56,-1,-1,0
1523613134598,-655360,-86,-56,-1,-1,0
1523613134598,1769472,-86,-56,-1,-1,0
1523613134598,4259840,-86,-56,-1,-1,0
1523613134598,3473408,-86,-56,-1,-1,0
1523613134638,524288,-86,-56,-1,-1,0
1523613134638,-1310720,-86,-56,-1,-1,0
1523613134638,-1376256,-86,-56,-1,-1,0
1523613134638,-851968,-86,-56,-1,-1,0
1523613134638,-327680,-86,-56,-1,-1,0
1523613134678,-65536,-86,-56,-1,-1,0
1523613134678,0,-86,-56,-1,-1,0
1523613134678,0,-86,-56,-1,-1,0
1523613134678,65536,-86,-56,-1,-1,0
1523613134678,262144,-86,-56,-1,-1,0
1523613134718,327680,-86,-56,-1,-1,0
1523613134718,458752,-86,-56,-1,-1,0
1523613134718,589824,-86,-56,-1,-1,0
1523613134718,786432,-86,-56,-1,-1,0
1523613134718,983040,-86,-56,-1,-1,0
1523613134758,1179648,-86,-56,-1,-1,0
1523613134758,1245184,-86,-56,-1,-1,0
1523613134758,1179648,-86,-56,-1,-1,0
1523613134758,1114112,-86,-56,-1,-1,0
1523613134758,1048576,-86,-56,-1,-1,0
1523613134798,917504,-86,-56,-1,-1,0
1523613134798,589824,-86,-56,-1,-1,0
1523613134798,327680,-86,-56,-1,-1,0
1523613134798,65536,-86,-56,-1,-1,0
1523613134798,0,-86,-56,-1,-1,0
1523613134846,-65536,-86,-56,-1,-1,0
1523613134846,-131072,-86,-56,-1,-1,0
1523613134846,-65536,-86,-56,-1,-1,0
1523613134846,0,-86,-56,-1,-1,0
1523613134846,0,-86,-56,-1,-1,0
1523613134878,0,-86,-56,-1,-1,0
1523613134878,0,-86,-56,-1,-1,0
1523613134878,-65536,-86,-56,-1,-1,0
1523613134878,-131072,-86,-56,-1,-1,0
1523613134878,-262144,-86,-56,-1,-1,0
1523613134918,-327680,-86,-56,-1,-1,0
1523613134918,-393216,-86,-56,-1,-1,0
1523613134918,-524288,-86,-56,-1,-1,0
1523613134918,-1179648,-86,-56,-1,-1,0
1523613134918,-1900544,-86,-56,-1,-1,0
1523613134958,-1179648,-86,-56,-1,-1,0
1523613134958,1507328,-86,-56,-1,-1,0
1523613134958,3473408,-86,-56,-1,-1,0
1523613134958,1966080,-86,-56,-1,-1,0
1523613134958,-983040,-86,-56,-1,-1,0
1523613134998,-2490368,-86,-56,-1,-1,0
1523613134998,-2293760,-86,-56,-1,-1,0
1523613134998,-1703936,-86,-56,-1,-1,0
1523613134998,-1114112,-86,-56,-1,-1,0
1523613134998,-786432,-86,-56,-1,-1,0
1523613135038,-655360,-86,-56,-1,-1,0
1523613135038,-524288,-86,-56,-1,-1,0
1523613135038,-458752,-86,-56,-1,-1,0
1523613135038,-393216,-86,-56,-1,-1,0
1523613135038,-262144,-86,-56,-1,-1,0
1523613135078,-65536,-86,-56,-1,-1,0
1523613135078,0,-86,-56,-1,-1,0
1523613135078,196608,-86,-56,-1,-1,0
1523613135078,327680,-86,-56,-1,-1,0
1523613135078,458752,-86,-56,-1,-1,0
1523613135118,458752,-86,-56,-1,-1,0
1523613135118,458752,-86,-56,-1,-1,0
1523613135118,458752,-86,-56,-1,-1,0
1523613135118,393216,-86,-56,-1,-1,0
1523613135118,131072,-86,-56,-1,-1,0
1523613135158,-131072,-86,-56,-1,-1,0
1523613135158,-393216,-86,-56,-1,-1,0
1523613135158,-655360,-86,-56,-1,-1,0
1523613135158,-786432,-86,-56,-1,-1,0
1523613135158,-851968,-86,-56,-1,-1,0
1523613135198,-851968,-86,-56,-1,-1,0
1523613135198,-786432,-86,-56,-1,-1,0
1523613135198,-720896,-86,-56,-1,-1,0
1523613135198,-720896,-86,-56,-1,-1,0
1523613135198,-720896,-86,-56,-1,-1,0
1523613135238,-786432,-86,-56,-1,-1,0
1523613135238,-851968,-86,-56,-1,-1,0
1523613135238,-917504,-86,-56,-1,-1,0
1523613135238,-983040,-86,-56,-1,-1,0
1523613135238,-1048576,-86,-56,-1,-1,0
1523613135278,-1048576,-86,-56,-1,-1,0
1523613135278,-1245184,-86,-56,-1,-1,0
1523613135278,-1966080,-86,-56,-1,-1,0
1523613135278,-2621440,-86,-56,-1,-1,0
1523613135278,-1572864,-86,-56,-1,-1,0
1523613135318,1245184,-86,-56,-1,-1,0
1523613135318,2949120,-86,-56,-1,-1,0
1523613135318,1048576,-86,-56,-1,-1,0
1523613135318,-1835008,-86,-56,-1,-1,0
1523613135318,-3145728,-86,-56,-1,-1,0
1523613135358,-2883584,-86,-56,-1,-1,0
1523613135358,-2359296,-86,-56,-1,-1,0
1523613135358,-1900544,-86,-56,-1,-1,0
1523613135358,-1638400,-86,-56,-1,-1,0
1523613135358,-1507328,-86,-56,-1,-1,0
1523613135398,-1376256,-86,-56,-1,-1,0
1523613135398,-1310720,-86,-56,-1,-1,0
1523613135398,-1179648,-86,-56,-1,-1,0
1523613135398,-983040,-86,-56,-1,-1,0
1523613135398,-851968,-86,-56,-1,-1,0
1523613135438,-655360,-86,-56,-1,-1,0
1523613135438,-393216,-86,-56,-1,-1,0
1523613135438,-196608,-86,-56,-1,-1,0
1523613135438,-131072,-86,-56,-1,-1,0
1523613135438,-131072,-86,-56,-1,-1,0
1523613135487,-65536,-86,-56,-1,-1,0
1523613135487,-65536,-86,-56,-1,-1,0
1523613135487,-196608,-86,-56,-1,-1,0
1523613135487,-458752,-86,-56,-1,-1,0
1523613135487,-851968,-86,-56,-1,-1,0
1523613135518,-1048576,-86,-56,-1,-1,0
1523613135518,-1245184,-86,-56,-1,-1,0
1523613135518,-1376256,-86,-56,-1,-1,0
1523613135518,-1441792,-86,-56,-1,-1,0
1523613135518,-1376256,-86,-56,-1,-1,0
1523613135558,-1245184,-86,-56,-1,-1,0
1523613135558,-1179648,-86,-56,-1,-1,0
1523613135558,-1179648,-86,-56,-1,-1,0
1523613135558,-1179648,-86,-56,-1,-1,0
1523613135558,-1245184,-86,-56,-1,-1,0
1523613135598,-1310720,-86,-56,-1,-1,0
1523613135598,-1376256,-86,-56,-1,-1,0
1523613135598,-1441792,-86,-56,-1,-1,0
1523613135598,-1441792,-86,-56,-1,-1,0
1523613135598,-1441792,-86,-56,-1,-1,0
1523613135638,-1638400,-86,-56,-1,-1,0
1523613135638,-2424832,-86,-56,-1,-1,0
1523613135638,-2883584,-86,-56,-1,-1,0
1523613135638,-1441792,-86,-56,-1,-1,0
1523613135638,1507328,-86,-56,-1,-1,0
1523613135678,2555904,-86,-56,-1,-1,0
1523613135678,327680,-86,-56,-1,-1,0
1523613135678,-2293760,-86,-56,-1,-1,0
1523613135678,-3080192,-86,-56,-1,-1,0
1523613135678,-2686976,-86,-56,-1,-1,0
1523613135718,-2097152,-86,-56,-1,-1,0
1523613135718,-1572864,-86,-56,-1,-1,0
1523613135718,-1245184,-86,-56,-1,-1,0
1523613135718,-1114112,-86,-56,-1,-1,0
1523613135718,-917504,-86,-56,-1,-1,0
1523613135758,-786432,-86,-56,-1,-1,0
1523613135758,-655360,-86,-56,-1,-1,0
1523613135758,-393216,-86,-56,-1,-1,0
1523613135758,-131072,-86,-56,-1,-1,0
1523613135758,0,-86,-56,-1,-1,0
1523613135798,196608,-86,-56,-1,-1,0
1523613135798,393216,-86,-56,-1,-1,0
1523613135798,524288,-86,-56,-1,-1,0
1523613135798,589824,-86,-56,-1,-1,0
1523613135798,655360,-86,-56,-1,-1,0
1523613135838,589824,-86,-56,-1,-1,0
1523613135838,458752,-86,-56,-1,-1,0
1523613135838,196608,-86,-56,-1,-1,0
1523613135838,0,-86,-56,-1,-1,0
1523613135838,-131072,-86,-56,-1,-1,0
1523613135878,-262144,-86,-56,-1,-1,0
1523613135878,-393216,-86,-56,-1,-1,0
1523613135878,-393216,-86,-56,-1,-1,0
1523613135878,-262144,-86,-56,-1,-1,0
1523613135878,-131072,-86,-56,-1,-1,0
1523613135918,0,-86,-56,-1,-1,0
1523613135918,0,-86,-56,-1,-1,0
1523613135918,65536,-86,-56,-1,-1,0
1523613135918,0,-86,-56,-1,-1,0
1523613135918,0,-86,-56,-1,-1,0
1523613135958,0,-86,-56,-1,-1,0
1523613135958,0,-86,-56,-1,-1,0
1523613135958,0,-86,-56,-1,-1,0
1523613135958,0,-86,-56,-1,-1,0
1523613135958,-131072,-86,-56,-1,-1,0
1523613135998,-851968,-86,-56,-1,-1,0
1523613135998,-1310720,-86,-56,-1,-1,0
1523613135998,65536,-86,-56,-1,-1,0
1523613135998,2949120,-86,-56,-1,-1,0
1523613135998,3801088,-86,-56,-1,-1,0
1523613136038,1507328,-86,-56,-1,-1,0
1523613136038,-1048576,-86,-56,-1,-1,0
1523613136038,-1703936,-86,-56,-1,-1,0
1523613136038,-1245184,-86,-56,-1,-1,0
1523613136038,-655360,-86,-56,-1,-1,0
1523613136078,-196608,-86,-56,-1,-1,0
1523613136078,0,-86,-56,-1,-1,0
1523613136078,65536,-86,-56,-1,-1,0
1523613136078,65536,-86,-56,-1,-1,0
1523613136078,196608,-86,-56,-1,-1,0
1523613136127,327680,-86,-56,-1,-1,0
1523613136127,524288,-86,-56,-1,-1,0
1523613136127,786432,-86,-56,-1,-1,0
1523613136127,1048576,-86,-56,-1,-1,0
1523613136127,1245184,-86,-56,-1,-1,0
1523613136158,1376256,-86,-56,-1,-1,0
1523613136158,1507328,-86,-56,-1,-1,0
1523613136158,1507328,-86,-56,-1,-1,0
1523613136158,1572864,-86,-56,-1,-1,0
1523613136158,1572864,-86,-56,-1,-1,0
1523613136198,1507328,-86,-56,-1,-1,0
1523613136198,1179648,-86,-56,-1,-1,0
1523613136198,917504,-86,-56,-1,-1,0
1523613136198,589824,-86,-56,-1,-1,0
1523613136198,393216,-86,-56,-1,-1,0
1523613136238,327680,-86,-56,-1,-1,0
1523613136238,327680,-86,-56,-1,-1,0
1523613136238,327680,-86,-56,-1,-1,0
1523613136238,327680,-86,-56,-1,-1,0
1523613136238,393216,-86,-56,-1,-1,0
1523613136278,327680,-86,-56,-1,-1,0
1523613136278,327680,-86,-56,-1,-1,0
1523613136278,262144,-86,-56,-1,-1,0
1523613136278,196608,-86,-56,-1,-1,0
1523613136278,131072,-86,-56,-1,-1,0
1523613136318,131072,-86,-56,-1,-1,0
1523613136318,65536,-86,-56,-1,-1,0
1523613136318,65536,-86,-56,-1,-1,0
1523613136318,-196608,-86,-56,-1,-1,0
1523613136318,-1048576,-86,-56,-1,-1,0
1523613136358,-1245184,-86,-56,-1,-1,0
1523613136358,393216,-86,-56,-1,-1,0
1523613136358,3014656,-86,-56,-1,-1,0
1523613136358,3211264,-86,-56,-1,-1,0
1523613136358,720896,-86,-56,-1,-1,0
1523613136398,-1572864,-86,-56,-1,-1,0
1523613136398,-2031616,-86,-56,-1,-1,0
1523613136398,-1507328,-86,-56,-1,-1,0
1523613136398,-851968,-86,-56,-1,-1,0
1523613136398,-458752,-86,-56,-1,-1,0
1523613136438,-262144,-86,-56,-1,-1,0
1523613136438,-131072,-86,-56,-1,-1,0
1523613136438,0,-86,-56,-1,-1,0
1523613136438,0,-86,-56,-1,-1,0
1523613136438,65536,-86,-56,-1,-1,0
1523613136478,262144,-86,-56,-1,-1,0
1523613136478,458752,-86,-56,-1,-1,0
1523613136478,655360,-86,-56,-1,-1,0
1523613136478,851968,-86,-56,-1,-1,0
1523613136478,1048576,-86,-56,-1,-1,0
1523613136517,1114112,-86,-56,-1,-1,0
1523613136517,1114112,-86,-56,-1,-1,0
1523613136517,1114112,-86,-56,-1,-1,0
1523613136517,1048576,-86,-56,-1,-1,0
1523613136517,851968,-86,-56,-1,-1,0
1523613136558,589824,-86,-56,-1,-1,0
1523613136558,327680,-86,-56,-1,-1,0
1523613136558,65536,-86,-56,-1,-1,0
1523613136558,0,-86,-56,-1,-1,0
1523613136558,-131072,-86,-56,-1,-1,0
1523613136598,-196608,-86,-56,-1,-1,0
1523613136598,-131072,-86,-56,-1,-1,0
1523613136598,0,-86,-56,-1,-1,0
1523613136598,0,-86,-56,-1,-1,0
1523613136598,0,-86,-56,-1,-1,0
1523613136639,0,-86,-56,-1,-1,0
1523613136639,-65536,-86,-56,-1,-1,0
1523613136639,-65536,-86,-56,-1,-1,0
1523613136639,-65536,-86,-56,-1,-1,0
1523613136639,-131072,-86,-56,-1,-1,0
1523613136678,-196608,-86,-56,-1,-1,0
1523613136678,-196608,-86,-56,-1,-1,0
1523613136678,-524288,-86,-56,-1,-1,0
1523613136678,-1376256,-86,-56,-1,-1,0
1523613136678,-1835008,-86,-56,-1,-1,0
1523613136718,-196608,-86,-56,-1,-1,0
1523613136718,2490368,-86,-56,-1,-1,0
1523613136718,3014656,-86,-56,-1,-1,0
1523613136718,589824,-86,-56,-1,-1,0
1523613136718,-1835008,-86,-56,-1,-1,0
1523613136767,-2359296,-86,-56,-1,-1,0
1523613136767,-1900544,-86,-56,-1,-1,0
1523613136767,-1245184,-86,-56,-1,-1,0
1523613136767,-786432,-86,-56,-1,-1,0
1523613136767,-589824,-86,-56,-1,-1,0
1523613136798,-524288,-86,-56,-1,-1,0
1523613136798,-458752,-86,-56,-1,-1,0
1523613136798,-327680,-86,-56,-1,-1,0
1523613136798,-131072,-86,-56,-1,-1,0
1523613136798,0,-86,-56,-1,-1,0
1523613136838,131072,-86,-56,-1,-1,0
1523613136838,393216,-86,-56,-1,-1,0
1523613136838,589824,-86,-56,-1,-1,0
1523613136838,655360,-86,-56,-1,-1,0
1523613136838,720896,-86,-56,-1,-1,0
1523613136878,720896,-86,-56,-1,-1,0
1523613136878,851968,-86,-56,-1,-1,0
1523613136878,917504,-86,-56,-1,-1,0
1523613136878,720896,-86,-56,-1,-1,0
1523613136878,327680,-86,-56,-1,-1,0
1523613136918,0,-86,-56,-1,-1,0
1523613136918,-131072,-86,-56,-1,-1,0
1523613136918,-327680,-86,-56,-1,-1,0
1523613136918,-524288,-86,-56,-1,-1,0
1523613136918,-589824,-86,-56,-1,-1,0
1523613136958,-655360,-86,-56,-1,-1,0
1523613136958,-589824,-86,-56,-1,-1,0
1523613136958,-458752,-86,-56,-1,-1,0
1523613136958,-524288,-86,-56,-1,-1,0
1523613136958,-655360,-86,-56,-1,-1,0
1523613136998,-851968,-86,-56,-1,-1,0
1523613136998,-917504,-86,-56,-1,-1,0
1523613136998,-983040,-86,-56,-1,-1,0
1523613136998,-983040,-86,-56,-1,-1,0
1523613136998,-983040,-86,-56,-1,-1,0
1523613137038,-1048576,-86,-56,-1,-1,0
1523613137038,-1310720,-86,-56,-1,-1,0
1523613137038,-1966080,-86,-56,-1,-1,0
1523613137038,-2097152,-86,-56,-1,-1,0
1523613137038,-524288,-86,-56,-1,-1,0
1523613137078,1835008,-86,-56,-1,-1,0
1523613137078,2031616,-86,-56,-1,-1,0
1523613137078,-458752,-86,-56,-1,-1,0
1523613137078,-2752512,-86,-56,-1,-1,0
1523613137078,-3276800,-86,-56,-1,-1,0
1523613137118,-2752512,-86,-56,-1,-1,0
1523613137118,-1966080,-86,-56,-1,-1,0
1523613137118,-1310720,-86,-56,-1,-1,0
1523613137118,-1048576,-86,-56,-1,-1,0
1523613137118,-917504,-86,-56,-1,-1,0
1523613137158,-786432,-86,-56,-1,-1,0
1523613137158,-589824,-86,-56,-1,-1,0
1523613137158,-458752,-86,-56,-1,-1,0
1523613137158,-393216,-86,-56,-1,-1,0
1523613137158,-196608,-86,-56,-1,-1,0
1523613137198,0,-86,-56,-1,-1,0
1523613137198,327680,-86,-56,-1,-1,0
1523613137198,524288,-86,-56,-1,-1,0
1523613137198,655360,-86,-56,-1,-1,0
1523613137198,786432,-86,-56,-1,-1,0
1523613137238,983040,-86,-56,-1,-1,0
1523613137238,983040,-86,-56,-1,-1,0
1523613137238,720896,-86,-56,-1,-1,0
1523613137238,327680,-86,-56,-1,-1,0
1523613137238,0,-86,-56,-1,-1,0
1523613137278,-65536,-86,-56,-1,-1,0
1523613137278,-131072,-86,-56,-1,-1,0
1523613137278,-196608,-86,-56,-1,-1,0
1523613137278,-262144,-86,-56,-1,-1,0
1523613137278,-196608,-86,-56,-1,-1,0
1523613137318,-65536,-86,-56,-1,-1,0
1523613137318,0,-86,-56,-1,-1,0
1523613137318,0,-86,-56,-1,-1,0
1523613137318,0,-86,-56,-1,-1,0
1523613137318,-65536,-86,-56,-1,-1,0
1523613137360,-196608,-86,-56,-1,-1,0
1523613137360,-262144,-86,-56,-1,-1,0
1523613137360,-131072,-86,-56,-1,-1,0
1523613137360,0,-86,-56,-1,-1,0
1523613137360,0,-86,-56,-1,-1,0
1523613137409,-393216,-86,-56,-1,-1,0
1523613137409,-1114112,-86,-56,-1,-1,0
1523613137409,-1179648,-86,-56,-1,-1,0
1523613137409,589824,-86,-56,-1,-1,0
1523613137409,3145728,-86,-56,-1,-1,0
1523613137438,3407872,-86,-56,-1,-1,0
1523613137438,786432,-86,-56,-1,-1,0
1523613137438,-1769472,-86,-56,-1,-1,0
1523613137438,-2359296,-86,-56,-1,-1,0
1523613137438,-1769472,-86,-56,-1,-1,0
1523613137478,-917504,-86,-56,-1,-1,0
1523613137478,-327680,-86,-56,-1,-1,0
1523613137478,0,-86,-56,-1,-1,0
1523613137478,131072,-86,-56,-1,-1,0
1523613137478,196608,-86,-56,-1,-1,0
1523613137518,196608,-86,-56,-1,-1,0
1523613137518,393216,-86,-56,-1,-1,0
1523613137518,524288,-86,-56,-1,-1,0
1523613137518,655360,-86,-56,-1,-1,0
1523613137518,786432,-86,-56,-1,-1,0
1523613137558,983040,-86,-56,-1,-1,0
1523613137558,1048576,-86,-56,-1,-1,0
1523613137558,1245184,-86,-56,-1,-1,0
1523613137558,1376256,-86,-56,-1,-1,0
1523613137558,1376256,-86,-56,-1,-1,0
1523613137598,1179648,-86,-56,-1,-1,0
1523613137598,917504,-86,-56,-1,-1,0
1523613137598,524288,-86,-56,-1,-1,0
1523613137598,262144,-86,-56,-1,-1,0
1523613137598,131072,-86,-56,-1,-1,0
1523613137638,0,-86,-56,-1,-1,0
1523613137638,-196608,-86,-56,-1,-1,0
1523613137638,-131072,-86,-56,-1,-1,0
1523613137638,65536,-86,-56,-1,-1,0
1523613137638,65536,-86,-56,-1,-1,0
1523613137678,131072,-86,-56,-1,-1,0
1523613137678,262144,-86,-56,-1,-1,0
1523613137678,262144,-86,-56,-1,-1,0
1523613137678,196608,-86,-56,-1,-1,0
1523613137678,0,-86,-56,-1,-1,0
1523613137718,0,-86,-56,-1,-1,0
1523613137718,0,-86,-56,-1,-1,0
1523613137718,0,-86,-56,-1,-1,0
1523613137718,0,-86,-56,-1,-1,0
1523613137718,-131072,-86,-56,-1,-1,0
1523613137758,-786432,-86,-56,-1,-1,0
1523613137758,-1245184,-86,-56,-1,-1,0
1523613137758,-65536,-86,-56,-1,-1,0
1523613137758,2752512,-86,-56,-1,-1,0
1523613137758,4390912,-86,-56,-1,-1,0
1523613137798,2424832,-86,-56,-1,-1,0
1523613137798,-720896,-86,-56,-1,-1,0
1523613137798,-2097152,-86,-56,-1,-1,0
1523613137798,-1900544,-86,-56,-1,-1,0
1523613137798,-1376256,-86,-56,-1,-1,0
1523613137838,-786432,-86,-56,-1,-1,0
1523613137838,-458752,-86,-56,-1,-1,0
1523613137838,-327680,-86,-56,-1,-1,0
1523613137838,-196608,-86,-56,-1,-1,0
1523613137838,-65536,-86,-56,-1,-1,0
1523613137878,0,-86,-56,-1,-1,0
1523613137878,131072,-86,-56,-1,-1,0
1523613137878,196608,-86,-56,-1,-1,0
1523613137878,393216,-86,-56,-1,-1,0
1523613137878,655360,-86,-56,-1,-1,0
1523613137918,851968,-86,-56,-1,-1,0
1523613137918,917504,-86,-56,-1,-1,0
1523613137918,983040,-86,-56,-1,-1,0
1523613137918,983040,-86,-56,-1,-1,0
1523613137918,917504,-86,-56,-1,-1,0
1523613137958,786432,-86,-56,-1,-1,0
1523613137958,589824,-86,-56,-1,-1,0
1523613137958,327680,-86,-56,-1,-1,0
1523613137958,65536,-86,-56,-1,-1,0
1523613137958,-65536,-86,-56,-1,-1,0
1523613137998,-196608,-86,-56,-1,-1,0
1523613137998,-262144,-86,-56,-1,-1,0
1523613137998,-131072,-86,-56,-1,-1,0
1523613137998,-65536,-86,-56,-1,-1,0
1523613137998,0,-86,-56,-1,-1,0
1523613138047,65536,-86,-56,-1,-1,0
1523613138047,65536,-86,-56,-1,-1,0
1523613138047,0,-86,-56,-1,-1,0
1523613138047,-65536,-86,-56,-1,-1,0
1523613138047,-131072,-86,-56,-1,-1,0
1523613138078,-196608,-86,-56,-1,-1,0
1523613138078,-262144,-86,-56,-1,-1,0
1523613138078,-262144,-86,-56,-1,-1,0
1523613138078,-327680,-86,-56,-1,-1,0
1523613138078,-655360,-86,-56,-1,-1,0
1523613138118,-1310720,-86,-56,-1,-1,0
1523613138118,-1114112,-86,-56,-1,-1,0
1523613138118,1114112,-86,-56,-1,-1,0
1523613138118,3932160,-86,-56,-1,-1,0
1523613138118,3735552,-86,-56,-1,-1,0
1523613138158,720896,-86,-56,-1,-1,0
1523613138158,-1638400,-86,-56,-1,-1,0
1523613138158,-2031616,-86,-56,-1,-1,0
1523613138158,-1572864,-86,-56,-1,-1,0
1523613138158,-917504,-86,-56,-1,-1,0
1523613138198,-458752,-86,-56,-1,-1,0
1523613138198,-393216,-86,-56,-1,-1,0
1523613138198,-262144,-86,-56,-1,-1,0
1523613138198,-131072,-86,-56,-1,-1,0
1523613138198,0,-86,-56,-1,-1,0
1523613138238,0,-86,-56,-1,-1,0
1523613138238,131072,-86,-56,-1,-1,0
1523613138238,327680,-86,-56,-1,-1,0
1523613138238,524288,-86,-56,-1,-1,0
1523613138238,720896,-86,-56,-1,-1,0
1523613138278,851968,-86,-56,-1,-1,0
1523613138278,917504,-86,-56,-1,-1,0
1523613138278,917504,-86,-56,-1,-1,0
1523613138278,851968,-86,-56,-1,-1,0
1523613138278,720896,-86,-56,-1,-1,0
1523613138318,524288,-86,-56,-1,-1,0
1523613138318,262144,-86,-56,-1,-1,0
1523613138318,0,-86,-56,-1,-1,0
1523613138318,-196608,-86,-56,-1,-1,0
1523613138318,-393216,-86,-56,-1,-1,0
1523613138358,-458752,-86,-56,-1,-1,0
1523613138358,-458752,-86,-56,-1,-1,0
1523613138358,-393216,-86,-56,-1,-1,0
1523613138358,-262144,-86,-56,-1,-1,0
1523613138358,-131072,-86,-56,-1,-1,0
1523613138398,-131072,-86,-56,-1,-1,0
1523613138398,-131072,-86,-56,-1,-1,0
1523613138398,-196608,-86,-56,-1,-1,0
1523613138398,-327680,-86,-56,-1,-1,0
1523613138398,-393216,-86,-56,-1,-1,0
1523613138438,-393216,-86,-56,-1,-1,0
1523613138438,-458752,-86,-56,-1,-1,0
1523613138438,-458752,-86,-56,-1,-1,0
1523613138438,-589824,-86,-56,-1,-1,0
1523613138438,-1310720,-86,-56,-1,-1,0
1523613138478,-1769472,-86,-56,-1,-1,0
1523613138478,-393216,-86,-56,-1,-1,0
1523613138478,2555904,-86,-56,-1,-1,0
1523613138478,4063232,-86,-56,-1,-1,0
1523613138478,1966080,-86,-56,-1,-1,0
1523613138518,-1114112,-86,-56,-1,-1,0
1523613138518,-2424832,-86,-56,-1,-1,0
1523613138518,-2162688,-86,-56,-1,-1,0
1523613138518,-1572864,-86,-56,-1,-1,0
1523613138518,-983040,-86,-56,-1,-1,0
1523613138558,-589824,-86,-56,-1,-1,0
1523613138558,-458752,-86,-56,-1,-1,0
1523613138558,-393216,-86,-56,-1,-1,0
1523613138558,-327680,-86,-56,-1,-1,0
1523613138558,-262144,-86,-56,-1,-1,0
1523613138598,-131072,-86,-56,-1,-1,0
1523613138598,0,-86,-56,-1,-1,0
1523613138598,65536,-86,-56,-1,-1,0
1523613138598,393216,-86,-56,-1,-1,0
1523613138598,655360,-86,-56,-1,-1,0
1523613138638,786432,-86,-56,-1,-1,0
1523613138638,786432,-86,-56,-1,-1,0
1523613138638,786432,-86,-56,-1,-1,0
1523613138638,786432,-86,-56,-1,-1,0
1523613138638,720896,-86,-56,-1,-1,0
1523613138687,524288,-86,-56,-1,-1,0
1523613138687,262144,-86,-56,-1,-1,0
1523613138687,-65536,-86,-56,-1,-1,0
1523613138687,-327680,-86,-56,-1,-1,0
1523613138687,-458752,-86,-56,-1,-1,0
1523613138718,-524288,-86,-56,-1,-1,0
1523613138718,-458752,-86,-56,-1,-1,0
1523613138718,-327680,-86,-56,-1,-1,0
1523613138718,-196608,-86,-56,-1,-1,0
1523613138718,-131072,-86,-56,-1,-1,0
1523613138758,-65536,-86,-56,-1,-1,0
1523613138758,-131072,-86,-56,-1,-1,0
1523613138758,-196608,-86,-56,-1,-1,0
1523613138758,-262144,-86,-56,-1,-1,0
1523613138758,-327680,-86,-56,-1,-1,0
1523613138798,-393216,-86,-56,-1,-1,0
1523613138798,-393216,-86,-56,-1,-1,0
1523613138798,-393216,-86,-56,-1,-1,0
1523613138798,-720896,-86,-56,-1,-1,0
1523613138798,-1441792,-86,-56,-1,-1,0
1523613138838,-1376256,-86,-56,-1,-1,0
1523613138838,851968,-86,-56,-1,-1,0
1523613138838,3801088,-86,-56,-1,-1,0
1523613138838,3735552,-86,-56,-1,-1,0
1523613138838,851968,-86,-56,-1,-1,0
1523613138878,-1572864,-86,-56,-1,-1,0
1523613138878,-1966080,-86,-56,-1,-1,0
1523613138878,-1572864,-86,-56,-1,-1,0
1523613138878,-983040,-86,-56,-1,-1,0
1523613138878,-524288,-86,-56,-1,-1,0
1523613138918,-327680,-86,-56,-1,-1,0
1523613138918,-196608,-86,-56,-1,-1,0
1523613138918,-131072,-86,-56,-1,-1,0
1523613138918,-131072,-86,-56,-1,-1,0
1523613138918,0,-86,-56,-1,-1,0
1523613138958,131072,-86,-56,-1,-1,0
1523613138958,393216,-86,-56,-1,-1,0
1523613138958,589824,-86,-56,-1,-1,0
1523613138958,720896,-86,-56,-1,-1,0
1523613138958,851968,-86,-56,-1,-1,0
1523613138998,917504,-86,-56,-1,-1,0
1523613138998,917504,-86,-56,-1,-1,0
1523613138998,917504,-86,-56,-1,-1,0
1523613138998,851968,-86,-56,-1,-1,0
1523613138998,655360,-86,-56,-1,-1,0
1523613139040,393216,-86,-56,-1,-1,0
1523613139040,196608,-86,-56,-1,-1,0
1523613139040,0,-86,-56,-1,-1,0
1523613139040,-131072,-86,-56,-1,-1,0
1523613139040,-196608,-86,-56,-1,-1,0
1523613139078,-196608,-86,-56,-1,-1,0
1523613139078,-65536,-86,-56,-1,-1,0
1523613139078,0,-86,-56,-1,-1,0
1523613139078,131072,-86,-56,-1,-1,0
1523613139078,196608,-86,-56,-1,-1,0
1523613139118,196608,-86,-56,-1,-1,0
1523613139118,131072,-86,-56,-1,-1,0
1523613139118,65536,-86,-56,-1,-1,0
1523613139118,0,-86,-56,-1,-1,0
1523613139118,0,-86,-56,-1,-1,0
1523613139158,0,-86,-56,-1,-1,0
1523613139158,-65536,-86,-56,-1,-1,0
1523613139158,-131072,-86,-56,-1,-1,0
1523613139158,-720896,-86,-56,-1,-1,0
1523613139158,-1376256,-86,-56,-1,-1,0
1523613139198,-524288,-86,-56,-1,-1,0
1523613139198,2293760,-86,-56,-1,-1,0
1523613139198,4718592,-86,-56,-1,-1,0
1523613139198,3538944,-86,-56,-1,-1,0
1523613139198,393216,-86,-56,-1,-1,0
1523613139238,-1441792,-86,-56,-1,-1,0
1523613139238,-1441792,-86,-56,-1,-1,0
1523613139238,-983040,-86,-56,-1,-1,0
1523613139238,-458752,-86,-56,-1,-1,0
1523613139238,-131072,-86,-56,-1,-1,0
1523613139278,0,-86,-56,-1,-1,0
1523613139278,65536,-86,-56,-1,-1,0
1523613139278,131072,-86,-56,-1,-1,0
1523613139278,196608,-86,-56,-1,-1,0
1523613139278,327680,-86,-56,-1,-1,0
1523613139326,524288,-86,-56,-1,-1,0
1523613139326,655360,-86,-56,-1,-1,0
1523613139326,851968,-86,-56,-1,-1,0
1523613139326,983040,-86,-56,-1,-1,0
1523613139326,1114112,-86,-56,-1,-1,0
1523613139358,1114112,-86,-56,-1,-1,0
1523613139358,1179648,-86,-56,-1,-1,0
1523613139358,1114112,-86,-56,-1,-1,0
1523613139358,1048576,-86,-56,-1,-1,0
1523613139358,851968,-86,-56,-1,-1,0
1523613139398,589824,-86,-56,-1,-1,0
1523613139398,262144,-86,-56,-1,-1,0
1523613139398,0,-86,-56,-1,-1,0
1523613139398,-65536,-86,-56,-1,-1,0
1523613139398,-131072,-86,-56,-1,-1,0
1523613139438,-131072,-86,-56,-1,-1,0
1523613139438,0,-86,-56,-1,-1,0
1523613139438,65536,-86,-56,-1,-1,0
1523613139438,65536,-86,-56,-1,-1,0
1523613139438,131072,-86,-56,-1,-1,0
1523613139478,65536,-86,-56,-1,-1,0
1523613139478,0,-86,-56,-1,-1,0
1523613139478,0,-86,-56,-1,-1,0
1523613139478,0,-86,-56,-1,-1,0
1523613139478,0,-86,-56,-1,-1,0
1523613139518,0,-86,-56,-1,-1,0
1523613139518,-65536,-86,-56,-1,-1,0
1523613139518,-327680,-86,-56,-1,-1,0
1523613139518,-1114112,-86,-56,-1,-1,0
1523613139518,-1507328,-86,-56,-1,-1,0
1523613139558,0,-86,-56,-1,-1,0
1523613139558,3407872,-86,-56,-1,-1,0
1523613139558,4980736,-86,-56,-1,-1,0
1523613139558,2686976,-86,-56,-1,-1,0
1523613139558,-458752,-86,-56,-1,-1,0
1523613139598,-1703936,-86,-56,-1,-1,0
1523613139598,-1441792,-86,-56,-1,-1,0
1523613139598,-917504,-86,-56,-1,-1,0
1523613139598,-458752,-86,-56,-1,-1,0
1523613139598,-262144,-86,-56,-1,-1,0
1523613139638,-196608,-86,-56,-1,-1,0
1523613139638,-65536,-86,-56,-1,-1,0
1523613139638,0,-86,-56,-1,-1,0
1523613139638,65536,-86,-56,-1,-1,0
1523613139638,131072,-86,-56,-1,-1,0
1523613139678,327680,-86,-56,-1,-1,0
1523613139678,458752,-86,-56,-1,-1,0
1523613139678,720896,-86,-56,-1,-1,0
1523613139678,917504,-86,-56,-1,-1,0
1523613139678,983040,-86,-56,-1,-1,0
1523613139718,983040,-86,-56,-1,-1,0
1523613139718,983040,-86,-56,-1,-1,0
1523613139718,983040,-86,-56,-1,-1,0
1523613139718,917504,-86,-56,-1,-1,0
1523613139718,655360,-86,-56,-1,-1,0
1523613139758,393216,-86,-56,-1,-1,0
1523613139758,65536,-86,-56,-1,-1,0
1523613139758,-65536,-86,-56,-1,-1,0
1523613139758,-196608,-86,-56,-1,-1,0
1523613139758,-262144,-86,-56,-1,-1,0
1523613139798,-262144,-86,-56,-1,-1,0
1523613139798,-131072,-86,-56,-1,-1,0
1523613139798,-65536,-86,-56,-1,-1,0
1523613139798,0,-86,-56,-1,-1,0
1523613139798,0,-86,-56,-1,-1,0
1523613139838,0,-86,-56,-1,-1,0
1523613139838,-131072,-86,-56,-1,-1,0
1523613139838,-327680,-86,-56,-1,-1,0
1523613139838,-393216,-86,-56,-1,-1,0
1523613139838,-393216,-86,-56,-1,-1,0
1523613139878,-393216,-86,-56,-1,-1,0
1523613139878,-458752,-86,-56,-1,-1,0
1523613139878,-720896,-86,-56,-1,-1,0
1523613139878,-1507328,-86,-56,-1,-1,0
1523613139878,-1769472,-86,-56,-1,-1,0
1523613139918,65536,-86,-56,-1,-1,0
1523613139918,3473408,-86,-56,-1,-1,0
1523613139918,4521984,-86,-56,-1,-1,0
1523613139918,1835008,-86,-56,-1,-1,0
1523613139918,-1245184,-86,-56,-1,-1,0
1523613139966,-2162688,-86,-56,-1,-1,0
1523613139966,-1900544,-86,-56,-1,-1,0
1523613139966,-1441792,-86,-56,-1,-1,0
1523613139966,-983040,-86,-56,-1,-1,0
1523613139966,-786432,-86,-56,-1,-1,0
1523613139998,-655360,-86,-56,-1,-1,0
1523613139998,-589824,-86,-56,-1,-1,0
1523613139998,-458752,-86,-56,-1,-1,0
1523613139998,-327680,-86,-56,-1,-1,0
1523613139998,-196608,-86,-56,-1,-1,0
1523613140038,-65536,-86,-56,-1,-1,0
1523613140038,65536,-86,-56,-1,-1,0
1523613140038,327680,-86,-56,-1,-1,0
1523613140038,458752,-86,-56,-1,-1,0
1523613140038,524288,-86,-56,-1,-1,0
1523613140079,524288,-86,-56,-1,-1,0
1523613140079,524288,-86,-56,-1,-1,0
1523613140079,524288,-86,-56,-1,-1,0
1523613140079,393216,-86,-56,-1,-1,0
1523613140079,196608,-86,-56,-1,-1,0
1523613140118,-65536,-86,-56,-1,-1,0
1523613140118,-327680,-86,-56,-1,-1,0
1523613140118,-524288,-86,-56,-1,-1,0
1523613140118,-655360,-86,-56,-1,-1,0
1523613140118,-655360,-86,-56,-1,-1,0
1523613140158,-655360,-86,-56,-1,-1,0
1523613140158,-589824,-86,-56,-1,-1,0
1523613140158,-589824,-86,-56,-1,-1,0
1523613140158,-524288,-86,-56,-1,-1,0
1523613140158,-458752,-86,-56,-1,-1,0
1523613140198,-458752,-86,-56,-1,-1,0
1523613140198,-524288,-86,-56,-1,-1,0
1523613140198,-589824,-86,-56,-1,-1,0
1523613140198,-589824,-86,-56,-1,-1,0
1523613140198,-655360,-86,-56,-1,-1,0
1523613140238,-655360,-86,-56,-1,-1,0
1523613140238,-655360,-86,-56,-1,-1,0
1523613140238,-786432,-86,-56,-1,-1,0
1523613140238,-1572864,-86,-56,-1,-1,0
1523613140238,-2162688,-86,-56,-1,-1,0
1523613140278,-917504,-86,-56,-1,-1,0
1523613140278,2424832,-86,-56,-1,-1,0
1523613140278,4653056,-86,-56,-1,-1,0
1523613140278,2883584,-86,-56,-1,-1,0
1523613140278,-262144,-86,-56,-1,-1,0
1523613140318,-1835008,-86,-56,-1,-1,0
1523613140318,-1769472,-86,-56,-1,-1,0
1523613140318,-1310720,-86,-56,-1,-1,0
1523613140318,-851968,-86,-56,-1,-1,0
1523613140318,-589824,-86,-56,-1,-1,0
1523613140358,-524288,-86,-56,-1,-1,0
1523613140358,-393216,-86,-56,-1,-1,0
1523613140358,-262144,-86,-56,-1,-1,0
1523613140358,-65536,-86,-56,-1,-1,0
1523613140358,0,-86,-56,-1,-1,0
1523613140398,262144,-86,-56,-1,-1,0
1523613140398,393216,-86,-56,-1,-1,0
1523613140398,589824,-86,-56,-1,-1,0
1523613140398,786432,-86,-56,-1,-1,0
1523613140398,983040,-86,-56,-1,-1,0
1523613140438,1048576,-86,-56,-1,-1,0
1523613140438,1048576,-86,-56,-1,-1,0
1523613140438,1048576,-86,-56,-1,-1,0
1523613140438,983040,-86,-56,-1,-1,0
1523613140438,786432,-86,-56,-1,-1,0
1523613140478,589824,-86,-56,-1,-1,0
1523613140478,327680,-86,-56,-1,-1,0
1523613140478,262144,-86,-56,-1,-1,0
1523613140478,196608,-86,-56,-1,-1,0
1523613140478,196608,-86,-56,-1,-1,0
1523613140518,196608,-86,-56,-1,-1,0
1523613140518,262144,-86,-56,-1,-1,0
1523613140518,327680,-86,-56,-1,-1,0
1523613140518,458752,-86,-56,-1,-1,0
1523613140518,589824,-86,-56,-1,-1,0
1523613140558,655360,-86,-56,-1,-1,0
1523613140558,589824,-86,-56,-1,-1,0
1523613140558,589824,-86,-56,-1,-1,0
1523613140558,589824,-86,-56,-1,-1,0
1523613140558,589824,-86,-56,-1,-1,0
1523613140606,589824,-86,-56,-1,-1,0
1523613140606,655360,-86,-56,-1,-1,0
1523613140606,589824,-86,-56,-1,-1,0
1523613140606,131072,-86,-56,-1,-1,0
1523613140606,-589824,-86,-56,-1,-1,0
1523613140638,-393216,-86,-56,-1,-1,0
1523613140638,1966080,-86,-56,-1,-1,0
1523613140638,4849664,-86,-56,-1,-1,0
1523613140638,4521984,-86,-56,-1,-1,0
1523613140638,1638400,-86,-56,-1,-1,0
1523613140678,-589824,-86,-56,-1,-1,0
1523613140678,-786432,-86,-56,-1,-1,0
1523613140678,-262144,-86,-56,-1,-1,0
1523613140678,196608,-86,-56,-1,-1,0
1523613140678,589824,-86,-56,-1,-1,0
1523613140718,720896,-86,-56,-1,-1,0
1523613140718,786432,-86,-56,-1,-1,0
1523613140718,851968,-86,-56,-1,-1,0
1523613140718,917504,-86,-56,-1,-1,0
1523613140718,1048576,-86,-56,-1,-1,0
1523613140758,1179648,-86,-56,-1,-1,0
1523613140758,1376256,-86,-56,-1,-1,0
1523613140758,1572864,-86,-56,-1,-1,0
1523613140758,1769472,-86,-56,-1,-1,0
1523613140758,1900544,-86,-56,-1,-1,0
1523613140798,1966080,-86,-56,-1,-1,0
1523613140798,1900544,-86,-56,-1,-1,0
1523613140798,1835008,-86,-56,-1,-1,0
1523613140798,1769472,-86,-56,-1,-1,0
1523613140798,1572864,-86,-56,-1,-1,0
1523613140838,1310720,-86,-56,-1,-1,0
1523613140838,1114112,-86,-56,-1,-1,0
1523613140838,917504,-86,-56,-1,-1,0
1523613140838,720896,-86,-56,-1,-1,0
1523613140838,589824,-86,-56,-1,-1,0
1523613140878,458752,-86,-56,-1,-1,0
1523613140878,393216,-86,-56,-1,-1,0
1523613140878,327680,-86,-56,-1,-1,0
1523613140878,262144,-86,-56,-1,-1,0
1523613140878,327680,-86,-56,-1,-1,0
1523613140918,393216,-86,-56,-1,-1,0
1523613140918,327680,-86,-56,-1,-1,0
1523613140918,196608,-86,-56,-1,-1,0
1523613140918,131072,-86,-56,-1,-1,0
1523613140918,65536,-86,-56,-1,-1,0
1523613140958,0,-86,-56,-1,-1,0
1523613140958,-196608,-86,-56,-1,-1,0
1523613140958,-131072,-86,-56,-1,-1,0
1523613140958,-65536,-86,-56,-1,-1,0
1523613140958,-589824,-86,-56,-1,-1,0
1523613140998,-1310720,-86,-56,-1,-1,0
1523613140998,-786432,-86,-56,-1,-1,0
1523613140998,1638400,-86,-56,-1,-1,0
1523613140998,3932160,-86,-56,-1,-1,0
1523613140998,2949120,-86,-56,-1,-1,0
1523613141038,0,-86,-56,-1,-1,0
1523613141038,-2097152,-86,-56,-1,-1,0
1523613141038,-2424832,-86,-56,-1,-1,0
1523613141038,-1835008,-86,-56,-1,-1,0
1523613141038,-1114112,-86,-56,-1,-1,0
1523613141078,-655360,-86,-56,-1,-1,0
1523613141078,-327680,-86,-56,-1,-1,0
1523613141078,-131072,-86,-56,-1,-1,0
1523613141078,-131072,-86,-56,-1,-1,0
1523613141078,-131072,-86,-56,-1,-1,0
1523613141118,-65536,-86,-56,-1,-1,0
1523613141118,65536,-86,-56,-1,-1,0
1523613141118,327680,-86,-56,-1,-1,0
1523613141118,589824,-86,-56,-1,-1,0
1523613141118,786432,-86,-56,-1,-1,0
1523613141158,786432,-86,-56,-1,-1,0
1523613141158,655360,-86,-56,-1,-1,0
1523613141158,655360,-86,-56,-1,-1,0
1523613141158,720896,-86,-56,-1,-1,0
1523613141158,786432,-86,-56,-1,-1,0
1523613141198,524288,-86,-56,-1,-1,0
1523613141198,65536,-86,-56,-1,-1,0
1523613141198,-327680,-86,-56,-1,-1,0
1523613141198,-458752,-86,-56,-1,-1,0
1523613141198,-393216,-86,-56,-1,-1,0
1523613141246,-524288,-86,-56,-1,-1,0
1523613141246,-655360,-86,-56,-1,-1,0
1523613141246,-655360,-86,-56,-1,-1,0
1523613141246,-524288,-86,-56,-1,-1,0
1523613141246,-458752,-86,-56,-1,-1,0
1523613141278,-327680,-86,-56,-1,-1,0
1523613141278,-393216,-86,-56,-1,-1,0
1523613141278,-524288,-86,-56,-1,-1,0
1523613141278,-655360,-86,-56,-1,-1,0
1523613141278,-720896,-86,-56,-1,-1,0
1523613141320,-786432,-86,-56,-1,-1,0
1523613141320,-786432,-86,-56,-1,-1,0
1523613141320,-720896,-86,-56,-1,-1,0
1523613141320,-720896,-86,-56,-1,-1,0
1523613141320,-786432,-86,-56,-1,-1,0
1523613141358,-1376256,-86,-56,-1,-1,0
1523613141358,-1900544,-86,-56,-1,-1,0
1523613141358,-917504,-86,-56,-1,-1,0
1523613141358,1703936,-86,-56,-1,-1,0
1523613141358,3866624,-86,-56,-1,-1,0
1523613141398,2424832,-86,-56,-1,-1,0
1523613141398,-786432,-86,-56,-1,-1,0
1523613141398,-2555904,-86,-56,-1,-1,0
1523613141398,-2424832,-86,-56,-1,-1,0
1523613141398,-1835008,-86,-56,-1,-1,0
1523613141438,-1179648,-86,-56,-1,-1,0
1523613141438,-720896,-86,-56,-1,-1,0
1523613141438,-720896,-86,-56,-1,-1,0
1523613141438,-720896,-86,-56,-1,-1,0
1523613141438,-589824,-86,-56,-1,-1,0
1523613141478,-262144,-86,-56,-1,-1,0
1523613141478,-65536,-86,-56,-1,-1,0
1523613141478,0,-86,-56,-1,-1,0
1523613141478,0,-86,-56,-1,-1,0
1523613141478,131072,-86,-56,-1,-1,0
1523613141518,327680,-86,-56,-1,-1,0
1523613141518,393216,-86,-56,-1,-1,0
1523613141518,393216,-86,-56,-1,-1,0
1523613141518,393216,-86,-56,-1,-1,0
1523613141518,393216,-86,-56,-1,-1,0
1523613141558,327680,-86,-56,-1,-1,0
1523613141558,131072,-86,-56,-1,-1,0
1523613141558,-65536,-86,-56,-1,-1,0
1523613141558,-327680,-86,-56,-1,-1,0
1523613141558,-524288,-86,-56,-1,-1,0
1523613141598,-589824,-86,-56,-1,-1,0
1523613141598,-589824,-86,-56,-1,-1,0
1523613141598,-524288,-86,-56,-1,-1,0
1523613141598,-524288,-86,-56,-1,-1,0
1523613141598,-458752,-86,-56,-1,-1,0
1523613141638,-327680,-86,-56,-1,-1,0
1523613141638,-196608,-86,-56,-1,-1,0
1523613141638,-65536,-86,-56,-1,-1,0
1523613141638,-131072,-86,-56,-1,-1,0
1523613141638,-262144,-86,-56,-1,-1,0
1523613141678,-393216,-86,-56,-1,-1,0
1523613141678,-458752,-86,-56,-1,-1,0
1523613141678,-458752,-86,-56,-1,-1,0
1523613141678,-458752,-86,-56,-1,-1,0
1523613141678,-458752,-86,-56,-1,-1,0
1523613141718,-655360,-86,-56,-1,-1,0
1523613141718,-1310720,-86,-56,-1,-1,0
1523613141718,-1769472,-86,-56,-1,-1,0
1523613141718,-458752,-86,-56,-1,-1,0
1523613141718,2293760,-86,-56,-1,-1,0
1523613141758,3735552,-86,-56,-1,-1,0
1523613141758,1769472,-86,-56,-1,-1,0
1523613141758,-1179648,-86,-56,-1,-1,0
1523613141758,-2359296,-86,-56,-1,-1,0
1523613141758,-2097152,-86,-56,-1,-1,0
1523613141798,-1507328,-86,-56,-1,-1,0
1523613141798,-983040,-86,-56,-1,-1,0
1523613141798,-720896,-86,-56,-1,-1,0
1523613141798,-589824,-86,-56,-1,-1,0
1523613141798,-458752,-86,-56,-1,-1,0
1523613141839,-327680,-86,-56,-1,-1,0
1523613141839,-196608,-86,-56,-1,-1,0
1523613141839,-65536,-86,-56,-1,-1,0
1523613141839,65536,-86,-56,-1,-1,0
1523613141839,262144,-86,-56,-1,-1,0
1523613141888,458752,-86,-56,-1,-1,0
1523613141888,589824,-86,-56,-1,-1,0
1523613141888,720896,-86,-56,-1,-1,0
1523613141888,720896,-86,-56,-1,-1,0
1523613141888,655360,-86,-56,-1,-1,0
1523613141918,655360,-86,-56,-1,-1,0
1523613141918,589824,-86,-56,-1,-1,0
1523613141918,393216,-86,-56,-1,-1,0
1523613141918,131072,-86,-56,-1,-1,0
1523613141918,-65536,-86,-56,-1,-1,0
1523613141958,-262144,-86,-56,-1,-1,0
1523613141958,-327680,-86,-56,-1,-1,0
1523613141958,-327680,-86,-56,-1,-1,0
1523613141958,-327680,-86,-56,-1,-1,0
1523613141958,-262144,-86,-56,-1,-1,0
1523613141998,-131072,-86,-56,-1,-1,0
1523613141998,0,-86,-56,-1,-1,0
1523613141998,0,-86,-56,-1,-1,0
1523613141998,65536,-86,-56,-1,-1,0
1523613141998,65536,-86,-56,-1,-1,0
1523613142038,0,-86,-56,-1,-1,0
1523613142038,-65536,-86,-56,-1,-1,0
1523613142038,-131072,-86,-56,-1,-1,0
1523613142038,-131072,-86,-56,-1,-1,0
1523613142038,-131072,-86,-56,-1,-1,0
1523613142078,-65536,-86,-56,-1,-1,0
1523613142078,-262144,-86,-56,-1,-1,0
1523613142078,-917504,-86,-56,-1,-1,0
1523613142078,-1638400,-86,-56,-1,-1,0
1523613142078,-655360,-86,-56,-1,-1,0
1523613142118,2228224,-86,-56,-1,-1,0
1523613142118,4194304,-86,-56,-1,-1,0
1523613142118,2555904,-86,-56,-1,-1,0
1523613142118,-458752,-86,-56,-1,-1,0
1523613142118,-1900544,-86,-56,-1,-1,0
1523613142159,-1769472,-86,-56,-1,-1,0
1523613142159,-1179648,-86,-56,-1,-1,0
1523613142159,-655360,-86,-56,-1,-1,0
1523613142159,-327680,-86,-56,-1,-1,0
1523613142159,-131072,-86,-56,-1,-1,0
1523613142198,0,-86,-56,-1,-1,0
1523613142198,65536,-86,-56,-1,-1,0
1523613142198,196608,-86,-56,-1,-1,0
1523613142198,327680,-86,-56,-1,-1,0
1523613142198,458752,-86,-56,-1,-1,0
1523613142238,655360,-86,-56,-1,-1,0
1523613142238,851968,-86,-56,-1,-1,0
1523613142238,1048576,-86,-56,-1,-1,0
1523613142238,1245184,-86,-56,-1,-1,0
1523613142238,1245184,-86,-56,-1,-1,0
1523613142278,1245184,-86,-56,-1,-1,0
1523613142278,1179648,-86,-56,-1,-1,0
1523613142278,1048576,-86,-56,-1,-1,0
1523613142278,786432,-86,-56,-1,-1,0
1523613142278,458752,-86,-56,-1,-1,0
1523613142318,196608,-86,-56,-1,-1,0
1523613142318,65536,-86,-56,-1,-1,0
1523613142318,0,-86,-56,-1,-1,0
1523613142318,0,-86,-56,-1,-1,0
1523613142318,-131072,-86,-56,-1,-1,0
1523613142358,-131072,-86,-56,-1,-1,0
1523613142358,-65536,-86,-56,-1,-1,0
1523613142358,0,-86,-56,-1,-1,0
1523613142358,0,-86,-56,-1,-1,0
1523613142358,0,-86,-56,-1,-1,0
1523613142398,0,-86,-56,-1,-1,0
1523613142398,-65536,-86,-56,-1,-1,0
1523613142398,-131072,-86,-56,-1,-1,0
1523613142398,-196608,-86,-56,-1,-1,0
1523613142398,-262144,-86,-56,-1,-1,0
1523613142438,-327680,-86,-56,-1,-1,0
1523613142438,-327680,-86,-56,-1,-1,0
1523613142438,-655360,-86,-56,-1,-1,0
1523613142438,-1507328,-86,-56,-1,-1,0
1523613142438,-1966080,-86,-56,-1,-1,0
1523613142478,-393216,-88,-56,-1,-1,0
1523613142478,2555904,-88,-56,-1,-1,0
1523613142478,3801088,-88,-56,-1,-1,0
1523613142478,1638400,-88,-56,-1,-1,0
1523613142478,-1245184,-88,-56,-1,-1,0
1523613142526,-2424832,-88,-56,-1,-1,0
1523613142526,-2097152,-88,-56,-1,-1,0
1523613142526,-1441792,-88,-56,-1,-1,0
1523613142526,-983040,-88,-56,-1,-1,0
1523613142526,-786432,-88,-56,-1,-1,0
1523613142558,-720896,-88,-56,-1,-1,0
1523613142558,-655360,-88,-56,-1,-1,0
1523613142558,-589824,-88,-56,-1,-1,0
1523613142558,-458752,-88,-56,-1,-1,0
1523613142558,-262144,-88,-56,-1,-1,0
1523613142598,-65536,-88,-56,-1,-1,0
1523613142598,0,-88,-56,-1,-1,0
1523613142598,196608,-88,-56,-1,-1,0
1523613142598,458752,-88,-56,-1,-1,0
1523613142598,589824,-88,-56,-1,-1,0
1523613142638,589824,-88,-56,-1,-1,0
1523613142638,589824,-88,-56,-1,-1,0
1523613142638,589824,-88,-56,-1,-1,0
1523613142638,524288,-88,-56,-1,-1,0
1523613142638,327680,-88,-56,-1,-1,0
1523613142678,65536,-88,-56,-1,-1,0
1523613142678,-131072,-88,-56,-1,-1,0
1523613142678,-262144,-88,-56,-1,-1,0
1523613142678,-262144,-88,-56,-1,-1,0
1523613142678,-262144,-88,-56,-1,-1,0
1523613142718,-327680,-88,-56,-1,-1,0
1523613142718,-393216,-88,-56,-1,-1,0
1523613142718,-458752,-88,-56,-1,-1,0
1523613142718,-393216,-88,-56,-1,-1,0
1523613142718,-196608,-88,-56,-1,-1,0
1523613142758,-262144,-88,-56,-1,-1,0
1523613142758,-327680,-88,-56,-1,-1,0
1523613142758,-327680,-88,-56,-1,-1,0
1523613142758,-327680,-88,-56,-1,-1,0
1523613142758,-458752,-88,-56,-1,-1,0
1523613142798,-524288,-88,-56,-1,-1,0
1523613142798,-589824,-88,-56,-1,-1,0
1523613142798,-524288,-88,-56,-1,-1,0
1523613142798,-786432,-88,-56,-1,-1,0
1523613142798,-1572864,-88,-56,-1,-1,0
1523613142837,-1900544,-88,-56,-1,-1,0
1523613142837,-262144,-88,-56,-1,-1,0
1523613142837,2752512,-88,-56,-1,-1,0
1523613142837,3801088,-88,-56,-1,-1,0
1523613142837,1376256,-88,-56,-1,-1,0
1523613142878,-1638400,-88,-56,-1,-1,0
1523613142878,-2752512,-88,-56,-1,-1,0
1523613142878,-2359296,-88,-56,-1,-1,0
1523613142878,-1572864,-88,-56,-1,-1,0
1523613142878,-983040,-88,-56,-1,-1,0
1523613142920,-720896,-88,-56,-1,-1,0
1523613142920,-655360,-88,-56,-1,-1,0
1523613142920,-524288,-88,-56,-1,-1,0
1523613142920,-458752,-88,-56,-1,-1,0
1523613142920,-327680,-88,-56,-1,-1,0
1523613142958,-131072,-88,-56,-1,-1,0
1523613142958,0,-88,-56,-1,-1,0
1523613142958,65536,-88,-56,-1,-1,0
1523613142958,327680,-88,-56,-1,-1,0
1523613142958,589824,-88,-56,-1,-1,0
1523613142997,655360,-88,-56,-1,-1,0
1523613142997,589824,-88,-56,-1,-1,0
1523613142997,589824,-88,-56,-1,-1,0
1523613142997,458752,-88,-56,-1,-1,0
1523613142997,393216,-88,-56,-1,-1,0
1523613143038,262144,-88,-56,-1,-1,0
1523613143038,0,-88,-56,-1,-1,0
1523613143038,-262144,-88,-56,-1,-1,0
1523613143038,-458752,-88,-56,-1,-1,0
1523613143038,-393216,-88,-56,-1,-1,0
1523613143078,-196608,-88,-56,-1,-1,0
1523613143078,-131072,-88,-56,-1,-1,0
1523613143078,-65536,-88,-56,-1,-1,0
1523613143078,0,-88,-56,-1,-1,0
1523613143078,131072,-88,-56,-1,-1,0
1523613143118,262144,-88,-56,-1,-1,0
1523613143118,196608,-88,-56,-1,-1,0
1523613143118,0,-88,-56,-1,-1,0
1523613143118,-65536,-88,-56,-1,-1,0
1523613143118,-131072,-88,-56,-1,-1,0
1523613143166,-196608,-88,-56,-1,-1,0
1523613143166,-262144,-88,-56,-1,-1,0
1523613143166,-393216,-88,-56,-1,-1,0
1523613143166,-524288,-88,-56,-1,-1,0
1523613143166,-917504,-88,-56,-1,-1,0
1523613143198,-1703936,-88,-56,-1,-1,0
1523613143198,-1638400,-88,-56,-1,-1,0
1523613143198,589824,-88,-56,-1,-1,0
1523613143198,3473408,-88,-56,-1,-1,0
1523613143198,3145728,-88,-56,-1,-1,0
1523613143237,0,-88,-56,-1,-1,0
1523613143237,-2621440,-88,-56,-1,-1,0
1523613143237,-3014656,-88,-56,-1,-1,0
1523613143237,-2621440,-88,-56,-1,-1,0
1523613143237,-2031616,-88,-56,-1,-1,0
1523613143278,-1638400,-88,-56,-1,-1,0
1523613143278,-1441792,-88,-56,-1,-1,0
1523613143278,-1376256,-88,-56,-1,-1,0
1523613143278,-1376256,-88,-56,-1,-1,0
1523613143278,-1310720,-88,-56,-1,-1,0
1523613143317,-1245184,-88,-56,-1,-1,0
1523613143317,-1048576,-88,-56,-1,-1,0
1523613143317,-851968,-88,-56,-1,-1,0
1523613143317,-655360,-88,-56,-1,-1,0
1523613143317,-458752,-88,-56,-1,-1,0
1523613143358,-393216,-88,-56,-1,-1,0
1523613143358,-327680,-88,-56,-1,-1,0
1523613143358,-327680,-88,-56,-1,-1,0
1523613143358,-458752,-88,-56,-1,-1,0
1523613143358,-589824,-88,-56,-1,-1,0
1523613143397,-655360,-88,-56,-1,-1,0
1523613143397,-786432,-88,-56,-1,-1,0
1523613143397,-917504,-88,-56,-1,-1,0
1523613143397,-1245184,-88,-56,-1,-1,0
1523613143397,-1376256,-88,-56,-1,-1,0
1523613143438,-1507328,-88,-56,-1,-1,0
1523613143438,-1507328,-88,-56,-1,-1,0
1523613143438,-1441792,-88,-56,-1,-1,0
1523613143438,-1441792,-88,-56,-1,-1,0
1523613143438,-1310720,-88,-56,-1,-1,0
1523613143477,-1179648,-88,-56,-1,-1,0
1523613143477,-1114112,-88,-56,-1,-1,0
1523613143477,-1114112,-88,-56,-1,-1,0
1523613143477,-983040,-88,-56,-1,-1,0
1523613143477,-851968,-88,-56,-1,-1,0
1523613143518,-720896,-88,-56,-1,-1,0
1523613143518,-786432,-88,-56,-1,-1,0
1523613143518,-983040,-88,-56,-1,-1,0
1523613143518,-1048576,-88,-56,-1,-1,0
1523613143518,-1048576,-88,-56,-1,-1,0
1523613143557,-1376256,-88,-56,-1,-1,0
1523613143557,-2097152,-88,-56,-1,-1,0
1523613143557,-2228224,-88,-56,-1,-1,0
1523613143557,-327680,-88,-56,-1,-1,0
1523613143557,2359296,-88,-56,-1,-1,0
1523613143598,2490368,-88,-56,-1,-1,0
1523613143598,-131072,-88,-56,-1,-1,0
1523613143598,-2555904,-88,-56,-1,-1,0
1523613143598,-2752512,-88,-56,-1,-1,0
1523613143598,-2228224,-88,-56,-1,-1,0
1523613143637,-1638400,-88,-56,-1,-1,0
1523613143637,-1245184,-88,-56,-1,-1,0
1523613143637,-1179648,-88,-56,-1,-1,0
1523613143637,-1048576,-88,-56,-1,-1,0
1523613143637,-851968,-88,-56,-1,-1,0
1523613143678,-786432,-88,-56,-1,-1,0
1523613143678,-524288,-88,-56,-1,-1,0
1523613143678,-327680,-88,-56,-1,-1,0
1523613143678,-262144,-88,-56,-1,-1,0
1523613143678,-131072,-88,-56,-1,-1,0
1523613143717,65536,-88,-56,-1,-1,0
1523613143717,262144,-88,-56,-1,-1,0
1523613143717,327680,-88,-56,-1,-1,0
1523613143717,393216,-88,-56,-1,-1,0
1523613143717,458752,-88,-56,-1,-1,0
1523613143758,327680,-88,-56,-1,-1,0
1523613143758,196608,-88,-56,-1,-1,0
1523613143758,0,-88,-56,-1,-1,0
1523613143758,0,-88,-56,-1,-1,0
1523613143758,-131072,-88,-56,-1,-1,0
1523613143806,-262144,-88,-56,-1,-1,0
1523613143806,-458752,-88,-56,-1,-1,0
1523613143806,-458752,-88,-56,-1,-1,0
1523613143806,-458752,-88,-56,-1,-1,0
1523613143806,-393216,-88,-56,-1,-1,0
1523613143838,-262144,-88,-56,-1,-1,0
1523613143838,-131072,-88,-56,-1,-1,0
1523613143838,-65536,-88,-56,-1,-1,0
1523613143838,0,-88,-56,-1,-1,0
1523613143838,-131072,-88,-56,-1,-1,0
1523613143877,-196608,-88,-56,-1,-1,0
1523613143877,-196608,-88,-56,-1,-1,0
1523613143877,-262144,-88,-56,-1,-1,0
1523613143877,-262144,-88,-56,-1,-1,0
1523613143877,-327680,-88,-56,-1,-1,0
1523613143918,-262144,-88,-56,-1,-1,0
1523613143918,-655360,-88,-56,-1,-1,0
1523613143918,-1376256,-88,-56,-1,-1,0
1523613143918,-1179648,-88,-56,-1,-1,0
1523613143918,1179648,-88,-56,-1,-1,0
1523613143957,4259840,-88,-56,-1,-1,0
1523613143957,4456448,-88,-56,-1,-1,0
1523613143957,1703936,-88,-56,-1,-1,0
1523613143957,-917504,-88,-56,-1,-1,0
1523613143957,-1638400,-88,-56,-1,-1,0
1523613143999,-1310720,-88,-56,-1,-1,0
1523613143999,-786432,-88,-56,-1,-1,0
1523613143999,-327680,-88,-56,-1,-1,0
1523613143999,0,-88,-56,-1,-1,0
1523613143999,131072,-88,-56,-1,-1,0
1523613144038,262144,-88,-56,-1,-1,0
1523613144038,327680,-88,-56,-1,-1,0
1523613144038,458752,-88,-56,-1,-1,0
1523613144038,655360,-88,-56,-1,-1,0
1523613144038,851968,-88,-56,-1,-1,0
1523613144077,1048576,-88,-56,-1,-1,0
1523613144077,1310720,-88,-56,-1,-1,0
1523613144077,1572864,-88,-56,-1,-1,0
1523613144077,1703936,-88,-56,-1,-1,0
1523613144077,1638400,-88,-56,-1,-1,0
1523613144117,1507328,-88,-56,-1,-1,0
1523613144117,1572864,-88,-56,-1,-1,0
1523613144117,1572864,-88,-56,-1,-1,0
1523613144117,1507328,-88,-56,-1,-1,0
1523613144117,1376256,-88,-56,-1,-1,0
1523613144158,1245184,-88,-56,-1,-1,0
1523613144158,1179648,-88,-56,-1,-1,0
1523613144158,1114112,-88,-56,-1,-1,0
1523613144158,1179648,-88,-56,-1,-1,0
1523613144158,1245184,-88,-56,-1,-1,0
1523613144197,1245184,-88,-56,-1,-1,0
1523613144197,1245184,-88,-56,-1,-1,0
1523613144197,1310720,-88,-56,-1,-1,0
1523613144197,1441792,-88,-56,-1,-1,0
1523613144197,1441792,-88,-56,-1,-1,0
1523613144237,1441792,-88,-56,-1,-1,0
1523613144237,1310720,-88,-56,-1,-1,0
1523613144237,1245184,-88,-56,-1,-1,0
1523613144237,1245184,-88,-56,-1,-1,0
1523613144237,1245184,-88,-56,-1,-1,0
1523613144277,1179648,-88,-56,-1,-1,0
1523613144277,1245184,-88,-56,-1,-1,0
1523613144277,983040,-88,-56,-1,-1,0
1523613144277,196608,-88,-56,-1,-1,0
1523613144277,0,-88,-56,-1,-1,0
1523613144318,1835008,-88,-56,-1,-1,0
1523613144318,4849664,-88,-56,-1,-1,0
1523613144318,5570560,-88,-56,-1,-1,0
1523613144318,2752512,-88,-56,-1,-1,0
1523613144318,-65536,-88,-56,-1,-1,0
1523613144357,-917504,-90,-56,-1,-1,0
1523613144357,-524288,-90,-56,-1,-1,0
1523613144357,131072,-90,-56,-1,-1,0
1523613144357,786432,-90,-56,-1,-1,0
1523613144357,983040,-90,-56,-1,-1,0
1523613144398,1048576,-90,-56,-1,-1,0
1523613144398,983040,-90,-56,-1,-1,0
1523613144398,983040,-90,-56,-1,-1,0
1523613144398,1245184,-90,-56,-1,-1,0
1523613144398,1441792,-90,-56,-1,-1,0
1523613144446,1638400,-90,-56,-1,-1,0
1523613144446,1835008,-90,-56,-1,-1,0
1523613144446,1966080,-90,-56,-1,-1,0
1523613144446,1966080,-90,-56,-1,-1,0
1523613144446,2031616,-90,-56,-1,-1,0
1523613144478,2097152,-90,-56,-1,-1,0
1523613144478,2097152,-90,-56,-1,-1,0
1523613144478,1835008,-90,-56,-1,-1,0
1523613144478,1507328,-90,-56,-1,-1,0
1523613144478,1179648,-90,-56,-1,-1,0
1523613144519,917504,-90,-56,-1,-1,0
1523613144519,589824,-90,-56,-1,-1,0
1523613144519,327680,-90,-56,-1,-1,0
1523613144519,131072,-90,-56,-1,-1,0
1523613144519,65536,-90,-56,-1,-1,0
1523613144558,131072,-90,-56,-1,-1,0
1523613144558,131072,-90,-56,-1,-1,0
1523613144558,262144,-90,-56,-1,-1,0
1523613144558,262144,-90,-56,-1,-1,0
1523613144558,262144,-90,-56,-1,-1,0
1523613144597,262144,-90,-56,-1,-1,0
1523613144597,196608,-90,-56,-1,-1,0
1523613144597,131072,-90,-56,-1,-1,0
1523613144597,0,-90,-56,-1,-1,0
1523613144597,-131072,-90,-56,-1,-1,0
1523613144638,-131072,-90,-56,-1,-1,0
1523613144638,-131072,-90,-56,-1,-1,0
1523613144638,-131072,-90,-56,-1,-1,0
1523613144638,-458752,-90,-56,-1,-1,0
1523613144638,-1245184,-90,-56,-1,-1,0
1523613144678,-1572864,-90,-56,-1,-1,0
1523613144678,0,-90,-56,-1,-1,0
1523613144678,3014656,-90,-56,-1,-1,0
1523613144678,3801088,-90,-56,-1,-1,0
1523613144678,1179648,-90,-56,-1,-1,0
1523613144718,-1835008,-90,-56,-1,-1,0
1523613144718,-2752512,-90,-56,-1,-1,0
1523613144718,-2359296,-90,-56,-1,-1,0
1523613144718,-1769472,-90,-56,-1,-1,0
1523613144718,-1245184,-90,-56,-1,-1,0
1523613144758,-983040,-90,-56,-1,-1,0
1523613144758,-786432,-90,-56,-1,-1,0
1523613144758,-720896,-90,-56,-1,-1,0
1523613144758,-589824,-90,-56,-1,-1,0
1523613144758,-458752,-90,-56,-1,-1,0
1523613144798,-393216,-90,-56,-1,-1,0
1523613144798,-262144,-90,-56,-1,-1,0
1523613144798,-65536,-90,-56,-1,-1,0
1523613144798,131072,-90,-56,-1,-1,0
1523613144798,262144,-90,-56,-1,-1,0
1523613144837,393216,-90,-56,-1,-1,0
1523613144837,393216,-90,-56,-1,-1,0
1523613144837,327680,-90,-56,-1,-1,0
1523613144837,262144,-90,-56,-1,-1,0
1523613144837,131072,-90,-56,-1,-1,0
1523613144878,0,-90,-56,-1,-1,0
1523613144878,-262144,-90,-56,-1,-1,0
1523613144878,-524288,-90,-56,-1,-1,0
1523613144878,-720896,-90,-56,-1,-1,0
1523613144878,-851968,-90,-56,-1,-1,0
1523613144917,-851968,-90,-56,-1,-1,0
1523613144917,-851968,-90,-56,-1,-1,0
1523613144917,-851968,-90,-56,-1,-1,0
1523613144917,-720896,-90,-56,-1,-1,0
1523613144917,-589824,-90,-56,-1,-1,0
1523613144958,-524288,-90,-56,-1,-1,0
1523613144958,-524288,-90,-56,-1,-1,0
1523613144958,-589824,-90,-56,-1,-1,0
1523613144958,-655360,-90,-56,-1,-1,0
1523613144958,-655360,-90,-56,-1,-1,0
1523613144998,-655360,-90,-56,-1,-1,0
1523613144998,-655360,-90,-56,-1,-1,0
1523613144998,-720896,-90,-56,-1,-1,0
1523613144998,-720896,-90,-56,-1,-1,0
1523613144998,-786432,-90,-56,-1,-1,0
1523613145038,-1376256,-90,-56,-1,-1,0
1523613145038,-1966080,-90,-56,-1,-1,0
1523613145038,-983040,-90,-56,-1,-1,0
1523613145038,1769472,-90,-56,-1,-1,0
1523613145038,3538944,-90,-56,-1,-1,0
1523613145086,1835008,-90,-56,-1,-1,0
1523613145086,-1179648,-90,-56,-1,-1,0
1523613145086,-2686976,-90,-56,-1,-1,0
1523613145086,-2490368,-90,-56,-1,-1,0
1523613145086,-1900544,-90,-56,-1,-1,0
1523613145118,-1245184,-90,-56,-1,-1,0
1523613145118,-851968,-90,-56,-1,-1,0
1523613145118,-720896,-90,-56,-1,-1,0
1523613145118,-589824,-90,-56,-1,-1,0
1523613145118,-458752,-90,-56,-1,-1,0
1523613145158,-262144,-90,-56,-1,-1,0
1523613145158,-131072,-90,-56,-1,-1,0
1523613145158,65536,-90,-56,-1,-1,0
1523613145158,262144,-90,-56,-1,-1,0
1523613145158,458752,-90,-56,-1,-1,0
1523613145198,720896,-90,-56,-1,-1,0
1523613145198,983040,-90,-56,-1,-1,0
1523613145198,1114112,-90,-56,-1,-1,0
1523613145198,1048576,-90,-56,-1,-1,0
1523613145198,983040,-90,-56,-1,-1,0
1523613145237,917504,-90,-56,-1,-1,0
1523613145237,720896,-90,-56,-1,-1,0
1523613145237,393216,-90,-56,-1,-1,0
1523613145237,131072,-90,-56,-1,-1,0
1523613145237,-65536,-90,-56,-1,-1,0
1523613145277,-196608,-90,-56,-1,-1,0
1523613145277,-262144,-90,-56,-1,-1,0
1523613145277,-327680,-90,-56,-1,-1,0
1523613145277,-327680,-90,-56,-1,-1,0
1523613145277,-196608,-90,-56,-1,-1,0
1523613145317,-65536,-90,-56,-1,-1,0
1523613145317,0,-90,-56,-1,-1,0
1523613145317,0,-90,-56,-1,-1,0
1523613145317,0,-90,-56,-1,-1,0
1523613145317,-131072,-90,-56,-1,-1,0
1523613145358,-196608,-90,-56,-1,-1,0
1523613145358,-196608,-90,-56,-1,-1,0
1523613145358,-131072,-90,-56,-1,-1,0
1523613145358,-196608,-90,-56,-1,-1,0
1523613145358,-262144,-90,-56,-1,-1,0
1523613145397,-262144,-90,-56,-1,-1,0
1523613145397,-720896,-90,-56,-1,-1,0
1523613145397,-1507328,-90,-56,-1,-1,0
1523613145397,-1441792,-90,-56,-1,-1,0
1523613145397,655360,-90,-56,-1,-1,0
1523613145437,3473408,-92,-56,-1,-1,0
1523613145437,3538944,-92,-56,-1,-1,0
1523613145437,851968,-92,-56,-1,-1,0
1523613145437,-1572864,-92,-56,-1,-1,0
1523613145437,-2031616,-92,-56,-1,-1,0
1523613145477,-1572864,-92,-56,-1,-1,0
1523613145477,-983040,-92,-56,-1,-1,0
1523613145477,-589824,-92,-56,-1,-1,0
1523613145477,-458752,-92,-56,-1,-1,0
1523613145477,-327680,-92,-56,-1,-1,0
1523613145518,-196608,-92,-56,-1,-1,0
1523613145518,0,-92,-56,-1,-1,0
1523613145518,65536,-92,-56,-1,-1,0
1523613145518,131072,-92,-56,-1,-1,0
1523613145518,327680,-92,-56,-1,-1,0
1523613145557,458752,-92,-56,-1,-1,0
1523613145557,720896,-92,-56,-1,-1,0
1523613145557,917504,-92,-56,-1,-1,0
1523613145557,1048576,-92,-56,-1,-1,0
1523613145557,983040,-92,-56,-1,-1,0
1523613145597,851968,-92,-56,-1,-1,0
1523613145597,655360,-92,-56,-1,-1,0
1523613145597,458752,-92,-56,-1,-1,0
1523613145597,262144,-92,-56,-1,-1,0
1523613145597,131072,-92,-56,-1,-1,0
1523613145637,0,-92,-56,-1,-1,0
1523613145637,-65536,-92,-56,-1,-1,0
1523613145637,-196608,-92,-56,-1,-1,0
1523613145637,-262144,-92,-56,-1,-1,0
1523613145637,-327680,-92,-56,-1,-1,0
1523613145677,-393216,-92,-56,-1,-1,0
1523613145677,-262144,-92,-56,-1,-1,0
1523613145677,-196608,-92,-56,-1,-1,0
1523613145677,-196608,-92,-56,-1,-1,0
1523613145677,-262144,-92,-56,-1,-1,0
1523613145726,-262144,-92,-56,-1,-1,0
1523613145726,-393216,-92,-56,-1,-1,0
1523613145726,-458752,-92,-56,-1,-1,0
1523613145726,-524288,-92,-56,-1,-1,0
1523613145726,-589824,-92,-56,-1,-1,0
1523613145758,-655360,-92,-56,-1,-1,0
1523613145758,-655360,-92,-56,-1,-1,0
1523613145758,-1048576,-92,-56,-1,-1,0
1523613145758,-1900544,-92,-56,-1,-1,0
1523613145758,-1835008,-92,-56,-1,-1,0
1523613145797,262144,-92,-56,-1,-1,0
1523613145797,3473408,-92,-56,-1,-1,0
1523613145797,3932160,-92,-56,-1,-1,0
1523613145797,1114112,-92,-56,-1,-1,0
1523613145797,-1769472,-92,-56,-1,-1,0
1523613145838,-2621440,-92,-56,-1,-1,0
1523613145838,-2228224,-92,-56,-1,-1,0
1523613145838,-1572864,-92,-56,-1,-1,0
1523613145838,-1048576,-92,-56,-1,-1,0
1523613145838,-786432,-92,-56,-1,-1,0
1523613145877,-655360,-92,-56,-1,-1,0
1523613145877,-458752,-92,-56,-1,-1,0
1523613145877,-327680,-92,-56,-1,-1,0
1523613145877,-196608,-92,-56,-1,-1,0
1523613145877,-131072,-92,-56,-1,-1,0
1523613145918,0,-92,-56,-1,-1,0
1523613145918,327680,-92,-56,-1,-1,0
1523613145918,720896,-92,-56,-1,-1,0
1523613145918,917504,-92,-56,-1,-1,0
1523613145918,917504,-92,-56,-1,-1,0
1523613145957,786432,-92,-56,-1,-1,0
1523613145957,786432,-92,-56,-1,-1,0
1523613145957,786432,-92,-56,-1,-1,0
1523613145957,720896,-92,-56,-1,-1,0
1523613145957,458752,-92,-56,-1,-1,0
1523613145998,131072,-92,-56,-1,-1,0
1523613145998,-131072,-92,-56,-1,-1,0
1523613145998,-196608,-92,-56,-1,-1,0
1523613145998,-196608,-92,-56,-1,-1,0
1523613145998,-196608,-92,-56,-1,-1,0
1523613146037,-327680,-92,-56,-1,-1,0
1523613146037,-262144,-92,-56,-1,-1,0
1523613146037,-131072,-92,-56,-1,-1,0
1523613146037,0,-92,-56,-1,-1,0
1523613146037,65536,-92,-56,-1,-1,0
1523613146079,131072,-92,-56,-1,-1,0
1523613146079,0,-92,-56,-1,-1,0
1523613146079,-131072,-92,-56,-1,-1,0
1523613146079,-196608,-92,-56,-1,-1,0
1523613146079,-196608,-92,-56,-1,-1,0
1523613146117,-65536,-92,-56,-1,-1,0
1523613146117,-65536,-92,-56,-1,-1,0
1523613146117,-131072,-92,-56,-1,-1,0
1523613146117,-458752,-92,-56,-1,-1,0
1523613146117,-1245184,-92,-56,-1,-1,0
1523613146157,-1310720,-92,-56,-1,-1,0
1523613146157,786432,-92,-56,-1,-1,0
1523613146157,3932160,-92,-56,-1,-1,0
1523613146157,4456448,-92,-56,-1,-1,0
1523613146157,1638400,-92,-56,-1,-1,0
1523613146197,-1310720,-92,-56,-1,-1,0
1523613146197,-1966080,-92,-56,-1,-1,0
1523613146197,-1507328,-92,-56,-1,-1,0
1523613146197,-917504,-92,-56,-1,-1,0
1523613146197,-458752,-92,-56,-1,-1,0
1523613146238,-262144,-92,-56,-1,-1,0
1523613146238,0,-92,-56,-1,-1,0
1523613146238,131072,-92,-56,-1,-1,0
1523613146238,65536,-92,-56,-1,-1,0
1523613146238,65536,-92,-56,-1,-1,0
1523613146278,327680,-92,-56,-1,-1,0
1523613146278,655360,-92,-56,-1,-1,0
1523613146278,720896,-92,-56,-1,-1,0
1523613146278,655360,-92,-56,-1,-1,0
1523613146278,786432,-92,-56,-1,-1,0
1523613146318,983040,-92,-56,-1,-1,0
1523613146318,983040,-92,-56,-1,-1,0
1523613146318,720896,-92,-56,-1,-1,0
1523613146318,524288,-92,-56,-1,-1,0
1523613146318,458752,-92,-56,-1,-1,0
1523613146366,327680,-92,-56,-1,-1,0
1523613146366,131072,-92,-56,-1,-1,0
1523613146366,-65536,-92,-56,-1,-1,0
1523613146366,-327680,-92,-56,-1,-1,0
1523613146366,-458752,-92,-56,-1,-1,0
1523613146398,-393216,-92,-56,-1,-1,0
1523613146398,-393216,-92,-56,-1,-1,0
1523613146398,-327680,-92,-56,-1,-1,0
1523613146398,-196608,-92,-56,-1,-1,0
1523613146398,-65536,-92,-56,-1,-1,0
1523613146437,-65536,-92,-56,-1,-1,0
1523613146437,-65536,-92,-56,-1,-1,0
1523613146437,-131072,-92,-56,-1,-1,0
1523613146437,-196608,-92,-56,-1,-1,0
1523613146437,-327680,-92,-56,-1,-1,0
1523613146478,-458752,-92,-56,-1,-1,0
1523613146478,-458752,-92,-56,-1,-1,0
1523613146478,-393216,-92,-56,-1,-1,0
1523613146478,-393216,-92,-56,-1,-1,0
1523613146478,-786432,-92,-56,-1,-1,0
1523613146517,-1638400,-92,-56,-1,-1,0
1523613146517,-1703936,-92,-56,-1,-1,0
1523613146517,458752,-92,-56,-1,-1,0
1523613146517,3670016,-92,-56,-1,-1,0
1523613146517,4259840,-92,-56,-1,-1,0
1523613146557,1441792,-92,-56,-1,-1,0
1523613146557,-1507328,-92,-56,-1,-1,0
1523613146557,-2293760,-92,-56,-1,-1,0
1523613146557,-1966080,-92,-56,-1,-1,0
1523613146557,-1507328,-92,-56,-1,-1,0
1523613146597,-1114112,-92,-56,-1,-1,0
1523613146597,-917504,-92,-56,-1,-1,0
1523613146597,-786432,-92,-56,-1,-1,0
1523613146597,-720896,-92,-56,-1,-1,0
1523613146597,-720896,-92,-56,-1,-1,0
1523613146638,-655360,-92,-56,-1,-1,0
1523613146638,-589824,-92,-56,-1,-1,0
1523613146638,-393216,-92,-56,-1,-1,0
1523613146638,-262144,-92,-56,-1,-1,0
1523613146638,-131072,-92,-56,-1,-1,0
1523613146677,0,-92,-56,-1,-1,0
1523613146677,131072,-92,-56,-1,-1,0
1523613146677,65536,-92,-56,-1,-1,0
1523613146677,0,-92,-56,-1,-1,0
1523613146677,0,-92,-56,-1,-1,0
1523613146718,0,-92,-56,-1,-1,0
1523613146718,-131072,-92,-56,-1,-1,0
1523613146718,-262144,-92,-56,-1,-1,0
1523613146718,-458752,-92,-56,-1,-1,0
1523613146718,-589824,-92,-56,-1,-1,0
1523613146757,-720896,-92,-56,-1,-1,0
1523613146757,-655360,-92,-56,-1,-1,0
1523613146757,-655360,-92,-56,-1,-1,0
1523613146757,-589824,-92,-56,-1,-1,0
1523613146757,-458752,-92,-56,-1,-1,0
1523613146798,-327680,-92,-56,-1,-1,0
1523613146798,-262144,-92,-56,-1,-1,0
1523613146798,-196608,-92,-56,-1,-1,0
1523613146798,-131072,-92,-56,-1,-1,0
1523613146798,-196608,-92,-56,-1,-1,0
1523613146837,-262144,-92,-56,-1,-1,0
1523613146837,-327680,-92,-56,-1,-1,0
1523613146837,-327680,-92,-56,-1,-1,0
1523613146837,-393216,-92,-56,-1,-1,0
1523613146837,-393216,-92,-56,-1,-1,0
1523613146878,-524288,-92,-56,-1,-1,0
1523613146878,-1245184,-92,-56,-1,-1,0
1523613146878,-1441792,-92,-56,-1,-1,0
1523613146878,196608,-92,-56,-1,-1,0
1523613146878,3080192,-92,-56,-1,-1,0
1523613146917,4128768,-92,-56,-1,-1,0
1523613146917,1835008,-92,-56,-1,-1,0
1523613146917,-1048576,-92,-56,-1,-1,0
1523613146917,-1966080,-92,-56,-1,-1,0
1523613146917,-1638400,-92,-56,-1,-1,0
1523613146958,-1114112,-92,-56,-1,-1,0
1523613146958,-655360,-92,-56,-1,-1,0
1523613146958,-327680,-92,-56,-1,-1,0
1523613146958,-131072,-92,-56,-1,-1,0
1523613146958,0,-92,-56,-1,-1,0
1523613147006,131072,-92,-56,-1,-1,0
1523613147006,262144,-92,-56,-1,-1,0
1523613147006,327680,-92,-56,-1,-1,0
1523613147006,458752,-92,-56,-1,-1,0
1523613147006,589824,-92,-56,-1,-1,0
1523613147037,786432,-92,-56,-1,-1,0
1523613147037,786432,-92,-56,-1,-1,0
1523613147037,851968,-92,-56,-1,-1,0
1523613147037,786432,-92,-56,-1,-1,0
1523613147037,720896,-92,-56,-1,-1,0
1523613147077,655360,-92,-56,-1,-1,0
1523613147077,589824,-92,-56,-1,-1,0
1523613147077,393216,-92,-56,-1,-1,0
1523613147077,131072,-92,-56,-1,-1,0
1523613147077,-65536,-92,-56,-1,-1,0
1523613147118,-196608,-92,-56,-1,-1,0
1523613147118,-262144,-92,-56,-1,-1,0
1523613147118,-262144,-92,-56,-1,-1,0
1523613147118,-262144,-92,-56,-1,-1,0
1523613147118,-327680,-92,-56,-1,-1,0
1523613147157,-262144,-92,-56,-1,-1,0
1523613147157,-196608,-92,-56,-1,-1,0
1523613147157,-131072,-92,-56,-1,-1,0
1523613147157,-131072,-92,-56,-1,-1,0
1523613147157,-196608,-92,-56,-1,-1,0
1523613147198,-327680,-92,-56,-1,-1,0
1523613147198,-393216,-92,-56,-1,-1,0
1523613147198,-458752,-92,-56,-1,-1,0
1523613147198,-393216,-92,-56,-1,-1,0
1523613147198,-458752,-92,-56,-1,-1,0
1523613147238,-458752,-92,-56,-1,-1,0
1523613147238,-589824,-92,-56,-1,-1,0
1523613147238,-1245184,-92,-56,-1,-1,0
1523613147238,-1835008,-92,-56,-1,-1,0
1523613147238,-655360,-92,-56,-1,-1,0
1523613147278,2293760,-92,-56,-1,-1,0
1523613147278,3801088,-92,-56,-1,-1,0
1523613147278,1769472,-92,-56,-1,-1,0
1523613147278,-1179648,-92,-56,-1,-1,0
1523613147278,-2293760,-92,-56,-1,-1,0
1523613147317,-1900544,-92,-56,-1,-1,0
1523613147317,-1179648,-92,-56,-1,-1,0
1523613147317,-655360,-92,-56,-1,-1,0
1523613147317,-327680,-92,-56,-1,-1,0
1523613147317,-196608,-92,-56,-1,-1,0
1523613147358,-65536,-92,-56,-1,-1,0
1523613147358,65536,-92,-56,-1,-1,0
1523613147358,262144,-92,-56,-1,-1,0
1523613147358,393216,-92,-56,-1,-1,0
1523613147358,589824,-92,-56,-1,-1,0
1523613147398,786432,-92,-56,-1,-1,0
1523613147398,983040,-92,-56,-1,-1,0
1523613147398,1245184,-92,-56,-1,-1,0
1523613147398,1441792,-92,-56,-1,-1,0
1523613147398,1507328,-92,-56,-1,-1,0
1523613147438,1572864,-92,-56,-1,-1,0
1523613147438,1507328,-92,-56,-1,-1,0
1523613147438,1441792,-92,-56,-1,-1,0
1523613147438,1245184,-92,-56,-1,-1,0
1523613147438,1048576,-92,-56,-1,-1,0
1523613147477,720896,-92,-56,-1,-1,0
1523613147477,524288,-92,-56,-1,-1,0
1523613147477,393216,-92,-56,-1,-1,0
1523613147477,393216,-92,-56,-1,-1,0
1523613147477,393216,-92,-56,-1,-1,0
1523613147518,393216,-92,-56,-1,-1,0
1523613147518,458752,-92,-56,-1,-1,0
1523613147518,524288,-92,-56,-1,-1,0
1523613147518,655360,-92,-56,-1,-1,0
1523613147518,655360,-92,-56,-1,-1,0
1523613147558,655360,-92,-56,-1,-1,0
1523613147558,589824,-92,-56,-1,-1,0
1523613147558,524288,-92,-56,-1,-1,0
1523613147558,524288,-92,-56,-1,-1,0
1523613147558,524288,-92,-56,-1,-1,0
1523613147598,589824,-92,-56,-1,-1,0
1523613147598,655360,-92,-56,-1,-1,0
1523613147598,458752,-92,-56,-1,-1,0
1523613147598,-196608,-92,-56,-1,-1,0
1523613147598,-589824,-92,-56,-1,-1,0
1523613147646,786432,-93,-56,-1,-1,0
1523613147646,3801088,-93,-56,-1,-1,0
1523613147646,5242880,-93,-56,-1,-1,0
1523613147646,3211264,-93,-56,-1,-1,0
1523613147646,196608,-93,-56,-1,-1,0
1523613147678,-917504,-93,-56,-1,-1,0
1523613147678,-524288,-93,-56,-1,-1,0
1523613147678,0,-93,-56,-1,-1,0
1523613147678,524288,-93,-56,-1,-1,0
1523613147678,720896,-93,-56,-1,-1,0
1523613147718,786432,-93,-56,-1,-1,0
1523613147718,917504,-93,-56,-1,-1,0
1523613147718,1048576,-93,-56,-1,-1,0
1523613147718,1245184,-93,-56,-1,-1,0
1523613147718,1376256,-93,-56,-1,-1,0
1523613147758,1572864,-93,-56,-1,-1,0
1523613147758,1703936,-93,-56,-1,-1,0
1523613147758,1966080,-93,-56,-1,-1,0
1523613147758,2293760,-93,-56,-1,-1,0
1523613147758,2490368,-93,-56,-1,-1,0
1523613147797,2490368,-93,-56,-1,-1,0
1523613147797,2359296,-93,-56,-1,-1,0
1523613147797,2359296,-93,-56,-1,-1,0
1523613147797,2424832,-93,-56,-1,-1,0
1523613147797,2293760,-93,-56,-1,-1,0
1523613147838,2031616,-93,-56,-1,-1,0
1523613147838,1769472,-93,-56,-1,-1,0
1523613147838,1703936,-93,-56,-1,-1,0
1523613147838,1769472,-93,-56,-1,-1,0
1523613147838,1703936,-93,-56,-1,-1,0
1523613147878,1507328,-93,-56,-1,-1,0
1523613147878,1441792,-93,-56,-1,-1,0
1523613147878,1507328,-93,-56,-1,-1,0
1523613147878,1638400,-93,-56,-1,-1,0
1523613147878,1703936,-93,-56,-1,-1,0
1523613147918,1703936,-93,-56,-1,-1,0
1523613147918,1507328,-93,-56,-1,-1,0
1523613147918,1310720,-93,-56,-1,-1,0
1523613147918,1245184,-93,-56,-1,-1,0
1523613147918,1310720,-93,-56,-1,-1,0
1523613147958,1245184,-93,-56,-1,-1,0
1523613147958,1048576,-93,-56,-1,-1,0
1523613147958,917504,-93,-56,-1,-1,0
1523613147958,655360,-93,-56,-1,-1,0
1523613147958,-131072,-93,-56,-1,-1,0
1523613147998,-655360,-93,-56,-1,-1,0
1523613147998,589824,-93,-56,-1,-1,0
1523613147998,3538944,-93,-56,-1,-1,0
1523613147998,4849664,-93,-56,-1,-1,0
1523613147998,2490368,-93,-56,-1,-1,0
1523613148037,-851968,-93,-56,-1,-1,0
1523613148037,-2097152,-93,-56,-1,-1,0
1523613148037,-1703936,-93,-56,-1,-1,0
1523613148037,-983040,-93,-56,-1,-1,0
1523613148037,-458752,-93,-56,-1,-1,0
1523613148078,-131072,-93,-56,-1,-1,0
1523613148078,-65536,-93,-56,-1,-1,0
1523613148078,0,-93,-56,-1,-1,0
1523613148078,0,-93,-56,-1,-1,0
1523613148078,65536,-93,-56,-1,-1,0
1523613148118,65536,-93,-56,-1,-1,0
1523613148118,196608,-93,-56,-1,-1,0
1523613148118,262144,-93,-56,-1,-1,0
1523613148118,458752,-93,-56,-1,-1,0
1523613148118,524288,-93,-56,-1,-1,0
1523613148158,655360,-93,-56,-1,-1,0
1523613148158,655360,-93,-56,-1,-1,0
1523613148158,524288,-93,-56,-1,-1,0
1523613148158,458752,-93,-56,-1,-1,0
1523613148158,327680,-93,-56,-1,-1,0
1523613148198,65536,-93,-56,-1,-1,0
1523613148198,-262144,-93,-56,-1,-1,0
1523613148198,-589824,-93,-56,-1,-1,0
1523613148198,-851968,-93,-56,-1,-1,0
1523613148198,-917504,-93,-56,-1,-1,0
1523613148238,-851968,-93,-56,-1,-1,0
1523613148238,-851968,-93,-56,-1,-1,0
1523613148238,-786432,-93,-56,-1,-1,0
1523613148238,-589824,-93,-56,-1,-1,0
1523613148238,-458752,-93,-56,-1,-1,0
1523613148286,-524288,-93,-56,-1,-1,0
1523613148286,-720896,-93,-56,-1,-1,0
1523613148286,-851968,-93,-56,-1,-1,0
1523613148286,-983040,-93,-56,-1,-1,0
1523613148286,-1114112,-93,-56,-1,-1,0
1523613148318,-1310720,-93,-56,-1,-1,0
1523613148318,-1310720,-93,-56,-1,-1,0
1523613148318,-1179648,-93,-56,-1,-1,0
1523613148318,-1114112,-93,-56,-1,-1,0
1523613148318,-1376256,-93,-56,-1,-1,0
1523613148358,-2097152,-93,-56,-1,-1,0
1523613148358,-2359296,-93,-56,-1,-1,0
1523613148358,-655360,-93,-56,-1,-1,0
1523613148358,2228224,-93,-56,-1,-1,0
1523613148358,3080192,-93,-56,-1,-1,0
1523613148399,655360,-93,-56,-1,-1,0
1523613148399,-2162688,-93,-56,-1,-1,0
1523613148399,-2949120,-93,-56,-1,-1,0
1523613148399,-2424832,-93,-56,-1,-1,0
1523613148399,-1769472,-93,-56,-1,-1,0
1523613148439,-1245184,-93,-56,-1,-1,0
1523613148439,-983040,-93,-56,-1,-1,0
1523613148439,-851968,-93,-56,-1,-1,0
1523613148439,-786432,-93,-56,-1,-1,0
1523613148439,-720896,-93,-56,-1,-1,0
1523613148478,-524288,-93,-56,-1,-1,0
1523613148478,-393216,-93,-56,-1,-1,0
1523613148478,-196608,-93,-56,-1,-1,0
1523613148478,0,-93,-56,-1,-1,0
1523613148478,131072,-93,-56,-1,-1,0
1523613148518,262144,-93,-56,-1,-1,0
1523613148518,262144,-93,-56,-1,-1,0
1523613148518,196608,-93,-56,-1,-1,0
1523613148518,196608,-93,-56,-1,-1,0
1523613148518,65536,-93,-56,-1,-1,0
1523613148558,0,-93,-56,-1,-1,0
1523613148558,-196608,-93,-56,-1,-1,0
1523613148558,-589824,-93,-56,-1,-1,0
1523613148558,-917504,-93,-56,-1,-1,0
1523613148558,-1114112,-93,-56,-1,-1,0
1523613148598,-1179648,-93,-56,-1,-1,0
1523613148598,-1245184,-93,-56,-1,-1,0
1523613148598,-1245184,-93,-56,-1,-1,0
1523613148598,-1245184,-93,-56,-1,-1,0
1523613148598,-1179648,-93,-56,-1,-1,0
1523613148638,-1048576,-93,-56,-1,-1,0
1523613148638,-983040,-93,-56,-1,-1,0
1523613148638,-983040,-93,-56,-1,-1,0
1523613148638,-983040,-93,-56,-1,-1,0
1523613148638,-1114112,-93,-56,-1,-1,0
1523613148678,-1179648,-93,-56,-1,-1,0
1523613148678,-1310720,-93,-56,-1,-1,0
1523613148678,-1310720,-93,-56,-1,-1,0
1523613148678,-1310720,-93,-56,-1,-1,0
1523613148678,-1376256,-93,-56,-1,-1,0
1523613148718,-1835008,-93,-56,-1,-1,0
1523613148718,-2621440,-93,-56,-1,-1,0
1523613148718,-2621440,-93,-56,-1,-1,0
1523613148718,-458752,-93,-56,-1,-1,0
1523613148718,2359296,-93,-56,-1,-1,0
1523613148758,2228224,-93,-56,-1,-1,0
1523613148758,-655360,-93,-56,-1,-1,0
1523613148758,-3145728,-93,-56,-1,-1,0
1523613148758,-3473408,-93,-56,-1,-1,0
1523613148758,-2883584,-93,-56,-1,-1,0
1523613148798,-2162688,-93,-56,-1,-1,0
1523613148798,-1703936,-93,-56,-1,-1,0
1523613148798,-1507328,-93,-56,-1,-1,0
1523613148798,-1376256,-93,-56,-1,-1,0
1523613148798,-1376256,-93,-56,-1,-1,0
1523613148838,-1245184,-93,-56,-1,-1,0
1523613148838,-1114112,-93,-56,-1,-1,0
1523613148838,-983040,-93,-56,-1,-1,0
1523613148838,-720896,-93,-56,-1,-1,0
1523613148838,-524288,-93,-56,-1,-1,0
1523613148878,-327680,-93,-56,-1,-1,0
1523613148878,-131072,-93,-56,-1,-1,0
1523613148878,0,-93,-56,-1,-1,0
1523613148878,0,-93,-56,-1,-1,0
1523613148878,-65536,-93,-56,-1,-1,0
1523613148926,-131072,-93,-56,-1,-1,0
1523613148926,-196608,-93,-56,-1,-1,0
1523613148926,-393216,-93,-56,-1,-1,0
1523613148926,-589824,-93,-56,-1,-1,0
1523613148926,-786432,-93,-56,-1,-1,0
1523613148958,-917504,-93,-56,-1,-1,0
1523613148958,-983040,-93,-56,-1,-1,0
1523613148958,-983040,-93,-56,-1,-1,0
1523613148958,-1048576,-93,-56,-1,-1,0
1523613148958,-1048576,-93,-56,-1,-1,0
1523613148998,-1048576,-93,-56,-1,-1,0
1523613148998,-1048576,-93,-56,-1,-1,0
1523613148998,-1048576,-93,-56,-1,-1,0
1523613148998,-983040,-93,-56,-1,-1,0
1523613148998,-983040,-93,-56,-1,-1,0
1523613149038,-1048576,-93,-56,-1,-1,0
1523613149038,-1114112,-93,-56,-1,-1,0
1523613149038,-1114112,-93,-56,-1,-1,0
1523613149038,-1114112,-93,-56,-1,-1,0
1523613149038,-1048576,-93,-56,-1,-1,0
1523613149078,-1048576,-93,-56,-1,-1,0
1523613149078,-1703936,-93,-56,-1,-1,0
1523613149078,-2424832,-93,-56,-1,-1,0
1523613149078,-1703936,-93,-56,-1,-1,0
1523613149078,1048576,-93,-56,-1,-1,0
1523613149118,3407872,-93,-56,-1,-1,0
1523613149118,2228224,-93,-56,-1,-1,0
1523613149118,-786432,-93,-56,-1,-1,0
1523613149118,-2555904,-93,-56,-1,-1,0
1523613149118,-2490368,-93,-56,-1,-1,0
1523613149158,-1966080,-93,-56,-1,-1,0
1523613149158,-1310720,-93,-56,-1,-1,0
1523613149158,-786432,-93,-56,-1,-1,0
1523613149158,-524288,-93,-56,-1,-1,0
1523613149158,-262144,-93,-56,-1,-1,0
1523613149198,0,-93,-56,-1,-1,0
1523613149198,393216,-93,-56,-1,-1,0
1523613149198,917504,-93,-56,-1,-1,0
1523613149198,1441792,-93,-56,-1,-1,0
1523613149198,1835008,-93,-56,-1,-1,0
1523613149238,2228224,-93,-56,-1,-1,0
1523613149238,2555904,-93,-56,-1,-1,0
1523613149238,2752512,-93,-56,-1,-1,0
1523613149238,2818048,-93,-56,-1,-1,0
1523613149238,2752512,-93,-56,-1,-1,0
1523613149278,2686976,-93,-56,-1,-1,0
1523613149278,2621440,-93,-56,-1,-1,0
1523613149278,2359296,-93,-56,-1,-1,0
1523613149278,1900544,-93,-56,-1,-1,0
1523613149278,1441792,-93,-56,-1,-1,0
1523613149318,1179648,-93,-56,-1,-1,0
1523613149318,917504,-93,-56,-1,-1,0
1523613149318,589824,-93,-56,-1,-1,0
1523613149318,393216,-93,-56,-1,-1,0
1523613149318,262144,-93,-56,-1,-1,0
1523613149358,262144,-93,-56,-1,-1,0
1523613149358,262144,-93,-56,-1,-1,0
1523613149358,262144,-93,-56,-1,-1,0
1523613149358,196608,-93,-56,-1,-1,0
1523613149358,65536,-93,-56,-1,-1,0
1523613149398,0,-93,-56,-1,-1,0
1523613149398,-65536,-93,-56,-1,-1,0
1523613149398,-131072,-93,-56,-1,-1,0
1523613149398,-196608,-93,-56,-1,-1,0
1523613149398,-196608,-93,-56,-1,-1,0
1523613149438,-262144,-93,-56,-1,-1,0
1523613149438,-720896,-93,-56,-1,-1,0
1523613149438,-1507328,-93,-56,-1,-1,0
1523613149438,-1572864,-93,-56,-1,-1,0
1523613149438,458752,-93,-56,-1,-1,0
1523613149478,3342336,-93,-56,-1,-1,0
1523613149478,3342336,-93,-56,-1,-1,0
1523613149478,458752,-93,-56,-1,-1,0
1523613149478,-1900544,-93,-56,-1,-1,0
1523613149478,-2228224,-93,-56,-1,-1,0
1523613149518,-1769472,-93,-56,-1,-1,0
1523613149518,-1114112,-93,-56,-1,-1,0
1523613149518,-655360,-93,-56,-1,-1,0
1523613149518,-524288,-93,-56,-1,-1,0
1523613149518,-458752,-93,-56,-1,-1,0
1523613149566,-327680,-93,-56,-1,-1,0
1523613149566,-131072,-93,-56,-1,-1,0
1523613149566,65536,-93,-56,-1,-1,0
1523613149566,327680,-93,-56,-1,-1,0
1523613149566,524288,-93,-56,-1,-1,0
1523613149598,720896,-93,-56,-1,-1,0
1523613149598,851968,-93,-56,-1,-1,0
1523613149598,1048576,-93,-56,-1,-1,0
1523613149598,1114112,-93,-56,-1,-1,0
1523613149598,983040,-93,-56,-1,-1,0
1523613149638,917504,-93,-56,-1,-1,0
1523613149638,786432,-93,-56,-1,-1,0
1523613149638,655360,-93,-56,-1,-1,0
1523613149638,327680,-93,-56,-1,-1,0
1523613149638,0,-93,-56,-1,-1,0
1523613149678,-131072,-93,-56,-1,-1,0
1523613149678,-262144,-93,-56,-1,-1,0
1523613149678,-393216,-93,-56,-1,-1,0
1523613149678,-393216,-93,-56,-1,-1,0
1523613149678,-458752,-93,-56,-1,-1,0
1523613149718,-393216,-93,-56,-1,-1,0
1523613149718,-393216,-93,-56,-1,-1,0
1523613149718,-327680,-93,-56,-1,-1,0
1523613149718,-327680,-93,-56,-1,-1,0
1523613149718,-327680,-93,-56,-1,-1,0
1523613149758,-327680,-93,-56,-1,-1,0
1523613149758,-327680,-93,-56,-1,-1,0
1523613149758,-327680,-93,-56,-1,-1,0
1523613149758,-327680,-93,-56,-1,-1,0
1523613149758,-327680,-93,-56,-1,-1,0
1523613149798,-327680,-93,-56,-1,-1,0
1523613149798,-589824,-93,-56,-1,-1,0
1523613149798,-1310720,-93,-56,-1,-1,0
1523613149798,-1769472,-93,-56,-1,-1,0
1523613149798,-262144,-93,-56,-1,-1,0
1523613149838,2621440,-93,-56,-1,-1,0
1523613149838,3604480,-93,-56,-1,-1,0
1523613149838,1245184,-93,-56,-1,-1,0
1523613149838,-1507328,-93,-56,-1,-1,0
1523613149838,-2293760,-93,-56,-1,-1,0
1523613149878,-1900544,-93,-56,-1,-1,0
1523613149878,-1310720,-93,-56,-1,-1,0
1523613149878,-786432,-93,-56,-1,-1,0
1523613149878,-524288,-93,-56,-1,-1,0
1523613149878,-393216,-93,-56,-1,-1,0
1523613149918,-327680,-93,-56,-1,-1,0
1523613149918,-196608,-93,-56,-1,-1,0
1523613149918,-65536,-93,-56,-1,-1,0
1523613149918,65536,-93,-56,-1,-1,0
1523613149918,262144,-93,-56,-1,-1,0
1523613149958,393216,-93,-56,-1,-1,0
1523613149958,589824,-93,-56,-1,-1,0
1523613149958,720896,-93,-56,-1,-1,0
1523613149958,786432,-93,-56,-1,-1,0
1523613149958,786432,-93,-56,-1,-1,0
1523613149998,786432,-93,-56,-1,-1,0
1523613149998,720896,-93,-56,-1,-1,0
1523613149998,655360,-93,-56,-1,-1,0
1523613149998,458752,-93,-56,-1,-1,0
1523613149998,196608,-93,-56,-1,-1,0
1523613150038,0,-93,-56,-1,-1,0
1523613150038,-196608,-93,-56,-1,-1,0
1523613150038,-262144,-93,-56,-1,-1,0
1523613150038,-327680,-93,-56,-1,-1,0
1523613150038,-458752,-93,-56,-1,-1,0
1523613150078,-458752,-93,-56,-1,-1,0
1523613150078,-393216,-93,-56,-1,-1,0
1523613150078,-393216,-93,-56,-1,-1,0
1523613150078,-393216,-93,-56,-1,-1,0
1523613150078,-327680,-93,-56,-1,-1,0
1523613150118,-393216,-93,-56,-1,-1,0
1523613150118,-458752,-93,-56,-1,-1,0
1523613150118,-458752,-93,-56,-1,-1,0
1523613150118,-458752,-93,-56,-1,-1,0
1523613150118,-458752,-93,-56,-1,-1,0
1523613150158,-524288,-93,-56,-1,-1,0
1523613150158,-589824,-93,-56,-1,-1,0
1523613150158,-1310720,-93,-56,-1,-1,0
1523613150158,-1966080,-93,-56,-1,-1,0
1523613150158,-1179648,-93,-56,-1,-1,0
1523613150206,1441792,-93,-56,-1,-1,0
1523613150206,3276800,-93,-56,-1,-1,0
1523613150206,1638400,-93,-56,-1,-1,0
1523613150206,-1245184,-93,-56,-1,-1,0
1523613150206,-2686976,-93,-56,-1,-1,0
1523613150238,-2424832,-93,-56,-1,-1,0
1523613150238,-1835008,-93,-56,-1,-1,0
1523613150238,-1310720,-93,-56,-1,-1,0
1523613150238,-983040,-93,-56,-1,-1,0
1523613150238,-851968,-93,-56,-1,-1,0
1523613150279,-786432,-93,-56,-1,-1,0
1523613150279,-786432,-93,-56,-1,-1,0
1523613150279,-720896,-93,-56,-1,-1,0
1523613150279,-589824,-93,-56,-1,-1,0
1523613150279,-327680,-93,-56,-1,-1,0
1523613150318,-131072,-93,-56,-1,-1,0
1523613150318,0,-93,-56,-1,-1,0
1523613150318,196608,-93,-56,-1,-1,0
1523613150318,393216,-93,-56,-1,-1,0
1523613150318,458752,-93,-56,-1,-1,0
1523613150358,393216,-93,-56,-1,-1,0
1523613150358,393216,-93,-56,-1,-1,0
1523613150358,327680,-93,-56,-1,-1,0
1523613150358,131072,-93,-56,-1,-1,0
1523613150358,-131072,-93,-56,-1,-1,0
1523613150398,-393216,-93,-56,-1,-1,0
1523613150398,-524288,-93,-56,-1,-1,0
1523613150398,-589824,-93,-56,-1,-1,0
1523613150398,-655360,-93,-56,-1,-1,0
1523613150398,-655360,-93,-56,-1,-1,0
1523613150438,-655360,-93,-56,-1,-1,0
1523613150438,-524288,-93,-56,-1,-1,0
1523613150438,-524288,-93,-56,-1,-1,0
1523613150438,-458752,-93,-56,-1,-1,0
1523613150438,-393216,-93,-56,-1,-1,0
1523613150479,-393216,-93,-56,-1,-1,0
1523613150479,-458752,-93,-56,-1,-1,0
1523613150479,-589824,-93,-56,-1,-1,0
1523613150479,-589824,-93,-56,-1,-1,0
1523613150479,-524288,-93,-56,-1,-1,0
1523613150518,-458752,-93,-56,-1,-1,0
1523613150518,-458752,-93,-56,-1,-1,0
1523613150518,-1048576,-93,-56,-1,-1,0
1523613150518,-1835008,-93,-56,-1,-1,0
1523613150518,-1179648,-93,-56,-1,-1,0
1523613150558,1572864,-93,-56,-1,-1,0
1523613150558,3801088,-93,-56,-1,-1,0
1523613150558,2555904,-93,-56,-1,-1,0
1523613150558,-589824,-93,-56,-1,-1,0
1523613150558,-2490368,-93,-56,-1,-1,0
1523613150598,-2359296,-93,-56,-1,-1,0
1523613150598,-1507328,-93,-56,-1,-1,0
1523613150598,-589824,-93,-56,-1,-1,0
1523613150598,-196608,-93,-56,-1,-1,0
1523613150598,-131072,-93,-56,-1,-1,0
1523613150638,0,-93,-56,-1,-1,0
1523613150638,65536,-93,-56,-1,-1,0
1523613150638,393216,-93,-56,-1,-1,0
1523613150638,655360,-93,-56,-1,-1,0
1523613150638,720896,-93,-56,-1,-1,0
1523613150678,786432,-93,-56,-1,-1,0
1523613150678,1048576,-93,-56,-1,-1,0
1523613150678,1245184,-93,-56,-1,-1,0
1523613150678,1507328,-93,-56,-1,-1,0
1523613150678,1572864,-93,-56,-1,-1,0
1523613150718,1507328,-93,-56,-1,-1,0
1523613150718,1441792,-93,-56,-1,-1,0
1523613150718,1572864,-93,-56,-1,-1,0
1523613150718,1376256,-93,-56,-1,-1,0
1523613150718,917504,-93,-56,-1,-1,0
1523613150758,524288,-93,-56,-1,-1,0
1523613150758,393216,-93,-56,-1,-1,0
1523613150758,327680,-93,-56,-1,-1,0
1523613150758,262144,-93,-56,-1,-1,0
1523613150758,196608,-93,-56,-1,-1,0
1523613150798,262144,-93,-56,-1,-1,0
1523613150798,458752,-93,-56,-1,-1,0
1523613150798,393216,-93,-56,-1,-1,0
1523613150798,327680,-93,-56,-1,-1,0
1523613150798,262144,-93,-56,-1,-1,0
1523613150846,131072,-93,-56,-1,-1,0
1523613150846,65536,-93,-56,-1,-1,0
1523613150846,0,-93,-56,-1,-1,0
1523613150846,0,-93,-56,-1,-1,0
1523613150846,-131072,-93,-56,-1,-1,0
1523613150878,-196608,-93,-56,-1,-1,0
1523613150878,-262144,-93,-56,-1,-1,0
1523613150878,-851968,-93,-56,-1,-1,0
1523613150878,-1507328,-93,-56,-1,-1,0
1523613150878,-720896,-93,-56,-1,-1,0
1523613150918,1769472,-93,-56,-1,-1,0
1523613150918,4128768,-93,-56,-1,-1,0
1523613150918,2883584,-93,-56,-1,-1,0
1523613150918,-262144,-93,-56,-1,-1,0
1523613150918,-2359296,-93,-56,-1,-1,0
1523613150958,-2359296,-93,-56,-1,-1,0
1523613150958,-1703936,-93,-56,-1,-1,0
1523613150958,-983040,-93,-56,-1,-1,0
1523613150958,-589824,-93,-56,-1,-1,0
1523613150958,-524288,-93,-56,-1,-1,0
1523613150998,-393216,-93,-56,-1,-1,0
1523613150998,-262144,-93,-56,-1,-1,0
1523613150998,-196608,-93,-56,-1,-1,0
1523613150998,0,-93,-56,-1,-1,0
1523613150998,131072,-93,-56,-1,-1,0
1523613151038,262144,-93,-56,-1,-1,0
1523613151038,458752,-93,-56,-1,-1,0
1523613151038,655360,-93,-56,-1,-1,0
1523613151038,786432,-93,-56,-1,-1,0
1523613151038,851968,-93,-56,-1,-1,0
1523613151078,786432,-93,-56,-1,-1,0
1523613151078,786432,-93,-56,-1,-1,0
1523613151078,786432,-93,-56,-1,-1,0
1523613151078,655360,-93,-56,-1,-1,0
1523613151078,327680,-93,-56,-1,-1,0
1523613151118,0,-93,-56,-1,-1,0
1523613151118,-262144,-93,-56,-1,-1,0
1523613151118,-327680,-93,-56,-1,-1,0
1523613151118,-327680,-93,-56,-1,-1,0
1523613151118,-327680,-93,-56,-1,-1,0
1523613151158,-262144,-93,-56,-1,-1,0
1523613151158,-131072,-93,-56,-1,-1,0
1523613151158,-65536,-93,-56,-1,-1,0
1523613151158,-65536,-93,-56,-1,-1,0
1523613151158,-131072,-93,-56,-1,-1,0
1523613151198,-131072,-93,-56,-1,-1,0
1523613151198,-131072,-93,-56,-1,-1,0
1523613151198,-196608,-93,-56,-1,-1,0
1523613151198,-327680,-93,-56,-1,-1,0
1523613151198,-393216,-93,-56,-1,-1,0
1523613151238,-458752,-93,-56,-1,-1,0
1523613151238,-524288,-93,-56,-1,-1,0
1523613151238,-917504,-93,-56,-1,-1,0
1523613151238,-1441792,-93,-56,-1,-1,0
1523613151238,-786432,-93,-56,-1,-1,0
1523613151278,1703936,-93,-56,-1,-1,0
1523613151278,3932160,-93,-56,-1,-1,0
1523613151278,2818048,-93,-56,-1,-1,0
1523613151278,-196608,-93,-56,-1,-1,0
1523613151278,-2162688,-93,-56,-1,-1,0
1523613151318,-2162688,-93,-56,-1,-1,0
1523613151318,-1572864,-93,-56,-1,-1,0
1523613151318,-917504,-93,-56,-1,-1,0
1523613151318,-589824,-93,-56,-1,-1,0
1523613151318,-458752,-93,-56,-1,-1,0
1523613151358,-393216,-93,-56,-1,-1,0
1523613151358,-262144,-93,-56,-1,-1,0
1523613151358,0,-93,-56,-1,-1,0
1523613151358,65536,-93,-56,-1,-1,0
1523613151358,196608,-93,-56,-1,-1,0
1523613151398,262144,-93,-56,-1,-1,0
1523613151398,458752,-93,-56,-1,-1,0
1523613151398,589824,-93,-56,-1,-1,0
1523613151398,720896,-93,-56,-1,-1,0
1523613151398,786432,-93,-56,-1,-1,0
1523613151438,851968,-93,-56,-1,-1,0
1523613151438,851968,-93,-56,-1,-1,0
1523613151438,851968,-93,-56,-1,-1,0
1523613151438,720896,-93,-56,-1,-1,0
1523613151438,458752,-93,-56,-1,-1,0
1523613151486,65536,-93,-56,-1,-1,0
1523613151486,-262144,-93,-56,-1,-1,0
1523613151486,-393216,-93,-56,-1,-1,0
1523613151486,-458752,-93,-56,-1,-1,0
1523613151486,-393216,-93,-56,-1,-1,0
1523613151518,-327680,-93,-56,-1,-1,0
1523613151518,-196608,-93,-56,-1,-1,0
1523613151518,-131072,-93,-56,-1,-1,0
1523613151518,-131072,-93,-56,-1,-1,0
1523613151518,-131072,-93,-56,-1,-1,0
1523613151558,-196608,-93,-56,-1,-1,0
1523613151558,-327680,-93,-56,-1,-1,0
1523613151558,-393216,-93,-56,-1,-1,0
1523613151558,-393216,-93,-56,-1,-1,0
1523613151558,-524288,-93,-56,-1,-1,0
1523613151598,-589824,-93,-56,-1,-1,0
1523613151598,-655360,-93,-56,-1,-1,0
1523613151598,-1048576,-93,-56,-1,-1,0
1523613151598,-1703936,-93,-56,-1,-1,0
1523613151598,-1376256,-93,-56,-1,-1,0
1523613151638,786432,-92,-56,-1,-1,0
1523613151638,3407872,-92,-56,-1,-1,0
1523613151638,2883584,-92,-56,-1,-1,0
1523613151638,-65536,-92,-56,-1,-1,0
1523613151638,-2424832,-92,-56,-1,-1,0
1523613151678,-2686976,-92,-56,-1,-1,0
1523613151678,-2162688,-92,-56,-1,-1,0
1523613151678,-1507328,-92,-56,-1,-1,0
1523613151678,-983040,-92,-56,-1,-1,0
1523613151678,-720896,-92,-56,-1,-1,0
1523613151718,-655360,-92,-56,-1,-1,0
1523613151718,-589824,-92,-56,-1,-1,0
1523613151718,-393216,-92,-56,-1,-1,0
1523613151718,-262144,-92,-56,-1,-1,0
1523613151718,-131072,-92,-56,-1,-1,0
1523613151758,0,-92,-56,-1,-1,0
1523613151758,131072,-92,-56,-1,-1,0
1523613151758,393216,-92,-56,-1,-1,0
1523613151758,589824,-92,-56,-1,-1,0
1523613151758,655360,-92,-56,-1,-1,0
1523613151798,655360,-92,-56,-1,-1,0
1523613151798,655360,-92,-56,-1,-1,0
1523613151798,720896,-92,-56,-1,-1,0
1523613151798,589824,-92,-56,-1,-1,0
1523613151798,327680,-92,-56,-1,-1,0
1523613151838,0,-92,-56,-1,-1,0
1523613151838,-262144,-92,-56,-1,-1,0
1523613151838,-393216,-92,-56,-1,-1,0
1523613151838,-393216,-92,-56,-1,-1,0
1523613151838,-458752,-92,-56,-1,-1,0
1523613151878,-458752,-92,-56,-1,-1,0
1523613151878,-393216,-92,-56,-1,-1,0
1523613151878,-327680,-92,-56,-1,-1,0
1523613151878,-393216,-92,-56,-1,-1,0
1523613151878,-458752,-92,-56,-1,-1,0
1523613151917,-524288,-92,-56,-1,-1,0
1523613151917,-589824,-92,-56,-1,-1,0
1523613151917,-720896,-92,-56,-1,-1,0
1523613151917,-786432,-92,-56,-1,-1,0
1523613151917,-851968,-92,-56,-1,-1,0
1523613151957,-786432,-92,-56,-1,-1,0
1523613151957,-917504,-92,-56,-1,-1,0
1523613151957,-1441792,-92,-56,-1,-1,0
1523613151957,-2162688,-92,-56,-1,-1,0
1523613151957,-1703936,-92,-56,-1,-1,0
1523613151997,720896,-92,-56,-1,-1,0
1523613151997,3342336,-92,-56,-1,-1,0
1523613151997,2686976,-92,-56,-1,-1,0
1523613151997,-196608,-92,-56,-1,-1,0
1523613151997,-2424832,-92,-56,-1,-1,0
1523613152037,-2686976,-92,-56,-1,-1,0
1523613152037,-2293760,-92,-56,-1,-1,0
1523613152037,-1703936,-92,-56,-1,-1,0
1523613152037,-1245184,-92,-56,-1,-1,0
1523613152037,-1048576,-92,-56,-1,-1,0
1523613152077,-851968,-92,-56,-1,-1,0
1523613152077,-720896,-92,-56,-1,-1,0
1523613152077,-589824,-92,-56,-1,-1,0
1523613152077,-458752,-92,-56,-1,-1,0
1523613152077,-327680,-92,-56,-1,-1,0
1523613152126,-196608,-92,-56,-1,-1,0
1523613152126,-65536,-92,-56,-1,-1,0
1523613152126,131072,-92,-56,-1,-1,0
1523613152126,393216,-92,-56,-1,-1,0
1523613152126,524288,-92,-56,-1,-1,0
1523613152157,589824,-92,-56,-1,-1,0
1523613152157,524288,-92,-56,-1,-1,0
1523613152157,458752,-92,-56,-1,-1,0
1523613152157,393216,-92,-56,-1,-1,0
1523613152157,131072,-92,-56,-1,-1,0
1523613152197,-65536,-92,-56,-1,-1,0
1523613152197,-327680,-92,-56,-1,-1,0
1523613152197,-458752,-92,-56,-1,-1,0
1523613152197,-589824,-92,-56,-1,-1,0
1523613152197,-589824,-92,-56,-1,-1,0
1523613152237,-524288,-92,-56,-1,-1,0
1523613152237,-393216,-92,-56,-1,-1,0
1523613152237,-262144,-92,-56,-1,-1,0
1523613152237,-131072,-92,-56,-1,-1,0
1523613152237,-131072,-92,-56,-1,-1,0
1523613152277,-131072,-92,-56,-1,-1,0
1523613152277,-196608,-92,-56,-1,-1,0
1523613152277,-262144,-92,-56,-1,-1,0
1523613152277,-196608,-92,-56,-1,-1,0
1523613152277,-131072,-92,-56,-1,-1,0
1523613152317,-131072,-92,-56,-1,-1,0
1523613152317,-131072,-92,-56,-1,-1,0
1523613152317,-458752,-92,-56,-1,-1,0
1523613152317,-1179648,-92,-56,-1,-1,0
1523613152317,-1114112,-92,-56,-1,-1,0
1523613152357,917504,-92,-56,-1,-1,0
1523613152357,3866624,-92,-56,-1,-1,0
1523613152357,4194304,-92,-56,-1,-1,0
1523613152357,1441792,-92,-56,-1,-1,0
1523613152357,-1245184,-92,-56,-1,-1,0
1523613152399,-1835008,-92,-56,-1,-1,0
1523613152399,-1376256,-92,-56,-1,-1,0
1523613152399,-720896,-92,-56,-1,-1,0
1523613152399,-131072,-92,-56,-1,-1,0
1523613152399,65536,-92,-56,-1,-1,0
1523613152437,196608,-92,-56,-1,-1,0
1523613152437,327680,-92,-56,-1,-1,0
1523613152437,458752,-92,-56,-1,-1,0
1523613152437,655360,-92,-56,-1,-1,0
1523613152437,720896,-92,-56,-1,-1,0
1523613152480,851968,-92,-56,-1,-1,0
1523613152480,1114112,-92,-56,-1,-1,0
1523613152480,1376256,-92,-56,-1,-1,0
1523613152480,1572864,-92,-56,-1,-1,0
1523613152480,1769472,-92,-56,-1,-1,0
1523613152517,1769472,-92,-56,-1,-1,0
1523613152517,1703936,-92,-56,-1,-1,0
1523613152517,1572864,-92,-56,-1,-1,0
1523613152517,1441792,-92,-56,-1,-1,0
1523613152517,1245184,-92,-56,-1,-1,0
1523613152557,917504,-92,-56,-1,-1,0
1523613152557,655360,-92,-56,-1,-1,0
1523613152557,524288,-92,-56,-1,-1,0
1523613152557,524288,-92,-56,-1,-1,0
1523613152557,458752,-92,-56,-1,-1,0
1523613152597,524288,-92,-56,-1,-1,0
1523613152597,589824,-92,-56,-1,-1,0
1523613152597,720896,-92,-56,-1,-1,0
1523613152597,786432,-92,-56,-1,-1,0
1523613152597,851968,-92,-56,-1,-1,0
1523613152637,851968,-92,-56,-1,-1,0
1523613152637,786432,-92,-56,-1,-1,0
1523613152637,786432,-92,-56,-1,-1,0
1523613152637,786432,-92,-56,-1,-1,0
1523613152637,720896,-92,-56,-1,-1,0
1523613152679,720896,-92,-56,-1,-1,0
1523613152679,720896,-92,-56,-1,-1,0
1523613152679,393216,-92,-56,-1,-1,0
1523613152679,-327680,-92,-56,-1,-1,0
1523613152679,-458752,-92,-56,-1,-1,0
1523613152717,1441792,-92,-56,-1,-1,0
1523613152717,4521984,-92,-56,-1,-1,0
1523613152717,5111808,-92,-56,-1,-1,0
1523613152717,2424832,-92,-56,-1,-1,0
1523613152717,-458752,-92,-56,-1,-1,0
1523613152766,-1245184,-92,-56,-1,-1,0
1523613152766,-851968,-92,-56,-1,-1,0
1523613152766,-262144,-92,-56,-1,-1,0
1523613152766,196608,-92,-56,-1,-1,0
1523613152766,393216,-92,-56,-1,-1,0
1523613152797,524288,-92,-56,-1,-1,0
1523613152797,655360,-92,-56,-1,-1,0
1523613152797,786432,-92,-56,-1,-1,0
1523613152797,917504,-92,-56,-1,-1,0
1523613152797,1048576,-92,-56,-1,-1,0
1523613152837,1179648,-92,-56,-1,-1,0
1523613152837,1310720,-92,-56,-1,-1,0
1523613152837,1572864,-92,-56,-1,-1,0
1523613152837,1835008,-92,-56,-1,-1,0
1523613152837,1966080,-92,-56,-1,-1,0
1523613152877,1900544,-92,-56,-1,-1,0
1523613152877,1835008,-92,-56,-1,-1,0
1523613152877,1769472,-92,-56,-1,-1,0
1523613152877,1638400,-92,-56,-1,-1,0
1523613152877,1376256,-92,-56,-1,-1,0
1523613152917,1114112,-92,-56,-1,-1,0
1523613152917,786432,-92,-56,-1,-1,0
1523613152917,589824,-92,-56,-1,-1,0
1523613152917,458752,-92,-56,-1,-1,0
1523613152917,327680,-92,-56,-1,-1,0
1523613152957,327680,-92,-56,-1,-1,0
1523613152957,458752,-92,-56,-1,-1,0
1523613152957,589824,-92,-56,-1,-1,0
1523613152957,655360,-92,-56,-1,-1,0
1523613152957,655360,-92,-56,-1,-1,0
1523613152997,589824,-92,-56,-1,-1,0
1523613152997,524288,-92,-56,-1,-1,0
1523613152997,458752,-92,-56,-1,-1,0
1523613152997,393216,-92,-56,-1,-1,0
1523613152997,327680,-92,-56,-1,-1,0
1523613153037,262144,-92,-56,-1,-1,0
1523613153037,131072,-92,-56,-1,-1,0
1523613153037,0,-92,-56,-1,-1,0
1523613153037,-655360,-92,-56,-1,-1,0
1523613153037,-1245184,-92,-56,-1,-1,0
1523613153077,-393216,-92,-56,-1,-1,0
1523613153077,2424832,-92,-56,-1,-1,0
1523613153077,4456448,-92,-56,-1,-1,0
1523613153077,2883584,-92,-56,-1,-1,0
1523613153077,-327680,-92,-56,-1,-1,0
1523613153117,-1966080,-92,-56,-1,-1,0
1523613153117,-1900544,-92,-56,-1,-1,0
1523613153117,-1376256,-92,-56,-1,-1,0
1523613153117,-786432,-92,-56,-1,-1,0
1523613153117,-458752,-92,-56,-1,-1,0
1523613153157,-327680,-92,-56,-1,-1,0
1523613153157,-196608,-92,-56,-1,-1,0
1523613153157,-65536,-92,-56,-1,-1,0
1523613153157,0,-92,-56,-1,-1,0
1523613153157,0,-92,-56,-1,-1,0
1523613153197,65536,-92,-56,-1,-1,0
1523613153197,262144,-92,-56,-1,-1,0
1523613153197,458752,-92,-56,-1,-1,0
1523613153197,720896,-92,-56,-1,-1,0
1523613153197,851968,-92,-56,-1,-1,0
1523613153237,917504,-92,-56,-1,-1,0
1523613153237,851968,-92,-56,-1,-1,0
1523613153237,786432,-92,-56,-1,-1,0
1523613153237,655360,-92,-56,-1,-1,0
1523613153237,458752,-92,-56,-1,-1,0
1523613153277,196608,-92,-56,-1,-1,0
1523613153277,0,-92,-56,-1,-1,0
1523613153277,-262144,-92,-56,-1,-1,0
1523613153277,-393216,-92,-56,-1,-1,0
1523613153277,-393216,-92,-56,-1,-1,0
1523613153319,-393216,-92,-56,-1,-1,0
1523613153319,-327680,-92,-56,-1,-1,0
1523613153319,-262144,-92,-56,-1,-1,0
1523613153319,-196608,-92,-56,-1,-1,0
1523613153319,-131072,-92,-56,-1,-1,0
1523613153357,-131072,-92,-56,-1,-1,0
1523613153357,-131072,-92,-56,-1,-1,0
1523613153357,-196608,-92,-56,-1,-1,0
1523613153357,-262144,-92,-56,-1,-1,0
1523613153357,-262144,-92,-56,-1,-1,0
1523613153406,-393216,-92,-56,-1,-1,0
1523613153406,-393216,-92,-56,-1,-1,0
1523613153406,-458752,-92,-56,-1,-1,0
1523613153406,-655360,-92,-56,-1,-1,0
1523613153406,-1310720,-92,-56,-1,-1,0
1523613153437,-1835008,-92,-56,-1,-1,0
1523613153437,-720896,-92,-56,-1,-1,0
1523613153437,2228224,-92,-56,-1,-1,0
1523613153437,4259840,-92,-56,-1,-1,0
1523613153437,2818048,-92,-56,-1,-1,0
1523613153477,-327680,-92,-56,-1,-1,0
1523613153477,-2228224,-92,-56,-1,-1,0
1523613153477,-2293760,-92,-56,-1,-1,0
1523613153477,-1703936,-92,-56,-1,-1,0
1523613153477,-1048576,-92,-56,-1,-1,0
1523613153517,-720896,-92,-56,-1,-1,0
1523613153517,-589824,-92,-56,-1,-1,0
1523613153517,-458752,-92,-56,-1,-1,0
1523613153517,-327680,-92,-56,-1,-1,0
1523613153517,-196608,-92,-56,-1,-1,0
1523613153557,-131072,-92,-56,-1,-1,0
1523613153557,0,-92,-56,-1,-1,0
1523613153557,131072,-92,-56,-1,-1,0
1523613153557,327680,-92,-56,-1,-1,0
1523613153557,524288,-92,-56,-1,-1,0
1523613153597,720896,-92,-56,-1,-1,0
1523613153597,917504,-92,-56,-1,-1,0
1523613153597,983040,-92,-56,-1,-1,0
1523613153597,917504,-92,-56,-1,-1,0
1523613153597,786432,-92,-56,-1,-1,0
1523613153637,524288,-92,-56,-1,-1,0
1523613153637,196608,-92,-56,-1,-1,0
1523613153637,0,-92,-56,-1,-1,0
1523613153637,0,-92,-56,-1,-1,0
1523613153637,0,-92,-56,-1,-1,0
1523613153677,-65536,-92,-56,-1,-1,0
1523613153677,-131072,-92,-56,-1,-1,0
1523613153677,-196608,-92,-56,-1,-1,0
1523613153677,-262144,-92,-56,-1,-1,0
1523613153677,-131072,-92,-56,-1,-1,0
1523613153717,0,-92,-56,-1,-1,0
1523613153717,0,-92,-56,-1,-1,0
1523613153717,0,-92,-56,-1,-1,0
1523613153717,65536,-92,-56,-1,-1,0
1523613153717,0,-92,-56,-1,-1,0
1523613153757,0,-92,-56,-1,-1,0
1523613153757,-65536,-92,-56,-1,-1,0
1523613153757,-131072,-92,-56,-1,-1,0
1523613153757,-196608,-92,-56,-1,-1,0
1523613153757,-131072,-92,-56,-1,-1,0
1523613153797,-458752,-92,-56,-1,-1,0
1523613153797,-1245184,-92,-56,-1,-1,0
1523613153797,-983040,-92,-56,-1,-1,0
1523613153797,1245184,-92,-56,-1,-1,0
1523613153797,3997696,-92,-56,-1,-1,0
1523613153837,3801088,-92,-56,-1,-1,0
1523613153837,851968,-92,-56,-1,-1,0
1523613153837,-1638400,-92,-56,-1,-1,0
1523613153837,-2097152,-92,-56,-1,-1,0
1523613153837,-1638400,-92,-56,-1,-1,0
1523613153877,-1114112,-92,-56,-1,-1,0
1523613153877,-655360,-92,-56,-1,-1,0
1523613153877,-393216,-92,-56,-1,-1,0
1523613153877,-65536,-92,-56,-1,-1,0
1523613153877,0,-92,-56,-1,-1,0
1523613153917,0,-92,-56,-1,-1,0
1523613153917,65536,-92,-56,-1,-1,0
1523613153917,327680,-92,-56,-1,-1,0
1523613153917,655360,-92,-56,-1,-1,0
1523613153917,851968,-92,-56,-1,-1,0
1523613153957,1048576,-92,-56,-1,-1,0
1523613153957,1245184,-92,-56,-1,-1,0
1523613153957,1507328,-92,-56,-1,-1,0
1523613153957,1441792,-92,-56,-1,-1,0
1523613153957,1179648,-92,-56,-1,-1,0
1523613153997,1114112,-92,-56,-1,-1,0
1523613153997,1114112,-92,-56,-1,-1,0
1523613153997,851968,-92,-56,-1,-1,0
1523613153997,589824,-92,-56,-1,-1,0
1523613153997,196608,-92,-56,-1,-1,0
1523613154046,0,-92,-56,-1,-1,0
1523613154046,0,-92,-56,-1,-1,0
1523613154046,131072,-92,-56,-1,-1,0
1523613154046,131072,-92,-56,-1,-1,0
1523613154046,131072,-92,-56,-1,-1,0
1523613154077,196608,-92,-56,-1,-1,0
1523613154077,327680,-92,-56,-1,-1,0
1523613154077,458752,-92,-56,-1,-1,0
1523613154077,458752,-92,-56,-1,-1,0
1523613154077,262144,-92,-56,-1,-1,0
1523613154117,131072,-92,-56,-1,-1,0
1523613154117,131072,-92,-56,-1,-1,0
1523613154117,131072,-92,-56,-1,-1,0
1523613154117,131072,-92,-56,-1,-1,0
1523613154117,0,-92,-56,-1,-1,0
1523613154157,-65536,-92,-56,-1,-1,0
1523613154157,-262144,-92,-56,-1,-1,0
1523613154157,-983040,-92,-56,-1,-1,0
1523613154157,-1114112,-92,-56,-1,-1,0
1523613154157,917504,-92,-56,-1,-1,0
1523613154199,4259840,-92,-56,-1,-1,0
1523613154199,5177344,-92,-56,-1,-1,0
1523613154199,2293760,-92,-56,-1,-1,0
1523613154199,-983040,-92,-56,-1,-1,0
1523613154199,-1966080,-92,-56,-1,-1,0
1523613154237,-1441792,-92,-56,-1,-1,0
1523613154237,-851968,-92,-56,-1,-1,0
1523613154237,-524288,-92,-56,-1,-1,0
1523613154237,-458752,-92,-56,-1,-1,0
1523613154237,-327680,-92,-56,-1,-1,0
1523613154277,-196608,-92,-56,-1,-1,0
1523613154277,-131072,-92,-56,-1,-1,0
1523613154277,0,-92,-56,-1,-1,0
1523613154277,0,-92,-56,-1,-1,0
1523613154277,65536,-92,-56,-1,-1,0
1523613154318,262144,-92,-56,-1,-1,0
1523613154318,458752,-92,-56,-1,-1,0
1523613154318,655360,-92,-56,-1,-1,0
1523613154318,786432,-92,-56,-1,-1,0
1523613154318,786432,-92,-56,-1,-1,0
1523613154357,786432,-92,-56,-1,-1,0
1523613154357,720896,-92,-56,-1,-1,0
1523613154357,524288,-92,-56,-1,-1,0
1523613154357,327680,-92,-56,-1,-1,0
1523613154357,65536,-92,-56,-1,-1,0
1523613154397,-131072,-92,-56,-1,-1,0
1523613154397,-393216,-92,-56,-1,-1,0
1523613154397,-524288,-92,-56,-1,-1,0
1523613154397,-524288,-92,-56,-1,-1,0
1523613154397,-524288,-92,-56,-1,-1,0
1523613154437,-458752,-92,-56,-1,-1,0
1523613154437,-327680,-92,-56,-1,-1,0
1523613154437,-196608,-92,-56,-1,-1,0
1523613154437,-131072,-92,-56,-1,-1,0
1523613154437,-65536,-92,-56,-1,-1,0
1523613154477,-131072,-92,-56,-1,-1,0
1523613154477,-262144,-92,-56,-1,-1,0
1523613154477,-327680,-92,-56,-1,-1,0
1523613154477,-393216,-92,-56,-1,-1,0
1523613154477,-524288,-92,-56,-1,-1,0
1523613154517,-524288,-92,-56,-1,-1,0
1523613154517,-524288,-92,-56,-1,-1,0
1523613154517,-655360,-92,-56,-1,-1,0
1523613154517,-1179648,-92,-56,-1,-1,0
1523613154517,-1769472,-92,-56,-1,-1,0
1523613154557,-1048576,-92,-56,-1,-1,0
1523613154557,1769472,-92,-56,-1,-1,0
1523613154557,4456448,-92,-56,-1,-1,0
1523613154557,3538944,-92,-56,-1,-1,0
1523613154557,262144,-92,-56,-1,-1,0
1523613154597,-2031616,-92,-56,-1,-1,0
1523613154597,-2293760,-92,-56,-1,-1,0
1523613154597,-1835008,-92,-56,-1,-1,0
1523613154597,-1376256,-92,-56,-1,-1,0
