milliseconds, ECG, ECG HR, PPG, PPG HR, SpO2, PI
0,-1703936,106,-56,-1,-1,0
33,-2228224,106,-56,-1,-1,0
66,18153472,106,-56,-1,-1,0
100,-2490368,106,-56,-1,-1,0
133,-2359296,106,-56,-1,-1,0
166,-1245184,106,-56,-1,-1,0
200,1310720,106,-56,-1,-1,0
233,1245184,106,-56,-1,-1,0
266,-131072,106,-56,-1,-1,0
300,-1572864,106,-56,-1,-1,0
333,-1048576,106,-56,-1,-1,0
366,-1114112,106,-56,-1,-1,0
400,-1114112,106,-56,-1,-1,0
433,-1441792,106,-56,-1,-1,0
466,-1572864,106,-56,-1,-1,0
500,-1703936,106,-56,-1,-1,0
533,-1507328,106,-56,-1,-1,0
566,-1703936,106,-56,-1,-1,0
600,6815744,106,-56,-1,-1,0
633,-131072,106,-56,-1,-1,0
666,-2162688,106,-56,-1,-1,0
700,-1441792,106,-56,-1,-1,0
733,393216,106,-56,-1,-1,0
766,2359296,106,-56,-1,-1,0
800,524288,106,-56,-1,-1,0
833,-524288,106,-56,-1,-1,0
866,-393216,106,-56,-1,-1,0
900,-524288,106,-56,-1,-1,0
933,-655360,106,-56,-1,-1,0
966,-1114112,106,-56,-1,-1,0
1000,-983040,106,-56,-1,-1,0
1033,-1114112,106,-56,-1,-1,0
1066,-1441792,106,-56,-1,-1,0
1100,-1376256,106,-56,-1,-1,0
1133,-1441792,105,-56,-1,-1,0
1166,6291456,105,-56,-1,-1,0
1200,786432,105,-56,-1,-1,0
1233,-1900544,105,-56,-1,-1,0
1266,-1441792,105,-56,-1,-1,0
1300,393216,105,-56,-1,-1,0
1333,2686976,105,-56,-1,-1,0
1366,524288,105,-56,-1,-1,0
1400,-589824,105,-56,-1,-1,0
1433,-589824,105,-56,-1,-1,0
1466,-983040,105,-56,-1,-1,0
1500,-1310720,105,-56,-1,-1,0
1533,-1703936,105,-56,-1,-1,0
1566,-1835008,105,-56,-1,-1,0
1600,-1835008,105,-56,-1,-1,0
1633,-1835008,105,-56,-1,-1,0
1666,-1638400,104,-56,-1,-1,0
1700,-2031616,104,-56,-1,-1,0
1733,5046272,104,-56,-1,-1,0
1766,458752,104,-56,-1,-1,0
1800,-2031616,104,-56,-1,-1,0
1833,-917504,104,-56,-1,-1,0
1866,1048576,104,-56,-1,-1,0
1900,3145728,104,-56,-1,-1,0
1933,1310720,104,-56,-1,-1,0
1966,65536,104,-56,-1,-1,0
2000,393216,104,-56,-1,-1,0
2033,458752,104,-56,-1,-1,0
2066,0,104,-56,-1,-1,0
2100,-393216,104,-56,-1,-1,0
2133,-917504,104,-56,-1,-1,0
2166,-1441792,104,-56,-1,-1,0
2200,-1507328,104,-56,-1,-1,0
2233,-1376256,103,-56,-1,-1,0
2266,-2162688,103,-56,-1,-1,0
2300,15728640,103,-56,-1,-1,0
2333,-2752512,103,-56,-1,-1,0
2366,-2293760,103,-56,-1,-1,0
2400,-1572864,103,-56,-1,-1,0
2433,1507328,103,-56,-1,-1,0
2466,1638400,103,-56,-1,-1,0
2500,-524288,103,-56,-1,-1,0
2533,-589824,103,-56,-1,-1,0
2566,-1441792,103,-56,-1,-1,0
2600,-1114112,103,-56,-1,-1,0
2633,-1441792,103,-56,-1,-1,0
2666,-983040,103,-56,-1,-1,0
2700,-1572864,103,-56,-1,-1,0
2733,-720896,103,-56,-1,-1,0
2766,-851968,102,-56,-1,-1,0
2800,-1245184,102,-56,-1,-1,0
2833,2162688,102,-56,-1,-1,0
2866,589824,102,-56,-1,-1,0
2900,-2686976,102,-56,-1,-1,0
2933,-1376256,102,-56,-1,-1,0
2966,196608,102,-56,-1,-1,0
3000,2621440,102,-56,-1,-1,0
3033,917504,102,-56,-1,-1,0
3066,-65536,102,-56,-1,-1,0
3100,-655360,102,-56,-1,-1,0
3133,-851968,102,-56,-1,-1,0
3166,-1048576,102,-56,-1,-1,0
3200,-1179648,102,-56,-1,-1,0
3233,-1638400,102,-56,-1,-1,0
3266,-1114112,101,-56,-1,-1,0
3300,-1310720,101,-56,-1,-1,0
3333,-1572864,101,-56,-1,-1,0
3366,6881280,101,-56,-1,-1,0
3400,-1966080,101,-56,-1,-1,0
3433,-2162688,101,-56,-1,-1,0
3466,-1638400,101,-56,-1,-1,0
3500,720896,101,-56,-1,-1,0
3533,3276800,101,-56,-1,-1,0
3566,655360,101,-56,-1,-1,0
3600,-917504,101,-56,-1,-1,0
3633,-655360,101,-56,-1,-1,0
3666,-851968,101,-56,-1,-1,0
3699,-1245184,101,-56,-1,-1,0
3733,-1310720,101,-56,-1,-1,0
3766,-1507328,101,-56,-1,-1,0
3800,-983040,100,-56,-1,-1,0
3833,-1376256,100,-56,-1,-1,0
3866,-1638400,100,-56,-1,-1,0
3900,12779520,100,-56,-1,-1,0
3933,-2293760,100,-56,-1,-1,0
3966,-1769472,100,-56,-1,-1,0
4000,-327680,100,-56,-1,-1,0
4033,3211264,100,-56,-1,-1,0
4066,1507328,100,-56,-1,-1,0
4100,-589824,100,-56,-1,-1,0
4133,-589824,100,-56,-1,-1,0
4166,-786432,100,-56,-1,-1,0
4200,-917504,100,-56,-1,-1,0
4233,-917504,100,-56,-1,-1,0
4266,-1310720,100,-56,-1,-1,0
4300,-1114112,100,-56,-1,-1,0
4333,-1441792,100,-56,-1,-1,0
4366,-2228224,100,-56,-1,-1,0
4400,18284544,100,-56,-1,-1,0
4433,-2686976,100,-56,-1,-1,0
4466,-2031616,100,-56,-1,-1,0
4500,-1048576,100,-56,-1,-1,0
4533,2359296,100,-56,-1,-1,0
4566,2228224,100,-56,-1,-1,0
4600,0,100,-56,-1,-1,0
4633,-720896,100,-56,-1,-1,0
4666,-655360,100,-56,-1,-1,0
4700,-1048576,100,-56,-1,-1,0
4733,-1114112,100,-56,-1,-1,0
4766,-1441792,100,-56,-1,-1,0
4800,-1769472,99,-56,-1,-1,0
4833,-1507328,99,-56,-1,-1,0
4866,-2424832,99,-56,-1,-1,0
4900,17039360,99,-56,-1,-1,0
4933,-2686976,99,-56,-1,-1,0
4966,-1835008,99,-56,-1,-1,0
5000,-917504,99,-56,-1,-1,0
5033,2359296,99,-56,-1,-1,0
5066,2162688,99,-56,-1,-1,0
5100,-131072,99,-56,-1,-1,0
5133,-917504,99,-56,-1,-1,0
5166,-655360,99,-56,-1,-1,0
5200,-1376256,99,-56,-1,-1,0
5233,-1310720,99,-56,-1,-1,0
5266,-1245184,99,-56,-1,-1,0
5300,-1245184,98,-56,-1,-1,0
5333,-1572864,98,-56,-1,-1,0
5366,-2228224,98,-56,-1,-1,0
5400,16777216,98,-56,-1,-1,0
5433,-2686976,98,-56,-1,-1,0
5466,-2162688,98,-56,-1,-1,0
5500,-851968,98,-56,-1,-1,0
5533,2359296,98,-56,-1,-1,0
5566,1769472,98,-56,-1,-1,0
5600,-655360,98,-56,-1,-1,0
5633,-851968,98,-56,-1,-1,0
5666,-589824,98,-56,-1,-1,0
5700,-1310720,98,-56,-1,-1,0
5733,-1310720,98,-56,-1,-1,0
5766,-1441792,98,-56,-1,-1,0
5800,-1507328,98,-56,-1,-1,0
5833,-1572864,98,-56,-1,-1,0
5866,-2686976,98,-56,-1,-1,0
5900,16252928,98,-56,-1,-1,0
5933,-3014656,98,-56,-1,-1,0
5966,-2359296,98,-56,-1,-1,0
6000,-1179648,98,-56,-1,-1,0
6033,1769472,98,-56,-1,-1,0
6066,1507328,98,-56,-1,-1,0
6100,-524288,98,-56,-1,-1,0
6133,-851968,98,-56,-1,-1,0
6166,-655360,98,-56,-1,-1,0
6200,-589824,98,-56,-1,-1,0
6233,-983040,98,-56,-1,-1,0
6266,-1048576,98,-56,-1,-1,0
6300,-917504,98,-56,-1,-1,0
6333,-1179648,98,-56,-1,-1,0
6366,-1703936,98,-56,-1,-1,0
6400,16580608,98,-56,-1,-1,0
6433,-2228224,98,-56,-1,-1,0
6466,-1703936,98,-56,-1,-1,0
6500,-327680,98,-56,-1,-1,0
6533,2752512,98,-56,-1,-1,0
6566,2883584,98,-56,-1,-1,0
6600,196608,98,-56,-1,-1,0
6633,-851968,98,-56,-1,-1,0
6666,-851968,98,-56,-1,-1,0
6700,-1048576,98,-56,-1,-1,0
6733,-1376256,98,-56,-1,-1,0
6766,-1769472,98,-56,-1,-1,0
6800,-1507328,98,-56,-1,-1,0
6833,-1638400,98,-56,-1,-1,0
6866,-1638400,98,-56,-1,-1,0
6899,11927552,98,-56,-1,-1,0
6933,-2293760,98,-56,-1,-1,0
6966,-1966080,98,-56,-1,-1,0
7000,-786432,98,-56,-1,-1,0
7033,2424832,98,-56,-1,-1,0
7066,851968,98,-56,-1,-1,0
7100,-1048576,98,-56,-1,-1,0
7133,-1114112,98,-56,-1,-1,0
7166,-458752,98,-56,-1,-1,0
7200,-851968,98,-56,-1,-1,0
7233,-1376256,98,-56,-1,-1,0
7266,-1507328,98,-56,-1,-1,0
7300,-1638400,97,-56,-1,-1,0
7333,-1638400,97,-56,-1,-1,0
7366,1376256,97,-56,-1,-1,0
7399,4980736,97,-56,-1,-1,0
7433,-2490368,97,-56,-1,-1,0
7466,-1572864,97,-56,-1,-1,0
7500,-65536,97,-56,-1,-1,0
7533,2818048,97,-56,-1,-1,0
7566,589824,97,-56,-1,-1,0
7600,-786432,97,-56,-1,-1,0
7633,-851968,97,-56,-1,-1,0
7666,-655360,97,-56,-1,-1,0
7700,-983040,97,-56,-1,-1,0
7733,-1441792,97,-56,-1,-1,0
7766,-1572864,97,-56,-1,-1,0
7800,-1179648,97,-56,-1,-1,0
7833,-1376256,96,-56,-1,-1,0
7866,-2162688,96,-56,-1,-1,0
7899,18153472,96,-56,-1,-1,0
7933,-2490368,96,-56,-1,-1,0
7966,-2097152,96,-56,-1,-1,0
8000,-1048576,96,-56,-1,-1,0
8033,1507328,96,-56,-1,-1,0
8066,1966080,96,-56,-1,-1,0
8100,-65536,96,-56,-1,-1,0
8133,-655360,96,-56,-1,-1,0
8166,-393216,96,-56,-1,-1,0
8200,-720896,96,-56,-1,-1,0
8233,-1179648,96,-56,-1,-1,0
8266,-1245184,96,-56,-1,-1,0
8300,-1572864,96,-56,-1,-1,0
8333,-1376256,96,-56,-1,-1,0
8366,-1179648,97,-56,-1,-1,0
8400,-2293760,97,-56,-1,-1,0
8433,18415616,97,-56,-1,-1,0
8466,-2621440,97,-56,-1,-1,0
8500,-2293760,97,-56,-1,-1,0
8533,-1572864,97,-56,-1,-1,0
8566,1900544,97,-56,-1,-1,0
8600,1310720,97,-56,-1,-1,0
8633,-720896,97,-56,-1,-1,0
8666,-917504,97,-56,-1,-1,0
8700,-1048576,97,-56,-1,-1,0
8733,-1245184,97,-56,-1,-1,0
8766,-1114112,97,-56,-1,-1,0
8800,-1769472,97,-56,-1,-1,0
8833,-1441792,97,-56,-1,-1,0
8866,-1179648,97,-56,-1,-1,0
8900,-1376256,97,-56,-1,-1,0
8933,-1835008,97,-56,-1,-1,0
8966,16449536,97,-56,-1,-1,0
9000,-2424832,97,-56,-1,-1,0
9033,-1572864,97,-56,-1,-1,0
9066,-458752,97,-56,-1,-1,0
9100,2949120,97,-56,-1,-1,0
9133,2162688,97,-56,-1,-1,0
9166,131072,97,-56,-1,-1,0
9200,-720896,97,-56,-1,-1,0
9233,-262144,97,-56,-1,-1,0
9266,-917504,97,-56,-1,-1,0
9300,-1179648,97,-56,-1,-1,0
9333,-1441792,97,-56,-1,-1,0
9366,-1376256,97,-56,-1,-1,0
9400,-1310720,97,-56,-1,-1,0
9433,-1638400,97,-56,-1,-1,0
9466,9764864,97,-56,-1,-1,0
9500,-2359296,97,-56,-1,-1,0
9533,-1835008,97,-56,-1,-1,0
9566,-1310720,97,-56,-1,-1,0
9600,1245184,97,-56,-1,-1,0
9633,3145728,97,-56,-1,-1,0
9666,393216,97,-56,-1,-1,0
9700,-1179648,97,-56,-1,-1,0
9733,-589824,97,-56,-1,-1,0
9766,-589824,97,-56,-1,-1,0
9800,-1048576,97,-56,-1,-1,0
9833,-1638400,97,-56,-1,-1,0
9866,-1638400,97,-56,-1,-1,0
9900,-1638400,98,-56,-1,-1,0
9933,-1572864,98,-56,-1,-1,0
9966,1179648,98,-56,-1,-1,0
10000,4521984,98,-56,-1,-1,0
10033,-2490368,98,-56,-1,-1,0
10066,-1638400,98,-56,-1,-1,0
10100,0,98,-56,-1,-1,0
10133,3014656,98,-56,-1,-1,0
10166,983040,98,-56,-1,-1,0
10200,-786432,98,-56,-1,-1,0
10233,-851968,98,-56,-1,-1,0
10266,-720896,98,-56,-1,-1,0
10300,-851968,98,-56,-1,-1,0
10333,-1245184,98,-56,-1,-1,0
10366,-1179648,98,-56,-1,-1,0
10400,-983040,98,-56,-1,-1,0
10433,-1310720,98,-56,-1,-1,0
10466,-2097152,98,-56,-1,-1,0
10500,15269888,98,-56,-1,-1,0
10533,-2228224,98,-56,-1,-1,0
10566,-1507328,98,-56,-1,-1,0
10600,-589824,98,-56,-1,-1,0
10633,2752512,98,-56,-1,-1,0
10666,1900544,98,-56,-1,-1,0
10700,-262144,98,-56,-1,-1,0
10733,-851968,98,-56,-1,-1,0
10766,-589824,98,-56,-1,-1,0
10800,-851968,98,-56,-1,-1,0
10833,-983040,98,-56,-1,-1,0
10866,-1441792,98,-56,-1,-1,0
10900,-1179648,98,-56,-1,-1,0
10933,-1507328,98,-56,-1,-1,0
10966,-1769472,98,-56,-1,-1,0
11000,14680064,98,-56,-1,-1,0
11033,-2621440,98,-56,-1,-1,0
11066,-1966080,98,-56,-1,-1,0
11100,-917504,98,-56,-1,-1,0
11133,1638400,98,-56,-1,-1,0
11166,2621440,98,-56,-1,-1,0
11200,196608,98,-56,-1,-1,0
11233,-589824,98,-56,-1,-1,0
11266,-327680,98,-56,-1,-1,0
11300,-655360,98,-56,-1,-1,0
11333,-1114112,98,-56,-1,-1,0
11366,-1048576,98,-56,-1,-1,0
11400,-1179648,98,-56,-1,-1,0
11433,-1048576,98,-56,-1,-1,0
11466,-1245184,98,-56,-1,-1,0
11500,3801088,98,-56,-1,-1,0
11533,1441792,98,-56,-1,-1,0
11566,-2818048,98,-56,-1,-1,0
11600,-1703936,98,-56,-1,-1,0
11633,131072,98,-56,-1,-1,0
11666,2818048,98,-56,-1,-1,0
11700,262144,98,-56,-1,-1,0
11733,-786432,98,-56,-1,-1,0
11766,-851968,98,-56,-1,-1,0
11800,-720896,98,-56,-1,-1,0
11833,-1507328,98,-56,-1,-1,0
11866,-1835008,98,-56,-1,-1,0
11900,-2162688,98,-56,-1,-1,0
11933,-1769472,98,-56,-1,-1,0
11966,-2228224,98,-56,-1,-1,0
12000,-2949120,98,-56,-1,-1,0
12033,16449536,98,-56,-1,-1,0
12066,-3080192,98,-56,-1,-1,0
12100,-2686976,98,-56,-1,-1,0
12133,-1572864,98,-56,-1,-1,0
12166,1376256,98,-56,-1,-1,0
12200,1572864,98,-56,-1,-1,0
12233,-655360,98,-56,-1,-1,0
12266,-786432,98,-56,-1,-1,0
12300,-1114112,98,-56,-1,-1,0
12333,-1507328,98,-56,-1,-1,0
12366,-1441792,98,-56,-1,-1,0
12400,-1900544,98,-56,-1,-1,0
12433,-1179648,98,-56,-1,-1,0
12466,-1507328,98,-56,-1,-1,0
12500,-1769472,98,-56,-1,-1,0
12533,8650752,98,-56,-1,-1,0
12566,-2359296,98,-56,-1,-1,0
12600,-2097152,98,-56,-1,-1,0
12633,-1310720,98,-56,-1,-1,0
12666,1179648,98,-56,-1,-1,0
12700,3080192,98,-56,-1,-1,0
12733,589824,98,-56,-1,-1,0
12766,-589824,98,-56,-1,-1,0
12800,-458752,98,-56,-1,-1,0
12833,-655360,98,-56,-1,-1,0
12866,-983040,98,-56,-1,-1,0
12900,-1441792,98,-56,-1,-1,0
12933,-1245184,98,-56,-1,-1,0
12966,-1441792,98,-56,-1,-1,0
13000,-1441792,98,-56,-1,-1,0
13033,6815744,98,-56,-1,-1,0
13066,-1703936,98,-56,-1,-1,0
13100,-2031616,98,-56,-1,-1,0
13133,-1376256,98,-56,-1,-1,0
13166,589824,98,-56,-1,-1,0
13200,3014656,98,-56,-1,-1,0
13233,524288,98,-56,-1,-1,0
13266,-720896,98,-56,-1,-1,0
13299,-589824,98,-56,-1,-1,0
13333,-720896,98,-56,-1,-1,0
13366,-1114112,98,-56,-1,-1,0
13400,-1441792,98,-56,-1,-1,0
13433,-1310720,98,-56,-1,-1,0
13466,-1048576,98,-56,-1,-1,0
13500,-1441792,98,-56,-1,-1,0
13533,3670016,98,-56,-1,-1,0
13566,524288,98,-56,-1,-1,0
13600,-2621440,98,-56,-1,-1,0
13633,-1835008,98,-56,-1,-1,0
13666,0,98,-56,-1,-1,0
13700,2293760,98,-56,-1,-1,0
13733,720896,98,-56,-1,-1,0
13766,-720896,98,-56,-1,-1,0
13799,-524288,98,-56,-1,-1,0
13833,-524288,98,-56,-1,-1,0
13866,-589824,98,-56,-1,-1,0
13900,-1441792,98,-56,-1,-1,0
13933,-1048576,98,-56,-1,-1,0
13966,-1376256,98,-56,-1,-1,0
14000,-1572864,98,-56,-1,-1,0
14033,393216,98,-56,-1,-1,0
14066,6422528,98,-56,-1,-1,0
14100,-2424832,98,-56,-1,-1,0
14133,-2162688,98,-56,-1,-1,0
14166,-327680,98,-56,-1,-1,0
14200,2424832,98,-56,-1,-1,0
14233,720896,98,-56,-1,-1,0
14266,-1048576,98,-56,-1,-1,0
14299,-983040,98,-56,-1,-1,0
14333,-917504,98,-56,-1,-1,0
14366,-1114112,98,-56,-1,-1,0
14400,-1441792,98,-56,-1,-1,0
14433,-1638400,98,-56,-1,-1,0
14466,-1376256,98,-56,-1,-1,0
14500,-1376256,98,-56,-1,-1,0
14533,-1769472,98,-56,-1,-1,0
14566,13107200,98,-56,-1,-1,0
14600,-2228224,98,-56,-1,-1,0
14633,-1703936,98,-56,-1,-1,0
14666,-655360,98,-56,-1,-1,0
14700,2621440,98,-56,-1,-1,0
14733,1703936,98,-56,-1,-1,0
14766,0,98,-56,-1,-1,0
14799,-917504,98,-56,-1,-1,0
14833,-393216,98,-56,-1,-1,0
14866,-851968,98,-56,-1,-1,0
14900,-1376256,98,-56,-1,-1,0
14933,-1572864,98,-56,-1,-1,0
14966,-1310720,98,-56,-1,-1,0
15000,-1638400,98,-56,-1,-1,0
15033,-2424832,98,-56,-1,-1,0
15066,17956864,98,-56,-1,-1,0
15100,-2293760,98,-56,-1,-1,0
15133,-2031616,98,-56,-1,-1,0
15166,-917504,98,-56,-1,-1,0
15200,2162688,98,-56,-1,-1,0
15233,1769472,98,-56,-1,-1,0
15266,-524288,98,-56,-1,-1,0
15299,-851968,98,-56,-1,-1,0
15333,-327680,98,-56,-1,-1,0
15366,-786432,98,-56,-1,-1,0
15400,-1245184,98,-56,-1,-1,0
15433,-1376256,98,-56,-1,-1,0
15466,-1114112,98,-56,-1,-1,0
15500,-1507328,98,-56,-1,-1,0
15533,-1966080,98,-56,-1,-1,0
15566,16973824,98,-56,-1,-1,0
15600,-2162688,98,-56,-1,-1,0
15633,-2031616,98,-56,-1,-1,0
15666,-1048576,98,-56,-1,-1,0
15700,1835008,98,-56,-1,-1,0
15733,2359296,98,-56,-1,-1,0
15766,-131072,98,-56,-1,-1,0
15799,-983040,98,-56,-1,-1,0
15833,-983040,98,-56,-1,-1,0
15866,-851968,98,-56,-1,-1,0
15900,-851968,98,-56,-1,-1,0
15933,-1048576,98,-56,-1,-1,0
15966,-1376256,98,-56,-1,-1,0
16000,-1703936,98,-56,-1,-1,0
16033,-2031616,98,-56,-1,-1,0
16066,14942208,98,-56,-1,-1,0
16100,-2359296,98,-56,-1,-1,0
16133,-1769472,98,-56,-1,-1,0
16166,-851968,98,-56,-1,-1,0
16200,1572864,98,-56,-1,-1,0
16233,3080192,98,-56,-1,-1,0
16266,0,98,-56,-1,-1,0
16300,-917504,98,-56,-1,-1,0
16333,-589824,98,-56,-1,-1,0
16366,-655360,98,-56,-1,-1,0
16400,-1179648,98,-56,-1,-1,0
16433,-1507328,98,-56,-1,-1,0
16466,-1245184,98,-56,-1,-1,0
16500,-1835008,98,-56,-1,-1,0
16533,-2424832,98,-56,-1,-1,0
16566,10616832,98,-56,-1,-1,0
16600,-3801088,98,-56,-1,-1,0
16633,-3014656,98,-56,-1,-1,0
16666,-1572864,98,-56,-1,-1,0
16700,458752,98,-56,-1,-1,0
16733,2686976,98,-56,-1,-1,0
16766,458752,98,-56,-1,-1,0
16800,-720896,98,-56,-1,-1,0
16833,-327680,98,-56,-1,-1,0
16866,-720896,98,-56,-1,-1,0
16900,-786432,98,-56,-1,-1,0
16933,-1179648,98,-56,-1,-1,0
16966,-1048576,98,-56,-1,-1,0
17000,-1376256,98,-56,-1,-1,0
17033,-1900544,98,-56,-1,-1,0
17066,15204352,98,-56,-1,-1,0
17100,-2293760,98,-56,-1,-1,0
17133,-1900544,98,-56,-1,-1,0
17166,-589824,98,-56,-1,-1,0
17200,2424832,98,-56,-1,-1,0
17233,2031616,98,-56,-1,-1,0
17266,-131072,98,-56,-1,-1,0
17300,-917504,98,-56,-1,-1,0
17333,-786432,98,-56,-1,-1,0
17366,-1376256,98,-56,-1,-1,0
17400,-1507328,99,-56,-1,-1,0
17433,-1376256,99,-56,-1,-1,0
17466,-1310720,99,-56,-1,-1,0
17500,-1835008,99,-56,-1,-1,0
17533,17432576,99,-56,-1,-1,0
17566,-2490368,99,-56,-1,-1,0
17600,-2162688,99,-56,-1,-1,0
17633,-917504,99,-56,-1,-1,0
17666,1114112,99,-56,-1,-1,0
17700,1572864,99,-56,-1,-1,0
17733,-983040,99,-56,-1,-1,0
17766,-1441792,99,-56,-1,-1,0
17800,-983040,99,-56,-1,-1,0
17833,-983040,99,-56,-1,-1,0
17866,-1507328,99,-56,-1,-1,0
17900,-1376256,99,-56,-1,-1,0
17933,-1572864,99,-56,-1,-1,0
17966,-1900544,99,-56,-1,-1,0
18000,15007744,99,-56,-1,-1,0
18033,-2293760,99,-56,-1,-1,0
18066,-2228224,99,-56,-1,-1,0
18100,-1179648,99,-56,-1,-1,0
18133,786432,99,-56,-1,-1,0
18166,2097152,99,-56,-1,-1,0
18200,0,99,-56,-1,-1,0
18233,-851968,99,-56,-1,-1,0
18266,-851968,99,-56,-1,-1,0
18300,-983040,99,-56,-1,-1,0
18333,-1310720,99,-56,-1,-1,0
18366,-1572864,99,-56,-1,-1,0
18400,-1572864,99,-56,-1,-1,0
18433,-1966080,99,-56,-1,-1,0
18466,-1245184,99,-56,-1,-1,0
18500,9961472,99,-56,-1,-1,0
18533,-2621440,99,-56,-1,-1,0
18566,-1703936,99,-56,-1,-1,0
18600,-327680,99,-56,-1,-1,0
18633,2686976,99,-56,-1,-1,0
18666,1572864,99,-56,-1,-1,0
18700,-655360,99,-56,-1,-1,0
18733,-720896,99,-56,-1,-1,0
18766,-655360,99,-56,-1,-1,0
18800,-1114112,99,-56,-1,-1,0
18833,-1900544,100,-56,-1,-1,0
18866,-1638400,100,-56,-1,-1,0
18900,-1310720,100,-56,-1,-1,0
18933,-2228224,100,-56,-1,-1,0
18966,14352384,100,-56,-1,-1,0
19000,-2293760,100,-56,-1,-1,0
19033,-1900544,100,-56,-1,-1,0
19066,-983040,100,-56,-1,-1,0
19100,1376256,100,-56,-1,-1,0
19133,1638400,100,-56,-1,-1,0
19166,-393216,100,-56,-1,-1,0
19200,-917504,100,-56,-1,-1,0
19233,-1048576,100,-56,-1,-1,0
19266,-1376256,100,-56,-1,-1,0
19300,-1507328,100,-56,-1,-1,0
19333,-1114112,100,-56,-1,-1,0
19366,-2293760,100,-56,-1,-1,0
19400,-2555904,100,-56,-1,-1,0
19433,14680064,100,-56,-1,-1,0
19466,-3866624,100,-56,-1,-1,0
19500,-2686976,100,-56,-1,-1,0
19533,-655360,100,-56,-1,-1,0
19566,2490368,100,-56,-1,-1,0
19600,3014656,100,-56,-1,-1,0
19633,655360,100,-56,-1,-1,0
19666,-262144,100,-56,-1,-1,0
19700,-524288,100,-56,-1,-1,0
19733,-1507328,100,-56,-1,-1,0
19766,-1703936,100,-56,-1,-1,0
19800,-1507328,100,-56,-1,-1,0
19833,-1507328,100,-56,-1,-1,0
19866,262144,100,-56,-1,-1,0
19900,5767168,100,-56,-1,-1,0
19933,-2490368,100,-56,-1,-1,0
19966,-2031616,100,-56,-1,-1,0
20000,-327680,100,-56,-1,-1,0
20033,2424832,100,-56,-1,-1,0
20066,65536,100,-56,-1,-1,0
20100,-262144,100,-56,-1,-1,0
20133,-393216,100,-56,-1,-1,0
20166,-393216,101,-56,-1,-1,0
20200,-655360,101,-56,-1,-1,0
20233,-1179648,101,-56,-1,-1,0
20266,-458752,101,-56,-1,-1,0
20300,-1572864,101,-56,-1,-1,0
20333,15859712,101,-56,-1,-1,0
20366,-2555904,101,-56,-1,-1,0
20400,-2162688,101,-56,-1,-1,0
20433,-1179648,101,-56,-1,-1,0
20466,1572864,101,-56,-1,-1,0
20500,1769472,101,-56,-1,-1,0
20533,-917504,101,-56,-1,-1,0
20566,-917504,101,-56,-1,-1,0
20600,-720896,101,-56,-1,-1,0
20633,-1966080,102,-56,-1,-1,0
20666,-1572864,102,-56,-1,-1,0
20700,-1179648,102,-56,-1,-1,0
20733,-1310720,102,-56,-1,-1,0
20766,5439488,102,-56,-1,-1,0
20800,-196608,102,-56,-1,-1,0
20833,-1507328,102,-56,-1,-1,0
20866,-1441792,102,-56,-1,-1,0
20900,-327680,102,-56,-1,-1,0
20933,2097152,102,-56,-1,-1,0
20966,65536,102,-56,-1,-1,0
21000,-1179648,102,-56,-1,-1,0
21033,-917504,102,-56,-1,-1,0
21066,-851968,102,-56,-1,-1,0
21100,-1966080,103,-56,-1,-1,0
21133,-1703936,103,-56,-1,-1,0
21166,-1310720,103,-56,-1,-1,0
21200,-2228224,103,-56,-1,-1,0
21233,18153472,103,-56,-1,-1,0
21266,-2424832,103,-56,-1,-1,0
21300,-1769472,103,-56,-1,-1,0
21333,-983040,103,-56,-1,-1,0
21366,1507328,103,-56,-1,-1,0
21400,1835008,103,-56,-1,-1,0
21433,0,103,-56,-1,-1,0
21466,-720896,103,-56,-1,-1,0
21500,-983040,103,-56,-1,-1,0
21533,-1179648,103,-56,-1,-1,0
21566,-1310720,104,-56,-1,-1,0
21600,-1114112,104,-56,-1,-1,0
21633,-1376256,104,-56,-1,-1,0
21666,-1703936,104,-56,-1,-1,0
21700,7864320,104,-56,-1,-1,0
21733,-3211264,104,-56,-1,-1,0
21766,-2818048,104,-56,-1,-1,0
21800,-1179648,104,-56,-1,-1,0
21833,-65536,104,-56,-1,-1,0
21866,1441792,104,-56,-1,-1,0
21900,458752,104,-56,-1,-1,0
21933,-524288,104,-56,-1,-1,0
21966,-524288,104,-56,-1,-1,0
22000,-1114112,104,-56,-1,-1,0
22033,-1310720,104,-56,-1,-1,0
22066,-1179648,104,-56,-1,-1,0
22100,-1572864,104,-56,-1,-1,0
22133,-1441792,104,-56,-1,-1,0
22166,1310720,104,-56,-1,-1,0
22200,3080192,104,-56,-1,-1,0
22233,-2424832,104,-56,-1,-1,0
22266,-1769472,104,-56,-1,-1,0
22300,-458752,104,-56,-1,-1,0
22333,1900544,104,-56,-1,-1,0
22366,327680,104,-56,-1,-1,0
22400,-720896,104,-56,-1,-1,0
22433,-393216,104,-56,-1,-1,0
22466,-1376256,104,-56,-1,-1,0
22500,-1507328,105,-56,-1,-1,0
22533,-983040,105,-56,-1,-1,0
22566,-983040,105,-56,-1,-1,0
22600,-1310720,105,-56,-1,-1,0
22633,3342336,105,-56,-1,-1,0
22666,1245184,105,-56,-1,-1,0
22700,-2162688,105,-56,-1,-1,0
22733,-1638400,105,-56,-1,-1,0
22766,458752,105,-56,-1,-1,0
22800,3604480,105,-56,-1,-1,0
22833,1376256,105,-56,-1,-1,0
22866,-262144,105,-56,-1,-1,0
22900,-983040,105,-56,-1,-1,0
22933,-1179648,106,-56,-1,-1,0
22966,-1835008,106,-56,-1,-1,0
23000,-1900544,106,-56,-1,-1,0
23033,-1572864,106,-56,-1,-1,0
23066,-2097152,106,-56,-1,-1,0
23100,12910592,106,-56,-1,-1,0
23133,-2752512,106,-56,-1,-1,0
23166,-1376256,106,-56,-1,-1,0
23200,-655360,106,-56,-1,-1,0
23233,1572864,106,-56,-1,-1,0
23266,2752512,106,-56,-1,-1,0
23300,589824,106,-56,-1,-1,0
23333,-1507328,106,-56,-1,-1,0
23366,-524288,106,-56,-1,-1,0
23400,-1310720,107,-56,-1,-1,0
23433,-1507328,107,-56,-1,-1,0
23466,-1507328,107,-56,-1,-1,0
23500,-1900544,107,-56,-1,-1,0
23533,-2293760,107,-56,-1,-1,0
23566,13041664,107,-56,-1,-1,0
23600,-3211264,107,-56,-1,-1,0
23633,-3145728,107,-56,-1,-1,0
23666,-851968,107,-56,-1,-1,0
23700,1966080,107,-56,-1,-1,0
23733,851968,107,-56,-1,-1,0
23766,-393216,107,-56,-1,-1,0
23800,-655360,107,-56,-1,-1,0
23833,-524288,107,-56,-1,-1,0
23866,-1310720,107,-56,-1,-1,0
23900,-1638400,107,-56,-1,-1,0
23933,-1769472,107,-56,-1,-1,0
23966,-2359296,107,-56,-1,-1,0
24000,11468800,107,-56,-1,-1,0
24033,-3014656,107,-56,-1,-1,0
24066,-2097152,107,-56,-1,-1,0
24100,-1376256,107,-56,-1,-1,0
24133,655360,107,-56,-1,-1,0
24166,2621440,107,-56,-1,-1,0
24200,0,107,-56,-1,-1,0
24233,-1245184,107,-56,-1,-1,0
24266,-196608,107,-56,-1,-1,0
24300,-851968,107,-56,-1,-1,0
24333,-1376256,107,-56,-1,-1,0
24366,-1638400,107,-56,-1,-1,0
24400,-1310720,107,-56,-1,-1,0
24433,65536,107,-56,-1,-1,0
24466,8192000,107,-56,-1,-1,0
24500,-2031616,107,-56,-1,-1,0
24533,-1114112,107,-56,-1,-1,0
24566,-983040,107,-56,-1,-1,0
24600,2555904,107,-56,-1,-1,0
24633,1114112,107,-56,-1,-1,0
24666,-589824,107,-56,-1,-1,0
24700,-655360,107,-56,-1,-1,0
24733,-720896,108,-56,-1,-1,0
24766,-1769472,108,-56,-1,-1,0
24800,-1638400,108,-56,-1,-1,0
24833,-2293760,108,-56,-1,-1,0
24866,-2359296,108,-56,-1,-1,0
24900,16711680,108,-56,-1,-1,0
24933,-2555904,108,-56,-1,-1,0
24966,-2686976,108,-56,-1,-1,0
25000,-1048576,108,-56,-1,-1,0
25033,1376256,108,-56,-1,-1,0
25066,1769472,108,-56,-1,-1,0
25100,-262144,108,-56,-1,-1,0
25133,-786432,108,-56,-1,-1,0
25166,-917504,108,-56,-1,-1,0
25200,-1769472,108,-56,-1,-1,0
25233,-1966080,108,-56,-1,-1,0
25266,-1507328,108,-56,-1,-1,0
25300,-2031616,108,-56,-1,-1,0
25333,8060928,108,-56,-1,-1,0
25366,-2097152,108,-56,-1,-1,0
25400,-2818048,108,-56,-1,-1,0
25433,-2424832,108,-56,-1,-1,0
25466,-589824,108,-56,-1,-1,0
25500,2097152,108,-56,-1,-1,0
25533,65536,108,-56,-1,-1,0
25566,-983040,108,-56,-1,-1,0
25600,-327680,109,-56,-1,-1,0
25633,-589824,109,-56,-1,-1,0
25666,-1179648,109,-56,-1,-1,0
25700,-1376256,109,-56,-1,-1,0
25733,-1376256,109,-56,-1,-1,0
25766,1310720,109,-56,-1,-1,0
25800,3538944,109,-56,-1,-1,0
25833,-2097152,109,-56,-1,-1,0
25866,-1310720,109,-56,-1,-1,0
25900,0,109,-56,-1,-1,0
25933,2686976,109,-56,-1,-1,0
25966,1638400,109,-56,-1,-1,0
26000,-917504,109,-56,-1,-1,0
26033,-1048576,109,-56,-1,-1,0
26066,-851968,110,-56,-1,-1,0
26099,-1114112,110,-56,-1,-1,0
26133,-851968,110,-56,-1,-1,0
26166,-1900544,110,-56,-1,-1,0
26200,-2949120,110,-56,-1,-1,0
26233,14548992,110,-56,-1,-1,0
26266,-2228224,110,-56,-1,-1,0
26300,-1835008,110,-56,-1,-1,0
26333,-2097152,110,-56,-1,-1,0
26366,1507328,110,-56,-1,-1,0
26400,1376256,110,-56,-1,-1,0
26433,-65536,110,-56,-1,-1,0
26466,-655360,110,-56,-1,-1,0
26500,-786432,111,-56,-1,-1,0
26533,-983040,111,-56,-1,-1,0
26566,-1441792,111,-56,-1,-1,0
26599,-1376256,111,-56,-1,-1,0
26633,-1966080,111,-56,-1,-1,0
26666,14483456,111,-56,-1,-1,0
26700,-2949120,111,-56,-1,-1,0
26733,-2097152,111,-56,-1,-1,0
26766,-1376256,111,-56,-1,-1,0
26800,1310720,111,-56,-1,-1,0
26833,2162688,111,-56,-1,-1,0
26866,655360,111,-56,-1,-1,0
26900,131072,111,-56,-1,-1,0
26933,-327680,111,-56,-1,-1,0
26966,-1048576,111,-56,-1,-1,0
27000,-851968,111,-56,-1,-1,0
27033,-1245184,111,-56,-1,-1,0
27066,-2359296,111,-56,-1,-1,0
27099,18219008,111,-56,-1,-1,0
27133,-2424832,111,-56,-1,-1,0
27166,-2228224,111,-56,-1,-1,0
27200,-1507328,111,-56,-1,-1,0
27233,1245184,111,-56,-1,-1,0
27266,786432,111,-56,-1,-1,0
27300,-262144,111,-56,-1,-1,0
27333,-851968,111,-56,-1,-1,0
27366,-589824,111,-56,-1,-1,0
27400,-1835008,111,-56,-1,-1,0
27433,-917504,111,-56,-1,-1,0
27466,-1048576,111,-56,-1,-1,0
27500,-1638400,111,-56,-1,-1,0
27533,15204352,111,-56,-1,-1,0
27566,-2359296,111,-56,-1,-1,0
27599,-2424832,111,-56,-1,-1,0
27633,-1441792,111,-56,-1,-1,0
27666,1310720,111,-56,-1,-1,0
27700,1114112,111,-56,-1,-1,0
27733,-589824,111,-56,-1,-1,0
27766,-1179648,111,-56,-1,-1,0
27800,-983040,111,-56,-1,-1,0
27833,-1835008,111,-56,-1,-1,0
27866,-2097152,111,-56,-1,-1,0
27900,-1966080,111,-56,-1,-1,0
27933,-2359296,111,-56,-1,-1,0
27966,14286848,111,-56,-1,-1,0
28000,-2686976,111,-56,-1,-1,0
28033,-1703936,111,-56,-1,-1,0
28066,-458752,111,-56,-1,-1,0
28099,1835008,111,-56,-1,-1,0
28133,1310720,111,-56,-1,-1,0
28166,-393216,111,-56,-1,-1,0
28200,-458752,111,-56,-1,-1,0
28233,-655360,111,-56,-1,-1,0
28266,-917504,111,-56,-1,-1,0
28300,-983040,111,-56,-1,-1,0
28333,-1507328,111,-56,-1,-1,0
28366,393216,111,-56,-1,-1,0
28400,5767168,111,-56,-1,-1,0
28433,-2883584,111,-56,-1,-1,0
28466,-2686976,111,-56,-1,-1,0
28500,-917504,111,-56,-1,-1,0
28533,2490368,111,-56,-1,-1,0
28566,851968,111,-56,-1,-1,0
28599,-655360,112,-56,-1,-1,0
28633,0,112,-56,-1,-1,0
28666,0,112,-56,-1,-1,0
28700,-393216,112,-56,-1,-1,0
28733,-983040,112,-56,-1,-1,0
28766,-1441792,112,-56,-1,-1,0
28800,11534336,112,-56,-1,-1,0
28833,-2818048,112,-56,-1,-1,0
28866,-2359296,112,-56,-1,-1,0
28900,-1638400,112,-56,-1,-1,0
28933,393216,112,-56,-1,-1,0
28966,1245184,112,-56,-1,-1,0
29000,-327680,112,-56,-1,-1,0
29033,-1310720,112,-56,-1,-1,0
29066,-917504,112,-56,-1,-1,0
29099,-1310720,112,-56,-1,-1,0
29133,-2359296,112,-56,-1,-1,0
29166,-2031616,112,-56,-1,-1,0
29200,-2621440,112,-56,-1,-1,0
29233,12845056,112,-56,-1,-1,0
29266,-2031616,112,-56,-1,-1,0
29300,-1703936,112,-56,-1,-1,0
29333,-851968,112,-56,-1,-1,0
29366,1507328,112,-56,-1,-1,0
29400,1900544,112,-56,-1,-1,0
29433,-1245184,112,-56,-1,-1,0
29466,-1114112,113,-56,-1,-1,0
29500,-655360,113,-56,-1,-1,0
29533,-720896,113,-56,-1,-1,0
29566,-1179648,113,-56,-1,-1,0
29599,-1376256,113,-56,-1,-1,0
29633,5111808,113,-56,-1,-1,0
29666,-786432,113,-56,-1,-1,0
29700,-3014656,113,-56,-1,-1,0
29733,-2293760,113,-56,-1,-1,0
29766,-917504,113,-56,-1,-1,0
29800,1638400,113,-56,-1,-1,0
29833,131072,113,-56,-1,-1,0
29866,-65536,114,-56,-1,-1,0
29900,-196608,114,-56,-1,-1,0
29933,-524288,114,-56,-1,-1,0
29966,-1376256,114,-56,-1,-1,0
30000,-1114112,114,-56,-1,-1,0
30033,-3538944,114,-56,-1,-1,0
30066,13828096,114,-56,-1,-1,0
30099,-3407872,114,-56,-1,-1,0
30133,-2228224,114,-56,-1,-1,0
30166,-1638400,114,-56,-1,-1,0
30200,0,114,-56,-1,-1,0
30233,327680,114,-56,-1,-1,0
30266,-786432,114,-56,-1,-1,0
30300,-1638400,114,-56,-1,-1,0
30333,-1441792,114,-56,-1,-1,0
30366,-1835008,114,-56,-1,-1,0
30400,-917504,114,-56,-1,-1,0
30433,-1638400,114,-56,-1,-1,0
30466,917504,114,-56,-1,-1,0
30500,5046272,114,-56,-1,-1,0
30533,-1572864,114,-56,-1,-1,0
30566,-1703936,114,-56,-1,-1,0
30599,-589824,114,-56,-1,-1,0
30633,2359296,114,-56,-1,-1,0
30666,1310720,114,-56,-1,-1,0
30700,0,115,-56,-1,-1,0
30733,-65536,115,-56,-1,-1,0
30766,-589824,115,-56,-1,-1,0
30800,-917504,115,-56,-1,-1,0
30833,-1179648,115,-56,-1,-1,0
30866,-1900544,115,-56,-1,-1,0
30900,15269888,115,-56,-1,-1,0
30933,-2949120,115,-56,-1,-1,0
30966,-2097152,115,-56,-1,-1,0
31000,-1376256,115,-56,-1,-1,0
31033,589824,115,-56,-1,-1,0
31066,1835008,115,-56,-1,-1,0
31099,786432,115,-56,-1,-1,0
31133,-65536,116,-56,-1,-1,0
31166,-262144,116,-56,-1,-1,0
31200,-1179648,116,-56,-1,-1,0
31233,-851968,116,-56,-1,-1,0
31266,-983040,116,-56,-1,-1,0
31300,3604480,116,-56,-1,-1,0
31333,655360,116,-56,-1,-1,0
31366,-2097152,116,-56,-1,-1,0
31400,-1572864,116,-56,-1,-1,0
31433,-327680,116,-56,-1,-1,0
31466,1900544,116,-56,-1,-1,0
31500,327680,116,-56,-1,-1,0
31533,-851968,117,-56,-1,-1,0
31566,-655360,117,-56,-1,-1,0
31599,0,117,-56,-1,-1,0
31633,-917504,117,-56,-1,-1,0
31666,-1441792,117,-56,-1,-1,0
31700,-1638400,117,-56,-1,-1,0
31733,14024704,117,-56,-1,-1,0
31766,-2031616,117,-56,-1,-1,0
31800,-1966080,117,-56,-1,-1,0
31833,-1638400,117,-56,-1,-1,0
31866,-1310720,117,-56,-1,-1,0
31900,458752,117,-56,-1,-1,0
31933,-983040,118,-56,-1,-1,0
31966,-1703936,118,-56,-1,-1,0
32000,-851968,118,-56,-1,-1,0
32033,-983040,118,-56,-1,-1,0
32066,-1310720,118,-56,-1,-1,0
32100,-1966080,118,-56,-1,-1,0
32133,2752512,118,-56,-1,-1,0
32166,327680,118,-56,-1,-1,0
32200,-2621440,118,-56,-1,-1,0
32233,-1638400,118,-56,-1,-1,0
32266,-262144,118,-56,-1,-1,0
32299,2031616,118,-56,-1,-1,0
32333,851968,118,-56,-1,-1,0
32366,-262144,118,-56,-1,-1,0
32400,-65536,118,-56,-1,-1,0
32433,-2097152,118,-56,-1,-1,0
32466,-917504,118,-56,-1,-1,0
32500,-1507328,118,-56,-1,-1,0
32533,-1966080,118,-56,-1,-1,0
32566,15007744,118,-56,-1,-1,0
32600,-2621440,118,-56,-1,-1,0
32633,-1769472,118,-56,-1,-1,0
32666,-1179648,118,-56,-1,-1,0
32700,1376256,118,-56,-1,-1,0
32733,655360,118,-56,-1,-1,0
32766,-196608,119,-56,-1,-1,0
32800,-655360,119,-56,-1,-1,0
32833,-786432,119,-56,-1,-1,0
32866,-983040,119,-56,-1,-1,0
32900,-1114112,119,-56,-1,-1,0
32933,-1048576,119,-56,-1,-1,0
32966,14024704,119,-56,-1,-1,0
33000,-2686976,119,-56,-1,-1,0
33033,-1900544,119,-56,-1,-1,0
33066,-2031616,119,-56,-1,-1,0
33100,262144,119,-56,-1,-1,0
33133,1441792,119,-56,-1,-1,0
33166,-65536,119,-56,-1,-1,0
33200,-655360,119,-56,-1,-1,0
33233,-1572864,119,-56,-1,-1,0
33266,-2031616,119,-56,-1,-1,0
33300,-2621440,119,-56,-1,-1,0
33333,-2424832,119,-56,-1,-1,0
33366,3801088,119,-56,-1,-1,0
33400,-917504,119,-56,-1,-1,0
33433,-2555904,119,-56,-1,-1,0
33466,-2162688,119,-56,-1,-1,0
33500,-1179648,119,-56,-1,-1,0
33533,983040,119,-56,-1,-1,0
33566,-524288,119,-56,-1,-1,0
33600,-786432,120,-56,-1,-1,0
33633,-1179648,120,-56,-1,-1,0
33666,-1507328,120,-56,-1,-1,0
33700,-1572864,120,-56,-1,-1,0
33733,-1769472,120,-56,-1,-1,0
33766,-2490368,120,-56,-1,-1,0
33800,12124160,120,-56,-1,-1,0
33833,-3604480,120,-56,-1,-1,0
33866,-2228224,120,-56,-1,-1,0
33900,-1441792,120,-56,-1,-1,0
33933,1769472,120,-56,-1,-1,0
33966,655360,120,-56,-1,-1,0
34000,196608,120,-56,-1,-1,0
34033,-65536,120,-56,-1,-1,0
34066,-589824,120,-56,-1,-1,0
34100,-327680,120,-56,-1,-1,0
34133,-1507328,120,-56,-1,-1,0
34166,-2031616,120,-56,-1,-1,0
34200,15925248,120,-56,-1,-1,0
34233,-2293760,120,-56,-1,-1,0
34266,-1769472,120,-56,-1,-1,0
34300,-786432,120,-56,-1,-1,0
34333,1572864,120,-56,-1,-1,0
34366,983040,120,-56,-1,-1,0
34400,-393216,120,-56,-1,-1,0
34433,-393216,120,-56,-1,-1,0
34466,-589824,120,-56,-1,-1,0
34500,-786432,120,-56,-1,-1,0
34533,-917504,120,-56,-1,-1,0
34566,-917504,120,-56,-1,-1,0
34600,16449536,120,-56,-1,-1,0
34633,-2621440,120,-56,-1,-1,0
34666,-1376256,120,-56,-1,-1,0
34700,-1441792,120,-56,-1,-1,0
34733,1310720,120,-56,-1,-1,0
34766,1703936,120,-56,-1,-1,0
34800,262144,120,-56,-1,-1,0
34833,-327680,120,-56,-1,-1,0
34866,-589824,120,-56,-1,-1,0
34900,-1048576,120,-56,-1,-1,0
34933,-2097152,120,-56,-1,-1,0
34966,-1835008,120,-56,-1,-1,0
35000,9961472,120,-56,-1,-1,0
35033,-3473408,120,-56,-1,-1,0
35066,-2293760,120,-56,-1,-1,0
35100,-1114112,120,-56,-1,-1,0
35133,262144,120,-56,-1,-1,0
35166,524288,120,-56,-1,-1,0
35200,393216,120,-56,-1,-1,0
35233,-1638400,120,-56,-1,-1,0
35266,-983040,120,-56,-1,-1,0
35300,-1245184,120,-56,-1,-1,0
35333,-1638400,120,-56,-1,-1,0
35366,-1769472,120,-56,-1,-1,0
35400,4063232,120,-56,-1,-1,0
35433,-1900544,120,-56,-1,-1,0
35466,-3145728,120,-56,-1,-1,0
35500,-2097152,120,-56,-1,-1,0
35533,-786432,120,-56,-1,-1,0
35566,1114112,120,-56,-1,-1,0
35600,393216,120,-56,-1,-1,0
35633,262144,120,-56,-1,-1,0
35666,0,120,-56,-1,-1,0
35700,-196608,120,-56,-1,-1,0
35733,-851968,120,-56,-1,-1,0
35766,-1507328,120,-56,-1,-1,0
35800,4456448,120,-56,-1,-1,0
35833,-65536,120,-56,-1,-1,0
35866,-2424832,120,-56,-1,-1,0
35900,-2162688,120,-56,-1,-1,0
35933,-262144,120,-56,-1,-1,0
35966,1769472,120,-56,-1,-1,0
36000,-327680,121,-56,-1,-1,0
36033,-1048576,121,-56,-1,-1,0
36066,-262144,121,-56,-1,-1,0
36100,-1441792,121,-56,-1,-1,0
36133,-917504,121,-56,-1,-1,0
36166,-589824,121,-56,-1,-1,0
36200,3670016,121,-56,-1,-1,0
36233,1048576,121,-56,-1,-1,0
36266,-1572864,121,-56,-1,-1,0
36300,-1048576,121,-56,-1,-1,0
36333,-393216,121,-56,-1,-1,0
36366,1376256,121,-56,-1,-1,0
36400,327680,121,-56,-1,-1,0
36433,-786432,121,-56,-1,-1,0
36466,-655360,121,-56,-1,-1,0
36500,-983040,121,-56,-1,-1,0
36533,-1441792,121,-56,-1,-1,0
36566,-1966080,121,-56,-1,-1,0
36600,2162688,121,-56,-1,-1,0
36633,786432,121,-56,-1,-1,0
36666,-2555904,121,-56,-1,-1,0
36700,-1835008,121,-56,-1,-1,0
36733,-65536,121,-56,-1,-1,0
36766,1572864,121,-56,-1,-1,0
36800,65536,121,-56,-1,-1,0
36833,-655360,121,-56,-1,-1,0
36866,-589824,121,-56,-1,-1,0
36900,-1638400,121,-56,-1,-1,0
36933,-1376256,121,-56,-1,-1,0
36966,-1572864,121,-56,-1,-1,0
37000,1638400,121,-56,-1,-1,0
37033,2490368,121,-56,-1,-1,0
37066,-2621440,121,-56,-1,-1,0
37100,-2686976,121,-56,-1,-1,0
37133,-983040,121,-56,-1,-1,0
37166,655360,121,-56,-1,-1,0
37200,327680,122,-56,-1,-1,0
37233,-393216,122,-56,-1,-1,0
37266,393216,122,-56,-1,-1,0
37300,-983040,122,-56,-1,-1,0
37333,-1179648,122,-56,-1,-1,0
37366,-1638400,122,-56,-1,-1,0
37400,1572864,122,-56,-1,-1,0
37433,2555904,122,-56,-1,-1,0
37466,-3014656,122,-56,-1,-1,0
37500,-2686976,122,-56,-1,-1,0
37533,-1245184,122,-56,-1,-1,0
37566,2359296,122,-56,-1,-1,0
37600,131072,122,-56,-1,-1,0
37633,-1703936,122,-56,-1,-1,0
37666,-786432,122,-56,-1,-1,0
37700,-851968,122,-56,-1,-1,0
37733,-1245184,122,-56,-1,-1,0
37766,-1507328,122,-56,-1,-1,0
37800,1638400,122,-56,-1,-1,0
37833,2621440,122,-56,-1,-1,0
37866,-3080192,122,-56,-1,-1,0
37900,-2818048,122,-56,-1,-1,0
37933,-1441792,122,-56,-1,-1,0
37966,1376256,122,-56,-1,-1,0
38000,917504,122,-56,-1,-1,0
38033,-262144,122,-56,-1,-1,0
38066,-327680,122,-56,-1,-1,0
38100,-720896,122,-56,-1,-1,0
38133,-786432,122,-56,-1,-1,0
38166,-1441792,122,-56,-1,-1,0
38200,5832704,122,-56,-1,-1,0
38233,-2359296,122,-56,-1,-1,0
38266,-2031616,122,-56,-1,-1,0
38300,-1900544,122,-56,-1,-1,0
38333,131072,122,-56,-1,-1,0
38366,2097152,122,-56,-1,-1,0
38400,0,123,-56,-1,-1,0
38433,-1114112,123,-56,-1,-1,0
38466,-786432,123,-56,-1,-1,0
38500,-393216,123,-56,-1,-1,0
38533,-1638400,123,-56,-1,-1,0
38566,-2359296,123,-56,-1,-1,0
38600,13041664,123,-56,-1,-1,0
38633,-2949120,123,-56,-1,-1,0
38666,-2228224,123,-56,-1,-1,0
38700,-1835008,123,-56,-1,-1,0
38733,-196608,123,-56,-1,-1,0
38766,983040,123,-56,-1,-1,0
38800,-393216,123,-56,-1,-1,0
38833,262144,123,-56,-1,-1,0
38866,-196608,123,-56,-1,-1,0
38900,-589824,123,-56,-1,-1,0
38933,-1048576,123,-56,-1,-1,0
38966,-1572864,123,-56,-1,-1,0
39000,13107200,123,-56,-1,-1,0
39033,-2818048,123,-56,-1,-1,0
39066,-2162688,123,-56,-1,-1,0
39100,-1638400,123,-56,-1,-1,0
39133,0,123,-56,-1,-1,0
39166,524288,123,-56,-1,-1,0
39200,-458752,123,-56,-1,-1,0
39233,-983040,123,-56,-1,-1,0
39266,-917504,123,-56,-1,-1,0
39300,-1245184,123,-56,-1,-1,0
39333,-1703936,123,-56,-1,-1,0
39366,-1572864,123,-56,-1,-1,0
39400,16318464,123,-56,-1,-1,0
39433,-1835008,123,-56,-1,-1,0
39466,-1966080,123,-56,-1,-1,0
39500,-1310720,123,-56,-1,-1,0
39533,720896,123,-56,-1,-1,0
39566,1114112,125,-56,-1,-1,0
39600,131072,125,-56,-1,-1,0
39633,262144,125,-56,-1,-1,0
39666,-917504,125,-56,-1,-1,0
39700,-917504,125,-56,-1,-1,0
39733,-1441792,125,-56,-1,-1,0
39766,-1900544,125,-56,-1,-1,0
39800,13303808,125,-56,-1,-1,0
39833,-3080192,125,-56,-1,-1,0
39866,-2097152,125,-56,-1,-1,0
39900,-655360,125,-56,-1,-1,0
39933,1966080,125,-56,-1,-1,0
39966,983040,125,-56,-1,-1,0
40000,-196608,125,-56,-1,-1,0
40033,-655360,125,-56,-1,-1,0
40066,-1179648,125,-56,-1,-1,0
40100,-1048576,125,-56,-1,-1,0
40133,-1310720,125,-56,-1,-1,0
40166,1966080,125,-56,-1,-1,0
40200,3014656,125,-56,-1,-1,0
40233,-2293760,125,-56,-1,-1,0
40266,-2097152,125,-56,-1,-1,0
40300,-1048576,125,-56,-1,-1,0
40333,-131072,125,-56,-1,-1,0
40366,458752,125,-56,-1,-1,0
40400,131072,125,-56,-1,-1,0
40433,-720896,125,-56,-1,-1,0
40466,-327680,125,-56,-1,-1,0
40500,-720896,125,-56,-1,-1,0
40533,-1376256,125,-56,-1,-1,0
40566,5439488,125,-56,-1,-1,0
40600,-1638400,125,-56,-1,-1,0
40633,-2818048,125,-56,-1,-1,0
40666,-2031616,125,-56,-1,-1,0
40700,-786432,125,-56,-1,-1,0
40733,655360,125,-56,-1,-1,0
40766,327680,125,-56,-1,-1,0
40800,-851968,125,-56,-1,-1,0
40833,-2162688,125,-56,-1,-1,0
40866,-1376256,125,-56,-1,-1,0
40900,-1441792,125,-56,-1,-1,0
40933,-1310720,125,-56,-1,-1,0
40966,12517376,125,-56,-1,-1,0
41000,-2162688,125,-56,-1,-1,0
41033,-2031616,125,-56,-1,-1,0
41066,-1966080,125,-56,-1,-1,0
41100,-720896,125,-56,-1,-1,0
41133,917504,126,-56,-1,-1,0
41166,196608,126,-56,-1,-1,0
41200,-786432,126,-56,-1,-1,0
41233,-458752,126,-56,-1,-1,0
41266,-262144,126,-56,-1,-1,0
41300,-1048576,126,-56,-1,-1,0
41333,-2490368,126,-56,-1,-1,0
41366,14024704,126,-56,-1,-1,0
41400,-3276800,126,-56,-1,-1,0
41433,-2424832,126,-56,-1,-1,0
41466,-917504,126,-56,-1,-1,0
41500,720896,126,-56,-1,-1,0
41533,786432,126,-56,-1,-1,0
41566,0,126,-56,-1,-1,0
41600,-458752,126,-56,-1,-1,0
41633,-1376256,126,-56,-1,-1,0
41666,-851968,126,-56,-1,-1,0
41700,-1179648,126,-56,-1,-1,0
41733,2752512,126,-56,-1,-1,0
41766,1507328,126,-56,-1,-1,0
41800,-2359296,126,-56,-1,-1,0
41833,-1900544,126,-56,-1,-1,0
41866,-1769472,126,-56,-1,-1,0
41900,-196608,126,-56,-1,-1,0
41933,-393216,126,-56,-1,-1,0
41966,-196608,126,-56,-1,-1,0
42000,-720896,126,-56,-1,-1,0
42033,-917504,126,-56,-1,-1,0
42066,-1114112,126,-56,-1,-1,0
42100,-1835008,126,-56,-1,-1,0
42133,12582912,126,-56,-1,-1,0
42166,-3670016,126,-56,-1,-1,0
42200,-2293760,126,-56,-1,-1,0
42233,-1441792,126,-56,-1,-1,0
42266,-65536,126,-56,-1,-1,0
42300,458752,126,-56,-1,-1,0
42333,0,126,-56,-1,-1,0
42366,-917504,126,-56,-1,-1,0
42400,-1572864,126,-56,-1,-1,0
42433,-983040,126,-56,-1,-1,0
42466,-1376256,126,-56,-1,-1,0
42500,-1441792,126,-56,-1,-1,0
42533,11403264,126,-56,-1,-1,0
42566,-1703936,126,-56,-1,-1,0
42600,-1769472,126,-56,-1,-1,0
42633,-2228224,126,-56,-1,-1,0
42666,-720896,127,-56,-1,-1,0
42700,-65536,127,-56,-1,-1,0
42733,-851968,127,-56,-1,-1,0
42766,-917504,127,-56,-1,-1,0
42800,-1179648,127,-56,-1,-1,0
42833,-2686976,127,-56,-1,-1,0
42866,-1966080,127,-56,-1,-1,0
42900,8323072,127,-56,-1,-1,0
42933,-4456448,127,-56,-1,-1,0
42966,-2949120,127,-56,-1,-1,0
43000,-1769472,127,-56,-1,-1,0
43033,1114112,127,-56,-1,-1,0
43066,1966080,127,-56,-1,-1,0
43100,983040,127,-56,-1,-1,0
43133,0,127,-56,-1,-1,0
43166,-393216,127,-56,-1,-1,0
43200,-655360,127,-56,-1,-1,0
43233,-851968,127,-56,-1,-1,0
43266,851968,127,-56,-1,-1,0
43300,4456448,127,-56,-1,-1,0
43333,-2097152,127,-56,-1,-1,0
43366,-1638400,127,-56,-1,-1,0
43400,-131072,127,-56,-1,-1,0
43433,1769472,127,-56,-1,-1,0
43466,1048576,127,-56,-1,-1,0
43500,-65536,127,-56,-1,-1,0
43533,196608,127,-56,-1,-1,0
43566,196608,127,-56,-1,-1,0
43600,-524288,127,-56,-1,-1,0
43633,-1441792,127,-56,-1,-1,0
43666,14942208,127,-56,-1,-1,0
43700,-2293760,127,-56,-1,-1,0
43733,-2359296,127,-56,-1,-1,0
43766,-1245184,127,-56,-1,-1,0
43800,589824,127,-56,-1,-1,0
