milliseconds, ECG, ECG HR, PPG, PPG HR, SpO2, PI
1523630979557,-1703936,106,-56,-1,-1,0
1523630979557,-1703936,106,-56,-1,-1,0
1523630979557,-1638400,106,-56,-1,-1,0
1523630979557,-1638400,106,-56,-1,-1,0
1523630979557,-1703936,106,-56,-1,-1,0
1523630979608,-2228224,106,-56,-1,-1,0
1523630979608,-2424832,106,-56,-1,-1,0
1523630979608,-327680,106,-56,-1,-1,0
1523630979608,4653056,106,-56,-1,-1,0
1523630979608,12189696,106,-56,-1,-1,0
1523630979636,18153472,106,-56,-1,-1,0
1523630979636,17235968,106,-56,-1,-1,0
1523630979636,9175040,106,-56,-1,-1,0
1523630979636,1048576,106,-56,-1,-1,0
1523630979636,-2228224,106,-56,-1,-1,0
1523630979676,-2490368,106,-56,-1,-1,0
1523630979676,-2424832,106,-56,-1,-1,0
1523630979676,-2228224,106,-56,-1,-1,0
1523630979676,-2162688,106,-56,-1,-1,0
1523630979676,-2359296,106,-56,-1,-1,0
1523630979716,-2359296,106,-56,-1,-1,0
1523630979716,-2162688,106,-56,-1,-1,0
1523630979716,-1900544,106,-56,-1,-1,0
1523630979716,-1703936,106,-56,-1,-1,0
1523630979716,-1507328,106,-56,-1,-1,0
1523630979756,-1245184,106,-56,-1,-1,0
1523630979756,-786432,106,-56,-1,-1,0
1523630979756,-131072,106,-56,-1,-1,0
1523630979756,393216,106,-56,-1,-1,0
1523630979756,851968,106,-56,-1,-1,0
1523630979796,1310720,106,-56,-1,-1,0
1523630979796,1966080,106,-56,-1,-1,0
1523630979796,2228224,106,-56,-1,-1,0
1523630979796,2031616,106,-56,-1,-1,0
1523630979796,1638400,106,-56,-1,-1,0
1523630979836,1245184,106,-56,-1,-1,0
1523630979836,983040,106,-56,-1,-1,0
1523630979836,458752,106,-56,-1,-1,0
1523630979836,0,106,-56,-1,-1,0
1523630979836,-65536,106,-56,-1,-1,0
1523630979876,-131072,106,-56,-1,-1,0
1523630979876,-589824,106,-56,-1,-1,0
1523630979876,-983040,106,-56,-1,-1,0
1523630979876,-1179648,106,-56,-1,-1,0
1523630979876,-1441792,106,-56,-1,-1,0
1523630979916,-1572864,106,-56,-1,-1,0
1523630979916,-1310720,106,-56,-1,-1,0
1523630979916,-1048576,106,-56,-1,-1,0
1523630979916,-983040,106,-56,-1,-1,0
1523630979916,-983040,106,-56,-1,-1,0
1523630979956,-1048576,106,-56,-1,-1,0
1523630979956,-851968,106,-56,-1,-1,0
1523630979956,-786432,106,-56,-1,-1,0
1523630979956,-720896,106,-56,-1,-1,0
1523630979956,-786432,106,-56,-1,-1,0
1523630979996,-1114112,106,-56,-1,-1,0
1523630979996,-1376256,106,-56,-1,-1,0
1523630979996,-1507328,106,-56,-1,-1,0
1523630979996,-1376256,106,-56,-1,-1,0
1523630979996,-1245184,106,-56,-1,-1,0
1523630980036,-1114112,106,-56,-1,-1,0
1523630980036,-1245184,106,-56,-1,-1,0
1523630980036,-1245184,106,-56,-1,-1,0
1523630980036,-1310720,106,-56,-1,-1,0
1523630980036,-1376256,106,-56,-1,-1,0
1523630980076,-1441792,106,-56,-1,-1,0
1523630980076,-1572864,106,-56,-1,-1,0
1523630980076,-1769472,106,-56,-1,-1,0
1523630980076,-1638400,106,-56,-1,-1,0
1523630980076,-1572864,106,-56,-1,-1,0
1523630980116,-1572864,106,-56,-1,-1,0
1523630980116,-1638400,106,-56,-1,-1,0
1523630980116,-1703936,106,-56,-1,-1,0
1523630980116,-1769472,106,-56,-1,-1,0
1523630980116,-1703936,106,-56,-1,-1,0
1523630980156,-1703936,106,-56,-1,-1,0
1523630980156,-1572864,106,-56,-1,-1,0
1523630980156,-1638400,106,-56,-1,-1,0
1523630980156,-1769472,106,-56,-1,-1,0
1523630980156,-1769472,106,-56,-1,-1,0
1523630980196,-1507328,106,-56,-1,-1,0
1523630980196,-1441792,106,-56,-1,-1,0
1523630980196,-1572864,106,-56,-1,-1,0
1523630980196,-1638400,106,-56,-1,-1,0
1523630980196,-1638400,106,-56,-1,-1,0
1523630980241,-1703936,106,-56,-1,-1,0
1523630980241,-1835008,106,-56,-1,-1,0
1523630980241,-2097152,106,-56,-1,-1,0
1523630980241,-1703936,106,-56,-1,-1,0
1523630980241,983040,106,-56,-1,-1,0
1523630980276,6815744,106,-56,-1,-1,0
1523630980276,14352384,106,-56,-1,-1,0
1523630980276,18808832,106,-56,-1,-1,0
1523630980276,15466496,106,-56,-1,-1,0
1523630980276,6684672,106,-56,-1,-1,0
1523630980316,-131072,106,-56,-1,-1,0
1523630980316,-2228224,106,-56,-1,-1,0
1523630980316,-2293760,106,-56,-1,-1,0
1523630980316,-2228224,106,-56,-1,-1,0
1523630980316,-2031616,106,-56,-1,-1,0
1523630980356,-2162688,106,-56,-1,-1,0
1523630980356,-2359296,106,-56,-1,-1,0
1523630980356,-2293760,106,-56,-1,-1,0
1523630980356,-1900544,106,-56,-1,-1,0
1523630980356,-1703936,106,-56,-1,-1,0
1523630980396,-1441792,106,-56,-1,-1,0
1523630980396,-1179648,106,-56,-1,-1,0
1523630980396,-983040,106,-56,-1,-1,0
1523630980396,-720896,106,-56,-1,-1,0
1523630980396,-196608,106,-56,-1,-1,0
1523630980436,393216,106,-56,-1,-1,0
1523630980436,1179648,106,-56,-1,-1,0
1523630980436,1835008,106,-56,-1,-1,0
1523630980436,2359296,106,-56,-1,-1,0
1523630980436,2555904,106,-56,-1,-1,0
1523630980476,2359296,106,-56,-1,-1,0
1523630980476,1900544,106,-56,-1,-1,0
1523630980476,1376256,106,-56,-1,-1,0
1523630980476,1048576,106,-56,-1,-1,0
1523630980476,851968,106,-56,-1,-1,0
1523630980516,524288,106,-56,-1,-1,0
1523630980516,131072,106,-56,-1,-1,0
1523630980516,-262144,106,-56,-1,-1,0
1523630980516,-327680,106,-56,-1,-1,0
1523630980516,-393216,106,-56,-1,-1,0
1523630980556,-524288,106,-56,-1,-1,0
1523630980556,-655360,106,-56,-1,-1,0
1523630980556,-589824,106,-56,-1,-1,0
1523630980556,-393216,106,-56,-1,-1,0
1523630980556,-262144,106,-56,-1,-1,0
1523630980596,-393216,106,-56,-1,-1,0
1523630980596,-327680,106,-56,-1,-1,0
1523630980596,-196608,106,-56,-1,-1,0
1523630980596,-327680,106,-56,-1,-1,0
1523630980596,-524288,106,-56,-1,-1,0
1523630980636,-524288,106,-56,-1,-1,0
1523630980636,-458752,106,-56,-1,-1,0
1523630980636,-524288,106,-56,-1,-1,0
1523630980636,-589824,106,-56,-1,-1,0
1523630980636,-589824,106,-56,-1,-1,0
1523630980676,-655360,106,-56,-1,-1,0
1523630980676,-589824,106,-56,-1,-1,0
1523630980676,-524288,106,-56,-1,-1,0
1523630980676,-720896,106,-56,-1,-1,0
1523630980676,-1048576,106,-56,-1,-1,0
1523630980716,-1114112,106,-56,-1,-1,0
1523630980716,-1048576,106,-56,-1,-1,0
1523630980716,-983040,106,-56,-1,-1,0
1523630980716,-1048576,106,-56,-1,-1,0
1523630980716,-1114112,106,-56,-1,-1,0
1523630980756,-983040,106,-56,-1,-1,0
1523630980756,-851968,106,-56,-1,-1,0
1523630980756,-1048576,106,-56,-1,-1,0
1523630980756,-1376256,106,-56,-1,-1,0
1523630980756,-1310720,106,-56,-1,-1,0
1523630980796,-1114112,106,-56,-1,-1,0
1523630980796,-1048576,106,-56,-1,-1,0
1523630980796,-983040,106,-56,-1,-1,0
1523630980796,-1179648,106,-56,-1,-1,0
1523630980796,-1376256,106,-56,-1,-1,0
1523630980836,-1441792,106,-56,-1,-1,0
1523630980836,-1376256,106,-56,-1,-1,0
1523630980836,-1245184,106,-56,-1,-1,0
1523630980836,-1179648,106,-56,-1,-1,0
1523630980836,-1245184,106,-56,-1,-1,0
1523630980881,-1376256,106,-56,-1,-1,0
1523630980881,-1376256,106,-56,-1,-1,0
1523630980881,-1310720,106,-56,-1,-1,0
1523630980881,-1310720,106,-56,-1,-1,0
1523630980881,-1441792,106,-56,-1,-1,0
1523630980916,-1441792,105,-56,-1,-1,0
1523630980916,-1310720,105,-56,-1,-1,0
1523630980916,-1835008,105,-56,-1,-1,0
1523630980916,-1966080,105,-56,-1,-1,0
1523630980916,327680,105,-56,-1,-1,0
1523630980956,6291456,105,-56,-1,-1,0
1523630980956,14024704,105,-56,-1,-1,0
1523630980956,19202048,105,-56,-1,-1,0
1523630980956,16777216,105,-56,-1,-1,0
1523630980956,8060928,105,-56,-1,-1,0
1523630980996,786432,105,-56,-1,-1,0
1523630980996,-1638400,105,-56,-1,-1,0
1523630980996,-2097152,105,-56,-1,-1,0
1523630980996,-2293760,105,-56,-1,-1,0
1523630980996,-2162688,105,-56,-1,-1,0
1523630981036,-1900544,105,-56,-1,-1,0
1523630981036,-1900544,105,-56,-1,-1,0
1523630981036,-1769472,105,-56,-1,-1,0
1523630981036,-1507328,105,-56,-1,-1,0
1523630981036,-1441792,105,-56,-1,-1,0
1523630981076,-1441792,105,-56,-1,-1,0
1523630981076,-1048576,105,-56,-1,-1,0
1523630981076,-524288,105,-56,-1,-1,0
1523630981076,-196608,105,-56,-1,-1,0
1523630981076,0,105,-56,-1,-1,0
1523630981116,393216,105,-56,-1,-1,0
1523630981116,1245184,105,-56,-1,-1,0
1523630981116,2162688,105,-56,-1,-1,0
1523630981116,2752512,105,-56,-1,-1,0
1523630981116,2818048,105,-56,-1,-1,0
1523630981156,2686976,105,-56,-1,-1,0
1523630981156,2555904,105,-56,-1,-1,0
1523630981156,1835008,105,-56,-1,-1,0
1523630981156,1114112,105,-56,-1,-1,0
1523630981156,786432,105,-56,-1,-1,0
1523630981196,524288,105,-56,-1,-1,0
1523630981196,196608,105,-56,-1,-1,0
1523630981196,0,105,-56,-1,-1,0
1523630981196,-196608,105,-56,-1,-1,0
1523630981196,-524288,105,-56,-1,-1,0
1523630981236,-589824,105,-56,-1,-1,0
1523630981236,-720896,105,-56,-1,-1,0
1523630981236,-851968,105,-56,-1,-1,0
1523630981236,-851968,105,-56,-1,-1,0
1523630981236,-655360,105,-56,-1,-1,0
1523630981276,-589824,105,-56,-1,-1,0
1523630981276,-655360,105,-56,-1,-1,0
1523630981276,-720896,105,-56,-1,-1,0
1523630981276,-655360,105,-56,-1,-1,0
1523630981276,-786432,105,-56,-1,-1,0
1523630981316,-983040,105,-56,-1,-1,0
1523630981316,-1114112,105,-56,-1,-1,0
1523630981316,-1114112,105,-56,-1,-1,0
1523630981316,-1048576,105,-56,-1,-1,0
1523630981316,-1114112,105,-56,-1,-1,0
1523630981356,-1310720,105,-56,-1,-1,0
1523630981356,-1441792,105,-56,-1,-1,0
1523630981356,-1376256,105,-56,-1,-1,0
1523630981356,-1310720,105,-56,-1,-1,0
1523630981356,-1572864,105,-56,-1,-1,0
1523630981396,-1703936,105,-56,-1,-1,0
1523630981396,-1703936,105,-56,-1,-1,0
1523630981396,-1703936,105,-56,-1,-1,0
1523630981396,-1900544,105,-56,-1,-1,0
1523630981396,-1769472,105,-56,-1,-1,0
1523630981436,-1835008,105,-56,-1,-1,0
1523630981436,-1769472,105,-56,-1,-1,0
1523630981436,-1703936,105,-56,-1,-1,0
1523630981436,-1572864,105,-56,-1,-1,0
1523630981436,-1703936,105,-56,-1,-1,0
1523630981476,-1835008,105,-56,-1,-1,0
1523630981476,-1769472,105,-56,-1,-1,0
1523630981476,-1703936,105,-56,-1,-1,0
1523630981476,-1900544,105,-56,-1,-1,0
1523630981476,-2097152,105,-56,-1,-1,0
1523630981521,-1835008,105,-56,-1,-1,0
1523630981521,-1572864,105,-56,-1,-1,0
1523630981521,-1179648,105,-56,-1,-1,0
1523630981521,-1245184,105,-56,-1,-1,0
1523630981521,-1441792,105,-56,-1,-1,0
1523630981556,-1638400,104,-56,-1,-1,0
1523630981556,-1572864,104,-56,-1,-1,0
1523630981556,-1703936,104,-56,-1,-1,0
1523630981556,-1966080,104,-56,-1,-1,0
1523630981556,-2097152,104,-56,-1,-1,0
1523630981596,-2031616,104,-56,-1,-1,0
1523630981596,-1900544,104,-56,-1,-1,0
1523630981596,-2162688,104,-56,-1,-1,0
1523630981596,-2162688,104,-56,-1,-1,0
1523630981596,0,104,-56,-1,-1,0
1523630981636,5046272,104,-56,-1,-1,0
1523630981636,12058624,104,-56,-1,-1,0
1523630981636,17432576,104,-56,-1,-1,0
1523630981636,15990784,104,-56,-1,-1,0
1523630981636,7864320,104,-56,-1,-1,0
1523630981676,458752,104,-56,-1,-1,0
1523630981676,-1703936,104,-56,-1,-1,0
1523630981676,-1835008,104,-56,-1,-1,0
1523630981676,-2031616,104,-56,-1,-1,0
1523630981676,-2162688,104,-56,-1,-1,0
1523630981716,-2031616,104,-56,-1,-1,0
1523630981716,-1769472,104,-56,-1,-1,0
1523630981716,-1507328,104,-56,-1,-1,0
1523630981716,-1441792,104,-56,-1,-1,0
1523630981716,-1310720,104,-56,-1,-1,0
1523630981756,-917504,104,-56,-1,-1,0
1523630981756,-720896,104,-56,-1,-1,0
1523630981756,-589824,104,-56,-1,-1,0
1523630981756,-262144,104,-56,-1,-1,0
1523630981756,262144,104,-56,-1,-1,0
1523630981796,1048576,104,-56,-1,-1,0
1523630981796,1769472,104,-56,-1,-1,0
1523630981796,2359296,104,-56,-1,-1,0
1523630981796,2818048,104,-56,-1,-1,0
1523630981796,3211264,104,-56,-1,-1,0
1523630981836,3145728,104,-56,-1,-1,0
1523630981836,2949120,104,-56,-1,-1,0
1523630981836,2555904,104,-56,-1,-1,0
1523630981836,2162688,104,-56,-1,-1,0
1523630981836,1769472,104,-56,-1,-1,0
1523630981876,1310720,104,-56,-1,-1,0
1523630981876,851968,104,-56,-1,-1,0
1523630981876,327680,104,-56,-1,-1,0
1523630981876,131072,104,-56,-1,-1,0
1523630981876,65536,104,-56,-1,-1,0
1523630981916,65536,104,-56,-1,-1,0
1523630981916,196608,104,-56,-1,-1,0
1523630981916,327680,104,-56,-1,-1,0
1523630981916,327680,104,-56,-1,-1,0
1523630981916,65536,104,-56,-1,-1,0
1523630981956,393216,104,-56,-1,-1,0
1523630981956,524288,104,-56,-1,-1,0
1523630981956,-131072,104,-56,-1,-1,0
1523630981956,-917504,104,-56,-1,-1,0
1523630981956,-393216,104,-56,-1,-1,0
1523630981996,458752,104,-56,-1,-1,0
1523630981996,393216,104,-56,-1,-1,0
1523630981996,-327680,104,-56,-1,-1,0
1523630981996,-786432,104,-56,-1,-1,0
1523630981996,-524288,104,-56,-1,-1,0
1523630982036,0,104,-56,-1,-1,0
1523630982036,0,104,-56,-1,-1,0
1523630982036,-1048576,104,-56,-1,-1,0
1523630982036,-1703936,104,-56,-1,-1,0
1523630982036,-1179648,104,-56,-1,-1,0
1523630982076,-393216,104,-56,-1,-1,0
1523630982076,-589824,104,-56,-1,-1,0
1523630982076,-917504,104,-56,-1,-1,0
1523630982076,-983040,104,-56,-1,-1,0
1523630982076,-983040,104,-56,-1,-1,0
1523630982116,-917504,104,-56,-1,-1,0
1523630982116,-655360,104,-56,-1,-1,0
1523630982116,-655360,104,-56,-1,-1,0
1523630982116,-1310720,104,-56,-1,-1,0
1523630982116,-1769472,104,-56,-1,-1,0
1523630982161,-1441792,104,-56,-1,-1,0
1523630982161,-983040,104,-56,-1,-1,0
1523630982161,-524288,104,-56,-1,-1,0
1523630982161,-393216,104,-56,-1,-1,0
1523630982161,-983040,104,-56,-1,-1,0
1523630982196,-1507328,104,-56,-1,-1,0
1523630982196,-1376256,104,-56,-1,-1,0
1523630982196,-589824,104,-56,-1,-1,0
1523630982196,-262144,104,-56,-1,-1,0
1523630982196,-655360,104,-56,-1,-1,0
1523630982236,-1376256,103,-56,-1,-1,0
1523630982236,-1572864,103,-56,-1,-1,0
1523630982236,-1507328,103,-56,-1,-1,0
1523630982236,-1441792,103,-56,-1,-1,0
1523630982236,-1703936,103,-56,-1,-1,0
1523630982276,-2162688,103,-56,-1,-1,0
1523630982276,-1966080,103,-56,-1,-1,0
1523630982276,196608,103,-56,-1,-1,0
1523630982276,4653056,103,-56,-1,-1,0
1523630982276,11075584,103,-56,-1,-1,0
1523630982316,15728640,103,-56,-1,-1,0
1523630982316,13565952,103,-56,-1,-1,0
1523630982316,5308416,103,-56,-1,-1,0
1523630982316,-1310720,103,-56,-1,-1,0
1523630982316,-2818048,103,-56,-1,-1,0
1523630982356,-2752512,103,-56,-1,-1,0
1523630982356,-3014656,103,-56,-1,-1,0
1523630982356,-2818048,103,-56,-1,-1,0
1523630982356,-2621440,103,-56,-1,-1,0
1523630982356,-2555904,103,-56,-1,-1,0
1523630982396,-2293760,103,-56,-1,-1,0
1523630982396,-2228224,103,-56,-1,-1,0
1523630982396,-2097152,103,-56,-1,-1,0
1523630982396,-1835008,103,-56,-1,-1,0
1523630982396,-1441792,103,-56,-1,-1,0
1523630982436,-1572864,103,-56,-1,-1,0
1523630982436,-1572864,103,-56,-1,-1,0
1523630982436,-786432,103,-56,-1,-1,0
1523630982436,262144,103,-56,-1,-1,0
1523630982436,1114112,103,-56,-1,-1,0
1523630982476,1507328,103,-56,-1,-1,0
1523630982476,1703936,103,-56,-1,-1,0
1523630982476,1835008,103,-56,-1,-1,0
1523630982476,2162688,103,-56,-1,-1,0
1523630982476,2097152,103,-56,-1,-1,0
1523630982516,1638400,103,-56,-1,-1,0
1523630982516,1441792,103,-56,-1,-1,0
1523630982516,1179648,103,-56,-1,-1,0
1523630982516,720896,103,-56,-1,-1,0
1523630982516,-65536,103,-56,-1,-1,0
1523630982556,-524288,103,-56,-1,-1,0
1523630982556,-524288,103,-56,-1,-1,0
1523630982556,-655360,103,-56,-1,-1,0
1523630982556,-851968,103,-56,-1,-1,0
1523630982556,-786432,103,-56,-1,-1,0
1523630982596,-589824,103,-56,-1,-1,0
1523630982596,-851968,103,-56,-1,-1,0
1523630982596,-1114112,103,-56,-1,-1,0
1523630982596,-851968,103,-56,-1,-1,0
1523630982596,-1048576,103,-56,-1,-1,0
1523630982636,-1441792,103,-56,-1,-1,0
1523630982636,-1310720,103,-56,-1,-1,0
1523630982636,-1048576,103,-56,-1,-1,0
1523630982636,-1310720,103,-56,-1,-1,0
1523630982636,-1376256,103,-56,-1,-1,0
1523630982676,-1114112,103,-56,-1,-1,0
1523630982676,-917504,103,-56,-1,-1,0
1523630982676,-1048576,103,-56,-1,-1,0
1523630982676,-786432,103,-56,-1,-1,0
1523630982676,-720896,103,-56,-1,-1,0
1523630982716,-1441792,103,-56,-1,-1,0
1523630982716,-1966080,103,-56,-1,-1,0
1523630982716,-2031616,103,-56,-1,-1,0
1523630982716,-1966080,103,-56,-1,-1,0
1523630982716,-1507328,103,-56,-1,-1,0
1523630982756,-983040,103,-56,-1,-1,0
1523630982756,-1179648,103,-56,-1,-1,0
1523630982756,-1507328,103,-56,-1,-1,0
1523630982756,-1507328,103,-56,-1,-1,0
1523630982756,-1441792,103,-56,-1,-1,0
1523630982801,-1572864,103,-56,-1,-1,0
1523630982801,-1572864,103,-56,-1,-1,0
1523630982801,-1572864,103,-56,-1,-1,0
1523630982801,-1638400,103,-56,-1,-1,0
1523630982801,-1310720,103,-56,-1,-1,0
1523630982836,-720896,103,-56,-1,-1,0
1523630982836,-655360,103,-56,-1,-1,0
1523630982836,-1048576,103,-56,-1,-1,0
1523630982836,-1114112,103,-56,-1,-1,0
1523630982836,-786432,103,-56,-1,-1,0
1523630982876,-851968,102,-56,-1,-1,0
1523630982876,-917504,102,-56,-1,-1,0
1523630982876,-524288,102,-56,-1,-1,0
1523630982876,-983040,102,-56,-1,-1,0
1523630982876,-1900544,102,-56,-1,-1,0
1523630982916,-1245184,102,-56,-1,-1,0
1523630982916,-720896,102,-56,-1,-1,0
1523630982916,-1769472,102,-56,-1,-1,0
1523630982916,-2490368,102,-56,-1,-1,0
1523630982916,-655360,102,-56,-1,-1,0
1523630982956,2162688,102,-56,-1,-1,0
1523630982956,6422528,102,-56,-1,-1,0
1523630982956,12910592,102,-56,-1,-1,0
1523630982956,15663104,102,-56,-1,-1,0
1523630982956,9830400,102,-56,-1,-1,0
1523630982996,589824,102,-56,-1,-1,0
1523630982996,-2818048,102,-56,-1,-1,0
1523630982996,-2424832,102,-56,-1,-1,0
1523630982996,-2555904,102,-56,-1,-1,0
1523630982996,-3080192,102,-56,-1,-1,0
1523630983036,-2686976,102,-56,-1,-1,0
1523630983036,-2162688,102,-56,-1,-1,0
1523630983036,-1769472,102,-56,-1,-1,0
1523630983036,-1703936,102,-56,-1,-1,0
1523630983036,-1703936,102,-56,-1,-1,0
1523630983076,-1376256,102,-56,-1,-1,0
1523630983076,-1048576,102,-56,-1,-1,0
1523630983076,-1048576,102,-56,-1,-1,0
1523630983076,-589824,102,-56,-1,-1,0
1523630983076,-65536,102,-56,-1,-1,0
1523630983116,196608,102,-56,-1,-1,0
1523630983116,720896,102,-56,-1,-1,0
1523630983116,1572864,102,-56,-1,-1,0
1523630983116,2031616,102,-56,-1,-1,0
1523630983116,2293760,102,-56,-1,-1,0
1523630983156,2621440,102,-56,-1,-1,0
1523630983156,2818048,102,-56,-1,-1,0
1523630983156,2752512,102,-56,-1,-1,0
1523630983156,2097152,102,-56,-1,-1,0
1523630983156,1310720,102,-56,-1,-1,0
1523630983196,917504,102,-56,-1,-1,0
1523630983196,524288,102,-56,-1,-1,0
1523630983196,327680,102,-56,-1,-1,0
1523630983196,0,102,-56,-1,-1,0
1523630983196,65536,102,-56,-1,-1,0
1523630983237,-65536,102,-56,-1,-1,0
1523630983237,-589824,102,-56,-1,-1,0
1523630983237,-786432,102,-56,-1,-1,0
1523630983237,-589824,102,-56,-1,-1,0
1523630983237,-524288,102,-56,-1,-1,0
1523630983276,-655360,102,-56,-1,-1,0
1523630983276,-851968,102,-56,-1,-1,0
1523630983276,-589824,102,-56,-1,-1,0
1523630983276,-196608,102,-56,-1,-1,0
1523630983276,-458752,102,-56,-1,-1,0
1523630983316,-851968,102,-56,-1,-1,0
1523630983316,-983040,102,-56,-1,-1,0
1523630983316,-1048576,102,-56,-1,-1,0
1523630983316,-1179648,102,-56,-1,-1,0
1523630983316,-1114112,102,-56,-1,-1,0
1523630983355,-1048576,102,-56,-1,-1,0
1523630983355,-1114112,102,-56,-1,-1,0
1523630983355,-1114112,102,-56,-1,-1,0
1523630983355,-1441792,102,-56,-1,-1,0
1523630983355,-1507328,102,-56,-1,-1,0
1523630983396,-1179648,102,-56,-1,-1,0
1523630983396,-1048576,102,-56,-1,-1,0
1523630983396,-1441792,102,-56,-1,-1,0
1523630983396,-1572864,102,-56,-1,-1,0
1523630983396,-1572864,102,-56,-1,-1,0
1523630983441,-1638400,102,-56,-1,-1,0
1523630983441,-1507328,102,-56,-1,-1,0
1523630983441,-1441792,102,-56,-1,-1,0
1523630983441,-1441792,102,-56,-1,-1,0
1523630983441,-1245184,102,-56,-1,-1,0
1523630983476,-1114112,101,-56,-1,-1,0
1523630983476,-1179648,101,-56,-1,-1,0
1523630983476,-1245184,101,-56,-1,-1,0
1523630983476,-1114112,101,-56,-1,-1,0
1523630983476,-1179648,101,-56,-1,-1,0
1523630983516,-1310720,101,-56,-1,-1,0
1523630983516,-1638400,101,-56,-1,-1,0
1523630983516,-1441792,101,-56,-1,-1,0
1523630983516,-1245184,101,-56,-1,-1,0
1523630983516,-1310720,101,-56,-1,-1,0
1523630983556,-1572864,101,-56,-1,-1,0
1523630983556,-1835008,101,-56,-1,-1,0
1523630983556,-2424832,101,-56,-1,-1,0
1523630983556,-1900544,101,-56,-1,-1,0
1523630983556,1310720,101,-56,-1,-1,0
1523630983595,6881280,101,-56,-1,-1,0
1523630983595,13238272,101,-56,-1,-1,0
1523630983595,16384000,101,-56,-1,-1,0
1523630983595,12124160,101,-56,-1,-1,0
1523630983595,3538944,101,-56,-1,-1,0
1523630983636,-1966080,101,-56,-1,-1,0
1523630983636,-2752512,101,-56,-1,-1,0
1523630983636,-2490368,101,-56,-1,-1,0
1523630983636,-2293760,101,-56,-1,-1,0
1523630983636,-2031616,101,-56,-1,-1,0
1523630983676,-2162688,101,-56,-1,-1,0
1523630983676,-2490368,101,-56,-1,-1,0
1523630983676,-2293760,101,-56,-1,-1,0
1523630983676,-1966080,101,-56,-1,-1,0
1523630983676,-1703936,101,-56,-1,-1,0
1523630983716,-1638400,101,-56,-1,-1,0
1523630983716,-1310720,101,-56,-1,-1,0
1523630983716,-655360,101,-56,-1,-1,0
1523630983716,-65536,101,-56,-1,-1,0
1523630983716,196608,101,-56,-1,-1,0
1523630983756,720896,101,-56,-1,-1,0
1523630983756,1507328,101,-56,-1,-1,0
1523630983756,2293760,101,-56,-1,-1,0
1523630983756,2949120,101,-56,-1,-1,0
1523630983756,3342336,101,-56,-1,-1,0
1523630983795,3276800,101,-56,-1,-1,0
1523630983795,3014656,101,-56,-1,-1,0
1523630983795,2621440,101,-56,-1,-1,0
1523630983795,1835008,101,-56,-1,-1,0
1523630983795,1114112,101,-56,-1,-1,0
1523630983836,655360,101,-56,-1,-1,0
1523630983836,262144,101,-56,-1,-1,0
1523630983836,-65536,101,-56,-1,-1,0
1523630983836,-196608,101,-56,-1,-1,0
1523630983836,-327680,101,-56,-1,-1,0
1523630983875,-917504,101,-56,-1,-1,0
1523630983875,-1179648,101,-56,-1,-1,0
1523630983875,-917504,101,-56,-1,-1,0
1523630983875,-655360,101,-56,-1,-1,0
1523630983875,-720896,101,-56,-1,-1,0
1523630983915,-655360,101,-56,-1,-1,0
1523630983915,-524288,101,-56,-1,-1,0
1523630983915,-589824,101,-56,-1,-1,0
1523630983915,-655360,101,-56,-1,-1,0
1523630983915,-720896,101,-56,-1,-1,0
1523630983957,-851968,101,-56,-1,-1,0
1523630983957,-983040,101,-56,-1,-1,0
1523630983957,-1048576,101,-56,-1,-1,0
1523630983957,-1114112,101,-56,-1,-1,0
1523630983957,-1114112,101,-56,-1,-1,0
1523630983996,-1245184,101,-56,-1,-1,0
1523630983996,-1507328,101,-56,-1,-1,0
1523630983996,-1572864,101,-56,-1,-1,0
1523630983996,-1376256,101,-56,-1,-1,0
1523630983996,-1310720,101,-56,-1,-1,0
1523630984035,-1310720,101,-56,-1,-1,0
1523630984035,-1245184,101,-56,-1,-1,0
1523630984035,-1376256,101,-56,-1,-1,0
1523630984035,-1638400,101,-56,-1,-1,0
1523630984035,-1703936,101,-56,-1,-1,0
1523630984081,-1507328,101,-56,-1,-1,0
1523630984081,-1507328,101,-56,-1,-1,0
1523630984081,-1441792,101,-56,-1,-1,0
1523630984081,-1179648,101,-56,-1,-1,0
1523630984081,-917504,101,-56,-1,-1,0
1523630984116,-983040,100,-56,-1,-1,0
1523630984116,-1179648,100,-56,-1,-1,0
1523630984116,-1441792,100,-56,-1,-1,0
1523630984116,-1572864,100,-56,-1,-1,0
1523630984116,-1507328,100,-56,-1,-1,0
1523630984156,-1376256,100,-56,-1,-1,0
1523630984156,-1441792,100,-56,-1,-1,0
1523630984156,-1638400,100,-56,-1,-1,0
1523630984156,-1966080,100,-56,-1,-1,0
1523630984156,-2359296,100,-56,-1,-1,0
1523630984196,-1638400,100,-56,-1,-1,0
1523630984196,1703936,100,-56,-1,-1,0
1523630984196,7733248,100,-56,-1,-1,0
1523630984196,14483456,100,-56,-1,-1,0
1523630984196,17629184,100,-56,-1,-1,0
1523630984236,12779520,100,-56,-1,-1,0
1523630984236,3801088,100,-56,-1,-1,0
1523630984236,-1769472,100,-56,-1,-1,0
1523630984236,-2686976,100,-56,-1,-1,0
1523630984236,-2555904,100,-56,-1,-1,0
1523630984276,-2293760,100,-56,-1,-1,0
1523630984276,-2097152,100,-56,-1,-1,0
1523630984276,-1966080,100,-56,-1,-1,0
1523630984276,-2031616,100,-56,-1,-1,0
1523630984276,-1835008,100,-56,-1,-1,0
1523630984316,-1769472,100,-56,-1,-1,0
1523630984316,-1835008,100,-56,-1,-1,0
1523630984316,-1703936,100,-56,-1,-1,0
1523630984316,-1179648,100,-56,-1,-1,0
1523630984316,-655360,100,-56,-1,-1,0
1523630984356,-327680,100,-56,-1,-1,0
1523630984356,262144,100,-56,-1,-1,0
1523630984356,1048576,100,-56,-1,-1,0
1523630984356,1769472,100,-56,-1,-1,0
1523630984356,2555904,100,-56,-1,-1,0
1523630984396,3211264,100,-56,-1,-1,0
1523630984396,3276800,100,-56,-1,-1,0
1523630984396,3014656,100,-56,-1,-1,0
1523630984396,2555904,100,-56,-1,-1,0
1523630984396,1966080,100,-56,-1,-1,0
1523630984436,1507328,100,-56,-1,-1,0
1523630984436,1048576,100,-56,-1,-1,0
1523630984436,655360,100,-56,-1,-1,0
1523630984436,65536,100,-56,-1,-1,0
1523630984436,-393216,100,-56,-1,-1,0
1523630984476,-589824,100,-56,-1,-1,0
1523630984476,-655360,100,-56,-1,-1,0
1523630984476,-720896,100,-56,-1,-1,0
1523630984476,-720896,100,-56,-1,-1,0
1523630984476,-655360,100,-56,-1,-1,0
1523630984516,-589824,100,-56,-1,-1,0
1523630984516,-524288,100,-56,-1,-1,0
1523630984516,-393216,100,-56,-1,-1,0
1523630984516,-524288,100,-56,-1,-1,0
1523630984516,-720896,100,-56,-1,-1,0
1523630984556,-786432,100,-56,-1,-1,0
1523630984556,-655360,100,-56,-1,-1,0
1523630984556,-589824,100,-56,-1,-1,0
1523630984556,-589824,100,-56,-1,-1,0
1523630984556,-655360,100,-56,-1,-1,0
1523630984596,-917504,100,-56,-1,-1,0
1523630984596,-1114112,100,-56,-1,-1,0
1523630984596,-1114112,100,-56,-1,-1,0
1523630984596,-786432,100,-56,-1,-1,0
1523630984596,-524288,100,-56,-1,-1,0
1523630984636,-917504,100,-56,-1,-1,0
1523630984636,-1638400,100,-56,-1,-1,0
1523630984636,-1703936,100,-56,-1,-1,0
1523630984636,-1638400,100,-56,-1,-1,0
1523630984636,-1507328,100,-56,-1,-1,0
1523630984676,-1310720,100,-56,-1,-1,0
1523630984676,-1245184,100,-56,-1,-1,0
1523630984676,-1114112,100,-56,-1,-1,0
1523630984676,-1048576,100,-56,-1,-1,0
1523630984676,-1179648,100,-56,-1,-1,0
1523630984721,-1114112,100,-56,-1,-1,0
1523630984721,-917504,100,-56,-1,-1,0
1523630984721,-1114112,100,-56,-1,-1,0
1523630984721,-1572864,100,-56,-1,-1,0
1523630984721,-1507328,100,-56,-1,-1,0
1523630984756,-1441792,100,-56,-1,-1,0
1523630984756,-1507328,100,-56,-1,-1,0
1523630984756,-1441792,100,-56,-1,-1,0
1523630984756,-1310720,100,-56,-1,-1,0
1523630984756,-1572864,100,-56,-1,-1,0
1523630984796,-2228224,100,-56,-1,-1,0
1523630984796,-1835008,100,-56,-1,-1,0
1523630984796,1179648,100,-56,-1,-1,0
1523630984796,7143424,100,-56,-1,-1,0
1523630984796,14286848,100,-56,-1,-1,0
1523630984836,18284544,100,-56,-1,-1,0
1523630984836,14090240,100,-56,-1,-1,0
1523630984836,5046272,100,-56,-1,-1,0
1523630984836,-1179648,100,-56,-1,-1,0
1523630984836,-2621440,100,-56,-1,-1,0
1523630984876,-2686976,100,-56,-1,-1,0
1523630984876,-2555904,100,-56,-1,-1,0
1523630984876,-2359296,100,-56,-1,-1,0
1523630984876,-2293760,100,-56,-1,-1,0
1523630984876,-2162688,100,-56,-1,-1,0
1523630984916,-2031616,100,-56,-1,-1,0
1523630984916,-1769472,100,-56,-1,-1,0
1523630984916,-1376256,100,-56,-1,-1,0
1523630984916,-1114112,100,-56,-1,-1,0
1523630984916,-1048576,100,-56,-1,-1,0
1523630984956,-1048576,100,-56,-1,-1,0
1523630984956,-655360,100,-56,-1,-1,0
1523630984956,0,100,-56,-1,-1,0
1523630984956,786432,100,-56,-1,-1,0
1523630984956,1638400,100,-56,-1,-1,0
1523630984996,2359296,100,-56,-1,-1,0
1523630984996,2949120,100,-56,-1,-1,0
1523630984996,3211264,100,-56,-1,-1,0
1523630984996,3145728,100,-56,-1,-1,0
1523630984996,2752512,100,-56,-1,-1,0
1523630985036,2228224,100,-56,-1,-1,0
1523630985036,1703936,100,-56,-1,-1,0
1523630985036,1179648,100,-56,-1,-1,0
1523630985036,851968,100,-56,-1,-1,0
1523630985036,327680,100,-56,-1,-1,0
1523630985076,0,100,-56,-1,-1,0
1523630985076,-327680,100,-56,-1,-1,0
1523630985076,-524288,100,-56,-1,-1,0
1523630985076,-786432,100,-56,-1,-1,0
1523630985076,-851968,100,-56,-1,-1,0
1523630985116,-720896,100,-56,-1,-1,0
1523630985116,-458752,100,-56,-1,-1,0
1523630985116,-458752,100,-56,-1,-1,0
1523630985116,-655360,100,-56,-1,-1,0
1523630985116,-786432,100,-56,-1,-1,0
1523630985156,-655360,100,-56,-1,-1,0
1523630985156,-655360,100,-56,-1,-1,0
1523630985156,-786432,100,-56,-1,-1,0
1523630985156,-851968,100,-56,-1,-1,0
1523630985156,-917504,100,-56,-1,-1,0
1523630985196,-1048576,100,-56,-1,-1,0
1523630985196,-1179648,100,-56,-1,-1,0
1523630985196,-1179648,100,-56,-1,-1,0
1523630985196,-1245184,100,-56,-1,-1,0
1523630985196,-1179648,100,-56,-1,-1,0
1523630985236,-1114112,100,-56,-1,-1,0
1523630985236,-1245184,100,-56,-1,-1,0
1523630985236,-1507328,100,-56,-1,-1,0
1523630985236,-1638400,100,-56,-1,-1,0
1523630985236,-1507328,100,-56,-1,-1,0
1523630985276,-1441792,100,-56,-1,-1,0
1523630985276,-1310720,100,-56,-1,-1,0
1523630985276,-1114112,100,-56,-1,-1,0
1523630985276,-1310720,100,-56,-1,-1,0
1523630985276,-1638400,100,-56,-1,-1,0
1523630985316,-1769472,99,-56,-1,-1,0
1523630985316,-1638400,99,-56,-1,-1,0
1523630985316,-1572864,99,-56,-1,-1,0
1523630985316,-1507328,99,-56,-1,-1,0
1523630985316,-1507328,99,-56,-1,-1,0
1523630985361,-1507328,99,-56,-1,-1,0
1523630985361,-1572864,99,-56,-1,-1,0
1523630985361,-1769472,99,-56,-1,-1,0
1523630985361,-1638400,99,-56,-1,-1,0
1523630985361,-1835008,99,-56,-1,-1,0
1523630985396,-2424832,99,-56,-1,-1,0
1523630985396,-2293760,99,-56,-1,-1,0
1523630985396,393216,99,-56,-1,-1,0
1523630985396,5701632,99,-56,-1,-1,0
1523630985396,12517376,99,-56,-1,-1,0
1523630985437,17039360,99,-56,-1,-1,0
1523630985437,14352384,99,-56,-1,-1,0
1523630985437,6029312,99,-56,-1,-1,0
1523630985437,-720896,99,-56,-1,-1,0
1523630985437,-2686976,99,-56,-1,-1,0
1523630985476,-2686976,99,-56,-1,-1,0
1523630985476,-2555904,99,-56,-1,-1,0
1523630985476,-2424832,99,-56,-1,-1,0
1523630985476,-2228224,99,-56,-1,-1,0
1523630985476,-2031616,99,-56,-1,-1,0
1523630985516,-1835008,99,-56,-1,-1,0
1523630985516,-1835008,99,-56,-1,-1,0
1523630985516,-1703936,99,-56,-1,-1,0
1523630985516,-1441792,99,-56,-1,-1,0
1523630985516,-1179648,99,-56,-1,-1,0
1523630985556,-917504,99,-56,-1,-1,0
1523630985556,-589824,99,-56,-1,-1,0
1523630985556,-65536,99,-56,-1,-1,0
1523630985556,589824,99,-56,-1,-1,0
1523630985556,1572864,99,-56,-1,-1,0
1523630985596,2359296,99,-56,-1,-1,0
1523630985596,2883584,99,-56,-1,-1,0
1523630985596,3080192,99,-56,-1,-1,0
1523630985596,2949120,99,-56,-1,-1,0
1523630985596,2621440,99,-56,-1,-1,0
1523630985636,2162688,99,-56,-1,-1,0
1523630985636,1703936,99,-56,-1,-1,0
1523630985636,1048576,99,-56,-1,-1,0
1523630985636,458752,99,-56,-1,-1,0
1523630985636,0,99,-56,-1,-1,0
1523630985675,-131072,99,-56,-1,-1,0
1523630985675,-262144,99,-56,-1,-1,0
1523630985675,-524288,99,-56,-1,-1,0
1523630985675,-917504,99,-56,-1,-1,0
1523630985675,-1048576,99,-56,-1,-1,0
1523630985715,-917504,99,-56,-1,-1,0
1523630985715,-983040,99,-56,-1,-1,0
1523630985715,-917504,99,-56,-1,-1,0
1523630985715,-786432,99,-56,-1,-1,0
1523630985715,-720896,99,-56,-1,-1,0
1523630985755,-655360,99,-56,-1,-1,0
1523630985755,-196608,99,-56,-1,-1,0
1523630985755,-393216,99,-56,-1,-1,0
1523630985755,-983040,99,-56,-1,-1,0
1523630985755,-1245184,99,-56,-1,-1,0
1523630985795,-1376256,99,-56,-1,-1,0
1523630985795,-1703936,99,-56,-1,-1,0
1523630985795,-1638400,99,-56,-1,-1,0
1523630985795,-1441792,99,-56,-1,-1,0
1523630985795,-1310720,99,-56,-1,-1,0
1523630985835,-1310720,99,-56,-1,-1,0
1523630985835,-1572864,99,-56,-1,-1,0
1523630985835,-1703936,99,-56,-1,-1,0
1523630985835,-1638400,99,-56,-1,-1,0
1523630985835,-1376256,99,-56,-1,-1,0
1523630985875,-1245184,99,-56,-1,-1,0
1523630985875,-1179648,99,-56,-1,-1,0
1523630985875,-1245184,99,-56,-1,-1,0
1523630985875,-1310720,99,-56,-1,-1,0
1523630985875,-1245184,99,-56,-1,-1,0
1523630985915,-1245184,98,-56,-1,-1,0
1523630985915,-1310720,98,-56,-1,-1,0
1523630985915,-1245184,98,-56,-1,-1,0
1523630985915,-1245184,98,-56,-1,-1,0
1523630985915,-1376256,98,-56,-1,-1,0
1523630985956,-1572864,98,-56,-1,-1,0
1523630985956,-1572864,98,-56,-1,-1,0
1523630985956,-1507328,98,-56,-1,-1,0
1523630985956,-1638400,98,-56,-1,-1,0
1523630985956,-1966080,98,-56,-1,-1,0
1523630986000,-2228224,98,-56,-1,-1,0
1523630986000,-917504,98,-56,-1,-1,0
1523630986000,2949120,98,-56,-1,-1,0
1523630986000,9437184,98,-56,-1,-1,0
1523630986000,15728640,98,-56,-1,-1,0
1523630986035,16777216,98,-56,-1,-1,0
1523630986035,10158080,98,-56,-1,-1,0
1523630986035,1703936,98,-56,-1,-1,0
1523630986035,-2424832,98,-56,-1,-1,0
1523630986035,-2883584,98,-56,-1,-1,0
1523630986075,-2686976,98,-56,-1,-1,0
1523630986075,-2555904,98,-56,-1,-1,0
1523630986075,-2424832,98,-56,-1,-1,0
1523630986075,-2228224,98,-56,-1,-1,0
1523630986075,-2097152,98,-56,-1,-1,0
1523630986115,-2162688,98,-56,-1,-1,0
1523630986115,-1966080,98,-56,-1,-1,0
1523630986115,-1638400,98,-56,-1,-1,0
1523630986115,-1310720,98,-56,-1,-1,0
1523630986115,-1114112,98,-56,-1,-1,0
1523630986155,-851968,98,-56,-1,-1,0
1523630986155,-524288,98,-56,-1,-1,0
1523630986155,65536,98,-56,-1,-1,0
1523630986155,917504,98,-56,-1,-1,0
1523630986155,1835008,98,-56,-1,-1,0
1523630986196,2359296,98,-56,-1,-1,0
1523630986196,2686976,98,-56,-1,-1,0
1523630986196,2883584,98,-56,-1,-1,0
1523630986196,2686976,98,-56,-1,-1,0
1523630986196,2293760,98,-56,-1,-1,0
1523630986235,1769472,98,-56,-1,-1,0
1523630986235,1245184,98,-56,-1,-1,0
1523630986235,655360,98,-56,-1,-1,0
1523630986235,196608,98,-56,-1,-1,0
1523630986235,-262144,98,-56,-1,-1,0
1523630986275,-655360,98,-56,-1,-1,0
1523630986275,-851968,98,-56,-1,-1,0
1523630986275,-917504,98,-56,-1,-1,0
1523630986275,-917504,98,-56,-1,-1,0
1523630986275,-851968,98,-56,-1,-1,0
1523630986315,-851968,98,-56,-1,-1,0
1523630986315,-983040,98,-56,-1,-1,0
1523630986315,-983040,98,-56,-1,-1,0
1523630986315,-786432,98,-56,-1,-1,0
1523630986315,-589824,98,-56,-1,-1,0
1523630986356,-589824,98,-56,-1,-1,0
1523630986356,-851968,98,-56,-1,-1,0
1523630986356,-917504,98,-56,-1,-1,0
1523630986356,-917504,98,-56,-1,-1,0
1523630986356,-1048576,98,-56,-1,-1,0
1523630986396,-1310720,98,-56,-1,-1,0
1523630986396,-1310720,98,-56,-1,-1,0
1523630986396,-1310720,98,-56,-1,-1,0
1523630986396,-1310720,98,-56,-1,-1,0
1523630986396,-1310720,98,-56,-1,-1,0
1523630986435,-1310720,98,-56,-1,-1,0
1523630986435,-1376256,98,-56,-1,-1,0
1523630986435,-1507328,98,-56,-1,-1,0
1523630986435,-1507328,98,-56,-1,-1,0
1523630986435,-1441792,98,-56,-1,-1,0
1523630986475,-1441792,98,-56,-1,-1,0
1523630986475,-1572864,98,-56,-1,-1,0
1523630986475,-1507328,98,-56,-1,-1,0
1523630986475,-1310720,98,-56,-1,-1,0
1523630986475,-1310720,98,-56,-1,-1,0
1523630986516,-1507328,98,-56,-1,-1,0
1523630986516,-1638400,98,-56,-1,-1,0
1523630986516,-1638400,98,-56,-1,-1,0
1523630986516,-1703936,98,-56,-1,-1,0
1523630986516,-1703936,98,-56,-1,-1,0
1523630986555,-1572864,98,-56,-1,-1,0
1523630986555,-1507328,98,-56,-1,-1,0
1523630986555,-1638400,98,-56,-1,-1,0
1523630986555,-1769472,98,-56,-1,-1,0
1523630986555,-2031616,98,-56,-1,-1,0
1523630986596,-2686976,98,-56,-1,-1,0
1523630986596,-2228224,98,-56,-1,-1,0
1523630986596,1179648,98,-56,-1,-1,0
1523630986596,7405568,98,-56,-1,-1,0
1523630986596,13959168,98,-56,-1,-1,0
1523630986644,16252928,98,-56,-1,-1,0
1523630986644,10878976,98,-56,-1,-1,0
1523630986644,2490368,98,-56,-1,-1,0
1523630986644,-2359296,98,-56,-1,-1,0
1523630986644,-3145728,98,-56,-1,-1,0
1523630986676,-3014656,98,-56,-1,-1,0
1523630986676,-2818048,98,-56,-1,-1,0
1523630986676,-2621440,98,-56,-1,-1,0
1523630986676,-2555904,98,-56,-1,-1,0
1523630986676,-2490368,98,-56,-1,-1,0
1523630986715,-2359296,98,-56,-1,-1,0
1523630986715,-2162688,98,-56,-1,-1,0
1523630986715,-2031616,98,-56,-1,-1,0
1523630986715,-1900544,98,-56,-1,-1,0
1523630986715,-1572864,98,-56,-1,-1,0
1523630986756,-1179648,98,-56,-1,-1,0
1523630986756,-720896,98,-56,-1,-1,0
1523630986756,-196608,98,-56,-1,-1,0
1523630986756,393216,98,-56,-1,-1,0
1523630986756,1048576,98,-56,-1,-1,0
1523630986796,1769472,98,-56,-1,-1,0
1523630986796,2228224,98,-56,-1,-1,0
1523630986796,2424832,98,-56,-1,-1,0
1523630986796,2228224,98,-56,-1,-1,0
1523630986796,1900544,98,-56,-1,-1,0
1523630986835,1507328,98,-56,-1,-1,0
1523630986835,1048576,98,-56,-1,-1,0
1523630986835,655360,98,-56,-1,-1,0
1523630986835,262144,98,-56,-1,-1,0
1523630986835,-131072,98,-56,-1,-1,0
1523630986876,-524288,98,-56,-1,-1,0
1523630986876,-786432,98,-56,-1,-1,0
1523630986876,-917504,98,-56,-1,-1,0
1523630986876,-983040,98,-56,-1,-1,0
1523630986876,-917504,98,-56,-1,-1,0
1523630986915,-851968,98,-56,-1,-1,0
1523630986915,-720896,98,-56,-1,-1,0
1523630986915,-655360,98,-56,-1,-1,0
1523630986915,-720896,98,-56,-1,-1,0
1523630986915,-720896,98,-56,-1,-1,0
1523630986955,-655360,98,-56,-1,-1,0
1523630986955,-655360,98,-56,-1,-1,0
1523630986955,-720896,98,-56,-1,-1,0
1523630986955,-655360,98,-56,-1,-1,0
1523630986955,-589824,98,-56,-1,-1,0
1523630986995,-589824,98,-56,-1,-1,0
1523630986995,-786432,98,-56,-1,-1,0
1523630986995,-983040,98,-56,-1,-1,0
1523630986995,-1048576,98,-56,-1,-1,0
1523630986995,-983040,98,-56,-1,-1,0
1523630987035,-983040,98,-56,-1,-1,0
1523630987035,-1114112,98,-56,-1,-1,0
1523630987035,-1114112,98,-56,-1,-1,0
1523630987035,-1179648,98,-56,-1,-1,0
1523630987035,-1114112,98,-56,-1,-1,0
1523630987076,-1048576,98,-56,-1,-1,0
1523630987076,-851968,98,-56,-1,-1,0
1523630987076,-851968,98,-56,-1,-1,0
1523630987076,-983040,98,-56,-1,-1,0
1523630987076,-983040,98,-56,-1,-1,0
1523630987117,-917504,98,-56,-1,-1,0
1523630987117,-917504,98,-56,-1,-1,0
1523630987117,-1048576,98,-56,-1,-1,0
1523630987117,-1114112,98,-56,-1,-1,0
1523630987117,-1179648,98,-56,-1,-1,0
1523630987156,-1179648,98,-56,-1,-1,0
1523630987156,-1245184,98,-56,-1,-1,0
1523630987156,-1245184,98,-56,-1,-1,0
1523630987156,-1245184,98,-56,-1,-1,0
1523630987156,-1441792,98,-56,-1,-1,0
1523630987196,-1703936,98,-56,-1,-1,0
1523630987196,-1114112,98,-56,-1,-1,0
1523630987196,1769472,98,-56,-1,-1,0
1523630987196,7340032,98,-56,-1,-1,0
1523630987196,13762560,98,-56,-1,-1,0
1523630987236,16580608,98,-56,-1,-1,0
1523630987236,12058624,98,-56,-1,-1,0
1523630987236,3801088,98,-56,-1,-1,0
1523630987236,-1441792,98,-56,-1,-1,0
1523630987236,-2490368,98,-56,-1,-1,0
1523630987284,-2228224,98,-56,-1,-1,0
1523630987284,-1966080,98,-56,-1,-1,0
1523630987284,-1769472,98,-56,-1,-1,0
1523630987284,-1769472,98,-56,-1,-1,0
1523630987284,-1835008,98,-56,-1,-1,0
1523630987315,-1703936,98,-56,-1,-1,0
1523630987315,-1507328,98,-56,-1,-1,0
1523630987315,-1376256,98,-56,-1,-1,0
1523630987315,-1245184,98,-56,-1,-1,0
1523630987315,-917504,98,-56,-1,-1,0
1523630987356,-327680,98,-56,-1,-1,0
1523630987356,65536,98,-56,-1,-1,0
1523630987356,458752,98,-56,-1,-1,0
1523630987356,1048576,98,-56,-1,-1,0
1523630987356,2031616,98,-56,-1,-1,0
1523630987395,2752512,98,-56,-1,-1,0
1523630987395,3276800,98,-56,-1,-1,0
1523630987395,3538944,98,-56,-1,-1,0
1523630987395,3473408,98,-56,-1,-1,0
1523630987395,3145728,98,-56,-1,-1,0
1523630987436,2883584,98,-56,-1,-1,0
1523630987436,2424832,98,-56,-1,-1,0
1523630987436,1507328,98,-56,-1,-1,0
1523630987436,720896,98,-56,-1,-1,0
1523630987436,458752,98,-56,-1,-1,0
1523630987475,196608,98,-56,-1,-1,0
1523630987475,-65536,98,-56,-1,-1,0
1523630987475,-458752,98,-56,-1,-1,0
1523630987475,-655360,98,-56,-1,-1,0
1523630987475,-720896,98,-56,-1,-1,0
1523630987516,-851968,98,-56,-1,-1,0
1523630987516,-786432,98,-56,-1,-1,0
1523630987516,-524288,98,-56,-1,-1,0
1523630987516,-524288,98,-56,-1,-1,0
1523630987516,-720896,98,-56,-1,-1,0
1523630987555,-851968,98,-56,-1,-1,0
1523630987555,-720896,98,-56,-1,-1,0
1523630987555,-786432,98,-56,-1,-1,0
1523630987555,-983040,98,-56,-1,-1,0
1523630987555,-983040,98,-56,-1,-1,0
1523630987596,-1048576,98,-56,-1,-1,0
1523630987596,-1310720,98,-56,-1,-1,0
1523630987596,-1507328,98,-56,-1,-1,0
1523630987596,-1441792,98,-56,-1,-1,0
1523630987596,-1310720,98,-56,-1,-1,0
1523630987635,-1376256,98,-56,-1,-1,0
1523630987635,-1376256,98,-56,-1,-1,0
1523630987635,-1507328,98,-56,-1,-1,0
1523630987635,-1703936,98,-56,-1,-1,0
1523630987635,-1900544,98,-56,-1,-1,0
1523630987676,-1769472,98,-56,-1,-1,0
1523630987676,-1703936,98,-56,-1,-1,0
1523630987676,-1638400,98,-56,-1,-1,0
1523630987676,-1507328,98,-56,-1,-1,0
1523630987676,-1507328,98,-56,-1,-1,0
1523630987715,-1507328,98,-56,-1,-1,0
1523630987715,-1703936,98,-56,-1,-1,0
1523630987715,-1769472,98,-56,-1,-1,0
1523630987715,-1769472,98,-56,-1,-1,0
1523630987715,-1638400,98,-56,-1,-1,0
1523630987756,-1638400,98,-56,-1,-1,0
1523630987756,-1572864,98,-56,-1,-1,0
1523630987756,-1572864,98,-56,-1,-1,0
1523630987756,-1900544,98,-56,-1,-1,0
1523630987756,-2359296,98,-56,-1,-1,0
1523630987795,-1638400,98,-56,-1,-1,0
1523630987795,1835008,98,-56,-1,-1,0
1523630987795,8060928,98,-56,-1,-1,0
1523630987795,14548992,98,-56,-1,-1,0
1523630987795,17039360,98,-56,-1,-1,0
1523630987836,11927552,98,-56,-1,-1,0
1523630987836,3276800,98,-56,-1,-1,0
1523630987836,-1966080,98,-56,-1,-1,0
1523630987836,-2883584,98,-56,-1,-1,0
1523630987836,-2555904,98,-56,-1,-1,0
1523630987875,-2293760,98,-56,-1,-1,0
1523630987875,-2162688,98,-56,-1,-1,0
1523630987875,-2293760,98,-56,-1,-1,0
1523630987875,-2359296,98,-56,-1,-1,0
1523630987875,-2293760,98,-56,-1,-1,0
1523630987920,-1966080,98,-56,-1,-1,0
1523630987920,-1507328,98,-56,-1,-1,0
1523630987920,-1441792,98,-56,-1,-1,0
1523630987920,-1572864,98,-56,-1,-1,0
1523630987920,-1376256,98,-56,-1,-1,0
1523630987955,-786432,98,-56,-1,-1,0
1523630987955,-262144,98,-56,-1,-1,0
1523630987955,327680,98,-56,-1,-1,0
1523630987955,1376256,98,-56,-1,-1,0
1523630987955,2228224,98,-56,-1,-1,0
1523630987994,2424832,98,-56,-1,-1,0
1523630987994,2228224,98,-56,-1,-1,0
1523630987994,2031616,98,-56,-1,-1,0
1523630987994,1835008,98,-56,-1,-1,0
1523630987994,1441792,98,-56,-1,-1,0
1523630988035,851968,98,-56,-1,-1,0
1523630988035,327680,98,-56,-1,-1,0
1523630988035,-131072,98,-56,-1,-1,0
1523630988035,-393216,98,-56,-1,-1,0
1523630988035,-786432,98,-56,-1,-1,0
1523630988075,-1048576,98,-56,-1,-1,0
1523630988075,-1179648,98,-56,-1,-1,0
1523630988075,-1114112,98,-56,-1,-1,0
1523630988075,-1114112,98,-56,-1,-1,0
1523630988075,-1179648,98,-56,-1,-1,0
1523630988115,-1114112,98,-56,-1,-1,0
1523630988115,-983040,98,-56,-1,-1,0
1523630988115,-983040,98,-56,-1,-1,0
1523630988115,-917504,98,-56,-1,-1,0
1523630988115,-589824,98,-56,-1,-1,0
1523630988155,-458752,98,-56,-1,-1,0
1523630988155,-786432,98,-56,-1,-1,0
1523630988155,-1048576,98,-56,-1,-1,0
1523630988155,-1048576,98,-56,-1,-1,0
1523630988155,-983040,98,-56,-1,-1,0
1523630988195,-851968,98,-56,-1,-1,0
1523630988195,-1114112,98,-56,-1,-1,0
1523630988195,-1507328,98,-56,-1,-1,0
1523630988195,-1507328,98,-56,-1,-1,0
1523630988195,-1441792,98,-56,-1,-1,0
1523630988236,-1376256,98,-56,-1,-1,0
1523630988236,-1441792,98,-56,-1,-1,0
1523630988236,-1572864,98,-56,-1,-1,0
1523630988236,-1507328,98,-56,-1,-1,0
1523630988236,-1376256,98,-56,-1,-1,0
1523630988275,-1507328,98,-56,-1,-1,0
1523630988275,-1572864,98,-56,-1,-1,0
1523630988275,-1507328,98,-56,-1,-1,0
1523630988275,-1638400,98,-56,-1,-1,0
1523630988275,-1703936,98,-56,-1,-1,0
1523630988316,-1638400,97,-56,-1,-1,0
1523630988316,-1572864,97,-56,-1,-1,0
1523630988316,-1703936,97,-56,-1,-1,0
1523630988316,-1638400,97,-56,-1,-1,0
1523630988316,-1572864,97,-56,-1,-1,0
1523630988355,-1638400,97,-56,-1,-1,0
1523630988355,-1769472,97,-56,-1,-1,0
1523630988355,-1900544,97,-56,-1,-1,0
1523630988355,-2359296,97,-56,-1,-1,0
1523630988355,-1769472,97,-56,-1,-1,0
1523630988396,1376256,97,-56,-1,-1,0
1523630988396,7667712,97,-56,-1,-1,0
1523630988396,14876672,97,-56,-1,-1,0
1523630988396,18350080,97,-56,-1,-1,0
1523630988396,13828096,97,-56,-1,-1,0
1523630988435,4980736,97,-56,-1,-1,0
1523630988435,-983040,97,-56,-1,-1,0
1523630988435,-2293760,97,-56,-1,-1,0
1523630988435,-2293760,97,-56,-1,-1,0
1523630988435,-2424832,97,-56,-1,-1,0
1523630988474,-2490368,97,-56,-1,-1,0
1523630988474,-2359296,97,-56,-1,-1,0
1523630988474,-2228224,97,-56,-1,-1,0
1523630988474,-1966080,97,-56,-1,-1,0
1523630988474,-1769472,97,-56,-1,-1,0
1523630988514,-1572864,97,-56,-1,-1,0
1523630988514,-1245184,97,-56,-1,-1,0
1523630988514,-917504,97,-56,-1,-1,0
1523630988514,-655360,97,-56,-1,-1,0
1523630988514,-458752,97,-56,-1,-1,0
1523630988560,-65536,97,-56,-1,-1,0
1523630988560,589824,97,-56,-1,-1,0
1523630988560,1376256,97,-56,-1,-1,0
1523630988560,2097152,97,-56,-1,-1,0
1523630988560,2621440,97,-56,-1,-1,0
1523630988594,2818048,97,-56,-1,-1,0
1523630988594,2752512,97,-56,-1,-1,0
1523630988594,2621440,97,-56,-1,-1,0
1523630988594,2293760,97,-56,-1,-1,0
1523630988594,1507328,97,-56,-1,-1,0
1523630988634,589824,97,-56,-1,-1,0
1523630988634,65536,97,-56,-1,-1,0
1523630988634,0,97,-56,-1,-1,0
1523630988634,-327680,97,-56,-1,-1,0
1523630988634,-655360,97,-56,-1,-1,0
1523630988674,-786432,97,-56,-1,-1,0
1523630988674,-917504,97,-56,-1,-1,0
1523630988674,-1114112,97,-56,-1,-1,0
1523630988674,-1048576,97,-56,-1,-1,0
1523630988674,-983040,97,-56,-1,-1,0
1523630988714,-851968,97,-56,-1,-1,0
1523630988714,-720896,97,-56,-1,-1,0
1523630988714,-589824,97,-56,-1,-1,0
1523630988714,-589824,97,-56,-1,-1,0
1523630988714,-589824,97,-56,-1,-1,0
1523630988754,-655360,97,-56,-1,-1,0
1523630988754,-786432,97,-56,-1,-1,0
1523630988754,-1048576,97,-56,-1,-1,0
1523630988754,-1114112,97,-56,-1,-1,0
1523630988754,-1048576,97,-56,-1,-1,0
1523630988794,-983040,97,-56,-1,-1,0
1523630988794,-1048576,97,-56,-1,-1,0
1523630988794,-983040,97,-56,-1,-1,0
1523630988794,-1048576,97,-56,-1,-1,0
1523630988794,-1310720,97,-56,-1,-1,0
1523630988834,-1441792,97,-56,-1,-1,0
1523630988834,-1376256,97,-56,-1,-1,0
1523630988834,-1310720,97,-56,-1,-1,0
1523630988834,-1441792,97,-56,-1,-1,0
1523630988834,-1572864,97,-56,-1,-1,0
1523630988874,-1572864,97,-56,-1,-1,0
1523630988874,-1507328,97,-56,-1,-1,0
1523630988874,-1376256,97,-56,-1,-1,0
1523630988874,-1245184,97,-56,-1,-1,0
1523630988874,-1245184,97,-56,-1,-1,0
1523630988914,-1179648,97,-56,-1,-1,0
1523630988914,-1310720,97,-56,-1,-1,0
1523630988914,-1376256,97,-56,-1,-1,0
1523630988914,-1441792,97,-56,-1,-1,0
1523630988914,-1441792,97,-56,-1,-1,0
1523630988954,-1376256,96,-56,-1,-1,0
1523630988954,-1376256,96,-56,-1,-1,0
1523630988954,-1310720,96,-56,-1,-1,0
1523630988954,-1376256,96,-56,-1,-1,0
1523630988954,-1703936,96,-56,-1,-1,0
1523630988994,-2162688,96,-56,-1,-1,0
1523630988994,-2162688,96,-56,-1,-1,0
1523630988994,-393216,96,-56,-1,-1,0
1523630988994,4390912,96,-56,-1,-1,0
1523630988994,11927552,96,-56,-1,-1,0
1523630989034,18153472,96,-56,-1,-1,0
1523630989034,17825792,96,-56,-1,-1,0
1523630989034,10027008,96,-56,-1,-1,0
1523630989034,1507328,96,-56,-1,-1,0
1523630989034,-2228224,96,-56,-1,-1,0
1523630989074,-2490368,96,-56,-1,-1,0
1523630989074,-2228224,96,-56,-1,-1,0
1523630989074,-2228224,96,-56,-1,-1,0
1523630989074,-2293760,96,-56,-1,-1,0
1523630989074,-2293760,96,-56,-1,-1,0
1523630989114,-2097152,96,-56,-1,-1,0
1523630989114,-1900544,96,-56,-1,-1,0
1523630989114,-1703936,96,-56,-1,-1,0
1523630989114,-1507328,96,-56,-1,-1,0
1523630989114,-1245184,96,-56,-1,-1,0
1523630989154,-1048576,96,-56,-1,-1,0
1523630989154,-917504,96,-56,-1,-1,0
1523630989154,-589824,96,-56,-1,-1,0
1523630989154,0,96,-56,-1,-1,0
1523630989154,655360,96,-56,-1,-1,0
1523630989199,1507328,96,-56,-1,-1,0
1523630989199,2162688,96,-56,-1,-1,0
1523630989199,2490368,96,-56,-1,-1,0
1523630989199,2490368,96,-56,-1,-1,0
1523630989199,2293760,96,-56,-1,-1,0
1523630989234,1966080,96,-56,-1,-1,0
1523630989234,1441792,96,-56,-1,-1,0
1523630989234,983040,96,-56,-1,-1,0
1523630989234,524288,96,-56,-1,-1,0
1523630989234,196608,96,-56,-1,-1,0
1523630989274,-65536,96,-56,-1,-1,0
1523630989274,-393216,96,-56,-1,-1,0
1523630989274,-589824,96,-56,-1,-1,0
1523630989274,-655360,96,-56,-1,-1,0
1523630989274,-589824,96,-56,-1,-1,0
1523630989314,-655360,96,-56,-1,-1,0
1523630989314,-786432,96,-56,-1,-1,0
1523630989314,-851968,96,-56,-1,-1,0
1523630989314,-720896,96,-56,-1,-1,0
1523630989314,-524288,96,-56,-1,-1,0
1523630989354,-393216,96,-56,-1,-1,0
1523630989354,-458752,96,-56,-1,-1,0
1523630989354,-720896,96,-56,-1,-1,0
1523630989354,-851968,96,-56,-1,-1,0
1523630989354,-851968,96,-56,-1,-1,0
1523630989394,-720896,96,-56,-1,-1,0
1523630989394,-589824,96,-56,-1,-1,0
1523630989394,-720896,96,-56,-1,-1,0
1523630989394,-1048576,96,-56,-1,-1,0
1523630989394,-1245184,96,-56,-1,-1,0
1523630989434,-1179648,96,-56,-1,-1,0
1523630989434,-1179648,96,-56,-1,-1,0
1523630989434,-1310720,96,-56,-1,-1,0
1523630989434,-1310720,96,-56,-1,-1,0
1523630989434,-1179648,96,-56,-1,-1,0
1523630989474,-1245184,96,-56,-1,-1,0
1523630989474,-1376256,96,-56,-1,-1,0
1523630989474,-1441792,96,-56,-1,-1,0
1523630989474,-1572864,96,-56,-1,-1,0
1523630989474,-1638400,96,-56,-1,-1,0
1523630989514,-1572864,96,-56,-1,-1,0
1523630989514,-1507328,96,-56,-1,-1,0
1523630989514,-1376256,96,-56,-1,-1,0
1523630989514,-1376256,96,-56,-1,-1,0
1523630989514,-1376256,96,-56,-1,-1,0
1523630989554,-1376256,96,-56,-1,-1,0
1523630989554,-1114112,96,-56,-1,-1,0
1523630989554,-1376256,96,-56,-1,-1,0
1523630989554,-1638400,96,-56,-1,-1,0
1523630989554,-1507328,96,-56,-1,-1,0
1523630989594,-1179648,97,-56,-1,-1,0
1523630989594,-1507328,97,-56,-1,-1,0
1523630989594,-1900544,97,-56,-1,-1,0
1523630989594,-1703936,97,-56,-1,-1,0
1523630989594,-1835008,97,-56,-1,-1,0
1523630989634,-2293760,97,-56,-1,-1,0
1523630989634,-1703936,97,-56,-1,-1,0
1523630989634,1769472,97,-56,-1,-1,0
1523630989634,8650752,97,-56,-1,-1,0
1523630989634,15990784,97,-56,-1,-1,0
1523630989674,18415616,97,-56,-1,-1,0
1523630989674,12451840,97,-56,-1,-1,0
1523630989674,3538944,97,-56,-1,-1,0
1523630989674,-1572864,97,-56,-1,-1,0
1523630989674,-2424832,97,-56,-1,-1,0
1523630989714,-2621440,97,-56,-1,-1,0
1523630989714,-2949120,97,-56,-1,-1,0
1523630989714,-2949120,97,-56,-1,-1,0
1523630989714,-2752512,97,-56,-1,-1,0
1523630989714,-2555904,97,-56,-1,-1,0
1523630989754,-2293760,97,-56,-1,-1,0
1523630989754,-2031616,97,-56,-1,-1,0
1523630989754,-1966080,97,-56,-1,-1,0
1523630989754,-1835008,97,-56,-1,-1,0
1523630989754,-1703936,97,-56,-1,-1,0
1523630989794,-1572864,97,-56,-1,-1,0
1523630989794,-1114112,97,-56,-1,-1,0
1523630989794,-524288,97,-56,-1,-1,0
1523630989794,196608,97,-56,-1,-1,0
1523630989794,1048576,97,-56,-1,-1,0
1523630989839,1900544,97,-56,-1,-1,0
1523630989839,2293760,97,-56,-1,-1,0
1523630989839,2359296,97,-56,-1,-1,0
1523630989839,2490368,97,-56,-1,-1,0
1523630989839,2162688,97,-56,-1,-1,0
1523630989874,1310720,97,-56,-1,-1,0
1523630989874,524288,97,-56,-1,-1,0
1523630989874,262144,97,-56,-1,-1,0
1523630989874,-65536,97,-56,-1,-1,0
1523630989874,-393216,97,-56,-1,-1,0
1523630989914,-720896,97,-56,-1,-1,0
1523630989914,-983040,97,-56,-1,-1,0
1523630989914,-1114112,97,-56,-1,-1,0
1523630989914,-983040,97,-56,-1,-1,0
1523630989914,-655360,97,-56,-1,-1,0
1523630989954,-917504,97,-56,-1,-1,0
1523630989954,-1310720,97,-56,-1,-1,0
1523630989954,-1179648,97,-56,-1,-1,0
1523630989954,-1048576,97,-56,-1,-1,0
1523630989954,-1048576,97,-56,-1,-1,0
1523630989994,-1048576,97,-56,-1,-1,0
1523630989994,-917504,97,-56,-1,-1,0
1523630989994,-983040,97,-56,-1,-1,0
1523630989994,-983040,97,-56,-1,-1,0
1523630989994,-1114112,97,-56,-1,-1,0
1523630990034,-1245184,97,-56,-1,-1,0
1523630990034,-1245184,97,-56,-1,-1,0
1523630990034,-1310720,97,-56,-1,-1,0
1523630990034,-1507328,97,-56,-1,-1,0
1523630990034,-1507328,97,-56,-1,-1,0
1523630990074,-1114112,97,-56,-1,-1,0
1523630990074,-1114112,97,-56,-1,-1,0
1523630990074,-1310720,97,-56,-1,-1,0
1523630990074,-1703936,97,-56,-1,-1,0
1523630990074,-1835008,97,-56,-1,-1,0
1523630990114,-1769472,97,-56,-1,-1,0
1523630990114,-1703936,97,-56,-1,-1,0
1523630990114,-1638400,97,-56,-1,-1,0
1523630990114,-1507328,97,-56,-1,-1,0
1523630990114,-1376256,97,-56,-1,-1,0
1523630990154,-1441792,97,-56,-1,-1,0
1523630990154,-1310720,97,-56,-1,-1,0
1523630990154,-1245184,97,-56,-1,-1,0
1523630990154,-1376256,97,-56,-1,-1,0
1523630990154,-1441792,97,-56,-1,-1,0
1523630990194,-1179648,97,-56,-1,-1,0
1523630990194,-1114112,97,-56,-1,-1,0
1523630990194,-1179648,97,-56,-1,-1,0
1523630990194,-1245184,97,-56,-1,-1,0
1523630990194,-1245184,97,-56,-1,-1,0
1523630990234,-1376256,97,-56,-1,-1,0
1523630990234,-1507328,97,-56,-1,-1,0
1523630990234,-1572864,97,-56,-1,-1,0
1523630990234,-1572864,97,-56,-1,-1,0
1523630990234,-1769472,97,-56,-1,-1,0
1523630990274,-1835008,97,-56,-1,-1,0
1523630990274,-262144,97,-56,-1,-1,0
1523630990274,3866624,97,-56,-1,-1,0
1523630990274,10289152,97,-56,-1,-1,0
1523630990274,16056320,97,-56,-1,-1,0
1523630990314,16449536,97,-56,-1,-1,0
1523630990314,9568256,97,-56,-1,-1,0
1523630990314,1376256,97,-56,-1,-1,0
1523630990314,-2293760,97,-56,-1,-1,0
1523630990314,-2555904,97,-56,-1,-1,0
1523630990354,-2424832,97,-56,-1,-1,0
1523630990354,-2228224,97,-56,-1,-1,0
1523630990354,-2031616,97,-56,-1,-1,0
1523630990354,-1966080,97,-56,-1,-1,0
1523630990354,-1769472,97,-56,-1,-1,0
1523630990394,-1572864,97,-56,-1,-1,0
1523630990394,-1376256,97,-56,-1,-1,0
1523630990394,-1310720,97,-56,-1,-1,0
1523630990394,-1114112,97,-56,-1,-1,0
1523630990394,-786432,97,-56,-1,-1,0
1523630990434,-458752,97,-56,-1,-1,0
1523630990434,-65536,97,-56,-1,-1,0
1523630990434,524288,97,-56,-1,-1,0
1523630990434,1245184,97,-56,-1,-1,0
1523630990434,2031616,97,-56,-1,-1,0
1523630990479,2949120,97,-56,-1,-1,0
1523630990479,3670016,97,-56,-1,-1,0
1523630990479,3932160,97,-56,-1,-1,0
1523630990479,3604480,97,-56,-1,-1,0
1523630990479,2949120,97,-56,-1,-1,0
1523630990514,2162688,97,-56,-1,-1,0
1523630990514,1638400,97,-56,-1,-1,0
1523630990514,1179648,97,-56,-1,-1,0
1523630990514,786432,97,-56,-1,-1,0
1523630990514,393216,97,-56,-1,-1,0
1523630990554,131072,97,-56,-1,-1,0
1523630990554,-65536,97,-56,-1,-1,0
1523630990554,-327680,97,-56,-1,-1,0
1523630990554,-589824,97,-56,-1,-1,0
1523630990554,-720896,97,-56,-1,-1,0
1523630990594,-720896,97,-56,-1,-1,0
1523630990594,-524288,97,-56,-1,-1,0
1523630990594,-393216,97,-56,-1,-1,0
1523630990594,-196608,97,-56,-1,-1,0
1523630990594,-196608,97,-56,-1,-1,0
1523630990634,-262144,97,-56,-1,-1,0
1523630990634,-196608,97,-56,-1,-1,0
1523630990634,-458752,97,-56,-1,-1,0
1523630990634,-720896,97,-56,-1,-1,0
1523630990634,-851968,97,-56,-1,-1,0
1523630990674,-917504,97,-56,-1,-1,0
1523630990674,-917504,97,-56,-1,-1,0
1523630990674,-917504,97,-56,-1,-1,0
1523630990674,-1048576,97,-56,-1,-1,0
1523630990674,-1179648,97,-56,-1,-1,0
1523630990714,-1179648,97,-56,-1,-1,0
1523630990714,-1245184,97,-56,-1,-1,0
1523630990714,-1245184,97,-56,-1,-1,0
1523630990714,-1376256,97,-56,-1,-1,0
1523630990714,-1441792,97,-56,-1,-1,0
1523630990754,-1441792,97,-56,-1,-1,0
1523630990754,-1245184,97,-56,-1,-1,0
1523630990754,-1376256,97,-56,-1,-1,0
1523630990754,-1507328,97,-56,-1,-1,0
1523630990754,-1441792,97,-56,-1,-1,0
1523630990794,-1376256,97,-56,-1,-1,0
1523630990794,-1310720,97,-56,-1,-1,0
1523630990794,-1310720,97,-56,-1,-1,0
1523630990794,-1179648,97,-56,-1,-1,0
1523630990794,-1245184,97,-56,-1,-1,0
1523630990834,-1310720,97,-56,-1,-1,0
1523630990834,-1507328,97,-56,-1,-1,0
1523630990834,-1572864,97,-56,-1,-1,0
1523630990834,-1638400,97,-56,-1,-1,0
1523630990834,-1572864,97,-56,-1,-1,0
1523630990874,-1638400,97,-56,-1,-1,0
1523630990874,-2031616,97,-56,-1,-1,0
1523630990874,-2031616,97,-56,-1,-1,0
1523630990874,-65536,97,-56,-1,-1,0
1523630990874,4063232,97,-56,-1,-1,0
1523630990914,9764864,97,-56,-1,-1,0
1523630990914,14811136,97,-56,-1,-1,0
1523630990914,14942208,97,-56,-1,-1,0
1523630990914,8388608,97,-56,-1,-1,0
1523630990914,720896,97,-56,-1,-1,0
1523630990954,-2359296,97,-56,-1,-1,0
1523630990954,-2490368,97,-56,-1,-1,0
1523630990954,-2228224,97,-56,-1,-1,0
1523630990954,-2031616,97,-56,-1,-1,0
1523630990954,-1900544,97,-56,-1,-1,0
1523630990994,-1835008,97,-56,-1,-1,0
1523630990994,-1835008,97,-56,-1,-1,0
1523630990994,-1769472,97,-56,-1,-1,0
1523630990994,-1507328,97,-56,-1,-1,0
1523630990994,-1507328,97,-56,-1,-1,0
1523630991034,-1310720,97,-56,-1,-1,0
1523630991034,-917504,97,-56,-1,-1,0
1523630991034,-327680,97,-56,-1,-1,0
1523630991034,0,97,-56,-1,-1,0
1523630991034,458752,97,-56,-1,-1,0
1523630991074,1245184,97,-56,-1,-1,0
1523630991074,2228224,97,-56,-1,-1,0
1523630991074,3145728,97,-56,-1,-1,0
1523630991074,3670016,97,-56,-1,-1,0
1523630991074,3604480,97,-56,-1,-1,0
1523630991119,3145728,97,-56,-1,-1,0
1523630991119,2686976,97,-56,-1,-1,0
1523630991119,2162688,97,-56,-1,-1,0
1523630991119,1507328,97,-56,-1,-1,0
1523630991119,851968,97,-56,-1,-1,0
1523630991154,393216,97,-56,-1,-1,0
1523630991154,131072,97,-56,-1,-1,0
1523630991154,-196608,97,-56,-1,-1,0
1523630991154,-655360,97,-56,-1,-1,0
1523630991154,-1048576,97,-56,-1,-1,0
1523630991194,-1179648,97,-56,-1,-1,0
1523630991194,-1048576,97,-56,-1,-1,0
1523630991194,-983040,97,-56,-1,-1,0
1523630991194,-983040,97,-56,-1,-1,0
1523630991194,-720896,97,-56,-1,-1,0
1523630991234,-589824,97,-56,-1,-1,0
1523630991234,-524288,97,-56,-1,-1,0
1523630991234,-589824,97,-56,-1,-1,0
1523630991234,-589824,97,-56,-1,-1,0
1523630991234,-524288,97,-56,-1,-1,0
1523630991274,-589824,97,-56,-1,-1,0
1523630991274,-786432,97,-56,-1,-1,0
1523630991274,-983040,97,-56,-1,-1,0
1523630991274,-1114112,97,-56,-1,-1,0
1523630991274,-1179648,97,-56,-1,-1,0
1523630991314,-1048576,97,-56,-1,-1,0
1523630991314,-1179648,97,-56,-1,-1,0
1523630991314,-1376256,97,-56,-1,-1,0
1523630991314,-1441792,97,-56,-1,-1,0
1523630991314,-1507328,97,-56,-1,-1,0
1523630991354,-1638400,97,-56,-1,-1,0
1523630991354,-1769472,97,-56,-1,-1,0
1523630991354,-1769472,97,-56,-1,-1,0
1523630991354,-1769472,97,-56,-1,-1,0
1523630991354,-1769472,97,-56,-1,-1,0
1523630991394,-1638400,97,-56,-1,-1,0
1523630991394,-1507328,97,-56,-1,-1,0
1523630991394,-1441792,97,-56,-1,-1,0
1523630991394,-1376256,97,-56,-1,-1,0
1523630991394,-1441792,97,-56,-1,-1,0
1523630991434,-1638400,98,-56,-1,-1,0
1523630991434,-1703936,98,-56,-1,-1,0
1523630991434,-1638400,98,-56,-1,-1,0
1523630991434,-1507328,98,-56,-1,-1,0
1523630991434,-1441792,98,-56,-1,-1,0
1523630991474,-1572864,98,-56,-1,-1,0
1523630991474,-1769472,98,-56,-1,-1,0
1523630991474,-1966080,98,-56,-1,-1,0
1523630991474,-2162688,98,-56,-1,-1,0
1523630991474,-1572864,98,-56,-1,-1,0
1523630991514,1179648,98,-56,-1,-1,0
1523630991514,6881280,98,-56,-1,-1,0
1523630991514,13762560,98,-56,-1,-1,0
1523630991514,17367040,98,-56,-1,-1,0
1523630991514,13107200,98,-56,-1,-1,0
1523630991554,4521984,98,-56,-1,-1,0
1523630991554,-1245184,98,-56,-1,-1,0
1523630991554,-2621440,98,-56,-1,-1,0
1523630991554,-2555904,98,-56,-1,-1,0
1523630991554,-2621440,98,-56,-1,-1,0
1523630991594,-2490368,98,-56,-1,-1,0
1523630991594,-2228224,98,-56,-1,-1,0
1523630991594,-1966080,98,-56,-1,-1,0
1523630991594,-1835008,98,-56,-1,-1,0
1523630991594,-1703936,98,-56,-1,-1,0
1523630991634,-1638400,98,-56,-1,-1,0
1523630991634,-1572864,98,-56,-1,-1,0
1523630991634,-1376256,98,-56,-1,-1,0
1523630991634,-983040,98,-56,-1,-1,0
1523630991634,-458752,98,-56,-1,-1,0
1523630991674,0,98,-56,-1,-1,0
1523630991674,393216,98,-56,-1,-1,0
1523630991674,1310720,98,-56,-1,-1,0
1523630991674,2228224,98,-56,-1,-1,0
1523630991674,2883584,98,-56,-1,-1,0
1523630991714,3014656,98,-56,-1,-1,0
1523630991714,2883584,98,-56,-1,-1,0
1523630991714,2490368,98,-56,-1,-1,0
1523630991714,2031616,98,-56,-1,-1,0
1523630991714,1572864,98,-56,-1,-1,0
1523630991759,983040,98,-56,-1,-1,0
1523630991759,458752,98,-56,-1,-1,0
1523630991759,65536,98,-56,-1,-1,0
1523630991759,-196608,98,-56,-1,-1,0
1523630991759,-589824,98,-56,-1,-1,0
1523630991794,-786432,98,-56,-1,-1,0
1523630991794,-851968,98,-56,-1,-1,0
1523630991794,-917504,98,-56,-1,-1,0
1523630991794,-1048576,98,-56,-1,-1,0
1523630991794,-983040,98,-56,-1,-1,0
1523630991834,-851968,98,-56,-1,-1,0
1523630991834,-786432,98,-56,-1,-1,0
1523630991834,-589824,98,-56,-1,-1,0
1523630991834,-458752,98,-56,-1,-1,0
1523630991834,-589824,98,-56,-1,-1,0
1523630991874,-720896,98,-56,-1,-1,0
1523630991874,-720896,98,-56,-1,-1,0
1523630991874,-851968,98,-56,-1,-1,0
1523630991874,-917504,98,-56,-1,-1,0
1523630991874,-917504,98,-56,-1,-1,0
1523630991914,-851968,98,-56,-1,-1,0
1523630991914,-983040,98,-56,-1,-1,0
1523630991914,-1179648,98,-56,-1,-1,0
1523630991914,-1310720,98,-56,-1,-1,0
1523630991914,-1310720,98,-56,-1,-1,0
1523630991954,-1245184,98,-56,-1,-1,0
1523630991954,-1310720,98,-56,-1,-1,0
1523630991954,-1441792,98,-56,-1,-1,0
1523630991954,-1376256,98,-56,-1,-1,0
1523630991954,-1245184,98,-56,-1,-1,0
1523630991994,-1179648,98,-56,-1,-1,0
1523630991994,-1245184,98,-56,-1,-1,0
1523630991994,-1245184,98,-56,-1,-1,0
1523630991994,-1179648,98,-56,-1,-1,0
1523630991994,-1048576,98,-56,-1,-1,0
1523630992034,-983040,98,-56,-1,-1,0
1523630992034,-1114112,98,-56,-1,-1,0
1523630992034,-1441792,98,-56,-1,-1,0
1523630992034,-1507328,98,-56,-1,-1,0
1523630992034,-1441792,98,-56,-1,-1,0
1523630992074,-1310720,98,-56,-1,-1,0
1523630992074,-1179648,98,-56,-1,-1,0
1523630992074,-1114112,98,-56,-1,-1,0
1523630992074,-1441792,98,-56,-1,-1,0
1523630992074,-2031616,98,-56,-1,-1,0
1523630992114,-2097152,98,-56,-1,-1,0
1523630992114,-524288,98,-56,-1,-1,0
1523630992114,3342336,98,-56,-1,-1,0
1523630992114,9371648,98,-56,-1,-1,0
1523630992114,14811136,98,-56,-1,-1,0
1523630992154,15269888,98,-56,-1,-1,0
1523630992154,9043968,98,-56,-1,-1,0
1523630992154,1507328,98,-56,-1,-1,0
1523630992154,-1835008,98,-56,-1,-1,0
1523630992154,-2359296,98,-56,-1,-1,0
1523630992194,-2228224,98,-56,-1,-1,0
1523630992194,-1966080,98,-56,-1,-1,0
1523630992194,-1769472,98,-56,-1,-1,0
1523630992194,-1769472,98,-56,-1,-1,0
1523630992194,-1638400,98,-56,-1,-1,0
1523630992235,-1507328,98,-56,-1,-1,0
1523630992235,-1376256,98,-56,-1,-1,0
1523630992235,-1310720,98,-56,-1,-1,0
1523630992235,-1179648,98,-56,-1,-1,0
1523630992235,-917504,98,-56,-1,-1,0
1523630992274,-589824,98,-56,-1,-1,0
1523630992274,-196608,98,-56,-1,-1,0
1523630992274,196608,98,-56,-1,-1,0
1523630992274,1114112,98,-56,-1,-1,0
1523630992274,2162688,98,-56,-1,-1,0
1523630992314,2752512,98,-56,-1,-1,0
1523630992314,3014656,98,-56,-1,-1,0
1523630992314,3145728,98,-56,-1,-1,0
1523630992314,3014656,98,-56,-1,-1,0
1523630992314,2490368,98,-56,-1,-1,0
1523630992354,1900544,98,-56,-1,-1,0
1523630992354,1441792,98,-56,-1,-1,0
1523630992354,1048576,98,-56,-1,-1,0
1523630992354,524288,98,-56,-1,-1,0
1523630992354,65536,98,-56,-1,-1,0
1523630992399,-262144,98,-56,-1,-1,0
1523630992399,-524288,98,-56,-1,-1,0
1523630992399,-655360,98,-56,-1,-1,0
1523630992399,-720896,98,-56,-1,-1,0
1523630992399,-786432,98,-56,-1,-1,0
1523630992434,-851968,98,-56,-1,-1,0
1523630992434,-720896,98,-56,-1,-1,0
1523630992434,-655360,98,-56,-1,-1,0
1523630992434,-589824,98,-56,-1,-1,0
1523630992434,-589824,98,-56,-1,-1,0
1523630992474,-589824,98,-56,-1,-1,0
1523630992474,-524288,98,-56,-1,-1,0
1523630992474,-458752,98,-56,-1,-1,0
1523630992474,-524288,98,-56,-1,-1,0
1523630992474,-655360,98,-56,-1,-1,0
1523630992514,-851968,98,-56,-1,-1,0
1523630992514,-851968,98,-56,-1,-1,0
1523630992514,-917504,98,-56,-1,-1,0
1523630992514,-1048576,98,-56,-1,-1,0
1523630992514,-1048576,98,-56,-1,-1,0
1523630992554,-983040,98,-56,-1,-1,0
1523630992554,-1048576,98,-56,-1,-1,0
1523630992554,-1179648,98,-56,-1,-1,0
1523630992554,-1179648,98,-56,-1,-1,0
1523630992554,-1310720,98,-56,-1,-1,0
1523630992594,-1441792,98,-56,-1,-1,0
1523630992594,-1376256,98,-56,-1,-1,0
1523630992594,-1048576,98,-56,-1,-1,0
1523630992594,-983040,98,-56,-1,-1,0
1523630992594,-1179648,98,-56,-1,-1,0
1523630992635,-1179648,98,-56,-1,-1,0
1523630992635,-1179648,98,-56,-1,-1,0
1523630992635,-1179648,98,-56,-1,-1,0
1523630992635,-1179648,98,-56,-1,-1,0
1523630992635,-1310720,98,-56,-1,-1,0
1523630992674,-1507328,98,-56,-1,-1,0
1523630992674,-1441792,98,-56,-1,-1,0
1523630992674,-1441792,98,-56,-1,-1,0
1523630992674,-1441792,98,-56,-1,-1,0
1523630992674,-1507328,98,-56,-1,-1,0
1523630992714,-1769472,98,-56,-1,-1,0
1523630992714,-2097152,98,-56,-1,-1,0
1523630992714,-1114112,98,-56,-1,-1,0
1523630992714,2359296,98,-56,-1,-1,0
1523630992714,8323072,98,-56,-1,-1,0
1523630992754,14680064,98,-56,-1,-1,0
1523630992754,16973824,98,-56,-1,-1,0
1523630992754,11730944,98,-56,-1,-1,0
1523630992754,3211264,98,-56,-1,-1,0
1523630992754,-1769472,98,-56,-1,-1,0
1523630992794,-2621440,98,-56,-1,-1,0
1523630992794,-2359296,98,-56,-1,-1,0
1523630992794,-2293760,98,-56,-1,-1,0
1523630992794,-2228224,98,-56,-1,-1,0
1523630992794,-2097152,98,-56,-1,-1,0
1523630992834,-1966080,98,-56,-1,-1,0
1523630992834,-1835008,98,-56,-1,-1,0
1523630992834,-1638400,98,-56,-1,-1,0
1523630992834,-1376256,98,-56,-1,-1,0
1523630992834,-1114112,98,-56,-1,-1,0
1523630992874,-917504,98,-56,-1,-1,0
1523630992874,-851968,98,-56,-1,-1,0
1523630992874,-458752,98,-56,-1,-1,0
1523630992874,65536,98,-56,-1,-1,0
1523630992874,851968,98,-56,-1,-1,0
1523630992914,1638400,98,-56,-1,-1,0
1523630992914,2424832,98,-56,-1,-1,0
1523630992914,3014656,98,-56,-1,-1,0
1523630992914,3407872,98,-56,-1,-1,0
1523630992914,3145728,98,-56,-1,-1,0
1523630992954,2621440,98,-56,-1,-1,0
1523630992954,2097152,98,-56,-1,-1,0
1523630992954,1638400,98,-56,-1,-1,0
1523630992954,1114112,98,-56,-1,-1,0
1523630992954,589824,98,-56,-1,-1,0
1523630992994,196608,98,-56,-1,-1,0
1523630992994,65536,98,-56,-1,-1,0
1523630992994,-196608,98,-56,-1,-1,0
1523630992994,-524288,98,-56,-1,-1,0
1523630992994,-655360,98,-56,-1,-1,0
1523630993039,-589824,98,-56,-1,-1,0
1523630993039,-589824,98,-56,-1,-1,0
1523630993039,-524288,98,-56,-1,-1,0
1523630993039,-524288,98,-56,-1,-1,0
1523630993039,-524288,98,-56,-1,-1,0
1523630993074,-327680,98,-56,-1,-1,0
1523630993074,-327680,98,-56,-1,-1,0
1523630993074,-589824,98,-56,-1,-1,0
1523630993074,-720896,98,-56,-1,-1,0
1523630993074,-655360,98,-56,-1,-1,0
1523630993114,-655360,98,-56,-1,-1,0
1523630993114,-851968,98,-56,-1,-1,0
1523630993114,-983040,98,-56,-1,-1,0
1523630993114,-983040,98,-56,-1,-1,0
1523630993114,-983040,98,-56,-1,-1,0
1523630993154,-1114112,98,-56,-1,-1,0
1523630993154,-1310720,98,-56,-1,-1,0
1523630993154,-1376256,98,-56,-1,-1,0
1523630993154,-1441792,98,-56,-1,-1,0
1523630993154,-1245184,98,-56,-1,-1,0
1523630993194,-1048576,98,-56,-1,-1,0
1523630993194,-1179648,98,-56,-1,-1,0
1523630993194,-1310720,98,-56,-1,-1,0
1523630993194,-1376256,98,-56,-1,-1,0
1523630993194,-1310720,98,-56,-1,-1,0
1523630993234,-1179648,98,-56,-1,-1,0
1523630993234,-1179648,98,-56,-1,-1,0
1523630993234,-1114112,98,-56,-1,-1,0
1523630993234,-1048576,98,-56,-1,-1,0
1523630993234,-1048576,98,-56,-1,-1,0
1523630993274,-1048576,98,-56,-1,-1,0
1523630993274,-1179648,98,-56,-1,-1,0
1523630993274,-1441792,98,-56,-1,-1,0
1523630993274,-1835008,98,-56,-1,-1,0
1523630993274,-1703936,98,-56,-1,-1,0
1523630993314,-1245184,98,-56,-1,-1,0
1523630993314,-1114112,98,-56,-1,-1,0
1523630993314,-1769472,98,-56,-1,-1,0
1523630993314,-1966080,98,-56,-1,-1,0
1523630993314,-393216,98,-56,-1,-1,0
1523630993354,3801088,98,-56,-1,-1,0
1523630993354,10616832,98,-56,-1,-1,0
1523630993354,16777216,98,-56,-1,-1,0
1523630993354,16908288,98,-56,-1,-1,0
1523630993354,9502720,98,-56,-1,-1,0
1523630993394,1441792,98,-56,-1,-1,0
1523630993394,-1966080,98,-56,-1,-1,0
1523630993394,-2359296,98,-56,-1,-1,0
1523630993394,-2555904,98,-56,-1,-1,0
1523630993394,-2752512,98,-56,-1,-1,0
1523630993434,-2818048,98,-56,-1,-1,0
1523630993434,-2162688,98,-56,-1,-1,0
1523630993434,-1507328,98,-56,-1,-1,0
1523630993434,-1441792,98,-56,-1,-1,0
1523630993434,-1572864,98,-56,-1,-1,0
1523630993474,-1703936,98,-56,-1,-1,0
1523630993474,-1638400,98,-56,-1,-1,0
1523630993474,-1376256,98,-56,-1,-1,0
1523630993474,-983040,98,-56,-1,-1,0
1523630993474,-589824,98,-56,-1,-1,0
1523630993514,131072,98,-56,-1,-1,0
1523630993514,983040,98,-56,-1,-1,0
1523630993514,1769472,98,-56,-1,-1,0
1523630993514,2293760,98,-56,-1,-1,0
1523630993514,2686976,98,-56,-1,-1,0
1523630993554,2818048,98,-56,-1,-1,0
1523630993554,2621440,98,-56,-1,-1,0
1523630993554,2162688,98,-56,-1,-1,0
1523630993554,1507328,98,-56,-1,-1,0
1523630993554,589824,98,-56,-1,-1,0
1523630993594,262144,98,-56,-1,-1,0
1523630993594,131072,98,-56,-1,-1,0
1523630993594,65536,98,-56,-1,-1,0
1523630993594,65536,98,-56,-1,-1,0
1523630993594,-196608,98,-56,-1,-1,0
1523630993634,-786432,98,-56,-1,-1,0
1523630993634,-1048576,98,-56,-1,-1,0
1523630993634,-1114112,98,-56,-1,-1,0
1523630993634,-1114112,98,-56,-1,-1,0
1523630993634,-983040,98,-56,-1,-1,0
1523630993679,-851968,98,-56,-1,-1,0
1523630993679,-786432,98,-56,-1,-1,0
1523630993679,-851968,98,-56,-1,-1,0
1523630993679,-917504,98,-56,-1,-1,0
1523630993679,-917504,98,-56,-1,-1,0
1523630993714,-720896,98,-56,-1,-1,0
1523630993714,-851968,98,-56,-1,-1,0
1523630993714,-1048576,98,-56,-1,-1,0
1523630993714,-1245184,98,-56,-1,-1,0
1523630993714,-1310720,98,-56,-1,-1,0
1523630993754,-1507328,98,-56,-1,-1,0
1523630993754,-1572864,98,-56,-1,-1,0
1523630993754,-1507328,98,-56,-1,-1,0
1523630993754,-1507328,98,-56,-1,-1,0
1523630993754,-1835008,98,-56,-1,-1,0
1523630993794,-1835008,98,-56,-1,-1,0
1523630993794,-1638400,98,-56,-1,-1,0
1523630993794,-1703936,98,-56,-1,-1,0
1523630993794,-1966080,98,-56,-1,-1,0
1523630993794,-2097152,98,-56,-1,-1,0
1523630993835,-2162688,98,-56,-1,-1,0
1523630993835,-2162688,98,-56,-1,-1,0
1523630993835,-1966080,98,-56,-1,-1,0
1523630993835,-1638400,98,-56,-1,-1,0
1523630993835,-1703936,98,-56,-1,-1,0
1523630993874,-1769472,98,-56,-1,-1,0
1523630993874,-2228224,98,-56,-1,-1,0
1523630993874,-2293760,98,-56,-1,-1,0
1523630993874,-1900544,98,-56,-1,-1,0
1523630993874,-1638400,98,-56,-1,-1,0
1523630993914,-2228224,98,-56,-1,-1,0
1523630993914,-2359296,98,-56,-1,-1,0
1523630993914,-2162688,98,-56,-1,-1,0
1523630993914,-2097152,98,-56,-1,-1,0
1523630993914,-2555904,98,-56,-1,-1,0
1523630993954,-2949120,98,-56,-1,-1,0
1523630993954,-1900544,98,-56,-1,-1,0
1523630993954,1703936,98,-56,-1,-1,0
1523630993954,7929856,98,-56,-1,-1,0
1523630993954,14155776,98,-56,-1,-1,0
1523630993994,16449536,98,-56,-1,-1,0
1523630993994,11337728,98,-56,-1,-1,0
1523630993994,3145728,98,-56,-1,-1,0
1523630993994,-2097152,98,-56,-1,-1,0
1523630993994,-3145728,98,-56,-1,-1,0
1523630994034,-3080192,98,-56,-1,-1,0
1523630994034,-2949120,98,-56,-1,-1,0
1523630994034,-2621440,98,-56,-1,-1,0
1523630994034,-2621440,98,-56,-1,-1,0
1523630994034,-2686976,98,-56,-1,-1,0
1523630994074,-2686976,98,-56,-1,-1,0
1523630994074,-2686976,98,-56,-1,-1,0
1523630994074,-2621440,98,-56,-1,-1,0
1523630994074,-2359296,98,-56,-1,-1,0
1523630994074,-1900544,98,-56,-1,-1,0
1523630994114,-1572864,98,-56,-1,-1,0
1523630994114,-1114112,98,-56,-1,-1,0
1523630994114,-655360,98,-56,-1,-1,0
1523630994114,-131072,98,-56,-1,-1,0
1523630994114,393216,98,-56,-1,-1,0
1523630994154,1376256,98,-56,-1,-1,0
1523630994154,2162688,98,-56,-1,-1,0
1523630994154,2359296,98,-56,-1,-1,0
1523630994154,2097152,98,-56,-1,-1,0
1523630994154,1835008,98,-56,-1,-1,0
1523630994195,1572864,98,-56,-1,-1,0
1523630994195,1245184,98,-56,-1,-1,0
1523630994195,720896,98,-56,-1,-1,0
1523630994195,196608,98,-56,-1,-1,0
1523630994195,-458752,98,-56,-1,-1,0
1523630994234,-655360,98,-56,-1,-1,0
1523630994234,-589824,98,-56,-1,-1,0
1523630994234,-589824,98,-56,-1,-1,0
1523630994234,-851968,98,-56,-1,-1,0
1523630994234,-917504,98,-56,-1,-1,0
1523630994274,-786432,98,-56,-1,-1,0
1523630994274,-720896,98,-56,-1,-1,0
1523630994274,-786432,98,-56,-1,-1,0
1523630994274,-917504,98,-56,-1,-1,0
1523630994274,-1048576,98,-56,-1,-1,0
1523630994319,-1114112,98,-56,-1,-1,0
1523630994319,-1114112,98,-56,-1,-1,0
1523630994319,-1048576,98,-56,-1,-1,0
1523630994319,-851968,98,-56,-1,-1,0
1523630994319,-1048576,98,-56,-1,-1,0
1523630994354,-1507328,98,-56,-1,-1,0
1523630994354,-1638400,98,-56,-1,-1,0
1523630994354,-1441792,98,-56,-1,-1,0
1523630994354,-1441792,98,-56,-1,-1,0
1523630994354,-1507328,98,-56,-1,-1,0
1523630994394,-1441792,98,-56,-1,-1,0
1523630994394,-1310720,98,-56,-1,-1,0
1523630994394,-1376256,98,-56,-1,-1,0
1523630994394,-1572864,98,-56,-1,-1,0
1523630994394,-1769472,98,-56,-1,-1,0
1523630994434,-1900544,98,-56,-1,-1,0
1523630994434,-2031616,98,-56,-1,-1,0
1523630994434,-1966080,98,-56,-1,-1,0
1523630994434,-1703936,98,-56,-1,-1,0
1523630994434,-1310720,98,-56,-1,-1,0
1523630994474,-1179648,98,-56,-1,-1,0
1523630994474,-1245184,98,-56,-1,-1,0
1523630994474,-1441792,98,-56,-1,-1,0
1523630994474,-1703936,98,-56,-1,-1,0
1523630994474,-1703936,98,-56,-1,-1,0
1523630994514,-1507328,98,-56,-1,-1,0
1523630994514,-1376256,98,-56,-1,-1,0
1523630994514,-1638400,98,-56,-1,-1,0
1523630994514,-1769472,98,-56,-1,-1,0
1523630994514,-1769472,98,-56,-1,-1,0
1523630994554,-1769472,98,-56,-1,-1,0
1523630994554,-2097152,98,-56,-1,-1,0
1523630994554,-2293760,98,-56,-1,-1,0
1523630994554,-1048576,98,-56,-1,-1,0
1523630994554,2621440,98,-56,-1,-1,0
1523630994594,8650752,98,-56,-1,-1,0
1523630994594,14745600,98,-56,-1,-1,0
1523630994594,15990784,98,-56,-1,-1,0
1523630994594,9699328,98,-56,-1,-1,0
1523630994594,1572864,98,-56,-1,-1,0
1523630994634,-2359296,98,-56,-1,-1,0
1523630994634,-2686976,98,-56,-1,-1,0
1523630994634,-2424832,98,-56,-1,-1,0
1523630994634,-2359296,98,-56,-1,-1,0
1523630994634,-2293760,98,-56,-1,-1,0
1523630994674,-2097152,98,-56,-1,-1,0
1523630994674,-1900544,98,-56,-1,-1,0
1523630994674,-1769472,98,-56,-1,-1,0
1523630994674,-1638400,98,-56,-1,-1,0
1523630994674,-1507328,98,-56,-1,-1,0
1523630994714,-1310720,98,-56,-1,-1,0
1523630994714,-1048576,98,-56,-1,-1,0
1523630994714,-786432,98,-56,-1,-1,0
1523630994714,-327680,98,-56,-1,-1,0
1523630994714,327680,98,-56,-1,-1,0
1523630994754,1179648,98,-56,-1,-1,0
1523630994754,1900544,98,-56,-1,-1,0
1523630994754,2555904,98,-56,-1,-1,0
1523630994754,3080192,98,-56,-1,-1,0
1523630994754,3276800,98,-56,-1,-1,0
1523630994794,3080192,98,-56,-1,-1,0
1523630994794,2686976,98,-56,-1,-1,0
1523630994794,2228224,98,-56,-1,-1,0
1523630994794,1703936,98,-56,-1,-1,0
1523630994794,1048576,98,-56,-1,-1,0
1523630994834,589824,98,-56,-1,-1,0
1523630994834,262144,98,-56,-1,-1,0
1523630994834,0,98,-56,-1,-1,0
1523630994834,-262144,98,-56,-1,-1,0
1523630994834,-458752,98,-56,-1,-1,0
1523630994874,-589824,98,-56,-1,-1,0
1523630994874,-589824,98,-56,-1,-1,0
1523630994874,-524288,98,-56,-1,-1,0
1523630994874,-458752,98,-56,-1,-1,0
1523630994874,-393216,98,-56,-1,-1,0
1523630994914,-458752,98,-56,-1,-1,0
1523630994914,-589824,98,-56,-1,-1,0
1523630994914,-458752,98,-56,-1,-1,0
1523630994914,-393216,98,-56,-1,-1,0
1523630994914,-458752,98,-56,-1,-1,0
1523630994960,-655360,98,-56,-1,-1,0
1523630994960,-720896,98,-56,-1,-1,0
1523630994960,-655360,98,-56,-1,-1,0
1523630994960,-655360,98,-56,-1,-1,0
1523630994960,-851968,98,-56,-1,-1,0
1523630994994,-983040,98,-56,-1,-1,0
1523630994994,-1114112,98,-56,-1,-1,0
1523630994994,-1179648,98,-56,-1,-1,0
1523630994994,-1245184,98,-56,-1,-1,0
1523630994994,-1376256,98,-56,-1,-1,0
1523630995034,-1441792,98,-56,-1,-1,0
1523630995034,-1441792,98,-56,-1,-1,0
1523630995034,-1376256,98,-56,-1,-1,0
1523630995034,-1310720,98,-56,-1,-1,0
1523630995034,-1245184,98,-56,-1,-1,0
1523630995074,-1245184,98,-56,-1,-1,0
1523630995074,-1245184,98,-56,-1,-1,0
1523630995074,-1310720,98,-56,-1,-1,0
1523630995074,-1310720,98,-56,-1,-1,0
1523630995074,-1376256,98,-56,-1,-1,0
1523630995114,-1441792,98,-56,-1,-1,0
1523630995114,-1507328,98,-56,-1,-1,0
1523630995114,-1376256,98,-56,-1,-1,0
1523630995114,-1376256,98,-56,-1,-1,0
1523630995114,-1310720,98,-56,-1,-1,0
1523630995154,-1441792,98,-56,-1,-1,0
1523630995154,-1703936,98,-56,-1,-1,0
1523630995154,-1966080,98,-56,-1,-1,0
1523630995154,-1245184,98,-56,-1,-1,0
1523630995154,1638400,98,-56,-1,-1,0
1523630995194,6815744,98,-56,-1,-1,0
1523630995194,12713984,98,-56,-1,-1,0
1523630995194,15794176,98,-56,-1,-1,0
1523630995194,11796480,98,-56,-1,-1,0
1523630995194,3735552,98,-56,-1,-1,0
1523630995234,-1703936,98,-56,-1,-1,0
1523630995234,-2818048,98,-56,-1,-1,0
1523630995234,-2621440,98,-56,-1,-1,0
1523630995234,-2424832,98,-56,-1,-1,0
1523630995234,-2162688,98,-56,-1,-1,0
1523630995274,-2031616,98,-56,-1,-1,0
1523630995274,-1966080,98,-56,-1,-1,0
1523630995274,-1900544,98,-56,-1,-1,0
1523630995274,-1769472,98,-56,-1,-1,0
1523630995274,-1572864,98,-56,-1,-1,0
1523630995314,-1376256,98,-56,-1,-1,0
1523630995314,-1114112,98,-56,-1,-1,0
1523630995314,-851968,98,-56,-1,-1,0
1523630995314,-458752,98,-56,-1,-1,0
1523630995314,0,98,-56,-1,-1,0
1523630995354,589824,98,-56,-1,-1,0
1523630995354,1310720,98,-56,-1,-1,0
1523630995354,2228224,98,-56,-1,-1,0
1523630995354,2949120,98,-56,-1,-1,0
1523630995354,3211264,98,-56,-1,-1,0
1523630995394,3014656,98,-56,-1,-1,0
1523630995394,2686976,98,-56,-1,-1,0
1523630995394,2162688,98,-56,-1,-1,0
1523630995394,1572864,98,-56,-1,-1,0
1523630995394,983040,98,-56,-1,-1,0
1523630995434,524288,98,-56,-1,-1,0
1523630995434,131072,98,-56,-1,-1,0
1523630995434,-262144,98,-56,-1,-1,0
1523630995434,-720896,98,-56,-1,-1,0
1523630995434,-851968,98,-56,-1,-1,0
1523630995474,-720896,98,-56,-1,-1,0
1523630995474,-655360,98,-56,-1,-1,0
1523630995474,-720896,98,-56,-1,-1,0
1523630995474,-720896,98,-56,-1,-1,0
1523630995474,-655360,98,-56,-1,-1,0
1523630995514,-589824,98,-56,-1,-1,0
1523630995514,-524288,98,-56,-1,-1,0
1523630995514,-458752,98,-56,-1,-1,0
1523630995514,-524288,98,-56,-1,-1,0
1523630995514,-589824,98,-56,-1,-1,0
1523630995554,-720896,98,-56,-1,-1,0
1523630995554,-786432,98,-56,-1,-1,0
1523630995554,-786432,98,-56,-1,-1,0
1523630995554,-786432,98,-56,-1,-1,0
1523630995554,-917504,98,-56,-1,-1,0
1523630995599,-1114112,98,-56,-1,-1,0
1523630995599,-1179648,98,-56,-1,-1,0
1523630995599,-1048576,98,-56,-1,-1,0
1523630995599,-983040,98,-56,-1,-1,0
1523630995599,-1179648,98,-56,-1,-1,0
1523630995634,-1441792,98,-56,-1,-1,0
1523630995634,-1507328,98,-56,-1,-1,0
1523630995634,-1376256,98,-56,-1,-1,0
1523630995634,-1114112,98,-56,-1,-1,0
1523630995634,-1114112,98,-56,-1,-1,0
1523630995674,-1310720,98,-56,-1,-1,0
1523630995674,-1310720,98,-56,-1,-1,0
1523630995674,-1179648,98,-56,-1,-1,0
1523630995674,-1245184,98,-56,-1,-1,0
1523630995674,-1179648,98,-56,-1,-1,0
1523630995714,-1048576,98,-56,-1,-1,0
1523630995714,-1310720,98,-56,-1,-1,0
1523630995714,-1572864,98,-56,-1,-1,0
1523630995714,-1441792,98,-56,-1,-1,0
1523630995714,-1310720,98,-56,-1,-1,0
1523630995754,-1441792,98,-56,-1,-1,0
1523630995754,-1835008,98,-56,-1,-1,0
1523630995754,-2293760,98,-56,-1,-1,0
1523630995754,-2228224,98,-56,-1,-1,0
1523630995754,-524288,98,-56,-1,-1,0
1523630995794,3670016,98,-56,-1,-1,0
1523630995794,10092544,98,-56,-1,-1,0
1523630995794,15663104,98,-56,-1,-1,0
1523630995794,15466496,98,-56,-1,-1,0
1523630995794,8323072,98,-56,-1,-1,0
1523630995834,524288,98,-56,-1,-1,0
1523630995834,-2686976,98,-56,-1,-1,0
1523630995834,-2949120,98,-56,-1,-1,0
1523630995834,-2752512,98,-56,-1,-1,0
1523630995834,-2686976,98,-56,-1,-1,0
1523630995874,-2621440,98,-56,-1,-1,0
1523630995874,-2359296,98,-56,-1,-1,0
1523630995874,-2031616,98,-56,-1,-1,0
1523630995874,-1900544,98,-56,-1,-1,0
1523630995874,-1900544,98,-56,-1,-1,0
1523630995914,-1835008,98,-56,-1,-1,0
1523630995914,-1638400,98,-56,-1,-1,0
1523630995914,-1376256,98,-56,-1,-1,0
1523630995914,-1048576,98,-56,-1,-1,0
1523630995914,-655360,98,-56,-1,-1,0
1523630995954,0,98,-56,-1,-1,0
1523630995954,720896,98,-56,-1,-1,0
1523630995954,1703936,98,-56,-1,-1,0
1523630995954,2359296,98,-56,-1,-1,0
1523630995954,2424832,98,-56,-1,-1,0
1523630995994,2293760,98,-56,-1,-1,0
1523630995994,2293760,98,-56,-1,-1,0
1523630995994,2031616,98,-56,-1,-1,0
1523630995994,1638400,98,-56,-1,-1,0
1523630995994,1179648,98,-56,-1,-1,0
1523630996034,720896,98,-56,-1,-1,0
1523630996034,262144,98,-56,-1,-1,0
1523630996034,-196608,98,-56,-1,-1,0
1523630996034,-589824,98,-56,-1,-1,0
1523630996034,-786432,98,-56,-1,-1,0
1523630996074,-720896,98,-56,-1,-1,0
1523630996074,-589824,98,-56,-1,-1,0
1523630996074,-524288,98,-56,-1,-1,0
1523630996074,-589824,98,-56,-1,-1,0
1523630996074,-524288,98,-56,-1,-1,0
1523630996114,-524288,98,-56,-1,-1,0
1523630996114,-589824,98,-56,-1,-1,0
1523630996114,-589824,98,-56,-1,-1,0
1523630996114,-589824,98,-56,-1,-1,0
1523630996114,-524288,98,-56,-1,-1,0
1523630996154,-524288,98,-56,-1,-1,0
1523630996154,-655360,98,-56,-1,-1,0
1523630996154,-786432,98,-56,-1,-1,0
1523630996154,-786432,98,-56,-1,-1,0
1523630996154,-720896,98,-56,-1,-1,0
1523630996194,-589824,98,-56,-1,-1,0
1523630996194,-720896,98,-56,-1,-1,0
1523630996194,-917504,98,-56,-1,-1,0
1523630996194,-1114112,98,-56,-1,-1,0
1523630996194,-1245184,98,-56,-1,-1,0
1523630996239,-1441792,98,-56,-1,-1,0
1523630996239,-1507328,98,-56,-1,-1,0
1523630996239,-1310720,98,-56,-1,-1,0
1523630996239,-1048576,98,-56,-1,-1,0
1523630996239,-983040,98,-56,-1,-1,0
1523630996274,-1048576,98,-56,-1,-1,0
1523630996274,-1114112,98,-56,-1,-1,0
1523630996274,-1310720,98,-56,-1,-1,0
1523630996274,-1441792,98,-56,-1,-1,0
1523630996274,-1572864,98,-56,-1,-1,0
1523630996314,-1376256,98,-56,-1,-1,0
1523630996314,-1114112,98,-56,-1,-1,0
1523630996314,-983040,98,-56,-1,-1,0
1523630996314,-1114112,98,-56,-1,-1,0
1523630996314,-1441792,98,-56,-1,-1,0
1523630996354,-1572864,98,-56,-1,-1,0
1523630996354,-1507328,98,-56,-1,-1,0
1523630996354,-1507328,98,-56,-1,-1,0
1523630996354,-1835008,98,-56,-1,-1,0
1523630996354,-1703936,98,-56,-1,-1,0
1523630996394,393216,98,-56,-1,-1,0
1523630996394,5242880,98,-56,-1,-1,0
1523630996394,11599872,98,-56,-1,-1,0
1523630996394,16252928,98,-56,-1,-1,0
1523630996394,14286848,98,-56,-1,-1,0
1523630996434,6422528,98,-56,-1,-1,0
1523630996434,-458752,98,-56,-1,-1,0
1523630996434,-2555904,98,-56,-1,-1,0
1523630996434,-2490368,98,-56,-1,-1,0
1523630996434,-2424832,98,-56,-1,-1,0
1523630996474,-2424832,98,-56,-1,-1,0
1523630996474,-2359296,98,-56,-1,-1,0
1523630996474,-2228224,98,-56,-1,-1,0
1523630996474,-2097152,98,-56,-1,-1,0
1523630996474,-2162688,98,-56,-1,-1,0
1523630996514,-2162688,98,-56,-1,-1,0
1523630996514,-1966080,98,-56,-1,-1,0
1523630996514,-1638400,98,-56,-1,-1,0
1523630996514,-1245184,98,-56,-1,-1,0
1523630996514,-786432,98,-56,-1,-1,0
1523630996554,-327680,98,-56,-1,-1,0
1523630996554,131072,98,-56,-1,-1,0
1523630996554,917504,98,-56,-1,-1,0
1523630996554,1638400,98,-56,-1,-1,0
1523630996554,2031616,98,-56,-1,-1,0
1523630996594,2424832,98,-56,-1,-1,0
1523630996594,2686976,98,-56,-1,-1,0
1523630996594,2424832,98,-56,-1,-1,0
1523630996594,1638400,98,-56,-1,-1,0
1523630996594,1048576,98,-56,-1,-1,0
1523630996634,720896,98,-56,-1,-1,0
1523630996634,458752,98,-56,-1,-1,0
1523630996634,65536,98,-56,-1,-1,0
1523630996634,-327680,98,-56,-1,-1,0
1523630996634,-720896,98,-56,-1,-1,0
1523630996674,-1048576,98,-56,-1,-1,0
1523630996674,-1245184,98,-56,-1,-1,0
1523630996674,-1245184,98,-56,-1,-1,0
1523630996674,-1114112,98,-56,-1,-1,0
1523630996674,-983040,98,-56,-1,-1,0
1523630996714,-983040,98,-56,-1,-1,0
1523630996714,-917504,98,-56,-1,-1,0
1523630996714,-917504,98,-56,-1,-1,0
1523630996714,-917504,98,-56,-1,-1,0
1523630996714,-917504,98,-56,-1,-1,0
1523630996754,-917504,98,-56,-1,-1,0
1523630996754,-917504,98,-56,-1,-1,0
1523630996754,-917504,98,-56,-1,-1,0
1523630996754,-917504,98,-56,-1,-1,0
1523630996754,-983040,98,-56,-1,-1,0
1523630996794,-1114112,98,-56,-1,-1,0
1523630996794,-1245184,98,-56,-1,-1,0
1523630996794,-1245184,98,-56,-1,-1,0
1523630996794,-1179648,98,-56,-1,-1,0
1523630996794,-1310720,98,-56,-1,-1,0
1523630996834,-1441792,98,-56,-1,-1,0
1523630996834,-1572864,98,-56,-1,-1,0
1523630996834,-1638400,98,-56,-1,-1,0
1523630996834,-1769472,98,-56,-1,-1,0
1523630996834,-1835008,98,-56,-1,-1,0
1523630996883,-1638400,98,-56,-1,-1,0
1523630996883,-1245184,98,-56,-1,-1,0
1523630996883,-1114112,98,-56,-1,-1,0
1523630996883,-1245184,98,-56,-1,-1,0
1523630996883,-1376256,98,-56,-1,-1,0
1523630996914,-1376256,98,-56,-1,-1,0
1523630996914,-1376256,98,-56,-1,-1,0
1523630996914,-1376256,98,-56,-1,-1,0
1523630996914,-1376256,98,-56,-1,-1,0
1523630996914,-1376256,98,-56,-1,-1,0
1523630996954,-1376256,98,-56,-1,-1,0
1523630996954,-1310720,98,-56,-1,-1,0
1523630996954,-1441792,98,-56,-1,-1,0
1523630996954,-1638400,98,-56,-1,-1,0
1523630996954,-1966080,98,-56,-1,-1,0
1523630996994,-1769472,98,-56,-1,-1,0
1523630996994,196608,98,-56,-1,-1,0
1523630996994,4259840,98,-56,-1,-1,0
1523630996994,9830400,98,-56,-1,-1,0
1523630996994,14221312,98,-56,-1,-1,0
1523630997034,13107200,98,-56,-1,-1,0
1523630997034,6094848,98,-56,-1,-1,0
1523630997034,-262144,98,-56,-1,-1,0
1523630997034,-2293760,98,-56,-1,-1,0
1523630997034,-2228224,98,-56,-1,-1,0
1523630997074,-2228224,98,-56,-1,-1,0
1523630997074,-2162688,98,-56,-1,-1,0
1523630997074,-2031616,98,-56,-1,-1,0
1523630997074,-1966080,98,-56,-1,-1,0
1523630997074,-1835008,98,-56,-1,-1,0
1523630997114,-1703936,98,-56,-1,-1,0
1523630997114,-1441792,98,-56,-1,-1,0
1523630997114,-1310720,98,-56,-1,-1,0
1523630997114,-1114112,98,-56,-1,-1,0
1523630997114,-917504,98,-56,-1,-1,0
1523630997154,-655360,98,-56,-1,-1,0
1523630997154,-458752,98,-56,-1,-1,0
1523630997154,131072,98,-56,-1,-1,0
1523630997154,983040,98,-56,-1,-1,0
1523630997154,1900544,98,-56,-1,-1,0
1523630997194,2621440,98,-56,-1,-1,0
1523630997194,2949120,98,-56,-1,-1,0
1523630997194,2883584,98,-56,-1,-1,0
1523630997194,2621440,98,-56,-1,-1,0
1523630997194,2228224,98,-56,-1,-1,0
1523630997234,1703936,98,-56,-1,-1,0
1523630997234,1245184,98,-56,-1,-1,0
1523630997234,786432,98,-56,-1,-1,0
1523630997234,458752,98,-56,-1,-1,0
1523630997234,196608,98,-56,-1,-1,0
1523630997274,0,98,-56,-1,-1,0
1523630997274,-131072,98,-56,-1,-1,0
1523630997274,-196608,98,-56,-1,-1,0
1523630997274,-524288,98,-56,-1,-1,0
1523630997274,-917504,98,-56,-1,-1,0
1523630997314,-917504,98,-56,-1,-1,0
1523630997314,-589824,98,-56,-1,-1,0
1523630997314,-393216,98,-56,-1,-1,0
1523630997314,-393216,98,-56,-1,-1,0
1523630997314,-458752,98,-56,-1,-1,0
1523630997354,-393216,98,-56,-1,-1,0
1523630997354,-458752,98,-56,-1,-1,0
1523630997354,-458752,98,-56,-1,-1,0
1523630997354,-589824,98,-56,-1,-1,0
1523630997354,-720896,98,-56,-1,-1,0
1523630997394,-851968,98,-56,-1,-1,0
1523630997394,-983040,98,-56,-1,-1,0
1523630997394,-1114112,98,-56,-1,-1,0
1523630997394,-1245184,98,-56,-1,-1,0
1523630997394,-1310720,98,-56,-1,-1,0
1523630997434,-1376256,98,-56,-1,-1,0
1523630997434,-1376256,98,-56,-1,-1,0
1523630997434,-1441792,98,-56,-1,-1,0
1523630997434,-1572864,98,-56,-1,-1,0
1523630997434,-1638400,98,-56,-1,-1,0
1523630997474,-1572864,98,-56,-1,-1,0
1523630997474,-1441792,98,-56,-1,-1,0
1523630997474,-1310720,98,-56,-1,-1,0
1523630997474,-1245184,98,-56,-1,-1,0
1523630997474,-1179648,98,-56,-1,-1,0
1523630997519,-1310720,98,-56,-1,-1,0
1523630997519,-1376256,98,-56,-1,-1,0
1523630997519,-1507328,98,-56,-1,-1,0
1523630997519,-1638400,98,-56,-1,-1,0
1523630997519,-1769472,98,-56,-1,-1,0
1523630997554,-1638400,98,-56,-1,-1,0
1523630997554,-1507328,98,-56,-1,-1,0
1523630997554,-1507328,98,-56,-1,-1,0
1523630997554,-1572864,98,-56,-1,-1,0
1523630997554,-1966080,98,-56,-1,-1,0
1523630997594,-2424832,98,-56,-1,-1,0
1523630997594,-1441792,98,-56,-1,-1,0
1523630997594,2359296,98,-56,-1,-1,0
1523630997594,8978432,98,-56,-1,-1,0
1523630997594,15925248,98,-56,-1,-1,0
1523630997634,17956864,98,-56,-1,-1,0
1523630997634,11796480,98,-56,-1,-1,0
1523630997634,2818048,98,-56,-1,-1,0
1523630997634,-1966080,98,-56,-1,-1,0
1523630997634,-2555904,98,-56,-1,-1,0
1523630997674,-2293760,98,-56,-1,-1,0
1523630997674,-2293760,98,-56,-1,-1,0
1523630997674,-2359296,98,-56,-1,-1,0
1523630997674,-2424832,98,-56,-1,-1,0
1523630997674,-2228224,98,-56,-1,-1,0
1523630997714,-2031616,98,-56,-1,-1,0
1523630997714,-1835008,98,-56,-1,-1,0
1523630997714,-1638400,98,-56,-1,-1,0
1523630997714,-1376256,98,-56,-1,-1,0
1523630997714,-1179648,98,-56,-1,-1,0
1523630997754,-917504,98,-56,-1,-1,0
1523630997754,-524288,98,-56,-1,-1,0
1523630997754,0,98,-56,-1,-1,0
1523630997754,589824,98,-56,-1,-1,0
1523630997754,1376256,98,-56,-1,-1,0
1523630997794,2162688,98,-56,-1,-1,0
1523630997794,2686976,98,-56,-1,-1,0
1523630997794,2883584,98,-56,-1,-1,0
1523630997794,2818048,98,-56,-1,-1,0
1523630997794,2359296,98,-56,-1,-1,0
1523630997834,1769472,98,-56,-1,-1,0
1523630997834,1245184,98,-56,-1,-1,0
1523630997834,720896,98,-56,-1,-1,0
1523630997834,196608,98,-56,-1,-1,0
1523630997834,-196608,98,-56,-1,-1,0
1523630997874,-524288,98,-56,-1,-1,0
1523630997874,-786432,98,-56,-1,-1,0
1523630997874,-917504,98,-56,-1,-1,0
1523630997874,-917504,98,-56,-1,-1,0
1523630997874,-917504,98,-56,-1,-1,0
1523630997914,-851968,98,-56,-1,-1,0
1523630997914,-720896,98,-56,-1,-1,0
1523630997914,-524288,98,-56,-1,-1,0
1523630997914,-393216,98,-56,-1,-1,0
1523630997914,-262144,98,-56,-1,-1,0
1523630997954,-327680,98,-56,-1,-1,0
1523630997954,-458752,98,-56,-1,-1,0
1523630997954,-524288,98,-56,-1,-1,0
1523630997954,-327680,98,-56,-1,-1,0
1523630997954,-524288,98,-56,-1,-1,0
1523630997994,-786432,98,-56,-1,-1,0
1523630997994,-917504,98,-56,-1,-1,0
1523630997994,-917504,98,-56,-1,-1,0
1523630997994,-983040,98,-56,-1,-1,0
1523630997994,-1114112,98,-56,-1,-1,0
1523630998034,-1245184,98,-56,-1,-1,0
1523630998034,-1310720,98,-56,-1,-1,0
1523630998034,-1179648,98,-56,-1,-1,0
1523630998034,-1179648,98,-56,-1,-1,0
1523630998034,-1376256,98,-56,-1,-1,0
1523630998074,-1376256,98,-56,-1,-1,0
1523630998074,-1179648,98,-56,-1,-1,0
1523630998074,-1048576,98,-56,-1,-1,0
1523630998074,-1114112,98,-56,-1,-1,0
1523630998074,-1114112,98,-56,-1,-1,0
1523630998114,-1114112,98,-56,-1,-1,0
1523630998114,-1179648,98,-56,-1,-1,0
1523630998114,-1376256,98,-56,-1,-1,0
1523630998114,-1638400,98,-56,-1,-1,0
1523630998114,-1572864,98,-56,-1,-1,0
1523630998163,-1507328,98,-56,-1,-1,0
1523630998163,-1638400,98,-56,-1,-1,0
1523630998163,-1703936,98,-56,-1,-1,0
1523630998163,-1638400,98,-56,-1,-1,0
1523630998163,-1703936,98,-56,-1,-1,0
1523630998194,-1966080,98,-56,-1,-1,0
1523630998194,-1769472,98,-56,-1,-1,0
1523630998194,65536,98,-56,-1,-1,0
1523630998194,4653056,98,-56,-1,-1,0
1523630998194,11272192,98,-56,-1,-1,0
1523630998234,16973824,98,-56,-1,-1,0
1523630998234,16449536,98,-56,-1,-1,0
1523630998234,8847360,98,-56,-1,-1,0
1523630998234,720896,98,-56,-1,-1,0
1523630998234,-2228224,98,-56,-1,-1,0
1523630998274,-2162688,98,-56,-1,-1,0
1523630998274,-2162688,98,-56,-1,-1,0
1523630998274,-2359296,98,-56,-1,-1,0
1523630998274,-2359296,98,-56,-1,-1,0
1523630998274,-2162688,98,-56,-1,-1,0
1523630998314,-2031616,98,-56,-1,-1,0
1523630998314,-1900544,98,-56,-1,-1,0
1523630998314,-1703936,98,-56,-1,-1,0
1523630998314,-1572864,98,-56,-1,-1,0
1523630998314,-1376256,98,-56,-1,-1,0
1523630998354,-1048576,98,-56,-1,-1,0
1523630998354,-720896,98,-56,-1,-1,0
1523630998354,-196608,98,-56,-1,-1,0
1523630998354,524288,98,-56,-1,-1,0
1523630998354,1245184,98,-56,-1,-1,0
1523630998394,1835008,98,-56,-1,-1,0
1523630998394,2359296,98,-56,-1,-1,0
1523630998394,2752512,98,-56,-1,-1,0
1523630998394,2883584,98,-56,-1,-1,0
1523630998394,2818048,98,-56,-1,-1,0
1523630998434,2359296,98,-56,-1,-1,0
1523630998434,1703936,98,-56,-1,-1,0
1523630998434,1048576,98,-56,-1,-1,0
1523630998434,589824,98,-56,-1,-1,0
1523630998434,196608,98,-56,-1,-1,0
1523630998474,-131072,98,-56,-1,-1,0
1523630998474,-589824,98,-56,-1,-1,0
1523630998474,-917504,98,-56,-1,-1,0
1523630998474,-1048576,98,-56,-1,-1,0
1523630998474,-983040,98,-56,-1,-1,0
1523630998514,-983040,98,-56,-1,-1,0
1523630998514,-983040,98,-56,-1,-1,0
1523630998514,-983040,98,-56,-1,-1,0
1523630998514,-1048576,98,-56,-1,-1,0
1523630998514,-1048576,98,-56,-1,-1,0
1523630998554,-983040,98,-56,-1,-1,0
1523630998554,-851968,98,-56,-1,-1,0
1523630998554,-655360,98,-56,-1,-1,0
1523630998554,-589824,98,-56,-1,-1,0
1523630998554,-786432,98,-56,-1,-1,0
1523630998594,-851968,98,-56,-1,-1,0
1523630998594,-655360,98,-56,-1,-1,0
1523630998594,-655360,98,-56,-1,-1,0
1523630998594,-917504,98,-56,-1,-1,0
1523630998594,-1048576,98,-56,-1,-1,0
1523630998634,-851968,98,-56,-1,-1,0
1523630998634,-786432,98,-56,-1,-1,0
1523630998634,-1048576,98,-56,-1,-1,0
1523630998634,-1114112,98,-56,-1,-1,0
1523630998634,-1048576,98,-56,-1,-1,0
1523630998674,-1048576,98,-56,-1,-1,0
1523630998674,-1048576,98,-56,-1,-1,0
1523630998674,-1048576,98,-56,-1,-1,0
1523630998674,-1114112,98,-56,-1,-1,0
1523630998674,-1310720,98,-56,-1,-1,0
1523630998714,-1376256,98,-56,-1,-1,0
1523630998714,-1572864,98,-56,-1,-1,0
1523630998714,-1638400,98,-56,-1,-1,0
1523630998714,-1703936,98,-56,-1,-1,0
1523630998714,-1638400,98,-56,-1,-1,0
1523630998754,-1703936,98,-56,-1,-1,0
1523630998754,-1769472,98,-56,-1,-1,0
1523630998754,-1835008,98,-56,-1,-1,0
1523630998754,-1835008,98,-56,-1,-1,0
1523630998754,-1835008,98,-56,-1,-1,0
1523630998799,-2031616,98,-56,-1,-1,0
1523630998799,-2228224,98,-56,-1,-1,0
1523630998799,-1245184,98,-56,-1,-1,0
1523630998799,2293760,98,-56,-1,-1,0
1523630998799,8323072,98,-56,-1,-1,0
1523630998834,14942208,98,-56,-1,-1,0
1523630998834,17760256,98,-56,-1,-1,0
1523630998834,12648448,98,-56,-1,-1,0
1523630998834,3801088,98,-56,-1,-1,0
1523630998834,-1507328,98,-56,-1,-1,0
1523630998875,-2359296,98,-56,-1,-1,0
1523630998875,-2293760,98,-56,-1,-1,0
1523630998875,-2293760,98,-56,-1,-1,0
1523630998875,-2162688,98,-56,-1,-1,0
1523630998875,-1966080,98,-56,-1,-1,0
1523630998914,-1769472,98,-56,-1,-1,0
1523630998914,-1703936,98,-56,-1,-1,0
1523630998914,-1507328,98,-56,-1,-1,0
1523630998914,-1245184,98,-56,-1,-1,0
1523630998914,-1048576,98,-56,-1,-1,0
1523630998954,-851968,98,-56,-1,-1,0
1523630998954,-720896,98,-56,-1,-1,0
1523630998954,-458752,98,-56,-1,-1,0
1523630998954,0,98,-56,-1,-1,0
1523630998954,720896,98,-56,-1,-1,0
1523630998994,1572864,98,-56,-1,-1,0
1523630998994,2424832,98,-56,-1,-1,0
1523630998994,3014656,98,-56,-1,-1,0
1523630998994,3407872,98,-56,-1,-1,0
1523630998994,3538944,98,-56,-1,-1,0
1523630999034,3080192,98,-56,-1,-1,0
1523630999034,2228224,98,-56,-1,-1,0
1523630999034,1507328,98,-56,-1,-1,0
1523630999034,1048576,98,-56,-1,-1,0
1523630999034,524288,98,-56,-1,-1,0
1523630999074,0,98,-56,-1,-1,0
1523630999074,-131072,98,-56,-1,-1,0
1523630999074,-262144,98,-56,-1,-1,0
1523630999074,-458752,98,-56,-1,-1,0
1523630999074,-786432,98,-56,-1,-1,0
1523630999114,-917504,98,-56,-1,-1,0
1523630999114,-851968,98,-56,-1,-1,0
1523630999114,-589824,98,-56,-1,-1,0
1523630999114,-524288,98,-56,-1,-1,0
1523630999114,-524288,98,-56,-1,-1,0
1523630999154,-589824,98,-56,-1,-1,0
1523630999154,-655360,98,-56,-1,-1,0
1523630999154,-589824,98,-56,-1,-1,0
1523630999154,-458752,98,-56,-1,-1,0
1523630999154,-458752,98,-56,-1,-1,0
1523630999194,-655360,98,-56,-1,-1,0
1523630999194,-851968,98,-56,-1,-1,0
1523630999194,-983040,98,-56,-1,-1,0
1523630999194,-1114112,98,-56,-1,-1,0
1523630999194,-1114112,98,-56,-1,-1,0
1523630999234,-1179648,98,-56,-1,-1,0
1523630999234,-1245184,98,-56,-1,-1,0
1523630999234,-1245184,98,-56,-1,-1,0
1523630999234,-1310720,98,-56,-1,-1,0
1523630999234,-1376256,98,-56,-1,-1,0
1523630999274,-1507328,98,-56,-1,-1,0
1523630999274,-1507328,98,-56,-1,-1,0
1523630999274,-1441792,98,-56,-1,-1,0
1523630999274,-1376256,98,-56,-1,-1,0
1523630999274,-1376256,98,-56,-1,-1,0
1523630999314,-1245184,98,-56,-1,-1,0
1523630999314,-1114112,98,-56,-1,-1,0
1523630999314,-1245184,98,-56,-1,-1,0
1523630999314,-1441792,98,-56,-1,-1,0
1523630999314,-1769472,98,-56,-1,-1,0
1523630999354,-1835008,98,-56,-1,-1,0
1523630999354,-1769472,98,-56,-1,-1,0
1523630999354,-1638400,98,-56,-1,-1,0
1523630999354,-1769472,98,-56,-1,-1,0
1523630999354,-2097152,98,-56,-1,-1,0
1523630999394,-2424832,98,-56,-1,-1,0
1523630999394,-2818048,98,-56,-1,-1,0
1523630999394,-2555904,98,-56,-1,-1,0
1523630999394,-393216,98,-56,-1,-1,0
1523630999394,4259840,98,-56,-1,-1,0
1523630999439,10616832,98,-56,-1,-1,0
1523630999439,15073280,98,-56,-1,-1,0
1523630999439,12779520,98,-56,-1,-1,0
1523630999439,4980736,98,-56,-1,-1,0
1523630999439,-1703936,98,-56,-1,-1,0
1523630999474,-3801088,98,-56,-1,-1,0
1523630999474,-3670016,98,-56,-1,-1,0
1523630999474,-3211264,98,-56,-1,-1,0
1523630999474,-2883584,98,-56,-1,-1,0
1523630999474,-2818048,98,-56,-1,-1,0
1523630999514,-3014656,98,-56,-1,-1,0
1523630999514,-2752512,98,-56,-1,-1,0
1523630999514,-2424832,98,-56,-1,-1,0
1523630999514,-2424832,98,-56,-1,-1,0
1523630999514,-2097152,98,-56,-1,-1,0
1523630999554,-1572864,98,-56,-1,-1,0
1523630999554,-1179648,98,-56,-1,-1,0
1523630999554,-983040,98,-56,-1,-1,0
1523630999554,-720896,98,-56,-1,-1,0
1523630999554,-131072,98,-56,-1,-1,0
1523630999594,458752,98,-56,-1,-1,0
1523630999594,1179648,98,-56,-1,-1,0
1523630999594,1835008,98,-56,-1,-1,0
1523630999594,2555904,98,-56,-1,-1,0
1523630999594,2883584,98,-56,-1,-1,0
1523630999634,2686976,98,-56,-1,-1,0
1523630999634,2228224,98,-56,-1,-1,0
1523630999634,1638400,98,-56,-1,-1,0
1523630999634,1245184,98,-56,-1,-1,0
1523630999634,917504,98,-56,-1,-1,0
1523630999674,458752,98,-56,-1,-1,0
1523630999674,0,98,-56,-1,-1,0
1523630999674,-393216,98,-56,-1,-1,0
1523630999674,-655360,98,-56,-1,-1,0
1523630999674,-786432,98,-56,-1,-1,0
1523630999714,-720896,98,-56,-1,-1,0
1523630999714,-458752,98,-56,-1,-1,0
1523630999714,-393216,98,-56,-1,-1,0
1523630999714,-327680,98,-56,-1,-1,0
1523630999714,-262144,98,-56,-1,-1,0
1523630999754,-327680,98,-56,-1,-1,0
1523630999754,-393216,98,-56,-1,-1,0
1523630999754,-393216,98,-56,-1,-1,0
1523630999754,-458752,98,-56,-1,-1,0
1523630999754,-589824,98,-56,-1,-1,0
1523630999794,-720896,98,-56,-1,-1,0
1523630999794,-786432,98,-56,-1,-1,0
1523630999794,-720896,98,-56,-1,-1,0
1523630999794,-655360,98,-56,-1,-1,0
1523630999794,-655360,98,-56,-1,-1,0
1523630999834,-786432,98,-56,-1,-1,0
1523630999834,-917504,98,-56,-1,-1,0
1523630999834,-983040,98,-56,-1,-1,0
1523630999834,-1048576,98,-56,-1,-1,0
1523630999834,-1245184,98,-56,-1,-1,0
1523630999874,-1179648,98,-56,-1,-1,0
1523630999874,-917504,98,-56,-1,-1,0
1523630999874,-786432,98,-56,-1,-1,0
1523630999874,-786432,98,-56,-1,-1,0
1523630999874,-851968,98,-56,-1,-1,0
1523630999915,-1048576,98,-56,-1,-1,0
1523630999915,-1310720,98,-56,-1,-1,0
1523630999915,-1245184,98,-56,-1,-1,0
1523630999915,-1245184,98,-56,-1,-1,0
1523630999915,-1310720,98,-56,-1,-1,0
1523630999954,-1376256,98,-56,-1,-1,0
1523630999954,-1376256,98,-56,-1,-1,0
1523630999954,-1376256,98,-56,-1,-1,0
1523630999954,-1572864,98,-56,-1,-1,0
1523630999954,-1900544,98,-56,-1,-1,0
1523630999994,-1900544,98,-56,-1,-1,0
1523630999994,0,98,-56,-1,-1,0
1523630999994,4521984,98,-56,-1,-1,0
1523630999994,10878976,98,-56,-1,-1,0
1523630999994,15925248,98,-56,-1,-1,0
1523631000034,15204352,98,-56,-1,-1,0
1523631000034,7995392,98,-56,-1,-1,0
1523631000034,458752,98,-56,-1,-1,0
1523631000034,-2424832,98,-56,-1,-1,0
1523631000034,-2555904,98,-56,-1,-1,0
1523631000079,-2293760,98,-56,-1,-1,0
1523631000079,-2162688,98,-56,-1,-1,0
1523631000079,-2097152,98,-56,-1,-1,0
1523631000079,-2031616,98,-56,-1,-1,0
1523631000079,-1900544,98,-56,-1,-1,0
1523631000114,-1900544,98,-56,-1,-1,0
1523631000114,-1703936,98,-56,-1,-1,0
1523631000114,-1376256,98,-56,-1,-1,0
1523631000114,-983040,98,-56,-1,-1,0
1523631000114,-720896,98,-56,-1,-1,0
1523631000154,-589824,98,-56,-1,-1,0
1523631000154,-327680,98,-56,-1,-1,0
1523631000154,131072,98,-56,-1,-1,0
1523631000154,851968,98,-56,-1,-1,0
1523631000154,1638400,98,-56,-1,-1,0
1523631000194,2424832,98,-56,-1,-1,0
1523631000194,2949120,98,-56,-1,-1,0
1523631000194,3145728,98,-56,-1,-1,0
1523631000194,3080192,98,-56,-1,-1,0
1523631000194,2686976,98,-56,-1,-1,0
1523631000234,2031616,98,-56,-1,-1,0
1523631000234,1376256,98,-56,-1,-1,0
1523631000234,720896,98,-56,-1,-1,0
1523631000234,262144,98,-56,-1,-1,0
1523631000234,65536,98,-56,-1,-1,0
1523631000274,-131072,98,-56,-1,-1,0
1523631000274,-458752,98,-56,-1,-1,0
1523631000274,-655360,98,-56,-1,-1,0
1523631000274,-524288,98,-56,-1,-1,0
1523631000274,-655360,98,-56,-1,-1,0
1523631000314,-917504,98,-56,-1,-1,0
1523631000314,-1048576,98,-56,-1,-1,0
1523631000314,-983040,98,-56,-1,-1,0
1523631000314,-851968,98,-56,-1,-1,0
1523631000314,-786432,98,-56,-1,-1,0
1523631000354,-786432,98,-56,-1,-1,0
1523631000354,-983040,98,-56,-1,-1,0
1523631000354,-1179648,98,-56,-1,-1,0
1523631000354,-1114112,98,-56,-1,-1,0
1523631000354,-1179648,98,-56,-1,-1,0
1523631000394,-1376256,98,-56,-1,-1,0
1523631000394,-1572864,98,-56,-1,-1,0
1523631000394,-1638400,98,-56,-1,-1,0
1523631000394,-1638400,98,-56,-1,-1,0
1523631000394,-1572864,98,-56,-1,-1,0
1523631000434,-1507328,99,-56,-1,-1,0
1523631000434,-1572864,99,-56,-1,-1,0
1523631000434,-1835008,99,-56,-1,-1,0
1523631000434,-1835008,99,-56,-1,-1,0
1523631000434,-1638400,99,-56,-1,-1,0
1523631000474,-1376256,99,-56,-1,-1,0
1523631000474,-1310720,99,-56,-1,-1,0
1523631000474,-1310720,99,-56,-1,-1,0
1523631000474,-1310720,99,-56,-1,-1,0
1523631000474,-1310720,99,-56,-1,-1,0
1523631000514,-1310720,99,-56,-1,-1,0
1523631000514,-1376256,99,-56,-1,-1,0
1523631000514,-1441792,99,-56,-1,-1,0
1523631000514,-1376256,99,-56,-1,-1,0
1523631000514,-1507328,99,-56,-1,-1,0
1523631000554,-1835008,99,-56,-1,-1,0
1523631000554,-1572864,99,-56,-1,-1,0
1523631000554,655360,99,-56,-1,-1,0
1523631000554,5570560,99,-56,-1,-1,0
1523631000554,12386304,99,-56,-1,-1,0
1523631000594,17432576,99,-56,-1,-1,0
1523631000594,15794176,99,-56,-1,-1,0
1523631000594,7798784,99,-56,-1,-1,0
1523631000594,458752,99,-56,-1,-1,0
1523631000594,-2162688,99,-56,-1,-1,0
1523631000634,-2490368,99,-56,-1,-1,0
1523631000634,-2490368,99,-56,-1,-1,0
1523631000634,-2424832,99,-56,-1,-1,0
1523631000634,-2228224,99,-56,-1,-1,0
1523631000634,-2097152,99,-56,-1,-1,0
1523631000674,-2162688,99,-56,-1,-1,0
1523631000674,-2162688,99,-56,-1,-1,0
1523631000674,-1966080,99,-56,-1,-1,0
1523631000674,-1835008,99,-56,-1,-1,0
1523631000674,-1507328,99,-56,-1,-1,0
1523631000719,-917504,99,-56,-1,-1,0
1523631000719,-393216,99,-56,-1,-1,0
1523631000719,-196608,99,-56,-1,-1,0
1523631000719,65536,99,-56,-1,-1,0
1523631000719,589824,99,-56,-1,-1,0
1523631000754,1114112,99,-56,-1,-1,0
1523631000754,1703936,99,-56,-1,-1,0
1523631000754,2228224,99,-56,-1,-1,0
1523631000754,2555904,99,-56,-1,-1,0
1523631000754,2228224,99,-56,-1,-1,0
1523631000794,1572864,99,-56,-1,-1,0
1523631000794,851968,99,-56,-1,-1,0
1523631000794,262144,99,-56,-1,-1,0
1523631000794,-131072,99,-56,-1,-1,0
1523631000794,-589824,99,-56,-1,-1,0
1523631000834,-983040,99,-56,-1,-1,0
1523631000834,-1114112,99,-56,-1,-1,0
1523631000834,-983040,99,-56,-1,-1,0
1523631000834,-1048576,99,-56,-1,-1,0
1523631000834,-1376256,99,-56,-1,-1,0
1523631000874,-1441792,99,-56,-1,-1,0
1523631000874,-1310720,99,-56,-1,-1,0
1523631000874,-1114112,99,-56,-1,-1,0
1523631000874,-983040,99,-56,-1,-1,0
1523631000874,-983040,99,-56,-1,-1,0
1523631000914,-983040,99,-56,-1,-1,0
1523631000914,-851968,99,-56,-1,-1,0
1523631000914,-786432,99,-56,-1,-1,0
1523631000914,-851968,99,-56,-1,-1,0
1523631000914,-917504,99,-56,-1,-1,0
1523631000954,-983040,99,-56,-1,-1,0
1523631000954,-1179648,99,-56,-1,-1,0
1523631000954,-1310720,99,-56,-1,-1,0
1523631000954,-1441792,99,-56,-1,-1,0
1523631000954,-1507328,99,-56,-1,-1,0
1523631000994,-1507328,99,-56,-1,-1,0
1523631000994,-1441792,99,-56,-1,-1,0
1523631000994,-1441792,99,-56,-1,-1,0
1523631000994,-1507328,99,-56,-1,-1,0
1523631000994,-1507328,99,-56,-1,-1,0
1523631001034,-1376256,99,-56,-1,-1,0
1523631001034,-1310720,99,-56,-1,-1,0
1523631001034,-1310720,99,-56,-1,-1,0
1523631001034,-1310720,99,-56,-1,-1,0
1523631001034,-1376256,99,-56,-1,-1,0
1523631001074,-1572864,99,-56,-1,-1,0
1523631001074,-1769472,99,-56,-1,-1,0
1523631001074,-1769472,99,-56,-1,-1,0
1523631001074,-1703936,99,-56,-1,-1,0
1523631001074,-1703936,99,-56,-1,-1,0
1523631001114,-1900544,99,-56,-1,-1,0
1523631001114,-2228224,99,-56,-1,-1,0
1523631001114,-1376256,99,-56,-1,-1,0
1523631001114,2162688,99,-56,-1,-1,0
1523631001114,8323072,99,-56,-1,-1,0
1523631001154,15007744,99,-56,-1,-1,0
1523631001154,17432576,99,-56,-1,-1,0
1523631001154,12320768,99,-56,-1,-1,0
1523631001154,3735552,99,-56,-1,-1,0
1523631001154,-1441792,99,-56,-1,-1,0
1523631001194,-2293760,99,-56,-1,-1,0
1523631001194,-2162688,99,-56,-1,-1,0
1523631001194,-2162688,99,-56,-1,-1,0
1523631001194,-2162688,99,-56,-1,-1,0
1523631001194,-2228224,99,-56,-1,-1,0
1523631001234,-2228224,99,-56,-1,-1,0
1523631001234,-2031616,99,-56,-1,-1,0
1523631001234,-1703936,99,-56,-1,-1,0
1523631001234,-1507328,99,-56,-1,-1,0
1523631001234,-1310720,99,-56,-1,-1,0
1523631001274,-1179648,99,-56,-1,-1,0
1523631001274,-983040,99,-56,-1,-1,0
1523631001274,-655360,99,-56,-1,-1,0
1523631001274,-262144,99,-56,-1,-1,0
1523631001274,196608,99,-56,-1,-1,0
1523631001314,786432,99,-56,-1,-1,0
1523631001314,1638400,99,-56,-1,-1,0
1523631001314,2359296,99,-56,-1,-1,0
1523631001314,2686976,99,-56,-1,-1,0
1523631001314,2424832,99,-56,-1,-1,0
1523631001363,2097152,99,-56,-1,-1,0
1523631001363,1703936,99,-56,-1,-1,0
1523631001363,1245184,99,-56,-1,-1,0
1523631001363,720896,99,-56,-1,-1,0
1523631001363,393216,99,-56,-1,-1,0
1523631001394,0,99,-56,-1,-1,0
1523631001394,-393216,99,-56,-1,-1,0
1523631001394,-786432,99,-56,-1,-1,0
1523631001394,-851968,99,-56,-1,-1,0
1523631001394,-786432,99,-56,-1,-1,0
1523631001434,-851968,99,-56,-1,-1,0
1523631001434,-851968,99,-56,-1,-1,0
1523631001434,-786432,99,-56,-1,-1,0
1523631001434,-720896,99,-56,-1,-1,0
1523631001434,-786432,99,-56,-1,-1,0
1523631001474,-851968,99,-56,-1,-1,0
1523631001474,-851968,99,-56,-1,-1,0
1523631001474,-720896,99,-56,-1,-1,0
1523631001474,-720896,99,-56,-1,-1,0
1523631001474,-917504,99,-56,-1,-1,0
1523631001514,-983040,99,-56,-1,-1,0
1523631001514,-1048576,99,-56,-1,-1,0
1523631001514,-1179648,99,-56,-1,-1,0
1523631001514,-1310720,99,-56,-1,-1,0
1523631001514,-1310720,99,-56,-1,-1,0
1523631001554,-1310720,99,-56,-1,-1,0
1523631001554,-1441792,99,-56,-1,-1,0
1523631001554,-1507328,99,-56,-1,-1,0
1523631001554,-1572864,99,-56,-1,-1,0
1523631001554,-1572864,99,-56,-1,-1,0
1523631001594,-1572864,99,-56,-1,-1,0
1523631001594,-1638400,99,-56,-1,-1,0
1523631001594,-1572864,99,-56,-1,-1,0
1523631001594,-1441792,99,-56,-1,-1,0
1523631001594,-1507328,99,-56,-1,-1,0
1523631001634,-1572864,99,-56,-1,-1,0
1523631001634,-1638400,99,-56,-1,-1,0
1523631001634,-1769472,99,-56,-1,-1,0
1523631001634,-1900544,99,-56,-1,-1,0
1523631001634,-1966080,99,-56,-1,-1,0
1523631001674,-1966080,99,-56,-1,-1,0
1523631001674,-1900544,99,-56,-1,-1,0
1523631001674,-1966080,99,-56,-1,-1,0
1523631001674,-2293760,99,-56,-1,-1,0
1523631001674,-2490368,99,-56,-1,-1,0
1523631001714,-1245184,99,-56,-1,-1,0
1523631001714,2752512,99,-56,-1,-1,0
1523631001714,9437184,99,-56,-1,-1,0
1523631001714,15663104,99,-56,-1,-1,0
1523631001714,16580608,99,-56,-1,-1,0
1523631001754,9961472,99,-56,-1,-1,0
1523631001754,1703936,99,-56,-1,-1,0
1523631001754,-2359296,99,-56,-1,-1,0
1523631001754,-2949120,99,-56,-1,-1,0
1523631001754,-2818048,99,-56,-1,-1,0
1523631001794,-2621440,99,-56,-1,-1,0
1523631001794,-2162688,99,-56,-1,-1,0
1523631001794,-2031616,99,-56,-1,-1,0
1523631001794,-1966080,99,-56,-1,-1,0
1523631001794,-1900544,99,-56,-1,-1,0
1523631001834,-1703936,99,-56,-1,-1,0
1523631001834,-1507328,99,-56,-1,-1,0
1523631001834,-1179648,99,-56,-1,-1,0
1523631001834,-786432,99,-56,-1,-1,0
1523631001834,-589824,99,-56,-1,-1,0
1523631001874,-327680,99,-56,-1,-1,0
1523631001874,131072,99,-56,-1,-1,0
1523631001874,917504,99,-56,-1,-1,0
1523631001874,1703936,99,-56,-1,-1,0
1523631001874,2293760,99,-56,-1,-1,0
1523631001914,2686976,99,-56,-1,-1,0
1523631001914,2883584,99,-56,-1,-1,0
1523631001914,2818048,99,-56,-1,-1,0
1523631001914,2490368,99,-56,-1,-1,0
1523631001914,2031616,99,-56,-1,-1,0
1523631001954,1572864,99,-56,-1,-1,0
1523631001954,983040,99,-56,-1,-1,0
1523631001954,458752,99,-56,-1,-1,0
1523631001954,0,99,-56,-1,-1,0
1523631001954,-327680,99,-56,-1,-1,0
1523631001999,-655360,99,-56,-1,-1,0
1523631001999,-851968,99,-56,-1,-1,0
1523631001999,-851968,99,-56,-1,-1,0
1523631001999,-589824,99,-56,-1,-1,0
1523631001999,-589824,99,-56,-1,-1,0
1523631002034,-720896,99,-56,-1,-1,0
1523631002034,-917504,99,-56,-1,-1,0
1523631002034,-786432,99,-56,-1,-1,0
1523631002034,-720896,99,-56,-1,-1,0
1523631002034,-655360,99,-56,-1,-1,0
1523631002074,-655360,99,-56,-1,-1,0
1523631002074,-655360,99,-56,-1,-1,0
1523631002074,-524288,99,-56,-1,-1,0
1523631002074,-589824,99,-56,-1,-1,0
1523631002074,-786432,99,-56,-1,-1,0
1523631002114,-1114112,99,-56,-1,-1,0
1523631002114,-1376256,99,-56,-1,-1,0
1523631002114,-1638400,99,-56,-1,-1,0
1523631002114,-1769472,99,-56,-1,-1,0
1523631002114,-1835008,99,-56,-1,-1,0
1523631002154,-1900544,100,-56,-1,-1,0
1523631002154,-1966080,100,-56,-1,-1,0
1523631002154,-1900544,100,-56,-1,-1,0
1523631002154,-1703936,100,-56,-1,-1,0
1523631002154,-1572864,100,-56,-1,-1,0
1523631002194,-1638400,100,-56,-1,-1,0
1523631002194,-1638400,100,-56,-1,-1,0
1523631002194,-1572864,100,-56,-1,-1,0
1523631002194,-1507328,100,-56,-1,-1,0
1523631002194,-1310720,100,-56,-1,-1,0
1523631002234,-1310720,100,-56,-1,-1,0
1523631002234,-1376256,100,-56,-1,-1,0
1523631002234,-1310720,100,-56,-1,-1,0
1523631002234,-1310720,100,-56,-1,-1,0
1523631002234,-1835008,100,-56,-1,-1,0
1523631002274,-2228224,100,-56,-1,-1,0
1523631002274,-1048576,100,-56,-1,-1,0
1523631002274,2621440,100,-56,-1,-1,0
1523631002274,8257536,100,-56,-1,-1,0
1523631002274,13565952,100,-56,-1,-1,0
1523631002314,14352384,100,-56,-1,-1,0
1523631002314,8388608,100,-56,-1,-1,0
1523631002314,1048576,100,-56,-1,-1,0
1523631002314,-2293760,100,-56,-1,-1,0
1523631002314,-2555904,100,-56,-1,-1,0
1523631002354,-2293760,100,-56,-1,-1,0
1523631002354,-2097152,100,-56,-1,-1,0
1523631002354,-2031616,100,-56,-1,-1,0
1523631002354,-2031616,100,-56,-1,-1,0
1523631002354,-2031616,100,-56,-1,-1,0
1523631002394,-1900544,100,-56,-1,-1,0
1523631002394,-1703936,100,-56,-1,-1,0
1523631002394,-1441792,100,-56,-1,-1,0
1523631002394,-1245184,100,-56,-1,-1,0
1523631002394,-1114112,100,-56,-1,-1,0
1523631002434,-983040,100,-56,-1,-1,0
1523631002434,-720896,100,-56,-1,-1,0
1523631002434,-262144,100,-56,-1,-1,0
1523631002434,458752,100,-56,-1,-1,0
1523631002434,1114112,100,-56,-1,-1,0
1523631002474,1376256,100,-56,-1,-1,0
1523631002474,1572864,100,-56,-1,-1,0
1523631002474,1900544,100,-56,-1,-1,0
1523631002474,1966080,100,-56,-1,-1,0
1523631002474,1900544,100,-56,-1,-1,0
1523631002514,1638400,100,-56,-1,-1,0
1523631002514,1179648,100,-56,-1,-1,0
1523631002514,589824,100,-56,-1,-1,0
1523631002514,131072,100,-56,-1,-1,0
1523631002514,-65536,100,-56,-1,-1,0
1523631002554,-393216,100,-56,-1,-1,0
1523631002554,-720896,100,-56,-1,-1,0
1523631002554,-917504,100,-56,-1,-1,0
1523631002554,-983040,100,-56,-1,-1,0
1523631002554,-917504,100,-56,-1,-1,0
1523631002594,-917504,100,-56,-1,-1,0
1523631002594,-851968,100,-56,-1,-1,0
1523631002594,-917504,100,-56,-1,-1,0
1523631002594,-917504,100,-56,-1,-1,0
1523631002594,-983040,100,-56,-1,-1,0
1523631002643,-1048576,100,-56,-1,-1,0
1523631002643,-1179648,100,-56,-1,-1,0
1523631002643,-1245184,100,-56,-1,-1,0
1523631002643,-1245184,100,-56,-1,-1,0
1523631002643,-1310720,100,-56,-1,-1,0
1523631002674,-1376256,100,-56,-1,-1,0
1523631002674,-1376256,100,-56,-1,-1,0
1523631002674,-1376256,100,-56,-1,-1,0
1523631002674,-1441792,100,-56,-1,-1,0
1523631002674,-1507328,100,-56,-1,-1,0
1523631002714,-1507328,100,-56,-1,-1,0
1523631002714,-1376256,100,-56,-1,-1,0
1523631002714,-1245184,100,-56,-1,-1,0
1523631002714,-1245184,100,-56,-1,-1,0
1523631002714,-1179648,100,-56,-1,-1,0
1523631002754,-1114112,100,-56,-1,-1,0
1523631002754,-1441792,100,-56,-1,-1,0
1523631002754,-1966080,100,-56,-1,-1,0
1523631002754,-2228224,100,-56,-1,-1,0
1523631002754,-2293760,100,-56,-1,-1,0
1523631002794,-2293760,100,-56,-1,-1,0
1523631002794,-2293760,100,-56,-1,-1,0
1523631002794,-2293760,100,-56,-1,-1,0
1523631002794,-2162688,100,-56,-1,-1,0
1523631002794,-2293760,100,-56,-1,-1,0
1523631002834,-2555904,100,-56,-1,-1,0
1523631002834,-1769472,100,-56,-1,-1,0
1523631002834,1376256,100,-56,-1,-1,0
1523631002834,6750208,100,-56,-1,-1,0
1523631002834,12517376,100,-56,-1,-1,0
1523631002874,14680064,100,-56,-1,-1,0
1523631002874,9699328,100,-56,-1,-1,0
1523631002874,1638400,100,-56,-1,-1,0
1523631002874,-3145728,100,-56,-1,-1,0
1523631002874,-3997696,100,-56,-1,-1,0
1523631002914,-3866624,100,-56,-1,-1,0
1523631002914,-3801088,100,-56,-1,-1,0
1523631002914,-3670016,100,-56,-1,-1,0
1523631002914,-3407872,100,-56,-1,-1,0
1523631002914,-3145728,100,-56,-1,-1,0
1523631002954,-2686976,100,-56,-1,-1,0
1523631002954,-2097152,100,-56,-1,-1,0
1523631002954,-1638400,100,-56,-1,-1,0
1523631002954,-1310720,100,-56,-1,-1,0
1523631002954,-1048576,100,-56,-1,-1,0
1523631002994,-655360,100,-56,-1,-1,0
1523631002994,-262144,100,-56,-1,-1,0
1523631002994,196608,100,-56,-1,-1,0
1523631002994,851968,100,-56,-1,-1,0
1523631002994,1703936,100,-56,-1,-1,0
1523631003034,2490368,100,-56,-1,-1,0
1523631003034,3080192,100,-56,-1,-1,0
1523631003034,3407872,100,-56,-1,-1,0
1523631003034,3407872,100,-56,-1,-1,0
1523631003034,3276800,100,-56,-1,-1,0
1523631003074,3014656,100,-56,-1,-1,0
1523631003074,2555904,100,-56,-1,-1,0
1523631003074,2031616,100,-56,-1,-1,0
1523631003074,1507328,100,-56,-1,-1,0
1523631003074,1048576,100,-56,-1,-1,0
1523631003114,655360,100,-56,-1,-1,0
1523631003114,327680,100,-56,-1,-1,0
1523631003114,0,100,-56,-1,-1,0
1523631003114,-196608,100,-56,-1,-1,0
1523631003114,-196608,100,-56,-1,-1,0
1523631003154,-262144,100,-56,-1,-1,0
1523631003154,-196608,100,-56,-1,-1,0
1523631003154,-65536,100,-56,-1,-1,0
1523631003154,0,100,-56,-1,-1,0
1523631003154,-327680,100,-56,-1,-1,0
1523631003194,-524288,100,-56,-1,-1,0
1523631003194,-786432,100,-56,-1,-1,0
1523631003194,-917504,100,-56,-1,-1,0
1523631003194,-917504,100,-56,-1,-1,0
1523631003194,-1114112,100,-56,-1,-1,0
1523631003234,-1507328,100,-56,-1,-1,0
1523631003234,-1572864,100,-56,-1,-1,0
1523631003234,-1638400,100,-56,-1,-1,0
1523631003234,-1703936,100,-56,-1,-1,0
1523631003234,-1769472,100,-56,-1,-1,0
1523631003279,-1703936,100,-56,-1,-1,0
1523631003279,-1638400,100,-56,-1,-1,0
1523631003279,-1638400,100,-56,-1,-1,0
1523631003279,-1572864,100,-56,-1,-1,0
1523631003279,-1507328,100,-56,-1,-1,0
1523631003314,-1507328,100,-56,-1,-1,0
1523631003314,-1441792,100,-56,-1,-1,0
1523631003314,-1507328,100,-56,-1,-1,0
1523631003314,-1441792,100,-56,-1,-1,0
1523631003314,-1507328,100,-56,-1,-1,0
1523631003354,-1507328,100,-56,-1,-1,0
1523631003354,-1638400,100,-56,-1,-1,0
1523631003354,-1835008,100,-56,-1,-1,0
1523631003354,-2228224,100,-56,-1,-1,0
1523631003354,-2031616,100,-56,-1,-1,0
1523631003394,262144,100,-56,-1,-1,0
1523631003394,4980736,100,-56,-1,-1,0
1523631003394,11272192,100,-56,-1,-1,0
1523631003394,15663104,100,-56,-1,-1,0
1523631003394,13500416,100,-56,-1,-1,0
1523631003434,5767168,100,-56,-1,-1,0
1523631003434,-851968,100,-56,-1,-1,0
1523631003434,-2883584,100,-56,-1,-1,0
1523631003434,-2752512,100,-56,-1,-1,0
1523631003434,-2555904,100,-56,-1,-1,0
1523631003474,-2490368,100,-56,-1,-1,0
1523631003474,-2686976,100,-56,-1,-1,0
1523631003474,-2752512,100,-56,-1,-1,0
1523631003474,-2621440,100,-56,-1,-1,0
1523631003474,-2293760,100,-56,-1,-1,0
1523631003514,-2031616,100,-56,-1,-1,0
1523631003514,-1835008,100,-56,-1,-1,0
1523631003514,-1441792,100,-56,-1,-1,0
1523631003514,-983040,100,-56,-1,-1,0
1523631003514,-589824,100,-56,-1,-1,0
1523631003554,-327680,100,-56,-1,-1,0
1523631003554,0,100,-56,-1,-1,0
1523631003554,327680,100,-56,-1,-1,0
1523631003554,1114112,100,-56,-1,-1,0
1523631003554,2031616,100,-56,-1,-1,0
1523631003594,2424832,100,-56,-1,-1,0
1523631003594,2293760,100,-56,-1,-1,0
1523631003594,2097152,100,-56,-1,-1,0
1523631003594,1507328,100,-56,-1,-1,0
1523631003594,786432,100,-56,-1,-1,0
1523631003634,65536,100,-56,-1,-1,0
1523631003634,-327680,100,-56,-1,-1,0
1523631003634,-393216,100,-56,-1,-1,0
1523631003634,-327680,100,-56,-1,-1,0
1523631003634,-327680,100,-56,-1,-1,0
1523631003674,-262144,100,-56,-1,-1,0
1523631003674,-262144,100,-56,-1,-1,0
1523631003674,-458752,100,-56,-1,-1,0
1523631003674,-589824,100,-56,-1,-1,0
1523631003674,-589824,100,-56,-1,-1,0
1523631003714,-393216,100,-56,-1,-1,0
1523631003714,-196608,100,-56,-1,-1,0
1523631003714,-65536,100,-56,-1,-1,0
1523631003714,-131072,100,-56,-1,-1,0
1523631003714,-262144,100,-56,-1,-1,0
1523631003754,-393216,101,-56,-1,-1,0
1523631003754,-327680,101,-56,-1,-1,0
1523631003754,-393216,101,-56,-1,-1,0
1523631003754,-589824,101,-56,-1,-1,0
1523631003754,-720896,101,-56,-1,-1,0
1523631003794,-655360,101,-56,-1,-1,0
1523631003794,-655360,101,-56,-1,-1,0
1523631003794,-655360,101,-56,-1,-1,0
1523631003794,-851968,101,-56,-1,-1,0
1523631003794,-1114112,101,-56,-1,-1,0
1523631003834,-1179648,101,-56,-1,-1,0
1523631003834,-851968,101,-56,-1,-1,0
1523631003834,-589824,101,-56,-1,-1,0
1523631003834,-720896,101,-56,-1,-1,0
1523631003834,-524288,101,-56,-1,-1,0
1523631003874,-458752,101,-56,-1,-1,0
1523631003874,-786432,101,-56,-1,-1,0
1523631003874,-1114112,101,-56,-1,-1,0
1523631003874,-1114112,101,-56,-1,-1,0
1523631003874,-1310720,101,-56,-1,-1,0
1523631003919,-1572864,101,-56,-1,-1,0
1523631003919,-1441792,101,-56,-1,-1,0
1523631003919,524288,101,-56,-1,-1,0
1523631003919,5046272,101,-56,-1,-1,0
1523631003919,11272192,101,-56,-1,-1,0
1523631003954,15859712,101,-56,-1,-1,0
1523631003954,14155776,101,-56,-1,-1,0
1523631003954,6684672,101,-56,-1,-1,0
1523631003954,0,101,-56,-1,-1,0
1523631003954,-2162688,101,-56,-1,-1,0
1523631003994,-2555904,101,-56,-1,-1,0
1523631003994,-2490368,101,-56,-1,-1,0
1523631003994,-2031616,101,-56,-1,-1,0
1523631003994,-1769472,101,-56,-1,-1,0
1523631003994,-1769472,101,-56,-1,-1,0
1523631004034,-2162688,101,-56,-1,-1,0
1523631004034,-1966080,101,-56,-1,-1,0
1523631004034,-1835008,101,-56,-1,-1,0
1523631004034,-1703936,101,-56,-1,-1,0
1523631004034,-1572864,101,-56,-1,-1,0
1523631004074,-1179648,101,-56,-1,-1,0
1523631004074,-786432,101,-56,-1,-1,0
1523631004074,-327680,101,-56,-1,-1,0
1523631004074,262144,101,-56,-1,-1,0
1523631004074,917504,101,-56,-1,-1,0
1523631004114,1572864,101,-56,-1,-1,0
1523631004114,2293760,101,-56,-1,-1,0
1523631004114,2686976,101,-56,-1,-1,0
1523631004114,2686976,101,-56,-1,-1,0
1523631004114,2228224,101,-56,-1,-1,0
1523631004154,1769472,101,-56,-1,-1,0
1523631004154,1179648,101,-56,-1,-1,0
1523631004154,655360,101,-56,-1,-1,0
1523631004154,65536,101,-56,-1,-1,0
1523631004154,-393216,101,-56,-1,-1,0
1523631004194,-917504,101,-56,-1,-1,0
1523631004194,-1376256,101,-56,-1,-1,0
1523631004194,-1179648,101,-56,-1,-1,0
1523631004194,-983040,101,-56,-1,-1,0
1523631004194,-917504,101,-56,-1,-1,0
1523631004234,-917504,101,-56,-1,-1,0
1523631004234,-786432,101,-56,-1,-1,0
1523631004234,-720896,101,-56,-1,-1,0
1523631004234,-720896,101,-56,-1,-1,0
1523631004234,-720896,101,-56,-1,-1,0
1523631004274,-720896,101,-56,-1,-1,0
1523631004274,-589824,101,-56,-1,-1,0
1523631004274,-786432,101,-56,-1,-1,0
1523631004274,-1114112,101,-56,-1,-1,0
1523631004274,-1638400,101,-56,-1,-1,0
1523631004314,-1966080,102,-56,-1,-1,0
1523631004314,-2031616,102,-56,-1,-1,0
1523631004314,-1835008,102,-56,-1,-1,0
1523631004314,-1703936,102,-56,-1,-1,0
1523631004314,-1638400,102,-56,-1,-1,0
1523631004354,-1572864,102,-56,-1,-1,0
1523631004354,-1507328,102,-56,-1,-1,0
1523631004354,-1310720,102,-56,-1,-1,0
1523631004354,-1114112,102,-56,-1,-1,0
1523631004354,-1114112,102,-56,-1,-1,0
1523631004394,-1179648,102,-56,-1,-1,0
1523631004394,-1179648,102,-56,-1,-1,0
1523631004394,-1245184,102,-56,-1,-1,0
1523631004394,-1376256,102,-56,-1,-1,0
1523631004394,-1376256,102,-56,-1,-1,0
1523631004434,-1310720,102,-56,-1,-1,0
1523631004434,-1441792,102,-56,-1,-1,0
1523631004434,-1900544,102,-56,-1,-1,0
1523631004434,-1703936,102,-56,-1,-1,0
1523631004434,524288,102,-56,-1,-1,0
1523631004474,5439488,102,-56,-1,-1,0
1523631004474,11796480,102,-56,-1,-1,0
1523631004474,16318464,102,-56,-1,-1,0
1523631004474,14221312,102,-56,-1,-1,0
1523631004474,6488064,102,-56,-1,-1,0
1523631004514,-196608,102,-56,-1,-1,0
1523631004514,-2228224,102,-56,-1,-1,0
1523631004514,-2228224,102,-56,-1,-1,0
1523631004514,-2031616,102,-56,-1,-1,0
1523631004514,-1769472,102,-56,-1,-1,0
1523631004559,-1507328,102,-56,-1,-1,0
1523631004559,-1376256,102,-56,-1,-1,0
1523631004559,-1376256,102,-56,-1,-1,0
1523631004559,-1638400,102,-56,-1,-1,0
1523631004559,-1638400,102,-56,-1,-1,0
1523631004594,-1441792,102,-56,-1,-1,0
1523631004594,-1179648,102,-56,-1,-1,0
1523631004594,-1048576,102,-56,-1,-1,0
1523631004594,-983040,102,-56,-1,-1,0
1523631004594,-851968,102,-56,-1,-1,0
1523631004634,-327680,102,-56,-1,-1,0
1523631004634,458752,102,-56,-1,-1,0
1523631004634,1245184,102,-56,-1,-1,0
1523631004634,1769472,102,-56,-1,-1,0
1523631004634,2031616,102,-56,-1,-1,0
1523631004674,2097152,102,-56,-1,-1,0
1523631004674,1966080,102,-56,-1,-1,0
1523631004674,1507328,102,-56,-1,-1,0
1523631004674,917504,102,-56,-1,-1,0
1523631004674,393216,102,-56,-1,-1,0
1523631004714,65536,102,-56,-1,-1,0
1523631004714,-131072,102,-56,-1,-1,0
1523631004714,-262144,102,-56,-1,-1,0
1523631004714,-458752,102,-56,-1,-1,0
1523631004714,-786432,102,-56,-1,-1,0
1523631004754,-1179648,102,-56,-1,-1,0
1523631004754,-1310720,102,-56,-1,-1,0
1523631004754,-1114112,102,-56,-1,-1,0
1523631004754,-983040,102,-56,-1,-1,0
1523631004754,-917504,102,-56,-1,-1,0
1523631004794,-917504,102,-56,-1,-1,0
1523631004794,-786432,102,-56,-1,-1,0
1523631004794,-720896,102,-56,-1,-1,0
1523631004794,-851968,102,-56,-1,-1,0
1523631004794,-851968,102,-56,-1,-1,0
1523631004834,-851968,102,-56,-1,-1,0
1523631004834,-917504,102,-56,-1,-1,0
1523631004834,-1114112,102,-56,-1,-1,0
1523631004834,-1245184,102,-56,-1,-1,0
1523631004834,-1638400,102,-56,-1,-1,0
1523631004874,-1966080,103,-56,-1,-1,0
1523631004874,-1966080,103,-56,-1,-1,0
1523631004874,-1835008,103,-56,-1,-1,0
1523631004874,-1703936,103,-56,-1,-1,0
1523631004874,-1638400,103,-56,-1,-1,0
1523631004914,-1703936,103,-56,-1,-1,0
1523631004914,-1572864,103,-56,-1,-1,0
1523631004914,-1572864,103,-56,-1,-1,0
1523631004914,-1638400,103,-56,-1,-1,0
1523631004914,-1572864,103,-56,-1,-1,0
1523631004954,-1310720,103,-56,-1,-1,0
1523631004954,-1114112,103,-56,-1,-1,0
