milliseconds, ECG, ECG HR, PPG, PPG HR, SpO2, PI
0,2228224,66,-56,-1,-1,0
33,589824,66,-56,-1,-1,0
66,2097152,66,-56,-1,-1,0
100,1638400,66,-56,-1,-1,0
133,786432,66,-56,-1,-1,0
166,393216,66,-56,-1,-1,0
200,7733248,66,-56,-1,-1,0
233,917504,66,-56,-1,-1,0
266,1048576,66,-56,-1,-1,0
300,524288,66,-56,-1,-1,0
333,1376256,66,-56,-1,-1,0
366,2359296,66,-56,-1,-1,0
400,1900544,66,-56,-1,-1,0
433,1703936,66,-56,-1,-1,0
466,3735552,66,-56,-1,-1,0
500,-1048576,66,-56,-1,-1,0
533,-3342336,66,-56,-1,-1,0
566,-5308416,66,-56,-1,-1,0
600,-6946816,66,-56,-1,-1,0
633,-3538944,66,-56,-1,-1,0
666,-2752512,66,-56,-1,-1,0
700,-4128768,66,-56,-1,-1,0
733,-3145728,66,-56,-1,-1,0
766,-1048576,66,-56,-1,-1,0
800,589824,66,-56,-1,-1,0
833,3342336,66,-56,-1,-1,0
866,2752512,66,-56,-1,-1,0
900,1441792,66,-56,-1,-1,0
933,3014656,66,-56,-1,-1,0
966,-3080192,66,-56,-1,-1,0
1000,-589824,66,-56,-1,-1,0
1033,917504,68,-56,-1,-1,0
1066,851968,68,-56,-1,-1,0
1100,0,68,-56,-1,-1,0
1133,720896,68,-56,-1,-1,0
1166,262144,68,-56,-1,-1,0
1200,196608,68,-56,-1,-1,0
1233,-786432,68,-56,-1,-1,0
1266,-1114112,68,-56,-1,-1,0
1300,-1179648,68,-56,-1,-1,0
1333,-1048576,68,-56,-1,-1,0
1366,-983040,68,-56,-1,-1,0
1400,-851968,68,-56,-1,-1,0
1433,-327680,68,-56,-1,-1,0
1466,65536,68,-56,-1,-1,0
1500,1507328,68,-56,-1,-1,0
1533,131072,68,-56,-1,-1,0
1566,131072,68,-56,-1,-1,0
1600,131072,68,-56,-1,-1,0
1633,-65536,68,-56,-1,-1,0
1666,2359296,68,-56,-1,-1,0
1700,0,68,-56,-1,-1,0
1733,65536,68,-56,-1,-1,0
1766,327680,69,-56,-1,-1,0
1800,589824,69,-56,-1,-1,0
1833,1507328,69,-56,-1,-1,0
1866,1703936,69,-56,-1,-1,0
1900,65536,69,-56,-1,-1,0
1933,-458752,69,-56,-1,-1,0
1966,-589824,69,-56,-1,-1,0
2000,-458752,69,-56,-1,-1,0
2033,-393216,69,-56,-1,-1,0
2066,-458752,69,-56,-1,-1,0
2100,-655360,69,-56,-1,-1,0
2133,-655360,69,-56,-1,-1,0
2166,-524288,69,-56,-1,-1,0
2200,-655360,69,-56,-1,-1,0
2233,-458752,69,-56,-1,-1,0
2266,-65536,69,-56,-1,-1,0
2300,-196608,69,-56,-1,-1,0
2333,-262144,69,-56,-1,-1,0
2366,4259840,69,-56,-1,-1,0
2400,-720896,69,-56,-1,-1,0
2433,-65536,70,-56,-1,-1,0
2466,196608,70,-56,-1,-1,0
2500,786432,70,-56,-1,-1,0
2533,1638400,70,-56,-1,-1,0
2566,1835008,70,-56,-1,-1,0
2600,327680,70,-56,-1,-1,0
2633,-327680,70,-56,-1,-1,0
2666,-458752,70,-56,-1,-1,0
2700,-196608,70,-56,-1,-1,0
2733,-393216,70,-56,-1,-1,0
2766,-458752,70,-56,-1,-1,0
2800,-327680,70,-56,-1,-1,0
2833,-262144,70,-56,-1,-1,0
2866,-196608,70,-56,-1,-1,0
2900,65536,70,-56,-1,-1,0
2933,196608,70,-56,-1,-1,0
2966,-1179648,70,-56,-1,-1,0
3000,-2359296,70,-56,-1,-1,0
3033,-393216,70,-56,-1,-1,0
3066,-786432,70,-56,-1,-1,0
3100,-327680,72,-56,-1,-1,0
3133,-393216,72,-56,-1,-1,0
3166,262144,72,-56,-1,-1,0
3200,1376256,72,-56,-1,-1,0
3233,2162688,72,-56,-1,-1,0
3266,1376256,72,-56,-1,-1,0
3300,-393216,72,-56,-1,-1,0
3333,-655360,72,-56,-1,-1,0
3366,-524288,72,-56,-1,-1,0
3400,-1114112,72,-56,-1,-1,0
3433,-1048576,72,-56,-1,-1,0
3466,-1310720,72,-56,-1,-1,0
3500,-1376256,72,-56,-1,-1,0
3533,-917504,72,-56,-1,-1,0
3566,0,72,-56,-1,-1,0
3600,720896,72,-56,-1,-1,0
3633,393216,72,-56,-1,-1,0
3666,-262144,72,-56,-1,-1,0
3699,1114112,72,-56,-1,-1,0
3733,-2949120,72,-56,-1,-1,0
3766,65536,73,-56,-1,-1,0
3800,393216,73,-56,-1,-1,0
3833,851968,73,-56,-1,-1,0
3866,1310720,73,-56,-1,-1,0
3900,2228224,73,-56,-1,-1,0
3933,1179648,73,-56,-1,-1,0
3966,720896,73,-56,-1,-1,0
4000,983040,73,-56,-1,-1,0
4033,655360,73,-56,-1,-1,0
4066,458752,73,-56,-1,-1,0
4100,-327680,73,-56,-1,-1,0
4133,-1245184,73,-56,-1,-1,0
4166,-1245184,73,-56,-1,-1,0
4200,-655360,73,-56,-1,-1,0
4233,-131072,73,-56,-1,-1,0
4266,-1572864,73,-56,-1,-1,0
4300,-3932160,73,-56,-1,-1,0
4333,-4849664,73,-56,-1,-1,0
4366,-5767168,73,-56,-1,-1,0
4400,-2293760,73,-56,-1,-1,0
4433,-7012352,73,-56,-1,-1,0
4466,-6553600,73,-56,-1,-1,0
4500,-5177344,73,-56,-1,-1,0
4533,-3276800,73,-56,-1,-1,0
4566,-2883584,73,-56,-1,-1,0
4600,-458752,73,-56,-1,-1,0
4633,-5242880,73,-56,-1,-1,0
4666,-3538944,73,-56,-1,-1,0
4700,1376256,73,-56,-1,-1,0
4733,3145728,73,-56,-1,-1,0
4766,-720896,73,-56,-1,-1,0
4800,-5439488,73,-56,-1,-1,0
4833,-5898240,73,-56,-1,-1,0
4866,-3145728,73,-56,-1,-1,0
4900,-1703936,73,-56,-1,-1,0
4933,5767168,73,-56,-1,-1,0
4966,8519680,73,-56,-1,-1,0
5000,7077888,73,-56,-1,-1,0
5033,7536640,73,-56,-1,-1,0
5066,17235968,73,-56,-1,-1,0
5100,2949120,73,-56,-1,-1,0
5133,-2293760,73,-56,-1,-1,0
5166,-3473408,73,-56,-1,-1,0
5200,-4259840,73,-56,-1,-1,0
5233,-2097152,73,-56,-1,-1,0
5266,4259840,73,-56,-1,-1,0
5300,7405568,73,-56,-1,-1,0
5333,6881280,73,-56,-1,-1,0
5366,9175040,73,-56,-1,-1,0
5400,9699328,73,-56,-1,-1,0
5433,7602176,73,-56,-1,-1,0
5466,6619136,73,-56,-1,-1,0
5500,2097152,73,-56,-1,-1,0
5533,7471104,73,-56,-1,-1,0
5566,5439488,73,-56,-1,-1,0
5600,-3538944,73,-56,-1,-1,0
5633,851968,73,-56,-1,-1,0
5666,3080192,73,-56,-1,-1,0
5700,917504,73,-56,-1,-1,0
5733,2818048,73,-56,-1,-1,0
5766,7208960,73,-56,-1,-1,0
5800,-1507328,73,-56,-1,-1,0
5833,-393216,73,-56,-1,-1,0
5866,-1572864,73,-56,-1,-1,0
5900,-2818048,73,-56,-1,-1,0
5933,-917504,73,-56,-1,-1,0
5966,589824,73,-56,-1,-1,0
6000,-3014656,73,-56,-1,-1,0
6033,-4390912,73,-56,-1,-1,0
6066,-6422528,73,-56,-1,-1,0
6100,-7405568,73,-56,-1,-1,0
6133,-8388608,73,-56,-1,-1,0
6166,-4653056,73,-56,-1,-1,0
6200,-4390912,73,-56,-1,-1,0
6233,-2686976,73,-56,-1,-1,0
6266,-3342336,73,-56,-1,-1,0
6300,-4587520,73,-56,-1,-1,0
6333,-2162688,73,-56,-1,-1,0
6366,-2818048,73,-56,-1,-1,0
6400,-3342336,73,-56,-1,-1,0
6433,-131072,73,-56,-1,-1,0
6466,-3145728,73,-56,-1,-1,0
6500,-327680,73,-56,-1,-1,0
6533,-1114112,73,-56,-1,-1,0
6566,1179648,73,-56,-1,-1,0
6600,1507328,73,-56,-1,-1,0
6633,2162688,73,-56,-1,-1,0
6666,917504,73,-56,-1,-1,0
6700,-3735552,73,-56,-1,-1,0
6733,-1048576,73,-56,-1,-1,0
6766,-851968,73,-56,-1,-1,0
6800,327680,73,-56,-1,-1,0
6833,655360,73,-56,-1,-1,0
6866,-983040,73,-56,-1,-1,0
6899,917504,73,-56,-1,-1,0
6933,-524288,73,-56,-1,-1,0
6966,-720896,73,-56,-1,-1,0
7000,196608,73,-56,-1,-1,0
7033,-589824,73,-56,-1,-1,0
7066,65536,73,-56,-1,-1,0
7100,-262144,73,-56,-1,-1,0
7133,-65536,73,-56,-1,-1,0
7166,3866624,73,-56,-1,-1,0
7200,-3342336,73,-56,-1,-1,0
7233,2031616,73,-56,-1,-1,0
7266,3670016,73,-56,-1,-1,0
7300,3211264,73,-56,-1,-1,0
7333,4587520,73,-56,-1,-1,0
7366,4456448,73,-56,-1,-1,0
7399,2031616,73,-56,-1,-1,0
7433,1179648,73,-56,-1,-1,0
7466,-131072,73,-56,-1,-1,0
7500,-131072,73,-56,-1,-1,0
7533,1179648,73,-56,-1,-1,0
7566,-2555904,73,-56,-1,-1,0
7600,-2621440,73,-56,-1,-1,0
7633,-2949120,73,-56,-1,-1,0
7666,-1572864,73,-56,-1,-1,0
7700,-262144,73,-56,-1,-1,0
7733,-524288,73,-56,-1,-1,0
7766,-1114112,73,-56,-1,-1,0
7800,-983040,73,-56,-1,-1,0
7833,-1769472,73,-56,-1,-1,0
7866,1900544,73,-56,-1,-1,0
7899,-1835008,73,-56,-1,-1,0
7933,2818048,73,-56,-1,-1,0
7966,-1638400,73,-56,-1,-1,0
8000,-851968,73,-56,-1,-1,0
8033,-917504,73,-56,-1,-1,0
8066,-458752,73,-56,-1,-1,0
8100,65536,73,-56,-1,-1,0
8133,1114112,73,-56,-1,-1,0
8166,-917504,73,-56,-1,-1,0
8200,917504,73,-56,-1,-1,0
8233,65536,73,-56,-1,-1,0
8266,196608,73,-56,-1,-1,0
8300,-327680,73,-56,-1,-1,0
8333,-262144,73,-56,-1,-1,0
8366,-1048576,73,-56,-1,-1,0
8400,-1310720,73,-56,-1,-1,0
8433,-1310720,73,-56,-1,-1,0
8466,-851968,73,-56,-1,-1,0
8500,-720896,73,-56,-1,-1,0
8533,-327680,73,-56,-1,-1,0
8566,1835008,73,-56,-1,-1,0
8600,-524288,73,-56,-1,-1,0
8633,-1703936,73,-56,-1,-1,0
8666,4259840,73,-56,-1,-1,0
8700,1245184,73,-56,-1,-1,0
8733,1703936,73,-56,-1,-1,0
8766,1966080,72,-56,-1,-1,0
8800,4980736,72,-56,-1,-1,0
8833,2293760,72,-56,-1,-1,0
8866,196608,72,-56,-1,-1,0
8900,-1245184,72,-56,-1,-1,0
8933,-1376256,72,-56,-1,-1,0
8966,1638400,72,-56,-1,-1,0
9000,1310720,72,-56,-1,-1,0
9033,1179648,72,-56,-1,-1,0
9066,327680,72,-56,-1,-1,0
9100,0,72,-56,-1,-1,0
9133,2359296,72,-56,-1,-1,0
9166,589824,72,-56,-1,-1,0
9200,-851968,72,-56,-1,-1,0
9233,-65536,72,-56,-1,-1,0
9266,-196608,72,-56,-1,-1,0
9300,-458752,72,-56,-1,-1,0
9333,-1638400,72,-56,-1,-1,0
9366,-2949120,72,-56,-1,-1,0
9400,4063232,72,-56,-1,-1,0
9433,-1703936,72,-56,-1,-1,0
9466,-589824,72,-56,-1,-1,0
9500,262144,72,-56,-1,-1,0
9533,393216,72,-56,-1,-1,0
9566,0,71,-56,-1,-1,0
9600,131072,71,-56,-1,-1,0
9633,-720896,71,-56,-1,-1,0
9666,-393216,71,-56,-1,-1,0
9700,-196608,71,-56,-1,-1,0
9733,-1048576,71,-56,-1,-1,0
9766,-1703936,71,-56,-1,-1,0
9800,-2424832,71,-56,-1,-1,0
9833,-1638400,71,-56,-1,-1,0
9866,-65536,71,-56,-1,-1,0
9900,262144,71,-56,-1,-1,0
9933,524288,71,-56,-1,-1,0
9966,262144,71,-56,-1,-1,0
10000,720896,71,-56,-1,-1,0
10033,262144,71,-56,-1,-1,0
10066,655360,71,-56,-1,-1,0
10100,-1179648,71,-56,-1,-1,0
10133,-65536,71,-56,-1,-1,0
10166,5701632,71,-56,-1,-1,0
10200,-983040,71,-56,-1,-1,0
10233,-1114112,71,-56,-1,-1,0
10266,-327680,71,-56,-1,-1,0
10300,0,71,-56,-1,-1,0
10333,983040,71,-56,-1,-1,0
10366,2293760,71,-56,-1,-1,0
10400,262144,71,-56,-1,-1,0
10433,-524288,71,-56,-1,-1,0
10466,-1179648,71,-56,-1,-1,0
10500,-524288,71,-56,-1,-1,0
10533,-196608,71,-56,-1,-1,0
10566,-393216,71,-56,-1,-1,0
10600,-655360,71,-56,-1,-1,0
10633,262144,71,-56,-1,-1,0
10666,-917504,71,-56,-1,-1,0
10700,-1310720,71,-56,-1,-1,0
10733,-786432,71,-56,-1,-1,0
10766,-786432,71,-56,-1,-1,0
10800,-262144,71,-56,-1,-1,0
10833,131072,71,-56,-1,-1,0
10866,1376256,71,-56,-1,-1,0
10900,65536,71,-56,-1,-1,0
10933,851968,71,-56,-1,-1,0
10966,1245184,71,-56,-1,-1,0
11000,1048576,70,-56,-1,-1,0
11033,0,70,-56,-1,-1,0
11066,2097152,70,-56,-1,-1,0
11100,1441792,70,-56,-1,-1,0
11133,196608,70,-56,-1,-1,0
11166,2752512,70,-56,-1,-1,0
11200,-327680,70,-56,-1,-1,0
11233,-1245184,70,-56,-1,-1,0
11266,-1114112,70,-56,-1,-1,0
11300,-2686976,70,-56,-1,-1,0
11333,-3997696,70,-56,-1,-1,0
11366,-3866624,70,-56,-1,-1,0
11400,-2293760,70,-56,-1,-1,0
11433,0,70,-56,-1,-1,0
11466,-851968,70,-56,-1,-1,0
11500,655360,70,-56,-1,-1,0
11533,786432,70,-56,-1,-1,0
11566,393216,70,-56,-1,-1,0
11600,917504,70,-56,-1,-1,0
11633,5505024,70,-56,-1,-1,0
11666,2031616,70,-56,-1,-1,0
11700,3604480,70,-56,-1,-1,0
11733,4718592,70,-56,-1,-1,0
11766,4390912,69,-56,-1,-1,0
11800,4784128,69,-56,-1,-1,0
11833,3014656,69,-56,-1,-1,0
11866,1376256,69,-56,-1,-1,0
11900,-589824,69,-56,-1,-1,0
11933,-4653056,69,-56,-1,-1,0
11966,-4849664,69,-56,-1,-1,0
12000,-4128768,69,-56,-1,-1,0
12033,-4456448,69,-56,-1,-1,0
12066,-5308416,69,-56,-1,-1,0
12100,-4259840,69,-56,-1,-1,0
12133,-3670016,69,-56,-1,-1,0
12166,-3801088,69,-56,-1,-1,0
12200,-2621440,69,-56,-1,-1,0
12233,-1638400,69,-56,-1,-1,0
12266,-1048576,69,-56,-1,-1,0
12300,-262144,69,-56,-1,-1,0
12333,720896,69,-56,-1,-1,0
12366,6750208,69,-56,-1,-1,0
12400,-458752,69,-56,-1,-1,0
12433,1703936,69,-56,-1,-1,0
12466,2097152,69,-56,-1,-1,0
12500,3538944,68,-56,-1,-1,0
12533,3145728,68,-56,-1,-1,0
12566,2949120,68,-56,-1,-1,0
12600,-655360,68,-56,-1,-1,0
12633,-2293760,68,-56,-1,-1,0
12666,327680,68,-56,-1,-1,0
12700,-655360,68,-56,-1,-1,0
12733,3670016,68,-56,-1,-1,0
12766,2293760,68,-56,-1,-1,0
12800,0,68,-56,-1,-1,0
12833,-2097152,68,-56,-1,-1,0
12866,-1769472,68,-56,-1,-1,0
12900,1179648,68,-56,-1,-1,0
12933,786432,68,-56,-1,-1,0
12966,-65536,68,-56,-1,-1,0
13000,0,68,-56,-1,-1,0
13033,1048576,68,-56,-1,-1,0
13066,655360,68,-56,-1,-1,0
13100,5373952,68,-56,-1,-1,0
13133,-1835008,68,-56,-1,-1,0
13166,65536,68,-56,-1,-1,0
13200,262144,68,-56,-1,-1,0
13233,262144,68,-56,-1,-1,0
13266,1441792,68,-56,-1,-1,0
13299,3276800,68,-56,-1,-1,0
13333,-65536,68,-56,-1,-1,0
13366,-1703936,68,-56,-1,-1,0
13400,-1638400,68,-56,-1,-1,0
13433,-786432,68,-56,-1,-1,0
13466,-851968,68,-56,-1,-1,0
13500,-851968,68,-56,-1,-1,0
13533,-983040,68,-56,-1,-1,0
13566,-786432,68,-56,-1,-1,0
13600,-786432,68,-56,-1,-1,0
13633,-524288,68,-56,-1,-1,0
13666,-1507328,68,-56,-1,-1,0
13700,-2949120,68,-56,-1,-1,0
13733,-1114112,68,-56,-1,-1,0
13766,-851968,68,-56,-1,-1,0
13799,-1900544,68,-56,-1,-1,0
13833,4390912,68,-56,-1,-1,0
13866,-1835008,68,-56,-1,-1,0
13900,-1245184,68,-56,-1,-1,0
13933,458752,68,-56,-1,-1,0
13966,3014656,68,-56,-1,-1,0
14000,4849664,68,-56,-1,-1,0
14033,4718592,68,-56,-1,-1,0
14066,1310720,68,-56,-1,-1,0
14100,0,68,-56,-1,-1,0
14133,-458752,68,-56,-1,-1,0
14166,-786432,68,-56,-1,-1,0
14200,-1179648,68,-56,-1,-1,0
14233,-1441792,68,-56,-1,-1,0
14266,-1638400,68,-56,-1,-1,0
14299,-1769472,68,-56,-1,-1,0
14333,-2031616,68,-56,-1,-1,0
14366,-2097152,68,-56,-1,-1,0
14400,-1114112,68,-56,-1,-1,0
14433,-2031616,68,-56,-1,-1,0
14466,-1245184,68,-56,-1,-1,0
14500,-1572864,68,-56,-1,-1,0
14533,-983040,68,-56,-1,-1,0
14566,7995392,68,-56,-1,-1,0
14600,2883584,68,-56,-1,-1,0
14633,3670016,68,-56,-1,-1,0
14666,4259840,68,-56,-1,-1,0
14700,3670016,68,-56,-1,-1,0
14733,3538944,68,-56,-1,-1,0
14766,2949120,68,-56,-1,-1,0
14799,-720896,68,-56,-1,-1,0
14833,-1638400,68,-56,-1,-1,0
14866,-1441792,68,-56,-1,-1,0
14900,-720896,68,-56,-1,-1,0
14933,-327680,68,-56,-1,-1,0
14966,0,68,-56,-1,-1,0
15000,131072,68,-56,-1,-1,0
15033,0,68,-56,-1,-1,0
15066,-655360,68,-56,-1,-1,0
15100,-1048576,68,-56,-1,-1,0
15133,-458752,68,-56,-1,-1,0
15166,-720896,68,-56,-1,-1,0
15200,-1048576,68,-56,-1,-1,0
15233,4456448,68,-56,-1,-1,0
15266,-983040,68,-56,-1,-1,0
15299,720896,68,-56,-1,-1,0
15333,1572864,68,-56,-1,-1,0
15366,1048576,68,-56,-1,-1,0
15400,1048576,68,-56,-1,-1,0
15433,2031616,68,-56,-1,-1,0
15466,-196608,68,-56,-1,-1,0
15500,-3276800,68,-56,-1,-1,0
15533,-3997696,68,-56,-1,-1,0
15566,-3670016,68,-56,-1,-1,0
15600,-3342336,68,-56,-1,-1,0
15633,-2424832,68,-56,-1,-1,0
15666,-1310720,68,-56,-1,-1,0
15700,-393216,68,-56,-1,-1,0
15733,-1048576,68,-56,-1,-1,0
15766,-2293760,68,-56,-1,-1,0
15799,-2490368,68,-56,-1,-1,0
15833,-2424832,68,-56,-1,-1,0
15866,-786432,68,-56,-1,-1,0
15900,851968,68,-56,-1,-1,0
15933,4063232,68,-56,-1,-1,0
15966,3932160,68,-56,-1,-1,0
16000,4259840,68,-56,-1,-1,0
16033,4390912,68,-56,-1,-1,0
16066,4915200,68,-56,-1,-1,0
16100,5177344,68,-56,-1,-1,0
16133,3735552,68,-56,-1,-1,0
16166,-524288,68,-56,-1,-1,0
16200,-1179648,68,-56,-1,-1,0
16233,-1703936,68,-56,-1,-1,0
16266,-2293760,68,-56,-1,-1,0
16300,-1638400,68,-56,-1,-1,0
16333,-393216,68,-56,-1,-1,0
16366,-786432,68,-56,-1,-1,0
16400,-65536,68,-56,-1,-1,0
16433,-131072,68,-56,-1,-1,0
16466,-1179648,68,-56,-1,-1,0
16500,-196608,68,-56,-1,-1,0
16533,458752,68,-56,-1,-1,0
16566,1179648,68,-56,-1,-1,0
16600,9633792,68,-56,-1,-1,0
16633,5832704,68,-56,-1,-1,0
16666,-393216,68,-56,-1,-1,0
16700,-2686976,68,-56,-1,-1,0
16733,-2555904,68,-56,-1,-1,0
16766,-327680,68,-56,-1,-1,0
16800,-458752,68,-56,-1,-1,0
16833,-4456448,68,-56,-1,-1,0
16866,-1048576,68,-56,-1,-1,0
16900,262144,68,-56,-1,-1,0
16933,1900544,68,-56,-1,-1,0
16966,2490368,68,-56,-1,-1,0
17000,3080192,68,-56,-1,-1,0
17033,3276800,68,-56,-1,-1,0
17066,4653056,68,-56,-1,-1,0
17100,851968,68,-56,-1,-1,0
17133,-1245184,68,-56,-1,-1,0
17166,-3145728,68,-56,-1,-1,0
17200,-2228224,68,-56,-1,-1,0
17233,-2621440,68,-56,-1,-1,0
17266,-3342336,68,-56,-1,-1,0
17300,2097152,68,-56,-1,-1,0
17333,-4259840,69,-56,-1,-1,0
17366,-5439488,69,-56,-1,-1,0
17400,-5177344,69,-56,-1,-1,0
17433,-5111808,69,-56,-1,-1,0
17466,-4063232,69,-56,-1,-1,0
17500,-5570560,69,-56,-1,-1,0
17533,-3670016,69,-56,-1,-1,0
17566,-3014656,69,-56,-1,-1,0
17600,-3211264,69,-56,-1,-1,0
17633,-1179648,69,-56,-1,-1,0
17666,1703936,69,-56,-1,-1,0
17700,1769472,69,-56,-1,-1,0
17733,2097152,69,-56,-1,-1,0
17766,4915200,69,-56,-1,-1,0
17800,4128768,69,-56,-1,-1,0
17833,3735552,69,-56,-1,-1,0
17866,5308416,69,-56,-1,-1,0
17900,4915200,69,-56,-1,-1,0
17933,3735552,69,-56,-1,-1,0
17966,2818048,69,-56,-1,-1,0
18000,-589824,69,-56,-1,-1,0
18033,-524288,70,-56,-1,-1,0
18066,-589824,70,-56,-1,-1,0
18100,-2162688,70,-56,-1,-1,0
18133,-1179648,70,-56,-1,-1,0
18166,1835008,70,-56,-1,-1,0
18200,-196608,70,-56,-1,-1,0
18233,1900544,70,-56,-1,-1,0
18266,327680,70,-56,-1,-1,0
18300,-589824,70,-56,-1,-1,0
18333,-655360,70,-56,-1,-1,0
18366,-6356992,70,-56,-1,-1,0
18400,-3342336,70,-56,-1,-1,0
18433,-786432,70,-56,-1,-1,0
18466,-131072,70,-56,-1,-1,0
18500,655360,70,-56,-1,-1,0
18533,327680,70,-56,-1,-1,0
18566,-327680,70,-56,-1,-1,0
18600,-1376256,70,-56,-1,-1,0
18633,5505024,70,-56,-1,-1,0
18666,-1507328,70,-56,-1,-1,0
18700,2097152,71,-56,-1,-1,0
18733,2686976,71,-56,-1,-1,0
18766,2424832,71,-56,-1,-1,0
18800,3604480,71,-56,-1,-1,0
18833,2686976,71,-56,-1,-1,0
18866,-917504,71,-56,-1,-1,0
18900,-3407872,71,-56,-1,-1,0
18933,-1966080,71,-56,-1,-1,0
18966,-1507328,71,-56,-1,-1,0
19000,-2162688,71,-56,-1,-1,0
19033,131072,71,-56,-1,-1,0
19066,-1572864,71,-56,-1,-1,0
19100,-1048576,71,-56,-1,-1,0
19133,-458752,71,-56,-1,-1,0
19166,-131072,71,-56,-1,-1,0
19200,-393216,71,-56,-1,-1,0
19233,131072,71,-56,-1,-1,0
19266,983040,71,-56,-1,-1,0
19300,3735552,71,-56,-1,-1,0
19333,-983040,71,-56,-1,-1,0
19366,327680,72,-56,-1,-1,0
19400,458752,72,-56,-1,-1,0
19433,131072,72,-56,-1,-1,0
19466,524288,72,-56,-1,-1,0
19500,1441792,72,-56,-1,-1,0
19533,851968,72,-56,-1,-1,0
19566,-393216,72,-56,-1,-1,0
19600,-65536,72,-56,-1,-1,0
19633,-131072,72,-56,-1,-1,0
19666,-262144,72,-56,-1,-1,0
19700,0,72,-56,-1,-1,0
19733,786432,72,-56,-1,-1,0
19766,393216,72,-56,-1,-1,0
19800,0,72,-56,-1,-1,0
19833,-393216,72,-56,-1,-1,0
19866,-393216,72,-56,-1,-1,0
19900,-524288,72,-56,-1,-1,0
19933,-327680,72,-56,-1,-1,0
19966,0,72,-56,-1,-1,0
20000,-1835008,72,-56,-1,-1,0
20033,-1245184,72,-56,-1,-1,0
20066,-851968,72,-56,-1,-1,0
20100,-1703936,72,-56,-1,-1,0
20133,589824,72,-56,-1,-1,0
20166,2555904,72,-56,-1,-1,0
20200,1048576,72,-56,-1,-1,0
20233,-2293760,72,-56,-1,-1,0
20266,-2490368,72,-56,-1,-1,0
20300,-1114112,72,-56,-1,-1,0
20333,458752,72,-56,-1,-1,0
20366,524288,72,-56,-1,-1,0
20400,-196608,72,-56,-1,-1,0
20433,-393216,72,-56,-1,-1,0
20466,-720896,72,-56,-1,-1,0
20500,-851968,72,-56,-1,-1,0
20533,-851968,72,-56,-1,-1,0
20566,-393216,72,-56,-1,-1,0
20600,458752,72,-56,-1,-1,0
20633,-1245184,72,-56,-1,-1,0
20666,-851968,73,-56,-1,-1,0
20700,-720896,73,-56,-1,-1,0
20733,-1048576,73,-56,-1,-1,0
20766,393216,73,-56,-1,-1,0
20800,1835008,73,-56,-1,-1,0
20833,786432,73,-56,-1,-1,0
20866,-917504,73,-56,-1,-1,0
20900,-1376256,73,-56,-1,-1,0
20933,-1376256,73,-56,-1,-1,0
20966,-1376256,73,-56,-1,-1,0
21000,-1310720,73,-56,-1,-1,0
21033,-917504,73,-56,-1,-1,0
21066,-1048576,73,-56,-1,-1,0
21100,-524288,73,-56,-1,-1,0
21133,0,73,-56,-1,-1,0
21166,1179648,73,-56,-1,-1,0
21200,2031616,73,-56,-1,-1,0
21233,1835008,73,-56,-1,-1,0
21266,3211264,73,-56,-1,-1,0
21300,2621440,73,-56,-1,-1,0
21333,2686976,73,-56,-1,-1,0
21366,786432,73,-56,-1,-1,0
21400,458752,73,-56,-1,-1,0
21433,1114112,73,-56,-1,-1,0
21466,1966080,73,-56,-1,-1,0
21500,1048576,73,-56,-1,-1,0
21533,-1507328,73,-56,-1,-1,0
21566,-2359296,73,-56,-1,-1,0
21600,-1900544,73,-56,-1,-1,0
21633,-1179648,73,-56,-1,-1,0
21666,-393216,73,-56,-1,-1,0
21700,196608,73,-56,-1,-1,0
21733,65536,73,-56,-1,-1,0
21766,262144,73,-56,-1,-1,0
21800,-589824,73,-56,-1,-1,0
21833,-1376256,73,-56,-1,-1,0
21866,-2424832,73,-56,-1,-1,0
21900,-2293760,73,-56,-1,-1,0
21933,-3014656,73,-56,-1,-1,0
21966,-786432,73,-56,-1,-1,0
22000,-1048576,73,-56,-1,-1,0
22033,-589824,73,-56,-1,-1,0
22066,-851968,73,-56,-1,-1,0
22100,917504,73,-56,-1,-1,0
22133,4325376,73,-56,-1,-1,0
22166,5963776,73,-56,-1,-1,0
22200,4325376,73,-56,-1,-1,0
22233,3080192,73,-56,-1,-1,0
22266,3473408,73,-56,-1,-1,0
22300,1769472,73,-56,-1,-1,0
22333,-2555904,73,-56,-1,-1,0
22366,-3080192,73,-56,-1,-1,0
22400,-3407872,73,-56,-1,-1,0
22433,-3670016,73,-56,-1,-1,0
22466,-3538944,73,-56,-1,-1,0
22500,-3997696,73,-56,-1,-1,0
22533,-3604480,73,-56,-1,-1,0
22566,-2424832,73,-56,-1,-1,0
22600,-1048576,73,-56,-1,-1,0
22633,-589824,73,-56,-1,-1,0
22666,196608,73,-56,-1,-1,0
22700,9371648,73,-56,-1,-1,0
22733,3342336,73,-56,-1,-1,0
22766,3276800,73,-56,-1,-1,0
22800,-1114112,73,-56,-1,-1,0
22833,131072,73,-56,-1,-1,0
22866,983040,73,-56,-1,-1,0
22900,1507328,73,-56,-1,-1,0
22933,-393216,73,-56,-1,-1,0
22966,-1638400,73,-56,-1,-1,0
23000,-917504,73,-56,-1,-1,0
23033,-524288,73,-56,-1,-1,0
23066,-589824,73,-56,-1,-1,0
23100,-1048576,73,-56,-1,-1,0
23133,-983040,73,-56,-1,-1,0
23166,-1638400,73,-56,-1,-1,0
23200,-1769472,73,-56,-1,-1,0
23233,-3014656,73,-56,-1,-1,0
23266,-1638400,73,-56,-1,-1,0
23300,-589824,73,-56,-1,-1,0
23333,-720896,73,-56,-1,-1,0
23366,-65536,73,-56,-1,-1,0
23400,1835008,73,-56,-1,-1,0
23433,-2097152,73,-56,-1,-1,0
23466,-65536,73,-56,-1,-1,0
23500,655360,73,-56,-1,-1,0
23533,2162688,73,-56,-1,-1,0
23566,2424832,73,-56,-1,-1,0
23600,3342336,73,-56,-1,-1,0
23633,1835008,73,-56,-1,-1,0
23666,327680,73,-56,-1,-1,0
23700,131072,73,-56,-1,-1,0
23733,65536,73,-56,-1,-1,0
23766,393216,73,-56,-1,-1,0
23800,393216,73,-56,-1,-1,0
23833,786432,73,-56,-1,-1,0
23866,983040,73,-56,-1,-1,0
23900,393216,73,-56,-1,-1,0
23933,327680,73,-56,-1,-1,0
23966,0,73,-56,-1,-1,0
24000,0,73,-56,-1,-1,0
24033,196608,73,-56,-1,-1,0
24066,-65536,73,-56,-1,-1,0
24100,2490368,73,-56,-1,-1,0
24133,-524288,73,-56,-1,-1,0
24166,720896,73,-56,-1,-1,0
24200,1441792,73,-56,-1,-1,0
24233,2031616,73,-56,-1,-1,0
24266,1245184,73,-56,-1,-1,0
24300,1179648,73,-56,-1,-1,0
24333,-65536,73,-56,-1,-1,0
24366,-1572864,73,-56,-1,-1,0
24400,-1900544,73,-56,-1,-1,0
24433,-2097152,73,-56,-1,-1,0
24466,-1966080,73,-56,-1,-1,0
24500,-1769472,73,-56,-1,-1,0
24533,-1638400,73,-56,-1,-1,0
24566,-1507328,73,-56,-1,-1,0
24600,-1703936,73,-56,-1,-1,0
24633,-1245184,73,-56,-1,-1,0
24666,-1507328,73,-56,-1,-1,0
24700,-983040,73,-56,-1,-1,0
24733,-1048576,73,-56,-1,-1,0
24766,-1245184,73,-56,-1,-1,0
24800,1245184,73,-56,-1,-1,0
24833,-2686976,73,-56,-1,-1,0
24866,-1638400,73,-56,-1,-1,0
24900,-917504,72,-56,-1,-1,0
24933,-458752,72,-56,-1,-1,0
24966,-196608,72,-56,-1,-1,0
25000,327680,72,-56,-1,-1,0
25033,-458752,72,-56,-1,-1,0
25066,-1572864,72,-56,-1,-1,0
25100,-1572864,72,-56,-1,-1,0
25133,-1310720,72,-56,-1,-1,0
25166,-131072,72,-56,-1,-1,0
25200,2490368,72,-56,-1,-1,0
25233,2424832,72,-56,-1,-1,0
25266,524288,72,-56,-1,-1,0
25300,-983040,72,-56,-1,-1,0
25333,-1114112,72,-56,-1,-1,0
25366,-1245184,72,-56,-1,-1,0
25400,-1966080,72,-56,-1,-1,0
25433,-2818048,72,-56,-1,-1,0
25466,-3407872,72,-56,-1,-1,0
25500,-2424832,72,-56,-1,-1,0
25533,-1572864,72,-56,-1,-1,0
25566,-1179648,72,-56,-1,-1,0
25600,720896,72,-56,-1,-1,0
25633,1048576,72,-56,-1,-1,0
25666,2555904,72,-56,-1,-1,0
25700,3407872,72,-56,-1,-1,0
25733,1966080,72,-56,-1,-1,0
25766,0,72,-56,-1,-1,0
25800,-983040,72,-56,-1,-1,0
25833,-1310720,72,-56,-1,-1,0
25866,-458752,72,-56,-1,-1,0
25900,2359296,72,-56,-1,-1,0
25933,5308416,72,-56,-1,-1,0
25966,6488064,72,-56,-1,-1,0
26000,7405568,72,-56,-1,-1,0
26033,6881280,72,-56,-1,-1,0
26066,4653056,72,-56,-1,-1,0
26099,2883584,72,-56,-1,-1,0
26133,-3866624,72,-56,-1,-1,0
26166,-8388608,72,-56,-1,-1,0
26200,-5505024,72,-56,-1,-1,0
26233,-3473408,72,-56,-1,-1,0
26266,-2883584,72,-56,-1,-1,0
26300,-655360,72,-56,-1,-1,0
26333,589824,72,-56,-1,-1,0
26366,1900544,72,-56,-1,-1,0
26400,1245184,72,-56,-1,-1,0
26433,-2162688,72,-56,-1,-1,0
26466,-2555904,72,-56,-1,-1,0
26500,-3407872,72,-56,-1,-1,0
26533,-2686976,72,-56,-1,-1,0
26566,-1703936,72,-56,-1,-1,0
26599,-655360,72,-56,-1,-1,0
26633,196608,72,-56,-1,-1,0
26666,196608,72,-56,-1,-1,0
26700,196608,72,-56,-1,-1,0
26733,-262144,72,-56,-1,-1,0
26766,-1048576,72,-56,-1,-1,0
26800,-1179648,72,-56,-1,-1,0
26833,851968,72,-56,-1,-1,0
26866,1310720,72,-56,-1,-1,0
26900,786432,72,-56,-1,-1,0
26933,327680,72,-56,-1,-1,0
26966,786432,72,-56,-1,-1,0
27000,1703936,72,-56,-1,-1,0
27033,65536,72,-56,-1,-1,0
27066,-2162688,72,-56,-1,-1,0
27099,-1835008,72,-56,-1,-1,0
27133,-1769472,72,-56,-1,-1,0
27166,-983040,72,-56,-1,-1,0
27200,327680,72,-56,-1,-1,0
27233,1179648,72,-56,-1,-1,0
27266,1376256,72,-56,-1,-1,0
27300,1179648,72,-56,-1,-1,0
27333,327680,72,-56,-1,-1,0
27366,-262144,72,-56,-1,-1,0
27400,983040,72,-56,-1,-1,0
27433,-1900544,72,-56,-1,-1,0
27466,-262144,72,-56,-1,-1,0
27500,131072,72,-56,-1,-1,0
27533,393216,72,-56,-1,-1,0
27566,1114112,72,-56,-1,-1,0
27599,1638400,72,-56,-1,-1,0
27633,393216,72,-56,-1,-1,0
27666,-851968,72,-56,-1,-1,0
27700,-983040,72,-56,-1,-1,0
27733,-655360,72,-56,-1,-1,0
27766,-262144,72,-56,-1,-1,0
27800,-393216,72,-56,-1,-1,0
27833,-589824,72,-56,-1,-1,0
27866,-720896,72,-56,-1,-1,0
27900,-983040,72,-56,-1,-1,0
27933,-1245184,72,-56,-1,-1,0
27966,-1441792,72,-56,-1,-1,0
28000,1966080,73,-56,-1,-1,0
28033,-1769472,73,-56,-1,-1,0
28066,-589824,73,-56,-1,-1,0
28099,-524288,73,-56,-1,-1,0
28133,589824,73,-56,-1,-1,0
28166,2293760,73,-56,-1,-1,0
28200,720896,73,-56,-1,-1,0
28233,-327680,73,-56,-1,-1,0
28266,-393216,73,-56,-1,-1,0
28300,0,73,-56,-1,-1,0
28333,-458752,73,-56,-1,-1,0
28366,-327680,73,-56,-1,-1,0
28400,-393216,73,-56,-1,-1,0
28433,0,73,-56,-1,-1,0
28466,327680,73,-56,-1,-1,0
28500,786432,73,-56,-1,-1,0
28533,720896,73,-56,-1,-1,0
28566,0,73,-56,-1,-1,0
28599,4653056,73,-56,-1,-1,0
28633,-1572864,73,-56,-1,-1,0
28666,-327680,73,-56,-1,-1,0
28700,0,73,-56,-1,-1,0
28733,0,73,-56,-1,-1,0
28766,196608,73,-56,-1,-1,0
28800,589824,73,-56,-1,-1,0
28833,-65536,73,-56,-1,-1,0
28866,0,73,-56,-1,-1,0
28900,-262144,73,-56,-1,-1,0
28933,-917504,73,-56,-1,-1,0
28966,-655360,73,-56,-1,-1,0
29000,-655360,73,-56,-1,-1,0
29033,-655360,73,-56,-1,-1,0
29066,-262144,73,-56,-1,-1,0
29099,-196608,73,-56,-1,-1,0
29133,0,73,-56,-1,-1,0
29166,196608,73,-56,-1,-1,0
29200,5177344,73,-56,-1,-1,0
29233,-1376256,73,-56,-1,-1,0
29266,327680,73,-56,-1,-1,0
29300,458752,73,-56,-1,-1,0
29333,851968,73,-56,-1,-1,0
29366,1310720,73,-56,-1,-1,0
29400,1572864,73,-56,-1,-1,0
29433,720896,73,-56,-1,-1,0
29466,-196608,73,-56,-1,-1,0
29500,-458752,73,-56,-1,-1,0
29533,-786432,73,-56,-1,-1,0
29566,-655360,73,-56,-1,-1,0
29599,-458752,73,-56,-1,-1,0
29633,-131072,73,-56,-1,-1,0
29666,-786432,73,-56,-1,-1,0
29700,-2490368,73,-56,-1,-1,0
29733,-3801088,73,-56,-1,-1,0
29766,-1769472,73,-56,-1,-1,0
29800,3866624,75,-56,-1,-1,0
29833,-1703936,75,-56,-1,-1,0
29866,196608,75,-56,-1,-1,0
29900,196608,75,-56,-1,-1,0
29933,327680,75,-56,-1,-1,0
29966,983040,75,-56,-1,-1,0
30000,1441792,75,-56,-1,-1,0
30033,1048576,75,-56,-1,-1,0
30066,65536,75,-56,-1,-1,0
30099,0,75,-56,-1,-1,0
30133,196608,75,-56,-1,-1,0
30166,-131072,75,-56,-1,-1,0
30200,589824,75,-56,-1,-1,0
30233,131072,75,-56,-1,-1,0
30266,262144,75,-56,-1,-1,0
30300,-65536,75,-56,-1,-1,0
30333,0,75,-56,-1,-1,0
30366,0,75,-56,-1,-1,0
30400,524288,78,-56,-1,-1,0
30433,917504,78,-56,-1,-1,0
30466,0,78,-56,-1,-1,0
30500,327680,78,-56,-1,-1,0
30533,524288,78,-56,-1,-1,0
30566,851968,78,-56,-1,-1,0
30599,458752,78,-56,-1,-1,0
30633,-851968,78,-56,-1,-1,0
30666,-1769472,78,-56,-1,-1,0
30700,-2424832,78,-56,-1,-1,0
30733,-3342336,78,-56,-1,-1,0
30766,-3866624,78,-56,-1,-1,0
30800,-3473408,78,-56,-1,-1,0
30833,-2293760,78,-56,-1,-1,0
30866,-1048576,78,-56,-1,-1,0
30900,262144,78,-56,-1,-1,0
30933,327680,78,-56,-1,-1,0
30966,-786432,78,-56,-1,-1,0
31000,0,80,-56,-1,-1,0
31033,-1048576,80,-56,-1,-1,0
31066,65536,80,-56,-1,-1,0
31099,589824,80,-56,-1,-1,0
31133,1572864,80,-56,-1,-1,0
31166,3014656,80,-56,-1,-1,0
31200,3997696,80,-56,-1,-1,0
31233,2293760,80,-56,-1,-1,0
31266,393216,80,-56,-1,-1,0
31300,262144,80,-56,-1,-1,0
31333,-1048576,80,-56,-1,-1,0
31366,-1376256,80,-56,-1,-1,0
31400,-1048576,80,-56,-1,-1,0
31433,-2686976,80,-56,-1,-1,0
31466,-1900544,80,-56,-1,-1,0
31500,-1376256,80,-56,-1,-1,0
31533,-1245184,80,-56,-1,-1,0
31566,-1376256,82,-56,-1,-1,0
31599,3538944,82,-56,-1,-1,0
31633,-2686976,82,-56,-1,-1,0
31666,-1769472,82,-56,-1,-1,0
31700,-917504,82,-56,-1,-1,0
31733,1638400,82,-56,-1,-1,0
31766,2949120,82,-56,-1,-1,0
31800,1900544,82,-56,-1,-1,0
31833,1114112,82,-56,-1,-1,0
31866,-589824,82,-56,-1,-1,0
31900,-1572864,82,-56,-1,-1,0
31933,-1703936,82,-56,-1,-1,0
31966,-2359296,82,-56,-1,-1,0
32000,-2097152,82,-56,-1,-1,0
32033,-2031616,82,-56,-1,-1,0
32066,-65536,82,-56,-1,-1,0
32100,2818048,82,-56,-1,-1,0
32133,2162688,82,-56,-1,-1,0
32166,1769472,82,-56,-1,-1,0
32200,7012352,83,-56,-1,-1,0
32233,1507328,83,-56,-1,-1,0
32266,1638400,83,-56,-1,-1,0
32299,1703936,83,-56,-1,-1,0
32333,1507328,83,-56,-1,-1,0
32366,1769472,83,-56,-1,-1,0
32400,786432,83,-56,-1,-1,0
32433,-1179648,83,-56,-1,-1,0
32466,-1376256,83,-56,-1,-1,0
32500,-1507328,83,-56,-1,-1,0
32533,-1376256,83,-56,-1,-1,0
32566,-2162688,83,-56,-1,-1,0
32600,-2359296,83,-56,-1,-1,0
32633,-3080192,83,-56,-1,-1,0
32666,-3211264,83,-56,-1,-1,0
32700,-2818048,83,-56,-1,-1,0
32733,-2818048,83,-56,-1,-1,0
32766,-2424832,83,-56,-1,-1,0
32800,3276800,83,-56,-1,-1,0
32833,-1769472,83,-56,-1,-1,0
32866,-2162688,83,-56,-1,-1,0
32900,-2424832,83,-56,-1,-1,0
32933,-983040,83,-56,-1,-1,0
32966,-131072,83,-56,-1,-1,0
33000,1179648,83,-56,-1,-1,0
33033,2097152,83,-56,-1,-1,0
33066,5505024,83,-56,-1,-1,0
33100,7864320,83,-56,-1,-1,0
33133,10289152,83,-56,-1,-1,0
33166,10158080,83,-56,-1,-1,0
33200,7667712,83,-56,-1,-1,0
33233,3997696,83,-56,-1,-1,0
33266,720896,83,-56,-1,-1,0
33300,-3342336,83,-56,-1,-1,0
33333,-10420224,83,-56,-1,-1,0
33366,-10551296,83,-56,-1,-1,0
33400,-327680,83,-56,-1,-1,0
33433,-3932160,83,-56,-1,-1,0
33466,-1310720,83,-56,-1,-1,0
33500,393216,83,-56,-1,-1,0
33533,458752,83,-56,-1,-1,0
33566,1179648,83,-56,-1,-1,0
33600,1835008,83,-56,-1,-1,0
33633,589824,83,-56,-1,-1,0
33666,-131072,83,-56,-1,-1,0
33700,-262144,83,-56,-1,-1,0
33733,0,83,-56,-1,-1,0
33766,458752,83,-56,-1,-1,0
33800,393216,83,-56,-1,-1,0
33833,589824,83,-56,-1,-1,0
33866,196608,83,-56,-1,-1,0
33900,720896,83,-56,-1,-1,0
33933,131072,83,-56,-1,-1,0
33966,-1441792,83,-56,-1,-1,0
34000,786432,83,-56,-1,-1,0
34033,-3342336,83,-56,-1,-1,0
34066,-2621440,83,-56,-1,-1,0
34100,-2883584,83,-56,-1,-1,0
34133,-1835008,83,-56,-1,-1,0
34166,-458752,83,-56,-1,-1,0
34200,196608,83,-56,-1,-1,0
34233,-1572864,83,-56,-1,-1,0
34266,-1966080,83,-56,-1,-1,0
34300,65536,83,-56,-1,-1,0
34333,1245184,83,-56,-1,-1,0
34366,1048576,83,-56,-1,-1,0
34400,65536,83,-56,-1,-1,0
34433,327680,83,-56,-1,-1,0
34466,524288,83,-56,-1,-1,0
34500,65536,83,-56,-1,-1,0
34533,65536,83,-56,-1,-1,0
34566,1310720,83,-56,-1,-1,0
34600,262144,83,-56,-1,-1,0
34633,720896,83,-56,-1,-1,0
34666,720896,83,-56,-1,-1,0
34700,917504,83,-56,-1,-1,0
34733,1703936,83,-56,-1,-1,0
34766,2293760,83,-56,-1,-1,0
34800,720896,83,-56,-1,-1,0
34833,-655360,83,-56,-1,-1,0
34866,-720896,83,-56,-1,-1,0
34900,-655360,83,-56,-1,-1,0
34933,-720896,83,-56,-1,-1,0
34966,-655360,83,-56,-1,-1,0
35000,-524288,83,-56,-1,-1,0
35033,-655360,83,-56,-1,-1,0
35066,-393216,83,-56,-1,-1,0
35100,-196608,83,-56,-1,-1,0
35133,0,83,-56,-1,-1,0
35166,2162688,83,-56,-1,-1,0
35200,-1703936,83,-56,-1,-1,0
35233,0,83,-56,-1,-1,0
35266,65536,83,-56,-1,-1,0
35300,196608,83,-56,-1,-1,0
35333,524288,83,-56,-1,-1,0
35366,1114112,83,-56,-1,-1,0
35400,-458752,83,-56,-1,-1,0
35433,-1900544,83,-56,-1,-1,0
35466,-1835008,83,-56,-1,-1,0
35500,-1769472,83,-56,-1,-1,0
35533,-1245184,83,-56,-1,-1,0
35566,-1048576,83,-56,-1,-1,0
35600,-589824,83,-56,-1,-1,0
35633,327680,83,-56,-1,-1,0
35666,1572864,83,-56,-1,-1,0
35700,1441792,83,-56,-1,-1,0
35733,851968,83,-56,-1,-1,0
35766,3080192,83,-56,-1,-1,0
35800,-1572864,83,-56,-1,-1,0
35833,458752,83,-56,-1,-1,0
35866,655360,83,-56,-1,-1,0
35900,851968,83,-56,-1,-1,0
35933,1703936,83,-56,-1,-1,0
35966,2097152,83,-56,-1,-1,0
36000,-262144,83,-56,-1,-1,0
36033,-1900544,83,-56,-1,-1,0
36066,-1835008,83,-56,-1,-1,0
36100,-1638400,83,-56,-1,-1,0
36133,-1572864,83,-56,-1,-1,0
36166,-1310720,83,-56,-1,-1,0
36200,-983040,83,-56,-1,-1,0
36233,-1048576,83,-56,-1,-1,0
36266,-589824,83,-56,-1,-1,0
36300,-1114112,83,-56,-1,-1,0
36333,-786432,83,-56,-1,-1,0
36366,6029312,83,-56,-1,-1,0
36400,-1572864,83,-56,-1,-1,0
36433,-458752,83,-56,-1,-1,0
36466,-262144,83,-56,-1,-1,0
36500,262144,83,-56,-1,-1,0
36533,1114112,83,-56,-1,-1,0
36566,1638400,83,-56,-1,-1,0
36600,65536,83,-56,-1,-1,0
36633,-786432,83,-56,-1,-1,0
36666,-393216,83,-56,-1,-1,0
36700,-327680,83,-56,-1,-1,0
36733,-458752,83,-56,-1,-1,0
36766,-131072,83,-56,-1,-1,0
36800,-131072,83,-56,-1,-1,0
36833,0,83,-56,-1,-1,0
36866,327680,83,-56,-1,-1,0
36900,65536,83,-56,-1,-1,0
36933,0,83,-56,-1,-1,0
36966,7208960,83,-56,-1,-1,0
37000,-196608,83,-56,-1,-1,0
37033,131072,83,-56,-1,-1,0
37066,393216,83,-56,-1,-1,0
37100,786432,83,-56,-1,-1,0
37133,1638400,83,-56,-1,-1,0
37166,1703936,83,-56,-1,-1,0
37200,196608,83,-56,-1,-1,0
37233,-262144,83,-56,-1,-1,0
37266,-393216,83,-56,-1,-1,0
37300,-327680,83,-56,-1,-1,0
37333,-524288,83,-56,-1,-1,0
37366,-458752,83,-56,-1,-1,0
37400,-786432,83,-56,-1,-1,0
37433,-786432,83,-56,-1,-1,0
37466,-1179648,83,-56,-1,-1,0
37500,-1048576,83,-56,-1,-1,0
37533,-1245184,83,-56,-1,-1,0
37566,-1048576,83,-56,-1,-1,0
37600,6815744,83,-56,-1,-1,0
37633,-1507328,83,-56,-1,-1,0
37666,-851968,83,-56,-1,-1,0
37700,-720896,83,-56,-1,-1,0
37733,-131072,83,-56,-1,-1,0
37766,655360,83,-56,-1,-1,0
37800,1310720,83,-56,-1,-1,0
37833,131072,83,-56,-1,-1,0
37866,-196608,83,-56,-1,-1,0
37900,-262144,83,-56,-1,-1,0
37933,-262144,83,-56,-1,-1,0
37966,-393216,83,-56,-1,-1,0
38000,-458752,83,-56,-1,-1,0
38033,-589824,83,-56,-1,-1,0
38066,-327680,83,-56,-1,-1,0
38100,-65536,83,-56,-1,-1,0
38133,-196608,83,-56,-1,-1,0
38166,0,83,-56,-1,-1,0
38200,0,83,-56,-1,-1,0
38233,327680,83,-56,-1,-1,0
38266,524288,83,-56,-1,-1,0
38300,-327680,83,-56,-1,-1,0
38333,-65536,83,-56,-1,-1,0
38366,327680,83,-56,-1,-1,0
38400,983040,83,-56,-1,-1,0
38433,1900544,83,-56,-1,-1,0
38466,1245184,83,-56,-1,-1,0
38500,-131072,83,-56,-1,-1,0
38533,-327680,83,-56,-1,-1,0
38566,-262144,83,-56,-1,-1,0
38600,-327680,83,-56,-1,-1,0
38633,-327680,83,-56,-1,-1,0
38666,-131072,83,-56,-1,-1,0
38700,-458752,83,-56,-1,-1,0
38733,-393216,83,-56,-1,-1,0
38766,0,83,-56,-1,-1,0
38800,0,83,-56,-1,-1,0
38833,458752,83,-56,-1,-1,0
38866,196608,83,-56,-1,-1,0
38900,589824,83,-56,-1,-1,0
38933,7143424,83,-56,-1,-1,0
38966,-2490368,83,-56,-1,-1,0
39000,-3735552,83,-56,-1,-1,0
39033,-4915200,83,-56,-1,-1,0
39066,-4653056,83,-56,-1,-1,0
39100,-4390912,83,-56,-1,-1,0
39133,-5832704,83,-56,-1,-1,0
39166,-7012352,83,-56,-1,-1,0
39200,-7012352,83,-56,-1,-1,0
39233,-4587520,83,-56,-1,-1,0
39266,-851968,83,-56,-1,-1,0
39300,1769472,83,-56,-1,-1,0
39333,1441792,83,-56,-1,-1,0
39366,1769472,83,-56,-1,-1,0
39400,2818048,83,-56,-1,-1,0
39433,3342336,83,-56,-1,-1,0
39466,4128768,83,-56,-1,-1,0
39500,4456448,83,-56,-1,-1,0
39533,3407872,83,-56,-1,-1,0
39566,3145728,83,-56,-1,-1,0
39600,8650752,83,-56,-1,-1,0
39633,3342336,82,-56,-1,-1,0
39666,3866624,82,-56,-1,-1,0
39700,4915200,82,-56,-1,-1,0
39733,3473408,82,-56,-1,-1,0
39766,2818048,82,-56,-1,-1,0
39800,2097152,82,-56,-1,-1,0
39833,262144,82,-56,-1,-1,0
39866,-2031616,82,-56,-1,-1,0
39900,-3342336,82,-56,-1,-1,0
39933,-4063232,82,-56,-1,-1,0
39966,-2752512,82,-56,-1,-1,0
40000,-1310720,82,-56,-1,-1,0
40033,-983040,82,-56,-1,-1,0
40066,-1703936,82,-56,-1,-1,0
40100,-2228224,82,-56,-1,-1,0
40133,-2162688,82,-56,-1,-1,0
40166,-1966080,82,-56,-1,-1,0
40200,-2293760,82,-56,-1,-1,0
40233,-1572864,82,-56,-1,-1,0
40266,-196608,82,-56,-1,-1,0
40300,786432,81,-56,-1,-1,0
40333,1900544,81,-56,-1,-1,0
40366,3342336,81,-56,-1,-1,0
40400,3276800,81,-56,-1,-1,0
40433,2883584,81,-56,-1,-1,0
40466,1835008,81,-56,-1,-1,0
40500,65536,81,-56,-1,-1,0
40533,-655360,81,-56,-1,-1,0
40566,-1376256,81,-56,-1,-1,0
40600,-1114112,81,-56,-1,-1,0
40633,-655360,81,-56,-1,-1,0
40666,65536,81,-56,-1,-1,0
40700,65536,81,-56,-1,-1,0
40733,-131072,81,-56,-1,-1,0
40766,-851968,81,-56,-1,-1,0
40800,-1507328,81,-56,-1,-1,0
40833,-1572864,81,-56,-1,-1,0
40866,-720896,81,-56,-1,-1,0
40900,5898240,81,-56,-1,-1,0
40933,-1048576,80,-56,-1,-1,0
40966,196608,80,-56,-1,-1,0
41000,524288,80,-56,-1,-1,0
41033,1114112,80,-56,-1,-1,0
41066,2359296,80,-56,-1,-1,0
41100,2686976,80,-56,-1,-1,0
41133,983040,80,-56,-1,-1,0
41166,-196608,80,-56,-1,-1,0
41200,-524288,80,-56,-1,-1,0
41233,-655360,80,-56,-1,-1,0
41266,-2031616,80,-56,-1,-1,0
41300,-2424832,80,-56,-1,-1,0
41333,-1966080,80,-56,-1,-1,0
41366,-1572864,80,-56,-1,-1,0
41400,-655360,80,-56,-1,-1,0
41433,-917504,80,-56,-1,-1,0
41466,-655360,80,-56,-1,-1,0
41500,-917504,80,-56,-1,-1,0
41533,-851968,80,-56,-1,-1,0
41566,-327680,79,-56,-1,-1,0
41600,-1376256,79,-56,-1,-1,0
41633,-1507328,79,-56,-1,-1,0
41666,-851968,79,-56,-1,-1,0
41700,262144,79,-56,-1,-1,0
41733,2162688,79,-56,-1,-1,0
41766,1835008,79,-56,-1,-1,0
41800,-458752,79,-56,-1,-1,0
41833,-1572864,79,-56,-1,-1,0
41866,-1507328,79,-56,-1,-1,0
41900,-720896,79,-56,-1,-1,0
41933,-458752,79,-56,-1,-1,0
41966,-65536,79,-56,-1,-1,0
42000,-65536,79,-56,-1,-1,0
42033,-196608,79,-56,-1,-1,0
42066,131072,79,-56,-1,-1,0
42100,-327680,79,-56,-1,-1,0
42133,-458752,79,-56,-1,-1,0
42166,2621440,79,-56,-1,-1,0
42200,-2424832,79,-56,-1,-1,0
42233,-589824,79,-56,-1,-1,0
42266,0,79,-56,-1,-1,0
42300,393216,79,-56,-1,-1,0
42333,1179648,79,-56,-1,-1,0
42366,2031616,79,-56,-1,-1,0
42400,65536,79,-56,-1,-1,0
42433,-262144,79,-56,-1,-1,0
42466,-327680,79,-56,-1,-1,0
42500,0,79,-56,-1,-1,0
42533,458752,79,-56,-1,-1,0
42566,1114112,79,-56,-1,-1,0
42600,1376256,79,-56,-1,-1,0
42633,2097152,79,-56,-1,-1,0
42666,2424832,79,-56,-1,-1,0
42700,1835008,79,-56,-1,-1,0
42733,1310720,79,-56,-1,-1,0
42766,786432,78,-56,-1,-1,0
42800,3145728,78,-56,-1,-1,0
42833,-131072,78,-56,-1,-1,0
42866,524288,78,-56,-1,-1,0
42900,589824,78,-56,-1,-1,0
42933,655360,78,-56,-1,-1,0
42966,1441792,78,-56,-1,-1,0
43000,917504,78,-56,-1,-1,0
43033,-1835008,78,-56,-1,-1,0
43066,-2031616,78,-56,-1,-1,0
43100,-2752512,78,-56,-1,-1,0
43133,-1572864,78,-56,-1,-1,0
43166,-2359296,78,-56,-1,-1,0
43200,-2490368,78,-56,-1,-1,0
43233,-2424832,78,-56,-1,-1,0
43266,-3145728,78,-56,-1,-1,0
43300,-3080192,78,-56,-1,-1,0
43333,-3211264,78,-56,-1,-1,0
43366,3342336,78,-56,-1,-1,0
43400,-5046272,78,-56,-1,-1,0
43433,-4128768,78,-56,-1,-1,0
43466,-3538944,78,-56,-1,-1,0
43500,-3080192,78,-56,-1,-1,0
43533,-1376256,78,-56,-1,-1,0
43566,458752,78,-56,-1,-1,0
43600,-1376256,78,-56,-1,-1,0
43633,-2097152,78,-56,-1,-1,0
43666,458752,78,-56,-1,-1,0
43700,851968,78,-56,-1,-1,0
43733,1572864,78,-56,-1,-1,0
43766,2097152,78,-56,-1,-1,0
43800,3014656,78,-56,-1,-1,0
43833,2621440,78,-56,-1,-1,0
43866,3538944,78,-56,-1,-1,0
43900,3604480,78,-56,-1,-1,0
43933,983040,78,-56,-1,-1,0
43966,4521984,78,-56,-1,-1,0
44000,-2293760,78,-56,-1,-1,0
44033,-720896,78,-56,-1,-1,0
44066,393216,78,-56,-1,-1,0
44100,1441792,78,-56,-1,-1,0
44133,2424832,78,-56,-1,-1,0
44166,4194304,78,-56,-1,-1,0
44200,1966080,78,-56,-1,-1,0
44233,65536,78,-56,-1,-1,0
44266,-589824,78,-56,-1,-1,0
44300,-589824,78,-56,-1,-1,0
44333,-1245184,78,-56,-1,-1,0
44366,-2883584,78,-56,-1,-1,0
44400,-2818048,78,-56,-1,-1,0
44433,-2293760,78,-56,-1,-1,0
44466,-2555904,78,-56,-1,-1,0
44500,-2293760,78,-56,-1,-1,0
44533,4653056,78,-56,-1,-1,0
44566,-3932160,78,-56,-1,-1,0
44600,-1376256,78,-56,-1,-1,0
44633,-851968,78,-56,-1,-1,0
44666,-458752,78,-56,-1,-1,0
44700,1376256,78,-56,-1,-1,0
44733,3276800,78,-56,-1,-1,0
44766,2228224,78,-56,-1,-1,0
44800,1900544,78,-56,-1,-1,0
44833,2228224,78,-56,-1,-1,0
44866,1048576,78,-56,-1,-1,0
44900,-1572864,78,-56,-1,-1,0
44933,-5505024,78,-56,-1,-1,0
44966,-4325376,78,-56,-1,-1,0
45000,2686976,78,-56,-1,-1,0
45033,4849664,78,-56,-1,-1,0
45066,1310720,78,-56,-1,-1,0
45100,11403264,78,-56,-1,-1,0
45133,-327680,78,-56,-1,-1,0
45166,393216,78,-56,-1,-1,0
45200,1769472,78,-56,-1,-1,0
45233,1441792,78,-56,-1,-1,0
45266,2490368,78,-56,-1,-1,0
45300,3538944,78,-56,-1,-1,0
45333,1048576,78,-56,-1,-1,0
45366,-1179648,78,-56,-1,-1,0
45400,-1703936,78,-56,-1,-1,0
45433,-1376256,78,-56,-1,-1,0
45466,983040,78,-56,-1,-1,0
45500,1114112,78,-56,-1,-1,0
45533,-1245184,78,-56,-1,-1,0
45566,589824,78,-56,-1,-1,0
45600,393216,78,-56,-1,-1,0
45633,327680,77,-56,-1,-1,0
45666,1441792,77,-56,-1,-1,0
45700,-983040,77,-56,-1,-1,0
45733,851968,77,-56,-1,-1,0
45766,-3670016,77,-56,-1,-1,0
45800,-12124160,77,-56,-1,-1,0
45833,-5242880,77,-56,-1,-1,0
45866,-5505024,77,-56,-1,-1,0
45900,-3604480,77,-56,-1,-1,0
45933,-3342336,77,-56,-1,-1,0
45966,-1507328,77,-56,-1,-1,0
46000,0,77,-56,-1,-1,0
46033,65536,77,-56,-1,-1,0
46066,-262144,77,-56,-1,-1,0
46100,-196608,77,-56,-1,-1,0
46133,-655360,77,-56,-1,-1,0
46166,-655360,77,-56,-1,-1,0
46200,-131072,77,-56,-1,-1,0
46233,655360,78,-56,-1,-1,0
46266,1572864,78,-56,-1,-1,0
46300,655360,78,-56,-1,-1,0
46333,1048576,78,-56,-1,-1,0
46366,1310720,78,-56,-1,-1,0
46400,1507328,78,-56,-1,-1,0
46433,2818048,78,-56,-1,-1,0
46466,1900544,78,-56,-1,-1,0
46500,0,78,-56,-1,-1,0
46533,-327680,78,-56,-1,-1,0
46566,-458752,78,-56,-1,-1,0
46600,-786432,78,-56,-1,-1,0
46633,-917504,78,-56,-1,-1,0
46666,1114112,78,-56,-1,-1,0
46700,393216,78,-56,-1,-1,0
46733,-655360,78,-56,-1,-1,0
46766,-1376256,78,-56,-1,-1,0
46800,-655360,78,-56,-1,-1,0
46833,2162688,79,-56,-1,-1,0
46866,-1638400,79,-56,-1,-1,0
46900,-1048576,79,-56,-1,-1,0
46933,-1572864,79,-56,-1,-1,0
46966,-65536,79,-56,-1,-1,0
47000,1114112,79,-56,-1,-1,0
47033,1507328,79,-56,-1,-1,0
47066,2031616,79,-56,-1,-1,0
47100,655360,79,-56,-1,-1,0
47133,-65536,79,-56,-1,-1,0
47166,-1048576,79,-56,-1,-1,0
47200,-655360,79,-56,-1,-1,0
47233,2031616,79,-56,-1,-1,0
47266,3735552,79,-56,-1,-1,0
47300,1835008,79,-56,-1,-1,0
47333,983040,79,-56,-1,-1,0
47366,262144,79,-56,-1,-1,0
47400,262144,79,-56,-1,-1,0
47433,3211264,81,-56,-1,-1,0
47466,-2686976,81,-56,-1,-1,0
47500,-2097152,81,-56,-1,-1,0
47533,-1703936,81,-56,-1,-1,0
47566,-1245184,81,-56,-1,-1,0
47600,-1900544,81,-56,-1,-1,0
47633,-2162688,81,-56,-1,-1,0
47666,-3342336,81,-56,-1,-1,0
47700,-4128768,81,-56,-1,-1,0
47733,-3145728,81,-56,-1,-1,0
47766,-1245184,81,-56,-1,-1,0
47800,524288,81,-56,-1,-1,0
47833,1638400,81,-56,-1,-1,0
47866,2686976,81,-56,-1,-1,0
47900,4456448,81,-56,-1,-1,0
47933,4718592,81,-56,-1,-1,0
47966,5439488,81,-56,-1,-1,0
48000,5898240,81,-56,-1,-1,0
48033,8847360,82,-56,-1,-1,0
48066,5505024,82,-56,-1,-1,0
48100,3735552,82,-56,-1,-1,0
48133,1966080,82,-56,-1,-1,0
48166,458752,82,-56,-1,-1,0
48200,-1835008,82,-56,-1,-1,0
48233,-6356992,82,-56,-1,-1,0
48266,-13369344,82,-56,-1,-1,0
48300,-13107200,82,-56,-1,-1,0
48333,-11206656,82,-56,-1,-1,0
48366,-7929856,82,-56,-1,-1,0
48400,-5308416,82,-56,-1,-1,0
48433,-2949120,82,-56,-1,-1,0
48466,-917504,82,-56,-1,-1,0
48500,-1179648,82,-56,-1,-1,0
48533,-1966080,82,-56,-1,-1,0
48566,-2031616,82,-56,-1,-1,0
48600,131072,83,-56,-1,-1,0
48633,5636096,83,-56,-1,-1,0
48666,655360,83,-56,-1,-1,0
48700,4128768,83,-56,-1,-1,0
48733,4259840,83,-56,-1,-1,0
48766,4587520,83,-56,-1,-1,0
48800,4653056,83,-56,-1,-1,0
48833,5308416,83,-56,-1,-1,0
48866,2686976,83,-56,-1,-1,0
48900,0,83,-56,-1,-1,0
48933,-1572864,83,-56,-1,-1,0
48966,-1638400,83,-56,-1,-1,0
49000,-3014656,83,-56,-1,-1,0
49033,-2031616,83,-56,-1,-1,0
49066,-1966080,83,-56,-1,-1,0
49100,0,83,-56,-1,-1,0
49133,262144,83,-56,-1,-1,0
49166,262144,83,-56,-1,-1,0
49200,3997696,83,-56,-1,-1,0
49233,-2883584,83,-56,-1,-1,0
49266,1179648,83,-56,-1,-1,0
49300,1966080,83,-56,-1,-1,0
49333,1703936,83,-56,-1,-1,0
49366,2883584,83,-56,-1,-1,0
49400,2359296,83,-56,-1,-1,0
49433,720896,83,-56,-1,-1,0
49466,-786432,83,-56,-1,-1,0
49500,-2097152,83,-56,-1,-1,0
49533,-1048576,83,-56,-1,-1,0
49566,-1703936,83,-56,-1,-1,0
49600,-1310720,83,-56,-1,-1,0
49633,-1703936,83,-56,-1,-1,0
49666,-1507328,83,-56,-1,-1,0
49700,-1179648,83,-56,-1,-1,0
49733,-2097152,83,-56,-1,-1,0
49766,-1900544,84,-56,-1,-1,0
49800,6291456,84,-56,-1,-1,0
49833,-2883584,84,-56,-1,-1,0
49866,-1703936,84,-56,-1,-1,0
49900,-1441792,84,-56,-1,-1,0
49933,-262144,84,-56,-1,-1,0
49966,393216,84,-56,-1,-1,0
