milliseconds, ECG, ECG HR, PPG, PPG HR, SpO2, PI
1523609482053,2228224,66,-56,-1,-1,0
1523609482053,1900544,66,-56,-1,-1,0
1523609482053,1507328,66,-56,-1,-1,0
1523609482053,1114112,66,-56,-1,-1,0
1523609482053,786432,66,-56,-1,-1,0
1523609482094,589824,66,-56,-1,-1,0
1523609482094,589824,66,-56,-1,-1,0
1523609482094,786432,66,-56,-1,-1,0
1523609482094,1114112,66,-56,-1,-1,0
1523609482094,1638400,66,-56,-1,-1,0
1523609482133,2097152,66,-56,-1,-1,0
1523609482133,2293760,66,-56,-1,-1,0
1523609482133,2228224,66,-56,-1,-1,0
1523609482133,1966080,66,-56,-1,-1,0
1523609482133,1769472,66,-56,-1,-1,0
1523609482173,1638400,66,-56,-1,-1,0
1523609482173,1572864,66,-56,-1,-1,0
1523609482173,1310720,66,-56,-1,-1,0
1523609482173,1048576,66,-56,-1,-1,0
1523609482173,851968,66,-56,-1,-1,0
1523609482213,786432,66,-56,-1,-1,0
1523609482213,786432,66,-56,-1,-1,0
1523609482213,720896,66,-56,-1,-1,0
1523609482213,589824,66,-56,-1,-1,0
1523609482213,458752,66,-56,-1,-1,0
1523609482253,393216,66,-56,-1,-1,0
1523609482253,393216,66,-56,-1,-1,0
1523609482253,720896,66,-56,-1,-1,0
1523609482253,1900544,66,-56,-1,-1,0
1523609482253,4587520,66,-56,-1,-1,0
1523609482293,7733248,66,-56,-1,-1,0
1523609482293,7798784,66,-56,-1,-1,0
1523609482293,4456448,66,-56,-1,-1,0
1523609482293,1245184,66,-56,-1,-1,0
1523609482293,589824,66,-56,-1,-1,0
1523609482333,917504,66,-56,-1,-1,0
1523609482333,1245184,66,-56,-1,-1,0
1523609482333,1310720,66,-56,-1,-1,0
1523609482333,1245184,66,-56,-1,-1,0
1523609482333,1179648,66,-56,-1,-1,0
1523609482373,1048576,66,-56,-1,-1,0
1523609482373,983040,66,-56,-1,-1,0
1523609482373,851968,66,-56,-1,-1,0
1523609482373,720896,66,-56,-1,-1,0
1523609482373,589824,66,-56,-1,-1,0
1523609482413,524288,66,-56,-1,-1,0
1523609482413,524288,66,-56,-1,-1,0
1523609482413,655360,66,-56,-1,-1,0
1523609482413,851968,66,-56,-1,-1,0
1523609482413,1114112,66,-56,-1,-1,0
1523609482453,1376256,66,-56,-1,-1,0
1523609482453,1703936,66,-56,-1,-1,0
1523609482453,2031616,66,-56,-1,-1,0
1523609482453,2293760,66,-56,-1,-1,0
1523609482453,2424832,66,-56,-1,-1,0
1523609482493,2359296,66,-56,-1,-1,0
1523609482493,2228224,66,-56,-1,-1,0
1523609482493,2031616,66,-56,-1,-1,0
1523609482493,1966080,66,-56,-1,-1,0
1523609482493,1966080,66,-56,-1,-1,0
1523609482533,1900544,66,-56,-1,-1,0
1523609482533,1703936,66,-56,-1,-1,0
1523609482533,1507328,66,-56,-1,-1,0
1523609482533,1376256,66,-56,-1,-1,0
1523609482533,1376256,66,-56,-1,-1,0
1523609482573,1703936,66,-56,-1,-1,0
1523609482573,2555904,66,-56,-1,-1,0
1523609482573,3932160,66,-56,-1,-1,0
1523609482573,5111808,66,-56,-1,-1,0
1523609482573,5111808,66,-56,-1,-1,0
1523609482613,3735552,66,-56,-1,-1,0
1523609482613,1703936,66,-56,-1,-1,0
1523609482613,-131072,66,-56,-1,-1,0
1523609482613,-1114112,66,-56,-1,-1,0
1523609482613,-1310720,66,-56,-1,-1,0
1523609482653,-1048576,66,-56,-1,-1,0
1523609482653,-851968,66,-56,-1,-1,0
1523609482653,-851968,66,-56,-1,-1,0
1523609482653,-1179648,66,-56,-1,-1,0
1523609482653,-2031616,66,-56,-1,-1,0
1523609482693,-3342336,66,-56,-1,-1,0
1523609482693,-4784128,66,-56,-1,-1,0
1523609482693,-5898240,66,-56,-1,-1,0
1523609482693,-6094848,66,-56,-1,-1,0
1523609482693,-5701632,66,-56,-1,-1,0
1523609482734,-5308416,66,-56,-1,-1,0
1523609482734,-5373952,66,-56,-1,-1,0
1523609482734,-5898240,66,-56,-1,-1,0
1523609482734,-6422528,66,-56,-1,-1,0
1523609482734,-6881280,66,-56,-1,-1,0
1523609482773,-6946816,66,-56,-1,-1,0
1523609482773,-6619136,66,-56,-1,-1,0
1523609482773,-5767168,66,-56,-1,-1,0
1523609482773,-4784128,66,-56,-1,-1,0
1523609482773,-4063232,66,-56,-1,-1,0
1523609482813,-3538944,66,-56,-1,-1,0
1523609482813,-3276800,66,-56,-1,-1,0
1523609482813,-3080192,66,-56,-1,-1,0
1523609482813,-2949120,66,-56,-1,-1,0
1523609482813,-2883584,66,-56,-1,-1,0
1523609482853,-2752512,66,-56,-1,-1,0
1523609482853,-2621440,66,-56,-1,-1,0
1523609482853,-2621440,66,-56,-1,-1,0
1523609482853,-2818048,66,-56,-1,-1,0
1523609482853,-3342336,66,-56,-1,-1,0
1523609482893,-4128768,66,-56,-1,-1,0
1523609482893,-4718592,66,-56,-1,-1,0
1523609482893,-4849664,66,-56,-1,-1,0
1523609482893,-4521984,66,-56,-1,-1,0
1523609482893,-3866624,66,-56,-1,-1,0
1523609482933,-3145728,66,-56,-1,-1,0
1523609482933,-2555904,66,-56,-1,-1,0
1523609482933,-2097152,66,-56,-1,-1,0
1523609482933,-1572864,66,-56,-1,-1,0
1523609482933,-1245184,66,-56,-1,-1,0
1523609482973,-1048576,66,-56,-1,-1,0
1523609482973,-851968,66,-56,-1,-1,0
1523609482973,-589824,66,-56,-1,-1,0
1523609482973,-196608,66,-56,-1,-1,0
1523609482973,131072,66,-56,-1,-1,0
1523609483013,589824,66,-56,-1,-1,0
1523609483013,1245184,66,-56,-1,-1,0
1523609483013,1900544,66,-56,-1,-1,0
1523609483013,2490368,66,-56,-1,-1,0
1523609483013,3014656,66,-56,-1,-1,0
1523609483053,3342336,66,-56,-1,-1,0
1523609483053,3407872,66,-56,-1,-1,0
1523609483053,3276800,66,-56,-1,-1,0
1523609483053,3145728,66,-56,-1,-1,0
1523609483053,2949120,66,-56,-1,-1,0
1523609483093,2752512,66,-56,-1,-1,0
1523609483093,2424832,66,-56,-1,-1,0
1523609483093,2162688,66,-56,-1,-1,0
1523609483093,1900544,66,-56,-1,-1,0
1523609483093,1638400,66,-56,-1,-1,0
1523609483133,1441792,66,-56,-1,-1,0
1523609483133,1179648,66,-56,-1,-1,0
1523609483133,917504,66,-56,-1,-1,0
1523609483133,851968,66,-56,-1,-1,0
1523609483133,1310720,66,-56,-1,-1,0
1523609483173,3014656,66,-56,-1,-1,0
1523609483173,5308416,66,-56,-1,-1,0
1523609483173,4849664,66,-56,-1,-1,0
1523609483173,1048576,66,-56,-1,-1,0
1523609483173,-2359296,66,-56,-1,-1,0
1523609483213,-3080192,66,-56,-1,-1,0
1523609483213,-2424832,66,-56,-1,-1,0
1523609483213,-1703936,66,-56,-1,-1,0
1523609483213,-1245184,66,-56,-1,-1,0
1523609483213,-917504,66,-56,-1,-1,0
1523609483253,-589824,66,-56,-1,-1,0
1523609483253,-327680,66,-56,-1,-1,0
1523609483253,0,66,-56,-1,-1,0
1523609483253,196608,66,-56,-1,-1,0
1523609483253,589824,66,-56,-1,-1,0
1523609483293,917504,68,-56,-1,-1,0
1523609483293,1245184,68,-56,-1,-1,0
1523609483293,1507328,68,-56,-1,-1,0
1523609483293,1441792,68,-56,-1,-1,0
1523609483293,1179648,68,-56,-1,-1,0
1523609483333,851968,68,-56,-1,-1,0
1523609483333,589824,68,-56,-1,-1,0
1523609483333,393216,68,-56,-1,-1,0
1523609483333,196608,68,-56,-1,-1,0
1523609483333,65536,68,-56,-1,-1,0
1523609483374,0,68,-56,-1,-1,0
1523609483374,0,68,-56,-1,-1,0
1523609483374,65536,68,-56,-1,-1,0
1523609483374,262144,68,-56,-1,-1,0
1523609483374,524288,68,-56,-1,-1,0
1523609483413,720896,68,-56,-1,-1,0
1523609483413,786432,68,-56,-1,-1,0
1523609483413,786432,68,-56,-1,-1,0
1523609483413,655360,68,-56,-1,-1,0
1523609483413,458752,68,-56,-1,-1,0
1523609483453,262144,68,-56,-1,-1,0
1523609483453,196608,68,-56,-1,-1,0
1523609483453,262144,68,-56,-1,-1,0
1523609483453,393216,68,-56,-1,-1,0
1523609483453,393216,68,-56,-1,-1,0
1523609483493,196608,68,-56,-1,-1,0
1523609483493,0,68,-56,-1,-1,0
1523609483493,-131072,68,-56,-1,-1,0
1523609483493,-393216,68,-56,-1,-1,0
1523609483493,-655360,68,-56,-1,-1,0
1523609483533,-786432,68,-56,-1,-1,0
1523609483533,-917504,68,-56,-1,-1,0
1523609483533,-1048576,68,-56,-1,-1,0
1523609483533,-1179648,68,-56,-1,-1,0
1523609483533,-1179648,68,-56,-1,-1,0
1523609483573,-1114112,68,-56,-1,-1,0
1523609483573,-1114112,68,-56,-1,-1,0
1523609483573,-1114112,68,-56,-1,-1,0
1523609483573,-1114112,68,-56,-1,-1,0
1523609483573,-1114112,68,-56,-1,-1,0
1523609483613,-1179648,68,-56,-1,-1,0
1523609483613,-1245184,68,-56,-1,-1,0
1523609483613,-1179648,68,-56,-1,-1,0
1523609483613,-1179648,68,-56,-1,-1,0
1523609483613,-1114112,68,-56,-1,-1,0
1523609483653,-1048576,68,-56,-1,-1,0
1523609483653,-983040,68,-56,-1,-1,0
1523609483653,-983040,68,-56,-1,-1,0
1523609483653,-983040,68,-56,-1,-1,0
1523609483653,-983040,68,-56,-1,-1,0
1523609483693,-983040,68,-56,-1,-1,0
1523609483693,-983040,68,-56,-1,-1,0
1523609483693,-983040,68,-56,-1,-1,0
1523609483693,-917504,68,-56,-1,-1,0
1523609483693,-851968,68,-56,-1,-1,0
1523609483733,-851968,68,-56,-1,-1,0
1523609483733,-720896,68,-56,-1,-1,0
1523609483733,-524288,68,-56,-1,-1,0
1523609483733,-393216,68,-56,-1,-1,0
1523609483733,-327680,68,-56,-1,-1,0
1523609483773,-327680,68,-56,-1,-1,0
1523609483773,-262144,68,-56,-1,-1,0
1523609483773,-196608,68,-56,-1,-1,0
1523609483773,-131072,68,-56,-1,-1,0
1523609483773,0,68,-56,-1,-1,0
1523609483813,65536,68,-56,-1,-1,0
1523609483813,131072,68,-56,-1,-1,0
1523609483813,196608,68,-56,-1,-1,0
1523609483813,589824,68,-56,-1,-1,0
1523609483813,1114112,68,-56,-1,-1,0
1523609483853,1507328,68,-56,-1,-1,0
1523609483853,1572864,68,-56,-1,-1,0
1523609483853,1376256,68,-56,-1,-1,0
1523609483853,917504,68,-56,-1,-1,0
1523609483853,458752,68,-56,-1,-1,0
1523609483893,131072,68,-56,-1,-1,0
1523609483893,0,68,-56,-1,-1,0
1523609483893,0,68,-56,-1,-1,0
1523609483893,65536,68,-56,-1,-1,0
1523609483893,65536,68,-56,-1,-1,0
1523609483933,131072,68,-56,-1,-1,0
1523609483933,131072,68,-56,-1,-1,0
1523609483933,196608,68,-56,-1,-1,0
1523609483933,131072,68,-56,-1,-1,0
1523609483933,131072,68,-56,-1,-1,0
1523609483973,131072,68,-56,-1,-1,0
1523609483973,131072,68,-56,-1,-1,0
1523609483973,65536,68,-56,-1,-1,0
1523609483973,0,68,-56,-1,-1,0
1523609483973,-131072,68,-56,-1,-1,0
1523609484014,-65536,68,-56,-1,-1,0
1523609484014,589824,68,-56,-1,-1,0
1523609484014,2818048,68,-56,-1,-1,0
1523609484014,5701632,68,-56,-1,-1,0
1523609484014,5832704,68,-56,-1,-1,0
1523609484053,2359296,68,-56,-1,-1,0
1523609484053,-1179648,68,-56,-1,-1,0
1523609484053,-1966080,68,-56,-1,-1,0
1523609484053,-1179648,68,-56,-1,-1,0
1523609484053,-393216,68,-56,-1,-1,0
1523609484093,0,68,-56,-1,-1,0
1523609484093,0,68,-56,-1,-1,0
1523609484093,65536,68,-56,-1,-1,0
1523609484093,131072,68,-56,-1,-1,0
1523609484093,65536,68,-56,-1,-1,0
1523609484133,65536,68,-56,-1,-1,0
1523609484133,65536,68,-56,-1,-1,0
1523609484133,131072,68,-56,-1,-1,0
1523609484133,196608,68,-56,-1,-1,0
1523609484133,262144,68,-56,-1,-1,0
1523609484173,327680,69,-56,-1,-1,0
1523609484173,393216,69,-56,-1,-1,0
1523609484173,393216,69,-56,-1,-1,0
1523609484173,393216,69,-56,-1,-1,0
1523609484173,393216,69,-56,-1,-1,0
1523609484213,589824,69,-56,-1,-1,0
1523609484213,720896,69,-56,-1,-1,0
1523609484213,851968,69,-56,-1,-1,0
1523609484213,1048576,69,-56,-1,-1,0
1523609484213,1245184,69,-56,-1,-1,0
1523609484253,1507328,69,-56,-1,-1,0
1523609484253,1703936,69,-56,-1,-1,0
1523609484253,1900544,69,-56,-1,-1,0
1523609484253,1966080,69,-56,-1,-1,0
1523609484253,1900544,69,-56,-1,-1,0
1523609484293,1703936,69,-56,-1,-1,0
1523609484293,1376256,69,-56,-1,-1,0
1523609484293,983040,69,-56,-1,-1,0
1523609484293,589824,69,-56,-1,-1,0
1523609484293,262144,69,-56,-1,-1,0
1523609484333,65536,69,-56,-1,-1,0
1523609484333,0,69,-56,-1,-1,0
1523609484333,-65536,69,-56,-1,-1,0
1523609484333,-196608,69,-56,-1,-1,0
1523609484333,-327680,69,-56,-1,-1,0
1523609484373,-458752,69,-56,-1,-1,0
1523609484373,-524288,69,-56,-1,-1,0
1523609484373,-589824,69,-56,-1,-1,0
1523609484373,-589824,69,-56,-1,-1,0
1523609484373,-655360,69,-56,-1,-1,0
1523609484413,-589824,69,-56,-1,-1,0
1523609484413,-589824,69,-56,-1,-1,0
1523609484413,-524288,69,-56,-1,-1,0
1523609484413,-458752,69,-56,-1,-1,0
1523609484413,-458752,69,-56,-1,-1,0
1523609484453,-458752,69,-56,-1,-1,0
1523609484453,-458752,69,-56,-1,-1,0
1523609484453,-458752,69,-56,-1,-1,0
1523609484453,-393216,69,-56,-1,-1,0
1523609484453,-393216,69,-56,-1,-1,0
1523609484493,-393216,69,-56,-1,-1,0
1523609484493,-458752,69,-56,-1,-1,0
1523609484493,-393216,69,-56,-1,-1,0
1523609484493,-393216,69,-56,-1,-1,0
1523609484493,-393216,69,-56,-1,-1,0
1523609484533,-458752,69,-56,-1,-1,0
1523609484533,-524288,69,-56,-1,-1,0
1523609484533,-589824,69,-56,-1,-1,0
1523609484533,-589824,69,-56,-1,-1,0
1523609484533,-655360,69,-56,-1,-1,0
1523609484573,-655360,69,-56,-1,-1,0
1523609484573,-720896,69,-56,-1,-1,0
1523609484573,-655360,69,-56,-1,-1,0
1523609484573,-655360,69,-56,-1,-1,0
1523609484573,-655360,69,-56,-1,-1,0
1523609484613,-655360,69,-56,-1,-1,0
1523609484613,-655360,69,-56,-1,-1,0
1523609484613,-655360,69,-56,-1,-1,0
1523609484613,-589824,69,-56,-1,-1,0
1523609484613,-589824,69,-56,-1,-1,0
1523609484654,-524288,69,-56,-1,-1,0
1523609484654,-524288,69,-56,-1,-1,0
1523609484654,-524288,69,-56,-1,-1,0
1523609484654,-524288,69,-56,-1,-1,0
1523609484654,-589824,69,-56,-1,-1,0
1523609484693,-655360,69,-56,-1,-1,0
1523609484693,-589824,69,-56,-1,-1,0
1523609484693,-589824,69,-56,-1,-1,0
1523609484693,-524288,69,-56,-1,-1,0
1523609484693,-524288,69,-56,-1,-1,0
1523609484734,-458752,69,-56,-1,-1,0
1523609484734,-327680,69,-56,-1,-1,0
1523609484734,-131072,69,-56,-1,-1,0
1523609484734,0,69,-56,-1,-1,0
1523609484734,0,69,-56,-1,-1,0
1523609484773,-65536,69,-56,-1,-1,0
1523609484773,-196608,69,-56,-1,-1,0
1523609484773,-196608,69,-56,-1,-1,0
1523609484773,-196608,69,-56,-1,-1,0
1523609484773,-196608,69,-56,-1,-1,0
1523609484813,-196608,69,-56,-1,-1,0
1523609484813,-196608,69,-56,-1,-1,0
1523609484813,-196608,69,-56,-1,-1,0
1523609484813,-262144,69,-56,-1,-1,0
1523609484813,-262144,69,-56,-1,-1,0
1523609484853,-262144,69,-56,-1,-1,0
1523609484853,0,69,-56,-1,-1,0
1523609484853,1376256,69,-56,-1,-1,0
1523609484853,4128768,69,-56,-1,-1,0
1523609484853,6225920,69,-56,-1,-1,0
1523609484893,4259840,69,-56,-1,-1,0
1523609484893,0,69,-56,-1,-1,0
1523609484893,-2424832,69,-56,-1,-1,0
1523609484893,-2228224,69,-56,-1,-1,0
1523609484893,-1376256,69,-56,-1,-1,0
1523609484933,-720896,69,-56,-1,-1,0
1523609484933,-393216,69,-56,-1,-1,0
1523609484933,-262144,69,-56,-1,-1,0
1523609484933,-196608,69,-56,-1,-1,0
1523609484933,-131072,69,-56,-1,-1,0
1523609484973,-65536,70,-56,-1,-1,0
1523609484973,0,70,-56,-1,-1,0
1523609484973,0,70,-56,-1,-1,0
1523609484973,65536,70,-56,-1,-1,0
1523609484973,131072,70,-56,-1,-1,0
1523609485013,196608,70,-56,-1,-1,0
1523609485013,262144,70,-56,-1,-1,0
1523609485013,393216,70,-56,-1,-1,0
1523609485013,524288,70,-56,-1,-1,0
1523609485013,655360,70,-56,-1,-1,0
1523609485053,786432,70,-56,-1,-1,0
1523609485053,983040,70,-56,-1,-1,0
1523609485053,1114112,70,-56,-1,-1,0
1523609485053,1245184,70,-56,-1,-1,0
1523609485053,1376256,70,-56,-1,-1,0
1523609485093,1638400,70,-56,-1,-1,0
1523609485093,1835008,70,-56,-1,-1,0
1523609485093,1966080,70,-56,-1,-1,0
1523609485093,1966080,70,-56,-1,-1,0
1523609485093,1966080,70,-56,-1,-1,0
1523609485133,1835008,70,-56,-1,-1,0
1523609485133,1638400,70,-56,-1,-1,0
1523609485133,1310720,70,-56,-1,-1,0
1523609485133,917504,70,-56,-1,-1,0
1523609485133,524288,70,-56,-1,-1,0
1523609485173,327680,70,-56,-1,-1,0
1523609485173,131072,70,-56,-1,-1,0
1523609485173,0,70,-56,-1,-1,0
1523609485173,-196608,70,-56,-1,-1,0
1523609485173,-262144,70,-56,-1,-1,0
1523609485213,-327680,70,-56,-1,-1,0
1523609485213,-393216,70,-56,-1,-1,0
1523609485213,-458752,70,-56,-1,-1,0
1523609485213,-458752,70,-56,-1,-1,0
1523609485213,-458752,70,-56,-1,-1,0
1523609485253,-458752,70,-56,-1,-1,0
1523609485253,-393216,70,-56,-1,-1,0
1523609485253,-393216,70,-56,-1,-1,0
1523609485253,-327680,70,-56,-1,-1,0
1523609485253,-196608,70,-56,-1,-1,0
1523609485294,-196608,70,-56,-1,-1,0
1523609485294,-196608,70,-56,-1,-1,0
1523609485294,-196608,70,-56,-1,-1,0
1523609485294,-262144,70,-56,-1,-1,0
1523609485294,-327680,70,-56,-1,-1,0
1523609485333,-393216,70,-56,-1,-1,0
1523609485333,-393216,70,-56,-1,-1,0
1523609485333,-458752,70,-56,-1,-1,0
1523609485333,-524288,70,-56,-1,-1,0
1523609485333,-524288,70,-56,-1,-1,0
1523609485373,-458752,70,-56,-1,-1,0
1523609485373,-393216,70,-56,-1,-1,0
1523609485373,-393216,70,-56,-1,-1,0
1523609485373,-327680,70,-56,-1,-1,0
1523609485373,-327680,70,-56,-1,-1,0
1523609485413,-327680,70,-56,-1,-1,0
1523609485413,-327680,70,-56,-1,-1,0
1523609485413,-327680,70,-56,-1,-1,0
1523609485413,-327680,70,-56,-1,-1,0
1523609485413,-262144,70,-56,-1,-1,0
1523609485453,-262144,70,-56,-1,-1,0
1523609485453,-262144,70,-56,-1,-1,0
1523609485453,-196608,70,-56,-1,-1,0
1523609485453,-131072,70,-56,-1,-1,0
1523609485453,-196608,70,-56,-1,-1,0
1523609485493,-196608,70,-56,-1,-1,0
1523609485493,-196608,70,-56,-1,-1,0
1523609485493,-131072,70,-56,-1,-1,0
1523609485493,-65536,70,-56,-1,-1,0
1523609485493,0,70,-56,-1,-1,0
1523609485533,65536,70,-56,-1,-1,0
1523609485533,65536,70,-56,-1,-1,0
1523609485533,0,70,-56,-1,-1,0
1523609485533,0,70,-56,-1,-1,0
1523609485533,65536,70,-56,-1,-1,0
1523609485573,196608,70,-56,-1,-1,0
1523609485573,327680,70,-56,-1,-1,0
1523609485573,327680,70,-56,-1,-1,0
1523609485573,196608,70,-56,-1,-1,0
1523609485573,-327680,70,-56,-1,-1,0
1523609485613,-1179648,70,-56,-1,-1,0
1523609485613,-1966080,70,-56,-1,-1,0
1523609485613,-2424832,70,-56,-1,-1,0
1523609485613,-2555904,70,-56,-1,-1,0
1523609485613,-2424832,70,-56,-1,-1,0
1523609485653,-2359296,70,-56,-1,-1,0
1523609485653,-2293760,70,-56,-1,-1,0
1523609485653,-2097152,70,-56,-1,-1,0
1523609485653,-1769472,70,-56,-1,-1,0
1523609485653,-1310720,70,-56,-1,-1,0
1523609485693,-393216,70,-56,-1,-1,0
1523609485693,1572864,70,-56,-1,-1,0
1523609485693,4653056,70,-56,-1,-1,0
1523609485693,5832704,70,-56,-1,-1,0
1523609485693,3014656,70,-56,-1,-1,0
1523609485733,-786432,70,-56,-1,-1,0
1523609485733,-2162688,70,-56,-1,-1,0
1523609485733,-1638400,70,-56,-1,-1,0
1523609485733,-983040,70,-56,-1,-1,0
1523609485733,-524288,70,-56,-1,-1,0
1523609485774,-327680,72,-56,-1,-1,0
1523609485774,-327680,72,-56,-1,-1,0
1523609485774,-393216,72,-56,-1,-1,0
1523609485774,-393216,72,-56,-1,-1,0
1523609485774,-458752,72,-56,-1,-1,0
1523609485813,-393216,72,-56,-1,-1,0
1523609485813,-327680,72,-56,-1,-1,0
1523609485813,-262144,72,-56,-1,-1,0
1523609485813,-196608,72,-56,-1,-1,0
1523609485813,0,72,-56,-1,-1,0
1523609485853,262144,72,-56,-1,-1,0
1523609485853,458752,72,-56,-1,-1,0
1523609485853,786432,72,-56,-1,-1,0
1523609485853,1048576,72,-56,-1,-1,0
1523609485853,1245184,72,-56,-1,-1,0
1523609485893,1376256,72,-56,-1,-1,0
1523609485893,1507328,72,-56,-1,-1,0
1523609485893,1638400,72,-56,-1,-1,0
1523609485893,1769472,72,-56,-1,-1,0
1523609485893,1966080,72,-56,-1,-1,0
1523609485934,2162688,72,-56,-1,-1,0
1523609485934,2228224,72,-56,-1,-1,0
1523609485934,2162688,72,-56,-1,-1,0
1523609485934,2031616,72,-56,-1,-1,0
1523609485934,1703936,72,-56,-1,-1,0
1523609485973,1376256,72,-56,-1,-1,0
1523609485973,917504,72,-56,-1,-1,0
1523609485973,458752,72,-56,-1,-1,0
1523609485973,65536,72,-56,-1,-1,0
1523609485973,-131072,72,-56,-1,-1,0
1523609486013,-393216,72,-56,-1,-1,0
1523609486013,-524288,72,-56,-1,-1,0
1523609486013,-589824,72,-56,-1,-1,0
1523609486013,-589824,72,-56,-1,-1,0
1523609486013,-655360,72,-56,-1,-1,0
1523609486053,-655360,72,-56,-1,-1,0
1523609486053,-589824,72,-56,-1,-1,0
1523609486053,-589824,72,-56,-1,-1,0
1523609486053,-524288,72,-56,-1,-1,0
1523609486053,-458752,72,-56,-1,-1,0
1523609486093,-524288,72,-56,-1,-1,0
1523609486093,-589824,72,-56,-1,-1,0
1523609486093,-655360,72,-56,-1,-1,0
1523609486093,-851968,72,-56,-1,-1,0
1523609486093,-983040,72,-56,-1,-1,0
1523609486133,-1114112,72,-56,-1,-1,0
1523609486133,-1245184,72,-56,-1,-1,0
1523609486133,-1245184,72,-56,-1,-1,0
1523609486133,-1179648,72,-56,-1,-1,0
1523609486133,-1048576,72,-56,-1,-1,0
1523609486173,-1048576,72,-56,-1,-1,0
1523609486173,-1048576,72,-56,-1,-1,0
1523609486173,-1114112,72,-56,-1,-1,0
1523609486173,-1114112,72,-56,-1,-1,0
1523609486173,-1179648,72,-56,-1,-1,0
1523609486213,-1310720,72,-56,-1,-1,0
1523609486213,-1441792,72,-56,-1,-1,0
1523609486213,-1441792,72,-56,-1,-1,0
1523609486213,-1441792,72,-56,-1,-1,0
1523609486213,-1376256,72,-56,-1,-1,0
1523609486253,-1376256,72,-56,-1,-1,0
1523609486253,-1310720,72,-56,-1,-1,0
1523609486253,-1245184,72,-56,-1,-1,0
1523609486253,-1179648,72,-56,-1,-1,0
1523609486253,-1048576,72,-56,-1,-1,0
1523609486293,-917504,72,-56,-1,-1,0
1523609486293,-851968,72,-56,-1,-1,0
1523609486293,-851968,72,-56,-1,-1,0
1523609486293,-655360,72,-56,-1,-1,0
1523609486293,-262144,72,-56,-1,-1,0
1523609486333,0,72,-56,-1,-1,0
1523609486333,131072,72,-56,-1,-1,0
1523609486333,196608,72,-56,-1,-1,0
1523609486333,262144,72,-56,-1,-1,0
1523609486333,524288,72,-56,-1,-1,0
1523609486373,720896,72,-56,-1,-1,0
1523609486373,851968,72,-56,-1,-1,0
1523609486373,851968,72,-56,-1,-1,0
1523609486373,655360,72,-56,-1,-1,0
1523609486373,458752,72,-56,-1,-1,0
1523609486413,393216,72,-56,-1,-1,0
1523609486413,262144,72,-56,-1,-1,0
1523609486413,131072,72,-56,-1,-1,0
1523609486413,0,72,-56,-1,-1,0
1523609486413,-131072,72,-56,-1,-1,0
1523609486453,-262144,72,-56,-1,-1,0
1523609486453,-458752,72,-56,-1,-1,0
1523609486453,-589824,72,-56,-1,-1,0
1523609486453,-720896,72,-56,-1,-1,0
1523609486453,-393216,72,-56,-1,-1,0
1523609486493,1114112,72,-56,-1,-1,0
1523609486493,3866624,72,-56,-1,-1,0
1523609486493,5177344,72,-56,-1,-1,0
1523609486493,2424832,72,-56,-1,-1,0
1523609486493,-1507328,72,-56,-1,-1,0
1523609486533,-2949120,72,-56,-1,-1,0
1523609486533,-2228224,72,-56,-1,-1,0
1523609486533,-1179648,72,-56,-1,-1,0
1523609486533,-393216,72,-56,-1,-1,0
1523609486533,0,72,-56,-1,-1,0
1523609486574,65536,73,-56,-1,-1,0
1523609486574,196608,73,-56,-1,-1,0
1523609486574,262144,73,-56,-1,-1,0
1523609486574,327680,73,-56,-1,-1,0
1523609486574,393216,73,-56,-1,-1,0
1523609486613,393216,73,-56,-1,-1,0
1523609486613,393216,73,-56,-1,-1,0
1523609486613,524288,73,-56,-1,-1,0
1523609486613,655360,73,-56,-1,-1,0
1523609486613,786432,73,-56,-1,-1,0
1523609486653,851968,73,-56,-1,-1,0
1523609486653,983040,73,-56,-1,-1,0
1523609486653,1048576,73,-56,-1,-1,0
1523609486653,1114112,73,-56,-1,-1,0
1523609486653,1179648,73,-56,-1,-1,0
1523609486693,1310720,73,-56,-1,-1,0
1523609486693,1507328,73,-56,-1,-1,0
1523609486693,1769472,73,-56,-1,-1,0
1523609486693,1966080,73,-56,-1,-1,0
1523609486693,2097152,73,-56,-1,-1,0
1523609486733,2228224,73,-56,-1,-1,0
1523609486733,2228224,73,-56,-1,-1,0
1523609486733,2031616,73,-56,-1,-1,0
1523609486733,1835008,73,-56,-1,-1,0
1523609486733,1507328,73,-56,-1,-1,0
1523609486773,1179648,73,-56,-1,-1,0
1523609486773,917504,73,-56,-1,-1,0
1523609486773,720896,73,-56,-1,-1,0
1523609486773,720896,73,-56,-1,-1,0
1523609486773,720896,73,-56,-1,-1,0
1523609486813,720896,73,-56,-1,-1,0
1523609486813,786432,73,-56,-1,-1,0
1523609486813,851968,73,-56,-1,-1,0
1523609486813,917504,73,-56,-1,-1,0
1523609486813,983040,73,-56,-1,-1,0
1523609486853,983040,73,-56,-1,-1,0
1523609486853,851968,73,-56,-1,-1,0
1523609486853,720896,73,-56,-1,-1,0
1523609486853,655360,73,-56,-1,-1,0
1523609486853,655360,73,-56,-1,-1,0
1523609486893,655360,73,-56,-1,-1,0
1523609486893,655360,73,-56,-1,-1,0
1523609486893,655360,73,-56,-1,-1,0
1523609486893,589824,73,-56,-1,-1,0
1523609486893,524288,73,-56,-1,-1,0
1523609486933,458752,73,-56,-1,-1,0
1523609486933,393216,73,-56,-1,-1,0
1523609486933,327680,73,-56,-1,-1,0
1523609486933,65536,73,-56,-1,-1,0
1523609486933,-196608,73,-56,-1,-1,0
1523609486973,-327680,73,-56,-1,-1,0
1523609486973,-458752,73,-56,-1,-1,0
1523609486973,-655360,73,-56,-1,-1,0
1523609486973,-917504,73,-56,-1,-1,0
1523609486973,-1179648,73,-56,-1,-1,0
1523609487013,-1245184,73,-56,-1,-1,0
1523609487013,-1179648,73,-56,-1,-1,0
1523609487013,-1114112,73,-56,-1,-1,0
1523609487013,-1114112,73,-56,-1,-1,0
1523609487013,-1179648,73,-56,-1,-1,0
1523609487053,-1245184,73,-56,-1,-1,0
1523609487053,-1245184,73,-56,-1,-1,0
1523609487053,-1179648,73,-56,-1,-1,0
1523609487053,-1048576,73,-56,-1,-1,0
1523609487053,-917504,73,-56,-1,-1,0
1523609487093,-655360,73,-56,-1,-1,0
1523609487093,-458752,73,-56,-1,-1,0
1523609487093,-262144,73,-56,-1,-1,0
1523609487093,-131072,73,-56,-1,-1,0
1523609487093,-131072,73,-56,-1,-1,0
1523609487133,-131072,73,-56,-1,-1,0
1523609487133,-196608,73,-56,-1,-1,0
1523609487133,-393216,73,-56,-1,-1,0
1523609487133,-786432,73,-56,-1,-1,0
1523609487133,-1245184,73,-56,-1,-1,0
1523609487173,-1572864,73,-56,-1,-1,0
1523609487173,-1900544,73,-56,-1,-1,0
1523609487173,-2293760,73,-56,-1,-1,0
1523609487173,-2752512,73,-56,-1,-1,0
1523609487173,-3342336,73,-56,-1,-1,0
1523609487214,-3932160,73,-56,-1,-1,0
1523609487214,-4390912,73,-56,-1,-1,0
1523609487214,-4521984,73,-56,-1,-1,0
1523609487214,-4587520,73,-56,-1,-1,0
1523609487214,-4718592,73,-56,-1,-1,0
1523609487253,-4849664,73,-56,-1,-1,0
1523609487253,-5046272,73,-56,-1,-1,0
1523609487253,-5242880,73,-56,-1,-1,0
1523609487253,-5505024,73,-56,-1,-1,0
1523609487253,-5701632,73,-56,-1,-1,0
1523609487293,-5767168,73,-56,-1,-1,0
1523609487293,-5308416,73,-56,-1,-1,0
1523609487293,-3604480,73,-56,-1,-1,0
1523609487293,-655360,73,-56,-1,-1,0
1523609487293,589824,73,-56,-1,-1,0
1523609487333,-2293760,73,-56,-1,-1,0
1523609487333,-6750208,73,-56,-1,-1,0
1523609487333,-8585216,73,-56,-1,-1,0
1523609487333,-8192000,73,-56,-1,-1,0
1523609487333,-7471104,73,-56,-1,-1,0
1523609487373,-7012352,73,-56,-1,-1,0
1523609487373,-6881280,73,-56,-1,-1,0
1523609487373,-6815744,73,-56,-1,-1,0
1523609487373,-6750208,73,-56,-1,-1,0
1523609487373,-6684672,73,-56,-1,-1,0
1523609487413,-6553600,73,-56,-1,-1,0
1523609487413,-6422528,73,-56,-1,-1,0
1523609487413,-6160384,73,-56,-1,-1,0
1523609487413,-5832704,73,-56,-1,-1,0
1523609487413,-5505024,73,-56,-1,-1,0
1523609487453,-5177344,73,-56,-1,-1,0
1523609487453,-4784128,73,-56,-1,-1,0
1523609487453,-4325376,73,-56,-1,-1,0
1523609487453,-3932160,73,-56,-1,-1,0
1523609487453,-3538944,73,-56,-1,-1,0
1523609487493,-3276800,73,-56,-1,-1,0
1523609487493,-3342336,73,-56,-1,-1,0
1523609487493,-3473408,73,-56,-1,-1,0
1523609487493,-3407872,73,-56,-1,-1,0
1523609487493,-3276800,73,-56,-1,-1,0
1523609487533,-2883584,73,-56,-1,-1,0
1523609487533,-2097152,73,-56,-1,-1,0
1523609487533,-1048576,73,-56,-1,-1,0
1523609487533,-262144,73,-56,-1,-1,0
1523609487533,0,73,-56,-1,-1,0
1523609487573,-458752,73,-56,-1,-1,0
1523609487573,-1507328,73,-56,-1,-1,0
1523609487573,-2818048,73,-56,-1,-1,0
1523609487573,-4063232,73,-56,-1,-1,0
1523609487573,-4849664,73,-56,-1,-1,0
1523609487613,-5242880,73,-56,-1,-1,0
1523609487613,-5439488,73,-56,-1,-1,0
1523609487613,-5373952,73,-56,-1,-1,0
1523609487613,-5177344,73,-56,-1,-1,0
1523609487613,-4587520,73,-56,-1,-1,0
1523609487653,-3538944,73,-56,-1,-1,0
1523609487653,-2359296,73,-56,-1,-1,0
1523609487653,-1376256,73,-56,-1,-1,0
1523609487653,-524288,73,-56,-1,-1,0
1523609487653,262144,73,-56,-1,-1,0
1523609487693,1376256,73,-56,-1,-1,0
1523609487693,2818048,73,-56,-1,-1,0
1523609487693,3997696,73,-56,-1,-1,0
1523609487693,4456448,73,-56,-1,-1,0
1523609487693,3997696,73,-56,-1,-1,0
1523609487733,3145728,73,-56,-1,-1,0
1523609487733,2293760,73,-56,-1,-1,0
1523609487733,1572864,73,-56,-1,-1,0
1523609487733,983040,73,-56,-1,-1,0
1523609487733,196608,73,-56,-1,-1,0
1523609487773,-720896,73,-56,-1,-1,0
1523609487773,-1572864,73,-56,-1,-1,0
1523609487773,-2359296,73,-56,-1,-1,0
1523609487773,-3473408,73,-56,-1,-1,0
1523609487773,-4653056,73,-56,-1,-1,0
1523609487813,-5439488,73,-56,-1,-1,0
1523609487813,-5832704,73,-56,-1,-1,0
1523609487813,-6094848,73,-56,-1,-1,0
1523609487813,-6291456,73,-56,-1,-1,0
1523609487813,-6225920,73,-56,-1,-1,0
1523609487854,-5898240,73,-56,-1,-1,0
1523609487854,-5439488,73,-56,-1,-1,0
1523609487854,-4915200,73,-56,-1,-1,0
1523609487854,-4325376,73,-56,-1,-1,0
1523609487854,-3670016,73,-56,-1,-1,0
1523609487893,-3145728,73,-56,-1,-1,0
1523609487893,-2949120,73,-56,-1,-1,0
1523609487893,-2818048,73,-56,-1,-1,0
1523609487893,-2752512,73,-56,-1,-1,0
1523609487893,-2424832,73,-56,-1,-1,0
1523609487933,-1703936,73,-56,-1,-1,0
1523609487933,-327680,73,-56,-1,-1,0
1523609487933,1638400,73,-56,-1,-1,0
1523609487933,3604480,73,-56,-1,-1,0
1523609487933,4980736,73,-56,-1,-1,0
1523609487973,5767168,73,-56,-1,-1,0
1523609487973,6553600,73,-56,-1,-1,0
1523609487973,7340032,73,-56,-1,-1,0
1523609487973,7864320,73,-56,-1,-1,0
1523609487973,8192000,73,-56,-1,-1,0
1523609488013,8519680,73,-56,-1,-1,0
1523609488013,8781824,73,-56,-1,-1,0
1523609488013,8847360,73,-56,-1,-1,0
1523609488013,8519680,73,-56,-1,-1,0
1523609488013,7798784,73,-56,-1,-1,0
1523609488053,7077888,73,-56,-1,-1,0
1523609488053,6488064,73,-56,-1,-1,0
1523609488053,6160384,73,-56,-1,-1,0
1523609488053,6160384,73,-56,-1,-1,0
1523609488053,6619136,73,-56,-1,-1,0
1523609488093,7536640,73,-56,-1,-1,0
1523609488093,9043968,73,-56,-1,-1,0
1523609488093,11468800,73,-56,-1,-1,0
1523609488093,13893632,73,-56,-1,-1,0
1523609488093,15532032,73,-56,-1,-1,0
1523609488133,17235968,73,-56,-1,-1,0
1523609488133,19398656,73,-56,-1,-1,0
1523609488133,19857408,73,-56,-1,-1,0
1523609488133,14745600,73,-56,-1,-1,0
1523609488133,7208960,73,-56,-1,-1,0
1523609488173,2949120,73,-56,-1,-1,0
1523609488173,1900544,73,-56,-1,-1,0
1523609488173,1245184,73,-56,-1,-1,0
1523609488173,458752,73,-56,-1,-1,0
1523609488173,-524288,73,-56,-1,-1,0
1523609488219,-2293760,73,-56,-1,-1,0
1523609488219,-3604480,73,-56,-1,-1,0
1523609488219,-3997696,73,-56,-1,-1,0
1523609488219,-3670016,73,-56,-1,-1,0
1523609488219,-3473408,73,-56,-1,-1,0
1523609488259,-3473408,73,-56,-1,-1,0
1523609488259,-3866624,73,-56,-1,-1,0
1523609488259,-3997696,73,-56,-1,-1,0
1523609488259,-3997696,73,-56,-1,-1,0
1523609488259,-4194304,73,-56,-1,-1,0
1523609488299,-4259840,73,-56,-1,-1,0
1523609488299,-4325376,73,-56,-1,-1,0
1523609488299,-4259840,73,-56,-1,-1,0
1523609488299,-3866624,73,-56,-1,-1,0
1523609488299,-3145728,73,-56,-1,-1,0
1523609488339,-2097152,73,-56,-1,-1,0
1523609488339,-327680,73,-56,-1,-1,0
1523609488339,1507328,73,-56,-1,-1,0
1523609488339,2752512,73,-56,-1,-1,0
1523609488339,3473408,73,-56,-1,-1,0
1523609488379,4259840,73,-56,-1,-1,0
1523609488379,5177344,73,-56,-1,-1,0
1523609488379,6160384,73,-56,-1,-1,0
1523609488379,7077888,73,-56,-1,-1,0
1523609488379,7471104,73,-56,-1,-1,0
1523609488419,7405568,73,-56,-1,-1,0
1523609488419,7208960,73,-56,-1,-1,0
1523609488419,7143424,73,-56,-1,-1,0
1523609488419,7143424,73,-56,-1,-1,0
1523609488419,7012352,73,-56,-1,-1,0
1523609488459,6881280,73,-56,-1,-1,0
1523609488459,7143424,73,-56,-1,-1,0
1523609488459,7536640,73,-56,-1,-1,0
1523609488459,8192000,73,-56,-1,-1,0
1523609488459,8781824,73,-56,-1,-1,0
1523609488500,9175040,73,-56,-1,-1,0
1523609488500,9371648,73,-56,-1,-1,0
1523609488500,9568256,73,-56,-1,-1,0
1523609488500,9699328,73,-56,-1,-1,0
1523609488500,9764864,73,-56,-1,-1,0
1523609488539,9699328,73,-56,-1,-1,0
1523609488539,9437184,73,-56,-1,-1,0
1523609488539,8978432,73,-56,-1,-1,0
1523609488539,8454144,73,-56,-1,-1,0
1523609488539,7995392,73,-56,-1,-1,0
1523609488579,7602176,73,-56,-1,-1,0
1523609488579,7208960,73,-56,-1,-1,0
1523609488579,6881280,73,-56,-1,-1,0
1523609488579,6750208,73,-56,-1,-1,0
1523609488579,6684672,73,-56,-1,-1,0
1523609488619,6619136,73,-56,-1,-1,0
1523609488619,6225920,73,-56,-1,-1,0
1523609488619,5373952,73,-56,-1,-1,0
1523609488619,3997696,73,-56,-1,-1,0
1523609488619,2490368,73,-56,-1,-1,0
1523609488659,2097152,73,-56,-1,-1,0
1523609488659,3211264,73,-56,-1,-1,0
1523609488659,4849664,73,-56,-1,-1,0
1523609488659,6160384,73,-56,-1,-1,0
1523609488659,7012352,73,-56,-1,-1,0
1523609488699,7471104,73,-56,-1,-1,0
1523609488699,7602176,73,-56,-1,-1,0
1523609488699,7340032,73,-56,-1,-1,0
1523609488699,6946816,73,-56,-1,-1,0
1523609488699,6291456,73,-56,-1,-1,0
1523609488739,5439488,73,-56,-1,-1,0
1523609488739,4128768,73,-56,-1,-1,0
1523609488739,1900544,73,-56,-1,-1,0
1523609488739,-851968,73,-56,-1,-1,0
1523609488739,-3014656,73,-56,-1,-1,0
1523609488779,-3538944,73,-56,-1,-1,0
1523609488779,-2686976,73,-56,-1,-1,0
1523609488779,-1245184,73,-56,-1,-1,0
1523609488779,-262144,73,-56,-1,-1,0
1523609488779,196608,73,-56,-1,-1,0
1523609488819,851968,73,-56,-1,-1,0
1523609488819,1441792,73,-56,-1,-1,0
1523609488819,1966080,73,-56,-1,-1,0
1523609488819,2359296,73,-56,-1,-1,0
1523609488819,2752512,73,-56,-1,-1,0
1523609488859,3080192,73,-56,-1,-1,0
1523609488859,3276800,73,-56,-1,-1,0
1523609488859,3014656,73,-56,-1,-1,0
1523609488859,2293760,73,-56,-1,-1,0
1523609488859,2031616,73,-56,-1,-1,0
1523609488900,917504,73,-56,-1,-1,0
1523609488900,-65536,73,-56,-1,-1,0
1523609488900,-393216,73,-56,-1,-1,0
1523609488900,655360,73,-56,-1,-1,0
1523609488900,2490368,73,-56,-1,-1,0
1523609488939,2818048,73,-56,-1,-1,0
1523609488939,1900544,73,-56,-1,-1,0
1523609488939,1638400,73,-56,-1,-1,0
1523609488939,2621440,73,-56,-1,-1,0
1523609488939,4521984,73,-56,-1,-1,0
1523609488979,7208960,73,-56,-1,-1,0
1523609488979,7012352,73,-56,-1,-1,0
1523609488979,3080192,73,-56,-1,-1,0
1523609488979,-917504,73,-56,-1,-1,0
1523609488979,-2031616,73,-56,-1,-1,0
1523609489019,-1507328,73,-56,-1,-1,0
1523609489019,-262144,73,-56,-1,-1,0
1523609489019,655360,73,-56,-1,-1,0
1523609489019,720896,73,-56,-1,-1,0
1523609489019,327680,73,-56,-1,-1,0
1523609489059,-393216,73,-56,-1,-1,0
1523609489059,-786432,73,-56,-1,-1,0
1523609489059,-1114112,73,-56,-1,-1,0
1523609489059,-1245184,73,-56,-1,-1,0
1523609489059,-1376256,73,-56,-1,-1,0
1523609489099,-1572864,73,-56,-1,-1,0
1523609489099,-2228224,73,-56,-1,-1,0
1523609489099,-2752512,73,-56,-1,-1,0
1523609489099,-3080192,73,-56,-1,-1,0
1523609489099,-3080192,73,-56,-1,-1,0
1523609489140,-2818048,73,-56,-1,-1,0
1523609489140,-2490368,73,-56,-1,-1,0
1523609489140,-1966080,73,-56,-1,-1,0
1523609489140,-1572864,73,-56,-1,-1,0
1523609489140,-1310720,73,-56,-1,-1,0
1523609489179,-917504,73,-56,-1,-1,0
1523609489179,-917504,73,-56,-1,-1,0
1523609489179,-458752,73,-56,-1,-1,0
1523609489179,327680,73,-56,-1,-1,0
1523609489179,851968,73,-56,-1,-1,0
1523609489219,589824,73,-56,-1,-1,0
1523609489219,393216,73,-56,-1,-1,0
1523609489219,131072,73,-56,-1,-1,0
1523609489219,-327680,73,-56,-1,-1,0
1523609489219,-655360,73,-56,-1,-1,0
1523609489259,-3014656,73,-56,-1,-1,0
1523609489259,-2162688,73,-56,-1,-1,0
1523609489259,-2490368,73,-56,-1,-1,0
1523609489259,-2883584,73,-56,-1,-1,0
1523609489259,-4521984,73,-56,-1,-1,0
1523609489299,-4390912,73,-56,-1,-1,0
1523609489299,-4128768,73,-56,-1,-1,0
1523609489299,-4587520,73,-56,-1,-1,0
1523609489299,-5177344,73,-56,-1,-1,0
1523609489299,-5832704,73,-56,-1,-1,0
1523609489339,-6422528,73,-56,-1,-1,0
1523609489339,-6619136,73,-56,-1,-1,0
1523609489339,-6488064,73,-56,-1,-1,0
1523609489339,-5898240,73,-56,-1,-1,0
1523609489339,-5439488,73,-56,-1,-1,0
1523609489379,-7405568,73,-56,-1,-1,0
1523609489379,-9437184,73,-56,-1,-1,0
1523609489379,-9043968,73,-56,-1,-1,0
1523609489379,-9306112,73,-56,-1,-1,0
1523609489379,-8781824,73,-56,-1,-1,0
1523609489419,-8388608,73,-56,-1,-1,0
1523609489419,-7274496,73,-56,-1,-1,0
1523609489419,-6422528,73,-56,-1,-1,0
1523609489419,-5636096,73,-56,-1,-1,0
1523609489419,-5177344,73,-56,-1,-1,0
1523609489459,-4653056,73,-56,-1,-1,0
1523609489459,-4259840,73,-56,-1,-1,0
1523609489459,-3801088,73,-56,-1,-1,0
1523609489459,-3866624,73,-56,-1,-1,0
1523609489459,-4063232,73,-56,-1,-1,0
1523609489499,-4390912,73,-56,-1,-1,0
1523609489499,-4456448,73,-56,-1,-1,0
1523609489499,-4194304,73,-56,-1,-1,0
1523609489499,-3932160,73,-56,-1,-1,0
1523609489499,-3276800,73,-56,-1,-1,0
1523609489539,-2686976,73,-56,-1,-1,0
1523609489539,-2097152,73,-56,-1,-1,0
1523609489539,-2031616,73,-56,-1,-1,0
1523609489539,-2228224,73,-56,-1,-1,0
1523609489539,-3080192,73,-56,-1,-1,0
1523609489579,-3342336,73,-56,-1,-1,0
1523609489579,-3801088,73,-56,-1,-1,0
1523609489579,-4259840,73,-56,-1,-1,0
1523609489579,-4718592,73,-56,-1,-1,0
1523609489579,-4784128,73,-56,-1,-1,0
1523609489619,-4587520,73,-56,-1,-1,0
1523609489619,-4259840,73,-56,-1,-1,0
1523609489619,-3997696,73,-56,-1,-1,0
1523609489619,-3604480,73,-56,-1,-1,0
1523609489619,-2818048,73,-56,-1,-1,0
1523609489659,-2162688,73,-56,-1,-1,0
1523609489659,-1310720,73,-56,-1,-1,0
1523609489659,-917504,73,-56,-1,-1,0
1523609489659,-1507328,73,-56,-1,-1,0
1523609489659,-2293760,73,-56,-1,-1,0
1523609489699,-2818048,73,-56,-1,-1,0
1523609489699,-3080192,73,-56,-1,-1,0
1523609489699,-3211264,73,-56,-1,-1,0
1523609489699,-3145728,73,-56,-1,-1,0
1523609489699,-3211264,73,-56,-1,-1,0
1523609489739,-3342336,73,-56,-1,-1,0
1523609489739,-3211264,73,-56,-1,-1,0
1523609489739,-2818048,73,-56,-1,-1,0
1523609489739,-2490368,73,-56,-1,-1,0
1523609489739,-1900544,73,-56,-1,-1,0
1523609489780,-131072,73,-56,-1,-1,0
1523609489780,2883584,73,-56,-1,-1,0
1523609489780,4456448,73,-56,-1,-1,0
1523609489780,2031616,73,-56,-1,-1,0
1523609489780,-1638400,73,-56,-1,-1,0
1523609489819,-3145728,73,-56,-1,-1,0
1523609489819,-2490368,73,-56,-1,-1,0
1523609489819,-1179648,73,-56,-1,-1,0
1523609489819,-196608,73,-56,-1,-1,0
1523609489819,-65536,73,-56,-1,-1,0
1523609489859,-327680,73,-56,-1,-1,0
1523609489859,-458752,73,-56,-1,-1,0
1523609489859,-851968,73,-56,-1,-1,0
1523609489859,-1441792,73,-56,-1,-1,0
1523609489859,-1572864,73,-56,-1,-1,0
1523609489899,-1114112,73,-56,-1,-1,0
1523609489899,-589824,73,-56,-1,-1,0
1523609489899,-131072,73,-56,-1,-1,0
1523609489899,262144,73,-56,-1,-1,0
1523609489899,589824,73,-56,-1,-1,0
1523609489939,1179648,73,-56,-1,-1,0
1523609489939,1179648,73,-56,-1,-1,0
1523609489939,1048576,73,-56,-1,-1,0
1523609489939,1179648,73,-56,-1,-1,0
1523609489939,1179648,73,-56,-1,-1,0
1523609489979,1507328,73,-56,-1,-1,0
1523609489979,1835008,73,-56,-1,-1,0
1523609489979,1769472,73,-56,-1,-1,0
1523609489979,1769472,73,-56,-1,-1,0
1523609489979,2162688,73,-56,-1,-1,0
1523609490019,2162688,73,-56,-1,-1,0
1523609490019,2686976,73,-56,-1,-1,0
1523609490019,3276800,73,-56,-1,-1,0
1523609490019,3014656,73,-56,-1,-1,0
1523609490019,2293760,73,-56,-1,-1,0
1523609490059,917504,73,-56,-1,-1,0
1523609490059,-524288,73,-56,-1,-1,0
1523609490059,-1966080,73,-56,-1,-1,0
1523609490059,-3145728,73,-56,-1,-1,0
1523609490059,-3735552,73,-56,-1,-1,0
1523609490099,-3735552,73,-56,-1,-1,0
1523609490099,-3145728,73,-56,-1,-1,0
1523609490099,-2424832,73,-56,-1,-1,0
1523609490099,-1835008,73,-56,-1,-1,0
1523609490099,-1441792,73,-56,-1,-1,0
1523609490139,-1048576,73,-56,-1,-1,0
1523609490139,-786432,73,-56,-1,-1,0
1523609490139,-786432,73,-56,-1,-1,0
1523609490139,-851968,73,-56,-1,-1,0
1523609490139,-917504,73,-56,-1,-1,0
1523609490179,-851968,73,-56,-1,-1,0
1523609490179,-786432,73,-56,-1,-1,0
1523609490179,-458752,73,-56,-1,-1,0
1523609490179,0,73,-56,-1,-1,0
1523609490179,262144,73,-56,-1,-1,0
1523609490219,327680,73,-56,-1,-1,0
1523609490219,196608,73,-56,-1,-1,0
1523609490219,0,73,-56,-1,-1,0
1523609490219,0,73,-56,-1,-1,0
1523609490219,393216,73,-56,-1,-1,0
1523609490259,655360,73,-56,-1,-1,0
1523609490259,786432,73,-56,-1,-1,0
1523609490259,589824,73,-56,-1,-1,0
1523609490259,65536,73,-56,-1,-1,0
1523609490259,-458752,73,-56,-1,-1,0
1523609490299,-983040,73,-56,-1,-1,0
1523609490299,-786432,73,-56,-1,-1,0
1523609490299,-65536,73,-56,-1,-1,0
1523609490299,589824,73,-56,-1,-1,0
1523609490299,851968,73,-56,-1,-1,0
1523609490339,917504,73,-56,-1,-1,0
1523609490339,983040,73,-56,-1,-1,0
1523609490339,786432,73,-56,-1,-1,0
1523609490339,524288,73,-56,-1,-1,0
1523609490339,0,73,-56,-1,-1,0
1523609490379,-524288,73,-56,-1,-1,0
1523609490379,-1048576,73,-56,-1,-1,0
1523609490379,-1376256,73,-56,-1,-1,0
1523609490379,-1441792,73,-56,-1,-1,0
1523609490379,-1179648,73,-56,-1,-1,0
1523609490420,-720896,73,-56,-1,-1,0
1523609490420,-196608,73,-56,-1,-1,0
1523609490420,262144,73,-56,-1,-1,0
1523609490420,524288,73,-56,-1,-1,0
1523609490420,458752,73,-56,-1,-1,0
1523609490459,196608,73,-56,-1,-1,0
1523609490459,65536,73,-56,-1,-1,0
1523609490459,-131072,73,-56,-1,-1,0
1523609490459,-393216,73,-56,-1,-1,0
1523609490459,-458752,73,-56,-1,-1,0
1523609490499,-589824,73,-56,-1,-1,0
1523609490499,-589824,73,-56,-1,-1,0
1523609490499,-458752,73,-56,-1,-1,0
1523609490499,-262144,73,-56,-1,-1,0
1523609490499,0,73,-56,-1,-1,0
1523609490539,65536,73,-56,-1,-1,0
1523609490539,131072,73,-56,-1,-1,0
1523609490539,0,73,-56,-1,-1,0
1523609490539,-131072,73,-56,-1,-1,0
1523609490539,-262144,73,-56,-1,-1,0
1523609490579,-262144,73,-56,-1,-1,0
1523609490579,-262144,73,-56,-1,-1,0
1523609490579,-262144,73,-56,-1,-1,0
1523609490579,-196608,73,-56,-1,-1,0
1523609490579,-131072,73,-56,-1,-1,0
1523609490619,-65536,73,-56,-1,-1,0
1523609490619,0,73,-56,-1,-1,0
1523609490619,0,73,-56,-1,-1,0
1523609490619,0,73,-56,-1,-1,0
1523609490619,1114112,73,-56,-1,-1,0
1523609490659,3866624,73,-56,-1,-1,0
1523609490659,6946816,73,-56,-1,-1,0
1523609490659,6160384,73,-56,-1,-1,0
1523609490659,1638400,73,-56,-1,-1,0
1523609490659,-2228224,73,-56,-1,-1,0
1523609490699,-3342336,73,-56,-1,-1,0
1523609490699,-3342336,73,-56,-1,-1,0
1523609490699,-3538944,73,-56,-1,-1,0
1523609490699,-3997696,73,-56,-1,-1,0
1523609490699,-1376256,73,-56,-1,-1,0
1523609490739,2031616,73,-56,-1,-1,0
1523609490739,4784128,73,-56,-1,-1,0
1523609490739,5111808,73,-56,-1,-1,0
1523609490739,4849664,73,-56,-1,-1,0
1523609490739,4456448,73,-56,-1,-1,0
1523609490779,3670016,73,-56,-1,-1,0
1523609490779,3276800,73,-56,-1,-1,0
1523609490779,3014656,73,-56,-1,-1,0
1523609490779,2883584,73,-56,-1,-1,0
1523609490779,3014656,73,-56,-1,-1,0
1523609490819,3211264,73,-56,-1,-1,0
1523609490819,3670016,73,-56,-1,-1,0
1523609490819,4063232,73,-56,-1,-1,0
1523609490819,4456448,73,-56,-1,-1,0
1523609490819,4456448,73,-56,-1,-1,0
1523609490859,4587520,73,-56,-1,-1,0
1523609490859,4456448,73,-56,-1,-1,0
1523609490859,4521984,73,-56,-1,-1,0
1523609490859,4390912,73,-56,-1,-1,0
1523609490859,4521984,73,-56,-1,-1,0
1523609490899,4456448,73,-56,-1,-1,0
1523609490899,4390912,73,-56,-1,-1,0
1523609490899,3932160,73,-56,-1,-1,0
1523609490899,3407872,73,-56,-1,-1,0
1523609490899,2621440,73,-56,-1,-1,0
1523609490939,2031616,73,-56,-1,-1,0
1523609490939,1441792,73,-56,-1,-1,0
1523609490939,1114112,73,-56,-1,-1,0
1523609490939,1048576,73,-56,-1,-1,0
1523609490939,1179648,73,-56,-1,-1,0
1523609490979,1179648,73,-56,-1,-1,0
1523609490979,917504,73,-56,-1,-1,0
1523609490979,589824,73,-56,-1,-1,0
1523609490979,196608,73,-56,-1,-1,0
1523609490979,0,73,-56,-1,-1,0
1523609491019,-131072,73,-56,-1,-1,0
1523609491019,-131072,73,-56,-1,-1,0
1523609491019,-196608,73,-56,-1,-1,0
1523609491019,-131072,73,-56,-1,-1,0
1523609491019,-131072,73,-56,-1,-1,0
1523609491060,-131072,73,-56,-1,-1,0
1523609491060,-131072,73,-56,-1,-1,0
1523609491060,-65536,73,-56,-1,-1,0
1523609491060,0,73,-56,-1,-1,0
1523609491060,65536,73,-56,-1,-1,0
1523609491099,1179648,73,-56,-1,-1,0
1523609491099,851968,73,-56,-1,-1,0
1523609491099,-720896,73,-56,-1,-1,0
1523609491099,-1703936,73,-56,-1,-1,0
1523609491099,-2228224,73,-56,-1,-1,0
1523609491139,-2555904,73,-56,-1,-1,0
1523609491139,-2555904,73,-56,-1,-1,0
1523609491139,-2621440,73,-56,-1,-1,0
1523609491139,-2752512,73,-56,-1,-1,0
1523609491139,-2818048,73,-56,-1,-1,0
1523609491179,-2621440,73,-56,-1,-1,0
1523609491179,-2490368,73,-56,-1,-1,0
1523609491179,-2424832,73,-56,-1,-1,0
1523609491179,-2555904,73,-56,-1,-1,0
1523609491179,-2686976,73,-56,-1,-1,0
1523609491219,-2949120,73,-56,-1,-1,0
1523609491219,-2949120,73,-56,-1,-1,0
1523609491219,-2621440,73,-56,-1,-1,0
1523609491219,-2097152,73,-56,-1,-1,0
1523609491219,-2162688,73,-56,-1,-1,0
1523609491259,-1572864,73,-56,-1,-1,0
1523609491259,-1114112,73,-56,-1,-1,0
1523609491259,-786432,73,-56,-1,-1,0
1523609491259,-458752,73,-56,-1,-1,0
1523609491259,-327680,73,-56,-1,-1,0
1523609491299,-262144,73,-56,-1,-1,0
1523609491299,-262144,73,-56,-1,-1,0
1523609491299,-327680,73,-56,-1,-1,0
1523609491299,-327680,73,-56,-1,-1,0
1523609491299,-393216,73,-56,-1,-1,0
1523609491339,-524288,73,-56,-1,-1,0
1523609491339,-393216,73,-56,-1,-1,0
1523609491339,-393216,73,-56,-1,-1,0
1523609491339,-720896,73,-56,-1,-1,0
1523609491339,-851968,73,-56,-1,-1,0
1523609491379,-1114112,73,-56,-1,-1,0
1523609491379,-1310720,73,-56,-1,-1,0
1523609491379,-1376256,73,-56,-1,-1,0
1523609491379,-1376256,73,-56,-1,-1,0
1523609491379,-1245184,73,-56,-1,-1,0
1523609491419,-983040,73,-56,-1,-1,0
1523609491419,-786432,73,-56,-1,-1,0
1523609491419,-786432,73,-56,-1,-1,0
1523609491419,-983040,73,-56,-1,-1,0
1523609491419,-1376256,73,-56,-1,-1,0
1523609491459,-1769472,73,-56,-1,-1,0
1523609491459,-131072,73,-56,-1,-1,0
1523609491459,1376256,73,-56,-1,-1,0
1523609491459,1048576,73,-56,-1,-1,0
1523609491459,786432,73,-56,-1,-1,0
1523609491499,1900544,73,-56,-1,-1,0
1523609491499,1638400,73,-56,-1,-1,0
1523609491499,0,73,-56,-1,-1,0
1523609491499,-1703936,73,-56,-1,-1,0
1523609491499,-2031616,73,-56,-1,-1,0
1523609491539,-1835008,73,-56,-1,-1,0
1523609491539,-983040,73,-56,-1,-1,0
1523609491539,2424832,73,-56,-1,-1,0
1523609491539,7274496,73,-56,-1,-1,0
1523609491539,7143424,73,-56,-1,-1,0
1523609491579,2818048,73,-56,-1,-1,0
1523609491579,-1310720,73,-56,-1,-1,0
1523609491579,-2621440,73,-56,-1,-1,0
1523609491579,-2097152,73,-56,-1,-1,0
1523609491579,-1703936,73,-56,-1,-1,0
1523609491619,-1638400,73,-56,-1,-1,0
1523609491619,-1769472,73,-56,-1,-1,0
1523609491619,-1703936,73,-56,-1,-1,0
1523609491619,-1638400,73,-56,-1,-1,0
1523609491619,-1507328,73,-56,-1,-1,0
1523609491659,-851968,73,-56,-1,-1,0
1523609491659,-786432,73,-56,-1,-1,0
1523609491659,-1507328,73,-56,-1,-1,0
1523609491659,-1900544,73,-56,-1,-1,0
1523609491659,-1310720,73,-56,-1,-1,0
1523609491700,-917504,73,-56,-1,-1,0
1523609491700,-983040,73,-56,-1,-1,0
1523609491700,-1048576,73,-56,-1,-1,0
1523609491700,-1048576,73,-56,-1,-1,0
1523609491700,-720896,73,-56,-1,-1,0
1523609491739,-458752,73,-56,-1,-1,0
1523609491739,-589824,73,-56,-1,-1,0
1523609491739,-393216,73,-56,-1,-1,0
1523609491739,-65536,73,-56,-1,-1,0
1523609491739,131072,73,-56,-1,-1,0
1523609491779,65536,73,-56,-1,-1,0
1523609491779,327680,73,-56,-1,-1,0
1523609491779,458752,73,-56,-1,-1,0
1523609491779,720896,73,-56,-1,-1,0
1523609491779,917504,73,-56,-1,-1,0
1523609491819,1114112,73,-56,-1,-1,0
1523609491819,786432,73,-56,-1,-1,0
1523609491819,327680,73,-56,-1,-1,0
1523609491819,-65536,73,-56,-1,-1,0
1523609491819,-524288,73,-56,-1,-1,0
1523609491859,-917504,73,-56,-1,-1,0
1523609491859,-1114112,73,-56,-1,-1,0
1523609491859,-1179648,73,-56,-1,-1,0
1523609491859,-1048576,73,-56,-1,-1,0
1523609491859,458752,73,-56,-1,-1,0
1523609491899,917504,73,-56,-1,-1,0
1523609491899,1310720,73,-56,-1,-1,0
1523609491899,1114112,73,-56,-1,-1,0
1523609491899,720896,73,-56,-1,-1,0
1523609491899,458752,73,-56,-1,-1,0
1523609491939,65536,73,-56,-1,-1,0
1523609491939,-131072,73,-56,-1,-1,0
1523609491939,-131072,73,-56,-1,-1,0
1523609491939,0,73,-56,-1,-1,0
1523609491939,131072,73,-56,-1,-1,0
1523609491979,196608,73,-56,-1,-1,0
1523609491979,196608,73,-56,-1,-1,0
1523609491979,0,73,-56,-1,-1,0
1523609491979,-65536,73,-56,-1,-1,0
1523609491979,-262144,73,-56,-1,-1,0
1523609492019,-327680,73,-56,-1,-1,0
1523609492019,-458752,73,-56,-1,-1,0
1523609492019,-393216,73,-56,-1,-1,0
1523609492019,-393216,73,-56,-1,-1,0
1523609492019,-196608,73,-56,-1,-1,0
1523609492059,-262144,73,-56,-1,-1,0
1523609492059,-327680,73,-56,-1,-1,0
1523609492059,-589824,73,-56,-1,-1,0
1523609492059,-655360,73,-56,-1,-1,0
1523609492059,-851968,73,-56,-1,-1,0
1523609492099,-1048576,73,-56,-1,-1,0
1523609492099,-1179648,73,-56,-1,-1,0
1523609492099,-1114112,73,-56,-1,-1,0
1523609492099,-1114112,73,-56,-1,-1,0
1523609492099,-1114112,73,-56,-1,-1,0
1523609492139,-1310720,73,-56,-1,-1,0
1523609492139,-1441792,73,-56,-1,-1,0
1523609492139,-1441792,73,-56,-1,-1,0
1523609492139,-1376256,73,-56,-1,-1,0
1523609492139,-1310720,73,-56,-1,-1,0
1523609492179,-1310720,73,-56,-1,-1,0
1523609492179,-1310720,73,-56,-1,-1,0
1523609492179,-1245184,73,-56,-1,-1,0
1523609492179,-1114112,73,-56,-1,-1,0
1523609492179,-983040,73,-56,-1,-1,0
1523609492219,-851968,73,-56,-1,-1,0
1523609492219,-851968,73,-56,-1,-1,0
1523609492219,-786432,73,-56,-1,-1,0
1523609492219,-720896,73,-56,-1,-1,0
1523609492219,-720896,73,-56,-1,-1,0
1523609492259,-720896,73,-56,-1,-1,0
1523609492259,-655360,73,-56,-1,-1,0
1523609492259,-589824,73,-56,-1,-1,0
1523609492259,-524288,73,-56,-1,-1,0
1523609492259,-458752,73,-56,-1,-1,0
1523609492299,-327680,73,-56,-1,-1,0
1523609492299,-65536,73,-56,-1,-1,0
1523609492299,65536,73,-56,-1,-1,0
1523609492299,65536,73,-56,-1,-1,0
1523609492299,196608,73,-56,-1,-1,0
1523609492340,1835008,73,-56,-1,-1,0
1523609492340,2031616,73,-56,-1,-1,0
1523609492340,1114112,73,-56,-1,-1,0
1523609492340,589824,73,-56,-1,-1,0
1523609492340,-65536,73,-56,-1,-1,0
1523609492379,-524288,73,-56,-1,-1,0
1523609492379,-983040,73,-56,-1,-1,0
1523609492379,-1441792,73,-56,-1,-1,0
1523609492379,-1703936,73,-56,-1,-1,0
1523609492379,-1900544,73,-56,-1,-1,0
1523609492419,-1703936,73,-56,-1,-1,0
1523609492419,-1048576,73,-56,-1,-1,0
1523609492419,720896,73,-56,-1,-1,0
1523609492419,4063232,73,-56,-1,-1,0
1523609492419,6750208,73,-56,-1,-1,0
1523609492459,4259840,73,-56,-1,-1,0
1523609492459,1245184,73,-56,-1,-1,0
1523609492459,196608,73,-56,-1,-1,0
1523609492459,262144,73,-56,-1,-1,0
1523609492459,851968,73,-56,-1,-1,0
1523609492499,1245184,73,-56,-1,-1,0
1523609492499,1310720,73,-56,-1,-1,0
1523609492499,1441792,73,-56,-1,-1,0
1523609492499,1507328,73,-56,-1,-1,0
1523609492499,1703936,73,-56,-1,-1,0
1523609492539,1703936,73,-56,-1,-1,0
1523609492539,1900544,73,-56,-1,-1,0
1523609492539,1900544,73,-56,-1,-1,0
1523609492539,2031616,73,-56,-1,-1,0
1523609492539,1966080,73,-56,-1,-1,0
1523609492579,1966080,72,-56,-1,-1,0
1523609492579,1835008,72,-56,-1,-1,0
1523609492579,1835008,72,-56,-1,-1,0
1523609492579,2031616,72,-56,-1,-1,0
1523609492579,2818048,72,-56,-1,-1,0
1523609492619,4980736,72,-56,-1,-1,0
1523609492619,5373952,72,-56,-1,-1,0
1523609492619,4063232,72,-56,-1,-1,0
1523609492619,3211264,72,-56,-1,-1,0
1523609492619,2621440,72,-56,-1,-1,0
1523609492659,2293760,72,-56,-1,-1,0
1523609492659,2031616,72,-56,-1,-1,0
1523609492659,1703936,72,-56,-1,-1,0
1523609492659,1179648,72,-56,-1,-1,0
1523609492659,655360,72,-56,-1,-1,0
1523609492699,196608,72,-56,-1,-1,0
1523609492699,-262144,72,-56,-1,-1,0
1523609492699,-655360,72,-56,-1,-1,0
1523609492699,-983040,72,-56,-1,-1,0
1523609492699,-1048576,72,-56,-1,-1,0
1523609492739,-1245184,72,-56,-1,-1,0
1523609492739,-1376256,72,-56,-1,-1,0
1523609492739,-1507328,72,-56,-1,-1,0
1523609492739,-1441792,72,-56,-1,-1,0
1523609492739,-1441792,72,-56,-1,-1,0
1523609492779,-1376256,72,-56,-1,-1,0
1523609492779,-1507328,72,-56,-1,-1,0
1523609492779,-1703936,72,-56,-1,-1,0
1523609492779,-1376256,72,-56,-1,-1,0
1523609492779,851968,72,-56,-1,-1,0
1523609492819,1638400,72,-56,-1,-1,0
1523609492819,1441792,72,-56,-1,-1,0
1523609492819,1310720,72,-56,-1,-1,0
1523609492819,1245184,72,-56,-1,-1,0
1523609492819,1376256,72,-56,-1,-1,0
1523609492859,1310720,72,-56,-1,-1,0
1523609492859,1245184,72,-56,-1,-1,0
1523609492859,1179648,72,-56,-1,-1,0
1523609492859,1245184,72,-56,-1,-1,0
1523609492859,1179648,72,-56,-1,-1,0
1523609492899,1179648,72,-56,-1,-1,0
1523609492899,1048576,72,-56,-1,-1,0
1523609492899,917504,72,-56,-1,-1,0
1523609492899,786432,72,-56,-1,-1,0
1523609492899,589824,72,-56,-1,-1,0
1523609492939,327680,72,-56,-1,-1,0
1523609492939,131072,72,-56,-1,-1,0
1523609492939,0,72,-56,-1,-1,0
1523609492939,0,72,-56,-1,-1,0
1523609492939,0,72,-56,-1,-1,0
1523609492980,0,72,-56,-1,-1,0
1523609492980,0,72,-56,-1,-1,0
1523609492980,-65536,72,-56,-1,-1,0
1523609492980,-131072,72,-56,-1,-1,0
1523609492980,0,72,-56,-1,-1,0
1523609493019,2359296,72,-56,-1,-1,0
1523609493019,3014656,72,-56,-1,-1,0
1523609493019,1966080,72,-56,-1,-1,0
1523609493019,1376256,72,-56,-1,-1,0
1523609493019,917504,72,-56,-1,-1,0
1523609493059,589824,72,-56,-1,-1,0
1523609493059,393216,72,-56,-1,-1,0
1523609493059,65536,72,-56,-1,-1,0
1523609493059,0,72,-56,-1,-1,0
1523609493059,-327680,72,-56,-1,-1,0
1523609493099,-851968,72,-56,-1,-1,0
1523609493099,-1114112,72,-56,-1,-1,0
1523609493099,-655360,72,-56,-1,-1,0
1523609493099,-327680,72,-56,-1,-1,0
1523609493099,0,72,-56,-1,-1,0
1523609493139,-65536,72,-56,-1,-1,0
1523609493139,-458752,72,-56,-1,-1,0
1523609493139,-983040,72,-56,-1,-1,0
1523609493139,-917504,72,-56,-1,-1,0
1523609493139,-589824,72,-56,-1,-1,0
1523609493179,-196608,72,-56,-1,-1,0
1523609493179,65536,72,-56,-1,-1,0
1523609493179,131072,72,-56,-1,-1,0
1523609493179,-262144,72,-56,-1,-1,0
1523609493179,-393216,72,-56,-1,-1,0
1523609493219,-458752,72,-56,-1,-1,0
1523609493219,-393216,72,-56,-1,-1,0
1523609493219,-262144,72,-56,-1,-1,0
1523609493219,-262144,72,-56,-1,-1,0
1523609493219,-786432,72,-56,-1,-1,0
1523609493259,-1638400,72,-56,-1,-1,0
1523609493259,-2359296,72,-56,-1,-1,0
1523609493259,-2818048,72,-56,-1,-1,0
1523609493259,-2883584,72,-56,-1,-1,0
1523609493259,-2883584,72,-56,-1,-1,0
1523609493299,-2949120,72,-56,-1,-1,0
1523609493299,-2883584,72,-56,-1,-1,0
1523609493299,-2359296,72,-56,-1,-1,0
1523609493299,-589824,72,-56,-1,-1,0
1523609493299,2228224,72,-56,-1,-1,0
1523609493339,4063232,72,-56,-1,-1,0
1523609493339,2031616,72,-56,-1,-1,0
1523609493339,-1638400,72,-56,-1,-1,0
1523609493339,-3211264,72,-56,-1,-1,0
1523609493339,-2555904,72,-56,-1,-1,0
1523609493379,-1703936,72,-56,-1,-1,0
1523609493379,-1245184,72,-56,-1,-1,0
1523609493379,-1048576,72,-56,-1,-1,0
1523609493379,-786432,72,-56,-1,-1,0
1523609493379,-655360,72,-56,-1,-1,0
1523609493419,-589824,72,-56,-1,-1,0
1523609493419,-524288,72,-56,-1,-1,0
1523609493419,-327680,72,-56,-1,-1,0
1523609493419,-65536,72,-56,-1,-1,0
1523609493419,131072,72,-56,-1,-1,0
1523609493459,262144,72,-56,-1,-1,0
1523609493459,393216,72,-56,-1,-1,0
1523609493459,524288,72,-56,-1,-1,0
1523609493459,655360,72,-56,-1,-1,0
1523609493459,589824,72,-56,-1,-1,0
1523609493499,393216,72,-56,-1,-1,0
1523609493499,458752,72,-56,-1,-1,0
1523609493499,393216,72,-56,-1,-1,0
1523609493499,131072,72,-56,-1,-1,0
1523609493499,65536,72,-56,-1,-1,0
1523609493539,0,71,-56,-1,-1,0
1523609493539,0,71,-56,-1,-1,0
1523609493539,0,71,-56,-1,-1,0
1523609493539,-65536,71,-56,-1,-1,0
1523609493539,0,71,-56,-1,-1,0
1523609493579,131072,71,-56,-1,-1,0
1523609493579,65536,71,-56,-1,-1,0
1523609493579,-262144,71,-56,-1,-1,0
1523609493579,-589824,71,-56,-1,-1,0
1523609493579,-720896,71,-56,-1,-1,0
1523609493620,-720896,71,-56,-1,-1,0
1523609493620,-720896,71,-56,-1,-1,0
1523609493620,-786432,71,-56,-1,-1,0
1523609493620,-983040,71,-56,-1,-1,0
1523609493620,-786432,71,-56,-1,-1,0
1523609493659,-393216,71,-56,-1,-1,0
1523609493659,-262144,71,-56,-1,-1,0
1523609493659,-131072,71,-56,-1,-1,0
1523609493659,0,71,-56,-1,-1,0
1523609493659,0,71,-56,-1,-1,0
1523609493699,-196608,71,-56,-1,-1,0
1523609493699,-524288,71,-56,-1,-1,0
1523609493699,-720896,71,-56,-1,-1,0
1523609493699,-655360,71,-56,-1,-1,0
1523609493699,-720896,71,-56,-1,-1,0
1523609493739,-1048576,71,-56,-1,-1,0
1523609493739,-1376256,71,-56,-1,-1,0
1523609493739,-1441792,71,-56,-1,-1,0
1523609493739,-1507328,71,-56,-1,-1,0
1523609493739,-1638400,71,-56,-1,-1,0
1523609493779,-1703936,71,-56,-1,-1,0
1523609493779,-1703936,71,-56,-1,-1,0
1523609493779,-1900544,71,-56,-1,-1,0
1523609493779,-2162688,71,-56,-1,-1,0
1523609493779,-2359296,71,-56,-1,-1,0
1523609493819,-2424832,71,-56,-1,-1,0
1523609493819,-2293760,71,-56,-1,-1,0
1523609493819,-2162688,71,-56,-1,-1,0
1523609493819,-1966080,71,-56,-1,-1,0
1523609493819,-1769472,71,-56,-1,-1,0
1523609493859,-1638400,71,-56,-1,-1,0
1523609493859,-1376256,71,-56,-1,-1,0
1523609493859,-1179648,71,-56,-1,-1,0
1523609493859,-851968,71,-56,-1,-1,0
1523609493859,-393216,71,-56,-1,-1,0
1523609493899,-65536,71,-56,-1,-1,0
1523609493899,0,71,-56,-1,-1,0
1523609493899,65536,71,-56,-1,-1,0
1523609493899,327680,71,-56,-1,-1,0
1523609493899,327680,71,-56,-1,-1,0
1523609493939,262144,71,-56,-1,-1,0
1523609493939,262144,71,-56,-1,-1,0
1523609493939,-65536,71,-56,-1,-1,0
1523609493939,-458752,71,-56,-1,-1,0
1523609493939,262144,71,-56,-1,-1,0
1523609493979,524288,71,-56,-1,-1,0
1523609493979,983040,71,-56,-1,-1,0
1523609493979,720896,71,-56,-1,-1,0
1523609493979,393216,71,-56,-1,-1,0
1523609493979,327680,71,-56,-1,-1,0
1523609494019,262144,71,-56,-1,-1,0
1523609494019,393216,71,-56,-1,-1,0
1523609494019,524288,71,-56,-1,-1,0
1523609494019,655360,71,-56,-1,-1,0
1523609494019,786432,71,-56,-1,-1,0
1523609494059,720896,71,-56,-1,-1,0
1523609494059,589824,71,-56,-1,-1,0
1523609494059,393216,71,-56,-1,-1,0
1523609494059,393216,71,-56,-1,-1,0
1523609494059,262144,71,-56,-1,-1,0
1523609494099,262144,71,-56,-1,-1,0
1523609494099,393216,71,-56,-1,-1,0
1523609494099,589824,71,-56,-1,-1,0
1523609494099,655360,71,-56,-1,-1,0
1523609494099,786432,71,-56,-1,-1,0
1523609494139,655360,71,-56,-1,-1,0
1523609494139,655360,71,-56,-1,-1,0
1523609494139,524288,71,-56,-1,-1,0
1523609494139,327680,71,-56,-1,-1,0
1523609494139,-851968,71,-56,-1,-1,0
1523609494179,-1179648,71,-56,-1,-1,0
1523609494179,-1048576,71,-56,-1,-1,0
1523609494179,-1048576,71,-56,-1,-1,0
1523609494179,-917504,71,-56,-1,-1,0
1523609494179,-524288,71,-56,-1,-1,0
1523609494219,-65536,71,-56,-1,-1,0
1523609494219,0,71,-56,-1,-1,0
1523609494219,786432,71,-56,-1,-1,0
1523609494219,3473408,71,-56,-1,-1,0
1523609494219,6422528,71,-56,-1,-1,0
1523609494260,5701632,71,-56,-1,-1,0
1523609494260,1572864,71,-56,-1,-1,0
1523609494260,-1769472,71,-56,-1,-1,0
1523609494260,-2293760,71,-56,-1,-1,0
1523609494260,-1572864,71,-56,-1,-1,0
1523609494300,-983040,71,-56,-1,-1,0
1523609494300,-786432,71,-56,-1,-1,0
1523609494300,-983040,71,-56,-1,-1,0
1523609494300,-1179648,71,-56,-1,-1,0
1523609494300,-1245184,71,-56,-1,-1,0
1523609494339,-1114112,71,-56,-1,-1,0
1523609494339,-917504,71,-56,-1,-1,0
1523609494339,-589824,71,-56,-1,-1,0
1523609494339,-327680,71,-56,-1,-1,0
1523609494339,-196608,71,-56,-1,-1,0
1523609494379,-327680,71,-56,-1,-1,0
1523609494379,-327680,71,-56,-1,-1,0
1523609494379,-262144,71,-56,-1,-1,0
1523609494379,-196608,71,-56,-1,-1,0
1523609494379,0,71,-56,-1,-1,0
1523609494419,0,71,-56,-1,-1,0
1523609494419,0,71,-56,-1,-1,0
1523609494419,0,71,-56,-1,-1,0
1523609494419,131072,71,-56,-1,-1,0
1523609494419,524288,71,-56,-1,-1,0
1523609494459,983040,71,-56,-1,-1,0
1523609494459,1441792,71,-56,-1,-1,0
1523609494459,1835008,71,-56,-1,-1,0
1523609494459,2162688,71,-56,-1,-1,0
1523609494459,2293760,71,-56,-1,-1,0
1523609494499,2293760,71,-56,-1,-1,0
1523609494499,2228224,71,-56,-1,-1,0
1523609494499,1900544,71,-56,-1,-1,0
1523609494499,1376256,71,-56,-1,-1,0
1523609494499,720896,71,-56,-1,-1,0
1523609494539,262144,71,-56,-1,-1,0
1523609494539,65536,71,-56,-1,-1,0
1523609494539,0,71,-56,-1,-1,0
1523609494539,-65536,71,-56,-1,-1,0
1523609494539,-262144,71,-56,-1,-1,0
1523609494579,-524288,71,-56,-1,-1,0
1523609494579,-720896,71,-56,-1,-1,0
1523609494579,-851968,71,-56,-1,-1,0
1523609494579,-1048576,71,-56,-1,-1,0
1523609494579,-1245184,71,-56,-1,-1,0
1523609494619,-1179648,71,-56,-1,-1,0
1523609494619,-917504,71,-56,-1,-1,0
1523609494619,-720896,71,-56,-1,-1,0
1523609494619,-655360,71,-56,-1,-1,0
1523609494619,-589824,71,-56,-1,-1,0
1523609494659,-524288,71,-56,-1,-1,0
1523609494659,-393216,71,-56,-1,-1,0
1523609494659,-327680,71,-56,-1,-1,0
1523609494659,-327680,71,-56,-1,-1,0
1523609494659,-327680,71,-56,-1,-1,0
1523609494699,-196608,71,-56,-1,-1,0
1523609494699,0,71,-56,-1,-1,0
1523609494699,65536,71,-56,-1,-1,0
1523609494699,0,71,-56,-1,-1,0
1523609494699,-196608,71,-56,-1,-1,0
1523609494739,-393216,71,-56,-1,-1,0
1523609494739,-720896,71,-56,-1,-1,0
1523609494739,-917504,71,-56,-1,-1,0
1523609494739,-851968,71,-56,-1,-1,0
1523609494739,-786432,71,-56,-1,-1,0
1523609494779,-655360,71,-56,-1,-1,0
1523609494779,-393216,71,-56,-1,-1,0
1523609494779,-196608,71,-56,-1,-1,0
1523609494779,0,71,-56,-1,-1,0
1523609494779,65536,71,-56,-1,-1,0
1523609494819,262144,71,-56,-1,-1,0
1523609494819,458752,71,-56,-1,-1,0
1523609494819,393216,71,-56,-1,-1,0
1523609494819,0,71,-56,-1,-1,0
1523609494819,-393216,71,-56,-1,-1,0
1523609494859,-917504,71,-56,-1,-1,0
1523609494859,-983040,71,-56,-1,-1,0
1523609494859,-983040,71,-56,-1,-1,0
1523609494859,-1048576,71,-56,-1,-1,0
1523609494859,-1114112,71,-56,-1,-1,0
1523609494900,-1310720,71,-56,-1,-1,0
1523609494900,-1376256,71,-56,-1,-1,0
1523609494900,-1310720,71,-56,-1,-1,0
1523609494900,-1048576,71,-56,-1,-1,0
1523609494900,-786432,71,-56,-1,-1,0
1523609494939,-786432,71,-56,-1,-1,0
1523609494939,-720896,71,-56,-1,-1,0
1523609494939,-655360,71,-56,-1,-1,0
1523609494939,-589824,71,-56,-1,-1,0
1523609494939,-655360,71,-56,-1,-1,0
1523609494979,-786432,71,-56,-1,-1,0
1523609494979,-1114112,71,-56,-1,-1,0
1523609494979,-983040,71,-56,-1,-1,0
1523609494979,-655360,71,-56,-1,-1,0
1523609494979,-458752,71,-56,-1,-1,0
1523609495019,-262144,71,-56,-1,-1,0
1523609495019,-131072,71,-56,-1,-1,0
1523609495019,0,71,-56,-1,-1,0
1523609495019,0,71,-56,-1,-1,0
1523609495019,0,71,-56,-1,-1,0
1523609495059,131072,71,-56,-1,-1,0
1523609495059,196608,71,-56,-1,-1,0
1523609495059,262144,71,-56,-1,-1,0
1523609495059,327680,71,-56,-1,-1,0
1523609495059,524288,71,-56,-1,-1,0
1523609495099,1376256,71,-56,-1,-1,0
1523609495099,3735552,71,-56,-1,-1,0
1523609495099,6881280,71,-56,-1,-1,0
1523609495099,7274496,71,-56,-1,-1,0
1523609495099,3670016,71,-56,-1,-1,0
1523609495139,65536,71,-56,-1,-1,0
1523609495139,-589824,71,-56,-1,-1,0
1523609495139,0,71,-56,-1,-1,0
1523609495139,589824,71,-56,-1,-1,0
1523609495139,786432,71,-56,-1,-1,0
1523609495179,851968,71,-56,-1,-1,0
1523609495179,917504,71,-56,-1,-1,0
1523609495179,983040,71,-56,-1,-1,0
1523609495179,1114112,71,-56,-1,-1,0
1523609495179,1179648,71,-56,-1,-1,0
1523609495219,1245184,71,-56,-1,-1,0
1523609495219,1245184,71,-56,-1,-1,0
1523609495219,1245184,71,-56,-1,-1,0
1523609495219,1179648,71,-56,-1,-1,0
1523609495219,1114112,71,-56,-1,-1,0
1523609495259,1048576,70,-56,-1,-1,0
1523609495259,1179648,70,-56,-1,-1,0
1523609495259,1114112,70,-56,-1,-1,0
1523609495259,720896,70,-56,-1,-1,0
1523609495259,262144,70,-56,-1,-1,0
1523609495299,0,70,-56,-1,-1,0
1523609495299,458752,70,-56,-1,-1,0
1523609495299,1048576,70,-56,-1,-1,0
1523609495299,1572864,70,-56,-1,-1,0
1523609495299,1900544,70,-56,-1,-1,0
1523609495339,2097152,70,-56,-1,-1,0
1523609495339,2097152,70,-56,-1,-1,0
1523609495339,1966080,70,-56,-1,-1,0
1523609495339,1900544,70,-56,-1,-1,0
1523609495339,1769472,70,-56,-1,-1,0
1523609495379,1441792,70,-56,-1,-1,0
1523609495379,1114112,70,-56,-1,-1,0
1523609495379,917504,70,-56,-1,-1,0
1523609495379,655360,70,-56,-1,-1,0
1523609495379,393216,70,-56,-1,-1,0
1523609495419,196608,70,-56,-1,-1,0
1523609495419,1703936,70,-56,-1,-1,0
1523609495419,3538944,70,-56,-1,-1,0
1523609495419,3997696,70,-56,-1,-1,0
1523609495419,3473408,70,-56,-1,-1,0
1523609495459,2752512,70,-56,-1,-1,0
1523609495459,2228224,70,-56,-1,-1,0
1523609495459,1572864,70,-56,-1,-1,0
1523609495459,917504,70,-56,-1,-1,0
1523609495459,196608,70,-56,-1,-1,0
1523609495499,-327680,70,-56,-1,-1,0
1523609495499,-655360,70,-56,-1,-1,0
1523609495499,-917504,70,-56,-1,-1,0
1523609495499,-983040,70,-56,-1,-1,0
1523609495499,-1179648,70,-56,-1,-1,0
1523609495540,-1245184,70,-56,-1,-1,0
1523609495540,-1376256,70,-56,-1,-1,0
1523609495540,-1310720,70,-56,-1,-1,0
1523609495540,-1179648,70,-56,-1,-1,0
1523609495540,-1114112,70,-56,-1,-1,0
1523609495579,-1114112,70,-56,-1,-1,0
1523609495579,-1245184,70,-56,-1,-1,0
1523609495579,-1572864,70,-56,-1,-1,0
1523609495579,-2031616,70,-56,-1,-1,0
1523609495579,-2818048,70,-56,-1,-1,0
1523609495619,-2686976,70,-56,-1,-1,0
1523609495619,-2752512,70,-56,-1,-1,0
1523609495619,-3276800,70,-56,-1,-1,0
1523609495619,-3735552,70,-56,-1,-1,0
1523609495619,-3932160,70,-56,-1,-1,0
1523609495659,-3997696,70,-56,-1,-1,0
1523609495659,-3932160,70,-56,-1,-1,0
1523609495659,-4063232,70,-56,-1,-1,0
1523609495659,-4259840,70,-56,-1,-1,0
1523609495659,-4194304,70,-56,-1,-1,0
1523609495699,-3866624,70,-56,-1,-1,0
1523609495699,-3538944,70,-56,-1,-1,0
1523609495699,-3276800,70,-56,-1,-1,0
1523609495699,-3014656,70,-56,-1,-1,0
1523609495699,-2686976,70,-56,-1,-1,0
1523609495739,-2293760,70,-56,-1,-1,0
1523609495739,-1769472,70,-56,-1,-1,0
1523609495739,-1179648,70,-56,-1,-1,0
1523609495739,-655360,70,-56,-1,-1,0
1523609495739,-327680,70,-56,-1,-1,0
1523609495779,0,70,-56,-1,-1,0
1523609495779,-131072,70,-56,-1,-1,0
1523609495779,-458752,70,-56,-1,-1,0
1523609495779,-851968,70,-56,-1,-1,0
1523609495779,-851968,70,-56,-1,-1,0
1523609495819,-851968,70,-56,-1,-1,0
1523609495819,-655360,70,-56,-1,-1,0
1523609495819,-262144,70,-56,-1,-1,0
1523609495819,0,70,-56,-1,-1,0
1523609495819,262144,70,-56,-1,-1,0
1523609495859,655360,70,-56,-1,-1,0
1523609495859,983040,70,-56,-1,-1,0
1523609495859,1114112,70,-56,-1,-1,0
1523609495859,1048576,70,-56,-1,-1,0
1523609495859,983040,70,-56,-1,-1,0
1523609495899,786432,70,-56,-1,-1,0
1523609495899,655360,70,-56,-1,-1,0
1523609495899,786432,70,-56,-1,-1,0
1523609495899,851968,70,-56,-1,-1,0
1523609495899,720896,70,-56,-1,-1,0
1523609495939,393216,70,-56,-1,-1,0
1523609495939,393216,70,-56,-1,-1,0
1523609495939,393216,70,-56,-1,-1,0
1523609495939,458752,70,-56,-1,-1,0
1523609495939,655360,70,-56,-1,-1,0
1523609495979,917504,70,-56,-1,-1,0
1523609495979,1507328,70,-56,-1,-1,0
1523609495979,3670016,70,-56,-1,-1,0
1523609495979,7012352,70,-56,-1,-1,0
1523609495979,8323072,70,-56,-1,-1,0
1523609496019,5505024,70,-56,-1,-1,0
1523609496019,1638400,70,-56,-1,-1,0
1523609496019,65536,70,-56,-1,-1,0
1523609496019,524288,70,-56,-1,-1,0
1523609496019,1376256,70,-56,-1,-1,0
1523609496059,2031616,70,-56,-1,-1,0
1523609496059,2359296,70,-56,-1,-1,0
1523609496059,2621440,70,-56,-1,-1,0
1523609496059,2883584,70,-56,-1,-1,0
1523609496059,3211264,70,-56,-1,-1,0
1523609496099,3604480,70,-56,-1,-1,0
1523609496099,3997696,70,-56,-1,-1,0
1523609496099,4390912,70,-56,-1,-1,0
1523609496099,4587520,70,-56,-1,-1,0
1523609496099,4718592,70,-56,-1,-1,0
1523609496139,4718592,70,-56,-1,-1,0
1523609496139,4718592,70,-56,-1,-1,0
1523609496139,4653056,70,-56,-1,-1,0
1523609496139,4653056,70,-56,-1,-1,0
1523609496139,4587520,70,-56,-1,-1,0
1523609496180,4390912,69,-56,-1,-1,0
1523609496180,4194304,69,-56,-1,-1,0
1523609496180,4128768,69,-56,-1,-1,0
1523609496180,4390912,69,-56,-1,-1,0
1523609496180,4653056,69,-56,-1,-1,0
1523609496219,4784128,69,-56,-1,-1,0
1523609496219,4587520,69,-56,-1,-1,0
1523609496219,4325376,69,-56,-1,-1,0
1523609496219,3997696,69,-56,-1,-1,0
1523609496219,3538944,69,-56,-1,-1,0
1523609496259,3014656,69,-56,-1,-1,0
1523609496259,2621440,69,-56,-1,-1,0
1523609496259,2228224,69,-56,-1,-1,0
1523609496259,1900544,69,-56,-1,-1,0
1523609496259,1638400,69,-56,-1,-1,0
1523609496299,1376256,69,-56,-1,-1,0
1523609496299,983040,69,-56,-1,-1,0
1523609496299,458752,69,-56,-1,-1,0
1523609496299,196608,69,-56,-1,-1,0
1523609496299,-65536,69,-56,-1,-1,0
1523609496339,-589824,69,-56,-1,-1,0
1523609496339,-1310720,69,-56,-1,-1,0
1523609496339,-2228224,69,-56,-1,-1,0
1523609496339,-3211264,69,-56,-1,-1,0
1523609496339,-4063232,69,-56,-1,-1,0
1523609496379,-4653056,69,-56,-1,-1,0
1523609496379,-5242880,69,-56,-1,-1,0
1523609496379,-5701632,69,-56,-1,-1,0
1523609496379,-5570560,69,-56,-1,-1,0
1523609496379,-5177344,69,-56,-1,-1,0
1523609496419,-4849664,69,-56,-1,-1,0
1523609496419,-4456448,69,-56,-1,-1,0
1523609496419,-4128768,69,-56,-1,-1,0
1523609496419,-3932160,69,-56,-1,-1,0
1523609496419,-3997696,69,-56,-1,-1,0
1523609496459,-4128768,69,-56,-1,-1,0
1523609496459,-4194304,69,-56,-1,-1,0
1523609496459,-4325376,69,-56,-1,-1,0
1523609496459,-4456448,69,-56,-1,-1,0
1523609496459,-4456448,69,-56,-1,-1,0
1523609496499,-4456448,69,-56,-1,-1,0
1523609496499,-4587520,69,-56,-1,-1,0
1523609496499,-4915200,69,-56,-1,-1,0
1523609496499,-5111808,69,-56,-1,-1,0
1523609496499,-5242880,69,-56,-1,-1,0
1523609496539,-5308416,69,-56,-1,-1,0
1523609496539,-5242880,69,-56,-1,-1,0
1523609496539,-5111808,69,-56,-1,-1,0
1523609496539,-4915200,69,-56,-1,-1,0
1523609496539,-4587520,69,-56,-1,-1,0
1523609496579,-4259840,69,-56,-1,-1,0
1523609496579,-4063232,69,-56,-1,-1,0
1523609496579,-4063232,69,-56,-1,-1,0
1523609496579,-4194304,69,-56,-1,-1,0
1523609496579,-4194304,69,-56,-1,-1,0
1523609496619,-3670016,69,-56,-1,-1,0
1523609496619,-3538944,69,-56,-1,-1,0
1523609496619,-3866624,69,-56,-1,-1,0
1523609496619,-4063232,69,-56,-1,-1,0
1523609496619,-3997696,69,-56,-1,-1,0
1523609496659,-3801088,69,-56,-1,-1,0
1523609496659,-3604480,69,-56,-1,-1,0
1523609496659,-3473408,69,-56,-1,-1,0
1523609496659,-3211264,69,-56,-1,-1,0
1523609496659,-2883584,69,-56,-1,-1,0
1523609496699,-2621440,69,-56,-1,-1,0
1523609496699,-2359296,69,-56,-1,-1,0
1523609496699,-2031616,69,-56,-1,-1,0
1523609496699,-1769472,69,-56,-1,-1,0
1523609496699,-1703936,69,-56,-1,-1,0
1523609496739,-1638400,69,-56,-1,-1,0
1523609496739,-1441792,69,-56,-1,-1,0
1523609496739,-1245184,69,-56,-1,-1,0
1523609496739,-1048576,69,-56,-1,-1,0
1523609496739,-983040,69,-56,-1,-1,0
1523609496779,-1048576,69,-56,-1,-1,0
1523609496779,-1376256,69,-56,-1,-1,0
1523609496779,-1507328,69,-56,-1,-1,0
1523609496779,-1245184,69,-56,-1,-1,0
1523609496779,-720896,69,-56,-1,-1,0
1523609496820,-262144,69,-56,-1,-1,0
1523609496820,0,69,-56,-1,-1,0
1523609496820,196608,69,-56,-1,-1,0
1523609496820,327680,69,-56,-1,-1,0
1523609496820,458752,69,-56,-1,-1,0
1523609496859,720896,69,-56,-1,-1,0
1523609496859,851968,69,-56,-1,-1,0
1523609496859,1114112,69,-56,-1,-1,0
1523609496859,1966080,69,-56,-1,-1,0
1523609496859,4063232,69,-56,-1,-1,0
1523609496899,6750208,69,-56,-1,-1,0
1523609496899,6946816,69,-56,-1,-1,0
1523609496899,3276800,69,-56,-1,-1,0
1523609496899,-524288,69,-56,-1,-1,0
1523609496899,-1441792,69,-56,-1,-1,0
1523609496939,-458752,69,-56,-1,-1,0
1523609496939,458752,69,-56,-1,-1,0
1523609496939,1179648,69,-56,-1,-1,0
1523609496939,1441792,69,-56,-1,-1,0
1523609496939,1703936,69,-56,-1,-1,0
1523609496979,1703936,69,-56,-1,-1,0
1523609496979,1703936,69,-56,-1,-1,0
1523609496979,1572864,69,-56,-1,-1,0
1523609496979,1572864,69,-56,-1,-1,0
1523609496979,1835008,69,-56,-1,-1,0
1523609497019,2097152,69,-56,-1,-1,0
1523609497019,2490368,69,-56,-1,-1,0
1523609497019,2686976,69,-56,-1,-1,0
1523609497019,2949120,69,-56,-1,-1,0
1523609497019,3211264,69,-56,-1,-1,0
1523609497059,3538944,68,-56,-1,-1,0
1523609497059,3670016,68,-56,-1,-1,0
1523609497059,3735552,68,-56,-1,-1,0
1523609497059,3604480,68,-56,-1,-1,0
1523609497059,3407872,68,-56,-1,-1,0
1523609497099,3145728,68,-56,-1,-1,0
1523609497099,3080192,68,-56,-1,-1,0
1523609497099,3080192,68,-56,-1,-1,0
1523609497099,3080192,68,-56,-1,-1,0
1523609497099,3080192,68,-56,-1,-1,0
1523609497139,2949120,68,-56,-1,-1,0
1523609497139,2752512,68,-56,-1,-1,0
1523609497139,2097152,68,-56,-1,-1,0
1523609497139,1245184,68,-56,-1,-1,0
1523609497139,196608,68,-56,-1,-1,0
1523609497179,-655360,68,-56,-1,-1,0
1523609497179,-1507328,68,-56,-1,-1,0
1523609497179,-2162688,68,-56,-1,-1,0
1523609497179,-2424832,68,-56,-1,-1,0
1523609497179,-2359296,68,-56,-1,-1,0
1523609497219,-2293760,68,-56,-1,-1,0
1523609497219,-1114112,68,-56,-1,-1,0
1523609497219,-65536,68,-56,-1,-1,0
1523609497219,131072,68,-56,-1,-1,0
1523609497219,262144,68,-56,-1,-1,0
1523609497259,327680,68,-56,-1,-1,0
1523609497259,65536,68,-56,-1,-1,0
1523609497259,-458752,68,-56,-1,-1,0
1523609497259,-983040,68,-56,-1,-1,0
1523609497259,-1048576,68,-56,-1,-1,0
1523609497299,-655360,68,-56,-1,-1,0
1523609497299,-65536,68,-56,-1,-1,0
1523609497299,786432,68,-56,-1,-1,0
1523609497299,2162688,68,-56,-1,-1,0
1523609497299,3342336,68,-56,-1,-1,0
1523609497339,3670016,68,-56,-1,-1,0
1523609497339,3276800,68,-56,-1,-1,0
1523609497339,2949120,68,-56,-1,-1,0
1523609497339,2818048,68,-56,-1,-1,0
1523609497339,2621440,68,-56,-1,-1,0
1523609497379,2293760,68,-56,-1,-1,0
1523609497379,1835008,68,-56,-1,-1,0
1523609497379,1310720,68,-56,-1,-1,0
1523609497379,851968,68,-56,-1,-1,0
1523609497379,393216,68,-56,-1,-1,0
1523609497419,0,68,-56,-1,-1,0
1523609497419,-589824,68,-56,-1,-1,0
1523609497419,-1048576,68,-56,-1,-1,0
1523609497419,-1441792,68,-56,-1,-1,0
1523609497419,-1835008,68,-56,-1,-1,0
1523609497460,-2097152,68,-56,-1,-1,0
1523609497460,-2097152,68,-56,-1,-1,0
1523609497460,-1835008,68,-56,-1,-1,0
1523609497460,-1638400,68,-56,-1,-1,0
1523609497460,-1703936,68,-56,-1,-1,0
1523609497499,-1769472,68,-56,-1,-1,0
1523609497499,-1638400,68,-56,-1,-1,0
1523609497499,-1245184,68,-56,-1,-1,0
1523609497499,-524288,68,-56,-1,-1,0
1523609497499,327680,68,-56,-1,-1,0
1523609497539,1179648,68,-56,-1,-1,0
1523609497539,1769472,68,-56,-1,-1,0
1523609497539,1900544,68,-56,-1,-1,0
1523609497539,1376256,68,-56,-1,-1,0
1523609497539,917504,68,-56,-1,-1,0
1523609497579,786432,68,-56,-1,-1,0
1523609497579,720896,68,-56,-1,-1,0
1523609497579,524288,68,-56,-1,-1,0
1523609497579,196608,68,-56,-1,-1,0
1523609497579,0,68,-56,-1,-1,0
1523609497619,-65536,68,-56,-1,-1,0
1523609497619,-196608,68,-56,-1,-1,0
1523609497619,-196608,68,-56,-1,-1,0
1523609497619,-65536,68,-56,-1,-1,0
1523609497619,0,68,-56,-1,-1,0
1523609497659,0,68,-56,-1,-1,0
1523609497659,-65536,68,-56,-1,-1,0
1523609497659,0,68,-56,-1,-1,0
1523609497659,196608,68,-56,-1,-1,0
1523609497659,655360,68,-56,-1,-1,0
1523609497699,1048576,68,-56,-1,-1,0
1523609497699,1245184,68,-56,-1,-1,0
1523609497699,983040,68,-56,-1,-1,0
1523609497699,851968,68,-56,-1,-1,0
1523609497699,786432,68,-56,-1,-1,0
1523609497739,655360,68,-56,-1,-1,0
1523609497739,131072,68,-56,-1,-1,0
1523609497739,-393216,68,-56,-1,-1,0
1523609497739,131072,68,-56,-1,-1,0
1523609497739,2818048,68,-56,-1,-1,0
1523609497779,5373952,68,-56,-1,-1,0
1523609497779,3866624,68,-56,-1,-1,0
1523609497779,-327680,68,-56,-1,-1,0
1523609497779,-2949120,68,-56,-1,-1,0
1523609497779,-2818048,68,-56,-1,-1,0
1523609497819,-1835008,68,-56,-1,-1,0
1523609497819,-1048576,68,-56,-1,-1,0
1523609497819,-589824,68,-56,-1,-1,0
1523609497819,-262144,68,-56,-1,-1,0
1523609497819,0,68,-56,-1,-1,0
1523609497859,65536,68,-56,-1,-1,0
1523609497859,0,68,-56,-1,-1,0
1523609497859,65536,68,-56,-1,-1,0
1523609497859,65536,68,-56,-1,-1,0
1523609497859,196608,68,-56,-1,-1,0
1523609497899,262144,68,-56,-1,-1,0
1523609497899,196608,68,-56,-1,-1,0
1523609497899,0,68,-56,-1,-1,0
1523609497899,0,68,-56,-1,-1,0
1523609497899,65536,68,-56,-1,-1,0
1523609497939,262144,68,-56,-1,-1,0
1523609497939,524288,68,-56,-1,-1,0
1523609497939,786432,68,-56,-1,-1,0
1523609497939,1114112,68,-56,-1,-1,0
1523609497939,1376256,68,-56,-1,-1,0
1523609497979,1441792,68,-56,-1,-1,0
1523609497979,1572864,68,-56,-1,-1,0
1523609497979,1835008,68,-56,-1,-1,0
1523609497979,2359296,68,-56,-1,-1,0
1523609497979,2883584,68,-56,-1,-1,0
1523609498019,3276800,68,-56,-1,-1,0
1523609498019,3145728,68,-56,-1,-1,0
1523609498019,2555904,68,-56,-1,-1,0
1523609498019,1638400,68,-56,-1,-1,0
1523609498019,720896,68,-56,-1,-1,0
1523609498059,-65536,68,-56,-1,-1,0
1523609498059,-655360,68,-56,-1,-1,0
1523609498059,-1114112,68,-56,-1,-1,0
1523609498059,-1376256,68,-56,-1,-1,0
1523609498059,-1507328,68,-56,-1,-1,0
1523609498100,-1703936,68,-56,-1,-1,0
1523609498100,-1900544,68,-56,-1,-1,0
1523609498100,-1966080,68,-56,-1,-1,0
1523609498100,-1900544,68,-56,-1,-1,0
1523609498100,-1769472,68,-56,-1,-1,0
1523609498139,-1638400,68,-56,-1,-1,0
1523609498139,-1376256,68,-56,-1,-1,0
1523609498139,-1114112,68,-56,-1,-1,0
1523609498139,-917504,68,-56,-1,-1,0
1523609498139,-786432,68,-56,-1,-1,0
1523609498179,-786432,68,-56,-1,-1,0
1523609498179,-786432,68,-56,-1,-1,0
1523609498179,-917504,68,-56,-1,-1,0
1523609498179,-983040,68,-56,-1,-1,0
1523609498179,-983040,68,-56,-1,-1,0
1523609498219,-851968,68,-56,-1,-1,0
1523609498219,-720896,68,-56,-1,-1,0
1523609498219,-720896,68,-56,-1,-1,0
1523609498219,-720896,68,-56,-1,-1,0
1523609498219,-720896,68,-56,-1,-1,0
1523609498259,-851968,68,-56,-1,-1,0
1523609498259,-983040,68,-56,-1,-1,0
1523609498259,-1114112,68,-56,-1,-1,0
1523609498259,-1179648,68,-56,-1,-1,0
1523609498259,-1114112,68,-56,-1,-1,0
1523609498300,-983040,68,-56,-1,-1,0
1523609498300,-720896,68,-56,-1,-1,0
1523609498300,-655360,68,-56,-1,-1,0
1523609498300,-720896,68,-56,-1,-1,0
1523609498300,-786432,68,-56,-1,-1,0
1523609498339,-786432,68,-56,-1,-1,0
1523609498339,-720896,68,-56,-1,-1,0
1523609498339,-655360,68,-56,-1,-1,0
1523609498339,-655360,68,-56,-1,-1,0
1523609498339,-720896,68,-56,-1,-1,0
1523609498379,-786432,68,-56,-1,-1,0
1523609498379,-851968,68,-56,-1,-1,0
1523609498379,-851968,68,-56,-1,-1,0
1523609498379,-786432,68,-56,-1,-1,0
1523609498379,-655360,68,-56,-1,-1,0
1523609498419,-524288,68,-56,-1,-1,0
1523609498419,-458752,68,-56,-1,-1,0
1523609498419,-458752,68,-56,-1,-1,0
1523609498419,-589824,68,-56,-1,-1,0
1523609498419,-720896,68,-56,-1,-1,0
1523609498459,-1507328,68,-56,-1,-1,0
1523609498459,-2555904,68,-56,-1,-1,0
1523609498459,-3276800,68,-56,-1,-1,0
1523609498459,-3145728,68,-56,-1,-1,0
1523609498459,-2949120,68,-56,-1,-1,0
1523609498499,-2949120,68,-56,-1,-1,0
1523609498499,-2752512,68,-56,-1,-1,0
1523609498499,-2359296,68,-56,-1,-1,0
1523609498499,-1638400,68,-56,-1,-1,0
1523609498499,-1245184,68,-56,-1,-1,0
1523609498539,-1114112,68,-56,-1,-1,0
1523609498539,-917504,68,-56,-1,-1,0
1523609498539,-786432,68,-56,-1,-1,0
1523609498539,-655360,68,-56,-1,-1,0
1523609498539,-720896,68,-56,-1,-1,0
1523609498579,-851968,68,-56,-1,-1,0
1523609498579,-1048576,68,-56,-1,-1,0
1523609498579,-1310720,68,-56,-1,-1,0
1523609498579,-1572864,68,-56,-1,-1,0
1523609498579,-1769472,68,-56,-1,-1,0
1523609498619,-1900544,68,-56,-1,-1,0
1523609498619,-1769472,68,-56,-1,-1,0
1523609498619,-983040,68,-56,-1,-1,0
1523609498619,851968,68,-56,-1,-1,0
1523609498619,3604480,68,-56,-1,-1,0
1523609498659,4390912,68,-56,-1,-1,0
1523609498659,1310720,68,-56,-1,-1,0
1523609498659,-2359296,68,-56,-1,-1,0
1523609498659,-3211264,68,-56,-1,-1,0
1523609498659,-2490368,68,-56,-1,-1,0
1523609498699,-1835008,68,-56,-1,-1,0
1523609498699,-1703936,68,-56,-1,-1,0
1523609498699,-1769472,68,-56,-1,-1,0
1523609498699,-1703936,68,-56,-1,-1,0
1523609498699,-1441792,68,-56,-1,-1,0
1523609498740,-1245184,68,-56,-1,-1,0
1523609498740,-851968,68,-56,-1,-1,0
1523609498740,-589824,68,-56,-1,-1,0
1523609498740,-196608,68,-56,-1,-1,0
1523609498740,65536,68,-56,-1,-1,0
1523609498779,458752,68,-56,-1,-1,0
1523609498779,786432,68,-56,-1,-1,0
1523609498779,1179648,68,-56,-1,-1,0
1523609498779,1703936,68,-56,-1,-1,0
1523609498779,2359296,68,-56,-1,-1,0
1523609498819,3014656,68,-56,-1,-1,0
1523609498819,3670016,68,-56,-1,-1,0
1523609498819,4194304,68,-56,-1,-1,0
1523609498819,4456448,68,-56,-1,-1,0
1523609498819,4521984,68,-56,-1,-1,0
1523609498859,4849664,68,-56,-1,-1,0
1523609498859,5046272,68,-56,-1,-1,0
1523609498859,5177344,68,-56,-1,-1,0
1523609498859,5242880,68,-56,-1,-1,0
1523609498859,5177344,68,-56,-1,-1,0
1523609498899,4718592,68,-56,-1,-1,0
1523609498899,4063232,68,-56,-1,-1,0
1523609498899,3342336,68,-56,-1,-1,0
1523609498899,2490368,68,-56,-1,-1,0
1523609498899,1835008,68,-56,-1,-1,0
1523609498939,1310720,68,-56,-1,-1,0
1523609498939,917504,68,-56,-1,-1,0
1523609498939,655360,68,-56,-1,-1,0
1523609498939,393216,68,-56,-1,-1,0
1523609498939,131072,68,-56,-1,-1,0
1523609498979,0,68,-56,-1,-1,0
1523609498979,-262144,68,-56,-1,-1,0
1523609498979,-327680,68,-56,-1,-1,0
1523609498979,-327680,68,-56,-1,-1,0
1523609498979,-393216,68,-56,-1,-1,0
1523609499019,-458752,68,-56,-1,-1,0
1523609499019,-524288,68,-56,-1,-1,0
1523609499019,-589824,68,-56,-1,-1,0
1523609499019,-589824,68,-56,-1,-1,0
1523609499019,-655360,68,-56,-1,-1,0
1523609499059,-786432,68,-56,-1,-1,0
1523609499059,-917504,68,-56,-1,-1,0
1523609499059,-1048576,68,-56,-1,-1,0
1523609499059,-1114112,68,-56,-1,-1,0
1523609499059,-1179648,68,-56,-1,-1,0
1523609499099,-1179648,68,-56,-1,-1,0
1523609499099,-1245184,68,-56,-1,-1,0
1523609499099,-1376256,68,-56,-1,-1,0
1523609499099,-1441792,68,-56,-1,-1,0
1523609499099,-1441792,68,-56,-1,-1,0
1523609499139,-1441792,68,-56,-1,-1,0
1523609499139,-1376256,68,-56,-1,-1,0
1523609499139,-1441792,68,-56,-1,-1,0
1523609499139,-1507328,68,-56,-1,-1,0
1523609499139,-1572864,68,-56,-1,-1,0
1523609499179,-1638400,68,-56,-1,-1,0
1523609499179,-1769472,68,-56,-1,-1,0
1523609499179,-1835008,68,-56,-1,-1,0
1523609499179,-1835008,68,-56,-1,-1,0
1523609499179,-1769472,68,-56,-1,-1,0
1523609499219,-1769472,68,-56,-1,-1,0
1523609499219,-1835008,68,-56,-1,-1,0
1523609499219,-1835008,68,-56,-1,-1,0
1523609499219,-1835008,68,-56,-1,-1,0
1523609499219,-2031616,68,-56,-1,-1,0
1523609499259,-2031616,68,-56,-1,-1,0
1523609499259,-2031616,68,-56,-1,-1,0
1523609499259,-1966080,68,-56,-1,-1,0
1523609499259,-1966080,68,-56,-1,-1,0
1523609499259,-2031616,68,-56,-1,-1,0
1523609499299,-2097152,68,-56,-1,-1,0
1523609499299,-2097152,68,-56,-1,-1,0
1523609499299,-1966080,68,-56,-1,-1,0
1523609499299,-1769472,68,-56,-1,-1,0
1523609499299,-1441792,68,-56,-1,-1,0
1523609499339,-1114112,68,-56,-1,-1,0
1523609499339,-1114112,68,-56,-1,-1,0
1523609499339,-1048576,68,-56,-1,-1,0
1523609499339,-983040,68,-56,-1,-1,0
1523609499339,-1638400,68,-56,-1,-1,0
1523609499380,-2031616,68,-56,-1,-1,0
1523609499380,-1769472,68,-56,-1,-1,0
1523609499380,-1376256,68,-56,-1,-1,0
1523609499380,-1245184,68,-56,-1,-1,0
1523609499380,-1245184,68,-56,-1,-1,0
1523609499419,-1245184,68,-56,-1,-1,0
1523609499419,-1245184,68,-56,-1,-1,0
1523609499419,-1179648,68,-56,-1,-1,0
1523609499419,-1310720,68,-56,-1,-1,0
1523609499419,-1376256,68,-56,-1,-1,0
1523609499459,-1572864,68,-56,-1,-1,0
1523609499459,-1703936,68,-56,-1,-1,0
1523609499459,-1703936,68,-56,-1,-1,0
1523609499459,-1638400,68,-56,-1,-1,0
1523609499459,-1441792,68,-56,-1,-1,0
1523609499499,-983040,68,-56,-1,-1,0
1523609499499,-393216,68,-56,-1,-1,0
1523609499499,851968,68,-56,-1,-1,0
1523609499499,3866624,68,-56,-1,-1,0
1523609499499,7536640,68,-56,-1,-1,0
1523609499539,7995392,68,-56,-1,-1,0
1523609499539,4849664,68,-56,-1,-1,0
1523609499539,1769472,68,-56,-1,-1,0
1523609499539,1310720,68,-56,-1,-1,0
1523609499539,2097152,68,-56,-1,-1,0
1523609499579,2883584,68,-56,-1,-1,0
1523609499579,3342336,68,-56,-1,-1,0
1523609499579,3342336,68,-56,-1,-1,0
1523609499579,3407872,68,-56,-1,-1,0
1523609499579,3473408,68,-56,-1,-1,0
1523609499619,3670016,68,-56,-1,-1,0
1523609499619,3801088,68,-56,-1,-1,0
1523609499619,3932160,68,-56,-1,-1,0
1523609499619,4063232,68,-56,-1,-1,0
1523609499619,4194304,68,-56,-1,-1,0
1523609499659,4259840,68,-56,-1,-1,0
1523609499659,4194304,68,-56,-1,-1,0
1523609499659,3997696,68,-56,-1,-1,0
1523609499659,3866624,68,-56,-1,-1,0
1523609499659,3801088,68,-56,-1,-1,0
1523609499699,3670016,68,-56,-1,-1,0
1523609499699,3604480,68,-56,-1,-1,0
1523609499699,3604480,68,-56,-1,-1,0
1523609499699,3604480,68,-56,-1,-1,0
1523609499699,3538944,68,-56,-1,-1,0
1523609499739,3538944,68,-56,-1,-1,0
1523609499739,3538944,68,-56,-1,-1,0
1523609499739,3604480,68,-56,-1,-1,0
1523609499739,3604480,68,-56,-1,-1,0
1523609499739,3407872,68,-56,-1,-1,0
1523609499779,2949120,68,-56,-1,-1,0
1523609499779,2293760,68,-56,-1,-1,0
1523609499779,1507328,68,-56,-1,-1,0
1523609499779,655360,68,-56,-1,-1,0
1523609499779,-131072,68,-56,-1,-1,0
1523609499819,-720896,68,-56,-1,-1,0
1523609499819,-1179648,68,-56,-1,-1,0
1523609499819,-1441792,68,-56,-1,-1,0
1523609499819,-1572864,68,-56,-1,-1,0
1523609499819,-1638400,68,-56,-1,-1,0
1523609499859,-1638400,68,-56,-1,-1,0
1523609499859,-1572864,68,-56,-1,-1,0
1523609499859,-1572864,68,-56,-1,-1,0
1523609499859,-1638400,68,-56,-1,-1,0
1523609499859,-1638400,68,-56,-1,-1,0
1523609499899,-1441792,68,-56,-1,-1,0
1523609499899,-1245184,68,-56,-1,-1,0
1523609499899,-983040,68,-56,-1,-1,0
1523609499899,-851968,68,-56,-1,-1,0
1523609499899,-786432,68,-56,-1,-1,0
1523609499939,-720896,68,-56,-1,-1,0
1523609499939,-720896,68,-56,-1,-1,0
1523609499939,-655360,68,-56,-1,-1,0
1523609499939,-589824,68,-56,-1,-1,0
1523609499939,-393216,68,-56,-1,-1,0
1523609499979,-327680,68,-56,-1,-1,0
1523609499979,-196608,68,-56,-1,-1,0
1523609499979,-196608,68,-56,-1,-1,0
1523609499979,-196608,68,-56,-1,-1,0
1523609499979,-131072,68,-56,-1,-1,0
1523609500020,0,68,-56,-1,-1,0
1523609500020,131072,68,-56,-1,-1,0
1523609500020,262144,68,-56,-1,-1,0
1523609500020,131072,68,-56,-1,-1,0
1523609500020,65536,68,-56,-1,-1,0
1523609500059,131072,68,-56,-1,-1,0
1523609500059,196608,68,-56,-1,-1,0
1523609500059,196608,68,-56,-1,-1,0
1523609500059,196608,68,-56,-1,-1,0
1523609500059,131072,68,-56,-1,-1,0
1523609500099,0,68,-56,-1,-1,0
1523609500099,-131072,68,-56,-1,-1,0
1523609500099,-327680,68,-56,-1,-1,0
1523609500099,-458752,68,-56,-1,-1,0
1523609500099,-589824,68,-56,-1,-1,0
1523609500139,-655360,68,-56,-1,-1,0
1523609500139,-786432,68,-56,-1,-1,0
1523609500139,-917504,68,-56,-1,-1,0
1523609500139,-983040,68,-56,-1,-1,0
1523609500139,-1048576,68,-56,-1,-1,0
1523609500179,-1048576,68,-56,-1,-1,0
1523609500179,-1048576,68,-56,-1,-1,0
1523609500179,-983040,68,-56,-1,-1,0
1523609500179,-786432,68,-56,-1,-1,0
1523609500179,-589824,68,-56,-1,-1,0
1523609500219,-458752,68,-56,-1,-1,0
1523609500219,-458752,68,-56,-1,-1,0
1523609500219,-589824,68,-56,-1,-1,0
1523609500219,-720896,68,-56,-1,-1,0
1523609500219,-720896,68,-56,-1,-1,0
1523609500259,-720896,68,-56,-1,-1,0
1523609500259,-786432,68,-56,-1,-1,0
1523609500259,-917504,68,-56,-1,-1,0
1523609500259,-1048576,68,-56,-1,-1,0
1523609500259,-1114112,68,-56,-1,-1,0
1523609500299,-1048576,68,-56,-1,-1,0
1523609500299,-851968,68,-56,-1,-1,0
1523609500299,-589824,68,-56,-1,-1,0
1523609500299,-131072,68,-56,-1,-1,0
1523609500299,1376256,68,-56,-1,-1,0
1523609500339,4456448,68,-56,-1,-1,0
1523609500339,7208960,68,-56,-1,-1,0
1523609500339,5832704,68,-56,-1,-1,0
1523609500339,1769472,68,-56,-1,-1,0
1523609500339,-917504,68,-56,-1,-1,0
1523609500379,-983040,68,-56,-1,-1,0
1523609500379,-327680,68,-56,-1,-1,0
1523609500379,0,68,-56,-1,-1,0
1523609500379,196608,68,-56,-1,-1,0
1523609500379,458752,68,-56,-1,-1,0
1523609500419,720896,68,-56,-1,-1,0
1523609500419,1048576,68,-56,-1,-1,0
1523609500419,1310720,68,-56,-1,-1,0
1523609500419,1507328,68,-56,-1,-1,0
1523609500419,1572864,68,-56,-1,-1,0
1523609500459,1572864,68,-56,-1,-1,0
1523609500459,1507328,68,-56,-1,-1,0
1523609500459,1441792,68,-56,-1,-1,0
1523609500459,1310720,68,-56,-1,-1,0
1523609500459,1179648,68,-56,-1,-1,0
1523609500499,1048576,68,-56,-1,-1,0
1523609500499,851968,68,-56,-1,-1,0
1523609500499,655360,68,-56,-1,-1,0
1523609500499,720896,68,-56,-1,-1,0
1523609500499,851968,68,-56,-1,-1,0
1523609500539,1048576,68,-56,-1,-1,0
1523609500539,1441792,68,-56,-1,-1,0
1523609500539,1769472,68,-56,-1,-1,0
1523609500539,2097152,68,-56,-1,-1,0
1523609500539,2162688,68,-56,-1,-1,0
1523609500579,2031616,68,-56,-1,-1,0
1523609500579,1835008,68,-56,-1,-1,0
1523609500579,1507328,68,-56,-1,-1,0
1523609500579,1048576,68,-56,-1,-1,0
1523609500579,458752,68,-56,-1,-1,0
1523609500619,-196608,68,-56,-1,-1,0
1523609500619,-917504,68,-56,-1,-1,0
1523609500619,-1441792,68,-56,-1,-1,0
1523609500619,-1966080,68,-56,-1,-1,0
1523609500619,-2621440,68,-56,-1,-1,0
1523609500660,-3276800,68,-56,-1,-1,0
1523609500660,-3735552,68,-56,-1,-1,0
1523609500660,-3997696,68,-56,-1,-1,0
1523609500660,-4128768,68,-56,-1,-1,0
1523609500660,-4128768,68,-56,-1,-1,0
1523609500699,-3997696,68,-56,-1,-1,0
1523609500699,-3932160,68,-56,-1,-1,0
1523609500699,-3866624,68,-56,-1,-1,0
1523609500699,-3735552,68,-56,-1,-1,0
1523609500699,-3670016,68,-56,-1,-1,0
1523609500739,-3670016,68,-56,-1,-1,0
1523609500739,-3670016,68,-56,-1,-1,0
1523609500739,-3604480,68,-56,-1,-1,0
1523609500739,-3538944,68,-56,-1,-1,0
1523609500739,-3407872,68,-56,-1,-1,0
1523609500779,-3342336,68,-56,-1,-1,0
1523609500779,-3211264,68,-56,-1,-1,0
1523609500779,-3080192,68,-56,-1,-1,0
1523609500779,-2883584,68,-56,-1,-1,0
1523609500779,-2621440,68,-56,-1,-1,0
1523609500819,-2424832,68,-56,-1,-1,0
1523609500819,-2162688,68,-56,-1,-1,0
1523609500819,-1966080,68,-56,-1,-1,0
1523609500819,-1769472,68,-56,-1,-1,0
1523609500819,-1572864,68,-56,-1,-1,0
1523609500859,-1310720,68,-56,-1,-1,0
1523609500859,-1048576,68,-56,-1,-1,0
1523609500859,-786432,68,-56,-1,-1,0
1523609500859,-589824,68,-56,-1,-1,0
1523609500859,-393216,68,-56,-1,-1,0
1523609500899,-393216,68,-56,-1,-1,0
1523609500899,-458752,68,-56,-1,-1,0
1523609500899,-589824,68,-56,-1,-1,0
1523609500899,-851968,68,-56,-1,-1,0
1523609500899,-917504,68,-56,-1,-1,0
1523609500939,-1048576,68,-56,-1,-1,0
1523609500939,-1245184,68,-56,-1,-1,0
1523609500939,-1507328,68,-56,-1,-1,0
1523609500939,-1769472,68,-56,-1,-1,0
1523609500939,-2031616,68,-56,-1,-1,0
1523609500979,-2293760,68,-56,-1,-1,0
1523609500979,-2686976,68,-56,-1,-1,0
1523609500979,-2752512,68,-56,-1,-1,0
1523609500979,-2621440,68,-56,-1,-1,0
1523609500979,-2555904,68,-56,-1,-1,0
1523609501019,-2490368,68,-56,-1,-1,0
1523609501019,-2490368,68,-56,-1,-1,0
1523609501019,-2424832,68,-56,-1,-1,0
1523609501019,-2424832,68,-56,-1,-1,0
1523609501019,-2424832,68,-56,-1,-1,0
1523609501059,-2424832,68,-56,-1,-1,0
1523609501059,-2359296,68,-56,-1,-1,0
1523609501059,-2228224,68,-56,-1,-1,0
1523609501059,-1835008,68,-56,-1,-1,0
1523609501059,-1376256,68,-56,-1,-1,0
1523609501099,-786432,68,-56,-1,-1,0
1523609501099,-327680,68,-56,-1,-1,0
1523609501099,65536,68,-56,-1,-1,0
1523609501099,262144,68,-56,-1,-1,0
1523609501099,327680,68,-56,-1,-1,0
1523609501139,851968,68,-56,-1,-1,0
1523609501139,2752512,68,-56,-1,-1,0
1523609501139,6029312,68,-56,-1,-1,0
1523609501139,8781824,68,-56,-1,-1,0
1523609501139,7667712,68,-56,-1,-1,0
1523609501179,4063232,68,-56,-1,-1,0
1523609501179,2228224,68,-56,-1,-1,0
1523609501179,2490368,68,-56,-1,-1,0
1523609501179,3145728,68,-56,-1,-1,0
1523609501179,3670016,68,-56,-1,-1,0
1523609501219,3932160,68,-56,-1,-1,0
1523609501219,4063232,68,-56,-1,-1,0
1523609501219,4194304,68,-56,-1,-1,0
1523609501219,4325376,68,-56,-1,-1,0
1523609501219,4325376,68,-56,-1,-1,0
1523609501259,4259840,68,-56,-1,-1,0
1523609501259,4063232,68,-56,-1,-1,0
1523609501259,4063232,68,-56,-1,-1,0
1523609501259,4194304,68,-56,-1,-1,0
1523609501259,4325376,68,-56,-1,-1,0
1523609501300,4390912,68,-56,-1,-1,0
1523609501300,4390912,68,-56,-1,-1,0
1523609501300,4456448,68,-56,-1,-1,0
1523609501300,4587520,68,-56,-1,-1,0
1523609501300,4718592,68,-56,-1,-1,0
1523609501339,4915200,68,-56,-1,-1,0
1523609501339,5046272,68,-56,-1,-1,0
1523609501339,5046272,68,-56,-1,-1,0
1523609501339,5046272,68,-56,-1,-1,0
1523609501339,5111808,68,-56,-1,-1,0
1523609501379,5177344,68,-56,-1,-1,0
1523609501379,5046272,68,-56,-1,-1,0
1523609501379,4849664,68,-56,-1,-1,0
1523609501379,4587520,68,-56,-1,-1,0
1523609501379,4259840,68,-56,-1,-1,0
1523609501419,3735552,68,-56,-1,-1,0
1523609501419,2883584,68,-56,-1,-1,0
1523609501419,1835008,68,-56,-1,-1,0
1523609501419,851968,68,-56,-1,-1,0
1523609501419,0,68,-56,-1,-1,0
1523609501459,-524288,68,-56,-1,-1,0
1523609501459,-983040,68,-56,-1,-1,0
1523609501459,-1310720,68,-56,-1,-1,0
1523609501459,-1310720,68,-56,-1,-1,0
1523609501459,-1245184,68,-56,-1,-1,0
1523609501499,-1179648,68,-56,-1,-1,0
1523609501499,-1114112,68,-56,-1,-1,0
1523609501499,-1179648,68,-56,-1,-1,0
1523609501499,-1376256,68,-56,-1,-1,0
1523609501499,-1507328,68,-56,-1,-1,0
1523609501539,-1703936,68,-56,-1,-1,0
1523609501539,-2097152,68,-56,-1,-1,0
1523609501539,-2359296,68,-56,-1,-1,0
1523609501539,-2424832,68,-56,-1,-1,0
1523609501539,-2359296,68,-56,-1,-1,0
1523609501579,-2293760,68,-56,-1,-1,0
1523609501579,-2293760,68,-56,-1,-1,0
1523609501579,-2293760,68,-56,-1,-1,0
1523609501579,-2162688,68,-56,-1,-1,0
1523609501579,-1900544,68,-56,-1,-1,0
1523609501619,-1638400,68,-56,-1,-1,0
1523609501619,-1441792,68,-56,-1,-1,0
1523609501619,-1179648,68,-56,-1,-1,0
1523609501619,-786432,68,-56,-1,-1,0
1523609501619,-458752,68,-56,-1,-1,0
1523609501659,-393216,68,-56,-1,-1,0
1523609501659,-393216,68,-56,-1,-1,0
1523609501659,-524288,68,-56,-1,-1,0
1523609501659,-655360,68,-56,-1,-1,0
1523609501659,-786432,68,-56,-1,-1,0
1523609501699,-786432,68,-56,-1,-1,0
1523609501699,-720896,68,-56,-1,-1,0
1523609501699,-655360,68,-56,-1,-1,0
1523609501699,-524288,68,-56,-1,-1,0
1523609501699,-393216,68,-56,-1,-1,0
1523609501739,-65536,68,-56,-1,-1,0
1523609501739,65536,68,-56,-1,-1,0
1523609501739,262144,68,-56,-1,-1,0
1523609501739,327680,68,-56,-1,-1,0
1523609501739,196608,68,-56,-1,-1,0
1523609501779,-131072,68,-56,-1,-1,0
1523609501779,-524288,68,-56,-1,-1,0
1523609501779,-786432,68,-56,-1,-1,0
1523609501779,-917504,68,-56,-1,-1,0
1523609501779,-1048576,68,-56,-1,-1,0
1523609501819,-1179648,68,-56,-1,-1,0
1523609501819,-1179648,68,-56,-1,-1,0
1523609501819,-1114112,68,-56,-1,-1,0
1523609501819,-917504,68,-56,-1,-1,0
1523609501819,-589824,68,-56,-1,-1,0
1523609501859,-196608,68,-56,-1,-1,0
1523609501859,0,68,-56,-1,-1,0
1523609501859,0,68,-56,-1,-1,0
1523609501859,131072,68,-56,-1,-1,0
1523609501859,327680,68,-56,-1,-1,0
1523609501899,458752,68,-56,-1,-1,0
1523609501899,458752,68,-56,-1,-1,0
1523609501899,458752,68,-56,-1,-1,0
1523609501899,589824,68,-56,-1,-1,0
1523609501899,786432,68,-56,-1,-1,0
1523609501940,1179648,68,-56,-1,-1,0
1523609501940,1507328,68,-56,-1,-1,0
1523609501940,2031616,68,-56,-1,-1,0
1523609501940,3801088,68,-56,-1,-1,0
1523609501940,7208960,68,-56,-1,-1,0
1523609501979,9633792,68,-56,-1,-1,0
1523609501979,7471104,68,-56,-1,-1,0
1523609501979,2949120,68,-56,-1,-1,0
1523609501979,458752,68,-56,-1,-1,0
1523609501979,1638400,68,-56,-1,-1,0
1523609502019,5832704,68,-56,-1,-1,0
1523609502019,3866624,68,-56,-1,-1,0
1523609502019,2097152,68,-56,-1,-1,0
1523609502019,1114112,68,-56,-1,-1,0
1523609502019,0,68,-56,-1,-1,0
1523609502059,-393216,68,-56,-1,-1,0
1523609502059,-1048576,68,-56,-1,-1,0
1523609502059,-1441792,68,-56,-1,-1,0
1523609502059,-1966080,68,-56,-1,-1,0
1523609502059,-2359296,68,-56,-1,-1,0
1523609502099,-2686976,68,-56,-1,-1,0
1523609502099,-2883584,68,-56,-1,-1,0
1523609502099,-2949120,68,-56,-1,-1,0
1523609502099,-2949120,68,-56,-1,-1,0
1523609502099,-2752512,68,-56,-1,-1,0
1523609502139,-2555904,68,-56,-1,-1,0
1523609502139,-2031616,68,-56,-1,-1,0
1523609502139,-1441792,68,-56,-1,-1,0
1523609502139,-720896,68,-56,-1,-1,0
1523609502139,-524288,68,-56,-1,-1,0
1523609502179,-327680,68,-56,-1,-1,0
1523609502179,-393216,68,-56,-1,-1,0
1523609502179,-327680,68,-56,-1,-1,0
1523609502179,-327680,68,-56,-1,-1,0
1523609502179,-393216,68,-56,-1,-1,0
1523609502219,-458752,68,-56,-1,-1,0
1523609502219,917504,68,-56,-1,-1,0
1523609502219,-3538944,68,-56,-1,-1,0
1523609502219,-7340032,68,-56,-1,-1,0
1523609502219,-5963776,68,-56,-1,-1,0
1523609502259,-4456448,68,-56,-1,-1,0
1523609502259,-3538944,68,-56,-1,-1,0
1523609502259,-2752512,68,-56,-1,-1,0
1523609502259,-2228224,68,-56,-1,-1,0
1523609502259,-1572864,68,-56,-1,-1,0
1523609502299,-1048576,68,-56,-1,-1,0
1523609502299,-589824,68,-56,-1,-1,0
1523609502299,-524288,68,-56,-1,-1,0
1523609502299,-262144,68,-56,-1,-1,0
1523609502299,-131072,68,-56,-1,-1,0
1523609502339,262144,68,-56,-1,-1,0
1523609502339,589824,68,-56,-1,-1,0
1523609502339,1048576,68,-56,-1,-1,0
1523609502339,1376256,68,-56,-1,-1,0
1523609502339,1769472,68,-56,-1,-1,0
1523609502379,1900544,68,-56,-1,-1,0
1523609502379,2097152,68,-56,-1,-1,0
1523609502379,2097152,68,-56,-1,-1,0
1523609502379,2097152,68,-56,-1,-1,0
1523609502379,2162688,68,-56,-1,-1,0
1523609502419,2490368,68,-56,-1,-1,0
1523609502419,2752512,68,-56,-1,-1,0
1523609502419,3014656,68,-56,-1,-1,0
1523609502419,3014656,68,-56,-1,-1,0
1523609502419,3014656,68,-56,-1,-1,0
1523609502459,3080192,68,-56,-1,-1,0
1523609502459,3145728,68,-56,-1,-1,0
1523609502459,3145728,68,-56,-1,-1,0
1523609502459,3145728,68,-56,-1,-1,0
1523609502459,3211264,68,-56,-1,-1,0
1523609502499,3276800,68,-56,-1,-1,0
1523609502499,3342336,68,-56,-1,-1,0
1523609502499,3407872,68,-56,-1,-1,0
1523609502499,3604480,68,-56,-1,-1,0
1523609502499,3932160,68,-56,-1,-1,0
1523609502539,4653056,68,-56,-1,-1,0
1523609502539,2097152,68,-56,-1,-1,0
1523609502539,1769472,68,-56,-1,-1,0
1523609502539,1835008,68,-56,-1,-1,0
1523609502539,851968,68,-56,-1,-1,0
1523609502580,851968,68,-56,-1,-1,0
1523609502580,196608,68,-56,-1,-1,0
1523609502580,0,68,-56,-1,-1,0
1523609502580,-262144,68,-56,-1,-1,0
1523609502580,-851968,68,-56,-1,-1,0
1523609502619,-1245184,68,-56,-1,-1,0
1523609502619,-1900544,68,-56,-1,-1,0
1523609502619,-2424832,68,-56,-1,-1,0
1523609502619,-3080192,68,-56,-1,-1,0
1523609502619,-3080192,68,-56,-1,-1,0
1523609502659,-3145728,68,-56,-1,-1,0
1523609502659,-2883584,68,-56,-1,-1,0
1523609502659,-2752512,68,-56,-1,-1,0
1523609502659,-2490368,68,-56,-1,-1,0
1523609502659,-2490368,68,-56,-1,-1,0
1523609502699,-2228224,68,-56,-1,-1,0
1523609502699,-2228224,68,-56,-1,-1,0
1523609502699,-2359296,68,-56,-1,-1,0
1523609502699,-2097152,68,-56,-1,-1,0
1523609502699,-2097152,68,-56,-1,-1,0
1523609502739,-2621440,68,-56,-1,-1,0
1523609502739,-2555904,68,-56,-1,-1,0
1523609502739,-2949120,68,-56,-1,-1,0
1523609502739,-3604480,68,-56,-1,-1,0
1523609502739,-3604480,68,-56,-1,-1,0
1523609502779,-3342336,68,-56,-1,-1,0
1523609502779,-2949120,68,-56,-1,-1,0
1523609502779,-1703936,68,-56,-1,-1,0
1523609502779,851968,68,-56,-1,-1,0
1523609502779,3276800,68,-56,-1,-1,0
1523609502819,2097152,68,-56,-1,-1,0
1523609502819,-2686976,68,-56,-1,-1,0
1523609502819,-5570560,68,-56,-1,-1,0
1523609502819,-5570560,68,-56,-1,-1,0
1523609502819,-4718592,68,-56,-1,-1,0
1523609502859,-4259840,69,-56,-1,-1,0
1523609502859,-4063232,69,-56,-1,-1,0
1523609502859,-4194304,69,-56,-1,-1,0
1523609502859,-4390912,69,-56,-1,-1,0
1523609502859,-4849664,69,-56,-1,-1,0
1523609502899,-5439488,69,-56,-1,-1,0
1523609502899,-5701632,69,-56,-1,-1,0
1523609502899,-5505024,69,-56,-1,-1,0
1523609502899,-5242880,69,-56,-1,-1,0
1523609502899,-5111808,69,-56,-1,-1,0
1523609502939,-5177344,69,-56,-1,-1,0
1523609502939,-5373952,69,-56,-1,-1,0
1523609502939,-5242880,69,-56,-1,-1,0
1523609502939,-5111808,69,-56,-1,-1,0
1523609502939,-5111808,69,-56,-1,-1,0
1523609502979,-5111808,69,-56,-1,-1,0
1523609502979,-4849664,69,-56,-1,-1,0
1523609502979,-4587520,69,-56,-1,-1,0
1523609502979,-4259840,69,-56,-1,-1,0
1523609502979,-4128768,69,-56,-1,-1,0
1523609503019,-4063232,69,-56,-1,-1,0
1523609503019,-2686976,69,-56,-1,-1,0
1523609503019,-4849664,69,-56,-1,-1,0
1523609503019,-7602176,69,-56,-1,-1,0
1523609503019,-6815744,69,-56,-1,-1,0
1523609503059,-5570560,69,-56,-1,-1,0
1523609503059,-4587520,69,-56,-1,-1,0
1523609503059,-3997696,69,-56,-1,-1,0
1523609503059,-3735552,69,-56,-1,-1,0
1523609503059,-3670016,69,-56,-1,-1,0
1523609503099,-3670016,69,-56,-1,-1,0
1523609503099,-3080192,69,-56,-1,-1,0
1523609503099,-3080192,69,-56,-1,-1,0
1523609503099,-3080192,69,-56,-1,-1,0
1523609503099,-3014656,69,-56,-1,-1,0
1523609503139,-3014656,69,-56,-1,-1,0
1523609503139,-3145728,69,-56,-1,-1,0
1523609503139,-3342336,69,-56,-1,-1,0
1523609503139,-3342336,69,-56,-1,-1,0
1523609503139,-3211264,69,-56,-1,-1,0
1523609503179,-3211264,69,-56,-1,-1,0
1523609503179,-3014656,69,-56,-1,-1,0
1523609503179,-2818048,69,-56,-1,-1,0
1523609503179,-2293760,69,-56,-1,-1,0
1523609503179,-1769472,69,-56,-1,-1,0
1523609503220,-1179648,69,-56,-1,-1,0
1523609503220,-458752,69,-56,-1,-1,0
1523609503220,327680,69,-56,-1,-1,0
1523609503220,786432,69,-56,-1,-1,0
1523609503220,1245184,69,-56,-1,-1,0
1523609503259,1703936,69,-56,-1,-1,0
1523609503259,1769472,69,-56,-1,-1,0
1523609503259,1900544,69,-56,-1,-1,0
1523609503259,2031616,69,-56,-1,-1,0
1523609503259,1966080,69,-56,-1,-1,0
1523609503299,1769472,69,-56,-1,-1,0
1523609503299,1703936,69,-56,-1,-1,0
1523609503299,1769472,69,-56,-1,-1,0
1523609503299,1703936,69,-56,-1,-1,0
1523609503299,1835008,69,-56,-1,-1,0
1523609503339,2097152,69,-56,-1,-1,0
1523609503339,2555904,69,-56,-1,-1,0
1523609503339,3014656,69,-56,-1,-1,0
1523609503339,3538944,69,-56,-1,-1,0
1523609503339,4325376,69,-56,-1,-1,0
1523609503379,4915200,69,-56,-1,-1,0
1523609503379,4718592,69,-56,-1,-1,0
1523609503379,4587520,69,-56,-1,-1,0
1523609503379,4521984,69,-56,-1,-1,0
1523609503379,4325376,69,-56,-1,-1,0
1523609503419,4128768,69,-56,-1,-1,0
1523609503419,3866624,69,-56,-1,-1,0
1523609503419,3670016,69,-56,-1,-1,0
1523609503419,3473408,69,-56,-1,-1,0
1523609503419,3473408,69,-56,-1,-1,0
1523609503459,3735552,69,-56,-1,-1,0
1523609503459,4128768,69,-56,-1,-1,0
1523609503459,4587520,69,-56,-1,-1,0
1523609503459,4849664,69,-56,-1,-1,0
1523609503459,5046272,69,-56,-1,-1,0
1523609503499,5308416,69,-56,-1,-1,0
1523609503499,5701632,69,-56,-1,-1,0
1523609503499,6881280,69,-56,-1,-1,0
1523609503499,7143424,69,-56,-1,-1,0
1523609503499,5242880,69,-56,-1,-1,0
1523609503539,4915200,69,-56,-1,-1,0
1523609503539,4718592,69,-56,-1,-1,0
1523609503539,4390912,69,-56,-1,-1,0
1523609503539,4259840,69,-56,-1,-1,0
1523609503539,3866624,69,-56,-1,-1,0
1523609503579,3735552,69,-56,-1,-1,0
1523609503579,3997696,69,-56,-1,-1,0
1523609503579,6029312,69,-56,-1,-1,0
1523609503579,8454144,69,-56,-1,-1,0
1523609503579,7602176,69,-56,-1,-1,0
1523609503619,2818048,69,-56,-1,-1,0
1523609503619,-1376256,69,-56,-1,-1,0
1523609503619,-2293760,69,-56,-1,-1,0
1523609503619,-1572864,69,-56,-1,-1,0
1523609503619,-983040,69,-56,-1,-1,0
1523609503659,-589824,69,-56,-1,-1,0
1523609503659,-589824,69,-56,-1,-1,0
1523609503659,-524288,69,-56,-1,-1,0
1523609503659,-524288,69,-56,-1,-1,0
1523609503659,-524288,69,-56,-1,-1,0
1523609503699,-524288,70,-56,-1,-1,0
1523609503699,-589824,70,-56,-1,-1,0
1523609503699,-524288,70,-56,-1,-1,0
1523609503699,-524288,70,-56,-1,-1,0
1523609503699,-524288,70,-56,-1,-1,0
1523609503739,-589824,70,-56,-1,-1,0
1523609503739,-589824,70,-56,-1,-1,0
1523609503739,-786432,70,-56,-1,-1,0
1523609503739,-983040,70,-56,-1,-1,0
1523609503739,-1507328,70,-56,-1,-1,0
1523609503779,-2162688,70,-56,-1,-1,0
1523609503779,-2162688,70,-56,-1,-1,0
1523609503779,-1572864,70,-56,-1,-1,0
1523609503779,-851968,70,-56,-1,-1,0
1523609503779,-458752,70,-56,-1,-1,0
1523609503819,-1179648,70,-56,-1,-1,0
1523609503819,393216,70,-56,-1,-1,0
1523609503819,1310720,70,-56,-1,-1,0
1523609503819,1769472,70,-56,-1,-1,0
1523609503819,2097152,70,-56,-1,-1,0
1523609503860,1835008,70,-56,-1,-1,0
1523609503860,1441792,70,-56,-1,-1,0
1523609503860,851968,70,-56,-1,-1,0
1523609503860,393216,70,-56,-1,-1,0
1523609503860,0,70,-56,-1,-1,0
1523609503899,-196608,70,-56,-1,-1,0
1523609503899,-65536,70,-56,-1,-1,0
1523609503899,327680,70,-56,-1,-1,0
1523609503899,851968,70,-56,-1,-1,0
1523609503899,1376256,70,-56,-1,-1,0
1523609503939,1900544,70,-56,-1,-1,0
1523609503939,2097152,70,-56,-1,-1,0
1523609503939,2162688,70,-56,-1,-1,0
1523609503939,851968,70,-56,-1,-1,0
1523609503939,-131072,70,-56,-1,-1,0
1523609503979,327680,70,-56,-1,-1,0
1523609503979,-131072,70,-56,-1,-1,0
1523609503979,-589824,70,-56,-1,-1,0
1523609503979,-458752,70,-56,-1,-1,0
1523609503979,-589824,70,-56,-1,-1,0
1523609504019,-589824,70,-56,-1,-1,0
1523609504019,-458752,70,-56,-1,-1,0
1523609504019,-196608,70,-56,-1,-1,0
1523609504019,-196608,70,-56,-1,-1,0
1523609504019,-196608,70,-56,-1,-1,0
1523609504059,-655360,70,-56,-1,-1,0
1523609504059,-1245184,70,-56,-1,-1,0
1523609504059,-2228224,70,-56,-1,-1,0
1523609504059,-3932160,70,-56,-1,-1,0
1523609504059,-6094848,70,-56,-1,-1,0
1523609504099,-6356992,70,-56,-1,-1,0
1523609504099,-5898240,70,-56,-1,-1,0
1523609504099,-5636096,70,-56,-1,-1,0
1523609504099,-4849664,70,-56,-1,-1,0
1523609504099,-3538944,70,-56,-1,-1,0
1523609504139,-3342336,70,-56,-1,-1,0
1523609504139,-2949120,70,-56,-1,-1,0
1523609504139,-2293760,70,-56,-1,-1,0
1523609504139,-1769472,70,-56,-1,-1,0
1523609504139,-1048576,70,-56,-1,-1,0
1523609504179,-786432,70,-56,-1,-1,0
1523609504179,-262144,70,-56,-1,-1,0
1523609504179,-131072,70,-56,-1,-1,0
1523609504179,-65536,70,-56,-1,-1,0
1523609504179,-131072,70,-56,-1,-1,0
1523609504219,-131072,70,-56,-1,-1,0
1523609504219,0,70,-56,-1,-1,0
1523609504219,327680,70,-56,-1,-1,0
1523609504219,524288,70,-56,-1,-1,0
1523609504219,524288,70,-56,-1,-1,0
1523609504259,655360,70,-56,-1,-1,0
1523609504259,720896,70,-56,-1,-1,0
1523609504259,720896,70,-56,-1,-1,0
1523609504259,655360,70,-56,-1,-1,0
1523609504259,524288,70,-56,-1,-1,0
1523609504299,327680,70,-56,-1,-1,0
1523609504299,0,70,-56,-1,-1,0
1523609504299,-196608,70,-56,-1,-1,0
1523609504299,-393216,70,-56,-1,-1,0
1523609504299,-458752,70,-56,-1,-1,0
1523609504339,-327680,70,-56,-1,-1,0
1523609504339,-262144,70,-56,-1,-1,0
1523609504339,-196608,70,-56,-1,-1,0
1523609504339,-786432,70,-56,-1,-1,0
1523609504339,-1703936,70,-56,-1,-1,0
1523609504379,-1376256,70,-56,-1,-1,0
1523609504379,-1114112,70,-56,-1,-1,0
1523609504379,-1179648,70,-56,-1,-1,0
1523609504379,-327680,70,-56,-1,-1,0
1523609504379,2097152,70,-56,-1,-1,0
1523609504419,5505024,70,-56,-1,-1,0
1523609504419,5963776,70,-56,-1,-1,0
1523609504419,2555904,70,-56,-1,-1,0
1523609504419,-1245184,70,-56,-1,-1,0
1523609504419,-2162688,70,-56,-1,-1,0
1523609504459,-1507328,70,-56,-1,-1,0
1523609504459,-786432,70,-56,-1,-1,0
1523609504459,-65536,70,-56,-1,-1,0
1523609504459,589824,70,-56,-1,-1,0
1523609504459,1310720,70,-56,-1,-1,0
1523609504500,2097152,71,-56,-1,-1,0
1523609504500,2490368,71,-56,-1,-1,0
1523609504500,2818048,71,-56,-1,-1,0
1523609504500,3014656,71,-56,-1,-1,0
1523609504500,3276800,71,-56,-1,-1,0
1523609504539,2686976,71,-56,-1,-1,0
1523609504539,2555904,71,-56,-1,-1,0
1523609504539,2555904,71,-56,-1,-1,0
1523609504539,2752512,71,-56,-1,-1,0
1523609504539,2949120,71,-56,-1,-1,0
1523609504579,2424832,71,-56,-1,-1,0
1523609504579,3014656,71,-56,-1,-1,0
1523609504579,3407872,71,-56,-1,-1,0
1523609504579,3538944,71,-56,-1,-1,0
1523609504579,3670016,71,-56,-1,-1,0
1523609504619,3604480,71,-56,-1,-1,0
1523609504619,3473408,71,-56,-1,-1,0
1523609504619,3276800,71,-56,-1,-1,0
1523609504619,3145728,71,-56,-1,-1,0
1523609504619,2883584,71,-56,-1,-1,0
1523609504659,2686976,71,-56,-1,-1,0
1523609504659,2097152,71,-56,-1,-1,0
1523609504659,1114112,71,-56,-1,-1,0
1523609504659,-131072,71,-56,-1,-1,0
1523609504659,-1048576,71,-56,-1,-1,0
1523609504699,-917504,71,-56,-1,-1,0
1523609504699,-1769472,71,-56,-1,-1,0
1523609504699,-2752512,71,-56,-1,-1,0
1523609504699,-3407872,71,-56,-1,-1,0
1523609504699,-3997696,71,-56,-1,-1,0
1523609504739,-3407872,71,-56,-1,-1,0
1523609504739,-2883584,71,-56,-1,-1,0
1523609504739,-2752512,71,-56,-1,-1,0
1523609504739,-2555904,71,-56,-1,-1,0
1523609504739,-1966080,71,-56,-1,-1,0
1523609504779,-1966080,71,-56,-1,-1,0
1523609504779,-1900544,71,-56,-1,-1,0
1523609504779,-1703936,71,-56,-1,-1,0
1523609504779,-1703936,71,-56,-1,-1,0
1523609504779,-1572864,71,-56,-1,-1,0
1523609504819,-1507328,71,-56,-1,-1,0
1523609504819,-1376256,71,-56,-1,-1,0
1523609504819,-1310720,71,-56,-1,-1,0
1523609504819,-1572864,71,-56,-1,-1,0
1523609504819,-2490368,71,-56,-1,-1,0
1523609504859,-2162688,71,-56,-1,-1,0
1523609504859,-851968,71,-56,-1,-1,0
1523609504859,0,71,-56,-1,-1,0
1523609504859,0,71,-56,-1,-1,0
1523609504859,65536,71,-56,-1,-1,0
1523609504899,131072,71,-56,-1,-1,0
1523609504899,65536,71,-56,-1,-1,0
1523609504899,0,71,-56,-1,-1,0
1523609504899,-589824,71,-56,-1,-1,0
1523609504899,-1572864,71,-56,-1,-1,0
1523609504939,-1572864,71,-56,-1,-1,0
1523609504939,-1310720,71,-56,-1,-1,0
1523609504939,-1245184,71,-56,-1,-1,0
1523609504939,-1048576,71,-56,-1,-1,0
1523609504939,-1114112,71,-56,-1,-1,0
1523609504979,-1048576,71,-56,-1,-1,0
1523609504979,-1114112,71,-56,-1,-1,0
1523609504979,-1048576,71,-56,-1,-1,0
1523609504979,-917504,71,-56,-1,-1,0
1523609504979,-327680,71,-56,-1,-1,0
1523609505019,-458752,71,-56,-1,-1,0
1523609505019,-393216,71,-56,-1,-1,0
1523609505019,-327680,71,-56,-1,-1,0
1523609505019,-196608,71,-56,-1,-1,0
1523609505019,-131072,71,-56,-1,-1,0
1523609505059,-131072,71,-56,-1,-1,0
1523609505059,-786432,71,-56,-1,-1,0
1523609505059,-1114112,71,-56,-1,-1,0
1523609505059,-655360,71,-56,-1,-1,0
1523609505059,-458752,71,-56,-1,-1,0
1523609505099,-393216,71,-56,-1,-1,0
1523609505099,65536,71,-56,-1,-1,0
1523609505099,262144,71,-56,-1,-1,0
1523609505099,0,71,-56,-1,-1,0
1523609505099,65536,71,-56,-1,-1,0
1523609505140,131072,71,-56,-1,-1,0
1523609505140,458752,71,-56,-1,-1,0
1523609505140,720896,71,-56,-1,-1,0
1523609505140,786432,71,-56,-1,-1,0
1523609505140,917504,71,-56,-1,-1,0
1523609505179,983040,71,-56,-1,-1,0
1523609505179,1179648,71,-56,-1,-1,0
1523609505179,1310720,71,-56,-1,-1,0
1523609505179,1507328,71,-56,-1,-1,0
1523609505179,1900544,71,-56,-1,-1,0
1523609505219,3735552,71,-56,-1,-1,0
1523609505219,7012352,71,-56,-1,-1,0
1523609505219,8585216,71,-56,-1,-1,0
1523609505219,5701632,71,-56,-1,-1,0
1523609505219,1179648,71,-56,-1,-1,0
1523609505259,-983040,71,-56,-1,-1,0
1523609505259,-851968,71,-56,-1,-1,0
1523609505259,-262144,71,-56,-1,-1,0
1523609505259,131072,71,-56,-1,-1,0
1523609505259,262144,71,-56,-1,-1,0
1523609505299,327680,72,-56,-1,-1,0
1523609505299,393216,72,-56,-1,-1,0
1523609505299,393216,72,-56,-1,-1,0
1523609505299,458752,72,-56,-1,-1,0
1523609505299,458752,72,-56,-1,-1,0
1523609505339,458752,72,-56,-1,-1,0
1523609505339,327680,72,-56,-1,-1,0
1523609505339,262144,72,-56,-1,-1,0
1523609505339,196608,72,-56,-1,-1,0
1523609505339,196608,72,-56,-1,-1,0
1523609505379,131072,72,-56,-1,-1,0
1523609505379,131072,72,-56,-1,-1,0
1523609505379,131072,72,-56,-1,-1,0
1523609505379,262144,72,-56,-1,-1,0
1523609505379,393216,72,-56,-1,-1,0
1523609505419,524288,72,-56,-1,-1,0
1523609505419,589824,72,-56,-1,-1,0
1523609505419,524288,72,-56,-1,-1,0
1523609505419,720896,72,-56,-1,-1,0
1523609505419,1048576,72,-56,-1,-1,0
1523609505459,1441792,72,-56,-1,-1,0
1523609505459,1572864,72,-56,-1,-1,0
1523609505459,1703936,72,-56,-1,-1,0
1523609505459,1638400,72,-56,-1,-1,0
1523609505459,1310720,72,-56,-1,-1,0
1523609505499,851968,72,-56,-1,-1,0
1523609505499,393216,72,-56,-1,-1,0
1523609505499,0,72,-56,-1,-1,0
1523609505499,-196608,72,-56,-1,-1,0
1523609505499,-327680,72,-56,-1,-1,0
1523609505539,-393216,72,-56,-1,-1,0
1523609505539,-327680,72,-56,-1,-1,0
1523609505539,-262144,72,-56,-1,-1,0
1523609505539,-262144,72,-56,-1,-1,0
1523609505539,-131072,72,-56,-1,-1,0
1523609505579,-65536,72,-56,-1,-1,0
1523609505579,0,72,-56,-1,-1,0
1523609505579,0,72,-56,-1,-1,0
1523609505579,-65536,72,-56,-1,-1,0
1523609505579,-131072,72,-56,-1,-1,0
1523609505619,-131072,72,-56,-1,-1,0
1523609505619,-131072,72,-56,-1,-1,0
1523609505619,-196608,72,-56,-1,-1,0
1523609505619,-262144,72,-56,-1,-1,0
1523609505619,-262144,72,-56,-1,-1,0
1523609505659,-262144,72,-56,-1,-1,0
1523609505659,-327680,72,-56,-1,-1,0
1523609505659,-262144,72,-56,-1,-1,0
1523609505659,-196608,72,-56,-1,-1,0
1523609505659,-65536,72,-56,-1,-1,0
1523609505699,0,72,-56,-1,-1,0
1523609505699,196608,72,-56,-1,-1,0
1523609505699,327680,72,-56,-1,-1,0
1523609505699,524288,72,-56,-1,-1,0
1523609505699,655360,72,-56,-1,-1,0
1523609505739,786432,72,-56,-1,-1,0
1523609505739,851968,72,-56,-1,-1,0
1523609505739,851968,72,-56,-1,-1,0
1523609505739,786432,72,-56,-1,-1,0
1523609505739,655360,72,-56,-1,-1,0
1523609505780,393216,72,-56,-1,-1,0
1523609505780,196608,72,-56,-1,-1,0
1523609505780,0,72,-56,-1,-1,0
1523609505780,0,72,-56,-1,-1,0
1523609505780,0,72,-56,-1,-1,0
1523609505819,0,72,-56,-1,-1,0
1523609505819,-65536,72,-56,-1,-1,0
1523609505819,-131072,72,-56,-1,-1,0
1523609505819,-131072,72,-56,-1,-1,0
1523609505819,-65536,72,-56,-1,-1,0
1523609505859,-393216,72,-56,-1,-1,0
1523609505859,-327680,72,-56,-1,-1,0
1523609505859,-262144,72,-56,-1,-1,0
1523609505859,-262144,72,-56,-1,-1,0
1523609505859,-327680,72,-56,-1,-1,0
1523609505899,-393216,72,-56,-1,-1,0
1523609505899,-458752,72,-56,-1,-1,0
1523609505899,-458752,72,-56,-1,-1,0
1523609505899,-458752,72,-56,-1,-1,0
1523609505899,-524288,72,-56,-1,-1,0
1523609505939,-524288,72,-56,-1,-1,0
1523609505939,-393216,72,-56,-1,-1,0
1523609505939,-262144,72,-56,-1,-1,0
1523609505939,-196608,72,-56,-1,-1,0
1523609505939,-262144,72,-56,-1,-1,0
1523609505979,-327680,72,-56,-1,-1,0
1523609505979,-458752,72,-56,-1,-1,0
1523609505979,-589824,72,-56,-1,-1,0
1523609505979,-786432,72,-56,-1,-1,0
1523609505979,-851968,72,-56,-1,-1,0
1523609506019,0,72,-56,-1,-1,0
1523609506019,2490368,72,-56,-1,-1,0
1523609506019,5636096,72,-56,-1,-1,0
1523609506019,5242880,72,-56,-1,-1,0
1523609506019,1245184,72,-56,-1,-1,0
1523609506059,-1835008,72,-56,-1,-1,0
1523609506059,-2162688,72,-56,-1,-1,0
1523609506059,-1703936,72,-56,-1,-1,0
1523609506059,-1507328,72,-56,-1,-1,0
1523609506059,-1310720,72,-56,-1,-1,0
1523609506099,-1245184,72,-56,-1,-1,0
1523609506099,-1114112,72,-56,-1,-1,0
1523609506099,-1048576,72,-56,-1,-1,0
1523609506099,-983040,72,-56,-1,-1,0
1523609506099,-917504,72,-56,-1,-1,0
1523609506139,-851968,72,-56,-1,-1,0
1523609506139,-786432,72,-56,-1,-1,0
1523609506139,-851968,72,-56,-1,-1,0
1523609506139,-1114112,72,-56,-1,-1,0
1523609506139,-1703936,72,-56,-1,-1,0
1523609506179,-1703936,72,-56,-1,-1,0
1523609506179,-1769472,72,-56,-1,-1,0
1523609506179,-720896,72,-56,-1,-1,0
1523609506179,262144,72,-56,-1,-1,0
1523609506179,327680,72,-56,-1,-1,0
1523609506219,589824,72,-56,-1,-1,0
1523609506219,983040,72,-56,-1,-1,0
1523609506219,1441792,72,-56,-1,-1,0
1523609506219,1900544,72,-56,-1,-1,0
1523609506219,2293760,72,-56,-1,-1,0
1523609506259,2555904,72,-56,-1,-1,0
1523609506259,2686976,72,-56,-1,-1,0
1523609506259,2621440,72,-56,-1,-1,0
1523609506259,2293760,72,-56,-1,-1,0
1523609506259,1769472,72,-56,-1,-1,0
1523609506299,1048576,72,-56,-1,-1,0
1523609506299,458752,72,-56,-1,-1,0
1523609506299,-131072,72,-56,-1,-1,0
1523609506299,-589824,72,-56,-1,-1,0
1523609506299,-983040,72,-56,-1,-1,0
1523609506339,-2293760,72,-56,-1,-1,0
1523609506339,-2555904,72,-56,-1,-1,0
1523609506339,-2621440,72,-56,-1,-1,0
1523609506339,-2686976,72,-56,-1,-1,0
1523609506339,-2424832,72,-56,-1,-1,0
1523609506379,-2490368,72,-56,-1,-1,0
1523609506379,-2293760,72,-56,-1,-1,0
1523609506379,-2162688,72,-56,-1,-1,0
1523609506379,-1835008,72,-56,-1,-1,0
1523609506379,-1572864,72,-56,-1,-1,0
1523609506420,-1114112,72,-56,-1,-1,0
1523609506420,-524288,72,-56,-1,-1,0
1523609506420,0,72,-56,-1,-1,0
1523609506420,196608,72,-56,-1,-1,0
1523609506420,327680,72,-56,-1,-1,0
1523609506459,458752,72,-56,-1,-1,0
1523609506459,720896,72,-56,-1,-1,0
1523609506459,786432,72,-56,-1,-1,0
1523609506459,655360,72,-56,-1,-1,0
1523609506459,655360,72,-56,-1,-1,0
1523609506499,524288,72,-56,-1,-1,0
1523609506499,327680,72,-56,-1,-1,0
1523609506499,65536,72,-56,-1,-1,0
1523609506499,-65536,72,-56,-1,-1,0
1523609506499,-196608,72,-56,-1,-1,0
1523609506539,-196608,72,-56,-1,-1,0
1523609506539,-196608,72,-56,-1,-1,0
1523609506539,-196608,72,-56,-1,-1,0
1523609506539,-262144,72,-56,-1,-1,0
1523609506539,-262144,72,-56,-1,-1,0
1523609506579,-393216,72,-56,-1,-1,0
1523609506579,-393216,72,-56,-1,-1,0
1523609506579,-458752,72,-56,-1,-1,0
1523609506579,-458752,72,-56,-1,-1,0
1523609506579,-655360,72,-56,-1,-1,0
1523609506619,-720896,72,-56,-1,-1,0
1523609506619,-786432,72,-56,-1,-1,0
1523609506619,-917504,72,-56,-1,-1,0
1523609506619,-1048576,72,-56,-1,-1,0
1523609506619,-983040,72,-56,-1,-1,0
1523609506659,-851968,72,-56,-1,-1,0
1523609506659,-786432,72,-56,-1,-1,0
1523609506659,-720896,72,-56,-1,-1,0
1523609506659,-655360,72,-56,-1,-1,0
1523609506659,-720896,72,-56,-1,-1,0
1523609506699,-851968,72,-56,-1,-1,0
1523609506699,-983040,72,-56,-1,-1,0
1523609506699,-786432,72,-56,-1,-1,0
1523609506699,-655360,72,-56,-1,-1,0
1523609506699,-589824,72,-56,-1,-1,0
1523609506739,-393216,72,-56,-1,-1,0
1523609506739,-131072,72,-56,-1,-1,0
1523609506739,0,72,-56,-1,-1,0
1523609506739,0,72,-56,-1,-1,0
1523609506739,0,72,-56,-1,-1,0
1523609506779,458752,72,-56,-1,-1,0
1523609506779,2359296,72,-56,-1,-1,0
1523609506779,5308416,72,-56,-1,-1,0
1523609506779,6160384,72,-56,-1,-1,0
1523609506779,2883584,72,-56,-1,-1,0
1523609506819,-1245184,72,-56,-1,-1,0
1523609506819,-2686976,72,-56,-1,-1,0
1523609506819,-2228224,72,-56,-1,-1,0
1523609506819,-1441792,72,-56,-1,-1,0
1523609506819,-1048576,72,-56,-1,-1,0
1523609506859,-851968,73,-56,-1,-1,0
1523609506859,-786432,73,-56,-1,-1,0
1523609506859,-720896,73,-56,-1,-1,0
1523609506859,-851968,73,-56,-1,-1,0
1523609506859,-786432,73,-56,-1,-1,0
1523609506899,-720896,73,-56,-1,-1,0
1523609506899,-983040,73,-56,-1,-1,0
1523609506899,-851968,73,-56,-1,-1,0
1523609506899,-1245184,73,-56,-1,-1,0
1523609506899,-1703936,73,-56,-1,-1,0
1523609506939,-1048576,73,-56,-1,-1,0
1523609506939,-655360,73,-56,-1,-1,0
1523609506939,-327680,73,-56,-1,-1,0
1523609506939,-65536,73,-56,-1,-1,0
1523609506939,131072,73,-56,-1,-1,0
1523609506979,393216,73,-56,-1,-1,0
1523609506979,655360,73,-56,-1,-1,0
1523609506979,1048576,73,-56,-1,-1,0
1523609506979,1376256,73,-56,-1,-1,0
1523609506979,1638400,73,-56,-1,-1,0
1523609507019,1835008,73,-56,-1,-1,0
1523609507019,1900544,73,-56,-1,-1,0
1523609507019,1900544,73,-56,-1,-1,0
1523609507019,1703936,73,-56,-1,-1,0
1523609507019,1310720,73,-56,-1,-1,0
1523609507060,786432,73,-56,-1,-1,0
1523609507060,262144,73,-56,-1,-1,0
1523609507060,-131072,73,-56,-1,-1,0
1523609507060,-524288,73,-56,-1,-1,0
1523609507060,-720896,73,-56,-1,-1,0
1523609507099,-917504,73,-56,-1,-1,0
1523609507099,-983040,73,-56,-1,-1,0
1523609507099,-1179648,73,-56,-1,-1,0
1523609507099,-1310720,73,-56,-1,-1,0
1523609507099,-1441792,73,-56,-1,-1,0
1523609507139,-1376256,73,-56,-1,-1,0
1523609507139,-1310720,73,-56,-1,-1,0
1523609507139,-1245184,73,-56,-1,-1,0
1523609507139,-1179648,73,-56,-1,-1,0
1523609507139,-1310720,73,-56,-1,-1,0
1523609507179,-1376256,73,-56,-1,-1,0
1523609507179,-1376256,73,-56,-1,-1,0
1523609507179,-1310720,73,-56,-1,-1,0
1523609507179,-1310720,73,-56,-1,-1,0
1523609507179,-1376256,73,-56,-1,-1,0
1523609507219,-1376256,73,-56,-1,-1,0
1523609507219,-1376256,73,-56,-1,-1,0
1523609507219,-1376256,73,-56,-1,-1,0
1523609507219,-1376256,73,-56,-1,-1,0
1523609507219,-1376256,73,-56,-1,-1,0
1523609507259,-1310720,73,-56,-1,-1,0
1523609507259,-1245184,73,-56,-1,-1,0
1523609507259,-1179648,73,-56,-1,-1,0
1523609507259,-1048576,73,-56,-1,-1,0
1523609507259,-917504,73,-56,-1,-1,0
1523609507299,-917504,73,-56,-1,-1,0
1523609507299,-917504,73,-56,-1,-1,0
1523609507299,-917504,73,-56,-1,-1,0
1523609507299,-983040,73,-56,-1,-1,0
1523609507299,-983040,73,-56,-1,-1,0
1523609507339,-1048576,73,-56,-1,-1,0
1523609507339,-1048576,73,-56,-1,-1,0
1523609507339,-1572864,73,-56,-1,-1,0
1523609507339,-1376256,73,-56,-1,-1,0
1523609507339,-786432,73,-56,-1,-1,0
1523609507379,-524288,73,-56,-1,-1,0
1523609507379,-327680,73,-56,-1,-1,0
1523609507379,-262144,73,-56,-1,-1,0
1523609507379,-262144,73,-56,-1,-1,0
1523609507379,-131072,73,-56,-1,-1,0
1523609507419,0,73,-56,-1,-1,0
1523609507419,196608,73,-56,-1,-1,0
1523609507419,327680,73,-56,-1,-1,0
1523609507419,655360,73,-56,-1,-1,0
1523609507419,917504,73,-56,-1,-1,0
1523609507459,1179648,73,-56,-1,-1,0
1523609507459,1572864,73,-56,-1,-1,0
1523609507459,1835008,73,-56,-1,-1,0
1523609507459,1966080,73,-56,-1,-1,0
1523609507459,2097152,73,-56,-1,-1,0
1523609507499,2031616,73,-56,-1,-1,0
1523609507499,2031616,73,-56,-1,-1,0
1523609507499,1966080,73,-56,-1,-1,0
1523609507499,1900544,73,-56,-1,-1,0
1523609507499,1966080,73,-56,-1,-1,0
1523609507539,1835008,73,-56,-1,-1,0
1523609507539,1572864,73,-56,-1,-1,0
1523609507539,1507328,73,-56,-1,-1,0
1523609507539,1638400,73,-56,-1,-1,0
1523609507539,2031616,73,-56,-1,-1,0
1523609507579,3211264,73,-56,-1,-1,0
1523609507579,5898240,73,-56,-1,-1,0
1523609507579,9502720,73,-56,-1,-1,0
1523609507579,9961472,73,-56,-1,-1,0
1523609507579,6422528,73,-56,-1,-1,0
1523609507619,2621440,73,-56,-1,-1,0
1523609507619,1835008,73,-56,-1,-1,0
1523609507619,2490368,73,-56,-1,-1,0
1523609507619,3014656,73,-56,-1,-1,0
1523609507619,3014656,73,-56,-1,-1,0
1523609507660,2686976,73,-56,-1,-1,0
1523609507660,2293760,73,-56,-1,-1,0
1523609507660,1900544,73,-56,-1,-1,0
1523609507660,1507328,73,-56,-1,-1,0
1523609507660,1179648,73,-56,-1,-1,0
1523609507701,786432,73,-56,-1,-1,0
1523609507701,524288,73,-56,-1,-1,0
1523609507701,262144,73,-56,-1,-1,0
1523609507701,196608,73,-56,-1,-1,0
1523609507701,262144,73,-56,-1,-1,0
1523609507739,458752,73,-56,-1,-1,0
1523609507739,655360,73,-56,-1,-1,0
1523609507739,720896,73,-56,-1,-1,0
1523609507739,786432,73,-56,-1,-1,0
1523609507739,917504,73,-56,-1,-1,0
1523609507779,1114112,73,-56,-1,-1,0
1523609507779,1310720,73,-56,-1,-1,0
1523609507779,1507328,73,-56,-1,-1,0
1523609507779,1638400,73,-56,-1,-1,0
1523609507779,1703936,73,-56,-1,-1,0
1523609507819,1966080,73,-56,-1,-1,0
1523609507819,2097152,73,-56,-1,-1,0
1523609507819,2031616,73,-56,-1,-1,0
1523609507819,1703936,73,-56,-1,-1,0
1523609507819,1441792,73,-56,-1,-1,0
1523609507859,1048576,73,-56,-1,-1,0
1523609507859,458752,73,-56,-1,-1,0
1523609507859,-131072,73,-56,-1,-1,0
1523609507859,-524288,73,-56,-1,-1,0
1523609507859,-1114112,73,-56,-1,-1,0
1523609507898,-1507328,73,-56,-1,-1,0
1523609507898,-1769472,73,-56,-1,-1,0
1523609507898,-2031616,73,-56,-1,-1,0
1523609507898,-2162688,73,-56,-1,-1,0
1523609507898,-2293760,73,-56,-1,-1,0
1523609507938,-2359296,73,-56,-1,-1,0
1523609507938,-2490368,73,-56,-1,-1,0
1523609507938,-2490368,73,-56,-1,-1,0
1523609507938,-2359296,73,-56,-1,-1,0
1523609507938,-2097152,73,-56,-1,-1,0
1523609507978,-1900544,73,-56,-1,-1,0
1523609507978,-1769472,73,-56,-1,-1,0
1523609507978,-1638400,73,-56,-1,-1,0
1523609507978,-1507328,73,-56,-1,-1,0
1523609507978,-1310720,73,-56,-1,-1,0
1523609508018,-1179648,73,-56,-1,-1,0
1523609508018,-917504,73,-56,-1,-1,0
1523609508018,-655360,73,-56,-1,-1,0
1523609508018,-393216,73,-56,-1,-1,0
1523609508018,-327680,73,-56,-1,-1,0
