milliseconds, ECG, ECG HR, PPG, PPG HR, SpO2, PI
1523610585881,-983040,96,-56,-1,-1,0
1523610585881,-1114112,96,-56,-1,-1,0
1523610585881,-1114112,96,-56,-1,-1,0
1523610585881,-1114112,96,-56,-1,-1,0
1523610585881,-1245184,96,-56,-1,-1,0
1523610585921,-1179648,96,-56,-1,-1,0
1523610585921,-65536,96,-56,-1,-1,0
1523610585921,3211264,96,-56,-1,-1,0
1523610585921,8519680,96,-56,-1,-1,0
1523610585921,11141120,96,-56,-1,-1,0
1523610585961,7143424,96,-56,-1,-1,0
1523610585961,720896,96,-56,-1,-1,0
1523610585961,-1900544,96,-56,-1,-1,0
1523610585961,-1441792,96,-56,-1,-1,0
1523610585961,-917504,96,-56,-1,-1,0
1523610586001,-786432,96,-56,-1,-1,0
1523610586001,-786432,96,-56,-1,-1,0
1523610586001,-786432,96,-56,-1,-1,0
1523610586001,-524288,96,-56,-1,-1,0
1523610586001,-393216,96,-56,-1,-1,0
1523610586041,-196608,96,-56,-1,-1,0
1523610586041,-196608,96,-56,-1,-1,0
1523610586041,-131072,96,-56,-1,-1,0
1523610586041,-65536,96,-56,-1,-1,0
1523610586041,65536,96,-56,-1,-1,0
1523610586081,327680,96,-56,-1,-1,0
1523610586081,786432,96,-56,-1,-1,0
1523610586081,1048576,96,-56,-1,-1,0
1523610586081,1179648,96,-56,-1,-1,0
1523610586081,1310720,96,-56,-1,-1,0
1523610586137,1703936,96,-56,-1,-1,0
1523610586137,2097152,96,-56,-1,-1,0
1523610586137,2228224,96,-56,-1,-1,0
1523610586137,2162688,96,-56,-1,-1,0
1523610586137,2293760,96,-56,-1,-1,0
1523610586161,2359296,96,-56,-1,-1,0
1523610586161,2031616,96,-56,-1,-1,0
1523610586161,1507328,96,-56,-1,-1,0
1523610586161,1048576,96,-56,-1,-1,0
1523610586161,589824,96,-56,-1,-1,0
1523610586201,196608,96,-56,-1,-1,0
1523610586201,-131072,96,-56,-1,-1,0
1523610586201,-393216,96,-56,-1,-1,0
1523610586201,-458752,96,-56,-1,-1,0
1523610586201,-524288,96,-56,-1,-1,0
1523610586241,-524288,96,-56,-1,-1,0
1523610586241,-589824,96,-56,-1,-1,0
1523610586241,-589824,96,-56,-1,-1,0
1523610586241,-655360,96,-56,-1,-1,0
1523610586241,-589824,96,-56,-1,-1,0
1523610586281,-524288,96,-56,-1,-1,0
1523610586281,-524288,96,-56,-1,-1,0
1523610586281,-589824,96,-56,-1,-1,0
1523610586281,-589824,96,-56,-1,-1,0
1523610586281,-589824,96,-56,-1,-1,0
1523610586321,-589824,96,-56,-1,-1,0
1523610586321,-589824,96,-56,-1,-1,0
1523610586321,-655360,96,-56,-1,-1,0
1523610586321,-786432,96,-56,-1,-1,0
1523610586321,-851968,96,-56,-1,-1,0
1523610586361,-786432,96,-56,-1,-1,0
1523610586361,-786432,96,-56,-1,-1,0
1523610586361,-786432,96,-56,-1,-1,0
1523610586361,-851968,96,-56,-1,-1,0
1523610586361,-851968,96,-56,-1,-1,0
1523610586401,-983040,96,-56,-1,-1,0
1523610586401,-1114112,96,-56,-1,-1,0
1523610586401,-1179648,96,-56,-1,-1,0
1523610586401,-1114112,96,-56,-1,-1,0
1523610586401,-1048576,96,-56,-1,-1,0
1523610586441,-1048576,96,-56,-1,-1,0
1523610586441,-917504,96,-56,-1,-1,0
1523610586441,-655360,96,-56,-1,-1,0
1523610586441,-524288,96,-56,-1,-1,0
1523610586441,-524288,96,-56,-1,-1,0
1523610586481,-655360,96,-56,-1,-1,0
1523610586481,-655360,96,-56,-1,-1,0
1523610586481,-589824,96,-56,-1,-1,0
1523610586481,-589824,96,-56,-1,-1,0
1523610586481,-524288,96,-56,-1,-1,0
1523610586521,-458752,96,-56,-1,-1,0
1523610586521,-458752,96,-56,-1,-1,0
1523610586521,-458752,96,-56,-1,-1,0
1523610586521,-458752,96,-56,-1,-1,0
1523610586521,-524288,96,-56,-1,-1,0
1523610586561,-65536,96,-56,-1,-1,0
1523610586561,1966080,96,-56,-1,-1,0
1523610586561,6291456,96,-56,-1,-1,0
1523610586561,11075584,96,-56,-1,-1,0
1523610586561,10420224,96,-56,-1,-1,0
1523610586601,4390912,96,-56,-1,-1,0
1523610586601,-589824,96,-56,-1,-1,0
1523610586601,-1245184,96,-56,-1,-1,0
1523610586601,-589824,96,-56,-1,-1,0
1523610586601,-458752,96,-56,-1,-1,0
1523610586641,-458752,96,-56,-1,-1,0
1523610586641,-458752,96,-56,-1,-1,0
1523610586641,-458752,96,-56,-1,-1,0
1523610586641,-458752,96,-56,-1,-1,0
1523610586641,-393216,96,-56,-1,-1,0
1523610586681,-262144,96,-56,-1,-1,0
1523610586681,-196608,96,-56,-1,-1,0
1523610586681,-131072,96,-56,-1,-1,0
1523610586681,0,96,-56,-1,-1,0
1523610586681,65536,96,-56,-1,-1,0
1523610586721,262144,96,-56,-1,-1,0
1523610586721,458752,96,-56,-1,-1,0
1523610586721,655360,96,-56,-1,-1,0
1523610586721,851968,96,-56,-1,-1,0
1523610586721,1114112,96,-56,-1,-1,0
1523610586777,1441792,96,-56,-1,-1,0
1523610586777,1638400,96,-56,-1,-1,0
1523610586777,1769472,96,-56,-1,-1,0
1523610586777,1703936,96,-56,-1,-1,0
1523610586777,1507328,96,-56,-1,-1,0
1523610586801,1310720,96,-56,-1,-1,0
1523610586801,1114112,96,-56,-1,-1,0
1523610586801,720896,96,-56,-1,-1,0
1523610586801,327680,96,-56,-1,-1,0
1523610586801,-65536,96,-56,-1,-1,0
1523610586841,-393216,96,-56,-1,-1,0
1523610586841,-589824,96,-56,-1,-1,0
1523610586841,-655360,96,-56,-1,-1,0
1523610586841,-655360,96,-56,-1,-1,0
1523610586841,-655360,96,-56,-1,-1,0
1523610586881,-720896,96,-56,-1,-1,0
1523610586881,-786432,96,-56,-1,-1,0
1523610586881,-786432,96,-56,-1,-1,0
1523610586881,-786432,96,-56,-1,-1,0
1523610586881,-720896,96,-56,-1,-1,0
1523610586921,-720896,96,-56,-1,-1,0
1523610586921,-655360,96,-56,-1,-1,0
1523610586921,-589824,96,-56,-1,-1,0
1523610586921,-393216,96,-56,-1,-1,0
1523610586921,-196608,96,-56,-1,-1,0
1523610586961,-65536,96,-56,-1,-1,0
1523610586961,0,96,-56,-1,-1,0
1523610586961,0,96,-56,-1,-1,0
1523610586961,0,96,-56,-1,-1,0
1523610586961,0,96,-56,-1,-1,0
1523610587001,-65536,96,-56,-1,-1,0
1523610587001,-131072,96,-56,-1,-1,0
1523610587001,-262144,96,-56,-1,-1,0
1523610587001,-262144,96,-56,-1,-1,0
1523610587001,-65536,96,-56,-1,-1,0
1523610587041,-131072,96,-56,-1,-1,0
1523610587041,-393216,96,-56,-1,-1,0
1523610587041,-458752,96,-56,-1,-1,0
1523610587041,-262144,96,-56,-1,-1,0
1523610587041,-65536,96,-56,-1,-1,0
1523610587081,-262144,96,-56,-1,-1,0
1523610587081,-327680,96,-56,-1,-1,0
1523610587081,-262144,96,-56,-1,-1,0
1523610587081,-65536,96,-56,-1,-1,0
1523610587081,0,96,-56,-1,-1,0
1523610587121,131072,96,-56,-1,-1,0
1523610587121,458752,96,-56,-1,-1,0
1523610587121,458752,96,-56,-1,-1,0
1523610587121,327680,96,-56,-1,-1,0
1523610587121,327680,96,-56,-1,-1,0
1523610587161,458752,96,-56,-1,-1,0
1523610587161,524288,96,-56,-1,-1,0
1523610587161,589824,96,-56,-1,-1,0
1523610587161,655360,96,-56,-1,-1,0
1523610587161,720896,96,-56,-1,-1,0
1523610587201,720896,96,-56,-1,-1,0
1523610587201,655360,96,-56,-1,-1,0
1523610587201,589824,96,-56,-1,-1,0
1523610587201,983040,96,-56,-1,-1,0
1523610587201,3014656,96,-56,-1,-1,0
1523610587241,7012352,96,-56,-1,-1,0
1523610587241,10420224,96,-56,-1,-1,0
1523610587241,8454144,96,-56,-1,-1,0
1523610587241,2424832,96,-56,-1,-1,0
1523610587241,-1703936,96,-56,-1,-1,0
1523610587281,-1966080,96,-56,-1,-1,0
1523610587281,-1376256,96,-56,-1,-1,0
1523610587281,-1376256,96,-56,-1,-1,0
1523610587281,-1507328,96,-56,-1,-1,0
1523610587281,-1572864,96,-56,-1,-1,0
1523610587321,-1507328,96,-56,-1,-1,0
1523610587321,-1507328,96,-56,-1,-1,0
1523610587321,-1441792,96,-56,-1,-1,0
1523610587321,-1376256,96,-56,-1,-1,0
1523610587321,-1245184,96,-56,-1,-1,0
1523610587361,-1114112,96,-56,-1,-1,0
1523610587361,-983040,96,-56,-1,-1,0
1523610587361,-917504,96,-56,-1,-1,0
1523610587361,-851968,96,-56,-1,-1,0
1523610587361,-524288,96,-56,-1,-1,0
1523610587417,-65536,96,-56,-1,-1,0
1523610587417,327680,96,-56,-1,-1,0
1523610587417,655360,96,-56,-1,-1,0
1523610587417,917504,96,-56,-1,-1,0
1523610587417,917504,96,-56,-1,-1,0
1523610587441,786432,96,-56,-1,-1,0
1523610587441,720896,96,-56,-1,-1,0
1523610587441,655360,96,-56,-1,-1,0
1523610587441,393216,96,-56,-1,-1,0
1523610587441,0,96,-56,-1,-1,0
1523610587481,-589824,96,-56,-1,-1,0
1523610587481,-1114112,96,-56,-1,-1,0
1523610587481,-1507328,96,-56,-1,-1,0
1523610587481,-1835008,96,-56,-1,-1,0
1523610587481,-2162688,96,-56,-1,-1,0
1523610587521,-2359296,96,-56,-1,-1,0
1523610587521,-2490368,96,-56,-1,-1,0
1523610587521,-2490368,96,-56,-1,-1,0
1523610587521,-2359296,96,-56,-1,-1,0
1523610587521,-2162688,96,-56,-1,-1,0
1523610587561,-2031616,96,-56,-1,-1,0
1523610587561,-1900544,96,-56,-1,-1,0
1523610587561,-1769472,96,-56,-1,-1,0
1523610587561,-1638400,96,-56,-1,-1,0
1523610587561,-1507328,96,-56,-1,-1,0
1523610587601,-1507328,96,-56,-1,-1,0
1523610587601,-1638400,96,-56,-1,-1,0
1523610587601,-1703936,96,-56,-1,-1,0
1523610587601,-1638400,96,-56,-1,-1,0
1523610587601,-1507328,96,-56,-1,-1,0
1523610587641,-1376256,96,-56,-1,-1,0
1523610587641,-1310720,96,-56,-1,-1,0
1523610587641,-1179648,96,-56,-1,-1,0
1523610587641,-1048576,96,-56,-1,-1,0
1523610587641,-917504,96,-56,-1,-1,0
1523610587681,-786432,96,-56,-1,-1,0
1523610587681,-655360,96,-56,-1,-1,0
1523610587681,-655360,96,-56,-1,-1,0
1523610587681,-720896,96,-56,-1,-1,0
1523610587681,-786432,96,-56,-1,-1,0
1523610587721,-786432,96,-56,-1,-1,0
1523610587721,-655360,96,-56,-1,-1,0
1523610587721,-524288,96,-56,-1,-1,0
1523610587721,-458752,96,-56,-1,-1,0
1523610587721,-327680,96,-56,-1,-1,0
1523610587761,-65536,96,-56,-1,-1,0
1523610587761,65536,96,-56,-1,-1,0
1523610587761,0,96,-56,-1,-1,0
1523610587761,-65536,96,-56,-1,-1,0
1523610587761,-262144,96,-56,-1,-1,0
1523610587801,-393216,96,-56,-1,-1,0
1523610587801,-393216,96,-56,-1,-1,0
1523610587801,-458752,96,-56,-1,-1,0
1523610587801,-524288,96,-56,-1,-1,0
1523610587801,-458752,96,-56,-1,-1,0
1523610587841,-393216,96,-56,-1,-1,0
1523610587841,-393216,96,-56,-1,-1,0
1523610587841,-262144,96,-56,-1,-1,0
1523610587841,327680,96,-56,-1,-1,0
1523610587841,2686976,96,-56,-1,-1,0
1523610587881,7077888,96,-56,-1,-1,0
1523610587881,11468800,96,-56,-1,-1,0
1523610587881,10158080,96,-56,-1,-1,0
1523610587881,4063232,96,-56,-1,-1,0
1523610587881,-393216,96,-56,-1,-1,0
1523610587921,-524288,96,-56,-1,-1,0
1523610587921,327680,96,-56,-1,-1,0
1523610587921,720896,96,-56,-1,-1,0
1523610587921,786432,96,-56,-1,-1,0
1523610587921,720896,96,-56,-1,-1,0
1523610587961,786432,96,-56,-1,-1,0
1523610587961,917504,96,-56,-1,-1,0
1523610587961,917504,96,-56,-1,-1,0
1523610587961,917504,96,-56,-1,-1,0
1523610587961,917504,96,-56,-1,-1,0
1523610588001,983040,96,-56,-1,-1,0
1523610588001,917504,96,-56,-1,-1,0
1523610588001,917504,96,-56,-1,-1,0
1523610588001,983040,96,-56,-1,-1,0
1523610588001,1114112,96,-56,-1,-1,0
1523610588057,1310720,96,-56,-1,-1,0
1523610588057,1638400,96,-56,-1,-1,0
1523610588057,1966080,96,-56,-1,-1,0
1523610588057,2293760,96,-56,-1,-1,0
1523610588057,2490368,96,-56,-1,-1,0
1523610588081,2686976,96,-56,-1,-1,0
1523610588081,2621440,96,-56,-1,-1,0
1523610588081,2490368,96,-56,-1,-1,0
1523610588081,2097152,96,-56,-1,-1,0
1523610588081,1441792,96,-56,-1,-1,0
1523610588121,720896,96,-56,-1,-1,0
1523610588121,65536,96,-56,-1,-1,0
1523610588121,-393216,96,-56,-1,-1,0
1523610588121,-786432,96,-56,-1,-1,0
1523610588121,-1114112,96,-56,-1,-1,0
1523610588161,-1376256,96,-56,-1,-1,0
1523610588161,-1572864,96,-56,-1,-1,0
1523610588161,-1572864,96,-56,-1,-1,0
1523610588161,-1572864,96,-56,-1,-1,0
1523610588161,-1638400,96,-56,-1,-1,0
1523610588201,-1769472,96,-56,-1,-1,0
1523610588201,-1835008,96,-56,-1,-1,0
1523610588201,-1703936,96,-56,-1,-1,0
1523610588201,-1572864,96,-56,-1,-1,0
1523610588201,-1441792,96,-56,-1,-1,0
1523610588241,-1310720,96,-56,-1,-1,0
1523610588241,-1245184,96,-56,-1,-1,0
1523610588241,-1114112,96,-56,-1,-1,0
1523610588241,-1048576,96,-56,-1,-1,0
1523610588241,-1048576,96,-56,-1,-1,0
1523610588281,-1048576,96,-56,-1,-1,0
1523610588281,-1048576,96,-56,-1,-1,0
1523610588281,-983040,96,-56,-1,-1,0
1523610588281,-983040,96,-56,-1,-1,0
1523610588281,-983040,96,-56,-1,-1,0
1523610588321,-1048576,96,-56,-1,-1,0
1523610588321,-1114112,96,-56,-1,-1,0
1523610588321,-1179648,96,-56,-1,-1,0
1523610588321,-1179648,96,-56,-1,-1,0
1523610588321,-1245184,96,-56,-1,-1,0
1523610588361,-1245184,96,-56,-1,-1,0
1523610588361,-1245184,96,-56,-1,-1,0
1523610588361,-1179648,96,-56,-1,-1,0
1523610588361,-983040,96,-56,-1,-1,0
1523610588361,-720896,96,-56,-1,-1,0
1523610588401,-589824,96,-56,-1,-1,0
1523610588401,-655360,96,-56,-1,-1,0
1523610588401,-851968,96,-56,-1,-1,0
1523610588401,-917504,96,-56,-1,-1,0
1523610588401,-983040,96,-56,-1,-1,0
1523610588441,-983040,95,-56,-1,-1,0
1523610588441,-851968,95,-56,-1,-1,0
1523610588441,-851968,95,-56,-1,-1,0
1523610588441,-851968,95,-56,-1,-1,0
1523610588441,-786432,95,-56,-1,-1,0
1523610588481,-720896,95,-56,-1,-1,0
1523610588481,-655360,95,-56,-1,-1,0
1523610588481,-131072,95,-56,-1,-1,0
1523610588481,1835008,95,-56,-1,-1,0
1523610588481,6029312,95,-56,-1,-1,0
1523610588521,10813440,95,-56,-1,-1,0
1523610588521,10616832,95,-56,-1,-1,0
1523610588521,4849664,95,-56,-1,-1,0
1523610588521,-327680,95,-56,-1,-1,0
1523610588521,-1114112,95,-56,-1,-1,0
1523610588561,-524288,95,-56,-1,-1,0
1523610588561,-327680,95,-56,-1,-1,0
1523610588561,-262144,95,-56,-1,-1,0
1523610588561,-196608,95,-56,-1,-1,0
1523610588561,-131072,95,-56,-1,-1,0
1523610588601,-131072,95,-56,-1,-1,0
1523610588601,-131072,95,-56,-1,-1,0
1523610588601,-65536,95,-56,-1,-1,0
1523610588601,0,95,-56,-1,-1,0
1523610588601,65536,95,-56,-1,-1,0
1523610588641,196608,95,-56,-1,-1,0
1523610588641,393216,95,-56,-1,-1,0
1523610588641,589824,95,-56,-1,-1,0
1523610588641,786432,95,-56,-1,-1,0
1523610588641,983040,95,-56,-1,-1,0
1523610588697,1245184,95,-56,-1,-1,0
1523610588697,1507328,95,-56,-1,-1,0
1523610588697,1769472,95,-56,-1,-1,0
1523610588697,2031616,95,-56,-1,-1,0
1523610588697,2097152,95,-56,-1,-1,0
1523610588721,2097152,95,-56,-1,-1,0
1523610588721,1966080,95,-56,-1,-1,0
1523610588721,1769472,95,-56,-1,-1,0
1523610588721,1507328,95,-56,-1,-1,0
1523610588721,1048576,95,-56,-1,-1,0
1523610588761,524288,95,-56,-1,-1,0
1523610588761,131072,95,-56,-1,-1,0
1523610588761,-65536,95,-56,-1,-1,0
1523610588761,-262144,95,-56,-1,-1,0
1523610588761,-393216,95,-56,-1,-1,0
1523610588801,-458752,95,-56,-1,-1,0
1523610588801,-524288,95,-56,-1,-1,0
1523610588801,-524288,95,-56,-1,-1,0
1523610588801,-524288,95,-56,-1,-1,0
1523610588801,-458752,95,-56,-1,-1,0
1523610588841,-393216,95,-56,-1,-1,0
1523610588841,-393216,95,-56,-1,-1,0
1523610588841,-327680,95,-56,-1,-1,0
1523610588841,-327680,95,-56,-1,-1,0
1523610588841,-393216,95,-56,-1,-1,0
1523610588881,-393216,95,-56,-1,-1,0
1523610588881,-458752,95,-56,-1,-1,0
1523610588881,-458752,95,-56,-1,-1,0
1523610588881,-524288,95,-56,-1,-1,0
1523610588881,-589824,95,-56,-1,-1,0
1523610588921,-655360,95,-56,-1,-1,0
1523610588921,-655360,95,-56,-1,-1,0
1523610588921,-720896,95,-56,-1,-1,0
1523610588921,-851968,95,-56,-1,-1,0
1523610588921,-851968,95,-56,-1,-1,0
1523610588961,-589824,95,-56,-1,-1,0
1523610588961,-393216,95,-56,-1,-1,0
1523610588961,-524288,95,-56,-1,-1,0
1523610588961,-655360,95,-56,-1,-1,0
1523610588961,-786432,95,-56,-1,-1,0
1523610589001,-983040,95,-56,-1,-1,0
1523610589001,-1114112,95,-56,-1,-1,0
1523610589001,-1114112,95,-56,-1,-1,0
1523610589001,-1114112,95,-56,-1,-1,0
1523610589001,-1114112,95,-56,-1,-1,0
1523610589041,-1048576,95,-56,-1,-1,0
1523610589041,-917504,95,-56,-1,-1,0
1523610589041,-851968,95,-56,-1,-1,0
1523610589041,-917504,95,-56,-1,-1,0
1523610589041,-1114112,95,-56,-1,-1,0
1523610589081,-1179648,95,-56,-1,-1,0
1523610589081,-1179648,95,-56,-1,-1,0
1523610589081,-1179648,95,-56,-1,-1,0
1523610589081,-1179648,95,-56,-1,-1,0
1523610589081,-1179648,95,-56,-1,-1,0
1523610589121,-1179648,94,-56,-1,-1,0
1523610589121,-1114112,94,-56,-1,-1,0
1523610589121,-1114112,94,-56,-1,-1,0
1523610589121,-983040,94,-56,-1,-1,0
1523610589121,-327680,94,-56,-1,-1,0
1523610589161,1966080,94,-56,-1,-1,0
1523610589161,6356992,94,-56,-1,-1,0
1523610589161,10158080,94,-56,-1,-1,0
1523610589161,8388608,94,-56,-1,-1,0
1523610589161,2359296,94,-56,-1,-1,0
1523610589201,-1507328,94,-56,-1,-1,0
1523610589201,-1507328,94,-56,-1,-1,0
1523610589201,-983040,94,-56,-1,-1,0
1523610589201,-917504,94,-56,-1,-1,0
1523610589201,-851968,94,-56,-1,-1,0
1523610589241,-786432,94,-56,-1,-1,0
1523610589241,-655360,94,-56,-1,-1,0
1523610589241,-655360,94,-56,-1,-1,0
1523610589241,-589824,94,-56,-1,-1,0
1523610589241,-524288,94,-56,-1,-1,0
1523610589281,-393216,94,-56,-1,-1,0
1523610589281,-393216,94,-56,-1,-1,0
1523610589281,-327680,94,-56,-1,-1,0
1523610589281,-262144,94,-56,-1,-1,0
1523610589281,0,94,-56,-1,-1,0
1523610589337,393216,94,-56,-1,-1,0
1523610589337,589824,94,-56,-1,-1,0
1523610589337,851968,94,-56,-1,-1,0
1523610589337,1048576,94,-56,-1,-1,0
1523610589337,1245184,94,-56,-1,-1,0
1523610589361,1376256,94,-56,-1,-1,0
1523610589361,1441792,94,-56,-1,-1,0
1523610589361,1441792,94,-56,-1,-1,0
1523610589361,1441792,94,-56,-1,-1,0
1523610589361,1245184,94,-56,-1,-1,0
1523610589401,983040,94,-56,-1,-1,0
1523610589401,524288,94,-56,-1,-1,0
1523610589401,131072,94,-56,-1,-1,0
1523610589401,-196608,94,-56,-1,-1,0
1523610589401,-458752,94,-56,-1,-1,0
1523610589441,-720896,94,-56,-1,-1,0
1523610589441,-786432,94,-56,-1,-1,0
1523610589441,-917504,94,-56,-1,-1,0
1523610589441,-917504,94,-56,-1,-1,0
1523610589441,-917504,94,-56,-1,-1,0
1523610589481,-851968,94,-56,-1,-1,0
1523610589481,-786432,94,-56,-1,-1,0
1523610589481,-786432,94,-56,-1,-1,0
1523610589481,-720896,94,-56,-1,-1,0
1523610589481,-720896,94,-56,-1,-1,0
1523610589521,-720896,94,-56,-1,-1,0
1523610589521,-720896,94,-56,-1,-1,0
1523610589521,-720896,94,-56,-1,-1,0
1523610589521,-786432,94,-56,-1,-1,0
1523610589521,-851968,94,-56,-1,-1,0
1523610589561,-851968,94,-56,-1,-1,0
1523610589561,-917504,94,-56,-1,-1,0
1523610589561,-1048576,94,-56,-1,-1,0
1523610589561,-1114112,94,-56,-1,-1,0
1523610589561,-917504,94,-56,-1,-1,0
1523610589601,-786432,94,-56,-1,-1,0
1523610589601,-786432,94,-56,-1,-1,0
1523610589601,-851968,94,-56,-1,-1,0
1523610589601,-851968,94,-56,-1,-1,0
1523610589601,-917504,94,-56,-1,-1,0
1523610589641,-917504,94,-56,-1,-1,0
1523610589641,-917504,94,-56,-1,-1,0
1523610589641,-1048576,94,-56,-1,-1,0
1523610589641,-1114112,94,-56,-1,-1,0
1523610589641,-1179648,94,-56,-1,-1,0
1523610589681,-1114112,94,-56,-1,-1,0
1523610589681,-1048576,94,-56,-1,-1,0
1523610589681,-1048576,94,-56,-1,-1,0
1523610589681,-917504,94,-56,-1,-1,0
1523610589681,-786432,94,-56,-1,-1,0
1523610589721,-720896,94,-56,-1,-1,0
1523610589721,-851968,94,-56,-1,-1,0
1523610589721,-1048576,94,-56,-1,-1,0
1523610589721,-1114112,94,-56,-1,-1,0
1523610589721,-1048576,94,-56,-1,-1,0
1523610589761,-917504,94,-56,-1,-1,0
1523610589761,-983040,94,-56,-1,-1,0
1523610589761,-1048576,94,-56,-1,-1,0
1523610589761,-1114112,94,-56,-1,-1,0
1523610589761,-1114112,94,-56,-1,-1,0
1523610589801,-1048576,94,-56,-1,-1,0
1523610589801,-983040,94,-56,-1,-1,0
1523610589801,-524288,94,-56,-1,-1,0
1523610589801,1245184,94,-56,-1,-1,0
1523610589801,5177344,94,-56,-1,-1,0
1523610589841,9371648,94,-56,-1,-1,0
1523610589841,8912896,94,-56,-1,-1,0
1523610589841,3407872,94,-56,-1,-1,0
1523610589841,-1114112,94,-56,-1,-1,0
1523610589841,-1703936,94,-56,-1,-1,0
1523610589881,-1114112,94,-56,-1,-1,0
1523610589881,-851968,94,-56,-1,-1,0
1523610589881,-851968,94,-56,-1,-1,0
1523610589881,-786432,94,-56,-1,-1,0
1523610589881,-720896,94,-56,-1,-1,0
1523610589921,-655360,94,-56,-1,-1,0
1523610589921,-589824,94,-56,-1,-1,0
1523610589921,-524288,94,-56,-1,-1,0
1523610589921,-458752,94,-56,-1,-1,0
1523610589921,-393216,94,-56,-1,-1,0
1523610589977,-196608,94,-56,-1,-1,0
1523610589977,0,94,-56,-1,-1,0
1523610589977,131072,94,-56,-1,-1,0
1523610589977,327680,94,-56,-1,-1,0
1523610589977,589824,94,-56,-1,-1,0
1523610590001,851968,94,-56,-1,-1,0
1523610590001,1048576,94,-56,-1,-1,0
1523610590001,1310720,94,-56,-1,-1,0
1523610590001,1507328,94,-56,-1,-1,0
1523610590001,1572864,94,-56,-1,-1,0
1523610590041,1572864,94,-56,-1,-1,0
1523610590041,1441792,94,-56,-1,-1,0
1523610590041,1245184,94,-56,-1,-1,0
1523610590041,983040,94,-56,-1,-1,0
1523610590041,655360,94,-56,-1,-1,0
1523610590081,262144,94,-56,-1,-1,0
1523610590081,-65536,94,-56,-1,-1,0
1523610590081,-393216,94,-56,-1,-1,0
1523610590081,-655360,94,-56,-1,-1,0
1523610590081,-786432,94,-56,-1,-1,0
1523610590121,-851968,94,-56,-1,-1,0
1523610590121,-851968,94,-56,-1,-1,0
1523610590121,-786432,94,-56,-1,-1,0
1523610590121,-786432,94,-56,-1,-1,0
1523610590121,-786432,94,-56,-1,-1,0
1523610590161,-720896,94,-56,-1,-1,0
1523610590161,-655360,94,-56,-1,-1,0
1523610590161,-655360,94,-56,-1,-1,0
1523610590161,-655360,94,-56,-1,-1,0
1523610590161,-655360,94,-56,-1,-1,0
1523610590201,-589824,94,-56,-1,-1,0
1523610590201,-589824,94,-56,-1,-1,0
1523610590201,-655360,94,-56,-1,-1,0
1523610590201,-655360,94,-56,-1,-1,0
1523610590201,-720896,94,-56,-1,-1,0
1523610590241,-786432,94,-56,-1,-1,0
1523610590241,-786432,94,-56,-1,-1,0
1523610590241,-786432,94,-56,-1,-1,0
1523610590241,-786432,94,-56,-1,-1,0
1523610590241,-917504,94,-56,-1,-1,0
1523610590281,-917504,94,-56,-1,-1,0
1523610590281,-983040,94,-56,-1,-1,0
1523610590281,-917504,94,-56,-1,-1,0
1523610590281,-917504,94,-56,-1,-1,0
1523610590281,-917504,94,-56,-1,-1,0
1523610590321,-983040,94,-56,-1,-1,0
1523610590321,-1048576,94,-56,-1,-1,0
1523610590321,-1179648,94,-56,-1,-1,0
1523610590321,-1245184,94,-56,-1,-1,0
1523610590321,-1179648,94,-56,-1,-1,0
1523610590361,-1179648,94,-56,-1,-1,0
1523610590361,-1048576,94,-56,-1,-1,0
1523610590361,-851968,94,-56,-1,-1,0
1523610590361,-720896,94,-56,-1,-1,0
1523610590361,-786432,94,-56,-1,-1,0
1523610590401,-917504,94,-56,-1,-1,0
1523610590401,-983040,94,-56,-1,-1,0
1523610590401,-983040,94,-56,-1,-1,0
1523610590401,-917504,94,-56,-1,-1,0
1523610590401,-917504,94,-56,-1,-1,0
1523610590441,-917504,94,-56,-1,-1,0
1523610590441,-917504,94,-56,-1,-1,0
1523610590441,-917504,94,-56,-1,-1,0
1523610590441,-917504,94,-56,-1,-1,0
1523610590441,-851968,94,-56,-1,-1,0
1523610590481,-131072,94,-56,-1,-1,0
1523610590481,2228224,94,-56,-1,-1,0
1523610590481,6750208,94,-56,-1,-1,0
1523610590481,10878976,94,-56,-1,-1,0
1523610590481,9043968,94,-56,-1,-1,0
1523610590521,2752512,94,-56,-1,-1,0
1523610590521,-1441792,94,-56,-1,-1,0
1523610590521,-1441792,94,-56,-1,-1,0
1523610590521,-720896,94,-56,-1,-1,0
1523610590521,-524288,94,-56,-1,-1,0
1523610590561,-524288,94,-56,-1,-1,0
1523610590561,-458752,94,-56,-1,-1,0
1523610590561,-327680,94,-56,-1,-1,0
1523610590561,-327680,94,-56,-1,-1,0
1523610590561,-196608,94,-56,-1,-1,0
1523610590617,-131072,94,-56,-1,-1,0
1523610590617,0,94,-56,-1,-1,0
1523610590617,131072,94,-56,-1,-1,0
1523610590617,262144,94,-56,-1,-1,0
1523610590617,327680,94,-56,-1,-1,0
1523610590641,524288,94,-56,-1,-1,0
1523610590641,720896,94,-56,-1,-1,0
1523610590641,917504,94,-56,-1,-1,0
1523610590641,1245184,94,-56,-1,-1,0
1523610590641,1507328,94,-56,-1,-1,0
1523610590681,1703936,94,-56,-1,-1,0
1523610590681,1835008,94,-56,-1,-1,0
1523610590681,1900544,94,-56,-1,-1,0
1523610590681,1835008,94,-56,-1,-1,0
1523610590681,1703936,94,-56,-1,-1,0
1523610590721,1441792,94,-56,-1,-1,0
1523610590721,1114112,94,-56,-1,-1,0
1523610590721,655360,94,-56,-1,-1,0
1523610590721,262144,94,-56,-1,-1,0
1523610590721,0,94,-56,-1,-1,0
1523610590761,-262144,94,-56,-1,-1,0
1523610590761,-458752,94,-56,-1,-1,0
1523610590761,-524288,94,-56,-1,-1,0
1523610590761,-589824,94,-56,-1,-1,0
1523610590761,-589824,94,-56,-1,-1,0
1523610590801,-589824,94,-56,-1,-1,0
1523610590801,-589824,94,-56,-1,-1,0
1523610590801,-589824,94,-56,-1,-1,0
1523610590801,-524288,94,-56,-1,-1,0
1523610590801,-524288,94,-56,-1,-1,0
1523610590841,-458752,94,-56,-1,-1,0
1523610590841,-393216,94,-56,-1,-1,0
1523610590841,-393216,94,-56,-1,-1,0
1523610590841,-393216,94,-56,-1,-1,0
1523610590841,-393216,94,-56,-1,-1,0
1523610590881,-393216,94,-56,-1,-1,0
1523610590881,-393216,94,-56,-1,-1,0
1523610590881,-393216,94,-56,-1,-1,0
1523610590881,-458752,94,-56,-1,-1,0
1523610590881,-524288,94,-56,-1,-1,0
1523610590921,-589824,94,-56,-1,-1,0
1523610590921,-589824,94,-56,-1,-1,0
1523610590921,-655360,94,-56,-1,-1,0
1523610590921,-655360,94,-56,-1,-1,0
1523610590921,-655360,94,-56,-1,-1,0
1523610590961,-655360,94,-56,-1,-1,0
1523610590961,-786432,94,-56,-1,-1,0
1523610590961,-917504,94,-56,-1,-1,0
1523610590961,-1048576,94,-56,-1,-1,0
1523610590961,-1048576,94,-56,-1,-1,0
1523610591001,-1048576,94,-56,-1,-1,0
1523610591001,-1048576,94,-56,-1,-1,0
1523610591001,-917504,94,-56,-1,-1,0
1523610591001,-720896,94,-56,-1,-1,0
1523610591001,-589824,94,-56,-1,-1,0
1523610591041,-720896,94,-56,-1,-1,0
1523610591041,-851968,94,-56,-1,-1,0
1523610591041,-917504,94,-56,-1,-1,0
1523610591041,-917504,94,-56,-1,-1,0
1523610591041,-917504,94,-56,-1,-1,0
1523610591081,-983040,94,-56,-1,-1,0
1523610591081,-983040,94,-56,-1,-1,0
1523610591081,-983040,94,-56,-1,-1,0
1523610591081,-1048576,94,-56,-1,-1,0
1523610591081,-1048576,94,-56,-1,-1,0
1523610591121,-983040,94,-56,-1,-1,0
1523610591121,-131072,94,-56,-1,-1,0
1523610591121,2686976,94,-56,-1,-1,0
1523610591121,7667712,94,-56,-1,-1,0
1523610591121,11010048,94,-56,-1,-1,0
1523610591161,7995392,94,-56,-1,-1,0
1523610591161,1507328,94,-56,-1,-1,0
1523610591161,-1769472,94,-56,-1,-1,0
1523610591161,-1507328,94,-56,-1,-1,0
1523610591161,-917504,94,-56,-1,-1,0
1523610591201,-786432,94,-56,-1,-1,0
1523610591201,-720896,94,-56,-1,-1,0
1523610591201,-720896,94,-56,-1,-1,0
1523610591201,-589824,94,-56,-1,-1,0
1523610591201,-524288,94,-56,-1,-1,0
1523610591257,-458752,94,-56,-1,-1,0
1523610591257,-393216,94,-56,-1,-1,0
1523610591257,-196608,94,-56,-1,-1,0
1523610591257,-131072,94,-56,-1,-1,0
1523610591257,-65536,94,-56,-1,-1,0
1523610591281,0,94,-56,-1,-1,0
1523610591281,196608,94,-56,-1,-1,0
1523610591281,458752,94,-56,-1,-1,0
1523610591281,655360,94,-56,-1,-1,0
1523610591281,917504,94,-56,-1,-1,0
1523610591321,1179648,94,-56,-1,-1,0
1523610591321,1376256,94,-56,-1,-1,0
1523610591321,1507328,94,-56,-1,-1,0
1523610591321,1572864,94,-56,-1,-1,0
1523610591321,1572864,94,-56,-1,-1,0
1523610591361,1441792,94,-56,-1,-1,0
1523610591361,1245184,94,-56,-1,-1,0
1523610591361,917504,94,-56,-1,-1,0
1523610591361,458752,94,-56,-1,-1,0
1523610591361,131072,94,-56,-1,-1,0
1523610591401,-131072,94,-56,-1,-1,0
1523610591401,-327680,94,-56,-1,-1,0
1523610591401,-524288,94,-56,-1,-1,0
1523610591401,-655360,94,-56,-1,-1,0
1523610591401,-786432,94,-56,-1,-1,0
1523610591441,-786432,94,-56,-1,-1,0
1523610591441,-786432,94,-56,-1,-1,0
1523610591441,-786432,94,-56,-1,-1,0
1523610591441,-720896,94,-56,-1,-1,0
1523610591441,-720896,94,-56,-1,-1,0
1523610591481,-720896,94,-56,-1,-1,0
1523610591481,-720896,94,-56,-1,-1,0
1523610591481,-720896,94,-56,-1,-1,0
1523610591481,-720896,94,-56,-1,-1,0
1523610591481,-786432,94,-56,-1,-1,0
1523610591521,-720896,94,-56,-1,-1,0
1523610591521,-720896,94,-56,-1,-1,0
1523610591521,-720896,94,-56,-1,-1,0
1523610591521,-786432,94,-56,-1,-1,0
1523610591521,-851968,94,-56,-1,-1,0
1523610591561,-851968,94,-56,-1,-1,0
1523610591561,-851968,94,-56,-1,-1,0
1523610591561,-917504,94,-56,-1,-1,0
1523610591561,-917504,94,-56,-1,-1,0
1523610591561,-983040,94,-56,-1,-1,0
1523610591601,-983040,94,-56,-1,-1,0
1523610591601,-983040,94,-56,-1,-1,0
1523610591601,-983040,94,-56,-1,-1,0
1523610591601,-1048576,94,-56,-1,-1,0
1523610591601,-1114112,94,-56,-1,-1,0
1523610591641,-1179648,94,-56,-1,-1,0
1523610591641,-1245184,94,-56,-1,-1,0
1523610591641,-1310720,94,-56,-1,-1,0
1523610591641,-1376256,94,-56,-1,-1,0
1523610591641,-1310720,94,-56,-1,-1,0
1523610591681,-1179648,94,-56,-1,-1,0
1523610591681,-983040,94,-56,-1,-1,0
1523610591681,-786432,94,-56,-1,-1,0
1523610591681,-720896,94,-56,-1,-1,0
1523610591681,-786432,94,-56,-1,-1,0
1523610591721,-983040,94,-56,-1,-1,0
1523610591721,-1048576,94,-56,-1,-1,0
1523610591721,-1048576,94,-56,-1,-1,0
1523610591721,-1048576,94,-56,-1,-1,0
1523610591721,-1048576,94,-56,-1,-1,0
1523610591761,-1048576,93,-56,-1,-1,0
1523610591761,-983040,93,-56,-1,-1,0
1523610591761,-983040,93,-56,-1,-1,0
1523610591761,-983040,93,-56,-1,-1,0
1523610591761,-851968,93,-56,-1,-1,0
1523610591801,0,93,-56,-1,-1,0
1523610591801,2555904,93,-56,-1,-1,0
1523610591801,7208960,93,-56,-1,-1,0
1523610591801,10420224,93,-56,-1,-1,0
1523610591801,7733248,93,-56,-1,-1,0
1523610591841,1703936,93,-56,-1,-1,0
1523610591841,-1441792,93,-56,-1,-1,0
1523610591841,-1179648,93,-56,-1,-1,0
1523610591841,-655360,93,-56,-1,-1,0
1523610591841,-655360,93,-56,-1,-1,0
1523610591898,-655360,93,-56,-1,-1,0
1523610591898,-589824,93,-56,-1,-1,0
1523610591898,-524288,93,-56,-1,-1,0
1523610591898,-458752,93,-56,-1,-1,0
1523610591898,-393216,93,-56,-1,-1,0
1523610591921,-327680,93,-56,-1,-1,0
1523610591921,-262144,93,-56,-1,-1,0
1523610591921,-131072,93,-56,-1,-1,0
1523610591921,0,93,-56,-1,-1,0
1523610591921,131072,93,-56,-1,-1,0
1523610591961,327680,93,-56,-1,-1,0
1523610591961,524288,93,-56,-1,-1,0
1523610591961,786432,93,-56,-1,-1,0
1523610591961,1114112,93,-56,-1,-1,0
1523610591961,1376256,93,-56,-1,-1,0
1523610592001,1572864,93,-56,-1,-1,0
1523610592001,1703936,93,-56,-1,-1,0
1523610592001,1769472,93,-56,-1,-1,0
1523610592001,1769472,93,-56,-1,-1,0
1523610592001,1703936,93,-56,-1,-1,0
1523610592041,1507328,93,-56,-1,-1,0
1523610592041,1245184,93,-56,-1,-1,0
1523610592041,851968,93,-56,-1,-1,0
1523610592041,458752,93,-56,-1,-1,0
1523610592041,65536,93,-56,-1,-1,0
1523610592081,-65536,93,-56,-1,-1,0
1523610592081,-262144,93,-56,-1,-1,0
1523610592081,-393216,93,-56,-1,-1,0
1523610592081,-458752,93,-56,-1,-1,0
1523610592081,-524288,93,-56,-1,-1,0
1523610592121,-524288,93,-56,-1,-1,0
1523610592121,-458752,93,-56,-1,-1,0
1523610592121,-393216,93,-56,-1,-1,0
1523610592121,-393216,93,-56,-1,-1,0
1523610592121,-327680,93,-56,-1,-1,0
1523610592161,-262144,93,-56,-1,-1,0
1523610592161,-262144,93,-56,-1,-1,0
1523610592161,-196608,93,-56,-1,-1,0
1523610592161,-196608,93,-56,-1,-1,0
1523610592161,-262144,93,-56,-1,-1,0
1523610592201,-327680,93,-56,-1,-1,0
1523610592201,-327680,93,-56,-1,-1,0
1523610592201,-327680,93,-56,-1,-1,0
1523610592201,-262144,93,-56,-1,-1,0
1523610592201,-327680,93,-56,-1,-1,0
1523610592241,-393216,93,-56,-1,-1,0
1523610592241,-393216,93,-56,-1,-1,0
1523610592241,-458752,93,-56,-1,-1,0
1523610592241,-524288,93,-56,-1,-1,0
1523610592241,-589824,93,-56,-1,-1,0
1523610592281,-589824,93,-56,-1,-1,0
1523610592281,-589824,93,-56,-1,-1,0
1523610592281,-589824,93,-56,-1,-1,0
1523610592281,-589824,93,-56,-1,-1,0
1523610592281,-589824,93,-56,-1,-1,0
1523610592321,-655360,93,-56,-1,-1,0
1523610592321,-720896,93,-56,-1,-1,0
1523610592321,-917504,93,-56,-1,-1,0
1523610592321,-917504,93,-56,-1,-1,0
1523610592321,-851968,93,-56,-1,-1,0
1523610592361,-786432,93,-56,-1,-1,0
1523610592361,-720896,93,-56,-1,-1,0
1523610592361,-524288,93,-56,-1,-1,0
1523610592361,-393216,93,-56,-1,-1,0
1523610592361,-458752,93,-56,-1,-1,0
1523610592401,-589824,93,-56,-1,-1,0
1523610592401,-589824,93,-56,-1,-1,0
1523610592401,-589824,93,-56,-1,-1,0
1523610592401,-589824,93,-56,-1,-1,0
1523610592401,-589824,93,-56,-1,-1,0
1523610592441,-589824,93,-56,-1,-1,0
1523610592441,-589824,93,-56,-1,-1,0
1523610592441,-655360,93,-56,-1,-1,0
1523610592441,-720896,93,-56,-1,-1,0
1523610592441,-720896,93,-56,-1,-1,0
1523610592481,-196608,93,-56,-1,-1,0
1523610592481,1835008,93,-56,-1,-1,0
1523610592481,6225920,93,-56,-1,-1,0
1523610592481,10878976,93,-56,-1,-1,0
1523610592481,9961472,93,-56,-1,-1,0
1523610592537,3801088,93,-56,-1,-1,0
1523610592537,-1114112,93,-56,-1,-1,0
1523610592537,-1507328,93,-56,-1,-1,0
1523610592537,-720896,93,-56,-1,-1,0
1523610592537,-458752,93,-56,-1,-1,0
1523610592561,-393216,93,-56,-1,-1,0
1523610592561,-458752,93,-56,-1,-1,0
1523610592561,-393216,93,-56,-1,-1,0
1523610592561,-327680,93,-56,-1,-1,0
1523610592561,-262144,93,-56,-1,-1,0
1523610592601,-196608,93,-56,-1,-1,0
1523610592601,0,93,-56,-1,-1,0
1523610592601,131072,93,-56,-1,-1,0
1523610592601,262144,93,-56,-1,-1,0
1523610592601,327680,93,-56,-1,-1,0
1523610592641,458752,93,-56,-1,-1,0
1523610592641,589824,93,-56,-1,-1,0
1523610592641,851968,93,-56,-1,-1,0
1523610592641,1114112,93,-56,-1,-1,0
1523610592641,1310720,93,-56,-1,-1,0
1523610592681,1572864,93,-56,-1,-1,0
1523610592681,1835008,93,-56,-1,-1,0
1523610592681,1966080,93,-56,-1,-1,0
1523610592681,1900544,93,-56,-1,-1,0
1523610592681,1769472,93,-56,-1,-1,0
1523610592721,1507328,93,-56,-1,-1,0
1523610592721,1179648,93,-56,-1,-1,0
1523610592721,786432,93,-56,-1,-1,0
1523610592721,393216,93,-56,-1,-1,0
1523610592721,0,93,-56,-1,-1,0
1523610592761,-262144,93,-56,-1,-1,0
1523610592761,-524288,93,-56,-1,-1,0
1523610592761,-720896,93,-56,-1,-1,0
1523610592761,-786432,93,-56,-1,-1,0
1523610592761,-917504,93,-56,-1,-1,0
1523610592802,-917504,93,-56,-1,-1,0
1523610592802,-917504,93,-56,-1,-1,0
1523610592802,-917504,93,-56,-1,-1,0
1523610592802,-917504,93,-56,-1,-1,0
1523610592802,-851968,93,-56,-1,-1,0
1523610592841,-851968,93,-56,-1,-1,0
1523610592841,-851968,93,-56,-1,-1,0
1523610592841,-786432,93,-56,-1,-1,0
1523610592841,-720896,93,-56,-1,-1,0
1523610592841,-720896,93,-56,-1,-1,0
1523610592881,-720896,93,-56,-1,-1,0
1523610592881,-720896,93,-56,-1,-1,0
1523610592881,-720896,93,-56,-1,-1,0
1523610592881,-786432,93,-56,-1,-1,0
1523610592881,-786432,93,-56,-1,-1,0
1523610592921,-786432,93,-56,-1,-1,0
1523610592921,-851968,93,-56,-1,-1,0
1523610592921,-917504,93,-56,-1,-1,0
1523610592921,-917504,93,-56,-1,-1,0
1523610592921,-983040,93,-56,-1,-1,0
1523610592961,-917504,93,-56,-1,-1,0
1523610592961,-917504,93,-56,-1,-1,0
1523610592961,-983040,93,-56,-1,-1,0
1523610592961,-1048576,93,-56,-1,-1,0
1523610592961,-1114112,93,-56,-1,-1,0
1523610593001,-1179648,93,-56,-1,-1,0
1523610593001,-1245184,93,-56,-1,-1,0
1523610593001,-1245184,93,-56,-1,-1,0
1523610593001,-1245184,93,-56,-1,-1,0
1523610593001,-1179648,93,-56,-1,-1,0
1523610593041,-983040,93,-56,-1,-1,0
1523610593041,-786432,93,-56,-1,-1,0
1523610593041,-786432,93,-56,-1,-1,0
1523610593041,-917504,93,-56,-1,-1,0
1523610593041,-1114112,93,-56,-1,-1,0
1523610593081,-1114112,93,-56,-1,-1,0
1523610593081,-1114112,93,-56,-1,-1,0
1523610593081,-1114112,93,-56,-1,-1,0
1523610593081,-1179648,93,-56,-1,-1,0
1523610593081,-1179648,93,-56,-1,-1,0
1523610593121,-1179648,93,-56,-1,-1,0
1523610593121,-1179648,93,-56,-1,-1,0
1523610593121,-1245184,93,-56,-1,-1,0
1523610593121,-983040,93,-56,-1,-1,0
1523610593121,327680,93,-56,-1,-1,0
1523610593177,3932160,92,-56,-1,-1,0
1523610593177,9043968,92,-56,-1,-1,0
1523610593177,10485760,92,-56,-1,-1,0
1523610593177,5570560,92,-56,-1,-1,0
1523610593177,-393216,92,-56,-1,-1,0
1523610593201,-2031616,92,-56,-1,-1,0
1523610593201,-1376256,92,-56,-1,-1,0
1523610593201,-917504,92,-56,-1,-1,0
1523610593201,-917504,92,-56,-1,-1,0
1523610593201,-851968,92,-56,-1,-1,0
1523610593241,-720896,92,-56,-1,-1,0
1523610593241,-720896,92,-56,-1,-1,0
1523610593241,-655360,92,-56,-1,-1,0
1523610593241,-589824,92,-56,-1,-1,0
1523610593241,-524288,92,-56,-1,-1,0
1523610593281,-327680,92,-56,-1,-1,0
1523610593281,-196608,92,-56,-1,-1,0
1523610593281,0,92,-56,-1,-1,0
1523610593281,65536,92,-56,-1,-1,0
1523610593281,262144,92,-56,-1,-1,0
1523610593321,393216,92,-56,-1,-1,0
1523610593321,655360,92,-56,-1,-1,0
1523610593321,851968,92,-56,-1,-1,0
1523610593321,1114112,92,-56,-1,-1,0
1523610593321,1310720,92,-56,-1,-1,0
1523610593361,1507328,92,-56,-1,-1,0
1523610593361,1572864,92,-56,-1,-1,0
1523610593361,1507328,92,-56,-1,-1,0
1523610593361,1376256,92,-56,-1,-1,0
1523610593361,1114112,92,-56,-1,-1,0
1523610593401,786432,92,-56,-1,-1,0
1523610593401,327680,92,-56,-1,-1,0
1523610593401,-65536,92,-56,-1,-1,0
1523610593401,-393216,92,-56,-1,-1,0
1523610593401,-589824,92,-56,-1,-1,0
1523610593441,-655360,92,-56,-1,-1,0
1523610593441,-786432,92,-56,-1,-1,0
1523610593441,-786432,92,-56,-1,-1,0
1523610593441,-851968,92,-56,-1,-1,0
1523610593441,-851968,92,-56,-1,-1,0
1523610593481,-786432,92,-56,-1,-1,0
1523610593481,-786432,92,-56,-1,-1,0
1523610593481,-786432,92,-56,-1,-1,0
1523610593481,-720896,92,-56,-1,-1,0
1523610593481,-720896,92,-56,-1,-1,0
1523610593521,-655360,92,-56,-1,-1,0
1523610593521,-655360,92,-56,-1,-1,0
1523610593521,-589824,92,-56,-1,-1,0
1523610593521,-589824,92,-56,-1,-1,0
1523610593521,-589824,92,-56,-1,-1,0
1523610593561,-589824,92,-56,-1,-1,0
1523610593561,-589824,92,-56,-1,-1,0
1523610593561,-589824,92,-56,-1,-1,0
1523610593561,-589824,92,-56,-1,-1,0
1523610593561,-655360,92,-56,-1,-1,0
1523610593601,-720896,92,-56,-1,-1,0
1523610593601,-720896,92,-56,-1,-1,0
1523610593601,-720896,92,-56,-1,-1,0
1523610593601,-786432,92,-56,-1,-1,0
1523610593601,-786432,92,-56,-1,-1,0
1523610593641,-851968,92,-56,-1,-1,0
1523610593641,-917504,92,-56,-1,-1,0
1523610593641,-851968,92,-56,-1,-1,0
1523610593641,-851968,92,-56,-1,-1,0
1523610593641,-851968,92,-56,-1,-1,0
1523610593681,-851968,92,-56,-1,-1,0
1523610593681,-851968,92,-56,-1,-1,0
1523610593681,-917504,92,-56,-1,-1,0
1523610593681,-1048576,92,-56,-1,-1,0
1523610593681,-1179648,92,-56,-1,-1,0
1523610593721,-1179648,92,-56,-1,-1,0
1523610593721,-1179648,92,-56,-1,-1,0
1523610593721,-1048576,92,-56,-1,-1,0
1523610593721,-786432,92,-56,-1,-1,0
1523610593721,-655360,92,-56,-1,-1,0
1523610593761,-786432,92,-56,-1,-1,0
1523610593761,-983040,92,-56,-1,-1,0
1523610593761,-1048576,92,-56,-1,-1,0
1523610593761,-1048576,92,-56,-1,-1,0
1523610593761,-983040,92,-56,-1,-1,0
1523610593817,-917504,92,-56,-1,-1,0
1523610593817,-851968,92,-56,-1,-1,0
1523610593817,-786432,92,-56,-1,-1,0
1523610593817,-917504,92,-56,-1,-1,0
1523610593817,-1179648,92,-56,-1,-1,0
1523610593841,-1245184,92,-56,-1,-1,0
1523610593841,-851968,92,-56,-1,-1,0
1523610593841,393216,92,-56,-1,-1,0
1523610593841,3670016,92,-56,-1,-1,0
1523610593841,8585216,92,-56,-1,-1,0
1523610593881,10485760,92,-56,-1,-1,0
1523610593881,6225920,92,-56,-1,-1,0
1523610593881,458752,92,-56,-1,-1,0
1523610593881,-1376256,92,-56,-1,-1,0
1523610593881,-851968,92,-56,-1,-1,0
1523610593921,-589824,92,-56,-1,-1,0
1523610593921,-720896,92,-56,-1,-1,0
1523610593921,-851968,92,-56,-1,-1,0
1523610593921,-917504,92,-56,-1,-1,0
1523610593921,-720896,92,-56,-1,-1,0
1523610593961,-655360,92,-56,-1,-1,0
1523610593961,-524288,92,-56,-1,-1,0
1523610593961,-393216,92,-56,-1,-1,0
1523610593961,-196608,92,-56,-1,-1,0
1523610593961,-131072,92,-56,-1,-1,0
1523610594001,65536,92,-56,-1,-1,0
1523610594001,196608,92,-56,-1,-1,0
1523610594001,393216,92,-56,-1,-1,0
1523610594001,589824,92,-56,-1,-1,0
1523610594001,851968,92,-56,-1,-1,0
1523610594041,1114112,92,-56,-1,-1,0
1523610594041,1441792,92,-56,-1,-1,0
1523610594041,1703936,92,-56,-1,-1,0
1523610594041,1966080,92,-56,-1,-1,0
1523610594041,2031616,92,-56,-1,-1,0
1523610594081,2031616,92,-56,-1,-1,0
1523610594081,1900544,92,-56,-1,-1,0
1523610594081,1769472,92,-56,-1,-1,0
1523610594081,1441792,92,-56,-1,-1,0
1523610594081,983040,92,-56,-1,-1,0
1523610594121,458752,92,-56,-1,-1,0
1523610594121,0,92,-56,-1,-1,0
1523610594121,-196608,92,-56,-1,-1,0
1523610594121,-327680,92,-56,-1,-1,0
1523610594121,-458752,92,-56,-1,-1,0
1523610594161,-524288,92,-56,-1,-1,0
1523610594161,-589824,92,-56,-1,-1,0
1523610594161,-589824,92,-56,-1,-1,0
1523610594161,-524288,92,-56,-1,-1,0
1523610594161,-393216,92,-56,-1,-1,0
1523610594201,-327680,92,-56,-1,-1,0
1523610594201,-393216,92,-56,-1,-1,0
1523610594201,-458752,92,-56,-1,-1,0
1523610594201,-524288,92,-56,-1,-1,0
1523610594201,-458752,92,-56,-1,-1,0
1523610594241,-458752,92,-56,-1,-1,0
1523610594241,-458752,92,-56,-1,-1,0
1523610594241,-458752,92,-56,-1,-1,0
1523610594241,-458752,92,-56,-1,-1,0
1523610594241,-589824,92,-56,-1,-1,0
1523610594281,-589824,92,-56,-1,-1,0
1523610594281,-524288,92,-56,-1,-1,0
1523610594281,-524288,92,-56,-1,-1,0
1523610594281,-589824,92,-56,-1,-1,0
1523610594281,-720896,92,-56,-1,-1,0
1523610594321,-720896,92,-56,-1,-1,0
1523610594321,-720896,92,-56,-1,-1,0
1523610594321,-655360,92,-56,-1,-1,0
1523610594321,-655360,92,-56,-1,-1,0
1523610594321,-786432,92,-56,-1,-1,0
1523610594361,-917504,92,-56,-1,-1,0
1523610594361,-851968,92,-56,-1,-1,0
1523610594361,-720896,92,-56,-1,-1,0
1523610594361,-720896,92,-56,-1,-1,0
1523610594361,-851968,92,-56,-1,-1,0
1523610594401,-983040,92,-56,-1,-1,0
1523610594401,-1048576,92,-56,-1,-1,0
1523610594401,-1048576,92,-56,-1,-1,0
1523610594401,-1114112,92,-56,-1,-1,0
1523610594401,-1179648,92,-56,-1,-1,0
1523610594457,-1114112,92,-56,-1,-1,0
1523610594457,-983040,92,-56,-1,-1,0
1523610594457,-851968,92,-56,-1,-1,0
1523610594457,-655360,92,-56,-1,-1,0
1523610594457,-589824,92,-56,-1,-1,0
1523610594481,-655360,92,-56,-1,-1,0
1523610594481,-851968,92,-56,-1,-1,0
1523610594481,-1048576,92,-56,-1,-1,0
1523610594481,-1114112,92,-56,-1,-1,0
1523610594481,-983040,92,-56,-1,-1,0
1523610594521,-851968,92,-56,-1,-1,0
1523610594521,-720896,92,-56,-1,-1,0
1523610594521,-655360,92,-56,-1,-1,0
1523610594521,-589824,92,-56,-1,-1,0
1523610594521,-720896,92,-56,-1,-1,0
1523610594561,-1048576,90,-56,-1,-1,0
1523610594561,-851968,90,-56,-1,-1,0
1523610594561,917504,90,-56,-1,-1,0
1523610594561,5046272,90,-56,-1,-1,0
1523610594561,10158080,90,-56,-1,-1,0
1523610594601,10485760,90,-56,-1,-1,0
1523610594601,4718592,90,-56,-1,-1,0
1523610594601,-851968,90,-56,-1,-1,0
1523610594601,-1769472,90,-56,-1,-1,0
1523610594601,-917504,90,-56,-1,-1,0
1523610594641,-393216,90,-56,-1,-1,0
1523610594641,-327680,90,-56,-1,-1,0
1523610594641,-458752,90,-56,-1,-1,0
1523610594641,-524288,90,-56,-1,-1,0
1523610594641,-589824,90,-56,-1,-1,0
1523610594681,-589824,90,-56,-1,-1,0
1523610594681,-458752,90,-56,-1,-1,0
1523610594681,-262144,90,-56,-1,-1,0
1523610594681,-65536,90,-56,-1,-1,0
1523610594681,-65536,90,-56,-1,-1,0
1523610594721,0,90,-56,-1,-1,0
1523610594721,262144,90,-56,-1,-1,0
1523610594721,524288,90,-56,-1,-1,0
1523610594721,720896,90,-56,-1,-1,0
1523610594721,917504,90,-56,-1,-1,0
1523610594761,1179648,90,-56,-1,-1,0
1523610594761,1572864,90,-56,-1,-1,0
1523610594761,1835008,90,-56,-1,-1,0
1523610594761,2031616,90,-56,-1,-1,0
1523610594761,2031616,90,-56,-1,-1,0
1523610594801,1900544,90,-56,-1,-1,0
1523610594801,1638400,90,-56,-1,-1,0
1523610594801,1507328,90,-56,-1,-1,0
1523610594801,1179648,90,-56,-1,-1,0
1523610594801,655360,90,-56,-1,-1,0
1523610594841,65536,90,-56,-1,-1,0
1523610594841,-196608,90,-56,-1,-1,0
1523610594841,-458752,90,-56,-1,-1,0
1523610594841,-524288,90,-56,-1,-1,0
1523610594841,-524288,90,-56,-1,-1,0
1523610594881,-589824,90,-56,-1,-1,0
1523610594881,-786432,90,-56,-1,-1,0
1523610594881,-786432,90,-56,-1,-1,0
1523610594881,-720896,90,-56,-1,-1,0
1523610594881,-655360,90,-56,-1,-1,0
1523610594921,-720896,90,-56,-1,-1,0
1523610594921,-589824,90,-56,-1,-1,0
1523610594921,-458752,90,-56,-1,-1,0
1523610594921,-524288,90,-56,-1,-1,0
1523610594921,-655360,90,-56,-1,-1,0
1523610594961,-655360,90,-56,-1,-1,0
1523610594961,-589824,90,-56,-1,-1,0
1523610594961,-589824,90,-56,-1,-1,0
1523610594961,-589824,90,-56,-1,-1,0
1523610594961,-458752,90,-56,-1,-1,0
1523610595001,-196608,90,-56,-1,-1,0
1523610595001,-131072,90,-56,-1,-1,0
1523610595001,-327680,90,-56,-1,-1,0
1523610595001,-524288,90,-56,-1,-1,0
1523610595001,-458752,90,-56,-1,-1,0
1523610595041,-524288,90,-56,-1,-1,0
1523610595041,-917504,90,-56,-1,-1,0
1523610595041,-1114112,90,-56,-1,-1,0
1523610595041,-917504,90,-56,-1,-1,0
1523610595041,-786432,90,-56,-1,-1,0
1523610595097,-655360,90,-56,-1,-1,0
1523610595097,-393216,90,-56,-1,-1,0
1523610595097,-393216,90,-56,-1,-1,0
1523610595097,-655360,90,-56,-1,-1,0
1523610595097,-917504,90,-56,-1,-1,0
1523610595121,-786432,90,-56,-1,-1,0
1523610595121,-655360,90,-56,-1,-1,0
1523610595121,-851968,90,-56,-1,-1,0
1523610595121,-1179648,90,-56,-1,-1,0
1523610595121,-1179648,90,-56,-1,-1,0
1523610595161,-917504,90,-56,-1,-1,0
1523610595161,-524288,90,-56,-1,-1,0
1523610595161,-524288,90,-56,-1,-1,0
1523610595161,-786432,90,-56,-1,-1,0
1523610595161,-1048576,90,-56,-1,-1,0
1523610595201,-917504,90,-56,-1,-1,0
1523610595201,-655360,90,-56,-1,-1,0
1523610595201,-524288,90,-56,-1,-1,0
1523610595201,-589824,90,-56,-1,-1,0
1523610595201,-983040,90,-56,-1,-1,0
1523610595241,-1245184,90,-56,-1,-1,0
1523610595241,-1245184,90,-56,-1,-1,0
1523610595241,-1048576,90,-56,-1,-1,0
1523610595241,-655360,90,-56,-1,-1,0
1523610595241,-655360,90,-56,-1,-1,0
1523610595281,-393216,90,-56,-1,-1,0
1523610595281,1114112,90,-56,-1,-1,0
1523610595281,4849664,90,-56,-1,-1,0
1523610595281,9830400,90,-56,-1,-1,0
1523610595281,10551296,90,-56,-1,-1,0
1523610595321,5111808,90,-56,-1,-1,0
1523610595321,-720896,90,-56,-1,-1,0
1523610595321,-1769472,90,-56,-1,-1,0
1523610595321,-983040,90,-56,-1,-1,0
1523610595321,-655360,90,-56,-1,-1,0
1523610595361,-458752,90,-56,-1,-1,0
1523610595361,-262144,90,-56,-1,-1,0
1523610595361,-524288,90,-56,-1,-1,0
1523610595361,-720896,90,-56,-1,-1,0
1523610595361,-655360,90,-56,-1,-1,0
1523610595401,-524288,90,-56,-1,-1,0
1523610595401,-524288,90,-56,-1,-1,0
1523610595401,-196608,90,-56,-1,-1,0
1523610595401,65536,90,-56,-1,-1,0
1523610595401,65536,90,-56,-1,-1,0
1523610595441,131072,90,-56,-1,-1,0
1523610595441,589824,90,-56,-1,-1,0
1523610595441,655360,90,-56,-1,-1,0
1523610595441,655360,90,-56,-1,-1,0
1523610595441,851968,90,-56,-1,-1,0
1523610595481,1179648,90,-56,-1,-1,0
1523610595481,1441792,90,-56,-1,-1,0
1523610595481,1703936,90,-56,-1,-1,0
1523610595481,1835008,90,-56,-1,-1,0
1523610595481,1835008,90,-56,-1,-1,0
1523610595521,1703936,90,-56,-1,-1,0
1523610595521,1441792,90,-56,-1,-1,0
1523610595521,1245184,90,-56,-1,-1,0
1523610595521,786432,90,-56,-1,-1,0
1523610595521,65536,90,-56,-1,-1,0
1523610595561,-458752,90,-56,-1,-1,0
1523610595561,-524288,90,-56,-1,-1,0
1523610595561,-524288,90,-56,-1,-1,0
1523610595561,-524288,90,-56,-1,-1,0
1523610595561,-393216,90,-56,-1,-1,0
1523610595601,-524288,90,-56,-1,-1,0
1523610595601,-851968,90,-56,-1,-1,0
1523610595601,-1114112,90,-56,-1,-1,0
1523610595601,-983040,90,-56,-1,-1,0
1523610595601,-786432,90,-56,-1,-1,0
1523610595641,-851968,90,-56,-1,-1,0
1523610595641,-917504,90,-56,-1,-1,0
1523610595641,-786432,90,-56,-1,-1,0
1523610595641,-655360,90,-56,-1,-1,0
1523610595641,-524288,90,-56,-1,-1,0
1523610595681,-262144,90,-56,-1,-1,0
1523610595681,-262144,90,-56,-1,-1,0
1523610595681,-524288,90,-56,-1,-1,0
1523610595681,-655360,90,-56,-1,-1,0
1523610595681,-851968,90,-56,-1,-1,0
1523610595737,-917504,90,-56,-1,-1,0
1523610595737,-786432,90,-56,-1,-1,0
1523610595737,-720896,90,-56,-1,-1,0
1523610595737,-851968,90,-56,-1,-1,0
1523610595737,-786432,90,-56,-1,-1,0
1523610595761,-589824,90,-56,-1,-1,0
1523610595761,-524288,90,-56,-1,-1,0
1523610595761,-589824,90,-56,-1,-1,0
1523610595761,-786432,90,-56,-1,-1,0
1523610595761,-917504,90,-56,-1,-1,0
1523610595801,-917504,90,-56,-1,-1,0
1523610595801,-851968,90,-56,-1,-1,0
1523610595801,-786432,90,-56,-1,-1,0
1523610595801,-917504,90,-56,-1,-1,0
1523610595801,-851968,90,-56,-1,-1,0
1523610595841,-720896,90,-56,-1,-1,0
1523610595841,-589824,90,-56,-1,-1,0
1523610595841,-589824,90,-56,-1,-1,0
1523610595841,-720896,90,-56,-1,-1,0
1523610595841,-917504,90,-56,-1,-1,0
1523610595882,-786432,90,-56,-1,-1,0
1523610595882,-786432,90,-56,-1,-1,0
1523610595882,-1114112,90,-56,-1,-1,0
1523610595882,-1441792,90,-56,-1,-1,0
1523610595882,-1245184,90,-56,-1,-1,0
1523610595921,-917504,90,-56,-1,-1,0
1523610595921,-589824,90,-56,-1,-1,0
1523610595921,-458752,90,-56,-1,-1,0
1523610595921,-393216,90,-56,-1,-1,0
1523610595921,-655360,90,-56,-1,-1,0
1523610595961,-917504,90,-56,-1,-1,0
1523610595961,-983040,90,-56,-1,-1,0
1523610595961,-983040,90,-56,-1,-1,0
1523610595961,-1048576,90,-56,-1,-1,0
1523610595961,-851968,90,-56,-1,-1,0
1523610596001,-720896,90,-56,-1,-1,0
1523610596001,-983040,90,-56,-1,-1,0
1523610596001,-1048576,90,-56,-1,-1,0
1523610596001,-786432,90,-56,-1,-1,0
1523610596001,-458752,90,-56,-1,-1,0
1523610596041,-458752,90,-56,-1,-1,0
1523610596041,65536,90,-56,-1,-1,0
1523610596041,2686976,90,-56,-1,-1,0
1523610596041,7733248,90,-56,-1,-1,0
1523610596041,11534336,90,-56,-1,-1,0
1523610596081,8978432,90,-56,-1,-1,0
1523610596081,2359296,90,-56,-1,-1,0
1523610596081,-1310720,90,-56,-1,-1,0
1523610596081,-917504,90,-56,-1,-1,0
1523610596081,-327680,90,-56,-1,-1,0
1523610596121,-393216,89,-56,-1,-1,0
1523610596121,-458752,89,-56,-1,-1,0
1523610596121,-262144,89,-56,-1,-1,0
1523610596121,-262144,89,-56,-1,-1,0
1523610596121,-589824,89,-56,-1,-1,0
1523610596161,-589824,89,-56,-1,-1,0
1523610596161,-393216,89,-56,-1,-1,0
1523610596161,-131072,89,-56,-1,-1,0
1523610596161,65536,89,-56,-1,-1,0
1523610596161,458752,89,-56,-1,-1,0
1523610596201,589824,89,-56,-1,-1,0
1523610596201,589824,89,-56,-1,-1,0
1523610596201,524288,89,-56,-1,-1,0
1523610596201,655360,89,-56,-1,-1,0
1523610596201,1048576,89,-56,-1,-1,0
1523610596241,1376256,89,-56,-1,-1,0
1523610596241,1638400,89,-56,-1,-1,0
1523610596241,1900544,89,-56,-1,-1,0
1523610596241,2293760,89,-56,-1,-1,0
1523610596241,2424832,89,-56,-1,-1,0
1523610596281,2293760,89,-56,-1,-1,0
1523610596281,1769472,89,-56,-1,-1,0
1523610596281,1507328,89,-56,-1,-1,0
1523610596281,1310720,89,-56,-1,-1,0
1523610596281,851968,89,-56,-1,-1,0
1523610596321,262144,89,-56,-1,-1,0
1523610596321,0,89,-56,-1,-1,0
1523610596321,-65536,89,-56,-1,-1,0
1523610596321,-65536,89,-56,-1,-1,0
1523610596321,-262144,89,-56,-1,-1,0
1523610596377,-589824,89,-56,-1,-1,0
1523610596377,-851968,89,-56,-1,-1,0
1523610596377,-917504,89,-56,-1,-1,0
1523610596377,-851968,89,-56,-1,-1,0
1523610596377,-720896,89,-56,-1,-1,0
1523610596401,-589824,89,-56,-1,-1,0
1523610596401,-458752,89,-56,-1,-1,0
1523610596401,-262144,89,-56,-1,-1,0
1523610596401,-131072,89,-56,-1,-1,0
1523610596401,-262144,89,-56,-1,-1,0
1523610596441,-589824,89,-56,-1,-1,0
1523610596441,-655360,89,-56,-1,-1,0
1523610596441,-524288,89,-56,-1,-1,0
1523610596441,-393216,89,-56,-1,-1,0
1523610596441,-458752,89,-56,-1,-1,0
1523610596481,-720896,89,-56,-1,-1,0
1523610596481,-786432,89,-56,-1,-1,0
1523610596481,-720896,89,-56,-1,-1,0
1523610596481,-524288,89,-56,-1,-1,0
1523610596481,-524288,89,-56,-1,-1,0
1523610596521,-655360,89,-56,-1,-1,0
1523610596521,-589824,89,-56,-1,-1,0
1523610596521,-393216,89,-56,-1,-1,0
1523610596521,-458752,89,-56,-1,-1,0
1523610596521,-720896,89,-56,-1,-1,0
1523610596562,-720896,89,-56,-1,-1,0
1523610596562,-720896,89,-56,-1,-1,0
1523610596562,-983040,89,-56,-1,-1,0
1523610596562,-1179648,89,-56,-1,-1,0
1523610596562,-1048576,89,-56,-1,-1,0
1523610596601,-983040,89,-56,-1,-1,0
1523610596601,-917504,89,-56,-1,-1,0
1523610596601,-786432,89,-56,-1,-1,0
1523610596601,-524288,89,-56,-1,-1,0
1523610596601,-327680,89,-56,-1,-1,0
1523610596641,-524288,89,-56,-1,-1,0
1523610596641,-1048576,89,-56,-1,-1,0
1523610596641,-1179648,89,-56,-1,-1,0
1523610596641,-983040,89,-56,-1,-1,0
1523610596641,-786432,89,-56,-1,-1,0
1523610596681,-1048576,89,-56,-1,-1,0
1523610596681,-1245184,89,-56,-1,-1,0
1523610596681,-1114112,89,-56,-1,-1,0
1523610596681,-917504,89,-56,-1,-1,0
1523610596681,-720896,89,-56,-1,-1,0
1523610596721,-589824,89,-56,-1,-1,0
1523610596721,-720896,89,-56,-1,-1,0
1523610596721,-983040,89,-56,-1,-1,0
1523610596721,-1048576,89,-56,-1,-1,0
1523610596721,-786432,89,-56,-1,-1,0
1523610596761,-589824,89,-56,-1,-1,0
1523610596761,-720896,89,-56,-1,-1,0
1523610596761,-786432,89,-56,-1,-1,0
1523610596761,-720896,89,-56,-1,-1,0
1523610596761,-917504,89,-56,-1,-1,0
1523610596801,-1048576,89,-56,-1,-1,0
1523610596801,-1048576,89,-56,-1,-1,0
1523610596801,-786432,89,-56,-1,-1,0
1523610596801,-327680,89,-56,-1,-1,0
1523610596801,1638400,89,-56,-1,-1,0
1523610596841,6094848,89,-56,-1,-1,0
1523610596841,11272192,89,-56,-1,-1,0
1523610596841,10944512,89,-56,-1,-1,0
1523610596841,4456448,89,-56,-1,-1,0
1523610596841,-1114112,89,-56,-1,-1,0
1523610596881,-1703936,88,-56,-1,-1,0
1523610596881,-655360,88,-56,-1,-1,0
1523610596881,-393216,88,-56,-1,-1,0
1523610596881,-589824,88,-56,-1,-1,0
1523610596881,-786432,88,-56,-1,-1,0
1523610596921,-589824,88,-56,-1,-1,0
1523610596921,-393216,88,-56,-1,-1,0
1523610596921,-327680,88,-56,-1,-1,0
1523610596921,-196608,88,-56,-1,-1,0
1523610596921,-65536,88,-56,-1,-1,0
1523610596961,0,88,-56,-1,-1,0
1523610596961,196608,88,-56,-1,-1,0
1523610596961,393216,88,-56,-1,-1,0
1523610596961,393216,88,-56,-1,-1,0
1523610596961,524288,88,-56,-1,-1,0
1523610597017,786432,88,-56,-1,-1,0
1523610597017,1245184,88,-56,-1,-1,0
1523610597017,1441792,88,-56,-1,-1,0
1523610597017,1572864,88,-56,-1,-1,0
1523610597017,1703936,88,-56,-1,-1,0
1523610597041,2031616,88,-56,-1,-1,0
1523610597041,2162688,88,-56,-1,-1,0
1523610597041,2031616,88,-56,-1,-1,0
1523610597041,1703936,88,-56,-1,-1,0
1523610597041,1441792,88,-56,-1,-1,0
1523610597081,1114112,88,-56,-1,-1,0
1523610597081,917504,88,-56,-1,-1,0
1523610597081,589824,88,-56,-1,-1,0
1523610597081,0,88,-56,-1,-1,0
1523610597081,-524288,88,-56,-1,-1,0
1523610597121,-786432,88,-56,-1,-1,0
1523610597121,-786432,88,-56,-1,-1,0
1523610597121,-851968,88,-56,-1,-1,0
1523610597121,-1048576,88,-56,-1,-1,0
1523610597121,-1048576,88,-56,-1,-1,0
1523610597161,-917504,88,-56,-1,-1,0
1523610597161,-589824,88,-56,-1,-1,0
1523610597161,-524288,88,-56,-1,-1,0
1523610597161,-655360,88,-56,-1,-1,0
1523610597161,-851968,88,-56,-1,-1,0
1523610597201,-786432,88,-56,-1,-1,0
1523610597201,-983040,88,-56,-1,-1,0
1523610597201,-917504,88,-56,-1,-1,0
1523610597201,-851968,88,-56,-1,-1,0
1523610597201,-655360,88,-56,-1,-1,0
1523610597241,-655360,88,-56,-1,-1,0
1523610597241,-589824,88,-56,-1,-1,0
1523610597241,-327680,88,-56,-1,-1,0
1523610597241,-262144,88,-56,-1,-1,0
1523610597241,-524288,88,-56,-1,-1,0
1523610597281,-917504,88,-56,-1,-1,0
1523610597281,-917504,88,-56,-1,-1,0
1523610597281,-851968,88,-56,-1,-1,0
1523610597281,-851968,88,-56,-1,-1,0
1523610597281,-851968,88,-56,-1,-1,0
1523610597321,-786432,88,-56,-1,-1,0
1523610597321,-655360,88,-56,-1,-1,0
1523610597321,-262144,88,-56,-1,-1,0
1523610597321,-524288,88,-56,-1,-1,0
1523610597321,-983040,88,-56,-1,-1,0
1523610597361,-1048576,88,-56,-1,-1,0
1523610597361,-851968,88,-56,-1,-1,0
1523610597361,-786432,88,-56,-1,-1,0
1523610597361,-655360,88,-56,-1,-1,0
1523610597361,-458752,88,-56,-1,-1,0
1523610597401,-458752,88,-56,-1,-1,0
1523610597401,-458752,88,-56,-1,-1,0
1523610597401,-524288,88,-56,-1,-1,0
1523610597401,-589824,88,-56,-1,-1,0
1523610597401,-786432,88,-56,-1,-1,0
1523610597441,-1179648,88,-56,-1,-1,0
1523610597441,-1310720,88,-56,-1,-1,0
1523610597441,-1048576,88,-56,-1,-1,0
1523610597441,-786432,88,-56,-1,-1,0
1523610597441,-524288,88,-56,-1,-1,0
1523610597481,0,88,-56,-1,-1,0
1523610597481,0,88,-56,-1,-1,0
1523610597481,-262144,88,-56,-1,-1,0
1523610597481,-458752,88,-56,-1,-1,0
1523610597481,-327680,88,-56,-1,-1,0
1523610597521,-458752,88,-56,-1,-1,0
1523610597521,-458752,88,-56,-1,-1,0
1523610597521,-524288,88,-56,-1,-1,0
1523610597521,-524288,88,-56,-1,-1,0
1523610597521,-589824,88,-56,-1,-1,0
1523610597561,-196608,88,-56,-1,-1,0
1523610597561,0,88,-56,-1,-1,0
1523610597561,-131072,88,-56,-1,-1,0
1523610597561,393216,88,-56,-1,-1,0
1523610597561,3342336,88,-56,-1,-1,0
1523610597601,8585216,88,-56,-1,-1,0
1523610597601,11927552,88,-56,-1,-1,0
1523610597601,8716288,88,-56,-1,-1,0
1523610597601,2228224,88,-56,-1,-1,0
1523610597601,-917504,88,-56,-1,-1,0
1523610597657,-655360,87,-56,-1,-1,0
1523610597657,-131072,87,-56,-1,-1,0
1523610597657,-131072,87,-56,-1,-1,0
1523610597657,-393216,87,-56,-1,-1,0
1523610597657,-851968,87,-56,-1,-1,0
1523610597681,-655360,87,-56,-1,-1,0
1523610597681,-458752,87,-56,-1,-1,0
1523610597681,-327680,87,-56,-1,-1,0
1523610597681,-262144,87,-56,-1,-1,0
1523610597681,196608,87,-56,-1,-1,0
1523610597721,131072,87,-56,-1,-1,0
1523610597721,-262144,87,-56,-1,-1,0
1523610597721,-327680,87,-56,-1,-1,0
1523610597721,0,87,-56,-1,-1,0
1523610597721,327680,87,-56,-1,-1,0
1523610597761,524288,87,-56,-1,-1,0
1523610597761,1048576,87,-56,-1,-1,0
1523610597761,1572864,87,-56,-1,-1,0
1523610597761,1769472,87,-56,-1,-1,0
1523610597761,1703936,87,-56,-1,-1,0
1523610597801,1966080,87,-56,-1,-1,0
1523610597801,1769472,87,-56,-1,-1,0
1523610597801,1507328,87,-56,-1,-1,0
1523610597801,1376256,87,-56,-1,-1,0
1523610597801,1310720,87,-56,-1,-1,0
1523610597841,983040,87,-56,-1,-1,0
1523610597841,458752,87,-56,-1,-1,0
1523610597841,0,87,-56,-1,-1,0
1523610597841,-327680,87,-56,-1,-1,0
1523610597841,-524288,87,-56,-1,-1,0
1523610597881,-851968,87,-56,-1,-1,0
1523610597881,-983040,87,-56,-1,-1,0
1523610597881,-851968,87,-56,-1,-1,0
1523610597881,-851968,87,-56,-1,-1,0
1523610597881,-1245184,87,-56,-1,-1,0
1523610597921,-1310720,87,-56,-1,-1,0
1523610597921,-1048576,87,-56,-1,-1,0
1523610597921,-983040,87,-56,-1,-1,0
1523610597921,-1114112,87,-56,-1,-1,0
1523610597921,-917504,87,-56,-1,-1,0
1523610597961,-589824,87,-56,-1,-1,0
1523610597961,-786432,87,-56,-1,-1,0
1523610597961,-1114112,87,-56,-1,-1,0
1523610597961,-1114112,87,-56,-1,-1,0
1523610597961,-720896,87,-56,-1,-1,0
1523610598001,-786432,87,-56,-1,-1,0
1523610598001,-1179648,87,-56,-1,-1,0
1523610598001,-1376256,87,-56,-1,-1,0
1523610598001,-1310720,87,-56,-1,-1,0
1523610598001,-1114112,87,-56,-1,-1,0
1523610598041,-1114112,87,-56,-1,-1,0
1523610598041,-1245184,87,-56,-1,-1,0
1523610598041,-1245184,87,-56,-1,-1,0
1523610598041,-1114112,87,-56,-1,-1,0
1523610598041,-1114112,87,-56,-1,-1,0
1523610598081,-1048576,87,-56,-1,-1,0
1523610598081,-1179648,87,-56,-1,-1,0
1523610598081,-1114112,87,-56,-1,-1,0
1523610598081,-1048576,87,-56,-1,-1,0
1523610598081,-1310720,87,-56,-1,-1,0
1523610598121,-1572864,87,-56,-1,-1,0
1523610598121,-1310720,87,-56,-1,-1,0
1523610598121,-1179648,87,-56,-1,-1,0
1523610598121,-1048576,87,-56,-1,-1,0
1523610598121,-1048576,87,-56,-1,-1,0
1523610598161,-1048576,87,-56,-1,-1,0
1523610598161,-983040,87,-56,-1,-1,0
1523610598161,-983040,87,-56,-1,-1,0
1523610598161,-1245184,87,-56,-1,-1,0
1523610598161,-1376256,87,-56,-1,-1,0
1523610598201,-1703936,87,-56,-1,-1,0
1523610598201,-1835008,87,-56,-1,-1,0
1523610598201,-1441792,87,-56,-1,-1,0
1523610598201,-1310720,87,-56,-1,-1,0
1523610598201,-1179648,87,-56,-1,-1,0
1523610598241,-851968,87,-56,-1,-1,0
1523610598241,-524288,87,-56,-1,-1,0
1523610598241,-786432,87,-56,-1,-1,0
1523610598241,-1179648,87,-56,-1,-1,0
1523610598241,-1048576,87,-56,-1,-1,0
1523610598297,-917504,87,-56,-1,-1,0
1523610598297,-1245184,87,-56,-1,-1,0
1523610598297,-1376256,87,-56,-1,-1,0
1523610598297,-1048576,87,-56,-1,-1,0
1523610598297,-917504,87,-56,-1,-1,0
1523610598321,-589824,87,-56,-1,-1,0
1523610598321,-458752,87,-56,-1,-1,0
1523610598321,-589824,87,-56,-1,-1,0
1523610598321,655360,87,-56,-1,-1,0
1523610598321,4390912,87,-56,-1,-1,0
1523610598361,9633792,87,-56,-1,-1,0
1523610598361,11927552,87,-56,-1,-1,0
1523610598361,7471104,87,-56,-1,-1,0
1523610598361,917504,87,-56,-1,-1,0
1523610598361,-1310720,87,-56,-1,-1,0
1523610598401,-786432,86,-56,-1,-1,0
1523610598401,-393216,86,-56,-1,-1,0
1523610598401,-720896,86,-56,-1,-1,0
1523610598401,-720896,86,-56,-1,-1,0
1523610598401,-720896,86,-56,-1,-1,0
1523610598441,-786432,86,-56,-1,-1,0
1523610598441,-983040,86,-56,-1,-1,0
1523610598441,-655360,86,-56,-1,-1,0
1523610598441,-262144,86,-56,-1,-1,0
1523610598441,0,86,-56,-1,-1,0
1523610598481,-131072,86,-56,-1,-1,0
1523610598481,-131072,86,-56,-1,-1,0
1523610598481,196608,86,-56,-1,-1,0
1523610598481,655360,86,-56,-1,-1,0
1523610598481,655360,86,-56,-1,-1,0
1523610598521,720896,86,-56,-1,-1,0
1523610598521,1114112,86,-56,-1,-1,0
1523610598521,1376256,86,-56,-1,-1,0
1523610598521,1638400,86,-56,-1,-1,0
1523610598521,2031616,86,-56,-1,-1,0
1523610598561,2162688,86,-56,-1,-1,0
1523610598561,2031616,86,-56,-1,-1,0
1523610598561,1703936,86,-56,-1,-1,0
1523610598561,1507328,86,-56,-1,-1,0
1523610598561,1179648,86,-56,-1,-1,0
1523610598601,851968,86,-56,-1,-1,0
1523610598601,524288,86,-56,-1,-1,0
1523610598601,262144,86,-56,-1,-1,0
1523610598601,-393216,86,-56,-1,-1,0
1523610598601,-1048576,86,-56,-1,-1,0
1523610598641,-1048576,86,-56,-1,-1,0
1523610598641,-983040,86,-56,-1,-1,0
1523610598641,-1048576,86,-56,-1,-1,0
1523610598641,-1310720,86,-56,-1,-1,0
1523610598641,-1310720,86,-56,-1,-1,0
1523610598681,-1114112,86,-56,-1,-1,0
1523610598681,-1114112,86,-56,-1,-1,0
1523610598681,-1179648,86,-56,-1,-1,0
1523610598681,-1048576,86,-56,-1,-1,0
1523610598681,-983040,86,-56,-1,-1,0
1523610598721,-786432,86,-56,-1,-1,0
1523610598721,-1179648,86,-56,-1,-1,0
1523610598721,-1441792,86,-56,-1,-1,0
1523610598721,-1048576,86,-56,-1,-1,0
1523610598721,-720896,86,-56,-1,-1,0
1523610598761,-983040,86,-56,-1,-1,0
1523610598761,-1114112,86,-56,-1,-1,0
1523610598761,-851968,86,-56,-1,-1,0
1523610598761,-851968,86,-56,-1,-1,0
1523610598761,-983040,86,-56,-1,-1,0
1523610598801,-983040,86,-56,-1,-1,0
1523610598801,-917504,86,-56,-1,-1,0
1523610598801,-1048576,86,-56,-1,-1,0
1523610598801,-1245184,86,-56,-1,-1,0
1523610598801,-1310720,86,-56,-1,-1,0
1523610598841,-917504,86,-56,-1,-1,0
1523610598841,-786432,86,-56,-1,-1,0
1523610598841,-1048576,86,-56,-1,-1,0
1523610598841,-1114112,86,-56,-1,-1,0
1523610598841,-786432,86,-56,-1,-1,0
1523610598881,-851968,86,-56,-1,-1,0
1523610598881,-1048576,86,-56,-1,-1,0
1523610598881,-917504,86,-56,-1,-1,0
1523610598881,-786432,86,-56,-1,-1,0
1523610598881,-524288,86,-56,-1,-1,0
1523610598937,-524288,86,-56,-1,-1,0
1523610598937,-720896,86,-56,-1,-1,0
1523610598937,-655360,86,-56,-1,-1,0
1523610598937,-589824,86,-56,-1,-1,0
1523610598937,-851968,86,-56,-1,-1,0
1523610598961,-1245184,86,-56,-1,-1,0
1523610598961,-1310720,86,-56,-1,-1,0
1523610598961,-1245184,86,-56,-1,-1,0
1523610598961,-1179648,86,-56,-1,-1,0
1523610598961,-983040,86,-56,-1,-1,0
1523610599001,-720896,86,-56,-1,-1,0
1523610599001,-458752,86,-56,-1,-1,0
1523610599001,-524288,86,-56,-1,-1,0
1523610599001,-458752,86,-56,-1,-1,0
1523610599001,-851968,86,-56,-1,-1,0
1523610599041,-1245184,86,-56,-1,-1,0
1523610599041,-1114112,86,-56,-1,-1,0
1523610599041,-1114112,86,-56,-1,-1,0
1523610599041,-1114112,86,-56,-1,-1,0
1523610599041,-1048576,86,-56,-1,-1,0
1523610599081,-786432,86,-56,-1,-1,0
1523610599081,-851968,86,-56,-1,-1,0
1523610599081,-720896,86,-56,-1,-1,0
1523610599081,-262144,86,-56,-1,-1,0
1523610599081,1572864,86,-56,-1,-1,0
1523610599121,5570560,86,-56,-1,-1,0
1523610599121,11075584,86,-56,-1,-1,0
1523610599121,11534336,86,-56,-1,-1,0
1523610599121,5832704,86,-56,-1,-1,0
1523610599121,-262144,86,-56,-1,-1,0
1523610599160,-1638400,84,-56,-1,-1,0
1523610599160,-917504,84,-56,-1,-1,0
1523610599160,0,84,-56,-1,-1,0
1523610599160,-131072,84,-56,-1,-1,0
1523610599160,-327680,84,-56,-1,-1,0
1523610599201,-589824,84,-56,-1,-1,0
1523610599201,-589824,84,-56,-1,-1,0
1523610599201,-327680,84,-56,-1,-1,0
1523610599201,-131072,84,-56,-1,-1,0
1523610599201,0,84,-56,-1,-1,0
1523610599240,0,84,-56,-1,-1,0
1523610599240,327680,84,-56,-1,-1,0
1523610599240,720896,84,-56,-1,-1,0
1523610599240,720896,84,-56,-1,-1,0
1523610599240,524288,84,-56,-1,-1,0
1523610599281,983040,84,-56,-1,-1,0
1523610599281,1310720,84,-56,-1,-1,0
1523610599281,1441792,84,-56,-1,-1,0
1523610599281,1507328,84,-56,-1,-1,0
1523610599281,1966080,84,-56,-1,-1,0
1523610599320,2293760,84,-56,-1,-1,0
1523610599320,2293760,84,-56,-1,-1,0
1523610599320,2162688,84,-56,-1,-1,0
1523610599320,2031616,84,-56,-1,-1,0
1523610599320,1900544,84,-56,-1,-1,0
1523610599361,1769472,84,-56,-1,-1,0
1523610599361,1310720,84,-56,-1,-1,0
1523610599361,524288,84,-56,-1,-1,0
1523610599361,131072,84,-56,-1,-1,0
1523610599361,-131072,84,-56,-1,-1,0
1523610599400,-262144,84,-56,-1,-1,0
1523610599400,-524288,84,-56,-1,-1,0
1523610599400,-589824,84,-56,-1,-1,0
1523610599400,-524288,84,-56,-1,-1,0
1523610599400,-589824,84,-56,-1,-1,0
1523610599441,-458752,84,-56,-1,-1,0
1523610599441,-524288,84,-56,-1,-1,0
1523610599441,-524288,84,-56,-1,-1,0
1523610599441,-720896,84,-56,-1,-1,0
1523610599441,-720896,84,-56,-1,-1,0
1523610599480,-851968,84,-56,-1,-1,0
1523610599480,-393216,84,-56,-1,-1,0
1523610599480,-524288,84,-56,-1,-1,0
1523610599480,-851968,84,-56,-1,-1,0
1523610599480,-655360,84,-56,-1,-1,0
1523610599521,-589824,84,-56,-1,-1,0
1523610599521,-589824,84,-56,-1,-1,0
1523610599521,-655360,84,-56,-1,-1,0
1523610599521,-262144,84,-56,-1,-1,0
1523610599521,-393216,84,-56,-1,-1,0
1523610599577,-655360,84,-56,-1,-1,0
1523610599577,-917504,84,-56,-1,-1,0
1523610599577,-720896,84,-56,-1,-1,0
1523610599577,-786432,84,-56,-1,-1,0
1523610599577,-983040,84,-56,-1,-1,0
1523610599601,-917504,84,-56,-1,-1,0
1523610599601,-786432,84,-56,-1,-1,0
1523610599601,-655360,84,-56,-1,-1,0
1523610599601,-655360,84,-56,-1,-1,0
1523610599601,-589824,84,-56,-1,-1,0
1523610599640,-589824,84,-56,-1,-1,0
1523610599640,-589824,84,-56,-1,-1,0
1523610599640,-786432,84,-56,-1,-1,0
1523610599640,-917504,84,-56,-1,-1,0
1523610599640,-851968,84,-56,-1,-1,0
1523610599681,-655360,84,-56,-1,-1,0
1523610599681,-655360,84,-56,-1,-1,0
1523610599681,-917504,84,-56,-1,-1,0
1523610599681,-786432,84,-56,-1,-1,0
1523610599681,-786432,84,-56,-1,-1,0
1523610599720,-851968,84,-56,-1,-1,0
1523610599720,-983040,84,-56,-1,-1,0
1523610599720,-983040,84,-56,-1,-1,0
1523610599720,-1114112,84,-56,-1,-1,0
1523610599720,-1310720,84,-56,-1,-1,0
1523610599761,-1376256,84,-56,-1,-1,0
1523610599761,-1048576,84,-56,-1,-1,0
1523610599761,-786432,84,-56,-1,-1,0
1523610599761,-786432,84,-56,-1,-1,0
1523610599761,-1114112,84,-56,-1,-1,0
1523610599800,-1179648,84,-56,-1,-1,0
1523610599800,-1114112,84,-56,-1,-1,0
1523610599800,-1048576,84,-56,-1,-1,0
1523610599800,-1245184,84,-56,-1,-1,0
1523610599800,-1310720,84,-56,-1,-1,0
1523610599841,-1114112,84,-56,-1,-1,0
1523610599841,-1179648,84,-56,-1,-1,0
1523610599841,-1507328,84,-56,-1,-1,0
1523610599841,-1572864,84,-56,-1,-1,0
1523610599841,-917504,84,-56,-1,-1,0
1523610599880,917504,84,-56,-1,-1,0
1523610599880,5308416,84,-56,-1,-1,0
1523610599880,11468800,84,-56,-1,-1,0
1523610599880,12713984,84,-56,-1,-1,0
1523610599880,6356992,84,-56,-1,-1,0
1523610599921,-589824,82,-56,-1,-1,0
1523610599921,-2031616,82,-56,-1,-1,0
1523610599921,-1310720,82,-56,-1,-1,0
1523610599921,-983040,82,-56,-1,-1,0
1523610599921,-786432,82,-56,-1,-1,0
1523610599960,-720896,82,-56,-1,-1,0
1523610599960,-786432,82,-56,-1,-1,0
1523610599960,-589824,82,-56,-1,-1,0
1523610599960,-393216,82,-56,-1,-1,0
1523610599960,-65536,82,-56,-1,-1,0
1523610600001,0,82,-56,-1,-1,0
1523610600001,0,82,-56,-1,-1,0
1523610600001,-131072,82,-56,-1,-1,0
1523610600001,0,82,-56,-1,-1,0
1523610600001,262144,82,-56,-1,-1,0
1523610600040,720896,82,-56,-1,-1,0
1523610600040,786432,82,-56,-1,-1,0
1523610600040,983040,82,-56,-1,-1,0
1523610600040,1245184,82,-56,-1,-1,0
1523610600040,1507328,82,-56,-1,-1,0
1523610600081,1703936,82,-56,-1,-1,0
1523610600081,1966080,82,-56,-1,-1,0
1523610600081,2293760,82,-56,-1,-1,0
1523610600081,2097152,82,-56,-1,-1,0
1523610600081,1703936,82,-56,-1,-1,0
1523610600120,1572864,82,-56,-1,-1,0
1523610600120,1310720,82,-56,-1,-1,0
1523610600120,720896,82,-56,-1,-1,0
1523610600120,131072,82,-56,-1,-1,0
1523610600120,-131072,82,-56,-1,-1,0
1523610600161,-393216,82,-56,-1,-1,0
1523610600161,-524288,82,-56,-1,-1,0
1523610600161,-655360,82,-56,-1,-1,0
1523610600161,-524288,82,-56,-1,-1,0
1523610600161,-524288,82,-56,-1,-1,0
1523610600217,-589824,82,-56,-1,-1,0
1523610600217,-851968,82,-56,-1,-1,0
1523610600217,-786432,82,-56,-1,-1,0
1523610600217,-851968,82,-56,-1,-1,0
1523610600217,-655360,82,-56,-1,-1,0
1523610600241,-655360,82,-56,-1,-1,0
1523610600241,-524288,82,-56,-1,-1,0
1523610600241,-458752,82,-56,-1,-1,0
1523610600241,-524288,82,-56,-1,-1,0
1523610600241,-393216,82,-56,-1,-1,0
1523610600280,-262144,82,-56,-1,-1,0
1523610600280,-524288,82,-56,-1,-1,0
1523610600280,-851968,82,-56,-1,-1,0
1523610600280,-720896,82,-56,-1,-1,0
1523610600280,-720896,82,-56,-1,-1,0
1523610600321,-655360,82,-56,-1,-1,0
1523610600321,-589824,82,-56,-1,-1,0
1523610600321,-655360,82,-56,-1,-1,0
1523610600321,-720896,82,-56,-1,-1,0
1523610600321,-655360,82,-56,-1,-1,0
1523610600360,-720896,82,-56,-1,-1,0
1523610600360,-983040,82,-56,-1,-1,0
1523610600360,-1048576,82,-56,-1,-1,0
1523610600360,-983040,82,-56,-1,-1,0
1523610600360,-851968,82,-56,-1,-1,0
1523610600401,-917504,82,-56,-1,-1,0
1523610600401,-983040,82,-56,-1,-1,0
1523610600401,-917504,82,-56,-1,-1,0
1523610600401,-983040,82,-56,-1,-1,0
1523610600401,-983040,82,-56,-1,-1,0
1523610600440,-983040,82,-56,-1,-1,0
1523610600440,-786432,82,-56,-1,-1,0
1523610600440,-786432,82,-56,-1,-1,0
1523610600440,-720896,82,-56,-1,-1,0
1523610600440,-655360,82,-56,-1,-1,0
1523610600481,-720896,82,-56,-1,-1,0
1523610600481,-1048576,82,-56,-1,-1,0
1523610600481,-1245184,82,-56,-1,-1,0
1523610600481,-1245184,82,-56,-1,-1,0
1523610600481,-983040,82,-56,-1,-1,0
1523610600520,-851968,82,-56,-1,-1,0
1523610600520,-720896,82,-56,-1,-1,0
1523610600520,-458752,82,-56,-1,-1,0
1523610600520,-393216,82,-56,-1,-1,0
1523610600520,-196608,82,-56,-1,-1,0
1523610600560,-458752,82,-56,-1,-1,0
1523610600560,-786432,82,-56,-1,-1,0
1523610600560,-851968,82,-56,-1,-1,0
1523610600560,-589824,82,-56,-1,-1,0
1523610600560,-524288,82,-56,-1,-1,0
1523610600600,-589824,82,-56,-1,-1,0
1523610600600,-589824,82,-56,-1,-1,0
1523610600600,-589824,82,-56,-1,-1,0
1523610600600,-393216,82,-56,-1,-1,0
1523610600600,0,82,-56,-1,-1,0
1523610600641,1572864,82,-56,-1,-1,0
1523610600641,4915200,82,-56,-1,-1,0
1523610600641,10354688,82,-56,-1,-1,0
1523610600641,13041664,82,-56,-1,-1,0
1523610600641,8454144,82,-56,-1,-1,0
1523610600680,1441792,81,-56,-1,-1,0
1523610600680,-1245184,81,-56,-1,-1,0
1523610600680,-458752,81,-56,-1,-1,0
1523610600680,-65536,81,-56,-1,-1,0
1523610600680,-262144,81,-56,-1,-1,0
1523610600721,-196608,81,-56,-1,-1,0
1523610600721,-65536,81,-56,-1,-1,0
1523610600721,0,81,-56,-1,-1,0
1523610600721,-65536,81,-56,-1,-1,0
1523610600721,-196608,81,-56,-1,-1,0
1523610600760,-131072,81,-56,-1,-1,0
1523610600760,0,81,-56,-1,-1,0
1523610600760,131072,81,-56,-1,-1,0
1523610600760,458752,81,-56,-1,-1,0
1523610600760,786432,81,-56,-1,-1,0
1523610600801,851968,81,-56,-1,-1,0
1523610600801,851968,81,-56,-1,-1,0
1523610600801,1179648,81,-56,-1,-1,0
1523610600801,1441792,81,-56,-1,-1,0
1523610600801,1638400,81,-56,-1,-1,0
1523610600857,2031616,81,-56,-1,-1,0
1523610600857,2097152,81,-56,-1,-1,0
1523610600857,2031616,81,-56,-1,-1,0
1523610600857,2162688,81,-56,-1,-1,0
1523610600857,2293760,81,-56,-1,-1,0
1523610600881,2031616,81,-56,-1,-1,0
1523610600881,1638400,81,-56,-1,-1,0
1523610600881,1245184,81,-56,-1,-1,0
1523610600881,917504,81,-56,-1,-1,0
1523610600881,458752,81,-56,-1,-1,0
1523610600920,0,81,-56,-1,-1,0
1523610600920,-65536,81,-56,-1,-1,0
1523610600920,0,81,-56,-1,-1,0
1523610600920,-196608,81,-56,-1,-1,0
1523610600920,-393216,81,-56,-1,-1,0
1523610600961,-327680,81,-56,-1,-1,0
1523610600961,-131072,81,-56,-1,-1,0
1523610600961,-262144,81,-56,-1,-1,0
1523610600961,-393216,81,-56,-1,-1,0
1523610600961,-327680,81,-56,-1,-1,0
1523610601000,-196608,81,-56,-1,-1,0
1523610601000,0,81,-56,-1,-1,0
1523610601000,0,81,-56,-1,-1,0
1523610601000,-65536,81,-56,-1,-1,0
1523610601000,-196608,81,-56,-1,-1,0
1523610601041,-262144,81,-56,-1,-1,0
1523610601041,-458752,81,-56,-1,-1,0
1523610601041,-655360,81,-56,-1,-1,0
1523610601041,-458752,81,-56,-1,-1,0
1523610601041,-327680,81,-56,-1,-1,0
1523610601080,-327680,81,-56,-1,-1,0
1523610601080,-524288,81,-56,-1,-1,0
1523610601080,-655360,81,-56,-1,-1,0
1523610601080,-720896,81,-56,-1,-1,0
1523610601080,-917504,81,-56,-1,-1,0
1523610601121,-851968,81,-56,-1,-1,0
1523610601121,-851968,81,-56,-1,-1,0
1523610601121,-655360,81,-56,-1,-1,0
1523610601121,-524288,81,-56,-1,-1,0
1523610601121,-262144,81,-56,-1,-1,0
1523610601161,-65536,81,-56,-1,-1,0
1523610601161,-65536,81,-56,-1,-1,0
1523610601161,0,81,-56,-1,-1,0
1523610601161,-131072,81,-56,-1,-1,0
1523610601161,-393216,81,-56,-1,-1,0
1523610601201,-524288,81,-56,-1,-1,0
1523610601201,-655360,81,-56,-1,-1,0
1523610601201,-655360,81,-56,-1,-1,0
1523610601201,-720896,81,-56,-1,-1,0
1523610601201,-1114112,81,-56,-1,-1,0
1523610601241,-1376256,81,-56,-1,-1,0
1523610601241,-1245184,81,-56,-1,-1,0
1523610601241,-1114112,81,-56,-1,-1,0
1523610601241,-1114112,81,-56,-1,-1,0
1523610601241,-1114112,81,-56,-1,-1,0
1523610601281,-655360,81,-56,-1,-1,0
1523610601281,-327680,81,-56,-1,-1,0
1523610601281,0,81,-56,-1,-1,0
1523610601281,65536,81,-56,-1,-1,0
1523610601281,131072,81,-56,-1,-1,0
1523610601320,-65536,81,-56,-1,-1,0
1523610601320,-327680,81,-56,-1,-1,0
1523610601320,-393216,81,-56,-1,-1,0
1523610601320,-524288,81,-56,-1,-1,0
1523610601320,-851968,81,-56,-1,-1,0
1523610601361,-1179648,81,-56,-1,-1,0
1523610601361,-1179648,81,-56,-1,-1,0
1523610601361,-851968,81,-56,-1,-1,0
1523610601361,-655360,81,-56,-1,-1,0
1523610601361,-524288,81,-56,-1,-1,0
1523610601401,524288,81,-56,-1,-1,0
1523610601401,3407872,81,-56,-1,-1,0
1523610601401,8323072,81,-56,-1,-1,0
1523610601401,11665408,81,-56,-1,-1,0
1523610601401,8585216,81,-56,-1,-1,0
1523610601441,1966080,79,-56,-1,-1,0
1523610601441,-1310720,79,-56,-1,-1,0
1523610601441,-983040,79,-56,-1,-1,0
1523610601441,-655360,79,-56,-1,-1,0
1523610601441,-917504,79,-56,-1,-1,0
1523610601497,-983040,79,-56,-1,-1,0
1523610601497,-983040,79,-56,-1,-1,0
1523610601497,-851968,79,-56,-1,-1,0
1523610601497,-917504,79,-56,-1,-1,0
1523610601497,-720896,79,-56,-1,-1,0
1523610601521,-524288,79,-56,-1,-1,0
1523610601521,-196608,79,-56,-1,-1,0
1523610601521,-196608,79,-56,-1,-1,0
1523610601521,-131072,79,-56,-1,-1,0
1523610601521,-131072,79,-56,-1,-1,0
1523610601561,-262144,79,-56,-1,-1,0
1523610601561,65536,79,-56,-1,-1,0
1523610601561,589824,79,-56,-1,-1,0
1523610601561,917504,79,-56,-1,-1,0
1523610601561,1376256,79,-56,-1,-1,0
1523610601601,2097152,79,-56,-1,-1,0
1523610601601,2097152,79,-56,-1,-1,0
1523610601601,1835008,79,-56,-1,-1,0
1523610601601,2162688,79,-56,-1,-1,0
1523610601601,2228224,79,-56,-1,-1,0
1523610601641,1703936,79,-56,-1,-1,0
1523610601641,1310720,79,-56,-1,-1,0
1523610601641,983040,79,-56,-1,-1,0
1523610601641,655360,79,-56,-1,-1,0
1523610601641,458752,79,-56,-1,-1,0
1523610601681,262144,79,-56,-1,-1,0
1523610601681,0,79,-56,-1,-1,0
1523610601681,-65536,79,-56,-1,-1,0
1523610601681,-327680,79,-56,-1,-1,0
1523610601681,-393216,79,-56,-1,-1,0
1523610601721,-851968,79,-56,-1,-1,0
1523610601721,-1245184,79,-56,-1,-1,0
1523610601721,-983040,79,-56,-1,-1,0
1523610601721,-393216,79,-56,-1,-1,0
1523610601721,-393216,79,-56,-1,-1,0
1523610601761,-524288,79,-56,-1,-1,0
1523610601761,-131072,79,-56,-1,-1,0
1523610601761,0,79,-56,-1,-1,0
1523610601761,-327680,79,-56,-1,-1,0
1523610601761,-720896,79,-56,-1,-1,0
1523610601801,-786432,79,-56,-1,-1,0
1523610601801,-1179648,79,-56,-1,-1,0
1523610601801,-1114112,79,-56,-1,-1,0
1523610601801,-458752,79,-56,-1,-1,0
1523610601801,-196608,79,-56,-1,-1,0
1523610601841,-196608,79,-56,-1,-1,0
1523610601841,-131072,79,-56,-1,-1,0
1523610601841,-131072,79,-56,-1,-1,0
1523610601841,-458752,79,-56,-1,-1,0
1523610601841,-1114112,79,-56,-1,-1,0
1523610601881,-1376256,79,-56,-1,-1,0
1523610601881,-1048576,79,-56,-1,-1,0
1523610601881,-720896,79,-56,-1,-1,0
1523610601881,-589824,79,-56,-1,-1,0
1523610601881,-524288,79,-56,-1,-1,0
1523610601921,-393216,79,-56,-1,-1,0
1523610601921,-131072,79,-56,-1,-1,0
1523610601921,-393216,79,-56,-1,-1,0
1523610601921,-786432,79,-56,-1,-1,0
1523610601921,-917504,79,-56,-1,-1,0
1523610601961,-983040,79,-56,-1,-1,0
1523610601961,-1114112,79,-56,-1,-1,0
1523610601961,-1245184,79,-56,-1,-1,0
1523610601961,-1048576,79,-56,-1,-1,0
1523610601961,-1048576,79,-56,-1,-1,0
1523610602001,-1048576,79,-56,-1,-1,0
1523610602001,-917504,79,-56,-1,-1,0
1523610602001,-524288,79,-56,-1,-1,0
1523610602001,-720896,79,-56,-1,-1,0
1523610602001,-851968,79,-56,-1,-1,0
1523610602041,-589824,79,-56,-1,-1,0
1523610602041,-786432,79,-56,-1,-1,0
1523610602041,-1376256,79,-56,-1,-1,0
1523610602041,-1376256,79,-56,-1,-1,0
1523610602041,-1245184,79,-56,-1,-1,0
1523610602081,-917504,79,-56,-1,-1,0
1523610602081,-393216,79,-56,-1,-1,0
1523610602081,-327680,79,-56,-1,-1,0
1523610602081,-786432,79,-56,-1,-1,0
1523610602081,-1376256,79,-56,-1,-1,0
1523610602137,-1835008,79,-56,-1,-1,0
1523610602137,-1703936,79,-56,-1,-1,0
1523610602137,-917504,79,-56,-1,-1,0
1523610602137,1179648,79,-56,-1,-1,0
1523610602137,5701632,79,-56,-1,-1,0
1523610602161,11993088,79,-56,-1,-1,0
1523610602161,12451840,79,-56,-1,-1,0
1523610602161,5701632,79,-56,-1,-1,0
1523610602161,-917504,79,-56,-1,-1,0
1523610602161,-2162688,79,-56,-1,-1,0
1523610602201,-1638400,79,-56,-1,-1,0
1523610602201,-1179648,79,-56,-1,-1,0
1523610602201,-983040,79,-56,-1,-1,0
1523610602201,-983040,79,-56,-1,-1,0
1523610602201,-1048576,79,-56,-1,-1,0
1523610602241,-917504,79,-56,-1,-1,0
1523610602241,-786432,79,-56,-1,-1,0
1523610602241,-458752,79,-56,-1,-1,0
1523610602241,0,79,-56,-1,-1,0
1523610602241,-65536,79,-56,-1,-1,0
1523610602281,-655360,79,-56,-1,-1,0
1523610602281,-851968,79,-56,-1,-1,0
1523610602281,-393216,79,-56,-1,-1,0
1523610602281,-131072,79,-56,-1,-1,0
1523610602281,131072,79,-56,-1,-1,0
1523610602321,393216,79,-56,-1,-1,0
1523610602321,786432,79,-56,-1,-1,0
1523610602321,1310720,79,-56,-1,-1,0
1523610602321,1638400,79,-56,-1,-1,0
1523610602321,1835008,79,-56,-1,-1,0
1523610602361,1703936,79,-56,-1,-1,0
1523610602361,1507328,79,-56,-1,-1,0
1523610602361,1245184,79,-56,-1,-1,0
1523610602361,1114112,79,-56,-1,-1,0
1523610602361,786432,79,-56,-1,-1,0
1523610602401,327680,79,-56,-1,-1,0
1523610602401,-131072,79,-56,-1,-1,0
1523610602401,-524288,79,-56,-1,-1,0
1523610602401,-786432,79,-56,-1,-1,0
1523610602401,-983040,79,-56,-1,-1,0
1523610602441,-1245184,79,-56,-1,-1,0
1523610602441,-1310720,79,-56,-1,-1,0
1523610602441,-1310720,79,-56,-1,-1,0
1523610602441,-1310720,79,-56,-1,-1,0
1523610602441,-1376256,79,-56,-1,-1,0
1523610602481,-1179648,79,-56,-1,-1,0
1523610602481,-1048576,79,-56,-1,-1,0
1523610602481,-1048576,79,-56,-1,-1,0
1523610602481,-983040,79,-56,-1,-1,0
1523610602481,-917504,79,-56,-1,-1,0
1523610602521,-917504,79,-56,-1,-1,0
1523610602521,-983040,79,-56,-1,-1,0
1523610602521,-786432,79,-56,-1,-1,0
1523610602521,-983040,79,-56,-1,-1,0
1523610602521,-1114112,79,-56,-1,-1,0
1523610602561,-917504,79,-56,-1,-1,0
1523610602561,-589824,79,-56,-1,-1,0
1523610602561,-786432,79,-56,-1,-1,0
1523610602561,-983040,79,-56,-1,-1,0
1523610602561,-1048576,79,-56,-1,-1,0
1523610602601,-917504,79,-56,-1,-1,0
1523610602601,-851968,79,-56,-1,-1,0
1523610602601,-917504,79,-56,-1,-1,0
1523610602601,-983040,79,-56,-1,-1,0
1523610602601,-1048576,79,-56,-1,-1,0
1523610602641,-917504,79,-56,-1,-1,0
1523610602641,-720896,79,-56,-1,-1,0
1523610602641,-589824,79,-56,-1,-1,0
1523610602641,-786432,79,-56,-1,-1,0
1523610602641,-1114112,79,-56,-1,-1,0
1523610602681,-1048576,79,-56,-1,-1,0
1523610602681,-917504,79,-56,-1,-1,0
1523610602681,-1048576,79,-56,-1,-1,0
1523610602681,-1114112,79,-56,-1,-1,0
1523610602681,-1114112,79,-56,-1,-1,0
1523610602721,-1245184,79,-56,-1,-1,0
1523610602721,-1114112,79,-56,-1,-1,0
1523610602721,-917504,79,-56,-1,-1,0
1523610602721,-720896,79,-56,-1,-1,0
1523610602721,-589824,79,-56,-1,-1,0
1523610602777,-917504,79,-56,-1,-1,0
1523610602777,-1245184,79,-56,-1,-1,0
1523610602777,-1376256,79,-56,-1,-1,0
1523610602777,-1310720,79,-56,-1,-1,0
1523610602777,-1245184,79,-56,-1,-1,0
1523610602801,-1245184,79,-56,-1,-1,0
1523610602801,-1179648,79,-56,-1,-1,0
1523610602801,-1179648,79,-56,-1,-1,0
1523610602801,-1048576,79,-56,-1,-1,0
1523610602801,-983040,79,-56,-1,-1,0
1523610602841,-327680,79,-56,-1,-1,0
1523610602841,1769472,79,-56,-1,-1,0
1523610602841,6619136,79,-56,-1,-1,0
1523610602841,11534336,79,-56,-1,-1,0
1523610602841,10027008,79,-56,-1,-1,0
1523610602881,3145728,79,-56,-1,-1,0
1523610602881,-1507328,79,-56,-1,-1,0
1523610602881,-1572864,79,-56,-1,-1,0
1523610602881,-851968,79,-56,-1,-1,0
1523610602881,-851968,79,-56,-1,-1,0
1523610602921,-917504,79,-56,-1,-1,0
1523610602921,-983040,79,-56,-1,-1,0
1523610602921,-851968,79,-56,-1,-1,0
1523610602921,-720896,79,-56,-1,-1,0
1523610602921,-458752,79,-56,-1,-1,0
1523610602961,-196608,79,-56,-1,-1,0
1523610602961,0,79,-56,-1,-1,0
1523610602961,0,79,-56,-1,-1,0
1523610602961,-262144,79,-56,-1,-1,0
1523610602961,-65536,79,-56,-1,-1,0
1523610603001,196608,79,-56,-1,-1,0
1523610603001,327680,79,-56,-1,-1,0
1523610603001,589824,79,-56,-1,-1,0
1523610603001,1048576,79,-56,-1,-1,0
1523610603001,1835008,79,-56,-1,-1,0
1523610603041,2162688,79,-56,-1,-1,0
1523610603041,2228224,79,-56,-1,-1,0
1523610603041,1900544,79,-56,-1,-1,0
1523610603041,1769472,79,-56,-1,-1,0
1523610603041,1835008,79,-56,-1,-1,0
1523610603081,1900544,79,-56,-1,-1,0
1523610603081,1703936,79,-56,-1,-1,0
1523610603081,1245184,79,-56,-1,-1,0
1523610603081,720896,79,-56,-1,-1,0
1523610603081,196608,79,-56,-1,-1,0
1523610603121,65536,79,-56,-1,-1,0
1523610603121,65536,79,-56,-1,-1,0
1523610603121,-327680,79,-56,-1,-1,0
1523610603121,-851968,79,-56,-1,-1,0
1523610603121,-1048576,79,-56,-1,-1,0
1523610603161,-1048576,79,-56,-1,-1,0
1523610603161,-1048576,79,-56,-1,-1,0
1523610603161,-917504,79,-56,-1,-1,0
1523610603161,-851968,79,-56,-1,-1,0
1523610603161,-720896,79,-56,-1,-1,0
1523610603201,-851968,79,-56,-1,-1,0
1523610603201,-720896,79,-56,-1,-1,0
1523610603201,-1048576,79,-56,-1,-1,0
1523610603201,-1245184,79,-56,-1,-1,0
1523610603201,-983040,79,-56,-1,-1,0
1523610603241,-917504,79,-56,-1,-1,0
1523610603241,-851968,79,-56,-1,-1,0
1523610603241,-786432,79,-56,-1,-1,0
1523610603241,-524288,79,-56,-1,-1,0
1523610603241,-655360,79,-56,-1,-1,0
1523610603281,-917504,79,-56,-1,-1,0
1523610603281,-1179648,79,-56,-1,-1,0
1523610603281,-1114112,79,-56,-1,-1,0
1523610603281,-1179648,79,-56,-1,-1,0
1523610603281,-1179648,79,-56,-1,-1,0
1523610603321,-1114112,79,-56,-1,-1,0
1523610603321,-983040,79,-56,-1,-1,0
1523610603321,-720896,79,-56,-1,-1,0
1523610603321,-851968,79,-56,-1,-1,0
1523610603321,-1310720,79,-56,-1,-1,0
1523610603361,-1703936,79,-56,-1,-1,0
1523610603361,-1769472,79,-56,-1,-1,0
1523610603361,-1638400,79,-56,-1,-1,0
1523610603361,-1507328,79,-56,-1,-1,0
1523610603361,-1507328,79,-56,-1,-1,0
1523610603417,-1507328,79,-56,-1,-1,0
1523610603417,-1572864,79,-56,-1,-1,0
1523610603417,-1507328,79,-56,-1,-1,0
1523610603417,-1572864,79,-56,-1,-1,0
1523610603417,-1638400,79,-56,-1,-1,0
1523610603441,-1769472,79,-56,-1,-1,0
1523610603441,-1703936,79,-56,-1,-1,0
1523610603441,-1310720,79,-56,-1,-1,0
1523610603441,-983040,79,-56,-1,-1,0
1523610603441,-1310720,79,-56,-1,-1,0
1523610603481,-1703936,79,-56,-1,-1,0
1523610603481,-1769472,79,-56,-1,-1,0
1523610603481,-1703936,79,-56,-1,-1,0
1523610603481,-1835008,79,-56,-1,-1,0
1523610603481,-2031616,79,-56,-1,-1,0
1523610603521,-2097152,79,-56,-1,-1,0
1523610603521,-2031616,79,-56,-1,-1,0
1523610603521,-1966080,79,-56,-1,-1,0
1523610603521,-1572864,79,-56,-1,-1,0
1523610603521,-1310720,79,-56,-1,-1,0
1523610603561,-786432,79,-56,-1,-1,0
1523610603561,589824,79,-56,-1,-1,0
1523610603561,4325376,79,-56,-1,-1,0
1523610603561,9633792,79,-56,-1,-1,0
1523610603561,11599872,79,-56,-1,-1,0
1523610603601,6750208,79,-56,-1,-1,0
1523610603601,458752,79,-56,-1,-1,0
1523610603601,-1376256,79,-56,-1,-1,0
1523610603601,-589824,79,-56,-1,-1,0
1523610603601,-262144,79,-56,-1,-1,0
1523610603641,-196608,79,-56,-1,-1,0
1523610603641,0,79,-56,-1,-1,0
1523610603641,65536,79,-56,-1,-1,0
1523610603641,131072,79,-56,-1,-1,0
1523610603641,262144,79,-56,-1,-1,0
1523610603681,393216,79,-56,-1,-1,0
1523610603681,393216,79,-56,-1,-1,0
1523610603681,458752,79,-56,-1,-1,0
1523610603681,786432,79,-56,-1,-1,0
1523610603681,1114112,79,-56,-1,-1,0
1523610603721,1114112,79,-56,-1,-1,0
1523610603721,1114112,79,-56,-1,-1,0
1523610603721,1441792,79,-56,-1,-1,0
1523610603721,1769472,79,-56,-1,-1,0
1523610603721,1966080,79,-56,-1,-1,0
1523610603761,2293760,79,-56,-1,-1,0
1523610603761,2490368,79,-56,-1,-1,0
1523610603761,2752512,79,-56,-1,-1,0
1523610603761,2752512,79,-56,-1,-1,0
1523610603761,2752512,79,-56,-1,-1,0
1523610603801,2818048,79,-56,-1,-1,0
1523610603801,2752512,79,-56,-1,-1,0
1523610603801,2228224,79,-56,-1,-1,0
1523610603801,1572864,79,-56,-1,-1,0
1523610603801,1114112,79,-56,-1,-1,0
1523610603841,786432,79,-56,-1,-1,0
1523610603841,458752,79,-56,-1,-1,0
1523610603841,0,79,-56,-1,-1,0
1523610603841,-196608,79,-56,-1,-1,0
1523610603841,-262144,79,-56,-1,-1,0
1523610603881,-327680,79,-56,-1,-1,0
1523610603881,-393216,79,-56,-1,-1,0
1523610603881,-393216,79,-56,-1,-1,0
1523610603881,-458752,79,-56,-1,-1,0
1523610603881,-458752,79,-56,-1,-1,0
1523610603921,0,79,-56,-1,-1,0
1523610603921,0,79,-56,-1,-1,0
1523610603921,-65536,79,-56,-1,-1,0
1523610603921,-327680,79,-56,-1,-1,0
1523610603921,0,79,-56,-1,-1,0
1523610603961,-65536,79,-56,-1,-1,0
1523610603961,-131072,79,-56,-1,-1,0
1523610603961,-262144,79,-56,-1,-1,0
1523610603961,-196608,79,-56,-1,-1,0
1523610603961,-131072,79,-56,-1,-1,0
1523610604001,-131072,79,-56,-1,-1,0
1523610604001,0,79,-56,-1,-1,0
1523610604001,-65536,79,-56,-1,-1,0
1523610604001,-262144,79,-56,-1,-1,0
1523610604001,-393216,79,-56,-1,-1,0
1523610604057,-458752,79,-56,-1,-1,0
1523610604057,-458752,79,-56,-1,-1,0
1523610604057,-262144,79,-56,-1,-1,0
1523610604057,-196608,79,-56,-1,-1,0
1523610604057,-196608,79,-56,-1,-1,0
1523610604081,-196608,79,-56,-1,-1,0
1523610604081,-262144,79,-56,-1,-1,0
1523610604081,-393216,79,-56,-1,-1,0
1523610604081,-393216,79,-56,-1,-1,0
1523610604081,-327680,79,-56,-1,-1,0
1523610604121,-65536,79,-56,-1,-1,0
1523610604121,-262144,79,-56,-1,-1,0
1523610604121,-458752,79,-56,-1,-1,0
1523610604121,-393216,79,-56,-1,-1,0
1523610604121,-196608,79,-56,-1,-1,0
1523610604161,-786432,79,-56,-1,-1,0
1523610604161,-1376256,79,-56,-1,-1,0
1523610604161,-786432,79,-56,-1,-1,0
1523610604161,-393216,79,-56,-1,-1,0
1523610604161,-393216,79,-56,-1,-1,0
1523610604202,-524288,79,-56,-1,-1,0
1523610604202,-458752,79,-56,-1,-1,0
1523610604202,-393216,79,-56,-1,-1,0
1523610604202,-131072,79,-56,-1,-1,0
1523610604202,-524288,79,-56,-1,-1,0
1523610604241,-851968,79,-56,-1,-1,0
1523610604241,-458752,79,-56,-1,-1,0
1523610604241,-327680,79,-56,-1,-1,0
1523610604241,-786432,79,-56,-1,-1,0
1523610604241,-851968,79,-56,-1,-1,0
1523610604281,196608,79,-56,-1,-1,0
1523610604281,3014656,79,-56,-1,-1,0
1523610604281,8388608,79,-56,-1,-1,0
1523610604281,13172736,79,-56,-1,-1,0
1523610604281,10944512,79,-56,-1,-1,0
1523610604321,3407872,79,-56,-1,-1,0
1523610604321,-1638400,79,-56,-1,-1,0
1523610604321,-1441792,79,-56,-1,-1,0
1523610604321,-327680,79,-56,-1,-1,0
1523610604321,-327680,79,-56,-1,-1,0
1523610604361,-393216,79,-56,-1,-1,0
1523610604361,-131072,79,-56,-1,-1,0
1523610604361,0,79,-56,-1,-1,0
1523610604361,-393216,79,-56,-1,-1,0
1523610604361,-393216,79,-56,-1,-1,0
1523610604401,-65536,79,-56,-1,-1,0
1523610604401,262144,79,-56,-1,-1,0
1523610604401,851968,79,-56,-1,-1,0
1523610604401,589824,79,-56,-1,-1,0
1523610604401,196608,79,-56,-1,-1,0
1523610604441,196608,79,-56,-1,-1,0
1523610604441,983040,79,-56,-1,-1,0
1523610604441,1114112,79,-56,-1,-1,0
1523610604441,1048576,79,-56,-1,-1,0
1523610604441,1310720,79,-56,-1,-1,0
1523610604481,2228224,79,-56,-1,-1,0
1523610604481,2359296,79,-56,-1,-1,0
1523610604481,2031616,79,-56,-1,-1,0
1523610604481,2162688,79,-56,-1,-1,0
1523610604481,2621440,79,-56,-1,-1,0
1523610604521,2031616,79,-56,-1,-1,0
1523610604521,1114112,79,-56,-1,-1,0
1523610604521,524288,79,-56,-1,-1,0
1523610604521,65536,79,-56,-1,-1,0
1523610604521,-196608,79,-56,-1,-1,0
1523610604561,-458752,79,-56,-1,-1,0
1523610604561,-524288,79,-56,-1,-1,0
1523610604561,-917504,79,-56,-1,-1,0
1523610604561,-1245184,79,-56,-1,-1,0
1523610604561,-1703936,79,-56,-1,-1,0
1523610604601,-1835008,79,-56,-1,-1,0
1523610604601,-1835008,79,-56,-1,-1,0
1523610604601,-1703936,79,-56,-1,-1,0
1523610604601,-1638400,79,-56,-1,-1,0
1523610604601,-1507328,79,-56,-1,-1,0
1523610604641,-1507328,79,-56,-1,-1,0
1523610604641,-1638400,79,-56,-1,-1,0
1523610604641,-1638400,79,-56,-1,-1,0
1523610604641,-1310720,79,-56,-1,-1,0
1523610604641,-1441792,79,-56,-1,-1,0
1523610604697,-1769472,79,-56,-1,-1,0
1523610604697,-1507328,79,-56,-1,-1,0
1523610604697,-1245184,79,-56,-1,-1,0
1523610604697,-1179648,79,-56,-1,-1,0
1523610604697,-1179648,79,-56,-1,-1,0
1523610604721,-917504,79,-56,-1,-1,0
1523610604721,-917504,79,-56,-1,-1,0
1523610604721,-1048576,79,-56,-1,-1,0
1523610604721,-1441792,79,-56,-1,-1,0
1523610604721,-1507328,79,-56,-1,-1,0
1523610604761,-1376256,79,-56,-1,-1,0
1523610604761,-1179648,79,-56,-1,-1,0
1523610604761,-1245184,79,-56,-1,-1,0
1523610604761,-1179648,79,-56,-1,-1,0
1523610604761,-1179648,79,-56,-1,-1,0
1523610604801,-1114112,79,-56,-1,-1,0
1523610604801,-1310720,79,-56,-1,-1,0
1523610604801,-1245184,79,-56,-1,-1,0
1523610604801,-1245184,79,-56,-1,-1,0
1523610604801,-1179648,79,-56,-1,-1,0
1523610604841,-1376256,79,-56,-1,-1,0
1523610604841,-1310720,79,-56,-1,-1,0
1523610604841,-1114112,79,-56,-1,-1,0
1523610604841,-917504,79,-56,-1,-1,0
1523610604841,-1048576,79,-56,-1,-1,0
1523610604881,-1245184,79,-56,-1,-1,0
1523610604881,-1179648,79,-56,-1,-1,0
1523610604881,-983040,79,-56,-1,-1,0
1523610604881,-983040,79,-56,-1,-1,0
1523610604881,-1310720,79,-56,-1,-1,0
1523610604921,-1376256,79,-56,-1,-1,0
1523610604921,-1376256,79,-56,-1,-1,0
1523610604921,-1507328,79,-56,-1,-1,0
1523610604921,-1441792,79,-56,-1,-1,0
1523610604921,-1245184,79,-56,-1,-1,0
1523610604961,-786432,79,-56,-1,-1,0
1523610604961,1048576,79,-56,-1,-1,0
1523610604961,5636096,79,-56,-1,-1,0
1523610604961,11141120,79,-56,-1,-1,0
1523610604961,10878976,79,-56,-1,-1,0
1523610605001,4194304,79,-56,-1,-1,0
1523610605001,-1245184,79,-56,-1,-1,0
1523610605001,-1835008,79,-56,-1,-1,0
1523610605001,-1048576,79,-56,-1,-1,0
1523610605001,-983040,79,-56,-1,-1,0
1523610605041,-851968,79,-56,-1,-1,0
1523610605041,-983040,79,-56,-1,-1,0
1523610605041,-983040,79,-56,-1,-1,0
1523610605041,-786432,79,-56,-1,-1,0
1523610605041,-655360,79,-56,-1,-1,0
1523610605081,-524288,79,-56,-1,-1,0
1523610605081,-196608,79,-56,-1,-1,0
1523610605081,131072,79,-56,-1,-1,0
1523610605081,131072,79,-56,-1,-1,0
1523610605081,0,79,-56,-1,-1,0
1523610605121,0,79,-56,-1,-1,0
1523610605121,589824,79,-56,-1,-1,0
1523610605121,851968,79,-56,-1,-1,0
1523610605121,1048576,79,-56,-1,-1,0
1523610605121,1245184,79,-56,-1,-1,0
1523610605161,1769472,79,-56,-1,-1,0
1523610605161,2162688,79,-56,-1,-1,0
1523610605161,2490368,79,-56,-1,-1,0
1523610605161,2359296,79,-56,-1,-1,0
1523610605161,2228224,79,-56,-1,-1,0
1523610605201,2293760,79,-56,-1,-1,0
1523610605201,1900544,79,-56,-1,-1,0
1523610605201,1114112,79,-56,-1,-1,0
1523610605201,589824,79,-56,-1,-1,0
1523610605201,196608,79,-56,-1,-1,0
1523610605241,-262144,79,-56,-1,-1,0
1523610605241,-524288,79,-56,-1,-1,0
1523610605241,-851968,79,-56,-1,-1,0
1523610605241,-1179648,79,-56,-1,-1,0
1523610605241,-1376256,79,-56,-1,-1,0
1523610605281,-1310720,79,-56,-1,-1,0
1523610605281,-1179648,79,-56,-1,-1,0
1523610605281,-1179648,79,-56,-1,-1,0
1523610605281,-1114112,79,-56,-1,-1,0
1523610605281,-1048576,79,-56,-1,-1,0
1523610605337,-917504,79,-56,-1,-1,0
1523610605337,-983040,79,-56,-1,-1,0
1523610605337,-917504,79,-56,-1,-1,0
1523610605337,-720896,79,-56,-1,-1,0
1523610605337,-262144,79,-56,-1,-1,0
1523610605361,-393216,79,-56,-1,-1,0
1523610605361,-786432,79,-56,-1,-1,0
1523610605361,-786432,79,-56,-1,-1,0
1523610605361,-327680,79,-56,-1,-1,0
1523610605361,-196608,79,-56,-1,-1,0
1523610605401,-65536,79,-56,-1,-1,0
1523610605401,-196608,79,-56,-1,-1,0
1523610605401,-655360,79,-56,-1,-1,0
1523610605401,-786432,79,-56,-1,-1,0
1523610605401,-851968,79,-56,-1,-1,0
1523610605441,-786432,79,-56,-1,-1,0
1523610605441,-917504,79,-56,-1,-1,0
1523610605441,-720896,79,-56,-1,-1,0
1523610605441,-524288,79,-56,-1,-1,0
1523610605441,-524288,79,-56,-1,-1,0
1523610605481,-917504,79,-56,-1,-1,0
1523610605481,-1114112,79,-56,-1,-1,0
1523610605481,-851968,79,-56,-1,-1,0
1523610605481,-327680,79,-56,-1,-1,0
1523610605481,-458752,79,-56,-1,-1,0
1523610605521,-655360,79,-56,-1,-1,0
1523610605521,-720896,79,-56,-1,-1,0
1523610605521,-655360,79,-56,-1,-1,0
1523610605521,-786432,79,-56,-1,-1,0
1523610605521,-983040,79,-56,-1,-1,0
1523610605561,-1310720,79,-56,-1,-1,0
1523610605561,-1114112,79,-56,-1,-1,0
1523610605561,-655360,79,-56,-1,-1,0
1523610605561,-589824,79,-56,-1,-1,0
1523610605561,-589824,79,-56,-1,-1,0
1523610605601,-589824,79,-56,-1,-1,0
1523610605601,-655360,79,-56,-1,-1,0
1523610605601,-720896,79,-56,-1,-1,0
1523610605601,-720896,79,-56,-1,-1,0
1523610605601,-655360,79,-56,-1,-1,0
1523610605640,-655360,79,-56,-1,-1,0
1523610605640,-851968,79,-56,-1,-1,0
1523610605640,-1179648,79,-56,-1,-1,0
1523610605640,-1179648,79,-56,-1,-1,0
1523610605640,-851968,79,-56,-1,-1,0
1523610605680,524288,79,-56,-1,-1,0
1523610605680,4390912,79,-56,-1,-1,0
1523610605680,10551296,79,-56,-1,-1,0
1523610605680,13565952,79,-56,-1,-1,0
1523610605680,8585216,79,-56,-1,-1,0
1523610605720,983040,80,-56,-1,-1,0
1523610605720,-1703936,80,-56,-1,-1,0
1523610605720,-1310720,80,-56,-1,-1,0
1523610605720,-1245184,80,-56,-1,-1,0
1523610605720,-1048576,80,-56,-1,-1,0
1523610605760,-720896,80,-56,-1,-1,0
1523610605760,-917504,80,-56,-1,-1,0
1523610605760,-917504,80,-56,-1,-1,0
1523610605760,-851968,80,-56,-1,-1,0
1523610605760,-786432,80,-56,-1,-1,0
1523610605800,-786432,80,-56,-1,-1,0
1523610605800,-786432,80,-56,-1,-1,0
1523610605800,-458752,80,-56,-1,-1,0
1523610605800,-262144,80,-56,-1,-1,0
1523610605800,-65536,80,-56,-1,-1,0
1523610605840,262144,80,-56,-1,-1,0
1523610605840,655360,80,-56,-1,-1,0
1523610605840,524288,80,-56,-1,-1,0
1523610605840,458752,80,-56,-1,-1,0
1523610605840,851968,80,-56,-1,-1,0
1523610605880,1441792,80,-56,-1,-1,0
1523610605880,1900544,80,-56,-1,-1,0
1523610605880,1966080,80,-56,-1,-1,0
1523610605880,1900544,80,-56,-1,-1,0
1523610605880,1835008,80,-56,-1,-1,0
1523610605920,1769472,80,-56,-1,-1,0
1523610605920,1507328,80,-56,-1,-1,0
1523610605920,1179648,80,-56,-1,-1,0
1523610605920,458752,80,-56,-1,-1,0
1523610605920,-458752,80,-56,-1,-1,0
1523610605977,-983040,80,-56,-1,-1,0
1523610605977,-917504,80,-56,-1,-1,0
1523610605977,-655360,80,-56,-1,-1,0
1523610605977,-786432,80,-56,-1,-1,0
1523610605977,-1179648,80,-56,-1,-1,0
1523610606000,-1507328,80,-56,-1,-1,0
1523610606000,-1310720,80,-56,-1,-1,0
1523610606000,-1310720,80,-56,-1,-1,0
1523610606000,-1376256,80,-56,-1,-1,0
1523610606000,-1310720,80,-56,-1,-1,0
1523610606040,-1245184,80,-56,-1,-1,0
1523610606040,-1179648,80,-56,-1,-1,0
1523610606040,-1114112,80,-56,-1,-1,0
1523610606040,-1114112,80,-56,-1,-1,0
1523610606040,-1114112,80,-56,-1,-1,0
1523610606080,-983040,80,-56,-1,-1,0
1523610606080,-851968,80,-56,-1,-1,0
1523610606080,-917504,80,-56,-1,-1,0
1523610606080,-917504,80,-56,-1,-1,0
1523610606080,-786432,80,-56,-1,-1,0
1523610606120,-786432,80,-56,-1,-1,0
1523610606120,-786432,80,-56,-1,-1,0
1523610606120,-720896,80,-56,-1,-1,0
1523610606120,-589824,80,-56,-1,-1,0
1523610606120,-524288,80,-56,-1,-1,0
1523610606160,-589824,80,-56,-1,-1,0
1523610606160,-524288,80,-56,-1,-1,0
1523610606160,-524288,80,-56,-1,-1,0
1523610606160,-655360,80,-56,-1,-1,0
1523610606160,-655360,80,-56,-1,-1,0
1523610606200,-524288,80,-56,-1,-1,0
1523610606200,-458752,80,-56,-1,-1,0
1523610606200,-393216,80,-56,-1,-1,0
1523610606200,-327680,80,-56,-1,-1,0
1523610606200,-524288,80,-56,-1,-1,0
1523610606240,-655360,80,-56,-1,-1,0
1523610606240,-589824,80,-56,-1,-1,0
1523610606240,-589824,80,-56,-1,-1,0
1523610606240,-655360,80,-56,-1,-1,0
1523610606240,-786432,80,-56,-1,-1,0
1523610606280,-917504,80,-56,-1,-1,0
1523610606280,-983040,80,-56,-1,-1,0
1523610606280,-983040,80,-56,-1,-1,0
1523610606280,-917504,80,-56,-1,-1,0
1523610606280,-655360,80,-56,-1,-1,0
1523610606320,-393216,80,-56,-1,-1,0
1523610606320,-327680,80,-56,-1,-1,0
1523610606320,-327680,80,-56,-1,-1,0
1523610606320,-458752,80,-56,-1,-1,0
1523610606320,-589824,80,-56,-1,-1,0
1523610606360,-655360,80,-56,-1,-1,0
1523610606360,-589824,80,-56,-1,-1,0
1523610606360,-524288,80,-56,-1,-1,0
1523610606360,-589824,80,-56,-1,-1,0
1523610606360,-655360,80,-56,-1,-1,0
1523610606400,-720896,80,-56,-1,-1,0
1523610606400,-524288,80,-56,-1,-1,0
1523610606400,-327680,80,-56,-1,-1,0
1523610606400,131072,80,-56,-1,-1,0
1523610606400,2097152,80,-56,-1,-1,0
1523610606440,6356992,80,-56,-1,-1,0
1523610606440,10944512,80,-56,-1,-1,0
1523610606440,10354688,80,-56,-1,-1,0
1523610606440,4390912,80,-56,-1,-1,0
1523610606440,-393216,80,-56,-1,-1,0
1523610606480,-983040,80,-56,-1,-1,0
1523610606480,-393216,80,-56,-1,-1,0
1523610606480,-327680,80,-56,-1,-1,0
1523610606480,-262144,80,-56,-1,-1,0
1523610606480,-65536,80,-56,-1,-1,0
1523610606520,0,80,-56,-1,-1,0
1523610606520,65536,80,-56,-1,-1,0
1523610606520,65536,80,-56,-1,-1,0
1523610606520,0,80,-56,-1,-1,0
1523610606520,-65536,80,-56,-1,-1,0
1523610606560,0,80,-56,-1,-1,0
1523610606560,196608,80,-56,-1,-1,0
1523610606560,393216,80,-56,-1,-1,0
1523610606560,589824,80,-56,-1,-1,0
1523610606560,655360,80,-56,-1,-1,0
1523610606617,720896,80,-56,-1,-1,0
1523610606617,1048576,80,-56,-1,-1,0
1523610606617,1507328,80,-56,-1,-1,0
1523610606617,1835008,80,-56,-1,-1,0
1523610606617,2031616,80,-56,-1,-1,0
1523610606640,2228224,80,-56,-1,-1,0
1523610606640,2293760,80,-56,-1,-1,0
1523610606640,2359296,80,-56,-1,-1,0
1523610606640,2293760,80,-56,-1,-1,0
1523610606640,1966080,80,-56,-1,-1,0
1523610606680,1507328,80,-56,-1,-1,0
1523610606680,1048576,80,-56,-1,-1,0
1523610606680,458752,80,-56,-1,-1,0
1523610606680,0,80,-56,-1,-1,0
1523610606680,-262144,80,-56,-1,-1,0
1523610606720,-327680,80,-56,-1,-1,0
1523610606720,-393216,80,-56,-1,-1,0
1523610606720,-327680,80,-56,-1,-1,0
1523610606720,-262144,80,-56,-1,-1,0
1523610606720,-327680,80,-56,-1,-1,0
1523610606760,-327680,80,-56,-1,-1,0
1523610606760,-196608,80,-56,-1,-1,0
1523610606760,-327680,80,-56,-1,-1,0
1523610606760,-524288,80,-56,-1,-1,0
1523610606760,-720896,80,-56,-1,-1,0
1523610606800,-589824,80,-56,-1,-1,0
1523610606800,-393216,80,-56,-1,-1,0
1523610606800,-196608,80,-56,-1,-1,0
1523610606800,-196608,80,-56,-1,-1,0
1523610606800,-327680,80,-56,-1,-1,0
1523610606840,-720896,80,-56,-1,-1,0
1523610606840,-1048576,80,-56,-1,-1,0
1523610606840,-983040,80,-56,-1,-1,0
1523610606840,-720896,80,-56,-1,-1,0
1523610606840,-327680,80,-56,-1,-1,0
1523610606880,-458752,80,-56,-1,-1,0
1523610606880,-851968,80,-56,-1,-1,0
1523610606880,-917504,80,-56,-1,-1,0
1523610606880,-655360,80,-56,-1,-1,0
1523610606880,-720896,80,-56,-1,-1,0
1523610606920,-917504,80,-56,-1,-1,0
1523610606920,-1048576,80,-56,-1,-1,0
1523610606920,-1048576,80,-56,-1,-1,0
1523610606920,-1048576,80,-56,-1,-1,0
1523610606920,-983040,80,-56,-1,-1,0
1523610606960,-983040,80,-56,-1,-1,0
1523610606960,-1048576,80,-56,-1,-1,0
1523610606960,-1048576,80,-56,-1,-1,0
1523610606960,-917504,80,-56,-1,-1,0
1523610606960,-917504,80,-56,-1,-1,0
1523610607000,-786432,80,-56,-1,-1,0
1523610607000,-589824,80,-56,-1,-1,0
1523610607000,-524288,80,-56,-1,-1,0
1523610607000,-720896,80,-56,-1,-1,0
1523610607000,-983040,80,-56,-1,-1,0
1523610607040,-1114112,80,-56,-1,-1,0
1523610607040,-1114112,80,-56,-1,-1,0
1523610607040,-1114112,80,-56,-1,-1,0
1523610607040,-1179648,80,-56,-1,-1,0
1523610607040,-1179648,80,-56,-1,-1,0
1523610607080,-983040,80,-56,-1,-1,0
1523610607080,-720896,80,-56,-1,-1,0
1523610607080,-589824,80,-56,-1,-1,0
1523610607080,-589824,80,-56,-1,-1,0
1523610607080,-786432,80,-56,-1,-1,0
1523610607120,-917504,80,-56,-1,-1,0
1523610607120,-983040,80,-56,-1,-1,0
1523610607120,-1048576,80,-56,-1,-1,0
1523610607120,-983040,80,-56,-1,-1,0
1523610607120,-1048576,80,-56,-1,-1,0
1523610607160,-1114112,80,-56,-1,-1,0
1523610607160,-1048576,80,-56,-1,-1,0
1523610607160,-917504,80,-56,-1,-1,0
1523610607160,-524288,80,-56,-1,-1,0
1523610607160,589824,80,-56,-1,-1,0
1523610607200,3407872,80,-56,-1,-1,0
1523610607200,8257536,80,-56,-1,-1,0
1523610607200,10878976,80,-56,-1,-1,0
1523610607200,7077888,80,-56,-1,-1,0
1523610607200,720896,80,-56,-1,-1,0
1523610607257,-1900544,80,-56,-1,-1,0
1523610607257,-1441792,80,-56,-1,-1,0
1523610607257,-917504,80,-56,-1,-1,0
1523610607257,-655360,80,-56,-1,-1,0
1523610607257,-393216,80,-56,-1,-1,0
1523610607280,-327680,80,-56,-1,-1,0
1523610607280,-327680,80,-56,-1,-1,0
1523610607280,-196608,80,-56,-1,-1,0
1523610607280,-131072,80,-56,-1,-1,0
1523610607280,0,80,-56,-1,-1,0
1523610607320,0,80,-56,-1,-1,0
1523610607320,0,80,-56,-1,-1,0
1523610607320,0,80,-56,-1,-1,0
1523610607320,196608,80,-56,-1,-1,0
1523610607320,393216,80,-56,-1,-1,0
1523610607360,524288,80,-56,-1,-1,0
1523610607360,851968,80,-56,-1,-1,0
1523610607360,1310720,80,-56,-1,-1,0
1523610607360,1703936,80,-56,-1,-1,0
1523610607360,1900544,80,-56,-1,-1,0
1523610607400,2162688,80,-56,-1,-1,0
1523610607400,2293760,80,-56,-1,-1,0
1523610607400,2162688,80,-56,-1,-1,0
1523610607400,1966080,80,-56,-1,-1,0
1523610607400,1900544,80,-56,-1,-1,0
1523610607440,1638400,80,-56,-1,-1,0
1523610607440,1114112,80,-56,-1,-1,0
1523610607440,589824,80,-56,-1,-1,0
1523610607440,327680,80,-56,-1,-1,0
1523610607440,196608,80,-56,-1,-1,0
1523610607480,0,80,-56,-1,-1,0
1523610607480,-131072,80,-56,-1,-1,0
1523610607480,-524288,80,-56,-1,-1,0
1523610607480,-851968,80,-56,-1,-1,0
1523610607480,-851968,80,-56,-1,-1,0
1523610607520,-720896,80,-56,-1,-1,0
1523610607520,-720896,80,-56,-1,-1,0
1523610607520,-720896,80,-56,-1,-1,0
1523610607520,-589824,80,-56,-1,-1,0
1523610607520,-458752,80,-56,-1,-1,0
1523610607560,-458752,80,-56,-1,-1,0
1523610607560,-524288,80,-56,-1,-1,0
1523610607560,-458752,80,-56,-1,-1,0
1523610607560,-393216,80,-56,-1,-1,0
1523610607560,-393216,80,-56,-1,-1,0
1523610607601,-458752,80,-56,-1,-1,0
1523610607601,-655360,80,-56,-1,-1,0
1523610607601,-786432,80,-56,-1,-1,0
1523610607601,-786432,80,-56,-1,-1,0
1523610607601,-524288,80,-56,-1,-1,0
1523610607640,-196608,80,-56,-1,-1,0
1523610607640,-262144,80,-56,-1,-1,0
1523610607640,-589824,80,-56,-1,-1,0
1523610607640,-720896,80,-56,-1,-1,0
1523610607640,-851968,80,-56,-1,-1,0
1523610607680,-786432,80,-56,-1,-1,0
1523610607680,-786432,80,-56,-1,-1,0
1523610607680,-786432,80,-56,-1,-1,0
1523610607680,-786432,80,-56,-1,-1,0
1523610607680,-786432,80,-56,-1,-1,0
1523610607720,-786432,80,-56,-1,-1,0
1523610607720,-786432,80,-56,-1,-1,0
1523610607720,-917504,80,-56,-1,-1,0
1523610607720,-983040,80,-56,-1,-1,0
1523610607720,-983040,80,-56,-1,-1,0
1523610607760,-851968,80,-56,-1,-1,0
1523610607760,-917504,80,-56,-1,-1,0
1523610607760,-983040,80,-56,-1,-1,0
1523610607760,-917504,80,-56,-1,-1,0
1523610607760,-786432,80,-56,-1,-1,0
1523610607800,-589824,80,-56,-1,-1,0
1523610607800,-393216,80,-56,-1,-1,0
1523610607800,-458752,80,-56,-1,-1,0
1523610607800,-589824,80,-56,-1,-1,0
1523610607800,-655360,80,-56,-1,-1,0
1523610607840,-720896,80,-56,-1,-1,0
1523610607840,-786432,80,-56,-1,-1,0
1523610607840,-786432,80,-56,-1,-1,0
1523610607840,-720896,80,-56,-1,-1,0
1523610607840,-655360,80,-56,-1,-1,0
1523610607897,-655360,80,-56,-1,-1,0
1523610607897,-720896,80,-56,-1,-1,0
1523610607897,-720896,80,-56,-1,-1,0
1523610607897,-65536,80,-56,-1,-1,0
1523610607897,2228224,80,-56,-1,-1,0
1523610607920,6750208,81,-56,-1,-1,0
1523610607920,10813440,81,-56,-1,-1,0
1523610607920,8912896,81,-56,-1,-1,0
1523610607920,2621440,81,-56,-1,-1,0
1523610607920,-1376256,81,-56,-1,-1,0
1523610607960,-1441792,81,-56,-1,-1,0
1523610607960,-720896,81,-56,-1,-1,0
1523610607960,-655360,81,-56,-1,-1,0
1523610607960,-524288,81,-56,-1,-1,0
1523610607960,-458752,81,-56,-1,-1,0
1523610608000,-393216,81,-56,-1,-1,0
1523610608000,-393216,81,-56,-1,-1,0
1523610608000,-327680,81,-56,-1,-1,0
1523610608000,-262144,81,-56,-1,-1,0
1523610608000,-131072,81,-56,-1,-1,0
1523610608040,-65536,81,-56,-1,-1,0
1523610608040,0,81,-56,-1,-1,0
1523610608040,131072,81,-56,-1,-1,0
1523610608040,262144,81,-56,-1,-1,0
1523610608040,327680,81,-56,-1,-1,0
1523610608080,524288,81,-56,-1,-1,0
1523610608080,720896,81,-56,-1,-1,0
1523610608080,983040,81,-56,-1,-1,0
1523610608080,1310720,81,-56,-1,-1,0
1523610608080,1507328,81,-56,-1,-1,0
1523610608120,1638400,81,-56,-1,-1,0
1523610608120,1638400,81,-56,-1,-1,0
1523610608120,1638400,81,-56,-1,-1,0
1523610608120,1441792,81,-56,-1,-1,0
1523610608120,1114112,81,-56,-1,-1,0
1523610608160,720896,81,-56,-1,-1,0
1523610608160,262144,81,-56,-1,-1,0
1523610608160,-196608,81,-56,-1,-1,0
1523610608160,-524288,81,-56,-1,-1,0
1523610608160,-786432,81,-56,-1,-1,0
1523610608200,-917504,81,-56,-1,-1,0
1523610608200,-983040,81,-56,-1,-1,0
1523610608200,-1048576,81,-56,-1,-1,0
1523610608200,-1114112,81,-56,-1,-1,0
1523610608200,-1114112,81,-56,-1,-1,0
1523610608240,-1179648,81,-56,-1,-1,0
1523610608240,-1179648,81,-56,-1,-1,0
1523610608240,-1114112,81,-56,-1,-1,0
1523610608240,-1114112,81,-56,-1,-1,0
1523610608240,-1048576,81,-56,-1,-1,0
1523610608280,-983040,81,-56,-1,-1,0
1523610608280,-917504,81,-56,-1,-1,0
1523610608280,-917504,81,-56,-1,-1,0
1523610608280,-851968,81,-56,-1,-1,0
1523610608280,-851968,81,-56,-1,-1,0
1523610608320,-851968,81,-56,-1,-1,0
1523610608320,-917504,81,-56,-1,-1,0
1523610608320,-983040,81,-56,-1,-1,0
1523610608320,-1114112,81,-56,-1,-1,0
1523610608320,-1114112,81,-56,-1,-1,0
1523610608360,-1245184,81,-56,-1,-1,0
1523610608360,-1245184,81,-56,-1,-1,0
1523610608360,-1245184,81,-56,-1,-1,0
1523610608360,-1179648,81,-56,-1,-1,0
1523610608360,-1245184,81,-56,-1,-1,0
1523610608400,-1310720,81,-56,-1,-1,0
1523610608400,-1310720,81,-56,-1,-1,0
1523610608400,-1376256,81,-56,-1,-1,0
1523610608400,-1376256,81,-56,-1,-1,0
1523610608400,-1441792,81,-56,-1,-1,0
1523610608440,-1507328,81,-56,-1,-1,0
1523610608440,-1507328,81,-56,-1,-1,0
1523610608440,-1507328,81,-56,-1,-1,0
1523610608440,-1507328,81,-56,-1,-1,0
1523610608440,-1441792,81,-56,-1,-1,0
1523610608480,-1441792,81,-56,-1,-1,0
1523610608480,-1507328,81,-56,-1,-1,0
1523610608480,-1638400,81,-56,-1,-1,0
1523610608480,-1638400,81,-56,-1,-1,0
1523610608480,-1572864,81,-56,-1,-1,0
1523610608537,-1572864,81,-56,-1,-1,0
1523610608537,-1441792,81,-56,-1,-1,0
1523610608537,-1179648,81,-56,-1,-1,0
1523610608537,-1048576,81,-56,-1,-1,0
1523610608537,-1114112,81,-56,-1,-1,0
1523610608560,-1245184,81,-56,-1,-1,0
1523610608560,-1310720,81,-56,-1,-1,0
1523610608560,-1441792,81,-56,-1,-1,0
1523610608560,-1376256,81,-56,-1,-1,0
1523610608560,-1310720,81,-56,-1,-1,0
1523610608600,-1179648,81,-56,-1,-1,0
1523610608600,-1048576,81,-56,-1,-1,0
1523610608600,-1048576,81,-56,-1,-1,0
1523610608600,-1114112,81,-56,-1,-1,0
1523610608600,-1114112,81,-56,-1,-1,0
1523610608640,-786432,81,-56,-1,-1,0
1523610608640,720896,81,-56,-1,-1,0
1523610608640,4390912,81,-56,-1,-1,0
1523610608640,9502720,81,-56,-1,-1,0
1523610608640,10485760,81,-56,-1,-1,0
1523610608680,5373952,81,-56,-1,-1,0
1523610608680,-196608,81,-56,-1,-1,0
1523610608680,-1441792,81,-56,-1,-1,0
1523610608680,-851968,81,-56,-1,-1,0
1523610608680,-720896,81,-56,-1,-1,0
1523610608722,-720896,81,-56,-1,-1,0
1523610608722,-655360,81,-56,-1,-1,0
1523610608722,-720896,81,-56,-1,-1,0
1523610608722,-720896,81,-56,-1,-1,0
1523610608722,-655360,81,-56,-1,-1,0
1523610608760,-655360,81,-56,-1,-1,0
1523610608760,-589824,81,-56,-1,-1,0
1523610608760,-524288,81,-56,-1,-1,0
1523610608760,-393216,81,-56,-1,-1,0
1523610608760,-262144,81,-56,-1,-1,0
1523610608800,-131072,81,-56,-1,-1,0
1523610608800,0,81,-56,-1,-1,0
1523610608800,262144,81,-56,-1,-1,0
1523610608800,589824,81,-56,-1,-1,0
1523610608800,851968,81,-56,-1,-1,0
1523610608840,1179648,81,-56,-1,-1,0
1523610608840,1441792,81,-56,-1,-1,0
1523610608840,1703936,81,-56,-1,-1,0
1523610608840,1769472,81,-56,-1,-1,0
1523610608840,1900544,81,-56,-1,-1,0
1523610608880,1900544,81,-56,-1,-1,0
1523610608880,1835008,81,-56,-1,-1,0
1523610608880,1638400,81,-56,-1,-1,0
1523610608880,1245184,81,-56,-1,-1,0
1523610608880,786432,81,-56,-1,-1,0
1523610608920,327680,81,-56,-1,-1,0
1523610608920,0,81,-56,-1,-1,0
1523610608920,-131072,81,-56,-1,-1,0
1523610608920,-131072,81,-56,-1,-1,0
1523610608920,0,81,-56,-1,-1,0
1523610608960,-65536,81,-56,-1,-1,0
1523610608960,-196608,81,-56,-1,-1,0
1523610608960,-262144,81,-56,-1,-1,0
1523610608960,-327680,81,-56,-1,-1,0
1523610608960,-327680,81,-56,-1,-1,0
1523610609000,-393216,81,-56,-1,-1,0
1523610609000,-458752,81,-56,-1,-1,0
1523610609000,-589824,81,-56,-1,-1,0
1523610609000,-524288,81,-56,-1,-1,0
1523610609000,-327680,81,-56,-1,-1,0
1523610609040,-131072,81,-56,-1,-1,0
1523610609040,-196608,81,-56,-1,-1,0
1523610609040,-393216,81,-56,-1,-1,0
1523610609040,-524288,81,-56,-1,-1,0
1523610609040,-589824,81,-56,-1,-1,0
1523610609080,-655360,81,-56,-1,-1,0
1523610609080,-720896,81,-56,-1,-1,0
1523610609080,-786432,81,-56,-1,-1,0
1523610609080,-917504,81,-56,-1,-1,0
1523610609080,-983040,81,-56,-1,-1,0
1523610609120,-917504,81,-56,-1,-1,0
1523610609120,-786432,81,-56,-1,-1,0
1523610609120,-917504,81,-56,-1,-1,0
1523610609120,-1114112,81,-56,-1,-1,0
1523610609120,-1048576,81,-56,-1,-1,0
1523610609178,-983040,81,-56,-1,-1,0
1523610609178,-1048576,81,-56,-1,-1,0
1523610609178,-1114112,81,-56,-1,-1,0
1523610609178,-1179648,81,-56,-1,-1,0
1523610609178,-1179648,81,-56,-1,-1,0
1523610609200,-1179648,81,-56,-1,-1,0
1523610609200,-1245184,81,-56,-1,-1,0
1523610609200,-1310720,81,-56,-1,-1,0
1523610609200,-1310720,81,-56,-1,-1,0
1523610609200,-1179648,81,-56,-1,-1,0
1523610609240,-1048576,81,-56,-1,-1,0
1523610609240,-851968,81,-56,-1,-1,0
1523610609240,-720896,81,-56,-1,-1,0
1523610609240,-786432,81,-56,-1,-1,0
1523610609240,-851968,81,-56,-1,-1,0
1523610609280,-851968,81,-56,-1,-1,0
1523610609280,-786432,81,-56,-1,-1,0
1523610609280,-720896,81,-56,-1,-1,0
1523610609280,-786432,81,-56,-1,-1,0
1523610609280,-917504,81,-56,-1,-1,0
1523610609320,-983040,82,-56,-1,-1,0
1523610609320,-983040,82,-56,-1,-1,0
1523610609320,-983040,82,-56,-1,-1,0
1523610609320,-917504,82,-56,-1,-1,0
1523610609320,-524288,82,-56,-1,-1,0
1523610609360,1179648,82,-56,-1,-1,0
1523610609360,5111808,82,-56,-1,-1,0
1523610609360,9699328,82,-56,-1,-1,0
1523610609360,9633792,82,-56,-1,-1,0
1523610609360,4128768,82,-56,-1,-1,0
1523610609400,-720896,82,-56,-1,-1,0
1523610609400,-1441792,82,-56,-1,-1,0
1523610609400,-851968,82,-56,-1,-1,0
1523610609400,-851968,82,-56,-1,-1,0
1523610609400,-786432,82,-56,-1,-1,0
1523610609440,-720896,82,-56,-1,-1,0
1523610609440,-589824,82,-56,-1,-1,0
1523610609440,-589824,82,-56,-1,-1,0
1523610609440,-458752,82,-56,-1,-1,0
1523610609440,-327680,82,-56,-1,-1,0
1523610609480,-262144,82,-56,-1,-1,0
1523610609480,-196608,82,-56,-1,-1,0
1523610609480,0,82,-56,-1,-1,0
1523610609480,65536,82,-56,-1,-1,0
1523610609480,131072,82,-56,-1,-1,0
1523610609520,262144,82,-56,-1,-1,0
1523610609520,524288,82,-56,-1,-1,0
1523610609520,720896,82,-56,-1,-1,0
1523610609520,917504,82,-56,-1,-1,0
1523610609520,1245184,82,-56,-1,-1,0
1523610609560,1572864,82,-56,-1,-1,0
1523610609560,1703936,82,-56,-1,-1,0
1523610609560,1769472,82,-56,-1,-1,0
1523610609560,1835008,82,-56,-1,-1,0
1523610609560,1769472,82,-56,-1,-1,0
1523610609600,1638400,82,-56,-1,-1,0
1523610609600,1245184,82,-56,-1,-1,0
1523610609600,786432,82,-56,-1,-1,0
1523610609600,327680,82,-56,-1,-1,0
1523610609600,-65536,82,-56,-1,-1,0
1523610609640,-327680,82,-56,-1,-1,0
1523610609640,-393216,82,-56,-1,-1,0
1523610609640,-524288,82,-56,-1,-1,0
1523610609640,-655360,82,-56,-1,-1,0
1523610609640,-720896,82,-56,-1,-1,0
1523610609680,-720896,82,-56,-1,-1,0
1523610609680,-655360,82,-56,-1,-1,0
1523610609680,-589824,82,-56,-1,-1,0
1523610609680,-655360,82,-56,-1,-1,0
1523610609680,-720896,82,-56,-1,-1,0
1523610609720,-655360,82,-56,-1,-1,0
1523610609720,-655360,82,-56,-1,-1,0
1523610609720,-655360,82,-56,-1,-1,0
1523610609720,-589824,82,-56,-1,-1,0
1523610609720,-524288,82,-56,-1,-1,0
1523610609760,-458752,82,-56,-1,-1,0
1523610609760,-524288,82,-56,-1,-1,0
1523610609760,-589824,82,-56,-1,-1,0
1523610609760,-655360,82,-56,-1,-1,0
1523610609760,-720896,82,-56,-1,-1,0
1523610609816,-720896,82,-56,-1,-1,0
1523610609816,-589824,82,-56,-1,-1,0
1523610609816,-589824,82,-56,-1,-1,0
1523610609816,-720896,82,-56,-1,-1,0
1523610609816,-786432,82,-56,-1,-1,0
1523610609840,-786432,82,-56,-1,-1,0
1523610609840,-720896,82,-56,-1,-1,0
1523610609840,-720896,82,-56,-1,-1,0
1523610609840,-786432,82,-56,-1,-1,0
1523610609840,-851968,82,-56,-1,-1,0
1523610609880,-917504,82,-56,-1,-1,0
1523610609880,-983040,82,-56,-1,-1,0
1523610609880,-917504,82,-56,-1,-1,0
1523610609880,-786432,82,-56,-1,-1,0
1523610609880,-786432,82,-56,-1,-1,0
1523610609920,-786432,82,-56,-1,-1,0
1523610609920,-589824,82,-56,-1,-1,0
1523610609920,-327680,82,-56,-1,-1,0
1523610609920,-327680,82,-56,-1,-1,0
1523610609920,-458752,82,-56,-1,-1,0
1523610609960,-589824,82,-56,-1,-1,0
1523610609960,-589824,82,-56,-1,-1,0
1523610609960,-589824,82,-56,-1,-1,0
1523610609960,-589824,82,-56,-1,-1,0
1523610609960,-589824,82,-56,-1,-1,0
1523610610000,-524288,83,-56,-1,-1,0
1523610610000,-458752,83,-56,-1,-1,0
1523610610000,-393216,83,-56,-1,-1,0
1523610610000,-327680,83,-56,-1,-1,0
1523610610000,-196608,83,-56,-1,-1,0
1523610610040,786432,83,-56,-1,-1,0
1523610610040,3866624,83,-56,-1,-1,0
1523610610040,8912896,83,-56,-1,-1,0
1523610610040,11599872,83,-56,-1,-1,0
1523610610040,7602176,83,-56,-1,-1,0
1523610610080,1245184,83,-56,-1,-1,0
1523610610080,-1245184,83,-56,-1,-1,0
1523610610080,-655360,83,-56,-1,-1,0
1523610610080,0,83,-56,-1,-1,0
1523610610080,131072,83,-56,-1,-1,0
1523610610120,196608,83,-56,-1,-1,0
1523610610120,262144,83,-56,-1,-1,0
1523610610120,393216,83,-56,-1,-1,0
1523610610120,524288,83,-56,-1,-1,0
1523610610120,589824,83,-56,-1,-1,0
1523610610160,589824,83,-56,-1,-1,0
1523610610160,589824,83,-56,-1,-1,0
1523610610160,589824,83,-56,-1,-1,0
1523610610160,720896,83,-56,-1,-1,0
1523610610160,851968,83,-56,-1,-1,0
1523610610200,983040,83,-56,-1,-1,0
1523610610200,1114112,83,-56,-1,-1,0
1523610610200,1376256,83,-56,-1,-1,0
1523610610200,1572864,83,-56,-1,-1,0
1523610610200,1835008,83,-56,-1,-1,0
1523610610240,2097152,83,-56,-1,-1,0
1523610610240,2293760,83,-56,-1,-1,0
1523610610240,2424832,83,-56,-1,-1,0
1523610610240,2424832,83,-56,-1,-1,0
1523610610240,2293760,83,-56,-1,-1,0
1523610610280,2097152,83,-56,-1,-1,0
1523610610280,1703936,83,-56,-1,-1,0
1523610610280,1179648,83,-56,-1,-1,0
1523610610280,655360,83,-56,-1,-1,0
1523610610280,196608,83,-56,-1,-1,0
1523610610320,-131072,83,-56,-1,-1,0
1523610610320,-393216,83,-56,-1,-1,0
1523610610320,-458752,83,-56,-1,-1,0
1523610610320,-524288,83,-56,-1,-1,0
1523610610320,-655360,83,-56,-1,-1,0
1523610610360,-720896,83,-56,-1,-1,0
1523610610360,-720896,83,-56,-1,-1,0
1523610610360,-786432,83,-56,-1,-1,0
1523610610360,-786432,83,-56,-1,-1,0
1523610610360,-786432,83,-56,-1,-1,0
1523610610400,-720896,83,-56,-1,-1,0
1523610610400,-655360,83,-56,-1,-1,0
1523610610400,-655360,83,-56,-1,-1,0
1523610610400,-655360,83,-56,-1,-1,0
1523610610400,-655360,83,-56,-1,-1,0
1523610610456,-720896,83,-56,-1,-1,0
1523610610456,-720896,83,-56,-1,-1,0
1523610610456,-786432,83,-56,-1,-1,0
1523610610456,-786432,83,-56,-1,-1,0
1523610610456,-851968,83,-56,-1,-1,0
1523610610480,-851968,83,-56,-1,-1,0
1523610610480,-917504,83,-56,-1,-1,0
1523610610480,-1048576,83,-56,-1,-1,0
1523610610480,-1048576,83,-56,-1,-1,0
1523610610480,-983040,83,-56,-1,-1,0
1523610610520,-983040,83,-56,-1,-1,0
1523610610520,-1114112,83,-56,-1,-1,0
1523610610520,-1179648,83,-56,-1,-1,0
1523610610520,-1376256,83,-56,-1,-1,0
1523610610520,-1572864,83,-56,-1,-1,0
1523610610560,-1572864,83,-56,-1,-1,0
1523610610560,-1507328,83,-56,-1,-1,0
1523610610560,-1441792,83,-56,-1,-1,0
1523610610560,-1310720,83,-56,-1,-1,0
1523610610560,-1048576,83,-56,-1,-1,0
1523610610600,-851968,83,-56,-1,-1,0
1523610610600,-917504,83,-56,-1,-1,0
1523610610600,-983040,83,-56,-1,-1,0
1523610610600,-917504,83,-56,-1,-1,0
1523610610600,-917504,83,-56,-1,-1,0
1523610610640,-851968,83,-56,-1,-1,0
1523610610640,-851968,83,-56,-1,-1,0
1523610610640,-851968,83,-56,-1,-1,0
1523610610640,-983040,83,-56,-1,-1,0
1523610610640,-1048576,83,-56,-1,-1,0
1523610610680,-1179648,83,-56,-1,-1,0
1523610610680,-1310720,83,-56,-1,-1,0
1523610610680,-983040,83,-56,-1,-1,0
1523610610680,589824,83,-56,-1,-1,0
1523610610680,4390912,83,-56,-1,-1,0
1523610610720,9371648,83,-56,-1,-1,0
1523610610720,9961472,83,-56,-1,-1,0
1523610610720,4521984,83,-56,-1,-1,0
1523610610720,-983040,83,-56,-1,-1,0
1523610610720,-2097152,83,-56,-1,-1,0
1523610610760,-1507328,83,-56,-1,-1,0
1523610610760,-1245184,83,-56,-1,-1,0
1523610610760,-1245184,83,-56,-1,-1,0
1523610610760,-1245184,83,-56,-1,-1,0
1523610610760,-1245184,83,-56,-1,-1,0
1523610610800,-1179648,83,-56,-1,-1,0
1523610610800,-1114112,83,-56,-1,-1,0
1523610610800,-983040,83,-56,-1,-1,0
1523610610800,-851968,83,-56,-1,-1,0
1523610610800,-655360,83,-56,-1,-1,0
1523610610840,-524288,83,-56,-1,-1,0
1523610610840,-327680,83,-56,-1,-1,0
1523610610840,-196608,83,-56,-1,-1,0
1523610610840,0,83,-56,-1,-1,0
1523610610840,196608,83,-56,-1,-1,0
1523610610881,524288,83,-56,-1,-1,0
1523610610881,851968,83,-56,-1,-1,0
1523610610881,1179648,83,-56,-1,-1,0
1523610610881,1441792,83,-56,-1,-1,0
1523610610881,1638400,83,-56,-1,-1,0
1523610610920,1703936,83,-56,-1,-1,0
1523610610920,1769472,83,-56,-1,-1,0
1523610610920,1638400,83,-56,-1,-1,0
1523610610920,1507328,83,-56,-1,-1,0
1523610610920,1245184,83,-56,-1,-1,0
1523610610960,786432,83,-56,-1,-1,0
1523610610960,327680,83,-56,-1,-1,0
1523610610960,0,83,-56,-1,-1,0
1523610610960,-196608,83,-56,-1,-1,0
1523610610960,-327680,83,-56,-1,-1,0
1523610611000,-393216,83,-56,-1,-1,0
1523610611000,-393216,83,-56,-1,-1,0
1523610611000,-327680,83,-56,-1,-1,0
1523610611000,-393216,83,-56,-1,-1,0
1523610611000,-589824,83,-56,-1,-1,0
1523610611040,-524288,83,-56,-1,-1,0
1523610611040,-327680,83,-56,-1,-1,0
1523610611040,-327680,83,-56,-1,-1,0
1523610611040,-393216,83,-56,-1,-1,0
1523610611040,-393216,83,-56,-1,-1,0
1523610611097,-327680,83,-56,-1,-1,0
1523610611097,-262144,83,-56,-1,-1,0
1523610611097,-196608,83,-56,-1,-1,0
1523610611097,-131072,83,-56,-1,-1,0
1523610611097,-131072,83,-56,-1,-1,0
1523610611120,-196608,83,-56,-1,-1,0
1523610611120,-262144,83,-56,-1,-1,0
1523610611120,-262144,83,-56,-1,-1,0
1523610611120,-327680,83,-56,-1,-1,0
1523610611120,-393216,83,-56,-1,-1,0
1523610611160,-393216,83,-56,-1,-1,0
1523610611160,-393216,83,-56,-1,-1,0
1523610611160,-393216,83,-56,-1,-1,0
1523610611160,-393216,83,-56,-1,-1,0
1523610611160,-458752,83,-56,-1,-1,0
1523610611201,-524288,83,-56,-1,-1,0
1523610611201,-589824,83,-56,-1,-1,0
1523610611201,-655360,83,-56,-1,-1,0
1523610611201,-655360,83,-56,-1,-1,0
1523610611201,-720896,83,-56,-1,-1,0
1523610611240,-851968,83,-56,-1,-1,0
1523610611240,-851968,83,-56,-1,-1,0
1523610611240,-589824,83,-56,-1,-1,0
1523610611240,-262144,83,-56,-1,-1,0
1523610611240,0,83,-56,-1,-1,0
1523610611280,-196608,83,-56,-1,-1,0
1523610611280,-720896,83,-56,-1,-1,0
1523610611280,-983040,83,-56,-1,-1,0
1523610611280,-917504,83,-56,-1,-1,0
1523610611280,-851968,83,-56,-1,-1,0
1523610611320,-786432,84,-56,-1,-1,0
1523610611320,-786432,84,-56,-1,-1,0
1523610611320,-851968,84,-56,-1,-1,0
1523610611320,-851968,84,-56,-1,-1,0
1523610611320,-851968,84,-56,-1,-1,0
1523610611360,-655360,84,-56,-1,-1,0
1523610611360,196608,84,-56,-1,-1,0
1523610611360,2949120,84,-56,-1,-1,0
1523610611360,7602176,84,-56,-1,-1,0
1523610611360,10289152,84,-56,-1,-1,0
1523610611400,7143424,84,-56,-1,-1,0
1523610611400,1114112,84,-56,-1,-1,0
1523610611400,-1835008,84,-56,-1,-1,0
1523610611400,-1441792,84,-56,-1,-1,0
1523610611400,-851968,84,-56,-1,-1,0
1523610611440,-720896,84,-56,-1,-1,0
1523610611440,-655360,84,-56,-1,-1,0
1523610611440,-786432,84,-56,-1,-1,0
1523610611440,-851968,84,-56,-1,-1,0
1523610611440,-786432,84,-56,-1,-1,0
1523610611480,-655360,84,-56,-1,-1,0
1523610611480,-589824,84,-56,-1,-1,0
1523610611480,-458752,84,-56,-1,-1,0
1523610611480,-458752,84,-56,-1,-1,0
1523610611480,-327680,84,-56,-1,-1,0
1523610611520,-262144,84,-56,-1,-1,0
1523610611520,-196608,84,-56,-1,-1,0
1523610611520,-65536,84,-56,-1,-1,0
1523610611520,196608,84,-56,-1,-1,0
1523610611520,458752,84,-56,-1,-1,0
1523610611560,786432,84,-56,-1,-1,0
1523610611560,1114112,84,-56,-1,-1,0
1523610611560,1245184,84,-56,-1,-1,0
1523610611560,1310720,84,-56,-1,-1,0
1523610611560,1376256,84,-56,-1,-1,0
1523610611601,1441792,84,-56,-1,-1,0
1523610611601,1376256,84,-56,-1,-1,0
1523610611601,1114112,84,-56,-1,-1,0
1523610611601,851968,84,-56,-1,-1,0
1523610611601,458752,84,-56,-1,-1,0
1523610611640,0,84,-56,-1,-1,0
1523610611640,-458752,84,-56,-1,-1,0
1523610611640,-851968,84,-56,-1,-1,0
1523610611640,-983040,84,-56,-1,-1,0
1523610611640,-1048576,84,-56,-1,-1,0
1523610611680,-1048576,84,-56,-1,-1,0
1523610611680,-1114112,84,-56,-1,-1,0
1523610611680,-1048576,84,-56,-1,-1,0
1523610611680,-917504,84,-56,-1,-1,0
1523610611680,-851968,84,-56,-1,-1,0
1523610611737,-851968,84,-56,-1,-1,0
1523610611737,-917504,84,-56,-1,-1,0
1523610611737,-917504,84,-56,-1,-1,0
1523610611737,-851968,84,-56,-1,-1,0
1523610611737,-917504,84,-56,-1,-1,0
1523610611761,-983040,84,-56,-1,-1,0
1523610611761,-983040,84,-56,-1,-1,0
1523610611761,-983040,84,-56,-1,-1,0
1523610611761,-1048576,84,-56,-1,-1,0
1523610611761,-1179648,84,-56,-1,-1,0
1523610611800,-1179648,84,-56,-1,-1,0
1523610611800,-1245184,84,-56,-1,-1,0
1523610611800,-1245184,84,-56,-1,-1,0
1523610611800,-1245184,84,-56,-1,-1,0
1523610611800,-1245184,84,-56,-1,-1,0
1523610611841,-1245184,84,-56,-1,-1,0
1523610611841,-1179648,84,-56,-1,-1,0
