milliseconds, ECG, ECG HR, PPG, PPG HR, SpO2, PI,Landmark_0,Landmark_1,Landmark_2,Landmark_3,Landmark_4,Landmark_5,Landmark_6,Landmark_7,Landmark_8,Landmark_9,Landmark_10,Landmark_11,Landmark_12,Landmark_13,Landmark_14,Landmark_15,Landmark_16,Landmark_17,Landmark_18,Landmark_19,Landmark_20,Landmark_21,Landmark_22,Landmark_23,Landmark_24,Landmark_25,Landmark_26,Landmark_27,Landmark_28,Landmark_29,Landmark_30,Landmark_31,Landmark_32,Landmark_33,Landmark_34,Landmark_35,Landmark_36,Landmark_37,Landmark_38,Landmark_39,Landmark_40,Landmark_41,Landmark_42,Landmark_43,Landmark_44,Landmark_45,Landmark_46,Landmark_47,Landmark_48,Landmark_49,Landmark_50,Landmark_51,Landmark_52,Landmark_53,Landmark_54,Landmark_55,Landmark_56,Landmark_57,Landmark_58,Landmark_59,Landmark_60,Landmark_61,Landmark_62,Landmark_63,Landmark_64,Landmark_65,Landmark_66,Landmark_67,EyeAspectRatio,MouthAspectRatio,LightIntensity,FaceWidthRatio,EyebrowHeight,LipsWidthRatio,LipsHeightRatio,EyeOpening,NoseWidthRatio,NoseHeightRatio,AvgRedForehead,AvgGreenForehead,AvgBlueForehead,AvgRedLips,AvgGreenLips,AvgBlueLips,AvgRedCheeks,AvgGreenCheeks,AvgBlueCheeks
7533,0,127,-56,-1,-1,0,"(1000, 278)","(1000, 299)","(1001, 320)","(1005, 341)","(1012, 363)","(1021, 384)","(1035, 402)","(1051, 417)","(1071, 421)","(1094, 415)","(1117, 401)","(1137, 384)","(1153, 363)","(1164, 339)","(1168, 314)","(1169, 287)","(1169, 261)","(999, 262)","(1003, 253)","(1014, 248)","(1026, 249)","(1038, 254)","(1072, 249)","(1087, 240)","(1105, 237)","(1122, 239)","(1135, 247)","(1056, 272)","(1055, 285)","(1053, 298)","(1052, 312)","(1043, 325)","(1050, 329)","(1058, 330)","(1067, 327)","(1075, 323)","(1015, 278)","(1022, 272)","(1033, 271)","(1044, 276)","(1033, 280)","(1023, 282)","(1084, 271)","(1093, 262)","(1105, 261)","(1115, 266)","(1106, 271)","(1095, 272)","(1040, 364)","(1044, 354)","(1052, 350)","(1059, 351)","(1067, 348)","(1081, 350)","(1096, 357)","(1084, 370)","(1071, 377)","(1063, 379)","(1055, 379)","(1046, 375)","(1045, 362)","(1054, 357)","(1061, 357)","(1069, 356)","(1089, 357)","(1069, 366)","(1061, 368)","(1054, 367)",0.32,1.16,96.0,0.35,-0.11,0.33,0.04,-8.5,0.11,0.26,75.6,93.3,147.7,57.2,66.1,142.55,39.7,54.94,95.64
7566,1048576,127,-56,-1,-1,0,"(1001, 279)","(1000, 300)","(1001, 321)","(1006, 342)","(1012, 363)","(1022, 383)","(1035, 402)","(1051, 417)","(1071, 420)","(1093, 415)","(1115, 402)","(1136, 385)","(1153, 364)","(1164, 341)","(1169, 315)","(1169, 289)","(1169, 262)","(1002, 260)","(1007, 252)","(1017, 248)","(1029, 249)","(1040, 254)","(1074, 249)","(1089, 240)","(1105, 236)","(1121, 238)","(1135, 245)","(1057, 272)","(1056, 285)","(1054, 298)","(1053, 312)","(1044, 325)","(1051, 328)","(1058, 329)","(1067, 326)","(1075, 322)","(1017, 277)","(1024, 271)","(1034, 270)","(1044, 276)","(1035, 280)","(1024, 281)","(1085, 270)","(1094, 262)","(1106, 261)","(1116, 265)","(1107, 270)","(1096, 272)","(1040, 363)","(1044, 353)","(1053, 349)","(1060, 350)","(1068, 347)","(1082, 349)","(1096, 356)","(1085, 370)","(1072, 377)","(1063, 379)","(1055, 378)","(1046, 374)","(1045, 361)","(1054, 356)","(1061, 356)","(1069, 355)","(1090, 356)","(1070, 366)","(1062, 367)","(1054, 367)",0.3,1.13,96.0,0.34,-0.11,0.33,0.05,-8.5,0.1,0.27,75.3,94.1,148.3,55.15,65.05,141.8,38.94,53.29,97.0
7600,262144,127,-56,-1,-1,0,"(1001, 276)","(1000, 297)","(1002, 318)","(1006, 339)","(1012, 360)","(1022, 381)","(1034, 399)","(1050, 415)","(1071, 419)","(1093, 414)","(1116, 400)","(1137, 383)","(1153, 363)","(1165, 340)","(1169, 314)","(1170, 288)","(1170, 261)","(1000, 260)","(1005, 250)","(1016, 246)","(1029, 247)","(1041, 252)","(1076, 248)","(1091, 239)","(1108, 236)","(1125, 238)","(1138, 246)","(1058, 270)","(1057, 283)","(1056, 297)","(1054, 310)","(1045, 323)","(1052, 326)","(1059, 328)","(1068, 325)","(1076, 321)","(1017, 276)","(1024, 270)","(1035, 269)","(1045, 274)","(1035, 278)","(1025, 279)","(1087, 269)","(1096, 262)","(1108, 260)","(1118, 265)","(1109, 270)","(1097, 271)","(1041, 361)","(1045, 352)","(1054, 348)","(1061, 349)","(1069, 346)","(1083, 349)","(1097, 356)","(1085, 368)","(1072, 374)","(1063, 376)","(1055, 376)","(1047, 372)","(1046, 360)","(1055, 355)","(1062, 354)","(1070, 353)","(1091, 356)","(1070, 364)","(1062, 365)","(1055, 365)",0.3,1.14,96.0,0.34,-0.11,0.33,0.05,-8.0,0.1,0.26,75.9,93.3,148.2,52.8,62.8,140.85,37.41,54.0,97.29
7633,-524288,127,-56,-1,-1,0,"(1002, 276)","(1001, 297)","(1002, 318)","(1006, 339)","(1012, 360)","(1021, 380)","(1035, 397)","(1050, 412)","(1071, 416)","(1093, 412)","(1115, 399)","(1136, 382)","(1153, 363)","(1164, 340)","(1169, 315)","(1171, 288)","(1171, 262)","(1003, 260)","(1008, 251)","(1018, 247)","(1031, 247)","(1043, 252)","(1076, 248)","(1091, 239)","(1108, 236)","(1125, 239)","(1139, 247)","(1060, 270)","(1058, 283)","(1056, 295)","(1055, 309)","(1046, 322)","(1053, 325)","(1060, 327)","(1069, 324)","(1077, 320)","(1019, 275)","(1026, 269)","(1037, 268)","(1047, 274)","(1037, 278)","(1026, 279)","(1088, 269)","(1097, 261)","(1109, 260)","(1119, 265)","(1110, 270)","(1098, 271)","(1041, 359)","(1046, 351)","(1055, 346)","(1062, 348)","(1069, 345)","(1083, 348)","(1097, 354)","(1085, 365)","(1072, 371)","(1064, 372)","(1056, 372)","(1048, 369)","(1046, 358)","(1056, 354)","(1063, 353)","(1070, 352)","(1091, 354)","(1071, 360)","(1063, 362)","(1056, 361)",0.32,1.12,96.0,0.34,-0.1,0.33,0.04,-9.0,0.1,0.26,72.5,90.3,144.8,50.5,58.8,137.65,38.0,54.11,95.76
7666,-524288,127,-56,-1,-1,0,"(1002, 274)","(1001, 296)","(1003, 317)","(1007, 338)","(1012, 359)","(1021, 379)","(1035, 396)","(1051, 410)","(1072, 414)","(1094, 410)","(1116, 397)","(1136, 382)","(1151, 362)","(1160, 339)","(1164, 314)","(1165, 289)","(1165, 263)","(1002, 259)","(1007, 249)","(1018, 245)","(1031, 246)","(1044, 251)","(1078, 247)","(1093, 239)","(1109, 236)","(1125, 238)","(1138, 247)","(1061, 268)","(1060, 281)","(1058, 294)","(1057, 308)","(1048, 322)","(1054, 325)","(1061, 326)","(1070, 323)","(1078, 320)","(1019, 273)","(1026, 267)","(1037, 267)","(1047, 273)","(1037, 276)","(1026, 277)","(1089, 268)","(1098, 260)","(1110, 259)","(1120, 264)","(1111, 270)","(1099, 270)","(1041, 358)","(1047, 351)","(1055, 347)","(1063, 348)","(1070, 345)","(1083, 347)","(1097, 353)","(1086, 363)","(1074, 369)","(1065, 370)","(1057, 370)","(1048, 367)","(1046, 357)","(1056, 354)","(1064, 354)","(1072, 353)","(1092, 353)","(1072, 358)","(1064, 360)","(1057, 359)",0.33,1.08,96.0,0.36,-0.09,0.34,0.03,-9.5,0.1,0.27,71.9,91.4,144.6,51.75,60.8,135.3,38.94,54.82,99.17
7700,-458752,127,-56,-1,-1,0,"(1002, 274)","(1001, 296)","(1003, 317)","(1006, 338)","(1011, 359)","(1021, 378)","(1034, 395)","(1051, 409)","(1071, 413)","(1094, 409)","(1115, 397)","(1135, 381)","(1150, 362)","(1159, 339)","(1163, 315)","(1164, 290)","(1164, 264)","(1003, 260)","(1008, 249)","(1020, 245)","(1033, 246)","(1046, 251)","(1079, 248)","(1093, 239)","(1110, 236)","(1127, 239)","(1139, 249)","(1062, 268)","(1061, 281)","(1059, 294)","(1058, 308)","(1048, 321)","(1055, 324)","(1062, 325)","(1070, 323)","(1079, 319)","(1020, 273)","(1027, 267)","(1038, 266)","(1048, 272)","(1038, 275)","(1027, 276)","(1089, 268)","(1099, 260)","(1110, 260)","(1120, 264)","(1111, 269)","(1100, 270)","(1041, 357)","(1047, 350)","(1056, 346)","(1063, 348)","(1071, 345)","(1084, 347)","(1098, 353)","(1086, 362)","(1075, 366)","(1066, 368)","(1058, 367)","(1049, 365)","(1046, 356)","(1057, 353)","(1064, 354)","(1072, 352)","(1092, 353)","(1073, 356)","(1065, 358)","(1058, 358)",0.3,1.07,96.0,0.36,-0.09,0.35,0.02,-8.5,0.1,0.27,69.9,89.2,142.8,49.95,57.7,132.5,41.05,59.23,100.88
7733,-786432,127,-56,-1,-1,0,"(1002, 271)","(1001, 292)","(1002, 314)","(1005, 335)","(1011, 356)","(1021, 376)","(1034, 394)","(1051, 408)","(1071, 412)","(1093, 408)","(1116, 396)","(1137, 379)","(1153, 360)","(1164, 337)","(1169, 312)","(1171, 286)","(1171, 260)","(1003, 257)","(1008, 247)","(1019, 244)","(1032, 245)","(1045, 250)","(1079, 247)","(1094, 238)","(1111, 235)","(1127, 238)","(1141, 246)","(1061, 267)","(1060, 280)","(1059, 292)","(1057, 306)","(1047, 320)","(1054, 323)","(1062, 324)","(1070, 322)","(1079, 319)","(1019, 272)","(1027, 266)","(1038, 265)","(1048, 271)","(1038, 275)","(1027, 276)","(1089, 267)","(1098, 259)","(1110, 259)","(1120, 263)","(1111, 268)","(1099, 269)","(1042, 356)","(1048, 350)","(1056, 346)","(1063, 347)","(1071, 345)","(1083, 346)","(1098, 351)","(1085, 360)","(1074, 365)","(1065, 367)","(1058, 366)","(1049, 364)","(1047, 355)","(1057, 353)","(1064, 353)","(1072, 352)","(1092, 351)","(1072, 355)","(1064, 356)","(1057, 356)",0.3,1.08,96.0,0.35,-0.09,0.33,0.02,-9.0,0.1,0.26,71.2,89.5,143.1,46.85,53.9,128.85,42.17,57.23,97.76
7766,-851968,127,-56,-1,-1,0,"(1002, 272)","(1001, 293)","(1002, 313)","(1005, 334)","(1011, 355)","(1020, 375)","(1033, 392)","(1049, 406)","(1070, 411)","(1092, 407)","(1114, 395)","(1135, 379)","(1151, 360)","(1162, 338)","(1168, 313)","(1170, 288)","(1170, 262)","(1002, 255)","(1008, 246)","(1019, 242)","(1032, 243)","(1045, 249)","(1079, 245)","(1095, 238)","(1112, 235)","(1128, 238)","(1141, 247)","(1062, 266)","(1060, 279)","(1059, 291)","(1057, 305)","(1047, 318)","(1054, 321)","(1061, 323)","(1070, 320)","(1078, 317)","(1019, 271)","(1026, 265)","(1037, 264)","(1048, 270)","(1037, 274)","(1026, 275)","(1089, 267)","(1099, 259)","(1111, 258)","(1121, 263)","(1112, 268)","(1100, 269)","(1040, 355)","(1047, 348)","(1056, 344)","(1062, 346)","(1070, 343)","(1083, 345)","(1097, 351)","(1084, 360)","(1072, 364)","(1064, 365)","(1057, 365)","(1048, 363)","(1045, 354)","(1056, 352)","(1063, 352)","(1071, 351)","(1091, 351)","(1071, 354)","(1064, 355)","(1057, 355)",0.31,1.04,96.0,0.36,-0.05,0.33,0.02,-9.0,0.09,0.26,70.1,89.4,143.8,49.9,56.75,129.2,43.82,60.29,106.47
7800,-1245184,127,-56,-1,-1,0,"(1000, 270)","(999, 290)","(1001, 311)","(1004, 332)","(1009, 353)","(1018, 373)","(1031, 391)","(1047, 406)","(1068, 410)","(1090, 407)","(1112, 394)","(1134, 379)","(1150, 360)","(1161, 337)","(1167, 313)","(1169, 288)","(1170, 262)","(1003, 254)","(1009, 245)","(1020, 242)","(1033, 243)","(1045, 248)","(1079, 245)","(1094, 237)","(1111, 233)","(1127, 237)","(1140, 245)","(1061, 265)","(1060, 278)","(1058, 290)","(1056, 304)","(1047, 317)","(1053, 321)","(1060, 322)","(1069, 320)","(1077, 316)","(1019, 270)","(1027, 264)","(1038, 263)","(1048, 270)","(1038, 273)","(1027, 274)","(1089, 266)","(1098, 258)","(1110, 257)","(1120, 262)","(1111, 267)","(1099, 268)","(1039, 353)","(1046, 347)","(1054, 343)","(1061, 345)","(1069, 342)","(1081, 344)","(1096, 350)","(1083, 359)","(1071, 363)","(1063, 365)","(1055, 364)","(1047, 362)","(1044, 353)","(1055, 351)","(1062, 351)","(1069, 350)","(1090, 350)","(1070, 353)","(1062, 354)","(1055, 354)",0.32,1.05,96.0,0.35,-0.07,0.33,0.02,-9.0,0.09,0.26,71.5,90.5,144.9,49.4,56.15,131.95,39.41,56.76,99.41
7833,5636096,127,-56,-1,-1,0,"(999, 271)","(998, 293)","(999, 313)","(1002, 335)","(1007, 356)","(1017, 375)","(1030, 391)","(1047, 405)","(1067, 410)","(1089, 406)","(1111, 393)","(1133, 378)","(1149, 359)","(1160, 337)","(1165, 313)","(1167, 288)","(1168, 262)","(1000, 255)","(1006, 246)","(1018, 242)","(1031, 242)","(1043, 248)","(1078, 244)","(1092, 236)","(1109, 233)","(1125, 236)","(1138, 245)","(1059, 265)","(1058, 277)","(1056, 289)","(1054, 302)","(1045, 317)","(1052, 320)","(1058, 321)","(1067, 319)","(1075, 316)","(1017, 270)","(1025, 264)","(1035, 263)","(1046, 269)","(1035, 272)","(1025, 273)","(1086, 265)","(1096, 257)","(1108, 256)","(1118, 261)","(1108, 266)","(1097, 267)","(1037, 353)","(1044, 346)","(1053, 342)","(1060, 344)","(1067, 341)","(1080, 343)","(1094, 348)","(1082, 358)","(1070, 362)","(1061, 364)","(1054, 363)","(1045, 361)","(1042, 352)","(1054, 350)","(1061, 350)","(1068, 349)","(1088, 348)","(1068, 352)","(1061, 353)","(1054, 353)",0.31,1.04,96.0,0.36,-0.07,0.33,0.02,-8.5,0.09,0.25,71.4,89.7,144.7,48.8,56.75,127.05,37.76,52.52,95.23
7866,-524288,127,-56,-1,-1,0,"(998, 272)","(998, 293)","(1000, 315)","(1003, 336)","(1007, 357)","(1016, 376)","(1029, 393)","(1046, 406)","(1066, 410)","(1088, 405)","(1110, 394)","(1130, 379)","(1145, 361)","(1154, 339)","(1158, 314)","(1160, 289)","(1160, 264)","(1001, 257)","(1007, 246)","(1018, 242)","(1032, 243)","(1044, 248)","(1076, 245)","(1090, 237)","(1107, 233)","(1124, 237)","(1136, 247)","(1059, 264)","(1058, 276)","(1056, 289)","(1054, 303)","(1045, 317)","(1051, 320)","(1058, 321)","(1066, 318)","(1075, 315)","(1016, 270)","(1024, 263)","(1035, 262)","(1045, 269)","(1035, 272)","(1024, 273)","(1085, 265)","(1095, 257)","(1107, 256)","(1116, 261)","(1107, 266)","(1096, 267)","(1036, 352)","(1043, 345)","(1052, 341)","(1060, 343)","(1067, 340)","(1080, 342)","(1095, 347)","(1082, 357)","(1070, 362)","(1062, 363)","(1054, 363)","(1044, 361)","(1041, 351)","(1053, 349)","(1060, 349)","(1068, 347)","(1089, 347)","(1069, 352)","(1061, 354)","(1053, 354)",0.32,1.04,96.0,0.37,-0.08,0.36,0.02,-9.0,0.09,0.26,67.0,86.8,140.4,51.55,58.55,138.3,40.94,58.29,102.88
7899,-720896,127,-56,-1,-1,0,"(998, 272)","(997, 293)","(999, 314)","(1001, 335)","(1006, 356)","(1015, 376)","(1028, 393)","(1044, 406)","(1065, 410)","(1087, 406)","(1108, 395)","(1127, 380)","(1141, 362)","(1151, 340)","(1154, 316)","(1156, 291)","(1157, 266)","(998, 256)","(1004, 246)","(1015, 241)","(1029, 242)","(1042, 247)","(1075, 244)","(1089, 236)","(1106, 234)","(1122, 237)","(1134, 247)","(1058, 263)","(1056, 276)","(1055, 289)","(1053, 302)","(1043, 316)","(1050, 319)","(1057, 320)","(1066, 318)","(1074, 315)","(1015, 269)","(1022, 263)","(1033, 262)","(1043, 268)","(1033, 271)","(1022, 272)","(1084, 265)","(1094, 257)","(1106, 256)","(1115, 262)","(1106, 267)","(1095, 267)","(1034, 351)","(1041, 344)","(1051, 341)","(1058, 342)","(1066, 339)","(1080, 341)","(1095, 347)","(1083, 357)","(1070, 362)","(1061, 364)","(1053, 364)","(1043, 361)","(1039, 351)","(1051, 348)","(1059, 348)","(1067, 346)","(1089, 347)","(1069, 353)","(1060, 354)","(1053, 354)",0.33,1.07,96.0,0.37,-0.07,0.38,0.03,-9.0,0.1,0.26,67.6,87.5,142.3,53.9,63.15,140.35,41.64,59.29,106.58
7933,0,127,-56,-1,-1,0,"(998, 272)","(997, 293)","(998, 314)","(1001, 335)","(1006, 355)","(1015, 375)","(1028, 391)","(1044, 405)","(1064, 409)","(1086, 405)","(1107, 394)","(1126, 379)","(1141, 361)","(1150, 339)","(1153, 315)","(1155, 290)","(1156, 266)","(998, 255)","(1004, 245)","(1015, 240)","(1028, 240)","(1041, 245)","(1074, 243)","(1089, 235)","(1105, 232)","(1122, 236)","(1133, 246)","(1057, 262)","(1055, 275)","(1053, 287)","(1052, 301)","(1042, 314)","(1049, 317)","(1056, 319)","(1065, 316)","(1073, 313)","(1014, 268)","(1022, 261)","(1032, 261)","(1043, 267)","(1033, 270)","(1022, 271)","(1083, 264)","(1093, 255)","(1105, 255)","(1115, 260)","(1106, 265)","(1094, 265)","(1032, 348)","(1039, 341)","(1049, 337)","(1057, 339)","(1066, 336)","(1080, 338)","(1096, 344)","(1083, 356)","(1070, 362)","(1060, 364)","(1051, 364)","(1041, 360)","(1037, 348)","(1050, 345)","(1058, 345)","(1067, 343)","(1090, 344)","(1068, 352)","(1059, 354)","(1051, 354)",0.31,1.08,96.0,0.38,-0.08,0.4,0.04,-9.5,0.1,0.26,67.7,87.3,141.7,54.8,63.95,143.15,46.23,63.35,111.35
7966,1245184,127,-56,-1,-1,0,"(997, 273)","(997, 293)","(998, 314)","(1001, 335)","(1005, 355)","(1014, 374)","(1027, 391)","(1043, 405)","(1064, 409)","(1086, 405)","(1107, 393)","(1126, 379)","(1141, 361)","(1150, 339)","(1153, 315)","(1155, 290)","(1156, 266)","(997, 256)","(1002, 245)","(1014, 240)","(1027, 240)","(1041, 245)","(1074, 242)","(1088, 234)","(1105, 231)","(1122, 235)","(1133, 246)","(1057, 261)","(1055, 274)","(1053, 286)","(1052, 300)","(1042, 313)","(1049, 316)","(1056, 317)","(1065, 315)","(1073, 311)","(1014, 268)","(1021, 261)","(1032, 260)","(1042, 267)","(1032, 269)","(1022, 270)","(1083, 263)","(1093, 255)","(1104, 254)","(1114, 260)","(1105, 264)","(1094, 264)","(1030, 345)","(1038, 339)","(1049, 336)","(1057, 337)","(1066, 335)","(1081, 336)","(1097, 341)","(1084, 354)","(1070, 360)","(1060, 362)","(1051, 361)","(1040, 358)","(1035, 345)","(1050, 342)","(1058, 343)","(1067, 341)","(1091, 342)","(1069, 351)","(1059, 352)","(1051, 352)",0.3,1.07,96.0,0.37,-0.08,0.42,0.04,-8.5,0.1,0.26,68.2,86.8,139.6,53.9,62.55,140.6,44.29,61.88,109.76
8000,327680,127,-56,-1,-1,0,"(996, 272)","(995, 292)","(997, 313)","(999, 334)","(1004, 355)","(1014, 374)","(1026, 390)","(1042, 404)","(1063, 408)","(1085, 404)","(1105, 393)","(1125, 379)","(1140, 361)","(1149, 340)","(1152, 315)","(1154, 291)","(1155, 266)","(998, 253)","(1004, 243)","(1015, 238)","(1028, 238)","(1040, 243)","(1075, 241)","(1089, 233)","(1105, 231)","(1121, 234)","(1132, 244)","(1057, 260)","(1055, 273)","(1053, 286)","(1052, 299)","(1041, 312)","(1048, 314)","(1056, 316)","(1065, 313)","(1073, 310)","(1014, 266)","(1022, 260)","(1032, 259)","(1042, 265)","(1032, 268)","(1022, 269)","(1083, 263)","(1093, 255)","(1104, 254)","(1114, 259)","(1105, 263)","(1094, 264)","(1028, 342)","(1037, 337)","(1048, 334)","(1056, 336)","(1066, 333)","(1081, 334)","(1097, 338)","(1084, 352)","(1070, 359)","(1059, 360)","(1050, 360)","(1038, 356)","(1032, 343)","(1048, 340)","(1057, 341)","(1067, 339)","(1092, 339)","(1068, 350)","(1059, 352)","(1050, 351)",0.28,1.05,96.0,0.37,-0.08,0.43,0.04,-8.0,0.1,0.26,68.0,86.9,141.3,50.5,58.7,137.1,45.17,62.29,109.05
8033,-1048576,127,-56,-1,-1,0,"(996, 269)","(995, 291)","(996, 312)","(997, 333)","(1003, 354)","(1013, 373)","(1026, 390)","(1042, 404)","(1063, 408)","(1085, 404)","(1106, 393)","(1126, 379)","(1141, 361)","(1150, 339)","(1152, 314)","(1154, 290)","(1155, 265)","(997, 254)","(1003, 243)","(1014, 238)","(1028, 238)","(1041, 244)","(1076, 241)","(1090, 234)","(1107, 231)","(1123, 235)","(1134, 246)","(1058, 261)","(1056, 274)","(1054, 287)","(1053, 300)","(1041, 312)","(1048, 315)","(1056, 317)","(1066, 314)","(1075, 311)","(1014, 266)","(1022, 260)","(1032, 260)","(1042, 265)","(1032, 268)","(1022, 268)","(1084, 263)","(1094, 256)","(1105, 255)","(1115, 260)","(1106, 264)","(1095, 264)","(1026, 341)","(1036, 337)","(1048, 335)","(1057, 336)","(1067, 334)","(1082, 334)","(1099, 338)","(1085, 352)","(1070, 358)","(1060, 360)","(1050, 359)","(1037, 354)","(1031, 341)","(1048, 340)","(1057, 341)","(1068, 339)","(1094, 339)","(1069, 350)","(1059, 351)","(1049, 351)",0.27,1.02,96.0,0.37,-0.06,0.45,0.04,-8.0,0.1,0.26,68.7,86.9,140.8,55.3,63.35,140.7,44.35,61.23,107.76
8066,-1048576,127,-56,-1,-1,0,"(995, 269)","(994, 290)","(995, 311)","(997, 332)","(1002, 352)","(1012, 371)","(1025, 388)","(1041, 403)","(1062, 407)","(1085, 403)","(1106, 392)","(1125, 378)","(1140, 360)","(1149, 338)","(1151, 314)","(1153, 289)","(1154, 265)","(998, 254)","(1003, 244)","(1015, 239)","(1028, 239)","(1041, 244)","(1076, 241)","(1090, 233)","(1106, 231)","(1122, 235)","(1134, 246)","(1058, 260)","(1056, 273)","(1054, 287)","(1053, 300)","(1041, 311)","(1049, 314)","(1056, 317)","(1066, 313)","(1074, 310)","(1014, 266)","(1022, 260)","(1032, 260)","(1042, 265)","(1032, 268)","(1022, 268)","(1084, 263)","(1094, 255)","(1105, 254)","(1114, 259)","(1106, 263)","(1095, 264)","(1026, 340)","(1036, 336)","(1048, 334)","(1057, 336)","(1067, 333)","(1083, 333)","(1100, 336)","(1085, 351)","(1070, 357)","(1060, 359)","(1050, 358)","(1037, 354)","(1030, 340)","(1048, 339)","(1058, 340)","(1068, 339)","(1094, 338)","(1069, 349)","(1059, 351)","(1049, 350)",0.29,1.03,96.0,0.36,-0.07,0.46,0.04,-8.0,0.1,0.27,67.4,86.9,140.2,52.95,61.55,136.65,44.58,61.76,109.94
8100,-589824,127,-56,-1,-1,0,"(993, 269)","(992, 289)","(992, 310)","(995, 331)","(1001, 352)","(1012, 371)","(1026, 388)","(1042, 403)","(1063, 408)","(1085, 404)","(1107, 392)","(1127, 378)","(1144, 361)","(1154, 339)","(1158, 314)","(1160, 289)","(1162, 264)","(997, 253)","(1003, 243)","(1014, 238)","(1028, 238)","(1041, 243)","(1077, 241)","(1091, 233)","(1108, 232)","(1125, 236)","(1136, 247)","(1058, 261)","(1056, 274)","(1054, 286)","(1052, 299)","(1041, 311)","(1048, 314)","(1056, 316)","(1066, 313)","(1075, 310)","(1015, 266)","(1023, 260)","(1033, 260)","(1043, 266)","(1033, 268)","(1023, 269)","(1084, 263)","(1094, 256)","(1106, 255)","(1116, 260)","(1106, 264)","(1095, 265)","(1026, 339)","(1036, 335)","(1048, 334)","(1057, 335)","(1068, 333)","(1084, 333)","(1101, 336)","(1086, 350)","(1071, 357)","(1060, 358)","(1050, 357)","(1038, 353)","(1031, 340)","(1049, 339)","(1058, 339)","(1068, 338)","(1096, 337)","(1070, 349)","(1060, 350)","(1050, 350)",0.28,1.03,96.0,0.35,-0.06,0.44,0.04,-8.0,0.1,0.25,69.4,87.3,139.9,49.65,55.25,135.5,34.94,48.05,87.05
8133,6684672,127,-56,-1,-1,0,"(992, 267)","(991, 289)","(992, 310)","(995, 331)","(1001, 352)","(1012, 371)","(1026, 388)","(1043, 403)","(1063, 408)","(1085, 404)","(1107, 392)","(1127, 377)","(1144, 360)","(1154, 337)","(1157, 313)","(1159, 288)","(1161, 263)","(996, 252)","(1002, 242)","(1013, 237)","(1027, 237)","(1041, 243)","(1077, 241)","(1092, 233)","(1109, 231)","(1125, 236)","(1136, 246)","(1058, 261)","(1057, 273)","(1055, 286)","(1053, 299)","(1041, 310)","(1049, 314)","(1057, 316)","(1066, 313)","(1075, 310)","(1014, 265)","(1022, 259)","(1033, 259)","(1043, 265)","(1033, 267)","(1022, 268)","(1084, 263)","(1094, 255)","(1106, 255)","(1116, 260)","(1106, 264)","(1095, 264)","(1025, 338)","(1035, 334)","(1048, 333)","(1057, 335)","(1068, 333)","(1084, 333)","(1102, 336)","(1087, 350)","(1071, 357)","(1060, 359)","(1049, 358)","(1036, 353)","(1029, 339)","(1048, 338)","(1058, 339)","(1069, 338)","(1097, 337)","(1070, 349)","(1059, 351)","(1049, 350)",0.28,1.04,96.0,0.36,-0.05,0.45,0.04,-8.5,0.1,0.25,71.0,89.9,143.4,51.25,59.4,139.6,34.11,47.82,89.58
8166,-655360,127,-56,-1,-1,0,"(991, 268)","(991, 290)","(992, 311)","(995, 332)","(1001, 354)","(1013, 373)","(1027, 390)","(1044, 404)","(1065, 408)","(1087, 404)","(1108, 391)","(1128, 376)","(1144, 358)","(1154, 336)","(1157, 312)","(1159, 287)","(1160, 262)","(995, 254)","(1000, 244)","(1012, 238)","(1026, 238)","(1040, 244)","(1076, 241)","(1090, 234)","(1107, 232)","(1123, 236)","(1135, 246)","(1058, 262)","(1056, 274)","(1054, 286)","(1052, 300)","(1041, 311)","(1048, 314)","(1056, 316)","(1066, 313)","(1075, 310)","(1014, 267)","(1021, 261)","(1032, 260)","(1042, 266)","(1032, 268)","(1022, 269)","(1083, 263)","(1093, 256)","(1104, 256)","(1114, 260)","(1105, 264)","(1094, 265)","(1024, 339)","(1034, 335)","(1047, 333)","(1057, 335)","(1068, 333)","(1084, 332)","(1102, 335)","(1087, 350)","(1072, 357)","(1060, 359)","(1050, 358)","(1036, 353)","(1029, 339)","(1048, 339)","(1058, 339)","(1069, 338)","(1096, 337)","(1070, 349)","(1060, 351)","(1049, 350)",0.27,1.03,96.0,0.34,-0.06,0.46,0.04,-7.5,0.1,0.26,69.1,87.3,141.3,51.25,60.5,139.95,36.47,51.05,93.17
8200,-2686976,127,-56,-1,-1,0,"(991, 265)","(991, 287)","(991, 308)","(993, 330)","(999, 351)","(1010, 370)","(1025, 387)","(1041, 403)","(1062, 408)","(1085, 404)","(1106, 393)","(1126, 378)","(1143, 360)","(1152, 337)","(1155, 312)","(1158, 287)","(1160, 261)","(996, 253)","(1002, 243)","(1014, 237)","(1028, 238)","(1041, 243)","(1077, 242)","(1092, 234)","(1109, 232)","(1125, 237)","(1137, 248)","(1059, 261)","(1057, 274)","(1055, 286)","(1053, 300)","(1041, 311)","(1049, 314)","(1057, 317)","(1066, 314)","(1075, 311)","(1014, 266)","(1022, 260)","(1033, 260)","(1042, 266)","(1032, 268)","(1022, 268)","(1085, 264)","(1095, 257)","(1106, 256)","(1115, 261)","(1106, 265)","(1095, 265)","(1024, 338)","(1035, 335)","(1048, 334)","(1057, 335)","(1068, 333)","(1084, 333)","(1102, 336)","(1087, 350)","(1071, 357)","(1060, 358)","(1050, 358)","(1037, 353)","(1029, 339)","(1048, 338)","(1058, 339)","(1069, 338)","(1096, 337)","(1071, 349)","(1060, 350)","(1050, 350)",0.28,1.01,96.0,0.34,-0.05,0.46,0.04,-8.0,0.09,0.26,70.0,88.2,142.1,49.35,56.5,134.25,33.88,47.29,86.11
8233,-1310720,127,-56,-1,-1,0,"(989, 266)","(990, 288)","(991, 310)","(993, 331)","(1000, 353)","(1011, 372)","(1026, 389)","(1043, 404)","(1064, 408)","(1086, 404)","(1107, 392)","(1128, 377)","(1143, 359)","(1153, 337)","(1155, 312)","(1158, 288)","(1160, 263)","(995, 254)","(1000, 243)","(1012, 237)","(1027, 237)","(1041, 243)","(1077, 241)","(1092, 234)","(1109, 232)","(1125, 237)","(1136, 248)","(1059, 262)","(1057, 274)","(1055, 286)","(1053, 299)","(1041, 311)","(1049, 314)","(1057, 316)","(1066, 313)","(1076, 310)","(1014, 267)","(1022, 261)","(1032, 261)","(1042, 266)","(1032, 268)","(1022, 269)","(1084, 264)","(1094, 257)","(1105, 257)","(1115, 261)","(1106, 265)","(1094, 266)","(1024, 338)","(1035, 334)","(1048, 333)","(1058, 334)","(1069, 332)","(1085, 332)","(1103, 335)","(1088, 350)","(1072, 357)","(1061, 359)","(1049, 358)","(1036, 353)","(1029, 338)","(1048, 338)","(1059, 339)","(1069, 337)","(1097, 336)","(1071, 349)","(1060, 351)","(1049, 350)",0.27,1.0,96.0,0.34,-0.05,0.46,0.04,-7.5,0.09,0.25,69.0,88.6,142.8,54.5,62.6,141.1,34.17,48.23,87.64
8266,-524288,127,-56,-1,-1,0,"(989, 264)","(990, 286)","(991, 308)","(993, 329)","(999, 351)","(1011, 371)","(1026, 388)","(1043, 403)","(1064, 408)","(1087, 403)","(1109, 391)","(1129, 376)","(1145, 358)","(1154, 335)","(1157, 310)","(1159, 285)","(1161, 259)","(994, 253)","(1000, 242)","(1012, 237)","(1026, 237)","(1040, 243)","(1078, 241)","(1092, 233)","(1110, 231)","(1126, 236)","(1137, 247)","(1059, 261)","(1058, 274)","(1056, 286)","(1054, 299)","(1041, 311)","(1049, 314)","(1058, 316)","(1067, 313)","(1076, 310)","(1014, 266)","(1022, 260)","(1032, 260)","(1043, 265)","(1032, 268)","(1022, 268)","(1085, 263)","(1095, 256)","(1106, 256)","(1116, 260)","(1107, 264)","(1095, 265)","(1024, 337)","(1035, 333)","(1048, 332)","(1058, 334)","(1068, 332)","(1085, 331)","(1103, 335)","(1088, 350)","(1072, 356)","(1061, 358)","(1050, 357)","(1036, 352)","(1029, 337)","(1049, 337)","(1059, 338)","(1069, 337)","(1097, 335)","(1071, 348)","(1060, 350)","(1050, 349)",0.27,1.03,96.0,0.34,-0.05,0.45,0.04,-8.0,0.09,0.25,70.2,88.3,141.6,46.65,54.3,133.25,34.94,47.88,87.47
8300,2162688,127,-56,-1,-1,0,"(989, 264)","(990, 287)","(991, 308)","(993, 329)","(999, 350)","(1011, 369)","(1026, 386)","(1044, 402)","(1065, 407)","(1087, 403)","(1108, 390)","(1128, 375)","(1144, 357)","(1153, 335)","(1155, 310)","(1158, 285)","(1160, 260)","(995, 254)","(1001, 243)","(1013, 237)","(1028, 237)","(1042, 242)","(1079, 241)","(1094, 233)","(1111, 232)","(1127, 237)","(1138, 247)","(1061, 261)","(1059, 274)","(1057, 286)","(1056, 299)","(1043, 310)","(1051, 313)","(1059, 315)","(1068, 313)","(1078, 310)","(1015, 266)","(1023, 260)","(1034, 260)","(1044, 266)","(1034, 268)","(1023, 268)","(1086, 264)","(1096, 256)","(1107, 256)","(1117, 260)","(1107, 264)","(1096, 265)","(1025, 337)","(1036, 333)","(1049, 332)","(1059, 334)","(1070, 331)","(1087, 331)","(1104, 334)","(1089, 349)","(1074, 356)","(1062, 358)","(1051, 357)","(1038, 351)","(1030, 337)","(1050, 337)","(1060, 338)","(1071, 336)","(1098, 335)","(1073, 348)","(1062, 350)","(1051, 349)",0.27,1.01,96.0,0.35,-0.07,0.46,0.04,-8.0,0.09,0.26,70.3,89.2,140.9,50.7,59.4,137.0,36.64,51.23,91.29
8333,1703936,127,-56,-1,-1,0,"(989, 264)","(990, 286)","(991, 308)","(993, 330)","(999, 351)","(1012, 370)","(1027, 387)","(1045, 402)","(1066, 407)","(1088, 402)","(1109, 389)","(1129, 374)","(1144, 356)","(1153, 334)","(1155, 309)","(1157, 285)","(1159, 260)","(995, 253)","(1001, 243)","(1013, 237)","(1028, 237)","(1042, 242)","(1079, 241)","(1093, 233)","(1110, 232)","(1127, 236)","(1138, 247)","(1061, 260)","(1060, 273)","(1058, 285)","(1057, 299)","(1043, 310)","(1051, 312)","(1060, 315)","(1069, 312)","(1078, 309)","(1015, 265)","(1023, 260)","(1033, 260)","(1044, 265)","(1033, 267)","(1023, 268)","(1085, 263)","(1095, 256)","(1107, 256)","(1117, 260)","(1107, 264)","(1096, 264)","(1025, 336)","(1037, 332)","(1050, 331)","(1060, 333)","(1071, 330)","(1087, 330)","(1105, 333)","(1090, 349)","(1074, 356)","(1063, 358)","(1052, 357)","(1038, 351)","(1030, 336)","(1050, 336)","(1061, 337)","(1072, 336)","(1099, 335)","(1073, 348)","(1062, 350)","(1052, 349)",0.24,0.99,96.0,0.35,-0.06,0.47,0.05,-7.5,0.1,0.26,66.2,86.4,140.3,48.4,56.45,133.95,34.58,49.0,87.82
8366,0,127,-56,-1,-1,0,"(990, 263)","(990, 285)","(991, 307)","(993, 328)","(1000, 350)","(1012, 369)","(1028, 387)","(1046, 403)","(1067, 408)","(1089, 403)","(1110, 390)","(1130, 375)","(1145, 356)","(1154, 334)","(1156, 309)","(1158, 284)","(1160, 260)","(996, 252)","(1003, 242)","(1015, 236)","(1030, 236)","(1044, 242)","(1081, 241)","(1095, 234)","(1112, 232)","(1128, 237)","(1139, 247)","(1063, 261)","(1061, 274)","(1060, 286)","(1058, 300)","(1045, 310)","(1053, 313)","(1061, 316)","(1070, 313)","(1080, 310)","(1016, 265)","(1025, 259)","(1035, 259)","(1045, 265)","(1035, 267)","(1025, 267)","(1087, 263)","(1097, 256)","(1109, 256)","(1118, 260)","(1109, 264)","(1098, 265)","(1026, 336)","(1038, 332)","(1051, 331)","(1061, 333)","(1072, 331)","(1089, 331)","(1106, 334)","(1091, 350)","(1076, 357)","(1064, 358)","(1053, 357)","(1039, 351)","(1031, 336)","(1052, 336)","(1062, 337)","(1073, 336)","(1100, 335)","(1075, 349)","(1063, 350)","(1053, 350)",0.27,1.0,96.0,0.35,-0.05,0.47,0.05,-8.0,0.1,0.26,71.1,90.1,143.7,47.3,55.6,133.25,33.0,46.88,87.52
8400,-1179648,127,-56,-1,-1,0,"(991, 264)","(992, 286)","(992, 307)","(995, 329)","(1001, 350)","(1013, 370)","(1028, 387)","(1046, 403)","(1067, 408)","(1089, 404)","(1110, 391)","(1130, 376)","(1145, 358)","(1154, 336)","(1156, 311)","(1158, 287)","(1160, 262)","(997, 253)","(1004, 242)","(1016, 237)","(1031, 237)","(1046, 242)","(1082, 241)","(1097, 234)","(1114, 233)","(1130, 238)","(1140, 249)","(1064, 261)","(1063, 274)","(1061, 287)","(1060, 300)","(1046, 310)","(1054, 313)","(1062, 316)","(1072, 313)","(1081, 310)","(1018, 265)","(1026, 260)","(1037, 260)","(1046, 265)","(1036, 267)","(1026, 268)","(1089, 264)","(1099, 257)","(1110, 256)","(1120, 261)","(1111, 265)","(1100, 265)","(1026, 336)","(1038, 333)","(1052, 332)","(1062, 334)","(1073, 332)","(1090, 331)","(1107, 334)","(1092, 350)","(1077, 358)","(1065, 359)","(1054, 358)","(1039, 352)","(1031, 337)","(1052, 337)","(1063, 338)","(1074, 336)","(1101, 335)","(1076, 350)","(1064, 351)","(1054, 350)",0.27,0.98,96.0,0.34,-0.04,0.47,0.05,-7.5,0.1,0.26,68.7,87.9,141.9,50.95,59.65,136.5,38.47,52.82,96.76
8433,-1441792,127,-56,-1,-1,0,"(991, 268)","(992, 290)","(993, 312)","(996, 334)","(1003, 354)","(1016, 372)","(1032, 386)","(1051, 398)","(1072, 400)","(1092, 396)","(1108, 382)","(1122, 367)","(1132, 348)","(1138, 328)","(1140, 307)","(1141, 287)","(1141, 266)","(1002, 253)","(1011, 244)","(1025, 241)","(1039, 242)","(1053, 248)","(1080, 248)","(1092, 242)","(1106, 239)","(1120, 241)","(1130, 250)","(1067, 262)","(1067, 275)","(1066, 288)","(1066, 301)","(1049, 310)","(1058, 314)","(1067, 316)","(1076, 313)","(1085, 310)","(1019, 265)","(1028, 260)","(1037, 260)","(1047, 266)","(1037, 267)","(1027, 267)","(1087, 265)","(1096, 258)","(1106, 257)","(1114, 262)","(1106, 265)","(1097, 265)","(1029, 337)","(1042, 333)","(1057, 331)","(1067, 333)","(1078, 331)","(1093, 331)","(1108, 335)","(1095, 352)","(1081, 359)","(1069, 360)","(1058, 359)","(1043, 353)","(1033, 338)","(1057, 336)","(1068, 337)","(1079, 336)","(1103, 336)","(1080, 350)","(1069, 352)","(1058, 351)",0.27,0.9,96.0,0.36,-0.02,0.52,0.06,-7.0,0.12,0.28,55.8,76.1,134.4,48.8,56.15,133.7,50.0,64.76,113.29
8433,-1441792,127,-56,-1,-1,0,"(977, 268)","(980, 290)","(982, 312)","(990, 334)","(1001, 354)","(1016, 372)","(1032, 389)","(1049, 404)","(1069, 409)","(1090, 405)","(1109, 392)","(1129, 377)","(1146, 359)","(1157, 337)","(1162, 312)","(1165, 287)","(1167, 261)","(995, 249)","(1004, 240)","(1017, 236)","(1032, 237)","(1046, 242)","(1086, 240)","(1101, 234)","(1116, 232)","(1131, 237)","(1141, 246)","(1067, 263)","(1066, 275)","(1065, 287)","(1063, 299)","(1048, 311)","(1057, 314)","(1065, 316)","(1074, 313)","(1083, 310)","(1018, 265)","(1027, 260)","(1038, 259)","(1047, 266)","(1037, 268)","(1026, 268)","(1090, 264)","(1099, 257)","(1110, 257)","(1120, 261)","(1111, 265)","(1100, 266)","(1031, 337)","(1043, 333)","(1056, 332)","(1066, 333)","(1076, 331)","(1091, 331)","(1107, 334)","(1094, 352)","(1079, 359)","(1068, 361)","(1058, 360)","(1044, 353)","(1036, 338)","(1057, 337)","(1066, 338)","(1076, 336)","(1102, 336)","(1078, 351)","(1068, 352)","(1058, 351)",0.28,0.95,96.0,0.31,-0.01,0.4,0.04,-8.0,0.08,0.24,68.2,86.8,139.3,49.6,57.05,134.95,45.05,59.05,96.11
8466,-1703936,127,-56,-1,-1,0,"(995, 263)","(995, 285)","(996, 308)","(998, 330)","(1004, 352)","(1016, 372)","(1032, 389)","(1050, 404)","(1071, 409)","(1094, 404)","(1114, 391)","(1133, 375)","(1147, 356)","(1155, 334)","(1157, 309)","(1158, 286)","(1159, 261)","(1005, 252)","(1012, 242)","(1024, 237)","(1038, 238)","(1051, 243)","(1087, 242)","(1101, 235)","(1117, 233)","(1131, 237)","(1142, 247)","(1069, 261)","(1068, 274)","(1067, 287)","(1066, 301)","(1051, 310)","(1059, 314)","(1067, 316)","(1076, 313)","(1085, 310)","(1022, 265)","(1030, 259)","(1040, 259)","(1050, 265)","(1040, 266)","(1030, 267)","(1092, 263)","(1102, 257)","(1112, 256)","(1122, 261)","(1113, 264)","(1103, 264)","(1031, 336)","(1043, 332)","(1057, 331)","(1068, 333)","(1078, 331)","(1094, 331)","(1110, 335)","(1096, 352)","(1080, 359)","(1069, 360)","(1058, 360)","(1043, 353)","(1035, 337)","(1057, 336)","(1068, 338)","(1079, 336)","(1105, 336)","(1080, 351)","(1069, 352)","(1058, 351)",0.25,0.95,96.0,0.35,-0.05,0.48,0.05,-7.0,0.09,0.27,66.4,84.8,139.6,47.25,56.2,133.5,40.29,55.76,101.76
8500,-1900544,127,-56,-1,-1,0,"(995, 265)","(996, 288)","(997, 310)","(999, 332)","(1006, 353)","(1019, 373)","(1035, 390)","(1054, 405)","(1075, 409)","(1097, 404)","(1118, 390)","(1137, 374)","(1152, 355)","(1160, 332)","(1163, 308)","(1164, 284)","(1166, 260)","(1003, 254)","(1010, 243)","(1023, 237)","(1038, 237)","(1052, 243)","(1089, 242)","(1103, 235)","(1120, 233)","(1135, 238)","(1145, 248)","(1070, 261)","(1070, 274)","(1069, 287)","(1068, 301)","(1053, 311)","(1061, 314)","(1069, 316)","(1079, 313)","(1088, 310)","(1023, 265)","(1031, 260)","(1042, 260)","(1052, 265)","(1042, 267)","(1031, 268)","(1094, 263)","(1104, 257)","(1115, 256)","(1124, 261)","(1115, 264)","(1105, 264)","(1032, 336)","(1045, 332)","(1059, 332)","(1069, 333)","(1080, 331)","(1097, 331)","(1113, 334)","(1099, 352)","(1083, 359)","(1071, 361)","(1060, 360)","(1045, 353)","(1037, 337)","(1059, 336)","(1070, 338)","(1081, 336)","(1108, 335)","(1082, 351)","(1071, 353)","(1060, 352)",0.25,0.96,96.0,0.34,-0.05,0.47,0.05,-7.0,0.1,0.27,66.5,85.4,139.9,48.75,57.15,136.85,39.52,54.35,99.11
8533,-1572864,127,-56,-1,-1,0,"(998, 263)","(998, 286)","(999, 309)","(1001, 331)","(1007, 353)","(1020, 373)","(1036, 390)","(1055, 405)","(1077, 409)","(1099, 404)","(1119, 390)","(1138, 375)","(1153, 356)","(1161, 334)","(1163, 310)","(1165, 286)","(1168, 261)","(1006, 253)","(1014, 243)","(1027, 237)","(1042, 238)","(1055, 244)","(1092, 242)","(1106, 235)","(1122, 234)","(1138, 238)","(1148, 248)","(1073, 262)","(1073, 275)","(1071, 287)","(1071, 301)","(1055, 311)","(1063, 314)","(1072, 316)","(1081, 313)","(1090, 310)","(1025, 265)","(1034, 260)","(1044, 260)","(1054, 265)","(1044, 267)","(1034, 267)","(1097, 264)","(1106, 257)","(1117, 257)","(1127, 261)","(1118, 265)","(1107, 265)","(1034, 337)","(1047, 333)","(1061, 332)","(1072, 334)","(1083, 331)","(1099, 331)","(1115, 334)","(1101, 351)","(1085, 359)","(1074, 360)","(1062, 360)","(1047, 353)","(1039, 337)","(1061, 337)","(1072, 338)","(1083, 337)","(1110, 335)","(1085, 351)","(1073, 352)","(1062, 351)",0.26,0.93,96.0,0.34,-0.03,0.47,0.05,-7.5,0.1,0.26,64.4,83.7,138.6,48.6,56.25,135.35,38.64,53.29,98.88
8566,-1835008,127,-56,-1,-1,0,"(999, 262)","(999, 285)","(1000, 308)","(1002, 330)","(1009, 353)","(1022, 373)","(1039, 390)","(1058, 405)","(1080, 410)","(1103, 404)","(1123, 390)","(1142, 373)","(1156, 354)","(1163, 331)","(1165, 307)","(1167, 283)","(1169, 258)","(1008, 252)","(1016, 243)","(1029, 237)","(1043, 238)","(1057, 244)","(1094, 243)","(1108, 236)","(1125, 235)","(1140, 239)","(1150, 249)","(1075, 261)","(1075, 274)","(1074, 288)","(1073, 301)","(1058, 311)","(1066, 314)","(1074, 317)","(1083, 314)","(1092, 310)","(1028, 264)","(1036, 259)","(1047, 259)","(1056, 265)","(1046, 267)","(1036, 267)","(1099, 264)","(1109, 257)","(1120, 257)","(1129, 261)","(1120, 265)","(1109, 265)","(1037, 337)","(1049, 334)","(1064, 333)","(1074, 334)","(1085, 332)","(1101, 332)","(1117, 335)","(1103, 352)","(1088, 360)","(1076, 361)","(1065, 360)","(1050, 354)","(1041, 338)","(1064, 338)","(1075, 339)","(1085, 337)","(1112, 336)","(1087, 352)","(1076, 353)","(1065, 352)",0.26,0.94,96.0,0.34,-0.02,0.47,0.05,-8.0,0.1,0.26,65.3,83.9,138.0,49.85,55.95,134.1,38.29,55.35,99.41
8600,-1376256,127,-56,-1,-1,0,"(1000, 264)","(1000, 287)","(1001, 310)","(1004, 332)","(1010, 354)","(1023, 374)","(1040, 391)","(1059, 406)","(1081, 411)","(1103, 406)","(1124, 391)","(1142, 375)","(1156, 355)","(1163, 333)","(1165, 308)","(1168, 284)","(1169, 260)","(1009, 254)","(1016, 243)","(1030, 238)","(1045, 238)","(1060, 244)","(1096, 243)","(1111, 236)","(1127, 235)","(1142, 240)","(1152, 250)","(1078, 262)","(1077, 275)","(1076, 288)","(1076, 302)","(1060, 312)","(1068, 315)","(1077, 318)","(1086, 314)","(1095, 311)","(1029, 266)","(1038, 260)","(1048, 260)","(1058, 266)","(1048, 268)","(1038, 268)","(1101, 264)","(1110, 258)","(1121, 257)","(1131, 262)","(1122, 265)","(1111, 266)","(1039, 337)","(1052, 334)","(1066, 333)","(1077, 335)","(1088, 333)","(1104, 332)","(1119, 335)","(1106, 353)","(1090, 361)","(1078, 362)","(1067, 362)","(1052, 355)","(1043, 338)","(1066, 338)","(1077, 339)","(1088, 337)","(1114, 336)","(1090, 353)","(1078, 355)","(1067, 354)",0.26,0.93,96.0,0.34,-0.03,0.47,0.05,-7.5,0.1,0.26,66.2,85.1,138.4,50.35,57.5,138.7,40.05,56.11,103.35
8633,7733248,127,-56,-1,-1,0,"(1001, 265)","(1001, 289)","(1003, 311)","(1005, 334)","(1012, 356)","(1025, 375)","(1042, 392)","(1062, 406)","(1084, 411)","(1107, 405)","(1127, 391)","(1145, 375)","(1159, 355)","(1166, 333)","(1167, 309)","(1169, 285)","(1171, 261)","(1010, 255)","(1018, 244)","(1031, 238)","(1047, 238)","(1061, 244)","(1098, 244)","(1113, 237)","(1129, 235)","(1144, 240)","(1154, 250)","(1080, 263)","(1079, 276)","(1078, 289)","(1078, 303)","(1062, 313)","(1070, 316)","(1079, 319)","(1088, 316)","(1097, 312)","(1030, 266)","(1039, 260)","(1050, 260)","(1060, 267)","(1049, 268)","(1039, 268)","(1103, 265)","(1113, 258)","(1124, 258)","(1134, 262)","(1124, 266)","(1113, 266)","(1040, 338)","(1053, 335)","(1068, 334)","(1079, 336)","(1090, 334)","(1106, 333)","(1122, 336)","(1108, 353)","(1092, 361)","(1080, 362)","(1069, 361)","(1054, 355)","(1045, 339)","(1068, 339)","(1079, 340)","(1090, 338)","(1116, 337)","(1091, 353)","(1080, 355)","(1069, 354)",0.25,0.92,96.0,0.35,-0.05,0.48,0.05,-8.0,0.1,0.27,66.9,86.2,139.9,49.05,56.25,136.15,42.0,58.0,105.35
8666,-1310720,127,-56,-1,-1,0,"(1002, 265)","(1002, 288)","(1003, 311)","(1005, 334)","(1013, 356)","(1026, 376)","(1044, 393)","(1063, 408)","(1085, 412)","(1107, 406)","(1128, 391)","(1147, 374)","(1162, 354)","(1169, 332)","(1172, 308)","(1174, 285)","(1175, 260)","(1013, 255)","(1020, 244)","(1033, 238)","(1048, 239)","(1063, 245)","(1101, 245)","(1116, 237)","(1132, 236)","(1147, 241)","(1157, 250)","(1081, 263)","(1081, 277)","(1080, 290)","(1080, 303)","(1064, 313)","(1072, 316)","(1081, 319)","(1090, 316)","(1099, 313)","(1032, 266)","(1041, 261)","(1051, 261)","(1062, 267)","(1051, 269)","(1041, 269)","(1105, 266)","(1114, 259)","(1125, 259)","(1135, 263)","(1126, 266)","(1115, 267)","(1041, 338)","(1055, 335)","(1070, 334)","(1080, 336)","(1091, 334)","(1107, 334)","(1122, 337)","(1108, 354)","(1092, 362)","(1081, 363)","(1070, 362)","(1054, 355)","(1046, 339)","(1070, 339)","(1081, 340)","(1091, 339)","(1117, 338)","(1092, 354)","(1081, 355)","(1070, 354)",0.25,0.9,96.0,0.34,-0.05,0.46,0.05,-7.5,0.1,0.26,68.5,87.0,142.4,48.65,54.75,133.85,44.76,60.76,106.82
8700,-983040,127,-56,-1,-1,0,"(1002, 266)","(1002, 289)","(1003, 312)","(1006, 335)","(1014, 357)","(1027, 378)","(1044, 395)","(1064, 409)","(1086, 413)","(1108, 408)","(1127, 393)","(1143, 376)","(1156, 357)","(1162, 335)","(1164, 312)","(1164, 289)","(1164, 266)","(1014, 254)","(1023, 244)","(1036, 239)","(1051, 240)","(1065, 247)","(1102, 246)","(1115, 239)","(1130, 237)","(1145, 241)","(1153, 251)","(1084, 264)","(1083, 278)","(1083, 291)","(1082, 305)","(1065, 315)","(1074, 318)","(1083, 321)","(1092, 318)","(1101, 314)","(1034, 267)","(1043, 262)","(1053, 262)","(1063, 268)","(1053, 269)","(1043, 269)","(1105, 267)","(1116, 260)","(1126, 260)","(1136, 264)","(1127, 267)","(1116, 268)","(1042, 338)","(1057, 336)","(1072, 335)","(1083, 337)","(1094, 335)","(1110, 335)","(1125, 337)","(1112, 355)","(1097, 363)","(1085, 365)","(1073, 364)","(1057, 357)","(1047, 340)","(1072, 340)","(1083, 342)","(1095, 340)","(1120, 339)","(1096, 355)","(1085, 356)","(1073, 355)",0.24,0.88,97.0,0.37,-0.01,0.51,0.05,-7.0,0.1,0.27,70.4,87.3,139.1,51.3,58.15,132.3,46.82,63.7,110.41
8733,-131072,127,-56,-1,-1,0,"(1001, 267)","(1002, 291)","(1004, 314)","(1008, 337)","(1016, 358)","(1030, 378)","(1047, 395)","(1066, 410)","(1088, 414)","(1110, 408)","(1129, 394)","(1145, 378)","(1158, 359)","(1164, 337)","(1166, 313)","(1168, 290)","(1169, 267)","(1015, 256)","(1024, 246)","(1037, 241)","(1053, 241)","(1067, 247)","(1103, 247)","(1116, 240)","(1131, 238)","(1146, 242)","(1156, 252)","(1085, 265)","(1085, 279)","(1084, 292)","(1083, 307)","(1066, 316)","(1075, 319)","(1085, 322)","(1094, 319)","(1103, 315)","(1035, 268)","(1044, 263)","(1054, 263)","(1064, 269)","(1054, 270)","(1044, 270)","(1107, 268)","(1117, 261)","(1128, 260)","(1138, 265)","(1129, 268)","(1118, 268)","(1043, 340)","(1058, 337)","(1073, 336)","(1084, 338)","(1095, 336)","(1111, 336)","(1127, 338)","(1114, 356)","(1099, 364)","(1087, 366)","(1075, 365)","(1058, 358)","(1048, 341)","(1073, 341)","(1085, 343)","(1096, 341)","(1122, 340)","(1098, 356)","(1086, 357)","(1074, 356)",0.24,0.89,97.0,0.35,-0.03,0.5,0.05,-7.0,0.1,0.28,69.3,87.2,138.1,51.55,60.4,134.05,45.11,62.47,109.35
8766,524288,127,-56,-1,-1,0,"(1004, 266)","(1005, 290)","(1006, 313)","(1008, 336)","(1015, 359)","(1029, 379)","(1046, 397)","(1067, 412)","(1090, 416)","(1112, 410)","(1132, 395)","(1151, 377)","(1164, 357)","(1170, 335)","(1172, 311)","(1173, 288)","(1174, 264)","(1015, 256)","(1024, 246)","(1037, 241)","(1052, 241)","(1067, 248)","(1105, 247)","(1119, 240)","(1135, 239)","(1149, 243)","(1159, 253)","(1086, 267)","(1086, 281)","(1085, 294)","(1084, 308)","(1068, 317)","(1077, 321)","(1086, 323)","(1095, 320)","(1103, 317)","(1035, 269)","(1044, 264)","(1055, 263)","(1065, 270)","(1055, 271)","(1044, 272)","(1109, 269)","(1119, 261)","(1130, 261)","(1139, 266)","(1130, 269)","(1119, 270)","(1045, 342)","(1059, 339)","(1074, 338)","(1085, 340)","(1096, 338)","(1112, 337)","(1128, 340)","(1114, 358)","(1099, 366)","(1087, 368)","(1075, 366)","(1059, 359)","(1050, 342)","(1075, 344)","(1086, 345)","(1097, 343)","(1122, 341)","(1098, 357)","(1087, 359)","(1075, 358)",0.28,0.9,96.0,0.35,-0.02,0.48,0.05,-7.5,0.1,0.27,72.1,89.8,141.1,55.1,63.15,135.8,43.47,59.11,103.58
8800,-262144,127,-56,-1,-1,0,"(1002, 271)","(1003, 295)","(1006, 318)","(1010, 341)","(1019, 363)","(1033, 382)","(1050, 399)","(1069, 413)","(1092, 417)","(1113, 411)","(1131, 395)","(1147, 379)","(1158, 360)","(1164, 338)","(1166, 315)","(1168, 293)","(1168, 270)","(1017, 257)","(1026, 248)","(1040, 243)","(1055, 244)","(1069, 250)","(1105, 250)","(1118, 243)","(1133, 241)","(1147, 244)","(1157, 254)","(1088, 267)","(1087, 281)","(1087, 295)","(1087, 310)","(1069, 319)","(1078, 322)","(1088, 325)","(1097, 321)","(1105, 318)","(1036, 270)","(1045, 265)","(1056, 265)","(1066, 271)","(1055, 273)","(1045, 273)","(1109, 271)","(1119, 263)","(1130, 263)","(1140, 267)","(1131, 271)","(1120, 271)","(1046, 343)","(1060, 340)","(1076, 340)","(1087, 341)","(1098, 339)","(1114, 338)","(1129, 341)","(1117, 358)","(1102, 366)","(1090, 368)","(1078, 367)","(1061, 360)","(1050, 344)","(1076, 345)","(1088, 346)","(1099, 344)","(1124, 342)","(1101, 358)","(1089, 360)","(1078, 359)",0.25,0.89,96.0,0.36,-0.02,0.5,0.05,-8.0,0.1,0.28,66.9,84.4,137.6,58.1,66.1,139.2,47.23,64.11,109.88
8833,-458752,127,-56,-1,-1,0,"(1001, 271)","(1002, 295)","(1005, 319)","(1010, 342)","(1019, 364)","(1034, 383)","(1051, 400)","(1071, 414)","(1093, 417)","(1114, 411)","(1132, 396)","(1148, 379)","(1159, 360)","(1165, 338)","(1167, 315)","(1168, 292)","(1168, 270)","(1016, 258)","(1026, 249)","(1040, 244)","(1056, 245)","(1070, 251)","(1105, 251)","(1118, 244)","(1133, 242)","(1147, 245)","(1157, 255)","(1088, 268)","(1088, 282)","(1088, 296)","(1088, 310)","(1070, 320)","(1079, 323)","(1089, 326)","(1098, 322)","(1107, 319)","(1037, 271)","(1046, 266)","(1056, 266)","(1066, 272)","(1056, 273)","(1046, 273)","(1109, 271)","(1119, 264)","(1130, 263)","(1140, 267)","(1131, 271)","(1120, 271)","(1047, 344)","(1062, 341)","(1077, 341)","(1089, 343)","(1099, 340)","(1115, 340)","(1130, 341)","(1117, 359)","(1103, 366)","(1091, 368)","(1079, 367)","(1063, 361)","(1052, 345)","(1078, 346)","(1089, 347)","(1100, 345)","(1125, 343)","(1102, 358)","(1090, 360)","(1079, 359)",0.24,0.87,96.0,0.36,-0.02,0.49,0.05,-7.0,0.11,0.28,67.3,84.6,136.4,54.15,61.9,135.35,45.11,62.88,108.17
8866,-262144,127,-56,-1,-1,0,"(1003, 271)","(1004, 296)","(1006, 319)","(1010, 342)","(1019, 364)","(1034, 384)","(1051, 401)","(1070, 415)","(1093, 418)","(1114, 412)","(1132, 397)","(1147, 380)","(1159, 361)","(1165, 339)","(1167, 316)","(1168, 293)","(1169, 271)","(1017, 259)","(1026, 249)","(1040, 244)","(1055, 245)","(1070, 251)","(1106, 251)","(1119, 244)","(1134, 242)","(1148, 245)","(1157, 255)","(1088, 268)","(1088, 283)","(1088, 297)","(1088, 311)","(1070, 321)","(1079, 324)","(1089, 327)","(1098, 323)","(1107, 320)","(1037, 272)","(1046, 267)","(1057, 267)","(1067, 273)","(1056, 274)","(1046, 274)","(1110, 272)","(1120, 264)","(1131, 264)","(1140, 268)","(1131, 272)","(1121, 272)","(1046, 344)","(1062, 342)","(1077, 341)","(1088, 343)","(1099, 341)","(1115, 340)","(1130, 342)","(1117, 360)","(1103, 368)","(1091, 370)","(1079, 369)","(1062, 362)","(1051, 346)","(1078, 347)","(1089, 348)","(1100, 346)","(1125, 344)","(1102, 359)","(1090, 361)","(1079, 360)",0.26,0.86,96.0,0.36,-0.03,0.5,0.05,-7.5,0.11,0.28,71.1,87.5,139.2,56.7,64.95,138.05,46.52,62.76,110.23
8900,-262144,127,-56,-1,-1,0,"(1002, 272)","(1003, 296)","(1005, 320)","(1010, 343)","(1019, 365)","(1033, 384)","(1051, 402)","(1071, 415)","(1093, 419)","(1115, 413)","(1132, 397)","(1148, 380)","(1160, 361)","(1165, 339)","(1167, 316)","(1168, 293)","(1168, 271)","(1016, 260)","(1025, 251)","(1039, 246)","(1055, 247)","(1069, 253)","(1104, 253)","(1118, 245)","(1132, 243)","(1147, 246)","(1157, 256)","(1088, 270)","(1088, 284)","(1087, 298)","(1087, 313)","(1070, 322)","(1079, 325)","(1088, 328)","(1097, 324)","(1106, 320)","(1036, 273)","(1045, 268)","(1056, 268)","(1066, 274)","(1055, 275)","(1045, 275)","(1109, 272)","(1119, 265)","(1130, 265)","(1139, 269)","(1130, 273)","(1120, 273)","(1046, 346)","(1061, 343)","(1077, 343)","(1088, 344)","(1099, 342)","(1114, 341)","(1130, 342)","(1117, 360)","(1103, 368)","(1091, 370)","(1079, 370)","(1062, 363)","(1051, 347)","(1077, 348)","(1088, 349)","(1100, 347)","(1124, 344)","(1102, 359)","(1090, 361)","(1079, 361)",0.26,0.86,96.0,0.36,-0.03,0.5,0.04,-7.5,0.1,0.28,67.5,85.9,136.7,53.85,61.1,133.7,44.17,62.23,108.52
8933,0,127,-56,-1,-1,0,"(1002, 273)","(1003, 297)","(1006, 321)","(1010, 344)","(1019, 365)","(1034, 385)","(1051, 402)","(1071, 415)","(1093, 419)","(1114, 413)","(1132, 397)","(1147, 380)","(1158, 361)","(1164, 339)","(1166, 316)","(1167, 293)","(1167, 271)","(1016, 260)","(1025, 251)","(1039, 247)","(1054, 247)","(1069, 253)","(1104, 253)","(1117, 246)","(1132, 243)","(1147, 246)","(1156, 256)","(1087, 270)","(1087, 284)","(1087, 298)","(1087, 313)","(1070, 323)","(1079, 326)","(1088, 328)","(1097, 325)","(1106, 321)","(1036, 274)","(1045, 268)","(1055, 269)","(1066, 274)","(1055, 276)","(1045, 276)","(1108, 273)","(1118, 265)","(1129, 265)","(1139, 269)","(1130, 273)","(1119, 273)","(1047, 346)","(1061, 344)","(1077, 343)","(1088, 345)","(1098, 342)","(1114, 342)","(1129, 343)","(1116, 361)","(1102, 369)","(1091, 372)","(1079, 371)","(1062, 364)","(1051, 347)","(1077, 348)","(1088, 349)","(1099, 347)","(1124, 345)","(1101, 360)","(1090, 362)","(1078, 361)",0.25,0.88,96.0,0.37,-0.03,0.49,0.05,-8.0,0.11,0.28,71.0,88.8,140.4,51.5,58.25,132.8,47.82,66.82,114.0
8966,-327680,127,-56,-1,-1,0,"(1005, 272)","(1006, 296)","(1007, 319)","(1010, 342)","(1017, 364)","(1032, 384)","(1050, 401)","(1070, 415)","(1092, 419)","(1115, 413)","(1135, 397)","(1152, 379)","(1165, 358)","(1171, 334)","(1173, 311)","(1174, 288)","(1174, 264)","(1015, 262)","(1022, 251)","(1036, 246)","(1051, 246)","(1066, 253)","(1104, 252)","(1118, 244)","(1135, 242)","(1149, 246)","(1159, 256)","(1086, 271)","(1086, 285)","(1086, 299)","(1086, 314)","(1068, 323)","(1077, 326)","(1086, 328)","(1095, 325)","(1105, 321)","(1035, 275)","(1043, 270)","(1054, 270)","(1064, 275)","(1054, 277)","(1043, 278)","(1109, 273)","(1119, 267)","(1129, 266)","(1140, 270)","(1130, 273)","(1119, 274)","(1047, 347)","(1061, 344)","(1075, 343)","(1086, 345)","(1097, 342)","(1113, 342)","(1128, 343)","(1115, 361)","(1100, 369)","(1089, 371)","(1077, 370)","(1061, 363)","(1052, 348)","(1076, 349)","(1087, 350)","(1097, 348)","(1123, 345)","(1099, 361)","(1088, 363)","(1076, 362)",0.22,0.9,96.0,0.35,-0.05,0.47,0.04,-6.5,0.11,0.29,73.7,91.2,142.8,53.2,59.5,136.05,43.35,59.41,106.7
9000,-327680,127,-56,-1,-1,0,"(1004, 271)","(1005, 295)","(1006, 318)","(1009, 341)","(1017, 364)","(1031, 384)","(1049, 401)","(1070, 415)","(1092, 419)","(1115, 412)","(1135, 396)","(1153, 378)","(1166, 356)","(1172, 333)","(1173, 310)","(1173, 287)","(1173, 263)","(1015, 262)","(1023, 252)","(1036, 247)","(1051, 248)","(1066, 254)","(1103, 253)","(1117, 245)","(1133, 242)","(1148, 246)","(1158, 255)","(1085, 272)","(1085, 286)","(1085, 300)","(1085, 315)","(1068, 324)","(1077, 327)","(1086, 329)","(1095, 326)","(1104, 322)","(1034, 276)","(1042, 271)","(1053, 270)","(1063, 276)","(1053, 278)","(1042, 278)","(1108, 273)","(1118, 267)","(1129, 266)","(1139, 269)","(1129, 273)","(1119, 274)","(1047, 347)","(1060, 345)","(1076, 344)","(1086, 346)","(1097, 343)","(1113, 342)","(1128, 343)","(1115, 362)","(1100, 370)","(1088, 372)","(1077, 371)","(1061, 364)","(1052, 348)","(1076, 350)","(1087, 351)","(1097, 349)","(1123, 345)","(1099, 361)","(1088, 363)","(1076, 362)",0.22,0.9,96.0,0.35,-0.05,0.47,0.04,-6.5,0.11,0.29,72.0,89.1,140.6,53.75,61.7,137.5,43.94,59.23,105.05
9033,9043968,127,-56,-1,-1,0,"(1000, 274)","(1002, 298)","(1005, 322)","(1009, 345)","(1018, 367)","(1032, 386)","(1050, 403)","(1070, 416)","(1093, 419)","(1114, 413)","(1132, 397)","(1147, 380)","(1159, 361)","(1164, 339)","(1165, 315)","(1166, 292)","(1166, 269)","(1013, 264)","(1021, 254)","(1035, 249)","(1051, 249)","(1066, 255)","(1101, 254)","(1114, 246)","(1129, 244)","(1144, 246)","(1154, 256)","(1084, 271)","(1084, 286)","(1084, 300)","(1085, 315)","(1067, 324)","(1076, 327)","(1086, 329)","(1095, 326)","(1104, 322)","(1033, 275)","(1042, 270)","(1053, 270)","(1063, 276)","(1052, 277)","(1042, 278)","(1106, 273)","(1115, 265)","(1126, 265)","(1136, 269)","(1127, 273)","(1117, 274)","(1046, 348)","(1060, 346)","(1075, 345)","(1086, 346)","(1097, 343)","(1112, 342)","(1128, 343)","(1115, 360)","(1101, 368)","(1089, 371)","(1078, 370)","(1061, 364)","(1051, 349)","(1075, 350)","(1087, 351)","(1098, 348)","(1123, 345)","(1100, 360)","(1088, 362)","(1077, 361)",0.28,0.88,96.0,0.36,-0.06,0.49,0.04,-7.5,0.12,0.29,68.6,85.9,137.3,54.1,62.4,134.8,45.7,63.35,111.7
9066,0,127,-56,-1,-1,0,"(1000, 274)","(1002, 298)","(1004, 321)","(1008, 344)","(1017, 366)","(1031, 385)","(1049, 402)","(1069, 415)","(1091, 418)","(1112, 412)","(1130, 396)","(1146, 379)","(1158, 360)","(1163, 338)","(1164, 315)","(1165, 292)","(1165, 268)","(1011, 264)","(1020, 254)","(1033, 249)","(1049, 249)","(1064, 255)","(1101, 254)","(1114, 246)","(1129, 243)","(1144, 246)","(1154, 255)","(1083, 272)","(1083, 286)","(1083, 300)","(1083, 315)","(1067, 324)","(1076, 327)","(1085, 329)","(1094, 325)","(1102, 322)","(1032, 275)","(1040, 270)","(1051, 270)","(1062, 276)","(1051, 278)","(1040, 278)","(1105, 273)","(1115, 265)","(1126, 264)","(1136, 269)","(1127, 273)","(1116, 274)","(1045, 347)","(1059, 345)","(1074, 345)","(1085, 346)","(1096, 343)","(1111, 342)","(1127, 343)","(1114, 361)","(1100, 368)","(1088, 371)","(1077, 370)","(1061, 364)","(1050, 349)","(1075, 349)","(1086, 350)","(1097, 348)","(1121, 345)","(1098, 360)","(1087, 362)","(1076, 361)",0.28,0.89,96.0,0.37,-0.07,0.49,0.05,-8.0,0.11,0.29,69.4,86.8,137.9,50.35,58.15,129.45,46.7,65.41,113.7
9100,-65536,127,-56,-1,-1,0,"(999, 276)","(1001, 300)","(1004, 323)","(1008, 346)","(1017, 368)","(1031, 387)","(1049, 403)","(1069, 415)","(1091, 418)","(1112, 411)","(1130, 396)","(1146, 380)","(1158, 361)","(1163, 339)","(1164, 315)","(1164, 292)","(1164, 269)","(1010, 264)","(1018, 254)","(1032, 249)","(1047, 250)","(1062, 255)","(1099, 254)","(1112, 246)","(1126, 243)","(1141, 246)","(1151, 255)","(1081, 272)","(1081, 286)","(1082, 301)","(1082, 315)","(1065, 325)","(1074, 327)","(1084, 330)","(1092, 326)","(1101, 322)","(1030, 276)","(1039, 271)","(1050, 271)","(1060, 277)","(1049, 279)","(1039, 279)","(1103, 274)","(1113, 266)","(1124, 265)","(1134, 269)","(1125, 273)","(1114, 274)","(1045, 349)","(1058, 347)","(1073, 345)","(1084, 347)","(1095, 344)","(1110, 343)","(1125, 343)","(1113, 360)","(1099, 368)","(1088, 370)","(1076, 370)","(1060, 364)","(1049, 350)","(1074, 350)","(1085, 351)","(1096, 349)","(1120, 345)","(1098, 359)","(1086, 362)","(1075, 361)",0.25,0.89,97.0,0.37,-0.07,0.48,0.04,-7.5,0.12,0.29,68.5,86.2,138.0,48.6,55.6,132.55,47.88,64.7,113.94
9133,589824,127,-56,-1,-1,0,"(1001, 274)","(1002, 298)","(1004, 320)","(1007, 343)","(1015, 365)","(1029, 385)","(1047, 401)","(1068, 415)","(1091, 418)","(1113, 411)","(1133, 396)","(1150, 378)","(1163, 357)","(1168, 334)","(1168, 311)","(1168, 287)","(1167, 263)","(1008, 264)","(1015, 253)","(1029, 248)","(1045, 249)","(1060, 255)","(1098, 254)","(1112, 245)","(1128, 243)","(1143, 246)","(1153, 255)","(1080, 273)","(1080, 288)","(1080, 302)","(1080, 317)","(1064, 325)","(1073, 328)","(1082, 331)","(1091, 327)","(1100, 323)","(1029, 277)","(1037, 272)","(1048, 272)","(1059, 277)","(1048, 279)","(1037, 280)","(1103, 274)","(1113, 267)","(1124, 267)","(1134, 270)","(1125, 274)","(1114, 275)","(1045, 350)","(1059, 348)","(1073, 347)","(1083, 348)","(1094, 345)","(1109, 343)","(1125, 343)","(1112, 360)","(1098, 368)","(1087, 370)","(1075, 370)","(1060, 365)","(1051, 351)","(1074, 352)","(1084, 353)","(1095, 350)","(1119, 345)","(1097, 360)","(1086, 362)","(1075, 362)",0.24,0.89,97.0,0.36,-0.07,0.48,0.03,-7.0,0.12,0.3,72.9,91.5,143.4,51.25,58.65,131.4,49.41,66.0,112.82
9166,1441792,127,-56,-1,-1,0,"(995, 281)","(998, 304)","(1002, 327)","(1007, 350)","(1016, 371)","(1031, 389)","(1048, 404)","(1068, 416)","(1090, 419)","(1111, 412)","(1129, 397)","(1145, 380)","(1157, 361)","(1163, 339)","(1164, 316)","(1165, 293)","(1166, 270)","(1008, 267)","(1018, 257)","(1031, 253)","(1046, 253)","(1060, 258)","(1095, 256)","(1108, 248)","(1122, 245)","(1137, 247)","(1149, 255)","(1078, 273)","(1079, 288)","(1079, 302)","(1079, 317)","(1063, 327)","(1072, 330)","(1081, 332)","(1090, 328)","(1099, 324)","(1028, 279)","(1037, 273)","(1047, 272)","(1058, 279)","(1048, 281)","(1037, 281)","(1101, 275)","(1110, 267)","(1121, 265)","(1131, 270)","(1123, 274)","(1112, 275)","(1043, 352)","(1057, 349)","(1071, 348)","(1082, 349)","(1092, 346)","(1108, 344)","(1124, 344)","(1111, 361)","(1097, 369)","(1086, 372)","(1075, 372)","(1059, 366)","(1048, 353)","(1072, 353)","(1083, 353)","(1093, 350)","(1119, 346)","(1096, 360)","(1085, 363)","(1074, 363)",0.28,0.91,97.0,0.35,-0.09,0.47,0.04,-7.5,0.12,0.3,65.5,81.8,134.9,53.85,61.25,136.8,44.52,62.23,109.76
9200,131072,127,-56,-1,-1,0,"(995, 281)","(997, 304)","(1001, 328)","(1006, 350)","(1015, 371)","(1029, 390)","(1047, 405)","(1066, 417)","(1088, 419)","(1110, 413)","(1128, 397)","(1144, 381)","(1156, 362)","(1162, 340)","(1163, 317)","(1164, 294)","(1165, 270)","(1007, 267)","(1017, 258)","(1030, 254)","(1044, 255)","(1058, 260)","(1092, 258)","(1105, 251)","(1119, 248)","(1134, 249)","(1146, 257)","(1076, 274)","(1077, 289)","(1077, 304)","(1078, 319)","(1062, 328)","(1070, 331)","(1079, 333)","(1088, 329)","(1096, 325)","(1027, 279)","(1035, 273)","(1046, 273)","(1056, 279)","(1046, 281)","(1035, 282)","(1099, 276)","(1108, 267)","(1119, 266)","(1129, 270)","(1120, 274)","(1110, 276)","(1043, 353)","(1056, 350)","(1070, 349)","(1081, 350)","(1091, 347)","(1106, 345)","(1122, 346)","(1109, 362)","(1096, 370)","(1084, 373)","(1073, 373)","(1058, 368)","(1048, 354)","(1071, 354)","(1081, 354)","(1092, 352)","(1117, 348)","(1094, 362)","(1083, 364)","(1073, 364)",0.28,0.9,97.0,0.34,-0.07,0.46,0.04,-7.5,0.11,0.31,60.7,78.2,130.8,55.45,62.9,136.55,45.52,61.82,108.05
9233,-327680,127,-56,-1,-1,0,"(995, 279)","(998, 303)","(1001, 326)","(1006, 349)","(1014, 370)","(1028, 389)","(1046, 405)","(1067, 417)","(1089, 419)","(1111, 412)","(1129, 397)","(1146, 380)","(1157, 360)","(1162, 337)","(1162, 313)","(1162, 290)","(1161, 267)","(1005, 270)","(1013, 260)","(1026, 255)","(1041, 255)","(1056, 259)","(1092, 256)","(1105, 248)","(1120, 245)","(1135, 247)","(1147, 255)","(1075, 275)","(1076, 289)","(1076, 304)","(1076, 319)","(1061, 329)","(1070, 331)","(1079, 333)","(1088, 329)","(1096, 325)","(1025, 281)","(1034, 275)","(1044, 275)","(1055, 280)","(1045, 282)","(1034, 283)","(1098, 275)","(1108, 267)","(1119, 266)","(1129, 270)","(1120, 274)","(1109, 275)","(1043, 354)","(1056, 351)","(1070, 350)","(1080, 350)","(1090, 347)","(1106, 346)","(1122, 346)","(1109, 363)","(1095, 371)","(1084, 373)","(1073, 373)","(1058, 368)","(1048, 355)","(1071, 355)","(1081, 355)","(1092, 352)","(1116, 348)","(1094, 362)","(1083, 365)","(1072, 365)",0.25,0.93,97.0,0.36,-0.11,0.47,0.03,-7.0,0.12,0.3,68.1,85.1,137.9,57.35,63.35,137.75,45.88,63.0,109.47
9266,-458752,127,-56,-1,-1,0,"(995, 280)","(998, 304)","(1002, 327)","(1006, 349)","(1015, 371)","(1029, 390)","(1046, 405)","(1067, 418)","(1089, 420)","(1111, 413)","(1129, 397)","(1145, 380)","(1157, 360)","(1161, 337)","(1161, 314)","(1161, 291)","(1160, 267)","(1004, 270)","(1012, 260)","(1025, 255)","(1039, 254)","(1054, 259)","(1091, 256)","(1104, 248)","(1119, 245)","(1134, 246)","(1145, 254)","(1074, 275)","(1075, 290)","(1075, 304)","(1076, 319)","(1061, 329)","(1069, 332)","(1078, 333)","(1087, 330)","(1095, 326)","(1024, 281)","(1032, 275)","(1043, 274)","(1054, 280)","(1044, 283)","(1033, 284)","(1098, 276)","(1107, 267)","(1118, 266)","(1128, 270)","(1120, 274)","(1109, 276)","(1043, 355)","(1056, 352)","(1069, 350)","(1080, 351)","(1090, 347)","(1105, 346)","(1121, 346)","(1109, 363)","(1095, 371)","(1084, 374)","(1073, 374)","(1058, 369)","(1048, 356)","(1070, 355)","(1081, 355)","(1091, 353)","(1116, 348)","(1093, 362)","(1083, 365)","(1072, 365)",0.28,0.92,97.0,0.36,-0.12,0.47,0.04,-7.5,0.12,0.3,70.5,89.1,141.0,57.35,63.05,139.85,46.76,63.82,113.76
9300,-786432,127,-56,-1,-1,0,"(994, 280)","(997, 303)","(1001, 326)","(1005, 349)","(1014, 370)","(1028, 389)","(1045, 405)","(1066, 418)","(1088, 420)","(1110, 413)","(1129, 397)","(1145, 380)","(1156, 359)","(1161, 337)","(1161, 313)","(1161, 290)","(1160, 266)","(1003, 270)","(1011, 260)","(1024, 255)","(1039, 255)","(1053, 260)","(1089, 257)","(1103, 248)","(1118, 245)","(1133, 246)","(1145, 255)","(1073, 276)","(1073, 290)","(1073, 305)","(1074, 320)","(1059, 330)","(1067, 332)","(1077, 334)","(1085, 330)","(1094, 326)","(1023, 282)","(1031, 276)","(1042, 275)","(1053, 281)","(1042, 284)","(1032, 285)","(1096, 276)","(1106, 268)","(1117, 266)","(1127, 270)","(1118, 275)","(1107, 276)","(1041, 355)","(1054, 352)","(1068, 350)","(1078, 351)","(1088, 348)","(1104, 346)","(1120, 346)","(1108, 363)","(1094, 372)","(1083, 374)","(1072, 375)","(1057, 370)","(1047, 356)","(1069, 356)","(1079, 356)","(1089, 353)","(1115, 348)","(1092, 363)","(1081, 365)","(1071, 365)",0.27,0.93,97.0,0.36,-0.11,0.47,0.03,-7.5,0.12,0.3,71.5,89.2,141.9,56.3,65.45,137.0,45.88,61.94,110.76
9333,-589824,127,-56,-1,-1,0,"(994, 281)","(997, 304)","(1001, 326)","(1006, 349)","(1014, 370)","(1028, 389)","(1046, 405)","(1066, 418)","(1088, 420)","(1111, 413)","(1129, 397)","(1146, 379)","(1157, 359)","(1161, 336)","(1161, 312)","(1160, 288)","(1159, 265)","(1003, 271)","(1010, 261)","(1023, 256)","(1038, 256)","(1053, 261)","(1089, 258)","(1102, 249)","(1117, 245)","(1132, 246)","(1144, 254)","(1072, 276)","(1072, 290)","(1073, 305)","(1073, 320)","(1059, 330)","(1067, 332)","(1076, 334)","(1085, 330)","(1093, 326)","(1022, 282)","(1030, 276)","(1041, 275)","(1052, 281)","(1042, 284)","(1031, 285)","(1095, 276)","(1105, 267)","(1116, 266)","(1126, 270)","(1118, 275)","(1106, 276)","(1042, 356)","(1054, 353)","(1068, 351)","(1078, 351)","(1088, 348)","(1103, 347)","(1119, 346)","(1107, 363)","(1093, 371)","(1082, 374)","(1071, 374)","(1057, 369)","(1047, 356)","(1069, 356)","(1079, 356)","(1089, 353)","(1114, 348)","(1091, 362)","(1081, 365)","(1070, 365)",0.28,0.93,97.0,0.37,-0.13,0.46,0.03,-8.0,0.12,0.3,70.9,88.0,139.1,52.15,60.45,135.95,45.29,61.94,111.0
9366,-1048576,127,-56,-1,-1,0,"(995, 281)","(998, 304)","(1001, 326)","(1006, 348)","(1014, 370)","(1028, 389)","(1045, 404)","(1065, 417)","(1088, 419)","(1110, 412)","(1129, 396)","(1145, 379)","(1156, 358)","(1160, 335)","(1160, 311)","(1159, 288)","(1158, 264)","(1002, 272)","(1009, 262)","(1022, 257)","(1037, 257)","(1051, 261)","(1087, 258)","(1100, 249)","(1116, 245)","(1131, 247)","(1143, 255)","(1071, 276)","(1071, 291)","(1072, 306)","(1072, 321)","(1058, 330)","(1066, 333)","(1075, 335)","(1084, 331)","(1092, 326)","(1022, 283)","(1030, 276)","(1041, 276)","(1051, 282)","(1041, 284)","(1030, 286)","(1094, 276)","(1103, 267)","(1115, 266)","(1125, 270)","(1116, 275)","(1105, 276)","(1042, 356)","(1055, 353)","(1067, 351)","(1077, 352)","(1086, 349)","(1101, 347)","(1118, 346)","(1105, 362)","(1092, 370)","(1081, 373)","(1071, 373)","(1057, 369)","(1047, 357)","(1068, 356)","(1078, 357)","(1088, 354)","(1113, 348)","(1090, 362)","(1080, 364)","(1070, 364)",0.28,0.94,97.0,0.36,-0.13,0.46,0.03,-8.0,0.12,0.31,68.6,86.6,137.2,51.85,59.3,135.05,47.47,63.35,112.05
9400,-1179648,127,-56,-1,-1,0,"(994, 285)","(997, 308)","(1002, 330)","(1007, 352)","(1016, 373)","(1030, 390)","(1047, 405)","(1066, 417)","(1088, 419)","(1109, 412)","(1127, 397)","(1144, 380)","(1156, 361)","(1161, 339)","(1162, 315)","(1162, 291)","(1162, 267)","(1003, 272)","(1011, 262)","(1024, 257)","(1038, 257)","(1053, 262)","(1086, 259)","(1099, 251)","(1114, 247)","(1130, 248)","(1142, 256)","(1070, 276)","(1071, 291)","(1071, 305)","(1072, 321)","(1058, 330)","(1066, 333)","(1075, 335)","(1084, 330)","(1092, 326)","(1022, 283)","(1031, 277)","(1041, 276)","(1052, 282)","(1042, 284)","(1031, 285)","(1094, 276)","(1103, 268)","(1114, 266)","(1124, 270)","(1115, 275)","(1105, 276)","(1043, 356)","(1055, 354)","(1067, 352)","(1077, 353)","(1087, 349)","(1102, 347)","(1118, 346)","(1106, 362)","(1092, 370)","(1082, 372)","(1072, 373)","(1058, 369)","(1047, 357)","(1068, 357)","(1078, 357)","(1088, 354)","(1113, 348)","(1090, 361)","(1080, 364)","(1070, 364)",0.28,0.96,97.0,0.35,-0.12,0.44,0.03,-7.0,0.13,0.31,62.6,79.4,132.2,51.8,58.7,135.9,48.64,64.88,112.0
9433,7208960,127,-56,-1,-1,0,"(994, 282)","(997, 305)","(1002, 327)","(1007, 349)","(1015, 370)","(1029, 388)","(1046, 404)","(1066, 417)","(1088, 419)","(1109, 412)","(1128, 396)","(1146, 379)","(1159, 359)","(1165, 337)","(1167, 313)","(1167, 289)","(1167, 264)","(1001, 272)","(1008, 262)","(1021, 257)","(1036, 257)","(1050, 262)","(1086, 258)","(1099, 249)","(1115, 245)","(1131, 247)","(1143, 255)","(1069, 276)","(1070, 291)","(1070, 305)","(1071, 320)","(1058, 331)","(1065, 333)","(1074, 335)","(1082, 331)","(1091, 327)","(1022, 283)","(1030, 277)","(1041, 276)","(1051, 282)","(1041, 285)","(1031, 286)","(1094, 276)","(1103, 268)","(1114, 266)","(1124, 270)","(1115, 275)","(1104, 276)","(1042, 356)","(1055, 354)","(1067, 352)","(1076, 353)","(1085, 350)","(1100, 348)","(1117, 346)","(1104, 361)","(1091, 369)","(1080, 372)","(1071, 372)","(1057, 368)","(1048, 357)","(1068, 358)","(1077, 358)","(1087, 355)","(1111, 348)","(1089, 360)","(1079, 363)","(1069, 363)",0.27,0.95,96.0,0.34,-0.12,0.43,0.02,-7.5,0.12,0.3,67.0,84.9,141.3,48.1,55.6,131.25,44.41,61.0,111.05
9466,-720896,127,-56,-1,-1,0,"(995, 284)","(999, 307)","(1003, 329)","(1008, 351)","(1016, 372)","(1030, 389)","(1047, 404)","(1066, 416)","(1088, 418)","(1109, 412)","(1128, 397)","(1144, 380)","(1156, 361)","(1161, 338)","(1162, 315)","(1162, 291)","(1163, 267)","(1004, 272)","(1012, 262)","(1024, 257)","(1038, 258)","(1052, 262)","(1086, 259)","(1099, 251)","(1114, 247)","(1130, 248)","(1142, 256)","(1071, 276)","(1071, 291)","(1071, 305)","(1072, 321)","(1058, 331)","(1066, 333)","(1075, 335)","(1083, 331)","(1091, 327)","(1023, 283)","(1031, 277)","(1042, 276)","(1052, 282)","(1042, 285)","(1032, 286)","(1094, 277)","(1104, 268)","(1115, 267)","(1125, 271)","(1116, 276)","(1105, 277)","(1044, 357)","(1056, 354)","(1067, 352)","(1077, 353)","(1086, 349)","(1100, 348)","(1117, 347)","(1105, 361)","(1092, 368)","(1081, 371)","(1072, 371)","(1058, 368)","(1049, 358)","(1068, 358)","(1078, 358)","(1087, 355)","(1112, 349)","(1090, 359)","(1080, 361)","(1070, 362)",0.28,0.96,96.0,0.35,-0.12,0.43,0.02,-8.0,0.11,0.31,56.9,76.0,133.5,48.6,56.2,135.2,43.88,61.76,112.17
9500,-983040,127,-56,-1,-1,0,"(995, 284)","(999, 307)","(1003, 329)","(1009, 351)","(1018, 371)","(1031, 389)","(1048, 404)","(1067, 416)","(1088, 418)","(1110, 411)","(1128, 396)","(1145, 380)","(1156, 361)","(1162, 339)","(1163, 315)","(1164, 291)","(1164, 268)","(1004, 271)","(1012, 261)","(1025, 257)","(1039, 257)","(1053, 262)","(1086, 259)","(1100, 251)","(1115, 247)","(1130, 247)","(1143, 255)","(1071, 276)","(1071, 291)","(1072, 305)","(1072, 321)","(1059, 331)","(1067, 333)","(1075, 335)","(1084, 331)","(1092, 327)","(1024, 283)","(1032, 277)","(1043, 276)","(1053, 282)","(1043, 284)","(1032, 286)","(1095, 277)","(1104, 268)","(1115, 267)","(1125, 270)","(1117, 275)","(1106, 277)","(1045, 357)","(1056, 354)","(1068, 352)","(1077, 353)","(1087, 349)","(1101, 348)","(1117, 347)","(1105, 362)","(1092, 369)","(1082, 372)","(1072, 372)","(1059, 368)","(1050, 358)","(1069, 358)","(1078, 358)","(1088, 355)","(1112, 349)","(1090, 360)","(1081, 362)","(1071, 362)",0.28,0.96,96.0,0.35,-0.12,0.42,0.02,-7.0,0.12,0.31,60.5,80.1,135.2,53.35,59.75,138.9,48.82,65.47,114.29
9533,-327680,127,-56,-1,-1,0,"(997, 282)","(999, 304)","(1003, 326)","(1007, 347)","(1015, 367)","(1028, 384)","(1045, 397)","(1064, 407)","(1084, 408)","(1104, 403)","(1121, 390)","(1134, 373)","(1144, 355)","(1148, 334)","(1149, 313)","(1149, 291)","(1147, 269)","(1006, 270)","(1013, 259)","(1027, 255)","(1042, 256)","(1057, 261)","(1087, 259)","(1100, 250)","(1115, 246)","(1129, 246)","(1139, 256)","(1073, 277)","(1074, 291)","(1075, 305)","(1076, 319)","(1061, 330)","(1069, 332)","(1077, 334)","(1086, 330)","(1094, 327)","(1024, 282)","(1033, 276)","(1044, 275)","(1054, 282)","(1044, 285)","(1033, 286)","(1094, 277)","(1104, 269)","(1114, 267)","(1123, 272)","(1116, 277)","(1105, 278)","(1047, 357)","(1058, 353)","(1070, 350)","(1079, 351)","(1087, 348)","(1100, 349)","(1113, 351)","(1103, 365)","(1091, 372)","(1081, 374)","(1072, 374)","(1060, 369)","(1053, 358)","(1071, 356)","(1080, 356)","(1088, 354)","(1108, 352)","(1090, 362)","(1081, 364)","(1072, 364)",0.32,0.89,96.0,0.39,-0.11,0.44,0.04,-8.5,0.14,0.32,66.0,84.9,141.3,46.8,53.65,134.7,60.94,79.11,130.94
9566,262144,127,-56,-1,-1,0,"(998, 281)","(1000, 304)","(1004, 325)","(1008, 347)","(1017, 367)","(1030, 384)","(1047, 397)","(1066, 407)","(1087, 408)","(1106, 403)","(1123, 389)","(1136, 373)","(1145, 354)","(1150, 334)","(1150, 312)","(1150, 290)","(1148, 268)","(1007, 269)","(1014, 258)","(1028, 254)","(1042, 255)","(1056, 260)","(1088, 257)","(1101, 249)","(1115, 245)","(1130, 245)","(1140, 254)","(1074, 276)","(1075, 290)","(1076, 304)","(1077, 318)","(1062, 329)","(1070, 331)","(1078, 333)","(1087, 330)","(1095, 326)","(1025, 282)","(1033, 275)","(1044, 274)","(1054, 281)","(1044, 284)","(1033, 285)","(1095, 277)","(1104, 268)","(1115, 267)","(1124, 271)","(1117, 276)","(1106, 277)","(1048, 357)","(1059, 353)","(1071, 349)","(1080, 351)","(1089, 348)","(1101, 348)","(1114, 351)","(1104, 365)","(1093, 373)","(1083, 375)","(1074, 375)","(1061, 370)","(1053, 358)","(1072, 356)","(1081, 356)","(1090, 354)","(1109, 352)","(1091, 363)","(1082, 365)","(1073, 365)",0.31,0.88,96.0,0.38,-0.11,0.44,0.04,-8.5,0.14,0.31,67.8,86.8,141.8,52.75,59.5,132.2,61.47,80.41,132.88
9600,-655360,127,-56,-1,-1,0,"(998, 282)","(1000, 305)","(1003, 327)","(1008, 348)","(1017, 368)","(1030, 385)","(1047, 398)","(1066, 407)","(1087, 409)","(1106, 403)","(1123, 390)","(1136, 375)","(1145, 356)","(1150, 336)","(1150, 314)","(1150, 293)","(1148, 271)","(1008, 269)","(1015, 258)","(1029, 253)","(1043, 254)","(1058, 260)","(1090, 258)","(1102, 249)","(1116, 245)","(1130, 245)","(1140, 254)","(1075, 275)","(1076, 289)","(1076, 303)","(1077, 318)","(1062, 329)","(1070, 331)","(1079, 332)","(1087, 329)","(1095, 326)","(1026, 281)","(1034, 275)","(1045, 274)","(1055, 281)","(1045, 283)","(1034, 284)","(1096, 276)","(1105, 268)","(1116, 267)","(1125, 271)","(1117, 276)","(1106, 277)","(1049, 358)","(1060, 353)","(1072, 349)","(1080, 350)","(1089, 347)","(1102, 348)","(1115, 351)","(1105, 365)","(1093, 372)","(1084, 374)","(1074, 375)","(1061, 370)","(1054, 358)","(1072, 356)","(1081, 356)","(1090, 354)","(1110, 352)","(1092, 362)","(1083, 364)","(1073, 364)",0.3,0.89,96.0,0.38,-0.12,0.44,0.04,-8.0,0.13,0.32,66.3,85.7,141.0,53.95,61.6,130.6,57.58,76.0,129.29
9633,-983040,126,-56,-1,-1,0,"(998, 281)","(999, 304)","(1003, 326)","(1008, 348)","(1017, 368)","(1030, 385)","(1046, 398)","(1066, 408)","(1086, 409)","(1106, 403)","(1121, 390)","(1134, 374)","(1143, 355)","(1148, 335)","(1149, 313)","(1149, 292)","(1146, 271)","(1008, 268)","(1016, 258)","(1030, 254)","(1045, 255)","(1059, 261)","(1090, 258)","(1102, 250)","(1116, 245)","(1130, 246)","(1139, 255)","(1075, 276)","(1076, 290)","(1077, 304)","(1078, 318)","(1063, 329)","(1071, 331)","(1080, 333)","(1088, 330)","(1095, 326)","(1026, 281)","(1034, 275)","(1045, 274)","(1055, 281)","(1046, 284)","(1035, 285)","(1095, 277)","(1104, 269)","(1115, 267)","(1124, 272)","(1117, 277)","(1106, 278)","(1049, 358)","(1060, 353)","(1072, 350)","(1081, 351)","(1089, 348)","(1102, 348)","(1114, 351)","(1104, 366)","(1093, 373)","(1084, 375)","(1074, 375)","(1061, 371)","(1054, 358)","(1073, 356)","(1082, 356)","(1090, 354)","(1109, 353)","(1092, 363)","(1083, 365)","(1074, 365)",0.32,0.88,96.0,0.39,-0.09,0.43,0.04,-8.5,0.13,0.31,63.3,82.8,138.4,54.85,61.7,131.7,53.76,72.64,122.0
9666,-983040,126,-56,-1,-1,0,"(999, 282)","(1000, 305)","(1004, 327)","(1008, 348)","(1017, 368)","(1030, 385)","(1046, 399)","(1065, 409)","(1086, 410)","(1106, 405)","(1122, 391)","(1135, 375)","(1144, 357)","(1149, 336)","(1150, 315)","(1150, 293)","(1148, 272)","(1009, 269)","(1017, 258)","(1031, 254)","(1046, 255)","(1060, 261)","(1090, 259)","(1103, 250)","(1117, 246)","(1131, 247)","(1141, 256)","(1076, 276)","(1076, 290)","(1077, 304)","(1078, 318)","(1063, 329)","(1071, 331)","(1079, 333)","(1088, 330)","(1096, 326)","(1027, 281)","(1035, 275)","(1046, 274)","(1056, 281)","(1046, 284)","(1035, 285)","(1096, 277)","(1106, 269)","(1117, 267)","(1125, 272)","(1118, 277)","(1107, 278)","(1048, 358)","(1059, 352)","(1072, 349)","(1081, 351)","(1089, 348)","(1102, 348)","(1115, 352)","(1105, 367)","(1093, 374)","(1083, 376)","(1074, 376)","(1061, 371)","(1053, 358)","(1072, 355)","(1081, 356)","(1090, 354)","(1110, 353)","(1092, 364)","(1082, 366)","(1073, 366)",0.32,0.89,96.0,0.39,-0.1,0.44,0.05,-8.5,0.13,0.31,62.3,80.9,137.4,52.05,59.9,138.25,51.94,70.88,121.64
9700,-1310720,126,-56,-1,-1,0,"(999, 282)","(1000, 305)","(1004, 327)","(1008, 348)","(1017, 368)","(1030, 386)","(1047, 399)","(1066, 409)","(1087, 411)","(1107, 406)","(1123, 393)","(1136, 376)","(1146, 357)","(1151, 337)","(1152, 315)","(1151, 293)","(1149, 271)","(1009, 268)","(1017, 257)","(1031, 253)","(1045, 254)","(1060, 260)","(1090, 258)","(1103, 250)","(1117, 245)","(1131, 246)","(1141, 256)","(1076, 275)","(1077, 289)","(1078, 303)","(1078, 317)","(1063, 329)","(1071, 331)","(1080, 333)","(1088, 329)","(1096, 326)","(1027, 281)","(1035, 274)","(1046, 274)","(1057, 280)","(1047, 283)","(1036, 284)","(1097, 277)","(1106, 268)","(1117, 267)","(1126, 271)","(1118, 276)","(1108, 277)","(1049, 357)","(1060, 352)","(1072, 349)","(1081, 350)","(1090, 347)","(1103, 348)","(1116, 351)","(1106, 366)","(1094, 373)","(1084, 375)","(1074, 375)","(1061, 370)","(1054, 358)","(1073, 355)","(1082, 356)","(1091, 354)","(1111, 353)","(1092, 363)","(1083, 365)","(1074, 365)",0.3,0.9,96.0,0.39,-0.09,0.44,0.04,-8.5,0.13,0.3,65.0,86.2,141.5,52.9,60.45,135.6,51.11,67.94,117.35
9733,-983040,126,-56,-1,-1,0,"(1004, 274)","(1003, 297)","(1005, 320)","(1010, 341)","(1018, 363)","(1031, 382)","(1048, 400)","(1067, 414)","(1090, 417)","(1112, 411)","(1132, 397)","(1150, 379)","(1163, 358)","(1170, 334)","(1171, 309)","(1171, 285)","(1169, 261)","(1005, 258)","(1013, 249)","(1026, 246)","(1040, 249)","(1053, 256)","(1090, 255)","(1104, 247)","(1120, 243)","(1136, 245)","(1148, 252)","(1073, 276)","(1074, 290)","(1074, 304)","(1075, 320)","(1060, 328)","(1069, 332)","(1078, 334)","(1087, 330)","(1096, 326)","(1024, 277)","(1033, 272)","(1044, 272)","(1054, 278)","(1043, 281)","(1032, 281)","(1099, 275)","(1109, 269)","(1120, 268)","(1131, 272)","(1122, 276)","(1110, 277)","(1050, 356)","(1060, 352)","(1072, 350)","(1081, 351)","(1090, 348)","(1105, 347)","(1120, 349)","(1109, 367)","(1095, 375)","(1084, 377)","(1074, 377)","(1061, 371)","(1055, 357)","(1073, 356)","(1082, 356)","(1091, 354)","(1115, 350)","(1093, 365)","(1083, 367)","(1074, 367)",0.25,1.0,96.0,0.37,-0.04,0.42,0.04,-8.0,0.13,0.31,74.4,92.9,148.5,52.95,63.4,139.2,48.41,64.88,111.35
9766,-1441792,126,-56,-1,-1,0,"(1001, 282)","(1003, 305)","(1006, 327)","(1011, 348)","(1019, 368)","(1032, 387)","(1049, 402)","(1068, 416)","(1089, 419)","(1111, 412)","(1131, 397)","(1149, 380)","(1163, 361)","(1170, 339)","(1172, 315)","(1173, 290)","(1174, 266)","(1008, 267)","(1016, 259)","(1029, 255)","(1043, 256)","(1057, 261)","(1094, 257)","(1107, 249)","(1122, 246)","(1138, 247)","(1150, 254)","(1076, 276)","(1076, 290)","(1076, 304)","(1076, 319)","(1063, 329)","(1070, 332)","(1079, 334)","(1087, 330)","(1095, 326)","(1029, 281)","(1037, 275)","(1048, 274)","(1058, 280)","(1048, 283)","(1037, 284)","(1101, 275)","(1110, 268)","(1122, 266)","(1131, 271)","(1123, 275)","(1112, 276)","(1048, 356)","(1059, 352)","(1071, 351)","(1080, 352)","(1090, 348)","(1104, 347)","(1120, 348)","(1108, 364)","(1094, 372)","(1084, 375)","(1074, 375)","(1061, 370)","(1053, 357)","(1072, 356)","(1081, 356)","(1091, 354)","(1115, 350)","(1092, 363)","(1083, 365)","(1073, 365)",0.28,0.96,96.0,0.34,-0.08,0.41,0.04,-7.5,0.1,0.3,62.8,82.1,136.5,49.7,57.95,134.8,38.11,54.88,100.52
9800,-1441792,126,-56,-1,-1,0,"(1001, 283)","(1003, 306)","(1007, 328)","(1012, 350)","(1021, 370)","(1034, 388)","(1050, 403)","(1069, 415)","(1090, 417)","(1110, 412)","(1127, 397)","(1141, 381)","(1151, 362)","(1156, 340)","(1158, 318)","(1158, 296)","(1157, 273)","(1011, 268)","(1019, 258)","(1033, 254)","(1047, 255)","(1061, 260)","(1091, 259)","(1103, 251)","(1118, 248)","(1132, 249)","(1143, 258)","(1077, 275)","(1077, 289)","(1077, 304)","(1077, 318)","(1063, 329)","(1071, 331)","(1080, 333)","(1088, 330)","(1097, 326)","(1030, 280)","(1038, 274)","(1048, 274)","(1058, 280)","(1048, 282)","(1038, 283)","(1098, 277)","(1107, 270)","(1118, 268)","(1127, 273)","(1119, 277)","(1109, 278)","(1048, 356)","(1060, 352)","(1072, 350)","(1082, 351)","(1091, 348)","(1105, 348)","(1120, 349)","(1109, 366)","(1096, 373)","(1085, 375)","(1075, 375)","(1062, 370)","(1052, 357)","(1073, 355)","(1082, 356)","(1092, 354)","(1115, 351)","(1094, 363)","(1084, 366)","(1075, 365)",0.29,0.93,96.0,0.36,-0.08,0.46,0.04,-7.5,0.12,0.3,61.1,82.4,137.7,50.75,58.95,137.85,49.29,67.47,115.05
9833,3604480,126,-56,-1,-1,0,"(1002, 280)","(1004, 303)","(1008, 325)","(1012, 348)","(1020, 368)","(1033, 387)","(1050, 402)","(1068, 415)","(1089, 418)","(1111, 412)","(1130, 397)","(1148, 381)","(1161, 362)","(1168, 340)","(1171, 316)","(1172, 292)","(1174, 267)","(1011, 269)","(1019, 259)","(1032, 255)","(1047, 256)","(1060, 261)","(1092, 258)","(1106, 250)","(1122, 247)","(1138, 249)","(1151, 257)","(1076, 275)","(1076, 290)","(1075, 304)","(1075, 319)","(1063, 329)","(1070, 332)","(1078, 334)","(1087, 330)","(1095, 326)","(1029, 281)","(1038, 275)","(1049, 274)","(1059, 280)","(1048, 283)","(1038, 284)","(1101, 276)","(1110, 268)","(1121, 267)","(1131, 271)","(1122, 276)","(1111, 277)","(1049, 356)","(1059, 353)","(1071, 351)","(1080, 352)","(1089, 349)","(1104, 348)","(1120, 349)","(1107, 365)","(1094, 372)","(1083, 374)","(1073, 374)","(1061, 370)","(1053, 357)","(1071, 356)","(1081, 356)","(1090, 354)","(1115, 351)","(1092, 363)","(1083, 365)","(1073, 365)",0.29,1.0,96.0,0.35,-0.08,0.41,0.04,-8.0,0.11,0.3,57.1,78.1,133.8,48.25,54.7,133.3,41.52,57.0,104.0
9866,-786432,126,-56,-1,-1,0,"(1003, 280)","(1006, 302)","(1009, 325)","(1014, 348)","(1022, 369)","(1034, 387)","(1050, 402)","(1068, 416)","(1089, 419)","(1111, 412)","(1130, 398)","(1148, 381)","(1161, 363)","(1168, 341)","(1171, 317)","(1173, 293)","(1174, 268)","(1012, 268)","(1021, 258)","(1034, 254)","(1047, 256)","(1060, 261)","(1093, 258)","(1106, 250)","(1122, 247)","(1138, 248)","(1151, 256)","(1077, 275)","(1076, 289)","(1076, 304)","(1075, 319)","(1063, 329)","(1070, 331)","(1078, 333)","(1087, 330)","(1095, 326)","(1030, 280)","(1039, 274)","(1049, 274)","(1059, 280)","(1049, 283)","(1039, 283)","(1101, 276)","(1111, 268)","(1122, 267)","(1132, 271)","(1123, 276)","(1112, 277)","(1049, 356)","(1059, 352)","(1071, 350)","(1080, 351)","(1090, 348)","(1104, 348)","(1120, 349)","(1107, 365)","(1093, 372)","(1083, 375)","(1073, 375)","(1061, 370)","(1054, 357)","(1072, 356)","(1081, 356)","(1090, 354)","(1115, 351)","(1092, 363)","(1082, 365)","(1073, 365)",0.28,0.98,96.0,0.35,-0.08,0.41,0.04,-8.5,0.1,0.3,58.4,77.2,134.5,48.4,55.05,131.2,44.11,59.88,106.58
9900,-1179648,126,-56,-1,-1,0,"(1004, 279)","(1006, 302)","(1010, 325)","(1014, 347)","(1021, 368)","(1034, 386)","(1049, 402)","(1067, 415)","(1087, 419)","(1109, 413)","(1129, 399)","(1146, 382)","(1160, 364)","(1168, 342)","(1170, 317)","(1172, 293)","(1174, 268)","(1012, 268)","(1020, 258)","(1034, 254)","(1048, 255)","(1061, 260)","(1092, 258)","(1106, 251)","(1122, 247)","(1138, 249)","(1152, 257)","(1077, 275)","(1076, 289)","(1075, 304)","(1075, 318)","(1063, 328)","(1070, 331)","(1078, 333)","(1086, 329)","(1095, 326)","(1030, 280)","(1039, 274)","(1050, 273)","(1060, 280)","(1049, 282)","(1039, 283)","(1101, 276)","(1110, 268)","(1122, 267)","(1132, 271)","(1123, 276)","(1112, 277)","(1049, 356)","(1059, 352)","(1071, 350)","(1080, 351)","(1089, 348)","(1104, 348)","(1120, 349)","(1107, 364)","(1093, 372)","(1083, 374)","(1073, 374)","(1061, 369)","(1054, 357)","(1071, 355)","(1081, 356)","(1090, 354)","(1115, 351)","(1092, 362)","(1082, 364)","(1073, 364)",0.29,1.0,97.0,0.36,-0.08,0.41,0.03,-8.0,0.1,0.29,62.8,80.3,132.8,49.15,56.3,129.4,42.29,58.05,103.17
9933,-458752,126,-56,-1,-1,0,"(1004, 279)","(1006, 302)","(1010, 324)","(1014, 346)","(1021, 367)","(1033, 385)","(1049, 401)","(1067, 415)","(1088, 418)","(1110, 412)","(1129, 399)","(1147, 382)","(1161, 364)","(1169, 342)","(1172, 318)","(1174, 294)","(1175, 269)","(1012, 267)","(1020, 258)","(1033, 254)","(1047, 255)","(1060, 260)","(1093, 258)","(1107, 250)","(1123, 247)","(1139, 249)","(1152, 257)","(1076, 275)","(1076, 289)","(1075, 303)","(1075, 318)","(1063, 328)","(1070, 331)","(1077, 333)","(1086, 329)","(1094, 326)","(1030, 280)","(1039, 274)","(1050, 273)","(1060, 280)","(1049, 282)","(1039, 283)","(1101, 276)","(1111, 268)","(1122, 267)","(1132, 271)","(1123, 276)","(1112, 277)","(1049, 356)","(1059, 352)","(1071, 350)","(1080, 351)","(1089, 348)","(1104, 348)","(1120, 349)","(1107, 365)","(1093, 372)","(1083, 374)","(1073, 374)","(1061, 369)","(1054, 357)","(1071, 356)","(1080, 356)","(1090, 354)","(1115, 351)","(1091, 363)","(1082, 365)","(1073, 364)",0.28,1.0,97.0,0.35,-0.08,0.41,0.03,-8.0,0.1,0.3,63.1,81.1,133.0,50.6,57.75,130.9,43.17,58.76,102.88
9966,393216,126,-56,-1,-1,0,"(1004, 280)","(1006, 303)","(1010, 325)","(1014, 347)","(1021, 368)","(1033, 386)","(1049, 402)","(1066, 415)","(1087, 418)","(1110, 413)","(1130, 399)","(1148, 383)","(1162, 364)","(1169, 343)","(1172, 318)","(1174, 294)","(1175, 269)","(1013, 268)","(1021, 258)","(1034, 254)","(1048, 255)","(1061, 260)","(1093, 258)","(1107, 251)","(1123, 247)","(1139, 249)","(1152, 257)","(1077, 275)","(1077, 289)","(1076, 303)","(1075, 318)","(1063, 328)","(1070, 331)","(1078, 333)","(1086, 330)","(1095, 326)","(1031, 280)","(1039, 274)","(1050, 273)","(1060, 280)","(1050, 282)","(1039, 283)","(1102, 276)","(1111, 268)","(1122, 267)","(1132, 271)","(1123, 276)","(1113, 277)","(1048, 356)","(1059, 352)","(1071, 350)","(1080, 351)","(1089, 348)","(1104, 348)","(1120, 350)","(1106, 364)","(1093, 372)","(1082, 374)","(1073, 373)","(1061, 369)","(1053, 357)","(1071, 356)","(1080, 356)","(1090, 354)","(1115, 351)","(1091, 362)","(1082, 364)","(1072, 364)",0.3,0.97,97.0,0.34,-0.09,0.42,0.03,-8.0,0.1,0.3,58.9,78.1,131.3,53.4,60.3,132.9,39.05,54.0,97.35
10000,-131072,126,-56,-1,-1,0,"(1004, 279)","(1006, 301)","(1010, 324)","(1014, 346)","(1021, 367)","(1033, 385)","(1049, 401)","(1066, 415)","(1087, 418)","(1109, 413)","(1129, 399)","(1148, 383)","(1162, 364)","(1170, 342)","(1172, 318)","(1175, 293)","(1176, 269)","(1013, 267)","(1021, 257)","(1034, 253)","(1048, 254)","(1061, 259)","(1094, 257)","(1108, 249)","(1124, 246)","(1140, 248)","(1153, 256)","(1077, 274)","(1076, 289)","(1075, 303)","(1075, 318)","(1063, 328)","(1070, 331)","(1078, 333)","(1086, 329)","(1095, 326)","(1031, 279)","(1039, 273)","(1050, 273)","(1060, 279)","(1050, 282)","(1039, 283)","(1102, 276)","(1112, 268)","(1123, 267)","(1133, 271)","(1124, 276)","(1113, 277)","(1049, 356)","(1059, 352)","(1071, 350)","(1080, 351)","(1089, 348)","(1104, 348)","(1120, 350)","(1106, 365)","(1093, 372)","(1082, 374)","(1073, 374)","(1060, 369)","(1054, 357)","(1071, 356)","(1080, 356)","(1090, 354)","(1114, 352)","(1091, 363)","(1082, 365)","(1072, 364)",0.28,0.99,97.0,0.35,-0.09,0.41,0.03,-8.5,0.1,0.3,68.8,85.0,137.5,52.75,60.9,135.3,38.94,52.82,95.94
10033,-655360,126,-56,-1,-1,0,"(1004, 280)","(1007, 302)","(1011, 325)","(1015, 347)","(1022, 368)","(1034, 386)","(1050, 401)","(1068, 414)","(1089, 418)","(1111, 412)","(1131, 398)","(1149, 382)","(1163, 364)","(1171, 342)","(1173, 318)","(1175, 294)","(1177, 269)","(1013, 267)","(1021, 257)","(1034, 253)","(1048, 254)","(1061, 259)","(1093, 257)","(1108, 249)","(1124, 246)","(1140, 249)","(1153, 257)","(1077, 274)","(1077, 289)","(1076, 303)","(1075, 318)","(1063, 328)","(1070, 331)","(1078, 333)","(1087, 329)","(1095, 326)","(1031, 279)","(1039, 273)","(1050, 273)","(1060, 279)","(1050, 282)","(1039, 282)","(1102, 276)","(1112, 268)","(1123, 267)","(1133, 271)","(1124, 276)","(1113, 277)","(1050, 356)","(1060, 352)","(1071, 350)","(1080, 351)","(1090, 348)","(1104, 348)","(1120, 350)","(1107, 364)","(1093, 371)","(1083, 373)","(1073, 373)","(1061, 369)","(1054, 357)","(1072, 356)","(1081, 356)","(1091, 354)","(1115, 352)","(1092, 362)","(1082, 364)","(1073, 363)",0.28,0.99,97.0,0.34,-0.08,0.4,0.03,-8.5,0.1,0.3,65.7,83.7,136.2,54.1,59.95,132.5,39.52,55.11,95.41
10066,-589824,126,-56,-1,-1,0,"(1006, 280)","(1008, 302)","(1012, 324)","(1016, 346)","(1023, 367)","(1034, 385)","(1050, 400)","(1067, 414)","(1088, 417)","(1111, 412)","(1131, 398)","(1149, 382)","(1163, 364)","(1171, 342)","(1174, 318)","(1176, 294)","(1178, 269)","(1014, 267)","(1022, 257)","(1035, 253)","(1049, 254)","(1062, 260)","(1093, 257)","(1108, 250)","(1124, 246)","(1141, 249)","(1154, 257)","(1078, 274)","(1077, 289)","(1076, 303)","(1075, 318)","(1064, 328)","(1071, 331)","(1078, 333)","(1087, 329)","(1095, 326)","(1032, 279)","(1040, 273)","(1051, 273)","(1061, 279)","(1051, 282)","(1040, 282)","(1103, 276)","(1112, 267)","(1124, 266)","(1134, 271)","(1125, 276)","(1114, 277)","(1050, 356)","(1060, 352)","(1072, 350)","(1081, 351)","(1090, 348)","(1104, 348)","(1121, 349)","(1108, 364)","(1094, 371)","(1084, 373)","(1074, 372)","(1062, 368)","(1055, 356)","(1072, 356)","(1081, 356)","(1091, 354)","(1116, 351)","(1093, 361)","(1083, 364)","(1074, 363)",0.32,0.99,97.0,0.35,-0.07,0.41,0.03,-9.0,0.09,0.3,62.4,81.4,134.5,51.95,58.35,130.8,45.23,60.35,104.88
10100,-786432,126,-56,-1,-1,0,"(1012, 278)","(1012, 299)","(1013, 321)","(1015, 342)","(1022, 363)","(1033, 383)","(1048, 401)","(1066, 414)","(1088, 417)","(1111, 412)","(1132, 399)","(1150, 382)","(1164, 362)","(1171, 339)","(1173, 315)","(1173, 291)","(1172, 267)","(1017, 265)","(1023, 255)","(1035, 251)","(1049, 252)","(1062, 258)","(1095, 255)","(1109, 247)","(1125, 244)","(1140, 246)","(1152, 255)","(1078, 275)","(1078, 289)","(1077, 303)","(1076, 318)","(1064, 328)","(1071, 332)","(1079, 334)","(1088, 330)","(1097, 326)","(1033, 279)","(1041, 274)","(1051, 273)","(1062, 278)","(1051, 281)","(1041, 282)","(1103, 275)","(1113, 268)","(1124, 267)","(1134, 271)","(1125, 276)","(1114, 277)","(1051, 356)","(1061, 352)","(1072, 350)","(1081, 352)","(1090, 349)","(1105, 349)","(1120, 350)","(1107, 364)","(1094, 371)","(1084, 374)","(1074, 373)","(1062, 369)","(1056, 357)","(1073, 357)","(1082, 357)","(1091, 355)","(1114, 352)","(1092, 362)","(1083, 364)","(1074, 364)",0.28,1.0,97.0,0.37,-0.07,0.43,0.03,-7.5,0.11,0.3,72.2,89.7,142.1,55.35,61.5,136.6,46.52,63.11,108.47
10133,-786432,126,-56,-1,-1,0,"(1009, 278)","(1010, 300)","(1013, 321)","(1017, 343)","(1023, 365)","(1035, 384)","(1050, 400)","(1068, 414)","(1089, 417)","(1111, 412)","(1132, 398)","(1151, 381)","(1164, 362)","(1172, 340)","(1174, 316)","(1175, 292)","(1175, 267)","(1016, 265)","(1023, 256)","(1035, 252)","(1049, 253)","(1062, 259)","(1095, 257)","(1109, 249)","(1125, 245)","(1141, 247)","(1154, 255)","(1078, 274)","(1078, 288)","(1077, 303)","(1076, 317)","(1064, 328)","(1072, 331)","(1079, 333)","(1088, 330)","(1097, 326)","(1033, 279)","(1041, 273)","(1052, 273)","(1062, 279)","(1052, 282)","(1041, 282)","(1104, 275)","(1114, 268)","(1125, 267)","(1135, 271)","(1126, 276)","(1115, 276)","(1051, 356)","(1061, 352)","(1072, 350)","(1081, 351)","(1090, 348)","(1105, 348)","(1121, 349)","(1107, 363)","(1094, 370)","(1084, 372)","(1074, 372)","(1063, 368)","(1056, 357)","(1073, 357)","(1082, 357)","(1091, 355)","(1115, 351)","(1092, 360)","(1083, 362)","(1074, 362)",0.27,1.0,97.0,0.36,-0.08,0.42,0.02,-8.5,0.11,0.3,68.6,86.3,137.7,50.7,57.05,134.6,45.76,61.76,105.52
10166,-851968,126,-56,-1,-1,0,"(1009, 276)","(1011, 298)","(1014, 320)","(1017, 342)","(1023, 364)","(1035, 383)","(1050, 399)","(1069, 413)","(1090, 416)","(1112, 411)","(1133, 397)","(1151, 381)","(1165, 362)","(1172, 340)","(1174, 315)","(1175, 291)","(1176, 266)","(1016, 266)","(1024, 256)","(1036, 252)","(1050, 253)","(1063, 258)","(1097, 256)","(1111, 248)","(1126, 245)","(1142, 246)","(1155, 255)","(1080, 274)","(1079, 288)","(1078, 302)","(1077, 317)","(1066, 328)","(1073, 331)","(1080, 333)","(1089, 329)","(1097, 326)","(1034, 279)","(1042, 273)","(1053, 273)","(1063, 278)","(1053, 281)","(1042, 282)","(1105, 275)","(1114, 267)","(1125, 266)","(1135, 270)","(1126, 275)","(1115, 276)","(1052, 356)","(1062, 353)","(1073, 351)","(1082, 353)","(1090, 349)","(1105, 349)","(1120, 350)","(1107, 362)","(1094, 368)","(1085, 370)","(1076, 370)","(1064, 367)","(1057, 357)","(1074, 358)","(1083, 358)","(1091, 356)","(1115, 351)","(1093, 359)","(1084, 361)","(1075, 361)",0.29,1.0,97.0,0.35,-0.09,0.4,0.02,-8.0,0.1,0.3,71.4,88.9,139.9,52.6,58.5,128.95,41.82,57.64,99.76
10200,-786432,126,-56,-1,-1,0,"(1014, 275)","(1013, 296)","(1014, 318)","(1017, 339)","(1023, 361)","(1034, 381)","(1049, 398)","(1068, 411)","(1090, 415)","(1113, 410)","(1135, 397)","(1153, 380)","(1166, 360)","(1173, 337)","(1175, 313)","(1175, 289)","(1174, 265)","(1018, 264)","(1025, 255)","(1037, 251)","(1051, 253)","(1064, 258)","(1096, 256)","(1110, 247)","(1126, 244)","(1142, 245)","(1154, 254)","(1080, 275)","(1080, 289)","(1079, 303)","(1078, 317)","(1065, 328)","(1073, 331)","(1081, 333)","(1090, 330)","(1099, 326)","(1034, 279)","(1042, 274)","(1053, 273)","(1063, 278)","(1053, 281)","(1042, 282)","(1105, 275)","(1115, 268)","(1127, 267)","(1136, 271)","(1127, 276)","(1116, 276)","(1055, 356)","(1064, 352)","(1074, 350)","(1083, 352)","(1091, 349)","(1105, 349)","(1121, 351)","(1108, 362)","(1095, 368)","(1085, 370)","(1076, 370)","(1065, 366)","(1060, 357)","(1075, 357)","(1084, 358)","(1092, 356)","(1115, 352)","(1094, 359)","(1085, 360)","(1076, 360)",0.27,1.03,97.0,0.37,-0.08,0.41,0.01,-7.5,0.11,0.3,73.7,92.4,143.6,50.25,55.55,135.85,46.82,62.47,107.7
10233,458752,126,-56,-1,-1,0,"(1015, 278)","(1014, 299)","(1015, 320)","(1018, 341)","(1025, 362)","(1035, 381)","(1050, 398)","(1068, 411)","(1089, 415)","(1112, 410)","(1134, 398)","(1152, 381)","(1165, 361)","(1173, 338)","(1175, 314)","(1175, 291)","(1174, 266)","(1019, 264)","(1026, 254)","(1038, 250)","(1052, 252)","(1065, 257)","(1096, 256)","(1110, 247)","(1127, 244)","(1143, 246)","(1155, 255)","(1081, 275)","(1080, 289)","(1079, 303)","(1078, 318)","(1065, 328)","(1073, 331)","(1081, 334)","(1090, 330)","(1100, 326)","(1035, 279)","(1043, 274)","(1053, 273)","(1064, 278)","(1053, 281)","(1043, 282)","(1106, 275)","(1116, 268)","(1127, 268)","(1137, 271)","(1128, 276)","(1117, 277)","(1056, 355)","(1065, 351)","(1075, 349)","(1083, 351)","(1092, 348)","(1106, 349)","(1121, 352)","(1108, 363)","(1095, 369)","(1085, 370)","(1076, 370)","(1066, 365)","(1061, 355)","(1076, 356)","(1084, 356)","(1093, 355)","(1115, 353)","(1094, 360)","(1085, 361)","(1076, 360)",0.27,1.03,97.0,0.37,-0.08,0.4,0.02,-7.5,0.11,0.3,75.9,92.9,145.7,56.95,64.15,140.75,48.41,64.29,109.94
10266,4390912,126,-56,-1,-1,0,"(1014, 276)","(1014, 297)","(1015, 319)","(1018, 340)","(1024, 360)","(1035, 380)","(1049, 397)","(1067, 410)","(1089, 414)","(1113, 410)","(1134, 398)","(1152, 381)","(1165, 361)","(1173, 338)","(1175, 314)","(1175, 290)","(1174, 266)","(1020, 263)","(1027, 254)","(1039, 250)","(1053, 252)","(1066, 258)","(1097, 256)","(1111, 248)","(1127, 244)","(1143, 246)","(1155, 255)","(1082, 275)","(1081, 290)","(1080, 304)","(1079, 319)","(1067, 328)","(1074, 332)","(1082, 334)","(1091, 331)","(1100, 327)","(1036, 279)","(1044, 274)","(1054, 274)","(1064, 279)","(1054, 282)","(1044, 282)","(1106, 275)","(1116, 269)","(1127, 268)","(1137, 271)","(1128, 276)","(1117, 277)","(1057, 356)","(1066, 352)","(1076, 350)","(1084, 352)","(1092, 350)","(1106, 350)","(1121, 353)","(1108, 364)","(1095, 369)","(1086, 370)","(1077, 370)","(1067, 366)","(1062, 356)","(1077, 357)","(1085, 358)","(1093, 356)","(1115, 353)","(1094, 359)","(1085, 361)","(1077, 360)",0.25,1.04,97.0,0.36,-0.06,0.4,0.01,-7.5,0.11,0.31,74.8,92.8,145.4,49.9,55.0,137.2,47.52,62.52,107.17
10300,-458752,126,-56,-1,-1,0,"(1016, 275)","(1015, 297)","(1016, 318)","(1018, 339)","(1025, 360)","(1036, 379)","(1050, 396)","(1067, 410)","(1087, 414)","(1110, 411)","(1131, 399)","(1150, 384)","(1164, 364)","(1172, 342)","(1175, 318)","(1176, 294)","(1175, 269)","(1022, 262)","(1028, 252)","(1040, 248)","(1054, 249)","(1067, 256)","(1099, 256)","(1113, 248)","(1129, 245)","(1144, 248)","(1155, 257)","(1083, 275)","(1082, 289)","(1080, 303)","(1079, 317)","(1066, 326)","(1073, 330)","(1082, 332)","(1091, 329)","(1100, 326)","(1037, 278)","(1045, 273)","(1055, 273)","(1065, 278)","(1055, 280)","(1045, 281)","(1108, 276)","(1117, 270)","(1128, 269)","(1137, 273)","(1128, 277)","(1118, 277)","(1057, 352)","(1065, 347)","(1075, 345)","(1084, 347)","(1093, 345)","(1107, 347)","(1122, 353)","(1108, 365)","(1095, 371)","(1084, 372)","(1075, 370)","(1064, 364)","(1062, 352)","(1075, 352)","(1084, 353)","(1094, 352)","(1116, 353)","(1094, 361)","(1084, 362)","(1075, 361)",0.25,1.06,97.0,0.35,-0.05,0.4,0.04,-7.0,0.1,0.3,75.0,92.0,145.6,67.9,77.8,150.8,50.41,66.41,110.64
10333,-131072,126,-56,-1,-1,0,"(1011, 279)","(1013, 301)","(1017, 323)","(1021, 345)","(1028, 365)","(1039, 385)","(1054, 401)","(1072, 413)","(1094, 416)","(1115, 411)","(1134, 398)","(1151, 383)","(1162, 364)","(1168, 342)","(1170, 319)","(1172, 296)","(1172, 272)","(1018, 266)","(1025, 257)","(1038, 253)","(1052, 254)","(1066, 259)","(1099, 258)","(1113, 250)","(1128, 246)","(1144, 248)","(1156, 257)","(1083, 275)","(1082, 289)","(1081, 303)","(1081, 318)","(1069, 329)","(1076, 332)","(1084, 333)","(1092, 331)","(1100, 327)","(1037, 279)","(1045, 274)","(1056, 273)","(1066, 279)","(1056, 282)","(1045, 282)","(1107, 276)","(1117, 269)","(1128, 268)","(1137, 272)","(1129, 277)","(1118, 278)","(1057, 358)","(1067, 354)","(1077, 352)","(1085, 353)","(1094, 350)","(1107, 350)","(1122, 352)","(1110, 362)","(1099, 367)","(1090, 369)","(1081, 369)","(1070, 366)","(1062, 358)","(1078, 359)","(1086, 359)","(1095, 357)","(1116, 353)","(1097, 357)","(1089, 359)","(1080, 359)",0.29,0.97,97.0,0.36,-0.08,0.4,0.01,-8.0,0.1,0.3,69.8,88.8,141.9,50.5,55.3,138.45,49.52,67.29,111.0
10366,851968,126,-56,-1,-1,0,"(1011, 278)","(1013, 301)","(1017, 322)","(1021, 344)","(1027, 365)","(1038, 384)","(1054, 400)","(1072, 413)","(1094, 415)","(1115, 411)","(1135, 398)","(1151, 383)","(1162, 364)","(1168, 342)","(1170, 319)","(1171, 296)","(1172, 272)","(1018, 267)","(1026, 257)","(1038, 253)","(1052, 254)","(1067, 260)","(1100, 258)","(1113, 250)","(1129, 247)","(1145, 249)","(1156, 258)","(1084, 275)","(1083, 289)","(1082, 304)","(1081, 318)","(1070, 330)","(1077, 332)","(1085, 334)","(1093, 331)","(1101, 327)","(1037, 279)","(1045, 274)","(1056, 273)","(1066, 279)","(1056, 282)","(1045, 282)","(1108, 276)","(1118, 269)","(1129, 268)","(1138, 272)","(1130, 277)","(1119, 278)","(1058, 358)","(1068, 355)","(1078, 352)","(1086, 354)","(1095, 351)","(1107, 351)","(1122, 352)","(1111, 362)","(1099, 367)","(1090, 369)","(1082, 369)","(1070, 366)","(1063, 358)","(1079, 359)","(1087, 359)","(1096, 358)","(1117, 354)","(1098, 357)","(1089, 359)","(1081, 359)",0.29,0.96,97.0,0.36,-0.07,0.39,0.01,-8.0,0.1,0.3,67.0,86.4,139.3,49.55,53.9,136.05,45.0,59.76,104.64
10400,786432,126,-56,-1,-1,0,"(1012, 278)","(1014, 301)","(1017, 322)","(1022, 344)","(1028, 364)","(1040, 384)","(1055, 400)","(1073, 412)","(1094, 415)","(1115, 410)","(1134, 398)","(1151, 382)","(1162, 364)","(1168, 342)","(1170, 319)","(1171, 295)","(1172, 272)","(1019, 266)","(1026, 257)","(1038, 252)","(1053, 253)","(1067, 259)","(1099, 258)","(1113, 250)","(1128, 247)","(1144, 249)","(1156, 258)","(1084, 275)","(1083, 289)","(1082, 303)","(1081, 318)","(1070, 329)","(1077, 332)","(1085, 333)","(1093, 331)","(1101, 327)","(1038, 279)","(1046, 273)","(1057, 273)","(1067, 279)","(1057, 281)","(1046, 282)","(1107, 276)","(1117, 269)","(1128, 268)","(1138, 273)","(1129, 277)","(1118, 278)","(1058, 357)","(1068, 354)","(1078, 352)","(1086, 353)","(1095, 350)","(1108, 351)","(1123, 352)","(1111, 362)","(1099, 367)","(1090, 369)","(1082, 369)","(1071, 366)","(1063, 358)","(1079, 359)","(1087, 359)","(1096, 357)","(1117, 353)","(1098, 357)","(1089, 359)","(1081, 359)",0.29,0.98,97.0,0.37,-0.07,0.4,0.01,-8.0,0.1,0.3,70.2,88.0,140.0,48.1,52.9,137.15,49.23,65.7,112.82
10433,0,126,-56,-1,-1,0,"(1015, 277)","(1016, 299)","(1019, 321)","(1022, 343)","(1028, 365)","(1039, 384)","(1054, 400)","(1072, 413)","(1093, 416)","(1115, 412)","(1136, 399)","(1154, 383)","(1167, 364)","(1175, 341)","(1177, 317)","(1178, 294)","(1179, 269)","(1020, 266)","(1027, 257)","(1039, 253)","(1053, 255)","(1066, 260)","(1099, 258)","(1114, 250)","(1130, 247)","(1146, 249)","(1159, 257)","(1083, 275)","(1082, 289)","(1081, 304)","(1080, 319)","(1070, 330)","(1076, 332)","(1084, 334)","(1092, 331)","(1100, 327)","(1037, 279)","(1046, 274)","(1057, 273)","(1067, 279)","(1056, 282)","(1046, 283)","(1109, 276)","(1118, 269)","(1130, 268)","(1139, 272)","(1131, 277)","(1119, 278)","(1058, 359)","(1067, 355)","(1077, 353)","(1085, 354)","(1094, 351)","(1107, 352)","(1122, 353)","(1109, 363)","(1097, 368)","(1088, 370)","(1080, 370)","(1069, 368)","(1063, 359)","(1078, 360)","(1086, 360)","(1095, 358)","(1116, 354)","(1096, 358)","(1088, 360)","(1079, 360)",0.29,0.99,97.0,0.36,-0.07,0.39,0.01,-8.0,0.1,0.31,67.3,84.7,137.3,49.55,53.55,137.35,50.41,65.41,111.47
10466,-131072,126,-56,-1,-1,0,"(1015, 276)","(1016, 299)","(1019, 321)","(1023, 343)","(1029, 364)","(1039, 384)","(1054, 401)","(1071, 414)","(1092, 418)","(1114, 413)","(1135, 400)","(1153, 384)","(1166, 364)","(1174, 342)","(1176, 319)","(1178, 295)","(1179, 270)","(1020, 266)","(1028, 257)","(1040, 253)","(1054, 255)","(1067, 260)","(1100, 258)","(1114, 250)","(1130, 246)","(1146, 248)","(1158, 256)","(1083, 275)","(1082, 290)","(1081, 304)","(1080, 319)","(1069, 330)","(1076, 333)","(1083, 334)","(1091, 331)","(1099, 328)","(1037, 279)","(1046, 274)","(1057, 273)","(1067, 280)","(1056, 283)","(1046, 283)","(1108, 276)","(1118, 269)","(1130, 268)","(1139, 272)","(1130, 277)","(1119, 278)","(1059, 362)","(1067, 356)","(1077, 353)","(1085, 355)","(1093, 351)","(1105, 352)","(1119, 355)","(1108, 366)","(1096, 373)","(1087, 375)","(1079, 375)","(1069, 372)","(1064, 362)","(1077, 360)","(1085, 360)","(1093, 359)","(1114, 356)","(1095, 362)","(1087, 364)","(1079, 364)",0.28,0.97,97.0,0.37,-0.08,0.36,0.03,-8.5,0.09,0.3,67.7,85.2,138.1,51.3,56.95,132.5,50.58,65.17,109.88
10500,-131072,126,-56,-1,-1,0,"(1015, 275)","(1016, 298)","(1019, 320)","(1023, 342)","(1029, 363)","(1039, 383)","(1053, 401)","(1070, 415)","(1091, 419)","(1113, 414)","(1134, 400)","(1153, 384)","(1167, 365)","(1175, 342)","(1178, 318)","(1180, 294)","(1181, 269)","(1021, 265)","(1028, 256)","(1040, 253)","(1053, 254)","(1066, 260)","(1100, 257)","(1114, 249)","(1130, 246)","(1146, 247)","(1158, 255)","(1083, 275)","(1082, 290)","(1081, 304)","(1080, 319)","(1069, 330)","(1075, 333)","(1083, 334)","(1091, 331)","(1099, 328)","(1038, 279)","(1046, 274)","(1057, 273)","(1067, 279)","(1057, 282)","(1046, 283)","(1108, 276)","(1118, 268)","(1129, 267)","(1139, 272)","(1130, 277)","(1119, 277)","(1058, 362)","(1066, 356)","(1076, 353)","(1084, 354)","(1093, 351)","(1106, 352)","(1120, 355)","(1108, 368)","(1096, 375)","(1087, 377)","(1078, 377)","(1068, 373)","(1063, 362)","(1077, 359)","(1085, 359)","(1093, 358)","(1114, 356)","(1095, 364)","(1086, 366)","(1078, 366)",0.3,0.99,97.0,0.36,-0.07,0.37,0.03,-8.5,0.09,0.3,70.9,86.6,139.6,53.7,60.1,134.85,48.76,62.7,105.17
10533,-458752,126,-56,-1,-1,0,"(1013, 277)","(1014, 299)","(1018, 321)","(1022, 342)","(1028, 362)","(1039, 382)","(1053, 400)","(1070, 414)","(1091, 418)","(1112, 414)","(1131, 401)","(1148, 386)","(1161, 367)","(1168, 345)","(1171, 321)","(1173, 297)","(1174, 273)","(1020, 266)","(1026, 256)","(1039, 252)","(1052, 253)","(1066, 259)","(1098, 257)","(1112, 249)","(1128, 246)","(1144, 248)","(1156, 258)","(1082, 275)","(1081, 289)","(1080, 304)","(1079, 318)","(1068, 330)","(1075, 332)","(1082, 334)","(1090, 331)","(1098, 328)","(1038, 278)","(1046, 273)","(1057, 273)","(1066, 279)","(1056, 281)","(1046, 282)","(1107, 276)","(1117, 269)","(1128, 268)","(1137, 272)","(1129, 277)","(1118, 278)","(1058, 361)","(1066, 356)","(1076, 353)","(1083, 354)","(1092, 351)","(1105, 353)","(1119, 356)","(1108, 369)","(1096, 375)","(1087, 377)","(1079, 377)","(1068, 373)","(1063, 361)","(1076, 360)","(1084, 360)","(1093, 358)","(1113, 357)","(1095, 365)","(1086, 367)","(1078, 366)",0.29,1.02,97.0,0.36,-0.06,0.37,0.03,-8.0,0.09,0.3,68.8,87.3,138.8,54.9,60.8,133.65,41.23,57.11,99.76
10566,-327680,126,-56,-1,-1,0,"(1016, 276)","(1017, 299)","(1020, 320)","(1023, 342)","(1029, 364)","(1039, 383)","(1053, 400)","(1070, 414)","(1091, 418)","(1113, 413)","(1135, 400)","(1153, 384)","(1167, 365)","(1175, 342)","(1178, 318)","(1179, 294)","(1181, 269)","(1020, 265)","(1027, 256)","(1039, 252)","(1052, 254)","(1065, 259)","(1098, 257)","(1112, 249)","(1128, 246)","(1144, 248)","(1157, 256)","(1081, 275)","(1080, 289)","(1079, 304)","(1077, 319)","(1067, 330)","(1074, 333)","(1081, 334)","(1089, 331)","(1097, 328)","(1037, 279)","(1045, 273)","(1056, 273)","(1066, 279)","(1056, 282)","(1045, 282)","(1107, 276)","(1117, 269)","(1128, 268)","(1138, 272)","(1129, 277)","(1118, 277)","(1057, 361)","(1065, 356)","(1075, 353)","(1083, 355)","(1091, 352)","(1104, 352)","(1119, 355)","(1107, 367)","(1095, 373)","(1086, 375)","(1077, 375)","(1067, 372)","(1062, 361)","(1075, 360)","(1083, 360)","(1092, 359)","(1113, 356)","(1094, 363)","(1085, 365)","(1077, 365)",0.27,1.02,97.0,0.36,-0.07,0.37,0.03,-8.5,0.09,0.3,66.8,84.9,138.1,54.15,59.6,132.6,52.23,66.47,109.82
10600,-786432,126,-56,-1,-1,0,"(1013, 276)","(1014, 298)","(1018, 320)","(1022, 341)","(1029, 362)","(1039, 382)","(1052, 399)","(1069, 414)","(1089, 417)","(1111, 413)","(1131, 400)","(1149, 385)","(1162, 367)","(1170, 345)","(1173, 320)","(1174, 296)","(1175, 272)","(1018, 265)","(1025, 256)","(1037, 251)","(1050, 253)","(1063, 259)","(1096, 257)","(1109, 249)","(1126, 246)","(1142, 248)","(1154, 258)","(1079, 275)","(1078, 289)","(1077, 303)","(1075, 318)","(1066, 329)","(1072, 332)","(1080, 333)","(1088, 331)","(1096, 327)","(1036, 279)","(1044, 273)","(1055, 273)","(1065, 279)","(1055, 282)","(1044, 282)","(1105, 276)","(1114, 269)","(1126, 268)","(1135, 273)","(1127, 278)","(1115, 278)","(1057, 360)","(1064, 355)","(1074, 352)","(1081, 354)","(1089, 351)","(1102, 352)","(1117, 355)","(1106, 366)","(1094, 371)","(1085, 373)","(1077, 373)","(1067, 370)","(1062, 360)","(1074, 360)","(1082, 360)","(1090, 358)","(1111, 356)","(1093, 361)","(1084, 363)","(1077, 363)",0.31,1.07,97.0,0.36,-0.05,0.37,0.02,-9.0,0.1,0.3,70.4,86.8,138.7,53.75,59.05,131.2,46.05,61.47,106.23
10633,-786432,126,-56,-1,-1,0,"(1018, 277)","(1016, 298)","(1017, 318)","(1020, 339)","(1026, 360)","(1035, 380)","(1047, 398)","(1063, 412)","(1084, 417)","(1107, 413)","(1129, 401)","(1148, 385)","(1162, 365)","(1171, 342)","(1175, 317)","(1176, 292)","(1176, 267)","(1020, 263)","(1025, 254)","(1036, 250)","(1049, 252)","(1062, 258)","(1092, 256)","(1106, 248)","(1123, 244)","(1139, 247)","(1151, 256)","(1076, 275)","(1075, 289)","(1073, 303)","(1071, 318)","(1060, 328)","(1067, 331)","(1075, 333)","(1084, 331)","(1093, 327)","(1034, 278)","(1042, 273)","(1052, 273)","(1061, 278)","(1052, 281)","(1042, 281)","(1102, 275)","(1112, 269)","(1123, 268)","(1133, 272)","(1124, 276)","(1113, 277)","(1054, 358)","(1060, 352)","(1069, 350)","(1077, 352)","(1085, 349)","(1099, 351)","(1114, 356)","(1101, 370)","(1088, 376)","(1078, 377)","(1070, 376)","(1061, 370)","(1058, 358)","(1070, 357)","(1078, 357)","(1086, 356)","(1108, 357)","(1087, 365)","(1078, 366)","(1070, 365)",0.25,1.15,97.0,0.36,-0.05,0.37,0.04,-7.5,0.1,0.3,73.7,91.0,143.0,51.95,59.75,134.55,48.64,63.29,106.64
10666,9502720,126,-56,-1,-1,0,"(1013, 272)","(1011, 293)","(1011, 314)","(1014, 335)","(1022, 356)","(1033, 376)","(1046, 396)","(1062, 413)","(1082, 419)","(1104, 415)","(1126, 402)","(1147, 385)","(1163, 364)","(1173, 341)","(1177, 315)","(1178, 290)","(1178, 264)","(1015, 259)","(1021, 252)","(1031, 249)","(1044, 251)","(1055, 257)","(1090, 255)","(1104, 247)","(1120, 244)","(1136, 247)","(1148, 254)","(1072, 276)","(1070, 290)","(1068, 303)","(1066, 318)","(1057, 328)","(1064, 332)","(1072, 333)","(1080, 331)","(1089, 327)","(1031, 278)","(1039, 274)","(1049, 273)","(1059, 278)","(1049, 282)","(1038, 282)","(1099, 276)","(1108, 269)","(1120, 269)","(1130, 272)","(1121, 277)","(1110, 278)","(1053, 358)","(1058, 354)","(1067, 352)","(1074, 353)","(1082, 350)","(1097, 351)","(1113, 354)","(1100, 368)","(1087, 375)","(1078, 377)","(1070, 376)","(1061, 371)","(1057, 358)","(1068, 358)","(1075, 358)","(1083, 356)","(1107, 354)","(1086, 366)","(1077, 367)","(1069, 366)",0.27,1.25,97.0,0.35,-0.03,0.36,0.04,-8.0,0.1,0.29,76.9,93.7,145.2,49.35,57.3,131.85,45.64,60.0,98.76
10700,-393216,126,-56,-1,-1,0,"(1013, 270)","(1010, 291)","(1010, 313)","(1015, 334)","(1023, 355)","(1033, 377)","(1046, 397)","(1061, 414)","(1081, 420)","(1103, 415)","(1124, 402)","(1145, 386)","(1162, 366)","(1173, 343)","(1178, 317)","(1179, 291)","(1178, 265)","(1015, 255)","(1020, 249)","(1030, 247)","(1042, 249)","(1053, 256)","(1089, 255)","(1103, 248)","(1119, 245)","(1135, 247)","(1147, 254)","(1070, 276)","(1068, 289)","(1066, 303)","(1064, 317)","(1055, 327)","(1062, 331)","(1069, 333)","(1078, 330)","(1087, 326)","(1030, 276)","(1037, 273)","(1047, 273)","(1057, 277)","(1047, 280)","(1037, 280)","(1098, 275)","(1107, 270)","(1118, 269)","(1128, 273)","(1119, 277)","(1108, 278)","(1051, 358)","(1056, 354)","(1065, 351)","(1072, 352)","(1080, 350)","(1096, 351)","(1111, 354)","(1099, 370)","(1086, 377)","(1076, 379)","(1068, 378)","(1059, 373)","(1056, 359)","(1066, 357)","(1073, 357)","(1082, 356)","(1106, 355)","(1084, 367)","(1075, 369)","(1068, 368)",0.26,1.28,97.0,0.34,0.0,0.36,0.05,-7.0,0.1,0.28,77.7,95.2,145.7,47.55,54.6,132.05,48.64,63.05,102.64
10733,-655360,126,-56,-1,-1,0,"(1012, 273)","(1009, 294)","(1009, 315)","(1013, 335)","(1022, 356)","(1033, 377)","(1045, 397)","(1060, 414)","(1080, 420)","(1102, 416)","(1123, 403)","(1145, 386)","(1162, 366)","(1173, 343)","(1178, 318)","(1178, 292)","(1178, 267)","(1013, 255)","(1019, 249)","(1029, 248)","(1041, 250)","(1052, 257)","(1088, 255)","(1102, 248)","(1118, 245)","(1134, 247)","(1146, 254)","(1070, 276)","(1068, 290)","(1065, 303)","(1063, 317)","(1055, 327)","(1062, 331)","(1069, 333)","(1077, 330)","(1086, 326)","(1028, 277)","(1036, 273)","(1046, 273)","(1055, 277)","(1045, 280)","(1036, 281)","(1098, 275)","(1107, 270)","(1118, 270)","(1128, 273)","(1119, 277)","(1108, 277)","(1049, 358)","(1055, 353)","(1064, 351)","(1071, 352)","(1079, 350)","(1095, 351)","(1111, 355)","(1098, 370)","(1084, 378)","(1075, 379)","(1067, 378)","(1057, 373)","(1054, 358)","(1065, 357)","(1072, 357)","(1080, 356)","(1105, 355)","(1083, 368)","(1074, 369)","(1066, 368)",0.23,1.26,97.0,0.34,0.01,0.37,0.05,-7.0,0.09,0.28,73.4,89.6,139.0,47.3,56.5,134.65,45.35,58.52,97.0
10766,196608,126,-56,-1,-1,0,"(1014, 273)","(1011, 293)","(1011, 314)","(1016, 335)","(1023, 356)","(1034, 378)","(1046, 397)","(1062, 415)","(1082, 420)","(1104, 415)","(1125, 402)","(1146, 385)","(1162, 365)","(1173, 342)","(1177, 317)","(1178, 291)","(1177, 266)","(1016, 258)","(1021, 251)","(1031, 249)","(1043, 251)","(1054, 258)","(1088, 256)","(1102, 248)","(1118, 245)","(1133, 247)","(1145, 254)","(1070, 276)","(1068, 289)","(1066, 303)","(1064, 317)","(1056, 328)","(1063, 331)","(1070, 333)","(1078, 330)","(1087, 327)","(1031, 277)","(1038, 273)","(1048, 272)","(1058, 277)","(1048, 281)","(1038, 281)","(1098, 275)","(1107, 269)","(1118, 268)","(1128, 272)","(1119, 277)","(1108, 277)","(1052, 359)","(1057, 354)","(1066, 351)","(1073, 353)","(1081, 350)","(1096, 351)","(1111, 355)","(1099, 370)","(1086, 377)","(1077, 379)","(1069, 378)","(1059, 373)","(1056, 359)","(1066, 358)","(1074, 358)","(1082, 357)","(1106, 355)","(1084, 367)","(1076, 369)","(1068, 368)",0.28,1.24,97.0,0.35,-0.01,0.36,0.04,-8.0,0.1,0.28,77.0,94.2,145.8,52.25,59.3,131.6,44.94,59.29,98.58
10800,983040,126,-56,-1,-1,0,"(1013, 269)","(1010, 290)","(1010, 311)","(1015, 332)","(1023, 354)","(1034, 375)","(1047, 395)","(1062, 413)","(1082, 419)","(1104, 415)","(1126, 402)","(1146, 385)","(1163, 365)","(1175, 342)","(1180, 316)","(1181, 290)","(1180, 264)","(1012, 250)","(1019, 245)","(1029, 244)","(1041, 248)","(1052, 255)","(1089, 254)","(1103, 246)","(1119, 243)","(1135, 245)","(1148, 252)","(1070, 276)","(1068, 289)","(1066, 302)","(1063, 316)","(1054, 326)","(1061, 331)","(1069, 333)","(1078, 330)","(1087, 326)","(1027, 275)","(1035, 271)","(1045, 271)","(1055, 276)","(1044, 279)","(1034, 279)","(1099, 275)","(1108, 269)","(1120, 269)","(1130, 272)","(1120, 277)","(1109, 278)","(1051, 357)","(1056, 353)","(1065, 350)","(1072, 352)","(1080, 349)","(1096, 350)","(1113, 354)","(1100, 370)","(1086, 377)","(1077, 379)","(1068, 378)","(1059, 372)","(1056, 358)","(1066, 357)","(1073, 357)","(1082, 356)","(1107, 355)","(1084, 367)","(1075, 368)","(1068, 367)",0.27,1.32,97.0,0.35,0.04,0.37,0.05,-8.0,0.1,0.27,74.2,91.3,142.1,49.65,58.65,131.9,44.82,59.76,97.82
10833,-196608,126,-56,-1,-1,0,"(1021, 280)","(1019, 298)","(1019, 317)","(1021, 335)","(1026, 353)","(1034, 371)","(1045, 385)","(1060, 396)","(1079, 400)","(1099, 398)","(1121, 390)","(1140, 378)","(1155, 361)","(1165, 341)","(1168, 319)","(1169, 297)","(1170, 274)","(1022, 262)","(1027, 253)","(1039, 249)","(1052, 251)","(1063, 257)","(1091, 256)","(1105, 248)","(1121, 245)","(1137, 248)","(1148, 257)","(1077, 273)","(1075, 285)","(1073, 296)","(1071, 308)","(1061, 319)","(1067, 322)","(1074, 324)","(1083, 322)","(1092, 319)","(1035, 277)","(1042, 273)","(1052, 272)","(1061, 277)","(1052, 280)","(1043, 280)","(1101, 275)","(1111, 269)","(1121, 269)","(1130, 273)","(1122, 277)","(1111, 277)","(1055, 345)","(1061, 339)","(1069, 336)","(1076, 338)","(1084, 336)","(1097, 340)","(1111, 347)","(1097, 356)","(1085, 360)","(1076, 360)","(1068, 359)","(1060, 354)","(1059, 345)","(1070, 343)","(1077, 344)","(1084, 344)","(1105, 347)","(1084, 351)","(1076, 351)","(1069, 350)",0.27,1.14,97.0,0.36,-0.05,0.37,0.03,-7.5,0.1,0.27,75.6,93.1,145.9,72.3,87.25,150.3,64.17,80.23,130.94
10866,-655360,126,-56,-1,-1,0,"(1024, 274)","(1023, 291)","(1023, 308)","(1025, 325)","(1029, 343)","(1037, 358)","(1048, 372)","(1061, 383)","(1078, 387)","(1097, 386)","(1118, 379)","(1137, 370)","(1151, 355)","(1161, 336)","(1165, 315)","(1167, 294)","(1169, 273)","(1024, 259)","(1031, 251)","(1041, 248)","(1054, 250)","(1065, 257)","(1092, 256)","(1106, 249)","(1121, 246)","(1136, 249)","(1148, 257)","(1077, 272)","(1075, 283)","(1073, 293)","(1070, 304)","(1062, 314)","(1067, 317)","(1074, 318)","(1082, 317)","(1090, 315)","(1037, 275)","(1044, 272)","(1053, 272)","(1062, 276)","(1053, 278)","(1044, 278)","(1102, 275)","(1111, 270)","(1121, 270)","(1130, 273)","(1122, 277)","(1111, 277)","(1055, 337)","(1061, 332)","(1068, 330)","(1075, 332)","(1082, 331)","(1094, 334)","(1109, 339)","(1095, 349)","(1083, 352)","(1075, 353)","(1068, 351)","(1060, 346)","(1059, 337)","(1069, 336)","(1075, 336)","(1083, 336)","(1103, 339)","(1082, 345)","(1075, 345)","(1068, 343)",0.25,1.19,97.0,0.36,-0.01,0.37,0.04,-6.5,0.08,0.27,75.8,93.8,149.1,66.9,81.95,151.2,67.29,87.52,146.11
10900,-589824,126,-56,-1,-1,0,"(1017, 276)","(1017, 298)","(1020, 319)","(1024, 339)","(1030, 360)","(1039, 381)","(1051, 400)","(1066, 416)","(1086, 421)","(1108, 417)","(1129, 404)","(1148, 388)","(1163, 369)","(1172, 347)","(1175, 321)","(1177, 296)","(1178, 270)","(1019, 265)","(1024, 256)","(1035, 254)","(1048, 255)","(1060, 261)","(1092, 258)","(1106, 250)","(1122, 247)","(1139, 249)","(1152, 257)","(1076, 276)","(1074, 290)","(1072, 304)","(1070, 319)","(1062, 330)","(1068, 332)","(1075, 334)","(1084, 331)","(1092, 328)","(1036, 279)","(1043, 273)","(1053, 273)","(1063, 279)","(1053, 282)","(1043, 282)","(1103, 276)","(1112, 269)","(1123, 268)","(1133, 272)","(1124, 277)","(1113, 278)","(1055, 360)","(1060, 355)","(1070, 352)","(1078, 354)","(1086, 351)","(1101, 352)","(1117, 356)","(1105, 370)","(1092, 378)","(1082, 380)","(1073, 379)","(1063, 374)","(1059, 361)","(1071, 358)","(1079, 359)","(1088, 357)","(1112, 357)","(1090, 368)","(1081, 370)","(1073, 369)",0.29,1.21,97.0,0.35,-0.05,0.38,0.04,-8.5,0.09,0.29,71.8,89.5,139.0,54.9,60.85,137.0,42.23,57.47,102.7
10933,-720896,126,-56,-1,-1,0,"(1025, 274)","(1023, 292)","(1023, 311)","(1025, 330)","(1030, 349)","(1038, 367)","(1049, 383)","(1063, 396)","(1082, 400)","(1102, 397)","(1123, 388)","(1142, 376)","(1157, 359)","(1167, 338)","(1170, 316)","(1172, 293)","(1173, 269)","(1024, 263)","(1030, 254)","(1041, 251)","(1054, 253)","(1066, 259)","(1095, 258)","(1108, 249)","(1124, 246)","(1140, 248)","(1152, 256)","(1079, 276)","(1078, 288)","(1076, 301)","(1074, 315)","(1064, 323)","(1070, 327)","(1077, 329)","(1086, 326)","(1095, 323)","(1037, 278)","(1045, 274)","(1055, 273)","(1064, 278)","(1055, 281)","(1045, 282)","(1104, 276)","(1114, 269)","(1125, 269)","(1134, 272)","(1126, 277)","(1115, 278)","(1058, 348)","(1063, 343)","(1072, 341)","(1079, 343)","(1086, 341)","(1099, 343)","(1113, 348)","(1100, 358)","(1088, 363)","(1079, 364)","(1072, 363)","(1063, 358)","(1062, 348)","(1072, 348)","(1079, 349)","(1087, 348)","(1108, 348)","(1087, 353)","(1079, 354)","(1072, 353)",0.28,1.17,97.0,0.38,-0.06,0.37,0.03,-7.5,0.1,0.31,76.0,94.5,148.5,57.0,68.6,130.55,68.29,86.52,141.11
10966,-786432,126,-56,-1,-1,0,"(1024, 271)","(1022, 292)","(1022, 312)","(1024, 332)","(1029, 352)","(1038, 371)","(1049, 389)","(1063, 403)","(1082, 407)","(1103, 404)","(1123, 393)","(1142, 379)","(1157, 361)","(1167, 340)","(1171, 317)","(1173, 294)","(1174, 269)","(1024, 262)","(1029, 253)","(1041, 250)","(1054, 252)","(1066, 259)","(1096, 258)","(1110, 250)","(1126, 246)","(1142, 249)","(1154, 258)","(1080, 277)","(1078, 291)","(1076, 305)","(1074, 320)","(1062, 326)","(1069, 330)","(1077, 333)","(1087, 330)","(1096, 326)","(1037, 278)","(1044, 274)","(1055, 273)","(1065, 279)","(1054, 282)","(1044, 282)","(1105, 277)","(1115, 270)","(1126, 270)","(1136, 274)","(1127, 278)","(1116, 279)","(1054, 351)","(1060, 346)","(1071, 344)","(1078, 346)","(1087, 344)","(1101, 345)","(1116, 350)","(1103, 365)","(1089, 372)","(1080, 374)","(1071, 372)","(1060, 366)","(1059, 351)","(1071, 351)","(1079, 352)","(1088, 351)","(1110, 351)","(1088, 361)","(1079, 363)","(1071, 361)",0.27,1.14,96.0,0.39,-0.03,0.41,0.05,-8.0,0.1,0.33,76.8,93.8,148.0,65.8,76.3,143.1,62.29,79.05,128.52
11000,-1114112,126,-56,-1,-1,0,"(1022, 278)","(1022, 300)","(1025, 321)","(1028, 343)","(1033, 364)","(1043, 383)","(1055, 401)","(1071, 415)","(1090, 420)","(1112, 416)","(1133, 403)","(1152, 388)","(1168, 369)","(1177, 346)","(1181, 322)","(1183, 297)","(1184, 271)","(1023, 266)","(1029, 257)","(1040, 254)","(1052, 255)","(1064, 260)","(1097, 258)","(1111, 250)","(1127, 247)","(1144, 249)","(1157, 257)","(1080, 276)","(1078, 290)","(1076, 304)","(1074, 319)","(1066, 330)","(1072, 333)","(1079, 334)","(1088, 331)","(1097, 328)","(1039, 279)","(1047, 274)","(1057, 273)","(1067, 280)","(1057, 282)","(1046, 283)","(1108, 276)","(1117, 268)","(1128, 268)","(1138, 272)","(1129, 277)","(1118, 278)","(1058, 361)","(1064, 355)","(1074, 352)","(1082, 353)","(1090, 351)","(1105, 352)","(1120, 356)","(1108, 371)","(1095, 378)","(1085, 379)","(1076, 379)","(1066, 374)","(1063, 361)","(1075, 358)","(1083, 358)","(1092, 357)","(1115, 357)","(1093, 367)","(1084, 369)","(1076, 368)",0.31,1.15,96.0,0.35,-0.08,0.38,0.04,-8.5,0.1,0.29,73.9,90.9,142.3,54.95,62.15,135.55,49.94,63.58,109.23
11033,-1179648,126,-56,-1,-1,0,"(1024, 279)","(1024, 300)","(1026, 321)","(1029, 342)","(1035, 363)","(1044, 383)","(1056, 400)","(1071, 415)","(1091, 420)","(1112, 416)","(1134, 404)","(1153, 388)","(1168, 369)","(1178, 347)","(1182, 322)","(1184, 297)","(1185, 271)","(1024, 266)","(1030, 257)","(1041, 254)","(1054, 255)","(1066, 261)","(1099, 258)","(1113, 251)","(1129, 248)","(1146, 250)","(1159, 259)","(1082, 276)","(1080, 290)","(1078, 305)","(1077, 320)","(1068, 330)","(1074, 333)","(1081, 335)","(1090, 332)","(1098, 329)","(1040, 279)","(1048, 273)","(1059, 273)","(1068, 280)","(1058, 282)","(1048, 282)","(1109, 277)","(1119, 269)","(1130, 268)","(1140, 273)","(1131, 277)","(1120, 278)","(1059, 362)","(1066, 356)","(1075, 352)","(1083, 354)","(1092, 351)","(1106, 353)","(1121, 357)","(1109, 370)","(1096, 377)","(1086, 379)","(1078, 378)","(1068, 374)","(1064, 362)","(1076, 359)","(1084, 359)","(1093, 357)","(1116, 358)","(1094, 367)","(1085, 368)","(1077, 368)",0.28,1.09,96.0,0.36,-0.05,0.38,0.04,-8.5,0.09,0.3,72.1,89.4,140.7,55.25,61.4,137.15,48.7,64.05,110.88
11066,2752512,126,-56,-1,-1,0,"(1023, 280)","(1023, 302)","(1026, 323)","(1030, 344)","(1035, 365)","(1045, 384)","(1058, 401)","(1072, 416)","(1092, 421)","(1114, 416)","(1137, 403)","(1158, 387)","(1176, 368)","(1188, 346)","(1194, 322)","(1197, 296)","(1199, 269)","(1026, 265)","(1032, 256)","(1043, 254)","(1055, 255)","(1066, 261)","(1101, 258)","(1116, 250)","(1132, 247)","(1148, 250)","(1162, 257)","(1083, 276)","(1081, 290)","(1080, 305)","(1078, 319)","(1069, 331)","(1075, 334)","(1082, 335)","(1090, 332)","(1099, 329)","(1042, 279)","(1050, 274)","(1060, 273)","(1070, 280)","(1060, 283)","(1049, 283)","(1111, 277)","(1119, 269)","(1130, 268)","(1141, 273)","(1131, 278)","(1120, 278)","(1061, 361)","(1068, 357)","(1077, 354)","(1084, 356)","(1092, 353)","(1106, 354)","(1121, 356)","(1108, 369)","(1094, 375)","(1086, 377)","(1077, 376)","(1068, 372)","(1065, 362)","(1077, 361)","(1085, 361)","(1093, 360)","(1116, 357)","(1093, 365)","(1085, 366)","(1077, 366)",0.31,1.12,96.0,0.33,-0.05,0.34,0.03,-9.0,0.09,0.29,74.8,91.7,142.4,51.6,58.8,131.55,41.0,52.76,91.35
11100,-327680,126,-56,-1,-1,0,"(1024, 279)","(1025, 301)","(1028, 323)","(1031, 344)","(1036, 365)","(1046, 384)","(1059, 400)","(1074, 414)","(1094, 418)","(1116, 414)","(1139, 401)","(1160, 385)","(1178, 367)","(1189, 345)","(1195, 320)","(1197, 295)","(1199, 269)","(1027, 265)","(1033, 257)","(1044, 254)","(1056, 255)","(1068, 260)","(1102, 258)","(1117, 250)","(1133, 247)","(1149, 250)","(1163, 257)","(1084, 276)","(1083, 290)","(1081, 304)","(1079, 318)","(1070, 331)","(1077, 334)","(1083, 335)","(1092, 333)","(1100, 330)","(1043, 279)","(1051, 274)","(1061, 273)","(1071, 280)","(1061, 282)","(1051, 283)","(1111, 277)","(1120, 269)","(1132, 268)","(1142, 273)","(1132, 277)","(1121, 278)","(1062, 360)","(1069, 357)","(1079, 355)","(1085, 356)","(1093, 354)","(1106, 354)","(1122, 356)","(1108, 366)","(1095, 371)","(1087, 372)","(1079, 372)","(1070, 369)","(1066, 361)","(1079, 362)","(1086, 362)","(1094, 361)","(1116, 357)","(1094, 361)","(1086, 363)","(1079, 362)",0.28,1.09,96.0,0.33,-0.06,0.34,0.01,-8.0,0.09,0.29,73.3,91.1,141.9,44.45,50.0,132.4,47.58,60.17,100.47
