milliseconds, ECG, ECG HR, PPG, PPG HR, SpO2, PI
1523632511400,-655360,89,-56,-1,-1,0
1523632511400,-786432,89,-56,-1,-1,0
1523632511400,-786432,89,-56,-1,-1,0
1523632511400,-786432,89,-56,-1,-1,0
1523632511400,-786432,89,-56,-1,-1,0
1523632511456,-786432,89,-56,-1,-1,0
1523632511456,-786432,89,-56,-1,-1,0
1523632511456,-786432,89,-56,-1,-1,0
1523632511456,-786432,89,-56,-1,-1,0
1523632511456,-851968,89,-56,-1,-1,0
1523632511480,-851968,89,-56,-1,-1,0
1523632511480,-786432,89,-56,-1,-1,0
1523632511480,-786432,89,-56,-1,-1,0
1523632511480,-851968,89,-56,-1,-1,0
1523632511480,-851968,89,-56,-1,-1,0
1523632511520,-786432,89,-56,-1,-1,0
1523632511520,-786432,89,-56,-1,-1,0
1523632511520,-851968,89,-56,-1,-1,0
1523632511520,-851968,89,-56,-1,-1,0
1523632511520,-720896,89,-56,-1,-1,0
1523632511560,-786432,89,-56,-1,-1,0
1523632511560,-851968,89,-56,-1,-1,0
1523632511560,-851968,89,-56,-1,-1,0
1523632511560,-786432,89,-56,-1,-1,0
1523632511560,-786432,89,-56,-1,-1,0
1523632511600,-786432,89,-56,-1,-1,0
1523632511600,-786432,89,-56,-1,-1,0
1523632511600,-851968,89,-56,-1,-1,0
1523632511600,-851968,89,-56,-1,-1,0
1523632511600,-851968,89,-56,-1,-1,0
1523632511640,-917504,89,-56,-1,-1,0
1523632511640,-1048576,89,-56,-1,-1,0
1523632511640,-1114112,89,-56,-1,-1,0
1523632511640,-917504,89,-56,-1,-1,0
1523632511640,-720896,89,-56,-1,-1,0
1523632511680,-458752,89,-56,-1,-1,0
1523632511680,-65536,89,-56,-1,-1,0
1523632511680,65536,89,-56,-1,-1,0
1523632511680,-65536,89,-56,-1,-1,0
1523632511680,-327680,89,-56,-1,-1,0
1523632511720,-655360,89,-56,-1,-1,0
1523632511720,-720896,89,-56,-1,-1,0
1523632511720,-786432,89,-56,-1,-1,0
1523632511720,-720896,89,-56,-1,-1,0
1523632511720,-393216,89,-56,-1,-1,0
1523632511760,1703936,89,-56,-1,-1,0
1523632511760,6684672,89,-56,-1,-1,0
1523632511760,10158080,89,-56,-1,-1,0
1523632511760,6750208,89,-56,-1,-1,0
1523632511760,-1114112,89,-56,-1,-1,0
1523632511800,-5636096,89,-56,-1,-1,0
1523632511800,-4849664,89,-56,-1,-1,0
1523632511800,-2621440,89,-56,-1,-1,0
1523632511800,-1572864,89,-56,-1,-1,0
1523632511800,-1245184,89,-56,-1,-1,0
1523632511840,-1179648,89,-56,-1,-1,0
1523632511840,-1048576,89,-56,-1,-1,0
1523632511840,-917504,89,-56,-1,-1,0
1523632511840,-786432,89,-56,-1,-1,0
1523632511840,-720896,89,-56,-1,-1,0
1523632511880,-589824,89,-56,-1,-1,0
1523632511880,-458752,89,-56,-1,-1,0
1523632511880,-327680,89,-56,-1,-1,0
1523632511880,-131072,89,-56,-1,-1,0
1523632511880,0,89,-56,-1,-1,0
1523632511920,131072,89,-56,-1,-1,0
1523632511920,393216,89,-56,-1,-1,0
1523632511920,655360,89,-56,-1,-1,0
1523632511920,1048576,89,-56,-1,-1,0
1523632511920,1376256,89,-56,-1,-1,0
1523632511960,1835008,89,-56,-1,-1,0
1523632511960,2359296,89,-56,-1,-1,0
1523632511960,2949120,89,-56,-1,-1,0
1523632511960,3473408,89,-56,-1,-1,0
1523632511960,3997696,89,-56,-1,-1,0
1523632512001,4456448,89,-56,-1,-1,0
1523632512001,4784128,89,-56,-1,-1,0
1523632512001,4915200,89,-56,-1,-1,0
1523632512001,4980736,89,-56,-1,-1,0
1523632512001,4784128,89,-56,-1,-1,0
1523632512040,4325376,89,-56,-1,-1,0
1523632512040,3670016,89,-56,-1,-1,0
1523632512040,2949120,89,-56,-1,-1,0
1523632512040,2424832,89,-56,-1,-1,0
1523632512040,1900544,89,-56,-1,-1,0
1523632512089,1441792,89,-56,-1,-1,0
1523632512089,1114112,89,-56,-1,-1,0
1523632512089,917504,89,-56,-1,-1,0
1523632512089,720896,89,-56,-1,-1,0
1523632512089,589824,89,-56,-1,-1,0
1523632512120,524288,89,-56,-1,-1,0
1523632512120,393216,89,-56,-1,-1,0
1523632512120,196608,89,-56,-1,-1,0
1523632512120,0,89,-56,-1,-1,0
1523632512120,0,89,-56,-1,-1,0
1523632512160,-65536,89,-56,-1,-1,0
1523632512160,-262144,89,-56,-1,-1,0
1523632512160,-393216,89,-56,-1,-1,0
1523632512160,-458752,89,-56,-1,-1,0
1523632512160,-589824,89,-56,-1,-1,0
1523632512200,-655360,89,-56,-1,-1,0
1523632512200,-786432,89,-56,-1,-1,0
1523632512200,-917504,89,-56,-1,-1,0
1523632512200,-983040,89,-56,-1,-1,0
1523632512200,-1048576,89,-56,-1,-1,0
1523632512240,-1179648,89,-56,-1,-1,0
1523632512240,-1245184,89,-56,-1,-1,0
1523632512240,-1245184,89,-56,-1,-1,0
1523632512240,-1245184,89,-56,-1,-1,0
1523632512240,-1310720,89,-56,-1,-1,0
1523632512280,-1310720,89,-56,-1,-1,0
1523632512280,-1376256,89,-56,-1,-1,0
1523632512280,-1376256,89,-56,-1,-1,0
1523632512280,-1376256,89,-56,-1,-1,0
1523632512280,-1376256,89,-56,-1,-1,0
1523632512320,-1376256,89,-56,-1,-1,0
1523632512320,-1376256,89,-56,-1,-1,0
1523632512320,-1376256,89,-56,-1,-1,0
1523632512320,-1376256,89,-56,-1,-1,0
1523632512320,-1441792,89,-56,-1,-1,0
1523632512360,-1441792,89,-56,-1,-1,0
1523632512360,-1376256,89,-56,-1,-1,0
1523632512360,-1441792,89,-56,-1,-1,0
1523632512360,-1507328,89,-56,-1,-1,0
1523632512360,-1507328,89,-56,-1,-1,0
1523632512400,-1441792,89,-56,-1,-1,0
1523632512400,-1441792,89,-56,-1,-1,0
1523632512400,-1441792,89,-56,-1,-1,0
1523632512400,-1441792,89,-56,-1,-1,0
1523632512400,-1441792,89,-56,-1,-1,0
1523632512440,-1441792,89,-56,-1,-1,0
1523632512440,-1441792,89,-56,-1,-1,0
1523632512440,-1441792,89,-56,-1,-1,0
1523632512440,-1441792,89,-56,-1,-1,0
1523632512440,-1441792,89,-56,-1,-1,0
1523632512480,-1441792,89,-56,-1,-1,0
1523632512480,-1441792,89,-56,-1,-1,0
1523632512480,-1507328,89,-56,-1,-1,0
1523632512480,-1572864,89,-56,-1,-1,0
1523632512480,-1638400,89,-56,-1,-1,0
1523632512520,-1572864,89,-56,-1,-1,0
1523632512520,-1441792,89,-56,-1,-1,0
1523632512520,-1245184,89,-56,-1,-1,0
1523632512520,-917504,89,-56,-1,-1,0
1523632512520,-589824,89,-56,-1,-1,0
1523632512560,-458752,89,-56,-1,-1,0
1523632512560,-655360,89,-56,-1,-1,0
1523632512560,-917504,89,-56,-1,-1,0
1523632512560,-1179648,89,-56,-1,-1,0
1523632512560,-1310720,89,-56,-1,-1,0
1523632512600,-1310720,89,-56,-1,-1,0
1523632512600,-1310720,89,-56,-1,-1,0
1523632512600,-655360,89,-56,-1,-1,0
1523632512600,2490368,89,-56,-1,-1,0
1523632512600,8126464,89,-56,-1,-1,0
1523632512640,10223616,89,-56,-1,-1,0
1523632512640,4653056,89,-56,-1,-1,0
1523632512640,-2949120,89,-56,-1,-1,0
1523632512640,-5439488,89,-56,-1,-1,0
1523632512640,-3801088,89,-56,-1,-1,0
1523632512680,-2359296,89,-56,-1,-1,0
1523632512680,-1835008,89,-56,-1,-1,0
1523632512680,-1703936,89,-56,-1,-1,0
1523632512680,-1638400,89,-56,-1,-1,0
1523632512680,-1507328,89,-56,-1,-1,0
1523632512729,-1376256,89,-56,-1,-1,0
1523632512729,-1310720,89,-56,-1,-1,0
1523632512729,-1179648,89,-56,-1,-1,0
1523632512729,-1048576,89,-56,-1,-1,0
1523632512729,-917504,89,-56,-1,-1,0
1523632512760,-786432,89,-56,-1,-1,0
1523632512760,-655360,89,-56,-1,-1,0
1523632512760,-458752,89,-56,-1,-1,0
1523632512760,-262144,89,-56,-1,-1,0
1523632512760,0,89,-56,-1,-1,0
1523632512800,262144,89,-56,-1,-1,0
1523632512800,589824,89,-56,-1,-1,0
1523632512800,983040,89,-56,-1,-1,0
1523632512800,1441792,89,-56,-1,-1,0
1523632512800,1966080,89,-56,-1,-1,0
1523632512840,2490368,89,-56,-1,-1,0
1523632512840,2949120,89,-56,-1,-1,0
1523632512840,3342336,89,-56,-1,-1,0
1523632512840,3604480,89,-56,-1,-1,0
1523632512840,3670016,89,-56,-1,-1,0
1523632512880,3604480,89,-56,-1,-1,0
1523632512880,3407872,89,-56,-1,-1,0
1523632512880,3014656,89,-56,-1,-1,0
1523632512880,2424832,89,-56,-1,-1,0
1523632512880,1769472,89,-56,-1,-1,0
1523632512920,1179648,89,-56,-1,-1,0
1523632512920,655360,89,-56,-1,-1,0
1523632512920,327680,89,-56,-1,-1,0
1523632512920,131072,89,-56,-1,-1,0
1523632512920,-65536,89,-56,-1,-1,0
1523632512960,-196608,89,-56,-1,-1,0
1523632512960,-196608,89,-56,-1,-1,0
1523632512960,-196608,89,-56,-1,-1,0
1523632512960,-262144,89,-56,-1,-1,0
1523632512960,-327680,89,-56,-1,-1,0
1523632513000,-393216,89,-56,-1,-1,0
1523632513000,-458752,89,-56,-1,-1,0
1523632513000,-524288,89,-56,-1,-1,0
1523632513000,-589824,89,-56,-1,-1,0
1523632513000,-655360,89,-56,-1,-1,0
1523632513040,-720896,89,-56,-1,-1,0
1523632513040,-786432,89,-56,-1,-1,0
1523632513040,-917504,89,-56,-1,-1,0
1523632513040,-983040,89,-56,-1,-1,0
1523632513040,-983040,89,-56,-1,-1,0
1523632513081,-1048576,89,-56,-1,-1,0
1523632513081,-1114112,89,-56,-1,-1,0
1523632513081,-1179648,89,-56,-1,-1,0
1523632513081,-1245184,89,-56,-1,-1,0
1523632513081,-1245184,89,-56,-1,-1,0
1523632513120,-1179648,89,-56,-1,-1,0
1523632513120,-1114112,89,-56,-1,-1,0
1523632513120,-1179648,89,-56,-1,-1,0
1523632513120,-1245184,89,-56,-1,-1,0
1523632513120,-1245184,89,-56,-1,-1,0
1523632513160,-1179648,89,-56,-1,-1,0
1523632513160,-1245184,89,-56,-1,-1,0
1523632513160,-1245184,89,-56,-1,-1,0
1523632513160,-1245184,89,-56,-1,-1,0
1523632513160,-1245184,89,-56,-1,-1,0
1523632513200,-1245184,89,-56,-1,-1,0
1523632513200,-1179648,89,-56,-1,-1,0
1523632513200,-1114112,89,-56,-1,-1,0
1523632513200,-1114112,89,-56,-1,-1,0
1523632513200,-1114112,89,-56,-1,-1,0
1523632513240,-1114112,89,-56,-1,-1,0
1523632513240,-1114112,89,-56,-1,-1,0
1523632513240,-1114112,89,-56,-1,-1,0
1523632513240,-1114112,89,-56,-1,-1,0
1523632513240,-1114112,89,-56,-1,-1,0
1523632513280,-1048576,89,-56,-1,-1,0
1523632513280,-1048576,89,-56,-1,-1,0
1523632513280,-983040,89,-56,-1,-1,0
1523632513280,-1048576,89,-56,-1,-1,0
1523632513280,-1114112,89,-56,-1,-1,0
1523632513320,-1114112,89,-56,-1,-1,0
1523632513320,-1179648,89,-56,-1,-1,0
1523632513320,-1048576,89,-56,-1,-1,0
1523632513320,-851968,89,-56,-1,-1,0
1523632513320,-524288,89,-56,-1,-1,0
1523632513369,-196608,89,-56,-1,-1,0
1523632513369,0,89,-56,-1,-1,0
1523632513369,-65536,89,-56,-1,-1,0
1523632513369,-262144,89,-56,-1,-1,0
1523632513369,-589824,89,-56,-1,-1,0
1523632513400,-786432,89,-56,-1,-1,0
1523632513400,-851968,89,-56,-1,-1,0
1523632513400,-786432,89,-56,-1,-1,0
1523632513400,-589824,89,-56,-1,-1,0
1523632513400,983040,89,-56,-1,-1,0
1523632513440,5505024,89,-56,-1,-1,0
1523632513440,10092544,89,-56,-1,-1,0
1523632513440,8388608,89,-56,-1,-1,0
1523632513440,720896,89,-56,-1,-1,0
1523632513440,-4980736,89,-56,-1,-1,0
1523632513480,-5111808,89,-56,-1,-1,0
1523632513480,-3014656,89,-56,-1,-1,0
1523632513480,-1638400,89,-56,-1,-1,0
1523632513480,-1245184,89,-56,-1,-1,0
1523632513480,-1114112,89,-56,-1,-1,0
1523632513520,-983040,89,-56,-1,-1,0
1523632513520,-851968,89,-56,-1,-1,0
1523632513520,-655360,89,-56,-1,-1,0
1523632513520,-524288,89,-56,-1,-1,0
1523632513520,-327680,89,-56,-1,-1,0
1523632513560,-196608,89,-56,-1,-1,0
1523632513560,-65536,89,-56,-1,-1,0
1523632513560,65536,89,-56,-1,-1,0
1523632513560,262144,89,-56,-1,-1,0
1523632513560,458752,89,-56,-1,-1,0
1523632513600,786432,89,-56,-1,-1,0
1523632513600,1179648,89,-56,-1,-1,0
1523632513600,1507328,89,-56,-1,-1,0
1523632513600,1966080,89,-56,-1,-1,0
1523632513600,2555904,89,-56,-1,-1,0
1523632513640,3211264,89,-56,-1,-1,0
1523632513640,3932160,89,-56,-1,-1,0
1523632513640,4587520,89,-56,-1,-1,0
1523632513640,5177344,89,-56,-1,-1,0
1523632513640,5636096,89,-56,-1,-1,0
1523632513680,5832704,89,-56,-1,-1,0
1523632513680,5832704,89,-56,-1,-1,0
1523632513680,5701632,89,-56,-1,-1,0
1523632513680,5373952,89,-56,-1,-1,0
1523632513680,4718592,89,-56,-1,-1,0
1523632513720,3866624,89,-56,-1,-1,0
1523632513720,3014656,89,-56,-1,-1,0
1523632513720,2293760,89,-56,-1,-1,0
1523632513720,1769472,89,-56,-1,-1,0
1523632513720,1376256,89,-56,-1,-1,0
1523632513760,1048576,89,-56,-1,-1,0
1523632513760,851968,89,-56,-1,-1,0
1523632513760,786432,89,-56,-1,-1,0
1523632513760,655360,89,-56,-1,-1,0
1523632513760,589824,89,-56,-1,-1,0
1523632513800,589824,89,-56,-1,-1,0
1523632513800,589824,89,-56,-1,-1,0
1523632513800,524288,89,-56,-1,-1,0
1523632513800,393216,89,-56,-1,-1,0
1523632513800,327680,89,-56,-1,-1,0
1523632513840,262144,89,-56,-1,-1,0
1523632513840,196608,89,-56,-1,-1,0
1523632513840,131072,89,-56,-1,-1,0
1523632513840,65536,89,-56,-1,-1,0
1523632513840,0,89,-56,-1,-1,0
1523632513880,-131072,89,-56,-1,-1,0
1523632513880,-196608,89,-56,-1,-1,0
1523632513880,-262144,89,-56,-1,-1,0
1523632513880,-262144,89,-56,-1,-1,0
1523632513880,-327680,89,-56,-1,-1,0
1523632513920,-393216,89,-56,-1,-1,0
1523632513920,-393216,89,-56,-1,-1,0
1523632513920,-458752,89,-56,-1,-1,0
1523632513920,-524288,89,-56,-1,-1,0
1523632513920,-524288,89,-56,-1,-1,0
1523632513960,-524288,89,-56,-1,-1,0
1523632513960,-589824,89,-56,-1,-1,0
1523632513960,-655360,89,-56,-1,-1,0
1523632513960,-720896,89,-56,-1,-1,0
1523632513960,-720896,89,-56,-1,-1,0
1523632514009,-720896,89,-56,-1,-1,0
1523632514009,-720896,89,-56,-1,-1,0
1523632514009,-786432,89,-56,-1,-1,0
1523632514009,-786432,89,-56,-1,-1,0
1523632514009,-851968,89,-56,-1,-1,0
1523632514040,-917504,89,-56,-1,-1,0
1523632514040,-851968,89,-56,-1,-1,0
1523632514040,-917504,89,-56,-1,-1,0
1523632514040,-983040,89,-56,-1,-1,0
1523632514040,-1114112,89,-56,-1,-1,0
1523632514080,-1179648,89,-56,-1,-1,0
1523632514080,-1179648,89,-56,-1,-1,0
1523632514080,-1048576,89,-56,-1,-1,0
1523632514080,-786432,89,-56,-1,-1,0
1523632514080,-458752,89,-56,-1,-1,0
1523632514121,-196608,89,-56,-1,-1,0
1523632514121,-262144,89,-56,-1,-1,0
1523632514121,-589824,89,-56,-1,-1,0
1523632514121,-917504,89,-56,-1,-1,0
1523632514121,-1114112,89,-56,-1,-1,0
1523632514160,-1245184,88,-56,-1,-1,0
1523632514160,-1245184,88,-56,-1,-1,0
1523632514160,-1114112,88,-56,-1,-1,0
1523632514160,131072,88,-56,-1,-1,0
1523632514160,4194304,88,-56,-1,-1,0
1523632514200,9109504,88,-56,-1,-1,0
1523632514200,8126464,88,-56,-1,-1,0
1523632514200,589824,88,-56,-1,-1,0
1523632514200,-5439488,88,-56,-1,-1,0
1523632514200,-5767168,88,-56,-1,-1,0
1523632514240,-3670016,88,-56,-1,-1,0
1523632514240,-2359296,88,-56,-1,-1,0
1523632514240,-1900544,88,-56,-1,-1,0
1523632514240,-1835008,88,-56,-1,-1,0
1523632514240,-1638400,88,-56,-1,-1,0
1523632514280,-1507328,88,-56,-1,-1,0
1523632514280,-1376256,88,-56,-1,-1,0
1523632514280,-1310720,88,-56,-1,-1,0
1523632514280,-1179648,88,-56,-1,-1,0
1523632514280,-1114112,88,-56,-1,-1,0
1523632514320,-983040,88,-56,-1,-1,0
1523632514320,-851968,88,-56,-1,-1,0
1523632514320,-655360,88,-56,-1,-1,0
1523632514320,-524288,88,-56,-1,-1,0
1523632514320,-262144,88,-56,-1,-1,0
1523632514360,0,88,-56,-1,-1,0
1523632514360,262144,88,-56,-1,-1,0
1523632514360,655360,88,-56,-1,-1,0
1523632514360,1114112,88,-56,-1,-1,0
1523632514360,1703936,88,-56,-1,-1,0
1523632514400,2293760,88,-56,-1,-1,0
1523632514400,2752512,88,-56,-1,-1,0
1523632514400,3211264,88,-56,-1,-1,0
1523632514400,3538944,88,-56,-1,-1,0
1523632514400,3670016,88,-56,-1,-1,0
1523632514440,3670016,88,-56,-1,-1,0
1523632514440,3473408,88,-56,-1,-1,0
1523632514440,3080192,88,-56,-1,-1,0
1523632514440,2490368,88,-56,-1,-1,0
1523632514440,1835008,88,-56,-1,-1,0
1523632514480,1179648,88,-56,-1,-1,0
1523632514480,655360,88,-56,-1,-1,0
1523632514480,196608,88,-56,-1,-1,0
1523632514480,-65536,88,-56,-1,-1,0
1523632514480,-262144,88,-56,-1,-1,0
1523632514520,-327680,88,-56,-1,-1,0
1523632514520,-393216,88,-56,-1,-1,0
1523632514520,-393216,88,-56,-1,-1,0
1523632514520,-393216,88,-56,-1,-1,0
1523632514520,-327680,88,-56,-1,-1,0
1523632514560,-393216,88,-56,-1,-1,0
1523632514560,-393216,88,-56,-1,-1,0
1523632514560,-458752,88,-56,-1,-1,0
1523632514560,-524288,88,-56,-1,-1,0
1523632514560,-589824,88,-56,-1,-1,0
1523632514600,-655360,88,-56,-1,-1,0
1523632514600,-720896,88,-56,-1,-1,0
1523632514600,-786432,88,-56,-1,-1,0
1523632514600,-851968,88,-56,-1,-1,0
1523632514600,-917504,88,-56,-1,-1,0
1523632514649,-983040,88,-56,-1,-1,0
1523632514649,-983040,88,-56,-1,-1,0
1523632514649,-1048576,88,-56,-1,-1,0
1523632514649,-1114112,88,-56,-1,-1,0
1523632514649,-1179648,88,-56,-1,-1,0
1523632514680,-1179648,88,-56,-1,-1,0
1523632514680,-1245184,88,-56,-1,-1,0
1523632514680,-1245184,88,-56,-1,-1,0
1523632514680,-1179648,88,-56,-1,-1,0
1523632514680,-1245184,88,-56,-1,-1,0
1523632514720,-1245184,88,-56,-1,-1,0
1523632514720,-1245184,88,-56,-1,-1,0
1523632514720,-1245184,88,-56,-1,-1,0
1523632514720,-1245184,88,-56,-1,-1,0
1523632514720,-1310720,88,-56,-1,-1,0
1523632514760,-1376256,88,-56,-1,-1,0
1523632514760,-1572864,88,-56,-1,-1,0
1523632514760,-1835008,88,-56,-1,-1,0
1523632514760,-1966080,88,-56,-1,-1,0
1523632514760,-1966080,88,-56,-1,-1,0
1523632514800,-1769472,88,-56,-1,-1,0
1523632514800,-1245184,88,-56,-1,-1,0
1523632514800,-720896,88,-56,-1,-1,0
1523632514800,-458752,88,-56,-1,-1,0
1523632514800,-655360,88,-56,-1,-1,0
1523632514840,-1048576,89,-56,-1,-1,0
1523632514840,-1310720,89,-56,-1,-1,0
1523632514840,-1376256,89,-56,-1,-1,0
1523632514840,-1376256,89,-56,-1,-1,0
1523632514840,-1376256,89,-56,-1,-1,0
1523632514880,-851968,89,-56,-1,-1,0
1523632514880,2031616,89,-56,-1,-1,0
1523632514880,7929856,89,-56,-1,-1,0
1523632514880,11075584,89,-56,-1,-1,0
1523632514880,6094848,89,-56,-1,-1,0
1523632514920,-1835008,89,-56,-1,-1,0
1523632514920,-5046272,89,-56,-1,-1,0
1523632514920,-3670016,89,-56,-1,-1,0
1523632514920,-2293760,89,-56,-1,-1,0
1523632514920,-1835008,89,-56,-1,-1,0
1523632514960,-1769472,89,-56,-1,-1,0
1523632514960,-1769472,89,-56,-1,-1,0
1523632514960,-1703936,89,-56,-1,-1,0
1523632514960,-1572864,89,-56,-1,-1,0
1523632514960,-1441792,89,-56,-1,-1,0
1523632515000,-1376256,89,-56,-1,-1,0
1523632515000,-1245184,89,-56,-1,-1,0
1523632515000,-1114112,89,-56,-1,-1,0
1523632515000,-983040,89,-56,-1,-1,0
1523632515000,-786432,89,-56,-1,-1,0
1523632515040,-589824,89,-56,-1,-1,0
1523632515040,-393216,89,-56,-1,-1,0
1523632515040,-131072,89,-56,-1,-1,0
1523632515040,131072,89,-56,-1,-1,0
1523632515040,524288,89,-56,-1,-1,0
1523632515080,983040,89,-56,-1,-1,0
1523632515080,1441792,89,-56,-1,-1,0
1523632515080,2031616,89,-56,-1,-1,0
1523632515080,2621440,89,-56,-1,-1,0
1523632515080,3145728,89,-56,-1,-1,0
1523632515120,3538944,89,-56,-1,-1,0
1523632515120,3735552,89,-56,-1,-1,0
1523632515120,3735552,89,-56,-1,-1,0
1523632515120,3538944,89,-56,-1,-1,0
1523632515120,3211264,89,-56,-1,-1,0
1523632515160,2686976,89,-56,-1,-1,0
1523632515160,2031616,89,-56,-1,-1,0
1523632515160,1376256,89,-56,-1,-1,0
1523632515160,786432,89,-56,-1,-1,0
1523632515160,262144,89,-56,-1,-1,0
1523632515200,0,89,-56,-1,-1,0
1523632515200,-131072,89,-56,-1,-1,0
1523632515200,-327680,89,-56,-1,-1,0
1523632515200,-393216,89,-56,-1,-1,0
1523632515200,-393216,89,-56,-1,-1,0
1523632515240,-393216,89,-56,-1,-1,0
1523632515240,-458752,89,-56,-1,-1,0
1523632515240,-458752,89,-56,-1,-1,0
1523632515240,-458752,89,-56,-1,-1,0
1523632515240,-524288,89,-56,-1,-1,0
1523632515290,-589824,89,-56,-1,-1,0
1523632515290,-655360,89,-56,-1,-1,0
1523632515290,-786432,89,-56,-1,-1,0
1523632515290,-851968,89,-56,-1,-1,0
1523632515290,-851968,89,-56,-1,-1,0
1523632515321,-917504,89,-56,-1,-1,0
1523632515321,-983040,89,-56,-1,-1,0
1523632515321,-1048576,89,-56,-1,-1,0
1523632515321,-1114112,89,-56,-1,-1,0
1523632515321,-1114112,89,-56,-1,-1,0
1523632515360,-1179648,89,-56,-1,-1,0
1523632515360,-1245184,89,-56,-1,-1,0
1523632515360,-1245184,89,-56,-1,-1,0
1523632515360,-1245184,89,-56,-1,-1,0
1523632515360,-1245184,89,-56,-1,-1,0
1523632515400,-1310720,89,-56,-1,-1,0
1523632515400,-1310720,89,-56,-1,-1,0
1523632515400,-1310720,89,-56,-1,-1,0
1523632515400,-1310720,89,-56,-1,-1,0
1523632515400,-1441792,89,-56,-1,-1,0
1523632515440,-1638400,89,-56,-1,-1,0
1523632515440,-1835008,89,-56,-1,-1,0
1523632515440,-1966080,89,-56,-1,-1,0
1523632515440,-2031616,89,-56,-1,-1,0
1523632515440,-1769472,89,-56,-1,-1,0
1523632515480,-1310720,89,-56,-1,-1,0
1523632515480,-786432,89,-56,-1,-1,0
1523632515480,-524288,89,-56,-1,-1,0
1523632515480,-720896,89,-56,-1,-1,0
1523632515480,-1114112,89,-56,-1,-1,0
1523632515520,-1376256,89,-56,-1,-1,0
1523632515520,-1376256,89,-56,-1,-1,0
1523632515520,-1441792,89,-56,-1,-1,0
1523632515520,-1441792,89,-56,-1,-1,0
1523632515520,-1114112,89,-56,-1,-1,0
1523632515560,1179648,89,-56,-1,-1,0
1523632515560,6684672,89,-56,-1,-1,0
1523632515560,10682368,89,-56,-1,-1,0
1523632515560,6946816,89,-56,-1,-1,0
1523632515560,-1179648,89,-56,-1,-1,0
1523632515600,-5308416,89,-56,-1,-1,0
1523632515600,-4259840,89,-56,-1,-1,0
1523632515600,-2686976,89,-56,-1,-1,0
1523632515600,-2162688,89,-56,-1,-1,0
1523632515600,-2031616,89,-56,-1,-1,0
1523632515640,-1966080,89,-56,-1,-1,0
1523632515640,-1900544,89,-56,-1,-1,0
1523632515640,-1769472,89,-56,-1,-1,0
1523632515640,-1703936,89,-56,-1,-1,0
1523632515640,-1638400,89,-56,-1,-1,0
1523632515680,-1507328,89,-56,-1,-1,0
1523632515680,-1376256,89,-56,-1,-1,0
1523632515680,-1245184,89,-56,-1,-1,0
1523632515680,-1048576,89,-56,-1,-1,0
1523632515680,-851968,89,-56,-1,-1,0
1523632515720,-589824,89,-56,-1,-1,0
1523632515720,-327680,89,-56,-1,-1,0
1523632515720,0,89,-56,-1,-1,0
1523632515720,327680,89,-56,-1,-1,0
1523632515720,851968,89,-56,-1,-1,0
1523632515760,1376256,89,-56,-1,-1,0
1523632515760,2031616,89,-56,-1,-1,0
1523632515760,2621440,89,-56,-1,-1,0
1523632515760,3145728,89,-56,-1,-1,0
1523632515760,3604480,89,-56,-1,-1,0
1523632515800,3932160,89,-56,-1,-1,0
1523632515800,4063232,89,-56,-1,-1,0
1523632515800,4063232,89,-56,-1,-1,0
1523632515800,3801088,89,-56,-1,-1,0
1523632515800,3211264,89,-56,-1,-1,0
1523632515840,2490368,89,-56,-1,-1,0
1523632515840,1769472,89,-56,-1,-1,0
1523632515840,1114112,89,-56,-1,-1,0
1523632515840,589824,89,-56,-1,-1,0
1523632515840,131072,89,-56,-1,-1,0
1523632515880,-65536,89,-56,-1,-1,0
1523632515880,-131072,89,-56,-1,-1,0
1523632515880,-196608,89,-56,-1,-1,0
1523632515880,-262144,89,-56,-1,-1,0
1523632515880,-327680,89,-56,-1,-1,0
1523632515929,-393216,89,-56,-1,-1,0
1523632515929,-393216,89,-56,-1,-1,0
1523632515929,-393216,89,-56,-1,-1,0
1523632515929,-458752,89,-56,-1,-1,0
1523632515929,-524288,89,-56,-1,-1,0
1523632515960,-589824,89,-56,-1,-1,0
1523632515960,-655360,89,-56,-1,-1,0
1523632515960,-720896,89,-56,-1,-1,0
1523632515960,-720896,89,-56,-1,-1,0
1523632515960,-720896,89,-56,-1,-1,0
1523632516000,-786432,89,-56,-1,-1,0
1523632516000,-851968,89,-56,-1,-1,0
1523632516000,-917504,89,-56,-1,-1,0
1523632516000,-917504,89,-56,-1,-1,0
1523632516000,-917504,89,-56,-1,-1,0
1523632516040,-983040,89,-56,-1,-1,0
1523632516040,-983040,89,-56,-1,-1,0
1523632516040,-983040,89,-56,-1,-1,0
1523632516040,-983040,89,-56,-1,-1,0
1523632516040,-983040,89,-56,-1,-1,0
1523632516080,-917504,89,-56,-1,-1,0
1523632516080,-851968,89,-56,-1,-1,0
1523632516080,-917504,89,-56,-1,-1,0
1523632516080,-917504,89,-56,-1,-1,0
1523632516080,-917504,89,-56,-1,-1,0
1523632516120,-851968,89,-56,-1,-1,0
1523632516120,-917504,89,-56,-1,-1,0
1523632516120,-917504,89,-56,-1,-1,0
1523632516120,-917504,89,-56,-1,-1,0
1523632516120,-917504,89,-56,-1,-1,0
1523632516160,-851968,89,-56,-1,-1,0
1523632516160,-917504,89,-56,-1,-1,0
1523632516160,-983040,89,-56,-1,-1,0
1523632516160,-1114112,89,-56,-1,-1,0
1523632516160,-1245184,89,-56,-1,-1,0
1523632516200,-1179648,89,-56,-1,-1,0
1523632516200,-1048576,89,-56,-1,-1,0
1523632516200,-655360,89,-56,-1,-1,0
1523632516200,-262144,89,-56,-1,-1,0
1523632516200,0,89,-56,-1,-1,0
1523632516240,-131072,89,-56,-1,-1,0
1523632516240,-393216,89,-56,-1,-1,0
1523632516240,-655360,89,-56,-1,-1,0
1523632516240,-720896,89,-56,-1,-1,0
1523632516240,-720896,89,-56,-1,-1,0
1523632516280,-655360,87,-56,-1,-1,0
1523632516280,-65536,87,-56,-1,-1,0
1523632516280,2359296,87,-56,-1,-1,0
1523632516280,7405568,87,-56,-1,-1,0
1523632516280,10092544,87,-56,-1,-1,0
1523632516320,5570560,87,-56,-1,-1,0
1523632516320,-2293760,87,-56,-1,-1,0
1523632516320,-6029312,87,-56,-1,-1,0
1523632516320,-4849664,87,-56,-1,-1,0
1523632516320,-2621440,87,-56,-1,-1,0
1523632516360,-1572864,87,-56,-1,-1,0
1523632516360,-1179648,87,-56,-1,-1,0
1523632516360,-1114112,87,-56,-1,-1,0
1523632516360,-983040,87,-56,-1,-1,0
1523632516360,-851968,87,-56,-1,-1,0
1523632516400,-720896,87,-56,-1,-1,0
1523632516400,-655360,87,-56,-1,-1,0
1523632516400,-524288,87,-56,-1,-1,0
1523632516400,-393216,87,-56,-1,-1,0
1523632516400,-262144,87,-56,-1,-1,0
1523632516440,-131072,87,-56,-1,-1,0
1523632516440,0,87,-56,-1,-1,0
1523632516440,196608,87,-56,-1,-1,0
1523632516440,458752,87,-56,-1,-1,0
1523632516440,786432,87,-56,-1,-1,0
1523632516480,1179648,87,-56,-1,-1,0
1523632516480,1638400,87,-56,-1,-1,0
1523632516480,2162688,87,-56,-1,-1,0
1523632516480,2752512,87,-56,-1,-1,0
1523632516480,3407872,87,-56,-1,-1,0
1523632516520,3932160,87,-56,-1,-1,0
1523632516520,4456448,87,-56,-1,-1,0
1523632516520,4784128,87,-56,-1,-1,0
1523632516520,4980736,87,-56,-1,-1,0
1523632516520,4915200,87,-56,-1,-1,0
1523632516569,4653056,87,-56,-1,-1,0
1523632516569,4194304,87,-56,-1,-1,0
1523632516569,3473408,87,-56,-1,-1,0
1523632516569,2752512,87,-56,-1,-1,0
1523632516569,1966080,87,-56,-1,-1,0
1523632516600,1245184,87,-56,-1,-1,0
1523632516600,720896,87,-56,-1,-1,0
1523632516600,393216,87,-56,-1,-1,0
1523632516600,131072,87,-56,-1,-1,0
1523632516600,65536,87,-56,-1,-1,0
1523632516640,0,87,-56,-1,-1,0
1523632516640,0,87,-56,-1,-1,0
1523632516640,-65536,87,-56,-1,-1,0
1523632516640,-65536,87,-56,-1,-1,0
1523632516640,-131072,87,-56,-1,-1,0
1523632516680,-196608,87,-56,-1,-1,0
1523632516680,-327680,87,-56,-1,-1,0
1523632516680,-393216,87,-56,-1,-1,0
1523632516680,-458752,87,-56,-1,-1,0
1523632516680,-524288,87,-56,-1,-1,0
1523632516720,-589824,87,-56,-1,-1,0
1523632516720,-655360,87,-56,-1,-1,0
1523632516720,-720896,87,-56,-1,-1,0
1523632516720,-786432,87,-56,-1,-1,0
1523632516720,-851968,87,-56,-1,-1,0
1523632516760,-917504,87,-56,-1,-1,0
1523632516760,-983040,87,-56,-1,-1,0
1523632516760,-983040,87,-56,-1,-1,0
1523632516760,-1048576,87,-56,-1,-1,0
1523632516760,-1048576,87,-56,-1,-1,0
1523632516800,-1048576,87,-56,-1,-1,0
1523632516800,-1048576,87,-56,-1,-1,0
1523632516800,-1048576,87,-56,-1,-1,0
1523632516800,-1114112,87,-56,-1,-1,0
1523632516800,-1114112,87,-56,-1,-1,0
1523632516840,-1114112,87,-56,-1,-1,0
1523632516840,-1179648,87,-56,-1,-1,0
1523632516840,-1245184,87,-56,-1,-1,0
1523632516840,-1441792,87,-56,-1,-1,0
1523632516840,-1638400,87,-56,-1,-1,0
1523632516880,-1769472,87,-56,-1,-1,0
1523632516880,-1638400,87,-56,-1,-1,0
1523632516880,-1310720,87,-56,-1,-1,0
1523632516880,-786432,87,-56,-1,-1,0
1523632516880,-327680,87,-56,-1,-1,0
1523632516920,-327680,87,-56,-1,-1,0
1523632516920,-655360,87,-56,-1,-1,0
1523632516920,-983040,87,-56,-1,-1,0
1523632516920,-1114112,87,-56,-1,-1,0
1523632516920,-1114112,87,-56,-1,-1,0
1523632516960,-1114112,87,-56,-1,-1,0
1523632516960,-1048576,87,-56,-1,-1,0
1523632516960,393216,87,-56,-1,-1,0
1523632516960,5046272,87,-56,-1,-1,0
1523632516960,10420224,87,-56,-1,-1,0
1523632517000,9306112,86,-56,-1,-1,0
1523632517000,1441792,86,-56,-1,-1,0
1523632517000,-4587520,86,-56,-1,-1,0
1523632517000,-4718592,86,-56,-1,-1,0
1523632517000,-2752512,86,-56,-1,-1,0
1523632517040,-1900544,86,-56,-1,-1,0
1523632517040,-1638400,86,-56,-1,-1,0
1523632517040,-1572864,86,-56,-1,-1,0
1523632517040,-1507328,86,-56,-1,-1,0
1523632517040,-1376256,86,-56,-1,-1,0
1523632517080,-1310720,86,-56,-1,-1,0
1523632517080,-1179648,86,-56,-1,-1,0
1523632517080,-1048576,86,-56,-1,-1,0
1523632517080,-917504,86,-56,-1,-1,0
1523632517080,-786432,86,-56,-1,-1,0
1523632517120,-655360,86,-56,-1,-1,0
1523632517120,-458752,86,-56,-1,-1,0
1523632517120,-327680,86,-56,-1,-1,0
1523632517120,-65536,86,-56,-1,-1,0
1523632517120,131072,86,-56,-1,-1,0
1523632517160,458752,86,-56,-1,-1,0
1523632517160,851968,86,-56,-1,-1,0
1523632517160,1245184,86,-56,-1,-1,0
1523632517160,1769472,86,-56,-1,-1,0
1523632517160,2293760,86,-56,-1,-1,0
1523632517209,2818048,86,-56,-1,-1,0
1523632517209,3211264,86,-56,-1,-1,0
1523632517209,3538944,86,-56,-1,-1,0
1523632517209,3670016,86,-56,-1,-1,0
1523632517209,3670016,86,-56,-1,-1,0
1523632517240,3407872,86,-56,-1,-1,0
1523632517240,2949120,86,-56,-1,-1,0
1523632517240,2424832,86,-56,-1,-1,0
1523632517240,1835008,86,-56,-1,-1,0
1523632517240,1245184,86,-56,-1,-1,0
1523632517280,720896,86,-56,-1,-1,0
1523632517280,393216,86,-56,-1,-1,0
1523632517280,65536,86,-56,-1,-1,0
1523632517280,0,86,-56,-1,-1,0
1523632517280,-131072,86,-56,-1,-1,0
1523632517320,-196608,86,-56,-1,-1,0
1523632517320,-262144,86,-56,-1,-1,0
1523632517320,-262144,86,-56,-1,-1,0
1523632517320,-327680,86,-56,-1,-1,0
1523632517320,-458752,86,-56,-1,-1,0
1523632517360,-458752,86,-56,-1,-1,0
1523632517360,-589824,86,-56,-1,-1,0
1523632517360,-655360,86,-56,-1,-1,0
1523632517360,-720896,86,-56,-1,-1,0
1523632517360,-786432,86,-56,-1,-1,0
1523632517400,-851968,86,-56,-1,-1,0
1523632517400,-851968,86,-56,-1,-1,0
1523632517400,-917504,86,-56,-1,-1,0
1523632517400,-983040,86,-56,-1,-1,0
1523632517400,-1048576,86,-56,-1,-1,0
1523632517440,-1114112,86,-56,-1,-1,0
1523632517440,-1179648,86,-56,-1,-1,0
1523632517440,-1179648,86,-56,-1,-1,0
1523632517440,-1179648,86,-56,-1,-1,0
1523632517440,-1179648,86,-56,-1,-1,0
1523632517480,-1179648,86,-56,-1,-1,0
1523632517480,-1179648,86,-56,-1,-1,0
1523632517480,-1179648,86,-56,-1,-1,0
1523632517480,-1245184,86,-56,-1,-1,0
1523632517480,-1245184,86,-56,-1,-1,0
1523632517520,-1179648,86,-56,-1,-1,0
1523632517520,-1179648,86,-56,-1,-1,0
1523632517520,-1179648,86,-56,-1,-1,0
1523632517520,-1179648,86,-56,-1,-1,0
1523632517520,-1179648,86,-56,-1,-1,0
1523632517560,-1179648,86,-56,-1,-1,0
1523632517560,-1245184,86,-56,-1,-1,0
1523632517560,-1245184,86,-56,-1,-1,0
1523632517560,-1245184,86,-56,-1,-1,0
1523632517560,-1376256,86,-56,-1,-1,0
1523632517600,-1572864,86,-56,-1,-1,0
1523632517600,-1703936,86,-56,-1,-1,0
1523632517600,-1769472,86,-56,-1,-1,0
1523632517600,-1638400,86,-56,-1,-1,0
1523632517600,-1310720,86,-56,-1,-1,0
1523632517640,-786432,86,-56,-1,-1,0
1523632517640,-524288,86,-56,-1,-1,0
1523632517640,-589824,86,-56,-1,-1,0
1523632517640,-917504,86,-56,-1,-1,0
1523632517640,-1179648,86,-56,-1,-1,0
1523632517680,-1245184,86,-56,-1,-1,0
1523632517680,-1179648,86,-56,-1,-1,0
1523632517680,-1179648,86,-56,-1,-1,0
1523632517680,-393216,86,-56,-1,-1,0
1523632517680,2883584,86,-56,-1,-1,0
1523632517720,8519680,86,-56,-1,-1,0
1523632517720,10223616,86,-56,-1,-1,0
1523632517720,4194304,86,-56,-1,-1,0
1523632517720,-3145728,86,-56,-1,-1,0
1523632517720,-5046272,86,-56,-1,-1,0
1523632517760,-3342336,86,-56,-1,-1,0
1523632517760,-2097152,86,-56,-1,-1,0
1523632517760,-1769472,86,-56,-1,-1,0
1523632517760,-1703936,86,-56,-1,-1,0
1523632517760,-1703936,86,-56,-1,-1,0
1523632517800,-1572864,85,-56,-1,-1,0
1523632517800,-1507328,85,-56,-1,-1,0
1523632517800,-1441792,85,-56,-1,-1,0
1523632517800,-1376256,85,-56,-1,-1,0
1523632517800,-1245184,85,-56,-1,-1,0
1523632517849,-1114112,85,-56,-1,-1,0
1523632517849,-983040,85,-56,-1,-1,0
1523632517849,-786432,85,-56,-1,-1,0
1523632517849,-589824,85,-56,-1,-1,0
1523632517849,-393216,85,-56,-1,-1,0
1523632517880,-131072,85,-56,-1,-1,0
1523632517880,131072,85,-56,-1,-1,0
1523632517880,458752,85,-56,-1,-1,0
1523632517880,917504,85,-56,-1,-1,0
1523632517880,1376256,85,-56,-1,-1,0
1523632517920,1966080,85,-56,-1,-1,0
1523632517920,2555904,85,-56,-1,-1,0
1523632517920,3014656,85,-56,-1,-1,0
1523632517920,3407872,85,-56,-1,-1,0
1523632517920,3735552,85,-56,-1,-1,0
1523632517960,3866624,85,-56,-1,-1,0
1523632517960,3866624,85,-56,-1,-1,0
1523632517960,3670016,85,-56,-1,-1,0
1523632517960,3211264,85,-56,-1,-1,0
1523632517960,2621440,85,-56,-1,-1,0
1523632518000,1900544,85,-56,-1,-1,0
1523632518000,1245184,85,-56,-1,-1,0
1523632518000,720896,85,-56,-1,-1,0
1523632518000,327680,85,-56,-1,-1,0
1523632518000,131072,85,-56,-1,-1,0
1523632518040,0,85,-56,-1,-1,0
1523632518040,-65536,85,-56,-1,-1,0
1523632518040,-196608,85,-56,-1,-1,0
1523632518040,-262144,85,-56,-1,-1,0
1523632518040,-327680,85,-56,-1,-1,0
1523632518080,-327680,85,-56,-1,-1,0
1523632518080,-393216,85,-56,-1,-1,0
1523632518080,-458752,85,-56,-1,-1,0
1523632518080,-589824,85,-56,-1,-1,0
1523632518080,-655360,85,-56,-1,-1,0
1523632518120,-655360,85,-56,-1,-1,0
1523632518120,-720896,85,-56,-1,-1,0
1523632518120,-786432,85,-56,-1,-1,0
1523632518120,-917504,85,-56,-1,-1,0
1523632518120,-983040,85,-56,-1,-1,0
1523632518160,-983040,85,-56,-1,-1,0
1523632518160,-1048576,85,-56,-1,-1,0
1523632518160,-1048576,85,-56,-1,-1,0
1523632518160,-1114112,85,-56,-1,-1,0
1523632518160,-1179648,85,-56,-1,-1,0
1523632518200,-1245184,85,-56,-1,-1,0
1523632518200,-1179648,85,-56,-1,-1,0
1523632518200,-1179648,85,-56,-1,-1,0
1523632518200,-1114112,85,-56,-1,-1,0
1523632518200,-1114112,85,-56,-1,-1,0
1523632518240,-1179648,85,-56,-1,-1,0
1523632518240,-1114112,85,-56,-1,-1,0
1523632518240,-1179648,85,-56,-1,-1,0
1523632518240,-1179648,85,-56,-1,-1,0
1523632518240,-1179648,85,-56,-1,-1,0
1523632518280,-1179648,85,-56,-1,-1,0
1523632518280,-1179648,85,-56,-1,-1,0
1523632518280,-1114112,85,-56,-1,-1,0
1523632518280,-1048576,85,-56,-1,-1,0
1523632518280,-1114112,85,-56,-1,-1,0
1523632518320,-1179648,85,-56,-1,-1,0
1523632518320,-1179648,85,-56,-1,-1,0
1523632518320,-1179648,85,-56,-1,-1,0
1523632518320,-1179648,85,-56,-1,-1,0
1523632518320,-1179648,85,-56,-1,-1,0
1523632518360,-1179648,85,-56,-1,-1,0
1523632518360,-1179648,85,-56,-1,-1,0
1523632518360,-1179648,85,-56,-1,-1,0
1523632518360,-1245184,85,-56,-1,-1,0
1523632518360,-1376256,85,-56,-1,-1,0
1523632518400,-1507328,85,-56,-1,-1,0
1523632518400,-1572864,85,-56,-1,-1,0
1523632518400,-1376256,85,-56,-1,-1,0
1523632518400,-983040,85,-56,-1,-1,0
1523632518400,-589824,85,-56,-1,-1,0
1523632518440,-393216,85,-56,-1,-1,0
1523632518440,-524288,85,-56,-1,-1,0
1523632518440,-786432,85,-56,-1,-1,0
1523632518440,-917504,85,-56,-1,-1,0
1523632518440,-983040,85,-56,-1,-1,0
1523632518489,-917504,85,-56,-1,-1,0
1523632518489,-655360,85,-56,-1,-1,0
1523632518489,1179648,85,-56,-1,-1,0
1523632518489,5963776,85,-56,-1,-1,0
1523632518489,9961472,85,-56,-1,-1,0
1523632518520,7077888,85,-56,-1,-1,0
1523632518520,-786432,85,-56,-1,-1,0
1523632518520,-5701632,85,-56,-1,-1,0
1523632518520,-5111808,85,-56,-1,-1,0
1523632518520,-3014656,85,-56,-1,-1,0
1523632518560,-1900544,83,-56,-1,-1,0
1523632518560,-1507328,83,-56,-1,-1,0
1523632518560,-1310720,83,-56,-1,-1,0
1523632518560,-1179648,83,-56,-1,-1,0
1523632518560,-1048576,83,-56,-1,-1,0
1523632518600,-917504,83,-56,-1,-1,0
1523632518600,-851968,83,-56,-1,-1,0
1523632518600,-720896,83,-56,-1,-1,0
1523632518600,-655360,83,-56,-1,-1,0
1523632518600,-524288,83,-56,-1,-1,0
1523632518640,-327680,83,-56,-1,-1,0
1523632518640,-65536,83,-56,-1,-1,0
1523632518640,65536,83,-56,-1,-1,0
1523632518640,262144,83,-56,-1,-1,0
1523632518640,524288,83,-56,-1,-1,0
1523632518680,917504,83,-56,-1,-1,0
1523632518680,1441792,83,-56,-1,-1,0
1523632518680,1966080,83,-56,-1,-1,0
1523632518680,2555904,83,-56,-1,-1,0
1523632518680,3211264,83,-56,-1,-1,0
1523632518720,3866624,83,-56,-1,-1,0
1523632518720,4456448,83,-56,-1,-1,0
1523632518720,4980736,83,-56,-1,-1,0
1523632518720,5242880,83,-56,-1,-1,0
1523632518720,5373952,83,-56,-1,-1,0
1523632518760,5242880,83,-56,-1,-1,0
1523632518760,4915200,83,-56,-1,-1,0
1523632518760,4325376,83,-56,-1,-1,0
1523632518760,3670016,83,-56,-1,-1,0
1523632518760,2883584,83,-56,-1,-1,0
1523632518800,2228224,83,-56,-1,-1,0
1523632518800,1638400,83,-56,-1,-1,0
1523632518800,1179648,83,-56,-1,-1,0
1523632518800,851968,83,-56,-1,-1,0
1523632518800,655360,83,-56,-1,-1,0
1523632518840,524288,83,-56,-1,-1,0
1523632518840,393216,83,-56,-1,-1,0
1523632518840,393216,83,-56,-1,-1,0
1523632518840,327680,83,-56,-1,-1,0
1523632518840,262144,83,-56,-1,-1,0
1523632518880,196608,83,-56,-1,-1,0
1523632518880,131072,83,-56,-1,-1,0
1523632518880,65536,83,-56,-1,-1,0
1523632518880,0,83,-56,-1,-1,0
1523632518880,-65536,83,-56,-1,-1,0
1523632518920,-196608,83,-56,-1,-1,0
1523632518920,-196608,83,-56,-1,-1,0
1523632518920,-262144,83,-56,-1,-1,0
1523632518920,-327680,83,-56,-1,-1,0
1523632518920,-458752,83,-56,-1,-1,0
1523632518960,-524288,83,-56,-1,-1,0
1523632518960,-524288,83,-56,-1,-1,0
1523632518960,-589824,83,-56,-1,-1,0
1523632518960,-655360,83,-56,-1,-1,0
1523632518960,-720896,83,-56,-1,-1,0
1523632519000,-720896,83,-56,-1,-1,0
1523632519000,-786432,83,-56,-1,-1,0
1523632519000,-786432,83,-56,-1,-1,0
1523632519000,-786432,83,-56,-1,-1,0
1523632519000,-786432,83,-56,-1,-1,0
1523632519040,-786432,83,-56,-1,-1,0
1523632519040,-786432,83,-56,-1,-1,0
1523632519040,-786432,83,-56,-1,-1,0
1523632519040,-851968,83,-56,-1,-1,0
1523632519040,-851968,83,-56,-1,-1,0
1523632519080,-917504,83,-56,-1,-1,0
1523632519080,-851968,83,-56,-1,-1,0
1523632519080,-851968,83,-56,-1,-1,0
1523632519080,-851968,83,-56,-1,-1,0
1523632519080,-851968,83,-56,-1,-1,0
1523632519128,-917504,83,-56,-1,-1,0
1523632519128,-917504,83,-56,-1,-1,0
1523632519128,-917504,83,-56,-1,-1,0
1523632519128,-983040,83,-56,-1,-1,0
1523632519128,-1179648,83,-56,-1,-1,0
1523632519160,-1310720,83,-56,-1,-1,0
1523632519160,-1310720,83,-56,-1,-1,0
1523632519160,-1310720,83,-56,-1,-1,0
1523632519160,-1179648,83,-56,-1,-1,0
1523632519160,-786432,83,-56,-1,-1,0
1523632519200,-327680,83,-56,-1,-1,0
1523632519200,-131072,83,-56,-1,-1,0
1523632519200,-327680,83,-56,-1,-1,0
1523632519200,-720896,83,-56,-1,-1,0
1523632519200,-983040,83,-56,-1,-1,0
1523632519240,-1048576,81,-56,-1,-1,0
1523632519240,-983040,81,-56,-1,-1,0
1523632519240,-917504,81,-56,-1,-1,0
1523632519240,-65536,81,-56,-1,-1,0
1523632519240,3211264,81,-56,-1,-1,0
1523632519280,8323072,81,-56,-1,-1,0
1523632519280,9043968,81,-56,-1,-1,0
1523632519280,2686976,81,-56,-1,-1,0
1523632519280,-4325376,81,-56,-1,-1,0
1523632519280,-5963776,81,-56,-1,-1,0
1523632519320,-4063232,81,-56,-1,-1,0
1523632519320,-2359296,81,-56,-1,-1,0
1523632519320,-1703936,81,-56,-1,-1,0
1523632519320,-1507328,81,-56,-1,-1,0
1523632519320,-1441792,81,-56,-1,-1,0
1523632519360,-1310720,81,-56,-1,-1,0
1523632519360,-1245184,81,-56,-1,-1,0
1523632519360,-1114112,81,-56,-1,-1,0
1523632519360,-1048576,81,-56,-1,-1,0
1523632519360,-983040,81,-56,-1,-1,0
1523632519400,-851968,81,-56,-1,-1,0
1523632519400,-655360,81,-56,-1,-1,0
1523632519400,-458752,81,-56,-1,-1,0
1523632519400,-327680,81,-56,-1,-1,0
1523632519400,-131072,81,-56,-1,-1,0
1523632519440,65536,81,-56,-1,-1,0
1523632519440,327680,81,-56,-1,-1,0
1523632519440,655360,81,-56,-1,-1,0
1523632519440,1114112,81,-56,-1,-1,0
1523632519440,1572864,81,-56,-1,-1,0
1523632519480,2097152,81,-56,-1,-1,0
1523632519480,2686976,81,-56,-1,-1,0
1523632519480,3211264,81,-56,-1,-1,0
1523632519480,3604480,81,-56,-1,-1,0
1523632519480,3866624,81,-56,-1,-1,0
1523632519520,3997696,81,-56,-1,-1,0
1523632519520,3997696,81,-56,-1,-1,0
1523632519520,3801088,81,-56,-1,-1,0
1523632519520,3342336,81,-56,-1,-1,0
1523632519520,2818048,81,-56,-1,-1,0
1523632519560,2097152,81,-56,-1,-1,0
1523632519560,1507328,81,-56,-1,-1,0
1523632519560,917504,81,-56,-1,-1,0
1523632519560,524288,81,-56,-1,-1,0
1523632519560,196608,81,-56,-1,-1,0
1523632519600,0,81,-56,-1,-1,0
1523632519600,-65536,81,-56,-1,-1,0
1523632519600,-131072,81,-56,-1,-1,0
1523632519600,-131072,81,-56,-1,-1,0
1523632519600,-196608,81,-56,-1,-1,0
1523632519640,-196608,81,-56,-1,-1,0
1523632519640,-196608,81,-56,-1,-1,0
1523632519640,-196608,81,-56,-1,-1,0
1523632519640,-327680,81,-56,-1,-1,0
1523632519640,-458752,81,-56,-1,-1,0
1523632519680,-524288,81,-56,-1,-1,0
1523632519680,-524288,81,-56,-1,-1,0
1523632519680,-589824,81,-56,-1,-1,0
1523632519680,-655360,81,-56,-1,-1,0
1523632519680,-720896,81,-56,-1,-1,0
1523632519720,-786432,81,-56,-1,-1,0
1523632519720,-851968,81,-56,-1,-1,0
1523632519720,-917504,81,-56,-1,-1,0
1523632519720,-917504,81,-56,-1,-1,0
1523632519720,-983040,81,-56,-1,-1,0
1523632519768,-983040,81,-56,-1,-1,0
1523632519768,-1048576,81,-56,-1,-1,0
1523632519768,-1114112,81,-56,-1,-1,0
1523632519768,-1114112,81,-56,-1,-1,0
1523632519768,-1114112,81,-56,-1,-1,0
1523632519800,-1114112,81,-56,-1,-1,0
1523632519800,-1114112,81,-56,-1,-1,0
1523632519800,-1114112,81,-56,-1,-1,0
1523632519800,-1114112,81,-56,-1,-1,0
1523632519800,-1179648,81,-56,-1,-1,0
1523632519840,-1310720,81,-56,-1,-1,0
1523632519840,-1441792,81,-56,-1,-1,0
1523632519840,-1572864,81,-56,-1,-1,0
1523632519840,-1703936,81,-56,-1,-1,0
1523632519840,-1769472,81,-56,-1,-1,0
1523632519880,-1572864,81,-56,-1,-1,0
1523632519880,-1114112,81,-56,-1,-1,0
1523632519880,-655360,81,-56,-1,-1,0
1523632519880,-524288,81,-56,-1,-1,0
1523632519880,-720896,81,-56,-1,-1,0
1523632519920,-1048576,81,-56,-1,-1,0
1523632519920,-1179648,81,-56,-1,-1,0
1523632519920,-1179648,81,-56,-1,-1,0
1523632519920,-1114112,81,-56,-1,-1,0
1523632519920,-917504,81,-56,-1,-1,0
1523632519960,917504,81,-56,-1,-1,0
1523632519960,6029312,81,-56,-1,-1,0
1523632519960,10878976,81,-56,-1,-1,0
1523632519960,8650752,81,-56,-1,-1,0
1523632519960,589824,81,-56,-1,-1,0
1523632520000,-4587520,81,-56,-1,-1,0
1523632520000,-4194304,81,-56,-1,-1,0
1523632520000,-2424832,81,-56,-1,-1,0
1523632520000,-1703936,81,-56,-1,-1,0
1523632520000,-1507328,81,-56,-1,-1,0
1523632520040,-1507328,81,-56,-1,-1,0
1523632520040,-1441792,81,-56,-1,-1,0
1523632520040,-1310720,81,-56,-1,-1,0
1523632520040,-1245184,81,-56,-1,-1,0
1523632520040,-1114112,81,-56,-1,-1,0
1523632520080,-1048576,81,-56,-1,-1,0
1523632520080,-917504,81,-56,-1,-1,0
1523632520080,-786432,81,-56,-1,-1,0
1523632520080,-655360,81,-56,-1,-1,0
1523632520080,-524288,81,-56,-1,-1,0
1523632520120,-327680,81,-56,-1,-1,0
1523632520120,-65536,81,-56,-1,-1,0
1523632520120,131072,81,-56,-1,-1,0
1523632520120,458752,81,-56,-1,-1,0
1523632520120,851968,81,-56,-1,-1,0
1523632520160,1376256,81,-56,-1,-1,0
1523632520160,1900544,81,-56,-1,-1,0
1523632520160,2424832,81,-56,-1,-1,0
1523632520160,2883584,81,-56,-1,-1,0
1523632520160,3342336,81,-56,-1,-1,0
1523632520200,3670016,81,-56,-1,-1,0
1523632520200,3801088,81,-56,-1,-1,0
1523632520200,3801088,81,-56,-1,-1,0
1523632520200,3604480,81,-56,-1,-1,0
1523632520200,3211264,81,-56,-1,-1,0
1523632520240,2621440,81,-56,-1,-1,0
1523632520240,1966080,81,-56,-1,-1,0
1523632520240,1376256,81,-56,-1,-1,0
1523632520240,851968,81,-56,-1,-1,0
1523632520240,458752,81,-56,-1,-1,0
1523632520280,196608,81,-56,-1,-1,0
1523632520280,65536,81,-56,-1,-1,0
1523632520280,0,81,-56,-1,-1,0
1523632520280,0,81,-56,-1,-1,0
1523632520280,0,81,-56,-1,-1,0
1523632520320,0,81,-56,-1,-1,0
1523632520320,-131072,81,-56,-1,-1,0
1523632520320,-131072,81,-56,-1,-1,0
1523632520320,-131072,81,-56,-1,-1,0
1523632520320,-196608,81,-56,-1,-1,0
1523632520360,-196608,81,-56,-1,-1,0
1523632520360,-262144,81,-56,-1,-1,0
1523632520360,-327680,81,-56,-1,-1,0
1523632520360,-393216,81,-56,-1,-1,0
1523632520360,-458752,81,-56,-1,-1,0
1523632520408,-458752,81,-56,-1,-1,0
1523632520408,-524288,81,-56,-1,-1,0
1523632520408,-589824,81,-56,-1,-1,0
1523632520408,-655360,81,-56,-1,-1,0
1523632520408,-720896,81,-56,-1,-1,0
1523632520440,-786432,81,-56,-1,-1,0
1523632520440,-851968,81,-56,-1,-1,0
1523632520440,-851968,81,-56,-1,-1,0
1523632520440,-917504,81,-56,-1,-1,0
1523632520440,-917504,81,-56,-1,-1,0
1523632520480,-851968,81,-56,-1,-1,0
1523632520480,-851968,81,-56,-1,-1,0
1523632520480,-851968,81,-56,-1,-1,0
1523632520480,-851968,81,-56,-1,-1,0
1523632520480,-917504,81,-56,-1,-1,0
1523632520520,-917504,81,-56,-1,-1,0
1523632520520,-917504,81,-56,-1,-1,0
1523632520520,-983040,81,-56,-1,-1,0
1523632520520,-983040,81,-56,-1,-1,0
1523632520520,-1114112,81,-56,-1,-1,0
1523632520560,-1376256,81,-56,-1,-1,0
1523632520560,-1572864,81,-56,-1,-1,0
1523632520560,-1638400,81,-56,-1,-1,0
1523632520560,-1572864,81,-56,-1,-1,0
1523632520560,-1179648,81,-56,-1,-1,0
1523632520600,-720896,81,-56,-1,-1,0
1523632520600,-393216,81,-56,-1,-1,0
1523632520600,-458752,81,-56,-1,-1,0
1523632520600,-786432,81,-56,-1,-1,0
1523632520600,-1048576,81,-56,-1,-1,0
1523632520640,-1114112,81,-56,-1,-1,0
1523632520640,-1114112,81,-56,-1,-1,0
1523632520640,-1114112,81,-56,-1,-1,0
1523632520640,-458752,81,-56,-1,-1,0
1523632520640,2752512,81,-56,-1,-1,0
1523632520680,8388608,81,-56,-1,-1,0
1523632520680,10289152,81,-56,-1,-1,0
1523632520680,4456448,81,-56,-1,-1,0
1523632520680,-2949120,81,-56,-1,-1,0
1523632520680,-5046272,81,-56,-1,-1,0
1523632520720,-3407872,81,-56,-1,-1,0
1523632520720,-2097152,81,-56,-1,-1,0
1523632520720,-1638400,81,-56,-1,-1,0
1523632520720,-1572864,81,-56,-1,-1,0
1523632520720,-1572864,81,-56,-1,-1,0
1523632520760,-1507328,81,-56,-1,-1,0
1523632520760,-1376256,81,-56,-1,-1,0
1523632520760,-1245184,81,-56,-1,-1,0
1523632520760,-1114112,81,-56,-1,-1,0
1523632520760,-1048576,81,-56,-1,-1,0
1523632520800,-983040,81,-56,-1,-1,0
1523632520800,-851968,81,-56,-1,-1,0
1523632520800,-720896,81,-56,-1,-1,0
1523632520800,-589824,81,-56,-1,-1,0
1523632520800,-393216,81,-56,-1,-1,0
1523632520840,-131072,81,-56,-1,-1,0
1523632520840,131072,81,-56,-1,-1,0
1523632520840,458752,81,-56,-1,-1,0
1523632520840,851968,81,-56,-1,-1,0
1523632520840,1376256,81,-56,-1,-1,0
1523632520880,1900544,81,-56,-1,-1,0
1523632520880,2490368,81,-56,-1,-1,0
1523632520880,2949120,81,-56,-1,-1,0
1523632520880,3407872,81,-56,-1,-1,0
1523632520880,3735552,81,-56,-1,-1,0
1523632520920,3866624,81,-56,-1,-1,0
1523632520920,3866624,81,-56,-1,-1,0
1523632520920,3604480,81,-56,-1,-1,0
1523632520920,3145728,81,-56,-1,-1,0
1523632520920,2490368,81,-56,-1,-1,0
1523632520960,1769472,81,-56,-1,-1,0
1523632520960,1114112,81,-56,-1,-1,0
1523632520960,589824,81,-56,-1,-1,0
1523632520960,196608,81,-56,-1,-1,0
1523632520960,-131072,81,-56,-1,-1,0
1523632521000,-327680,81,-56,-1,-1,0
1523632521000,-458752,81,-56,-1,-1,0
1523632521000,-589824,81,-56,-1,-1,0
1523632521000,-720896,81,-56,-1,-1,0
1523632521000,-786432,81,-56,-1,-1,0
1523632521049,-851968,81,-56,-1,-1,0
1523632521049,-851968,81,-56,-1,-1,0
1523632521049,-983040,81,-56,-1,-1,0
1523632521049,-1048576,81,-56,-1,-1,0
1523632521049,-1114112,81,-56,-1,-1,0
1523632521080,-1245184,81,-56,-1,-1,0
1523632521080,-1310720,81,-56,-1,-1,0
1523632521080,-1310720,81,-56,-1,-1,0
1523632521080,-1376256,81,-56,-1,-1,0
1523632521080,-1441792,81,-56,-1,-1,0
1523632521120,-1441792,81,-56,-1,-1,0
1523632521120,-1507328,81,-56,-1,-1,0
1523632521120,-1572864,81,-56,-1,-1,0
1523632521120,-1638400,81,-56,-1,-1,0
1523632521120,-1638400,81,-56,-1,-1,0
1523632521160,-1638400,81,-56,-1,-1,0
1523632521160,-1638400,81,-56,-1,-1,0
1523632521160,-1703936,81,-56,-1,-1,0
1523632521160,-1703936,81,-56,-1,-1,0
1523632521160,-1703936,81,-56,-1,-1,0
1523632521200,-1703936,81,-56,-1,-1,0
1523632521200,-1703936,81,-56,-1,-1,0
1523632521200,-1703936,81,-56,-1,-1,0
1523632521200,-1703936,81,-56,-1,-1,0
1523632521200,-1703936,81,-56,-1,-1,0
1523632521240,-1703936,81,-56,-1,-1,0
1523632521240,-1769472,81,-56,-1,-1,0
1523632521240,-1900544,81,-56,-1,-1,0
1523632521240,-2097152,81,-56,-1,-1,0
1523632521240,-2293760,81,-56,-1,-1,0
1523632521280,-2293760,81,-56,-1,-1,0
1523632521280,-2031616,81,-56,-1,-1,0
1523632521280,-1572864,81,-56,-1,-1,0
1523632521280,-1114112,81,-56,-1,-1,0
1523632521280,-983040,81,-56,-1,-1,0
1523632521321,-1245184,82,-56,-1,-1,0
1523632521321,-1507328,82,-56,-1,-1,0
1523632521321,-1703936,82,-56,-1,-1,0
1523632521321,-1703936,82,-56,-1,-1,0
1523632521321,-1638400,82,-56,-1,-1,0
1523632521360,-1441792,82,-56,-1,-1,0
1523632521360,262144,82,-56,-1,-1,0
1523632521360,5111808,82,-56,-1,-1,0
1523632521360,9568256,82,-56,-1,-1,0
1523632521360,6946816,82,-56,-1,-1,0
1523632521400,-851968,82,-56,-1,-1,0
1523632521400,-5570560,82,-56,-1,-1,0
1523632521400,-4915200,82,-56,-1,-1,0
1523632521400,-3080192,82,-56,-1,-1,0
1523632521400,-2293760,82,-56,-1,-1,0
1523632521440,-2031616,82,-56,-1,-1,0
1523632521440,-1966080,82,-56,-1,-1,0
1523632521440,-1900544,82,-56,-1,-1,0
1523632521440,-1835008,82,-56,-1,-1,0
1523632521440,-1703936,82,-56,-1,-1,0
1523632521480,-1638400,82,-56,-1,-1,0
1523632521480,-1572864,82,-56,-1,-1,0
1523632521480,-1441792,82,-56,-1,-1,0
1523632521480,-1245184,82,-56,-1,-1,0
1523632521480,-1048576,82,-56,-1,-1,0
1523632521520,-851968,82,-56,-1,-1,0
1523632521520,-655360,82,-56,-1,-1,0
1523632521520,-393216,82,-56,-1,-1,0
1523632521520,-65536,82,-56,-1,-1,0
1523632521520,131072,82,-56,-1,-1,0
1523632521560,524288,82,-56,-1,-1,0
1523632521560,983040,82,-56,-1,-1,0
1523632521560,1572864,82,-56,-1,-1,0
1523632521560,2162688,82,-56,-1,-1,0
1523632521560,2752512,82,-56,-1,-1,0
1523632521600,3276800,82,-56,-1,-1,0
1523632521600,3735552,82,-56,-1,-1,0
1523632521600,4063232,82,-56,-1,-1,0
1523632521600,4259840,82,-56,-1,-1,0
1523632521600,4194304,82,-56,-1,-1,0
1523632521640,3801088,82,-56,-1,-1,0
1523632521640,3211264,82,-56,-1,-1,0
1523632521640,2490368,82,-56,-1,-1,0
1523632521640,1703936,82,-56,-1,-1,0
1523632521640,1048576,82,-56,-1,-1,0
1523632521688,589824,82,-56,-1,-1,0
1523632521688,262144,82,-56,-1,-1,0
1523632521688,65536,82,-56,-1,-1,0
1523632521688,-65536,82,-56,-1,-1,0
1523632521688,-196608,82,-56,-1,-1,0
1523632521720,-262144,82,-56,-1,-1,0
1523632521720,-327680,82,-56,-1,-1,0
1523632521720,-393216,82,-56,-1,-1,0
1523632521720,-458752,82,-56,-1,-1,0
1523632521720,-524288,82,-56,-1,-1,0
1523632521760,-655360,82,-56,-1,-1,0
1523632521760,-655360,82,-56,-1,-1,0
1523632521760,-720896,82,-56,-1,-1,0
1523632521760,-786432,82,-56,-1,-1,0
1523632521760,-786432,82,-56,-1,-1,0
1523632521800,-851968,82,-56,-1,-1,0
1523632521800,-851968,82,-56,-1,-1,0
1523632521800,-917504,82,-56,-1,-1,0
1523632521800,-983040,82,-56,-1,-1,0
1523632521800,-983040,82,-56,-1,-1,0
1523632521840,-1048576,82,-56,-1,-1,0
1523632521840,-1048576,82,-56,-1,-1,0
1523632521840,-1048576,82,-56,-1,-1,0
1523632521840,-1048576,82,-56,-1,-1,0
1523632521840,-1114112,82,-56,-1,-1,0
1523632521880,-1048576,82,-56,-1,-1,0
1523632521880,-1048576,82,-56,-1,-1,0
1523632521880,-1048576,82,-56,-1,-1,0
1523632521880,-1114112,82,-56,-1,-1,0
1523632521880,-1114112,82,-56,-1,-1,0
1523632521920,-1179648,82,-56,-1,-1,0
1523632521920,-1376256,82,-56,-1,-1,0
1523632521920,-1507328,82,-56,-1,-1,0
1523632521920,-1703936,82,-56,-1,-1,0
1523632521920,-1638400,82,-56,-1,-1,0
1523632521960,-1376256,84,-56,-1,-1,0
1523632521960,-917504,84,-56,-1,-1,0
1523632521960,-393216,84,-56,-1,-1,0
1523632521960,-262144,84,-56,-1,-1,0
1523632521960,-524288,84,-56,-1,-1,0
1523632522000,-851968,84,-56,-1,-1,0
1523632522000,-1048576,84,-56,-1,-1,0
1523632522000,-1114112,84,-56,-1,-1,0
1523632522000,-1048576,84,-56,-1,-1,0
1523632522000,-1048576,84,-56,-1,-1,0
1523632522040,-524288,84,-56,-1,-1,0
1523632522040,2359296,84,-56,-1,-1,0
1523632522040,7929856,84,-56,-1,-1,0
1523632522040,9895936,84,-56,-1,-1,0
1523632522040,4194304,84,-56,-1,-1,0
1523632522080,-3604480,84,-56,-1,-1,0
1523632522080,-6094848,84,-56,-1,-1,0
1523632522080,-4390912,84,-56,-1,-1,0
1523632522080,-2490368,84,-56,-1,-1,0
1523632522080,-1769472,84,-56,-1,-1,0
1523632522120,-1572864,84,-56,-1,-1,0
1523632522120,-1441792,84,-56,-1,-1,0
1523632522120,-1310720,84,-56,-1,-1,0
1523632522120,-1245184,84,-56,-1,-1,0
1523632522120,-1114112,84,-56,-1,-1,0
1523632522160,-1048576,84,-56,-1,-1,0
1523632522160,-983040,84,-56,-1,-1,0
1523632522160,-851968,84,-56,-1,-1,0
1523632522160,-655360,84,-56,-1,-1,0
1523632522160,-393216,84,-56,-1,-1,0
1523632522200,-131072,84,-56,-1,-1,0
1523632522200,65536,84,-56,-1,-1,0
1523632522200,327680,84,-56,-1,-1,0
1523632522200,655360,84,-56,-1,-1,0
1523632522200,1048576,84,-56,-1,-1,0
1523632522240,1507328,84,-56,-1,-1,0
1523632522240,2097152,84,-56,-1,-1,0
1523632522240,2752512,84,-56,-1,-1,0
1523632522240,3538944,84,-56,-1,-1,0
1523632522240,4259840,84,-56,-1,-1,0
1523632522280,4849664,84,-56,-1,-1,0
1523632522280,5373952,84,-56,-1,-1,0
1523632522280,5636096,84,-56,-1,-1,0
1523632522280,5636096,84,-56,-1,-1,0
1523632522280,5308416,84,-56,-1,-1,0
1523632522328,4784128,84,-56,-1,-1,0
1523632522328,3997696,84,-56,-1,-1,0
1523632522328,3145728,84,-56,-1,-1,0
1523632522328,2359296,84,-56,-1,-1,0
1523632522328,1638400,84,-56,-1,-1,0
1523632522360,1114112,84,-56,-1,-1,0
1523632522360,720896,84,-56,-1,-1,0
1523632522360,524288,84,-56,-1,-1,0
1523632522360,327680,84,-56,-1,-1,0
1523632522360,262144,84,-56,-1,-1,0
1523632522400,131072,84,-56,-1,-1,0
1523632522400,0,84,-56,-1,-1,0
1523632522400,0,84,-56,-1,-1,0
1523632522400,-65536,84,-56,-1,-1,0
1523632522400,-131072,84,-56,-1,-1,0
1523632522441,-262144,84,-56,-1,-1,0
1523632522441,-327680,84,-56,-1,-1,0
1523632522441,-327680,84,-56,-1,-1,0
1523632522441,-393216,84,-56,-1,-1,0
1523632522441,-458752,84,-56,-1,-1,0
1523632522480,-524288,84,-56,-1,-1,0
1523632522480,-589824,84,-56,-1,-1,0
1523632522480,-720896,84,-56,-1,-1,0
1523632522480,-720896,84,-56,-1,-1,0
1523632522480,-720896,84,-56,-1,-1,0
1523632522520,-720896,84,-56,-1,-1,0
1523632522520,-786432,84,-56,-1,-1,0
1523632522520,-851968,84,-56,-1,-1,0
1523632522520,-851968,84,-56,-1,-1,0
1523632522520,-851968,84,-56,-1,-1,0
1523632522560,-917504,84,-56,-1,-1,0
1523632522560,-1114112,84,-56,-1,-1,0
1523632522560,-1245184,84,-56,-1,-1,0
1523632522560,-1376256,84,-56,-1,-1,0
1523632522560,-1441792,84,-56,-1,-1,0
1523632522600,-1441792,84,-56,-1,-1,0
1523632522600,-1179648,84,-56,-1,-1,0
1523632522600,-655360,84,-56,-1,-1,0
1523632522600,-262144,84,-56,-1,-1,0
1523632522600,-262144,84,-56,-1,-1,0
1523632522640,-589824,84,-56,-1,-1,0
1523632522640,-917504,84,-56,-1,-1,0
1523632522640,-1114112,84,-56,-1,-1,0
1523632522640,-1114112,84,-56,-1,-1,0
1523632522640,-1114112,84,-56,-1,-1,0
1523632522680,-1179648,84,-56,-1,-1,0
1523632522680,-458752,84,-56,-1,-1,0
1523632522680,2621440,84,-56,-1,-1,0
1523632522680,7995392,84,-56,-1,-1,0
1523632522680,9240576,84,-56,-1,-1,0
1523632522720,3014656,84,-56,-1,-1,0
1523632522720,-4390912,84,-56,-1,-1,0
1523632522720,-6291456,84,-56,-1,-1,0
1523632522720,-4456448,84,-56,-1,-1,0
1523632522720,-2686976,84,-56,-1,-1,0
1523632522760,-2031616,84,-56,-1,-1,0
1523632522760,-1769472,84,-56,-1,-1,0
1523632522760,-1703936,84,-56,-1,-1,0
1523632522760,-1572864,84,-56,-1,-1,0
1523632522760,-1441792,84,-56,-1,-1,0
1523632522800,-1310720,84,-56,-1,-1,0
1523632522800,-1179648,84,-56,-1,-1,0
1523632522800,-1114112,84,-56,-1,-1,0
1523632522800,-917504,84,-56,-1,-1,0
1523632522800,-786432,84,-56,-1,-1,0
1523632522840,-589824,84,-56,-1,-1,0
1523632522840,-393216,84,-56,-1,-1,0
1523632522840,-262144,84,-56,-1,-1,0
1523632522840,0,84,-56,-1,-1,0
1523632522840,196608,84,-56,-1,-1,0
1523632522880,589824,84,-56,-1,-1,0
1523632522880,1048576,84,-56,-1,-1,0
1523632522880,1572864,84,-56,-1,-1,0
1523632522880,2162688,84,-56,-1,-1,0
1523632522880,2686976,84,-56,-1,-1,0
1523632522920,3145728,84,-56,-1,-1,0
1523632522920,3604480,84,-56,-1,-1,0
1523632522920,3866624,84,-56,-1,-1,0
1523632522920,4063232,84,-56,-1,-1,0
1523632522920,3932160,84,-56,-1,-1,0
1523632522968,3670016,84,-56,-1,-1,0
1523632522968,3080192,84,-56,-1,-1,0
1523632522968,2424832,84,-56,-1,-1,0
1523632522968,1703936,84,-56,-1,-1,0
1523632522968,1114112,84,-56,-1,-1,0
1523632523000,589824,84,-56,-1,-1,0
1523632523000,196608,84,-56,-1,-1,0
1523632523000,-65536,84,-56,-1,-1,0
1523632523000,-262144,84,-56,-1,-1,0
1523632523000,-327680,84,-56,-1,-1,0
1523632523040,-327680,84,-56,-1,-1,0
1523632523040,-327680,84,-56,-1,-1,0
1523632523040,-458752,84,-56,-1,-1,0
1523632523040,-524288,84,-56,-1,-1,0
1523632523040,-589824,84,-56,-1,-1,0
1523632523083,-655360,84,-56,-1,-1,0
1523632523083,-655360,84,-56,-1,-1,0
1523632523083,-720896,84,-56,-1,-1,0
1523632523083,-786432,84,-56,-1,-1,0
1523632523083,-851968,84,-56,-1,-1,0
1523632523120,-917504,84,-56,-1,-1,0
1523632523120,-983040,84,-56,-1,-1,0
1523632523120,-1114112,84,-56,-1,-1,0
1523632523120,-1114112,84,-56,-1,-1,0
1523632523120,-1114112,84,-56,-1,-1,0
1523632523160,-1114112,84,-56,-1,-1,0
1523632523160,-1179648,84,-56,-1,-1,0
1523632523160,-1179648,84,-56,-1,-1,0
1523632523160,-1179648,84,-56,-1,-1,0
1523632523160,-1245184,84,-56,-1,-1,0
1523632523201,-1376256,85,-56,-1,-1,0
1523632523201,-1572864,85,-56,-1,-1,0
1523632523201,-1835008,85,-56,-1,-1,0
1523632523201,-1900544,85,-56,-1,-1,0
1523632523201,-1835008,85,-56,-1,-1,0
1523632523240,-1441792,85,-56,-1,-1,0
1523632523240,-851968,85,-56,-1,-1,0
1523632523240,-524288,85,-56,-1,-1,0
1523632523240,-655360,85,-56,-1,-1,0
1523632523240,-983040,85,-56,-1,-1,0
1523632523280,-1245184,85,-56,-1,-1,0
1523632523280,-1310720,85,-56,-1,-1,0
1523632523280,-1310720,85,-56,-1,-1,0
1523632523280,-1376256,85,-56,-1,-1,0
1523632523280,-983040,85,-56,-1,-1,0
1523632523320,1769472,85,-56,-1,-1,0
1523632523320,7798784,85,-56,-1,-1,0
1523632523320,11468800,85,-56,-1,-1,0
1523632523320,6750208,85,-56,-1,-1,0
1523632523320,-1572864,85,-56,-1,-1,0
1523632523360,-5242880,85,-56,-1,-1,0
1523632523360,-3932160,85,-56,-1,-1,0
1523632523360,-2490368,85,-56,-1,-1,0
1523632523360,-1966080,85,-56,-1,-1,0
1523632523360,-1835008,85,-56,-1,-1,0
1523632523401,-1769472,85,-56,-1,-1,0
1523632523401,-1703936,85,-56,-1,-1,0
1523632523401,-1638400,85,-56,-1,-1,0
1523632523401,-1572864,85,-56,-1,-1,0
1523632523401,-1441792,85,-56,-1,-1,0
1523632523440,-1376256,85,-56,-1,-1,0
1523632523440,-1179648,85,-56,-1,-1,0
1523632523440,-1114112,85,-56,-1,-1,0
1523632523440,-917504,85,-56,-1,-1,0
1523632523440,-720896,85,-56,-1,-1,0
1523632523480,-524288,85,-56,-1,-1,0
1523632523480,-262144,85,-56,-1,-1,0
1523632523480,0,85,-56,-1,-1,0
1523632523480,262144,85,-56,-1,-1,0
1523632523480,655360,85,-56,-1,-1,0
1523632523520,1114112,85,-56,-1,-1,0
1523632523520,1638400,85,-56,-1,-1,0
1523632523520,2162688,85,-56,-1,-1,0
1523632523520,2621440,85,-56,-1,-1,0
1523632523520,3014656,85,-56,-1,-1,0
1523632523560,3276800,85,-56,-1,-1,0
1523632523560,3407872,85,-56,-1,-1,0
1523632523560,3407872,85,-56,-1,-1,0
1523632523560,3145728,85,-56,-1,-1,0
1523632523560,2621440,85,-56,-1,-1,0
1523632523608,2031616,85,-56,-1,-1,0
1523632523608,1376256,85,-56,-1,-1,0
1523632523608,851968,85,-56,-1,-1,0
1523632523608,458752,85,-56,-1,-1,0
1523632523608,65536,85,-56,-1,-1,0
1523632523640,-196608,85,-56,-1,-1,0
1523632523640,-393216,85,-56,-1,-1,0
1523632523640,-458752,85,-56,-1,-1,0
1523632523640,-524288,85,-56,-1,-1,0
1523632523640,-589824,85,-56,-1,-1,0
1523632523680,-655360,85,-56,-1,-1,0
1523632523680,-720896,85,-56,-1,-1,0
1523632523680,-786432,85,-56,-1,-1,0
1523632523680,-851968,85,-56,-1,-1,0
1523632523680,-983040,85,-56,-1,-1,0
1523632523720,-1048576,85,-56,-1,-1,0
1523632523720,-1114112,85,-56,-1,-1,0
1523632523720,-1114112,85,-56,-1,-1,0
1523632523720,-1179648,85,-56,-1,-1,0
1523632523720,-1245184,85,-56,-1,-1,0
1523632523760,-1245184,85,-56,-1,-1,0
1523632523760,-1245184,85,-56,-1,-1,0
1523632523760,-1310720,85,-56,-1,-1,0
1523632523760,-1376256,85,-56,-1,-1,0
1523632523760,-1376256,85,-56,-1,-1,0
1523632523800,-1441792,85,-56,-1,-1,0
1523632523800,-1572864,85,-56,-1,-1,0
1523632523800,-1769472,85,-56,-1,-1,0
1523632523800,-1966080,85,-56,-1,-1,0
1523632523800,-2031616,85,-56,-1,-1,0
1523632523840,-1966080,86,-56,-1,-1,0
1523632523840,-1638400,86,-56,-1,-1,0
1523632523840,-1048576,86,-56,-1,-1,0
1523632523840,-589824,86,-56,-1,-1,0
1523632523840,-524288,86,-56,-1,-1,0
1523632523880,-786432,86,-56,-1,-1,0
1523632523880,-1179648,86,-56,-1,-1,0
1523632523880,-1376256,86,-56,-1,-1,0
1523632523880,-1376256,86,-56,-1,-1,0
1523632523880,-1376256,86,-56,-1,-1,0
1523632523920,-1310720,86,-56,-1,-1,0
1523632523920,-851968,86,-56,-1,-1,0
1523632523920,1966080,86,-56,-1,-1,0
1523632523920,7733248,86,-56,-1,-1,0
1523632523920,10354688,86,-56,-1,-1,0
1523632523960,4849664,86,-56,-1,-1,0
1523632523960,-3145728,86,-56,-1,-1,0
1523632523960,-5963776,86,-56,-1,-1,0
1523632523960,-4259840,86,-56,-1,-1,0
1523632523960,-2490368,86,-56,-1,-1,0
1523632524000,-1900544,86,-56,-1,-1,0
1523632524000,-1835008,86,-56,-1,-1,0
1523632524000,-1703936,86,-56,-1,-1,0
1523632524000,-1572864,86,-56,-1,-1,0
1523632524000,-1441792,86,-56,-1,-1,0
1523632524040,-1179648,86,-56,-1,-1,0
1523632524040,-1048576,86,-56,-1,-1,0
1523632524040,-917504,86,-56,-1,-1,0
1523632524040,-720896,86,-56,-1,-1,0
1523632524040,-524288,86,-56,-1,-1,0
1523632524080,-327680,86,-56,-1,-1,0
1523632524080,-131072,86,-56,-1,-1,0
1523632524080,131072,86,-56,-1,-1,0
1523632524080,458752,86,-56,-1,-1,0
1523632524080,851968,86,-56,-1,-1,0
1523632524120,1310720,86,-56,-1,-1,0
1523632524120,1900544,86,-56,-1,-1,0
1523632524120,2490368,86,-56,-1,-1,0
1523632524120,3145728,86,-56,-1,-1,0
1523632524120,3866624,86,-56,-1,-1,0
1523632524160,4456448,86,-56,-1,-1,0
1523632524160,4980736,86,-56,-1,-1,0
1523632524160,5373952,86,-56,-1,-1,0
1523632524160,5505024,86,-56,-1,-1,0
1523632524160,5439488,86,-56,-1,-1,0
1523632524200,5046272,86,-56,-1,-1,0
1523632524200,4456448,86,-56,-1,-1,0
1523632524200,3604480,86,-56,-1,-1,0
1523632524200,2752512,86,-56,-1,-1,0
1523632524200,2031616,86,-56,-1,-1,0
1523632524249,1507328,86,-56,-1,-1,0
1523632524249,1048576,86,-56,-1,-1,0
1523632524249,720896,86,-56,-1,-1,0
1523632524249,589824,86,-56,-1,-1,0
1523632524249,458752,86,-56,-1,-1,0
1523632524280,327680,86,-56,-1,-1,0
1523632524280,196608,86,-56,-1,-1,0
1523632524280,65536,86,-56,-1,-1,0
1523632524280,0,86,-56,-1,-1,0
1523632524280,0,86,-56,-1,-1,0
1523632524320,-65536,86,-56,-1,-1,0
1523632524320,-131072,86,-56,-1,-1,0
1523632524320,-131072,86,-56,-1,-1,0
1523632524320,-262144,86,-56,-1,-1,0
1523632524320,-262144,86,-56,-1,-1,0
1523632524360,-327680,86,-56,-1,-1,0
1523632524360,-458752,86,-56,-1,-1,0
1523632524360,-589824,86,-56,-1,-1,0
1523632524360,-589824,86,-56,-1,-1,0
1523632524360,-655360,86,-56,-1,-1,0
1523632524400,-589824,86,-56,-1,-1,0
1523632524400,-655360,86,-56,-1,-1,0
1523632524400,-917504,86,-56,-1,-1,0
1523632524400,-1114112,86,-56,-1,-1,0
1523632524400,-1179648,86,-56,-1,-1,0
1523632524440,-1179648,87,-56,-1,-1,0
1523632524440,-1114112,87,-56,-1,-1,0
1523632524440,-786432,87,-56,-1,-1,0
1523632524440,-262144,87,-56,-1,-1,0
1523632524440,0,87,-56,-1,-1,0
1523632524480,-196608,87,-56,-1,-1,0
1523632524480,-524288,87,-56,-1,-1,0
1523632524480,-786432,87,-56,-1,-1,0
1523632524480,-917504,87,-56,-1,-1,0
1523632524480,-917504,87,-56,-1,-1,0
1523632524520,-917504,87,-56,-1,-1,0
1523632524520,-720896,87,-56,-1,-1,0
1523632524520,524288,87,-56,-1,-1,0
1523632524520,4587520,87,-56,-1,-1,0
1523632524520,8781824,87,-56,-1,-1,0
1523632524560,6881280,87,-56,-1,-1,0
1523632524560,-524288,87,-56,-1,-1,0
1523632524560,-6291456,87,-56,-1,-1,0
1523632524560,-6291456,87,-56,-1,-1,0
1523632524560,-3997696,87,-56,-1,-1,0
1523632524600,-2228224,87,-56,-1,-1,0
1523632524600,-1572864,87,-56,-1,-1,0
1523632524600,-1441792,87,-56,-1,-1,0
1523632524600,-1310720,87,-56,-1,-1,0
1523632524600,-1179648,87,-56,-1,-1,0
1523632524640,-1114112,87,-56,-1,-1,0
1523632524640,-1048576,87,-56,-1,-1,0
1523632524640,-917504,87,-56,-1,-1,0
1523632524640,-786432,87,-56,-1,-1,0
1523632524640,-655360,87,-56,-1,-1,0
1523632524680,-458752,87,-56,-1,-1,0
1523632524680,-196608,87,-56,-1,-1,0
1523632524680,-65536,87,-56,-1,-1,0
1523632524680,65536,87,-56,-1,-1,0
1523632524680,327680,87,-56,-1,-1,0
1523632524720,720896,87,-56,-1,-1,0
1523632524720,1179648,87,-56,-1,-1,0
1523632524720,1703936,87,-56,-1,-1,0
1523632524720,2359296,87,-56,-1,-1,0
1523632524720,3080192,87,-56,-1,-1,0
1523632524760,3670016,87,-56,-1,-1,0
1523632524760,4194304,87,-56,-1,-1,0
1523632524760,4587520,87,-56,-1,-1,0
1523632524760,4653056,87,-56,-1,-1,0
1523632524760,4653056,87,-56,-1,-1,0
1523632524800,4390912,87,-56,-1,-1,0
1523632524800,3866624,87,-56,-1,-1,0
1523632524800,3080192,87,-56,-1,-1,0
1523632524800,2359296,87,-56,-1,-1,0
1523632524800,1638400,87,-56,-1,-1,0
1523632524840,917504,87,-56,-1,-1,0
1523632524840,393216,87,-56,-1,-1,0
1523632524840,65536,87,-56,-1,-1,0
1523632524840,-131072,87,-56,-1,-1,0
1523632524840,-262144,87,-56,-1,-1,0
1523632524889,-393216,87,-56,-1,-1,0
1523632524889,-393216,87,-56,-1,-1,0
1523632524889,-393216,87,-56,-1,-1,0
1523632524889,-458752,87,-56,-1,-1,0
1523632524889,-458752,87,-56,-1,-1,0
1523632524920,-589824,87,-56,-1,-1,0
1523632524920,-655360,87,-56,-1,-1,0
1523632524920,-720896,87,-56,-1,-1,0
1523632524920,-851968,87,-56,-1,-1,0
1523632524920,-983040,87,-56,-1,-1,0
1523632524960,-1048576,87,-56,-1,-1,0
1523632524960,-1114112,87,-56,-1,-1,0
1523632524960,-1114112,87,-56,-1,-1,0
1523632524960,-1245184,87,-56,-1,-1,0
1523632524960,-1310720,87,-56,-1,-1,0
1523632525000,-1376256,87,-56,-1,-1,0
1523632525000,-1376256,87,-56,-1,-1,0
1523632525000,-1441792,87,-56,-1,-1,0
1523632525000,-1638400,87,-56,-1,-1,0
1523632525000,-1769472,87,-56,-1,-1,0
1523632525040,-1900544,87,-56,-1,-1,0
1523632525040,-1966080,87,-56,-1,-1,0
1523632525040,-1835008,87,-56,-1,-1,0
1523632525040,-1376256,87,-56,-1,-1,0
1523632525040,-917504,87,-56,-1,-1,0
1523632525080,-720896,87,-56,-1,-1,0
1523632525080,-851968,87,-56,-1,-1,0
1523632525080,-1179648,87,-56,-1,-1,0
1523632525080,-1441792,87,-56,-1,-1,0
1523632525080,-1572864,87,-56,-1,-1,0
1523632525120,-1507328,87,-56,-1,-1,0
1523632525120,-1507328,87,-56,-1,-1,0
1523632525120,-1245184,87,-56,-1,-1,0
1523632525120,524288,87,-56,-1,-1,0
1523632525120,5177344,87,-56,-1,-1,0
1523632525160,8912896,87,-56,-1,-1,0
1523632525160,5701632,87,-56,-1,-1,0
1523632525160,-2031616,87,-56,-1,-1,0
1523632525160,-6094848,87,-56,-1,-1,0
1523632525160,-4915200,87,-56,-1,-1,0
1523632525200,-2883584,87,-56,-1,-1,0
1523632525200,-1966080,87,-56,-1,-1,0
1523632525200,-1703936,87,-56,-1,-1,0
1523632525200,-1572864,87,-56,-1,-1,0
1523632525200,-1507328,87,-56,-1,-1,0
1523632525240,-1376256,87,-56,-1,-1,0
1523632525240,-1245184,87,-56,-1,-1,0
1523632525240,-1179648,87,-56,-1,-1,0
1523632525240,-1048576,87,-56,-1,-1,0
1523632525240,-917504,87,-56,-1,-1,0
1523632525280,-720896,87,-56,-1,-1,0
1523632525280,-524288,87,-56,-1,-1,0
1523632525280,-393216,87,-56,-1,-1,0
1523632525280,-262144,87,-56,-1,-1,0
1523632525280,-65536,87,-56,-1,-1,0
1523632525320,65536,87,-56,-1,-1,0
1523632525320,327680,87,-56,-1,-1,0
1523632525320,720896,87,-56,-1,-1,0
1523632525320,1114112,87,-56,-1,-1,0
1523632525320,1507328,87,-56,-1,-1,0
1523632525360,1966080,87,-56,-1,-1,0
1523632525360,2359296,87,-56,-1,-1,0
1523632525360,2555904,87,-56,-1,-1,0
1523632525360,2686976,87,-56,-1,-1,0
1523632525360,2752512,87,-56,-1,-1,0
1523632525400,2686976,87,-56,-1,-1,0
1523632525400,2490368,87,-56,-1,-1,0
1523632525400,2228224,87,-56,-1,-1,0
1523632525400,1703936,87,-56,-1,-1,0
1523632525400,1245184,87,-56,-1,-1,0
1523632525440,917504,87,-56,-1,-1,0
1523632525440,589824,87,-56,-1,-1,0
1523632525440,327680,87,-56,-1,-1,0
1523632525440,65536,87,-56,-1,-1,0
1523632525440,0,87,-56,-1,-1,0
1523632525480,-65536,87,-56,-1,-1,0
1523632525480,-65536,87,-56,-1,-1,0
1523632525480,-65536,87,-56,-1,-1,0
1523632525480,-131072,87,-56,-1,-1,0
1523632525480,-196608,87,-56,-1,-1,0
1523632525529,-262144,87,-56,-1,-1,0
1523632525529,-393216,87,-56,-1,-1,0
1523632525529,-458752,87,-56,-1,-1,0
1523632525529,-524288,87,-56,-1,-1,0
1523632525529,-524288,87,-56,-1,-1,0
1523632525560,-589824,87,-56,-1,-1,0
1523632525560,-655360,87,-56,-1,-1,0
1523632525560,-655360,87,-56,-1,-1,0
1523632525560,-720896,87,-56,-1,-1,0
1523632525560,-851968,87,-56,-1,-1,0
1523632525600,-851968,87,-56,-1,-1,0
1523632525600,-917504,87,-56,-1,-1,0
1523632525600,-917504,87,-56,-1,-1,0
1523632525600,-983040,87,-56,-1,-1,0
1523632525600,-1114112,87,-56,-1,-1,0
1523632525640,-1245184,87,-56,-1,-1,0
1523632525640,-1441792,87,-56,-1,-1,0
1523632525640,-1441792,87,-56,-1,-1,0
1523632525640,-1376256,87,-56,-1,-1,0
1523632525640,-1114112,87,-56,-1,-1,0
1523632525680,-720896,87,-56,-1,-1,0
1523632525680,-393216,87,-56,-1,-1,0
1523632525680,-458752,87,-56,-1,-1,0
1523632525680,-720896,87,-56,-1,-1,0
1523632525680,-983040,87,-56,-1,-1,0
1523632525720,-1114112,87,-56,-1,-1,0
1523632525720,-1114112,87,-56,-1,-1,0
1523632525720,-1114112,87,-56,-1,-1,0
1523632525720,-1048576,87,-56,-1,-1,0
1523632525720,-262144,87,-56,-1,-1,0
1523632525760,3211264,89,-56,-1,-1,0
1523632525760,8912896,89,-56,-1,-1,0
1523632525760,10092544,89,-56,-1,-1,0
1523632525760,3473408,89,-56,-1,-1,0
1523632525760,-3735552,89,-56,-1,-1,0
1523632525800,-5242880,89,-56,-1,-1,0
1523632525800,-3211264,89,-56,-1,-1,0
1523632525800,-1900544,89,-56,-1,-1,0
1523632525800,-1572864,89,-56,-1,-1,0
1523632525800,-1507328,89,-56,-1,-1,0
1523632525841,-1441792,89,-56,-1,-1,0
1523632525841,-1376256,89,-56,-1,-1,0
1523632525841,-1245184,89,-56,-1,-1,0
1523632525841,-1114112,89,-56,-1,-1,0
1523632525841,-983040,89,-56,-1,-1,0
1523632525880,-851968,89,-56,-1,-1,0
1523632525880,-720896,89,-56,-1,-1,0
1523632525880,-589824,89,-56,-1,-1,0
1523632525880,-458752,89,-56,-1,-1,0
1523632525880,-262144,89,-56,-1,-1,0
1523632525920,-65536,89,-56,-1,-1,0
1523632525920,131072,89,-56,-1,-1,0
1523632525920,393216,89,-56,-1,-1,0
1523632525920,786432,89,-56,-1,-1,0
1523632525920,1179648,89,-56,-1,-1,0
1523632525960,1572864,89,-56,-1,-1,0
1523632525960,2031616,89,-56,-1,-1,0
1523632525960,2424832,89,-56,-1,-1,0
1523632525960,2752512,89,-56,-1,-1,0
1523632525960,3014656,89,-56,-1,-1,0
1523632526000,3145728,89,-56,-1,-1,0
1523632526000,3145728,89,-56,-1,-1,0
1523632526000,3014656,89,-56,-1,-1,0
1523632526000,2621440,89,-56,-1,-1,0
1523632526000,2162688,89,-56,-1,-1,0
1523632526040,1638400,89,-56,-1,-1,0
1523632526040,1179648,89,-56,-1,-1,0
1523632526040,720896,89,-56,-1,-1,0
1523632526040,393216,89,-56,-1,-1,0
1523632526040,131072,89,-56,-1,-1,0
1523632526080,0,89,-56,-1,-1,0
1523632526080,-65536,89,-56,-1,-1,0
1523632526080,-131072,89,-56,-1,-1,0
1523632526080,-131072,89,-56,-1,-1,0
1523632526080,-196608,89,-56,-1,-1,0
1523632526120,-262144,89,-56,-1,-1,0
1523632526120,-327680,89,-56,-1,-1,0
1523632526120,-393216,89,-56,-1,-1,0
1523632526120,-458752,89,-56,-1,-1,0
1523632526120,-524288,89,-56,-1,-1,0
1523632526169,-524288,89,-56,-1,-1,0
1523632526169,-655360,89,-56,-1,-1,0
1523632526169,-786432,89,-56,-1,-1,0
1523632526169,-851968,89,-56,-1,-1,0
1523632526169,-917504,89,-56,-1,-1,0
1523632526200,-917504,89,-56,-1,-1,0
1523632526200,-917504,89,-56,-1,-1,0
1523632526200,-917504,89,-56,-1,-1,0
1523632526200,-983040,89,-56,-1,-1,0
1523632526200,-1048576,89,-56,-1,-1,0
1523632526240,-1114112,89,-56,-1,-1,0
1523632526240,-1114112,89,-56,-1,-1,0
1523632526240,-1114112,89,-56,-1,-1,0
1523632526240,-1114112,89,-56,-1,-1,0
1523632526240,-1114112,89,-56,-1,-1,0
1523632526280,-1114112,89,-56,-1,-1,0
1523632526280,-1114112,89,-56,-1,-1,0
1523632526280,-1114112,89,-56,-1,-1,0
1523632526280,-1114112,89,-56,-1,-1,0
1523632526280,-1114112,89,-56,-1,-1,0
1523632526320,-1114112,89,-56,-1,-1,0
1523632526320,-1114112,89,-56,-1,-1,0
1523632526320,-1114112,89,-56,-1,-1,0
1523632526320,-1114112,89,-56,-1,-1,0
1523632526320,-1179648,89,-56,-1,-1,0
1523632526360,-1376256,89,-56,-1,-1,0
1523632526360,-1638400,89,-56,-1,-1,0
1523632526360,-1703936,89,-56,-1,-1,0
1523632526360,-1769472,89,-56,-1,-1,0
1523632526360,-1441792,89,-56,-1,-1,0
1523632526400,-983040,89,-56,-1,-1,0
1523632526400,-589824,89,-56,-1,-1,0
1523632526400,-524288,89,-56,-1,-1,0
1523632526400,-786432,89,-56,-1,-1,0
1523632526400,-1048576,89,-56,-1,-1,0
1523632526440,-1179648,89,-56,-1,-1,0
1523632526440,-1179648,89,-56,-1,-1,0
1523632526440,-1114112,89,-56,-1,-1,0
1523632526440,-524288,89,-56,-1,-1,0
1523632526440,2359296,89,-56,-1,-1,0
1523632526480,7929856,89,-56,-1,-1,0
1523632526480,10354688,89,-56,-1,-1,0
1523632526480,4980736,89,-56,-1,-1,0
1523632526480,-2621440,89,-56,-1,-1,0
1523632526480,-5111808,89,-56,-1,-1,0
1523632526520,-3473408,89,-56,-1,-1,0
1523632526520,-2097152,89,-56,-1,-1,0
1523632526520,-1638400,89,-56,-1,-1,0
1523632526520,-1507328,89,-56,-1,-1,0
1523632526520,-1507328,89,-56,-1,-1,0
1523632526560,-1376256,89,-56,-1,-1,0
1523632526560,-1245184,89,-56,-1,-1,0
1523632526560,-1179648,89,-56,-1,-1,0
1523632526560,-1114112,89,-56,-1,-1,0
1523632526560,-983040,89,-56,-1,-1,0
1523632526600,-851968,89,-56,-1,-1,0
1523632526600,-720896,89,-56,-1,-1,0
1523632526600,-589824,89,-56,-1,-1,0
1523632526600,-458752,89,-56,-1,-1,0
1523632526600,-262144,89,-56,-1,-1,0
1523632526640,-65536,89,-56,-1,-1,0
1523632526640,131072,89,-56,-1,-1,0
1523632526640,393216,89,-56,-1,-1,0
1523632526640,786432,89,-56,-1,-1,0
1523632526640,1179648,89,-56,-1,-1,0
1523632526680,1572864,89,-56,-1,-1,0
1523632526680,2097152,89,-56,-1,-1,0
1523632526680,2555904,89,-56,-1,-1,0
1523632526680,3014656,89,-56,-1,-1,0
1523632526680,3407872,89,-56,-1,-1,0
1523632526720,3604480,89,-56,-1,-1,0
1523632526720,3604480,89,-56,-1,-1,0
1523632526720,3473408,89,-56,-1,-1,0
1523632526720,3211264,89,-56,-1,-1,0
1523632526720,2621440,89,-56,-1,-1,0
1523632526760,2097152,89,-56,-1,-1,0
1523632526760,1638400,89,-56,-1,-1,0
1523632526760,1114112,89,-56,-1,-1,0
1523632526760,720896,89,-56,-1,-1,0
1523632526760,393216,89,-56,-1,-1,0
1523632526809,262144,89,-56,-1,-1,0
1523632526809,131072,89,-56,-1,-1,0
1523632526809,0,89,-56,-1,-1,0
1523632526809,-65536,89,-56,-1,-1,0
1523632526809,-131072,89,-56,-1,-1,0
1523632526840,-196608,89,-56,-1,-1,0
1523632526840,-327680,89,-56,-1,-1,0
1523632526840,-393216,89,-56,-1,-1,0
1523632526840,-458752,89,-56,-1,-1,0
1523632526840,-524288,89,-56,-1,-1,0
1523632526880,-589824,89,-56,-1,-1,0
1523632526880,-655360,89,-56,-1,-1,0
1523632526880,-655360,89,-56,-1,-1,0
1523632526880,-655360,89,-56,-1,-1,0
1523632526880,-720896,89,-56,-1,-1,0
1523632526920,-786432,89,-56,-1,-1,0
1523632526920,-851968,89,-56,-1,-1,0
1523632526920,-983040,89,-56,-1,-1,0
1523632526920,-1048576,89,-56,-1,-1,0
1523632526920,-1114112,89,-56,-1,-1,0
1523632526960,-1048576,89,-56,-1,-1,0
1523632526960,-1048576,89,-56,-1,-1,0
1523632526960,-1114112,89,-56,-1,-1,0
1523632526960,-1114112,89,-56,-1,-1,0
1523632526960,-1179648,89,-56,-1,-1,0
1523632527000,-1179648,89,-56,-1,-1,0
1523632527000,-1179648,89,-56,-1,-1,0
1523632527000,-1245184,89,-56,-1,-1,0
1523632527000,-1245184,89,-56,-1,-1,0
1523632527000,-1245184,89,-56,-1,-1,0
1523632527040,-1310720,89,-56,-1,-1,0
1523632527040,-1310720,89,-56,-1,-1,0
1523632527040,-1376256,89,-56,-1,-1,0
1523632527040,-1572864,89,-56,-1,-1,0
1523632527040,-1769472,89,-56,-1,-1,0
1523632527080,-1966080,89,-56,-1,-1,0
1523632527080,-1966080,89,-56,-1,-1,0
1523632527080,-1769472,89,-56,-1,-1,0
1523632527080,-1310720,89,-56,-1,-1,0
1523632527080,-786432,89,-56,-1,-1,0
1523632527120,-589824,89,-56,-1,-1,0
1523632527120,-786432,89,-56,-1,-1,0
1523632527120,-1179648,89,-56,-1,-1,0
1523632527120,-1441792,89,-56,-1,-1,0
1523632527120,-1441792,89,-56,-1,-1,0
1523632527160,-1441792,89,-56,-1,-1,0
1523632527160,-1441792,89,-56,-1,-1,0
1523632527160,-851968,89,-56,-1,-1,0
1523632527160,2097152,89,-56,-1,-1,0
1523632527160,7405568,89,-56,-1,-1,0
1523632527200,8978432,89,-56,-1,-1,0
1523632527200,3080192,89,-56,-1,-1,0
1523632527200,-4194304,89,-56,-1,-1,0
1523632527200,-5963776,89,-56,-1,-1,0
1523632527200,-4063232,89,-56,-1,-1,0
1523632527240,-2555904,89,-56,-1,-1,0
1523632527240,-2031616,89,-56,-1,-1,0
1523632527240,-1966080,89,-56,-1,-1,0
1523632527240,-1900544,89,-56,-1,-1,0
1523632527240,-1835008,89,-56,-1,-1,0
1523632527280,-1703936,89,-56,-1,-1,0
1523632527280,-1638400,89,-56,-1,-1,0
1523632527280,-1507328,89,-56,-1,-1,0
1523632527280,-1376256,89,-56,-1,-1,0
1523632527280,-1245184,89,-56,-1,-1,0
1523632527320,-1179648,89,-56,-1,-1,0
1523632527320,-983040,89,-56,-1,-1,0
1523632527320,-851968,89,-56,-1,-1,0
1523632527320,-655360,89,-56,-1,-1,0
1523632527320,-458752,89,-56,-1,-1,0
1523632527360,-196608,89,-56,-1,-1,0
1523632527360,65536,89,-56,-1,-1,0
1523632527360,458752,89,-56,-1,-1,0
1523632527360,851968,89,-56,-1,-1,0
1523632527360,1376256,89,-56,-1,-1,0
1523632527400,1900544,89,-56,-1,-1,0
1523632527400,2490368,89,-56,-1,-1,0
1523632527400,2949120,89,-56,-1,-1,0
1523632527400,3342336,89,-56,-1,-1,0
1523632527400,3604480,89,-56,-1,-1,0
1523632527449,3735552,89,-56,-1,-1,0
1523632527449,3604480,89,-56,-1,-1,0
1523632527449,3211264,89,-56,-1,-1,0
1523632527449,2621440,89,-56,-1,-1,0
1523632527449,1966080,89,-56,-1,-1,0
1523632527480,1441792,89,-56,-1,-1,0
1523632527480,917504,89,-56,-1,-1,0
1523632527480,458752,89,-56,-1,-1,0
1523632527480,65536,89,-56,-1,-1,0
1523632527480,-65536,89,-56,-1,-1,0
1523632527520,-131072,89,-56,-1,-1,0
1523632527520,-262144,89,-56,-1,-1,0
1523632527520,-327680,89,-56,-1,-1,0
1523632527520,-458752,89,-56,-1,-1,0
1523632527520,-458752,89,-56,-1,-1,0
1523632527560,-524288,89,-56,-1,-1,0
1523632527560,-524288,89,-56,-1,-1,0
1523632527560,-655360,89,-56,-1,-1,0
1523632527560,-720896,89,-56,-1,-1,0
1523632527560,-720896,89,-56,-1,-1,0
1523632527600,-786432,89,-56,-1,-1,0
1523632527600,-917504,89,-56,-1,-1,0
1523632527600,-983040,89,-56,-1,-1,0
1523632527600,-917504,89,-56,-1,-1,0
1523632527600,-917504,89,-56,-1,-1,0
1523632527641,-983040,89,-56,-1,-1,0
1523632527641,-983040,89,-56,-1,-1,0
1523632527641,-983040,89,-56,-1,-1,0
1523632527641,-983040,89,-56,-1,-1,0
1523632527641,-917504,89,-56,-1,-1,0
1523632527680,-983040,89,-56,-1,-1,0
1523632527680,-1048576,89,-56,-1,-1,0
1523632527680,-1048576,89,-56,-1,-1,0
1523632527680,-983040,89,-56,-1,-1,0
1523632527680,-917504,89,-56,-1,-1,0
1523632527720,-917504,89,-56,-1,-1,0
1523632527720,-917504,89,-56,-1,-1,0
1523632527720,-983040,89,-56,-1,-1,0
1523632527720,-983040,89,-56,-1,-1,0
1523632527720,-1048576,89,-56,-1,-1,0
1523632527760,-1179648,89,-56,-1,-1,0
1523632527760,-1310720,89,-56,-1,-1,0
1523632527760,-1376256,89,-56,-1,-1,0
1523632527760,-1310720,89,-56,-1,-1,0
1523632527760,-983040,89,-56,-1,-1,0
1523632527800,-458752,89,-56,-1,-1,0
1523632527800,-65536,89,-56,-1,-1,0
1523632527800,0,89,-56,-1,-1,0
1523632527800,-327680,89,-56,-1,-1,0
1523632527800,-655360,89,-56,-1,-1,0
1523632527840,-786432,89,-56,-1,-1,0
1523632527840,-786432,89,-56,-1,-1,0
1523632527840,-786432,89,-56,-1,-1,0
1523632527840,-720896,89,-56,-1,-1,0
1523632527840,393216,89,-56,-1,-1,0
1523632527880,4128768,89,-56,-1,-1,0
1523632527880,8781824,89,-56,-1,-1,0
1523632527880,8192000,89,-56,-1,-1,0
1523632527880,1245184,89,-56,-1,-1,0
1523632527880,-5177344,89,-56,-1,-1,0
1523632527920,-5963776,89,-56,-1,-1,0
1523632527920,-3866624,89,-56,-1,-1,0
1523632527920,-2097152,89,-56,-1,-1,0
1523632527920,-1441792,89,-56,-1,-1,0
1523632527920,-1245184,89,-56,-1,-1,0
1523632527960,-1048576,89,-56,-1,-1,0
1523632527960,-917504,89,-56,-1,-1,0
1523632527960,-851968,89,-56,-1,-1,0
1523632527960,-786432,89,-56,-1,-1,0
1523632527960,-720896,89,-56,-1,-1,0
1523632528000,-524288,89,-56,-1,-1,0
1523632528000,-393216,89,-56,-1,-1,0
1523632528000,-262144,89,-56,-1,-1,0
1523632528000,-131072,89,-56,-1,-1,0
1523632528000,0,89,-56,-1,-1,0
1523632528040,262144,89,-56,-1,-1,0
1523632528040,524288,89,-56,-1,-1,0
1523632528040,786432,89,-56,-1,-1,0
1523632528040,1114112,89,-56,-1,-1,0
1523632528040,1572864,89,-56,-1,-1,0
1523632528088,2162688,89,-56,-1,-1,0
1523632528088,2818048,89,-56,-1,-1,0
1523632528088,3538944,89,-56,-1,-1,0
1523632528088,4194304,89,-56,-1,-1,0
1523632528088,4718592,89,-56,-1,-1,0
1523632528120,5046272,89,-56,-1,-1,0
1523632528120,5242880,89,-56,-1,-1,0
1523632528120,5177344,89,-56,-1,-1,0
1523632528120,4915200,89,-56,-1,-1,0
1523632528120,4325376,89,-56,-1,-1,0
1523632528160,3538944,89,-56,-1,-1,0
1523632528160,2686976,89,-56,-1,-1,0
1523632528160,1835008,89,-56,-1,-1,0
1523632528160,1245184,89,-56,-1,-1,0
1523632528160,786432,89,-56,-1,-1,0
1523632528200,393216,89,-56,-1,-1,0
1523632528200,131072,89,-56,-1,-1,0
1523632528200,0,89,-56,-1,-1,0
1523632528200,0,89,-56,-1,-1,0
1523632528200,0,89,-56,-1,-1,0
1523632528240,-65536,89,-56,-1,-1,0
1523632528240,-196608,89,-56,-1,-1,0
1523632528240,-262144,89,-56,-1,-1,0
1523632528240,-262144,89,-56,-1,-1,0
1523632528240,-327680,89,-56,-1,-1,0
1523632528280,-458752,89,-56,-1,-1,0
1523632528280,-589824,89,-56,-1,-1,0
1523632528280,-655360,89,-56,-1,-1,0
1523632528280,-720896,89,-56,-1,-1,0
1523632528280,-720896,89,-56,-1,-1,0
1523632528320,-786432,89,-56,-1,-1,0
1523632528320,-851968,89,-56,-1,-1,0
1523632528320,-983040,89,-56,-1,-1,0
1523632528320,-983040,89,-56,-1,-1,0
1523632528320,-983040,89,-56,-1,-1,0
1523632528360,-983040,89,-56,-1,-1,0
1523632528360,-1048576,89,-56,-1,-1,0
1523632528360,-1114112,89,-56,-1,-1,0
1523632528360,-1114112,89,-56,-1,-1,0
1523632528360,-1114112,89,-56,-1,-1,0
1523632528400,-1245184,89,-56,-1,-1,0
1523632528400,-1441792,89,-56,-1,-1,0
1523632528400,-1638400,89,-56,-1,-1,0
1523632528400,-1703936,89,-56,-1,-1,0
1523632528400,-1638400,89,-56,-1,-1,0
1523632528440,-1376256,88,-56,-1,-1,0
1523632528440,-786432,88,-56,-1,-1,0
1523632528440,-393216,88,-56,-1,-1,0
1523632528440,-393216,88,-56,-1,-1,0
1523632528440,-720896,88,-56,-1,-1,0
1523632528480,-1048576,88,-56,-1,-1,0
1523632528480,-1179648,88,-56,-1,-1,0
1523632528480,-1179648,88,-56,-1,-1,0
1523632528480,-1179648,88,-56,-1,-1,0
1523632528480,-1114112,88,-56,-1,-1,0
1523632528520,-65536,88,-56,-1,-1,0
1523632528520,3866624,88,-56,-1,-1,0
1523632528520,8912896,88,-56,-1,-1,0
1523632528520,8454144,88,-56,-1,-1,0
1523632528520,1179648,88,-56,-1,-1,0
1523632528560,-5046272,88,-56,-1,-1,0
1523632528560,-5373952,88,-56,-1,-1,0
1523632528560,-3211264,88,-56,-1,-1,0
1523632528560,-1966080,88,-56,-1,-1,0
1523632528560,-1638400,88,-56,-1,-1,0
1523632528600,-1572864,88,-56,-1,-1,0
1523632528600,-1507328,88,-56,-1,-1,0
1523632528600,-1441792,88,-56,-1,-1,0
1523632528600,-1310720,88,-56,-1,-1,0
1523632528600,-1179648,88,-56,-1,-1,0
1523632528640,-1114112,88,-56,-1,-1,0
1523632528640,-983040,88,-56,-1,-1,0
1523632528640,-786432,88,-56,-1,-1,0
1523632528640,-720896,88,-56,-1,-1,0
1523632528640,-589824,88,-56,-1,-1,0
1523632528681,-393216,88,-56,-1,-1,0
1523632528681,-196608,88,-56,-1,-1,0
1523632528681,0,88,-56,-1,-1,0
1523632528681,262144,88,-56,-1,-1,0
1523632528681,589824,88,-56,-1,-1,0
1523632528730,1048576,88,-56,-1,-1,0
1523632528730,1572864,88,-56,-1,-1,0
1523632528730,2031616,88,-56,-1,-1,0
1523632528730,2490368,88,-56,-1,-1,0
1523632528730,2883584,88,-56,-1,-1,0
1523632528760,3211264,88,-56,-1,-1,0
1523632528760,3407872,88,-56,-1,-1,0
1523632528760,3473408,88,-56,-1,-1,0
1523632528760,3407872,88,-56,-1,-1,0
1523632528760,3080192,88,-56,-1,-1,0
1523632528800,2621440,88,-56,-1,-1,0
1523632528800,2031616,88,-56,-1,-1,0
1523632528800,1441792,88,-56,-1,-1,0
1523632528800,917504,88,-56,-1,-1,0
1523632528800,589824,88,-56,-1,-1,0
1523632528840,327680,88,-56,-1,-1,0
1523632528840,131072,88,-56,-1,-1,0
1523632528840,0,88,-56,-1,-1,0
1523632528840,-65536,88,-56,-1,-1,0
1523632528840,-131072,88,-56,-1,-1,0
1523632528880,-196608,88,-56,-1,-1,0
1523632528880,-262144,88,-56,-1,-1,0
1523632528880,-327680,88,-56,-1,-1,0
1523632528880,-327680,88,-56,-1,-1,0
1523632528880,-393216,88,-56,-1,-1,0
1523632528920,-458752,88,-56,-1,-1,0
1523632528920,-524288,88,-56,-1,-1,0
1523632528920,-524288,88,-56,-1,-1,0
1523632528920,-589824,88,-56,-1,-1,0
1523632528920,-655360,88,-56,-1,-1,0
1523632528960,-786432,88,-56,-1,-1,0
1523632528960,-786432,88,-56,-1,-1,0
1523632528960,-851968,88,-56,-1,-1,0
1523632528960,-917504,88,-56,-1,-1,0
1523632528960,-917504,88,-56,-1,-1,0
1523632529000,-917504,88,-56,-1,-1,0
1523632529000,-983040,88,-56,-1,-1,0
1523632529000,-983040,88,-56,-1,-1,0
1523632529000,-1048576,88,-56,-1,-1,0
1523632529000,-1245184,88,-56,-1,-1,0
1523632529040,-1507328,88,-56,-1,-1,0
1523632529040,-1572864,88,-56,-1,-1,0
1523632529040,-1507328,88,-56,-1,-1,0
1523632529040,-1179648,88,-56,-1,-1,0
1523632529040,-655360,88,-56,-1,-1,0
1523632529080,-262144,90,-56,-1,-1,0
1523632529080,-262144,90,-56,-1,-1,0
1523632529080,-589824,90,-56,-1,-1,0
1523632529080,-917504,90,-56,-1,-1,0
1523632529080,-1114112,90,-56,-1,-1,0
1523632529120,-1114112,90,-56,-1,-1,0
1523632529120,-1114112,90,-56,-1,-1,0
1523632529120,-1114112,90,-56,-1,-1,0
1523632529120,-262144,90,-56,-1,-1,0
1523632529120,3407872,90,-56,-1,-1,0
1523632529160,8912896,90,-56,-1,-1,0
1523632529160,9633792,90,-56,-1,-1,0
1523632529160,2686976,90,-56,-1,-1,0
1523632529160,-4259840,90,-56,-1,-1,0
1523632529160,-5373952,90,-56,-1,-1,0
1523632529200,-3276800,90,-56,-1,-1,0
1523632529200,-1966080,90,-56,-1,-1,0
1523632529200,-1507328,90,-56,-1,-1,0
1523632529200,-1441792,90,-56,-1,-1,0
1523632529200,-1441792,90,-56,-1,-1,0
1523632529240,-1376256,90,-56,-1,-1,0
1523632529240,-1310720,90,-56,-1,-1,0
1523632529240,-1179648,90,-56,-1,-1,0
1523632529240,-1048576,90,-56,-1,-1,0
1523632529240,-983040,90,-56,-1,-1,0
1523632529280,-851968,90,-56,-1,-1,0
1523632529280,-655360,90,-56,-1,-1,0
1523632529280,-458752,90,-56,-1,-1,0
1523632529280,-262144,90,-56,-1,-1,0
1523632529280,-65536,90,-56,-1,-1,0
1523632529320,131072,90,-56,-1,-1,0
1523632529320,393216,90,-56,-1,-1,0
1523632529320,720896,90,-56,-1,-1,0
1523632529320,1114112,90,-56,-1,-1,0
1523632529320,1572864,90,-56,-1,-1,0
1523632529368,2162688,90,-56,-1,-1,0
1523632529368,2621440,90,-56,-1,-1,0
1523632529368,3080192,90,-56,-1,-1,0
1523632529368,3473408,90,-56,-1,-1,0
1523632529368,3801088,90,-56,-1,-1,0
1523632529400,3932160,90,-56,-1,-1,0
1523632529400,3866624,90,-56,-1,-1,0
1523632529400,3473408,90,-56,-1,-1,0
1523632529400,2949120,90,-56,-1,-1,0
1523632529400,2293760,90,-56,-1,-1,0
1523632529440,1703936,90,-56,-1,-1,0
1523632529440,1114112,90,-56,-1,-1,0
1523632529440,720896,90,-56,-1,-1,0
1523632529440,327680,90,-56,-1,-1,0
1523632529440,131072,90,-56,-1,-1,0
1523632529480,0,90,-56,-1,-1,0
1523632529480,0,90,-56,-1,-1,0
1523632529480,-65536,90,-56,-1,-1,0
1523632529480,-131072,90,-56,-1,-1,0
1523632529480,-196608,90,-56,-1,-1,0
1523632529520,-327680,90,-56,-1,-1,0
1523632529520,-393216,90,-56,-1,-1,0
1523632529520,-458752,90,-56,-1,-1,0
1523632529520,-458752,90,-56,-1,-1,0
1523632529520,-524288,90,-56,-1,-1,0
1523632529560,-589824,90,-56,-1,-1,0
1523632529560,-655360,90,-56,-1,-1,0
1523632529560,-720896,90,-56,-1,-1,0
1523632529560,-786432,90,-56,-1,-1,0
1523632529560,-786432,90,-56,-1,-1,0
1523632529600,-851968,90,-56,-1,-1,0
1523632529600,-917504,90,-56,-1,-1,0
1523632529600,-917504,90,-56,-1,-1,0
1523632529600,-983040,90,-56,-1,-1,0
1523632529600,-983040,90,-56,-1,-1,0
1523632529640,-1048576,90,-56,-1,-1,0
1523632529640,-1048576,90,-56,-1,-1,0
1523632529640,-1048576,90,-56,-1,-1,0
1523632529640,-1114112,90,-56,-1,-1,0
1523632529640,-1245184,90,-56,-1,-1,0
1523632529680,-1507328,90,-56,-1,-1,0
1523632529680,-1703936,90,-56,-1,-1,0
1523632529680,-1769472,90,-56,-1,-1,0
1523632529680,-1507328,90,-56,-1,-1,0
1523632529680,-983040,90,-56,-1,-1,0
1523632529720,-393216,92,-56,-1,-1,0
1523632529720,-196608,92,-56,-1,-1,0
1523632529720,-393216,92,-56,-1,-1,0
1523632529720,-851968,92,-56,-1,-1,0
1523632529720,-1048576,92,-56,-1,-1,0
1523632529760,-1114112,92,-56,-1,-1,0
1523632529760,-1114112,92,-56,-1,-1,0
1523632529760,-1114112,92,-56,-1,-1,0
1523632529760,-786432,92,-56,-1,-1,0
1523632529760,1638400,92,-56,-1,-1,0
1523632529800,7077888,92,-56,-1,-1,0
1523632529800,10354688,92,-56,-1,-1,0
1523632529800,5767168,92,-56,-1,-1,0
1523632529800,-2162688,92,-56,-1,-1,0
1523632529800,-5373952,92,-56,-1,-1,0
1523632529840,-3866624,92,-56,-1,-1,0
1523632529840,-2162688,92,-56,-1,-1,0
1523632529840,-1572864,92,-56,-1,-1,0
1523632529840,-1376256,92,-56,-1,-1,0
1523632529840,-1310720,92,-56,-1,-1,0
1523632529880,-1179648,92,-56,-1,-1,0
1523632529880,-1114112,92,-56,-1,-1,0
1523632529880,-983040,92,-56,-1,-1,0
1523632529880,-917504,92,-56,-1,-1,0
1523632529880,-786432,92,-56,-1,-1,0
1523632529920,-655360,92,-56,-1,-1,0
1523632529920,-524288,92,-56,-1,-1,0
1523632529920,-327680,92,-56,-1,-1,0
1523632529920,-131072,92,-56,-1,-1,0
1523632529920,0,92,-56,-1,-1,0
1523632529960,131072,92,-56,-1,-1,0
1523632529960,458752,92,-56,-1,-1,0
1523632529960,786432,92,-56,-1,-1,0
1523632529960,1114112,92,-56,-1,-1,0
1523632529960,1572864,92,-56,-1,-1,0
1523632530008,2097152,92,-56,-1,-1,0
1523632530008,2621440,92,-56,-1,-1,0
1523632530008,3145728,92,-56,-1,-1,0
1523632530008,3538944,92,-56,-1,-1,0
1523632530008,3866624,92,-56,-1,-1,0
1523632530040,4063232,92,-56,-1,-1,0
1523632530040,4128768,92,-56,-1,-1,0
1523632530040,3866624,92,-56,-1,-1,0
1523632530040,3407872,92,-56,-1,-1,0
1523632530040,2818048,92,-56,-1,-1,0
1523632530080,2162688,92,-56,-1,-1,0
1523632530080,1572864,92,-56,-1,-1,0
1523632530080,1048576,92,-56,-1,-1,0
1523632530080,720896,92,-56,-1,-1,0
1523632530080,524288,92,-56,-1,-1,0
1523632530120,327680,92,-56,-1,-1,0
1523632530120,131072,92,-56,-1,-1,0
1523632530120,0,92,-56,-1,-1,0
1523632530120,0,92,-56,-1,-1,0
1523632530120,-131072,92,-56,-1,-1,0
1523632530160,-131072,92,-56,-1,-1,0
1523632530160,-196608,92,-56,-1,-1,0
1523632530160,-327680,92,-56,-1,-1,0
1523632530160,-393216,92,-56,-1,-1,0
1523632530160,-458752,92,-56,-1,-1,0
1523632530200,-524288,92,-56,-1,-1,0
1523632530200,-589824,92,-56,-1,-1,0
1523632530200,-589824,92,-56,-1,-1,0
1523632530200,-655360,92,-56,-1,-1,0
1523632530200,-720896,92,-56,-1,-1,0
1523632530240,-786432,92,-56,-1,-1,0
1523632530240,-851968,92,-56,-1,-1,0
1523632530240,-917504,92,-56,-1,-1,0
1523632530240,-917504,92,-56,-1,-1,0
1523632530240,-917504,92,-56,-1,-1,0
1523632530280,-983040,92,-56,-1,-1,0
1523632530280,-983040,92,-56,-1,-1,0
1523632530280,-983040,92,-56,-1,-1,0
1523632530280,-1048576,92,-56,-1,-1,0
1523632530280,-1179648,92,-56,-1,-1,0
1523632530320,-1441792,92,-56,-1,-1,0
1523632530320,-1638400,92,-56,-1,-1,0
1523632530320,-1769472,92,-56,-1,-1,0
1523632530320,-1703936,92,-56,-1,-1,0
1523632530320,-1376256,92,-56,-1,-1,0
1523632530360,-720896,92,-56,-1,-1,0
1523632530360,-262144,92,-56,-1,-1,0
1523632530360,-327680,92,-56,-1,-1,0
1523632530360,-786432,92,-56,-1,-1,0
1523632530360,-1114112,92,-56,-1,-1,0
1523632530400,-1245184,93,-56,-1,-1,0
1523632530400,-1245184,93,-56,-1,-1,0
1523632530400,-1245184,93,-56,-1,-1,0
1523632530400,-1245184,93,-56,-1,-1,0
1523632530400,-131072,93,-56,-1,-1,0
1523632530440,3997696,93,-56,-1,-1,0
1523632530440,9306112,93,-56,-1,-1,0
1523632530440,8650752,93,-56,-1,-1,0
1523632530440,983040,93,-56,-1,-1,0
1523632530440,-5242880,93,-56,-1,-1,0
1523632530480,-5439488,93,-56,-1,-1,0
1523632530480,-3342336,93,-56,-1,-1,0
1523632530480,-2228224,93,-56,-1,-1,0
1523632530480,-1900544,93,-56,-1,-1,0
1523632530480,-1769472,93,-56,-1,-1,0
1523632530520,-1703936,93,-56,-1,-1,0
1523632530520,-1703936,93,-56,-1,-1,0
1523632530520,-1572864,93,-56,-1,-1,0
1523632530520,-1441792,93,-56,-1,-1,0
1523632530520,-1310720,93,-56,-1,-1,0
1523632530560,-1179648,93,-56,-1,-1,0
1523632530560,-1048576,93,-56,-1,-1,0
1523632530560,-917504,93,-56,-1,-1,0
1523632530560,-786432,93,-56,-1,-1,0
1523632530560,-589824,93,-56,-1,-1,0
1523632530600,-393216,93,-56,-1,-1,0
1523632530600,-131072,93,-56,-1,-1,0
1523632530600,65536,93,-56,-1,-1,0
1523632530600,458752,93,-56,-1,-1,0
1523632530600,851968,93,-56,-1,-1,0
1523632530648,1376256,93,-56,-1,-1,0
1523632530648,1900544,93,-56,-1,-1,0
1523632530648,2490368,93,-56,-1,-1,0
1523632530648,3080192,93,-56,-1,-1,0
1523632530648,3538944,93,-56,-1,-1,0
1523632530680,3932160,93,-56,-1,-1,0
1523632530680,4063232,93,-56,-1,-1,0
1523632530680,3932160,93,-56,-1,-1,0
1523632530680,3604480,93,-56,-1,-1,0
1523632530680,3014656,93,-56,-1,-1,0
1523632530720,2228224,93,-56,-1,-1,0
1523632530720,1507328,93,-56,-1,-1,0
1523632530720,917504,93,-56,-1,-1,0
1523632530720,524288,93,-56,-1,-1,0
1523632530720,196608,93,-56,-1,-1,0
1523632530760,0,93,-56,-1,-1,0
1523632530760,-196608,93,-56,-1,-1,0
1523632530760,-327680,93,-56,-1,-1,0
1523632530760,-458752,93,-56,-1,-1,0
1523632530760,-524288,93,-56,-1,-1,0
1523632530800,-589824,93,-56,-1,-1,0
1523632530800,-655360,93,-56,-1,-1,0
1523632530800,-720896,93,-56,-1,-1,0
1523632530800,-720896,93,-56,-1,-1,0
1523632530800,-851968,93,-56,-1,-1,0
1523632530840,-917504,93,-56,-1,-1,0
1523632530840,-983040,93,-56,-1,-1,0
1523632530840,-983040,93,-56,-1,-1,0
1523632530840,-1048576,93,-56,-1,-1,0
1523632530840,-1114112,93,-56,-1,-1,0
1523632530880,-1179648,93,-56,-1,-1,0
1523632530880,-1179648,93,-56,-1,-1,0
1523632530880,-1179648,93,-56,-1,-1,0
1523632530880,-1245184,93,-56,-1,-1,0
1523632530880,-1245184,93,-56,-1,-1,0
1523632530920,-1310720,93,-56,-1,-1,0
1523632530920,-1310720,93,-56,-1,-1,0
1523632530920,-1310720,93,-56,-1,-1,0
1523632530920,-1376256,93,-56,-1,-1,0
1523632530920,-1376256,93,-56,-1,-1,0
1523632530960,-1376256,93,-56,-1,-1,0
1523632530960,-1441792,93,-56,-1,-1,0
1523632530960,-1572864,93,-56,-1,-1,0
1523632530960,-1835008,93,-56,-1,-1,0
1523632530960,-2031616,93,-56,-1,-1,0
1523632531000,-2097152,93,-56,-1,-1,0
1523632531000,-2031616,93,-56,-1,-1,0
1523632531000,-1572864,93,-56,-1,-1,0
1523632531000,-983040,93,-56,-1,-1,0
1523632531000,-589824,93,-56,-1,-1,0
1523632531040,-655360,93,-56,-1,-1,0
1523632531040,-1048576,93,-56,-1,-1,0
1523632531040,-1376256,93,-56,-1,-1,0
1523632531040,-1507328,93,-56,-1,-1,0
1523632531040,-1507328,93,-56,-1,-1,0
1523632531080,-1507328,93,-56,-1,-1,0
1523632531080,-1441792,93,-56,-1,-1,0
1523632531080,-196608,93,-56,-1,-1,0
1523632531080,4128768,93,-56,-1,-1,0
1523632531080,8978432,93,-56,-1,-1,0
1523632531120,7405568,93,-56,-1,-1,0
1523632531120,-196608,93,-56,-1,-1,0
1523632531120,-5832704,93,-56,-1,-1,0
1523632531120,-5570560,93,-56,-1,-1,0
1523632531120,-3407872,93,-56,-1,-1,0
1523632531160,-2424832,93,-56,-1,-1,0
1523632531160,-2162688,93,-56,-1,-1,0
1523632531160,-2097152,93,-56,-1,-1,0
1523632531160,-2097152,93,-56,-1,-1,0
1523632531160,-2031616,93,-56,-1,-1,0
1523632531200,-1900544,93,-56,-1,-1,0
1523632531200,-1835008,93,-56,-1,-1,0
1523632531200,-1703936,93,-56,-1,-1,0
1523632531200,-1572864,93,-56,-1,-1,0
1523632531200,-1376256,93,-56,-1,-1,0
1523632531240,-1245184,93,-56,-1,-1,0
1523632531240,-1048576,93,-56,-1,-1,0
1523632531240,-851968,93,-56,-1,-1,0
1523632531240,-655360,93,-56,-1,-1,0
1523632531240,-393216,93,-56,-1,-1,0
1523632531288,-65536,93,-56,-1,-1,0
1523632531288,262144,93,-56,-1,-1,0
1523632531288,720896,93,-56,-1,-1,0
1523632531288,1310720,93,-56,-1,-1,0
1523632531288,1900544,93,-56,-1,-1,0
1523632531320,2555904,93,-56,-1,-1,0
1523632531320,3211264,93,-56,-1,-1,0
1523632531320,3801088,93,-56,-1,-1,0
1523632531320,4194304,93,-56,-1,-1,0
1523632531320,4456448,93,-56,-1,-1,0
1523632531360,4456448,93,-56,-1,-1,0
1523632531360,4063232,93,-56,-1,-1,0
1523632531360,3473408,93,-56,-1,-1,0
1523632531360,2752512,93,-56,-1,-1,0
1523632531360,1966080,93,-56,-1,-1,0
1523632531400,1310720,93,-56,-1,-1,0
1523632531400,786432,93,-56,-1,-1,0
1523632531400,458752,93,-56,-1,-1,0
1523632531400,131072,93,-56,-1,-1,0
1523632531400,0,93,-56,-1,-1,0
1523632531440,-131072,93,-56,-1,-1,0
1523632531440,-262144,93,-56,-1,-1,0
1523632531440,-327680,93,-56,-1,-1,0
1523632531440,-393216,93,-56,-1,-1,0
1523632531440,-458752,93,-56,-1,-1,0
1523632531480,-524288,93,-56,-1,-1,0
1523632531480,-589824,93,-56,-1,-1,0
1523632531480,-589824,93,-56,-1,-1,0
1523632531480,-655360,93,-56,-1,-1,0
1523632531480,-720896,93,-56,-1,-1,0
1523632531520,-851968,93,-56,-1,-1,0
1523632531520,-917504,93,-56,-1,-1,0
1523632531520,-917504,93,-56,-1,-1,0
1523632531520,-917504,93,-56,-1,-1,0
1523632531520,-983040,93,-56,-1,-1,0
1523632531560,-1048576,93,-56,-1,-1,0
1523632531560,-1114112,93,-56,-1,-1,0
1523632531560,-1114112,93,-56,-1,-1,0
1523632531560,-1048576,93,-56,-1,-1,0
1523632531560,-1114112,93,-56,-1,-1,0
1523632531600,-1114112,93,-56,-1,-1,0
1523632531600,-1114112,93,-56,-1,-1,0
1523632531600,-1179648,93,-56,-1,-1,0
1523632531600,-1179648,93,-56,-1,-1,0
1523632531600,-1310720,93,-56,-1,-1,0
1523632531640,-1441792,93,-56,-1,-1,0
1523632531640,-1638400,93,-56,-1,-1,0
1523632531640,-1638400,93,-56,-1,-1,0
1523632531640,-1572864,93,-56,-1,-1,0
1523632531640,-1376256,93,-56,-1,-1,0
1523632531680,-851968,93,-56,-1,-1,0
1523632531680,-393216,93,-56,-1,-1,0
1523632531680,-262144,93,-56,-1,-1,0
1523632531680,-458752,93,-56,-1,-1,0
1523632531680,-786432,93,-56,-1,-1,0
1523632531720,-983040,93,-56,-1,-1,0
1523632531720,-983040,93,-56,-1,-1,0
1523632531720,-983040,93,-56,-1,-1,0
1523632531720,-983040,93,-56,-1,-1,0
1523632531720,-589824,93,-56,-1,-1,0
1523632531759,2162688,93,-56,-1,-1,0
1523632531759,7602176,93,-56,-1,-1,0
1523632531759,9764864,93,-56,-1,-1,0
1523632531759,4259840,93,-56,-1,-1,0
1523632531759,-3538944,93,-56,-1,-1,0
1523632531799,-6422528,93,-56,-1,-1,0
1523632531799,-4849664,93,-56,-1,-1,0
1523632531799,-2752512,93,-56,-1,-1,0
1523632531799,-1769472,93,-56,-1,-1,0
1523632531799,-1441792,93,-56,-1,-1,0
1523632531839,-1441792,93,-56,-1,-1,0
1523632531839,-1245184,93,-56,-1,-1,0
1523632531839,-1048576,93,-56,-1,-1,0
1523632531839,-917504,93,-56,-1,-1,0
1523632531839,-851968,93,-56,-1,-1,0
1523632531879,-720896,93,-56,-1,-1,0
1523632531879,-589824,93,-56,-1,-1,0
1523632531879,-393216,93,-56,-1,-1,0
1523632531879,-131072,93,-56,-1,-1,0
1523632531879,0,93,-56,-1,-1,0
1523632531928,131072,93,-56,-1,-1,0
1523632531928,393216,93,-56,-1,-1,0
1523632531928,720896,93,-56,-1,-1,0
1523632531928,1179648,93,-56,-1,-1,0
1523632531928,1572864,93,-56,-1,-1,0
1523632531959,2228224,93,-56,-1,-1,0
1523632531959,2949120,93,-56,-1,-1,0
1523632531959,3670016,93,-56,-1,-1,0
1523632531959,4390912,93,-56,-1,-1,0
1523632531959,4980736,93,-56,-1,-1,0
1523632531999,5439488,93,-56,-1,-1,0
1523632531999,5701632,93,-56,-1,-1,0
1523632531999,5767168,93,-56,-1,-1,0
1523632531999,5505024,93,-56,-1,-1,0
1523632531999,4915200,93,-56,-1,-1,0
1523632532039,4128768,93,-56,-1,-1,0
1523632532039,3276800,93,-56,-1,-1,0
1523632532039,2490368,93,-56,-1,-1,0
1523632532039,1703936,93,-56,-1,-1,0
1523632532039,1114112,93,-56,-1,-1,0
1523632532079,655360,93,-56,-1,-1,0
1523632532079,327680,93,-56,-1,-1,0
1523632532079,196608,93,-56,-1,-1,0
1523632532079,131072,93,-56,-1,-1,0
1523632532079,65536,93,-56,-1,-1,0
1523632532120,0,93,-56,-1,-1,0
1523632532120,-65536,93,-56,-1,-1,0
1523632532120,-196608,93,-56,-1,-1,0
1523632532120,-262144,93,-56,-1,-1,0
1523632532120,-327680,93,-56,-1,-1,0
1523632532159,-393216,93,-56,-1,-1,0
1523632532159,-458752,93,-56,-1,-1,0
1523632532159,-589824,93,-56,-1,-1,0
1523632532159,-655360,93,-56,-1,-1,0
1523632532159,-786432,93,-56,-1,-1,0
1523632532199,-851968,93,-56,-1,-1,0
1523632532199,-851968,93,-56,-1,-1,0
1523632532199,-917504,93,-56,-1,-1,0
1523632532199,-917504,93,-56,-1,-1,0
1523632532199,-983040,93,-56,-1,-1,0
1523632532239,-1048576,93,-56,-1,-1,0
1523632532239,-1245184,93,-56,-1,-1,0
1523632532239,-1441792,93,-56,-1,-1,0
1523632532239,-1638400,93,-56,-1,-1,0
1523632532239,-1703936,93,-56,-1,-1,0
1523632532279,-1638400,93,-56,-1,-1,0
1523632532279,-1310720,93,-56,-1,-1,0
1523632532279,-720896,93,-56,-1,-1,0
1523632532279,-458752,93,-56,-1,-1,0
1523632532279,-524288,93,-56,-1,-1,0
1523632532319,-786432,93,-56,-1,-1,0
1523632532319,-1048576,93,-56,-1,-1,0
1523632532319,-1179648,93,-56,-1,-1,0
1523632532319,-1179648,93,-56,-1,-1,0
1523632532319,-1179648,93,-56,-1,-1,0
1523632532359,-1179648,93,-56,-1,-1,0
1523632532359,0,93,-56,-1,-1,0
1523632532359,3997696,93,-56,-1,-1,0
1523632532359,8912896,93,-56,-1,-1,0
1523632532359,7667712,93,-56,-1,-1,0
1523632532400,131072,93,-56,-1,-1,0
1523632532400,-5701632,93,-56,-1,-1,0
1523632532400,-5636096,93,-56,-1,-1,0
1523632532400,-3473408,93,-56,-1,-1,0
1523632532400,-2162688,93,-56,-1,-1,0
1523632532439,-1703936,93,-56,-1,-1,0
1523632532439,-1572864,93,-56,-1,-1,0
1523632532439,-1376256,93,-56,-1,-1,0
1523632532439,-1310720,93,-56,-1,-1,0
1523632532439,-1245184,93,-56,-1,-1,0
1523632532479,-1114112,93,-56,-1,-1,0
1523632532479,-983040,93,-56,-1,-1,0
1523632532479,-851968,93,-56,-1,-1,0
1523632532479,-720896,93,-56,-1,-1,0
1523632532479,-589824,93,-56,-1,-1,0
1523632532520,-393216,93,-56,-1,-1,0
1523632532520,-262144,93,-56,-1,-1,0
1523632532520,-131072,93,-56,-1,-1,0
1523632532520,65536,93,-56,-1,-1,0
1523632532520,458752,93,-56,-1,-1,0
1523632532568,786432,93,-56,-1,-1,0
1523632532568,1179648,93,-56,-1,-1,0
1523632532568,1703936,93,-56,-1,-1,0
1523632532568,2228224,93,-56,-1,-1,0
1523632532568,2752512,93,-56,-1,-1,0
1523632532599,3145728,93,-56,-1,-1,0
1523632532599,3407872,93,-56,-1,-1,0
1523632532599,3604480,93,-56,-1,-1,0
1523632532599,3604480,93,-56,-1,-1,0
1523632532599,3407872,93,-56,-1,-1,0
1523632532640,3080192,93,-56,-1,-1,0
1523632532640,2490368,93,-56,-1,-1,0
1523632532640,1835008,93,-56,-1,-1,0
1523632532640,1179648,93,-56,-1,-1,0
1523632532640,655360,93,-56,-1,-1,0
1523632532679,262144,93,-56,-1,-1,0
1523632532679,0,93,-56,-1,-1,0
1523632532679,-131072,93,-56,-1,-1,0
1523632532679,-262144,93,-56,-1,-1,0
1523632532679,-327680,93,-56,-1,-1,0
1523632532719,-393216,93,-56,-1,-1,0
1523632532719,-393216,93,-56,-1,-1,0
1523632532719,-393216,93,-56,-1,-1,0
1523632532719,-458752,93,-56,-1,-1,0
1523632532719,-524288,93,-56,-1,-1,0
1523632532761,-655360,93,-56,-1,-1,0
1523632532761,-720896,93,-56,-1,-1,0
1523632532761,-786432,93,-56,-1,-1,0
1523632532761,-851968,93,-56,-1,-1,0
1523632532761,-851968,93,-56,-1,-1,0
1523632532800,-917504,93,-56,-1,-1,0
1523632532800,-983040,93,-56,-1,-1,0
1523632532800,-1048576,93,-56,-1,-1,0
1523632532800,-1114112,93,-56,-1,-1,0
1523632532800,-1179648,93,-56,-1,-1,0
1523632532839,-1179648,93,-56,-1,-1,0
1523632532839,-1376256,93,-56,-1,-1,0
1523632532839,-1572864,93,-56,-1,-1,0
1523632532839,-1703936,93,-56,-1,-1,0
1523632532839,-1769472,93,-56,-1,-1,0
1523632532880,-1769472,94,-56,-1,-1,0
1523632532880,-1441792,94,-56,-1,-1,0
1523632532880,-917504,94,-56,-1,-1,0
1523632532880,-524288,94,-56,-1,-1,0
1523632532880,-524288,94,-56,-1,-1,0
1523632532919,-917504,94,-56,-1,-1,0
1523632532919,-1245184,94,-56,-1,-1,0
1523632532919,-1376256,94,-56,-1,-1,0
1523632532919,-1376256,94,-56,-1,-1,0
1523632532919,-1376256,94,-56,-1,-1,0
1523632532960,-1376256,94,-56,-1,-1,0
1523632532960,-851968,94,-56,-1,-1,0
1523632532960,2097152,94,-56,-1,-1,0
1523632532960,7798784,94,-56,-1,-1,0
1523632532960,9895936,94,-56,-1,-1,0
1523632532999,4063232,94,-56,-1,-1,0
1523632532999,-3604480,94,-56,-1,-1,0
1523632532999,-5832704,94,-56,-1,-1,0
1523632532999,-3932160,94,-56,-1,-1,0
1523632532999,-2359296,94,-56,-1,-1,0
1523632533042,-1900544,94,-56,-1,-1,0
1523632533042,-1769472,94,-56,-1,-1,0
1523632533042,-1703936,94,-56,-1,-1,0
1523632533042,-1638400,94,-56,-1,-1,0
1523632533042,-1507328,94,-56,-1,-1,0
1523632533080,-1376256,94,-56,-1,-1,0
1523632533080,-1245184,94,-56,-1,-1,0
1523632533080,-1179648,94,-56,-1,-1,0
1523632533080,-1048576,94,-56,-1,-1,0
1523632533080,-851968,94,-56,-1,-1,0
1523632533120,-655360,94,-56,-1,-1,0
1523632533120,-524288,94,-56,-1,-1,0
1523632533120,-327680,94,-56,-1,-1,0
1523632533120,-65536,94,-56,-1,-1,0
1523632533120,196608,94,-56,-1,-1,0
1523632533159,524288,94,-56,-1,-1,0
1523632533159,917504,94,-56,-1,-1,0
1523632533159,1310720,94,-56,-1,-1,0
1523632533159,1835008,94,-56,-1,-1,0
1523632533159,2359296,94,-56,-1,-1,0
1523632533212,2752512,94,-56,-1,-1,0
1523632533212,3014656,94,-56,-1,-1,0
1523632533212,3211264,94,-56,-1,-1,0
1523632533212,3342336,94,-56,-1,-1,0
1523632533212,3276800,94,-56,-1,-1,0
1523632533239,3014656,94,-56,-1,-1,0
1523632533239,2490368,94,-56,-1,-1,0
1523632533239,1900544,94,-56,-1,-1,0
1523632533239,1310720,94,-56,-1,-1,0
1523632533239,786432,94,-56,-1,-1,0
1523632533280,327680,94,-56,-1,-1,0
1523632533280,0,94,-56,-1,-1,0
1523632533280,-131072,94,-56,-1,-1,0
1523632533280,-196608,94,-56,-1,-1,0
1523632533280,-262144,94,-56,-1,-1,0
1523632533320,-327680,94,-56,-1,-1,0
1523632533320,-458752,94,-56,-1,-1,0
1523632533320,-458752,94,-56,-1,-1,0
1523632533320,-524288,94,-56,-1,-1,0
1523632533320,-524288,94,-56,-1,-1,0
1523632533360,-589824,94,-56,-1,-1,0
1523632533360,-655360,94,-56,-1,-1,0
1523632533360,-720896,94,-56,-1,-1,0
1523632533360,-786432,94,-56,-1,-1,0
1523632533360,-851968,94,-56,-1,-1,0
1523632533400,-917504,94,-56,-1,-1,0
1523632533400,-983040,94,-56,-1,-1,0
1523632533400,-1048576,94,-56,-1,-1,0
1523632533400,-1048576,94,-56,-1,-1,0
1523632533400,-1048576,94,-56,-1,-1,0
1523632533440,-1114112,94,-56,-1,-1,0
1523632533440,-1114112,94,-56,-1,-1,0
1523632533440,-1179648,94,-56,-1,-1,0
1523632533440,-1179648,94,-56,-1,-1,0
1523632533440,-1245184,94,-56,-1,-1,0
1523632533480,-1245184,94,-56,-1,-1,0
1523632533480,-1310720,94,-56,-1,-1,0
1523632533480,-1507328,94,-56,-1,-1,0
1523632533480,-1769472,94,-56,-1,-1,0
1523632533480,-1835008,94,-56,-1,-1,0
1523632533520,-1769472,94,-56,-1,-1,0
1523632533520,-1507328,94,-56,-1,-1,0
1523632533520,-983040,94,-56,-1,-1,0
1523632533520,-524288,94,-56,-1,-1,0
1523632533520,-458752,94,-56,-1,-1,0
1523632533560,-720896,93,-56,-1,-1,0
1523632533560,-1048576,93,-56,-1,-1,0
1523632533560,-1245184,93,-56,-1,-1,0
1523632533560,-1245184,93,-56,-1,-1,0
1523632533560,-1179648,93,-56,-1,-1,0
1523632533600,-1179648,93,-56,-1,-1,0
1523632533600,-655360,93,-56,-1,-1,0
1523632533600,2228224,93,-56,-1,-1,0
1523632533600,7733248,93,-56,-1,-1,0
1523632533600,9895936,93,-56,-1,-1,0
1523632533640,4194304,93,-56,-1,-1,0
1523632533640,-3342336,93,-56,-1,-1,0
1523632533640,-5505024,93,-56,-1,-1,0
1523632533640,-3670016,93,-56,-1,-1,0
1523632533640,-2162688,93,-56,-1,-1,0
1523632533680,-1703936,93,-56,-1,-1,0
1523632533680,-1572864,93,-56,-1,-1,0
1523632533680,-1507328,93,-56,-1,-1,0
1523632533680,-1441792,93,-56,-1,-1,0
1523632533680,-1310720,93,-56,-1,-1,0
1523632533720,-1114112,93,-56,-1,-1,0
1523632533720,-1048576,93,-56,-1,-1,0
1523632533720,-917504,93,-56,-1,-1,0
1523632533720,-786432,93,-56,-1,-1,0
1523632533720,-655360,93,-56,-1,-1,0
1523632533760,-524288,93,-56,-1,-1,0
1523632533760,-327680,93,-56,-1,-1,0
1523632533760,-65536,93,-56,-1,-1,0
1523632533760,131072,93,-56,-1,-1,0
1523632533760,393216,93,-56,-1,-1,0
1523632533800,720896,93,-56,-1,-1,0
1523632533800,1114112,93,-56,-1,-1,0
1523632533800,1572864,93,-56,-1,-1,0
1523632533800,2031616,93,-56,-1,-1,0
1523632533800,2490368,93,-56,-1,-1,0
1523632533849,2883584,93,-56,-1,-1,0
1523632533849,3276800,93,-56,-1,-1,0
1523632533849,3473408,93,-56,-1,-1,0
1523632533849,3604480,93,-56,-1,-1,0
1523632533849,3670016,93,-56,-1,-1,0
1523632533880,3473408,93,-56,-1,-1,0
1523632533880,3145728,93,-56,-1,-1,0
1523632533880,2555904,93,-56,-1,-1,0
1523632533880,1966080,93,-56,-1,-1,0
1523632533880,1441792,93,-56,-1,-1,0
1523632533920,1048576,93,-56,-1,-1,0
1523632533920,720896,93,-56,-1,-1,0
1523632533920,524288,93,-56,-1,-1,0
1523632533920,393216,93,-56,-1,-1,0
1523632533920,327680,93,-56,-1,-1,0
1523632533961,196608,93,-56,-1,-1,0
1523632533961,196608,93,-56,-1,-1,0
1523632533961,131072,93,-56,-1,-1,0
1523632533961,131072,93,-56,-1,-1,0
1523632533961,0,93,-56,-1,-1,0
1523632534000,0,93,-56,-1,-1,0
1523632534000,-65536,93,-56,-1,-1,0
1523632534000,-131072,93,-56,-1,-1,0
1523632534000,-196608,93,-56,-1,-1,0
1523632534000,-262144,93,-56,-1,-1,0
1523632534040,-262144,93,-56,-1,-1,0
1523632534040,-327680,93,-56,-1,-1,0
1523632534040,-393216,93,-56,-1,-1,0
1523632534040,-458752,93,-56,-1,-1,0
1523632534040,-458752,93,-56,-1,-1,0
1523632534080,-524288,93,-56,-1,-1,0
1523632534080,-524288,93,-56,-1,-1,0
1523632534080,-589824,93,-56,-1,-1,0
1523632534080,-589824,93,-56,-1,-1,0
1523632534080,-589824,93,-56,-1,-1,0
1523632534120,-589824,93,-56,-1,-1,0
1523632534120,-655360,93,-56,-1,-1,0
1523632534120,-720896,93,-56,-1,-1,0
1523632534120,-720896,93,-56,-1,-1,0
1523632534120,-786432,93,-56,-1,-1,0
1523632534160,-786432,93,-56,-1,-1,0
1523632534160,-851968,93,-56,-1,-1,0
1523632534160,-983040,93,-56,-1,-1,0
1523632534160,-1245184,93,-56,-1,-1,0
1523632534160,-1376256,93,-56,-1,-1,0
1523632534200,-1441792,93,-56,-1,-1,0
1523632534200,-1179648,93,-56,-1,-1,0
1523632534200,-720896,93,-56,-1,-1,0
1523632534200,-262144,93,-56,-1,-1,0
1523632534200,-196608,93,-56,-1,-1,0
1523632534240,-458752,93,-56,-1,-1,0
1523632534240,-786432,93,-56,-1,-1,0
1523632534240,-983040,93,-56,-1,-1,0
1523632534240,-983040,93,-56,-1,-1,0
1523632534240,-983040,93,-56,-1,-1,0
1523632534280,-786432,92,-56,-1,-1,0
1523632534280,983040,92,-56,-1,-1,0
1523632534280,5963776,92,-56,-1,-1,0
1523632534280,10420224,92,-56,-1,-1,0
1523632534280,7602176,92,-56,-1,-1,0
1523632534320,-327680,92,-56,-1,-1,0
1523632534320,-4980736,92,-56,-1,-1,0
1523632534320,-4194304,92,-56,-1,-1,0
1523632534320,-2424832,92,-56,-1,-1,0
1523632534320,-1703936,92,-56,-1,-1,0
1523632534361,-1572864,92,-56,-1,-1,0
1523632534361,-1507328,92,-56,-1,-1,0
1523632534361,-1441792,92,-56,-1,-1,0
1523632534361,-1310720,92,-56,-1,-1,0
1523632534361,-1179648,92,-56,-1,-1,0
1523632534400,-1114112,92,-56,-1,-1,0
1523632534400,-983040,92,-56,-1,-1,0
1523632534400,-917504,92,-56,-1,-1,0
1523632534400,-786432,92,-56,-1,-1,0
1523632534400,-589824,92,-56,-1,-1,0
1523632534440,-458752,92,-56,-1,-1,0
1523632534440,-262144,92,-56,-1,-1,0
1523632534440,-131072,92,-56,-1,-1,0
1523632534440,65536,92,-56,-1,-1,0
1523632534440,327680,92,-56,-1,-1,0
1523632534489,655360,92,-56,-1,-1,0
1523632534489,983040,92,-56,-1,-1,0
1523632534489,1507328,92,-56,-1,-1,0
1523632534489,1966080,92,-56,-1,-1,0
1523632534489,2490368,92,-56,-1,-1,0
1523632534520,2883584,92,-56,-1,-1,0
1523632534520,3211264,92,-56,-1,-1,0
1523632534520,3473408,92,-56,-1,-1,0
1523632534520,3604480,92,-56,-1,-1,0
1523632534520,3473408,92,-56,-1,-1,0
1523632534560,3145728,92,-56,-1,-1,0
1523632534560,2686976,92,-56,-1,-1,0
1523632534560,2162688,92,-56,-1,-1,0
1523632534560,1572864,92,-56,-1,-1,0
1523632534560,1048576,92,-56,-1,-1,0
1523632534600,655360,92,-56,-1,-1,0
1523632534600,327680,92,-56,-1,-1,0
1523632534600,131072,92,-56,-1,-1,0
1523632534600,0,92,-56,-1,-1,0
1523632534600,-131072,92,-56,-1,-1,0
1523632534640,-196608,92,-56,-1,-1,0
1523632534640,-262144,92,-56,-1,-1,0
1523632534640,-327680,92,-56,-1,-1,0
1523632534640,-458752,92,-56,-1,-1,0
1523632534640,-458752,92,-56,-1,-1,0
1523632534680,-524288,92,-56,-1,-1,0
1523632534680,-589824,92,-56,-1,-1,0
1523632534680,-655360,92,-56,-1,-1,0
1523632534680,-720896,92,-56,-1,-1,0
1523632534680,-720896,92,-56,-1,-1,0
1523632534720,-786432,92,-56,-1,-1,0
1523632534720,-851968,92,-56,-1,-1,0
1523632534720,-851968,92,-56,-1,-1,0
1523632534720,-917504,92,-56,-1,-1,0
1523632534720,-983040,92,-56,-1,-1,0
1523632534760,-983040,92,-56,-1,-1,0
1523632534760,-983040,92,-56,-1,-1,0
1523632534760,-1048576,92,-56,-1,-1,0
1523632534760,-1114112,92,-56,-1,-1,0
1523632534760,-1114112,92,-56,-1,-1,0
1523632534800,-1114112,92,-56,-1,-1,0
1523632534800,-1114112,92,-56,-1,-1,0
1523632534800,-1179648,92,-56,-1,-1,0
1523632534800,-1179648,92,-56,-1,-1,0
1523632534800,-1245184,92,-56,-1,-1,0
1523632534840,-1245184,92,-56,-1,-1,0
1523632534840,-1245184,92,-56,-1,-1,0
1523632534840,-1245184,92,-56,-1,-1,0
1523632534840,-1179648,92,-56,-1,-1,0
1523632534840,-1179648,92,-56,-1,-1,0
1523632534880,-1114112,92,-56,-1,-1,0
1523632534880,-1245184,92,-56,-1,-1,0
1523632534880,-1441792,92,-56,-1,-1,0
1523632534880,-1638400,92,-56,-1,-1,0
1523632534880,-1769472,92,-56,-1,-1,0
1523632534921,-1703936,92,-56,-1,-1,0
1523632534921,-1376256,92,-56,-1,-1,0
1523632534921,-851968,92,-56,-1,-1,0
1523632534921,-458752,92,-56,-1,-1,0
1523632534921,-524288,92,-56,-1,-1,0
1523632534961,-851968,92,-56,-1,-1,0
1523632534961,-1114112,92,-56,-1,-1,0
1523632534961,-1179648,92,-56,-1,-1,0
1523632534961,-1179648,92,-56,-1,-1,0
1523632534961,-1114112,92,-56,-1,-1,0
1523632535000,-393216,91,-56,-1,-1,0
1523632535000,2883584,91,-56,-1,-1,0
1523632535000,8323072,91,-56,-1,-1,0
1523632535000,9764864,91,-56,-1,-1,0
1523632535000,3538944,91,-56,-1,-1,0
1523632535040,-3670016,91,-56,-1,-1,0
1523632535040,-5308416,91,-56,-1,-1,0
1523632535040,-3407872,91,-56,-1,-1,0
1523632535040,-2031616,91,-56,-1,-1,0
1523632535040,-1638400,91,-56,-1,-1,0
1523632535081,-1507328,91,-56,-1,-1,0
1523632535081,-1441792,91,-56,-1,-1,0
1523632535081,-1376256,91,-56,-1,-1,0
1523632535081,-1245184,91,-56,-1,-1,0
1523632535081,-1179648,91,-56,-1,-1,0
1523632535130,-1114112,91,-56,-1,-1,0
1523632535130,-983040,91,-56,-1,-1,0
1523632535130,-851968,91,-56,-1,-1,0
1523632535130,-720896,91,-56,-1,-1,0
1523632535130,-524288,91,-56,-1,-1,0
1523632535160,-393216,91,-56,-1,-1,0
1523632535160,-196608,91,-56,-1,-1,0
1523632535160,0,91,-56,-1,-1,0
1523632535160,196608,91,-56,-1,-1,0
1523632535160,524288,91,-56,-1,-1,0
1523632535200,917504,91,-56,-1,-1,0
1523632535200,1310720,91,-56,-1,-1,0
1523632535200,1769472,91,-56,-1,-1,0
1523632535200,2293760,91,-56,-1,-1,0
1523632535200,2818048,91,-56,-1,-1,0
1523632535240,3211264,91,-56,-1,-1,0
1523632535240,3538944,91,-56,-1,-1,0
1523632535240,3801088,91,-56,-1,-1,0
1523632535240,3932160,91,-56,-1,-1,0
1523632535240,3801088,91,-56,-1,-1,0
1523632535280,3407872,91,-56,-1,-1,0
1523632535280,2883584,91,-56,-1,-1,0
1523632535280,2228224,91,-56,-1,-1,0
1523632535280,1638400,91,-56,-1,-1,0
1523632535280,1114112,91,-56,-1,-1,0
1523632535320,720896,91,-56,-1,-1,0
1523632535320,393216,91,-56,-1,-1,0
1523632535320,196608,91,-56,-1,-1,0
1523632535320,65536,91,-56,-1,-1,0
1523632535320,0,91,-56,-1,-1,0
1523632535360,-65536,91,-56,-1,-1,0
1523632535360,-131072,91,-56,-1,-1,0
1523632535360,-196608,91,-56,-1,-1,0
1523632535360,-262144,91,-56,-1,-1,0
1523632535360,-327680,91,-56,-1,-1,0
1523632535400,-458752,91,-56,-1,-1,0
1523632535400,-524288,91,-56,-1,-1,0
1523632535400,-589824,91,-56,-1,-1,0
1523632535400,-589824,91,-56,-1,-1,0
1523632535400,-655360,91,-56,-1,-1,0
1523632535440,-720896,91,-56,-1,-1,0
1523632535440,-786432,91,-56,-1,-1,0
1523632535440,-786432,91,-56,-1,-1,0
1523632535440,-851968,91,-56,-1,-1,0
1523632535440,-851968,91,-56,-1,-1,0
1523632535480,-917504,91,-56,-1,-1,0
1523632535480,-917504,91,-56,-1,-1,0
1523632535480,-917504,91,-56,-1,-1,0
1523632535480,-983040,91,-56,-1,-1,0
1523632535480,-1048576,91,-56,-1,-1,0
1523632535520,-1048576,91,-56,-1,-1,0
1523632535520,-1048576,91,-56,-1,-1,0
1523632535520,-1048576,91,-56,-1,-1,0
1523632535520,-1048576,91,-56,-1,-1,0
1523632535520,-1048576,91,-56,-1,-1,0
1523632535560,-1048576,91,-56,-1,-1,0
1523632535560,-1048576,91,-56,-1,-1,0
1523632535560,-1048576,91,-56,-1,-1,0
1523632535560,-1048576,91,-56,-1,-1,0
1523632535560,-1048576,91,-56,-1,-1,0
1523632535600,-1179648,91,-56,-1,-1,0
1523632535600,-1310720,91,-56,-1,-1,0
1523632535600,-1572864,91,-56,-1,-1,0
1523632535600,-1769472,91,-56,-1,-1,0
1523632535600,-1835008,91,-56,-1,-1,0
1523632535640,-1572864,91,-56,-1,-1,0
1523632535640,-1048576,91,-56,-1,-1,0
1523632535640,-524288,91,-56,-1,-1,0
1523632535640,-327680,91,-56,-1,-1,0
1523632535640,-589824,91,-56,-1,-1,0
1523632535680,-917504,91,-56,-1,-1,0
1523632535680,-1114112,91,-56,-1,-1,0
1523632535680,-1179648,91,-56,-1,-1,0
1523632535680,-1179648,91,-56,-1,-1,0
1523632535680,-1179648,91,-56,-1,-1,0
1523632535720,-524288,90,-56,-1,-1,0
1523632535720,2686976,90,-56,-1,-1,0
1523632535720,8257536,90,-56,-1,-1,0
1523632535720,9764864,90,-56,-1,-1,0
1523632535720,3538944,90,-56,-1,-1,0
1523632535768,-3735552,90,-56,-1,-1,0
1523632535768,-5505024,90,-56,-1,-1,0
1523632535768,-3604480,90,-56,-1,-1,0
1523632535768,-2228224,90,-56,-1,-1,0
1523632535768,-1835008,90,-56,-1,-1,0
1523632535800,-1769472,90,-56,-1,-1,0
1523632535800,-1703936,90,-56,-1,-1,0
1523632535800,-1638400,90,-56,-1,-1,0
1523632535800,-1572864,90,-56,-1,-1,0
1523632535800,-1441792,90,-56,-1,-1,0
1523632535840,-1376256,90,-56,-1,-1,0
1523632535840,-1310720,90,-56,-1,-1,0
1523632535840,-1179648,90,-56,-1,-1,0
1523632535840,-1048576,90,-56,-1,-1,0
1523632535840,-851968,90,-56,-1,-1,0
1523632535880,-655360,90,-56,-1,-1,0
1523632535880,-458752,90,-56,-1,-1,0
1523632535880,-262144,90,-56,-1,-1,0
1523632535880,-65536,90,-56,-1,-1,0
1523632535880,196608,90,-56,-1,-1,0
1523632535920,589824,90,-56,-1,-1,0
1523632535920,983040,90,-56,-1,-1,0
1523632535920,1507328,90,-56,-1,-1,0
1523632535920,2031616,90,-56,-1,-1,0
1523632535920,2621440,90,-56,-1,-1,0
1523632535962,3080192,90,-56,-1,-1,0
1523632535962,3473408,90,-56,-1,-1,0
1523632535962,3735552,90,-56,-1,-1,0
1523632535962,3866624,90,-56,-1,-1,0
1523632535962,3801088,90,-56,-1,-1,0
1523632536000,3407872,90,-56,-1,-1,0
1523632536000,2818048,90,-56,-1,-1,0
1523632536000,2162688,90,-56,-1,-1,0
1523632536000,1507328,90,-56,-1,-1,0
1523632536000,983040,90,-56,-1,-1,0
1523632536040,524288,90,-56,-1,-1,0
1523632536040,131072,90,-56,-1,-1,0
1523632536040,0,90,-56,-1,-1,0
1523632536040,-131072,90,-56,-1,-1,0
1523632536040,-262144,90,-56,-1,-1,0
1523632536080,-393216,90,-56,-1,-1,0
1523632536080,-458752,90,-56,-1,-1,0
1523632536080,-458752,90,-56,-1,-1,0
1523632536080,-589824,90,-56,-1,-1,0
1523632536080,-655360,90,-56,-1,-1,0
1523632536120,-720896,90,-56,-1,-1,0
1523632536120,-786432,90,-56,-1,-1,0
1523632536120,-917504,90,-56,-1,-1,0
1523632536120,-983040,90,-56,-1,-1,0
1523632536120,-983040,90,-56,-1,-1,0
1523632536160,-1114112,90,-56,-1,-1,0
1523632536160,-1179648,90,-56,-1,-1,0
1523632536160,-1179648,90,-56,-1,-1,0
1523632536160,-1179648,90,-56,-1,-1,0
1523632536160,-1245184,90,-56,-1,-1,0
1523632536200,-1310720,90,-56,-1,-1,0
1523632536200,-1376256,90,-56,-1,-1,0
1523632536200,-1441792,90,-56,-1,-1,0
1523632536200,-1441792,90,-56,-1,-1,0
1523632536200,-1441792,90,-56,-1,-1,0
1523632536240,-1441792,90,-56,-1,-1,0
1523632536240,-1441792,90,-56,-1,-1,0
1523632536240,-1507328,90,-56,-1,-1,0
1523632536240,-1507328,90,-56,-1,-1,0
1523632536240,-1507328,90,-56,-1,-1,0
1523632536280,-1572864,90,-56,-1,-1,0
1523632536280,-1572864,90,-56,-1,-1,0
1523632536280,-1507328,90,-56,-1,-1,0
1523632536280,-1507328,90,-56,-1,-1,0
1523632536280,-1572864,90,-56,-1,-1,0
1523632536320,-1638400,90,-56,-1,-1,0
1523632536320,-1835008,90,-56,-1,-1,0
1523632536320,-2031616,90,-56,-1,-1,0
1523632536320,-2162688,90,-56,-1,-1,0
1523632536320,-2097152,90,-56,-1,-1,0
1523632536360,-1769472,90,-56,-1,-1,0
1523632536360,-1245184,90,-56,-1,-1,0
1523632536360,-720896,90,-56,-1,-1,0
1523632536360,-655360,90,-56,-1,-1,0
1523632536360,-1048576,90,-56,-1,-1,0
1523632536408,-1376256,90,-56,-1,-1,0
1523632536408,-1441792,90,-56,-1,-1,0
1523632536408,-1441792,90,-56,-1,-1,0
1523632536408,-1441792,90,-56,-1,-1,0
1523632536408,-1376256,90,-56,-1,-1,0
1523632536440,-262144,90,-56,-1,-1,0
1523632536440,3801088,90,-56,-1,-1,0
1523632536440,9175040,90,-56,-1,-1,0
1523632536440,8847360,90,-56,-1,-1,0
1523632536440,1441792,90,-56,-1,-1,0
1523632536480,-5177344,90,-56,-1,-1,0
1523632536480,-5701632,90,-56,-1,-1,0
1523632536480,-3473408,90,-56,-1,-1,0
1523632536480,-2162688,90,-56,-1,-1,0
1523632536480,-1835008,90,-56,-1,-1,0
1523632536520,-1769472,90,-56,-1,-1,0
1523632536520,-1638400,90,-56,-1,-1,0
1523632536520,-1572864,90,-56,-1,-1,0
1523632536520,-1441792,90,-56,-1,-1,0
1523632536520,-1376256,90,-56,-1,-1,0
1523632536560,-1245184,90,-56,-1,-1,0
1523632536560,-1048576,90,-56,-1,-1,0
1523632536560,-786432,90,-56,-1,-1,0
1523632536560,-589824,90,-56,-1,-1,0
1523632536560,-393216,90,-56,-1,-1,0
1523632536600,-196608,90,-56,-1,-1,0
1523632536600,0,90,-56,-1,-1,0
1523632536600,196608,90,-56,-1,-1,0
1523632536600,524288,90,-56,-1,-1,0
1523632536600,983040,90,-56,-1,-1,0
1523632536640,1441792,90,-56,-1,-1,0
1523632536640,2097152,90,-56,-1,-1,0
1523632536640,2818048,90,-56,-1,-1,0
1523632536640,3604480,90,-56,-1,-1,0
1523632536640,4259840,90,-56,-1,-1,0
1523632536680,4915200,90,-56,-1,-1,0
1523632536680,5505024,90,-56,-1,-1,0
1523632536680,5832704,90,-56,-1,-1,0
1523632536680,5898240,90,-56,-1,-1,0
1523632536680,5636096,90,-56,-1,-1,0
1523632536720,5046272,90,-56,-1,-1,0
1523632536720,4325376,90,-56,-1,-1,0
1523632536720,3473408,90,-56,-1,-1,0
1523632536720,2621440,90,-56,-1,-1,0
1523632536720,1835008,90,-56,-1,-1,0
1523632536760,1310720,90,-56,-1,-1,0
1523632536760,917504,90,-56,-1,-1,0
1523632536760,589824,90,-56,-1,-1,0
1523632536760,393216,90,-56,-1,-1,0
1523632536760,262144,90,-56,-1,-1,0
1523632536800,196608,90,-56,-1,-1,0
1523632536800,65536,90,-56,-1,-1,0
1523632536800,0,90,-56,-1,-1,0
1523632536800,0,90,-56,-1,-1,0
1523632536800,-65536,90,-56,-1,-1,0
1523632536840,-131072,90,-56,-1,-1,0
1523632536840,-262144,90,-56,-1,-1,0
1523632536840,-327680,90,-56,-1,-1,0
1523632536840,-327680,90,-56,-1,-1,0
1523632536840,-393216,90,-56,-1,-1,0
1523632536880,-524288,90,-56,-1,-1,0
1523632536880,-655360,90,-56,-1,-1,0
1523632536880,-655360,90,-56,-1,-1,0
1523632536880,-720896,90,-56,-1,-1,0
1523632536880,-720896,90,-56,-1,-1,0
1523632536920,-851968,90,-56,-1,-1,0
1523632536920,-851968,90,-56,-1,-1,0
1523632536920,-851968,90,-56,-1,-1,0
1523632536920,-917504,90,-56,-1,-1,0
1523632536920,-983040,90,-56,-1,-1,0
1523632536960,-983040,90,-56,-1,-1,0
1523632536960,-1048576,90,-56,-1,-1,0
1523632536960,-1114112,90,-56,-1,-1,0
1523632536960,-1310720,90,-56,-1,-1,0
1523632536960,-1376256,90,-56,-1,-1,0
1523632537000,-1441792,91,-56,-1,-1,0
1523632537000,-1376256,91,-56,-1,-1,0
1523632537000,-1114112,91,-56,-1,-1,0
1523632537000,-720896,91,-56,-1,-1,0
1523632537000,-458752,91,-56,-1,-1,0
1523632537050,-393216,91,-56,-1,-1,0
1523632537050,-655360,91,-56,-1,-1,0
1523632537050,-983040,91,-56,-1,-1,0
1523632537050,-1245184,91,-56,-1,-1,0
1523632537050,-1245184,91,-56,-1,-1,0
1523632537080,-1245184,91,-56,-1,-1,0
1523632537080,-1114112,91,-56,-1,-1,0
1523632537080,-655360,91,-56,-1,-1,0
1523632537080,1900544,91,-56,-1,-1,0
1523632537080,6815744,91,-56,-1,-1,0
1523632537120,8454144,91,-56,-1,-1,0
1523632537120,2949120,91,-56,-1,-1,0
1523632537120,-4325376,91,-56,-1,-1,0
1523632537120,-6684672,91,-56,-1,-1,0
1523632537120,-4980736,91,-56,-1,-1,0
1523632537160,-2949120,91,-56,-1,-1,0
1523632537160,-2097152,91,-56,-1,-1,0
1523632537160,-1769472,91,-56,-1,-1,0
1523632537160,-1638400,91,-56,-1,-1,0
1523632537160,-1572864,91,-56,-1,-1,0
1523632537200,-1441792,91,-56,-1,-1,0
1523632537200,-1310720,91,-56,-1,-1,0
1523632537200,-1245184,91,-56,-1,-1,0
1523632537200,-1048576,91,-56,-1,-1,0
1523632537200,-917504,91,-56,-1,-1,0
