milliseconds, ECG, ECG HR, PPG, PPG HR, SpO2, PI,Landmark_0,Landmark_1,Landmark_2,Landmark_3,Landmark_4,Landmark_5,Landmark_6,Landmark_7,Landmark_8,Landmark_9,Landmark_10,Landmark_11,Landmark_12,Landmark_13,Landmark_14,Landmark_15,Landmark_16,Landmark_17,Landmark_18,Landmark_19,Landmark_20,Landmark_21,Landmark_22,Landmark_23,Landmark_24,Landmark_25,Landmark_26,Landmark_27,Landmark_28,Landmark_29,Landmark_30,Landmark_31,Landmark_32,Landmark_33,Landmark_34,Landmark_35,Landmark_36,Landmark_37,Landmark_38,Landmark_39,Landmark_40,Landmark_41,Landmark_42,Landmark_43,Landmark_44,Landmark_45,Landmark_46,Landmark_47,Landmark_48,Landmark_49,Landmark_50,Landmark_51,Landmark_52,Landmark_53,Landmark_54,Landmark_55,Landmark_56,Landmark_57,Landmark_58,Landmark_59,Landmark_60,Landmark_61,Landmark_62,Landmark_63,Landmark_64,Landmark_65,Landmark_66,Landmark_67,EyeAspectRatio,MouthAspectRatio,LightIntensity,FaceWidthRatio,EyebrowHeight,LipsWidthRatio,LipsHeightRatio,EyeOpening,NoseWidthRatio,NoseHeightRatio,AvgRedForehead,AvgGreenForehead,AvgBlueForehead,AvgRedLips,AvgGreenLips,AvgBlueLips,AvgRedCheeks,AvgGreenCheeks,AvgBlueCheeks
0,196608,81,-56,-1,-1,0,"(1020, 411)","(1014, 447)","(1013, 481)","(1015, 516)","(1022, 552)","(1034, 588)","(1052, 620)","(1075, 650)","(1106, 663)","(1142, 663)","(1178, 647)","(1212, 625)","(1240, 598)","(1260, 565)","(1274, 530)","(1285, 493)","(1293, 454)","(1038, 399)","(1054, 389)","(1076, 390)","(1098, 399)","(1118, 413)","(1176, 423)","(1201, 415)","(1227, 415)","(1251, 422)","(1267, 437)","(1139, 447)","(1135, 469)","(1130, 492)","(1125, 515)","(1101, 526)","(1112, 533)","(1123, 539)","(1138, 538)","(1152, 535)","(1062, 430)","(1078, 425)","(1096, 428)","(1109, 443)","(1091, 445)","(1073, 441)","(1178, 455)","(1197, 446)","(1216, 449)","(1230, 460)","(1214, 466)","(1195, 463)","(1077, 563)","(1094, 562)","(1111, 562)","(1122, 568)","(1134, 566)","(1154, 572)","(1173, 580)","(1149, 594)","(1128, 599)","(1115, 598)","(1103, 594)","(1089, 583)","(1086, 566)","(1109, 574)","(1120, 577)","(1132, 578)","(1163, 580)","(1130, 581)","(1118, 581)","(1107, 577)",0.32,0.93,32.0,0.36,0.16,0.35,0.02,-20.0,0.04,0.31,30.3,62.3,108.7,18.55,35.85,93.1,18.47,42.35,76.58
33,65536,81,-56,-1,-1,0,"(1094, 361)","(1090, 394)","(1090, 426)","(1092, 457)","(1096, 489)","(1108, 520)","(1125, 547)","(1147, 569)","(1176, 579)","(1208, 578)","(1237, 565)","(1263, 547)","(1284, 525)","(1298, 498)","(1307, 469)","(1315, 440)","(1320, 409)","(1109, 346)","(1126, 338)","(1147, 341)","(1167, 352)","(1186, 367)","(1230, 376)","(1252, 369)","(1273, 366)","(1295, 370)","(1310, 384)","(1203, 394)","(1199, 414)","(1195, 433)","(1190, 453)","(1166, 465)","(1177, 470)","(1189, 476)","(1201, 475)","(1214, 473)","(1130, 384)","(1144, 384)","(1159, 386)","(1172, 393)","(1157, 394)","(1141, 392)","(1236, 406)","(1253, 404)","(1268, 407)","(1281, 413)","(1266, 416)","(1251, 412)","(1142, 499)","(1159, 497)","(1175, 497)","(1186, 501)","(1199, 500)","(1215, 506)","(1233, 513)","(1214, 525)","(1197, 529)","(1183, 529)","(1172, 526)","(1156, 517)","(1150, 502)","(1174, 508)","(1185, 511)","(1198, 511)","(1224, 513)","(1198, 514)","(1186, 513)","(1175, 510)",0.19,0.88,35.0,0.38,0.18,0.4,0.01,-11.0,0.04,0.31,27.8,60.8,109.7,20.45,45.05,116.15,18.76,48.88,95.0
66,-65536,81,-56,-1,-1,0,"(1106, 354)","(1102, 386)","(1101, 417)","(1101, 448)","(1106, 479)","(1117, 509)","(1133, 536)","(1154, 558)","(1182, 568)","(1213, 568)","(1245, 556)","(1274, 539)","(1297, 517)","(1314, 489)","(1324, 459)","(1333, 428)","(1339, 396)","(1118, 342)","(1134, 335)","(1155, 339)","(1174, 350)","(1191, 364)","(1235, 372)","(1258, 365)","(1281, 362)","(1304, 365)","(1321, 378)","(1208, 390)","(1204, 409)","(1199, 429)","(1194, 449)","(1172, 459)","(1182, 465)","(1193, 470)","(1206, 469)","(1220, 467)","(1137, 380)","(1152, 380)","(1166, 382)","(1179, 390)","(1163, 391)","(1148, 388)","(1244, 401)","(1261, 399)","(1276, 402)","(1290, 407)","(1275, 411)","(1259, 408)","(1149, 491)","(1165, 490)","(1181, 490)","(1191, 494)","(1203, 493)","(1220, 498)","(1240, 504)","(1218, 517)","(1200, 521)","(1187, 520)","(1175, 517)","(1162, 508)","(1157, 493)","(1179, 500)","(1190, 503)","(1202, 503)","(1231, 505)","(1202, 505)","(1190, 505)","(1179, 501)",0.19,0.92,35.0,0.37,0.17,0.39,0.01,-11.5,0.05,0.33,25.3,58.3,108.0,20.9,45.35,116.25,20.47,49.82,94.47
100,-65536,81,-56,-1,-1,0,"(1114, 347)","(1110, 379)","(1110, 409)","(1110, 439)","(1115, 469)","(1126, 498)","(1142, 525)","(1162, 548)","(1190, 558)","(1222, 558)","(1252, 546)","(1280, 529)","(1302, 507)","(1318, 480)","(1329, 451)","(1338, 421)","(1345, 390)","(1125, 337)","(1142, 331)","(1161, 336)","(1180, 346)","(1197, 360)","(1240, 368)","(1262, 361)","(1284, 358)","(1307, 361)","(1324, 372)","(1214, 384)","(1209, 404)","(1204, 424)","(1200, 444)","(1178, 452)","(1188, 458)","(1199, 464)","(1213, 462)","(1226, 460)","(1145, 374)","(1159, 374)","(1174, 377)","(1186, 384)","(1170, 385)","(1156, 382)","(1249, 395)","(1266, 393)","(1281, 395)","(1295, 400)","(1280, 404)","(1264, 401)","(1157, 482)","(1173, 481)","(1188, 481)","(1199, 486)","(1211, 484)","(1228, 488)","(1248, 494)","(1227, 507)","(1209, 512)","(1196, 512)","(1184, 509)","(1170, 499)","(1165, 485)","(1187, 491)","(1198, 494)","(1210, 494)","(1240, 495)","(1210, 497)","(1198, 496)","(1187, 493)",0.18,0.92,35.0,0.37,0.17,0.39,0.02,-11.0,0.05,0.34,26.9,57.9,107.8,22.1,46.45,116.95,19.94,48.17,92.82
133,-131072,81,-56,-1,-1,0,"(1118, 347)","(1116, 378)","(1117, 408)","(1119, 438)","(1123, 467)","(1134, 496)","(1151, 522)","(1172, 544)","(1200, 553)","(1231, 552)","(1261, 540)","(1287, 523)","(1307, 500)","(1321, 474)","(1331, 444)","(1339, 415)","(1346, 384)","(1133, 336)","(1149, 330)","(1168, 334)","(1186, 344)","(1203, 357)","(1245, 365)","(1266, 358)","(1287, 354)","(1309, 357)","(1326, 368)","(1220, 381)","(1216, 399)","(1211, 418)","(1207, 438)","(1187, 446)","(1196, 452)","(1207, 457)","(1219, 455)","(1232, 453)","(1153, 371)","(1167, 371)","(1181, 373)","(1193, 380)","(1178, 381)","(1164, 379)","(1254, 390)","(1269, 387)","(1284, 390)","(1297, 395)","(1282, 399)","(1267, 396)","(1166, 475)","(1181, 474)","(1196, 474)","(1206, 478)","(1217, 477)","(1234, 481)","(1253, 486)","(1234, 499)","(1217, 504)","(1204, 504)","(1193, 501)","(1180, 492)","(1174, 478)","(1194, 483)","(1205, 486)","(1217, 486)","(1244, 487)","(1218, 489)","(1206, 489)","(1196, 486)",0.21,0.94,34.0,0.36,0.16,0.38,0.02,-11.0,0.05,0.33,26.3,58.1,107.4,20.7,44.85,115.9,19.35,46.23,89.7
166,196608,81,-56,-1,-1,0,"(1132, 342)","(1128, 372)","(1128, 400)","(1129, 428)","(1133, 456)","(1143, 485)","(1158, 511)","(1177, 533)","(1205, 542)","(1234, 541)","(1262, 529)","(1288, 512)","(1309, 490)","(1324, 464)","(1333, 436)","(1340, 407)","(1345, 377)","(1140, 336)","(1155, 330)","(1174, 333)","(1192, 343)","(1209, 356)","(1249, 363)","(1269, 356)","(1290, 352)","(1312, 355)","(1328, 366)","(1225, 379)","(1221, 397)","(1217, 415)","(1213, 434)","(1193, 441)","(1202, 447)","(1213, 452)","(1225, 450)","(1237, 447)","(1160, 369)","(1174, 368)","(1188, 371)","(1200, 376)","(1185, 378)","(1171, 376)","(1257, 386)","(1273, 384)","(1287, 387)","(1300, 391)","(1286, 395)","(1271, 392)","(1175, 468)","(1188, 468)","(1202, 469)","(1212, 473)","(1223, 471)","(1239, 474)","(1257, 478)","(1238, 490)","(1222, 495)","(1210, 495)","(1199, 492)","(1187, 484)","(1182, 471)","(1201, 477)","(1211, 480)","(1222, 480)","(1248, 479)","(1223, 481)","(1212, 481)","(1202, 478)",0.18,0.95,34.0,0.38,0.15,0.38,0.01,-10.5,0.05,0.33,24.0,55.7,106.5,20.65,43.6,114.6,22.11,50.41,95.58
200,-196608,81,-56,-1,-1,0,"(1138, 339)","(1137, 369)","(1138, 397)","(1139, 424)","(1144, 452)","(1154, 479)","(1170, 503)","(1190, 522)","(1216, 530)","(1245, 529)","(1273, 518)","(1298, 501)","(1318, 479)","(1331, 453)","(1339, 426)","(1346, 398)","(1352, 368)","(1148, 334)","(1163, 328)","(1181, 332)","(1198, 341)","(1214, 353)","(1254, 360)","(1275, 352)","(1295, 349)","(1316, 351)","(1332, 360)","(1231, 375)","(1227, 392)","(1223, 410)","(1219, 428)","(1200, 436)","(1209, 441)","(1219, 445)","(1231, 444)","(1243, 441)","(1168, 366)","(1181, 366)","(1194, 368)","(1206, 373)","(1192, 375)","(1178, 373)","(1263, 382)","(1277, 380)","(1291, 382)","(1304, 386)","(1290, 390)","(1276, 388)","(1183, 462)","(1196, 462)","(1209, 462)","(1219, 465)","(1229, 464)","(1244, 467)","(1262, 471)","(1244, 483)","(1228, 487)","(1217, 487)","(1207, 484)","(1195, 477)","(1190, 464)","(1208, 470)","(1218, 472)","(1228, 472)","(1254, 471)","(1229, 474)","(1219, 474)","(1209, 472)",0.19,0.95,34.0,0.36,0.13,0.36,0.01,-9.5,0.05,0.34,26.0,57.8,107.0,20.85,43.55,114.55,20.35,48.23,90.76
233,0,81,-56,-1,-1,0,"(1145, 335)","(1144, 364)","(1144, 392)","(1145, 420)","(1150, 447)","(1160, 473)","(1176, 496)","(1195, 514)","(1219, 522)","(1246, 521)","(1272, 510)","(1297, 494)","(1316, 474)","(1329, 449)","(1338, 422)","(1346, 394)","(1352, 365)","(1156, 330)","(1171, 324)","(1188, 328)","(1205, 337)","(1220, 349)","(1258, 356)","(1277, 349)","(1297, 345)","(1317, 346)","(1333, 357)","(1236, 370)","(1232, 387)","(1229, 405)","(1225, 423)","(1207, 429)","(1215, 435)","(1225, 439)","(1236, 437)","(1248, 435)","(1175, 360)","(1187, 360)","(1200, 362)","(1211, 368)","(1198, 370)","(1185, 367)","(1266, 377)","(1280, 374)","(1293, 376)","(1306, 380)","(1292, 384)","(1278, 382)","(1190, 453)","(1203, 454)","(1215, 454)","(1224, 458)","(1234, 456)","(1248, 459)","(1264, 463)","(1247, 475)","(1232, 479)","(1222, 479)","(1212, 477)","(1201, 469)","(1196, 456)","(1214, 462)","(1223, 464)","(1233, 464)","(1257, 463)","(1233, 467)","(1224, 467)","(1214, 464)",0.2,0.92,34.0,0.36,0.14,0.35,0.02,-10.0,0.05,0.34,27.5,60.7,112.1,20.35,43.4,115.45,17.05,43.17,85.41
266,5505024,81,-56,-1,-1,0,"(1152, 331)","(1152, 359)","(1153, 386)","(1155, 413)","(1160, 439)","(1170, 465)","(1184, 488)","(1203, 506)","(1227, 514)","(1253, 513)","(1278, 502)","(1301, 485)","(1319, 465)","(1332, 440)","(1341, 414)","(1350, 387)","(1357, 359)","(1162, 327)","(1177, 322)","(1194, 327)","(1210, 336)","(1226, 347)","(1262, 353)","(1281, 346)","(1301, 343)","(1321, 343)","(1337, 352)","(1241, 364)","(1238, 382)","(1234, 400)","(1231, 418)","(1213, 423)","(1222, 428)","(1231, 433)","(1242, 431)","(1253, 428)","(1181, 355)","(1194, 354)","(1206, 356)","(1217, 362)","(1204, 364)","(1191, 362)","(1271, 370)","(1285, 367)","(1298, 369)","(1310, 373)","(1297, 378)","(1284, 376)","(1196, 445)","(1209, 446)","(1222, 447)","(1231, 451)","(1241, 449)","(1256, 451)","(1272, 454)","(1256, 466)","(1241, 472)","(1230, 472)","(1220, 469)","(1208, 461)","(1203, 448)","(1221, 454)","(1231, 457)","(1241, 456)","(1265, 455)","(1241, 459)","(1231, 459)","(1221, 457)",0.23,0.93,34.0,0.36,0.14,0.37,0.02,-10.5,0.05,0.36,24.6,56.5,107.0,20.75,43.6,113.55,17.82,42.58,83.0
300,-327680,81,-56,-1,-1,0,"(1164, 329)","(1163, 356)","(1164, 381)","(1167, 406)","(1172, 431)","(1181, 454)","(1195, 475)","(1212, 492)","(1234, 499)","(1258, 499)","(1282, 488)","(1303, 472)","(1320, 452)","(1333, 429)","(1340, 405)","(1347, 380)","(1352, 353)","(1170, 326)","(1185, 321)","(1201, 326)","(1217, 335)","(1231, 345)","(1266, 351)","(1285, 345)","(1303, 341)","(1322, 341)","(1338, 349)","(1246, 362)","(1243, 379)","(1240, 397)","(1237, 415)","(1219, 418)","(1227, 424)","(1237, 428)","(1248, 426)","(1258, 423)","(1188, 351)","(1199, 350)","(1211, 352)","(1222, 359)","(1209, 360)","(1197, 358)","(1276, 367)","(1289, 363)","(1302, 365)","(1314, 369)","(1301, 373)","(1288, 372)","(1203, 440)","(1216, 442)","(1228, 442)","(1236, 446)","(1246, 444)","(1260, 446)","(1276, 448)","(1260, 460)","(1246, 465)","(1235, 465)","(1226, 462)","(1214, 454)","(1210, 443)","(1227, 449)","(1236, 451)","(1245, 451)","(1269, 449)","(1246, 452)","(1237, 452)","(1227, 450)",0.22,0.92,34.0,0.38,0.13,0.38,0.02,-10.0,0.06,0.38,24.8,57.5,108.5,18.35,40.65,109.95,22.29,51.52,98.64
333,-327680,81,-56,-1,-1,0,"(1168, 325)","(1167, 351)","(1169, 376)","(1171, 401)","(1176, 425)","(1186, 448)","(1200, 468)","(1217, 486)","(1239, 493)","(1262, 492)","(1285, 480)","(1305, 464)","(1321, 445)","(1333, 423)","(1341, 399)","(1347, 375)","(1352, 349)","(1175, 323)","(1190, 320)","(1207, 326)","(1221, 334)","(1235, 344)","(1270, 350)","(1288, 344)","(1306, 341)","(1324, 340)","(1339, 348)","(1250, 361)","(1248, 378)","(1245, 395)","(1242, 413)","(1224, 415)","(1232, 421)","(1242, 425)","(1252, 423)","(1263, 420)","(1192, 348)","(1204, 348)","(1216, 350)","(1226, 357)","(1214, 358)","(1201, 356)","(1278, 365)","(1290, 361)","(1303, 363)","(1315, 367)","(1303, 372)","(1290, 370)","(1208, 434)","(1221, 437)","(1233, 438)","(1241, 442)","(1251, 440)","(1265, 442)","(1280, 442)","(1264, 455)","(1250, 460)","(1240, 460)","(1231, 458)","(1219, 450)","(1214, 438)","(1232, 445)","(1241, 447)","(1251, 447)","(1273, 443)","(1251, 448)","(1242, 448)","(1232, 446)",0.24,0.9,35.0,0.38,0.15,0.39,0.02,-10.5,0.07,0.39,32.3,61.2,109.8,19.75,41.05,107.9,22.7,51.17,95.11
366,-65536,81,-56,-1,-1,0,"(1172, 327)","(1171, 353)","(1173, 378)","(1175, 402)","(1179, 426)","(1189, 449)","(1203, 470)","(1220, 487)","(1242, 494)","(1265, 493)","(1287, 481)","(1306, 466)","(1321, 447)","(1332, 425)","(1339, 402)","(1346, 378)","(1351, 353)","(1179, 326)","(1194, 322)","(1210, 326)","(1225, 334)","(1239, 343)","(1276, 348)","(1293, 343)","(1310, 341)","(1327, 341)","(1340, 349)","(1255, 360)","(1252, 377)","(1250, 394)","(1247, 412)","(1228, 415)","(1237, 420)","(1246, 424)","(1257, 422)","(1267, 419)","(1197, 349)","(1209, 347)","(1221, 350)","(1231, 357)","(1219, 358)","(1206, 356)","(1281, 364)","(1293, 360)","(1306, 362)","(1317, 366)","(1306, 371)","(1293, 369)","(1211, 433)","(1224, 435)","(1237, 436)","(1246, 439)","(1255, 438)","(1268, 439)","(1283, 440)","(1268, 453)","(1254, 459)","(1244, 459)","(1235, 457)","(1223, 448)","(1218, 436)","(1236, 442)","(1245, 445)","(1255, 444)","(1276, 442)","(1255, 447)","(1246, 448)","(1236, 445)",0.24,0.87,35.0,0.39,0.14,0.4,0.02,-11.0,0.06,0.38,30.9,63.7,115.6,21.15,43.0,109.05,24.94,53.94,96.41
400,786432,81,-56,-1,-1,0,"(1177, 335)","(1175, 360)","(1176, 385)","(1176, 409)","(1179, 434)","(1188, 457)","(1203, 477)","(1223, 493)","(1245, 500)","(1269, 499)","(1293, 488)","(1314, 474)","(1329, 455)","(1338, 432)","(1344, 409)","(1350, 385)","(1354, 361)","(1186, 330)","(1199, 326)","(1214, 330)","(1227, 336)","(1241, 344)","(1280, 349)","(1296, 345)","(1312, 343)","(1328, 344)","(1341, 352)","(1257, 363)","(1255, 379)","(1252, 395)","(1249, 412)","(1231, 415)","(1240, 420)","(1249, 425)","(1259, 423)","(1269, 420)","(1202, 352)","(1213, 350)","(1225, 352)","(1234, 360)","(1223, 361)","(1211, 359)","(1283, 367)","(1295, 363)","(1307, 364)","(1318, 369)","(1307, 373)","(1295, 372)","(1214, 434)","(1227, 434)","(1240, 436)","(1249, 439)","(1259, 437)","(1273, 439)","(1287, 443)","(1273, 456)","(1259, 462)","(1248, 462)","(1238, 459)","(1225, 450)","(1220, 436)","(1239, 442)","(1248, 444)","(1258, 444)","(1281, 444)","(1259, 450)","(1249, 451)","(1239, 448)",0.25,0.9,35.0,0.38,0.14,0.41,0.03,-10.5,0.06,0.35,32.9,65.0,117.1,24.05,46.1,111.6,24.7,52.0,93.47
433,1769472,81,-56,-1,-1,0,"(1179, 341)","(1178, 366)","(1179, 390)","(1179, 413)","(1183, 437)","(1193, 459)","(1209, 477)","(1228, 492)","(1250, 499)","(1273, 497)","(1295, 486)","(1316, 473)","(1330, 454)","(1340, 432)","(1345, 410)","(1349, 386)","(1353, 362)","(1188, 335)","(1200, 330)","(1214, 331)","(1228, 336)","(1242, 345)","(1282, 349)","(1297, 344)","(1313, 343)","(1329, 345)","(1341, 353)","(1259, 366)","(1257, 382)","(1255, 398)","(1252, 414)","(1235, 417)","(1243, 422)","(1252, 426)","(1262, 424)","(1272, 422)","(1205, 356)","(1216, 354)","(1227, 356)","(1237, 363)","(1225, 364)","(1213, 362)","(1284, 370)","(1296, 365)","(1308, 366)","(1319, 371)","(1308, 375)","(1296, 374)","(1218, 434)","(1230, 435)","(1243, 436)","(1252, 439)","(1262, 438)","(1276, 439)","(1291, 443)","(1277, 456)","(1263, 462)","(1252, 462)","(1242, 460)","(1229, 451)","(1223, 437)","(1243, 443)","(1252, 445)","(1262, 444)","(1284, 443)","(1263, 451)","(1253, 452)","(1243, 449)",0.25,0.93,35.0,0.38,0.12,0.41,0.03,-10.0,0.07,0.36,34.5,68.8,125.0,24.65,47.35,112.65,25.88,55.23,99.0
466,983040,81,-56,-1,-1,0,"(1181, 343)","(1179, 368)","(1179, 391)","(1179, 414)","(1183, 437)","(1194, 457)","(1211, 474)","(1231, 488)","(1252, 495)","(1274, 493)","(1295, 482)","(1314, 469)","(1329, 451)","(1337, 430)","(1343, 408)","(1347, 386)","(1350, 363)","(1191, 339)","(1203, 334)","(1217, 335)","(1232, 339)","(1244, 348)","(1283, 352)","(1298, 346)","(1313, 345)","(1328, 348)","(1339, 356)","(1262, 369)","(1260, 385)","(1258, 400)","(1257, 416)","(1239, 418)","(1247, 424)","(1256, 428)","(1265, 426)","(1274, 423)","(1208, 360)","(1219, 358)","(1230, 359)","(1239, 367)","(1228, 367)","(1216, 366)","(1285, 372)","(1297, 367)","(1309, 368)","(1318, 373)","(1308, 377)","(1297, 376)","(1220, 434)","(1233, 436)","(1247, 438)","(1255, 440)","(1264, 439)","(1277, 440)","(1291, 441)","(1277, 454)","(1264, 460)","(1254, 460)","(1245, 458)","(1232, 450)","(1226, 436)","(1246, 443)","(1254, 445)","(1263, 445)","(1284, 442)","(1264, 450)","(1255, 450)","(1246, 448)",0.27,0.85,35.0,0.38,0.11,0.42,0.02,-9.5,0.07,0.37,35.7,69.6,125.8,21.45,43.75,107.65,26.23,55.52,99.76
500,196608,81,-56,-1,-1,0,"(1186, 351)","(1185, 373)","(1185, 395)","(1187, 416)","(1192, 437)","(1203, 457)","(1219, 472)","(1237, 485)","(1257, 490)","(1276, 487)","(1294, 476)","(1309, 462)","(1321, 445)","(1329, 427)","(1334, 408)","(1337, 389)","(1339, 369)","(1196, 346)","(1207, 340)","(1221, 340)","(1235, 345)","(1248, 353)","(1282, 356)","(1295, 350)","(1310, 349)","(1324, 351)","(1333, 359)","(1264, 372)","(1262, 386)","(1261, 401)","(1260, 415)","(1243, 419)","(1251, 423)","(1259, 427)","(1268, 425)","(1276, 422)","(1210, 364)","(1220, 360)","(1232, 362)","(1241, 370)","(1230, 371)","(1218, 370)","(1284, 374)","(1296, 368)","(1307, 369)","(1316, 374)","(1307, 378)","(1295, 378)","(1225, 437)","(1238, 437)","(1251, 438)","(1259, 440)","(1267, 439)","(1279, 439)","(1291, 440)","(1280, 453)","(1268, 460)","(1258, 461)","(1250, 459)","(1237, 452)","(1231, 439)","(1250, 444)","(1258, 445)","(1267, 444)","(1286, 441)","(1268, 450)","(1259, 451)","(1251, 449)",0.29,0.83,35.0,0.41,0.09,0.43,0.03,-10.5,0.07,0.36,35.3,69.1,124.6,19.8,41.9,106.35,25.88,56.88,104.23
533,262144,81,-56,-1,-1,0,"(1187, 352)","(1185, 375)","(1186, 396)","(1187, 418)","(1192, 438)","(1204, 457)","(1220, 472)","(1239, 484)","(1259, 489)","(1278, 485)","(1296, 474)","(1311, 461)","(1323, 445)","(1330, 427)","(1334, 408)","(1337, 390)","(1338, 370)","(1198, 347)","(1209, 341)","(1223, 341)","(1238, 345)","(1251, 354)","(1285, 357)","(1298, 351)","(1313, 349)","(1326, 352)","(1335, 360)","(1266, 374)","(1265, 388)","(1264, 401)","(1263, 415)","(1245, 420)","(1253, 424)","(1262, 427)","(1270, 425)","(1278, 422)","(1212, 366)","(1222, 363)","(1234, 365)","(1243, 372)","(1232, 373)","(1220, 372)","(1286, 376)","(1298, 370)","(1309, 371)","(1318, 376)","(1309, 380)","(1297, 379)","(1226, 436)","(1240, 437)","(1253, 438)","(1261, 440)","(1269, 438)","(1282, 439)","(1294, 439)","(1282, 452)","(1270, 458)","(1261, 459)","(1252, 457)","(1239, 450)","(1232, 438)","(1253, 444)","(1261, 445)","(1269, 444)","(1288, 440)","(1270, 449)","(1262, 450)","(1253, 448)",0.28,0.82,35.0,0.41,0.09,0.45,0.02,-10.0,0.07,0.35,33.9,67.3,122.8,19.8,42.0,106.05,27.11,56.0,102.76
566,458752,81,-56,-1,-1,0,"(1189, 354)","(1188, 376)","(1189, 397)","(1190, 417)","(1197, 437)","(1209, 455)","(1226, 469)","(1244, 482)","(1263, 487)","(1282, 483)","(1299, 472)","(1313, 459)","(1325, 443)","(1332, 426)","(1336, 407)","(1338, 389)","(1338, 369)","(1200, 347)","(1212, 342)","(1226, 342)","(1240, 347)","(1252, 355)","(1285, 357)","(1298, 351)","(1311, 349)","(1325, 351)","(1334, 358)","(1268, 374)","(1267, 388)","(1266, 402)","(1265, 417)","(1248, 419)","(1256, 424)","(1265, 428)","(1273, 425)","(1281, 422)","(1215, 366)","(1225, 363)","(1236, 365)","(1246, 372)","(1235, 373)","(1223, 371)","(1288, 376)","(1298, 369)","(1309, 369)","(1318, 374)","(1309, 378)","(1299, 378)","(1230, 433)","(1243, 435)","(1256, 436)","(1264, 438)","(1273, 437)","(1285, 437)","(1297, 437)","(1286, 450)","(1274, 457)","(1265, 458)","(1256, 456)","(1243, 449)","(1235, 435)","(1256, 441)","(1264, 443)","(1273, 442)","(1291, 438)","(1274, 448)","(1265, 449)","(1257, 447)",0.3,0.83,36.0,0.41,0.08,0.44,0.03,-9.5,0.08,0.38,31.0,64.2,121.6,21.5,44.05,106.2,24.58,53.23,99.76
600,262144,81,-56,-1,-1,0,"(1191, 355)","(1190, 376)","(1191, 397)","(1193, 418)","(1200, 437)","(1212, 454)","(1229, 468)","(1247, 480)","(1265, 484)","(1284, 481)","(1300, 470)","(1314, 457)","(1326, 441)","(1333, 424)","(1337, 406)","(1339, 387)","(1340, 367)","(1201, 348)","(1212, 342)","(1226, 342)","(1240, 345)","(1253, 353)","(1285, 356)","(1298, 350)","(1312, 348)","(1326, 350)","(1335, 357)","(1269, 372)","(1268, 386)","(1267, 400)","(1267, 414)","(1249, 418)","(1257, 422)","(1266, 425)","(1275, 423)","(1282, 420)","(1216, 365)","(1226, 362)","(1237, 364)","(1247, 371)","(1236, 372)","(1224, 371)","(1288, 374)","(1299, 367)","(1310, 367)","(1319, 372)","(1311, 377)","(1299, 376)","(1231, 432)","(1245, 434)","(1257, 435)","(1265, 437)","(1273, 435)","(1285, 435)","(1298, 435)","(1286, 448)","(1275, 454)","(1266, 455)","(1257, 454)","(1245, 447)","(1237, 434)","(1257, 440)","(1265, 441)","(1273, 440)","(1292, 436)","(1275, 446)","(1266, 446)","(1258, 445)",0.3,0.82,36.0,0.41,0.05,0.44,0.03,-10.0,0.08,0.37,32.0,66.0,121.8,21.4,43.5,106.4,26.05,55.94,104.17
633,0,81,-56,-1,-1,0,"(1188, 352)","(1188, 374)","(1189, 395)","(1191, 416)","(1198, 436)","(1211, 453)","(1228, 467)","(1246, 478)","(1265, 482)","(1283, 478)","(1299, 466)","(1313, 452)","(1323, 437)","(1331, 420)","(1335, 403)","(1337, 385)","(1337, 367)","(1202, 347)","(1213, 341)","(1227, 341)","(1241, 345)","(1253, 353)","(1286, 356)","(1299, 350)","(1312, 347)","(1325, 348)","(1333, 356)","(1269, 371)","(1268, 385)","(1268, 399)","(1268, 413)","(1250, 416)","(1258, 420)","(1267, 424)","(1275, 421)","(1283, 417)","(1217, 364)","(1226, 360)","(1237, 362)","(1247, 369)","(1236, 370)","(1225, 369)","(1288, 372)","(1299, 365)","(1309, 365)","(1318, 370)","(1310, 375)","(1299, 374)","(1231, 431)","(1245, 432)","(1258, 433)","(1266, 435)","(1274, 433)","(1285, 433)","(1297, 433)","(1286, 446)","(1275, 452)","(1266, 454)","(1258, 452)","(1245, 445)","(1237, 433)","(1258, 438)","(1266, 439)","(1274, 438)","(1291, 434)","(1275, 443)","(1267, 444)","(1259, 443)",0.31,0.78,36.0,0.4,0.05,0.44,0.03,-10.0,0.09,0.37,34.5,67.6,122.7,20.45,41.6,105.1,23.94,52.0,98.41
666,-131072,81,-56,-1,-1,0,"(1191, 350)","(1193, 373)","(1195, 394)","(1198, 415)","(1204, 435)","(1216, 453)","(1233, 467)","(1252, 479)","(1272, 484)","(1293, 481)","(1314, 469)","(1332, 455)","(1344, 438)","(1351, 417)","(1353, 397)","(1356, 376)","(1358, 354)","(1199, 342)","(1208, 336)","(1221, 335)","(1235, 339)","(1247, 346)","(1284, 348)","(1298, 341)","(1314, 339)","(1329, 342)","(1341, 350)","(1265, 368)","(1264, 381)","(1263, 394)","(1263, 408)","(1249, 414)","(1256, 418)","(1264, 421)","(1273, 419)","(1281, 416)","(1215, 363)","(1224, 359)","(1235, 360)","(1246, 368)","(1234, 370)","(1223, 368)","(1289, 371)","(1299, 364)","(1311, 364)","(1321, 369)","(1311, 373)","(1299, 374)","(1235, 431)","(1247, 431)","(1258, 431)","(1266, 433)","(1274, 431)","(1288, 432)","(1303, 433)","(1290, 446)","(1277, 451)","(1268, 452)","(1259, 451)","(1248, 445)","(1240, 433)","(1258, 437)","(1266, 438)","(1274, 437)","(1296, 434)","(1276, 443)","(1268, 443)","(1260, 442)",0.29,0.96,36.0,0.37,0.05,0.4,0.02,-10.0,0.09,0.34,32.3,65.8,121.1,20.5,41.85,104.55,29.58,60.82,106.88
700,0,81,-56,-1,-1,0,"(1188, 350)","(1188, 372)","(1189, 392)","(1191, 413)","(1197, 433)","(1209, 451)","(1225, 465)","(1243, 477)","(1262, 482)","(1281, 479)","(1298, 467)","(1313, 453)","(1325, 437)","(1332, 419)","(1336, 401)","(1339, 382)","(1340, 362)","(1199, 344)","(1210, 339)","(1224, 339)","(1238, 344)","(1250, 351)","(1282, 354)","(1296, 348)","(1309, 345)","(1323, 346)","(1333, 354)","(1265, 369)","(1264, 383)","(1264, 397)","(1263, 412)","(1246, 414)","(1254, 419)","(1263, 422)","(1271, 420)","(1279, 416)","(1213, 361)","(1223, 357)","(1234, 359)","(1244, 367)","(1233, 368)","(1221, 367)","(1286, 370)","(1297, 363)","(1308, 363)","(1317, 368)","(1308, 373)","(1297, 372)","(1229, 429)","(1242, 431)","(1254, 431)","(1262, 434)","(1271, 432)","(1283, 432)","(1295, 432)","(1284, 445)","(1272, 452)","(1263, 453)","(1254, 451)","(1242, 444)","(1235, 431)","(1254, 437)","(1262, 438)","(1271, 437)","(1290, 433)","(1272, 442)","(1263, 443)","(1255, 442)",0.3,0.84,36.0,0.41,0.06,0.43,0.03,-10.5,0.09,0.38,34.5,68.9,124.7,20.7,43.4,105.55,24.58,55.35,101.76
733,-65536,81,-56,-1,-1,0,"(1187, 347)","(1187, 369)","(1188, 391)","(1191, 412)","(1196, 432)","(1208, 450)","(1223, 466)","(1241, 478)","(1261, 483)","(1280, 479)","(1297, 467)","(1311, 453)","(1322, 437)","(1330, 418)","(1335, 399)","(1338, 380)","(1339, 360)","(1196, 344)","(1207, 339)","(1221, 340)","(1235, 345)","(1248, 352)","(1281, 355)","(1294, 349)","(1308, 347)","(1322, 347)","(1332, 354)","(1264, 369)","(1263, 384)","(1262, 399)","(1261, 414)","(1244, 416)","(1252, 420)","(1261, 424)","(1270, 421)","(1278, 417)","(1211, 360)","(1221, 357)","(1232, 359)","(1242, 366)","(1231, 368)","(1219, 366)","(1284, 369)","(1295, 363)","(1306, 363)","(1316, 368)","(1307, 372)","(1295, 372)","(1227, 430)","(1240, 432)","(1253, 433)","(1261, 435)","(1269, 433)","(1281, 433)","(1294, 433)","(1282, 446)","(1270, 453)","(1261, 454)","(1252, 452)","(1240, 445)","(1233, 432)","(1252, 438)","(1261, 439)","(1269, 438)","(1288, 434)","(1270, 443)","(1262, 444)","(1253, 443)",0.28,0.83,36.0,0.41,0.06,0.44,0.03,-10.0,0.09,0.39,34.0,68.5,123.9,20.8,43.05,106.75,28.82,57.29,103.29
766,-327680,81,-56,-1,-1,0,"(1184, 346)","(1184, 368)","(1187, 389)","(1190, 410)","(1196, 430)","(1207, 449)","(1222, 465)","(1239, 479)","(1258, 484)","(1277, 480)","(1294, 468)","(1309, 454)","(1321, 437)","(1329, 419)","(1334, 399)","(1337, 380)","(1338, 359)","(1193, 345)","(1204, 340)","(1218, 341)","(1232, 346)","(1245, 353)","(1280, 356)","(1293, 350)","(1308, 347)","(1322, 347)","(1333, 354)","(1261, 370)","(1260, 385)","(1259, 401)","(1259, 416)","(1241, 417)","(1249, 422)","(1258, 426)","(1267, 423)","(1276, 419)","(1208, 362)","(1218, 359)","(1230, 360)","(1239, 368)","(1228, 369)","(1216, 368)","(1283, 371)","(1294, 364)","(1306, 365)","(1315, 369)","(1306, 374)","(1294, 374)","(1225, 431)","(1237, 434)","(1250, 435)","(1258, 437)","(1266, 435)","(1279, 435)","(1292, 434)","(1280, 449)","(1268, 457)","(1258, 458)","(1249, 456)","(1237, 448)","(1230, 434)","(1250, 440)","(1258, 441)","(1266, 440)","(1286, 436)","(1268, 447)","(1259, 448)","(1250, 446)",0.29,0.87,36.0,0.41,0.05,0.43,0.04,-10.0,0.09,0.4,34.4,69.0,122.5,21.2,43.85,107.75,26.76,58.29,106.7
800,-262144,81,-56,-1,-1,0,"(1181, 348)","(1181, 370)","(1182, 392)","(1186, 412)","(1192, 433)","(1204, 451)","(1219, 467)","(1236, 480)","(1255, 485)","(1274, 482)","(1291, 470)","(1307, 455)","(1319, 439)","(1327, 421)","(1332, 402)","(1335, 382)","(1337, 362)","(1190, 346)","(1201, 341)","(1215, 342)","(1230, 346)","(1243, 354)","(1276, 356)","(1290, 350)","(1305, 348)","(1320, 349)","(1331, 356)","(1258, 373)","(1257, 386)","(1256, 400)","(1255, 415)","(1238, 419)","(1246, 423)","(1255, 426)","(1264, 424)","(1272, 421)","(1205, 365)","(1215, 362)","(1227, 363)","(1236, 370)","(1225, 372)","(1213, 371)","(1280, 373)","(1291, 368)","(1303, 368)","(1312, 372)","(1303, 377)","(1291, 377)","(1223, 436)","(1235, 437)","(1247, 437)","(1255, 439)","(1263, 437)","(1275, 438)","(1287, 438)","(1276, 452)","(1264, 458)","(1255, 459)","(1247, 458)","(1235, 451)","(1229, 438)","(1247, 443)","(1255, 444)","(1263, 443)","(1281, 439)","(1264, 448)","(1256, 449)","(1248, 448)",0.28,0.86,36.0,0.4,0.07,0.41,0.03,-9.5,0.08,0.37,35.1,69.2,124.9,22.7,44.55,108.7,28.35,58.76,105.82
833,3080192,81,-56,-1,-1,0,"(1176, 353)","(1176, 376)","(1178, 398)","(1181, 420)","(1188, 441)","(1200, 461)","(1216, 478)","(1234, 492)","(1254, 497)","(1274, 494)","(1293, 481)","(1309, 466)","(1321, 447)","(1329, 427)","(1334, 406)","(1337, 385)","(1339, 362)","(1185, 351)","(1198, 348)","(1212, 351)","(1226, 357)","(1239, 364)","(1271, 367)","(1286, 361)","(1301, 358)","(1316, 357)","(1329, 362)","(1254, 378)","(1253, 393)","(1252, 409)","(1251, 425)","(1233, 426)","(1242, 431)","(1251, 435)","(1261, 432)","(1270, 428)","(1201, 368)","(1211, 366)","(1222, 367)","(1232, 375)","(1220, 376)","(1209, 375)","(1277, 378)","(1288, 373)","(1300, 373)","(1310, 377)","(1300, 382)","(1289, 382)","(1219, 442)","(1231, 443)","(1243, 444)","(1252, 446)","(1261, 444)","(1274, 445)","(1288, 446)","(1276, 461)","(1263, 467)","(1253, 468)","(1243, 466)","(1231, 458)","(1225, 445)","(1243, 449)","(1252, 451)","(1261, 450)","(1282, 447)","(1262, 456)","(1253, 457)","(1244, 455)",0.27,0.91,36.0,0.39,0.07,0.42,0.03,-9.5,0.09,0.39,31.1,61.3,116.0,22.45,45.5,108.5,29.58,60.29,105.17
866,-851968,83,-56,-1,-1,0,"(1169, 358)","(1169, 381)","(1171, 403)","(1174, 425)","(1180, 446)","(1192, 465)","(1208, 481)","(1227, 495)","(1247, 499)","(1266, 496)","(1283, 483)","(1298, 467)","(1309, 450)","(1317, 431)","(1322, 411)","(1326, 392)","(1327, 371)","(1179, 356)","(1192, 352)","(1207, 354)","(1222, 359)","(1235, 367)","(1268, 369)","(1281, 364)","(1296, 361)","(1310, 360)","(1322, 366)","(1251, 382)","(1250, 397)","(1249, 412)","(1248, 428)","(1230, 430)","(1239, 434)","(1248, 438)","(1257, 436)","(1265, 432)","(1196, 373)","(1206, 370)","(1218, 371)","(1227, 379)","(1216, 380)","(1204, 379)","(1272, 382)","(1283, 376)","(1295, 376)","(1304, 380)","(1295, 385)","(1283, 385)","(1213, 446)","(1226, 448)","(1239, 449)","(1247, 451)","(1256, 449)","(1268, 449)","(1280, 448)","(1269, 462)","(1257, 469)","(1248, 471)","(1239, 469)","(1226, 462)","(1219, 448)","(1239, 454)","(1247, 455)","(1256, 454)","(1275, 450)","(1257, 459)","(1248, 461)","(1240, 459)",0.28,0.82,36.0,0.4,0.06,0.42,0.03,-9.5,0.08,0.39,32.7,65.1,119.5,21.9,43.9,108.1,28.7,57.64,103.58
900,-851968,83,-56,-1,-1,0,"(1164, 361)","(1166, 386)","(1169, 409)","(1173, 431)","(1180, 453)","(1192, 473)","(1208, 489)","(1227, 504)","(1248, 509)","(1270, 506)","(1290, 493)","(1308, 477)","(1321, 457)","(1329, 435)","(1332, 412)","(1336, 389)","(1338, 365)","(1173, 359)","(1185, 354)","(1199, 357)","(1213, 361)","(1226, 369)","(1264, 371)","(1279, 364)","(1294, 361)","(1310, 361)","(1323, 367)","(1244, 386)","(1243, 402)","(1243, 418)","(1242, 434)","(1225, 436)","(1233, 441)","(1242, 445)","(1252, 442)","(1261, 438)","(1191, 378)","(1201, 375)","(1212, 376)","(1222, 384)","(1211, 386)","(1199, 384)","(1269, 387)","(1280, 381)","(1292, 381)","(1303, 385)","(1293, 390)","(1280, 390)","(1209, 452)","(1222, 454)","(1234, 455)","(1243, 457)","(1252, 455)","(1266, 455)","(1280, 455)","(1268, 471)","(1254, 478)","(1244, 479)","(1235, 477)","(1222, 469)","(1215, 455)","(1234, 460)","(1243, 461)","(1252, 460)","(1274, 457)","(1254, 468)","(1244, 469)","(1235, 467)",0.26,0.91,36.0,0.37,0.05,0.4,0.04,-10.0,0.09,0.39,34.3,68.6,123.6,23.0,47.1,110.85,32.35,64.35,109.94
933,-655360,83,-56,-1,-1,0,"(1157, 364)","(1158, 388)","(1160, 412)","(1163, 434)","(1170, 456)","(1183, 475)","(1200, 491)","(1220, 506)","(1240, 511)","(1261, 507)","(1280, 494)","(1297, 478)","(1310, 460)","(1318, 439)","(1323, 418)","(1327, 396)","(1328, 373)","(1167, 361)","(1179, 356)","(1194, 358)","(1208, 362)","(1221, 370)","(1260, 372)","(1274, 365)","(1289, 362)","(1305, 362)","(1317, 368)","(1240, 390)","(1239, 406)","(1238, 421)","(1238, 437)","(1221, 441)","(1229, 445)","(1238, 448)","(1247, 446)","(1255, 442)","(1184, 382)","(1195, 379)","(1207, 380)","(1218, 388)","(1206, 390)","(1193, 388)","(1264, 391)","(1275, 384)","(1288, 384)","(1298, 388)","(1288, 394)","(1276, 394)","(1205, 457)","(1218, 458)","(1230, 458)","(1238, 461)","(1247, 458)","(1259, 459)","(1273, 459)","(1261, 473)","(1249, 480)","(1240, 482)","(1231, 480)","(1218, 473)","(1212, 459)","(1230, 464)","(1238, 466)","(1247, 465)","(1266, 461)","(1249, 470)","(1240, 471)","(1232, 469)",0.29,0.86,36.0,0.4,0.04,0.39,0.03,-10.5,0.08,0.38,35.9,71.1,125.8,23.05,45.9,110.65,28.52,59.11,104.05
966,-262144,83,-56,-1,-1,0,"(1153, 370)","(1153, 394)","(1156, 417)","(1160, 439)","(1167, 461)","(1180, 480)","(1197, 497)","(1216, 511)","(1237, 516)","(1257, 512)","(1277, 500)","(1294, 484)","(1307, 465)","(1315, 444)","(1320, 422)","(1323, 401)","(1325, 378)","(1161, 364)","(1173, 359)","(1187, 359)","(1202, 363)","(1215, 371)","(1253, 373)","(1268, 366)","(1284, 363)","(1300, 365)","(1312, 372)","(1234, 394)","(1233, 408)","(1232, 423)","(1231, 438)","(1215, 444)","(1223, 448)","(1232, 451)","(1241, 449)","(1250, 445)","(1178, 386)","(1189, 382)","(1202, 384)","(1212, 392)","(1200, 394)","(1187, 393)","(1258, 394)","(1270, 388)","(1282, 388)","(1293, 393)","(1283, 398)","(1270, 398)","(1202, 464)","(1214, 464)","(1226, 463)","(1233, 465)","(1241, 463)","(1254, 464)","(1268, 465)","(1256, 480)","(1244, 487)","(1235, 488)","(1226, 486)","(1214, 479)","(1208, 466)","(1226, 470)","(1233, 471)","(1241, 470)","(1262, 466)","(1243, 476)","(1235, 477)","(1227, 476)",0.28,0.92,35.0,0.4,0.05,0.38,0.03,-11.0,0.09,0.36,32.4,70.4,127.9,22.3,45.0,112.85,26.52,58.94,106.0
1000,786432,83,-56,-1,-1,0,"(1144, 372)","(1146, 398)","(1150, 422)","(1153, 446)","(1161, 469)","(1175, 488)","(1192, 505)","(1212, 519)","(1234, 524)","(1255, 520)","(1276, 506)","(1293, 490)","(1307, 470)","(1315, 448)","(1319, 425)","(1323, 401)","(1325, 377)","(1153, 371)","(1166, 367)","(1181, 370)","(1196, 375)","(1210, 382)","(1248, 384)","(1263, 378)","(1279, 375)","(1296, 374)","(1310, 380)","(1228, 399)","(1228, 415)","(1227, 431)","(1226, 447)","(1208, 450)","(1217, 455)","(1227, 458)","(1237, 455)","(1246, 452)","(1172, 390)","(1183, 387)","(1195, 389)","(1205, 396)","(1193, 398)","(1181, 397)","(1254, 399)","(1265, 393)","(1278, 393)","(1289, 397)","(1279, 402)","(1266, 402)","(1194, 468)","(1206, 469)","(1219, 469)","(1228, 471)","(1237, 469)","(1251, 469)","(1266, 469)","(1253, 485)","(1240, 492)","(1230, 493)","(1220, 491)","(1207, 484)","(1200, 470)","(1219, 475)","(1228, 476)","(1237, 475)","(1260, 471)","(1239, 481)","(1230, 482)","(1221, 481)",0.25,0.92,35.0,0.37,0.06,0.39,0.03,-10.0,0.09,0.38,30.2,65.9,121.8,21.6,46.2,113.75,27.35,58.52,104.88
1033,1114112,83,-56,-1,-1,0,"(1139, 375)","(1141, 401)","(1145, 425)","(1150, 448)","(1158, 471)","(1171, 490)","(1188, 507)","(1207, 522)","(1228, 528)","(1250, 524)","(1271, 511)","(1289, 494)","(1304, 474)","(1312, 451)","(1316, 428)","(1320, 403)","(1322, 378)","(1145, 374)","(1158, 369)","(1173, 372)","(1188, 377)","(1202, 384)","(1242, 386)","(1258, 379)","(1275, 376)","(1292, 375)","(1307, 381)","(1221, 402)","(1221, 418)","(1220, 435)","(1219, 452)","(1203, 454)","(1211, 459)","(1221, 463)","(1231, 460)","(1240, 456)","(1164, 393)","(1175, 390)","(1188, 391)","(1198, 399)","(1186, 402)","(1173, 400)","(1249, 402)","(1260, 395)","(1273, 395)","(1285, 399)","(1274, 405)","(1261, 405)","(1190, 473)","(1202, 474)","(1214, 474)","(1223, 477)","(1232, 474)","(1246, 474)","(1262, 474)","(1249, 489)","(1235, 496)","(1225, 497)","(1215, 495)","(1203, 488)","(1197, 475)","(1214, 480)","(1223, 481)","(1233, 480)","(1255, 476)","(1234, 485)","(1225, 486)","(1215, 484)",0.27,0.95,35.0,0.38,0.04,0.39,0.03,-11.0,0.1,0.39,32.5,67.5,125.3,21.4,44.75,110.9,27.82,59.82,107.58
1066,-65536,83,-56,-1,-1,0,"(1130, 378)","(1131, 405)","(1134, 430)","(1137, 454)","(1145, 478)","(1159, 499)","(1178, 516)","(1198, 531)","(1221, 536)","(1243, 532)","(1263, 517)","(1281, 500)","(1295, 479)","(1303, 456)","(1307, 433)","(1311, 409)","(1312, 385)","(1138, 377)","(1151, 372)","(1166, 373)","(1182, 378)","(1197, 386)","(1237, 387)","(1253, 381)","(1269, 378)","(1286, 377)","(1300, 384)","(1216, 405)","(1215, 421)","(1215, 438)","(1214, 455)","(1196, 459)","(1205, 464)","(1215, 467)","(1225, 464)","(1234, 460)","(1158, 397)","(1169, 393)","(1182, 394)","(1193, 402)","(1180, 404)","(1167, 403)","(1242, 405)","(1254, 398)","(1267, 398)","(1279, 403)","(1268, 408)","(1255, 408)","(1181, 477)","(1194, 479)","(1207, 479)","(1216, 481)","(1225, 479)","(1240, 478)","(1254, 478)","(1242, 494)","(1229, 501)","(1218, 503)","(1208, 501)","(1195, 494)","(1187, 479)","(1207, 485)","(1216, 486)","(1226, 485)","(1248, 480)","(1228, 490)","(1218, 492)","(1209, 490)",0.27,0.91,35.0,0.39,0.05,0.4,0.03,-10.5,0.09,0.38,32.7,69.7,127.5,20.95,45.9,113.65,28.88,61.41,107.94
1100,-327680,83,-56,-1,-1,0,"(1124, 379)","(1125, 406)","(1129, 431)","(1132, 455)","(1139, 479)","(1153, 500)","(1171, 517)","(1191, 533)","(1214, 538)","(1237, 534)","(1258, 520)","(1276, 502)","(1291, 481)","(1299, 458)","(1304, 435)","(1307, 410)","(1308, 384)","(1130, 379)","(1143, 374)","(1158, 375)","(1174, 379)","(1189, 387)","(1231, 388)","(1247, 381)","(1265, 378)","(1282, 378)","(1296, 385)","(1210, 408)","(1209, 425)","(1208, 442)","(1207, 460)","(1189, 464)","(1198, 469)","(1208, 472)","(1218, 469)","(1228, 465)","(1150, 400)","(1161, 397)","(1175, 398)","(1186, 406)","(1173, 409)","(1159, 407)","(1237, 408)","(1249, 402)","(1263, 402)","(1274, 406)","(1263, 412)","(1249, 412)","(1175, 482)","(1188, 485)","(1201, 485)","(1209, 487)","(1219, 485)","(1233, 485)","(1248, 483)","(1235, 499)","(1221, 506)","(1211, 508)","(1201, 506)","(1188, 498)","(1182, 485)","(1200, 491)","(1210, 492)","(1219, 491)","(1241, 485)","(1220, 495)","(1211, 496)","(1202, 495)",0.26,0.9,35.0,0.39,0.04,0.39,0.02,-11.0,0.09,0.4,34.0,71.9,129.2,19.75,44.2,112.45,27.41,61.41,111.0
1133,-393216,83,-56,-1,-1,0,"(1119, 385)","(1120, 412)","(1124, 436)","(1129, 460)","(1137, 483)","(1150, 504)","(1168, 521)","(1186, 536)","(1208, 541)","(1229, 537)","(1249, 524)","(1268, 507)","(1283, 486)","(1292, 464)","(1297, 440)","(1300, 415)","(1301, 389)","(1124, 385)","(1136, 378)","(1152, 378)","(1168, 383)","(1183, 390)","(1222, 391)","(1239, 384)","(1256, 380)","(1274, 381)","(1288, 389)","(1203, 411)","(1202, 429)","(1201, 446)","(1201, 464)","(1183, 468)","(1192, 473)","(1202, 476)","(1212, 473)","(1222, 469)","(1143, 404)","(1154, 401)","(1167, 402)","(1179, 409)","(1166, 412)","(1152, 411)","(1230, 411)","(1242, 404)","(1256, 404)","(1267, 409)","(1256, 415)","(1243, 415)","(1171, 489)","(1183, 490)","(1195, 490)","(1203, 492)","(1212, 490)","(1226, 490)","(1240, 489)","(1227, 503)","(1214, 510)","(1204, 511)","(1195, 510)","(1183, 503)","(1177, 491)","(1195, 496)","(1203, 497)","(1212, 496)","(1234, 490)","(1213, 499)","(1204, 500)","(1195, 499)",0.29,0.92,35.0,0.4,0.02,0.37,0.02,-11.0,0.1,0.4,35.6,73.2,130.5,20.3,44.7,113.05,29.64,62.82,114.7
1166,-131072,83,-56,-1,-1,0,"(1102, 385)","(1105, 414)","(1111, 441)","(1116, 467)","(1124, 492)","(1138, 514)","(1157, 534)","(1178, 550)","(1201, 555)","(1225, 551)","(1247, 536)","(1267, 517)","(1283, 496)","(1293, 471)","(1299, 445)","(1304, 419)","(1307, 391)","(1112, 386)","(1126, 381)","(1143, 383)","(1160, 388)","(1176, 397)","(1219, 398)","(1236, 391)","(1254, 388)","(1273, 387)","(1288, 395)","(1197, 415)","(1196, 433)","(1195, 452)","(1194, 470)","(1176, 473)","(1185, 479)","(1196, 483)","(1207, 480)","(1217, 476)","(1135, 407)","(1148, 405)","(1161, 406)","(1172, 412)","(1160, 415)","(1146, 414)","(1226, 415)","(1239, 410)","(1253, 410)","(1265, 414)","(1254, 420)","(1240, 419)","(1161, 493)","(1174, 496)","(1188, 496)","(1197, 499)","(1206, 497)","(1221, 496)","(1237, 495)","(1222, 510)","(1208, 518)","(1198, 519)","(1188, 517)","(1174, 509)","(1168, 496)","(1188, 502)","(1197, 503)","(1207, 502)","(1229, 497)","(1207, 506)","(1198, 507)","(1188, 506)",0.24,0.9,35.0,0.37,0.06,0.37,0.02,-10.0,0.09,0.39,33.6,68.2,123.8,20.9,45.25,115.2,25.17,55.05,101.35
1200,-327680,83,-56,-1,-1,0,"(1098, 389)","(1100, 419)","(1105, 446)","(1110, 471)","(1118, 497)","(1132, 520)","(1151, 539)","(1173, 555)","(1197, 560)","(1222, 556)","(1245, 541)","(1266, 522)","(1281, 499)","(1291, 474)","(1295, 447)","(1299, 420)","(1301, 392)","(1105, 389)","(1119, 384)","(1135, 387)","(1152, 392)","(1168, 401)","(1211, 403)","(1228, 396)","(1246, 392)","(1265, 391)","(1282, 397)","(1189, 420)","(1188, 438)","(1187, 457)","(1186, 476)","(1169, 480)","(1178, 485)","(1188, 489)","(1199, 486)","(1210, 482)","(1127, 411)","(1139, 409)","(1153, 410)","(1164, 417)","(1151, 419)","(1138, 418)","(1220, 420)","(1232, 414)","(1246, 414)","(1259, 418)","(1247, 424)","(1233, 424)","(1155, 500)","(1168, 502)","(1181, 503)","(1190, 505)","(1199, 503)","(1214, 503)","(1230, 502)","(1216, 517)","(1202, 524)","(1192, 525)","(1181, 523)","(1168, 515)","(1162, 502)","(1181, 509)","(1190, 510)","(1200, 509)","(1223, 504)","(1201, 512)","(1191, 513)","(1182, 511)",0.25,0.93,35.0,0.37,0.05,0.36,0.02,-10.0,0.1,0.4,31.3,67.7,123.2,20.95,44.95,114.75,25.41,56.11,103.47
1233,-458752,83,-56,-1,-1,0,"(1090, 392)","(1092, 422)","(1097, 450)","(1103, 477)","(1110, 503)","(1125, 527)","(1144, 548)","(1165, 567)","(1190, 573)","(1216, 569)","(1240, 552)","(1261, 532)","(1277, 508)","(1287, 481)","(1292, 454)","(1297, 425)","(1299, 396)","(1098, 392)","(1112, 387)","(1128, 390)","(1145, 395)","(1162, 404)","(1205, 406)","(1224, 398)","(1243, 394)","(1262, 394)","(1278, 401)","(1183, 424)","(1182, 443)","(1181, 462)","(1180, 482)","(1161, 486)","(1171, 491)","(1182, 495)","(1193, 492)","(1204, 488)","(1120, 416)","(1132, 414)","(1146, 415)","(1158, 422)","(1144, 424)","(1130, 423)","(1214, 425)","(1227, 419)","(1241, 420)","(1254, 423)","(1242, 430)","(1227, 429)","(1148, 508)","(1161, 509)","(1174, 509)","(1184, 512)","(1193, 509)","(1209, 509)","(1225, 509)","(1211, 527)","(1196, 536)","(1185, 537)","(1175, 535)","(1161, 526)","(1155, 510)","(1174, 516)","(1184, 517)","(1194, 516)","(1217, 511)","(1196, 522)","(1185, 524)","(1175, 522)",0.25,0.95,35.0,0.37,0.05,0.36,0.03,-10.5,0.1,0.38,33.4,68.0,124.6,20.75,47.15,116.55,26.41,57.47,103.05
1266,-524288,83,-56,-1,-1,0,"(1082, 396)","(1084, 427)","(1089, 455)","(1094, 482)","(1102, 509)","(1116, 533)","(1136, 553)","(1158, 571)","(1183, 576)","(1209, 572)","(1234, 556)","(1256, 536)","(1273, 513)","(1283, 486)","(1288, 459)","(1293, 431)","(1295, 402)","(1090, 396)","(1103, 389)","(1120, 389)","(1138, 394)","(1155, 403)","(1201, 404)","(1220, 397)","(1240, 393)","(1260, 394)","(1277, 403)","(1177, 427)","(1176, 446)","(1174, 465)","(1173, 484)","(1155, 491)","(1164, 496)","(1175, 500)","(1186, 497)","(1197, 493)","(1112, 420)","(1124, 418)","(1139, 419)","(1151, 426)","(1137, 429)","(1122, 428)","(1209, 429)","(1222, 423)","(1237, 423)","(1251, 427)","(1238, 434)","(1223, 434)","(1141, 514)","(1154, 515)","(1167, 515)","(1177, 518)","(1186, 515)","(1202, 516)","(1219, 516)","(1203, 532)","(1189, 539)","(1178, 540)","(1167, 538)","(1154, 530)","(1148, 516)","(1167, 522)","(1177, 524)","(1187, 522)","(1210, 517)","(1188, 526)","(1178, 527)","(1168, 526)",0.26,0.95,34.0,0.38,0.04,0.36,0.02,-11.0,0.09,0.38,35.6,73.2,129.2,22.25,47.45,117.05,25.88,57.76,104.17
1300,-524288,83,-56,-1,-1,0,"(1071, 404)","(1072, 435)","(1076, 464)","(1081, 493)","(1089, 521)","(1103, 548)","(1123, 569)","(1147, 587)","(1174, 592)","(1202, 587)","(1227, 571)","(1248, 550)","(1263, 526)","(1272, 500)","(1277, 472)","(1281, 445)","(1282, 417)","(1081, 398)","(1094, 390)","(1113, 389)","(1133, 394)","(1151, 405)","(1195, 408)","(1214, 399)","(1234, 396)","(1255, 398)","(1270, 409)","(1172, 431)","(1170, 449)","(1169, 468)","(1167, 488)","(1147, 496)","(1157, 501)","(1168, 505)","(1180, 502)","(1191, 498)","(1103, 425)","(1117, 423)","(1131, 424)","(1144, 430)","(1129, 433)","(1115, 432)","(1203, 435)","(1218, 430)","(1232, 431)","(1245, 434)","(1232, 440)","(1217, 439)","(1130, 522)","(1145, 522)","(1160, 521)","(1170, 524)","(1181, 521)","(1197, 523)","(1213, 525)","(1199, 542)","(1184, 550)","(1172, 551)","(1160, 549)","(1146, 541)","(1138, 524)","(1160, 529)","(1170, 531)","(1181, 529)","(1206, 526)","(1183, 536)","(1172, 537)","(1161, 535)",0.21,0.9,34.0,0.39,0.05,0.39,0.03,-10.0,0.09,0.35,37.5,76.2,133.0,22.05,49.0,117.4,27.88,59.88,105.41
1333,-327680,83,-56,-1,-1,0,"(1063, 410)","(1064, 442)","(1070, 473)","(1075, 502)","(1083, 531)","(1097, 558)","(1118, 581)","(1141, 600)","(1169, 606)","(1198, 602)","(1224, 585)","(1245, 563)","(1261, 537)","(1271, 508)","(1277, 479)","(1281, 448)","(1284, 417)","(1071, 402)","(1088, 397)","(1107, 401)","(1125, 410)","(1142, 420)","(1185, 424)","(1205, 415)","(1225, 409)","(1247, 407)","(1265, 414)","(1164, 439)","(1162, 459)","(1161, 479)","(1160, 500)","(1140, 506)","(1150, 512)","(1162, 516)","(1173, 513)","(1185, 509)","(1096, 431)","(1109, 429)","(1123, 431)","(1136, 437)","(1121, 440)","(1107, 439)","(1196, 442)","(1210, 437)","(1225, 437)","(1239, 441)","(1226, 447)","(1211, 446)","(1125, 533)","(1138, 532)","(1153, 531)","(1164, 535)","(1175, 532)","(1191, 534)","(1209, 537)","(1193, 554)","(1178, 562)","(1165, 563)","(1153, 561)","(1139, 551)","(1133, 536)","(1153, 540)","(1164, 542)","(1175, 541)","(1200, 538)","(1177, 546)","(1166, 548)","(1154, 545)",0.22,0.95,35.0,0.37,0.06,0.38,0.03,-10.5,0.09,0.36,29.1,64.9,117.3,21.6,48.2,117.4,27.29,59.64,104.17
1366,-65536,82,-56,-1,-1,0,"(1050, 417)","(1052, 451)","(1058, 483)","(1064, 513)","(1073, 543)","(1089, 571)","(1111, 595)","(1135, 614)","(1163, 621)","(1192, 618)","(1221, 602)","(1245, 581)","(1263, 555)","(1274, 526)","(1280, 496)","(1285, 464)","(1288, 430)","(1062, 409)","(1077, 401)","(1096, 402)","(1115, 408)","(1133, 418)","(1182, 421)","(1203, 413)","(1224, 411)","(1245, 413)","(1262, 424)","(1156, 445)","(1155, 465)","(1153, 485)","(1151, 506)","(1131, 514)","(1141, 520)","(1153, 524)","(1165, 521)","(1177, 518)","(1088, 438)","(1101, 436)","(1116, 438)","(1129, 444)","(1114, 447)","(1099, 446)","(1190, 450)","(1205, 445)","(1220, 447)","(1235, 451)","(1220, 457)","(1205, 456)","(1119, 544)","(1131, 541)","(1145, 540)","(1155, 543)","(1166, 541)","(1183, 544)","(1200, 549)","(1184, 566)","(1169, 572)","(1157, 573)","(1145, 570)","(1132, 561)","(1127, 546)","(1145, 549)","(1155, 551)","(1166, 550)","(1191, 550)","(1168, 557)","(1157, 558)","(1146, 556)",0.23,1.0,35.0,0.36,0.08,0.34,0.02,-11.5,0.08,0.34,35.9,73.3,129.7,22.0,48.7,118.4,26.7,58.23,102.7
1400,-458752,82,-56,-1,-1,0,"(1044, 422)","(1046, 456)","(1052, 486)","(1057, 516)","(1064, 547)","(1079, 576)","(1099, 600)","(1122, 620)","(1151, 628)","(1181, 625)","(1210, 609)","(1235, 587)","(1253, 561)","(1265, 531)","(1271, 501)","(1277, 470)","(1281, 436)","(1055, 415)","(1069, 406)","(1089, 406)","(1108, 412)","(1127, 423)","(1178, 426)","(1199, 418)","(1222, 416)","(1243, 419)","(1261, 430)","(1150, 452)","(1148, 473)","(1146, 493)","(1144, 514)","(1123, 523)","(1133, 529)","(1145, 533)","(1157, 530)","(1170, 527)","(1079, 445)","(1093, 444)","(1109, 445)","(1122, 452)","(1107, 455)","(1091, 453)","(1185, 458)","(1201, 453)","(1217, 454)","(1232, 459)","(1217, 465)","(1200, 464)","(1108, 552)","(1122, 552)","(1137, 551)","(1147, 554)","(1157, 552)","(1174, 554)","(1192, 558)","(1175, 574)","(1159, 581)","(1147, 582)","(1136, 579)","(1122, 570)","(1117, 554)","(1136, 560)","(1146, 562)","(1157, 561)","(1183, 559)","(1159, 567)","(1148, 567)","(1137, 565)",0.23,0.95,35.0,0.38,0.07,0.35,0.02,-11.5,0.08,0.35,37.3,75.3,132.4,22.4,48.7,118.55,26.05,58.0,103.0
1433,-327680,82,-56,-1,-1,0,"(1039, 426)","(1040, 460)","(1044, 492)","(1049, 523)","(1056, 554)","(1070, 583)","(1090, 607)","(1114, 626)","(1142, 633)","(1172, 630)","(1201, 615)","(1225, 594)","(1242, 568)","(1254, 539)","(1261, 508)","(1267, 477)","(1271, 445)","(1047, 418)","(1065, 412)","(1085, 418)","(1104, 428)","(1123, 440)","(1167, 445)","(1189, 437)","(1210, 431)","(1234, 430)","(1253, 439)","(1144, 461)","(1142, 482)","(1139, 503)","(1136, 525)","(1115, 532)","(1126, 538)","(1138, 543)","(1151, 540)","(1163, 537)","(1071, 451)","(1086, 450)","(1101, 452)","(1114, 460)","(1099, 462)","(1083, 460)","(1179, 467)","(1195, 462)","(1211, 463)","(1226, 467)","(1211, 473)","(1195, 472)","(1099, 562)","(1114, 562)","(1129, 562)","(1139, 565)","(1151, 563)","(1168, 565)","(1187, 568)","(1170, 583)","(1153, 589)","(1140, 590)","(1129, 588)","(1114, 579)","(1107, 565)","(1128, 571)","(1139, 573)","(1151, 572)","(1179, 569)","(1153, 573)","(1141, 574)","(1130, 572)",0.21,0.94,35.0,0.39,0.1,0.37,0.01,-11.5,0.08,0.37,31.0,65.1,117.9,22.0,46.3,115.75,26.82,59.64,107.05
1466,4063232,82,-56,-1,-1,0,"(1029, 428)","(1029, 462)","(1033, 495)","(1039, 525)","(1046, 557)","(1060, 586)","(1079, 612)","(1102, 633)","(1130, 642)","(1161, 640)","(1191, 625)","(1218, 605)","(1238, 580)","(1253, 550)","(1263, 519)","(1270, 485)","(1276, 451)","(1039, 422)","(1058, 417)","(1079, 423)","(1099, 433)","(1118, 446)","(1163, 452)","(1185, 443)","(1208, 437)","(1232, 436)","(1253, 445)","(1138, 469)","(1135, 490)","(1132, 512)","(1128, 535)","(1107, 540)","(1118, 547)","(1130, 552)","(1144, 549)","(1157, 546)","(1064, 457)","(1080, 457)","(1095, 459)","(1109, 466)","(1093, 468)","(1077, 466)","(1175, 474)","(1192, 470)","(1208, 472)","(1224, 475)","(1208, 481)","(1191, 480)","(1091, 569)","(1106, 571)","(1120, 571)","(1131, 575)","(1142, 573)","(1160, 575)","(1180, 577)","(1160, 592)","(1143, 598)","(1131, 599)","(1119, 596)","(1105, 587)","(1099, 572)","(1120, 580)","(1130, 582)","(1142, 582)","(1171, 578)","(1143, 582)","(1131, 583)","(1121, 580)",0.19,0.95,35.0,0.38,0.1,0.36,0.02,-11.0,0.07,0.38,30.3,63.9,115.3,19.8,45.4,115.6,25.52,56.47,100.82
1500,-851968,82,-56,-1,-1,0,"(1024, 431)","(1024, 467)","(1027, 501)","(1033, 534)","(1040, 567)","(1054, 598)","(1075, 625)","(1099, 646)","(1130, 655)","(1163, 652)","(1194, 636)","(1220, 613)","(1239, 586)","(1252, 555)","(1261, 524)","(1267, 491)","(1272, 457)","(1035, 424)","(1053, 419)","(1075, 425)","(1095, 436)","(1115, 451)","(1158, 458)","(1181, 448)","(1205, 443)","(1230, 442)","(1251, 453)","(1135, 474)","(1132, 495)","(1129, 517)","(1125, 540)","(1103, 547)","(1114, 553)","(1127, 558)","(1140, 556)","(1153, 553)","(1060, 461)","(1075, 461)","(1090, 464)","(1104, 470)","(1087, 472)","(1072, 470)","(1172, 479)","(1189, 477)","(1205, 479)","(1221, 483)","(1204, 489)","(1188, 486)","(1087, 577)","(1102, 578)","(1116, 578)","(1127, 582)","(1138, 580)","(1156, 583)","(1175, 586)","(1157, 601)","(1140, 606)","(1127, 607)","(1115, 604)","(1101, 595)","(1095, 580)","(1116, 588)","(1127, 590)","(1139, 590)","(1166, 587)","(1140, 590)","(1128, 590)","(1117, 588)",0.19,0.96,35.0,0.37,0.13,0.35,0.01,-11.5,0.07,0.36,31.4,65.1,116.8,19.85,44.45,114.4,25.05,56.82,101.29
1533,-327680,82,-56,-1,-1,0,"(1024, 434)","(1023, 470)","(1025, 504)","(1029, 537)","(1034, 571)","(1047, 602)","(1067, 629)","(1091, 651)","(1122, 659)","(1155, 658)","(1188, 644)","(1216, 622)","(1236, 596)","(1250, 565)","(1259, 534)","(1267, 501)","(1272, 466)","(1030, 427)","(1048, 420)","(1071, 424)","(1092, 433)","(1112, 448)","(1161, 456)","(1185, 448)","(1210, 444)","(1235, 447)","(1253, 460)","(1134, 476)","(1130, 499)","(1126, 521)","(1122, 544)","(1099, 552)","(1110, 558)","(1122, 564)","(1136, 562)","(1150, 559)","(1055, 463)","(1071, 464)","(1087, 467)","(1102, 474)","(1084, 476)","(1068, 473)","(1171, 485)","(1189, 482)","(1206, 485)","(1222, 489)","(1205, 495)","(1188, 492)","(1082, 583)","(1097, 584)","(1112, 584)","(1123, 589)","(1135, 587)","(1152, 590)","(1171, 594)","(1152, 607)","(1135, 613)","(1121, 613)","(1110, 610)","(1096, 600)","(1090, 585)","(1111, 594)","(1122, 596)","(1134, 596)","(1162, 594)","(1136, 597)","(1123, 597)","(1112, 594)",0.19,0.93,35.0,0.39,0.14,0.35,0.02,-12.5,0.06,0.37,34.9,72.0,125.3,18.15,41.9,112.55,26.52,58.47,104.35
1566,-327680,82,-56,-1,-1,0,"(1020, 433)","(1019, 470)","(1021, 506)","(1025, 540)","(1031, 574)","(1044, 606)","(1064, 633)","(1088, 654)","(1118, 663)","(1150, 662)","(1182, 647)","(1210, 626)","(1232, 601)","(1247, 570)","(1256, 538)","(1264, 505)","(1270, 470)","(1029, 428)","(1048, 421)","(1071, 426)","(1093, 437)","(1113, 452)","(1162, 461)","(1186, 453)","(1210, 449)","(1235, 451)","(1253, 463)","(1134, 481)","(1130, 504)","(1126, 527)","(1123, 551)","(1098, 557)","(1109, 564)","(1122, 569)","(1136, 568)","(1150, 565)","(1053, 466)","(1070, 467)","(1086, 470)","(1101, 478)","(1083, 480)","(1066, 477)","(1171, 489)","(1189, 487)","(1207, 490)","(1222, 494)","(1206, 500)","(1188, 497)","(1079, 588)","(1095, 589)","(1111, 590)","(1122, 595)","(1134, 593)","(1152, 597)","(1171, 600)","(1151, 614)","(1133, 620)","(1120, 621)","(1107, 617)","(1093, 607)","(1087, 591)","(1110, 600)","(1121, 603)","(1134, 603)","(1162, 601)","(1135, 604)","(1122, 604)","(1110, 601)",0.19,0.91,35.0,0.39,0.14,0.36,0.02,-13.0,0.06,0.38,33.2,70.0,122.2,19.9,43.55,113.35,27.11,59.23,108.29
1600,131072,82,-56,-1,-1,0,"(1020, 439)","(1020, 477)","(1023, 512)","(1026, 546)","(1031, 581)","(1045, 614)","(1066, 642)","(1091, 665)","(1123, 675)","(1156, 675)","(1189, 660)","(1217, 639)","(1238, 612)","(1252, 581)","(1262, 548)","(1272, 514)","(1280, 478)","(1033, 432)","(1054, 426)","(1078, 433)","(1099, 446)","(1119, 462)","(1167, 470)","(1191, 462)","(1215, 457)","(1241, 458)","(1261, 470)","(1140, 485)","(1136, 509)","(1132, 533)","(1128, 558)","(1103, 564)","(1115, 571)","(1127, 576)","(1141, 574)","(1155, 571)","(1059, 471)","(1075, 471)","(1092, 475)","(1106, 482)","(1088, 484)","(1071, 481)","(1177, 494)","(1195, 491)","(1213, 494)","(1228, 499)","(1211, 505)","(1194, 501)","(1080, 593)","(1099, 596)","(1115, 597)","(1126, 602)","(1140, 600)","(1157, 604)","(1178, 606)","(1157, 620)","(1139, 625)","(1125, 625)","(1112, 621)","(1096, 612)","(1089, 597)","(1113, 607)","(1126, 610)","(1139, 610)","(1169, 608)","(1140, 608)","(1127, 608)","(1114, 605)",0.2,0.86,35.0,0.37,0.16,0.37,0.01,-13.5,0.05,0.38,28.4,61.3,112.2,18.05,39.85,110.0,23.58,54.76,100.64
1633,1310720,82,-56,-1,-1,0,"(1024, 445)","(1022, 484)","(1023, 522)","(1024, 559)","(1029, 596)","(1045, 630)","(1069, 658)","(1097, 681)","(1131, 691)","(1165, 690)","(1197, 674)","(1224, 651)","(1243, 623)","(1256, 592)","(1265, 560)","(1275, 526)","(1281, 492)","(1042, 435)","(1064, 431)","(1088, 439)","(1110, 452)","(1131, 468)","(1181, 477)","(1204, 470)","(1226, 466)","(1250, 466)","(1267, 477)","(1153, 493)","(1149, 517)","(1145, 540)","(1142, 564)","(1115, 570)","(1127, 577)","(1140, 584)","(1153, 582)","(1166, 579)","(1069, 477)","(1086, 478)","(1102, 482)","(1116, 489)","(1099, 490)","(1082, 487)","(1187, 502)","(1205, 500)","(1222, 503)","(1236, 508)","(1220, 513)","(1203, 510)","(1089, 600)","(1108, 602)","(1125, 604)","(1137, 609)","(1151, 607)","(1168, 610)","(1186, 615)","(1167, 629)","(1150, 634)","(1135, 634)","(1122, 631)","(1105, 620)","(1098, 604)","(1124, 613)","(1137, 617)","(1150, 617)","(1177, 616)","(1151, 618)","(1138, 618)","(1125, 615)",0.2,0.84,35.0,0.37,0.17,0.37,0.01,-12.5,0.05,0.35,26.2,59.8,109.8,18.9,42.85,110.85,24.11,54.11,98.82
1666,1507328,82,-56,-1,-1,0,"(1032, 443)","(1029, 482)","(1028, 520)","(1028, 558)","(1033, 595)","(1049, 629)","(1072, 658)","(1101, 681)","(1134, 693)","(1169, 693)","(1203, 678)","(1231, 657)","(1252, 629)","(1267, 598)","(1277, 565)","(1286, 531)","(1293, 495)","(1057, 439)","(1080, 434)","(1104, 442)","(1126, 454)","(1147, 470)","(1197, 480)","(1220, 474)","(1243, 470)","(1266, 471)","(1283, 482)","(1167, 498)","(1163, 520)","(1159, 543)","(1155, 567)","(1125, 573)","(1137, 580)","(1151, 587)","(1165, 585)","(1178, 582)","(1082, 481)","(1099, 482)","(1116, 485)","(1129, 493)","(1112, 494)","(1095, 491)","(1200, 507)","(1218, 505)","(1235, 508)","(1250, 513)","(1233, 518)","(1216, 515)","(1097, 602)","(1117, 603)","(1135, 605)","(1147, 610)","(1160, 609)","(1177, 613)","(1194, 620)","(1175, 635)","(1157, 640)","(1143, 639)","(1129, 634)","(1112, 623)","(1106, 605)","(1133, 615)","(1146, 619)","(1159, 619)","(1186, 620)","(1159, 622)","(1146, 622)","(1132, 618)",0.2,0.82,35.0,0.37,0.17,0.37,0.02,-12.5,0.04,0.35,29.0,62.7,111.8,21.1,46.45,113.45,23.76,51.94,96.58
1700,393216,82,-56,-1,-1,0,"(1037, 438)","(1033, 479)","(1031, 519)","(1030, 558)","(1035, 596)","(1051, 631)","(1077, 660)","(1106, 684)","(1140, 697)","(1175, 697)","(1209, 682)","(1238, 661)","(1258, 634)","(1272, 602)","(1283, 569)","(1293, 535)","(1301, 500)","(1068, 437)","(1092, 431)","(1117, 437)","(1140, 450)","(1161, 466)","(1210, 477)","(1233, 471)","(1256, 468)","(1279, 471)","(1294, 484)","(1180, 495)","(1175, 518)","(1171, 540)","(1167, 563)","(1136, 570)","(1149, 577)","(1162, 584)","(1175, 583)","(1188, 580)","(1094, 478)","(1111, 478)","(1128, 482)","(1141, 490)","(1124, 491)","(1107, 487)","(1211, 505)","(1229, 503)","(1246, 507)","(1260, 512)","(1244, 517)","(1227, 513)","(1107, 601)","(1126, 600)","(1145, 601)","(1157, 607)","(1170, 606)","(1187, 612)","(1202, 622)","(1184, 636)","(1167, 640)","(1152, 639)","(1138, 635)","(1122, 622)","(1116, 604)","(1143, 612)","(1156, 616)","(1169, 617)","(1193, 621)","(1169, 623)","(1156, 622)","(1142, 618)",0.2,0.84,35.0,0.36,0.19,0.35,0.02,-13.5,0.03,0.33,29.6,65.0,115.2,20.7,46.15,113.75,22.58,52.11,95.7
1733,-262144,82,-56,-1,-1,0,"(1051, 432)","(1046, 473)","(1044, 511)","(1042, 549)","(1046, 586)","(1061, 620)","(1084, 649)","(1113, 673)","(1146, 685)","(1180, 686)","(1213, 672)","(1241, 652)","(1262, 627)","(1276, 596)","(1288, 564)","(1300, 532)","(1309, 498)","(1081, 428)","(1105, 424)","(1130, 431)","(1152, 444)","(1172, 460)","(1221, 473)","(1243, 467)","(1266, 465)","(1288, 467)","(1303, 479)","(1190, 488)","(1185, 510)","(1181, 532)","(1176, 555)","(1145, 560)","(1157, 568)","(1170, 576)","(1184, 575)","(1197, 572)","(1106, 469)","(1124, 470)","(1140, 474)","(1152, 483)","(1135, 483)","(1119, 479)","(1221, 499)","(1240, 497)","(1256, 501)","(1269, 507)","(1253, 511)","(1237, 507)","(1114, 589)","(1134, 590)","(1153, 592)","(1165, 598)","(1178, 597)","(1194, 603)","(1210, 611)","(1191, 624)","(1173, 628)","(1159, 627)","(1146, 623)","(1129, 611)","(1123, 593)","(1151, 602)","(1163, 607)","(1176, 608)","(1201, 610)","(1176, 612)","(1163, 611)","(1150, 606)",0.21,0.8,35.0,0.36,0.2,0.37,0.02,-13.5,0.02,0.34,26.1,60.0,109.4,20.15,45.8,112.35,23.41,52.88,95.88
1766,-917504,82,-56,-1,-1,0,"(1066, 417)","(1061, 456)","(1059, 493)","(1058, 530)","(1061, 566)","(1075, 600)","(1096, 628)","(1123, 651)","(1155, 662)","(1188, 663)","(1219, 649)","(1245, 630)","(1266, 606)","(1281, 578)","(1294, 549)","(1306, 519)","(1316, 487)","(1097, 420)","(1120, 414)","(1143, 419)","(1166, 431)","(1185, 447)","(1236, 459)","(1259, 453)","(1281, 452)","(1302, 457)","(1314, 471)","(1203, 478)","(1198, 499)","(1193, 520)","(1188, 542)","(1157, 547)","(1168, 555)","(1181, 562)","(1194, 561)","(1207, 559)","(1118, 459)","(1136, 460)","(1152, 464)","(1164, 472)","(1148, 473)","(1131, 469)","(1233, 488)","(1252, 487)","(1268, 491)","(1280, 497)","(1265, 501)","(1248, 497)","(1125, 577)","(1145, 577)","(1164, 579)","(1175, 584)","(1187, 583)","(1202, 589)","(1216, 596)","(1198, 610)","(1181, 615)","(1168, 614)","(1155, 609)","(1139, 598)","(1134, 580)","(1161, 589)","(1173, 592)","(1185, 593)","(1207, 596)","(1185, 599)","(1172, 598)","(1160, 594)",0.22,0.77,35.0,0.36,0.22,0.36,0.02,-13.5,0.01,0.34,30.4,63.9,114.9,18.6,45.35,111.35,22.64,51.47,94.58
1800,-1114112,82,-56,-1,-1,0,"(1078, 403)","(1073, 442)","(1070, 478)","(1068, 514)","(1070, 551)","(1082, 585)","(1103, 614)","(1130, 638)","(1162, 650)","(1195, 652)","(1228, 639)","(1254, 620)","(1275, 595)","(1290, 566)","(1302, 537)","(1315, 506)","(1326, 473)","(1109, 406)","(1131, 402)","(1154, 408)","(1175, 421)","(1193, 437)","(1240, 450)","(1262, 445)","(1284, 443)","(1305, 446)","(1319, 459)","(1210, 465)","(1205, 486)","(1200, 507)","(1194, 529)","(1165, 533)","(1176, 541)","(1188, 548)","(1201, 548)","(1213, 545)","(1130, 445)","(1147, 445)","(1163, 449)","(1174, 458)","(1158, 459)","(1142, 454)","(1239, 475)","(1257, 473)","(1273, 477)","(1285, 483)","(1270, 487)","(1254, 483)","(1135, 560)","(1154, 561)","(1171, 563)","(1182, 569)","(1194, 569)","(1209, 575)","(1224, 582)","(1206, 595)","(1189, 599)","(1176, 597)","(1163, 593)","(1148, 581)","(1144, 563)","(1169, 573)","(1180, 577)","(1192, 578)","(1216, 582)","(1192, 583)","(1180, 582)","(1168, 578)",0.22,0.81,35.0,0.35,0.22,0.35,0.02,-14.0,0.01,0.34,28.2,59.5,108.7,19.85,45.45,112.9,23.88,54.11,97.0
1833,-1114112,82,-56,-1,-1,0,"(1089, 394)","(1083, 432)","(1080, 467)","(1079, 502)","(1081, 537)","(1094, 571)","(1114, 600)","(1140, 623)","(1170, 636)","(1203, 636)","(1234, 623)","(1260, 604)","(1280, 580)","(1294, 553)","(1306, 524)","(1317, 495)","(1328, 463)","(1119, 394)","(1140, 389)","(1162, 393)","(1183, 404)","(1202, 419)","(1252, 432)","(1273, 427)","(1293, 427)","(1312, 432)","(1324, 445)","(1219, 450)","(1214, 471)","(1209, 492)","(1204, 513)","(1175, 517)","(1186, 525)","(1198, 532)","(1211, 532)","(1222, 529)","(1140, 431)","(1157, 432)","(1172, 436)","(1183, 444)","(1168, 444)","(1152, 440)","(1247, 460)","(1265, 458)","(1280, 463)","(1292, 469)","(1277, 472)","(1262, 468)","(1146, 545)","(1164, 545)","(1182, 547)","(1192, 552)","(1204, 552)","(1219, 558)","(1233, 566)","(1215, 579)","(1199, 583)","(1186, 582)","(1174, 578)","(1159, 566)","(1155, 548)","(1179, 557)","(1190, 560)","(1202, 562)","(1224, 565)","(1202, 569)","(1190, 568)","(1179, 563)",0.21,0.81,35.0,0.36,0.23,0.36,0.02,-13.0,0.01,0.33,30.2,65.3,115.8,20.1,45.35,113.8,23.76,53.76,98.29
1866,1048576,84,-56,-1,-1,0,"(1094, 382)","(1089, 418)","(1086, 453)","(1085, 487)","(1089, 522)","(1102, 555)","(1123, 583)","(1148, 606)","(1178, 618)","(1208, 618)","(1238, 604)","(1264, 586)","(1284, 563)","(1298, 536)","(1311, 508)","(1323, 479)","(1333, 448)","(1127, 385)","(1148, 381)","(1169, 386)","(1189, 396)","(1208, 411)","(1256, 422)","(1276, 418)","(1295, 417)","(1314, 420)","(1326, 431)","(1225, 438)","(1220, 458)","(1215, 478)","(1211, 499)","(1182, 503)","(1193, 510)","(1205, 517)","(1218, 516)","(1229, 514)","(1148, 419)","(1164, 420)","(1179, 424)","(1190, 432)","(1175, 432)","(1160, 428)","(1253, 447)","(1270, 445)","(1285, 448)","(1296, 454)","(1282, 458)","(1267, 454)","(1151, 527)","(1170, 528)","(1188, 531)","(1199, 536)","(1210, 536)","(1225, 541)","(1240, 548)","(1222, 561)","(1205, 566)","(1193, 565)","(1181, 561)","(1165, 549)","(1159, 531)","(1186, 540)","(1197, 544)","(1209, 545)","(1232, 547)","(1208, 551)","(1196, 551)","(1185, 547)",0.22,0.79,35.0,0.35,0.21,0.37,0.02,-12.5,0.01,0.33,27.1,59.2,109.5,21.7,47.3,116.25,23.0,52.29,96.7
1900,-1703936,84,-56,-1,-1,0,"(1115, 374)","(1110, 408)","(1108, 440)","(1107, 472)","(1111, 504)","(1124, 534)","(1143, 560)","(1167, 582)","(1194, 592)","(1223, 592)","(1250, 579)","(1273, 561)","(1292, 539)","(1307, 514)","(1317, 488)","(1325, 461)","(1331, 433)","(1140, 375)","(1159, 372)","(1180, 377)","(1198, 388)","(1215, 402)","(1260, 412)","(1279, 407)","(1297, 405)","(1315, 407)","(1327, 417)","(1232, 428)","(1227, 447)","(1223, 466)","(1219, 486)","(1193, 490)","(1203, 497)","(1214, 503)","(1226, 502)","(1237, 500)","(1158, 410)","(1173, 410)","(1188, 414)","(1199, 422)","(1184, 422)","(1169, 419)","(1258, 435)","(1274, 433)","(1289, 436)","(1300, 441)","(1286, 445)","(1272, 442)","(1165, 515)","(1182, 516)","(1199, 518)","(1209, 522)","(1221, 521)","(1234, 526)","(1247, 531)","(1232, 546)","(1217, 551)","(1205, 551)","(1193, 547)","(1178, 536)","(1173, 518)","(1197, 527)","(1208, 530)","(1219, 530)","(1240, 531)","(1219, 536)","(1208, 536)","(1197, 533)",0.22,0.78,35.0,0.38,0.2,0.37,0.03,-12.0,0.02,0.35,28.5,63.0,114.5,20.2,44.7,112.9,23.52,54.0,99.88
1933,-1507328,84,-56,-1,-1,0,"(1123, 366)","(1119, 398)","(1118, 429)","(1117, 460)","(1120, 490)","(1132, 519)","(1151, 543)","(1174, 563)","(1201, 573)","(1229, 572)","(1255, 560)","(1278, 543)","(1296, 523)","(1310, 499)","(1320, 474)","(1329, 448)","(1336, 420)","(1146, 369)","(1165, 366)","(1185, 372)","(1204, 382)","(1221, 395)","(1262, 404)","(1281, 399)","(1300, 397)","(1318, 398)","(1330, 407)","(1237, 418)","(1233, 437)","(1229, 456)","(1225, 475)","(1200, 478)","(1210, 485)","(1221, 491)","(1232, 490)","(1242, 487)","(1166, 401)","(1180, 401)","(1194, 404)","(1205, 412)","(1191, 413)","(1177, 410)","(1263, 424)","(1278, 421)","(1293, 424)","(1303, 429)","(1291, 434)","(1276, 431)","(1175, 502)","(1191, 503)","(1207, 505)","(1216, 509)","(1226, 508)","(1239, 512)","(1252, 516)","(1237, 528)","(1223, 532)","(1212, 531)","(1201, 528)","(1188, 519)","(1182, 505)","(1205, 513)","(1215, 516)","(1225, 517)","(1245, 517)","(1225, 518)","(1215, 518)","(1205, 515)",0.25,0.79,35.0,0.36,0.18,0.36,0.01,-12.5,0.02,0.36,28.3,60.1,112.0,19.3,42.75,111.1,20.82,51.0,95.76
1966,-1441792,84,-56,-1,-1,0,"(1135, 355)","(1130, 385)","(1128, 415)","(1127, 443)","(1131, 471)","(1142, 498)","(1159, 522)","(1180, 541)","(1204, 550)","(1229, 549)","(1254, 538)","(1276, 523)","(1295, 505)","(1309, 483)","(1319, 460)","(1328, 435)","(1335, 409)","(1156, 360)","(1174, 356)","(1194, 360)","(1212, 369)","(1228, 382)","(1269, 391)","(1286, 386)","(1304, 385)","(1321, 387)","(1331, 397)","(1242, 407)","(1238, 425)","(1234, 443)","(1231, 462)","(1206, 464)","(1216, 471)","(1226, 477)","(1237, 475)","(1248, 473)","(1174, 390)","(1189, 390)","(1203, 393)","(1213, 401)","(1199, 402)","(1185, 399)","(1267, 412)","(1282, 409)","(1296, 412)","(1306, 417)","(1294, 422)","(1280, 419)","(1182, 484)","(1198, 487)","(1214, 490)","(1222, 494)","(1232, 493)","(1244, 496)","(1257, 499)","(1241, 509)","(1227, 513)","(1217, 513)","(1207, 510)","(1194, 501)","(1189, 487)","(1212, 497)","(1221, 500)","(1230, 500)","(1250, 499)","(1229, 501)","(1219, 501)","(1210, 498)",0.25,0.75,35.0,0.38,0.19,0.37,0.01,-12.5,0.03,0.38,30.3,64.5,118.3,20.2,43.7,112.35,18.7,47.05,92.58
2000,-1048576,84,-56,-1,-1,0,"(1140, 345)","(1138, 376)","(1137, 405)","(1137, 434)","(1142, 462)","(1153, 488)","(1171, 510)","(1192, 527)","(1216, 536)","(1242, 536)","(1268, 525)","(1290, 510)","(1308, 491)","(1321, 468)","(1330, 443)","(1338, 417)","(1346, 390)","(1162, 351)","(1180, 348)","(1198, 353)","(1215, 362)","(1231, 374)","(1272, 381)","(1290, 376)","(1308, 374)","(1325, 375)","(1338, 384)","(1247, 395)","(1243, 413)","(1240, 430)","(1236, 449)","(1213, 452)","(1222, 458)","(1232, 463)","(1243, 462)","(1253, 459)","(1180, 380)","(1194, 379)","(1208, 381)","(1218, 390)","(1205, 391)","(1190, 388)","(1271, 400)","(1285, 396)","(1299, 399)","(1310, 404)","(1298, 409)","(1284, 407)","(1191, 474)","(1206, 475)","(1220, 476)","(1228, 480)","(1237, 479)","(1249, 483)","(1261, 487)","(1247, 497)","(1234, 500)","(1224, 499)","(1215, 497)","(1203, 488)","(1198, 476)","(1218, 484)","(1227, 486)","(1236, 487)","(1254, 487)","(1236, 487)","(1227, 487)","(1218, 485)",0.26,0.79,34.0,0.37,0.18,0.33,0.01,-12.5,0.02,0.38,27.9,61.3,113.1,19.75,42.65,111.5,18.29,44.17,86.76
2033,65536,84,-56,-1,-1,0,"(1150, 339)","(1148, 369)","(1147, 396)","(1148, 423)","(1152, 449)","(1163, 474)","(1180, 495)","(1200, 512)","(1223, 520)","(1247, 518)","(1270, 507)","(1291, 492)","(1307, 474)","(1319, 452)","(1328, 430)","(1336, 407)","(1343, 382)","(1170, 344)","(1185, 338)","(1203, 338)","(1221, 344)","(1237, 355)","(1276, 363)","(1294, 358)","(1312, 357)","(1328, 362)","(1337, 373)","(1251, 383)","(1248, 399)","(1245, 416)","(1242, 434)","(1220, 439)","(1229, 444)","(1239, 449)","(1249, 447)","(1259, 444)","(1186, 370)","(1200, 369)","(1213, 371)","(1224, 379)","(1210, 381)","(1196, 378)","(1274, 389)","(1289, 384)","(1302, 387)","(1312, 392)","(1301, 397)","(1287, 395)","(1199, 460)","(1214, 462)","(1228, 463)","(1236, 466)","(1244, 465)","(1256, 467)","(1268, 471)","(1254, 481)","(1241, 485)","(1232, 485)","(1223, 483)","(1211, 475)","(1206, 463)","(1226, 470)","(1235, 472)","(1243, 472)","(1261, 471)","(1243, 474)","(1234, 474)","(1226, 471)",0.27,0.77,34.0,0.39,0.16,0.35,0.01,-12.5,0.04,0.37,35.7,70.8,127.3,20.8,42.9,110.2,18.23,47.64,91.52
2066,393216,84,-56,-1,-1,0,"(1152, 330)","(1150, 359)","(1149, 387)","(1149, 414)","(1153, 441)","(1165, 465)","(1182, 486)","(1202, 503)","(1225, 510)","(1248, 509)","(1271, 498)","(1292, 483)","(1308, 465)","(1321, 443)","(1330, 421)","(1339, 397)","(1346, 371)","(1173, 335)","(1189, 332)","(1206, 335)","(1223, 342)","(1238, 353)","(1279, 360)","(1296, 356)","(1312, 354)","(1328, 356)","(1339, 364)","(1254, 376)","(1251, 393)","(1248, 411)","(1245, 428)","(1223, 431)","(1232, 436)","(1242, 441)","(1252, 440)","(1262, 437)","(1191, 362)","(1204, 361)","(1217, 364)","(1227, 371)","(1214, 372)","(1201, 370)","(1278, 380)","(1291, 376)","(1304, 378)","(1314, 383)","(1303, 388)","(1290, 385)","(1202, 449)","(1217, 452)","(1231, 454)","(1239, 457)","(1247, 456)","(1259, 458)","(1271, 460)","(1256, 470)","(1243, 475)","(1234, 475)","(1225, 472)","(1214, 464)","(1209, 452)","(1229, 460)","(1237, 462)","(1246, 462)","(1264, 460)","(1245, 463)","(1237, 463)","(1229, 461)",0.26,0.75,34.0,0.36,0.16,0.35,0.02,-11.5,0.04,0.38,32.0,67.6,122.0,19.85,41.2,110.15,18.05,45.76,90.64
2100,-589824,84,-56,-1,-1,0,"(1162, 329)","(1158, 356)","(1156, 382)","(1157, 408)","(1161, 434)","(1172, 458)","(1189, 479)","(1209, 496)","(1231, 504)","(1254, 502)","(1275, 490)","(1293, 474)","(1308, 456)","(1320, 436)","(1328, 415)","(1334, 393)","(1337, 370)","(1179, 333)","(1195, 330)","(1212, 334)","(1228, 341)","(1242, 352)","(1278, 358)","(1293, 354)","(1308, 352)","(1323, 352)","(1334, 360)","(1256, 371)","(1254, 388)","(1251, 405)","(1248, 422)","(1226, 424)","(1236, 429)","(1245, 434)","(1255, 432)","(1265, 429)","(1196, 356)","(1208, 355)","(1221, 357)","(1230, 365)","(1218, 366)","(1205, 363)","(1278, 374)","(1291, 369)","(1303, 371)","(1313, 376)","(1302, 381)","(1290, 379)","(1205, 440)","(1220, 444)","(1234, 446)","(1242, 449)","(1251, 448)","(1263, 449)","(1275, 450)","(1262, 463)","(1249, 468)","(1239, 468)","(1230, 466)","(1217, 457)","(1211, 443)","(1233, 452)","(1241, 454)","(1250, 454)","(1269, 452)","(1251, 457)","(1241, 457)","(1232, 455)",0.28,0.77,34.0,0.39,0.16,0.4,0.02,-11.5,0.05,0.38,30.2,63.1,116.4,19.4,41.6,109.0,21.47,51.29,97.17
2133,-1376256,84,-56,-1,-1,0,"(1168, 325)","(1166, 352)","(1168, 378)","(1169, 403)","(1173, 428)","(1183, 452)","(1198, 473)","(1216, 490)","(1238, 497)","(1261, 496)","(1281, 484)","(1300, 469)","(1314, 450)","(1325, 429)","(1333, 407)","(1340, 384)","(1346, 359)","(1182, 330)","(1197, 327)","(1213, 331)","(1228, 338)","(1242, 348)","(1281, 354)","(1297, 349)","(1313, 347)","(1329, 347)","(1341, 354)","(1258, 366)","(1255, 382)","(1252, 400)","(1249, 417)","(1229, 419)","(1238, 424)","(1247, 429)","(1257, 427)","(1267, 424)","(1198, 352)","(1210, 351)","(1223, 353)","(1232, 361)","(1220, 362)","(1207, 360)","(1281, 369)","(1294, 365)","(1307, 367)","(1317, 371)","(1306, 376)","(1293, 374)","(1210, 436)","(1223, 439)","(1236, 440)","(1245, 444)","(1254, 442)","(1266, 444)","(1278, 445)","(1265, 459)","(1253, 464)","(1243, 465)","(1233, 462)","(1221, 453)","(1216, 439)","(1235, 446)","(1244, 448)","(1253, 448)","(1272, 446)","(1254, 452)","(1244, 453)","(1235, 450)",0.25,0.82,34.0,0.39,0.14,0.38,0.03,-11.0,0.05,0.38,31.1,63.2,117.8,18.7,40.3,107.65,23.47,52.0,97.0
2166,-851968,84,-56,-1,-1,0,"(1171, 326)","(1170, 353)","(1172, 378)","(1173, 403)","(1177, 428)","(1187, 452)","(1202, 472)","(1221, 489)","(1243, 496)","(1266, 495)","(1287, 482)","(1305, 466)","(1319, 447)","(1328, 426)","(1336, 404)","(1343, 381)","(1349, 357)","(1185, 329)","(1200, 326)","(1215, 330)","(1230, 336)","(1244, 345)","(1282, 351)","(1298, 347)","(1314, 345)","(1329, 346)","(1341, 353)","(1259, 363)","(1257, 380)","(1254, 396)","(1251, 413)","(1232, 415)","(1240, 421)","(1249, 425)","(1259, 424)","(1269, 421)","(1201, 351)","(1213, 350)","(1225, 352)","(1234, 359)","(1222, 360)","(1210, 358)","(1283, 367)","(1295, 363)","(1308, 365)","(1318, 369)","(1307, 373)","(1294, 372)","(1213, 433)","(1226, 434)","(1239, 436)","(1248, 439)","(1257, 438)","(1270, 440)","(1282, 442)","(1270, 456)","(1256, 461)","(1246, 461)","(1236, 458)","(1224, 449)","(1219, 435)","(1238, 442)","(1247, 444)","(1256, 444)","(1276, 443)","(1257, 450)","(1248, 450)","(1238, 447)",0.24,0.86,34.0,0.38,0.14,0.38,0.03,-10.0,0.05,0.37,30.2,62.9,117.4,20.45,42.35,108.65,23.47,52.82,96.88
2200,-720896,84,-56,-1,-1,0,"(1176, 327)","(1174, 353)","(1175, 378)","(1175, 402)","(1178, 427)","(1188, 451)","(1203, 471)","(1222, 488)","(1244, 496)","(1268, 494)","(1290, 482)","(1310, 467)","(1324, 448)","(1334, 427)","(1341, 404)","(1347, 381)","(1352, 357)","(1187, 328)","(1202, 326)","(1216, 330)","(1230, 336)","(1243, 345)","(1281, 351)","(1297, 346)","(1313, 344)","(1328, 345)","(1341, 352)","(1259, 363)","(1256, 378)","(1253, 395)","(1250, 411)","(1232, 412)","(1241, 418)","(1249, 423)","(1259, 421)","(1269, 418)","(1203, 350)","(1214, 348)","(1226, 350)","(1235, 358)","(1224, 359)","(1212, 356)","(1283, 365)","(1295, 361)","(1307, 363)","(1318, 368)","(1307, 372)","(1295, 370)","(1213, 429)","(1226, 430)","(1239, 432)","(1248, 435)","(1258, 434)","(1271, 436)","(1285, 439)","(1271, 453)","(1257, 459)","(1246, 459)","(1237, 456)","(1224, 447)","(1220, 432)","(1238, 438)","(1247, 440)","(1257, 440)","(1278, 440)","(1258, 447)","(1248, 447)","(1238, 445)",0.25,0.88,35.0,0.38,0.15,0.4,0.03,-11.0,0.05,0.36,31.3,62.1,118.6,20.75,44.05,111.1,28.58,57.64,100.76
2233,-1179648,84,-56,-1,-1,0,"(1177, 326)","(1176, 352)","(1176, 376)","(1176, 400)","(1179, 424)","(1189, 447)","(1204, 466)","(1222, 483)","(1244, 490)","(1267, 489)","(1289, 477)","(1309, 464)","(1325, 446)","(1335, 425)","(1341, 403)","(1347, 380)","(1352, 356)","(1189, 328)","(1203, 325)","(1217, 329)","(1231, 335)","(1244, 344)","(1283, 348)","(1298, 344)","(1314, 343)","(1329, 344)","(1340, 351)","(1260, 361)","(1257, 377)","(1254, 394)","(1251, 410)","(1233, 410)","(1241, 416)","(1250, 421)","(1260, 419)","(1270, 416)","(1205, 349)","(1216, 348)","(1227, 350)","(1237, 357)","(1225, 358)","(1213, 355)","(1284, 364)","(1296, 360)","(1308, 362)","(1318, 366)","(1307, 370)","(1295, 368)","(1214, 424)","(1227, 427)","(1240, 429)","(1249, 432)","(1259, 431)","(1272, 433)","(1286, 434)","(1272, 449)","(1258, 455)","(1247, 455)","(1237, 452)","(1224, 443)","(1220, 427)","(1239, 435)","(1248, 437)","(1258, 437)","(1279, 436)","(1258, 444)","(1248, 444)","(1239, 442)",0.23,0.87,35.0,0.37,0.16,0.41,0.03,-10.0,0.05,0.37,31.4,64.4,118.9,19.8,43.4,109.55,26.35,55.29,97.35
2266,-917504,84,-56,-1,-1,0,"(1178, 329)","(1177, 354)","(1178, 378)","(1179, 401)","(1183, 424)","(1193, 445)","(1209, 463)","(1227, 479)","(1248, 486)","(1270, 483)","(1291, 472)","(1311, 459)","(1326, 442)","(1336, 422)","(1342, 400)","(1348, 379)","(1353, 355)","(1190, 329)","(1203, 326)","(1218, 328)","(1231, 333)","(1244, 342)","(1281, 346)","(1296, 342)","(1312, 341)","(1327, 342)","(1338, 350)","(1260, 360)","(1258, 376)","(1255, 391)","(1253, 407)","(1236, 408)","(1243, 414)","(1252, 418)","(1261, 416)","(1270, 413)","(1206, 349)","(1216, 347)","(1228, 349)","(1237, 357)","(1226, 357)","(1214, 355)","(1283, 363)","(1294, 358)","(1306, 360)","(1316, 365)","(1306, 368)","(1294, 367)","(1217, 423)","(1230, 425)","(1243, 427)","(1251, 429)","(1261, 428)","(1274, 429)","(1288, 431)","(1274, 445)","(1260, 450)","(1250, 451)","(1240, 448)","(1228, 440)","(1223, 426)","(1242, 432)","(1251, 434)","(1260, 434)","(1281, 432)","(1261, 440)","(1251, 440)","(1242, 438)",0.25,0.87,35.0,0.36,0.15,0.4,0.03,-10.0,0.05,0.37,31.9,66.8,123.3,18.7,42.25,107.65,25.05,54.0,96.41
2300,-1245184,84,-56,-1,-1,0,"(1180, 331)","(1179, 356)","(1180, 379)","(1181, 402)","(1185, 425)","(1196, 446)","(1212, 464)","(1231, 479)","(1253, 486)","(1275, 483)","(1296, 472)","(1315, 458)","(1330, 441)","(1339, 420)","(1345, 398)","(1350, 376)","(1354, 352)","(1192, 330)","(1205, 327)","(1219, 330)","(1232, 335)","(1245, 343)","(1281, 346)","(1296, 341)","(1311, 340)","(1326, 341)","(1338, 347)","(1260, 359)","(1258, 375)","(1256, 390)","(1254, 406)","(1237, 407)","(1245, 413)","(1254, 417)","(1263, 415)","(1272, 411)","(1208, 349)","(1219, 348)","(1230, 349)","(1239, 356)","(1228, 356)","(1217, 355)","(1284, 361)","(1295, 357)","(1306, 358)","(1316, 363)","(1306, 366)","(1294, 365)","(1220, 423)","(1232, 424)","(1245, 425)","(1253, 428)","(1263, 427)","(1276, 427)","(1290, 429)","(1277, 443)","(1263, 449)","(1253, 450)","(1244, 448)","(1232, 440)","(1226, 425)","(1244, 431)","(1253, 433)","(1263, 432)","(1283, 430)","(1263, 439)","(1254, 440)","(1245, 438)",0.25,0.9,35.0,0.36,0.12,0.4,0.03,-8.5,0.06,0.37,31.2,64.1,121.3,20.35,42.8,110.35,27.11,57.29,100.88
2333,-1310720,84,-56,-1,-1,0,"(1180, 332)","(1179, 356)","(1180, 379)","(1182, 402)","(1186, 424)","(1197, 445)","(1213, 463)","(1232, 478)","(1254, 484)","(1276, 482)","(1297, 470)","(1316, 456)","(1331, 438)","(1340, 417)","(1345, 395)","(1349, 373)","(1352, 350)","(1190, 330)","(1203, 327)","(1217, 330)","(1231, 334)","(1243, 342)","(1280, 346)","(1294, 341)","(1309, 339)","(1324, 340)","(1337, 346)","(1260, 359)","(1258, 374)","(1256, 390)","(1254, 406)","(1237, 407)","(1245, 412)","(1254, 417)","(1264, 414)","(1273, 411)","(1207, 349)","(1218, 346)","(1229, 348)","(1238, 355)","(1227, 356)","(1216, 354)","(1283, 360)","(1294, 355)","(1305, 356)","(1315, 361)","(1305, 364)","(1294, 363)","(1220, 421)","(1233, 422)","(1245, 424)","(1254, 426)","(1264, 425)","(1277, 425)","(1292, 427)","(1278, 441)","(1264, 448)","(1254, 448)","(1244, 446)","(1232, 438)","(1226, 423)","(1245, 429)","(1254, 431)","(1264, 430)","(1286, 428)","(1264, 438)","(1255, 438)","(1245, 436)",0.24,0.89,35.0,0.36,0.11,0.41,0.03,-9.5,0.07,0.37,32.2,64.3,120.0,19.5,42.6,108.25,24.88,57.41,99.82
2366,-983040,84,-56,-1,-1,0,"(1179, 328)","(1179, 352)","(1180, 375)","(1181, 398)","(1185, 421)","(1196, 442)","(1211, 460)","(1229, 475)","(1250, 481)","(1272, 478)","(1292, 467)","(1309, 451)","(1322, 433)","(1330, 413)","(1336, 392)","(1341, 370)","(1344, 347)","(1190, 326)","(1201, 319)","(1215, 318)","(1230, 322)","(1243, 331)","(1281, 335)","(1296, 329)","(1311, 328)","(1326, 331)","(1335, 340)","(1260, 355)","(1258, 370)","(1257, 385)","(1256, 401)","(1238, 404)","(1246, 409)","(1255, 412)","(1264, 411)","(1273, 407)","(1205, 348)","(1216, 345)","(1228, 347)","(1238, 354)","(1226, 355)","(1214, 354)","(1282, 358)","(1293, 353)","(1305, 355)","(1315, 359)","(1305, 363)","(1293, 362)","(1220, 421)","(1233, 421)","(1246, 422)","(1254, 424)","(1263, 423)","(1276, 424)","(1288, 426)","(1275, 440)","(1263, 447)","(1253, 448)","(1244, 446)","(1231, 438)","(1226, 423)","(1245, 429)","(1254, 430)","(1263, 429)","(1282, 427)","(1263, 436)","(1254, 437)","(1245, 435)",0.25,0.85,35.0,0.4,0.09,0.41,0.03,-10.0,0.07,0.36,32.2,69.1,125.7,19.45,42.6,109.2,29.52,59.88,105.23
2400,-1179648,84,-56,-1,-1,0,"(1179, 327)","(1179, 352)","(1180, 375)","(1182, 397)","(1187, 419)","(1198, 440)","(1213, 457)","(1231, 472)","(1251, 477)","(1272, 474)","(1291, 462)","(1308, 447)","(1321, 429)","(1330, 409)","(1335, 389)","(1340, 367)","(1343, 344)","(1188, 326)","(1198, 320)","(1212, 320)","(1226, 324)","(1239, 332)","(1278, 335)","(1292, 329)","(1308, 327)","(1323, 330)","(1333, 338)","(1257, 356)","(1256, 371)","(1255, 387)","(1254, 402)","(1236, 406)","(1244, 410)","(1253, 414)","(1262, 412)","(1271, 408)","(1203, 348)","(1214, 345)","(1226, 347)","(1236, 354)","(1224, 356)","(1212, 355)","(1280, 358)","(1291, 352)","(1303, 353)","(1313, 358)","(1303, 363)","(1291, 362)","(1221, 422)","(1233, 423)","(1245, 424)","(1253, 426)","(1261, 424)","(1273, 425)","(1285, 426)","(1273, 440)","(1261, 446)","(1252, 447)","(1243, 445)","(1232, 438)","(1227, 424)","(1244, 430)","(1252, 431)","(1261, 430)","(1279, 427)","(1261, 436)","(1253, 437)","(1244, 435)",0.3,0.86,35.0,0.4,0.08,0.39,0.03,-11.0,0.08,0.38,32.9,70.5,125.9,19.3,40.85,107.5,27.17,59.23,105.88
2433,-1179648,85,-56,-1,-1,0,"(1176, 333)","(1176, 357)","(1178, 380)","(1180, 403)","(1185, 426)","(1196, 447)","(1212, 466)","(1231, 482)","(1253, 488)","(1276, 485)","(1297, 472)","(1316, 456)","(1330, 436)","(1338, 414)","(1343, 392)","(1347, 369)","(1349, 345)","(1184, 332)","(1197, 329)","(1211, 332)","(1225, 338)","(1238, 346)","(1273, 348)","(1288, 343)","(1303, 340)","(1319, 339)","(1332, 344)","(1254, 359)","(1252, 375)","(1251, 391)","(1249, 407)","(1233, 408)","(1241, 413)","(1250, 418)","(1260, 415)","(1269, 411)","(1201, 350)","(1212, 348)","(1223, 349)","(1233, 356)","(1221, 357)","(1210, 356)","(1278, 360)","(1289, 355)","(1301, 356)","(1311, 360)","(1301, 364)","(1289, 363)","(1217, 424)","(1229, 425)","(1242, 426)","(1251, 428)","(1260, 427)","(1274, 427)","(1288, 428)","(1275, 444)","(1262, 452)","(1251, 452)","(1241, 450)","(1229, 442)","(1223, 426)","(1241, 431)","(1251, 433)","(1260, 432)","(1282, 430)","(1261, 441)","(1251, 441)","(1242, 439)",0.24,0.91,35.0,0.37,0.09,0.41,0.04,-9.0,0.08,0.37,27.9,61.9,114.9,20.15,43.6,109.05,27.11,58.88,104.41
2466,3014656,85,-56,-1,-1,0,"(1173, 336)","(1173, 361)","(1177, 384)","(1180, 407)","(1186, 429)","(1197, 450)","(1213, 468)","(1232, 483)","(1253, 489)","(1275, 486)","(1297, 474)","(1316, 458)","(1330, 439)","(1339, 418)","(1344, 395)","(1348, 372)","(1350, 348)","(1181, 333)","(1193, 329)","(1207, 332)","(1221, 336)","(1234, 344)","(1272, 346)","(1287, 340)","(1303, 338)","(1318, 339)","(1332, 345)","(1251, 361)","(1250, 377)","(1248, 392)","(1247, 408)","(1230, 411)","(1239, 416)","(1248, 420)","(1258, 417)","(1267, 414)","(1198, 352)","(1209, 350)","(1220, 351)","(1230, 358)","(1218, 360)","(1207, 358)","(1276, 362)","(1287, 357)","(1299, 358)","(1310, 362)","(1300, 366)","(1288, 366)","(1216, 428)","(1227, 428)","(1240, 428)","(1249, 431)","(1259, 429)","(1273, 430)","(1288, 432)","(1274, 448)","(1261, 455)","(1250, 456)","(1240, 454)","(1227, 445)","(1222, 430)","(1240, 434)","(1249, 436)","(1259, 435)","(1281, 433)","(1260, 444)","(1250, 445)","(1240, 443)",0.25,0.95,35.0,0.37,0.09,0.4,0.04,-9.5,0.09,0.36,30.7,65.1,121.1,20.55,44.8,110.9,30.23,61.64,106.35
2500,-1441792,85,-56,-1,-1,0,"(1168, 335)","(1170, 360)","(1173, 384)","(1177, 407)","(1183, 429)","(1195, 450)","(1211, 467)","(1229, 482)","(1249, 487)","(1270, 484)","(1290, 471)","(1308, 455)","(1322, 436)","(1330, 414)","(1335, 392)","(1340, 369)","(1343, 345)","(1177, 337)","(1189, 333)","(1203, 335)","(1217, 340)","(1230, 348)","(1268, 350)","(1284, 344)","(1299, 342)","(1315, 342)","(1328, 348)","(1248, 364)","(1247, 380)","(1245, 395)","(1244, 412)","(1227, 414)","(1235, 419)","(1245, 423)","(1254, 420)","(1264, 416)","(1194, 356)","(1205, 353)","(1217, 354)","(1226, 361)","(1215, 363)","(1203, 362)","(1273, 365)","(1284, 360)","(1296, 360)","(1307, 364)","(1296, 369)","(1284, 369)","(1214, 431)","(1225, 432)","(1237, 432)","(1246, 435)","(1254, 433)","(1268, 434)","(1282, 434)","(1269, 450)","(1256, 457)","(1246, 458)","(1237, 455)","(1225, 447)","(1220, 433)","(1237, 438)","(1245, 439)","(1254, 438)","(1275, 436)","(1256, 446)","(1247, 446)","(1238, 444)",0.26,0.95,35.0,0.37,0.08,0.38,0.04,-9.5,0.09,0.39,28.9,63.6,116.3,18.7,42.6,109.05,28.0,60.05,105.94
2533,-1179648,85,-56,-1,-1,0,"(1160, 336)","(1160, 361)","(1162, 385)","(1166, 408)","(1173, 430)","(1184, 451)","(1200, 470)","(1218, 485)","(1239, 491)","(1259, 487)","(1278, 474)","(1295, 458)","(1309, 439)","(1318, 419)","(1324, 398)","(1328, 376)","(1331, 353)","(1172, 339)","(1185, 335)","(1200, 337)","(1215, 342)","(1229, 350)","(1266, 354)","(1281, 348)","(1295, 345)","(1310, 344)","(1322, 351)","(1246, 369)","(1244, 385)","(1243, 400)","(1242, 416)","(1224, 419)","(1232, 423)","(1242, 427)","(1251, 425)","(1260, 421)","(1190, 362)","(1201, 360)","(1213, 361)","(1223, 367)","(1211, 369)","(1199, 368)","(1269, 371)","(1281, 367)","(1293, 367)","(1302, 370)","(1292, 375)","(1281, 374)","(1207, 435)","(1220, 437)","(1233, 437)","(1241, 440)","(1250, 438)","(1263, 438)","(1275, 438)","(1264, 454)","(1251, 461)","(1242, 463)","(1232, 461)","(1219, 453)","(1213, 438)","(1232, 443)","(1241, 444)","(1250, 443)","(1269, 440)","(1251, 450)","(1242, 451)","(1233, 450)",0.22,0.86,35.0,0.38,0.06,0.39,0.04,-8.5,0.08,0.38,32.8,67.5,123.2,20.0,44.0,110.9,22.23,51.82,97.0
2566,-983040,85,-56,-1,-1,0,"(1157, 344)","(1157, 369)","(1160, 393)","(1163, 416)","(1169, 438)","(1180, 459)","(1196, 478)","(1214, 492)","(1235, 497)","(1256, 494)","(1276, 481)","(1292, 465)","(1305, 446)","(1314, 425)","(1320, 404)","(1324, 383)","(1326, 360)","(1168, 348)","(1180, 342)","(1195, 343)","(1210, 348)","(1224, 357)","(1260, 359)","(1275, 353)","(1291, 350)","(1306, 351)","(1317, 358)","(1241, 376)","(1239, 391)","(1238, 406)","(1237, 422)","(1218, 425)","(1227, 430)","(1236, 434)","(1246, 431)","(1255, 427)","(1185, 370)","(1196, 369)","(1207, 370)","(1218, 374)","(1206, 377)","(1194, 375)","(1264, 378)","(1276, 375)","(1288, 376)","(1298, 378)","(1287, 383)","(1276, 382)","(1204, 444)","(1215, 444)","(1228, 444)","(1236, 447)","(1245, 445)","(1258, 445)","(1270, 446)","(1259, 461)","(1246, 468)","(1236, 469)","(1227, 468)","(1215, 460)","(1210, 446)","(1227, 450)","(1236, 452)","(1245, 451)","(1264, 447)","(1246, 457)","(1237, 459)","(1228, 457)",0.2,0.9,35.0,0.39,0.07,0.39,0.03,-8.0,0.08,0.38,30.9,67.6,122.1,20.1,43.95,110.95,23.94,56.47,104.17
2600,-589824,85,-56,-1,-1,0,"(1150, 353)","(1152, 378)","(1155, 403)","(1158, 426)","(1165, 449)","(1177, 470)","(1194, 489)","(1212, 504)","(1234, 509)","(1255, 506)","(1275, 492)","(1292, 474)","(1305, 454)","(1315, 432)","(1320, 409)","(1324, 386)","(1326, 362)","(1162, 354)","(1176, 351)","(1190, 355)","(1204, 361)","(1218, 369)","(1252, 372)","(1267, 366)","(1282, 361)","(1298, 359)","(1312, 364)","(1234, 385)","(1233, 400)","(1232, 416)","(1231, 432)","(1213, 434)","(1222, 439)","(1231, 443)","(1241, 440)","(1250, 436)","(1180, 378)","(1191, 377)","(1202, 378)","(1212, 382)","(1200, 385)","(1189, 384)","(1258, 386)","(1270, 383)","(1281, 384)","(1292, 385)","(1281, 390)","(1270, 390)","(1199, 452)","(1211, 453)","(1223, 453)","(1232, 455)","(1240, 454)","(1254, 454)","(1267, 455)","(1255, 471)","(1242, 479)","(1233, 480)","(1223, 478)","(1211, 470)","(1205, 455)","(1223, 459)","(1232, 461)","(1241, 460)","(1261, 457)","(1242, 467)","(1233, 468)","(1224, 466)",0.19,0.92,35.0,0.37,0.06,0.38,0.03,-7.5,0.09,0.37,25.0,57.2,107.7,20.85,44.75,111.3,24.94,57.88,104.47
2633,589824,85,-56,-1,-1,0,"(1147, 363)","(1148, 388)","(1152, 411)","(1156, 434)","(1164, 456)","(1176, 475)","(1193, 492)","(1210, 506)","(1230, 510)","(1251, 507)","(1271, 494)","(1288, 477)","(1301, 458)","(1311, 437)","(1316, 415)","(1319, 393)","(1321, 369)","(1156, 363)","(1168, 358)","(1183, 361)","(1198, 366)","(1212, 374)","(1247, 376)","(1262, 369)","(1278, 365)","(1295, 364)","(1308, 370)","(1228, 392)","(1227, 407)","(1226, 422)","(1225, 438)","(1208, 441)","(1217, 446)","(1226, 449)","(1236, 446)","(1246, 443)","(1173, 386)","(1184, 385)","(1196, 386)","(1206, 390)","(1194, 393)","(1183, 392)","(1254, 393)","(1265, 390)","(1277, 390)","(1288, 392)","(1277, 397)","(1265, 397)","(1196, 460)","(1207, 460)","(1219, 460)","(1227, 462)","(1236, 460)","(1249, 461)","(1262, 461)","(1250, 477)","(1238, 484)","(1228, 486)","(1219, 484)","(1207, 476)","(1202, 462)","(1219, 466)","(1227, 467)","(1236, 466)","(1256, 463)","(1237, 473)","(1229, 474)","(1220, 473)",0.2,0.92,35.0,0.38,0.04,0.37,0.04,-7.5,0.1,0.38,29.6,64.4,117.8,20.45,43.35,111.05,25.7,60.17,108.88
2666,1245184,85,-56,-1,-1,0,"(1137, 378)","(1139, 403)","(1142, 427)","(1145, 450)","(1152, 473)","(1166, 493)","(1183, 510)","(1203, 524)","(1225, 529)","(1248, 525)","(1267, 510)","(1284, 492)","(1297, 472)","(1305, 449)","(1310, 426)","(1313, 403)","(1315, 379)","(1149, 370)","(1162, 367)","(1177, 370)","(1191, 376)","(1204, 383)","(1239, 386)","(1254, 379)","(1269, 374)","(1285, 372)","(1300, 377)","(1222, 398)","(1221, 413)","(1220, 429)","(1219, 444)","(1202, 448)","(1211, 453)","(1221, 457)","(1230, 453)","(1239, 449)","(1168, 393)","(1178, 392)","(1189, 392)","(1199, 396)","(1188, 399)","(1177, 398)","(1247, 399)","(1258, 395)","(1269, 396)","(1280, 398)","(1270, 402)","(1258, 402)","(1187, 467)","(1199, 467)","(1212, 467)","(1222, 469)","(1231, 467)","(1245, 467)","(1260, 468)","(1247, 485)","(1234, 492)","(1224, 493)","(1214, 492)","(1200, 484)","(1193, 469)","(1213, 473)","(1222, 474)","(1232, 473)","(1253, 470)","(1233, 481)","(1223, 482)","(1214, 480)",0.19,0.92,35.0,0.36,0.04,0.41,0.03,-7.0,0.09,0.35,25.7,58.2,111.3,21.75,45.5,112.0,27.88,61.88,107.76
2700,0,85,-56,-1,-1,0,"(1132, 380)","(1133, 405)","(1137, 430)","(1140, 453)","(1148, 475)","(1162, 496)","(1179, 513)","(1198, 528)","(1220, 533)","(1243, 529)","(1263, 514)","(1280, 496)","(1293, 476)","(1301, 453)","(1305, 430)","(1308, 407)","(1309, 382)","(1141, 377)","(1153, 373)","(1168, 376)","(1182, 381)","(1196, 389)","(1232, 391)","(1248, 384)","(1263, 379)","(1280, 377)","(1295, 383)","(1214, 404)","(1213, 420)","(1213, 436)","(1212, 452)","(1195, 455)","(1204, 460)","(1214, 464)","(1224, 460)","(1233, 456)","(1159, 399)","(1170, 398)","(1181, 399)","(1191, 403)","(1180, 405)","(1169, 404)","(1240, 405)","(1251, 401)","(1263, 402)","(1274, 404)","(1263, 408)","(1251, 408)","(1181, 473)","(1193, 474)","(1206, 474)","(1215, 476)","(1224, 474)","(1238, 473)","(1253, 474)","(1241, 491)","(1227, 499)","(1217, 501)","(1207, 499)","(1194, 491)","(1188, 475)","(1206, 479)","(1215, 481)","(1225, 479)","(1246, 476)","(1226, 488)","(1217, 489)","(1207, 488)",0.19,0.93,35.0,0.37,0.04,0.4,0.04,-7.0,0.1,0.37,27.4,60.9,115.2,21.15,46.35,113.5,28.88,61.82,109.0
2733,-327680,85,-56,-1,-1,0,"(1127, 385)","(1129, 410)","(1132, 434)","(1136, 457)","(1144, 479)","(1157, 500)","(1174, 517)","(1193, 532)","(1215, 536)","(1237, 532)","(1257, 517)","(1275, 500)","(1289, 479)","(1297, 456)","(1301, 433)","(1304, 409)","(1304, 384)","(1133, 385)","(1145, 380)","(1160, 382)","(1175, 387)","(1189, 394)","(1225, 395)","(1241, 388)","(1257, 384)","(1274, 382)","(1289, 388)","(1207, 410)","(1206, 427)","(1206, 443)","(1205, 459)","(1187, 462)","(1196, 467)","(1207, 470)","(1217, 467)","(1228, 462)","(1152, 406)","(1162, 405)","(1174, 406)","(1185, 409)","(1173, 412)","(1161, 411)","(1233, 411)","(1245, 407)","(1257, 407)","(1269, 409)","(1257, 414)","(1245, 414)","(1175, 480)","(1187, 482)","(1199, 482)","(1208, 484)","(1217, 481)","(1232, 481)","(1247, 480)","(1234, 497)","(1221, 505)","(1210, 506)","(1200, 505)","(1188, 497)","(1181, 482)","(1199, 487)","(1209, 488)","(1218, 487)","(1240, 482)","(1220, 494)","(1210, 495)","(1201, 493)",0.19,0.96,35.0,0.39,0.02,0.4,0.03,-7.0,0.11,0.38,27.9,61.3,116.8,20.05,43.6,112.2,27.94,63.35,113.0
2766,-196608,85,-56,-1,-1,0,"(1123, 396)","(1124, 421)","(1128, 444)","(1132, 466)","(1141, 488)","(1154, 508)","(1171, 525)","(1189, 540)","(1210, 544)","(1231, 540)","(1251, 526)","(1267, 508)","(1280, 488)","(1289, 466)","(1293, 444)","(1294, 420)","(1293, 396)","(1129, 393)","(1139, 385)","(1154, 385)","(1170, 389)","(1184, 397)","(1216, 397)","(1232, 390)","(1249, 387)","(1265, 387)","(1278, 395)","(1200, 416)","(1200, 432)","(1200, 447)","(1200, 464)","(1182, 467)","(1191, 472)","(1201, 476)","(1212, 472)","(1222, 468)","(1146, 412)","(1157, 410)","(1168, 410)","(1179, 415)","(1167, 417)","(1156, 417)","(1225, 416)","(1236, 412)","(1247, 413)","(1258, 415)","(1248, 419)","(1236, 419)","(1171, 489)","(1182, 488)","(1194, 488)","(1203, 490)","(1212, 487)","(1225, 487)","(1238, 488)","(1227, 504)","(1215, 513)","(1205, 514)","(1195, 513)","(1183, 505)","(1177, 491)","(1194, 493)","(1203, 494)","(1212, 493)","(1232, 489)","(1214, 501)","(1205, 503)","(1195, 502)",0.19,0.92,35.0,0.38,0.02,0.39,0.04,-7.0,0.12,0.37,31.6,66.9,124.4,21.0,44.9,114.15,30.23,66.29,117.76
2800,-196608,85,-56,-1,-1,0,"(1109, 399)","(1112, 425)","(1118, 450)","(1122, 474)","(1130, 497)","(1144, 518)","(1162, 536)","(1182, 551)","(1205, 556)","(1229, 551)","(1249, 535)","(1267, 516)","(1280, 494)","(1288, 470)","(1291, 445)","(1294, 420)","(1295, 394)","(1115, 394)","(1128, 390)","(1143, 393)","(1158, 398)","(1173, 405)","(1210, 406)","(1226, 399)","(1243, 393)","(1261, 390)","(1277, 395)","(1193, 419)","(1192, 436)","(1192, 453)","(1192, 470)","(1175, 473)","(1184, 478)","(1195, 482)","(1205, 478)","(1215, 473)","(1136, 417)","(1147, 416)","(1158, 416)","(1169, 419)","(1158, 422)","(1146, 421)","(1220, 420)","(1232, 416)","(1244, 416)","(1256, 418)","(1245, 423)","(1232, 423)","(1162, 493)","(1174, 494)","(1187, 494)","(1197, 496)","(1207, 493)","(1222, 492)","(1239, 492)","(1225, 511)","(1211, 520)","(1200, 521)","(1189, 520)","(1175, 512)","(1168, 496)","(1187, 499)","(1197, 501)","(1208, 499)","(1232, 494)","(1210, 508)","(1199, 509)","(1189, 508)",0.19,0.97,35.0,0.37,0.01,0.41,0.04,-6.5,0.11,0.37,27.2,59.9,111.8,21.15,47.4,115.55,29.35,63.88,112.29
2833,-524288,85,-56,-1,-1,0,"(1104, 401)","(1106, 428)","(1112, 453)","(1117, 477)","(1125, 501)","(1139, 522)","(1156, 540)","(1176, 556)","(1199, 561)","(1223, 556)","(1245, 540)","(1263, 521)","(1277, 498)","(1285, 473)","(1288, 448)","(1290, 422)","(1291, 395)","(1107, 398)","(1119, 394)","(1134, 396)","(1149, 401)","(1164, 408)","(1204, 409)","(1221, 402)","(1238, 396)","(1257, 393)","(1273, 399)","(1185, 424)","(1185, 441)","(1184, 459)","(1184, 476)","(1167, 480)","(1176, 484)","(1187, 488)","(1198, 484)","(1209, 479)","(1127, 422)","(1138, 421)","(1150, 421)","(1162, 424)","(1149, 427)","(1137, 427)","(1214, 425)","(1226, 421)","(1239, 421)","(1252, 422)","(1240, 427)","(1227, 428)","(1155, 500)","(1167, 501)","(1180, 500)","(1190, 502)","(1200, 499)","(1216, 499)","(1233, 497)","(1219, 517)","(1204, 526)","(1193, 527)","(1182, 526)","(1168, 518)","(1162, 502)","(1180, 506)","(1190, 507)","(1201, 506)","(1226, 500)","(1203, 513)","(1192, 515)","(1182, 513)",0.17,0.98,35.0,0.39,0.01,0.41,0.04,-6.0,0.12,0.37,25.9,60.0,113.3,21.4,47.05,115.85,30.88,65.11,115.64
2866,-589824,85,-56,-1,-1,0,"(1099, 407)","(1100, 433)","(1105, 458)","(1110, 482)","(1117, 505)","(1131, 527)","(1147, 546)","(1166, 562)","(1190, 567)","(1215, 563)","(1237, 548)","(1256, 528)","(1270, 505)","(1280, 480)","(1283, 454)","(1285, 427)","(1285, 400)","(1101, 403)","(1112, 397)","(1127, 400)","(1143, 405)","(1158, 413)","(1196, 414)","(1213, 406)","(1231, 400)","(1250, 397)","(1266, 403)","(1177, 428)","(1177, 446)","(1177, 463)","(1176, 481)","(1158, 485)","(1168, 490)","(1179, 494)","(1191, 490)","(1202, 484)","(1120, 426)","(1131, 425)","(1143, 425)","(1155, 428)","(1142, 431)","(1130, 431)","(1208, 428)","(1220, 425)","(1232, 426)","(1245, 426)","(1233, 431)","(1220, 431)","(1147, 506)","(1159, 507)","(1171, 507)","(1181, 509)","(1192, 506)","(1208, 505)","(1225, 504)","(1210, 523)","(1195, 531)","(1184, 533)","(1173, 531)","(1160, 523)","(1154, 508)","(1172, 513)","(1182, 514)","(1192, 513)","(1218, 507)","(1194, 519)","(1183, 520)","(1173, 519)",0.14,0.99,35.0,0.38,0.0,0.41,0.03,-6.0,0.13,0.38,26.8,58.1,111.2,21.4,46.0,115.9,31.47,67.05,118.41
2900,-786432,85,-56,-1,-1,0,"(1086, 409)","(1089, 437)","(1095, 462)","(1102, 487)","(1111, 511)","(1125, 533)","(1143, 552)","(1162, 569)","(1186, 574)","(1210, 569)","(1234, 553)","(1254, 533)","(1269, 510)","(1279, 485)","(1284, 458)","(1287, 430)","(1287, 401)","(1091, 406)","(1102, 398)","(1117, 398)","(1134, 402)","(1149, 409)","(1192, 409)","(1210, 401)","(1229, 397)","(1248, 397)","(1264, 405)","(1172, 432)","(1171, 449)","(1171, 467)","(1170, 484)","(1153, 490)","(1162, 494)","(1173, 498)","(1185, 494)","(1196, 490)","(1112, 429)","(1123, 428)","(1136, 428)","(1149, 432)","(1136, 435)","(1123, 435)","(1202, 433)","(1214, 428)","(1228, 428)","(1242, 430)","(1229, 436)","(1215, 436)","(1142, 512)","(1154, 511)","(1167, 511)","(1176, 513)","(1186, 510)","(1202, 510)","(1219, 510)","(1205, 529)","(1190, 538)","(1179, 540)","(1168, 538)","(1155, 530)","(1150, 514)","(1167, 518)","(1177, 519)","(1187, 517)","(1211, 512)","(1189, 525)","(1178, 527)","(1168, 526)",0.2,1.0,35.0,0.38,-0.0,0.38,0.03,-7.5,0.11,0.36,34.8,70.8,126.8,22.65,48.4,117.1,29.17,63.7,113.82
2933,-786432,86,-56,-1,-1,0,"(1079, 412)","(1081, 440)","(1087, 466)","(1093, 492)","(1101, 517)","(1114, 539)","(1130, 559)","(1150, 576)","(1174, 581)","(1199, 577)","(1222, 561)","(1242, 541)","(1257, 518)","(1267, 492)","(1272, 465)","(1275, 437)","(1276, 408)","(1081, 407)","(1094, 401)","(1112, 405)","(1128, 412)","(1144, 420)","(1181, 422)","(1199, 413)","(1218, 406)","(1239, 402)","(1257, 409)","(1164, 435)","(1163, 454)","(1162, 473)","(1162, 492)","(1143, 495)","(1153, 501)","(1165, 505)","(1177, 500)","(1189, 495)","(1102, 433)","(1114, 432)","(1127, 432)","(1139, 435)","(1126, 438)","(1113, 438)","(1195, 436)","(1208, 433)","(1221, 433)","(1235, 434)","(1222, 440)","(1208, 440)","(1131, 518)","(1144, 519)","(1157, 518)","(1168, 521)","(1178, 518)","(1195, 517)","(1213, 517)","(1198, 536)","(1182, 545)","(1170, 547)","(1158, 545)","(1145, 536)","(1138, 521)","(1157, 525)","(1168, 526)","(1179, 525)","(1206, 519)","(1181, 531)","(1170, 533)","(1158, 531)",0.17,0.99,35.0,0.39,0.01,0.41,0.04,-6.5,0.12,0.39,24.9,56.9,109.9,21.95,47.0,116.65,30.17,64.82,113.7
2966,-851968,86,-56,-1,-1,0,"(1070, 413)","(1072, 443)","(1078, 470)","(1085, 496)","(1093, 522)","(1106, 546)","(1124, 567)","(1144, 583)","(1169, 588)","(1195, 582)","(1219, 567)","(1240, 547)","(1256, 524)","(1266, 497)","(1271, 470)","(1274, 441)","(1274, 411)","(1073, 410)","(1083, 400)","(1101, 397)","(1119, 400)","(1136, 409)","(1180, 408)","(1199, 397)","(1220, 393)","(1241, 395)","(1256, 407)","(1158, 435)","(1157, 453)","(1156, 472)","(1155, 491)","(1137, 499)","(1147, 504)","(1158, 507)","(1170, 504)","(1182, 499)","(1094, 434)","(1106, 429)","(1121, 429)","(1135, 437)","(1121, 441)","(1105, 440)","(1190, 436)","(1204, 427)","(1220, 426)","(1233, 431)","(1221, 439)","(1205, 439)","(1126, 525)","(1138, 524)","(1151, 522)","(1161, 525)","(1171, 522)","(1188, 522)","(1205, 524)","(1190, 541)","(1174, 550)","(1163, 551)","(1152, 550)","(1139, 542)","(1133, 526)","(1151, 530)","(1161, 531)","(1172, 529)","(1197, 525)","(1173, 536)","(1163, 538)","(1152, 536)",0.28,1.0,35.0,0.41,-0.01,0.38,0.03,-12.0,0.11,0.36,39.7,79.0,134.7,22.6,48.25,117.85,29.35,64.35,112.88
3000,-1114112,86,-56,-1,-1,0,"(1059, 417)","(1063, 447)","(1069, 476)","(1077, 504)","(1086, 531)","(1100, 557)","(1119, 580)","(1140, 598)","(1166, 604)","(1194, 598)","(1220, 581)","(1241, 557)","(1256, 531)","(1266, 502)","(1271, 473)","(1274, 443)","(1275, 412)","(1065, 411)","(1078, 405)","(1096, 408)","(1113, 416)","(1130, 425)","(1170, 428)","(1189, 419)","(1209, 411)","(1231, 408)","(1251, 415)","(1150, 443)","(1150, 462)","(1149, 482)","(1148, 502)","(1130, 506)","(1140, 512)","(1152, 516)","(1164, 512)","(1176, 506)","(1088, 439)","(1100, 439)","(1113, 439)","(1126, 443)","(1112, 446)","(1098, 446)","(1183, 444)","(1196, 441)","(1211, 441)","(1225, 443)","(1211, 449)","(1197, 449)","(1118, 532)","(1130, 531)","(1144, 530)","(1155, 533)","(1166, 530)","(1184, 530)","(1203, 531)","(1187, 552)","(1171, 561)","(1158, 563)","(1146, 561)","(1132, 551)","(1126, 534)","(1144, 538)","(1156, 539)","(1167, 537)","(1194, 533)","(1169, 546)","(1158, 548)","(1146, 546)",0.19,1.03,35.0,0.37,0.02,0.39,0.04,-7.5,0.12,0.36,26.7,57.6,109.7,21.55,46.45,116.65,28.35,62.23,109.47
3033,-393216,86,-56,-1,-1,0,"(1056, 424)","(1058, 454)","(1063, 484)","(1070, 512)","(1078, 539)","(1091, 566)","(1110, 589)","(1131, 607)","(1159, 612)","(1189, 608)","(1217, 591)","(1239, 568)","(1255, 541)","(1265, 511)","(1269, 481)","(1272, 449)","(1273, 417)","(1058, 414)","(1071, 407)","(1088, 411)","(1105, 419)","(1122, 428)","(1164, 430)","(1184, 420)","(1206, 412)","(1228, 410)","(1248, 418)","(1143, 446)","(1142, 466)","(1141, 486)","(1140, 506)","(1121, 512)","(1132, 518)","(1144, 522)","(1157, 517)","(1170, 512)","(1079, 443)","(1091, 442)","(1105, 442)","(1120, 446)","(1104, 450)","(1090, 449)","(1179, 447)","(1193, 443)","(1208, 444)","(1223, 445)","(1209, 451)","(1194, 451)","(1110, 539)","(1123, 537)","(1136, 537)","(1148, 540)","(1160, 536)","(1179, 537)","(1198, 539)","(1182, 559)","(1164, 568)","(1151, 570)","(1138, 567)","(1124, 558)","(1118, 541)","(1137, 545)","(1148, 546)","(1161, 545)","(1190, 541)","(1163, 553)","(1150, 554)","(1138, 552)",0.17,1.03,35.0,0.39,0.03,0.4,0.04,-8.0,0.12,0.36,26.6,57.2,108.6,22.7,47.85,117.05,28.41,61.17,109.64
3066,3145728,86,-56,-1,-1,0,"(1042, 426)","(1046, 459)","(1053, 489)","(1060, 519)","(1069, 548)","(1084, 576)","(1105, 599)","(1129, 618)","(1157, 624)","(1186, 619)","(1215, 601)","(1239, 578)","(1257, 552)","(1268, 521)","(1273, 490)","(1277, 457)","(1279, 423)","(1049, 417)","(1062, 407)","(1079, 406)","(1098, 410)","(1116, 418)","(1165, 416)","(1187, 406)","(1209, 402)","(1231, 404)","(1249, 416)","(1140, 446)","(1139, 465)","(1138, 485)","(1137, 505)","(1120, 516)","(1130, 521)","(1141, 524)","(1154, 521)","(1166, 517)","(1073, 446)","(1086, 442)","(1102, 442)","(1116, 449)","(1101, 454)","(1085, 454)","(1176, 448)","(1191, 439)","(1208, 439)","(1223, 444)","(1209, 452)","(1192, 452)","(1109, 548)","(1120, 544)","(1134, 542)","(1144, 544)","(1155, 541)","(1173, 543)","(1192, 547)","(1177, 567)","(1160, 576)","(1148, 578)","(1137, 576)","(1122, 567)","(1117, 550)","(1135, 551)","(1145, 552)","(1156, 550)","(1184, 549)","(1158, 561)","(1147, 563)","(1136, 561)",0.27,1.06,35.0,0.38,0.0,0.35,0.03,-12.5,0.1,0.33,37.9,77.9,132.9,22.3,47.6,118.2,24.94,56.76,99.7
3100,-1048576,86,-56,-1,-1,0,"(1019, 420)","(1019, 455)","(1022, 488)","(1032, 518)","(1047, 548)","(1065, 577)","(1087, 602)","(1111, 624)","(1139, 632)","(1168, 628)","(1194, 611)","(1217, 587)","(1236, 560)","(1251, 530)","(1259, 498)","(1262, 464)","(1263, 429)","(1032, 401)","(1048, 393)","(1069, 395)","(1089, 404)","(1107, 417)","(1158, 419)","(1178, 408)","(1201, 403)","(1223, 406)","(1239, 418)","(1134, 447)","(1133, 471)","(1133, 495)","(1131, 520)","(1107, 522)","(1119, 531)","(1134, 536)","(1147, 532)","(1160, 527)","(1057, 434)","(1071, 429)","(1089, 431)","(1104, 444)","(1087, 447)","(1069, 445)","(1168, 450)","(1184, 439)","(1202, 439)","(1216, 447)","(1203, 456)","(1185, 455)","(1093, 551)","(1109, 550)","(1124, 551)","(1135, 555)","(1147, 552)","(1165, 554)","(1185, 557)","(1168, 576)","(1151, 584)","(1137, 585)","(1125, 582)","(1109, 570)","(1101, 554)","(1124, 560)","(1135, 563)","(1147, 562)","(1177, 558)","(1149, 569)","(1137, 569)","(1125, 566)",0.34,0.96,35.0,0.39,0.09,0.37,0.02,-17.5,0.1,0.39,38.6,77.4,130.8,23.55,49.15,119.4,23.35,53.41,94.17
3133,-1048576,86,-56,-1,-1,0,"(1033, 435)","(1036, 467)","(1042, 498)","(1049, 527)","(1056, 557)","(1070, 584)","(1089, 608)","(1111, 627)","(1139, 633)","(1169, 630)","(1198, 615)","(1221, 593)","(1239, 566)","(1250, 536)","(1255, 505)","(1260, 472)","(1262, 440)","(1038, 420)","(1054, 413)","(1073, 418)","(1091, 428)","(1109, 439)","(1151, 443)","(1172, 434)","(1194, 427)","(1218, 424)","(1238, 433)","(1130, 459)","(1128, 481)","(1127, 503)","(1125, 526)","(1104, 531)","(1116, 537)","(1129, 541)","(1143, 537)","(1156, 532)","(1061, 455)","(1075, 455)","(1089, 456)","(1103, 461)","(1087, 463)","(1073, 462)","(1165, 465)","(1180, 462)","(1196, 463)","(1211, 465)","(1196, 471)","(1180, 469)","(1091, 559)","(1106, 558)","(1120, 558)","(1132, 561)","(1145, 558)","(1164, 559)","(1185, 561)","(1166, 579)","(1148, 587)","(1134, 588)","(1121, 586)","(1106, 577)","(1099, 562)","(1120, 566)","(1132, 568)","(1145, 567)","(1176, 563)","(1147, 571)","(1134, 572)","(1122, 570)",0.16,0.99,35.0,0.38,0.07,0.41,0.02,-8.5,0.11,0.38,28.9,63.5,114.9,22.15,46.95,117.15,27.94,60.47,107.23
3166,-720896,86,-56,-1,-1,0,"(1030, 440)","(1032, 472)","(1037, 504)","(1043, 534)","(1051, 564)","(1065, 592)","(1084, 616)","(1107, 636)","(1136, 643)","(1167, 640)","(1197, 624)","(1221, 601)","(1239, 574)","(1251, 543)","(1256, 511)","(1261, 478)","(1263, 444)","(1035, 424)","(1050, 416)","(1070, 421)","(1088, 431)","(1106, 442)","(1150, 446)","(1172, 437)","(1195, 430)","(1219, 429)","(1239, 439)","(1127, 464)","(1126, 486)","(1124, 507)","(1122, 529)","(1101, 536)","(1112, 542)","(1125, 547)","(1139, 542)","(1153, 538)","(1058, 460)","(1071, 459)","(1086, 460)","(1101, 465)","(1084, 468)","(1069, 467)","(1164, 470)","(1179, 467)","(1195, 468)","(1211, 470)","(1195, 476)","(1179, 475)","(1088, 565)","(1102, 565)","(1117, 564)","(1128, 567)","(1141, 564)","(1160, 566)","(1181, 568)","(1162, 587)","(1144, 595)","(1130, 596)","(1117, 594)","(1102, 584)","(1096, 568)","(1116, 573)","(1129, 575)","(1141, 574)","(1172, 570)","(1143, 578)","(1131, 580)","(1118, 577)",0.17,1.0,35.0,0.38,0.08,0.39,0.02,-9.0,0.11,0.36,30.6,63.7,115.2,21.15,46.3,115.75,27.76,61.76,107.82
3200,65536,86,-56,-1,-1,0,"(1022, 435)","(1023, 470)","(1029, 502)","(1037, 534)","(1045, 565)","(1059, 595)","(1079, 621)","(1102, 643)","(1133, 651)","(1165, 648)","(1197, 632)","(1222, 608)","(1241, 581)","(1255, 548)","(1262, 515)","(1267, 480)","(1270, 444)","(1030, 424)","(1046, 418)","(1066, 423)","(1086, 433)","(1105, 445)","(1149, 450)","(1172, 440)","(1196, 434)","(1221, 432)","(1243, 442)","(1126, 468)","(1123, 490)","(1121, 513)","(1119, 536)","(1097, 541)","(1109, 548)","(1123, 553)","(1138, 549)","(1152, 544)","(1054, 462)","(1069, 463)","(1084, 464)","(1098, 468)","(1082, 472)","(1067, 470)","(1164, 474)","(1180, 472)","(1197, 474)","(1213, 475)","(1197, 482)","(1180, 480)","(1085, 570)","(1099, 570)","(1114, 569)","(1126, 573)","(1138, 570)","(1158, 572)","(1180, 575)","(1161, 594)","(1142, 603)","(1128, 604)","(1115, 601)","(1100, 591)","(1094, 574)","(1114, 578)","(1126, 580)","(1139, 579)","(1171, 576)","(1141, 586)","(1128, 587)","(1115, 584)",0.16,1.03,35.0,0.37,0.09,0.38,0.03,-9.5,0.1,0.37,31.0,64.9,114.8,20.9,45.45,115.3,24.0,57.23,100.29
3233,1048576,86,-56,-1,-1,0,"(1021, 433)","(1021, 468)","(1026, 501)","(1032, 533)","(1038, 565)","(1052, 596)","(1072, 624)","(1096, 645)","(1127, 653)","(1161, 650)","(1193, 634)","(1221, 611)","(1241, 584)","(1255, 552)","(1262, 518)","(1268, 483)","(1273, 448)","(1026, 424)","(1043, 418)","(1065, 423)","(1085, 434)","(1104, 447)","(1150, 452)","(1174, 443)","(1199, 436)","(1225, 435)","(1247, 446)","(1126, 470)","(1123, 493)","(1120, 515)","(1117, 538)","(1094, 543)","(1106, 550)","(1120, 556)","(1136, 552)","(1151, 547)","(1052, 463)","(1067, 464)","(1083, 466)","(1098, 470)","(1081, 474)","(1065, 472)","(1165, 477)","(1182, 476)","(1199, 477)","(1216, 478)","(1199, 485)","(1181, 484)","(1081, 573)","(1096, 574)","(1110, 574)","(1122, 578)","(1135, 575)","(1155, 577)","(1177, 579)","(1157, 596)","(1138, 603)","(1124, 604)","(1111, 602)","(1096, 592)","(1090, 576)","(1110, 583)","(1122, 585)","(1136, 584)","(1168, 580)","(1138, 587)","(1124, 588)","(1112, 585)",0.15,1.01,35.0,0.38,0.11,0.38,0.02,-9.5,0.09,0.37,30.4,65.3,117.6,20.85,44.25,113.9,27.29,61.76,107.94
3266,196608,86,-56,-1,-1,0,"(1021, 435)","(1020, 470)","(1024, 503)","(1030, 535)","(1036, 568)","(1049, 599)","(1068, 626)","(1093, 648)","(1124, 656)","(1158, 653)","(1192, 639)","(1220, 617)","(1241, 590)","(1255, 557)","(1263, 524)","(1270, 488)","(1274, 452)","(1026, 423)","(1044, 416)","(1065, 422)","(1085, 433)","(1105, 447)","(1150, 453)","(1174, 444)","(1200, 438)","(1226, 437)","(1248, 448)","(1126, 472)","(1123, 494)","(1119, 516)","(1116, 539)","(1093, 545)","(1105, 552)","(1119, 558)","(1134, 554)","(1149, 550)","(1051, 463)","(1067, 465)","(1082, 467)","(1098, 471)","(1081, 474)","(1064, 472)","(1165, 480)","(1183, 478)","(1200, 480)","(1217, 482)","(1199, 489)","(1182, 487)","(1079, 575)","(1094, 575)","(1109, 576)","(1121, 580)","(1134, 577)","(1154, 580)","(1177, 582)","(1156, 599)","(1136, 606)","(1122, 607)","(1109, 604)","(1094, 594)","(1087, 578)","(1109, 585)","(1121, 587)","(1134, 587)","(1168, 583)","(1136, 590)","(1123, 591)","(1110, 588)",0.17,1.01,35.0,0.39,0.11,0.38,0.02,-10.0,0.09,0.36,31.4,66.3,116.4,20.0,41.95,111.25,31.05,64.64,111.05
3300,-393216,86,-56,-1,-1,0,"(1023, 438)","(1023, 473)","(1026, 507)","(1030, 541)","(1036, 575)","(1050, 607)","(1069, 636)","(1094, 658)","(1126, 667)","(1161, 664)","(1194, 647)","(1221, 622)","(1241, 593)","(1254, 561)","(1262, 528)","(1267, 493)","(1271, 458)","(1031, 421)","(1048, 414)","(1070, 419)","(1090, 430)","(1109, 444)","(1153, 452)","(1176, 442)","(1201, 436)","(1226, 436)","(1247, 448)","(1129, 470)","(1126, 492)","(1122, 514)","(1119, 538)","(1096, 544)","(1108, 551)","(1121, 557)","(1136, 553)","(1151, 549)","(1056, 461)","(1070, 462)","(1085, 464)","(1100, 469)","(1083, 471)","(1068, 469)","(1167, 478)","(1184, 476)","(1200, 478)","(1216, 481)","(1199, 487)","(1183, 485)","(1078, 575)","(1094, 574)","(1110, 574)","(1123, 578)","(1137, 575)","(1157, 578)","(1178, 584)","(1158, 604)","(1138, 612)","(1123, 613)","(1110, 609)","(1094, 598)","(1087, 578)","(1110, 583)","(1123, 586)","(1137, 585)","(1169, 584)","(1138, 594)","(1124, 595)","(1111, 592)",0.18,0.97,35.0,0.37,0.12,0.4,0.03,-10.0,0.08,0.34,30.7,63.1,113.6,21.35,45.95,115.4,27.35,58.35,102.82
3333,-524288,86,-56,-1,-1,0,"(1024, 429)","(1025, 465)","(1029, 499)","(1033, 531)","(1040, 565)","(1053, 596)","(1073, 624)","(1097, 646)","(1130, 655)","(1165, 653)","(1199, 637)","(1225, 613)","(1245, 585)","(1258, 553)","(1266, 520)","(1274, 486)","(1279, 450)","(1034, 414)","(1052, 407)","(1074, 412)","(1094, 423)","(1114, 438)","(1158, 446)","(1182, 436)","(1207, 431)","(1234, 432)","(1255, 444)","(1134, 464)","(1130, 487)","(1127, 509)","(1124, 532)","(1100, 538)","(1112, 545)","(1126, 551)","(1141, 548)","(1155, 544)","(1059, 455)","(1074, 456)","(1090, 458)","(1105, 464)","(1088, 467)","(1071, 464)","(1172, 473)","(1190, 471)","(1207, 474)","(1223, 477)","(1205, 483)","(1188, 481)","(1084, 571)","(1100, 569)","(1115, 569)","(1127, 573)","(1140, 571)","(1160, 574)","(1181, 580)","(1161, 597)","(1142, 604)","(1128, 605)","(1115, 602)","(1099, 591)","(1093, 574)","(1115, 579)","(1127, 582)","(1140, 582)","(1171, 580)","(1142, 587)","(1129, 587)","(1116, 584)",0.18,0.99,35.0,0.38,0.13,0.38,0.02,-11.5,0.08,0.35,28.8,63.1,114.6,20.45,45.5,114.8,28.41,63.0,110.88
3366,-655360,86,-56,-1,-1,0,"(1027, 422)","(1027, 458)","(1030, 493)","(1034, 526)","(1039, 559)","(1053, 590)","(1072, 618)","(1098, 640)","(1130, 648)","(1165, 646)","(1199, 631)","(1227, 609)","(1247, 582)","(1260, 550)","(1269, 517)","(1277, 483)","(1284, 448)","(1040, 408)","(1058, 400)","(1080, 405)","(1101, 416)","(1121, 430)","(1166, 438)","(1190, 429)","(1214, 424)","(1239, 425)","(1259, 437)","(1140, 457)","(1137, 479)","(1133, 500)","(1129, 523)","(1106, 530)","(1118, 537)","(1131, 543)","(1146, 540)","(1161, 536)","(1064, 449)","(1080, 449)","(1096, 451)","(1110, 457)","(1094, 460)","(1077, 457)","(1178, 466)","(1196, 464)","(1213, 467)","(1228, 470)","(1212, 476)","(1194, 473)","(1088, 564)","(1104, 562)","(1120, 561)","(1132, 565)","(1145, 563)","(1164, 567)","(1185, 572)","(1165, 588)","(1146, 594)","(1132, 595)","(1119, 592)","(1103, 583)","(1096, 566)","(1119, 571)","(1132, 574)","(1145, 574)","(1175, 573)","(1146, 578)","(1133, 578)","(1120, 575)",0.18,0.96,35.0,0.37,0.12,0.37,0.02,-11.5,0.08,0.34,28.4,61.1,112.5,20.05,45.55,114.65,27.0,59.35,106.11
3400,-655360,86,-56,-1,-1,0,"(1033, 411)","(1031, 447)","(1031, 482)","(1035, 516)","(1043, 549)","(1056, 583)","(1076, 611)","(1101, 635)","(1133, 643)","(1168, 641)","(1199, 624)","(1226, 601)","(1246, 575)","(1260, 544)","(1269, 512)","(1276, 479)","(1280, 445)","(1047, 402)","(1065, 394)","(1086, 396)","(1108, 406)","(1128, 421)","(1175, 429)","(1198, 420)","(1222, 416)","(1246, 418)","(1263, 431)","(1149, 448)","(1145, 470)","(1141, 491)","(1138, 514)","(1112, 521)","(1124, 528)","(1138, 534)","(1153, 531)","(1166, 527)","(1072, 441)","(1087, 441)","(1103, 443)","(1117, 448)","(1101, 450)","(1085, 448)","(1185, 457)","(1203, 455)","(1219, 458)","(1233, 462)","(1217, 466)","(1201, 464)","(1092, 554)","(1109, 552)","(1125, 552)","(1137, 556)","(1151, 553)","(1170, 557)","(1189, 563)","(1170, 581)","(1151, 588)","(1137, 589)","(1123, 586)","(1107, 576)","(1101, 557)","(1124, 563)","(1137, 565)","(1150, 565)","(1180, 564)","(1152, 571)","(1138, 572)","(1125, 569)",0.18,0.93,35.0,0.37,0.12,0.39,0.03,-10.0,0.06,0.33,28.3,61.0,111.0,22.2,47.85,117.0,26.76,56.82,103.23
3433,-786432,86,-56,-1,-1,0,"(1041, 404)","(1041, 440)","(1042, 475)","(1045, 509)","(1053, 542)","(1067, 573)","(1087, 600)","(1112, 621)","(1143, 630)","(1178, 627)","(1211, 612)","(1239, 590)","(1261, 563)","(1275, 532)","(1284, 500)","(1291, 466)","(1297, 431)","(1057, 391)","(1074, 384)","(1095, 388)","(1115, 398)","(1134, 411)","(1181, 419)","(1205, 410)","(1229, 405)","(1253, 407)","(1272, 419)","(1155, 440)","(1151, 460)","(1147, 481)","(1144, 503)","(1120, 511)","(1131, 518)","(1144, 523)","(1159, 521)","(1173, 517)","(1081, 432)","(1096, 433)","(1111, 435)","(1125, 440)","(1109, 443)","(1093, 441)","(1192, 449)","(1209, 448)","(1225, 450)","(1240, 452)","(1224, 458)","(1207, 456)","(1101, 544)","(1117, 541)","(1132, 541)","(1144, 545)","(1156, 543)","(1175, 547)","(1195, 553)","(1175, 570)","(1157, 576)","(1143, 576)","(1130, 573)","(1116, 564)","(1110, 547)","(1132, 551)","(1143, 554)","(1156, 553)","(1185, 554)","(1157, 559)","(1145, 560)","(1133, 557)",0.16,0.96,35.0,0.36,0.12,0.36,0.02,-10.0,0.07,0.33,29.5,62.9,113.6,21.45,47.2,116.65,25.0,56.11,101.52
3466,-983040,86,-56,-1,-1,0,"(1049, 399)","(1048, 434)","(1050, 469)","(1052, 502)","(1059, 535)","(1073, 566)","(1093, 592)","(1119, 612)","(1151, 621)","(1185, 619)","(1217, 604)","(1244, 583)","(1264, 557)","(1277, 527)","(1286, 495)","(1294, 462)","(1300, 428)","(1065, 383)","(1082, 375)","(1103, 379)","(1123, 389)","(1141, 403)","(1188, 410)","(1210, 402)","(1233, 398)","(1257, 399)","(1276, 411)","(1161, 429)","(1158, 449)","(1154, 470)","(1151, 491)","(1128, 499)","(1139, 506)","(1151, 511)","(1165, 508)","(1179, 505)","(1089, 423)","(1104, 423)","(1118, 425)","(1132, 430)","(1116, 433)","(1101, 431)","(1198, 439)","(1214, 438)","(1230, 440)","(1245, 443)","(1229, 448)","(1213, 446)","(1108, 533)","(1124, 529)","(1140, 528)","(1152, 532)","(1165, 530)","(1183, 534)","(1202, 542)","(1183, 558)","(1165, 564)","(1151, 564)","(1138, 562)","(1123, 552)","(1117, 535)","(1140, 539)","(1151, 541)","(1164, 541)","(1193, 543)","(1165, 548)","(1153, 548)","(1141, 545)",0.17,0.93,35.0,0.35,0.13,0.37,0.02,-10.0,0.07,0.32,27.2,61.0,110.8,22.6,48.65,118.4,25.17,57.29,102.23
3500,-1179648,86,-56,-1,-1,0,"(1058, 379)","(1055, 413)","(1055, 446)","(1058, 479)","(1063, 512)","(1074, 545)","(1093, 575)","(1117, 598)","(1149, 607)","(1183, 606)","(1215, 592)","(1241, 569)","(1261, 543)","(1275, 513)","(1286, 482)","(1294, 450)","(1299, 417)","(1070, 374)","(1086, 364)","(1106, 364)","(1128, 372)","(1148, 385)","(1199, 393)","(1222, 386)","(1246, 385)","(1268, 391)","(1283, 405)","(1170, 416)","(1166, 437)","(1163, 459)","(1160, 481)","(1135, 488)","(1146, 495)","(1159, 501)","(1173, 498)","(1187, 495)","(1093, 402)","(1108, 400)","(1125, 403)","(1139, 414)","(1122, 416)","(1104, 412)","(1204, 424)","(1222, 418)","(1239, 421)","(1253, 428)","(1238, 434)","(1220, 431)","(1114, 521)","(1130, 518)","(1147, 518)","(1159, 522)","(1171, 521)","(1189, 525)","(1208, 533)","(1188, 547)","(1169, 552)","(1155, 552)","(1142, 549)","(1127, 539)","(1122, 523)","(1146, 529)","(1158, 531)","(1171, 531)","(1199, 533)","(1171, 537)","(1158, 537)","(1145, 534)",0.26,0.92,35.0,0.39,0.14,0.39,0.02,-16.0,0.07,0.34,32.6,69.8,121.4,23.5,49.45,119.45,20.7,48.64,90.52
3533,2555904,86,-56,-1,-1,0,"(1069, 384)","(1069, 418)","(1070, 451)","(1072, 483)","(1078, 515)","(1092, 545)","(1113, 569)","(1138, 588)","(1170, 597)","(1203, 595)","(1237, 582)","(1266, 562)","(1286, 536)","(1299, 506)","(1305, 473)","(1311, 440)","(1315, 406)","(1085, 365)","(1101, 357)","(1121, 360)","(1140, 369)","(1158, 381)","(1204, 388)","(1227, 380)","(1249, 376)","(1271, 379)","(1289, 391)","(1178, 408)","(1174, 426)","(1171, 445)","(1168, 464)","(1147, 475)","(1157, 481)","(1169, 485)","(1182, 484)","(1194, 481)","(1109, 403)","(1122, 402)","(1137, 404)","(1150, 409)","(1135, 411)","(1120, 410)","(1213, 417)","(1229, 415)","(1243, 417)","(1258, 421)","(1242, 425)","(1227, 423)","(1130, 510)","(1144, 503)","(1158, 502)","(1170, 505)","(1182, 504)","(1200, 510)","(1218, 520)","(1200, 533)","(1182, 538)","(1168, 538)","(1156, 535)","(1142, 527)","(1138, 511)","(1158, 513)","(1169, 515)","(1181, 515)","(1209, 520)","(1182, 523)","(1170, 522)","(1158, 520)",0.18,0.99,35.0,0.35,0.12,0.35,0.02,-9.5,0.06,0.29,31.0,65.5,117.0,23.0,49.35,118.5,25.41,57.05,101.64
3566,-1638400,87,-56,-1,-1,0,"(1086, 369)","(1085, 400)","(1086, 431)","(1089, 460)","(1096, 490)","(1108, 519)","(1125, 544)","(1147, 563)","(1175, 570)","(1205, 568)","(1233, 554)","(1257, 533)","(1275, 509)","(1288, 482)","(1296, 453)","(1302, 424)","(1305, 394)","(1099, 360)","(1114, 353)","(1133, 357)","(1151, 366)","(1168, 378)","(1209, 384)","(1230, 376)","(1250, 371)","(1271, 372)","(1288, 382)","(1186, 401)","(1183, 419)","(1180, 438)","(1177, 457)","(1155, 465)","(1165, 471)","(1177, 476)","(1190, 473)","(1202, 469)","(1119, 395)","(1132, 395)","(1146, 397)","(1159, 401)","(1144, 404)","(1130, 402)","(1217, 408)","(1233, 406)","(1247, 408)","(1261, 411)","(1246, 416)","(1231, 414)","(1138, 496)","(1152, 493)","(1166, 492)","(1177, 495)","(1188, 493)","(1204, 496)","(1221, 501)","(1205, 516)","(1189, 523)","(1176, 524)","(1165, 521)","(1151, 513)","(1146, 498)","(1166, 501)","(1176, 503)","(1188, 502)","(1213, 502)","(1189, 508)","(1178, 509)","(1167, 507)",0.18,0.93,35.0,0.38,0.11,0.37,0.02,-9.5,0.07,0.33,25.9,58.9,107.6,21.8,46.95,116.9,24.0,55.23,101.76
3600,-1638400,87,-56,-1,-1,0,"(1095, 362)","(1095, 393)","(1096, 424)","(1098, 453)","(1105, 482)","(1117, 509)","(1134, 533)","(1156, 551)","(1183, 557)","(1212, 555)","(1240, 541)","(1262, 522)","(1279, 499)","(1292, 472)","(1299, 444)","(1305, 416)","(1310, 386)","(1106, 354)","(1122, 348)","(1141, 352)","(1159, 361)","(1176, 373)","(1216, 379)","(1236, 371)","(1256, 366)","(1277, 367)","(1294, 377)","(1194, 394)","(1191, 413)","(1188, 431)","(1185, 450)","(1164, 457)","(1174, 462)","(1186, 467)","(1198, 465)","(1210, 461)","(1128, 388)","(1142, 388)","(1155, 390)","(1168, 394)","(1153, 397)","(1139, 395)","(1224, 401)","(1240, 400)","(1254, 402)","(1267, 404)","(1253, 409)","(1238, 407)","(1145, 484)","(1160, 483)","(1174, 482)","(1185, 485)","(1196, 483)","(1212, 485)","(1230, 490)","(1213, 506)","(1197, 512)","(1185, 513)","(1173, 511)","(1159, 502)","(1153, 487)","(1174, 491)","(1185, 492)","(1196, 492)","(1222, 491)","(1197, 498)","(1186, 499)","(1175, 497)",0.16,0.92,35.0,0.38,0.11,0.39,0.03,-9.0,0.07,0.34,24.3,58.0,106.5,20.9,47.2,117.1,22.7,53.94,100.17
