milliseconds, ECG, ECG HR, PPG, PPG HR, SpO2, PI
0,-1179648,76,-56,-1,-1,0
33,-1245184,76,-56,-1,-1,0
66,-1245184,76,-56,-1,-1,0
100,-1114112,76,-56,-1,-1,0
133,-1179648,76,-56,-1,-1,0
166,-1310720,76,-56,-1,-1,0
200,458752,76,-56,-1,-1,0
233,5308416,76,-56,-1,-1,0
266,-1310720,76,-56,-1,-1,0
300,-917504,76,-56,-1,-1,0
333,-196608,76,-56,-1,-1,0
366,1376256,76,-56,-1,-1,0
400,3735552,76,-56,-1,-1,0
433,2883584,76,-56,-1,-1,0
466,-196608,76,-56,-1,-1,0
500,-917504,76,-56,-1,-1,0
533,-786432,76,-56,-1,-1,0
566,-720896,76,-56,-1,-1,0
600,-983040,76,-56,-1,-1,0
633,-1114112,76,-56,-1,-1,0
666,-1179648,76,-56,-1,-1,0
700,-1245184,76,-56,-1,-1,0
733,-1376256,76,-56,-1,-1,0
766,-1048576,76,-56,-1,-1,0
800,-1376256,76,-56,-1,-1,0
833,-1835008,76,-56,-1,-1,0
866,12713984,76,-56,-1,-1,0
900,-1114112,76,-56,-1,-1,0
933,-1179648,76,-56,-1,-1,0
966,-720896,76,-56,-1,-1,0
1000,262144,76,-56,-1,-1,0
1033,2555904,76,-56,-1,-1,0
1066,3407872,76,-56,-1,-1,0
1100,524288,76,-56,-1,-1,0
1133,-851968,76,-56,-1,-1,0
1166,-983040,76,-56,-1,-1,0
1200,-786432,76,-56,-1,-1,0
1233,-917504,76,-56,-1,-1,0
1266,-1114112,76,-56,-1,-1,0
1300,-1245184,76,-56,-1,-1,0
1333,-1310720,76,-56,-1,-1,0
1366,-1441792,76,-56,-1,-1,0
1400,-1245184,76,-56,-1,-1,0
1433,-1376256,76,-56,-1,-1,0
1466,-1572864,76,-56,-1,-1,0
1500,6094848,76,-56,-1,-1,0
1533,-917504,76,-56,-1,-1,0
1566,-1441792,76,-56,-1,-1,0
1600,-983040,76,-56,-1,-1,0
1633,-196608,76,-56,-1,-1,0
1666,1835008,76,-56,-1,-1,0
1700,3473408,76,-56,-1,-1,0
1733,1441792,76,-56,-1,-1,0
1766,-851968,76,-56,-1,-1,0
1800,-1048576,76,-56,-1,-1,0
1833,-917504,76,-56,-1,-1,0
1866,-983040,76,-56,-1,-1,0
1900,-1114112,76,-56,-1,-1,0
1933,-1179648,76,-56,-1,-1,0
1966,-1310720,76,-56,-1,-1,0
2000,-1376256,76,-56,-1,-1,0
2033,-1114112,76,-56,-1,-1,0
2066,-1441792,76,-56,-1,-1,0
2100,-1769472,76,-56,-1,-1,0
2133,11468800,76,-56,-1,-1,0
2166,-1441792,76,-56,-1,-1,0
2200,-1245184,76,-56,-1,-1,0
2233,-720896,76,-56,-1,-1,0
2266,262144,76,-56,-1,-1,0
2300,2752512,76,-56,-1,-1,0
2333,3801088,76,-56,-1,-1,0
2366,851968,76,-56,-1,-1,0
2400,-983040,76,-56,-1,-1,0
2433,-917504,76,-56,-1,-1,0
2466,-786432,76,-56,-1,-1,0
2500,-917504,76,-56,-1,-1,0
2533,-1114112,76,-56,-1,-1,0
2566,-1245184,76,-56,-1,-1,0
2600,-1310720,76,-56,-1,-1,0
2633,-1310720,76,-56,-1,-1,0
2666,-1114112,76,-56,-1,-1,0
2700,-1441792,76,-56,-1,-1,0
2733,-1900544,76,-56,-1,-1,0
2766,13238272,76,-56,-1,-1,0
2800,-1245184,76,-56,-1,-1,0
2833,-1114112,76,-56,-1,-1,0
2866,-589824,76,-56,-1,-1,0
2900,589824,76,-56,-1,-1,0
2933,3014656,76,-56,-1,-1,0
2966,3276800,76,-56,-1,-1,0
3000,65536,76,-56,-1,-1,0
3033,-917504,76,-56,-1,-1,0
3066,-917504,76,-56,-1,-1,0
3100,-786432,76,-56,-1,-1,0
3133,-851968,76,-56,-1,-1,0
3166,-1114112,76,-56,-1,-1,0
3200,-1179648,76,-56,-1,-1,0
3233,-1245184,76,-56,-1,-1,0
3266,-1310720,76,-56,-1,-1,0
3300,-1179648,76,-56,-1,-1,0
3333,-1179648,76,-56,-1,-1,0
3366,-1376256,76,-56,-1,-1,0
3400,1310720,76,-56,-1,-1,0
3433,3604480,76,-56,-1,-1,0
3466,-1245184,76,-56,-1,-1,0
3500,-983040,76,-56,-1,-1,0
3533,-196608,76,-56,-1,-1,0
3566,1376256,76,-56,-1,-1,0
3600,3407872,76,-56,-1,-1,0
3633,2228224,76,-56,-1,-1,0
3666,-458752,76,-56,-1,-1,0
3699,-917504,76,-56,-1,-1,0
3733,-786432,76,-56,-1,-1,0
3766,-786432,76,-56,-1,-1,0
3800,-917504,76,-56,-1,-1,0
3833,-1048576,76,-56,-1,-1,0
3866,-1114112,76,-56,-1,-1,0
3900,-1179648,76,-56,-1,-1,0
3933,-1179648,76,-56,-1,-1,0
3966,-1179648,76,-56,-1,-1,0
4000,-983040,76,-56,-1,-1,0
4033,-1245184,76,-56,-1,-1,0
4066,-1835008,76,-56,-1,-1,0
4100,12910592,76,-56,-1,-1,0
4133,-1048576,76,-56,-1,-1,0
4166,-1114112,76,-56,-1,-1,0
4200,-589824,76,-56,-1,-1,0
4233,393216,76,-56,-1,-1,0
4266,2621440,76,-56,-1,-1,0
4300,3276800,76,-56,-1,-1,0
4333,458752,76,-56,-1,-1,0
4366,-917504,76,-56,-1,-1,0
4400,-917504,76,-56,-1,-1,0
4433,-917504,76,-56,-1,-1,0
4466,-983040,76,-56,-1,-1,0
4500,-1114112,76,-56,-1,-1,0
4533,-1245184,76,-56,-1,-1,0
4566,-1179648,76,-56,-1,-1,0
4600,-1245184,76,-56,-1,-1,0
4633,-1376256,76,-56,-1,-1,0
4666,-1048576,76,-56,-1,-1,0
4700,-1376256,76,-56,-1,-1,0
4733,-1572864,76,-56,-1,-1,0
4766,9437184,76,-56,-1,-1,0
4800,-1245184,76,-56,-1,-1,0
4833,-1114112,75,-56,-1,-1,0
4866,-589824,75,-56,-1,-1,0
4900,262144,75,-56,-1,-1,0
4933,2555904,75,-56,-1,-1,0
4966,3866624,75,-56,-1,-1,0
5000,1376256,75,-56,-1,-1,0
5033,-720896,75,-56,-1,-1,0
5066,-917504,75,-56,-1,-1,0
5100,-720896,75,-56,-1,-1,0
5133,-851968,75,-56,-1,-1,0
5166,-983040,75,-56,-1,-1,0
5200,-1114112,75,-56,-1,-1,0
5233,-1179648,75,-56,-1,-1,0
5266,-1245184,75,-56,-1,-1,0
5300,-1310720,75,-56,-1,-1,0
5333,-1048576,75,-56,-1,-1,0
5366,-1376256,75,-56,-1,-1,0
5400,-1835008,75,-56,-1,-1,0
5433,12713984,75,-56,-1,-1,0
5466,-1245184,75,-56,-1,-1,0
5500,-1114112,75,-56,-1,-1,0
5533,-655360,75,-56,-1,-1,0
5566,393216,75,-56,-1,-1,0
5600,2818048,75,-56,-1,-1,0
5633,3538944,75,-56,-1,-1,0
5666,589824,75,-56,-1,-1,0
5700,-1114112,75,-56,-1,-1,0
5733,-1048576,75,-56,-1,-1,0
5766,-917504,75,-56,-1,-1,0
5800,-1048576,75,-56,-1,-1,0
5833,-1114112,75,-56,-1,-1,0
5866,-1114112,75,-56,-1,-1,0
5900,-851968,75,-56,-1,-1,0
5933,-1638400,75,-56,-1,-1,0
5966,-1114112,75,-56,-1,-1,0
6000,-983040,75,-56,-1,-1,0
6033,-1376256,75,-56,-1,-1,0
6066,-1638400,75,-56,-1,-1,0
6100,13041664,75,-56,-1,-1,0
6133,-1114112,76,-56,-1,-1,0
6166,-1048576,76,-56,-1,-1,0
6200,-524288,76,-56,-1,-1,0
6233,524288,76,-56,-1,-1,0
6266,2949120,76,-56,-1,-1,0
6300,3801088,76,-56,-1,-1,0
6333,1048576,76,-56,-1,-1,0
6366,-720896,76,-56,-1,-1,0
6400,-1048576,76,-56,-1,-1,0
6433,-786432,76,-56,-1,-1,0
6466,-851968,76,-56,-1,-1,0
6500,-851968,76,-56,-1,-1,0
6533,-1114112,76,-56,-1,-1,0
6566,-1179648,76,-56,-1,-1,0
6600,-1179648,76,-56,-1,-1,0
6633,-786432,76,-56,-1,-1,0
6666,-1114112,76,-56,-1,-1,0
6700,-1507328,76,-56,-1,-1,0
6733,11468800,76,-56,-1,-1,0
6766,-1048576,76,-56,-1,-1,0
6800,-1114112,76,-56,-1,-1,0
6833,-458752,76,-56,-1,-1,0
6866,786432,76,-56,-1,-1,0
6899,3145728,76,-56,-1,-1,0
6933,3211264,76,-56,-1,-1,0
6966,262144,76,-56,-1,-1,0
7000,-1048576,76,-56,-1,-1,0
7033,-1310720,76,-56,-1,-1,0
7066,-1245184,76,-56,-1,-1,0
7100,-1441792,76,-56,-1,-1,0
7133,-1769472,76,-56,-1,-1,0
7166,-1835008,76,-56,-1,-1,0
7200,-2097152,76,-56,-1,-1,0
7233,-1572864,76,-56,-1,-1,0
7266,-1835008,76,-56,-1,-1,0
7300,-2031616,76,-56,-1,-1,0
7333,6225920,76,-56,-1,-1,0
7366,-1703936,76,-56,-1,-1,0
7399,-1638400,76,-56,-1,-1,0
7433,-1376256,76,-56,-1,-1,0
7466,-262144,76,-56,-1,-1,0
7500,1835008,76,-56,-1,-1,0
7533,3670016,76,-56,-1,-1,0
7566,1703936,76,-56,-1,-1,0
7600,-983040,76,-56,-1,-1,0
7633,-983040,76,-56,-1,-1,0
7666,-1048576,76,-56,-1,-1,0
7700,-983040,76,-56,-1,-1,0
7733,-1114112,76,-56,-1,-1,0
7766,-1245184,76,-56,-1,-1,0
7800,-1376256,76,-56,-1,-1,0
7833,-524288,76,-56,-1,-1,0
7866,-1179648,76,-56,-1,-1,0
7899,-1638400,77,-56,-1,-1,0
7933,11730944,77,-56,-1,-1,0
7966,-1376256,77,-56,-1,-1,0
8000,-917504,77,-56,-1,-1,0
8033,-917504,77,-56,-1,-1,0
8066,131072,77,-56,-1,-1,0
8100,2293760,77,-56,-1,-1,0
8133,2883584,77,-56,-1,-1,0
8166,393216,77,-56,-1,-1,0
8200,-1310720,77,-56,-1,-1,0
8233,-1245184,77,-56,-1,-1,0
8266,-1310720,77,-56,-1,-1,0
8300,-1114112,77,-56,-1,-1,0
8333,-1638400,77,-56,-1,-1,0
8366,-1638400,77,-56,-1,-1,0
8400,-1310720,77,-56,-1,-1,0
8433,-1835008,77,-56,-1,-1,0
8466,-1310720,78,-56,-1,-1,0
8500,4194304,78,-56,-1,-1,0
8533,524288,78,-56,-1,-1,0
8566,-1048576,78,-56,-1,-1,0
8600,-589824,78,-56,-1,-1,0
8633,589824,78,-56,-1,-1,0
8666,2424832,78,-56,-1,-1,0
8700,4653056,78,-56,-1,-1,0
8733,2359296,78,-56,-1,-1,0
8766,0,78,-56,-1,-1,0
8800,-655360,78,-56,-1,-1,0
8833,-655360,78,-56,-1,-1,0
8866,-1048576,78,-56,-1,-1,0
8900,-1310720,78,-56,-1,-1,0
8933,-2621440,78,-56,-1,-1,0
8966,-2097152,78,-56,-1,-1,0
9000,-2097152,78,-56,-1,-1,0
9033,-1441792,78,-56,-1,-1,0
9066,9633792,78,-56,-1,-1,0
9100,-2359296,78,-56,-1,-1,0
9133,-2293760,78,-56,-1,-1,0
9166,-2818048,78,-56,-1,-1,0
9200,-524288,78,-56,-1,-1,0
9233,1572864,78,-56,-1,-1,0
9266,1310720,78,-56,-1,-1,0
9300,-1310720,78,-56,-1,-1,0
9333,-2097152,78,-56,-1,-1,0
9366,-1507328,78,-56,-1,-1,0
9400,-1769472,78,-56,-1,-1,0
9433,-1310720,78,-56,-1,-1,0
9466,-1376256,78,-56,-1,-1,0
9500,-1310720,79,-56,-1,-1,0
9533,-1048576,79,-56,-1,-1,0
9566,-720896,79,-56,-1,-1,0
9600,9240576,79,-56,-1,-1,0
9633,-1376256,79,-56,-1,-1,0
9666,-131072,79,-56,-1,-1,0
9700,0,79,-56,-1,-1,0
9733,1048576,79,-56,-1,-1,0
9766,3801088,79,-56,-1,-1,0
9800,2293760,79,-56,-1,-1,0
9833,-262144,79,-56,-1,-1,0
9866,-851968,79,-56,-1,-1,0
9900,-1310720,79,-56,-1,-1,0
9933,-917504,79,-56,-1,-1,0
9966,-1114112,80,-56,-1,-1,0
10000,-786432,80,-56,-1,-1,0
10033,-1179648,80,-56,-1,-1,0
10066,-1769472,80,-56,-1,-1,0
10100,9306112,80,-56,-1,-1,0
10133,-1441792,80,-56,-1,-1,0
10166,-1048576,80,-56,-1,-1,0
10200,-327680,80,-56,-1,-1,0
10233,0,80,-56,-1,-1,0
10266,3014656,80,-56,-1,-1,0
10300,4456448,80,-56,-1,-1,0
10333,1703936,80,-56,-1,-1,0
10366,-262144,80,-56,-1,-1,0
10400,-1376256,80,-56,-1,-1,0
10433,-1179648,80,-56,-1,-1,0
10466,-786432,81,-56,-1,-1,0
10500,-1245184,81,-56,-1,-1,0
10533,-1310720,81,-56,-1,-1,0
10566,-4587520,81,-56,-1,-1,0
10600,10289152,81,-56,-1,-1,0
10633,-2752512,81,-56,-1,-1,0
10666,-2293760,81,-56,-1,-1,0
10700,-2883584,81,-56,-1,-1,0
10733,-983040,81,-56,-1,-1,0
10766,1048576,81,-56,-1,-1,0
10800,1638400,81,-56,-1,-1,0
10833,-1048576,81,-56,-1,-1,0
10866,-1769472,81,-56,-1,-1,0
10900,-786432,81,-56,-1,-1,0
10933,-2031616,81,-56,-1,-1,0
10966,-1507328,83,-56,-1,-1,0
11000,-1900544,83,-56,-1,-1,0
11033,-2097152,83,-56,-1,-1,0
11066,589824,83,-56,-1,-1,0
11100,2686976,83,-56,-1,-1,0
11133,-1835008,83,-56,-1,-1,0
11166,-1310720,83,-56,-1,-1,0
11200,-655360,83,-56,-1,-1,0
11233,983040,83,-56,-1,-1,0
11266,3211264,83,-56,-1,-1,0
11300,1638400,83,-56,-1,-1,0
11333,-1245184,83,-56,-1,-1,0
11366,-1441792,83,-56,-1,-1,0
11400,-983040,86,-56,-1,-1,0
11433,-917504,86,-56,-1,-1,0
11466,-1114112,86,-56,-1,-1,0
11500,-1507328,86,-56,-1,-1,0
11533,-1441792,86,-56,-1,-1,0
11566,14417920,86,-56,-1,-1,0
11600,-851968,86,-56,-1,-1,0
11633,196608,86,-56,-1,-1,0
11666,-262144,86,-56,-1,-1,0
11700,1441792,86,-56,-1,-1,0
11733,3276800,86,-56,-1,-1,0
11766,3997696,86,-56,-1,-1,0
11800,1179648,86,-56,-1,-1,0
11833,-393216,86,-56,-1,-1,0
11866,-1179648,89,-56,-1,-1,0
11900,-2031616,89,-56,-1,-1,0
11933,-1900544,89,-56,-1,-1,0
11966,-1114112,89,-56,-1,-1,0
12000,-1441792,89,-56,-1,-1,0
12033,7471104,89,-56,-1,-1,0
12066,-4325376,89,-56,-1,-1,0
12100,-3866624,89,-56,-1,-1,0
12133,-2752512,89,-56,-1,-1,0
12166,-1638400,89,-56,-1,-1,0
12200,1441792,89,-56,-1,-1,0
12233,458752,89,-56,-1,-1,0
12266,-2031616,89,-56,-1,-1,0
12300,-1835008,89,-56,-1,-1,0
12333,-2490368,89,-56,-1,-1,0
12366,-1703936,89,-56,-1,-1,0
12400,-1966080,89,-56,-1,-1,0
12433,-2162688,89,-56,-1,-1,0
12466,-65536,89,-56,-1,-1,0
12500,6684672,89,-56,-1,-1,0
12533,-1572864,89,-56,-1,-1,0
12566,-589824,89,-56,-1,-1,0
12600,65536,89,-56,-1,-1,0
12633,1507328,89,-56,-1,-1,0
12666,3145728,89,-56,-1,-1,0
12700,1900544,89,-56,-1,-1,0
12733,-327680,89,-56,-1,-1,0
12766,-393216,89,-56,-1,-1,0
12800,-786432,92,-56,-1,-1,0
12833,-524288,92,-56,-1,-1,0
12866,-983040,92,-56,-1,-1,0
12900,-1441792,92,-56,-1,-1,0
12933,5832704,92,-56,-1,-1,0
12966,-458752,92,-56,-1,-1,0
13000,-1507328,92,-56,-1,-1,0
13033,-1179648,92,-56,-1,-1,0
13066,-589824,92,-56,-1,-1,0
13100,1769472,92,-56,-1,-1,0
13133,3080192,92,-56,-1,-1,0
13166,524288,92,-56,-1,-1,0
13200,-393216,92,-56,-1,-1,0
13233,-720896,95,-56,-1,-1,0
13266,-393216,95,-56,-1,-1,0
13299,-720896,95,-56,-1,-1,0
13333,-1703936,95,-56,-1,-1,0
13366,-2686976,95,-56,-1,-1,0
13400,14942208,95,-56,-1,-1,0
13433,-2359296,95,-56,-1,-1,0
13466,-2555904,95,-56,-1,-1,0
13500,-2752512,95,-56,-1,-1,0
13533,-983040,95,-56,-1,-1,0
13566,851968,95,-56,-1,-1,0
13600,851968,95,-56,-1,-1,0
13633,-1572864,95,-56,-1,-1,0
13666,-2490368,98,-56,-1,-1,0
13700,-1179648,98,-56,-1,-1,0
13733,-1507328,98,-56,-1,-1,0
13766,-2031616,98,-56,-1,-1,0
13799,-1835008,98,-56,-1,-1,0
13833,4194304,98,-56,-1,-1,0
13866,196608,98,-56,-1,-1,0
13900,-1572864,98,-56,-1,-1,0
13933,-1507328,98,-56,-1,-1,0
13966,-196608,98,-56,-1,-1,0
14000,1245184,98,-56,-1,-1,0
14033,2424832,98,-56,-1,-1,0
14066,1114112,98,-56,-1,-1,0
14100,-851968,98,-56,-1,-1,0
14133,-1114112,101,-56,-1,-1,0
14166,-1638400,101,-56,-1,-1,0
14200,-1310720,101,-56,-1,-1,0
14233,-1900544,101,-56,-1,-1,0
14266,-2293760,101,-56,-1,-1,0
14299,15400960,101,-56,-1,-1,0
14333,-1572864,101,-56,-1,-1,0
14366,-1769472,101,-56,-1,-1,0
14400,-1376256,101,-56,-1,-1,0
14433,-131072,101,-56,-1,-1,0
14466,1703936,101,-56,-1,-1,0
14500,1900544,101,-56,-1,-1,0
14533,-786432,101,-56,-1,-1,0
14566,-1376256,104,-56,-1,-1,0
14600,-1507328,104,-56,-1,-1,0
14633,-1638400,104,-56,-1,-1,0
14666,-917504,104,-56,-1,-1,0
14700,-1638400,104,-56,-1,-1,0
14733,11665408,104,-56,-1,-1,0
14766,-1048576,104,-56,-1,-1,0
14799,-917504,104,-56,-1,-1,0
14833,-327680,104,-56,-1,-1,0
14866,196608,104,-56,-1,-1,0
14900,2097152,104,-56,-1,-1,0
14933,2031616,104,-56,-1,-1,0
14966,-1638400,104,-56,-1,-1,0
15000,-1703936,104,-56,-1,-1,0
15033,-1835008,104,-56,-1,-1,0
15066,-983040,104,-56,-1,-1,0
15100,-1966080,104,-56,-1,-1,0
15133,-2490368,104,-56,-1,-1,0
15166,4915200,104,-56,-1,-1,0
15200,-1507328,104,-56,-1,-1,0
15233,-720896,104,-56,-1,-1,0
15266,-983040,104,-56,-1,-1,0
15299,-262144,104,-56,-1,-1,0
15333,327680,104,-56,-1,-1,0
15366,1441792,104,-56,-1,-1,0
15400,393216,104,-56,-1,-1,0
15433,-327680,106,-56,-1,-1,0
15466,-65536,106,-56,-1,-1,0
15500,-589824,106,-56,-1,-1,0
15533,-458752,106,-56,-1,-1,0
15566,-720896,106,-56,-1,-1,0
15600,1638400,106,-56,-1,-1,0
15633,2686976,106,-56,-1,-1,0
15666,-1703936,106,-56,-1,-1,0
15700,-1376256,106,-56,-1,-1,0
15733,-589824,106,-56,-1,-1,0
15766,720896,106,-56,-1,-1,0
15799,1769472,106,-56,-1,-1,0
15833,786432,106,-56,-1,-1,0
15866,-786432,107,-56,-1,-1,0
15900,-851968,107,-56,-1,-1,0
15933,-851968,107,-56,-1,-1,0
15966,-1048576,107,-56,-1,-1,0
16000,-589824,107,-56,-1,-1,0
16033,1441792,107,-56,-1,-1,0
16066,3670016,107,-56,-1,-1,0
16100,-1179648,107,-56,-1,-1,0
16133,-1376256,107,-56,-1,-1,0
16166,-65536,107,-56,-1,-1,0
16200,196608,107,-56,-1,-1,0
16233,1310720,107,-56,-1,-1,0
16266,196608,107,-56,-1,-1,0
16300,-2293760,109,-56,-1,-1,0
16333,-2490368,109,-56,-1,-1,0
16366,-2359296,109,-56,-1,-1,0
16400,0,109,-56,-1,-1,0
16433,-2097152,109,-56,-1,-1,0
16466,4980736,109,-56,-1,-1,0
16500,-1441792,109,-56,-1,-1,0
16533,-2621440,109,-56,-1,-1,0
16566,-1966080,109,-56,-1,-1,0
16600,-1114112,109,-56,-1,-1,0
16633,0,109,-56,-1,-1,0
16666,917504,109,-56,-1,-1,0
16700,262144,109,-56,-1,-1,0
16733,-589824,109,-56,-1,-1,0
16766,-983040,109,-56,-1,-1,0
16800,-917504,109,-56,-1,-1,0
16833,-1310720,109,-56,-1,-1,0
16866,-1507328,109,-56,-1,-1,0
16900,11075584,109,-56,-1,-1,0
16933,-1114112,109,-56,-1,-1,0
16966,-1376256,109,-56,-1,-1,0
17000,-786432,109,-56,-1,-1,0
17033,-196608,109,-56,-1,-1,0
17066,1507328,109,-56,-1,-1,0
17100,1966080,109,-56,-1,-1,0
17133,327680,110,-56,-1,-1,0
17166,-786432,110,-56,-1,-1,0
17200,-786432,110,-56,-1,-1,0
17233,-786432,110,-56,-1,-1,0
17266,-1376256,110,-56,-1,-1,0
17300,-2228224,110,-56,-1,-1,0
17333,13303808,110,-56,-1,-1,0
17366,-1310720,110,-56,-1,-1,0
17400,-1245184,110,-56,-1,-1,0
17433,-720896,110,-56,-1,-1,0
17466,131072,110,-56,-1,-1,0
17500,1900544,110,-56,-1,-1,0
17533,1900544,110,-56,-1,-1,0
17566,0,111,-56,-1,-1,0
17600,-851968,111,-56,-1,-1,0
17633,-1376256,111,-56,-1,-1,0
17666,-2031616,111,-56,-1,-1,0
17700,-3866624,111,-56,-1,-1,0
17733,-196608,111,-56,-1,-1,0
17766,5505024,111,-56,-1,-1,0
17800,-3604480,111,-56,-1,-1,0
17833,-2686976,111,-56,-1,-1,0
17866,-2097152,111,-56,-1,-1,0
17900,-1048576,111,-56,-1,-1,0
17933,262144,111,-56,-1,-1,0
17966,131072,111,-56,-1,-1,0
18000,-1114112,111,-56,-1,-1,0
18033,-983040,111,-56,-1,-1,0
18066,-1179648,111,-56,-1,-1,0
18100,-1245184,111,-56,-1,-1,0
18133,-1638400,111,-56,-1,-1,0
18166,8716288,111,-56,-1,-1,0
18200,-1638400,111,-56,-1,-1,0
18233,-1572864,111,-56,-1,-1,0
18266,-1572864,111,-56,-1,-1,0
18300,-393216,111,-56,-1,-1,0
18333,1572864,111,-56,-1,-1,0
18366,1769472,111,-56,-1,-1,0
18400,196608,112,-56,-1,-1,0
18433,-589824,112,-56,-1,-1,0
18466,-720896,112,-56,-1,-1,0
18500,-589824,112,-56,-1,-1,0
18533,-1310720,112,-56,-1,-1,0
18566,-2031616,112,-56,-1,-1,0
18600,14942208,112,-56,-1,-1,0
18633,-1769472,112,-56,-1,-1,0
18666,-1310720,112,-56,-1,-1,0
18700,-1179648,112,-56,-1,-1,0
18733,0,112,-56,-1,-1,0
18766,1769472,112,-56,-1,-1,0
18800,1572864,112,-56,-1,-1,0
18833,65536,113,-56,-1,-1,0
18866,-720896,113,-56,-1,-1,0
18900,-327680,113,-56,-1,-1,0
18933,-458752,113,-56,-1,-1,0
18966,-1048576,113,-56,-1,-1,0
19000,3407872,113,-56,-1,-1,0
19033,2621440,113,-56,-1,-1,0
19066,-1376256,113,-56,-1,-1,0
19100,-1310720,113,-56,-1,-1,0
19133,-2359296,113,-56,-1,-1,0
19166,-1376256,113,-56,-1,-1,0
19200,786432,113,-56,-1,-1,0
19233,1245184,113,-56,-1,-1,0
19266,-1572864,114,-56,-1,-1,0
19300,-1769472,114,-56,-1,-1,0
19333,-1900544,114,-56,-1,-1,0
19366,-1966080,114,-56,-1,-1,0
19400,-2686976,114,-56,-1,-1,0
19433,7602176,114,-56,-1,-1,0
19466,-2424832,114,-56,-1,-1,0
19500,-2490368,114,-56,-1,-1,0
19533,-1769472,114,-56,-1,-1,0
19566,-983040,114,-56,-1,-1,0
19600,589824,114,-56,-1,-1,0
19633,1376256,114,-56,-1,-1,0
19666,-393216,114,-56,-1,-1,0
19700,-851968,115,-56,-1,-1,0
19733,-1048576,115,-56,-1,-1,0
19766,0,115,-56,-1,-1,0
19800,-983040,115,-56,-1,-1,0
19833,-1179648,115,-56,-1,-1,0
19866,7340032,115,-56,-1,-1,0
19900,-1441792,115,-56,-1,-1,0
19933,-1769472,115,-56,-1,-1,0
19966,-1376256,115,-56,-1,-1,0
20000,-655360,115,-56,-1,-1,0
20033,917504,115,-56,-1,-1,0
20066,1572864,115,-56,-1,-1,0
20100,327680,115,-56,-1,-1,0
20133,-720896,115,-56,-1,-1,0
20166,-983040,115,-56,-1,-1,0
20200,-983040,115,-56,-1,-1,0
20233,-1376256,115,-56,-1,-1,0
20266,-1769472,115,-56,-1,-1,0
20300,6160384,115,-56,-1,-1,0
20333,-1441792,115,-56,-1,-1,0
20366,-1048576,115,-56,-1,-1,0
20400,-1048576,115,-56,-1,-1,0
20433,-786432,115,-56,-1,-1,0
20466,1441792,115,-56,-1,-1,0
20500,2031616,115,-56,-1,-1,0
20533,786432,115,-56,-1,-1,0
20566,-917504,115,-56,-1,-1,0
20600,-524288,115,-56,-1,-1,0
20633,-2031616,115,-56,-1,-1,0
20666,-524288,115,-56,-1,-1,0
20700,-1245184,115,-56,-1,-1,0
20733,-2686976,115,-56,-1,-1,0
20766,13893632,115,-56,-1,-1,0
20800,-2490368,115,-56,-1,-1,0
20833,-2424832,115,-56,-1,-1,0
20866,-1835008,115,-56,-1,-1,0
20900,-262144,115,-56,-1,-1,0
20933,983040,115,-56,-1,-1,0
20966,1048576,115,-56,-1,-1,0
21000,-393216,115,-56,-1,-1,0
21033,-1048576,115,-56,-1,-1,0
21066,-786432,115,-56,-1,-1,0
21100,-1179648,115,-56,-1,-1,0
21133,-1114112,115,-56,-1,-1,0
21166,-1835008,115,-56,-1,-1,0
21200,11075584,115,-56,-1,-1,0
21233,-1441792,115,-56,-1,-1,0
21266,-1572864,115,-56,-1,-1,0
21300,-1179648,115,-56,-1,-1,0
21333,-196608,115,-56,-1,-1,0
21366,851968,115,-56,-1,-1,0
21400,1179648,115,-56,-1,-1,0
21433,0,115,-56,-1,-1,0
21466,-786432,115,-56,-1,-1,0
21500,-983040,115,-56,-1,-1,0
21533,-1376256,115,-56,-1,-1,0
21566,-1638400,115,-56,-1,-1,0
21600,-1638400,115,-56,-1,-1,0
21633,-1769472,115,-56,-1,-1,0
21666,8388608,115,-56,-1,-1,0
21700,-2097152,115,-56,-1,-1,0
21733,-1703936,115,-56,-1,-1,0
21766,-1048576,115,-56,-1,-1,0
21800,196608,115,-56,-1,-1,0
21833,1638400,115,-56,-1,-1,0
21866,589824,115,-56,-1,-1,0
21900,65536,115,-56,-1,-1,0
21933,-917504,115,-56,-1,-1,0
21966,-1245184,115,-56,-1,-1,0
22000,-655360,115,-56,-1,-1,0
22033,-458752,115,-56,-1,-1,0
22066,-1638400,115,-56,-1,-1,0
22100,11337728,115,-56,-1,-1,0
22133,-3145728,115,-56,-1,-1,0
22166,-1703936,115,-56,-1,-1,0
22200,-1835008,115,-56,-1,-1,0
22233,-589824,115,-56,-1,-1,0
22266,917504,115,-56,-1,-1,0
22300,1114112,115,-56,-1,-1,0
22333,-131072,115,-56,-1,-1,0
22366,-1245184,115,-56,-1,-1,0
22400,-524288,115,-56,-1,-1,0
22433,-1245184,115,-56,-1,-1,0
22466,-1245184,115,-56,-1,-1,0
22500,-1245184,115,-56,-1,-1,0
22533,1769472,115,-56,-1,-1,0
22566,2621440,115,-56,-1,-1,0
22600,-1441792,115,-56,-1,-1,0
22633,-851968,115,-56,-1,-1,0
22666,-262144,115,-56,-1,-1,0
22700,917504,115,-56,-1,-1,0
22733,1376256,115,-56,-1,-1,0
22766,851968,115,-56,-1,-1,0
22800,-786432,115,-56,-1,-1,0
22833,-786432,115,-56,-1,-1,0
22866,-983040,115,-56,-1,-1,0
22900,-1114112,115,-56,-1,-1,0
22933,-1507328,115,-56,-1,-1,0
22966,-1835008,115,-56,-1,-1,0
23000,8650752,115,-56,-1,-1,0
23033,-2359296,115,-56,-1,-1,0
23066,-1769472,115,-56,-1,-1,0
23100,-1507328,115,-56,-1,-1,0
23133,-458752,115,-56,-1,-1,0
23166,1245184,115,-56,-1,-1,0
23200,1310720,115,-56,-1,-1,0
23233,131072,115,-56,-1,-1,0
23266,-458752,115,-56,-1,-1,0
23300,-327680,115,-56,-1,-1,0
23333,-65536,115,-56,-1,-1,0
23366,-851968,115,-56,-1,-1,0
23400,-1114112,115,-56,-1,-1,0
23433,655360,115,-56,-1,-1,0
23466,6225920,115,-56,-1,-1,0
23500,-983040,115,-56,-1,-1,0
23533,-917504,115,-56,-1,-1,0
23566,196608,115,-56,-1,-1,0
23600,327680,115,-56,-1,-1,0
23633,1179648,115,-56,-1,-1,0
23666,-327680,115,-56,-1,-1,0
23700,-983040,115,-56,-1,-1,0
23733,-1966080,115,-56,-1,-1,0
23766,-1703936,115,-56,-1,-1,0
23800,-1900544,115,-56,-1,-1,0
23833,-2293760,115,-56,-1,-1,0
23866,-2490368,115,-56,-1,-1,0
23900,7667712,115,-56,-1,-1,0
23933,-2424832,115,-56,-1,-1,0
23966,-1638400,115,-56,-1,-1,0
24000,-1638400,115,-56,-1,-1,0
24033,-524288,115,-56,-1,-1,0
24066,524288,115,-56,-1,-1,0
24100,786432,115,-56,-1,-1,0
24133,-262144,115,-56,-1,-1,0
24166,-851968,115,-56,-1,-1,0
24200,-917504,113,-56,-1,-1,0
24233,-1179648,113,-56,-1,-1,0
24266,-786432,113,-56,-1,-1,0
24300,-917504,113,-56,-1,-1,0
24333,-1900544,113,-56,-1,-1,0
24366,13500416,113,-56,-1,-1,0
24400,-1638400,113,-56,-1,-1,0
24433,-1638400,113,-56,-1,-1,0
24466,-1114112,113,-56,-1,-1,0
24500,-458752,113,-56,-1,-1,0
24533,1245184,113,-56,-1,-1,0
24566,1048576,113,-56,-1,-1,0
24600,-262144,113,-56,-1,-1,0
24633,-786432,113,-56,-1,-1,0
24666,-983040,112,-56,-1,-1,0
24700,-1376256,112,-56,-1,-1,0
24733,-1114112,112,-56,-1,-1,0
24766,-1376256,112,-56,-1,-1,0
24800,-1310720,112,-56,-1,-1,0
24833,11141120,112,-56,-1,-1,0
24866,-1179648,112,-56,-1,-1,0
24900,-1114112,112,-56,-1,-1,0
24933,-458752,112,-56,-1,-1,0
24966,851968,112,-56,-1,-1,0
25000,2752512,112,-56,-1,-1,0
25033,1638400,112,-56,-1,-1,0
25066,-131072,112,-56,-1,-1,0
25100,131072,112,-56,-1,-1,0
25133,-917504,112,-56,-1,-1,0
25166,-983040,112,-56,-1,-1,0
25200,-1900544,112,-56,-1,-1,0
25233,-1507328,112,-56,-1,-1,0
25266,917504,112,-56,-1,-1,0
25300,2293760,112,-56,-1,-1,0
25333,-2228224,112,-56,-1,-1,0
25366,-2424832,112,-56,-1,-1,0
25400,-720896,112,-56,-1,-1,0
25433,262144,112,-56,-1,-1,0
25466,458752,112,-56,-1,-1,0
25500,-65536,112,-56,-1,-1,0
25533,-1245184,112,-56,-1,-1,0
25566,-983040,112,-56,-1,-1,0
25600,-1572864,111,-56,-1,-1,0
25633,-1310720,111,-56,-1,-1,0
25666,-1507328,111,-56,-1,-1,0
25700,-1703936,111,-56,-1,-1,0
25733,8388608,111,-56,-1,-1,0
25766,-1703936,111,-56,-1,-1,0
25800,-1638400,111,-56,-1,-1,0
25833,-1048576,111,-56,-1,-1,0
25866,-65536,111,-56,-1,-1,0
25900,1441792,111,-56,-1,-1,0
25933,1376256,111,-56,-1,-1,0
25966,0,111,-56,-1,-1,0
26000,-524288,111,-56,-1,-1,0
26033,-851968,111,-56,-1,-1,0
26066,-1245184,111,-56,-1,-1,0
26099,-1114112,111,-56,-1,-1,0
26133,-1310720,111,-56,-1,-1,0
26166,-1638400,111,-56,-1,-1,0
26200,9240576,111,-56,-1,-1,0
26233,-2162688,111,-56,-1,-1,0
26266,-1507328,111,-56,-1,-1,0
26300,-1048576,111,-56,-1,-1,0
26333,262144,111,-56,-1,-1,0
26366,1900544,111,-56,-1,-1,0
26400,1769472,111,-56,-1,-1,0
26433,393216,111,-56,-1,-1,0
26466,65536,111,-56,-1,-1,0
26500,-1048576,111,-56,-1,-1,0
26533,-983040,111,-56,-1,-1,0
26566,-917504,111,-56,-1,-1,0
26599,-1179648,111,-56,-1,-1,0
26633,-1703936,111,-56,-1,-1,0
26666,13369344,111,-56,-1,-1,0
26700,-1310720,111,-56,-1,-1,0
26733,-1179648,111,-56,-1,-1,0
26766,-1572864,111,-56,-1,-1,0
26800,327680,111,-56,-1,-1,0
26833,1179648,111,-56,-1,-1,0
26866,655360,111,-56,-1,-1,0
26900,-1376256,111,-56,-1,-1,0
26933,-1376256,111,-56,-1,-1,0
26966,-1507328,111,-56,-1,-1,0
27000,-1703936,111,-56,-1,-1,0
27033,-1376256,111,-56,-1,-1,0
27066,-2097152,111,-56,-1,-1,0
27099,-851968,111,-56,-1,-1,0
27133,6619136,111,-56,-1,-1,0
27166,-1769472,111,-56,-1,-1,0
27200,-1835008,111,-56,-1,-1,0
27233,-1114112,111,-56,-1,-1,0
27266,393216,111,-56,-1,-1,0
27300,1376256,111,-56,-1,-1,0
27333,0,111,-56,-1,-1,0
27366,393216,111,-56,-1,-1,0
27400,-720896,111,-56,-1,-1,0
27433,-851968,110,-56,-1,-1,0
27466,-983040,110,-56,-1,-1,0
27500,-1048576,110,-56,-1,-1,0
27533,-1376256,110,-56,-1,-1,0
27566,-131072,110,-56,-1,-1,0
27599,6946816,110,-56,-1,-1,0
27633,-1703936,110,-56,-1,-1,0
27666,-1310720,110,-56,-1,-1,0
27700,-524288,110,-56,-1,-1,0
27733,1441792,110,-56,-1,-1,0
27766,2228224,110,-56,-1,-1,0
27800,720896,110,-56,-1,-1,0
27833,-393216,110,-56,-1,-1,0
27866,-524288,110,-56,-1,-1,0
27900,-1179648,110,-56,-1,-1,0
27933,-1245184,110,-56,-1,-1,0
27966,-983040,110,-56,-1,-1,0
28000,-1441792,110,-56,-1,-1,0
28033,9633792,110,-56,-1,-1,0
28066,-1376256,110,-56,-1,-1,0
28099,-1179648,110,-56,-1,-1,0
28133,-524288,110,-56,-1,-1,0
28166,-327680,110,-56,-1,-1,0
28200,1048576,110,-56,-1,-1,0
28233,1310720,110,-56,-1,-1,0
28266,-458752,110,-56,-1,-1,0
28300,589824,110,-56,-1,-1,0
28333,-1441792,110,-56,-1,-1,0
28366,-1966080,110,-56,-1,-1,0
28400,-1966080,110,-56,-1,-1,0
28433,-2359296,110,-56,-1,-1,0
28466,-2097152,110,-56,-1,-1,0
28500,6684672,110,-56,-1,-1,0
28533,-1966080,110,-56,-1,-1,0
28566,-2162688,110,-56,-1,-1,0
28599,-1376256,110,-56,-1,-1,0
28633,-196608,110,-56,-1,-1,0
28666,1769472,110,-56,-1,-1,0
28700,1245184,110,-56,-1,-1,0
28733,0,110,-56,-1,-1,0
28766,-393216,110,-56,-1,-1,0
28800,-262144,110,-56,-1,-1,0
28833,-917504,109,-56,-1,-1,0
28866,-1114112,109,-56,-1,-1,0
28900,-983040,109,-56,-1,-1,0
28933,-1507328,109,-56,-1,-1,0
28966,8978432,109,-56,-1,-1,0
29000,-917504,109,-56,-1,-1,0
29033,-1376256,109,-56,-1,-1,0
29066,-1048576,109,-56,-1,-1,0
29099,-131072,109,-56,-1,-1,0
29133,1179648,109,-56,-1,-1,0
29166,786432,109,-56,-1,-1,0
29200,-458752,109,-56,-1,-1,0
29233,-851968,109,-56,-1,-1,0
29266,-1048576,109,-56,-1,-1,0
29300,-1966080,109,-56,-1,-1,0
29333,-1245184,109,-56,-1,-1,0
29366,-1441792,109,-56,-1,-1,0
29400,-1507328,109,-56,-1,-1,0
29433,7143424,109,-56,-1,-1,0
29466,-2097152,109,-56,-1,-1,0
29500,-1376256,109,-56,-1,-1,0
29533,-1245184,109,-56,-1,-1,0
29566,-196608,109,-56,-1,-1,0
29599,1769472,109,-56,-1,-1,0
29633,1441792,109,-56,-1,-1,0
29666,458752,109,-56,-1,-1,0
29700,1376256,109,-56,-1,-1,0
29733,-1703936,109,-56,-1,-1,0
29766,-1572864,109,-56,-1,-1,0
29800,-1638400,109,-56,-1,-1,0
29833,-1835008,109,-56,-1,-1,0
29866,-2555904,109,-56,-1,-1,0
29900,10944512,109,-56,-1,-1,0
29933,-2621440,109,-56,-1,-1,0
29966,-2686976,109,-56,-1,-1,0
30000,-1769472,109,-56,-1,-1,0
30033,-524288,109,-56,-1,-1,0
30066,1310720,109,-56,-1,-1,0
30099,589824,109,-56,-1,-1,0
30133,-720896,109,-56,-1,-1,0
30166,-1114112,109,-56,-1,-1,0
30200,-1703936,109,-56,-1,-1,0
30233,-1572864,109,-56,-1,-1,0
30266,-1900544,109,-56,-1,-1,0
30300,-1769472,109,-56,-1,-1,0
30333,-2162688,109,-56,-1,-1,0
30366,12124160,109,-56,-1,-1,0
30400,-1900544,109,-56,-1,-1,0
30433,-1638400,109,-56,-1,-1,0
30466,-917504,109,-56,-1,-1,0
30500,524288,109,-56,-1,-1,0
30533,1900544,109,-56,-1,-1,0
30566,720896,109,-56,-1,-1,0
30599,-327680,109,-56,-1,-1,0
30633,-458752,109,-56,-1,-1,0
30666,-458752,109,-56,-1,-1,0
30700,-1769472,109,-56,-1,-1,0
30733,-131072,109,-56,-1,-1,0
30766,-1179648,109,-56,-1,-1,0
30800,-655360,109,-56,-1,-1,0
30833,9764864,109,-56,-1,-1,0
30866,-1114112,109,-56,-1,-1,0
30900,-589824,109,-56,-1,-1,0
30933,131072,109,-56,-1,-1,0
30966,1441792,109,-56,-1,-1,0
31000,2949120,109,-56,-1,-1,0
31033,589824,109,-56,-1,-1,0
31066,-131072,109,-56,-1,-1,0
31099,-720896,109,-56,-1,-1,0
31133,-851968,109,-56,-1,-1,0
31166,262144,109,-56,-1,-1,0
31200,-524288,109,-56,-1,-1,0
31233,-1769472,109,-56,-1,-1,0
31266,8912896,109,-56,-1,-1,0
31300,-2293760,109,-56,-1,-1,0
31333,-2162688,109,-56,-1,-1,0
31366,-2293760,109,-56,-1,-1,0
31400,-458752,109,-56,-1,-1,0
31433,1835008,109,-56,-1,-1,0
31466,393216,109,-56,-1,-1,0
31500,-1179648,109,-56,-1,-1,0
31533,-1507328,109,-56,-1,-1,0
31566,-2031616,109,-56,-1,-1,0
31599,-1769472,109,-56,-1,-1,0
31633,-1507328,109,-56,-1,-1,0
31666,-2097152,109,-56,-1,-1,0
31700,-2031616,109,-56,-1,-1,0
31733,7536640,109,-56,-1,-1,0
31766,-2424832,109,-56,-1,-1,0
31800,-1376256,109,-56,-1,-1,0
31833,-1048576,109,-56,-1,-1,0
31866,131072,109,-56,-1,-1,0
31900,1245184,109,-56,-1,-1,0
31933,393216,109,-56,-1,-1,0
31966,-720896,109,-56,-1,-1,0
32000,-917504,109,-56,-1,-1,0
32033,-983040,109,-56,-1,-1,0
32066,-917504,109,-56,-1,-1,0
32100,-1114112,109,-56,-1,-1,0
32133,-1507328,109,-56,-1,-1,0
32166,6356992,109,-56,-1,-1,0
32200,-1441792,109,-56,-1,-1,0
32233,-1441792,109,-56,-1,-1,0
32266,-851968,109,-56,-1,-1,0
32299,327680,109,-56,-1,-1,0
32333,2424832,109,-56,-1,-1,0
32366,2031616,109,-56,-1,-1,0
32400,131072,109,-56,-1,-1,0
32433,-262144,109,-56,-1,-1,0
32466,-655360,109,-56,-1,-1,0
32500,-458752,109,-56,-1,-1,0
32533,-458752,109,-56,-1,-1,0
32566,-1376256,109,-56,-1,-1,0
32600,0,109,-56,-1,-1,0
32633,4128768,109,-56,-1,-1,0
32666,-1638400,109,-56,-1,-1,0
32700,-1310720,109,-56,-1,-1,0
32733,-786432,109,-56,-1,-1,0
32766,1507328,109,-56,-1,-1,0
32800,1638400,109,-56,-1,-1,0
32833,-262144,109,-56,-1,-1,0
32866,-1507328,109,-56,-1,-1,0
32900,-1179648,109,-56,-1,-1,0
32933,-1310720,109,-56,-1,-1,0
32966,-1376256,109,-56,-1,-1,0
33000,-1638400,109,-56,-1,-1,0
33033,-2555904,109,-56,-1,-1,0
33066,11796480,109,-56,-1,-1,0
33100,-1966080,109,-56,-1,-1,0
33133,-1441792,109,-56,-1,-1,0
33166,-1245184,109,-56,-1,-1,0
33200,393216,109,-56,-1,-1,0
33233,983040,109,-56,-1,-1,0
33266,393216,109,-56,-1,-1,0
33300,-917504,109,-56,-1,-1,0
33333,-655360,109,-56,-1,-1,0
33366,-1441792,109,-56,-1,-1,0
33400,-1507328,109,-56,-1,-1,0
33433,-917504,109,-56,-1,-1,0
33466,-1376256,109,-56,-1,-1,0
33500,3211264,109,-56,-1,-1,0
33533,393216,109,-56,-1,-1,0
33566,-1245184,109,-56,-1,-1,0
33600,-851968,109,-56,-1,-1,0
33633,65536,109,-56,-1,-1,0
33666,1900544,109,-56,-1,-1,0
33700,1769472,109,-56,-1,-1,0
33733,65536,109,-56,-1,-1,0
33766,-458752,109,-56,-1,-1,0
33800,-589824,109,-56,-1,-1,0
33833,-1114112,109,-56,-1,-1,0
33866,-983040,109,-56,-1,-1,0
33900,-1179648,109,-56,-1,-1,0
33933,-1507328,109,-56,-1,-1,0
33966,13369344,109,-56,-1,-1,0
34000,-1179648,109,-56,-1,-1,0
34033,-851968,109,-56,-1,-1,0
34066,-851968,109,-56,-1,-1,0
34100,1441792,109,-56,-1,-1,0
34133,3342336,109,-56,-1,-1,0
34166,1507328,109,-56,-1,-1,0
34200,-327680,109,-56,-1,-1,0
34233,-1114112,110,-56,-1,-1,0
34266,-262144,110,-56,-1,-1,0
34300,-524288,110,-56,-1,-1,0
34333,-1441792,110,-56,-1,-1,0
34366,-2228224,110,-56,-1,-1,0
34400,7471104,110,-56,-1,-1,0
34433,-2097152,110,-56,-1,-1,0
34466,-2424832,110,-56,-1,-1,0
34500,-1572864,110,-56,-1,-1,0
34533,-524288,110,-56,-1,-1,0
34566,917504,110,-56,-1,-1,0
34600,524288,110,-56,-1,-1,0
34633,-1376256,110,-56,-1,-1,0
34666,-1245184,110,-56,-1,-1,0
34700,-1900544,110,-56,-1,-1,0
34733,-1769472,110,-56,-1,-1,0
34766,-2097152,110,-56,-1,-1,0
34800,-2359296,110,-56,-1,-1,0
34833,2031616,110,-56,-1,-1,0
34866,-131072,110,-56,-1,-1,0
34900,-1572864,110,-56,-1,-1,0
34933,-1507328,110,-56,-1,-1,0
34966,-655360,110,-56,-1,-1,0
35000,1310720,110,-56,-1,-1,0
35033,1376256,110,-56,-1,-1,0
35066,0,110,-56,-1,-1,0
35100,-524288,110,-56,-1,-1,0
35133,-458752,110,-56,-1,-1,0
35166,-917504,110,-56,-1,-1,0
35200,-655360,110,-56,-1,-1,0
35233,-983040,110,-56,-1,-1,0
35266,-1114112,110,-56,-1,-1,0
35300,10289152,110,-56,-1,-1,0
35333,-1507328,110,-56,-1,-1,0
35366,-983040,110,-56,-1,-1,0
35400,0,110,-56,-1,-1,0
35433,2162688,110,-56,-1,-1,0
35466,2621440,110,-56,-1,-1,0
35500,458752,110,-56,-1,-1,0
35533,-524288,111,-56,-1,-1,0
35566,-393216,111,-56,-1,-1,0
35600,-524288,111,-56,-1,-1,0
35633,-458752,111,-56,-1,-1,0
35666,-1114112,111,-56,-1,-1,0
35700,131072,111,-56,-1,-1,0
35733,8126464,111,-56,-1,-1,0
35766,-1310720,111,-56,-1,-1,0
35800,-1441792,111,-56,-1,-1,0
35833,-720896,111,-56,-1,-1,0
35866,196608,111,-56,-1,-1,0
35900,1114112,111,-56,-1,-1,0
35933,458752,111,-56,-1,-1,0
35966,-1048576,111,-56,-1,-1,0
36000,-1900544,111,-56,-1,-1,0
36033,-2097152,111,-56,-1,-1,0
36066,-2162688,111,-56,-1,-1,0
36100,-2555904,111,-56,-1,-1,0
36133,-2293760,111,-56,-1,-1,0
36166,6356992,111,-56,-1,-1,0
36200,-2686976,111,-56,-1,-1,0
36233,-2424832,111,-56,-1,-1,0
36266,-1376256,111,-56,-1,-1,0
36300,196608,111,-56,-1,-1,0
36333,393216,111,-56,-1,-1,0
36366,-1114112,111,-56,-1,-1,0
36400,-1769472,111,-56,-1,-1,0
36433,-1572864,111,-56,-1,-1,0
36466,-1638400,111,-56,-1,-1,0
36500,-1376256,111,-56,-1,-1,0
36533,-983040,111,-56,-1,-1,0
36566,2031616,111,-56,-1,-1,0
36600,2490368,111,-56,-1,-1,0
36633,-1114112,111,-56,-1,-1,0
36666,-851968,111,-56,-1,-1,0
36700,-131072,111,-56,-1,-1,0
36733,2162688,111,-56,-1,-1,0
36766,1769472,111,-56,-1,-1,0
36800,-65536,111,-56,-1,-1,0
36833,-589824,111,-56,-1,-1,0
36866,-720896,111,-56,-1,-1,0
36900,-983040,111,-56,-1,-1,0
36933,-917504,111,-56,-1,-1,0
36966,-65536,111,-56,-1,-1,0
37000,-2555904,111,-56,-1,-1,0
37033,13500416,111,-56,-1,-1,0
37066,-1703936,111,-56,-1,-1,0
37100,-1048576,111,-56,-1,-1,0
37133,131072,111,-56,-1,-1,0
37166,1376256,111,-56,-1,-1,0
37200,2555904,111,-56,-1,-1,0
37233,589824,111,-56,-1,-1,0
37266,-458752,112,-56,-1,-1,0
37300,-393216,112,-56,-1,-1,0
37333,-524288,112,-56,-1,-1,0
37366,-720896,112,-56,-1,-1,0
37400,-1638400,112,-56,-1,-1,0
37433,-2228224,112,-56,-1,-1,0
37466,8519680,112,-56,-1,-1,0
37500,-2555904,112,-56,-1,-1,0
37533,-1966080,112,-56,-1,-1,0
37566,-1572864,112,-56,-1,-1,0
37600,786432,112,-56,-1,-1,0
37633,1572864,112,-56,-1,-1,0
37666,-1114112,112,-56,-1,-1,0
37700,-1835008,112,-56,-1,-1,0
37733,-1769472,112,-56,-1,-1,0
37766,-2293760,112,-56,-1,-1,0
37800,-2228224,112,-56,-1,-1,0
37833,-2490368,112,-56,-1,-1,0
37866,2097152,112,-56,-1,-1,0
37900,1310720,112,-56,-1,-1,0
37933,-2031616,112,-56,-1,-1,0
37966,-1966080,112,-56,-1,-1,0
38000,-458752,112,-56,-1,-1,0
38033,1769472,112,-56,-1,-1,0
38066,1376256,112,-56,-1,-1,0
38100,-196608,112,-56,-1,-1,0
38133,-393216,112,-56,-1,-1,0
38166,-655360,112,-56,-1,-1,0
38200,-851968,112,-56,-1,-1,0
38233,-1114112,112,-56,-1,-1,0
38266,-1310720,112,-56,-1,-1,0
38300,7143424,112,-56,-1,-1,0
38333,-1245184,112,-56,-1,-1,0
38366,-1310720,112,-56,-1,-1,0
38400,524288,112,-56,-1,-1,0
38433,327680,112,-56,-1,-1,0
38466,2752512,112,-56,-1,-1,0
38500,1572864,112,-56,-1,-1,0
38533,-786432,113,-56,-1,-1,0
38566,-1179648,113,-56,-1,-1,0
38600,-1245184,113,-56,-1,-1,0
38633,-1245184,113,-56,-1,-1,0
38666,-1900544,113,-56,-1,-1,0
38700,-2686976,113,-56,-1,-1,0
38733,16056320,113,-56,-1,-1,0
38766,-1310720,113,-56,-1,-1,0
38800,-1245184,113,-56,-1,-1,0
38833,0,113,-56,-1,-1,0
38866,458752,113,-56,-1,-1,0
38900,2162688,113,-56,-1,-1,0
38933,-131072,113,-56,-1,-1,0
38966,-1835008,113,-56,-1,-1,0
39000,-1638400,113,-56,-1,-1,0
39033,-1769472,113,-56,-1,-1,0
39066,-2359296,113,-56,-1,-1,0
39100,-2555904,113,-56,-1,-1,0
39133,-1507328,113,-56,-1,-1,0
39166,7143424,113,-56,-1,-1,0
39200,-2555904,113,-56,-1,-1,0
39233,-2031616,113,-56,-1,-1,0
39266,-917504,113,-56,-1,-1,0
39300,983040,113,-56,-1,-1,0
39333,1179648,113,-56,-1,-1,0
39366,-720896,113,-56,-1,-1,0
39400,-1376256,114,-56,-1,-1,0
39433,-1441792,114,-56,-1,-1,0
39466,-1638400,114,-56,-1,-1,0
39500,-1507328,114,-56,-1,-1,0
39533,-1638400,114,-56,-1,-1,0
39566,4390912,114,-56,-1,-1,0
39600,786432,114,-56,-1,-1,0
39633,-1507328,114,-56,-1,-1,0
39666,-917504,114,-56,-1,-1,0
39700,393216,114,-56,-1,-1,0
39733,2424832,114,-56,-1,-1,0
39766,1441792,114,-56,-1,-1,0
39800,-327680,115,-56,-1,-1,0
39833,-851968,115,-56,-1,-1,0
39866,-983040,115,-56,-1,-1,0
39900,-983040,115,-56,-1,-1,0
39933,-1179648,115,-56,-1,-1,0
39966,-1703936,115,-56,-1,-1,0
40000,13959168,115,-56,-1,-1,0
40033,-1703936,115,-56,-1,-1,0
40066,-2097152,115,-56,-1,-1,0
40100,-1114112,115,-56,-1,-1,0
40133,1179648,115,-56,-1,-1,0
40166,2490368,115,-56,-1,-1,0
40200,655360,115,-56,-1,-1,0
40233,-1114112,115,-56,-1,-1,0
40266,-720896,115,-56,-1,-1,0
40300,-524288,115,-56,-1,-1,0
40333,-2752512,115,-56,-1,-1,0
40366,-2031616,115,-56,-1,-1,0
40400,2555904,115,-56,-1,-1,0
40433,-393216,115,-56,-1,-1,0
40466,-3342336,115,-56,-1,-1,0
40500,-1900544,115,-56,-1,-1,0
40533,-655360,115,-56,-1,-1,0
40566,1245184,115,-56,-1,-1,0
40600,917504,115,-56,-1,-1,0
40633,-1245184,116,-56,-1,-1,0
40666,-1507328,116,-56,-1,-1,0
40700,-1572864,116,-56,-1,-1,0
40733,-1114112,116,-56,-1,-1,0
40766,-2097152,116,-56,-1,-1,0
40800,-2097152,116,-56,-1,-1,0
40833,15466496,116,-56,-1,-1,0
40866,-1769472,116,-56,-1,-1,0
40900,-983040,116,-56,-1,-1,0
40933,-589824,116,-56,-1,-1,0
40966,1114112,116,-56,-1,-1,0
41000,2293760,116,-56,-1,-1,0
41033,458752,116,-56,-1,-1,0
41066,-851968,117,-56,-1,-1,0
41100,-917504,117,-56,-1,-1,0
41133,-1114112,117,-56,-1,-1,0
41166,-1179648,117,-56,-1,-1,0
41200,-1507328,117,-56,-1,-1,0
41233,1441792,117,-56,-1,-1,0
41266,2424832,117,-56,-1,-1,0
41300,-1769472,117,-56,-1,-1,0
41333,-1376256,117,-56,-1,-1,0
41366,0,117,-56,-1,-1,0
41400,2097152,117,-56,-1,-1,0
41433,1703936,117,-56,-1,-1,0
41466,-262144,117,-56,-1,-1,0
41500,-589824,117,-56,-1,-1,0
41533,-983040,117,-56,-1,-1,0
41566,-655360,117,-56,-1,-1,0
41600,-917504,117,-56,-1,-1,0
41633,-1441792,117,-56,-1,-1,0
41666,16777216,117,-56,-1,-1,0
41700,-786432,117,-56,-1,-1,0
41733,-983040,117,-56,-1,-1,0
41766,-1572864,117,-56,-1,-1,0
41800,0,117,-56,-1,-1,0
41833,2031616,117,-56,-1,-1,0
41866,0,118,-56,-1,-1,0
41900,-1900544,118,-56,-1,-1,0
41933,-2818048,118,-56,-1,-1,0
41966,-2228224,118,-56,-1,-1,0
42000,-2621440,118,-56,-1,-1,0
42033,-2686976,118,-56,-1,-1,0
42066,6225920,118,-56,-1,-1,0
42100,-3211264,118,-56,-1,-1,0
42133,-2293760,118,-56,-1,-1,0
42166,-1769472,118,-56,-1,-1,0
42200,-851968,118,-56,-1,-1,0
42233,1507328,118,-56,-1,-1,0
42266,196608,118,-56,-1,-1,0
42300,-1245184,118,-56,-1,-1,0
42333,-1114112,118,-56,-1,-1,0
42366,-851968,118,-56,-1,-1,0
42400,-786432,118,-56,-1,-1,0
42433,-851968,118,-56,-1,-1,0
42466,-1114112,118,-56,-1,-1,0
42500,10354688,118,-56,-1,-1,0
42533,-1835008,118,-56,-1,-1,0
42566,-1572864,118,-56,-1,-1,0
42600,-524288,118,-56,-1,-1,0
42633,1507328,118,-56,-1,-1,0
42666,1638400,118,-56,-1,-1,0
42700,-458752,119,-56,-1,-1,0
42733,-917504,119,-56,-1,-1,0
42766,-983040,119,-56,-1,-1,0
42800,-1245184,119,-56,-1,-1,0
42833,-1376256,119,-56,-1,-1,0
42866,-1966080,119,-56,-1,-1,0
42900,12779520,119,-56,-1,-1,0
42933,-1703936,119,-56,-1,-1,0
42966,-1245184,119,-56,-1,-1,0
43000,-131072,119,-56,-1,-1,0
43033,851968,119,-56,-1,-1,0
43066,2293760,119,-56,-1,-1,0
43100,655360,119,-56,-1,-1,0
43133,-589824,119,-56,-1,-1,0
43166,-524288,119,-56,-1,-1,0
43200,524288,119,-56,-1,-1,0
43233,-917504,119,-56,-1,-1,0
43266,-1966080,119,-56,-1,-1,0
43300,10092544,119,-56,-1,-1,0
43333,-2490368,119,-56,-1,-1,0
43366,-1245184,119,-56,-1,-1,0
43400,-1179648,119,-56,-1,-1,0
43433,262144,119,-56,-1,-1,0
43466,1441792,119,-56,-1,-1,0
43500,0,119,-56,-1,-1,0
43533,-1572864,119,-56,-1,-1,0
43566,-1572864,119,-56,-1,-1,0
43600,-1048576,119,-56,-1,-1,0
43633,-1310720,119,-56,-1,-1,0
43666,-1900544,119,-56,-1,-1,0
43700,3211264,119,-56,-1,-1,0
43733,-655360,119,-56,-1,-1,0
43766,-2686976,119,-56,-1,-1,0
43800,-1769472,119,-56,-1,-1,0
43833,-786432,119,-56,-1,-1,0
43866,1048576,119,-56,-1,-1,0
43900,327680,120,-56,-1,-1,0
43933,-1245184,120,-56,-1,-1,0
43966,-851968,120,-56,-1,-1,0
44000,-983040,120,-56,-1,-1,0
44033,-1245184,120,-56,-1,-1,0
44066,-1507328,120,-56,-1,-1,0
44100,-2031616,120,-56,-1,-1,0
44133,13303808,120,-56,-1,-1,0
44166,-1769472,120,-56,-1,-1,0
44200,-1441792,120,-56,-1,-1,0
44233,-458752,120,-56,-1,-1,0
44266,1441792,120,-56,-1,-1,0
44300,1835008,120,-56,-1,-1,0
44333,131072,120,-56,-1,-1,0
44366,-196608,120,-56,-1,-1,0
44400,-327680,120,-56,-1,-1,0
44433,-196608,120,-56,-1,-1,0
44466,-393216,120,-56,-1,-1,0
44500,-851968,120,-56,-1,-1,0
44533,14745600,120,-56,-1,-1,0
44566,-1048576,120,-56,-1,-1,0
44600,-851968,120,-56,-1,-1,0
44633,-327680,120,-56,-1,-1,0
44666,851968,120,-56,-1,-1,0
44700,1966080,120,-56,-1,-1,0
44733,131072,120,-56,-1,-1,0
44766,-2490368,120,-56,-1,-1,0
44800,-1966080,120,-56,-1,-1,0
44833,-851968,120,-56,-1,-1,0
44866,-1966080,120,-56,-1,-1,0
44900,-2621440,120,-56,-1,-1,0
44933,8257536,120,-56,-1,-1,0
44966,-2949120,120,-56,-1,-1,0
45000,-2555904,120,-56,-1,-1,0
45033,-1900544,120,-56,-1,-1,0
45066,-393216,120,-56,-1,-1,0
45100,1048576,120,-56,-1,-1,0
45133,65536,120,-56,-1,-1,0
45166,-1310720,120,-56,-1,-1,0
45200,-1179648,120,-56,-1,-1,0
45233,-1048576,120,-56,-1,-1,0
45266,-1048576,120,-56,-1,-1,0
45300,-1376256,120,-56,-1,-1,0
45333,4521984,120,-56,-1,-1,0
45366,-65536,120,-56,-1,-1,0
45400,-1638400,120,-56,-1,-1,0
45433,-1048576,120,-56,-1,-1,0
45466,-65536,120,-56,-1,-1,0
45500,1835008,120,-56,-1,-1,0
45533,851968,120,-56,-1,-1,0
45566,-655360,120,-56,-1,-1,0
45600,-917504,120,-56,-1,-1,0
45633,-983040,120,-56,-1,-1,0
45666,-1179648,120,-56,-1,-1,0
45700,-1310720,120,-56,-1,-1,0
45733,196608,120,-56,-1,-1,0
45766,5242880,120,-56,-1,-1,0
45800,-1835008,120,-56,-1,-1,0
45833,-983040,120,-56,-1,-1,0
45866,262144,120,-56,-1,-1,0
45900,2228224,120,-56,-1,-1,0
45933,1310720,121,-56,-1,-1,0
45966,-393216,121,-56,-1,-1,0
46000,-720896,121,-56,-1,-1,0
46033,-589824,121,-56,-1,-1,0
46066,-720896,121,-56,-1,-1,0
46100,-1703936,121,-56,-1,-1,0
46133,-393216,121,-56,-1,-1,0
46166,6291456,121,-56,-1,-1,0
46200,-3276800,121,-56,-1,-1,0
46233,-1245184,121,-56,-1,-1,0
46266,-983040,121,-56,-1,-1,0
46300,786432,121,-56,-1,-1,0
46333,720896,121,-56,-1,-1,0
46366,-1310720,121,-56,-1,-1,0
46400,-1441792,121,-56,-1,-1,0
46433,-2031616,121,-56,-1,-1,0
46466,-1638400,121,-56,-1,-1,0
46500,-2293760,121,-56,-1,-1,0
46533,-1900544,121,-56,-1,-1,0
46566,8257536,121,-56,-1,-1,0
46600,-2228224,121,-56,-1,-1,0
46633,-1769472,121,-56,-1,-1,0
46666,-1245184,121,-56,-1,-1,0
46700,262144,121,-56,-1,-1,0
46733,0,121,-56,-1,-1,0
46766,-851968,121,-56,-1,-1,0
46800,-786432,121,-56,-1,-1,0
46833,-1179648,121,-56,-1,-1,0
46866,-786432,121,-56,-1,-1,0
46900,-851968,121,-56,-1,-1,0
46933,-1376256,121,-56,-1,-1,0
46966,13041664,121,-56,-1,-1,0
47000,-1769472,121,-56,-1,-1,0
47033,-1376256,121,-56,-1,-1,0
47066,-524288,121,-56,-1,-1,0
47100,1572864,121,-56,-1,-1,0
47133,1966080,122,-56,-1,-1,0
47166,196608,122,-56,-1,-1,0
47200,-589824,122,-56,-1,-1,0
47233,-589824,122,-56,-1,-1,0
47266,-262144,122,-56,-1,-1,0
47300,-917504,122,-56,-1,-1,0
47333,0,122,-56,-1,-1,0
47366,6684672,122,-56,-1,-1,0
47400,-1048576,122,-56,-1,-1,0
47433,-851968,122,-56,-1,-1,0
47466,-131072,122,-56,-1,-1,0
47500,1114112,122,-56,-1,-1,0
47533,1966080,122,-56,-1,-1,0
47566,0,122,-56,-1,-1,0
47600,-786432,122,-56,-1,-1,0
47633,-983040,122,-56,-1,-1,0
47666,-2424832,122,-56,-1,-1,0
47700,-2359296,122,-56,-1,-1,0
47733,1638400,122,-56,-1,-1,0
47766,1179648,122,-56,-1,-1,0
47800,-3473408,122,-56,-1,-1,0
47833,-2293760,122,-56,-1,-1,0
47866,-786432,122,-56,-1,-1,0
47900,917504,122,-56,-1,-1,0
47933,-458752,122,-56,-1,-1,0
47966,-1245184,122,-56,-1,-1,0
48000,-1835008,122,-56,-1,-1,0
48033,-1310720,122,-56,-1,-1,0
48066,-2097152,122,-56,-1,-1,0
48100,-2031616,122,-56,-1,-1,0
48133,4521984,122,-56,-1,-1,0
48166,-1900544,122,-56,-1,-1,0
48200,-2424832,122,-56,-1,-1,0
48233,-1835008,122,-56,-1,-1,0
48266,-131072,122,-56,-1,-1,0
48300,1245184,122,-56,-1,-1,0
48333,524288,122,-56,-1,-1,0
48366,-458752,122,-56,-1,-1,0
48400,-720896,122,-56,-1,-1,0
48433,-589824,122,-56,-1,-1,0
48466,-983040,122,-56,-1,-1,0
48500,-1245184,122,-56,-1,-1,0
48533,9568256,122,-56,-1,-1,0
48566,-2031616,122,-56,-1,-1,0
48600,-1703936,122,-56,-1,-1,0
48633,-1048576,122,-56,-1,-1,0
48666,655360,122,-56,-1,-1,0
48700,2031616,123,-56,-1,-1,0
48733,524288,123,-56,-1,-1,0
48766,-589824,123,-56,-1,-1,0
48800,-458752,123,-56,-1,-1,0
48833,-393216,123,-56,-1,-1,0
48866,-983040,123,-56,-1,-1,0
48900,-1441792,123,-56,-1,-1,0
48933,12713984,123,-56,-1,-1,0
48966,-2162688,123,-56,-1,-1,0
49000,-1441792,123,-56,-1,-1,0
49033,-65536,123,-56,-1,-1,0
49066,1179648,123,-56,-1,-1,0
49100,2031616,123,-56,-1,-1,0
49133,0,123,-56,-1,-1,0
49166,-1245184,123,-56,-1,-1,0
49200,-1245184,123,-56,-1,-1,0
49233,-1572864,123,-56,-1,-1,0
49266,-1638400,123,-56,-1,-1,0
49300,-1900544,123,-56,-1,-1,0
49333,7208960,123,-56,-1,-1,0
49366,-2949120,123,-56,-1,-1,0
49400,-2424832,123,-56,-1,-1,0
49433,-1769472,123,-56,-1,-1,0
49466,0,123,-56,-1,-1,0
49500,-851968,123,-56,-1,-1,0
49533,-1703936,123,-56,-1,-1,0
49566,-2031616,123,-56,-1,-1,0
49600,-1769472,123,-56,-1,-1,0
49633,-1507328,123,-56,-1,-1,0
49666,-1572864,123,-56,-1,-1,0
49700,2686976,123,-56,-1,-1,0
49733,262144,123,-56,-1,-1,0
49766,-1835008,123,-56,-1,-1,0
49800,-1114112,123,-56,-1,-1,0
49833,327680,123,-56,-1,-1,0
49866,1310720,125,-56,-1,-1,0
49900,262144,125,-56,-1,-1,0
49933,-262144,125,-56,-1,-1,0
49966,-655360,125,-56,-1,-1,0
50000,-262144,125,-56,-1,-1,0
