milliseconds, ECG, ECG HR, PPG, PPG HR, SpO2, PI,Landmark_0,Landmark_1,Landmark_2,Landmark_3,Landmark_4,Landmark_5,Landmark_6,Landmark_7,Landmark_8,Landmark_9,Landmark_10,Landmark_11,Landmark_12,Landmark_13,Landmark_14,Landmark_15,Landmark_16,Landmark_17,Landmark_18,Landmark_19,Landmark_20,Landmark_21,Landmark_22,Landmark_23,Landmark_24,Landmark_25,Landmark_26,Landmark_27,Landmark_28,Landmark_29,Landmark_30,Landmark_31,Landmark_32,Landmark_33,Landmark_34,Landmark_35,Landmark_36,Landmark_37,Landmark_38,Landmark_39,Landmark_40,Landmark_41,Landmark_42,Landmark_43,Landmark_44,Landmark_45,Landmark_46,Landmark_47,Landmark_48,Landmark_49,Landmark_50,Landmark_51,Landmark_52,Landmark_53,Landmark_54,Landmark_55,Landmark_56,Landmark_57,Landmark_58,Landmark_59,Landmark_60,Landmark_61,Landmark_62,Landmark_63,Landmark_64,Landmark_65,Landmark_66,Landmark_67,EyeAspectRatio,MouthAspectRatio,LightIntensity,FaceWidthRatio,EyebrowHeight,LipsWidthRatio,LipsHeightRatio,EyeOpening,NoseWidthRatio,NoseHeightRatio,AvgRedForehead,AvgGreenForehead,AvgBlueForehead,AvgRedLips,AvgGreenLips,AvgBlueLips,AvgRedCheeks,AvgGreenCheeks,AvgBlueCheeks
0,-1179648,76,-56,-1,-1,0,"(1090, 386)","(1089, 419)","(1091, 452)","(1095, 485)","(1107, 516)","(1126, 544)","(1151, 566)","(1178, 584)","(1210, 590)","(1243, 586)","(1276, 572)","(1306, 551)","(1329, 524)","(1343, 491)","(1349, 456)","(1352, 420)","(1352, 384)","(1102, 367)","(1118, 356)","(1141, 356)","(1163, 362)","(1185, 372)","(1221, 372)","(1246, 361)","(1272, 356)","(1299, 359)","(1320, 372)","(1202, 395)","(1200, 416)","(1198, 437)","(1196, 459)","(1174, 473)","(1186, 479)","(1200, 483)","(1215, 479)","(1230, 474)","(1127, 393)","(1141, 386)","(1158, 387)","(1174, 397)","(1157, 402)","(1140, 401)","(1240, 398)","(1256, 388)","(1275, 388)","(1291, 395)","(1275, 403)","(1257, 403)","(1158, 511)","(1175, 507)","(1191, 504)","(1204, 507)","(1217, 504)","(1238, 506)","(1263, 511)","(1241, 525)","(1220, 532)","(1206, 533)","(1193, 532)","(1176, 526)","(1166, 513)","(1192, 515)","(1204, 516)","(1217, 514)","(1254, 512)","(1219, 517)","(1206, 518)","(1193, 517)",0.29,0.98,35.0,0.37,0.03,0.4,0.01,-15.5,0.1,0.32,23.5,26.5,38.8,17.05,18.75,34.65,13.94,16.82,17.64
33,-1245184,76,-56,-1,-1,0,"(1062, 405)","(1062, 439)","(1065, 473)","(1071, 507)","(1084, 539)","(1106, 566)","(1133, 589)","(1161, 607)","(1194, 612)","(1227, 608)","(1259, 594)","(1289, 573)","(1312, 547)","(1327, 514)","(1332, 477)","(1335, 441)","(1336, 404)","(1080, 384)","(1098, 372)","(1121, 371)","(1145, 376)","(1168, 386)","(1203, 386)","(1228, 376)","(1255, 371)","(1282, 374)","(1303, 387)","(1185, 409)","(1184, 431)","(1182, 453)","(1181, 476)","(1157, 490)","(1170, 496)","(1185, 501)","(1200, 496)","(1214, 490)","(1107, 409)","(1121, 401)","(1140, 402)","(1155, 413)","(1138, 418)","(1120, 417)","(1224, 413)","(1240, 402)","(1259, 402)","(1275, 410)","(1260, 418)","(1241, 418)","(1139, 530)","(1157, 525)","(1175, 522)","(1187, 525)","(1201, 522)","(1223, 525)","(1248, 530)","(1225, 545)","(1204, 552)","(1190, 553)","(1177, 552)","(1159, 546)","(1148, 532)","(1175, 533)","(1188, 534)","(1202, 533)","(1238, 531)","(1203, 536)","(1189, 538)","(1177, 536)",0.31,0.96,35.0,0.36,0.01,0.39,0.01,-16.5,0.1,0.33,25.0,26.7,39.6,17.9,19.7,36.3,16.11,18.41,20.11
66,-1245184,76,-56,-1,-1,0,"(1042, 407)","(1041, 444)","(1044, 480)","(1050, 516)","(1065, 549)","(1087, 579)","(1116, 604)","(1146, 624)","(1179, 631)","(1213, 627)","(1249, 610)","(1283, 587)","(1309, 557)","(1326, 521)","(1333, 482)","(1336, 442)","(1337, 402)","(1058, 391)","(1077, 381)","(1101, 383)","(1125, 390)","(1148, 402)","(1186, 401)","(1213, 388)","(1242, 381)","(1271, 382)","(1296, 393)","(1167, 426)","(1165, 450)","(1162, 474)","(1160, 498)","(1137, 512)","(1151, 519)","(1165, 523)","(1181, 518)","(1197, 512)","(1086, 422)","(1102, 414)","(1121, 415)","(1138, 427)","(1120, 433)","(1100, 432)","(1208, 427)","(1226, 414)","(1246, 414)","(1264, 421)","(1248, 431)","(1227, 432)","(1123, 550)","(1141, 547)","(1157, 544)","(1170, 548)","(1183, 544)","(1206, 546)","(1234, 549)","(1209, 566)","(1187, 574)","(1173, 575)","(1160, 574)","(1143, 567)","(1132, 552)","(1158, 555)","(1170, 556)","(1184, 555)","(1223, 550)","(1186, 557)","(1172, 559)","(1160, 557)",0.31,1.01,35.0,0.36,0.02,0.37,0.01,-18.0,0.1,0.35,27.2,30.8,42.7,18.0,19.65,36.0,15.82,17.11,19.0
100,-1114112,76,-56,-1,-1,0,"(1035, 430)","(1035, 466)","(1038, 502)","(1045, 537)","(1059, 570)","(1080, 599)","(1106, 624)","(1134, 646)","(1167, 652)","(1202, 648)","(1235, 631)","(1266, 609)","(1290, 579)","(1306, 544)","(1312, 505)","(1315, 466)","(1316, 427)","(1046, 412)","(1064, 400)","(1087, 400)","(1111, 406)","(1134, 417)","(1172, 416)","(1199, 405)","(1227, 399)","(1256, 401)","(1279, 414)","(1153, 439)","(1151, 465)","(1149, 490)","(1147, 516)","(1125, 528)","(1138, 535)","(1153, 540)","(1169, 535)","(1185, 528)","(1074, 437)","(1089, 430)","(1108, 430)","(1124, 442)","(1106, 447)","(1088, 446)","(1195, 442)","(1212, 430)","(1232, 430)","(1249, 438)","(1233, 447)","(1214, 447)","(1110, 567)","(1127, 565)","(1144, 563)","(1157, 566)","(1171, 562)","(1194, 564)","(1222, 566)","(1198, 583)","(1176, 590)","(1161, 592)","(1147, 590)","(1130, 583)","(1119, 569)","(1145, 573)","(1158, 575)","(1172, 573)","(1212, 568)","(1174, 574)","(1160, 575)","(1147, 573)",0.31,1.02,35.0,0.37,0.01,0.39,0.01,-17.0,0.11,0.36,27.5,28.7,41.5,16.9,18.65,35.3,15.94,17.7,19.58
133,-1179648,76,-56,-1,-1,0,"(1008, 433)","(1009, 472)","(1012, 510)","(1019, 547)","(1036, 582)","(1061, 612)","(1092, 638)","(1124, 659)","(1159, 665)","(1195, 660)","(1230, 643)","(1264, 619)","(1290, 588)","(1306, 550)","(1313, 510)","(1316, 469)","(1317, 428)","(1029, 419)","(1048, 408)","(1074, 410)","(1099, 417)","(1124, 429)","(1162, 428)","(1190, 416)","(1220, 409)","(1251, 410)","(1277, 423)","(1143, 451)","(1141, 477)","(1139, 503)","(1137, 530)","(1114, 542)","(1128, 550)","(1143, 554)","(1160, 549)","(1176, 542)","(1060, 447)","(1076, 439)","(1096, 440)","(1113, 453)","(1094, 458)","(1074, 457)","(1186, 452)","(1204, 440)","(1225, 439)","(1243, 447)","(1227, 457)","(1206, 458)","(1100, 581)","(1119, 579)","(1135, 577)","(1149, 580)","(1162, 577)","(1186, 578)","(1215, 579)","(1190, 595)","(1168, 603)","(1153, 604)","(1139, 603)","(1122, 596)","(1110, 583)","(1136, 587)","(1149, 588)","(1164, 586)","(1205, 581)","(1166, 587)","(1152, 588)","(1139, 586)",0.31,1.01,35.0,0.35,0.03,0.37,0.01,-18.0,0.1,0.36,27.5,29.3,40.8,16.15,17.5,34.6,14.94,16.64,18.17
166,-1310720,76,-56,-1,-1,0,"(1026, 448)","(1027, 484)","(1031, 520)","(1038, 555)","(1051, 588)","(1071, 617)","(1095, 644)","(1122, 667)","(1154, 674)","(1190, 670)","(1225, 652)","(1258, 628)","(1283, 598)","(1300, 561)","(1307, 521)","(1311, 480)","(1313, 438)","(1033, 435)","(1048, 420)","(1072, 420)","(1096, 426)","(1120, 436)","(1155, 435)","(1184, 424)","(1214, 418)","(1245, 420)","(1270, 435)","(1137, 457)","(1135, 484)","(1132, 511)","(1130, 539)","(1109, 548)","(1121, 556)","(1137, 561)","(1154, 555)","(1170, 549)","(1061, 455)","(1075, 447)","(1093, 448)","(1110, 460)","(1092, 465)","(1074, 464)","(1182, 459)","(1199, 447)","(1219, 447)","(1237, 454)","(1220, 463)","(1201, 464)","(1097, 586)","(1113, 586)","(1129, 584)","(1142, 588)","(1157, 584)","(1181, 585)","(1210, 586)","(1184, 602)","(1162, 609)","(1146, 611)","(1132, 609)","(1116, 602)","(1106, 589)","(1130, 593)","(1143, 595)","(1158, 593)","(1200, 588)","(1160, 593)","(1145, 595)","(1131, 592)",0.3,1.07,35.0,0.36,0.0,0.39,0.01,-17.0,0.11,0.37,25.6,27.3,40.1,15.65,15.8,33.45,14.76,15.94,17.76
200,458752,76,-56,-1,-1,0,"(1025, 450)","(1026, 485)","(1031, 521)","(1037, 556)","(1051, 590)","(1071, 620)","(1095, 646)","(1122, 669)","(1155, 676)","(1191, 672)","(1226, 654)","(1259, 630)","(1284, 599)","(1300, 562)","(1306, 522)","(1310, 480)","(1311, 438)","(1032, 439)","(1047, 425)","(1071, 424)","(1095, 430)","(1119, 439)","(1155, 437)","(1184, 426)","(1214, 420)","(1245, 423)","(1270, 437)","(1137, 459)","(1135, 486)","(1132, 513)","(1130, 541)","(1109, 551)","(1122, 558)","(1137, 563)","(1154, 557)","(1171, 550)","(1061, 458)","(1075, 450)","(1094, 451)","(1110, 462)","(1092, 467)","(1074, 467)","(1182, 461)","(1199, 449)","(1218, 448)","(1236, 456)","(1220, 465)","(1200, 466)","(1098, 588)","(1114, 587)","(1129, 586)","(1143, 589)","(1158, 585)","(1181, 587)","(1210, 587)","(1185, 604)","(1163, 611)","(1147, 613)","(1132, 611)","(1117, 604)","(1107, 591)","(1130, 594)","(1144, 596)","(1159, 594)","(1200, 590)","(1161, 596)","(1146, 597)","(1132, 595)",0.31,1.06,36.0,0.36,0.0,0.39,0.01,-16.5,0.11,0.37,26.1,27.1,38.5,15.75,16.7,33.4,14.7,16.23,17.82
233,5308416,76,-56,-1,-1,0,"(1030, 444)","(1030, 480)","(1033, 515)","(1039, 550)","(1053, 583)","(1073, 614)","(1099, 640)","(1126, 663)","(1159, 671)","(1194, 666)","(1229, 648)","(1261, 624)","(1285, 593)","(1301, 556)","(1307, 516)","(1309, 476)","(1308, 435)","(1036, 428)","(1052, 416)","(1075, 416)","(1099, 422)","(1122, 434)","(1161, 432)","(1188, 420)","(1218, 414)","(1247, 416)","(1271, 430)","(1141, 457)","(1140, 483)","(1137, 510)","(1135, 538)","(1114, 548)","(1127, 555)","(1142, 560)","(1158, 554)","(1175, 548)","(1063, 453)","(1078, 446)","(1097, 447)","(1114, 458)","(1096, 463)","(1077, 463)","(1186, 458)","(1203, 447)","(1223, 446)","(1240, 454)","(1224, 463)","(1204, 463)","(1102, 585)","(1119, 583)","(1134, 582)","(1148, 585)","(1162, 582)","(1185, 583)","(1213, 584)","(1189, 600)","(1167, 608)","(1152, 609)","(1138, 607)","(1121, 600)","(1111, 587)","(1135, 591)","(1148, 593)","(1163, 591)","(1204, 586)","(1165, 592)","(1151, 594)","(1137, 591)",0.3,1.04,36.0,0.37,0.02,0.39,0.01,-16.5,0.12,0.37,30.1,32.2,45.5,16.05,17.3,33.55,15.64,17.29,20.11
266,-1310720,76,-56,-1,-1,0,"(1010, 433)","(1010, 471)","(1012, 509)","(1020, 546)","(1036, 580)","(1061, 610)","(1093, 635)","(1126, 655)","(1161, 661)","(1196, 657)","(1231, 640)","(1264, 617)","(1289, 586)","(1305, 549)","(1311, 509)","(1314, 469)","(1315, 428)","(1034, 420)","(1054, 410)","(1079, 411)","(1104, 419)","(1128, 430)","(1166, 430)","(1193, 418)","(1222, 411)","(1251, 412)","(1276, 423)","(1148, 452)","(1146, 477)","(1144, 503)","(1143, 529)","(1120, 541)","(1133, 548)","(1148, 553)","(1164, 548)","(1180, 541)","(1065, 447)","(1081, 440)","(1101, 440)","(1118, 453)","(1099, 458)","(1080, 456)","(1189, 453)","(1207, 440)","(1227, 440)","(1245, 447)","(1229, 457)","(1208, 458)","(1106, 578)","(1124, 576)","(1141, 574)","(1153, 577)","(1166, 573)","(1189, 575)","(1216, 577)","(1192, 592)","(1172, 600)","(1157, 601)","(1144, 600)","(1127, 593)","(1115, 580)","(1141, 583)","(1154, 585)","(1168, 583)","(1206, 579)","(1170, 584)","(1156, 585)","(1143, 584)",0.31,1.0,36.0,0.35,0.02,0.36,0.01,-17.5,0.1,0.36,28.2,29.9,43.6,15.95,17.65,33.8,14.41,16.23,17.7
300,-917504,76,-56,-1,-1,0,"(1028, 439)","(1031, 477)","(1036, 514)","(1045, 550)","(1061, 585)","(1084, 615)","(1113, 640)","(1144, 658)","(1178, 663)","(1214, 657)","(1250, 640)","(1283, 615)","(1309, 583)","(1325, 545)","(1331, 503)","(1334, 462)","(1334, 420)","(1048, 416)","(1066, 404)","(1089, 403)","(1114, 408)","(1138, 417)","(1178, 414)","(1205, 402)","(1233, 395)","(1262, 396)","(1288, 407)","(1158, 439)","(1157, 464)","(1155, 489)","(1154, 515)","(1132, 532)","(1145, 538)","(1160, 541)","(1176, 536)","(1191, 530)","(1078, 441)","(1092, 432)","(1111, 432)","(1128, 444)","(1110, 450)","(1091, 450)","(1202, 441)","(1218, 426)","(1238, 425)","(1256, 433)","(1241, 444)","(1220, 445)","(1120, 580)","(1136, 572)","(1152, 567)","(1164, 569)","(1177, 565)","(1200, 567)","(1226, 572)","(1204, 588)","(1184, 597)","(1170, 598)","(1156, 598)","(1139, 593)","(1128, 581)","(1153, 578)","(1165, 578)","(1179, 576)","(1217, 574)","(1181, 580)","(1168, 582)","(1155, 582)",0.35,1.01,36.0,0.34,-0.02,0.34,0.01,-18.0,0.1,0.33,31.3,33.4,49.0,20.1,21.4,39.25,16.05,16.7,17.82
333,-196608,76,-56,-1,-1,0,"(1066, 418)","(1065, 451)","(1068, 484)","(1074, 516)","(1086, 547)","(1106, 575)","(1130, 599)","(1157, 618)","(1188, 624)","(1221, 620)","(1254, 605)","(1284, 584)","(1307, 555)","(1323, 521)","(1328, 485)","(1331, 448)","(1331, 411)","(1074, 399)","(1090, 388)","(1112, 389)","(1134, 395)","(1155, 406)","(1193, 405)","(1218, 394)","(1245, 388)","(1273, 389)","(1295, 400)","(1174, 429)","(1172, 452)","(1170, 475)","(1168, 499)","(1148, 511)","(1160, 518)","(1174, 522)","(1189, 517)","(1204, 511)","(1099, 426)","(1113, 418)","(1131, 418)","(1147, 430)","(1130, 435)","(1112, 434)","(1214, 430)","(1230, 418)","(1250, 417)","(1266, 425)","(1251, 434)","(1232, 434)","(1136, 547)","(1151, 544)","(1166, 542)","(1178, 545)","(1191, 541)","(1213, 543)","(1238, 546)","(1216, 562)","(1195, 569)","(1181, 571)","(1169, 569)","(1153, 562)","(1144, 549)","(1167, 552)","(1178, 553)","(1191, 552)","(1229, 548)","(1193, 554)","(1180, 555)","(1168, 553)",0.31,1.05,36.0,0.37,0.01,0.38,0.01,-16.5,0.11,0.35,29.1,31.2,46.4,16.35,18.1,34.6,14.17,16.35,18.11
366,1376256,76,-56,-1,-1,0,"(1069, 405)","(1069, 439)","(1071, 472)","(1077, 505)","(1090, 535)","(1111, 562)","(1140, 583)","(1170, 599)","(1202, 604)","(1234, 600)","(1265, 586)","(1294, 566)","(1315, 540)","(1328, 508)","(1333, 474)","(1335, 440)","(1336, 405)","(1089, 389)","(1107, 379)","(1130, 379)","(1153, 384)","(1175, 394)","(1210, 394)","(1234, 384)","(1260, 379)","(1285, 381)","(1306, 392)","(1193, 415)","(1192, 437)","(1191, 458)","(1190, 481)","(1166, 494)","(1179, 500)","(1193, 504)","(1208, 499)","(1222, 493)","(1116, 413)","(1130, 406)","(1148, 406)","(1163, 417)","(1147, 421)","(1129, 421)","(1230, 417)","(1246, 406)","(1263, 406)","(1279, 414)","(1264, 421)","(1247, 421)","(1149, 529)","(1167, 526)","(1184, 523)","(1196, 526)","(1208, 523)","(1229, 524)","(1253, 528)","(1232, 541)","(1213, 548)","(1199, 549)","(1186, 548)","(1169, 543)","(1158, 531)","(1184, 533)","(1196, 534)","(1209, 532)","(1244, 529)","(1211, 534)","(1198, 535)","(1186, 533)",0.3,0.94,36.0,0.36,0.01,0.38,0.01,-15.0,0.1,0.34,26.6,28.5,41.3,15.95,17.15,33.85,14.94,18.0,19.76
400,3735552,76,-56,-1,-1,0,"(1101, 385)","(1099, 417)","(1101, 449)","(1106, 481)","(1118, 511)","(1137, 537)","(1163, 559)","(1190, 575)","(1220, 581)","(1250, 577)","(1281, 564)","(1310, 545)","(1332, 519)","(1346, 488)","(1352, 454)","(1355, 421)","(1356, 386)","(1117, 369)","(1133, 360)","(1154, 361)","(1176, 367)","(1196, 379)","(1232, 378)","(1255, 367)","(1279, 362)","(1304, 363)","(1324, 373)","(1213, 401)","(1212, 422)","(1210, 442)","(1209, 464)","(1187, 477)","(1199, 482)","(1212, 486)","(1226, 482)","(1239, 476)","(1140, 398)","(1154, 391)","(1171, 392)","(1186, 402)","(1170, 406)","(1153, 406)","(1249, 402)","(1264, 392)","(1282, 392)","(1297, 398)","(1283, 406)","(1265, 407)","(1172, 511)","(1188, 507)","(1203, 504)","(1214, 507)","(1225, 504)","(1245, 506)","(1267, 510)","(1247, 524)","(1229, 531)","(1217, 532)","(1205, 531)","(1189, 525)","(1180, 513)","(1203, 514)","(1214, 515)","(1226, 514)","(1258, 511)","(1228, 516)","(1216, 517)","(1205, 516)",0.3,0.97,36.0,0.36,0.03,0.37,0.01,-14.5,0.1,0.35,27.4,29.3,44.7,15.4,17.05,33.3,14.17,16.88,18.11
433,2883584,76,-56,-1,-1,0,"(1134, 381)","(1133, 410)","(1134, 439)","(1139, 468)","(1150, 495)","(1167, 520)","(1189, 540)","(1214, 555)","(1242, 561)","(1271, 557)","(1299, 545)","(1324, 526)","(1342, 502)","(1354, 473)","(1359, 442)","(1361, 411)","(1360, 380)","(1145, 363)","(1160, 353)","(1179, 352)","(1199, 357)","(1218, 366)","(1251, 366)","(1272, 356)","(1295, 352)","(1318, 354)","(1335, 365)","(1234, 387)","(1233, 407)","(1232, 426)","(1231, 446)","(1211, 458)","(1222, 464)","(1234, 467)","(1247, 463)","(1260, 458)","(1166, 386)","(1179, 379)","(1195, 380)","(1208, 389)","(1194, 393)","(1178, 393)","(1267, 389)","(1282, 380)","(1298, 379)","(1312, 386)","(1299, 393)","(1283, 393)","(1196, 492)","(1211, 488)","(1226, 485)","(1237, 488)","(1248, 485)","(1266, 487)","(1287, 492)","(1268, 505)","(1251, 511)","(1239, 512)","(1227, 511)","(1212, 505)","(1204, 494)","(1226, 495)","(1237, 496)","(1248, 495)","(1279, 493)","(1250, 497)","(1238, 498)","(1227, 497)",0.3,0.95,36.0,0.38,0.01,0.4,0.01,-13.5,0.11,0.33,25.5,28.2,42.6,14.4,16.5,31.6,14.05,17.11,20.7
466,-196608,76,-56,-1,-1,0,"(1156, 370)","(1156, 398)","(1158, 425)","(1163, 452)","(1174, 479)","(1190, 502)","(1211, 521)","(1235, 536)","(1261, 540)","(1289, 536)","(1316, 524)","(1341, 507)","(1359, 484)","(1371, 456)","(1376, 426)","(1378, 396)","(1378, 366)","(1166, 357)","(1181, 347)","(1200, 346)","(1220, 351)","(1238, 359)","(1268, 359)","(1289, 349)","(1311, 345)","(1334, 346)","(1352, 356)","(1253, 377)","(1252, 396)","(1251, 414)","(1249, 434)","(1229, 445)","(1240, 450)","(1253, 453)","(1266, 449)","(1278, 444)","(1187, 376)","(1200, 370)","(1215, 370)","(1228, 379)","(1214, 383)","(1199, 382)","(1285, 378)","(1299, 369)","(1314, 368)","(1328, 374)","(1316, 381)","(1300, 381)","(1216, 477)","(1230, 473)","(1244, 470)","(1255, 473)","(1266, 470)","(1284, 471)","(1304, 475)","(1286, 487)","(1269, 493)","(1257, 495)","(1246, 494)","(1232, 488)","(1224, 478)","(1245, 479)","(1255, 480)","(1267, 478)","(1296, 476)","(1268, 480)","(1257, 482)","(1246, 480)",0.29,0.97,36.0,0.37,-0.0,0.39,0.01,-12.5,0.11,0.34,23.4,25.7,39.3,13.2,14.95,29.4,11.76,14.23,16.58
500,-917504,76,-56,-1,-1,0,"(1181, 368)","(1180, 393)","(1182, 419)","(1187, 444)","(1196, 469)","(1211, 491)","(1230, 509)","(1252, 523)","(1278, 527)","(1304, 523)","(1328, 512)","(1349, 495)","(1364, 474)","(1374, 448)","(1377, 421)","(1379, 393)","(1378, 367)","(1191, 352)","(1204, 342)","(1221, 340)","(1239, 343)","(1257, 351)","(1285, 351)","(1303, 343)","(1323, 340)","(1342, 343)","(1357, 353)","(1270, 368)","(1270, 385)","(1269, 402)","(1268, 420)","(1249, 431)","(1259, 436)","(1271, 439)","(1283, 435)","(1294, 431)","(1211, 368)","(1222, 363)","(1235, 363)","(1247, 371)","(1234, 374)","(1221, 374)","(1299, 371)","(1311, 363)","(1324, 363)","(1336, 369)","(1325, 374)","(1312, 374)","(1235, 463)","(1248, 458)","(1262, 456)","(1272, 458)","(1283, 455)","(1299, 458)","(1317, 462)","(1301, 474)","(1286, 480)","(1275, 481)","(1264, 480)","(1250, 475)","(1241, 464)","(1262, 464)","(1273, 465)","(1284, 463)","(1310, 463)","(1285, 468)","(1274, 469)","(1263, 468)",0.29,0.94,36.0,0.37,0.0,0.41,0.02,-11.0,0.12,0.32,20.7,23.2,35.3,13.75,15.25,28.95,8.0,11.7,14.58
533,-786432,76,-56,-1,-1,0,"(1201, 353)","(1200, 378)","(1201, 402)","(1205, 427)","(1213, 451)","(1226, 472)","(1245, 490)","(1266, 503)","(1290, 507)","(1315, 504)","(1340, 493)","(1361, 477)","(1377, 456)","(1388, 431)","(1392, 405)","(1393, 379)","(1392, 352)","(1209, 338)","(1221, 328)","(1238, 327)","(1255, 331)","(1271, 339)","(1300, 339)","(1318, 331)","(1337, 327)","(1357, 330)","(1371, 340)","(1285, 357)","(1284, 373)","(1283, 389)","(1282, 407)","(1264, 417)","(1273, 422)","(1284, 425)","(1296, 422)","(1307, 417)","(1227, 356)","(1238, 351)","(1251, 351)","(1263, 359)","(1250, 363)","(1237, 362)","(1313, 359)","(1326, 351)","(1339, 351)","(1351, 357)","(1340, 362)","(1326, 363)","(1250, 448)","(1263, 443)","(1276, 440)","(1286, 443)","(1296, 440)","(1312, 442)","(1329, 447)","(1313, 459)","(1298, 465)","(1287, 466)","(1277, 465)","(1264, 459)","(1257, 449)","(1276, 448)","(1286, 449)","(1296, 448)","(1322, 448)","(1297, 453)","(1287, 454)","(1277, 453)",0.3,0.94,36.0,0.38,0.01,0.41,0.02,-11.5,0.11,0.33,21.3,24.5,35.8,12.95,14.05,27.2,8.05,11.88,14.17
566,-720896,76,-56,-1,-1,0,"(1216, 343)","(1216, 366)","(1217, 389)","(1220, 413)","(1228, 435)","(1240, 455)","(1257, 471)","(1277, 483)","(1299, 486)","(1324, 484)","(1348, 474)","(1370, 460)","(1387, 440)","(1398, 417)","(1403, 391)","(1406, 366)","(1407, 339)","(1223, 327)","(1235, 318)","(1251, 316)","(1268, 319)","(1284, 327)","(1309, 326)","(1328, 318)","(1347, 315)","(1367, 318)","(1382, 328)","(1296, 343)","(1295, 358)","(1293, 374)","(1292, 390)","(1274, 400)","(1284, 405)","(1294, 408)","(1306, 405)","(1317, 401)","(1241, 343)","(1251, 338)","(1264, 338)","(1275, 346)","(1263, 349)","(1250, 349)","(1324, 346)","(1336, 338)","(1349, 338)","(1361, 343)","(1350, 348)","(1337, 349)","(1262, 430)","(1274, 425)","(1286, 423)","(1296, 425)","(1306, 422)","(1321, 425)","(1339, 430)","(1322, 441)","(1307, 445)","(1297, 446)","(1286, 445)","(1274, 441)","(1268, 431)","(1286, 430)","(1296, 431)","(1306, 430)","(1332, 431)","(1306, 434)","(1296, 435)","(1287, 434)",0.28,0.96,36.0,0.37,0.01,0.4,0.02,-10.5,0.1,0.32,18.8,21.9,33.3,12.45,14.5,26.4,5.35,9.0,11.35
600,-983040,76,-56,-1,-1,0,"(1223, 326)","(1223, 348)","(1224, 371)","(1227, 395)","(1235, 417)","(1247, 436)","(1264, 452)","(1284, 464)","(1307, 467)","(1331, 465)","(1355, 456)","(1376, 442)","(1392, 423)","(1402, 400)","(1406, 375)","(1408, 351)","(1409, 326)","(1232, 311)","(1244, 302)","(1260, 300)","(1277, 304)","(1293, 312)","(1318, 312)","(1335, 304)","(1354, 301)","(1373, 304)","(1387, 314)","(1304, 328)","(1303, 343)","(1302, 357)","(1301, 373)","(1283, 383)","(1293, 388)","(1303, 391)","(1314, 388)","(1325, 384)","(1249, 328)","(1260, 323)","(1272, 323)","(1284, 330)","(1272, 333)","(1259, 333)","(1331, 331)","(1343, 324)","(1355, 324)","(1367, 329)","(1356, 334)","(1343, 334)","(1270, 413)","(1283, 408)","(1295, 405)","(1304, 407)","(1314, 405)","(1329, 408)","(1346, 413)","(1330, 423)","(1315, 428)","(1305, 428)","(1295, 428)","(1283, 423)","(1276, 414)","(1295, 413)","(1304, 414)","(1314, 413)","(1339, 414)","(1315, 417)","(1305, 417)","(1296, 416)",0.27,0.93,36.0,0.38,0.02,0.4,0.01,-10.0,0.11,0.32,17.0,20.2,30.7,11.8,13.7,25.65,5.76,9.0,11.17
633,-1114112,76,-56,-1,-1,0,"(1239, 324)","(1238, 345)","(1239, 367)","(1241, 388)","(1248, 409)","(1259, 428)","(1274, 443)","(1292, 454)","(1314, 457)","(1336, 455)","(1358, 447)","(1377, 433)","(1391, 416)","(1401, 394)","(1404, 371)","(1406, 348)","(1406, 325)","(1247, 310)","(1256, 299)","(1271, 296)","(1287, 299)","(1302, 305)","(1324, 305)","(1341, 298)","(1358, 295)","(1375, 299)","(1387, 310)","(1312, 321)","(1311, 335)","(1310, 349)","(1309, 364)","(1292, 374)","(1301, 378)","(1310, 381)","(1321, 378)","(1330, 375)","(1263, 324)","(1272, 320)","(1283, 319)","(1293, 325)","(1282, 328)","(1271, 328)","(1337, 325)","(1347, 319)","(1359, 320)","(1368, 324)","(1359, 328)","(1348, 328)","(1279, 403)","(1290, 398)","(1302, 396)","(1311, 398)","(1321, 395)","(1335, 398)","(1350, 403)","(1336, 413)","(1322, 417)","(1312, 418)","(1302, 417)","(1291, 413)","(1284, 404)","(1302, 403)","(1311, 403)","(1321, 403)","(1344, 403)","(1321, 407)","(1312, 408)","(1303, 407)",0.27,0.94,36.0,0.36,-0.0,0.42,0.02,-8.5,0.1,0.31,15.4,18.7,27.8,10.7,12.0,23.25,7.11,10.94,14.64
666,-1179648,76,-56,-1,-1,0,"(1240, 314)","(1239, 336)","(1240, 359)","(1243, 381)","(1251, 403)","(1263, 423)","(1279, 439)","(1298, 450)","(1319, 453)","(1343, 450)","(1366, 441)","(1387, 426)","(1403, 407)","(1413, 384)","(1418, 360)","(1420, 335)","(1420, 310)","(1248, 300)","(1259, 292)","(1274, 291)","(1290, 295)","(1304, 302)","(1330, 302)","(1347, 293)","(1365, 289)","(1383, 291)","(1397, 299)","(1316, 319)","(1315, 334)","(1314, 349)","(1312, 365)","(1296, 375)","(1305, 379)","(1314, 382)","(1325, 379)","(1336, 374)","(1264, 317)","(1274, 311)","(1286, 312)","(1297, 320)","(1285, 323)","(1273, 323)","(1343, 319)","(1354, 311)","(1367, 310)","(1378, 315)","(1368, 321)","(1355, 322)","(1284, 403)","(1295, 398)","(1307, 396)","(1316, 398)","(1325, 395)","(1339, 397)","(1355, 402)","(1340, 412)","(1327, 416)","(1317, 417)","(1307, 417)","(1296, 412)","(1290, 403)","(1307, 403)","(1316, 404)","(1325, 403)","(1349, 402)","(1326, 405)","(1317, 407)","(1308, 406)",0.31,0.94,36.0,0.37,-0.0,0.39,0.01,-11.0,0.11,0.34,18.9,22.2,34.1,9.7,11.55,22.55,4.23,7.7,9.0
700,-1245184,76,-56,-1,-1,0,"(1243, 332)","(1243, 353)","(1245, 374)","(1248, 395)","(1256, 415)","(1268, 432)","(1284, 445)","(1303, 455)","(1323, 458)","(1345, 455)","(1364, 446)","(1382, 433)","(1395, 416)","(1403, 396)","(1406, 374)","(1408, 352)","(1408, 331)","(1255, 318)","(1265, 308)","(1279, 306)","(1294, 308)","(1309, 314)","(1329, 313)","(1344, 307)","(1360, 304)","(1377, 307)","(1388, 316)","(1319, 328)","(1318, 342)","(1317, 355)","(1317, 370)","(1300, 380)","(1309, 384)","(1318, 386)","(1328, 383)","(1337, 379)","(1271, 331)","(1280, 327)","(1290, 327)","(1300, 332)","(1290, 335)","(1279, 335)","(1342, 331)","(1351, 326)","(1362, 326)","(1371, 330)","(1362, 333)","(1352, 334)","(1288, 407)","(1300, 402)","(1311, 400)","(1319, 401)","(1328, 399)","(1341, 401)","(1356, 406)","(1343, 415)","(1331, 420)","(1321, 421)","(1312, 420)","(1301, 416)","(1294, 408)","(1311, 406)","(1320, 407)","(1329, 406)","(1350, 407)","(1330, 410)","(1321, 411)","(1312, 410)",0.25,0.91,36.0,0.35,-0.01,0.41,0.02,-7.5,0.1,0.32,13.8,17.0,25.7,11.0,11.5,22.45,5.41,8.94,11.11
733,-1376256,76,-56,-1,-1,0,"(1246, 336)","(1246, 357)","(1248, 378)","(1252, 399)","(1260, 418)","(1273, 435)","(1289, 449)","(1308, 459)","(1328, 461)","(1349, 458)","(1368, 449)","(1384, 435)","(1396, 418)","(1403, 397)","(1406, 376)","(1407, 355)","(1406, 333)","(1257, 325)","(1267, 316)","(1281, 314)","(1297, 316)","(1311, 322)","(1332, 321)","(1347, 314)","(1362, 311)","(1378, 313)","(1389, 322)","(1322, 335)","(1322, 349)","(1321, 363)","(1321, 377)","(1305, 387)","(1313, 390)","(1323, 393)","(1332, 390)","(1341, 386)","(1273, 338)","(1282, 333)","(1293, 333)","(1302, 338)","(1292, 341)","(1282, 341)","(1344, 337)","(1353, 331)","(1364, 331)","(1373, 335)","(1365, 339)","(1354, 340)","(1293, 413)","(1304, 409)","(1316, 406)","(1324, 408)","(1332, 405)","(1345, 407)","(1359, 410)","(1347, 420)","(1335, 425)","(1326, 426)","(1317, 426)","(1305, 422)","(1298, 414)","(1316, 413)","(1324, 413)","(1333, 412)","(1353, 411)","(1334, 415)","(1326, 416)","(1317, 416)",0.29,0.9,36.0,0.36,-0.01,0.41,0.02,-8.0,0.11,0.33,13.9,18.2,26.0,9.8,11.5,22.75,5.35,8.94,10.58
766,-1048576,76,-56,-1,-1,0,"(1255, 341)","(1255, 361)","(1257, 381)","(1260, 402)","(1268, 421)","(1280, 439)","(1295, 453)","(1313, 463)","(1333, 466)","(1353, 462)","(1373, 452)","(1391, 438)","(1404, 420)","(1412, 399)","(1415, 377)","(1416, 355)","(1415, 333)","(1261, 330)","(1271, 321)","(1285, 320)","(1299, 323)","(1313, 329)","(1336, 328)","(1350, 320)","(1367, 316)","(1383, 317)","(1396, 325)","(1325, 343)","(1324, 357)","(1324, 371)","(1323, 386)","(1308, 394)","(1316, 398)","(1325, 400)","(1335, 397)","(1344, 393)","(1276, 343)","(1285, 338)","(1296, 338)","(1307, 345)","(1296, 348)","(1285, 348)","(1348, 343)","(1358, 336)","(1369, 335)","(1380, 339)","(1370, 344)","(1359, 345)","(1297, 419)","(1308, 415)","(1318, 413)","(1327, 415)","(1335, 412)","(1349, 413)","(1363, 416)","(1350, 427)","(1338, 432)","(1329, 433)","(1320, 432)","(1309, 428)","(1303, 420)","(1319, 420)","(1327, 420)","(1336, 419)","(1358, 417)","(1337, 422)","(1328, 423)","(1320, 422)",0.28,0.95,36.0,0.39,-0.03,0.41,0.02,-9.0,0.11,0.34,17.6,20.2,31.1,9.65,10.9,21.45,5.23,8.41,10.82
800,-1376256,76,-56,-1,-1,0,"(1258, 348)","(1259, 368)","(1261, 389)","(1265, 409)","(1273, 428)","(1285, 444)","(1301, 458)","(1318, 468)","(1338, 470)","(1358, 466)","(1377, 456)","(1394, 442)","(1406, 425)","(1414, 404)","(1417, 383)","(1417, 361)","(1417, 339)","(1266, 340)","(1276, 332)","(1290, 330)","(1304, 332)","(1318, 338)","(1338, 336)","(1353, 329)","(1369, 326)","(1385, 326)","(1398, 334)","(1329, 349)","(1328, 364)","(1328, 378)","(1328, 392)","(1312, 400)","(1321, 404)","(1330, 406)","(1340, 403)","(1349, 398)","(1282, 351)","(1290, 346)","(1301, 346)","(1311, 352)","(1301, 355)","(1290, 355)","(1352, 350)","(1361, 343)","(1372, 342)","(1382, 346)","(1373, 351)","(1362, 352)","(1302, 424)","(1313, 420)","(1324, 418)","(1332, 420)","(1340, 418)","(1353, 418)","(1368, 420)","(1355, 431)","(1343, 436)","(1334, 438)","(1325, 437)","(1314, 433)","(1308, 424)","(1324, 424)","(1333, 425)","(1341, 423)","(1362, 421)","(1342, 427)","(1334, 428)","(1325, 427)",0.29,0.94,36.0,0.37,-0.03,0.41,0.02,-8.5,0.12,0.35,16.1,19.7,28.6,9.25,11.4,21.05,4.82,7.41,9.41
833,-1835008,76,-56,-1,-1,0,"(1261, 350)","(1262, 371)","(1265, 391)","(1269, 411)","(1277, 430)","(1289, 446)","(1304, 460)","(1321, 470)","(1340, 472)","(1360, 468)","(1379, 458)","(1395, 444)","(1407, 427)","(1415, 406)","(1418, 385)","(1418, 363)","(1418, 342)","(1268, 340)","(1278, 333)","(1292, 332)","(1306, 335)","(1320, 341)","(1341, 340)","(1355, 332)","(1371, 328)","(1386, 328)","(1399, 335)","(1331, 353)","(1331, 368)","(1331, 382)","(1330, 397)","(1315, 404)","(1324, 408)","(1333, 410)","(1343, 407)","(1351, 403)","(1284, 353)","(1292, 349)","(1303, 349)","(1313, 355)","(1303, 358)","(1292, 358)","(1354, 353)","(1363, 346)","(1374, 345)","(1384, 349)","(1375, 354)","(1364, 355)","(1306, 428)","(1316, 424)","(1326, 423)","(1335, 424)","(1343, 422)","(1356, 422)","(1370, 424)","(1358, 435)","(1346, 440)","(1337, 441)","(1328, 441)","(1317, 437)","(1311, 428)","(1327, 429)","(1335, 429)","(1344, 428)","(1364, 426)","(1345, 430)","(1336, 431)","(1328, 431)",0.29,0.96,36.0,0.37,-0.03,0.4,0.02,-8.5,0.12,0.36,17.3,20.5,30.7,9.3,11.0,20.55,4.29,7.35,9.17
866,12713984,76,-56,-1,-1,0,"(1266, 357)","(1266, 376)","(1268, 395)","(1271, 414)","(1279, 432)","(1290, 448)","(1305, 462)","(1321, 471)","(1340, 473)","(1359, 470)","(1376, 461)","(1390, 447)","(1400, 430)","(1406, 411)","(1408, 391)","(1408, 371)","(1407, 352)","(1274, 345)","(1283, 337)","(1296, 335)","(1309, 338)","(1322, 343)","(1342, 343)","(1355, 336)","(1369, 333)","(1383, 335)","(1393, 343)","(1333, 356)","(1333, 369)","(1333, 382)","(1333, 396)","(1317, 404)","(1325, 408)","(1334, 410)","(1343, 407)","(1351, 403)","(1288, 357)","(1296, 353)","(1306, 353)","(1315, 358)","(1305, 361)","(1296, 361)","(1352, 357)","(1361, 352)","(1371, 351)","(1379, 355)","(1372, 359)","(1362, 359)","(1307, 428)","(1318, 425)","(1328, 423)","(1336, 424)","(1344, 422)","(1355, 423)","(1367, 426)","(1357, 435)","(1346, 440)","(1337, 441)","(1329, 441)","(1318, 437)","(1312, 429)","(1328, 429)","(1336, 429)","(1344, 428)","(1362, 427)","(1345, 431)","(1337, 432)","(1329, 431)",0.27,0.87,36.0,0.38,-0.02,0.42,0.02,-7.5,0.12,0.34,15.7,17.6,28.6,8.5,10.4,19.75,3.64,7.17,8.76
900,-1114112,76,-56,-1,-1,0,"(1267, 355)","(1267, 374)","(1269, 393)","(1273, 412)","(1281, 430)","(1293, 445)","(1307, 459)","(1323, 468)","(1342, 470)","(1360, 467)","(1377, 457)","(1391, 443)","(1401, 426)","(1407, 407)","(1409, 388)","(1409, 368)","(1407, 349)","(1275, 344)","(1283, 336)","(1296, 334)","(1309, 336)","(1322, 342)","(1342, 341)","(1355, 334)","(1368, 331)","(1382, 332)","(1393, 339)","(1332, 354)","(1333, 367)","(1333, 381)","(1333, 394)","(1318, 402)","(1326, 405)","(1335, 408)","(1343, 405)","(1352, 400)","(1289, 355)","(1296, 351)","(1306, 351)","(1315, 356)","(1306, 359)","(1296, 359)","(1353, 355)","(1361, 349)","(1371, 348)","(1379, 351)","(1372, 356)","(1362, 356)","(1308, 426)","(1318, 422)","(1328, 420)","(1336, 422)","(1344, 419)","(1356, 420)","(1369, 422)","(1358, 432)","(1347, 437)","(1339, 439)","(1330, 438)","(1320, 435)","(1313, 426)","(1329, 426)","(1337, 427)","(1345, 425)","(1363, 424)","(1346, 428)","(1338, 430)","(1330, 429)",0.28,0.93,36.0,0.37,-0.04,0.43,0.02,-7.5,0.14,0.34,14.5,17.1,27.9,9.7,11.2,20.6,4.11,7.52,9.58
933,-1179648,76,-56,-1,-1,0,"(1266, 345)","(1266, 364)","(1268, 384)","(1272, 403)","(1280, 422)","(1291, 439)","(1306, 453)","(1323, 463)","(1342, 465)","(1362, 462)","(1381, 453)","(1398, 439)","(1411, 421)","(1419, 400)","(1421, 379)","(1421, 357)","(1420, 335)","(1272, 333)","(1280, 325)","(1294, 324)","(1307, 327)","(1320, 333)","(1343, 332)","(1357, 324)","(1372, 320)","(1388, 320)","(1401, 327)","(1332, 347)","(1332, 361)","(1331, 375)","(1331, 390)","(1316, 397)","(1324, 401)","(1334, 403)","(1343, 400)","(1352, 396)","(1286, 347)","(1294, 343)","(1305, 343)","(1315, 348)","(1304, 351)","(1294, 351)","(1356, 346)","(1365, 339)","(1376, 338)","(1386, 342)","(1377, 347)","(1366, 348)","(1308, 422)","(1318, 418)","(1328, 416)","(1336, 417)","(1344, 415)","(1357, 416)","(1371, 418)","(1359, 428)","(1347, 434)","(1338, 435)","(1330, 435)","(1319, 431)","(1313, 422)","(1328, 422)","(1336, 423)","(1344, 421)","(1366, 419)","(1346, 424)","(1337, 426)","(1329, 425)",0.29,0.96,36.0,0.38,-0.04,0.4,0.01,-8.0,0.12,0.36,17.6,20.9,32.8,9.2,10.85,21.45,3.35,6.23,8.17
966,-720896,76,-56,-1,-1,0,"(1272, 343)","(1271, 362)","(1273, 381)","(1277, 400)","(1284, 419)","(1294, 435)","(1308, 449)","(1325, 459)","(1343, 462)","(1363, 459)","(1383, 449)","(1401, 434)","(1415, 417)","(1424, 396)","(1427, 374)","(1428, 352)","(1427, 329)","(1275, 332)","(1283, 324)","(1296, 322)","(1309, 325)","(1322, 331)","(1343, 329)","(1358, 321)","(1374, 317)","(1391, 318)","(1404, 325)","(1333, 343)","(1332, 357)","(1331, 372)","(1330, 386)","(1317, 394)","(1325, 397)","(1334, 400)","(1343, 396)","(1353, 392)","(1288, 344)","(1296, 340)","(1307, 339)","(1317, 345)","(1307, 348)","(1296, 348)","(1357, 342)","(1367, 336)","(1378, 335)","(1388, 338)","(1379, 343)","(1368, 344)","(1309, 417)","(1318, 414)","(1328, 412)","(1336, 414)","(1344, 411)","(1358, 412)","(1373, 414)","(1360, 424)","(1347, 429)","(1338, 431)","(1330, 430)","(1320, 426)","(1314, 418)","(1328, 418)","(1337, 419)","(1345, 417)","(1368, 415)","(1346, 420)","(1338, 421)","(1329, 420)",0.25,1.03,36.0,0.38,-0.04,0.41,0.02,-7.5,0.12,0.36,17.5,20.6,31.8,8.35,10.2,20.95,4.05,7.05,7.82
1000,262144,76,-56,-1,-1,0,"(1272, 339)","(1272, 358)","(1274, 378)","(1277, 397)","(1284, 416)","(1295, 433)","(1309, 447)","(1325, 457)","(1344, 459)","(1364, 456)","(1385, 447)","(1402, 433)","(1416, 415)","(1425, 394)","(1428, 372)","(1429, 350)","(1428, 328)","(1277, 329)","(1285, 321)","(1298, 320)","(1312, 323)","(1325, 329)","(1346, 327)","(1361, 320)","(1377, 316)","(1393, 316)","(1406, 323)","(1336, 341)","(1335, 356)","(1334, 370)","(1333, 385)","(1319, 392)","(1327, 396)","(1336, 398)","(1346, 395)","(1355, 391)","(1291, 341)","(1299, 337)","(1309, 337)","(1319, 343)","(1309, 346)","(1298, 346)","(1360, 340)","(1369, 333)","(1380, 333)","(1390, 336)","(1381, 341)","(1370, 342)","(1311, 415)","(1320, 412)","(1330, 411)","(1338, 412)","(1346, 410)","(1359, 410)","(1374, 412)","(1361, 422)","(1349, 427)","(1340, 428)","(1332, 427)","(1322, 424)","(1316, 416)","(1331, 417)","(1339, 417)","(1347, 416)","(1369, 413)","(1348, 417)","(1339, 419)","(1331, 418)",0.28,1.01,36.0,0.37,-0.03,0.4,0.01,-8.5,0.12,0.37,18.0,20.5,31.3,8.7,10.15,20.35,2.52,5.52,6.94
1033,2555904,76,-56,-1,-1,0,"(1274, 336)","(1274, 356)","(1276, 375)","(1279, 395)","(1287, 414)","(1297, 431)","(1311, 445)","(1328, 455)","(1347, 458)","(1367, 455)","(1387, 446)","(1405, 432)","(1418, 414)","(1427, 394)","(1430, 372)","(1432, 350)","(1431, 328)","(1279, 326)","(1288, 318)","(1301, 317)","(1315, 319)","(1328, 325)","(1350, 324)","(1364, 317)","(1380, 313)","(1396, 314)","(1410, 321)","(1339, 338)","(1338, 353)","(1337, 367)","(1337, 382)","(1322, 389)","(1330, 393)","(1339, 395)","(1349, 392)","(1359, 388)","(1293, 339)","(1302, 334)","(1312, 334)","(1322, 340)","(1312, 343)","(1301, 343)","(1363, 338)","(1373, 332)","(1383, 331)","(1394, 335)","(1384, 340)","(1373, 341)","(1313, 412)","(1323, 409)","(1333, 407)","(1341, 409)","(1350, 407)","(1363, 408)","(1378, 410)","(1364, 420)","(1352, 425)","(1343, 426)","(1334, 425)","(1324, 421)","(1319, 413)","(1334, 414)","(1342, 414)","(1350, 413)","(1372, 411)","(1351, 415)","(1342, 417)","(1334, 416)",0.28,0.97,36.0,0.38,-0.03,0.41,0.02,-8.5,0.12,0.36,17.6,20.4,31.2,9.15,10.55,19.7,3.29,6.11,6.23
1066,3407872,76,-56,-1,-1,0,"(1276, 331)","(1276, 350)","(1278, 370)","(1281, 390)","(1288, 409)","(1299, 426)","(1313, 440)","(1329, 451)","(1348, 453)","(1369, 451)","(1389, 441)","(1406, 428)","(1420, 411)","(1429, 390)","(1433, 368)","(1434, 346)","(1434, 324)","(1282, 321)","(1291, 314)","(1304, 313)","(1318, 315)","(1331, 321)","(1352, 320)","(1367, 313)","(1383, 310)","(1399, 311)","(1412, 319)","(1342, 333)","(1341, 347)","(1340, 361)","(1339, 376)","(1324, 383)","(1332, 387)","(1342, 390)","(1351, 386)","(1361, 382)","(1296, 333)","(1305, 329)","(1315, 329)","(1325, 335)","(1315, 338)","(1304, 338)","(1365, 334)","(1375, 327)","(1386, 327)","(1396, 330)","(1387, 335)","(1376, 336)","(1315, 406)","(1325, 404)","(1335, 402)","(1343, 404)","(1352, 401)","(1365, 402)","(1380, 405)","(1367, 415)","(1354, 420)","(1345, 421)","(1336, 420)","(1326, 416)","(1320, 407)","(1335, 408)","(1344, 408)","(1352, 407)","(1374, 406)","(1353, 411)","(1344, 412)","(1336, 411)",0.27,0.98,36.0,0.38,-0.0,0.41,0.02,-8.5,0.12,0.35,15.5,18.2,29.4,8.6,11.0,20.7,3.17,6.23,7.23
1100,524288,76,-56,-1,-1,0,"(1277, 325)","(1276, 345)","(1277, 365)","(1280, 385)","(1287, 404)","(1297, 422)","(1312, 437)","(1328, 447)","(1348, 450)","(1368, 448)","(1389, 439)","(1407, 425)","(1420, 407)","(1429, 387)","(1433, 365)","(1434, 343)","(1433, 321)","(1283, 314)","(1292, 306)","(1306, 304)","(1320, 307)","(1333, 314)","(1355, 313)","(1369, 306)","(1386, 303)","(1402, 305)","(1414, 313)","(1343, 328)","(1343, 342)","(1342, 356)","(1341, 370)","(1326, 378)","(1334, 382)","(1343, 385)","(1352, 382)","(1362, 378)","(1297, 328)","(1306, 323)","(1317, 324)","(1326, 330)","(1316, 332)","(1305, 332)","(1367, 329)","(1377, 323)","(1388, 322)","(1397, 326)","(1388, 331)","(1377, 331)","(1315, 403)","(1325, 399)","(1336, 397)","(1344, 399)","(1352, 397)","(1366, 398)","(1380, 402)","(1367, 411)","(1354, 416)","(1345, 417)","(1337, 416)","(1326, 412)","(1321, 403)","(1336, 404)","(1344, 405)","(1353, 404)","(1374, 403)","(1354, 407)","(1345, 408)","(1337, 406)",0.28,0.97,36.0,0.37,0.0,0.41,0.01,-8.5,0.12,0.34,16.8,19.6,30.2,9.2,11.0,21.25,3.23,6.11,7.17
1133,-851968,76,-56,-1,-1,0,"(1278, 322)","(1277, 342)","(1278, 362)","(1281, 383)","(1288, 402)","(1299, 420)","(1313, 434)","(1330, 445)","(1350, 448)","(1370, 445)","(1390, 436)","(1408, 422)","(1421, 405)","(1430, 384)","(1434, 363)","(1435, 341)","(1434, 319)","(1284, 312)","(1293, 304)","(1307, 302)","(1321, 305)","(1335, 312)","(1355, 311)","(1370, 304)","(1387, 301)","(1403, 303)","(1416, 311)","(1345, 325)","(1344, 339)","(1343, 353)","(1342, 367)","(1327, 376)","(1335, 379)","(1344, 382)","(1354, 379)","(1363, 375)","(1299, 325)","(1307, 321)","(1318, 321)","(1328, 327)","(1317, 330)","(1307, 330)","(1368, 326)","(1378, 320)","(1389, 320)","(1398, 324)","(1389, 328)","(1379, 329)","(1317, 400)","(1327, 397)","(1337, 395)","(1345, 396)","(1354, 394)","(1367, 395)","(1382, 399)","(1369, 408)","(1356, 413)","(1347, 414)","(1338, 414)","(1328, 409)","(1322, 401)","(1337, 401)","(1346, 402)","(1354, 401)","(1376, 399)","(1355, 404)","(1347, 405)","(1338, 404)",0.28,0.98,36.0,0.37,0.0,0.41,0.01,-8.5,0.11,0.34,16.1,18.5,29.3,9.6,11.9,21.8,3.82,7.29,8.17
1166,-983040,76,-56,-1,-1,0,"(1278, 322)","(1277, 342)","(1278, 362)","(1281, 383)","(1288, 402)","(1298, 419)","(1313, 434)","(1329, 445)","(1349, 448)","(1370, 445)","(1390, 436)","(1408, 423)","(1421, 406)","(1430, 386)","(1434, 364)","(1435, 342)","(1435, 320)","(1284, 310)","(1293, 302)","(1306, 300)","(1321, 303)","(1334, 310)","(1355, 310)","(1370, 303)","(1387, 300)","(1403, 302)","(1416, 311)","(1344, 324)","(1343, 338)","(1342, 351)","(1341, 366)","(1326, 374)","(1334, 378)","(1343, 381)","(1353, 378)","(1362, 374)","(1298, 324)","(1307, 320)","(1317, 320)","(1327, 326)","(1317, 329)","(1306, 329)","(1368, 326)","(1378, 320)","(1389, 320)","(1398, 324)","(1389, 328)","(1378, 329)","(1316, 399)","(1326, 396)","(1337, 394)","(1345, 395)","(1353, 393)","(1367, 395)","(1382, 399)","(1368, 409)","(1355, 413)","(1346, 414)","(1337, 413)","(1327, 409)","(1321, 400)","(1337, 400)","(1345, 401)","(1354, 400)","(1376, 399)","(1355, 404)","(1346, 405)","(1337, 404)",0.28,0.98,36.0,0.37,0.0,0.42,0.02,-8.5,0.11,0.33,15.3,18.7,27.8,8.75,10.95,21.05,4.7,7.47,8.7
1200,-786432,76,-56,-1,-1,0,"(1276, 321)","(1276, 341)","(1277, 361)","(1279, 382)","(1286, 401)","(1296, 419)","(1311, 434)","(1328, 445)","(1348, 448)","(1369, 446)","(1390, 437)","(1408, 424)","(1422, 407)","(1431, 386)","(1434, 364)","(1435, 342)","(1435, 320)","(1283, 309)","(1293, 300)","(1307, 299)","(1321, 302)","(1334, 308)","(1355, 308)","(1370, 301)","(1387, 299)","(1403, 301)","(1416, 310)","(1344, 322)","(1343, 336)","(1342, 349)","(1341, 364)","(1326, 372)","(1334, 376)","(1343, 379)","(1353, 376)","(1362, 373)","(1298, 322)","(1307, 318)","(1317, 319)","(1327, 324)","(1317, 327)","(1306, 327)","(1368, 324)","(1378, 319)","(1388, 319)","(1398, 323)","(1389, 327)","(1378, 327)","(1316, 398)","(1326, 394)","(1336, 392)","(1344, 394)","(1353, 392)","(1366, 394)","(1381, 398)","(1367, 408)","(1355, 412)","(1345, 413)","(1337, 412)","(1326, 407)","(1321, 399)","(1336, 399)","(1345, 399)","(1353, 399)","(1375, 399)","(1354, 402)","(1345, 403)","(1337, 402)",0.26,0.98,36.0,0.37,0.0,0.4,0.02,-8.5,0.11,0.33,15.7,18.1,27.4,9.05,11.05,20.1,4.58,7.17,9.17
1233,-917504,76,-56,-1,-1,0,"(1275, 321)","(1274, 342)","(1275, 363)","(1278, 383)","(1284, 404)","(1294, 422)","(1308, 437)","(1326, 447)","(1346, 451)","(1367, 449)","(1388, 440)","(1407, 427)","(1421, 409)","(1430, 388)","(1434, 366)","(1436, 344)","(1436, 321)","(1281, 308)","(1291, 299)","(1305, 297)","(1319, 300)","(1333, 307)","(1354, 307)","(1370, 300)","(1386, 297)","(1403, 300)","(1415, 309)","(1343, 321)","(1342, 335)","(1340, 348)","(1339, 363)","(1324, 373)","(1332, 376)","(1341, 379)","(1351, 376)","(1361, 373)","(1296, 322)","(1305, 318)","(1315, 318)","(1325, 324)","(1315, 326)","(1304, 326)","(1367, 324)","(1377, 318)","(1388, 318)","(1398, 323)","(1388, 327)","(1377, 327)","(1313, 400)","(1323, 395)","(1334, 393)","(1342, 395)","(1351, 392)","(1365, 395)","(1379, 399)","(1366, 409)","(1353, 413)","(1343, 414)","(1334, 413)","(1324, 409)","(1318, 400)","(1334, 399)","(1342, 400)","(1351, 399)","(1373, 400)","(1352, 403)","(1343, 404)","(1335, 403)",0.29,0.97,36.0,0.37,0.0,0.4,0.02,-8.5,0.11,0.32,15.4,19.3,28.0,8.9,10.3,19.85,3.82,6.41,8.29
1266,-1114112,76,-56,-1,-1,0,"(1273, 322)","(1272, 343)","(1272, 364)","(1275, 385)","(1281, 406)","(1292, 424)","(1306, 439)","(1323, 450)","(1344, 454)","(1365, 452)","(1387, 443)","(1405, 430)","(1419, 412)","(1429, 391)","(1433, 368)","(1435, 346)","(1435, 323)","(1280, 308)","(1289, 299)","(1303, 298)","(1318, 301)","(1331, 307)","(1353, 308)","(1369, 301)","(1386, 299)","(1403, 302)","(1415, 311)","(1342, 323)","(1340, 337)","(1339, 350)","(1337, 365)","(1322, 375)","(1330, 379)","(1339, 381)","(1349, 379)","(1359, 375)","(1294, 323)","(1303, 318)","(1314, 319)","(1324, 325)","(1313, 328)","(1302, 327)","(1366, 326)","(1376, 320)","(1388, 320)","(1397, 324)","(1388, 329)","(1377, 328)","(1311, 403)","(1321, 397)","(1332, 395)","(1340, 397)","(1349, 395)","(1363, 397)","(1378, 403)","(1364, 412)","(1351, 417)","(1341, 417)","(1332, 416)","(1321, 412)","(1316, 403)","(1332, 402)","(1341, 403)","(1350, 402)","(1372, 403)","(1350, 406)","(1341, 407)","(1333, 406)",0.27,0.98,36.0,0.37,0.01,0.41,0.02,-9.5,0.1,0.32,16.2,19.2,28.1,9.55,11.7,21.05,4.41,7.82,9.52
1300,-1245184,76,-56,-1,-1,0,"(1271, 324)","(1269, 345)","(1270, 366)","(1272, 388)","(1278, 409)","(1288, 428)","(1302, 444)","(1319, 456)","(1340, 459)","(1362, 457)","(1384, 448)","(1403, 434)","(1418, 416)","(1428, 395)","(1432, 372)","(1434, 348)","(1435, 325)","(1276, 309)","(1286, 300)","(1300, 298)","(1315, 301)","(1328, 309)","(1352, 309)","(1368, 302)","(1385, 299)","(1402, 302)","(1415, 312)","(1339, 325)","(1338, 339)","(1336, 354)","(1334, 369)","(1319, 378)","(1327, 383)","(1336, 386)","(1346, 383)","(1356, 379)","(1290, 325)","(1299, 320)","(1311, 320)","(1321, 327)","(1310, 330)","(1299, 329)","(1364, 327)","(1375, 321)","(1387, 321)","(1397, 326)","(1387, 330)","(1375, 330)","(1307, 406)","(1317, 402)","(1328, 399)","(1337, 401)","(1346, 399)","(1360, 402)","(1375, 407)","(1361, 417)","(1347, 422)","(1338, 422)","(1328, 421)","(1318, 416)","(1313, 407)","(1329, 407)","(1337, 408)","(1346, 407)","(1369, 408)","(1347, 411)","(1338, 412)","(1329, 410)",0.27,0.98,36.0,0.39,0.02,0.41,0.02,-9.5,0.1,0.32,17.9,21.0,32.2,9.35,10.5,20.25,5.47,8.58,10.35
1333,-1310720,76,-56,-1,-1,0,"(1262, 334)","(1261, 354)","(1263, 375)","(1265, 396)","(1272, 417)","(1283, 435)","(1298, 450)","(1316, 461)","(1337, 465)","(1359, 462)","(1379, 453)","(1397, 440)","(1411, 423)","(1420, 402)","(1424, 380)","(1426, 357)","(1427, 335)","(1272, 319)","(1282, 310)","(1296, 307)","(1311, 309)","(1325, 315)","(1346, 315)","(1362, 308)","(1379, 306)","(1395, 310)","(1407, 320)","(1335, 330)","(1334, 344)","(1332, 357)","(1331, 372)","(1315, 382)","(1324, 386)","(1333, 389)","(1343, 386)","(1353, 382)","(1288, 333)","(1297, 329)","(1307, 329)","(1317, 334)","(1307, 337)","(1296, 336)","(1359, 334)","(1369, 328)","(1380, 329)","(1389, 333)","(1380, 336)","(1369, 336)","(1303, 410)","(1314, 405)","(1325, 402)","(1334, 404)","(1343, 402)","(1357, 405)","(1372, 410)","(1358, 421)","(1345, 425)","(1335, 426)","(1326, 425)","(1314, 421)","(1308, 411)","(1325, 409)","(1334, 410)","(1343, 409)","(1366, 411)","(1344, 415)","(1335, 416)","(1326, 415)",0.24,0.96,36.0,0.35,0.0,0.41,0.03,-8.0,0.1,0.31,15.6,18.1,26.9,10.35,12.3,21.75,5.05,8.0,10.88
1366,-1441792,76,-56,-1,-1,0,"(1258, 336)","(1257, 357)","(1258, 378)","(1260, 400)","(1267, 420)","(1277, 439)","(1292, 454)","(1309, 466)","(1330, 470)","(1353, 468)","(1375, 459)","(1394, 446)","(1409, 429)","(1419, 408)","(1423, 385)","(1425, 361)","(1426, 338)","(1268, 320)","(1277, 310)","(1291, 307)","(1306, 310)","(1320, 316)","(1342, 316)","(1358, 309)","(1376, 307)","(1393, 311)","(1405, 322)","(1330, 332)","(1329, 346)","(1327, 359)","(1325, 374)","(1309, 385)","(1318, 389)","(1327, 391)","(1338, 389)","(1348, 385)","(1283, 335)","(1292, 330)","(1302, 330)","(1312, 336)","(1302, 338)","(1291, 338)","(1355, 336)","(1366, 331)","(1376, 331)","(1386, 336)","(1377, 339)","(1366, 339)","(1297, 414)","(1307, 408)","(1319, 406)","(1328, 408)","(1337, 406)","(1352, 408)","(1367, 414)","(1353, 425)","(1339, 429)","(1329, 430)","(1319, 429)","(1308, 424)","(1302, 414)","(1319, 413)","(1328, 413)","(1338, 413)","(1361, 415)","(1338, 419)","(1329, 420)","(1320, 419)",0.25,0.99,36.0,0.35,0.0,0.41,0.03,-8.0,0.1,0.3,16.2,19.7,28.4,10.75,11.8,21.95,6.0,8.35,11.29
1400,-1245184,76,-56,-1,-1,0,"(1254, 335)","(1252, 357)","(1253, 379)","(1255, 401)","(1261, 422)","(1271, 442)","(1286, 458)","(1303, 471)","(1325, 475)","(1348, 473)","(1371, 463)","(1391, 450)","(1406, 432)","(1417, 410)","(1422, 386)","(1424, 362)","(1425, 338)","(1262, 321)","(1271, 311)","(1286, 309)","(1301, 311)","(1315, 318)","(1338, 318)","(1355, 311)","(1373, 309)","(1390, 312)","(1403, 323)","(1325, 334)","(1324, 348)","(1322, 362)","(1320, 377)","(1304, 388)","(1312, 392)","(1322, 395)","(1333, 392)","(1343, 389)","(1277, 335)","(1286, 331)","(1297, 331)","(1307, 337)","(1296, 339)","(1285, 339)","(1352, 337)","(1362, 331)","(1374, 332)","(1384, 337)","(1374, 340)","(1362, 340)","(1291, 418)","(1302, 412)","(1314, 409)","(1323, 412)","(1332, 409)","(1347, 412)","(1362, 419)","(1348, 429)","(1334, 433)","(1323, 434)","(1314, 433)","(1302, 428)","(1297, 418)","(1314, 417)","(1323, 418)","(1332, 417)","(1356, 419)","(1333, 422)","(1323, 423)","(1314, 422)",0.26,0.96,35.0,0.36,0.01,0.41,0.02,-8.5,0.1,0.3,15.5,19.2,27.8,10.3,11.5,21.75,6.64,9.52,12.41
1433,-1376256,76,-56,-1,-1,0,"(1241, 337)","(1239, 359)","(1240, 382)","(1243, 404)","(1251, 426)","(1262, 446)","(1278, 462)","(1296, 475)","(1319, 478)","(1342, 476)","(1363, 466)","(1381, 452)","(1395, 434)","(1405, 412)","(1409, 389)","(1412, 365)","(1412, 342)","(1252, 320)","(1262, 311)","(1277, 308)","(1293, 311)","(1308, 318)","(1332, 318)","(1348, 312)","(1365, 309)","(1382, 313)","(1394, 324)","(1319, 334)","(1318, 349)","(1317, 364)","(1315, 379)","(1298, 390)","(1307, 394)","(1317, 397)","(1327, 394)","(1337, 391)","(1267, 336)","(1277, 331)","(1288, 332)","(1298, 338)","(1287, 340)","(1276, 340)","(1344, 339)","(1355, 333)","(1366, 333)","(1376, 338)","(1366, 342)","(1355, 341)","(1284, 421)","(1296, 415)","(1308, 412)","(1317, 415)","(1327, 412)","(1341, 416)","(1356, 422)","(1342, 432)","(1328, 437)","(1318, 438)","(1308, 437)","(1296, 432)","(1290, 422)","(1308, 420)","(1317, 421)","(1327, 420)","(1349, 422)","(1328, 426)","(1318, 427)","(1309, 425)",0.26,0.92,35.0,0.36,0.03,0.42,0.03,-9.0,0.1,0.31,16.4,19.9,28.6,10.55,12.2,22.7,6.58,10.23,13.17
1466,-1572864,76,-56,-1,-1,0,"(1237, 338)","(1235, 361)","(1235, 383)","(1238, 406)","(1244, 429)","(1255, 449)","(1270, 467)","(1288, 479)","(1311, 484)","(1335, 482)","(1358, 472)","(1378, 457)","(1393, 438)","(1403, 416)","(1408, 391)","(1410, 367)","(1410, 343)","(1245, 322)","(1255, 311)","(1270, 309)","(1286, 311)","(1301, 319)","(1325, 319)","(1342, 312)","(1360, 310)","(1378, 314)","(1391, 325)","(1312, 335)","(1310, 350)","(1308, 365)","(1307, 381)","(1290, 392)","(1299, 396)","(1309, 399)","(1319, 396)","(1330, 393)","(1260, 337)","(1270, 332)","(1281, 332)","(1292, 339)","(1280, 341)","(1269, 341)","(1338, 339)","(1349, 333)","(1361, 334)","(1371, 339)","(1361, 343)","(1349, 342)","(1276, 424)","(1288, 418)","(1300, 415)","(1309, 417)","(1319, 415)","(1334, 418)","(1349, 425)","(1335, 436)","(1320, 440)","(1310, 441)","(1300, 440)","(1288, 435)","(1282, 424)","(1300, 422)","(1309, 423)","(1319, 422)","(1343, 425)","(1320, 429)","(1310, 430)","(1300, 429)",0.27,0.95,35.0,0.37,0.01,0.42,0.03,-9.5,0.1,0.3,16.5,20.1,29.5,10.95,12.7,22.45,7.76,11.41,14.64
1500,6094848,76,-56,-1,-1,0,"(1215, 324)","(1213, 350)","(1214, 376)","(1216, 402)","(1224, 427)","(1237, 450)","(1255, 468)","(1277, 482)","(1300, 487)","(1326, 485)","(1352, 475)","(1376, 460)","(1395, 440)","(1407, 415)","(1413, 388)","(1417, 361)","(1420, 333)","(1227, 311)","(1240, 302)","(1257, 302)","(1274, 307)","(1290, 317)","(1318, 318)","(1338, 310)","(1358, 307)","(1379, 311)","(1394, 322)","(1303, 335)","(1301, 351)","(1298, 367)","(1296, 384)","(1279, 395)","(1288, 400)","(1298, 403)","(1310, 401)","(1321, 397)","(1245, 331)","(1256, 326)","(1270, 327)","(1282, 336)","(1268, 339)","(1255, 338)","(1332, 339)","(1344, 331)","(1359, 331)","(1371, 338)","(1359, 343)","(1345, 343)","(1265, 427)","(1277, 421)","(1290, 419)","(1299, 421)","(1309, 419)","(1324, 423)","(1342, 430)","(1325, 440)","(1310, 445)","(1299, 445)","(1290, 444)","(1277, 438)","(1271, 428)","(1290, 427)","(1299, 428)","(1309, 428)","(1334, 430)","(1310, 433)","(1300, 433)","(1290, 431)",0.3,0.96,35.0,0.37,0.07,0.37,0.02,-12.5,0.08,0.32,19.4,22.7,34.4,10.8,12.75,23.2,6.41,9.52,10.7
1533,-917504,76,-56,-1,-1,0,"(1214, 332)","(1212, 357)","(1212, 382)","(1214, 408)","(1221, 433)","(1232, 456)","(1248, 476)","(1268, 491)","(1292, 496)","(1319, 494)","(1345, 483)","(1369, 467)","(1386, 445)","(1398, 420)","(1404, 393)","(1407, 365)","(1408, 337)","(1220, 317)","(1231, 306)","(1248, 305)","(1266, 309)","(1282, 318)","(1310, 319)","(1329, 311)","(1350, 308)","(1370, 312)","(1385, 324)","(1294, 337)","(1292, 353)","(1289, 370)","(1286, 387)","(1269, 398)","(1278, 403)","(1289, 407)","(1301, 404)","(1313, 400)","(1237, 335)","(1247, 329)","(1261, 329)","(1273, 338)","(1260, 341)","(1246, 341)","(1324, 340)","(1337, 332)","(1351, 333)","(1363, 339)","(1351, 344)","(1337, 344)","(1256, 432)","(1267, 426)","(1280, 423)","(1290, 426)","(1300, 424)","(1317, 427)","(1334, 434)","(1317, 445)","(1301, 450)","(1290, 450)","(1279, 449)","(1267, 443)","(1262, 433)","(1280, 432)","(1290, 433)","(1300, 433)","(1327, 435)","(1301, 437)","(1290, 438)","(1280, 436)",0.29,1.01,35.0,0.38,0.04,0.4,0.02,-12.0,0.09,0.31,20.7,23.5,36.0,11.25,13.15,23.4,7.0,10.41,13.17
1566,-1441792,76,-56,-1,-1,0,"(1197, 346)","(1196, 371)","(1197, 396)","(1200, 421)","(1207, 445)","(1220, 467)","(1237, 485)","(1257, 498)","(1282, 503)","(1308, 501)","(1334, 491)","(1357, 476)","(1375, 456)","(1387, 431)","(1392, 404)","(1395, 377)","(1396, 350)","(1208, 328)","(1219, 316)","(1236, 313)","(1254, 316)","(1271, 323)","(1297, 323)","(1316, 316)","(1336, 314)","(1356, 318)","(1371, 331)","(1282, 342)","(1280, 357)","(1278, 373)","(1276, 390)","(1258, 403)","(1268, 407)","(1279, 410)","(1290, 407)","(1302, 404)","(1226, 345)","(1237, 340)","(1249, 340)","(1261, 346)","(1249, 349)","(1236, 349)","(1311, 347)","(1324, 341)","(1337, 342)","(1348, 347)","(1337, 351)","(1324, 350)","(1243, 438)","(1256, 430)","(1269, 427)","(1279, 430)","(1290, 428)","(1307, 431)","(1325, 439)","(1308, 450)","(1292, 455)","(1280, 456)","(1269, 454)","(1256, 449)","(1250, 438)","(1269, 436)","(1279, 437)","(1290, 436)","(1318, 439)","(1291, 443)","(1280, 443)","(1270, 442)",0.24,0.97,35.0,0.36,0.01,0.41,0.03,-9.5,0.1,0.29,17.3,19.9,29.0,13.15,14.35,26.7,8.11,10.94,13.82
1600,-983040,76,-56,-1,-1,0,"(1181, 349)","(1179, 375)","(1180, 401)","(1184, 426)","(1192, 452)","(1205, 474)","(1223, 493)","(1245, 507)","(1270, 511)","(1297, 509)","(1322, 498)","(1344, 482)","(1361, 461)","(1373, 436)","(1378, 409)","(1380, 381)","(1381, 354)","(1192, 327)","(1204, 316)","(1222, 314)","(1240, 317)","(1258, 325)","(1284, 325)","(1304, 318)","(1324, 315)","(1344, 319)","(1358, 332)","(1270, 344)","(1268, 361)","(1266, 377)","(1264, 394)","(1245, 408)","(1255, 412)","(1267, 416)","(1278, 413)","(1290, 409)","(1211, 347)","(1222, 341)","(1235, 342)","(1246, 349)","(1234, 352)","(1221, 351)","(1299, 350)","(1311, 343)","(1325, 344)","(1336, 350)","(1325, 354)","(1311, 353)","(1230, 444)","(1243, 437)","(1257, 434)","(1267, 436)","(1278, 434)","(1294, 438)","(1311, 446)","(1295, 457)","(1279, 462)","(1268, 462)","(1257, 461)","(1244, 456)","(1237, 445)","(1257, 443)","(1267, 444)","(1278, 443)","(1304, 446)","(1279, 449)","(1268, 449)","(1258, 448)",0.27,0.93,35.0,0.36,0.03,0.4,0.02,-11.0,0.1,0.29,18.6,20.9,31.0,13.1,14.95,27.3,9.7,12.76,17.05
1633,-196608,76,-56,-1,-1,0,"(1156, 349)","(1154, 377)","(1156, 405)","(1160, 433)","(1170, 459)","(1186, 483)","(1206, 503)","(1229, 518)","(1256, 523)","(1283, 520)","(1307, 507)","(1327, 489)","(1343, 466)","(1353, 440)","(1358, 412)","(1360, 385)","(1359, 357)","(1172, 329)","(1186, 318)","(1205, 315)","(1225, 319)","(1243, 328)","(1272, 329)","(1291, 321)","(1311, 319)","(1330, 322)","(1343, 335)","(1257, 348)","(1256, 366)","(1255, 383)","(1254, 401)","(1232, 416)","(1243, 420)","(1254, 424)","(1266, 421)","(1278, 416)","(1192, 349)","(1204, 343)","(1218, 343)","(1230, 352)","(1217, 355)","(1203, 354)","(1284, 353)","(1297, 346)","(1311, 346)","(1322, 353)","(1311, 358)","(1297, 357)","(1215, 453)","(1230, 446)","(1245, 443)","(1255, 446)","(1266, 443)","(1282, 447)","(1298, 455)","(1283, 466)","(1268, 471)","(1256, 472)","(1245, 471)","(1230, 465)","(1222, 454)","(1244, 453)","(1255, 454)","(1266, 453)","(1291, 455)","(1267, 458)","(1256, 459)","(1246, 457)",0.3,0.88,35.0,0.37,0.03,0.4,0.02,-12.0,0.1,0.3,20.2,22.7,32.9,14.45,15.3,28.85,15.88,18.76,23.76
1666,1835008,76,-56,-1,-1,0,"(1150, 349)","(1148, 378)","(1148, 407)","(1151, 436)","(1159, 465)","(1172, 491)","(1191, 514)","(1213, 531)","(1241, 537)","(1271, 536)","(1302, 524)","(1330, 506)","(1351, 482)","(1366, 453)","(1373, 421)","(1377, 389)","(1379, 357)","(1157, 330)","(1170, 319)","(1190, 318)","(1210, 324)","(1228, 334)","(1259, 335)","(1282, 326)","(1307, 324)","(1331, 328)","(1349, 341)","(1242, 355)","(1239, 374)","(1236, 393)","(1233, 414)","(1213, 426)","(1224, 432)","(1236, 436)","(1249, 433)","(1263, 428)","(1176, 352)","(1189, 346)","(1204, 347)","(1218, 357)","(1202, 360)","(1187, 359)","(1277, 360)","(1291, 351)","(1307, 352)","(1321, 359)","(1308, 365)","(1291, 365)","(1199, 464)","(1212, 458)","(1227, 455)","(1237, 458)","(1249, 456)","(1268, 460)","(1289, 467)","(1268, 479)","(1250, 484)","(1238, 484)","(1226, 482)","(1213, 476)","(1206, 465)","(1226, 465)","(1237, 466)","(1249, 466)","(1280, 468)","(1250, 469)","(1238, 470)","(1227, 468)",0.3,1.01,35.0,0.37,0.06,0.39,0.02,-14.0,0.09,0.32,22.9,25.1,36.9,13.95,16.3,29.85,12.7,15.23,18.05
1700,3473408,76,-56,-1,-1,0,"(1130, 357)","(1127, 387)","(1126, 418)","(1130, 448)","(1138, 479)","(1153, 507)","(1173, 531)","(1197, 550)","(1227, 557)","(1259, 554)","(1290, 541)","(1318, 521)","(1339, 495)","(1353, 464)","(1359, 432)","(1362, 399)","(1362, 365)","(1138, 338)","(1152, 327)","(1172, 326)","(1192, 332)","(1211, 343)","(1245, 344)","(1268, 335)","(1293, 332)","(1317, 336)","(1335, 349)","(1226, 366)","(1224, 386)","(1221, 406)","(1218, 427)","(1197, 439)","(1208, 446)","(1221, 450)","(1235, 446)","(1249, 442)","(1158, 361)","(1171, 355)","(1187, 356)","(1201, 366)","(1185, 370)","(1169, 369)","(1262, 370)","(1277, 360)","(1294, 361)","(1308, 369)","(1294, 375)","(1277, 374)","(1183, 479)","(1196, 473)","(1211, 470)","(1223, 473)","(1235, 471)","(1254, 475)","(1275, 482)","(1255, 495)","(1237, 501)","(1224, 501)","(1212, 499)","(1197, 493)","(1190, 480)","(1211, 480)","(1222, 482)","(1235, 481)","(1267, 482)","(1236, 486)","(1224, 486)","(1212, 484)",0.3,1.0,35.0,0.38,0.06,0.39,0.02,-15.0,0.09,0.31,23.1,25.5,37.2,15.35,16.65,31.65,14.11,16.64,19.94
1733,1441792,76,-56,-1,-1,0,"(1106, 375)","(1103, 406)","(1103, 437)","(1107, 469)","(1118, 499)","(1134, 527)","(1156, 551)","(1182, 570)","(1212, 576)","(1243, 573)","(1273, 560)","(1300, 540)","(1321, 514)","(1335, 484)","(1340, 451)","(1343, 417)","(1343, 385)","(1119, 354)","(1134, 342)","(1155, 341)","(1176, 346)","(1196, 356)","(1228, 357)","(1252, 348)","(1276, 345)","(1300, 350)","(1317, 364)","(1211, 379)","(1209, 400)","(1206, 420)","(1204, 442)","(1182, 456)","(1194, 462)","(1207, 466)","(1221, 462)","(1234, 458)","(1141, 378)","(1154, 372)","(1169, 373)","(1183, 382)","(1168, 386)","(1152, 385)","(1245, 385)","(1260, 377)","(1277, 377)","(1291, 385)","(1277, 391)","(1261, 390)","(1165, 496)","(1180, 490)","(1196, 487)","(1208, 490)","(1220, 488)","(1239, 492)","(1260, 499)","(1241, 511)","(1222, 517)","(1209, 518)","(1197, 516)","(1181, 509)","(1173, 497)","(1196, 498)","(1208, 499)","(1220, 498)","(1252, 499)","(1222, 502)","(1209, 503)","(1197, 501)",0.29,0.96,35.0,0.37,0.05,0.4,0.02,-14.0,0.09,0.31,22.9,25.0,35.3,15.7,16.75,32.1,15.64,18.94,21.94
1766,-851968,76,-56,-1,-1,0,"(1092, 377)","(1089, 409)","(1090, 442)","(1094, 475)","(1104, 508)","(1120, 538)","(1142, 564)","(1166, 585)","(1197, 593)","(1230, 591)","(1265, 576)","(1297, 555)","(1322, 527)","(1339, 493)","(1347, 456)","(1352, 420)","(1355, 382)","(1100, 358)","(1116, 348)","(1137, 350)","(1158, 357)","(1178, 368)","(1214, 368)","(1240, 359)","(1267, 354)","(1294, 358)","(1316, 370)","(1194, 391)","(1191, 414)","(1187, 438)","(1183, 462)","(1162, 472)","(1174, 480)","(1188, 485)","(1203, 481)","(1218, 475)","(1122, 385)","(1135, 378)","(1153, 380)","(1168, 392)","(1151, 396)","(1133, 394)","(1234, 394)","(1251, 384)","(1269, 384)","(1286, 392)","(1270, 400)","(1251, 400)","(1149, 511)","(1163, 507)","(1178, 505)","(1190, 509)","(1203, 506)","(1224, 509)","(1249, 515)","(1225, 529)","(1205, 535)","(1191, 536)","(1178, 534)","(1164, 526)","(1157, 513)","(1178, 515)","(1190, 517)","(1203, 516)","(1239, 516)","(1204, 519)","(1191, 520)","(1179, 517)",0.3,1.05,36.0,0.37,0.07,0.38,0.02,-17.0,0.09,0.35,26.8,27.8,41.8,16.0,17.25,32.7,13.76,16.35,17.64
1800,-1048576,76,-56,-1,-1,0,"(1080, 397)","(1076, 429)","(1077, 461)","(1080, 493)","(1090, 525)","(1106, 555)","(1127, 582)","(1152, 603)","(1182, 611)","(1215, 609)","(1247, 594)","(1275, 573)","(1298, 545)","(1313, 512)","(1319, 477)","(1323, 442)","(1323, 407)","(1086, 379)","(1101, 367)","(1122, 366)","(1143, 372)","(1164, 383)","(1199, 384)","(1224, 374)","(1249, 371)","(1275, 375)","(1294, 389)","(1180, 407)","(1177, 430)","(1174, 453)","(1171, 477)","(1149, 488)","(1161, 495)","(1175, 500)","(1190, 496)","(1204, 491)","(1108, 403)","(1122, 396)","(1138, 397)","(1153, 408)","(1137, 412)","(1120, 411)","(1217, 411)","(1233, 402)","(1251, 402)","(1266, 410)","(1251, 417)","(1234, 416)","(1135, 528)","(1149, 524)","(1165, 522)","(1176, 525)","(1189, 522)","(1210, 526)","(1232, 532)","(1211, 546)","(1192, 552)","(1178, 553)","(1165, 551)","(1150, 543)","(1143, 530)","(1164, 532)","(1176, 534)","(1189, 533)","(1223, 533)","(1191, 536)","(1178, 537)","(1166, 535)",0.29,1.02,36.0,0.38,0.05,0.39,0.02,-15.5,0.09,0.34,23.7,25.8,38.3,15.7,17.1,32.55,17.41,19.11,23.94
1833,-917504,76,-56,-1,-1,0,"(1074, 416)","(1072, 448)","(1073, 479)","(1077, 511)","(1085, 543)","(1099, 572)","(1118, 599)","(1141, 621)","(1172, 629)","(1206, 628)","(1240, 613)","(1270, 592)","(1294, 564)","(1310, 531)","(1317, 494)","(1322, 456)","(1323, 419)","(1076, 395)","(1089, 382)","(1109, 381)","(1130, 387)","(1150, 397)","(1184, 397)","(1210, 387)","(1238, 384)","(1265, 388)","(1286, 403)","(1165, 420)","(1162, 444)","(1158, 468)","(1155, 493)","(1136, 504)","(1147, 511)","(1160, 516)","(1176, 511)","(1191, 506)","(1098, 419)","(1110, 412)","(1126, 413)","(1141, 423)","(1125, 427)","(1109, 426)","(1207, 425)","(1223, 416)","(1240, 416)","(1256, 424)","(1241, 431)","(1223, 430)","(1124, 544)","(1137, 540)","(1151, 538)","(1163, 542)","(1176, 539)","(1198, 543)","(1222, 548)","(1200, 563)","(1179, 569)","(1165, 569)","(1152, 567)","(1138, 559)","(1132, 546)","(1151, 548)","(1163, 550)","(1177, 549)","(1213, 549)","(1178, 552)","(1165, 553)","(1152, 550)",0.29,1.1,36.0,0.37,0.04,0.39,0.02,-15.0,0.1,0.34,24.1,25.3,38.9,15.6,16.85,33.45,12.82,15.29,19.41
1866,-983040,76,-56,-1,-1,0,"(1071, 424)","(1067, 455)","(1067, 486)","(1070, 518)","(1078, 550)","(1091, 580)","(1110, 608)","(1132, 632)","(1163, 641)","(1198, 639)","(1234, 624)","(1265, 602)","(1290, 573)","(1307, 538)","(1315, 500)","(1319, 462)","(1320, 423)","(1068, 402)","(1080, 389)","(1100, 389)","(1121, 395)","(1141, 405)","(1177, 406)","(1204, 396)","(1232, 392)","(1260, 396)","(1282, 411)","(1157, 429)","(1153, 454)","(1149, 478)","(1145, 504)","(1126, 514)","(1138, 521)","(1151, 527)","(1168, 522)","(1183, 517)","(1089, 426)","(1101, 420)","(1118, 421)","(1133, 431)","(1117, 435)","(1100, 434)","(1200, 433)","(1217, 424)","(1235, 425)","(1251, 432)","(1235, 439)","(1217, 439)","(1115, 553)","(1128, 550)","(1142, 549)","(1154, 553)","(1168, 550)","(1190, 553)","(1215, 558)","(1191, 573)","(1170, 579)","(1155, 579)","(1142, 577)","(1129, 568)","(1123, 555)","(1142, 558)","(1154, 561)","(1168, 560)","(1206, 559)","(1169, 563)","(1155, 563)","(1143, 560)",0.28,1.1,36.0,0.38,0.04,0.4,0.02,-15.0,0.1,0.35,24.7,27.2,39.9,15.85,16.8,33.25,11.41,14.11,19.11
1900,-1114112,76,-56,-1,-1,0,"(1037, 420)","(1035, 455)","(1037, 490)","(1042, 525)","(1054, 559)","(1073, 589)","(1099, 615)","(1127, 637)","(1160, 645)","(1195, 643)","(1230, 629)","(1262, 607)","(1287, 578)","(1303, 543)","(1310, 505)","(1315, 466)","(1317, 427)","(1054, 404)","(1071, 393)","(1094, 395)","(1117, 402)","(1139, 413)","(1172, 413)","(1199, 403)","(1228, 399)","(1257, 402)","(1280, 417)","(1155, 435)","(1152, 459)","(1149, 484)","(1146, 510)","(1124, 520)","(1136, 528)","(1150, 533)","(1166, 529)","(1182, 524)","(1080, 429)","(1094, 423)","(1112, 424)","(1127, 436)","(1110, 440)","(1093, 438)","(1196, 439)","(1213, 429)","(1232, 430)","(1248, 438)","(1233, 445)","(1214, 445)","(1110, 559)","(1126, 556)","(1141, 554)","(1153, 558)","(1166, 555)","(1187, 559)","(1213, 565)","(1190, 578)","(1170, 583)","(1156, 583)","(1143, 581)","(1128, 573)","(1118, 561)","(1141, 564)","(1153, 566)","(1167, 566)","(1203, 565)","(1169, 567)","(1155, 567)","(1143, 564)",0.29,1.03,36.0,0.35,0.07,0.36,0.01,-16.5,0.09,0.35,24.0,26.2,38.6,14.5,15.45,32.45,16.88,18.05,20.35
1933,-1179648,76,-56,-1,-1,0,"(1037, 421)","(1036, 456)","(1038, 491)","(1042, 526)","(1054, 559)","(1074, 589)","(1100, 615)","(1128, 637)","(1162, 645)","(1197, 643)","(1232, 629)","(1263, 608)","(1287, 579)","(1303, 544)","(1310, 506)","(1315, 468)","(1317, 429)","(1054, 403)","(1072, 393)","(1095, 394)","(1117, 401)","(1140, 412)","(1174, 413)","(1201, 404)","(1229, 400)","(1258, 403)","(1280, 418)","(1156, 434)","(1154, 458)","(1150, 483)","(1148, 509)","(1125, 519)","(1138, 527)","(1152, 532)","(1168, 528)","(1183, 523)","(1080, 429)","(1095, 423)","(1112, 424)","(1127, 435)","(1111, 439)","(1093, 438)","(1197, 439)","(1214, 430)","(1232, 431)","(1249, 438)","(1233, 446)","(1214, 445)","(1112, 558)","(1128, 555)","(1143, 553)","(1155, 557)","(1168, 555)","(1190, 559)","(1215, 565)","(1192, 577)","(1171, 582)","(1157, 582)","(1144, 580)","(1129, 572)","(1120, 560)","(1143, 563)","(1155, 565)","(1169, 565)","(1205, 566)","(1170, 566)","(1157, 566)","(1145, 563)",0.28,1.04,36.0,0.35,0.07,0.36,0.01,-16.0,0.09,0.35,23.5,25.6,37.6,13.9,15.7,31.2,17.64,19.11,22.11
1966,-1310720,76,-56,-1,-1,0,"(1044, 416)","(1041, 451)","(1041, 486)","(1045, 520)","(1057, 554)","(1077, 585)","(1103, 611)","(1133, 632)","(1166, 641)","(1201, 639)","(1235, 625)","(1266, 604)","(1290, 575)","(1305, 539)","(1312, 502)","(1315, 464)","(1316, 426)","(1059, 394)","(1076, 383)","(1099, 384)","(1122, 392)","(1144, 404)","(1182, 405)","(1208, 395)","(1236, 391)","(1263, 396)","(1284, 410)","(1162, 429)","(1159, 453)","(1156, 478)","(1153, 503)","(1131, 515)","(1143, 522)","(1157, 527)","(1173, 523)","(1188, 518)","(1085, 423)","(1100, 416)","(1118, 418)","(1133, 429)","(1116, 433)","(1098, 431)","(1202, 434)","(1219, 424)","(1238, 425)","(1254, 433)","(1238, 440)","(1219, 439)","(1116, 553)","(1132, 549)","(1148, 548)","(1160, 552)","(1174, 549)","(1196, 553)","(1221, 559)","(1198, 573)","(1178, 579)","(1163, 579)","(1150, 577)","(1133, 569)","(1124, 555)","(1148, 558)","(1160, 560)","(1174, 560)","(1211, 560)","(1176, 563)","(1163, 563)","(1150, 560)",0.28,1.03,36.0,0.36,0.08,0.38,0.02,-16.5,0.09,0.34,26.7,28.7,42.0,16.2,16.05,33.6,17.35,18.7,21.76
2000,-1376256,76,-56,-1,-1,0,"(1075, 417)","(1072, 449)","(1073, 481)","(1077, 513)","(1085, 545)","(1100, 575)","(1120, 602)","(1144, 625)","(1175, 633)","(1210, 631)","(1243, 617)","(1273, 596)","(1297, 568)","(1313, 535)","(1320, 498)","(1324, 460)","(1326, 422)","(1077, 397)","(1090, 384)","(1111, 383)","(1133, 389)","(1153, 399)","(1189, 399)","(1215, 390)","(1242, 386)","(1270, 391)","(1291, 406)","(1169, 421)","(1166, 445)","(1162, 469)","(1159, 495)","(1139, 505)","(1150, 512)","(1164, 518)","(1180, 513)","(1195, 508)","(1100, 418)","(1112, 412)","(1129, 412)","(1144, 423)","(1128, 427)","(1111, 426)","(1211, 426)","(1227, 416)","(1245, 417)","(1261, 425)","(1245, 432)","(1228, 431)","(1127, 546)","(1140, 542)","(1155, 540)","(1167, 544)","(1181, 541)","(1202, 545)","(1227, 552)","(1205, 566)","(1183, 572)","(1169, 572)","(1156, 570)","(1141, 562)","(1134, 548)","(1155, 550)","(1167, 552)","(1181, 551)","(1218, 552)","(1182, 556)","(1169, 556)","(1156, 553)",0.3,1.08,36.0,0.37,0.04,0.39,0.02,-15.5,0.1,0.34,23.8,26.2,39.3,14.7,15.9,31.25,12.52,15.82,19.82
2033,-1114112,76,-56,-1,-1,0,"(1065, 398)","(1063, 433)","(1065, 468)","(1070, 502)","(1081, 536)","(1100, 566)","(1125, 591)","(1153, 612)","(1186, 621)","(1220, 618)","(1255, 604)","(1286, 584)","(1310, 556)","(1326, 521)","(1334, 484)","(1338, 446)","(1340, 407)","(1079, 379)","(1097, 369)","(1120, 370)","(1142, 377)","(1164, 388)","(1200, 389)","(1227, 380)","(1254, 376)","(1282, 379)","(1305, 393)","(1181, 411)","(1178, 434)","(1175, 458)","(1172, 482)","(1149, 495)","(1162, 502)","(1176, 507)","(1192, 503)","(1207, 498)","(1104, 406)","(1119, 399)","(1137, 400)","(1152, 412)","(1135, 416)","(1117, 415)","(1221, 416)","(1239, 405)","(1257, 406)","(1274, 415)","(1258, 422)","(1239, 422)","(1136, 536)","(1151, 531)","(1167, 528)","(1179, 532)","(1192, 529)","(1213, 534)","(1238, 542)","(1215, 556)","(1195, 561)","(1181, 561)","(1168, 559)","(1153, 551)","(1145, 538)","(1167, 539)","(1179, 541)","(1192, 541)","(1228, 542)","(1194, 544)","(1181, 544)","(1169, 541)",0.31,1.03,36.0,0.36,0.07,0.37,0.02,-17.0,0.09,0.33,27.7,29.5,43.1,15.1,15.65,30.75,16.7,18.82,20.7
2066,-1441792,76,-56,-1,-1,0,"(1099, 398)","(1096, 429)","(1097, 461)","(1100, 493)","(1108, 524)","(1122, 554)","(1142, 580)","(1166, 601)","(1196, 610)","(1230, 608)","(1264, 594)","(1293, 573)","(1316, 546)","(1332, 513)","(1339, 477)","(1343, 441)","(1345, 404)","(1101, 376)","(1115, 364)","(1136, 363)","(1157, 369)","(1178, 379)","(1213, 381)","(1238, 371)","(1265, 368)","(1292, 373)","(1312, 388)","(1193, 403)","(1190, 425)","(1187, 448)","(1183, 472)","(1163, 484)","(1174, 491)","(1187, 496)","(1203, 492)","(1218, 487)","(1123, 400)","(1136, 393)","(1153, 394)","(1167, 405)","(1151, 408)","(1134, 407)","(1233, 408)","(1249, 398)","(1267, 399)","(1282, 407)","(1267, 414)","(1249, 413)","(1150, 525)","(1163, 520)","(1178, 517)","(1190, 521)","(1203, 518)","(1224, 523)","(1248, 530)","(1225, 545)","(1205, 551)","(1191, 551)","(1178, 548)","(1164, 540)","(1158, 526)","(1178, 528)","(1190, 530)","(1203, 529)","(1239, 531)","(1204, 534)","(1191, 534)","(1179, 532)",0.3,1.07,36.0,0.37,0.05,0.39,0.02,-15.5,0.1,0.33,26.0,27.1,41.6,14.35,14.8,29.55,12.64,16.11,20.17
2100,-1769472,76,-56,-1,-1,0,"(1096, 378)","(1094, 412)","(1094, 446)","(1099, 479)","(1109, 512)","(1127, 541)","(1152, 566)","(1179, 586)","(1210, 594)","(1244, 592)","(1278, 578)","(1308, 558)","(1331, 531)","(1347, 498)","(1354, 462)","(1359, 426)","(1362, 389)","(1109, 359)","(1127, 349)","(1150, 350)","(1172, 358)","(1193, 369)","(1228, 371)","(1254, 361)","(1281, 358)","(1308, 361)","(1329, 374)","(1209, 392)","(1206, 414)","(1203, 436)","(1200, 460)","(1178, 473)","(1190, 479)","(1204, 484)","(1219, 481)","(1233, 476)","(1133, 387)","(1148, 380)","(1165, 381)","(1181, 393)","(1164, 397)","(1146, 396)","(1247, 397)","(1264, 387)","(1283, 388)","(1299, 396)","(1283, 404)","(1265, 403)","(1163, 513)","(1178, 508)","(1194, 505)","(1205, 509)","(1218, 506)","(1239, 511)","(1262, 519)","(1240, 531)","(1221, 537)","(1207, 537)","(1195, 535)","(1179, 528)","(1171, 515)","(1194, 516)","(1205, 518)","(1218, 517)","(1252, 519)","(1220, 520)","(1207, 521)","(1195, 518)",0.3,1.01,36.0,0.37,0.07,0.37,0.01,-17.0,0.09,0.33,27.1,28.3,42.7,12.75,15.25,29.7,14.76,16.94,18.47
2133,11468800,76,-56,-1,-1,0,"(1127, 376)","(1123, 407)","(1124, 437)","(1128, 468)","(1137, 499)","(1151, 527)","(1172, 552)","(1196, 572)","(1226, 579)","(1258, 577)","(1290, 564)","(1318, 544)","(1340, 517)","(1354, 486)","(1360, 452)","(1363, 418)","(1364, 384)","(1134, 357)","(1148, 345)","(1168, 345)","(1189, 351)","(1209, 361)","(1242, 362)","(1266, 353)","(1292, 350)","(1316, 355)","(1335, 369)","(1224, 383)","(1221, 404)","(1218, 425)","(1215, 447)","(1195, 459)","(1206, 466)","(1219, 470)","(1233, 467)","(1247, 462)","(1155, 380)","(1167, 373)","(1184, 374)","(1198, 385)","(1182, 388)","(1166, 387)","(1260, 388)","(1276, 379)","(1293, 380)","(1307, 387)","(1293, 393)","(1276, 393)","(1181, 499)","(1195, 493)","(1209, 490)","(1221, 494)","(1233, 491)","(1253, 496)","(1275, 503)","(1255, 517)","(1235, 523)","(1222, 523)","(1210, 521)","(1195, 513)","(1188, 500)","(1209, 501)","(1221, 502)","(1233, 502)","(1267, 503)","(1235, 507)","(1222, 507)","(1210, 505)",0.28,1.03,36.0,0.38,0.06,0.39,0.02,-14.5,0.09,0.32,24.5,26.7,40.2,13.8,15.5,30.15,14.23,16.58,20.17
2166,-1441792,76,-56,-1,-1,0,"(1131, 370)","(1130, 401)","(1131, 432)","(1136, 463)","(1147, 492)","(1164, 518)","(1188, 539)","(1214, 556)","(1243, 562)","(1273, 559)","(1302, 547)","(1327, 528)","(1346, 504)","(1359, 474)","(1364, 443)","(1367, 411)","(1368, 380)","(1149, 349)","(1165, 338)","(1186, 337)","(1207, 342)","(1227, 351)","(1258, 353)","(1280, 345)","(1303, 342)","(1326, 346)","(1343, 360)","(1241, 372)","(1240, 391)","(1238, 410)","(1237, 430)","(1214, 445)","(1226, 451)","(1239, 455)","(1252, 451)","(1265, 447)","(1172, 370)","(1185, 364)","(1200, 365)","(1214, 374)","(1199, 378)","(1183, 377)","(1274, 377)","(1288, 368)","(1304, 369)","(1318, 377)","(1305, 382)","(1289, 382)","(1198, 485)","(1213, 478)","(1229, 474)","(1240, 478)","(1251, 475)","(1270, 480)","(1290, 488)","(1272, 500)","(1254, 505)","(1242, 506)","(1229, 504)","(1214, 498)","(1206, 486)","(1229, 485)","(1240, 486)","(1252, 486)","(1281, 488)","(1253, 490)","(1241, 491)","(1230, 489)",0.3,0.96,36.0,0.36,0.05,0.38,0.02,-14.0,0.1,0.3,22.3,25.0,37.3,14.45,15.75,29.95,15.35,18.58,21.41
2200,-1245184,76,-56,-1,-1,0,"(1160, 353)","(1157, 382)","(1158, 412)","(1161, 441)","(1171, 470)","(1185, 496)","(1206, 519)","(1230, 536)","(1258, 542)","(1287, 540)","(1316, 529)","(1342, 511)","(1362, 487)","(1376, 459)","(1382, 427)","(1385, 396)","(1386, 365)","(1173, 333)","(1188, 324)","(1207, 323)","(1227, 329)","(1245, 339)","(1278, 341)","(1299, 333)","(1322, 330)","(1345, 334)","(1361, 347)","(1260, 361)","(1257, 380)","(1255, 398)","(1252, 418)","(1232, 431)","(1242, 437)","(1254, 441)","(1267, 438)","(1280, 434)","(1193, 358)","(1206, 352)","(1221, 353)","(1234, 363)","(1220, 366)","(1204, 365)","(1292, 366)","(1307, 358)","(1323, 359)","(1336, 366)","(1323, 372)","(1307, 371)","(1217, 470)","(1230, 463)","(1245, 460)","(1255, 463)","(1266, 461)","(1285, 465)","(1304, 473)","(1286, 486)","(1269, 491)","(1257, 492)","(1245, 490)","(1231, 484)","(1224, 471)","(1245, 470)","(1255, 472)","(1267, 471)","(1296, 473)","(1268, 477)","(1257, 477)","(1246, 475)",0.29,1.01,36.0,0.37,0.07,0.38,0.02,-14.0,0.08,0.31,23.7,26.3,39.6,13.7,15.3,28.4,12.58,15.52,18.82
2233,-720896,76,-56,-1,-1,0,"(1181, 346)","(1179, 374)","(1180, 402)","(1184, 430)","(1192, 458)","(1206, 483)","(1225, 504)","(1248, 519)","(1275, 525)","(1303, 523)","(1332, 513)","(1358, 496)","(1377, 474)","(1391, 446)","(1398, 416)","(1402, 386)","(1404, 356)","(1192, 328)","(1207, 318)","(1226, 318)","(1245, 323)","(1264, 333)","(1294, 335)","(1315, 327)","(1338, 324)","(1360, 328)","(1377, 339)","(1277, 352)","(1275, 370)","(1272, 388)","(1269, 407)","(1250, 419)","(1260, 425)","(1272, 428)","(1285, 426)","(1297, 421)","(1212, 349)","(1224, 343)","(1239, 344)","(1253, 354)","(1238, 357)","(1223, 356)","(1309, 357)","(1324, 348)","(1339, 349)","(1352, 356)","(1339, 362)","(1324, 361)","(1235, 456)","(1249, 450)","(1263, 447)","(1273, 450)","(1284, 447)","(1302, 452)","(1321, 459)","(1303, 471)","(1286, 476)","(1274, 477)","(1263, 475)","(1249, 469)","(1242, 457)","(1263, 456)","(1273, 457)","(1284, 457)","(1313, 460)","(1285, 462)","(1274, 463)","(1263, 461)",0.3,0.97,35.0,0.37,0.05,0.38,0.02,-14.0,0.08,0.31,21.6,23.8,36.0,13.3,13.75,26.75,7.82,11.58,13.41
2266,262144,76,-56,-1,-1,0,"(1202, 348)","(1201, 374)","(1202, 400)","(1206, 427)","(1214, 452)","(1228, 475)","(1247, 494)","(1269, 508)","(1294, 512)","(1320, 510)","(1345, 499)","(1366, 483)","(1382, 462)","(1392, 436)","(1397, 409)","(1399, 383)","(1400, 356)","(1215, 329)","(1228, 318)","(1246, 317)","(1265, 320)","(1282, 329)","(1309, 330)","(1328, 323)","(1348, 321)","(1367, 325)","(1381, 337)","(1295, 347)","(1293, 363)","(1292, 380)","(1290, 397)","(1270, 410)","(1281, 415)","(1292, 418)","(1303, 415)","(1314, 411)","(1234, 347)","(1245, 341)","(1259, 341)","(1271, 350)","(1258, 353)","(1244, 352)","(1322, 352)","(1335, 345)","(1348, 345)","(1360, 352)","(1349, 356)","(1335, 356)","(1254, 446)","(1268, 439)","(1282, 436)","(1292, 438)","(1303, 436)","(1319, 440)","(1335, 448)","(1320, 460)","(1305, 465)","(1293, 465)","(1282, 464)","(1268, 458)","(1261, 447)","(1282, 445)","(1292, 446)","(1303, 445)","(1328, 448)","(1304, 452)","(1293, 453)","(1283, 451)",0.29,0.91,35.0,0.37,0.04,0.4,0.02,-11.5,0.09,0.3,19.8,22.2,33.3,12.1,13.85,25.65,9.17,12.64,16.35
2300,2752512,76,-56,-1,-1,0,"(1217, 331)","(1215, 357)","(1215, 383)","(1218, 410)","(1227, 435)","(1241, 458)","(1260, 478)","(1283, 492)","(1307, 498)","(1333, 496)","(1359, 486)","(1383, 470)","(1401, 449)","(1414, 423)","(1420, 396)","(1422, 368)","(1424, 340)","(1230, 316)","(1244, 307)","(1261, 306)","(1280, 311)","(1296, 321)","(1326, 323)","(1345, 315)","(1365, 312)","(1385, 315)","(1400, 326)","(1310, 342)","(1308, 358)","(1306, 374)","(1304, 390)","(1285, 403)","(1295, 408)","(1306, 411)","(1317, 409)","(1329, 405)","(1249, 338)","(1261, 333)","(1275, 334)","(1287, 343)","(1274, 346)","(1260, 345)","(1339, 346)","(1352, 338)","(1366, 339)","(1378, 345)","(1366, 351)","(1352, 350)","(1271, 437)","(1284, 430)","(1297, 427)","(1306, 430)","(1316, 428)","(1331, 432)","(1348, 440)","(1332, 451)","(1317, 456)","(1307, 456)","(1297, 455)","(1284, 449)","(1278, 437)","(1297, 437)","(1306, 438)","(1316, 437)","(1341, 440)","(1317, 443)","(1307, 443)","(1298, 442)",0.3,0.94,35.0,0.37,0.05,0.37,0.02,-13.0,0.09,0.3,21.7,24.4,37.3,11.0,12.45,24.1,6.11,9.58,11.29
2333,3801088,76,-56,-1,-1,0,"(1241, 328)","(1238, 352)","(1238, 376)","(1241, 400)","(1248, 424)","(1260, 446)","(1276, 464)","(1297, 477)","(1320, 482)","(1345, 480)","(1371, 470)","(1393, 455)","(1410, 435)","(1421, 411)","(1427, 385)","(1430, 360)","(1431, 333)","(1250, 311)","(1262, 302)","(1279, 302)","(1296, 306)","(1311, 314)","(1338, 315)","(1356, 308)","(1376, 306)","(1395, 309)","(1409, 319)","(1323, 332)","(1321, 347)","(1319, 363)","(1317, 379)","(1299, 390)","(1308, 395)","(1319, 399)","(1330, 396)","(1341, 392)","(1267, 330)","(1277, 325)","(1290, 325)","(1302, 333)","(1289, 336)","(1276, 336)","(1351, 335)","(1363, 328)","(1377, 329)","(1388, 335)","(1377, 340)","(1364, 339)","(1285, 422)","(1297, 416)","(1310, 414)","(1319, 416)","(1329, 415)","(1345, 418)","(1361, 425)","(1345, 436)","(1330, 440)","(1319, 441)","(1309, 439)","(1297, 434)","(1291, 423)","(1310, 422)","(1319, 423)","(1329, 423)","(1355, 425)","(1330, 428)","(1320, 429)","(1310, 427)",0.29,0.97,36.0,0.37,0.05,0.4,0.02,-11.5,0.09,0.31,19.0,21.9,34.2,10.75,12.4,22.9,6.11,8.58,12.47
2366,851968,76,-56,-1,-1,0,"(1249, 313)","(1246, 337)","(1246, 361)","(1249, 384)","(1256, 408)","(1268, 429)","(1285, 446)","(1306, 459)","(1329, 464)","(1353, 462)","(1377, 453)","(1399, 439)","(1415, 420)","(1426, 397)","(1431, 372)","(1433, 348)","(1434, 322)","(1261, 297)","(1273, 287)","(1289, 286)","(1306, 289)","(1322, 298)","(1349, 299)","(1367, 292)","(1385, 290)","(1403, 294)","(1416, 305)","(1334, 317)","(1332, 332)","(1330, 346)","(1329, 362)","(1310, 374)","(1319, 378)","(1330, 381)","(1341, 379)","(1351, 375)","(1277, 316)","(1288, 311)","(1301, 311)","(1312, 319)","(1300, 321)","(1287, 321)","(1360, 321)","(1372, 314)","(1385, 315)","(1396, 321)","(1385, 325)","(1372, 324)","(1295, 406)","(1307, 399)","(1320, 396)","(1330, 399)","(1339, 397)","(1354, 400)","(1370, 408)","(1355, 419)","(1340, 424)","(1330, 424)","(1320, 423)","(1307, 417)","(1301, 406)","(1320, 405)","(1330, 406)","(1339, 406)","(1363, 408)","(1340, 412)","(1330, 413)","(1321, 411)",0.27,0.94,36.0,0.38,0.05,0.4,0.02,-10.5,0.09,0.3,18.8,21.7,33.1,10.6,12.55,22.9,5.76,9.41,10.94
2400,-983040,76,-56,-1,-1,0,"(1259, 301)","(1258, 324)","(1259, 347)","(1261, 371)","(1268, 393)","(1279, 413)","(1295, 430)","(1314, 442)","(1336, 446)","(1360, 445)","(1384, 436)","(1406, 422)","(1422, 404)","(1433, 382)","(1439, 358)","(1442, 333)","(1445, 308)","(1271, 286)","(1283, 277)","(1299, 275)","(1315, 279)","(1331, 287)","(1355, 288)","(1372, 281)","(1391, 279)","(1409, 283)","(1423, 294)","(1341, 303)","(1339, 317)","(1338, 332)","(1336, 347)","(1318, 358)","(1327, 362)","(1337, 366)","(1347, 363)","(1358, 360)","(1287, 302)","(1297, 296)","(1310, 297)","(1321, 305)","(1309, 307)","(1296, 307)","(1367, 307)","(1379, 300)","(1391, 301)","(1402, 307)","(1391, 311)","(1379, 310)","(1303, 389)","(1315, 383)","(1328, 380)","(1337, 383)","(1346, 381)","(1361, 385)","(1376, 392)","(1361, 401)","(1346, 405)","(1336, 406)","(1327, 404)","(1315, 399)","(1309, 389)","(1328, 388)","(1337, 389)","(1346, 389)","(1370, 392)","(1346, 394)","(1337, 394)","(1328, 393)",0.28,0.93,36.0,0.37,0.05,0.39,0.02,-11.0,0.09,0.3,16.5,19.9,30.5,10.95,13.2,22.9,5.64,8.82,10.58
2433,-917504,76,-56,-1,-1,0,"(1271, 305)","(1270, 326)","(1270, 348)","(1272, 370)","(1278, 391)","(1289, 410)","(1304, 425)","(1322, 435)","(1343, 439)","(1366, 437)","(1387, 429)","(1406, 416)","(1421, 399)","(1431, 379)","(1435, 356)","(1437, 333)","(1438, 310)","(1282, 288)","(1292, 277)","(1307, 274)","(1322, 276)","(1337, 283)","(1358, 283)","(1374, 277)","(1392, 275)","(1408, 280)","(1419, 292)","(1346, 299)","(1345, 312)","(1343, 325)","(1341, 340)","(1325, 351)","(1333, 355)","(1343, 358)","(1353, 355)","(1362, 352)","(1297, 302)","(1306, 297)","(1317, 297)","(1327, 303)","(1316, 305)","(1306, 305)","(1370, 304)","(1381, 299)","(1391, 299)","(1401, 304)","(1391, 307)","(1380, 307)","(1311, 382)","(1322, 375)","(1334, 372)","(1343, 374)","(1352, 372)","(1366, 375)","(1380, 383)","(1366, 393)","(1353, 397)","(1343, 398)","(1334, 397)","(1322, 392)","(1316, 383)","(1334, 378)","(1343, 379)","(1352, 379)","(1374, 383)","(1353, 387)","(1343, 388)","(1334, 387)",0.25,0.93,36.0,0.36,0.02,0.41,0.04,-8.0,0.09,0.29,15.5,18.5,28.4,12.2,13.55,23.4,5.76,8.58,11.64
2466,-786432,76,-56,-1,-1,0,"(1273, 304)","(1271, 325)","(1272, 347)","(1275, 368)","(1281, 389)","(1292, 408)","(1307, 424)","(1325, 435)","(1346, 439)","(1368, 437)","(1389, 428)","(1407, 414)","(1421, 396)","(1431, 375)","(1435, 353)","(1437, 330)","(1437, 308)","(1282, 288)","(1293, 279)","(1307, 277)","(1322, 280)","(1337, 287)","(1359, 288)","(1374, 281)","(1391, 279)","(1407, 283)","(1419, 292)","(1347, 303)","(1345, 317)","(1344, 331)","(1343, 345)","(1326, 356)","(1335, 360)","(1344, 363)","(1354, 360)","(1364, 357)","(1297, 303)","(1306, 299)","(1317, 299)","(1327, 306)","(1317, 308)","(1306, 308)","(1370, 307)","(1381, 301)","(1392, 301)","(1401, 306)","(1392, 310)","(1381, 310)","(1313, 385)","(1324, 379)","(1336, 376)","(1345, 379)","(1354, 377)","(1367, 380)","(1382, 386)","(1368, 396)","(1355, 401)","(1345, 401)","(1336, 400)","(1325, 395)","(1319, 385)","(1336, 384)","(1345, 385)","(1354, 384)","(1376, 386)","(1355, 390)","(1345, 390)","(1337, 389)",0.29,0.92,36.0,0.37,0.02,0.42,0.03,-9.0,0.1,0.3,16.0,19.2,29.3,10.55,11.55,21.55,4.52,7.82,11.17
2500,-917504,76,-56,-1,-1,0,"(1267, 305)","(1267, 327)","(1268, 350)","(1271, 372)","(1279, 394)","(1291, 413)","(1307, 430)","(1327, 441)","(1349, 444)","(1371, 442)","(1393, 432)","(1412, 417)","(1427, 399)","(1437, 376)","(1441, 353)","(1444, 330)","(1445, 305)","(1278, 296)","(1290, 287)","(1305, 286)","(1321, 290)","(1336, 297)","(1361, 297)","(1377, 289)","(1394, 286)","(1412, 287)","(1425, 296)","(1348, 312)","(1347, 327)","(1346, 342)","(1344, 358)","(1328, 366)","(1336, 370)","(1346, 374)","(1356, 370)","(1366, 366)","(1295, 311)","(1305, 307)","(1317, 307)","(1327, 314)","(1316, 317)","(1304, 316)","(1373, 313)","(1383, 306)","(1395, 306)","(1406, 311)","(1396, 316)","(1384, 316)","(1315, 394)","(1327, 389)","(1338, 387)","(1347, 389)","(1355, 387)","(1369, 389)","(1384, 393)","(1370, 404)","(1357, 409)","(1348, 410)","(1338, 409)","(1327, 404)","(1321, 395)","(1338, 394)","(1347, 395)","(1356, 394)","(1378, 394)","(1357, 398)","(1348, 399)","(1339, 398)",0.3,0.93,36.0,0.36,0.0,0.38,0.02,-10.0,0.1,0.34,16.8,19.2,30.0,8.75,11.0,20.0,4.05,6.64,7.58
2533,-1114112,76,-56,-1,-1,0,"(1268, 322)","(1268, 344)","(1270, 366)","(1274, 388)","(1282, 408)","(1295, 426)","(1311, 441)","(1330, 451)","(1350, 454)","(1371, 452)","(1392, 442)","(1411, 429)","(1426, 411)","(1436, 390)","(1440, 367)","(1442, 344)","(1444, 320)","(1280, 310)","(1291, 302)","(1306, 301)","(1321, 304)","(1335, 311)","(1359, 311)","(1375, 303)","(1391, 300)","(1408, 301)","(1422, 309)","(1347, 325)","(1346, 340)","(1345, 355)","(1344, 370)","(1328, 378)","(1336, 383)","(1346, 386)","(1356, 382)","(1365, 378)","(1296, 325)","(1305, 320)","(1317, 320)","(1327, 327)","(1316, 330)","(1305, 330)","(1371, 326)","(1381, 319)","(1393, 319)","(1404, 323)","(1394, 328)","(1382, 329)","(1316, 405)","(1327, 401)","(1338, 399)","(1347, 400)","(1356, 398)","(1369, 400)","(1384, 404)","(1370, 415)","(1358, 420)","(1348, 421)","(1339, 420)","(1328, 415)","(1322, 406)","(1339, 405)","(1347, 406)","(1356, 405)","(1378, 405)","(1357, 409)","(1348, 411)","(1339, 410)",0.28,0.93,36.0,0.36,-0.0,0.38,0.02,-9.5,0.1,0.34,16.0,19.5,29.8,8.25,9.7,19.2,2.41,4.88,5.64
2566,-1245184,76,-56,-1,-1,0,"(1275, 335)","(1275, 355)","(1277, 376)","(1280, 397)","(1288, 417)","(1300, 435)","(1314, 450)","(1332, 461)","(1351, 464)","(1372, 461)","(1392, 451)","(1409, 436)","(1422, 418)","(1431, 397)","(1434, 375)","(1435, 353)","(1435, 330)","(1283, 324)","(1293, 317)","(1307, 316)","(1321, 319)","(1335, 325)","(1357, 325)","(1371, 318)","(1387, 314)","(1403, 315)","(1416, 322)","(1346, 339)","(1345, 354)","(1344, 368)","(1344, 383)","(1328, 390)","(1336, 395)","(1346, 398)","(1356, 394)","(1365, 390)","(1298, 338)","(1307, 334)","(1317, 335)","(1327, 341)","(1317, 343)","(1306, 343)","(1369, 340)","(1378, 333)","(1390, 333)","(1400, 336)","(1390, 341)","(1379, 342)","(1317, 416)","(1328, 412)","(1339, 410)","(1347, 412)","(1356, 410)","(1369, 411)","(1383, 414)","(1371, 425)","(1358, 431)","(1349, 432)","(1340, 431)","(1328, 426)","(1322, 417)","(1339, 417)","(1347, 417)","(1356, 416)","(1378, 415)","(1357, 421)","(1348, 422)","(1340, 421)",0.27,0.93,36.0,0.37,-0.01,0.41,0.03,-8.5,0.11,0.35,16.0,19.5,28.9,8.0,9.65,18.45,4.11,6.58,7.88
2600,-1310720,76,-56,-1,-1,0,"(1274, 344)","(1275, 365)","(1277, 385)","(1281, 406)","(1289, 426)","(1301, 443)","(1316, 457)","(1334, 468)","(1353, 471)","(1373, 467)","(1393, 456)","(1410, 442)","(1423, 423)","(1431, 402)","(1434, 380)","(1436, 358)","(1435, 335)","(1282, 335)","(1292, 328)","(1306, 327)","(1320, 329)","(1334, 335)","(1355, 334)","(1370, 327)","(1386, 323)","(1402, 323)","(1415, 330)","(1345, 347)","(1344, 362)","(1344, 377)","(1344, 393)","(1328, 399)","(1336, 403)","(1346, 406)","(1356, 402)","(1365, 398)","(1297, 347)","(1306, 343)","(1317, 343)","(1327, 349)","(1316, 352)","(1305, 352)","(1368, 347)","(1378, 340)","(1389, 339)","(1399, 343)","(1390, 348)","(1379, 349)","(1318, 422)","(1328, 420)","(1339, 418)","(1348, 420)","(1357, 417)","(1370, 418)","(1385, 419)","(1372, 431)","(1359, 438)","(1350, 439)","(1341, 438)","(1329, 433)","(1323, 424)","(1340, 424)","(1348, 425)","(1357, 423)","(1379, 421)","(1358, 427)","(1349, 429)","(1340, 428)",0.28,0.96,36.0,0.38,-0.03,0.41,0.02,-8.5,0.12,0.37,17.1,20.6,31.6,7.55,9.25,17.1,2.82,5.35,6.88
2633,-1310720,76,-56,-1,-1,0,"(1275, 349)","(1275, 369)","(1278, 389)","(1282, 409)","(1289, 429)","(1301, 446)","(1315, 461)","(1332, 472)","(1351, 475)","(1371, 471)","(1390, 461)","(1407, 446)","(1420, 428)","(1429, 407)","(1432, 385)","(1433, 362)","(1433, 340)","(1281, 340)","(1290, 333)","(1304, 332)","(1318, 335)","(1331, 341)","(1353, 340)","(1368, 333)","(1383, 329)","(1399, 329)","(1413, 336)","(1342, 354)","(1342, 369)","(1341, 384)","(1341, 400)","(1326, 406)","(1334, 410)","(1343, 413)","(1353, 409)","(1363, 405)","(1295, 353)","(1304, 349)","(1315, 350)","(1325, 355)","(1314, 358)","(1304, 358)","(1366, 354)","(1376, 347)","(1386, 346)","(1397, 350)","(1388, 355)","(1377, 356)","(1316, 428)","(1327, 426)","(1337, 424)","(1345, 426)","(1354, 424)","(1367, 424)","(1382, 425)","(1369, 437)","(1356, 443)","(1347, 445)","(1338, 444)","(1327, 439)","(1321, 429)","(1337, 430)","(1346, 431)","(1354, 429)","(1376, 427)","(1355, 433)","(1347, 435)","(1338, 434)",0.29,0.96,36.0,0.38,-0.02,0.41,0.02,-8.5,0.13,0.38,18.1,20.3,31.7,6.75,8.6,16.15,2.7,5.23,6.88
2666,-1114112,76,-56,-1,-1,0,"(1274, 355)","(1274, 374)","(1276, 394)","(1280, 414)","(1288, 433)","(1299, 450)","(1313, 465)","(1330, 476)","(1348, 478)","(1368, 475)","(1388, 464)","(1405, 449)","(1418, 430)","(1427, 409)","(1430, 387)","(1431, 365)","(1430, 343)","(1279, 345)","(1288, 337)","(1301, 337)","(1315, 340)","(1328, 346)","(1351, 344)","(1365, 336)","(1380, 331)","(1396, 331)","(1409, 337)","(1339, 358)","(1339, 373)","(1338, 388)","(1338, 404)","(1323, 410)","(1331, 414)","(1340, 417)","(1350, 413)","(1360, 408)","(1293, 359)","(1302, 355)","(1312, 355)","(1322, 360)","(1312, 363)","(1301, 363)","(1364, 357)","(1373, 351)","(1384, 350)","(1394, 353)","(1385, 358)","(1374, 359)","(1315, 433)","(1325, 430)","(1335, 428)","(1343, 430)","(1351, 428)","(1364, 428)","(1379, 429)","(1366, 441)","(1354, 447)","(1345, 449)","(1336, 448)","(1326, 443)","(1320, 434)","(1335, 434)","(1343, 435)","(1352, 434)","(1373, 431)","(1352, 437)","(1344, 439)","(1336, 438)",0.26,0.98,36.0,0.37,-0.04,0.41,0.02,-7.5,0.13,0.38,18.5,20.8,32.8,6.75,8.7,16.7,2.7,5.7,7.11
2700,-1441792,76,-56,-1,-1,0,"(1274, 359)","(1273, 378)","(1275, 397)","(1279, 416)","(1287, 435)","(1298, 452)","(1312, 467)","(1328, 478)","(1346, 481)","(1366, 477)","(1385, 466)","(1403, 451)","(1417, 433)","(1426, 412)","(1429, 390)","(1430, 367)","(1428, 344)","(1277, 347)","(1286, 340)","(1298, 339)","(1311, 342)","(1323, 348)","(1346, 346)","(1360, 338)","(1376, 333)","(1392, 333)","(1406, 339)","(1335, 361)","(1334, 377)","(1334, 392)","(1333, 407)","(1320, 413)","(1327, 417)","(1336, 420)","(1346, 416)","(1356, 412)","(1290, 362)","(1299, 357)","(1309, 357)","(1319, 363)","(1309, 366)","(1298, 366)","(1360, 360)","(1369, 353)","(1380, 352)","(1390, 355)","(1381, 361)","(1370, 362)","(1312, 435)","(1321, 433)","(1331, 431)","(1339, 433)","(1347, 430)","(1361, 431)","(1376, 432)","(1363, 444)","(1350, 450)","(1341, 452)","(1332, 451)","(1322, 446)","(1317, 436)","(1331, 437)","(1339, 438)","(1348, 437)","(1370, 433)","(1349, 440)","(1340, 442)","(1332, 441)",0.29,1.04,36.0,0.38,-0.04,0.41,0.02,-8.5,0.13,0.38,18.7,22.0,32.9,6.5,9.0,16.0,3.82,6.7,8.47
2733,-1900544,76,-56,-1,-1,0,"(1266, 357)","(1266, 376)","(1269, 396)","(1273, 415)","(1281, 434)","(1292, 451)","(1307, 466)","(1324, 477)","(1343, 479)","(1363, 476)","(1382, 465)","(1398, 450)","(1410, 432)","(1418, 411)","(1421, 389)","(1421, 367)","(1419, 346)","(1271, 348)","(1280, 341)","(1293, 340)","(1306, 343)","(1319, 349)","(1342, 347)","(1356, 339)","(1371, 335)","(1387, 334)","(1400, 341)","(1331, 362)","(1331, 377)","(1331, 392)","(1331, 407)","(1316, 413)","(1324, 417)","(1334, 420)","(1343, 416)","(1352, 411)","(1286, 362)","(1294, 358)","(1305, 358)","(1314, 363)","(1304, 366)","(1294, 366)","(1355, 361)","(1364, 354)","(1375, 353)","(1385, 356)","(1376, 362)","(1365, 363)","(1308, 434)","(1318, 432)","(1328, 431)","(1336, 433)","(1344, 430)","(1357, 430)","(1372, 431)","(1360, 443)","(1348, 449)","(1339, 451)","(1330, 450)","(1320, 445)","(1314, 435)","(1329, 437)","(1336, 437)","(1345, 436)","(1366, 432)","(1346, 439)","(1338, 441)","(1330, 440)",0.29,0.99,36.0,0.38,-0.04,0.41,0.03,-8.0,0.13,0.38,18.3,21.2,33.4,7.8,9.0,17.35,3.58,6.7,7.76
2766,13238272,76,-56,-1,-1,0,"(1264, 356)","(1264, 375)","(1267, 395)","(1271, 415)","(1279, 434)","(1291, 451)","(1306, 466)","(1323, 476)","(1341, 479)","(1361, 475)","(1380, 465)","(1396, 450)","(1409, 431)","(1417, 410)","(1420, 388)","(1420, 366)","(1418, 344)","(1269, 347)","(1278, 340)","(1291, 339)","(1305, 342)","(1318, 348)","(1340, 347)","(1354, 339)","(1369, 334)","(1386, 334)","(1399, 340)","(1330, 361)","(1330, 376)","(1329, 391)","(1329, 407)","(1315, 412)","(1323, 416)","(1332, 419)","(1342, 415)","(1351, 411)","(1284, 360)","(1292, 356)","(1303, 356)","(1313, 362)","(1303, 365)","(1292, 365)","(1353, 360)","(1363, 353)","(1374, 352)","(1384, 355)","(1375, 361)","(1364, 362)","(1307, 434)","(1316, 432)","(1326, 431)","(1334, 433)","(1343, 430)","(1355, 430)","(1370, 431)","(1358, 442)","(1346, 448)","(1337, 450)","(1328, 449)","(1318, 444)","(1312, 435)","(1327, 437)","(1335, 437)","(1343, 436)","(1365, 433)","(1344, 439)","(1336, 440)","(1328, 439)",0.28,0.99,36.0,0.39,-0.04,0.4,0.02,-8.5,0.13,0.38,18.3,21.6,31.4,7.05,9.0,17.65,3.11,6.17,7.17
2800,-1245184,76,-56,-1,-1,0,"(1264, 354)","(1264, 374)","(1267, 394)","(1271, 413)","(1279, 432)","(1291, 449)","(1305, 463)","(1322, 473)","(1340, 475)","(1360, 472)","(1379, 462)","(1395, 448)","(1408, 430)","(1416, 409)","(1419, 387)","(1420, 365)","(1419, 343)","(1269, 345)","(1278, 338)","(1291, 337)","(1305, 340)","(1318, 346)","(1340, 344)","(1354, 336)","(1370, 332)","(1386, 332)","(1399, 338)","(1330, 359)","(1329, 373)","(1329, 388)","(1328, 404)","(1314, 409)","(1322, 414)","(1331, 416)","(1341, 413)","(1350, 408)","(1284, 358)","(1292, 354)","(1303, 354)","(1313, 360)","(1303, 363)","(1292, 363)","(1353, 358)","(1363, 351)","(1374, 350)","(1384, 353)","(1375, 358)","(1364, 359)","(1306, 432)","(1316, 429)","(1326, 428)","(1334, 430)","(1342, 427)","(1355, 427)","(1370, 429)","(1357, 440)","(1345, 446)","(1336, 447)","(1328, 446)","(1317, 442)","(1311, 433)","(1326, 434)","(1334, 434)","(1343, 433)","(1364, 430)","(1344, 436)","(1335, 438)","(1327, 437)",0.25,0.98,36.0,0.38,-0.04,0.41,0.02,-8.0,0.12,0.38,18.6,21.5,31.9,7.6,8.5,17.7,3.05,6.64,7.35
2833,-1114112,76,-56,-1,-1,0,"(1262, 347)","(1263, 366)","(1266, 386)","(1270, 406)","(1278, 425)","(1290, 442)","(1304, 456)","(1321, 467)","(1340, 469)","(1360, 466)","(1379, 456)","(1396, 441)","(1409, 423)","(1417, 403)","(1420, 381)","(1421, 359)","(1420, 337)","(1268, 337)","(1277, 329)","(1291, 328)","(1305, 331)","(1318, 337)","(1339, 336)","(1353, 328)","(1369, 324)","(1386, 325)","(1399, 331)","(1329, 349)","(1329, 364)","(1328, 378)","(1328, 394)","(1313, 400)","(1321, 404)","(1331, 407)","(1341, 403)","(1350, 399)","(1283, 349)","(1292, 345)","(1302, 345)","(1312, 351)","(1302, 353)","(1291, 353)","(1353, 349)","(1362, 342)","(1373, 341)","(1383, 345)","(1374, 350)","(1364, 351)","(1305, 423)","(1315, 420)","(1325, 419)","(1333, 420)","(1342, 418)","(1355, 418)","(1370, 420)","(1357, 432)","(1345, 438)","(1336, 440)","(1327, 439)","(1316, 434)","(1310, 424)","(1325, 424)","(1334, 425)","(1342, 424)","(1364, 422)","(1344, 428)","(1335, 430)","(1326, 429)",0.3,0.98,36.0,0.37,-0.04,0.41,0.03,-8.0,0.13,0.37,16.4,19.1,30.5,6.55,9.15,16.9,3.82,6.7,8.05
2866,-589824,76,-56,-1,-1,0,"(1262, 336)","(1262, 356)","(1264, 376)","(1268, 396)","(1276, 415)","(1287, 433)","(1301, 448)","(1318, 459)","(1337, 462)","(1358, 459)","(1378, 449)","(1395, 435)","(1409, 416)","(1417, 395)","(1420, 373)","(1421, 351)","(1420, 328)","(1267, 325)","(1276, 318)","(1290, 318)","(1304, 320)","(1317, 327)","(1340, 325)","(1354, 318)","(1370, 314)","(1386, 315)","(1400, 322)","(1328, 340)","(1328, 355)","(1327, 369)","(1326, 385)","(1312, 391)","(1320, 396)","(1329, 398)","(1339, 395)","(1349, 391)","(1282, 339)","(1291, 335)","(1301, 335)","(1311, 341)","(1301, 344)","(1290, 344)","(1353, 340)","(1362, 333)","(1373, 332)","(1384, 336)","(1375, 341)","(1363, 342)","(1303, 415)","(1313, 412)","(1323, 411)","(1331, 412)","(1340, 410)","(1353, 411)","(1368, 413)","(1355, 424)","(1343, 430)","(1334, 431)","(1325, 430)","(1314, 426)","(1309, 416)","(1324, 417)","(1332, 418)","(1340, 416)","(1362, 414)","(1342, 420)","(1333, 421)","(1325, 420)",0.29,0.98,36.0,0.38,-0.0,0.41,0.02,-8.5,0.13,0.36,16.8,20.0,30.6,7.7,8.8,17.1,4.88,7.47,9.29
2900,589824,76,-56,-1,-1,0,"(1259, 332)","(1259, 352)","(1262, 372)","(1266, 393)","(1274, 413)","(1285, 430)","(1300, 445)","(1316, 456)","(1336, 458)","(1357, 455)","(1377, 445)","(1394, 430)","(1407, 412)","(1416, 391)","(1419, 368)","(1420, 346)","(1420, 323)","(1264, 322)","(1274, 314)","(1288, 312)","(1302, 315)","(1316, 320)","(1337, 319)","(1352, 312)","(1369, 308)","(1385, 309)","(1399, 317)","(1327, 333)","(1326, 348)","(1325, 363)","(1325, 379)","(1310, 386)","(1318, 390)","(1328, 392)","(1338, 389)","(1347, 384)","(1280, 334)","(1288, 329)","(1299, 329)","(1309, 335)","(1299, 338)","(1288, 338)","(1351, 333)","(1361, 326)","(1372, 325)","(1382, 329)","(1373, 334)","(1362, 335)","(1301, 410)","(1311, 407)","(1321, 405)","(1330, 406)","(1338, 404)","(1352, 405)","(1367, 407)","(1354, 419)","(1341, 424)","(1332, 426)","(1323, 425)","(1312, 420)","(1306, 411)","(1322, 411)","(1330, 411)","(1339, 410)","(1361, 409)","(1340, 414)","(1331, 416)","(1323, 415)",0.28,1.0,36.0,0.37,-0.03,0.4,0.03,-8.5,0.12,0.36,16.6,18.9,29.2,6.9,8.7,17.55,5.0,7.82,9.47
2933,3014656,76,-56,-1,-1,0,"(1256, 330)","(1257, 350)","(1259, 370)","(1263, 391)","(1271, 411)","(1282, 428)","(1296, 443)","(1313, 454)","(1333, 457)","(1354, 454)","(1375, 444)","(1393, 429)","(1407, 411)","(1416, 390)","(1419, 368)","(1421, 345)","(1421, 322)","(1262, 319)","(1272, 311)","(1286, 309)","(1300, 312)","(1314, 317)","(1335, 316)","(1350, 309)","(1367, 305)","(1384, 306)","(1398, 314)","(1325, 330)","(1324, 345)","(1323, 359)","(1322, 375)","(1307, 382)","(1315, 386)","(1325, 389)","(1335, 386)","(1345, 381)","(1278, 331)","(1286, 326)","(1297, 326)","(1307, 332)","(1297, 335)","(1286, 335)","(1349, 331)","(1359, 324)","(1370, 323)","(1380, 327)","(1371, 332)","(1360, 333)","(1298, 408)","(1308, 404)","(1318, 401)","(1327, 403)","(1336, 401)","(1349, 402)","(1364, 405)","(1351, 416)","(1338, 422)","(1329, 423)","(1320, 422)","(1309, 418)","(1303, 408)","(1319, 408)","(1327, 408)","(1336, 407)","(1359, 406)","(1337, 411)","(1328, 413)","(1319, 412)",0.28,0.97,36.0,0.36,-0.03,0.4,0.03,-8.5,0.12,0.35,16.1,18.8,29.5,7.7,9.5,17.45,4.7,8.17,8.76
2966,3276800,76,-56,-1,-1,0,"(1255, 327)","(1254, 347)","(1256, 368)","(1259, 388)","(1266, 408)","(1277, 426)","(1291, 442)","(1307, 453)","(1327, 456)","(1348, 453)","(1370, 444)","(1389, 429)","(1404, 411)","(1413, 389)","(1417, 366)","(1418, 343)","(1417, 319)","(1259, 312)","(1268, 304)","(1281, 302)","(1295, 305)","(1308, 312)","(1331, 310)","(1347, 303)","(1363, 299)","(1380, 301)","(1394, 309)","(1320, 326)","(1318, 341)","(1317, 356)","(1316, 371)","(1302, 380)","(1310, 384)","(1319, 387)","(1329, 383)","(1339, 379)","(1273, 328)","(1281, 323)","(1292, 323)","(1303, 329)","(1292, 332)","(1281, 332)","(1345, 327)","(1355, 320)","(1367, 320)","(1377, 324)","(1368, 329)","(1356, 330)","(1293, 406)","(1303, 402)","(1313, 400)","(1321, 401)","(1330, 399)","(1344, 401)","(1360, 405)","(1345, 416)","(1332, 421)","(1323, 422)","(1314, 421)","(1303, 416)","(1299, 407)","(1313, 406)","(1321, 407)","(1330, 406)","(1354, 406)","(1331, 410)","(1322, 412)","(1314, 410)",0.29,1.01,36.0,0.38,-0.0,0.41,0.02,-9.0,0.11,0.34,17.6,20.1,32.4,7.05,8.65,18.05,5.76,8.17,10.76
3000,65536,76,-56,-1,-1,0,"(1246, 325)","(1245, 346)","(1247, 367)","(1250, 388)","(1258, 408)","(1269, 426)","(1284, 442)","(1302, 453)","(1322, 456)","(1344, 453)","(1364, 443)","(1382, 429)","(1395, 411)","(1403, 389)","(1407, 366)","(1408, 344)","(1407, 321)","(1252, 311)","(1262, 302)","(1275, 301)","(1290, 303)","(1304, 310)","(1326, 309)","(1341, 302)","(1358, 299)","(1374, 301)","(1387, 309)","(1315, 325)","(1314, 340)","(1313, 354)","(1313, 369)","(1298, 378)","(1306, 382)","(1315, 385)","(1325, 381)","(1334, 377)","(1267, 326)","(1276, 321)","(1287, 321)","(1297, 328)","(1287, 330)","(1276, 330)","(1339, 327)","(1349, 320)","(1360, 320)","(1370, 324)","(1361, 329)","(1350, 329)","(1287, 405)","(1297, 400)","(1308, 398)","(1317, 399)","(1326, 397)","(1339, 399)","(1354, 404)","(1341, 415)","(1328, 420)","(1319, 421)","(1310, 421)","(1298, 416)","(1293, 406)","(1309, 405)","(1317, 405)","(1326, 404)","(1348, 404)","(1327, 410)","(1318, 411)","(1309, 410)",0.29,0.96,36.0,0.38,-0.0,0.41,0.03,-9.0,0.11,0.33,16.3,18.5,30.5,7.4,9.65,18.4,5.17,9.11,10.52
3033,-917504,76,-56,-1,-1,0,"(1241, 322)","(1240, 343)","(1241, 364)","(1244, 385)","(1251, 406)","(1262, 426)","(1277, 442)","(1294, 454)","(1315, 458)","(1338, 456)","(1359, 446)","(1378, 431)","(1392, 412)","(1401, 390)","(1405, 366)","(1406, 343)","(1406, 319)","(1247, 308)","(1256, 299)","(1270, 298)","(1285, 301)","(1299, 307)","(1322, 307)","(1338, 300)","(1355, 297)","(1372, 299)","(1385, 308)","(1310, 322)","(1309, 337)","(1308, 352)","(1306, 367)","(1291, 376)","(1299, 381)","(1309, 384)","(1320, 380)","(1329, 376)","(1261, 322)","(1270, 318)","(1282, 318)","(1292, 325)","(1281, 327)","(1270, 327)","(1336, 324)","(1346, 317)","(1357, 317)","(1368, 322)","(1358, 326)","(1347, 327)","(1281, 404)","(1291, 399)","(1302, 397)","(1311, 399)","(1320, 396)","(1335, 399)","(1350, 404)","(1336, 416)","(1323, 421)","(1312, 422)","(1303, 421)","(1292, 416)","(1286, 405)","(1302, 404)","(1311, 405)","(1320, 404)","(1344, 405)","(1322, 410)","(1312, 411)","(1303, 410)",0.29,1.0,36.0,0.38,-0.0,0.41,0.03,-9.0,0.11,0.33,16.1,19.9,28.8,7.6,9.8,18.3,4.7,7.76,10.11
3066,-917504,76,-56,-1,-1,0,"(1239, 325)","(1237, 345)","(1238, 366)","(1241, 387)","(1247, 408)","(1257, 428)","(1270, 445)","(1287, 458)","(1308, 463)","(1332, 461)","(1355, 451)","(1375, 437)","(1390, 418)","(1400, 395)","(1404, 371)","(1406, 347)","(1406, 323)","(1243, 307)","(1251, 298)","(1265, 296)","(1279, 299)","(1293, 306)","(1316, 305)","(1332, 298)","(1350, 296)","(1368, 299)","(1381, 308)","(1304, 321)","(1302, 336)","(1300, 350)","(1298, 366)","(1284, 376)","(1292, 380)","(1302, 383)","(1312, 380)","(1322, 376)","(1257, 323)","(1265, 318)","(1276, 318)","(1287, 324)","(1276, 327)","(1265, 327)","(1330, 324)","(1341, 318)","(1352, 318)","(1363, 323)","(1353, 327)","(1341, 327)","(1275, 405)","(1284, 399)","(1295, 397)","(1304, 399)","(1313, 397)","(1328, 399)","(1344, 406)","(1330, 418)","(1315, 423)","(1305, 424)","(1295, 423)","(1284, 417)","(1280, 406)","(1295, 404)","(1304, 405)","(1313, 404)","(1338, 406)","(1314, 412)","(1305, 413)","(1296, 411)",0.27,1.06,36.0,0.37,0.01,0.41,0.03,-9.0,0.1,0.31,16.3,19.2,30.2,7.5,8.9,17.65,4.23,7.35,9.64
3100,-786432,76,-56,-1,-1,0,"(1228, 325)","(1228, 347)","(1229, 369)","(1233, 391)","(1240, 413)","(1252, 432)","(1267, 450)","(1285, 462)","(1308, 466)","(1330, 463)","(1351, 452)","(1369, 435)","(1382, 416)","(1391, 393)","(1394, 369)","(1395, 345)","(1394, 322)","(1235, 308)","(1244, 299)","(1258, 297)","(1273, 300)","(1288, 306)","(1312, 306)","(1327, 298)","(1344, 296)","(1361, 298)","(1374, 308)","(1300, 322)","(1299, 337)","(1298, 351)","(1297, 366)","(1281, 377)","(1290, 381)","(1300, 384)","(1310, 381)","(1320, 377)","(1250, 324)","(1259, 319)","(1270, 319)","(1281, 325)","(1270, 328)","(1259, 328)","(1325, 324)","(1335, 318)","(1347, 318)","(1357, 323)","(1347, 327)","(1336, 327)","(1271, 408)","(1281, 402)","(1293, 399)","(1301, 401)","(1311, 399)","(1325, 401)","(1341, 407)","(1328, 420)","(1314, 426)","(1304, 427)","(1294, 426)","(1282, 420)","(1277, 409)","(1293, 407)","(1302, 408)","(1311, 407)","(1334, 408)","(1313, 414)","(1303, 415)","(1294, 414)",0.28,0.99,36.0,0.37,-0.0,0.42,0.03,-9.0,0.12,0.3,14.9,17.5,27.2,7.6,9.05,17.6,6.52,10.0,12.11
3133,-851968,76,-56,-1,-1,0,"(1225, 326)","(1224, 348)","(1225, 370)","(1228, 392)","(1234, 414)","(1245, 434)","(1259, 452)","(1277, 465)","(1300, 469)","(1323, 466)","(1346, 456)","(1365, 440)","(1380, 421)","(1389, 398)","(1393, 373)","(1394, 349)","(1393, 325)","(1230, 309)","(1239, 299)","(1253, 297)","(1268, 300)","(1283, 307)","(1306, 306)","(1323, 299)","(1341, 296)","(1358, 299)","(1371, 310)","(1294, 323)","(1293, 338)","(1291, 352)","(1290, 367)","(1274, 379)","(1283, 383)","(1293, 386)","(1303, 382)","(1314, 379)","(1245, 325)","(1254, 321)","(1265, 321)","(1276, 327)","(1265, 329)","(1254, 329)","(1320, 326)","(1331, 320)","(1343, 320)","(1353, 325)","(1343, 329)","(1332, 329)","(1264, 410)","(1274, 404)","(1285, 401)","(1294, 403)","(1304, 401)","(1319, 404)","(1335, 410)","(1321, 422)","(1307, 427)","(1296, 428)","(1287, 427)","(1275, 422)","(1270, 411)","(1286, 409)","(1295, 410)","(1304, 409)","(1329, 410)","(1306, 416)","(1296, 416)","(1287, 415)",0.27,1.02,36.0,0.38,0.01,0.42,0.03,-8.5,0.11,0.3,16.4,18.8,29.4,7.55,8.7,16.95,6.58,9.7,12.05
3166,-1114112,76,-56,-1,-1,0,"(1222, 329)","(1220, 351)","(1220, 372)","(1223, 395)","(1230, 417)","(1240, 437)","(1254, 455)","(1272, 469)","(1294, 473)","(1318, 470)","(1341, 460)","(1361, 445)","(1377, 425)","(1387, 402)","(1391, 377)","(1392, 352)","(1391, 327)","(1226, 312)","(1235, 302)","(1249, 299)","(1264, 302)","(1278, 309)","(1302, 308)","(1319, 300)","(1337, 298)","(1355, 302)","(1368, 312)","(1289, 325)","(1288, 340)","(1286, 355)","(1284, 370)","(1269, 381)","(1278, 385)","(1288, 389)","(1299, 385)","(1309, 381)","(1241, 328)","(1249, 323)","(1261, 323)","(1271, 329)","(1260, 331)","(1249, 331)","(1317, 328)","(1327, 322)","(1339, 322)","(1349, 327)","(1339, 331)","(1328, 331)","(1259, 413)","(1269, 406)","(1280, 403)","(1289, 405)","(1299, 403)","(1315, 406)","(1331, 413)","(1316, 425)","(1301, 431)","(1291, 432)","(1281, 431)","(1269, 425)","(1265, 413)","(1280, 411)","(1290, 412)","(1299, 411)","(1324, 413)","(1300, 419)","(1290, 420)","(1281, 419)",0.28,1.04,36.0,0.36,0.0,0.42,0.03,-8.5,0.11,0.3,16.2,19.6,28.7,8.7,10.3,19.3,6.35,10.52,13.05
3200,-1179648,76,-56,-1,-1,0,"(1203, 324)","(1202, 348)","(1204, 372)","(1208, 397)","(1216, 421)","(1229, 443)","(1246, 461)","(1266, 475)","(1290, 479)","(1315, 476)","(1339, 465)","(1360, 448)","(1376, 427)","(1386, 403)","(1390, 376)","(1392, 350)","(1392, 323)","(1212, 310)","(1224, 300)","(1240, 299)","(1256, 303)","(1272, 310)","(1297, 310)","(1315, 303)","(1334, 299)","(1353, 302)","(1368, 311)","(1284, 326)","(1283, 342)","(1282, 358)","(1280, 375)","(1263, 386)","(1272, 390)","(1283, 394)","(1294, 390)","(1305, 386)","(1229, 326)","(1240, 320)","(1252, 320)","(1264, 328)","(1252, 331)","(1239, 331)","(1312, 328)","(1323, 320)","(1337, 320)","(1348, 326)","(1337, 331)","(1324, 332)","(1251, 418)","(1263, 412)","(1275, 409)","(1285, 411)","(1295, 409)","(1311, 412)","(1328, 417)","(1313, 431)","(1297, 437)","(1287, 438)","(1276, 437)","(1264, 431)","(1258, 419)","(1275, 417)","(1285, 418)","(1295, 417)","(1321, 418)","(1296, 425)","(1286, 426)","(1276, 424)",0.31,0.98,35.0,0.37,0.0,0.4,0.03,-11.0,0.11,0.32,17.5,20.9,32.0,8.25,10.0,18.0,6.7,10.41,12.29
3233,-1245184,76,-56,-1,-1,0,"(1187, 333)","(1186, 358)","(1188, 383)","(1192, 408)","(1202, 432)","(1217, 453)","(1236, 471)","(1259, 484)","(1284, 488)","(1308, 485)","(1331, 473)","(1350, 456)","(1365, 435)","(1374, 410)","(1378, 384)","(1379, 359)","(1378, 333)","(1201, 312)","(1214, 303)","(1230, 301)","(1247, 305)","(1264, 313)","(1290, 313)","(1308, 305)","(1326, 302)","(1345, 305)","(1358, 315)","(1278, 331)","(1277, 346)","(1276, 362)","(1276, 378)","(1257, 392)","(1267, 396)","(1278, 399)","(1289, 395)","(1299, 391)","(1220, 332)","(1230, 326)","(1243, 326)","(1254, 334)","(1242, 337)","(1230, 336)","(1304, 334)","(1316, 327)","(1328, 327)","(1339, 333)","(1329, 338)","(1316, 338)","(1243, 426)","(1256, 419)","(1269, 415)","(1279, 418)","(1289, 415)","(1305, 418)","(1321, 424)","(1307, 437)","(1292, 443)","(1282, 445)","(1271, 444)","(1257, 438)","(1250, 426)","(1270, 424)","(1279, 425)","(1289, 424)","(1314, 425)","(1291, 431)","(1281, 432)","(1271, 431)",0.31,0.93,35.0,0.36,0.02,0.4,0.03,-11.0,0.1,0.29,17.7,19.8,31.2,7.1,8.95,18.05,7.47,11.58,13.29
3266,-1310720,76,-56,-1,-1,0,"(1185, 332)","(1184, 357)","(1185, 382)","(1189, 408)","(1198, 433)","(1211, 455)","(1229, 474)","(1250, 489)","(1275, 493)","(1301, 490)","(1325, 479)","(1346, 462)","(1361, 440)","(1372, 415)","(1376, 388)","(1377, 361)","(1377, 334)","(1196, 313)","(1208, 304)","(1224, 302)","(1241, 306)","(1257, 315)","(1285, 315)","(1302, 307)","(1322, 304)","(1341, 307)","(1355, 317)","(1271, 332)","(1269, 349)","(1268, 365)","(1266, 383)","(1248, 394)","(1258, 399)","(1269, 402)","(1281, 399)","(1291, 395)","(1213, 332)","(1224, 326)","(1237, 327)","(1248, 335)","(1236, 338)","(1223, 337)","(1299, 336)","(1311, 328)","(1324, 328)","(1336, 334)","(1325, 339)","(1311, 339)","(1236, 429)","(1247, 422)","(1261, 419)","(1271, 421)","(1281, 419)","(1297, 422)","(1314, 429)","(1299, 443)","(1284, 449)","(1273, 450)","(1262, 449)","(1248, 442)","(1242, 430)","(1261, 427)","(1271, 428)","(1281, 427)","(1307, 430)","(1283, 436)","(1272, 437)","(1262, 436)",0.29,0.98,35.0,0.37,0.03,0.4,0.03,-11.5,0.1,0.31,18.2,20.6,32.4,8.15,10.55,19.75,7.88,11.52,13.94
3300,-1179648,76,-56,-1,-1,0,"(1180, 333)","(1178, 359)","(1179, 385)","(1183, 410)","(1191, 436)","(1204, 459)","(1222, 480)","(1243, 495)","(1268, 500)","(1295, 497)","(1321, 484)","(1343, 466)","(1360, 444)","(1371, 417)","(1375, 389)","(1377, 361)","(1376, 333)","(1187, 316)","(1198, 306)","(1215, 305)","(1233, 309)","(1249, 318)","(1278, 318)","(1296, 310)","(1317, 306)","(1337, 309)","(1352, 319)","(1263, 336)","(1261, 354)","(1259, 371)","(1258, 389)","(1240, 400)","(1250, 405)","(1261, 409)","(1273, 405)","(1284, 401)","(1205, 335)","(1215, 329)","(1229, 330)","(1241, 338)","(1228, 341)","(1214, 341)","(1293, 338)","(1305, 330)","(1319, 330)","(1331, 336)","(1320, 342)","(1306, 342)","(1227, 435)","(1239, 429)","(1252, 426)","(1263, 428)","(1273, 426)","(1290, 429)","(1308, 435)","(1292, 448)","(1276, 454)","(1265, 455)","(1254, 454)","(1240, 448)","(1234, 436)","(1253, 435)","(1263, 436)","(1274, 435)","(1301, 435)","(1275, 441)","(1264, 442)","(1254, 441)",0.31,0.99,35.0,0.37,0.02,0.41,0.02,-12.0,0.1,0.32,19.3,21.9,33.5,8.25,10.55,20.0,7.88,11.52,14.11
3333,-1179648,76,-56,-1,-1,0,"(1163, 347)","(1162, 373)","(1164, 399)","(1168, 425)","(1178, 450)","(1193, 472)","(1212, 490)","(1234, 504)","(1260, 508)","(1285, 505)","(1309, 494)","(1330, 477)","(1346, 455)","(1356, 430)","(1360, 403)","(1361, 376)","(1361, 349)","(1176, 329)","(1188, 318)","(1205, 315)","(1224, 318)","(1241, 325)","(1267, 325)","(1286, 317)","(1306, 314)","(1326, 317)","(1340, 330)","(1254, 344)","(1253, 360)","(1252, 376)","(1251, 394)","(1232, 408)","(1242, 412)","(1253, 415)","(1265, 411)","(1276, 407)","(1195, 347)","(1206, 342)","(1218, 341)","(1230, 348)","(1218, 351)","(1205, 351)","(1282, 348)","(1294, 341)","(1307, 341)","(1319, 347)","(1308, 351)","(1295, 351)","(1218, 443)","(1231, 436)","(1245, 432)","(1255, 435)","(1265, 432)","(1282, 435)","(1299, 442)","(1284, 454)","(1268, 460)","(1257, 461)","(1246, 460)","(1232, 455)","(1225, 443)","(1245, 441)","(1255, 442)","(1266, 441)","(1292, 443)","(1267, 447)","(1257, 448)","(1246, 447)",0.27,0.95,35.0,0.36,0.0,0.4,0.03,-9.5,0.11,0.3,17.5,20.2,29.8,10.0,11.9,22.45,13.11,15.7,18.23
3366,-1376256,76,-56,-1,-1,0,"(1159, 348)","(1158, 375)","(1159, 401)","(1163, 428)","(1172, 454)","(1185, 478)","(1203, 499)","(1224, 515)","(1250, 519)","(1277, 517)","(1304, 505)","(1326, 487)","(1343, 464)","(1354, 437)","(1359, 408)","(1361, 380)","(1361, 351)","(1167, 330)","(1178, 319)","(1196, 317)","(1214, 321)","(1231, 329)","(1259, 329)","(1279, 321)","(1300, 318)","(1321, 322)","(1336, 334)","(1244, 348)","(1243, 366)","(1241, 385)","(1239, 404)","(1220, 415)","(1230, 421)","(1242, 424)","(1255, 421)","(1267, 416)","(1185, 348)","(1196, 342)","(1209, 343)","(1222, 351)","(1209, 354)","(1195, 354)","(1275, 352)","(1288, 344)","(1302, 345)","(1314, 351)","(1302, 356)","(1288, 355)","(1208, 450)","(1220, 444)","(1233, 442)","(1244, 445)","(1255, 442)","(1273, 445)","(1291, 451)","(1274, 464)","(1258, 470)","(1246, 471)","(1235, 469)","(1221, 463)","(1214, 451)","(1234, 451)","(1244, 452)","(1256, 451)","(1284, 452)","(1257, 457)","(1246, 458)","(1235, 456)",0.28,1.01,35.0,0.37,0.02,0.41,0.02,-12.0,0.11,0.32,19.6,21.7,32.9,11.65,13.5,24.35,11.76,14.58,18.11
3400,1310720,76,-56,-1,-1,0,"(1132, 348)","(1131, 377)","(1132, 407)","(1136, 437)","(1146, 465)","(1163, 491)","(1185, 511)","(1211, 527)","(1239, 532)","(1269, 529)","(1297, 517)","(1321, 498)","(1340, 474)","(1351, 445)","(1356, 415)","(1358, 385)","(1358, 354)","(1148, 330)","(1163, 320)","(1183, 320)","(1203, 325)","(1222, 335)","(1253, 336)","(1274, 327)","(1296, 324)","(1318, 327)","(1335, 339)","(1236, 355)","(1235, 374)","(1233, 393)","(1232, 413)","(1210, 425)","(1221, 431)","(1234, 435)","(1247, 431)","(1259, 426)","(1168, 352)","(1181, 346)","(1197, 347)","(1210, 357)","(1195, 360)","(1180, 359)","(1267, 359)","(1282, 350)","(1297, 350)","(1311, 357)","(1298, 363)","(1282, 363)","(1194, 461)","(1209, 455)","(1224, 453)","(1235, 456)","(1247, 453)","(1265, 456)","(1285, 462)","(1267, 475)","(1250, 481)","(1237, 482)","(1225, 480)","(1210, 474)","(1202, 462)","(1224, 462)","(1235, 463)","(1247, 462)","(1277, 463)","(1249, 467)","(1237, 468)","(1226, 466)",0.29,0.95,35.0,0.38,0.05,0.4,0.02,-13.5,0.1,0.32,21.4,23.0,35.1,12.5,14.8,26.7,13.82,16.41,18.94
3433,3604480,76,-56,-1,-1,0,"(1130, 354)","(1127, 384)","(1128, 413)","(1132, 443)","(1141, 473)","(1157, 500)","(1177, 524)","(1201, 542)","(1229, 548)","(1260, 545)","(1290, 531)","(1316, 510)","(1336, 484)","(1349, 454)","(1355, 422)","(1357, 389)","(1357, 356)","(1137, 338)","(1151, 328)","(1171, 327)","(1191, 332)","(1210, 343)","(1243, 343)","(1265, 334)","(1289, 329)","(1312, 332)","(1330, 344)","(1225, 364)","(1223, 385)","(1221, 405)","(1218, 427)","(1198, 438)","(1209, 444)","(1222, 448)","(1236, 444)","(1249, 439)","(1157, 361)","(1170, 354)","(1186, 355)","(1200, 365)","(1185, 369)","(1169, 368)","(1259, 366)","(1274, 357)","(1291, 357)","(1305, 364)","(1292, 370)","(1275, 370)","(1183, 474)","(1197, 469)","(1212, 467)","(1224, 470)","(1236, 467)","(1256, 470)","(1276, 476)","(1257, 491)","(1238, 497)","(1225, 498)","(1213, 497)","(1198, 489)","(1191, 475)","(1212, 476)","(1224, 478)","(1236, 477)","(1268, 476)","(1238, 483)","(1225, 484)","(1213, 482)",0.28,1.0,35.0,0.39,0.03,0.4,0.02,-14.0,0.1,0.34,23.2,25.3,38.5,12.95,15.75,28.15,12.23,15.35,17.41
3466,-1245184,76,-56,-1,-1,0,"(1106, 373)","(1105, 404)","(1107, 435)","(1111, 465)","(1122, 495)","(1140, 521)","(1163, 544)","(1189, 561)","(1218, 567)","(1249, 564)","(1278, 550)","(1303, 530)","(1322, 504)","(1334, 474)","(1339, 441)","(1341, 409)","(1341, 377)","(1120, 355)","(1134, 343)","(1155, 342)","(1176, 346)","(1197, 356)","(1228, 356)","(1251, 347)","(1275, 344)","(1298, 348)","(1315, 361)","(1212, 378)","(1210, 398)","(1209, 419)","(1207, 440)","(1185, 453)","(1197, 459)","(1210, 463)","(1224, 459)","(1238, 453)","(1142, 377)","(1155, 371)","(1171, 372)","(1185, 381)","(1170, 384)","(1154, 383)","(1245, 382)","(1260, 374)","(1276, 374)","(1290, 381)","(1277, 386)","(1260, 386)","(1170, 489)","(1185, 484)","(1201, 482)","(1213, 485)","(1225, 482)","(1245, 485)","(1266, 491)","(1247, 505)","(1229, 512)","(1215, 513)","(1202, 511)","(1187, 504)","(1178, 491)","(1201, 491)","(1213, 493)","(1226, 492)","(1258, 492)","(1228, 497)","(1215, 498)","(1202, 496)",0.26,0.98,35.0,0.37,0.03,0.4,0.02,-12.5,0.11,0.32,21.0,22.8,35.1,14.1,15.6,29.55,14.52,17.41,19.23
3500,-983040,76,-56,-1,-1,0,"(1102, 381)","(1099, 412)","(1100, 443)","(1105, 475)","(1115, 506)","(1131, 534)","(1152, 559)","(1177, 579)","(1207, 586)","(1239, 583)","(1270, 567)","(1297, 545)","(1318, 517)","(1332, 485)","(1337, 451)","(1339, 416)","(1338, 382)","(1107, 362)","(1121, 351)","(1141, 351)","(1162, 356)","(1182, 366)","(1218, 367)","(1241, 356)","(1266, 352)","(1291, 355)","(1310, 368)","(1199, 389)","(1197, 412)","(1195, 434)","(1193, 458)","(1171, 467)","(1183, 474)","(1196, 479)","(1211, 475)","(1225, 469)","(1128, 386)","(1141, 379)","(1158, 380)","(1173, 390)","(1156, 394)","(1140, 393)","(1236, 392)","(1251, 382)","(1269, 382)","(1284, 389)","(1270, 396)","(1252, 396)","(1158, 504)","(1172, 500)","(1188, 498)","(1200, 502)","(1213, 499)","(1234, 501)","(1256, 506)","(1236, 523)","(1216, 531)","(1202, 532)","(1189, 530)","(1173, 521)","(1166, 506)","(1188, 508)","(1200, 510)","(1213, 509)","(1247, 508)","(1215, 515)","(1201, 516)","(1189, 514)",0.29,1.02,35.0,0.39,0.03,0.41,0.02,-14.5,0.11,0.35,24.0,26.6,40.5,14.4,16.25,29.6,13.11,15.7,18.35
3533,-196608,76,-56,-1,-1,0,"(1080, 399)","(1079, 431)","(1080, 463)","(1085, 495)","(1097, 527)","(1115, 555)","(1138, 580)","(1164, 600)","(1195, 607)","(1227, 603)","(1257, 587)","(1283, 565)","(1303, 537)","(1316, 505)","(1320, 470)","(1322, 435)","(1321, 401)","(1092, 378)","(1107, 366)","(1128, 365)","(1149, 370)","(1170, 381)","(1205, 381)","(1228, 371)","(1252, 367)","(1276, 371)","(1294, 384)","(1187, 404)","(1185, 426)","(1183, 449)","(1182, 473)","(1159, 484)","(1171, 490)","(1185, 495)","(1200, 490)","(1214, 485)","(1115, 402)","(1128, 396)","(1145, 397)","(1159, 406)","(1143, 410)","(1127, 409)","(1222, 408)","(1237, 399)","(1254, 399)","(1269, 406)","(1255, 412)","(1238, 412)","(1144, 522)","(1159, 517)","(1176, 515)","(1188, 519)","(1202, 516)","(1223, 518)","(1245, 523)","(1225, 541)","(1206, 549)","(1191, 550)","(1178, 548)","(1161, 539)","(1152, 523)","(1176, 525)","(1189, 527)","(1202, 525)","(1237, 525)","(1204, 533)","(1191, 534)","(1178, 532)",0.27,0.99,35.0,0.37,0.03,0.41,0.03,-13.5,0.11,0.33,23.0,24.7,37.0,15.05,16.75,29.2,14.7,16.7,19.35
3566,1376256,76,-56,-1,-1,0,"(1036, 395)","(1036, 433)","(1038, 471)","(1045, 508)","(1060, 543)","(1084, 574)","(1115, 599)","(1147, 619)","(1182, 625)","(1216, 620)","(1250, 602)","(1282, 577)","(1306, 546)","(1323, 510)","(1330, 472)","(1334, 432)","(1336, 392)","(1064, 382)","(1084, 372)","(1108, 373)","(1132, 380)","(1156, 392)","(1196, 390)","(1221, 379)","(1248, 372)","(1275, 372)","(1298, 383)","(1175, 414)","(1174, 438)","(1172, 463)","(1170, 489)","(1145, 500)","(1158, 508)","(1173, 512)","(1189, 507)","(1205, 500)","(1092, 409)","(1108, 401)","(1128, 402)","(1144, 415)","(1126, 420)","(1107, 418)","(1214, 414)","(1230, 401)","(1250, 400)","(1268, 408)","(1252, 417)","(1232, 418)","(1128, 538)","(1146, 533)","(1164, 531)","(1177, 535)","(1190, 531)","(1213, 533)","(1237, 538)","(1215, 556)","(1194, 565)","(1180, 566)","(1165, 565)","(1148, 556)","(1137, 540)","(1164, 541)","(1177, 543)","(1191, 541)","(1227, 540)","(1193, 549)","(1179, 550)","(1165, 548)",0.31,0.97,35.0,0.35,0.01,0.36,0.02,-17.5,0.1,0.35,26.8,29.1,43.5,15.25,16.65,29.8,14.52,15.88,16.58
3600,3407872,76,-56,-1,-1,0,"(1040, 412)","(1038, 448)","(1039, 484)","(1045, 520)","(1058, 555)","(1080, 585)","(1107, 612)","(1137, 634)","(1171, 642)","(1206, 638)","(1239, 620)","(1268, 596)","(1290, 565)","(1304, 529)","(1310, 491)","(1312, 453)","(1312, 415)","(1057, 394)","(1074, 384)","(1097, 385)","(1120, 392)","(1143, 403)","(1181, 404)","(1206, 393)","(1233, 388)","(1260, 390)","(1282, 402)","(1162, 428)","(1160, 453)","(1158, 478)","(1156, 505)","(1132, 515)","(1145, 522)","(1160, 527)","(1176, 522)","(1191, 516)","(1082, 422)","(1097, 416)","(1116, 417)","(1132, 428)","(1114, 433)","(1096, 431)","(1200, 430)","(1218, 420)","(1237, 420)","(1253, 427)","(1238, 435)","(1219, 435)","(1117, 553)","(1134, 549)","(1151, 547)","(1164, 551)","(1177, 548)","(1200, 550)","(1224, 555)","(1203, 573)","(1182, 582)","(1167, 583)","(1153, 581)","(1135, 571)","(1126, 555)","(1151, 558)","(1164, 560)","(1178, 559)","(1215, 557)","(1181, 565)","(1166, 566)","(1153, 563)",0.28,1.01,35.0,0.38,0.04,0.39,0.02,-16.0,0.1,0.35,27.1,28.2,43.1,15.3,15.7,28.85,15.88,17.35,19.7
3633,2228224,76,-56,-1,-1,0,"(1021, 440)","(1024, 479)","(1030, 518)","(1041, 557)","(1060, 595)","(1084, 629)","(1114, 659)","(1146, 682)","(1185, 687)","(1226, 680)","(1266, 658)","(1300, 626)","(1326, 587)","(1341, 544)","(1345, 498)","(1344, 452)","(1339, 407)","(1040, 415)","(1057, 403)","(1081, 402)","(1105, 407)","(1130, 416)","(1167, 411)","(1194, 398)","(1224, 389)","(1254, 389)","(1282, 400)","(1149, 438)","(1148, 464)","(1147, 490)","(1146, 517)","(1125, 533)","(1139, 541)","(1156, 545)","(1173, 538)","(1190, 530)","(1071, 440)","(1085, 432)","(1103, 431)","(1121, 441)","(1103, 447)","(1085, 448)","(1195, 435)","(1211, 422)","(1231, 421)","(1250, 427)","(1234, 437)","(1214, 439)","(1116, 582)","(1131, 574)","(1148, 570)","(1162, 572)","(1178, 568)","(1204, 569)","(1234, 574)","(1211, 597)","(1187, 609)","(1171, 611)","(1155, 610)","(1137, 602)","(1125, 583)","(1150, 581)","(1164, 581)","(1180, 579)","(1224, 577)","(1184, 591)","(1168, 594)","(1153, 593)",0.3,1.1,35.0,0.33,-0.04,0.37,0.03,-15.0,0.12,0.31,28.7,31.5,46.3,17.55,18.45,32.7,23.58,24.47,27.64
