milliseconds, ECG, ECG HR, PPG, PPG HR, SpO2, PI
1523630484206,-1179648,76,-56,-1,-1,0
1523630484206,-1179648,76,-56,-1,-1,0
1523630484206,-1245184,76,-56,-1,-1,0
1523630484206,-1245184,76,-56,-1,-1,0
1523630484206,-1245184,76,-56,-1,-1,0
1523630484246,-1245184,76,-56,-1,-1,0
1523630484246,-1245184,76,-56,-1,-1,0
1523630484246,-1245184,76,-56,-1,-1,0
1523630484246,-1245184,76,-56,-1,-1,0
1523630484246,-1245184,76,-56,-1,-1,0
1523630484286,-1245184,76,-56,-1,-1,0
1523630484286,-1245184,76,-56,-1,-1,0
1523630484286,-1310720,76,-56,-1,-1,0
1523630484286,-1376256,76,-56,-1,-1,0
1523630484286,-1245184,76,-56,-1,-1,0
1523630484326,-1114112,76,-56,-1,-1,0
1523630484326,-1048576,76,-56,-1,-1,0
1523630484326,-983040,76,-56,-1,-1,0
1523630484326,-983040,76,-56,-1,-1,0
1523630484326,-1048576,76,-56,-1,-1,0
1523630484366,-1179648,76,-56,-1,-1,0
1523630484366,-1245184,76,-56,-1,-1,0
1523630484366,-1310720,76,-56,-1,-1,0
1523630484366,-1310720,76,-56,-1,-1,0
1523630484366,-1245184,76,-56,-1,-1,0
1523630484406,-1310720,76,-56,-1,-1,0
1523630484406,-1376256,76,-56,-1,-1,0
1523630484406,-1507328,76,-56,-1,-1,0
1523630484406,-1835008,76,-56,-1,-1,0
1523630484406,-1507328,76,-56,-1,-1,0
1523630484446,458752,76,-56,-1,-1,0
1523630484446,4456448,76,-56,-1,-1,0
1523630484446,9502720,76,-56,-1,-1,0
1523630484446,13041664,76,-56,-1,-1,0
1523630484446,11403264,76,-56,-1,-1,0
1523630484486,5308416,76,-56,-1,-1,0
1523630484486,196608,76,-56,-1,-1,0
1523630484486,-1114112,76,-56,-1,-1,0
1523630484486,-1114112,76,-56,-1,-1,0
1523630484486,-1179648,76,-56,-1,-1,0
1523630484526,-1310720,76,-56,-1,-1,0
1523630484526,-1245184,76,-56,-1,-1,0
1523630484526,-1114112,76,-56,-1,-1,0
1523630484526,-1048576,76,-56,-1,-1,0
1523630484526,-1048576,76,-56,-1,-1,0
1523630484566,-917504,76,-56,-1,-1,0
1523630484566,-851968,76,-56,-1,-1,0
1523630484566,-720896,76,-56,-1,-1,0
1523630484566,-589824,76,-56,-1,-1,0
1523630484566,-393216,76,-56,-1,-1,0
1523630484606,-196608,76,-56,-1,-1,0
1523630484606,0,76,-56,-1,-1,0
1523630484606,131072,76,-56,-1,-1,0
1523630484606,458752,76,-56,-1,-1,0
1523630484606,917504,76,-56,-1,-1,0
1523630484646,1376256,76,-56,-1,-1,0
1523630484646,1966080,76,-56,-1,-1,0
1523630484646,2490368,76,-56,-1,-1,0
1523630484646,2949120,76,-56,-1,-1,0
1523630484646,3407872,76,-56,-1,-1,0
1523630484686,3735552,76,-56,-1,-1,0
1523630484686,3932160,76,-56,-1,-1,0
1523630484686,3932160,76,-56,-1,-1,0
1523630484686,3801088,76,-56,-1,-1,0
1523630484686,3473408,76,-56,-1,-1,0
1523630484726,2883584,76,-56,-1,-1,0
1523630484726,2162688,76,-56,-1,-1,0
1523630484726,1376256,76,-56,-1,-1,0
1523630484726,655360,76,-56,-1,-1,0
1523630484726,131072,76,-56,-1,-1,0
1523630484766,-196608,76,-56,-1,-1,0
1523630484766,-524288,76,-56,-1,-1,0
1523630484766,-720896,76,-56,-1,-1,0
1523630484766,-851968,76,-56,-1,-1,0
1523630484766,-917504,76,-56,-1,-1,0
1523630484806,-917504,76,-56,-1,-1,0
1523630484806,-917504,76,-56,-1,-1,0
1523630484806,-917504,76,-56,-1,-1,0
1523630484806,-851968,76,-56,-1,-1,0
1523630484806,-851968,76,-56,-1,-1,0
1523630484846,-786432,76,-56,-1,-1,0
1523630484846,-720896,76,-56,-1,-1,0
1523630484846,-720896,76,-56,-1,-1,0
1523630484846,-720896,76,-56,-1,-1,0
1523630484846,-720896,76,-56,-1,-1,0
1523630484886,-720896,76,-56,-1,-1,0
1523630484886,-720896,76,-56,-1,-1,0
1523630484886,-786432,76,-56,-1,-1,0
1523630484886,-851968,76,-56,-1,-1,0
1523630484886,-917504,76,-56,-1,-1,0
1523630484927,-983040,76,-56,-1,-1,0
1523630484927,-983040,76,-56,-1,-1,0
1523630484927,-1048576,76,-56,-1,-1,0
1523630484927,-1048576,76,-56,-1,-1,0
1523630484927,-1114112,76,-56,-1,-1,0
1523630484966,-1114112,76,-56,-1,-1,0
1523630484966,-1114112,76,-56,-1,-1,0
1523630484966,-1179648,76,-56,-1,-1,0
1523630484966,-1179648,76,-56,-1,-1,0
1523630484966,-1179648,76,-56,-1,-1,0
1523630485006,-1179648,76,-56,-1,-1,0
1523630485006,-1179648,76,-56,-1,-1,0
1523630485006,-1245184,76,-56,-1,-1,0
1523630485006,-1245184,76,-56,-1,-1,0
1523630485006,-1245184,76,-56,-1,-1,0
1523630485046,-1245184,76,-56,-1,-1,0
1523630485046,-1245184,76,-56,-1,-1,0
1523630485046,-1310720,76,-56,-1,-1,0
1523630485046,-1310720,76,-56,-1,-1,0
1523630485046,-1376256,76,-56,-1,-1,0
1523630485086,-1376256,76,-56,-1,-1,0
1523630485086,-1245184,76,-56,-1,-1,0
1523630485086,-1179648,76,-56,-1,-1,0
1523630485086,-1114112,76,-56,-1,-1,0
1523630485086,-1114112,76,-56,-1,-1,0
1523630485126,-1048576,76,-56,-1,-1,0
1523630485126,-1048576,76,-56,-1,-1,0
1523630485126,-1179648,76,-56,-1,-1,0
1523630485126,-1245184,76,-56,-1,-1,0
1523630485126,-1310720,76,-56,-1,-1,0
1523630485166,-1376256,76,-56,-1,-1,0
1523630485166,-1376256,76,-56,-1,-1,0
1523630485166,-1376256,76,-56,-1,-1,0
1523630485166,-1376256,76,-56,-1,-1,0
1523630485166,-1572864,76,-56,-1,-1,0
1523630485206,-1835008,76,-56,-1,-1,0
1523630485206,-1835008,76,-56,-1,-1,0
1523630485206,-327680,76,-56,-1,-1,0
1523630485206,3211264,76,-56,-1,-1,0
1523630485206,8388608,76,-56,-1,-1,0
1523630485246,12713984,76,-56,-1,-1,0
1523630485246,12517376,76,-56,-1,-1,0
1523630485246,6946816,76,-56,-1,-1,0
1523630485246,1114112,76,-56,-1,-1,0
1523630485246,-983040,76,-56,-1,-1,0
1523630485286,-1114112,76,-56,-1,-1,0
1523630485286,-1179648,76,-56,-1,-1,0
1523630485286,-1310720,76,-56,-1,-1,0
1523630485286,-1310720,76,-56,-1,-1,0
1523630485286,-1245184,76,-56,-1,-1,0
1523630485326,-1179648,76,-56,-1,-1,0
1523630485326,-1179648,76,-56,-1,-1,0
1523630485326,-1048576,76,-56,-1,-1,0
1523630485326,-983040,76,-56,-1,-1,0
1523630485326,-851968,76,-56,-1,-1,0
1523630485366,-720896,76,-56,-1,-1,0
1523630485366,-524288,76,-56,-1,-1,0
1523630485366,-327680,76,-56,-1,-1,0
1523630485366,-131072,76,-56,-1,-1,0
1523630485366,0,76,-56,-1,-1,0
1523630485406,262144,76,-56,-1,-1,0
1523630485406,589824,76,-56,-1,-1,0
1523630485406,1048576,76,-56,-1,-1,0
1523630485406,1572864,76,-56,-1,-1,0
1523630485406,2097152,76,-56,-1,-1,0
1523630485446,2555904,76,-56,-1,-1,0
1523630485446,2949120,76,-56,-1,-1,0
1523630485446,3276800,76,-56,-1,-1,0
1523630485446,3407872,76,-56,-1,-1,0
1523630485446,3538944,76,-56,-1,-1,0
1523630485486,3407872,76,-56,-1,-1,0
1523630485486,3080192,76,-56,-1,-1,0
1523630485486,2555904,76,-56,-1,-1,0
1523630485486,1900544,76,-56,-1,-1,0
1523630485486,1179648,76,-56,-1,-1,0
1523630485526,524288,76,-56,-1,-1,0
1523630485526,0,76,-56,-1,-1,0
1523630485526,-327680,76,-56,-1,-1,0
1523630485526,-589824,76,-56,-1,-1,0
1523630485526,-786432,76,-56,-1,-1,0
1523630485567,-851968,76,-56,-1,-1,0
1523630485567,-851968,76,-56,-1,-1,0
1523630485567,-917504,76,-56,-1,-1,0
1523630485567,-983040,76,-56,-1,-1,0
1523630485567,-1048576,76,-56,-1,-1,0
1523630485606,-983040,76,-56,-1,-1,0
1523630485606,-917504,76,-56,-1,-1,0
1523630485606,-917504,76,-56,-1,-1,0
1523630485606,-851968,76,-56,-1,-1,0
1523630485606,-786432,76,-56,-1,-1,0
1523630485646,-786432,76,-56,-1,-1,0
1523630485646,-851968,76,-56,-1,-1,0
1523630485646,-851968,76,-56,-1,-1,0
1523630485646,-917504,76,-56,-1,-1,0
1523630485646,-917504,76,-56,-1,-1,0
1523630485686,-917504,76,-56,-1,-1,0
1523630485686,-917504,76,-56,-1,-1,0
1523630485686,-917504,76,-56,-1,-1,0
1523630485686,-983040,76,-56,-1,-1,0
1523630485686,-1114112,76,-56,-1,-1,0
1523630485726,-1114112,76,-56,-1,-1,0
1523630485726,-1114112,76,-56,-1,-1,0
1523630485726,-1179648,76,-56,-1,-1,0
1523630485726,-1179648,76,-56,-1,-1,0
1523630485726,-1179648,76,-56,-1,-1,0
1523630485766,-1245184,76,-56,-1,-1,0
1523630485766,-1310720,76,-56,-1,-1,0
1523630485766,-1310720,76,-56,-1,-1,0
1523630485766,-1310720,76,-56,-1,-1,0
1523630485766,-1310720,76,-56,-1,-1,0
1523630485806,-1310720,76,-56,-1,-1,0
1523630485806,-1245184,76,-56,-1,-1,0
1523630485806,-1310720,76,-56,-1,-1,0
1523630485806,-1376256,76,-56,-1,-1,0
1523630485806,-1376256,76,-56,-1,-1,0
1523630485846,-1441792,76,-56,-1,-1,0
1523630485846,-1441792,76,-56,-1,-1,0
1523630485846,-1310720,76,-56,-1,-1,0
1523630485846,-1245184,76,-56,-1,-1,0
1523630485846,-1245184,76,-56,-1,-1,0
1523630485887,-1245184,76,-56,-1,-1,0
1523630485887,-1114112,76,-56,-1,-1,0
1523630485887,-1114112,76,-56,-1,-1,0
1523630485887,-1245184,76,-56,-1,-1,0
1523630485887,-1310720,76,-56,-1,-1,0
1523630485926,-1376256,76,-56,-1,-1,0
1523630485926,-1441792,76,-56,-1,-1,0
1523630485926,-1441792,76,-56,-1,-1,0
1523630485926,-1507328,76,-56,-1,-1,0
1523630485926,-1507328,76,-56,-1,-1,0
1523630485966,-1572864,76,-56,-1,-1,0
1523630485966,-1835008,76,-56,-1,-1,0
1523630485966,-2097152,76,-56,-1,-1,0
1523630485966,-1245184,76,-56,-1,-1,0
1523630485966,1441792,76,-56,-1,-1,0
1523630486006,6094848,76,-56,-1,-1,0
1523630486006,11010048,76,-56,-1,-1,0
1523630486006,12910592,76,-56,-1,-1,0
1523630486006,9043968,76,-56,-1,-1,0
1523630486006,2686976,76,-56,-1,-1,0
1523630486046,-917504,76,-56,-1,-1,0
1523630486046,-1376256,76,-56,-1,-1,0
1523630486046,-1310720,76,-56,-1,-1,0
1523630486046,-1376256,76,-56,-1,-1,0
1523630486046,-1441792,76,-56,-1,-1,0
1523630486086,-1441792,76,-56,-1,-1,0
1523630486086,-1376256,76,-56,-1,-1,0
1523630486086,-1310720,76,-56,-1,-1,0
1523630486086,-1179648,76,-56,-1,-1,0
1523630486086,-1114112,76,-56,-1,-1,0
1523630486126,-983040,76,-56,-1,-1,0
1523630486126,-851968,76,-56,-1,-1,0
1523630486126,-720896,76,-56,-1,-1,0
1523630486126,-589824,76,-56,-1,-1,0
1523630486126,-393216,76,-56,-1,-1,0
1523630486166,-196608,76,-56,-1,-1,0
1523630486166,0,76,-56,-1,-1,0
1523630486166,393216,76,-56,-1,-1,0
1523630486166,786432,76,-56,-1,-1,0
1523630486166,1310720,76,-56,-1,-1,0
1523630486207,1835008,76,-56,-1,-1,0
1523630486207,2359296,76,-56,-1,-1,0
1523630486207,2818048,76,-56,-1,-1,0
1523630486207,3211264,76,-56,-1,-1,0
1523630486207,3407872,76,-56,-1,-1,0
1523630486246,3473408,76,-56,-1,-1,0
1523630486246,3407872,76,-56,-1,-1,0
1523630486246,3211264,76,-56,-1,-1,0
1523630486246,2818048,76,-56,-1,-1,0
1523630486246,2162688,76,-56,-1,-1,0
1523630486286,1441792,76,-56,-1,-1,0
1523630486286,786432,76,-56,-1,-1,0
1523630486286,262144,76,-56,-1,-1,0
1523630486286,-131072,76,-56,-1,-1,0
1523630486286,-589824,76,-56,-1,-1,0
1523630486326,-851968,76,-56,-1,-1,0
1523630486326,-983040,76,-56,-1,-1,0
1523630486326,-1048576,76,-56,-1,-1,0
1523630486326,-1048576,76,-56,-1,-1,0
1523630486326,-1048576,76,-56,-1,-1,0
1523630486366,-1048576,76,-56,-1,-1,0
1523630486366,-1048576,76,-56,-1,-1,0
1523630486366,-983040,76,-56,-1,-1,0
1523630486366,-917504,76,-56,-1,-1,0
1523630486366,-851968,76,-56,-1,-1,0
1523630486406,-917504,76,-56,-1,-1,0
1523630486406,-917504,76,-56,-1,-1,0
1523630486406,-983040,76,-56,-1,-1,0
1523630486406,-917504,76,-56,-1,-1,0
1523630486406,-917504,76,-56,-1,-1,0
1523630486446,-983040,76,-56,-1,-1,0
1523630486446,-983040,76,-56,-1,-1,0
1523630486446,-983040,76,-56,-1,-1,0
1523630486446,-983040,76,-56,-1,-1,0
1523630486446,-1048576,76,-56,-1,-1,0
1523630486486,-1114112,76,-56,-1,-1,0
1523630486486,-1179648,76,-56,-1,-1,0
1523630486486,-1179648,76,-56,-1,-1,0
1523630486486,-1179648,76,-56,-1,-1,0
1523630486486,-1179648,76,-56,-1,-1,0
1523630486526,-1179648,76,-56,-1,-1,0
1523630486526,-1245184,76,-56,-1,-1,0
1523630486526,-1245184,76,-56,-1,-1,0
1523630486526,-1245184,76,-56,-1,-1,0
1523630486526,-1310720,76,-56,-1,-1,0
1523630486566,-1310720,76,-56,-1,-1,0
1523630486566,-1245184,76,-56,-1,-1,0
1523630486566,-1310720,76,-56,-1,-1,0
1523630486566,-1376256,76,-56,-1,-1,0
1523630486566,-1376256,76,-56,-1,-1,0
1523630486606,-1376256,76,-56,-1,-1,0
1523630486606,-1310720,76,-56,-1,-1,0
1523630486606,-1179648,76,-56,-1,-1,0
1523630486606,-1179648,76,-56,-1,-1,0
1523630486606,-1179648,76,-56,-1,-1,0
1523630486646,-1114112,76,-56,-1,-1,0
1523630486646,-1114112,76,-56,-1,-1,0
1523630486646,-1245184,76,-56,-1,-1,0
1523630486646,-1310720,76,-56,-1,-1,0
1523630486646,-1441792,76,-56,-1,-1,0
1523630486686,-1441792,76,-56,-1,-1,0
1523630486686,-1376256,76,-56,-1,-1,0
1523630486686,-1376256,76,-56,-1,-1,0
1523630486686,-1441792,76,-56,-1,-1,0
1523630486686,-1572864,76,-56,-1,-1,0
1523630486726,-1769472,76,-56,-1,-1,0
1523630486726,-1835008,76,-56,-1,-1,0
1523630486726,-655360,76,-56,-1,-1,0
1523630486726,2424832,76,-56,-1,-1,0
1523630486726,7077888,76,-56,-1,-1,0
1523630486766,11468800,76,-56,-1,-1,0
1523630486766,12320768,76,-56,-1,-1,0
1523630486766,7667712,76,-56,-1,-1,0
1523630486766,1638400,76,-56,-1,-1,0
1523630486766,-1245184,76,-56,-1,-1,0
1523630486806,-1441792,76,-56,-1,-1,0
1523630486806,-1376256,76,-56,-1,-1,0
1523630486806,-1376256,76,-56,-1,-1,0
1523630486806,-1310720,76,-56,-1,-1,0
1523630486806,-1310720,76,-56,-1,-1,0
1523630486847,-1245184,76,-56,-1,-1,0
1523630486847,-1114112,76,-56,-1,-1,0
1523630486847,-1048576,76,-56,-1,-1,0
1523630486847,-983040,76,-56,-1,-1,0
1523630486847,-851968,76,-56,-1,-1,0
1523630486886,-720896,76,-56,-1,-1,0
1523630486886,-589824,76,-56,-1,-1,0
1523630486886,-393216,76,-56,-1,-1,0
1523630486886,-196608,76,-56,-1,-1,0
1523630486886,0,76,-56,-1,-1,0
1523630486926,262144,76,-56,-1,-1,0
1523630486926,655360,76,-56,-1,-1,0
1523630486926,1114112,76,-56,-1,-1,0
1523630486926,1703936,76,-56,-1,-1,0
1523630486926,2228224,76,-56,-1,-1,0
1523630486966,2752512,76,-56,-1,-1,0
1523630486966,3276800,76,-56,-1,-1,0
1523630486966,3604480,76,-56,-1,-1,0
1523630486966,3801088,76,-56,-1,-1,0
1523630486966,3932160,76,-56,-1,-1,0
1523630487006,3801088,76,-56,-1,-1,0
1523630487006,3538944,76,-56,-1,-1,0
1523630487006,3014656,76,-56,-1,-1,0
1523630487006,2293760,76,-56,-1,-1,0
1523630487006,1572864,76,-56,-1,-1,0
1523630487046,851968,76,-56,-1,-1,0
1523630487046,196608,76,-56,-1,-1,0
1523630487046,-262144,76,-56,-1,-1,0
1523630487046,-589824,76,-56,-1,-1,0
1523630487046,-851968,76,-56,-1,-1,0
1523630487086,-983040,76,-56,-1,-1,0
1523630487086,-1048576,76,-56,-1,-1,0
1523630487086,-1048576,76,-56,-1,-1,0
1523630487086,-1048576,76,-56,-1,-1,0
1523630487086,-983040,76,-56,-1,-1,0
1523630487126,-917504,76,-56,-1,-1,0
1523630487126,-917504,76,-56,-1,-1,0
1523630487126,-917504,76,-56,-1,-1,0
1523630487126,-851968,76,-56,-1,-1,0
1523630487126,-851968,76,-56,-1,-1,0
1523630487166,-786432,76,-56,-1,-1,0
1523630487166,-720896,76,-56,-1,-1,0
1523630487166,-720896,76,-56,-1,-1,0
1523630487166,-786432,76,-56,-1,-1,0
1523630487166,-917504,76,-56,-1,-1,0
1523630487206,-917504,76,-56,-1,-1,0
1523630487206,-983040,76,-56,-1,-1,0
1523630487206,-983040,76,-56,-1,-1,0
1523630487206,-1048576,76,-56,-1,-1,0
1523630487206,-1114112,76,-56,-1,-1,0
1523630487246,-1114112,76,-56,-1,-1,0
1523630487246,-1179648,76,-56,-1,-1,0
1523630487246,-1179648,76,-56,-1,-1,0
1523630487246,-1179648,76,-56,-1,-1,0
1523630487246,-1179648,76,-56,-1,-1,0
1523630487286,-1245184,76,-56,-1,-1,0
1523630487286,-1245184,76,-56,-1,-1,0
1523630487286,-1245184,76,-56,-1,-1,0
1523630487286,-1245184,76,-56,-1,-1,0
1523630487286,-1310720,76,-56,-1,-1,0
1523630487326,-1310720,76,-56,-1,-1,0
1523630487326,-1310720,76,-56,-1,-1,0
1523630487326,-1310720,76,-56,-1,-1,0
1523630487326,-1376256,76,-56,-1,-1,0
1523630487326,-1376256,76,-56,-1,-1,0
1523630487366,-1310720,76,-56,-1,-1,0
1523630487366,-1179648,76,-56,-1,-1,0
1523630487366,-1179648,76,-56,-1,-1,0
1523630487366,-1114112,76,-56,-1,-1,0
1523630487366,-1114112,76,-56,-1,-1,0
1523630487406,-1114112,76,-56,-1,-1,0
1523630487406,-1179648,76,-56,-1,-1,0
1523630487406,-1310720,76,-56,-1,-1,0
1523630487406,-1376256,76,-56,-1,-1,0
1523630487406,-1376256,76,-56,-1,-1,0
1523630487446,-1441792,76,-56,-1,-1,0
1523630487446,-1441792,76,-56,-1,-1,0
1523630487446,-1441792,76,-56,-1,-1,0
1523630487446,-1507328,76,-56,-1,-1,0
1523630487446,-1769472,76,-56,-1,-1,0
1523630487487,-1900544,76,-56,-1,-1,0
1523630487487,-917504,76,-56,-1,-1,0
1523630487487,2097152,76,-56,-1,-1,0
1523630487487,6946816,76,-56,-1,-1,0
1523630487487,11862016,76,-56,-1,-1,0
1523630487526,13238272,76,-56,-1,-1,0
1523630487526,8716288,76,-56,-1,-1,0
1523630487526,2359296,76,-56,-1,-1,0
1523630487526,-917504,76,-56,-1,-1,0
1523630487526,-1245184,76,-56,-1,-1,0
1523630487566,-1245184,76,-56,-1,-1,0
1523630487566,-1310720,76,-56,-1,-1,0
1523630487566,-1310720,76,-56,-1,-1,0
1523630487566,-1245184,76,-56,-1,-1,0
1523630487566,-1179648,76,-56,-1,-1,0
1523630487606,-1114112,76,-56,-1,-1,0
1523630487606,-1048576,76,-56,-1,-1,0
1523630487606,-983040,76,-56,-1,-1,0
1523630487606,-851968,76,-56,-1,-1,0
1523630487606,-720896,76,-56,-1,-1,0
1523630487646,-589824,76,-56,-1,-1,0
1523630487646,-393216,76,-56,-1,-1,0
1523630487646,-196608,76,-56,-1,-1,0
1523630487646,0,76,-56,-1,-1,0
1523630487646,262144,76,-56,-1,-1,0
1523630487686,589824,76,-56,-1,-1,0
1523630487686,1048576,76,-56,-1,-1,0
1523630487686,1507328,76,-56,-1,-1,0
1523630487686,2031616,76,-56,-1,-1,0
1523630487686,2555904,76,-56,-1,-1,0
1523630487726,3014656,76,-56,-1,-1,0
1523630487726,3276800,76,-56,-1,-1,0
1523630487726,3538944,76,-56,-1,-1,0
1523630487726,3604480,76,-56,-1,-1,0
1523630487726,3604480,76,-56,-1,-1,0
1523630487766,3276800,76,-56,-1,-1,0
1523630487766,2752512,76,-56,-1,-1,0
1523630487766,2097152,76,-56,-1,-1,0
1523630487766,1376256,76,-56,-1,-1,0
1523630487766,655360,76,-56,-1,-1,0
1523630487806,65536,76,-56,-1,-1,0
1523630487806,-262144,76,-56,-1,-1,0
1523630487806,-589824,76,-56,-1,-1,0
1523630487806,-786432,76,-56,-1,-1,0
1523630487806,-917504,76,-56,-1,-1,0
1523630487846,-917504,76,-56,-1,-1,0
1523630487846,-983040,76,-56,-1,-1,0
1523630487846,-983040,76,-56,-1,-1,0
1523630487846,-983040,76,-56,-1,-1,0
1523630487846,-983040,76,-56,-1,-1,0
1523630487886,-917504,76,-56,-1,-1,0
1523630487886,-917504,76,-56,-1,-1,0
1523630487886,-851968,76,-56,-1,-1,0
1523630487886,-851968,76,-56,-1,-1,0
1523630487886,-786432,76,-56,-1,-1,0
1523630487926,-786432,76,-56,-1,-1,0
1523630487926,-786432,76,-56,-1,-1,0
1523630487926,-786432,76,-56,-1,-1,0
1523630487926,-851968,76,-56,-1,-1,0
1523630487926,-851968,76,-56,-1,-1,0
1523630487967,-851968,76,-56,-1,-1,0
1523630487967,-917504,76,-56,-1,-1,0
1523630487967,-983040,76,-56,-1,-1,0
1523630487967,-983040,76,-56,-1,-1,0
1523630487967,-1048576,76,-56,-1,-1,0
1523630488006,-1114112,76,-56,-1,-1,0
1523630488006,-1114112,76,-56,-1,-1,0
1523630488006,-1114112,76,-56,-1,-1,0
1523630488006,-1179648,76,-56,-1,-1,0
1523630488006,-1179648,76,-56,-1,-1,0
1523630488046,-1179648,76,-56,-1,-1,0
1523630488046,-1179648,76,-56,-1,-1,0
1523630488046,-1245184,76,-56,-1,-1,0
1523630488046,-1245184,76,-56,-1,-1,0
1523630488046,-1245184,76,-56,-1,-1,0
1523630488086,-1245184,76,-56,-1,-1,0
1523630488086,-1245184,76,-56,-1,-1,0
1523630488086,-1310720,76,-56,-1,-1,0
1523630488086,-1310720,76,-56,-1,-1,0
1523630488086,-1310720,76,-56,-1,-1,0
1523630488127,-1310720,76,-56,-1,-1,0
1523630488127,-1310720,76,-56,-1,-1,0
1523630488127,-1376256,76,-56,-1,-1,0
1523630488127,-1310720,76,-56,-1,-1,0
1523630488127,-1245184,76,-56,-1,-1,0
1523630488166,-1179648,76,-56,-1,-1,0
1523630488166,-1048576,76,-56,-1,-1,0
1523630488166,-1048576,76,-56,-1,-1,0
1523630488166,-1114112,76,-56,-1,-1,0
1523630488166,-1114112,76,-56,-1,-1,0
1523630488206,-1179648,76,-56,-1,-1,0
1523630488206,-1310720,76,-56,-1,-1,0
1523630488206,-1376256,76,-56,-1,-1,0
1523630488206,-1376256,76,-56,-1,-1,0
1523630488206,-1376256,76,-56,-1,-1,0
1523630488246,-1376256,76,-56,-1,-1,0
1523630488246,-1441792,76,-56,-1,-1,0
1523630488246,-1703936,76,-56,-1,-1,0
1523630488246,-1900544,76,-56,-1,-1,0
1523630488246,-1245184,76,-56,-1,-1,0
1523630488286,1310720,76,-56,-1,-1,0
1523630488286,6029312,76,-56,-1,-1,0
1523630488286,11272192,76,-56,-1,-1,0
1523630488286,13631488,76,-56,-1,-1,0
1523630488286,10092544,76,-56,-1,-1,0
1523630488326,3604480,76,-56,-1,-1,0
1523630488326,-327680,76,-56,-1,-1,0
1523630488326,-983040,76,-56,-1,-1,0
1523630488326,-1048576,76,-56,-1,-1,0
1523630488326,-1179648,76,-56,-1,-1,0
1523630488366,-1245184,76,-56,-1,-1,0
1523630488366,-1245184,76,-56,-1,-1,0
1523630488366,-1179648,76,-56,-1,-1,0
1523630488366,-1179648,76,-56,-1,-1,0
1523630488366,-1048576,76,-56,-1,-1,0
1523630488406,-983040,76,-56,-1,-1,0
1523630488406,-851968,76,-56,-1,-1,0
1523630488406,-720896,76,-56,-1,-1,0
1523630488406,-589824,76,-56,-1,-1,0
1523630488406,-393216,76,-56,-1,-1,0
1523630488446,-196608,76,-56,-1,-1,0
1523630488446,0,76,-56,-1,-1,0
1523630488446,131072,76,-56,-1,-1,0
1523630488446,458752,76,-56,-1,-1,0
1523630488446,917504,76,-56,-1,-1,0
1523630488486,1376256,76,-56,-1,-1,0
1523630488486,1835008,76,-56,-1,-1,0
1523630488486,2424832,76,-56,-1,-1,0
1523630488486,2883584,76,-56,-1,-1,0
1523630488486,3145728,76,-56,-1,-1,0
1523630488526,3407872,76,-56,-1,-1,0
1523630488526,3538944,76,-56,-1,-1,0
1523630488526,3473408,76,-56,-1,-1,0
1523630488526,3276800,76,-56,-1,-1,0
1523630488526,2818048,76,-56,-1,-1,0
1523630488566,2228224,76,-56,-1,-1,0
1523630488566,1507328,76,-56,-1,-1,0
1523630488566,851968,76,-56,-1,-1,0
1523630488566,262144,76,-56,-1,-1,0
1523630488566,-131072,76,-56,-1,-1,0
1523630488606,-458752,76,-56,-1,-1,0
1523630488606,-655360,76,-56,-1,-1,0
1523630488606,-851968,76,-56,-1,-1,0
1523630488606,-917504,76,-56,-1,-1,0
1523630488606,-917504,76,-56,-1,-1,0
1523630488646,-917504,76,-56,-1,-1,0
1523630488646,-851968,76,-56,-1,-1,0
1523630488646,-851968,76,-56,-1,-1,0
1523630488646,-851968,76,-56,-1,-1,0
1523630488646,-851968,76,-56,-1,-1,0
1523630488686,-786432,76,-56,-1,-1,0
1523630488686,-786432,76,-56,-1,-1,0
1523630488686,-786432,76,-56,-1,-1,0
1523630488686,-851968,76,-56,-1,-1,0
1523630488686,-786432,76,-56,-1,-1,0
1523630488726,-786432,76,-56,-1,-1,0
1523630488726,-786432,76,-56,-1,-1,0
1523630488726,-851968,76,-56,-1,-1,0
1523630488726,-917504,76,-56,-1,-1,0
1523630488726,-917504,76,-56,-1,-1,0
1523630488768,-917504,76,-56,-1,-1,0
1523630488768,-917504,76,-56,-1,-1,0
1523630488768,-983040,76,-56,-1,-1,0
1523630488768,-1048576,76,-56,-1,-1,0
1523630488768,-1048576,76,-56,-1,-1,0
1523630488806,-1048576,76,-56,-1,-1,0
1523630488806,-1048576,76,-56,-1,-1,0
1523630488806,-1114112,76,-56,-1,-1,0
1523630488806,-1114112,76,-56,-1,-1,0
1523630488806,-1114112,76,-56,-1,-1,0
1523630488846,-1114112,76,-56,-1,-1,0
1523630488846,-1114112,76,-56,-1,-1,0
1523630488846,-1114112,76,-56,-1,-1,0
1523630488846,-1114112,76,-56,-1,-1,0
1523630488846,-1179648,76,-56,-1,-1,0
1523630488886,-1179648,76,-56,-1,-1,0
1523630488886,-1114112,76,-56,-1,-1,0
1523630488886,-1114112,76,-56,-1,-1,0
1523630488886,-1179648,76,-56,-1,-1,0
1523630488886,-1179648,76,-56,-1,-1,0
1523630488926,-1179648,76,-56,-1,-1,0
1523630488926,-1179648,76,-56,-1,-1,0
1523630488926,-1179648,76,-56,-1,-1,0
1523630488926,-1245184,76,-56,-1,-1,0
1523630488926,-1245184,76,-56,-1,-1,0
1523630488966,-1179648,76,-56,-1,-1,0
1523630488966,-1114112,76,-56,-1,-1,0
1523630488966,-983040,76,-56,-1,-1,0
1523630488966,-983040,76,-56,-1,-1,0
1523630488966,-983040,76,-56,-1,-1,0
1523630489006,-983040,76,-56,-1,-1,0
1523630489006,-983040,76,-56,-1,-1,0
1523630489006,-1048576,76,-56,-1,-1,0
1523630489006,-1179648,76,-56,-1,-1,0
1523630489006,-1245184,76,-56,-1,-1,0
1523630489046,-1245184,76,-56,-1,-1,0
1523630489046,-1310720,76,-56,-1,-1,0
1523630489046,-1310720,76,-56,-1,-1,0
1523630489046,-1310720,76,-56,-1,-1,0
1523630489046,-1507328,76,-56,-1,-1,0
1523630489086,-1835008,76,-56,-1,-1,0
1523630489086,-1441792,76,-56,-1,-1,0
1523630489086,655360,76,-56,-1,-1,0
1523630489086,4784128,76,-56,-1,-1,0
1523630489086,9830400,76,-56,-1,-1,0
1523630489126,12910592,76,-56,-1,-1,0
1523630489126,10551296,76,-56,-1,-1,0
1523630489126,4456448,76,-56,-1,-1,0
1523630489126,-65536,76,-56,-1,-1,0
1523630489126,-1114112,76,-56,-1,-1,0
1523630489166,-1048576,76,-56,-1,-1,0
1523630489166,-1114112,76,-56,-1,-1,0
1523630489166,-1179648,76,-56,-1,-1,0
1523630489166,-1245184,76,-56,-1,-1,0
1523630489166,-1179648,76,-56,-1,-1,0
1523630489206,-1114112,76,-56,-1,-1,0
1523630489206,-1048576,76,-56,-1,-1,0
1523630489206,-983040,76,-56,-1,-1,0
1523630489206,-851968,76,-56,-1,-1,0
1523630489206,-720896,76,-56,-1,-1,0
1523630489246,-589824,76,-56,-1,-1,0
1523630489246,-458752,76,-56,-1,-1,0
1523630489246,-262144,76,-56,-1,-1,0
1523630489246,-65536,76,-56,-1,-1,0
1523630489246,65536,76,-56,-1,-1,0
1523630489286,393216,76,-56,-1,-1,0
1523630489286,720896,76,-56,-1,-1,0
1523630489286,1179648,76,-56,-1,-1,0
1523630489286,1703936,76,-56,-1,-1,0
1523630489286,2162688,76,-56,-1,-1,0
1523630489326,2621440,76,-56,-1,-1,0
1523630489326,3080192,76,-56,-1,-1,0
1523630489326,3342336,76,-56,-1,-1,0
1523630489326,3407872,76,-56,-1,-1,0
1523630489326,3407872,76,-56,-1,-1,0
1523630489366,3276800,76,-56,-1,-1,0
1523630489366,2949120,76,-56,-1,-1,0
1523630489366,2424832,76,-56,-1,-1,0
1523630489366,1703936,76,-56,-1,-1,0
1523630489366,1048576,76,-56,-1,-1,0
1523630489407,458752,76,-56,-1,-1,0
1523630489407,0,76,-56,-1,-1,0
1523630489407,-393216,76,-56,-1,-1,0
1523630489407,-655360,76,-56,-1,-1,0
1523630489407,-786432,76,-56,-1,-1,0
1523630489446,-917504,76,-56,-1,-1,0
1523630489446,-917504,76,-56,-1,-1,0
1523630489446,-983040,76,-56,-1,-1,0
1523630489446,-983040,76,-56,-1,-1,0
1523630489446,-983040,76,-56,-1,-1,0
1523630489486,-917504,76,-56,-1,-1,0
1523630489486,-917504,76,-56,-1,-1,0
1523630489486,-917504,76,-56,-1,-1,0
1523630489486,-851968,76,-56,-1,-1,0
1523630489486,-851968,76,-56,-1,-1,0
1523630489526,-917504,76,-56,-1,-1,0
1523630489526,-917504,76,-56,-1,-1,0
1523630489526,-917504,76,-56,-1,-1,0
1523630489526,-917504,76,-56,-1,-1,0
1523630489526,-917504,76,-56,-1,-1,0
1523630489566,-983040,76,-56,-1,-1,0
1523630489566,-1048576,76,-56,-1,-1,0
1523630489566,-1048576,76,-56,-1,-1,0
1523630489566,-1048576,76,-56,-1,-1,0
1523630489566,-1048576,76,-56,-1,-1,0
1523630489606,-1114112,76,-56,-1,-1,0
1523630489606,-1114112,76,-56,-1,-1,0
1523630489606,-1179648,76,-56,-1,-1,0
1523630489606,-1245184,76,-56,-1,-1,0
1523630489606,-1310720,76,-56,-1,-1,0
1523630489646,-1245184,76,-56,-1,-1,0
1523630489646,-1245184,76,-56,-1,-1,0
1523630489646,-1245184,76,-56,-1,-1,0
1523630489646,-1245184,76,-56,-1,-1,0
1523630489646,-1245184,76,-56,-1,-1,0
1523630489686,-1179648,76,-56,-1,-1,0
1523630489686,-1245184,76,-56,-1,-1,0
1523630489686,-1245184,76,-56,-1,-1,0
1523630489686,-1310720,76,-56,-1,-1,0
1523630489686,-1245184,76,-56,-1,-1,0
1523630489726,-1245184,76,-56,-1,-1,0
1523630489726,-1245184,76,-56,-1,-1,0
1523630489726,-1245184,76,-56,-1,-1,0
1523630489726,-1310720,76,-56,-1,-1,0
1523630489726,-1310720,76,-56,-1,-1,0
1523630489766,-1376256,76,-56,-1,-1,0
1523630489766,-1310720,76,-56,-1,-1,0
1523630489766,-1245184,76,-56,-1,-1,0
1523630489766,-1179648,76,-56,-1,-1,0
1523630489766,-1114112,76,-56,-1,-1,0
1523630489806,-1048576,76,-56,-1,-1,0
1523630489806,-983040,76,-56,-1,-1,0
1523630489806,-1048576,76,-56,-1,-1,0
1523630489806,-1179648,76,-56,-1,-1,0
1523630489806,-1310720,76,-56,-1,-1,0
1523630489846,-1376256,76,-56,-1,-1,0
1523630489846,-1376256,76,-56,-1,-1,0
1523630489846,-1376256,76,-56,-1,-1,0
1523630489846,-1376256,76,-56,-1,-1,0
1523630489846,-1376256,76,-56,-1,-1,0
1523630489886,-1572864,76,-56,-1,-1,0
1523630489886,-1769472,76,-56,-1,-1,0
1523630489886,-1376256,76,-56,-1,-1,0
1523630489886,655360,76,-56,-1,-1,0
1523630489886,4653056,76,-56,-1,-1,0
1523630489926,9437184,76,-56,-1,-1,0
1523630489926,12451840,76,-56,-1,-1,0
1523630489926,10354688,76,-56,-1,-1,0
1523630489926,4390912,76,-56,-1,-1,0
1523630489926,-131072,76,-56,-1,-1,0
1523630489966,-1245184,76,-56,-1,-1,0
1523630489966,-1179648,76,-56,-1,-1,0
1523630489966,-1179648,76,-56,-1,-1,0
1523630489966,-1179648,76,-56,-1,-1,0
1523630489966,-1179648,76,-56,-1,-1,0
1523630490006,-1114112,75,-56,-1,-1,0
1523630490006,-1048576,75,-56,-1,-1,0
1523630490006,-917504,75,-56,-1,-1,0
1523630490006,-851968,75,-56,-1,-1,0
1523630490006,-786432,75,-56,-1,-1,0
1523630490047,-589824,75,-56,-1,-1,0
1523630490047,-524288,75,-56,-1,-1,0
1523630490047,-393216,75,-56,-1,-1,0
1523630490047,-196608,75,-56,-1,-1,0
1523630490047,0,75,-56,-1,-1,0
1523630490086,262144,75,-56,-1,-1,0
1523630490086,589824,75,-56,-1,-1,0
1523630490086,983040,75,-56,-1,-1,0
1523630490086,1441792,75,-56,-1,-1,0
1523630490086,1966080,75,-56,-1,-1,0
1523630490126,2555904,75,-56,-1,-1,0
1523630490126,3080192,75,-56,-1,-1,0
1523630490126,3473408,75,-56,-1,-1,0
1523630490126,3735552,75,-56,-1,-1,0
1523630490126,3932160,75,-56,-1,-1,0
1523630490166,3866624,75,-56,-1,-1,0
1523630490166,3735552,75,-56,-1,-1,0
1523630490166,3473408,75,-56,-1,-1,0
1523630490166,2883584,75,-56,-1,-1,0
1523630490166,2162688,75,-56,-1,-1,0
1523630490206,1376256,75,-56,-1,-1,0
1523630490206,720896,75,-56,-1,-1,0
1523630490206,196608,75,-56,-1,-1,0
1523630490206,-131072,75,-56,-1,-1,0
1523630490206,-458752,75,-56,-1,-1,0
1523630490246,-720896,75,-56,-1,-1,0
1523630490246,-786432,75,-56,-1,-1,0
1523630490246,-851968,75,-56,-1,-1,0
1523630490246,-917504,75,-56,-1,-1,0
1523630490246,-917504,75,-56,-1,-1,0
1523630490286,-917504,75,-56,-1,-1,0
1523630490286,-851968,75,-56,-1,-1,0
1523630490286,-851968,75,-56,-1,-1,0
1523630490286,-786432,75,-56,-1,-1,0
1523630490286,-786432,75,-56,-1,-1,0
1523630490326,-720896,75,-56,-1,-1,0
1523630490326,-720896,75,-56,-1,-1,0
1523630490326,-720896,75,-56,-1,-1,0
1523630490326,-786432,75,-56,-1,-1,0
1523630490326,-851968,75,-56,-1,-1,0
1523630490366,-851968,75,-56,-1,-1,0
1523630490366,-917504,75,-56,-1,-1,0
1523630490366,-917504,75,-56,-1,-1,0
1523630490366,-983040,75,-56,-1,-1,0
1523630490366,-983040,75,-56,-1,-1,0
1523630490406,-983040,75,-56,-1,-1,0
1523630490406,-1048576,75,-56,-1,-1,0
1523630490406,-1114112,75,-56,-1,-1,0
1523630490406,-1048576,75,-56,-1,-1,0
1523630490406,-1048576,75,-56,-1,-1,0
1523630490446,-1114112,75,-56,-1,-1,0
1523630490446,-1179648,75,-56,-1,-1,0
1523630490446,-1179648,75,-56,-1,-1,0
1523630490446,-1179648,75,-56,-1,-1,0
1523630490446,-1179648,75,-56,-1,-1,0
1523630490486,-1179648,75,-56,-1,-1,0
1523630490486,-1179648,75,-56,-1,-1,0
1523630490486,-1179648,75,-56,-1,-1,0
1523630490486,-1179648,75,-56,-1,-1,0
1523630490486,-1245184,75,-56,-1,-1,0
1523630490526,-1245184,75,-56,-1,-1,0
1523630490526,-1245184,75,-56,-1,-1,0
1523630490526,-1245184,75,-56,-1,-1,0
1523630490526,-1310720,75,-56,-1,-1,0
1523630490526,-1310720,75,-56,-1,-1,0
1523630490567,-1310720,75,-56,-1,-1,0
1523630490567,-1245184,75,-56,-1,-1,0
1523630490567,-1179648,75,-56,-1,-1,0
1523630490567,-1114112,75,-56,-1,-1,0
1523630490567,-1048576,75,-56,-1,-1,0
1523630490606,-1048576,75,-56,-1,-1,0
1523630490606,-1114112,75,-56,-1,-1,0
1523630490606,-1179648,75,-56,-1,-1,0
1523630490606,-1245184,75,-56,-1,-1,0
1523630490606,-1310720,75,-56,-1,-1,0
1523630490646,-1376256,75,-56,-1,-1,0
1523630490646,-1376256,75,-56,-1,-1,0
1523630490646,-1376256,75,-56,-1,-1,0
1523630490646,-1441792,75,-56,-1,-1,0
1523630490646,-1572864,75,-56,-1,-1,0
1523630490687,-1835008,75,-56,-1,-1,0
1523630490687,-1638400,75,-56,-1,-1,0
1523630490687,65536,75,-56,-1,-1,0
1523630490687,3801088,75,-56,-1,-1,0
1523630490687,8781824,75,-56,-1,-1,0
1523630490726,12713984,75,-56,-1,-1,0
1523630490726,11665408,75,-56,-1,-1,0
1523630490726,5767168,75,-56,-1,-1,0
1523630490726,327680,75,-56,-1,-1,0
1523630490726,-1245184,75,-56,-1,-1,0
1523630490766,-1245184,75,-56,-1,-1,0
1523630490766,-1245184,75,-56,-1,-1,0
1523630490766,-1245184,75,-56,-1,-1,0
1523630490766,-1179648,75,-56,-1,-1,0
1523630490766,-1114112,75,-56,-1,-1,0
1523630490811,-1114112,75,-56,-1,-1,0
1523630490811,-1114112,75,-56,-1,-1,0
1523630490811,-1048576,75,-56,-1,-1,0
1523630490811,-983040,75,-56,-1,-1,0
1523630490811,-786432,75,-56,-1,-1,0
1523630490846,-655360,75,-56,-1,-1,0
1523630490846,-458752,75,-56,-1,-1,0
1523630490846,-262144,75,-56,-1,-1,0
1523630490846,-65536,75,-56,-1,-1,0
1523630490846,65536,75,-56,-1,-1,0
1523630490886,393216,75,-56,-1,-1,0
1523630490886,720896,75,-56,-1,-1,0
1523630490886,1179648,75,-56,-1,-1,0
1523630490886,1703936,75,-56,-1,-1,0
1523630490886,2293760,75,-56,-1,-1,0
1523630490926,2818048,75,-56,-1,-1,0
1523630490926,3276800,75,-56,-1,-1,0
1523630490926,3538944,75,-56,-1,-1,0
1523630490926,3735552,75,-56,-1,-1,0
1523630490926,3735552,75,-56,-1,-1,0
1523630490966,3538944,75,-56,-1,-1,0
1523630490966,3211264,75,-56,-1,-1,0
1523630490966,2686976,75,-56,-1,-1,0
1523630490966,1966080,75,-56,-1,-1,0
1523630490966,1245184,75,-56,-1,-1,0
1523630491006,589824,75,-56,-1,-1,0
1523630491006,0,75,-56,-1,-1,0
1523630491006,-327680,75,-56,-1,-1,0
1523630491006,-655360,75,-56,-1,-1,0
1523630491006,-917504,75,-56,-1,-1,0
1523630491046,-1114112,75,-56,-1,-1,0
1523630491046,-1179648,75,-56,-1,-1,0
1523630491046,-1179648,75,-56,-1,-1,0
1523630491046,-1179648,75,-56,-1,-1,0
1523630491046,-1114112,75,-56,-1,-1,0
1523630491087,-1048576,75,-56,-1,-1,0
1523630491087,-1048576,75,-56,-1,-1,0
1523630491087,-983040,75,-56,-1,-1,0
1523630491087,-983040,75,-56,-1,-1,0
1523630491087,-917504,75,-56,-1,-1,0
1523630491126,-917504,75,-56,-1,-1,0
1523630491126,-983040,75,-56,-1,-1,0
1523630491126,-983040,75,-56,-1,-1,0
1523630491126,-983040,75,-56,-1,-1,0
1523630491126,-983040,75,-56,-1,-1,0
1523630491166,-1048576,75,-56,-1,-1,0
1523630491166,-1048576,75,-56,-1,-1,0
1523630491166,-1048576,75,-56,-1,-1,0
1523630491166,-1048576,75,-56,-1,-1,0
1523630491166,-1048576,75,-56,-1,-1,0
1523630491208,-1114112,75,-56,-1,-1,0
1523630491208,-1179648,75,-56,-1,-1,0
1523630491208,-1245184,75,-56,-1,-1,0
1523630491208,-1245184,75,-56,-1,-1,0
1523630491208,-1245184,75,-56,-1,-1,0
1523630491248,-1114112,75,-56,-1,-1,0
1523630491248,-1114112,75,-56,-1,-1,0
1523630491248,-1245184,75,-56,-1,-1,0
1523630491248,-1245184,75,-56,-1,-1,0
1523630491248,-917504,75,-56,-1,-1,0
1523630491286,-851968,75,-56,-1,-1,0
1523630491286,-1245184,75,-56,-1,-1,0
1523630491286,-1703936,75,-56,-1,-1,0
1523630491286,-1769472,75,-56,-1,-1,0
1523630491286,-1769472,75,-56,-1,-1,0
1523630491328,-1638400,75,-56,-1,-1,0
1523630491328,-1245184,75,-56,-1,-1,0
1523630491328,-983040,75,-56,-1,-1,0
1523630491328,-1048576,75,-56,-1,-1,0
1523630491328,-1179648,75,-56,-1,-1,0
1523630491366,-1114112,75,-56,-1,-1,0
1523630491366,-983040,75,-56,-1,-1,0
1523630491366,-1114112,75,-56,-1,-1,0
1523630491366,-1245184,75,-56,-1,-1,0
1523630491366,-1179648,75,-56,-1,-1,0
1523630491409,-983040,75,-56,-1,-1,0
1523630491409,-917504,75,-56,-1,-1,0
1523630491409,-1048576,75,-56,-1,-1,0
1523630491409,-1179648,75,-56,-1,-1,0
1523630491409,-1310720,75,-56,-1,-1,0
1523630491446,-1376256,75,-56,-1,-1,0
1523630491446,-1376256,75,-56,-1,-1,0
1523630491446,-1310720,75,-56,-1,-1,0
1523630491446,-1245184,75,-56,-1,-1,0
1523630491446,-1310720,75,-56,-1,-1,0
1523630491486,-1638400,75,-56,-1,-1,0
1523630491486,-1638400,75,-56,-1,-1,0
1523630491486,0,75,-56,-1,-1,0
1523630491486,3670016,75,-56,-1,-1,0
1523630491486,8781824,75,-56,-1,-1,0
1523630491526,13041664,75,-56,-1,-1,0
1523630491526,12779520,75,-56,-1,-1,0
1523630491526,7208960,75,-56,-1,-1,0
1523630491526,1376256,75,-56,-1,-1,0
1523630491526,-917504,75,-56,-1,-1,0
1523630491566,-1114112,76,-56,-1,-1,0
1523630491566,-983040,76,-56,-1,-1,0
1523630491566,-983040,76,-56,-1,-1,0
1523630491566,-1114112,76,-56,-1,-1,0
1523630491566,-1245184,76,-56,-1,-1,0
1523630491606,-1048576,76,-56,-1,-1,0
1523630491606,-983040,76,-56,-1,-1,0
1523630491606,-786432,76,-56,-1,-1,0
1523630491606,-655360,76,-56,-1,-1,0
1523630491606,-589824,76,-56,-1,-1,0
1523630491646,-524288,76,-56,-1,-1,0
1523630491646,-327680,76,-56,-1,-1,0
1523630491646,-196608,76,-56,-1,-1,0
1523630491646,-65536,76,-56,-1,-1,0
1523630491646,196608,76,-56,-1,-1,0
1523630491686,524288,76,-56,-1,-1,0
1523630491686,851968,76,-56,-1,-1,0
1523630491686,1310720,76,-56,-1,-1,0
1523630491686,1835008,76,-56,-1,-1,0
1523630491686,2424832,76,-56,-1,-1,0
1523630491726,2949120,76,-56,-1,-1,0
1523630491726,3342336,76,-56,-1,-1,0
1523630491726,3538944,76,-56,-1,-1,0
1523630491726,3735552,76,-56,-1,-1,0
1523630491726,3801088,76,-56,-1,-1,0
1523630491766,3801088,76,-56,-1,-1,0
1523630491766,3670016,76,-56,-1,-1,0
1523630491766,3145728,76,-56,-1,-1,0
1523630491766,2490368,76,-56,-1,-1,0
1523630491766,1703936,76,-56,-1,-1,0
1523630491806,1048576,76,-56,-1,-1,0
1523630491806,458752,76,-56,-1,-1,0
1523630491806,0,76,-56,-1,-1,0
1523630491806,-393216,76,-56,-1,-1,0
1523630491806,-720896,76,-56,-1,-1,0
1523630491846,-720896,76,-56,-1,-1,0
1523630491846,-655360,76,-56,-1,-1,0
1523630491846,-720896,76,-56,-1,-1,0
1523630491846,-786432,76,-56,-1,-1,0
1523630491846,-917504,76,-56,-1,-1,0
1523630491886,-1048576,76,-56,-1,-1,0
1523630491886,-983040,76,-56,-1,-1,0
1523630491886,-917504,76,-56,-1,-1,0
1523630491886,-917504,76,-56,-1,-1,0
1523630491886,-851968,76,-56,-1,-1,0
1523630491926,-786432,76,-56,-1,-1,0
1523630491926,-786432,76,-56,-1,-1,0
1523630491926,-720896,76,-56,-1,-1,0
1523630491926,-458752,76,-56,-1,-1,0
1523630491926,-458752,76,-56,-1,-1,0
1523630491968,-851968,76,-56,-1,-1,0
1523630491968,-1179648,76,-56,-1,-1,0
1523630491968,-1179648,76,-56,-1,-1,0
1523630491968,-983040,76,-56,-1,-1,0
1523630491968,-851968,76,-56,-1,-1,0
1523630492006,-851968,76,-56,-1,-1,0
1523630492006,-851968,76,-56,-1,-1,0
1523630492006,-983040,76,-56,-1,-1,0
1523630492006,-1114112,76,-56,-1,-1,0
1523630492006,-1114112,76,-56,-1,-1,0
1523630492046,-1114112,76,-56,-1,-1,0
1523630492046,-1114112,76,-56,-1,-1,0
1523630492046,-1048576,76,-56,-1,-1,0
1523630492046,-1114112,76,-56,-1,-1,0
1523630492046,-1245184,76,-56,-1,-1,0
1523630492086,-1179648,76,-56,-1,-1,0
1523630492086,-1048576,76,-56,-1,-1,0
1523630492086,-1048576,76,-56,-1,-1,0
1523630492086,-1114112,76,-56,-1,-1,0
1523630492086,-1179648,76,-56,-1,-1,0
1523630492126,-1179648,76,-56,-1,-1,0
1523630492126,-983040,76,-56,-1,-1,0
1523630492126,-917504,76,-56,-1,-1,0
1523630492126,-983040,76,-56,-1,-1,0
1523630492126,-917504,76,-56,-1,-1,0
1523630492166,-786432,76,-56,-1,-1,0
1523630492166,-851968,76,-56,-1,-1,0
1523630492166,-851968,76,-56,-1,-1,0
1523630492166,-917504,76,-56,-1,-1,0
1523630492166,-983040,76,-56,-1,-1,0
1523630492206,-1114112,76,-56,-1,-1,0
1523630492206,-1245184,76,-56,-1,-1,0
1523630492206,-1245184,76,-56,-1,-1,0
1523630492206,-1179648,76,-56,-1,-1,0
1523630492206,-1310720,76,-56,-1,-1,0
1523630492246,-1507328,76,-56,-1,-1,0
1523630492246,-589824,76,-56,-1,-1,0
1523630492246,2293760,76,-56,-1,-1,0
1523630492246,6488064,76,-56,-1,-1,0
1523630492246,10551296,76,-56,-1,-1,0
1523630492286,11468800,76,-56,-1,-1,0
1523630492286,7536640,76,-56,-1,-1,0
1523630492286,1900544,76,-56,-1,-1,0
1523630492286,-983040,76,-56,-1,-1,0
1523630492286,-1310720,76,-56,-1,-1,0
1523630492326,-1048576,76,-56,-1,-1,0
1523630492326,-851968,76,-56,-1,-1,0
1523630492326,-720896,76,-56,-1,-1,0
1523630492326,-720896,76,-56,-1,-1,0
1523630492326,-917504,76,-56,-1,-1,0
1523630492366,-1114112,76,-56,-1,-1,0
1523630492366,-983040,76,-56,-1,-1,0
1523630492366,-786432,76,-56,-1,-1,0
1523630492366,-720896,76,-56,-1,-1,0
1523630492366,-720896,76,-56,-1,-1,0
1523630492406,-458752,76,-56,-1,-1,0
1523630492406,-65536,76,-56,-1,-1,0
1523630492406,65536,76,-56,-1,-1,0
1523630492406,131072,76,-56,-1,-1,0
1523630492406,327680,76,-56,-1,-1,0
1523630492446,786432,76,-56,-1,-1,0
1523630492446,1179648,76,-56,-1,-1,0
1523630492446,1507328,76,-56,-1,-1,0
1523630492446,1966080,76,-56,-1,-1,0
1523630492446,2555904,76,-56,-1,-1,0
1523630492486,3145728,76,-56,-1,-1,0
1523630492486,3604480,76,-56,-1,-1,0
1523630492486,4063232,76,-56,-1,-1,0
1523630492486,4063232,76,-56,-1,-1,0
1523630492486,3604480,76,-56,-1,-1,0
1523630492526,3211264,76,-56,-1,-1,0
1523630492526,3080192,76,-56,-1,-1,0
1523630492526,2949120,76,-56,-1,-1,0
1523630492526,2228224,76,-56,-1,-1,0
1523630492526,1179648,76,-56,-1,-1,0
1523630492566,262144,76,-56,-1,-1,0
1523630492566,-131072,76,-56,-1,-1,0
1523630492566,-262144,76,-56,-1,-1,0
1523630492566,-393216,76,-56,-1,-1,0
1523630492566,-655360,76,-56,-1,-1,0
1523630492608,-1048576,76,-56,-1,-1,0
1523630492608,-1310720,76,-56,-1,-1,0
1523630492608,-1310720,76,-56,-1,-1,0
1523630492608,-1048576,76,-56,-1,-1,0
1523630492608,-1114112,76,-56,-1,-1,0
1523630492646,-1310720,76,-56,-1,-1,0
1523630492646,-1310720,76,-56,-1,-1,0
1523630492646,-1114112,76,-56,-1,-1,0
1523630492646,-983040,76,-56,-1,-1,0
1523630492646,-1048576,76,-56,-1,-1,0
1523630492686,-1245184,76,-56,-1,-1,0
1523630492686,-1310720,76,-56,-1,-1,0
1523630492686,-1376256,76,-56,-1,-1,0
1523630492686,-1507328,76,-56,-1,-1,0
1523630492686,-1441792,76,-56,-1,-1,0
1523630492726,-1441792,76,-56,-1,-1,0
1523630492726,-1638400,76,-56,-1,-1,0
1523630492726,-1703936,76,-56,-1,-1,0
1523630492726,-1769472,76,-56,-1,-1,0
1523630492726,-1835008,76,-56,-1,-1,0
1523630492766,-1769472,76,-56,-1,-1,0
1523630492766,-1769472,76,-56,-1,-1,0
1523630492766,-1638400,76,-56,-1,-1,0
1523630492766,-1507328,76,-56,-1,-1,0
1523630492766,-1507328,76,-56,-1,-1,0
1523630492806,-1835008,76,-56,-1,-1,0
1523630492806,-2228224,76,-56,-1,-1,0
1523630492806,-2228224,76,-56,-1,-1,0
1523630492806,-2162688,76,-56,-1,-1,0
1523630492806,-2031616,76,-56,-1,-1,0
1523630492846,-2097152,76,-56,-1,-1,0
1523630492846,-2031616,76,-56,-1,-1,0
1523630492846,-1703936,76,-56,-1,-1,0
1523630492846,-1179648,76,-56,-1,-1,0
1523630492846,-1114112,76,-56,-1,-1,0
1523630492886,-1572864,76,-56,-1,-1,0
1523630492886,-1966080,76,-56,-1,-1,0
1523630492886,-2097152,76,-56,-1,-1,0
1523630492886,-2097152,76,-56,-1,-1,0
1523630492886,-2031616,76,-56,-1,-1,0
1523630492926,-1835008,76,-56,-1,-1,0
1523630492926,-1966080,76,-56,-1,-1,0
1523630492926,-2162688,76,-56,-1,-1,0
1523630492926,-2097152,76,-56,-1,-1,0
1523630492926,-1966080,76,-56,-1,-1,0
1523630492966,-2031616,76,-56,-1,-1,0
1523630492966,-2228224,76,-56,-1,-1,0
1523630492966,-2162688,76,-56,-1,-1,0
1523630492966,-720896,76,-56,-1,-1,0
1523630492966,2228224,76,-56,-1,-1,0
1523630493006,6225920,76,-56,-1,-1,0
1523630493006,9830400,76,-56,-1,-1,0
1523630493006,10027008,76,-56,-1,-1,0
1523630493006,5373952,76,-56,-1,-1,0
1523630493006,196608,76,-56,-1,-1,0
1523630493046,-1703936,76,-56,-1,-1,0
1523630493046,-1835008,76,-56,-1,-1,0
1523630493046,-1835008,76,-56,-1,-1,0
1523630493046,-1835008,76,-56,-1,-1,0
1523630493046,-1835008,76,-56,-1,-1,0
1523630493087,-1638400,76,-56,-1,-1,0
1523630493087,-1572864,76,-56,-1,-1,0
1523630493087,-1376256,76,-56,-1,-1,0
1523630493087,-1507328,76,-56,-1,-1,0
1523630493087,-1441792,76,-56,-1,-1,0
1523630493126,-1376256,76,-56,-1,-1,0
1523630493126,-1048576,76,-56,-1,-1,0
1523630493126,-655360,76,-56,-1,-1,0
1523630493126,-393216,76,-56,-1,-1,0
1523630493126,-196608,76,-56,-1,-1,0
1523630493166,-262144,76,-56,-1,-1,0
1523630493166,-196608,76,-56,-1,-1,0
1523630493166,262144,76,-56,-1,-1,0
1523630493166,1179648,76,-56,-1,-1,0
1523630493166,1703936,76,-56,-1,-1,0
1523630493206,1835008,76,-56,-1,-1,0
1523630493206,2162688,76,-56,-1,-1,0
1523630493206,2752512,76,-56,-1,-1,0
1523630493206,3276800,76,-56,-1,-1,0
1523630493206,3538944,76,-56,-1,-1,0
1523630493247,3670016,76,-56,-1,-1,0
1523630493247,3407872,76,-56,-1,-1,0
1523630493247,3080192,76,-56,-1,-1,0
1523630493247,2686976,76,-56,-1,-1,0
1523630493247,2293760,76,-56,-1,-1,0
1523630493286,1703936,76,-56,-1,-1,0
1523630493286,917504,76,-56,-1,-1,0
1523630493286,393216,76,-56,-1,-1,0
1523630493286,0,76,-56,-1,-1,0
1523630493286,-458752,76,-56,-1,-1,0
1523630493326,-983040,76,-56,-1,-1,0
1523630493326,-1048576,76,-56,-1,-1,0
1523630493326,-917504,76,-56,-1,-1,0
1523630493326,-786432,76,-56,-1,-1,0
1523630493326,-786432,76,-56,-1,-1,0
1523630493366,-983040,76,-56,-1,-1,0
1523630493366,-1114112,76,-56,-1,-1,0
1523630493366,-983040,76,-56,-1,-1,0
1523630493366,-720896,76,-56,-1,-1,0
1523630493366,-786432,76,-56,-1,-1,0
1523630493406,-1048576,76,-56,-1,-1,0
1523630493406,-1114112,76,-56,-1,-1,0
1523630493406,-917504,76,-56,-1,-1,0
1523630493406,-917504,76,-56,-1,-1,0
1523630493406,-983040,76,-56,-1,-1,0
1523630493446,-983040,76,-56,-1,-1,0
1523630493446,-851968,76,-56,-1,-1,0
1523630493446,-917504,76,-56,-1,-1,0
1523630493446,-1048576,76,-56,-1,-1,0
1523630493446,-1179648,76,-56,-1,-1,0
1523630493486,-1114112,76,-56,-1,-1,0
1523630493486,-983040,76,-56,-1,-1,0
1523630493486,-1048576,76,-56,-1,-1,0
1523630493486,-1114112,76,-56,-1,-1,0
1523630493486,-1245184,76,-56,-1,-1,0
1523630493526,-1245184,76,-56,-1,-1,0
1523630493526,-917504,76,-56,-1,-1,0
1523630493526,-458752,76,-56,-1,-1,0
1523630493526,-786432,76,-56,-1,-1,0
1523630493526,-1507328,76,-56,-1,-1,0
1523630493566,-1376256,76,-56,-1,-1,0
1523630493566,-917504,76,-56,-1,-1,0
1523630493566,-917504,76,-56,-1,-1,0
1523630493566,-1114112,76,-56,-1,-1,0
1523630493566,-917504,76,-56,-1,-1,0
1523630493606,-524288,76,-56,-1,-1,0
1523630493606,-327680,76,-56,-1,-1,0
1523630493606,-655360,76,-56,-1,-1,0
1523630493606,-1114112,76,-56,-1,-1,0
1523630493606,-1376256,76,-56,-1,-1,0
1523630493646,-1179648,76,-56,-1,-1,0
1523630493646,-1114112,76,-56,-1,-1,0
1523630493646,-1310720,76,-56,-1,-1,0
1523630493646,-1376256,76,-56,-1,-1,0
1523630493646,-1310720,76,-56,-1,-1,0
1523630493686,-1638400,77,-56,-1,-1,0
1523630493686,-1507328,77,-56,-1,-1,0
1523630493686,-458752,77,-56,-1,-1,0
1523630493686,2228224,77,-56,-1,-1,0
1523630493686,6815744,77,-56,-1,-1,0
1523630493726,11730944,77,-56,-1,-1,0
1523630493726,13303808,77,-56,-1,-1,0
1523630493726,9109504,77,-56,-1,-1,0
1523630493726,2883584,77,-56,-1,-1,0
1523630493726,-524288,77,-56,-1,-1,0
1523630493766,-1376256,77,-56,-1,-1,0
1523630493766,-1572864,77,-56,-1,-1,0
1523630493766,-1441792,77,-56,-1,-1,0
1523630493766,-1245184,77,-56,-1,-1,0
1523630493766,-1048576,77,-56,-1,-1,0
1523630493806,-917504,77,-56,-1,-1,0
1523630493806,-1048576,77,-56,-1,-1,0
1523630493806,-1114112,77,-56,-1,-1,0
1523630493806,-851968,77,-56,-1,-1,0
1523630493806,-720896,77,-56,-1,-1,0
1523630493846,-917504,77,-56,-1,-1,0
1523630493846,-917504,77,-56,-1,-1,0
1523630493846,-589824,77,-56,-1,-1,0
1523630493846,-458752,77,-56,-1,-1,0
1523630493846,-131072,77,-56,-1,-1,0
1523630493887,131072,77,-56,-1,-1,0
1523630493887,393216,77,-56,-1,-1,0
1523630493887,720896,77,-56,-1,-1,0
1523630493887,1179648,77,-56,-1,-1,0
1523630493887,1703936,77,-56,-1,-1,0
1523630493926,2293760,77,-56,-1,-1,0
1523630493926,2818048,77,-56,-1,-1,0
1523630493926,3276800,77,-56,-1,-1,0
1523630493926,3342336,77,-56,-1,-1,0
1523630493926,3080192,77,-56,-1,-1,0
1523630493966,2883584,77,-56,-1,-1,0
1523630493966,2752512,77,-56,-1,-1,0
1523630493966,2359296,77,-56,-1,-1,0
1523630493966,1703936,77,-56,-1,-1,0
1523630493966,1048576,77,-56,-1,-1,0
1523630494007,393216,77,-56,-1,-1,0
1523630494007,-65536,77,-56,-1,-1,0
1523630494007,-589824,77,-56,-1,-1,0
1523630494007,-917504,77,-56,-1,-1,0
1523630494007,-1114112,77,-56,-1,-1,0
1523630494047,-1310720,77,-56,-1,-1,0
1523630494047,-1376256,77,-56,-1,-1,0
1523630494047,-1376256,77,-56,-1,-1,0
1523630494047,-1376256,77,-56,-1,-1,0
1523630494047,-1376256,77,-56,-1,-1,0
1523630494086,-1245184,77,-56,-1,-1,0
1523630494086,-1179648,77,-56,-1,-1,0
1523630494086,-1310720,77,-56,-1,-1,0
1523630494086,-1441792,77,-56,-1,-1,0
1523630494086,-1376256,77,-56,-1,-1,0
1523630494126,-1310720,77,-56,-1,-1,0
1523630494126,-1310720,77,-56,-1,-1,0
1523630494126,-1441792,77,-56,-1,-1,0
1523630494126,-1376256,77,-56,-1,-1,0
1523630494126,-1048576,77,-56,-1,-1,0
1523630494166,-1114112,77,-56,-1,-1,0
1523630494166,-1507328,77,-56,-1,-1,0
1523630494166,-1703936,77,-56,-1,-1,0
1523630494166,-1507328,77,-56,-1,-1,0
1523630494166,-1507328,77,-56,-1,-1,0
1523630494206,-1638400,77,-56,-1,-1,0
1523630494206,-1638400,77,-56,-1,-1,0
1523630494206,-1507328,77,-56,-1,-1,0
1523630494206,-1179648,77,-56,-1,-1,0
1523630494206,-1245184,77,-56,-1,-1,0
1523630494246,-1638400,77,-56,-1,-1,0
1523630494246,-2031616,77,-56,-1,-1,0
1523630494246,-1638400,77,-56,-1,-1,0
1523630494246,-786432,77,-56,-1,-1,0
1523630494246,-720896,77,-56,-1,-1,0
1523630494286,-1310720,77,-56,-1,-1,0
1523630494286,-1310720,77,-56,-1,-1,0
1523630494286,-786432,77,-56,-1,-1,0
1523630494286,-917504,77,-56,-1,-1,0
1523630494286,-1507328,77,-56,-1,-1,0
1523630494326,-1835008,77,-56,-1,-1,0
1523630494326,-1900544,77,-56,-1,-1,0
1523630494326,-1769472,77,-56,-1,-1,0
1523630494326,-1310720,77,-56,-1,-1,0
1523630494326,-1048576,77,-56,-1,-1,0
1523630494366,-1310720,78,-56,-1,-1,0
1523630494366,-1572864,78,-56,-1,-1,0
1523630494366,-1769472,78,-56,-1,-1,0
1523630494366,-1769472,78,-56,-1,-1,0
1523630494366,-65536,78,-56,-1,-1,0
1523630494407,4194304,78,-56,-1,-1,0
1523630494407,9043968,78,-56,-1,-1,0
1523630494407,12320768,78,-56,-1,-1,0
1523630494407,11599872,78,-56,-1,-1,0
1523630494407,6488064,78,-56,-1,-1,0
1523630494446,524288,78,-56,-1,-1,0
1523630494446,-1048576,78,-56,-1,-1,0
1523630494446,-589824,78,-56,-1,-1,0
1523630494446,-917504,78,-56,-1,-1,0
1523630494446,-1179648,78,-56,-1,-1,0
1523630494486,-1048576,78,-56,-1,-1,0
1523630494486,-983040,78,-56,-1,-1,0
1523630494486,-458752,78,-56,-1,-1,0
1523630494486,-262144,78,-56,-1,-1,0
1523630494486,-851968,78,-56,-1,-1,0
1523630494527,-589824,78,-56,-1,-1,0
1523630494527,65536,78,-56,-1,-1,0
1523630494527,0,78,-56,-1,-1,0
1523630494527,0,78,-56,-1,-1,0
1523630494527,327680,78,-56,-1,-1,0
1523630494566,589824,78,-56,-1,-1,0
1523630494566,655360,78,-56,-1,-1,0
1523630494566,1179648,78,-56,-1,-1,0
1523630494566,1441792,78,-56,-1,-1,0
1523630494566,1703936,78,-56,-1,-1,0
1523630494606,2424832,78,-56,-1,-1,0
1523630494606,3014656,78,-56,-1,-1,0
1523630494606,3080192,78,-56,-1,-1,0
1523630494606,3735552,78,-56,-1,-1,0
1523630494606,4653056,78,-56,-1,-1,0
1523630494646,4653056,78,-56,-1,-1,0
1523630494646,4325376,78,-56,-1,-1,0
1523630494646,4325376,78,-56,-1,-1,0
1523630494646,3997696,78,-56,-1,-1,0
1523630494646,3276800,78,-56,-1,-1,0
1523630494686,2359296,78,-56,-1,-1,0
1523630494686,1638400,78,-56,-1,-1,0
1523630494686,1441792,78,-56,-1,-1,0
1523630494686,1048576,78,-56,-1,-1,0
1523630494686,458752,78,-56,-1,-1,0
1523630494726,0,78,-56,-1,-1,0
1523630494726,-131072,78,-56,-1,-1,0
1523630494726,-327680,78,-56,-1,-1,0
1523630494726,-262144,78,-56,-1,-1,0
1523630494726,-524288,78,-56,-1,-1,0
1523630494766,-655360,78,-56,-1,-1,0
1523630494766,-524288,78,-56,-1,-1,0
1523630494766,-262144,78,-56,-1,-1,0
1523630494766,-131072,78,-56,-1,-1,0
1523630494766,-196608,78,-56,-1,-1,0
1523630494806,-655360,78,-56,-1,-1,0
1523630494806,-851968,78,-56,-1,-1,0
1523630494806,-327680,78,-56,-1,-1,0
1523630494806,-131072,78,-56,-1,-1,0
1523630494806,-655360,78,-56,-1,-1,0
1523630494846,-1048576,78,-56,-1,-1,0
1523630494846,-786432,78,-56,-1,-1,0
1523630494846,-262144,78,-56,-1,-1,0
1523630494846,131072,78,-56,-1,-1,0
1523630494846,-458752,78,-56,-1,-1,0
1523630494886,-1310720,78,-56,-1,-1,0
1523630494886,-524288,78,-56,-1,-1,0
1523630494886,-327680,78,-56,-1,-1,0
1523630494886,-2490368,78,-56,-1,-1,0
1523630494886,-3735552,78,-56,-1,-1,0
1523630494926,-2621440,78,-56,-1,-1,0
1523630494926,-1507328,78,-56,-1,-1,0
1523630494926,-720896,78,-56,-1,-1,0
1523630494926,-262144,78,-56,-1,-1,0
1523630494926,-917504,78,-56,-1,-1,0
1523630494966,-2097152,78,-56,-1,-1,0
1523630494966,-2424832,78,-56,-1,-1,0
1523630494966,-2162688,78,-56,-1,-1,0
1523630494966,-1310720,78,-56,-1,-1,0
1523630494966,-1245184,78,-56,-1,-1,0
1523630495006,-2097152,78,-56,-1,-1,0
1523630495006,-3080192,78,-56,-1,-1,0
1523630495006,-2752512,78,-56,-1,-1,0
1523630495006,-1966080,78,-56,-1,-1,0
1523630495006,-1572864,78,-56,-1,-1,0
1523630495049,-1441792,78,-56,-1,-1,0
1523630495049,327680,78,-56,-1,-1,0
1523630495049,3801088,78,-56,-1,-1,0
1523630495049,8192000,78,-56,-1,-1,0
1523630495049,11337728,78,-56,-1,-1,0
1523630495087,9633792,78,-56,-1,-1,0
1523630495087,3407872,78,-56,-1,-1,0
1523630495087,-1507328,78,-56,-1,-1,0
1523630495087,-2424832,78,-56,-1,-1,0
1523630495087,-1835008,78,-56,-1,-1,0
1523630495126,-2359296,78,-56,-1,-1,0
1523630495126,-3080192,78,-56,-1,-1,0
1523630495126,-3080192,78,-56,-1,-1,0
1523630495126,-2686976,78,-56,-1,-1,0
1523630495126,-2490368,78,-56,-1,-1,0
1523630495167,-2293760,78,-56,-1,-1,0
1523630495167,-1441792,78,-56,-1,-1,0
1523630495167,-655360,78,-56,-1,-1,0
1523630495167,-1245184,78,-56,-1,-1,0
1523630495167,-2490368,78,-56,-1,-1,0
1523630495206,-2818048,78,-56,-1,-1,0
1523630495206,-1900544,78,-56,-1,-1,0
1523630495206,-1114112,78,-56,-1,-1,0
1523630495206,-851968,78,-56,-1,-1,0
1523630495206,-917504,78,-56,-1,-1,0
1523630495247,-524288,78,-56,-1,-1,0
1523630495247,393216,78,-56,-1,-1,0
1523630495247,1114112,78,-56,-1,-1,0
1523630495247,1507328,78,-56,-1,-1,0
1523630495247,1441792,78,-56,-1,-1,0
1523630495286,1572864,78,-56,-1,-1,0
1523630495286,1900544,78,-56,-1,-1,0
1523630495286,2359296,78,-56,-1,-1,0
1523630495286,2031616,78,-56,-1,-1,0
1523630495286,1572864,78,-56,-1,-1,0
1523630495326,1310720,78,-56,-1,-1,0
1523630495326,1245184,78,-56,-1,-1,0
1523630495326,589824,78,-56,-1,-1,0
1523630495326,-131072,78,-56,-1,-1,0
1523630495326,-983040,78,-56,-1,-1,0
1523630495366,-1310720,78,-56,-1,-1,0
1523630495366,-1114112,78,-56,-1,-1,0
1523630495366,-1179648,78,-56,-1,-1,0
1523630495366,-1769472,78,-56,-1,-1,0
1523630495366,-2293760,78,-56,-1,-1,0
1523630495406,-2097152,78,-56,-1,-1,0
1523630495406,-1572864,78,-56,-1,-1,0
1523630495406,-1441792,78,-56,-1,-1,0
1523630495406,-1638400,78,-56,-1,-1,0
1523630495406,-1572864,78,-56,-1,-1,0
1523630495446,-1507328,78,-56,-1,-1,0
1523630495446,-1769472,78,-56,-1,-1,0
1523630495446,-1835008,78,-56,-1,-1,0
1523630495446,-1507328,78,-56,-1,-1,0
1523630495446,-1507328,78,-56,-1,-1,0
1523630495486,-1769472,78,-56,-1,-1,0
1523630495486,-1966080,78,-56,-1,-1,0
1523630495486,-1769472,78,-56,-1,-1,0
1523630495486,-1572864,78,-56,-1,-1,0
1523630495486,-1376256,78,-56,-1,-1,0
1523630495527,-1310720,78,-56,-1,-1,0
1523630495527,-1507328,78,-56,-1,-1,0
1523630495527,-1638400,78,-56,-1,-1,0
1523630495527,-1900544,78,-56,-1,-1,0
1523630495527,-1835008,78,-56,-1,-1,0
1523630495566,-1376256,78,-56,-1,-1,0
1523630495566,-917504,78,-56,-1,-1,0
1523630495566,-1179648,78,-56,-1,-1,0
1523630495566,-1310720,78,-56,-1,-1,0
1523630495566,-1114112,78,-56,-1,-1,0
1523630495606,-1310720,79,-56,-1,-1,0
1523630495606,-1572864,79,-56,-1,-1,0
1523630495606,-1638400,79,-56,-1,-1,0
1523630495606,-1441792,79,-56,-1,-1,0
1523630495606,-1376256,79,-56,-1,-1,0
1523630495647,-1048576,79,-56,-1,-1,0
1523630495647,-1376256,79,-56,-1,-1,0
1523630495647,-1703936,79,-56,-1,-1,0
1523630495647,-1835008,79,-56,-1,-1,0
1523630495647,-1572864,79,-56,-1,-1,0
1523630495686,-720896,79,-56,-1,-1,0
1523630495686,1703936,79,-56,-1,-1,0
1523630495686,5832704,79,-56,-1,-1,0
1523630495686,10682368,79,-56,-1,-1,0
1523630495686,12713984,79,-56,-1,-1,0
1523630495726,9240576,79,-56,-1,-1,0
1523630495726,3407872,79,-56,-1,-1,0
1523630495726,-131072,79,-56,-1,-1,0
1523630495726,-1048576,79,-56,-1,-1,0
1523630495726,-1179648,79,-56,-1,-1,0
1523630495766,-1376256,79,-56,-1,-1,0
1523630495766,-1835008,79,-56,-1,-1,0
1523630495766,-1835008,79,-56,-1,-1,0
1523630495766,-1245184,79,-56,-1,-1,0
1523630495766,-393216,79,-56,-1,-1,0
1523630495807,-131072,79,-56,-1,-1,0
1523630495807,-851968,79,-56,-1,-1,0
1523630495807,-1114112,79,-56,-1,-1,0
1523630495807,-655360,79,-56,-1,-1,0
1523630495807,-327680,79,-56,-1,-1,0
1523630495846,0,79,-56,-1,-1,0
1523630495846,458752,79,-56,-1,-1,0
1523630495846,327680,79,-56,-1,-1,0
1523630495846,65536,79,-56,-1,-1,0
1523630495846,786432,79,-56,-1,-1,0
1523630495886,1048576,79,-56,-1,-1,0
1523630495886,1048576,79,-56,-1,-1,0
1523630495886,1572864,79,-56,-1,-1,0
1523630495886,2555904,79,-56,-1,-1,0
1523630495886,3342336,79,-56,-1,-1,0
1523630495926,3801088,79,-56,-1,-1,0
1523630495926,3932160,79,-56,-1,-1,0
1523630495926,3538944,79,-56,-1,-1,0
1523630495926,2949120,79,-56,-1,-1,0
1523630495926,2686976,79,-56,-1,-1,0
1523630495966,2293760,79,-56,-1,-1,0
1523630495966,1703936,79,-56,-1,-1,0
1523630495966,1048576,79,-56,-1,-1,0
1523630495966,524288,79,-56,-1,-1,0
1523630495966,0,79,-56,-1,-1,0
1523630496006,-262144,79,-56,-1,-1,0
1523630496006,-524288,79,-56,-1,-1,0
1523630496006,-720896,79,-56,-1,-1,0
1523630496006,-655360,79,-56,-1,-1,0
1523630496006,-720896,79,-56,-1,-1,0
1523630496046,-851968,79,-56,-1,-1,0
1523630496046,-786432,79,-56,-1,-1,0
1523630496046,-655360,79,-56,-1,-1,0
1523630496046,-720896,79,-56,-1,-1,0
1523630496046,-1048576,79,-56,-1,-1,0
1523630496086,-1310720,79,-56,-1,-1,0
1523630496086,-1572864,79,-56,-1,-1,0
1523630496086,-1376256,79,-56,-1,-1,0
1523630496086,-917504,79,-56,-1,-1,0
1523630496086,-851968,79,-56,-1,-1,0
1523630496126,-917504,79,-56,-1,-1,0
1523630496126,-655360,79,-56,-1,-1,0
1523630496126,-917504,79,-56,-1,-1,0
1523630496126,-1441792,79,-56,-1,-1,0
1523630496126,-1638400,79,-56,-1,-1,0
1523630496166,-1114112,80,-56,-1,-1,0
1523630496166,-786432,80,-56,-1,-1,0
1523630496166,-983040,80,-56,-1,-1,0
1523630496166,-1376256,80,-56,-1,-1,0
1523630496166,-1179648,80,-56,-1,-1,0
1523630496206,-786432,80,-56,-1,-1,0
1523630496206,-851968,80,-56,-1,-1,0
1523630496206,-851968,80,-56,-1,-1,0
1523630496206,-655360,80,-56,-1,-1,0
1523630496206,-720896,80,-56,-1,-1,0
1523630496251,-1179648,80,-56,-1,-1,0
1523630496251,-1441792,80,-56,-1,-1,0
1523630496251,-1507328,80,-56,-1,-1,0
1523630496251,-1638400,80,-56,-1,-1,0
1523630496251,-1703936,80,-56,-1,-1,0
1523630496286,-1769472,80,-56,-1,-1,0
1523630496286,-1900544,80,-56,-1,-1,0
1523630496286,-1638400,80,-56,-1,-1,0
1523630496286,262144,80,-56,-1,-1,0
1523630496286,3997696,80,-56,-1,-1,0
1523630496326,9306112,80,-56,-1,-1,0
1523630496326,13500416,80,-56,-1,-1,0
1523630496326,11796480,80,-56,-1,-1,0
1523630496326,4915200,80,-56,-1,-1,0
1523630496326,-196608,80,-56,-1,-1,0
1523630496366,-1441792,80,-56,-1,-1,0
1523630496366,-1966080,80,-56,-1,-1,0
1523630496366,-2162688,80,-56,-1,-1,0
1523630496366,-1179648,80,-56,-1,-1,0
1523630496366,-720896,80,-56,-1,-1,0
1523630496406,-1048576,80,-56,-1,-1,0
1523630496406,-1114112,80,-56,-1,-1,0
1523630496406,-1048576,80,-56,-1,-1,0
1523630496406,-1310720,80,-56,-1,-1,0
1523630496406,-917504,80,-56,-1,-1,0
1523630496447,-327680,80,-56,-1,-1,0
1523630496447,-131072,80,-56,-1,-1,0
1523630496447,-65536,80,-56,-1,-1,0
1523630496447,-393216,80,-56,-1,-1,0
1523630496447,-524288,80,-56,-1,-1,0
1523630496486,0,80,-56,-1,-1,0
1523630496486,851968,80,-56,-1,-1,0
1523630496486,1179648,80,-56,-1,-1,0
1523630496486,1835008,80,-56,-1,-1,0
1523630496486,2424832,80,-56,-1,-1,0
1523630496526,3014656,80,-56,-1,-1,0
1523630496526,3538944,80,-56,-1,-1,0
1523630496526,3670016,80,-56,-1,-1,0
1523630496526,3735552,80,-56,-1,-1,0
1523630496526,4325376,80,-56,-1,-1,0
1523630496566,4456448,80,-56,-1,-1,0
1523630496566,3932160,80,-56,-1,-1,0
1523630496566,3276800,80,-56,-1,-1,0
1523630496566,2752512,80,-56,-1,-1,0
1523630496566,2162688,80,-56,-1,-1,0
1523630496606,1703936,80,-56,-1,-1,0
1523630496606,1310720,80,-56,-1,-1,0
1523630496606,458752,80,-56,-1,-1,0
1523630496606,-393216,80,-56,-1,-1,0
1523630496606,-196608,80,-56,-1,-1,0
1523630496646,-262144,80,-56,-1,-1,0
1523630496646,-589824,80,-56,-1,-1,0
1523630496646,-917504,80,-56,-1,-1,0
1523630496646,-851968,80,-56,-1,-1,0
1523630496646,-1245184,80,-56,-1,-1,0
1523630496686,-1376256,80,-56,-1,-1,0
1523630496686,-851968,80,-56,-1,-1,0
1523630496686,-524288,80,-56,-1,-1,0
1523630496686,-917504,80,-56,-1,-1,0
1523630496686,-1310720,80,-56,-1,-1,0
1523630496726,-1179648,80,-56,-1,-1,0
1523630496726,-1048576,80,-56,-1,-1,0
1523630496726,-1114112,80,-56,-1,-1,0
1523630496726,-1638400,80,-56,-1,-1,0
1523630496726,-1310720,80,-56,-1,-1,0
1523630496766,-786432,81,-56,-1,-1,0
1523630496766,-917504,81,-56,-1,-1,0
1523630496766,-1245184,81,-56,-1,-1,0
1523630496766,-1114112,81,-56,-1,-1,0
1523630496766,-1179648,81,-56,-1,-1,0
1523630496806,-1245184,81,-56,-1,-1,0
1523630496806,-1703936,81,-56,-1,-1,0
1523630496806,-1638400,81,-56,-1,-1,0
1523630496806,-1245184,81,-56,-1,-1,0
1523630496806,-393216,81,-56,-1,-1,0
1523630496846,-1310720,81,-56,-1,-1,0
1523630496846,-2490368,81,-56,-1,-1,0
1523630496846,-2686976,81,-56,-1,-1,0
1523630496846,-3473408,81,-56,-1,-1,0
1523630496846,-4849664,81,-56,-1,-1,0
1523630496886,-4587520,81,-56,-1,-1,0
1523630496886,-2752512,81,-56,-1,-1,0
1523630496886,65536,81,-56,-1,-1,0
1523630496886,4194304,81,-56,-1,-1,0
1523630496886,7929856,81,-56,-1,-1,0
1523630496926,10289152,81,-56,-1,-1,0
1523630496926,9240576,81,-56,-1,-1,0
1523630496926,4259840,81,-56,-1,-1,0
1523630496926,-589824,81,-56,-1,-1,0
1523630496926,-2490368,81,-56,-1,-1,0
1523630496966,-2752512,81,-56,-1,-1,0
1523630496966,-2818048,81,-56,-1,-1,0
1523630496966,-2686976,81,-56,-1,-1,0
1523630496966,-2752512,81,-56,-1,-1,0
1523630496966,-2818048,81,-56,-1,-1,0
1523630497006,-2293760,81,-56,-1,-1,0
1523630497006,-1835008,81,-56,-1,-1,0
1523630497006,-1769472,81,-56,-1,-1,0
1523630497006,-2359296,81,-56,-1,-1,0
1523630497006,-3080192,81,-56,-1,-1,0
1523630497047,-2883584,81,-56,-1,-1,0
1523630497047,-2228224,81,-56,-1,-1,0
1523630497047,-1966080,81,-56,-1,-1,0
1523630497047,-1900544,81,-56,-1,-1,0
1523630497047,-1441792,81,-56,-1,-1,0
1523630497087,-983040,81,-56,-1,-1,0
1523630497087,-917504,81,-56,-1,-1,0
1523630497087,-655360,81,-56,-1,-1,0
1523630497087,65536,81,-56,-1,-1,0
1523630497087,589824,81,-56,-1,-1,0
1523630497126,1048576,81,-56,-1,-1,0
1523630497126,2031616,81,-56,-1,-1,0
1523630497126,2424832,81,-56,-1,-1,0
1523630497126,1835008,81,-56,-1,-1,0
1523630497126,1376256,81,-56,-1,-1,0
1523630497166,1638400,81,-56,-1,-1,0
1523630497166,1900544,81,-56,-1,-1,0
1523630497166,1638400,81,-56,-1,-1,0
1523630497166,720896,81,-56,-1,-1,0
1523630497166,-327680,81,-56,-1,-1,0
1523630497206,-1048576,81,-56,-1,-1,0
1523630497206,-1245184,81,-56,-1,-1,0
1523630497206,-1507328,81,-56,-1,-1,0
1523630497206,-1900544,81,-56,-1,-1,0
1523630497206,-2031616,81,-56,-1,-1,0
1523630497247,-1769472,81,-56,-1,-1,0
1523630497247,-1703936,81,-56,-1,-1,0
1523630497247,-2097152,81,-56,-1,-1,0
1523630497247,-2097152,81,-56,-1,-1,0
1523630497247,-1441792,81,-56,-1,-1,0
1523630497288,-786432,81,-56,-1,-1,0
1523630497288,-917504,81,-56,-1,-1,0
1523630497288,-1572864,81,-56,-1,-1,0
1523630497288,-2031616,81,-56,-1,-1,0
1523630497288,-2031616,81,-56,-1,-1,0
1523630497327,-2031616,81,-56,-1,-1,0
1523630497327,-2097152,81,-56,-1,-1,0
1523630497327,-1900544,81,-56,-1,-1,0
1523630497327,-1638400,81,-56,-1,-1,0
1523630497327,-1638400,81,-56,-1,-1,0
1523630497367,-1507328,83,-56,-1,-1,0
1523630497367,-1245184,83,-56,-1,-1,0
1523630497367,-1507328,83,-56,-1,-1,0
1523630497367,-2031616,83,-56,-1,-1,0
1523630497367,-2097152,83,-56,-1,-1,0
1523630497407,-1900544,83,-56,-1,-1,0
1523630497407,-1703936,83,-56,-1,-1,0
1523630497407,-1703936,83,-56,-1,-1,0
1523630497407,-2031616,83,-56,-1,-1,0
1523630497407,-2162688,83,-56,-1,-1,0
1523630497447,-2097152,83,-56,-1,-1,0
1523630497447,-1900544,83,-56,-1,-1,0
1523630497447,-1835008,83,-56,-1,-1,0
1523630497447,-2031616,83,-56,-1,-1,0
1523630497447,-1769472,83,-56,-1,-1,0
1523630497486,589824,83,-56,-1,-1,0
1523630497486,5111808,83,-56,-1,-1,0
1523630497486,10354688,83,-56,-1,-1,0
1523630497486,12713984,83,-56,-1,-1,0
1523630497486,9043968,83,-56,-1,-1,0
1523630497527,2686976,83,-56,-1,-1,0
1523630497527,-1245184,83,-56,-1,-1,0
1523630497527,-1769472,83,-56,-1,-1,0
1523630497527,-1966080,83,-56,-1,-1,0
1523630497527,-1966080,83,-56,-1,-1,0
1523630497566,-1835008,83,-56,-1,-1,0
1523630497566,-1703936,83,-56,-1,-1,0
1523630497566,-2097152,83,-56,-1,-1,0
1523630497566,-2162688,83,-56,-1,-1,0
1523630497566,-1638400,83,-56,-1,-1,0
1523630497607,-1310720,83,-56,-1,-1,0
1523630497607,-1376256,83,-56,-1,-1,0
1523630497607,-1179648,83,-56,-1,-1,0
1523630497607,-589824,83,-56,-1,-1,0
1523630497607,-524288,83,-56,-1,-1,0
1523630497646,-655360,83,-56,-1,-1,0
1523630497646,-393216,83,-56,-1,-1,0
1523630497646,327680,83,-56,-1,-1,0
1523630497646,917504,83,-56,-1,-1,0
1523630497646,983040,83,-56,-1,-1,0
1523630497686,983040,83,-56,-1,-1,0
1523630497686,1441792,83,-56,-1,-1,0
1523630497686,2162688,83,-56,-1,-1,0
1523630497686,2818048,83,-56,-1,-1,0
1523630497686,3211264,83,-56,-1,-1,0
1523630497727,3211264,83,-56,-1,-1,0
1523630497727,3342336,83,-56,-1,-1,0
1523630497727,3342336,83,-56,-1,-1,0
1523630497727,3014656,83,-56,-1,-1,0
1523630497727,2359296,83,-56,-1,-1,0
1523630497766,1638400,83,-56,-1,-1,0
1523630497766,524288,83,-56,-1,-1,0
1523630497766,-65536,83,-56,-1,-1,0
1523630497766,-327680,83,-56,-1,-1,0
1523630497766,-655360,83,-56,-1,-1,0
1523630497806,-1245184,83,-56,-1,-1,0
1523630497806,-1441792,83,-56,-1,-1,0
1523630497806,-1376256,83,-56,-1,-1,0
1523630497806,-1376256,83,-56,-1,-1,0
1523630497806,-1441792,83,-56,-1,-1,0
1523630497846,-1441792,83,-56,-1,-1,0
1523630497846,-1245184,83,-56,-1,-1,0
1523630497846,-1441792,83,-56,-1,-1,0
1523630497846,-1638400,83,-56,-1,-1,0
1523630497846,-1376256,83,-56,-1,-1,0
1523630497886,-983040,86,-56,-1,-1,0
1523630497886,-983040,86,-56,-1,-1,0
1523630497886,-1048576,86,-56,-1,-1,0
1523630497886,-1114112,86,-56,-1,-1,0
1523630497886,-1114112,86,-56,-1,-1,0
1523630497926,-917504,86,-56,-1,-1,0
1523630497926,-458752,86,-56,-1,-1,0
1523630497926,-458752,86,-56,-1,-1,0
1523630497926,-786432,86,-56,-1,-1,0
1523630497926,-1048576,86,-56,-1,-1,0
1523630497967,-1114112,86,-56,-1,-1,0
1523630497967,-1048576,86,-56,-1,-1,0
1523630497967,-917504,86,-56,-1,-1,0
1523630497967,-917504,86,-56,-1,-1,0
1523630497967,-1179648,86,-56,-1,-1,0
1523630498006,-1507328,86,-56,-1,-1,0
1523630498006,-1572864,86,-56,-1,-1,0
1523630498006,-1441792,86,-56,-1,-1,0
1523630498006,-1376256,86,-56,-1,-1,0
1523630498006,-1572864,86,-56,-1,-1,0
1523630498046,-1441792,86,-56,-1,-1,0
1523630498046,-262144,86,-56,-1,-1,0
1523630498046,2359296,86,-56,-1,-1,0
1523630498046,6815744,86,-56,-1,-1,0
1523630498046,12189696,86,-56,-1,-1,0
1523630498086,14417920,86,-56,-1,-1,0
1523630498086,10092544,86,-56,-1,-1,0
1523630498086,3014656,86,-56,-1,-1,0
1523630498086,-851968,86,-56,-1,-1,0
1523630498086,-1507328,86,-56,-1,-1,0
1523630498126,-851968,86,-56,-1,-1,0
1523630498126,-524288,86,-56,-1,-1,0
1523630498126,-1048576,86,-56,-1,-1,0
1523630498126,-1179648,86,-56,-1,-1,0
1523630498126,-65536,86,-56,-1,-1,0
1523630498166,196608,86,-56,-1,-1,0
1523630498166,-458752,86,-56,-1,-1,0
1523630498166,-262144,86,-56,-1,-1,0
1523630498166,0,86,-56,-1,-1,0
1523630498166,-196608,86,-56,-1,-1,0
1523630498206,-262144,86,-56,-1,-1,0
1523630498206,-262144,86,-56,-1,-1,0
1523630498206,-262144,86,-56,-1,-1,0
1523630498206,-196608,86,-56,-1,-1,0
1523630498206,524288,86,-56,-1,-1,0
1523630498246,1441792,86,-56,-1,-1,0
1523630498246,1769472,86,-56,-1,-1,0
1523630498246,2097152,86,-56,-1,-1,0
1523630498246,2555904,86,-56,-1,-1,0
1523630498246,2818048,86,-56,-1,-1,0
1523630498286,3276800,86,-56,-1,-1,0
1523630498286,4128768,86,-56,-1,-1,0
1523630498286,4128768,86,-56,-1,-1,0
1523630498286,3801088,86,-56,-1,-1,0
1523630498286,3932160,86,-56,-1,-1,0
1523630498326,3997696,86,-56,-1,-1,0
1523630498326,3342336,86,-56,-1,-1,0
1523630498326,2293760,86,-56,-1,-1,0
1523630498326,1638400,86,-56,-1,-1,0
1523630498326,1507328,86,-56,-1,-1,0
1523630498367,1179648,86,-56,-1,-1,0
1523630498367,458752,86,-56,-1,-1,0
1523630498367,-327680,86,-56,-1,-1,0
1523630498367,-524288,86,-56,-1,-1,0
1523630498367,-393216,86,-56,-1,-1,0
1523630498406,-393216,86,-56,-1,-1,0
1523630498406,-393216,86,-56,-1,-1,0
1523630498406,-851968,86,-56,-1,-1,0
1523630498406,-1114112,86,-56,-1,-1,0
1523630498406,-1245184,86,-56,-1,-1,0
1523630498446,-1179648,89,-56,-1,-1,0
1523630498446,-1245184,89,-56,-1,-1,0
1523630498446,-458752,89,-56,-1,-1,0
1523630498446,-196608,89,-56,-1,-1,0
1523630498446,-1048576,89,-56,-1,-1,0
1523630498487,-2031616,89,-56,-1,-1,0
1523630498487,-1638400,89,-56,-1,-1,0
1523630498487,-720896,89,-56,-1,-1,0
1523630498487,-65536,89,-56,-1,-1,0
1523630498487,-786432,89,-56,-1,-1,0
1523630498526,-1900544,89,-56,-1,-1,0
1523630498526,-2293760,89,-56,-1,-1,0
1523630498526,-1572864,89,-56,-1,-1,0
1523630498526,-1703936,89,-56,-1,-1,0
1523630498526,-2228224,89,-56,-1,-1,0
1523630498566,-1114112,89,-56,-1,-1,0
1523630498566,65536,89,-56,-1,-1,0
1523630498566,-589824,89,-56,-1,-1,0
1523630498566,-1638400,89,-56,-1,-1,0
1523630498566,-1638400,89,-56,-1,-1,0
1523630498606,-1441792,89,-56,-1,-1,0
1523630498606,-131072,89,-56,-1,-1,0
1523630498606,2031616,89,-56,-1,-1,0
1523630498606,5046272,89,-56,-1,-1,0
1523630498606,7798784,89,-56,-1,-1,0
1523630498646,7471104,89,-56,-1,-1,0
1523630498646,2752512,89,-56,-1,-1,0
1523630498646,-2228224,89,-56,-1,-1,0
1523630498646,-4194304,89,-56,-1,-1,0
1523630498646,-4456448,89,-56,-1,-1,0
1523630498686,-4325376,89,-56,-1,-1,0
1523630498686,-4063232,89,-56,-1,-1,0
1523630498686,-4063232,89,-56,-1,-1,0
1523630498686,-4063232,89,-56,-1,-1,0
1523630498686,-3866624,89,-56,-1,-1,0
1523630498726,-3866624,89,-56,-1,-1,0
1523630498726,-3997696,89,-56,-1,-1,0
1523630498726,-3866624,89,-56,-1,-1,0
1523630498726,-3080192,89,-56,-1,-1,0
1523630498726,-2490368,89,-56,-1,-1,0
1523630498766,-2752512,89,-56,-1,-1,0
1523630498766,-3014656,89,-56,-1,-1,0
1523630498766,-2359296,89,-56,-1,-1,0
1523630498766,-1703936,89,-56,-1,-1,0
1523630498766,-1638400,89,-56,-1,-1,0
1523630498806,-1638400,89,-56,-1,-1,0
1523630498806,-1114112,89,-56,-1,-1,0
1523630498806,-262144,89,-56,-1,-1,0
1523630498806,458752,89,-56,-1,-1,0
1523630498806,1114112,89,-56,-1,-1,0
1523630498846,1441792,89,-56,-1,-1,0
1523630498846,1376256,89,-56,-1,-1,0
1523630498846,1572864,89,-56,-1,-1,0
1523630498846,2031616,89,-56,-1,-1,0
1523630498846,1572864,89,-56,-1,-1,0
1523630498886,458752,89,-56,-1,-1,0
1523630498886,-262144,89,-56,-1,-1,0
1523630498886,-393216,89,-56,-1,-1,0
1523630498886,-524288,89,-56,-1,-1,0
1523630498886,-1114112,89,-56,-1,-1,0
1523630498926,-2031616,89,-56,-1,-1,0
1523630498926,-2555904,89,-56,-1,-1,0
1523630498926,-2555904,89,-56,-1,-1,0
1523630498926,-2228224,89,-56,-1,-1,0
1523630498926,-1769472,89,-56,-1,-1,0
1523630498966,-1835008,89,-56,-1,-1,0
1523630498966,-2359296,89,-56,-1,-1,0
1523630498966,-2359296,89,-56,-1,-1,0
1523630498966,-2097152,89,-56,-1,-1,0
1523630498966,-2031616,89,-56,-1,-1,0
1523630499007,-2490368,89,-56,-1,-1,0
1523630499007,-2621440,89,-56,-1,-1,0
1523630499007,-2424832,89,-56,-1,-1,0
1523630499007,-1900544,89,-56,-1,-1,0
1523630499007,-1507328,89,-56,-1,-1,0
1523630499046,-1703936,89,-56,-1,-1,0
1523630499046,-2228224,89,-56,-1,-1,0
1523630499046,-2359296,89,-56,-1,-1,0
1523630499046,-1966080,89,-56,-1,-1,0
1523630499046,-1703936,89,-56,-1,-1,0
1523630499086,-1966080,89,-56,-1,-1,0
1523630499086,-2228224,89,-56,-1,-1,0
1523630499086,-2162688,89,-56,-1,-1,0
1523630499086,-1900544,89,-56,-1,-1,0
1523630499086,-2031616,89,-56,-1,-1,0
1523630499126,-2162688,89,-56,-1,-1,0
1523630499126,-2162688,89,-56,-1,-1,0
1523630499126,-2424832,89,-56,-1,-1,0
1523630499126,-2686976,89,-56,-1,-1,0
1523630499126,-2162688,89,-56,-1,-1,0
1523630499166,-65536,89,-56,-1,-1,0
1523630499166,3735552,89,-56,-1,-1,0
1523630499166,8847360,89,-56,-1,-1,0
1523630499166,13107200,89,-56,-1,-1,0
1523630499166,12517376,89,-56,-1,-1,0
1523630499206,6684672,89,-56,-1,-1,0
1523630499206,655360,89,-56,-1,-1,0
1523630499206,-1507328,89,-56,-1,-1,0
1523630499206,-1703936,89,-56,-1,-1,0
1523630499206,-1638400,89,-56,-1,-1,0
1523630499246,-1572864,89,-56,-1,-1,0
1523630499246,-1638400,89,-56,-1,-1,0
1523630499246,-1572864,89,-56,-1,-1,0
1523630499246,-1376256,89,-56,-1,-1,0
1523630499246,-851968,89,-56,-1,-1,0
1523630499286,-589824,89,-56,-1,-1,0
1523630499286,-983040,89,-56,-1,-1,0
1523630499286,-1507328,89,-56,-1,-1,0
1523630499286,-1507328,89,-56,-1,-1,0
1523630499286,-589824,89,-56,-1,-1,0
1523630499326,65536,89,-56,-1,-1,0
1523630499326,0,89,-56,-1,-1,0
1523630499326,-65536,89,-56,-1,-1,0
1523630499326,262144,89,-56,-1,-1,0
1523630499326,1114112,89,-56,-1,-1,0
1523630499366,1507328,89,-56,-1,-1,0
1523630499366,1769472,89,-56,-1,-1,0
1523630499366,2293760,89,-56,-1,-1,0
1523630499366,2883584,89,-56,-1,-1,0
1523630499366,3145728,89,-56,-1,-1,0
1523630499406,3145728,89,-56,-1,-1,0
1523630499406,3473408,89,-56,-1,-1,0
1523630499406,3670016,89,-56,-1,-1,0
1523630499406,3407872,89,-56,-1,-1,0
1523630499406,2621440,89,-56,-1,-1,0
1523630499446,1900544,89,-56,-1,-1,0
1523630499446,1310720,89,-56,-1,-1,0
1523630499446,655360,89,-56,-1,-1,0
1523630499446,196608,89,-56,-1,-1,0
1523630499446,-65536,89,-56,-1,-1,0
1523630499486,-327680,89,-56,-1,-1,0
1523630499486,-589824,89,-56,-1,-1,0
1523630499486,-1048576,89,-56,-1,-1,0
1523630499486,-1048576,89,-56,-1,-1,0
1523630499486,-589824,89,-56,-1,-1,0
1523630499526,-393216,89,-56,-1,-1,0
1523630499526,-655360,89,-56,-1,-1,0
1523630499526,-851968,89,-56,-1,-1,0
1523630499526,-851968,89,-56,-1,-1,0
1523630499526,-983040,89,-56,-1,-1,0
1523630499566,-786432,92,-56,-1,-1,0
1523630499566,-655360,92,-56,-1,-1,0
1523630499566,-917504,92,-56,-1,-1,0
1523630499566,-1114112,92,-56,-1,-1,0
1523630499566,-786432,92,-56,-1,-1,0
1523630499606,-524288,92,-56,-1,-1,0
1523630499606,-589824,92,-56,-1,-1,0
1523630499606,-720896,92,-56,-1,-1,0
1523630499606,-851968,92,-56,-1,-1,0
1523630499606,-917504,92,-56,-1,-1,0
1523630499648,-983040,92,-56,-1,-1,0
1523630499648,-1114112,92,-56,-1,-1,0
1523630499648,-1179648,92,-56,-1,-1,0
1523630499648,-1310720,92,-56,-1,-1,0
1523630499648,-1376256,92,-56,-1,-1,0
1523630499686,-1441792,92,-56,-1,-1,0
1523630499686,-1638400,92,-56,-1,-1,0
1523630499686,-1900544,92,-56,-1,-1,0
1523630499686,-1441792,92,-56,-1,-1,0
1523630499686,1048576,92,-56,-1,-1,0
1523630499726,5832704,92,-56,-1,-1,0
1523630499726,11665408,92,-56,-1,-1,0
1523630499726,15138816,92,-56,-1,-1,0
1523630499726,12124160,92,-56,-1,-1,0
1523630499726,4849664,92,-56,-1,-1,0
1523630499766,-458752,92,-56,-1,-1,0
1523630499766,-1638400,92,-56,-1,-1,0
1523630499766,-1572864,92,-56,-1,-1,0
1523630499766,-1572864,92,-56,-1,-1,0
1523630499766,-1376256,92,-56,-1,-1,0
1523630499806,-1507328,92,-56,-1,-1,0
1523630499806,-1835008,92,-56,-1,-1,0
1523630499806,-1769472,92,-56,-1,-1,0
1523630499806,-1310720,92,-56,-1,-1,0
1523630499806,-1114112,92,-56,-1,-1,0
1523630499846,-1179648,92,-56,-1,-1,0
1523630499846,-983040,92,-56,-1,-1,0
1523630499846,-851968,92,-56,-1,-1,0
1523630499846,-917504,92,-56,-1,-1,0
1523630499846,-917504,92,-56,-1,-1,0
1523630499886,-589824,92,-56,-1,-1,0
1523630499886,-196608,92,-56,-1,-1,0
1523630499886,327680,92,-56,-1,-1,0
1523630499886,917504,92,-56,-1,-1,0
1523630499886,1376256,92,-56,-1,-1,0
1523630499926,1769472,92,-56,-1,-1,0
1523630499926,2293760,92,-56,-1,-1,0
1523630499926,2555904,92,-56,-1,-1,0
1523630499926,2752512,92,-56,-1,-1,0
1523630499926,2883584,92,-56,-1,-1,0
1523630499966,3080192,92,-56,-1,-1,0
1523630499966,3145728,92,-56,-1,-1,0
1523630499966,2949120,92,-56,-1,-1,0
1523630499966,2097152,92,-56,-1,-1,0
1523630499966,1048576,92,-56,-1,-1,0
1523630500006,524288,92,-56,-1,-1,0
1523630500006,393216,92,-56,-1,-1,0
1523630500006,-65536,92,-56,-1,-1,0
1523630500006,-720896,92,-56,-1,-1,0
1523630500006,-589824,92,-56,-1,-1,0
1523630500046,-393216,92,-56,-1,-1,0
1523630500046,-720896,92,-56,-1,-1,0
1523630500046,-917504,92,-56,-1,-1,0
1523630500046,-589824,92,-56,-1,-1,0
1523630500046,-458752,92,-56,-1,-1,0
1523630500086,-720896,95,-56,-1,-1,0
1523630500086,-589824,95,-56,-1,-1,0
1523630500086,-393216,95,-56,-1,-1,0
1523630500086,-524288,95,-56,-1,-1,0
1523630500086,-720896,95,-56,-1,-1,0
1523630500126,-393216,95,-56,-1,-1,0
1523630500126,-262144,95,-56,-1,-1,0
1523630500126,-262144,95,-56,-1,-1,0
1523630500126,-196608,95,-56,-1,-1,0
1523630500126,-196608,95,-56,-1,-1,0
1523630500167,-720896,95,-56,-1,-1,0
1523630500167,-983040,95,-56,-1,-1,0
1523630500167,-983040,95,-56,-1,-1,0
1523630500167,-983040,95,-56,-1,-1,0
1523630500167,-1179648,95,-56,-1,-1,0
1523630500206,-1703936,95,-56,-1,-1,0
1523630500206,-1900544,95,-56,-1,-1,0
1523630500206,-1638400,95,-56,-1,-1,0
1523630500206,-1638400,95,-56,-1,-1,0
1523630500206,-2293760,95,-56,-1,-1,0
1523630500246,-2686976,95,-56,-1,-1,0
1523630500246,-1638400,95,-56,-1,-1,0
1523630500246,1310720,95,-56,-1,-1,0
1523630500246,6488064,95,-56,-1,-1,0
1523630500246,12189696,95,-56,-1,-1,0
1523630500287,14942208,95,-56,-1,-1,0
1523630500287,10682368,95,-56,-1,-1,0
1523630500287,2752512,95,-56,-1,-1,0
1523630500287,-2162688,95,-56,-1,-1,0
1523630500287,-2621440,95,-56,-1,-1,0
1523630500326,-2359296,95,-56,-1,-1,0
1523630500326,-2621440,95,-56,-1,-1,0
1523630500326,-2818048,95,-56,-1,-1,0
1523630500326,-2752512,95,-56,-1,-1,0
1523630500326,-2883584,95,-56,-1,-1,0
1523630500366,-2555904,95,-56,-1,-1,0
1523630500366,-1900544,95,-56,-1,-1,0
1523630500366,-851968,95,-56,-1,-1,0
1523630500366,-589824,95,-56,-1,-1,0
1523630500366,-1507328,95,-56,-1,-1,0
1523630500406,-2752512,95,-56,-1,-1,0
1523630500406,-3407872,95,-56,-1,-1,0
1523630500406,-3407872,95,-56,-1,-1,0
1523630500406,-3342336,95,-56,-1,-1,0
1523630500406,-2359296,95,-56,-1,-1,0
1523630500446,-983040,95,-56,-1,-1,0
1523630500446,-458752,95,-56,-1,-1,0
1523630500446,-458752,95,-56,-1,-1,0
1523630500446,65536,95,-56,-1,-1,0
1523630500446,720896,95,-56,-1,-1,0
1523630500487,851968,95,-56,-1,-1,0
1523630500487,851968,95,-56,-1,-1,0
1523630500487,1048576,95,-56,-1,-1,0
1523630500487,1376256,95,-56,-1,-1,0
1523630500487,1310720,95,-56,-1,-1,0
1523630500526,851968,95,-56,-1,-1,0
1523630500526,524288,95,-56,-1,-1,0
1523630500526,0,95,-56,-1,-1,0
1523630500526,-851968,95,-56,-1,-1,0
1523630500526,-1179648,95,-56,-1,-1,0
1523630500567,-1572864,95,-56,-1,-1,0
1523630500567,-2293760,95,-56,-1,-1,0
1523630500567,-2490368,95,-56,-1,-1,0
1523630500567,-2097152,95,-56,-1,-1,0
1523630500567,-2162688,95,-56,-1,-1,0
1523630500606,-2490368,98,-56,-1,-1,0
1523630500606,-2162688,98,-56,-1,-1,0
1523630500606,-1703936,98,-56,-1,-1,0
1523630500606,-1310720,98,-56,-1,-1,0
1523630500606,-917504,98,-56,-1,-1,0
1523630500646,-1179648,98,-56,-1,-1,0
1523630500646,-1900544,98,-56,-1,-1,0
1523630500646,-2097152,98,-56,-1,-1,0
1523630500646,-1572864,98,-56,-1,-1,0
1523630500646,-1376256,98,-56,-1,-1,0
1523630500687,-1507328,98,-56,-1,-1,0
1523630500687,-1507328,98,-56,-1,-1,0
1523630500687,-1441792,98,-56,-1,-1,0
1523630500687,-1572864,98,-56,-1,-1,0
1523630500687,-1769472,98,-56,-1,-1,0
1523630500727,-2031616,98,-56,-1,-1,0
1523630500727,-2228224,98,-56,-1,-1,0
1523630500727,-2228224,98,-56,-1,-1,0
1523630500727,-2097152,98,-56,-1,-1,0
1523630500727,-1900544,98,-56,-1,-1,0
1523630500766,-1835008,98,-56,-1,-1,0
1523630500766,-2359296,98,-56,-1,-1,0
1523630500766,-3080192,98,-56,-1,-1,0
1523630500766,-2752512,98,-56,-1,-1,0
1523630500766,-262144,98,-56,-1,-1,0
1523630500806,4194304,98,-56,-1,-1,0
1523630500806,10092544,98,-56,-1,-1,0
1523630500806,14024704,98,-56,-1,-1,0
1523630500806,11993088,98,-56,-1,-1,0
1523630500806,5373952,98,-56,-1,-1,0
1523630500846,196608,98,-56,-1,-1,0
1523630500846,-1310720,98,-56,-1,-1,0
1523630500846,-1703936,98,-56,-1,-1,0
1523630500846,-1835008,98,-56,-1,-1,0
1523630500846,-1703936,98,-56,-1,-1,0
1523630500886,-1572864,98,-56,-1,-1,0
1523630500886,-1376256,98,-56,-1,-1,0
1523630500886,-1048576,98,-56,-1,-1,0
1523630500886,-1114112,98,-56,-1,-1,0
1523630500886,-1441792,98,-56,-1,-1,0
1523630500927,-1507328,98,-56,-1,-1,0
1523630500927,-1245184,98,-56,-1,-1,0
1523630500927,-851968,98,-56,-1,-1,0
1523630500927,-458752,98,-56,-1,-1,0
1523630500927,-196608,98,-56,-1,-1,0
1523630500967,-196608,98,-56,-1,-1,0
1523630500967,-196608,98,-56,-1,-1,0
1523630500967,-131072,98,-56,-1,-1,0
1523630500967,393216,98,-56,-1,-1,0
1523630500967,851968,98,-56,-1,-1,0
1523630501006,1245184,98,-56,-1,-1,0
1523630501006,1441792,98,-56,-1,-1,0
1523630501006,1835008,98,-56,-1,-1,0
1523630501006,2424832,98,-56,-1,-1,0
1523630501006,2555904,98,-56,-1,-1,0
1523630501046,2424832,98,-56,-1,-1,0
1523630501046,2490368,98,-56,-1,-1,0
1523630501046,2162688,98,-56,-1,-1,0
1523630501046,1703936,98,-56,-1,-1,0
1523630501046,1310720,98,-56,-1,-1,0
1523630501086,1114112,98,-56,-1,-1,0
1523630501086,524288,98,-56,-1,-1,0
1523630501086,0,98,-56,-1,-1,0
1523630501086,-524288,98,-56,-1,-1,0
1523630501086,-917504,98,-56,-1,-1,0
1523630501126,-851968,98,-56,-1,-1,0
1523630501126,-524288,98,-56,-1,-1,0
1523630501126,-262144,98,-56,-1,-1,0
1523630501126,-655360,98,-56,-1,-1,0
1523630501126,-1179648,98,-56,-1,-1,0
1523630501167,-1114112,101,-56,-1,-1,0
1523630501167,-851968,101,-56,-1,-1,0
1523630501167,-524288,101,-56,-1,-1,0
1523630501167,-524288,101,-56,-1,-1,0
1523630501167,-1048576,101,-56,-1,-1,0
1523630501207,-1638400,101,-56,-1,-1,0
1523630501207,-1376256,101,-56,-1,-1,0
1523630501207,-983040,101,-56,-1,-1,0
1523630501207,-720896,101,-56,-1,-1,0
1523630501207,-917504,101,-56,-1,-1,0
1523630501246,-1310720,101,-56,-1,-1,0
1523630501246,-1507328,101,-56,-1,-1,0
1523630501246,-1245184,101,-56,-1,-1,0
1523630501246,-1245184,101,-56,-1,-1,0
1523630501246,-1703936,101,-56,-1,-1,0
1523630501287,-1900544,101,-56,-1,-1,0
1523630501287,-1310720,101,-56,-1,-1,0
1523630501287,-1048576,101,-56,-1,-1,0
1523630501287,-1703936,101,-56,-1,-1,0
1523630501287,-2621440,101,-56,-1,-1,0
1523630501326,-2293760,101,-56,-1,-1,0
1523630501326,-1179648,101,-56,-1,-1,0
1523630501326,1376256,101,-56,-1,-1,0
1523630501326,6225920,101,-56,-1,-1,0
1523630501326,12255232,101,-56,-1,-1,0
1523630501367,15400960,101,-56,-1,-1,0
1523630501367,11730944,101,-56,-1,-1,0
1523630501367,4063232,101,-56,-1,-1,0
1523630501367,-786432,101,-56,-1,-1,0
1523630501367,-1507328,101,-56,-1,-1,0
1523630501406,-1572864,101,-56,-1,-1,0
1523630501406,-1835008,101,-56,-1,-1,0
1523630501406,-1703936,101,-56,-1,-1,0
1523630501406,-1638400,101,-56,-1,-1,0
1523630501406,-1835008,101,-56,-1,-1,0
1523630501446,-1769472,101,-56,-1,-1,0
1523630501446,-1638400,101,-56,-1,-1,0
1523630501446,-1572864,101,-56,-1,-1,0
1523630501446,-1441792,101,-56,-1,-1,0
1523630501446,-1376256,101,-56,-1,-1,0
1523630501487,-1376256,101,-56,-1,-1,0
1523630501487,-1245184,101,-56,-1,-1,0
1523630501487,-983040,101,-56,-1,-1,0
1523630501487,-655360,101,-56,-1,-1,0
1523630501487,-393216,101,-56,-1,-1,0
1523630501527,-131072,101,-56,-1,-1,0
1523630501527,131072,101,-56,-1,-1,0
1523630501527,524288,101,-56,-1,-1,0
1523630501527,851968,101,-56,-1,-1,0
1523630501527,1245184,101,-56,-1,-1,0
1523630501569,1703936,101,-56,-1,-1,0
1523630501569,2031616,101,-56,-1,-1,0
1523630501569,2097152,101,-56,-1,-1,0
1523630501569,2097152,101,-56,-1,-1,0
1523630501569,2097152,101,-56,-1,-1,0
1523630501606,1900544,101,-56,-1,-1,0
1523630501606,1441792,101,-56,-1,-1,0
1523630501606,851968,101,-56,-1,-1,0
1523630501606,131072,101,-56,-1,-1,0
1523630501606,-458752,101,-56,-1,-1,0
1523630501646,-786432,101,-56,-1,-1,0
1523630501646,-786432,101,-56,-1,-1,0
1523630501646,-1114112,101,-56,-1,-1,0
1523630501646,-1441792,101,-56,-1,-1,0
1523630501646,-1572864,101,-56,-1,-1,0
1523630501686,-1376256,104,-56,-1,-1,0
1523630501686,-1179648,104,-56,-1,-1,0
1523630501686,-1048576,104,-56,-1,-1,0
1523630501686,-1114112,104,-56,-1,-1,0
1523630501686,-1441792,104,-56,-1,-1,0
1523630501726,-1507328,104,-56,-1,-1,0
1523630501726,-1245184,104,-56,-1,-1,0
1523630501726,-917504,104,-56,-1,-1,0
1523630501726,-786432,104,-56,-1,-1,0
1523630501726,-917504,104,-56,-1,-1,0
1523630501767,-1638400,104,-56,-1,-1,0
1523630501767,-1966080,104,-56,-1,-1,0
1523630501767,-1376256,104,-56,-1,-1,0
1523630501767,-720896,104,-56,-1,-1,0
1523630501767,-720896,104,-56,-1,-1,0
1523630501806,-917504,104,-56,-1,-1,0
1523630501806,-1048576,104,-56,-1,-1,0
1523630501806,-1441792,104,-56,-1,-1,0
1523630501806,-1638400,104,-56,-1,-1,0
1523630501806,-1572864,104,-56,-1,-1,0
1523630501846,-1638400,104,-56,-1,-1,0
1523630501846,-1769472,104,-56,-1,-1,0
1523630501846,-851968,104,-56,-1,-1,0
1523630501846,2097152,104,-56,-1,-1,0
1523630501846,6750208,104,-56,-1,-1,0
1523630501886,11665408,104,-56,-1,-1,0
1523630501886,13828096,104,-56,-1,-1,0
1523630501886,9830400,104,-56,-1,-1,0
1523630501886,2949120,104,-56,-1,-1,0
1523630501886,-655360,104,-56,-1,-1,0
1523630501926,-1048576,104,-56,-1,-1,0
1523630501926,-1114112,104,-56,-1,-1,0
1523630501926,-1703936,104,-56,-1,-1,0
1523630501926,-1769472,104,-56,-1,-1,0
1523630501926,-1114112,104,-56,-1,-1,0
1523630501966,-917504,104,-56,-1,-1,0
1523630501966,-1441792,104,-56,-1,-1,0
1523630501966,-1310720,104,-56,-1,-1,0
1523630501966,-327680,104,-56,-1,-1,0
1523630501966,-393216,104,-56,-1,-1,0
1523630502006,-327680,104,-56,-1,-1,0
1523630502006,-65536,104,-56,-1,-1,0
1523630502006,-655360,104,-56,-1,-1,0
1523630502006,-1179648,104,-56,-1,-1,0
1523630502006,-589824,104,-56,-1,-1,0
1523630502046,196608,104,-56,-1,-1,0
1523630502046,327680,104,-56,-1,-1,0
1523630502046,65536,104,-56,-1,-1,0
1523630502046,327680,104,-56,-1,-1,0
1523630502046,1179648,104,-56,-1,-1,0
1523630502086,2097152,104,-56,-1,-1,0
1523630502086,2162688,104,-56,-1,-1,0
1523630502086,1900544,104,-56,-1,-1,0
1523630502086,1245184,104,-56,-1,-1,0
1523630502086,1835008,104,-56,-1,-1,0
1523630502126,2031616,104,-56,-1,-1,0
1523630502126,1310720,104,-56,-1,-1,0
1523630502126,458752,104,-56,-1,-1,0
1523630502126,-131072,104,-56,-1,-1,0
1523630502126,-1179648,104,-56,-1,-1,0
1523630502166,-1638400,104,-56,-1,-1,0
1523630502166,-1572864,104,-56,-1,-1,0
1523630502166,-1769472,104,-56,-1,-1,0
1523630502166,-1572864,104,-56,-1,-1,0
1523630502166,-1441792,104,-56,-1,-1,0
1523630502207,-1703936,104,-56,-1,-1,0
1523630502207,-1769472,104,-56,-1,-1,0
1523630502207,-1638400,104,-56,-1,-1,0
1523630502207,-2228224,104,-56,-1,-1,0
1523630502207,-2424832,104,-56,-1,-1,0
1523630502246,-1835008,104,-56,-1,-1,0
1523630502246,-1507328,104,-56,-1,-1,0
1523630502246,-1376256,104,-56,-1,-1,0
1523630502246,-589824,104,-56,-1,-1,0
1523630502246,-196608,104,-56,-1,-1,0
1523630502286,-983040,104,-56,-1,-1,0
1523630502286,-1966080,104,-56,-1,-1,0
1523630502286,-2162688,104,-56,-1,-1,0
1523630502286,-2359296,104,-56,-1,-1,0
1523630502286,-2293760,104,-56,-1,-1,0
1523630502326,-1966080,104,-56,-1,-1,0
1523630502326,-1900544,104,-56,-1,-1,0
1523630502326,-2162688,104,-56,-1,-1,0
1523630502326,-2293760,104,-56,-1,-1,0
1523630502326,-2293760,104,-56,-1,-1,0
1523630502366,-2490368,104,-56,-1,-1,0
1523630502366,-2883584,104,-56,-1,-1,0
1523630502366,-2883584,104,-56,-1,-1,0
1523630502366,-1835008,104,-56,-1,-1,0
1523630502366,786432,104,-56,-1,-1,0
1523630502406,4915200,104,-56,-1,-1,0
1523630502406,9109504,104,-56,-1,-1,0
1523630502406,10813440,104,-56,-1,-1,0
1523630502406,7798784,104,-56,-1,-1,0
1523630502406,2162688,104,-56,-1,-1,0
1523630502447,-1507328,104,-56,-1,-1,0
1523630502447,-2424832,104,-56,-1,-1,0
1523630502447,-2818048,104,-56,-1,-1,0
1523630502447,-3014656,104,-56,-1,-1,0
1523630502447,-1900544,104,-56,-1,-1,0
1523630502487,-720896,104,-56,-1,-1,0
1523630502487,-1048576,104,-56,-1,-1,0
1523630502487,-2293760,104,-56,-1,-1,0
1523630502487,-2555904,104,-56,-1,-1,0
1523630502487,-1703936,104,-56,-1,-1,0
1523630502526,-983040,104,-56,-1,-1,0
1523630502526,-1376256,104,-56,-1,-1,0
1523630502526,-1638400,104,-56,-1,-1,0
1523630502526,-1179648,104,-56,-1,-1,0
1523630502526,-327680,104,-56,-1,-1,0
1523630502567,-262144,104,-56,-1,-1,0
1523630502567,-458752,104,-56,-1,-1,0
1523630502567,-327680,104,-56,-1,-1,0
1523630502567,-65536,104,-56,-1,-1,0
1523630502567,0,104,-56,-1,-1,0
1523630502606,327680,104,-56,-1,-1,0
1523630502606,983040,104,-56,-1,-1,0
1523630502606,1572864,104,-56,-1,-1,0
1523630502606,1900544,104,-56,-1,-1,0
1523630502606,1441792,104,-56,-1,-1,0
1523630502646,1441792,104,-56,-1,-1,0
1523630502646,1572864,104,-56,-1,-1,0
1523630502646,1835008,104,-56,-1,-1,0
1523630502646,1507328,104,-56,-1,-1,0
1523630502646,983040,104,-56,-1,-1,0
1523630502686,393216,104,-56,-1,-1,0
1523630502686,458752,104,-56,-1,-1,0
1523630502686,524288,104,-56,-1,-1,0
1523630502686,458752,104,-56,-1,-1,0
1523630502686,131072,104,-56,-1,-1,0
1523630502726,-327680,106,-56,-1,-1,0
1523630502726,-851968,106,-56,-1,-1,0
1523630502726,-1048576,106,-56,-1,-1,0
1523630502726,-786432,106,-56,-1,-1,0
1523630502726,-196608,106,-56,-1,-1,0
1523630502767,-65536,106,-56,-1,-1,0
1523630502767,-393216,106,-56,-1,-1,0
1523630502767,-786432,106,-56,-1,-1,0
1523630502767,-1048576,106,-56,-1,-1,0
1523630502767,-1179648,106,-56,-1,-1,0
1523630502806,-589824,106,-56,-1,-1,0
1523630502806,0,106,-56,-1,-1,0
1523630502806,-327680,106,-56,-1,-1,0
1523630502806,-851968,106,-56,-1,-1,0
1523630502806,-786432,106,-56,-1,-1,0
1523630502847,-458752,106,-56,-1,-1,0
1523630502847,-720896,106,-56,-1,-1,0
1523630502847,-1179648,106,-56,-1,-1,0
1523630502847,-1179648,106,-56,-1,-1,0
1523630502847,-917504,106,-56,-1,-1,0
1523630502886,-720896,106,-56,-1,-1,0
1523630502886,-1048576,106,-56,-1,-1,0
1523630502886,-1638400,106,-56,-1,-1,0
1523630502886,-1966080,106,-56,-1,-1,0
1523630502886,-1048576,106,-56,-1,-1,0
1523630502926,1638400,106,-56,-1,-1,0
1523630502926,6094848,106,-56,-1,-1,0
1523630502926,10878976,106,-56,-1,-1,0
1523630502926,12976128,106,-56,-1,-1,0
1523630502926,9306112,106,-56,-1,-1,0
1523630502967,2686976,106,-56,-1,-1,0
1523630502967,-1310720,106,-56,-1,-1,0
1523630502967,-1900544,106,-56,-1,-1,0
1523630502967,-1703936,106,-56,-1,-1,0
1523630502967,-1703936,106,-56,-1,-1,0
1523630503006,-1703936,106,-56,-1,-1,0
1523630503006,-1638400,106,-56,-1,-1,0
1523630503006,-1572864,106,-56,-1,-1,0
1523630503006,-1441792,106,-56,-1,-1,0
1523630503006,-1310720,106,-56,-1,-1,0
1523630503047,-1376256,106,-56,-1,-1,0
1523630503047,-1441792,106,-56,-1,-1,0
1523630503047,-1245184,106,-56,-1,-1,0
1523630503047,-983040,106,-56,-1,-1,0
1523630503047,-720896,106,-56,-1,-1,0
1523630503086,-589824,106,-56,-1,-1,0
1523630503086,-458752,106,-56,-1,-1,0
1523630503086,-262144,106,-56,-1,-1,0
1523630503086,0,106,-56,-1,-1,0
1523630503086,196608,106,-56,-1,-1,0
1523630503127,720896,106,-56,-1,-1,0
1523630503127,1245184,106,-56,-1,-1,0
1523630503127,1441792,106,-56,-1,-1,0
1523630503127,1638400,106,-56,-1,-1,0
1523630503127,1703936,106,-56,-1,-1,0
1523630503167,1769472,106,-56,-1,-1,0
1523630503167,1572864,106,-56,-1,-1,0
1523630503167,1507328,106,-56,-1,-1,0
1523630503167,1441792,106,-56,-1,-1,0
1523630503167,1179648,106,-56,-1,-1,0
1523630503206,786432,106,-56,-1,-1,0
1523630503206,393216,106,-56,-1,-1,0
1523630503206,65536,106,-56,-1,-1,0
1523630503206,-327680,106,-56,-1,-1,0
1523630503206,-655360,106,-56,-1,-1,0
1523630503246,-786432,107,-56,-1,-1,0
1523630503246,-851968,107,-56,-1,-1,0
1523630503246,-1048576,107,-56,-1,-1,0
1523630503246,-1114112,107,-56,-1,-1,0
1523630503246,-851968,107,-56,-1,-1,0
1523630503286,-851968,107,-56,-1,-1,0
1523630503286,-1114112,107,-56,-1,-1,0
1523630503286,-1245184,107,-56,-1,-1,0
1523630503286,-1114112,107,-56,-1,-1,0
1523630503286,-983040,107,-56,-1,-1,0
1523630503327,-851968,107,-56,-1,-1,0
1523630503327,-720896,107,-56,-1,-1,0
1523630503327,-589824,107,-56,-1,-1,0
1523630503327,-655360,107,-56,-1,-1,0
1523630503327,-786432,107,-56,-1,-1,0
1523630503366,-1048576,107,-56,-1,-1,0
1523630503366,-1114112,107,-56,-1,-1,0
1523630503366,-786432,107,-56,-1,-1,0
1523630503366,-458752,107,-56,-1,-1,0
1523630503366,-327680,107,-56,-1,-1,0
1523630503406,-589824,107,-56,-1,-1,0
1523630503406,-851968,107,-56,-1,-1,0
1523630503406,-1114112,107,-56,-1,-1,0
1523630503406,-1179648,107,-56,-1,-1,0
1523630503406,-524288,107,-56,-1,-1,0
1523630503446,1441792,107,-56,-1,-1,0
1523630503446,5111808,107,-56,-1,-1,0
1523630503446,9568256,107,-56,-1,-1,0
1523630503446,11993088,107,-56,-1,-1,0
1523630503446,9240576,107,-56,-1,-1,0
1523630503487,3670016,107,-56,-1,-1,0
1523630503487,-458752,107,-56,-1,-1,0
1523630503487,-1769472,107,-56,-1,-1,0
1523630503487,-1703936,107,-56,-1,-1,0
1523630503487,-1310720,107,-56,-1,-1,0
1523630503527,-1179648,107,-56,-1,-1,0
1523630503527,-917504,107,-56,-1,-1,0
1523630503527,-1048576,107,-56,-1,-1,0
1523630503527,-851968,107,-56,-1,-1,0
1523630503527,-983040,107,-56,-1,-1,0
1523630503567,-1376256,107,-56,-1,-1,0
1523630503567,-1114112,107,-56,-1,-1,0
1523630503567,-327680,107,-56,-1,-1,0
1523630503567,-262144,107,-56,-1,-1,0
1523630503567,-393216,107,-56,-1,-1,0
1523630503607,-65536,107,-56,-1,-1,0
1523630503607,65536,107,-56,-1,-1,0
1523630503607,-65536,107,-56,-1,-1,0
1523630503607,131072,107,-56,-1,-1,0
1523630503607,0,107,-56,-1,-1,0
1523630503646,196608,107,-56,-1,-1,0
1523630503646,786432,107,-56,-1,-1,0
1523630503646,1245184,107,-56,-1,-1,0
1523630503646,1114112,107,-56,-1,-1,0
1523630503646,1114112,107,-56,-1,-1,0
1523630503686,1310720,107,-56,-1,-1,0
1523630503686,1179648,107,-56,-1,-1,0
1523630503686,1376256,107,-56,-1,-1,0
1523630503686,917504,107,-56,-1,-1,0
1523630503686,524288,107,-56,-1,-1,0
1523630503727,196608,107,-56,-1,-1,0
1523630503727,0,107,-56,-1,-1,0
1523630503727,-1572864,107,-56,-1,-1,0
1523630503727,-3014656,107,-56,-1,-1,0
1523630503727,-2883584,107,-56,-1,-1,0
1523630503766,-2293760,109,-56,-1,-1,0
1523630503766,-2162688,109,-56,-1,-1,0
1523630503766,-2228224,109,-56,-1,-1,0
1523630503766,-2555904,109,-56,-1,-1,0
1523630503766,-3080192,109,-56,-1,-1,0
1523630503806,-2490368,109,-56,-1,-1,0
1523630503806,-851968,109,-56,-1,-1,0
1523630503806,-327680,109,-56,-1,-1,0
1523630503806,-1507328,109,-56,-1,-1,0
1523630503806,-2424832,109,-56,-1,-1,0
1523630503846,-2359296,109,-56,-1,-1,0
1523630503846,-1507328,109,-56,-1,-1,0
1523630503846,131072,109,-56,-1,-1,0
1523630503846,1245184,109,-56,-1,-1,0
1523630503846,917504,109,-56,-1,-1,0
1523630503886,0,109,-56,-1,-1,0
1523630503886,-1376256,109,-56,-1,-1,0
1523630503886,-2228224,109,-56,-1,-1,0
1523630503886,-2293760,109,-56,-1,-1,0
1523630503886,-2031616,109,-56,-1,-1,0
1523630503927,-2097152,109,-56,-1,-1,0
1523630503927,-2424832,109,-56,-1,-1,0
1523630503927,-2818048,109,-56,-1,-1,0
1523630503927,-2424832,109,-56,-1,-1,0
1523630503927,196608,109,-56,-1,-1,0
1523630503966,4980736,109,-56,-1,-1,0
1523630503966,9306112,109,-56,-1,-1,0
1523630503966,10813440,109,-56,-1,-1,0
1523630503966,7667712,109,-56,-1,-1,0
1523630503966,2228224,109,-56,-1,-1,0
1523630504006,-1441792,109,-56,-1,-1,0
1523630504006,-2621440,109,-56,-1,-1,0
1523630504006,-2949120,109,-56,-1,-1,0
1523630504006,-3014656,109,-56,-1,-1,0
1523630504006,-2818048,109,-56,-1,-1,0
1523630504046,-2621440,109,-56,-1,-1,0
1523630504046,-2228224,109,-56,-1,-1,0
1523630504046,-1703936,109,-56,-1,-1,0
1523630504046,-1638400,109,-56,-1,-1,0
1523630504046,-1966080,109,-56,-1,-1,0
1523630504086,-1966080,109,-56,-1,-1,0
1523630504086,-1638400,109,-56,-1,-1,0
1523630504086,-1441792,109,-56,-1,-1,0
1523630504086,-1245184,109,-56,-1,-1,0
1523630504086,-1114112,109,-56,-1,-1,0
1523630504127,-1114112,109,-56,-1,-1,0
1523630504127,-851968,109,-56,-1,-1,0
1523630504127,-393216,109,-56,-1,-1,0
1523630504127,-327680,109,-56,-1,-1,0
1523630504127,-393216,109,-56,-1,-1,0
1523630504167,0,109,-56,-1,-1,0
1523630504167,589824,109,-56,-1,-1,0
1523630504167,1114112,109,-56,-1,-1,0
1523630504167,1245184,109,-56,-1,-1,0
1523630504167,1114112,109,-56,-1,-1,0
1523630504206,917504,109,-56,-1,-1,0
1523630504206,917504,109,-56,-1,-1,0
1523630504206,1245184,109,-56,-1,-1,0
1523630504206,1114112,109,-56,-1,-1,0
1523630504206,655360,109,-56,-1,-1,0
1523630504246,262144,109,-56,-1,-1,0
1523630504246,65536,109,-56,-1,-1,0
1523630504246,-131072,109,-56,-1,-1,0
1523630504246,-196608,109,-56,-1,-1,0
1523630504246,-262144,109,-56,-1,-1,0
1523630504286,-589824,109,-56,-1,-1,0
1523630504286,-720896,109,-56,-1,-1,0
1523630504286,-786432,109,-56,-1,-1,0
1523630504286,-983040,109,-56,-1,-1,0
1523630504286,-1179648,109,-56,-1,-1,0
1523630504326,-983040,109,-56,-1,-1,0
1523630504326,-655360,109,-56,-1,-1,0
1523630504326,-393216,109,-56,-1,-1,0
1523630504326,-655360,109,-56,-1,-1,0
1523630504326,-983040,109,-56,-1,-1,0
1523630504366,-917504,109,-56,-1,-1,0
1523630504366,-983040,109,-56,-1,-1,0
1523630504366,-1179648,109,-56,-1,-1,0
1523630504366,-1376256,109,-56,-1,-1,0
1523630504366,-1376256,109,-56,-1,-1,0
1523630504406,-1310720,109,-56,-1,-1,0
1523630504406,-917504,109,-56,-1,-1,0
1523630504406,-1114112,109,-56,-1,-1,0
1523630504406,-1638400,109,-56,-1,-1,0
1523630504406,-1703936,109,-56,-1,-1,0
1523630504446,-1507328,109,-56,-1,-1,0
1523630504446,-1703936,109,-56,-1,-1,0
1523630504446,-1179648,109,-56,-1,-1,0
1523630504446,1310720,109,-56,-1,-1,0
1523630504446,5767168,109,-56,-1,-1,0
1523630504486,11075584,109,-56,-1,-1,0
1523630504486,14548992,109,-56,-1,-1,0
1523630504486,12189696,109,-56,-1,-1,0
1523630504486,5177344,109,-56,-1,-1,0
1523630504486,-65536,109,-56,-1,-1,0
1523630504526,-1114112,109,-56,-1,-1,0
1523630504526,-1245184,109,-56,-1,-1,0
1523630504526,-1441792,109,-56,-1,-1,0
1523630504526,-1441792,109,-56,-1,-1,0
1523630504526,-1507328,109,-56,-1,-1,0
1523630504566,-1376256,109,-56,-1,-1,0
1523630504566,-1376256,109,-56,-1,-1,0
1523630504566,-1310720,109,-56,-1,-1,0
1523630504566,-1114112,109,-56,-1,-1,0
1523630504566,-786432,109,-56,-1,-1,0
1523630504607,-786432,109,-56,-1,-1,0
1523630504607,-851968,109,-56,-1,-1,0
1523630504607,-786432,109,-56,-1,-1,0
1523630504607,-655360,109,-56,-1,-1,0
1523630504607,-458752,109,-56,-1,-1,0
1523630504646,-196608,109,-56,-1,-1,0
1523630504646,131072,109,-56,-1,-1,0
1523630504646,393216,109,-56,-1,-1,0
1523630504646,589824,109,-56,-1,-1,0
1523630504646,983040,109,-56,-1,-1,0
1523630504686,1507328,109,-56,-1,-1,0
1523630504686,1769472,109,-56,-1,-1,0
1523630504686,1966080,109,-56,-1,-1,0
1523630504686,2031616,109,-56,-1,-1,0
1523630504686,2031616,109,-56,-1,-1,0
1523630504726,1966080,109,-56,-1,-1,0
1523630504726,1769472,109,-56,-1,-1,0
1523630504726,1441792,109,-56,-1,-1,0
1523630504726,1114112,109,-56,-1,-1,0
1523630504726,786432,109,-56,-1,-1,0
1523630504767,327680,110,-56,-1,-1,0
1523630504767,-65536,110,-56,-1,-1,0
1523630504767,-393216,110,-56,-1,-1,0
1523630504767,-589824,110,-56,-1,-1,0
1523630504767,-786432,110,-56,-1,-1,0
1523630504806,-786432,110,-56,-1,-1,0
1523630504806,-720896,110,-56,-1,-1,0
1523630504806,-720896,110,-56,-1,-1,0
1523630504806,-786432,110,-56,-1,-1,0
1523630504806,-786432,110,-56,-1,-1,0
1523630504846,-786432,110,-56,-1,-1,0
1523630504846,-786432,110,-56,-1,-1,0
1523630504846,-851968,110,-56,-1,-1,0
1523630504846,-917504,110,-56,-1,-1,0
1523630504846,-851968,110,-56,-1,-1,0
1523630504886,-786432,110,-56,-1,-1,0
1523630504886,-851968,110,-56,-1,-1,0
1523630504886,-1048576,110,-56,-1,-1,0
1523630504886,-1245184,110,-56,-1,-1,0
1523630504886,-1310720,110,-56,-1,-1,0
1523630504926,-1376256,110,-56,-1,-1,0
1523630504926,-1638400,110,-56,-1,-1,0
1523630504926,-1769472,110,-56,-1,-1,0
1523630504926,-1572864,110,-56,-1,-1,0
1523630504926,-1769472,110,-56,-1,-1,0
1523630504966,-2228224,110,-56,-1,-1,0
1523630504966,-1507328,110,-56,-1,-1,0
1523630504966,1376256,110,-56,-1,-1,0
1523630504966,6029312,110,-56,-1,-1,0
1523630504966,10944512,110,-56,-1,-1,0
1523630505006,13303808,110,-56,-1,-1,0
1523630505006,9764864,110,-56,-1,-1,0
1523630505006,3080192,110,-56,-1,-1,0
1523630505006,-1048576,110,-56,-1,-1,0
1523630505006,-1441792,110,-56,-1,-1,0
1523630505046,-1310720,110,-56,-1,-1,0
1523630505046,-1507328,110,-56,-1,-1,0
1523630505046,-1310720,110,-56,-1,-1,0
1523630505046,-720896,110,-56,-1,-1,0
1523630505046,-786432,110,-56,-1,-1,0
1523630505086,-1245184,110,-56,-1,-1,0
1523630505086,-1245184,110,-56,-1,-1,0
1523630505086,-983040,110,-56,-1,-1,0
1523630505086,-851968,110,-56,-1,-1,0
1523630505086,-589824,110,-56,-1,-1,0
1523630505126,-720896,110,-56,-1,-1,0
1523630505126,-851968,110,-56,-1,-1,0
1523630505126,-1179648,110,-56,-1,-1,0
1523630505126,-983040,110,-56,-1,-1,0
1523630505126,-327680,110,-56,-1,-1,0
1523630505166,131072,110,-56,-1,-1,0
1523630505166,196608,110,-56,-1,-1,0
1523630505166,655360,110,-56,-1,-1,0
1523630505166,1441792,110,-56,-1,-1,0
1523630505166,1835008,110,-56,-1,-1,0
1523630505206,1900544,110,-56,-1,-1,0
1523630505206,2031616,110,-56,-1,-1,0
1523630505206,2359296,110,-56,-1,-1,0
1523630505206,2490368,110,-56,-1,-1,0
1523630505206,2228224,110,-56,-1,-1,0
1523630505246,1900544,110,-56,-1,-1,0
1523630505246,1900544,110,-56,-1,-1,0
1523630505246,1966080,110,-56,-1,-1,0
1523630505246,1114112,110,-56,-1,-1,0
1523630505246,458752,110,-56,-1,-1,0
1523630505286,0,111,-56,-1,-1,0
1523630505286,-65536,111,-56,-1,-1,0
1523630505286,0,111,-56,-1,-1,0
1523630505286,-196608,111,-56,-1,-1,0
1523630505286,-655360,111,-56,-1,-1,0
1523630505326,-851968,111,-56,-1,-1,0
1523630505326,-786432,111,-56,-1,-1,0
1523630505326,-458752,111,-56,-1,-1,0
1523630505326,-458752,111,-56,-1,-1,0
1523630505326,-1048576,111,-56,-1,-1,0
1523630505366,-1376256,111,-56,-1,-1,0
1523630505366,-458752,111,-56,-1,-1,0
1523630505366,-65536,111,-56,-1,-1,0
1523630505366,-1114112,111,-56,-1,-1,0
1523630505366,-2162688,111,-56,-1,-1,0
1523630505407,-2031616,111,-56,-1,-1,0
1523630505407,-1507328,111,-56,-1,-1,0
1523630505407,-1966080,111,-56,-1,-1,0
1523630505407,-3014656,111,-56,-1,-1,0
1523630505407,-3997696,111,-56,-1,-1,0
1523630505446,-3866624,111,-56,-1,-1,0
1523630505446,-2883584,111,-56,-1,-1,0
1523630505446,-2621440,111,-56,-1,-1,0
1523630505446,-3407872,111,-56,-1,-1,0
1523630505446,-3080192,111,-56,-1,-1,0
1523630505486,-196608,111,-56,-1,-1,0
1523630505486,3342336,111,-56,-1,-1,0
1523630505486,7471104,111,-56,-1,-1,0
1523630505486,11534336,111,-56,-1,-1,0
1523630505486,11337728,111,-56,-1,-1,0
1523630505526,5505024,111,-56,-1,-1,0
1523630505526,-458752,111,-56,-1,-1,0
1523630505526,-2555904,111,-56,-1,-1,0
1523630505526,-2949120,111,-56,-1,-1,0
1523630505526,-3473408,111,-56,-1,-1,0
1523630505566,-3604480,111,-56,-1,-1,0
1523630505566,-3276800,111,-56,-1,-1,0
1523630505566,-3080192,111,-56,-1,-1,0
1523630505566,-2949120,111,-56,-1,-1,0
1523630505566,-2818048,111,-56,-1,-1,0
1523630505606,-2686976,111,-56,-1,-1,0
1523630505606,-2359296,111,-56,-1,-1,0
1523630505606,-1966080,111,-56,-1,-1,0
1523630505606,-1966080,111,-56,-1,-1,0
1523630505606,-2031616,111,-56,-1,-1,0
1523630505646,-2097152,111,-56,-1,-1,0
1523630505646,-2097152,111,-56,-1,-1,0
1523630505646,-1966080,111,-56,-1,-1,0
1523630505646,-1507328,111,-56,-1,-1,0
1523630505646,-1245184,111,-56,-1,-1,0
1523630505687,-1048576,111,-56,-1,-1,0
1523630505687,-720896,111,-56,-1,-1,0
1523630505687,-65536,111,-56,-1,-1,0
1523630505687,196608,111,-56,-1,-1,0
1523630505687,393216,111,-56,-1,-1,0
1523630505726,262144,111,-56,-1,-1,0
1523630505726,196608,111,-56,-1,-1,0
1523630505726,65536,111,-56,-1,-1,0
1523630505726,-131072,111,-56,-1,-1,0
1523630505726,-131072,111,-56,-1,-1,0
1523630505766,131072,111,-56,-1,-1,0
1523630505766,393216,111,-56,-1,-1,0
1523630505766,65536,111,-56,-1,-1,0
1523630505766,-589824,111,-56,-1,-1,0
1523630505766,-1048576,111,-56,-1,-1,0
1523630505806,-1114112,111,-56,-1,-1,0
1523630505806,-1441792,111,-56,-1,-1,0
1523630505806,-1900544,111,-56,-1,-1,0
1523630505806,-1638400,111,-56,-1,-1,0
1523630505806,-917504,111,-56,-1,-1,0
1523630505846,-983040,111,-56,-1,-1,0
1523630505846,-1572864,111,-56,-1,-1,0
1523630505846,-1638400,111,-56,-1,-1,0
1523630505846,-917504,111,-56,-1,-1,0
1523630505846,-589824,111,-56,-1,-1,0
1523630505886,-1179648,111,-56,-1,-1,0
1523630505886,-1703936,111,-56,-1,-1,0
1523630505886,-1703936,111,-56,-1,-1,0
1523630505886,-1310720,111,-56,-1,-1,0
1523630505886,-983040,111,-56,-1,-1,0
1523630505926,-1245184,111,-56,-1,-1,0
1523630505926,-1900544,111,-56,-1,-1,0
1523630505926,-2162688,111,-56,-1,-1,0
1523630505926,-1835008,111,-56,-1,-1,0
1523630505926,-1572864,111,-56,-1,-1,0
1523630505966,-1638400,111,-56,-1,-1,0
1523630505966,-1769472,111,-56,-1,-1,0
1523630505966,-1900544,111,-56,-1,-1,0
1523630505966,-393216,111,-56,-1,-1,0
1523630505966,3145728,111,-56,-1,-1,0
1523630506006,8716288,111,-56,-1,-1,0
1523630506006,13500416,111,-56,-1,-1,0
1523630506006,13369344,111,-56,-1,-1,0
1523630506006,7208960,111,-56,-1,-1,0
1523630506006,720896,111,-56,-1,-1,0
1523630506047,-1638400,111,-56,-1,-1,0
1523630506047,-1835008,111,-56,-1,-1,0
1523630506047,-1769472,111,-56,-1,-1,0
1523630506047,-1703936,111,-56,-1,-1,0
1523630506047,-1769472,111,-56,-1,-1,0
1523630506086,-1572864,111,-56,-1,-1,0
1523630506086,-1114112,111,-56,-1,-1,0
1523630506086,-983040,111,-56,-1,-1,0
1523630506086,-1179648,111,-56,-1,-1,0
1523630506086,-1572864,111,-56,-1,-1,0
1523630506126,-1572864,111,-56,-1,-1,0
1523630506126,-1245184,111,-56,-1,-1,0
1523630506126,-983040,111,-56,-1,-1,0
1523630506126,-1179648,111,-56,-1,-1,0
1523630506126,-983040,111,-56,-1,-1,0
1523630506166,-393216,111,-56,-1,-1,0
1523630506166,65536,111,-56,-1,-1,0
1523630506166,262144,111,-56,-1,-1,0
1523630506166,327680,111,-56,-1,-1,0
1523630506166,786432,111,-56,-1,-1,0
1523630506206,1572864,111,-56,-1,-1,0
1523630506206,1966080,111,-56,-1,-1,0
1523630506206,1703936,111,-56,-1,-1,0
1523630506206,1441792,111,-56,-1,-1,0
1523630506206,1638400,111,-56,-1,-1,0
1523630506246,1769472,111,-56,-1,-1,0
1523630506246,1835008,111,-56,-1,-1,0
1523630506246,1769472,111,-56,-1,-1,0
1523630506246,1441792,111,-56,-1,-1,0
1523630506246,851968,111,-56,-1,-1,0
1523630506286,196608,112,-56,-1,-1,0
1523630506286,-196608,112,-56,-1,-1,0
1523630506286,-327680,112,-56,-1,-1,0
1523630506286,-393216,112,-56,-1,-1,0
1523630506286,-589824,112,-56,-1,-1,0
1523630506326,-589824,112,-56,-1,-1,0
1523630506326,-524288,112,-56,-1,-1,0
1523630506326,-589824,112,-56,-1,-1,0
1523630506326,-655360,112,-56,-1,-1,0
1523630506326,-720896,112,-56,-1,-1,0
1523630506366,-720896,112,-56,-1,-1,0
1523630506366,-720896,112,-56,-1,-1,0
1523630506366,-655360,112,-56,-1,-1,0
1523630506366,-720896,112,-56,-1,-1,0
1523630506366,-655360,112,-56,-1,-1,0
1523630506406,-589824,112,-56,-1,-1,0
1523630506406,-458752,112,-56,-1,-1,0
1523630506406,-589824,112,-56,-1,-1,0
1523630506406,-851968,112,-56,-1,-1,0
1523630506406,-1179648,112,-56,-1,-1,0
1523630506446,-1310720,112,-56,-1,-1,0
1523630506446,-1376256,112,-56,-1,-1,0
1523630506446,-1507328,112,-56,-1,-1,0
1523630506446,-1638400,112,-56,-1,-1,0
1523630506446,-1900544,112,-56,-1,-1,0
1523630506486,-2031616,112,-56,-1,-1,0
1523630506486,-1114112,112,-56,-1,-1,0
1523630506486,1900544,112,-56,-1,-1,0
1523630506486,7077888,112,-56,-1,-1,0
1523630506486,12713984,112,-56,-1,-1,0
1523630506526,14942208,112,-56,-1,-1,0
1523630506526,10223616,112,-56,-1,-1,0
1523630506526,2621440,112,-56,-1,-1,0
1523630506526,-1638400,112,-56,-1,-1,0
1523630506526,-2031616,112,-56,-1,-1,0
1523630506566,-1769472,112,-56,-1,-1,0
1523630506566,-1703936,112,-56,-1,-1,0
1523630506566,-1572864,112,-56,-1,-1,0
1523630506566,-1441792,112,-56,-1,-1,0
1523630506566,-1310720,112,-56,-1,-1,0
1523630506606,-1310720,112,-56,-1,-1,0
1523630506606,-1376256,112,-56,-1,-1,0
1523630506606,-1638400,112,-56,-1,-1,0
1523630506606,-1703936,112,-56,-1,-1,0
1523630506606,-1441792,112,-56,-1,-1,0
1523630506646,-1179648,112,-56,-1,-1,0
1523630506646,-1048576,112,-56,-1,-1,0
1523630506646,-983040,112,-56,-1,-1,0
1523630506646,-589824,112,-56,-1,-1,0
1523630506646,-262144,112,-56,-1,-1,0
1523630506687,0,112,-56,-1,-1,0
1523630506687,131072,112,-56,-1,-1,0
1523630506687,524288,112,-56,-1,-1,0
1523630506687,1048576,112,-56,-1,-1,0
1523630506687,1572864,112,-56,-1,-1,0
1523630506726,1769472,112,-56,-1,-1,0
1523630506726,1835008,112,-56,-1,-1,0
1523630506726,1966080,112,-56,-1,-1,0
1523630506726,1966080,112,-56,-1,-1,0
1523630506726,1769472,112,-56,-1,-1,0
1523630506766,1572864,112,-56,-1,-1,0
1523630506766,1245184,112,-56,-1,-1,0
1523630506766,917504,112,-56,-1,-1,0
1523630506766,524288,112,-56,-1,-1,0
1523630506766,327680,112,-56,-1,-1,0
1523630506806,65536,113,-56,-1,-1,0
1523630506806,-196608,113,-56,-1,-1,0
1523630506806,-327680,113,-56,-1,-1,0
1523630506806,-65536,113,-56,-1,-1,0
1523630506806,-196608,113,-56,-1,-1,0
1523630506846,-720896,113,-56,-1,-1,0
1523630506846,-917504,113,-56,-1,-1,0
1523630506846,-524288,113,-56,-1,-1,0
1523630506846,0,113,-56,-1,-1,0
1523630506846,-131072,113,-56,-1,-1,0
1523630506886,-327680,113,-56,-1,-1,0
1523630506886,-262144,113,-56,-1,-1,0
1523630506886,65536,113,-56,-1,-1,0
1523630506886,-327680,113,-56,-1,-1,0
1523630506886,-720896,113,-56,-1,-1,0
1523630506926,-458752,113,-56,-1,-1,0
1523630506926,-393216,113,-56,-1,-1,0
1523630506926,-1048576,113,-56,-1,-1,0
1523630506926,-1114112,113,-56,-1,-1,0
1523630506926,-851968,113,-56,-1,-1,0
1523630506966,-1048576,113,-56,-1,-1,0
1523630506966,-1179648,113,-56,-1,-1,0
1523630506966,-983040,113,-56,-1,-1,0
1523630506966,-720896,113,-56,-1,-1,0
1523630506966,393216,113,-56,-1,-1,0
1523630507006,3407872,113,-56,-1,-1,0
1523630507006,8192000,113,-56,-1,-1,0
1523630507006,13303808,113,-56,-1,-1,0
1523630507006,14745600,113,-56,-1,-1,0
1523630507006,9895936,113,-56,-1,-1,0
1523630507046,2621440,113,-56,-1,-1,0
1523630507046,-1114112,113,-56,-1,-1,0
1523630507046,-1310720,113,-56,-1,-1,0
1523630507046,-1114112,113,-56,-1,-1,0
1523630507046,-1310720,113,-56,-1,-1,0
1523630507086,-1376256,113,-56,-1,-1,0
1523630507086,-1114112,113,-56,-1,-1,0
1523630507086,-1507328,113,-56,-1,-1,0
1523630507086,-1966080,113,-56,-1,-1,0
1523630507086,-1966080,113,-56,-1,-1,0
1523630507126,-1310720,113,-56,-1,-1,0
1523630507126,-1114112,113,-56,-1,-1,0
1523630507126,-1048576,113,-56,-1,-1,0
1523630507126,-917504,113,-56,-1,-1,0
1523630507126,-1572864,113,-56,-1,-1,0
1523630507166,-2359296,113,-56,-1,-1,0
1523630507166,-1638400,113,-56,-1,-1,0
1523630507166,-786432,113,-56,-1,-1,0
1523630507166,-1179648,113,-56,-1,-1,0
1523630507166,-1900544,113,-56,-1,-1,0
1523630507206,-1376256,113,-56,-1,-1,0
1523630507206,0,113,-56,-1,-1,0
1523630507206,1310720,113,-56,-1,-1,0
1523630507206,1441792,113,-56,-1,-1,0
1523630507206,1114112,113,-56,-1,-1,0
1523630507246,786432,113,-56,-1,-1,0
1523630507246,589824,113,-56,-1,-1,0
1523630507246,589824,113,-56,-1,-1,0
1523630507246,1048576,113,-56,-1,-1,0
1523630507246,1376256,113,-56,-1,-1,0
1523630507286,1245184,113,-56,-1,-1,0
1523630507286,327680,113,-56,-1,-1,0
1523630507286,-983040,113,-56,-1,-1,0
1523630507286,-2097152,113,-56,-1,-1,0
1523630507286,-1966080,113,-56,-1,-1,0
1523630507327,-1572864,114,-56,-1,-1,0
1523630507327,-1638400,114,-56,-1,-1,0
1523630507327,-2228224,114,-56,-1,-1,0
1523630507327,-2424832,114,-56,-1,-1,0
1523630507327,-2228224,114,-56,-1,-1,0
1523630507366,-1769472,114,-56,-1,-1,0
1523630507366,-1703936,114,-56,-1,-1,0
1523630507366,-1638400,114,-56,-1,-1,0
1523630507366,-1769472,114,-56,-1,-1,0
1523630507366,-1835008,114,-56,-1,-1,0
1523630507406,-1900544,114,-56,-1,-1,0
1523630507406,-1769472,114,-56,-1,-1,0
1523630507406,-1638400,114,-56,-1,-1,0
1523630507406,-1638400,114,-56,-1,-1,0
1523630507406,-1900544,114,-56,-1,-1,0
1523630507446,-1966080,114,-56,-1,-1,0
1523630507446,-2359296,114,-56,-1,-1,0
1523630507446,-2555904,114,-56,-1,-1,0
1523630507446,-2621440,114,-56,-1,-1,0
1523630507446,-2686976,114,-56,-1,-1,0
1523630507486,-2686976,114,-56,-1,-1,0
1523630507486,-2490368,114,-56,-1,-1,0
1523630507486,-2162688,114,-56,-1,-1,0
1523630507486,-983040,114,-56,-1,-1,0
1523630507486,2490368,114,-56,-1,-1,0
1523630507526,7602176,114,-56,-1,-1,0
1523630507526,11599872,114,-56,-1,-1,0
1523630507526,11141120,114,-56,-1,-1,0
1523630507526,5701632,114,-56,-1,-1,0
1523630507526,0,114,-56,-1,-1,0
1523630507566,-2424832,114,-56,-1,-1,0
1523630507566,-2424832,114,-56,-1,-1,0
1523630507566,-2162688,114,-56,-1,-1,0
1523630507566,-2031616,114,-56,-1,-1,0
1523630507566,-2162688,114,-56,-1,-1,0
1523630507606,-2490368,114,-56,-1,-1,0
1523630507606,-2293760,114,-56,-1,-1,0
1523630507606,-1966080,114,-56,-1,-1,0
1523630507606,-1900544,114,-56,-1,-1,0
1523630507606,-2031616,114,-56,-1,-1,0
1523630507646,-1769472,114,-56,-1,-1,0
1523630507646,-1638400,114,-56,-1,-1,0
1523630507646,-1441792,114,-56,-1,-1,0
1523630507646,-1048576,114,-56,-1,-1,0
1523630507646,-917504,114,-56,-1,-1,0
1523630507686,-983040,114,-56,-1,-1,0
1523630507686,-720896,114,-56,-1,-1,0
1523630507686,-327680,114,-56,-1,-1,0
1523630507686,-131072,114,-56,-1,-1,0
1523630507686,131072,114,-56,-1,-1,0
1523630507726,589824,114,-56,-1,-1,0
1523630507726,983040,114,-56,-1,-1,0
1523630507726,1310720,114,-56,-1,-1,0
1523630507726,1376256,114,-56,-1,-1,0
1523630507726,1310720,114,-56,-1,-1,0
1523630507766,1376256,114,-56,-1,-1,0
1523630507766,1376256,114,-56,-1,-1,0
1523630507766,1114112,114,-56,-1,-1,0
1523630507766,524288,114,-56,-1,-1,0
1523630507766,65536,114,-56,-1,-1,0
1523630507806,-393216,114,-56,-1,-1,0
1523630507806,-524288,114,-56,-1,-1,0
1523630507806,-458752,114,-56,-1,-1,0
1523630507806,-393216,114,-56,-1,-1,0
1523630507806,-589824,114,-56,-1,-1,0
1523630507846,-851968,115,-56,-1,-1,0
1523630507846,-917504,115,-56,-1,-1,0
1523630507846,-786432,115,-56,-1,-1,0
1523630507846,-786432,115,-56,-1,-1,0
1523630507846,-983040,115,-56,-1,-1,0
1523630507886,-1048576,115,-56,-1,-1,0
1523630507886,-786432,115,-56,-1,-1,0
1523630507886,-786432,115,-56,-1,-1,0
1523630507886,-589824,115,-56,-1,-1,0
1523630507886,65536,115,-56,-1,-1,0
1523630507926,0,115,-56,-1,-1,0
1523630507926,-720896,115,-56,-1,-1,0
1523630507926,-1245184,115,-56,-1,-1,0
1523630507926,-1048576,115,-56,-1,-1,0
1523630507926,-983040,115,-56,-1,-1,0
1523630507967,-983040,115,-56,-1,-1,0
1523630507967,-1048576,115,-56,-1,-1,0
1523630507967,-1179648,115,-56,-1,-1,0
1523630507967,-1048576,115,-56,-1,-1,0
1523630507967,-1048576,115,-56,-1,-1,0
1523630508006,-1179648,115,-56,-1,-1,0
1523630508006,-1638400,115,-56,-1,-1,0
1523630508006,-2031616,115,-56,-1,-1,0
1523630508006,-1114112,115,-56,-1,-1,0
1523630508006,2031616,115,-56,-1,-1,0
1523630508046,7340032,115,-56,-1,-1,0
1523630508046,12713984,115,-56,-1,-1,0
1523630508046,14352384,115,-56,-1,-1,0
1523630508046,9175040,115,-56,-1,-1,0
1523630508046,2031616,115,-56,-1,-1,0
1523630508086,-1441792,115,-56,-1,-1,0
1523630508086,-1769472,115,-56,-1,-1,0
1523630508086,-1572864,115,-56,-1,-1,0
1523630508086,-1638400,115,-56,-1,-1,0
1523630508086,-1835008,115,-56,-1,-1,0
1523630508126,-1769472,115,-56,-1,-1,0
1523630508126,-1572864,115,-56,-1,-1,0
1523630508126,-1572864,115,-56,-1,-1,0
1523630508126,-1638400,115,-56,-1,-1,0
1523630508126,-1572864,115,-56,-1,-1,0
1523630508166,-1376256,115,-56,-1,-1,0
1523630508166,-1245184,115,-56,-1,-1,0
1523630508166,-1114112,115,-56,-1,-1,0
1523630508166,-1048576,115,-56,-1,-1,0
1523630508166,-851968,115,-56,-1,-1,0
1523630508206,-655360,115,-56,-1,-1,0
1523630508206,-393216,115,-56,-1,-1,0
1523630508206,-65536,115,-56,-1,-1,0
1523630508206,327680,115,-56,-1,-1,0
1523630508206,720896,115,-56,-1,-1,0
1523630508246,917504,115,-56,-1,-1,0
1523630508246,1048576,115,-56,-1,-1,0
1523630508246,1245184,115,-56,-1,-1,0
1523630508246,1441792,115,-56,-1,-1,0
1523630508246,1572864,115,-56,-1,-1,0
1523630508286,1572864,115,-56,-1,-1,0
1523630508286,1507328,115,-56,-1,-1,0
1523630508286,1376256,115,-56,-1,-1,0
1523630508286,1048576,115,-56,-1,-1,0
1523630508286,720896,115,-56,-1,-1,0
1523630508326,327680,115,-56,-1,-1,0
1523630508326,0,115,-56,-1,-1,0
1523630508326,-196608,115,-56,-1,-1,0
1523630508326,-196608,115,-56,-1,-1,0
1523630508326,-327680,115,-56,-1,-1,0
1523630508366,-720896,115,-56,-1,-1,0
1523630508366,-1048576,115,-56,-1,-1,0
1523630508366,-1179648,115,-56,-1,-1,0
1523630508366,-1114112,115,-56,-1,-1,0
1523630508366,-917504,115,-56,-1,-1,0
1523630508406,-983040,115,-56,-1,-1,0
1523630508406,-1179648,115,-56,-1,-1,0
1523630508406,-1245184,115,-56,-1,-1,0
1523630508406,-1048576,115,-56,-1,-1,0
1523630508406,-917504,115,-56,-1,-1,0
1523630508446,-983040,115,-56,-1,-1,0
1523630508446,-983040,115,-56,-1,-1,0
1523630508446,-851968,115,-56,-1,-1,0
1523630508446,-786432,115,-56,-1,-1,0
1523630508446,-983040,115,-56,-1,-1,0
1523630508486,-1376256,115,-56,-1,-1,0
1523630508486,-1769472,115,-56,-1,-1,0
1523630508486,-1703936,115,-56,-1,-1,0
1523630508486,-1572864,115,-56,-1,-1,0
1523630508486,-1572864,115,-56,-1,-1,0
1523630508526,-1769472,115,-56,-1,-1,0
1523630508526,-1966080,115,-56,-1,-1,0
1523630508526,-2031616,115,-56,-1,-1,0
1523630508526,-1048576,115,-56,-1,-1,0
1523630508526,1572864,115,-56,-1,-1,0
1523630508566,6160384,115,-56,-1,-1,0
1523630508566,11665408,115,-56,-1,-1,0
1523630508566,14417920,115,-56,-1,-1,0
1523630508566,10616832,115,-56,-1,-1,0
1523630508566,3276800,115,-56,-1,-1,0
1523630508607,-1441792,115,-56,-1,-1,0
1523630508607,-2097152,115,-56,-1,-1,0
1523630508607,-1507328,115,-56,-1,-1,0
1523630508607,-1376256,115,-56,-1,-1,0
1523630508607,-1310720,115,-56,-1,-1,0
1523630508646,-1048576,115,-56,-1,-1,0
1523630508646,-917504,115,-56,-1,-1,0
1523630508646,-1179648,115,-56,-1,-1,0
1523630508646,-1310720,115,-56,-1,-1,0
1523630508646,-1245184,115,-56,-1,-1,0
1523630508686,-1048576,115,-56,-1,-1,0
1523630508686,-1114112,115,-56,-1,-1,0
1523630508686,-1114112,115,-56,-1,-1,0
1523630508686,-851968,115,-56,-1,-1,0
1523630508686,-786432,115,-56,-1,-1,0
1523630508726,-786432,115,-56,-1,-1,0
1523630508726,-393216,115,-56,-1,-1,0
1523630508726,131072,115,-56,-1,-1,0
1523630508726,327680,115,-56,-1,-1,0
1523630508726,720896,115,-56,-1,-1,0
1523630508766,1441792,115,-56,-1,-1,0
1523630508766,1835008,115,-56,-1,-1,0
1523630508766,1835008,115,-56,-1,-1,0
1523630508766,2293760,115,-56,-1,-1,0
1523630508766,2490368,115,-56,-1,-1,0
1523630508806,2031616,115,-56,-1,-1,0
1523630508806,1900544,115,-56,-1,-1,0
1523630508806,2031616,115,-56,-1,-1,0
1523630508806,1376256,115,-56,-1,-1,0
1523630508806,983040,115,-56,-1,-1,0
1523630508846,786432,115,-56,-1,-1,0
1523630508846,131072,115,-56,-1,-1,0
1523630508846,-327680,115,-56,-1,-1,0
1523630508846,-393216,115,-56,-1,-1,0
1523630508846,-589824,115,-56,-1,-1,0
1523630508886,-917504,115,-56,-1,-1,0
1523630508886,-983040,115,-56,-1,-1,0
1523630508886,-983040,115,-56,-1,-1,0
1523630508886,-983040,115,-56,-1,-1,0
1523630508886,-917504,115,-56,-1,-1,0
1523630508926,-524288,115,-56,-1,-1,0
1523630508926,-524288,115,-56,-1,-1,0
1523630508926,-1179648,115,-56,-1,-1,0
1523630508926,-1638400,115,-56,-1,-1,0
1523630508926,-1572864,115,-56,-1,-1,0
1523630508966,-2031616,115,-56,-1,-1,0
1523630508966,-2359296,115,-56,-1,-1,0
1523630508966,-2097152,115,-56,-1,-1,0
1523630508966,-1835008,115,-56,-1,-1,0
1523630508966,-1441792,115,-56,-1,-1,0
1523630509006,-524288,115,-56,-1,-1,0
1523630509006,-786432,115,-56,-1,-1,0
1523630509006,-2162688,115,-56,-1,-1,0
1523630509006,-2949120,115,-56,-1,-1,0
1523630509006,-2097152,115,-56,-1,-1,0
1523630509046,-1245184,115,-56,-1,-1,0
1523630509046,-1310720,115,-56,-1,-1,0
1523630509046,-1703936,115,-56,-1,-1,0
1523630509046,-1769472,115,-56,-1,-1,0
1523630509046,-2228224,115,-56,-1,-1,0
1523630509086,-2686976,115,-56,-1,-1,0
1523630509086,-1310720,115,-56,-1,-1,0
1523630509086,2490368,115,-56,-1,-1,0
1523630509086,8388608,115,-56,-1,-1,0
1523630509086,13500416,115,-56,-1,-1,0
1523630509126,13893632,115,-56,-1,-1,0
1523630509126,7929856,115,-56,-1,-1,0
1523630509126,851968,115,-56,-1,-1,0
1523630509126,-2490368,115,-56,-1,-1,0
1523630509126,-2818048,115,-56,-1,-1,0
1523630509166,-2490368,115,-56,-1,-1,0
1523630509166,-1900544,115,-56,-1,-1,0
1523630509166,-1966080,115,-56,-1,-1,0
1523630509166,-2555904,115,-56,-1,-1,0
1523630509166,-2883584,115,-56,-1,-1,0
1523630509206,-2424832,115,-56,-1,-1,0
1523630509206,-2097152,115,-56,-1,-1,0
1523630509206,-1769472,115,-56,-1,-1,0
1523630509206,-1441792,115,-56,-1,-1,0
1523630509206,-1572864,115,-56,-1,-1,0
1523630509247,-1835008,115,-56,-1,-1,0
1523630509247,-1900544,115,-56,-1,-1,0
1523630509247,-1441792,115,-56,-1,-1,0
1523630509247,-1048576,115,-56,-1,-1,0
1523630509247,-655360,115,-56,-1,-1,0
1523630509286,-262144,115,-56,-1,-1,0
1523630509286,-65536,115,-56,-1,-1,0
1523630509286,65536,115,-56,-1,-1,0
1523630509286,458752,115,-56,-1,-1,0
1523630509286,917504,115,-56,-1,-1,0
1523630509326,983040,115,-56,-1,-1,0
1523630509326,655360,115,-56,-1,-1,0
1523630509326,524288,115,-56,-1,-1,0
1523630509326,983040,115,-56,-1,-1,0
1523630509326,1114112,115,-56,-1,-1,0
1523630509366,1048576,115,-56,-1,-1,0
1523630509366,655360,115,-56,-1,-1,0
1523630509366,0,115,-56,-1,-1,0
1523630509366,-524288,115,-56,-1,-1,0
1523630509366,-524288,115,-56,-1,-1,0
1523630509406,-393216,115,-56,-1,-1,0
1523630509406,-524288,115,-56,-1,-1,0
1523630509406,-720896,115,-56,-1,-1,0
1523630509406,-917504,115,-56,-1,-1,0
1523630509406,-1048576,115,-56,-1,-1,0
1523630509447,-1048576,115,-56,-1,-1,0
1523630509447,-917504,115,-56,-1,-1,0
1523630509447,-917504,115,-56,-1,-1,0
1523630509447,-983040,115,-56,-1,-1,0
1523630509447,-1114112,115,-56,-1,-1,0
1523630509486,-786432,115,-56,-1,-1,0
1523630509486,-655360,115,-56,-1,-1,0
1523630509486,-851968,115,-56,-1,-1,0
1523630509486,-1048576,115,-56,-1,-1,0
1523630509486,-1179648,115,-56,-1,-1,0
1523630509526,-1179648,115,-56,-1,-1,0
1523630509526,-1245184,115,-56,-1,-1,0
1523630509526,-1245184,115,-56,-1,-1,0
1523630509526,-1376256,115,-56,-1,-1,0
1523630509526,-1376256,115,-56,-1,-1,0
1523630509566,-1114112,115,-56,-1,-1,0
1523630509566,-1114112,115,-56,-1,-1,0
1523630509566,-1507328,115,-56,-1,-1,0
1523630509566,-1900544,115,-56,-1,-1,0
1523630509566,-1769472,115,-56,-1,-1,0
1523630509606,-1835008,115,-56,-1,-1,0
1523630509606,-1966080,115,-56,-1,-1,0
1523630509606,-1572864,115,-56,-1,-1,0
1523630509606,524288,115,-56,-1,-1,0
1523630509606,5046272,115,-56,-1,-1,0
1523630509646,11075584,115,-56,-1,-1,0
1523630509646,15269888,115,-56,-1,-1,0
1523630509646,13107200,115,-56,-1,-1,0
1523630509646,5963776,115,-56,-1,-1,0
1523630509646,65536,115,-56,-1,-1,0
