milliseconds, ECG, ECG HR, PPG, PPG HR, SpO2, PI
0,-589824,99,-56,-1,-1,0
33,-917504,99,-56,-1,-1,0
66,-1048576,99,-56,-1,-1,0
100,-786432,99,-56,-1,-1,0
133,-720896,99,-56,-1,-1,0
166,-1245184,99,-56,-1,-1,0
200,0,99,-56,-1,-1,0
233,-524288,99,-56,-1,-1,0
266,-2097152,99,-56,-1,-1,0
300,-1703936,99,-56,-1,-1,0
333,-655360,99,-56,-1,-1,0
366,327680,99,-56,-1,-1,0
400,2686976,99,-56,-1,-1,0
433,5308416,99,-56,-1,-1,0
466,2949120,99,-56,-1,-1,0
500,0,99,-56,-1,-1,0
533,-458752,99,-56,-1,-1,0
566,-524288,99,-56,-1,-1,0
600,-851968,99,-56,-1,-1,0
633,-917504,99,-56,-1,-1,0
666,-1376256,99,-56,-1,-1,0
700,-1572864,100,-56,-1,-1,0
733,-1114112,100,-56,-1,-1,0
766,262144,100,-56,-1,-1,0
800,-7405568,100,-56,-1,-1,0
833,-1703936,100,-56,-1,-1,0
866,-1048576,100,-56,-1,-1,0
900,720896,100,-56,-1,-1,0
933,2686976,100,-56,-1,-1,0
966,3932160,100,-56,-1,-1,0
1000,983040,100,-56,-1,-1,0
1033,-458752,100,-56,-1,-1,0
1066,-1114112,100,-56,-1,-1,0
1100,-851968,100,-56,-1,-1,0
1133,-1048576,100,-56,-1,-1,0
1166,-1441792,100,-56,-1,-1,0
1200,-1310720,100,-56,-1,-1,0
1233,-1703936,100,-56,-1,-1,0
1266,-1310720,100,-56,-1,-1,0
1300,720896,100,-56,-1,-1,0
1333,-6750208,100,-56,-1,-1,0
1366,-1572864,100,-56,-1,-1,0
1400,-851968,100,-56,-1,-1,0
1433,458752,100,-56,-1,-1,0
1466,2883584,100,-56,-1,-1,0
1500,4980736,100,-56,-1,-1,0
1533,1179648,100,-56,-1,-1,0
1566,-262144,100,-56,-1,-1,0
1600,-524288,100,-56,-1,-1,0
1633,-786432,100,-56,-1,-1,0
1666,-1048576,100,-56,-1,-1,0
1700,-1179648,100,-56,-1,-1,0
1733,-1179648,100,-56,-1,-1,0
1766,-1703936,100,-56,-1,-1,0
1800,-458752,100,-56,-1,-1,0
1833,-1114112,100,-56,-1,-1,0
1866,-262144,100,-56,-1,-1,0
1900,-1572864,100,-56,-1,-1,0
1933,-1376256,100,-56,-1,-1,0
1966,-131072,100,-56,-1,-1,0
2000,1900544,100,-56,-1,-1,0
2033,4784128,100,-56,-1,-1,0
2066,2621440,100,-56,-1,-1,0
2100,65536,100,-56,-1,-1,0
2133,-524288,100,-56,-1,-1,0
2166,-655360,100,-56,-1,-1,0
2200,-1114112,100,-56,-1,-1,0
2233,-1310720,100,-56,-1,-1,0
2266,-1441792,100,-56,-1,-1,0
2300,-1179648,100,-56,-1,-1,0
2333,-1769472,100,-56,-1,-1,0
2366,-131072,100,-56,-1,-1,0
2400,393216,100,-56,-1,-1,0
2433,-5046272,100,-56,-1,-1,0
2466,-1507328,100,-56,-1,-1,0
2500,-524288,100,-56,-1,-1,0
2533,655360,100,-56,-1,-1,0
2566,2621440,100,-56,-1,-1,0
2600,5636096,100,-56,-1,-1,0
2633,2097152,100,-56,-1,-1,0
2666,196608,100,-56,-1,-1,0
2700,-327680,100,-56,-1,-1,0
2733,-786432,100,-56,-1,-1,0
2766,-720896,100,-56,-1,-1,0
2800,-1179648,100,-56,-1,-1,0
2833,-1048576,100,-56,-1,-1,0
2866,-1769472,100,-56,-1,-1,0
2900,-589824,98,-56,-1,-1,0
2933,-1179648,98,-56,-1,-1,0
2966,8585216,98,-56,-1,-1,0
3000,-3276800,98,-56,-1,-1,0
3033,-1441792,98,-56,-1,-1,0
3066,-720896,98,-56,-1,-1,0
3100,655360,98,-56,-1,-1,0
3133,3997696,98,-56,-1,-1,0
3166,4653056,98,-56,-1,-1,0
3200,524288,98,-56,-1,-1,0
3233,-393216,98,-56,-1,-1,0
3266,-720896,98,-56,-1,-1,0
3300,-917504,98,-56,-1,-1,0
3333,-1114112,98,-56,-1,-1,0
3366,-1441792,98,-56,-1,-1,0
3400,-1900544,97,-56,-1,-1,0
3433,-393216,97,-56,-1,-1,0
3466,-1441792,97,-56,-1,-1,0
3500,8257536,97,-56,-1,-1,0
3533,-2818048,97,-56,-1,-1,0
3566,-1376256,97,-56,-1,-1,0
3600,-524288,97,-56,-1,-1,0
3633,1376256,97,-56,-1,-1,0
3666,4653056,97,-56,-1,-1,0
3699,3932160,97,-56,-1,-1,0
3733,65536,97,-56,-1,-1,0
3766,-655360,97,-56,-1,-1,0
3800,-851968,97,-56,-1,-1,0
3833,-1114112,97,-56,-1,-1,0
3866,-1310720,97,-56,-1,-1,0
3900,-1900544,96,-56,-1,-1,0
3933,-655360,96,-56,-1,-1,0
3966,-1507328,96,-56,-1,-1,0
4000,8912896,96,-56,-1,-1,0
4033,-3866624,96,-56,-1,-1,0
4066,-1572864,96,-56,-1,-1,0
4100,-786432,96,-56,-1,-1,0
4133,1245184,96,-56,-1,-1,0
4166,3801088,96,-56,-1,-1,0
4200,3866624,96,-56,-1,-1,0
4233,-65536,96,-56,-1,-1,0
4266,-327680,96,-56,-1,-1,0
4300,-786432,96,-56,-1,-1,0
4333,-1179648,96,-56,-1,-1,0
4366,-655360,96,-56,-1,-1,0
4400,-1507328,96,-56,-1,-1,0
4433,-131072,96,-56,-1,-1,0
4466,-1114112,96,-56,-1,-1,0
4500,7929856,96,-56,-1,-1,0
4533,-3735552,96,-56,-1,-1,0
4566,-1507328,96,-56,-1,-1,0
4600,-589824,96,-56,-1,-1,0
4633,1376256,96,-56,-1,-1,0
4666,3997696,96,-56,-1,-1,0
4700,4784128,96,-56,-1,-1,0
4733,589824,96,-56,-1,-1,0
4766,-65536,96,-56,-1,-1,0
4800,-131072,96,-56,-1,-1,0
4833,-786432,96,-56,-1,-1,0
4866,-1179648,96,-56,-1,-1,0
4900,-1376256,96,-56,-1,-1,0
4933,-917504,95,-56,-1,-1,0
4966,-1048576,95,-56,-1,-1,0
5000,3342336,95,-56,-1,-1,0
5033,-6029312,95,-56,-1,-1,0
5066,-1441792,95,-56,-1,-1,0
5100,-917504,95,-56,-1,-1,0
5133,458752,95,-56,-1,-1,0
5166,3735552,95,-56,-1,-1,0
5200,4587520,95,-56,-1,-1,0
5233,1441792,95,-56,-1,-1,0
5266,0,95,-56,-1,-1,0
5300,-262144,95,-56,-1,-1,0
5333,-589824,95,-56,-1,-1,0
5366,-786432,95,-56,-1,-1,0
5400,-1179648,95,-56,-1,-1,0
5433,-1638400,95,-56,-1,-1,0
5466,-589824,94,-56,-1,-1,0
5500,-1114112,94,-56,-1,-1,0
5533,8192000,94,-56,-1,-1,0
5566,-4456448,94,-56,-1,-1,0
5600,-1507328,94,-56,-1,-1,0
5633,-458752,94,-56,-1,-1,0
5666,720896,94,-56,-1,-1,0
5700,3735552,94,-56,-1,-1,0
5733,4653056,94,-56,-1,-1,0
5766,327680,94,-56,-1,-1,0
5800,-327680,94,-56,-1,-1,0
5833,-458752,94,-56,-1,-1,0
5866,-917504,94,-56,-1,-1,0
5900,-1245184,94,-56,-1,-1,0
5933,-1310720,94,-56,-1,-1,0
5966,-1638400,94,-56,-1,-1,0
6000,-1245184,94,-56,-1,-1,0
6033,-1507328,94,-56,-1,-1,0
6066,6684672,94,-56,-1,-1,0
6100,-5046272,94,-56,-1,-1,0
6133,-1572864,94,-56,-1,-1,0
6166,-720896,94,-56,-1,-1,0
6200,786432,94,-56,-1,-1,0
6233,2949120,94,-56,-1,-1,0
6266,3801088,94,-56,-1,-1,0
6300,851968,94,-56,-1,-1,0
6333,-458752,94,-56,-1,-1,0
6366,-524288,94,-56,-1,-1,0
6400,-524288,94,-56,-1,-1,0
6433,-1179648,94,-56,-1,-1,0
6466,-1245184,94,-56,-1,-1,0
6500,-1179648,94,-56,-1,-1,0
6533,-1966080,94,-56,-1,-1,0
6566,-327680,94,-56,-1,-1,0
6600,-917504,94,-56,-1,-1,0
6633,10354688,94,-56,-1,-1,0
6666,-2555904,94,-56,-1,-1,0
6700,-1179648,94,-56,-1,-1,0
6733,-393216,94,-56,-1,-1,0
6766,1441792,94,-56,-1,-1,0
6800,3997696,94,-56,-1,-1,0
6833,4718592,94,-56,-1,-1,0
6866,786432,93,-56,-1,-1,0
6899,458752,93,-56,-1,-1,0
6933,-131072,93,-56,-1,-1,0
6966,-262144,93,-56,-1,-1,0
7000,-196608,93,-56,-1,-1,0
7033,-983040,93,-56,-1,-1,0
7066,-655360,93,-56,-1,-1,0
7100,-786432,93,-56,-1,-1,0
7133,-851968,93,-56,-1,-1,0
7166,-917504,93,-56,-1,-1,0
7200,-786432,93,-56,-1,-1,0
7233,-917504,93,-56,-1,-1,0
7266,-1048576,93,-56,-1,-1,0
7300,-983040,93,-56,-1,-1,0
7333,-1048576,93,-56,-1,-1,0
7366,-1376256,93,-56,-1,-1,0
7399,-65536,93,-56,-1,-1,0
7433,-786432,93,-56,-1,-1,0
7466,8454144,93,-56,-1,-1,0
7500,-1900544,93,-56,-1,-1,0
7533,-1048576,93,-56,-1,-1,0
7566,-393216,93,-56,-1,-1,0
7600,1048576,93,-56,-1,-1,0
7633,3735552,93,-56,-1,-1,0
7666,5046272,93,-56,-1,-1,0
7700,1703936,93,-56,-1,-1,0
7733,-196608,93,-56,-1,-1,0
7766,-262144,93,-56,-1,-1,0
7800,-851968,93,-56,-1,-1,0
7833,-1048576,93,-56,-1,-1,0
7866,-1376256,93,-56,-1,-1,0
7899,-1310720,93,-56,-1,-1,0
7933,-1245184,93,-56,-1,-1,0
7966,-1441792,93,-56,-1,-1,0
8000,-1376256,93,-56,-1,-1,0
8033,-983040,93,-56,-1,-1,0
8066,-524288,93,-56,-1,-1,0
8100,-1114112,93,-56,-1,-1,0
8133,4980736,93,-56,-1,-1,0
8166,-1769472,93,-56,-1,-1,0
8200,-1048576,93,-56,-1,-1,0
8233,0,93,-56,-1,-1,0
8266,1638400,93,-56,-1,-1,0
8300,4128768,93,-56,-1,-1,0
8333,3801088,93,-56,-1,-1,0
8366,589824,93,-56,-1,-1,0
8400,-131072,93,-56,-1,-1,0
8433,-196608,93,-56,-1,-1,0
8466,-393216,93,-56,-1,-1,0
8500,-720896,93,-56,-1,-1,0
8533,-917504,93,-56,-1,-1,0
8566,-983040,93,-56,-1,-1,0
8600,-917504,93,-56,-1,-1,0
8633,-1114112,93,-56,-1,-1,0
8666,-1048576,93,-56,-1,-1,0
8700,-458752,93,-56,-1,-1,0
8733,-589824,93,-56,-1,-1,0
8766,-589824,93,-56,-1,-1,0
8800,-2686976,93,-56,-1,-1,0
8833,-1572864,92,-56,-1,-1,0
8866,-655360,92,-56,-1,-1,0
8900,524288,92,-56,-1,-1,0
8933,2228224,92,-56,-1,-1,0
8966,4915200,92,-56,-1,-1,0
9000,3604480,92,-56,-1,-1,0
9033,131072,92,-56,-1,-1,0
9066,-196608,92,-56,-1,-1,0
9100,-393216,92,-56,-1,-1,0
9133,-720896,92,-56,-1,-1,0
9166,-1179648,92,-56,-1,-1,0
9200,-851968,92,-56,-1,-1,0
9233,-1048576,92,-56,-1,-1,0
9266,-1376256,92,-56,-1,-1,0
9300,-1441792,92,-56,-1,-1,0
9333,-1310720,92,-56,-1,-1,0
9366,-1048576,92,-56,-1,-1,0
9400,-983040,92,-56,-1,-1,0
9433,262144,92,-56,-1,-1,0
9466,-6356992,91,-56,-1,-1,0
9500,-1835008,91,-56,-1,-1,0
9533,-983040,91,-56,-1,-1,0
9566,65536,91,-56,-1,-1,0
9600,2424832,91,-56,-1,-1,0
9633,5439488,91,-56,-1,-1,0
9666,3080192,91,-56,-1,-1,0
9700,0,91,-56,-1,-1,0
9733,-196608,91,-56,-1,-1,0
9766,-851968,91,-56,-1,-1,0
9800,-1114112,91,-56,-1,-1,0
9833,-1048576,91,-56,-1,-1,0
9866,-1114112,91,-56,-1,-1,0
9900,-1441792,91,-56,-1,-1,0
9933,-1507328,91,-56,-1,-1,0
9966,-1441792,91,-56,-1,-1,0
10000,-589824,91,-56,-1,-1,0
10033,-1310720,89,-56,-1,-1,0
10066,2752512,89,-56,-1,-1,0
10100,-2162688,89,-56,-1,-1,0
10133,-1376256,89,-56,-1,-1,0
10166,-196608,89,-56,-1,-1,0
10200,1900544,89,-56,-1,-1,0
10233,4456448,89,-56,-1,-1,0
10266,3670016,89,-56,-1,-1,0
10300,720896,89,-56,-1,-1,0
10333,131072,89,-56,-1,-1,0
10366,-327680,89,-56,-1,-1,0
10400,-720896,89,-56,-1,-1,0
10433,-393216,89,-56,-1,-1,0
10466,-1179648,89,-56,-1,-1,0
10500,-983040,89,-56,-1,-1,0
10533,-1048576,89,-56,-1,-1,0
10566,-262144,89,-56,-1,-1,0
10600,-589824,89,-56,-1,-1,0
10633,851968,89,-56,-1,-1,0
10666,-6291456,89,-56,-1,-1,0
10700,-1245184,89,-56,-1,-1,0
10733,-655360,89,-56,-1,-1,0
10766,131072,89,-56,-1,-1,0
10800,2555904,89,-56,-1,-1,0
10833,4718592,89,-56,-1,-1,0
10866,2555904,89,-56,-1,-1,0
10900,-131072,89,-56,-1,-1,0
10933,-655360,89,-56,-1,-1,0
10966,-655360,89,-56,-1,-1,0
11000,-589824,89,-56,-1,-1,0
11033,-1441792,89,-56,-1,-1,0
11066,-2097152,89,-56,-1,-1,0
11100,-458752,89,-56,-1,-1,0
11133,-1310720,89,-56,-1,-1,0
11166,9175040,89,-56,-1,-1,0
11200,-2883584,89,-56,-1,-1,0
11233,-1441792,89,-56,-1,-1,0
11266,-589824,89,-56,-1,-1,0
11300,1114112,89,-56,-1,-1,0
11333,4128768,89,-56,-1,-1,0
11366,4259840,89,-56,-1,-1,0
11400,131072,89,-56,-1,-1,0
11433,-720896,89,-56,-1,-1,0
11466,-524288,89,-56,-1,-1,0
11500,-917504,89,-56,-1,-1,0
11533,-1441792,89,-56,-1,-1,0
11566,-1507328,89,-56,-1,-1,0
11600,-720896,89,-56,-1,-1,0
11633,-1507328,89,-56,-1,-1,0
11666,7077888,89,-56,-1,-1,0
11700,-4653056,89,-56,-1,-1,0
11733,-1507328,89,-56,-1,-1,0
11766,-917504,89,-56,-1,-1,0
11800,327680,89,-56,-1,-1,0
11833,3735552,89,-56,-1,-1,0
11866,4456448,89,-56,-1,-1,0
11900,786432,89,-56,-1,-1,0
11933,-720896,89,-56,-1,-1,0
11966,-655360,89,-56,-1,-1,0
12000,-917504,89,-56,-1,-1,0
12033,-1310720,89,-56,-1,-1,0
12066,-1441792,89,-56,-1,-1,0
12100,-1966080,89,-56,-1,-1,0
12133,-589824,89,-56,-1,-1,0
12166,-1441792,89,-56,-1,-1,0
12200,5505024,89,-56,-1,-1,0
12233,-2097152,89,-56,-1,-1,0
12266,-1179648,89,-56,-1,-1,0
12300,-262144,89,-56,-1,-1,0
12333,1507328,89,-56,-1,-1,0
12366,4718592,89,-56,-1,-1,0
12400,3538944,89,-56,-1,-1,0
12433,393216,89,-56,-1,-1,0
12466,-262144,89,-56,-1,-1,0
12500,-393216,89,-56,-1,-1,0
12533,-655360,89,-56,-1,-1,0
12566,-1114112,89,-56,-1,-1,0
12600,-1114112,89,-56,-1,-1,0
12633,-1376256,89,-56,-1,-1,0
12666,-1507328,89,-56,-1,-1,0
12700,-786432,89,-56,-1,-1,0
12733,-1114112,88,-56,-1,-1,0
12766,8126464,88,-56,-1,-1,0
12800,-1900544,88,-56,-1,-1,0
12833,-1114112,88,-56,-1,-1,0
12866,-65536,88,-56,-1,-1,0
12900,1441792,88,-56,-1,-1,0
12933,4128768,88,-56,-1,-1,0
12966,3801088,88,-56,-1,-1,0
13000,196608,88,-56,-1,-1,0
13033,-262144,88,-56,-1,-1,0
13066,-524288,88,-56,-1,-1,0
13100,-786432,88,-56,-1,-1,0
13133,-983040,88,-56,-1,-1,0
13166,-1114112,88,-56,-1,-1,0
13200,-1245184,88,-56,-1,-1,0
13233,-1900544,87,-56,-1,-1,0
13266,-589824,87,-56,-1,-1,0
13299,-1310720,87,-56,-1,-1,0
13333,9175040,87,-56,-1,-1,0
13366,-2097152,87,-56,-1,-1,0
13400,-1376256,87,-56,-1,-1,0
13433,-524288,87,-56,-1,-1,0
13466,917504,87,-56,-1,-1,0
13500,3211264,87,-56,-1,-1,0
13533,3473408,87,-56,-1,-1,0
13566,0,87,-56,-1,-1,0
13600,-458752,87,-56,-1,-1,0
13633,-851968,87,-56,-1,-1,0
13666,-1048576,87,-56,-1,-1,0
13700,-1179648,87,-56,-1,-1,0
13733,-1310720,87,-56,-1,-1,0
13766,-1572864,87,-56,-1,-1,0
13799,-983040,87,-56,-1,-1,0
13833,-1048576,86,-56,-1,-1,0
13866,2490368,86,-56,-1,-1,0
13900,-1441792,86,-56,-1,-1,0
13933,-1179648,86,-56,-1,-1,0
13966,-131072,86,-56,-1,-1,0
14000,1703936,86,-56,-1,-1,0
14033,4456448,86,-56,-1,-1,0
14066,3211264,86,-56,-1,-1,0
14100,196608,86,-56,-1,-1,0
14133,-327680,86,-56,-1,-1,0
14166,-851968,86,-56,-1,-1,0
14200,-786432,86,-56,-1,-1,0
14233,-1114112,86,-56,-1,-1,0
14266,-917504,86,-56,-1,-1,0
14299,-1048576,86,-56,-1,-1,0
14333,-1376256,86,-56,-1,-1,0
14366,-262144,86,-56,-1,-1,0
14400,-1048576,86,-56,-1,-1,0
14433,10747904,86,-56,-1,-1,0
14466,-1966080,86,-56,-1,-1,0
14500,-1245184,86,-56,-1,-1,0
14533,-524288,86,-56,-1,-1,0
14566,917504,86,-56,-1,-1,0
14600,3342336,86,-56,-1,-1,0
14633,4063232,86,-56,-1,-1,0
14666,786432,86,-56,-1,-1,0
14700,-196608,86,-56,-1,-1,0
14733,-589824,86,-56,-1,-1,0
14766,-851968,86,-56,-1,-1,0
14799,-917504,86,-56,-1,-1,0
14833,-1179648,86,-56,-1,-1,0
14866,-1114112,86,-56,-1,-1,0
14900,-1179648,86,-56,-1,-1,0
14933,-983040,86,-56,-1,-1,0
14966,-1310720,86,-56,-1,-1,0
15000,-917504,85,-56,-1,-1,0
15033,-458752,85,-56,-1,-1,0
15066,-4653056,85,-56,-1,-1,0
15100,-1179648,85,-56,-1,-1,0
15133,-1376256,85,-56,-1,-1,0
15166,0,85,-56,-1,-1,0
15200,2424832,85,-56,-1,-1,0
15233,5373952,85,-56,-1,-1,0
15266,4521984,85,-56,-1,-1,0
15299,786432,85,-56,-1,-1,0
15333,-458752,85,-56,-1,-1,0
15366,-327680,85,-56,-1,-1,0
15400,-851968,85,-56,-1,-1,0
15433,-1114112,85,-56,-1,-1,0
15466,-1376256,85,-56,-1,-1,0
15500,-1966080,85,-56,-1,-1,0
15533,-655360,86,-56,-1,-1,0
15566,-1900544,86,-56,-1,-1,0
15600,5242880,86,-56,-1,-1,0
15633,-7864320,86,-56,-1,-1,0
15666,-1638400,86,-56,-1,-1,0
15700,-983040,86,-56,-1,-1,0
15733,589824,86,-56,-1,-1,0
15766,3997696,86,-56,-1,-1,0
15799,6225920,86,-56,-1,-1,0
15833,3014656,86,-56,-1,-1,0
15866,-65536,86,-56,-1,-1,0
15900,-262144,86,-56,-1,-1,0
15933,-983040,86,-56,-1,-1,0
15966,-1376256,86,-56,-1,-1,0
16000,-1835008,86,-56,-1,-1,0
16033,-2490368,88,-56,-1,-1,0
16066,-1835008,88,-56,-1,-1,0
16100,-2359296,88,-56,-1,-1,0
16133,9699328,88,-56,-1,-1,0
16166,-6029312,88,-56,-1,-1,0
16200,-2162688,88,-56,-1,-1,0
16233,-1179648,88,-56,-1,-1,0
16266,917504,88,-56,-1,-1,0
16300,5046272,88,-56,-1,-1,0
16333,5963776,88,-56,-1,-1,0
16366,1048576,88,-56,-1,-1,0
16400,-786432,88,-56,-1,-1,0
16433,-1245184,88,-56,-1,-1,0
16466,-1179648,88,-56,-1,-1,0
16500,-1703936,88,-56,-1,-1,0
16533,-1966080,90,-56,-1,-1,0
16566,-1245184,90,-56,-1,-1,0
16600,-1245184,90,-56,-1,-1,0
16633,11272192,90,-56,-1,-1,0
16666,-4128768,90,-56,-1,-1,0
16700,-1835008,90,-56,-1,-1,0
16733,-851968,90,-56,-1,-1,0
16766,1572864,90,-56,-1,-1,0
16800,6356992,90,-56,-1,-1,0
16833,5832704,90,-56,-1,-1,0
16866,524288,90,-56,-1,-1,0
16900,-262144,90,-56,-1,-1,0
16933,-983040,90,-56,-1,-1,0
16966,-1245184,90,-56,-1,-1,0
17000,-1572864,90,-56,-1,-1,0
17033,-1966080,90,-56,-1,-1,0
17066,-786432,90,-56,-1,-1,0
17100,-2097152,90,-56,-1,-1,0
17133,10354688,90,-56,-1,-1,0
17166,-6488064,90,-56,-1,-1,0
17200,-2359296,90,-56,-1,-1,0
17233,-851968,90,-56,-1,-1,0
17266,917504,90,-56,-1,-1,0
17300,5242880,90,-56,-1,-1,0
17333,6225920,90,-56,-1,-1,0
17366,1048576,90,-56,-1,-1,0
17400,-1245184,90,-56,-1,-1,0
17433,-851968,90,-56,-1,-1,0
17466,-1376256,90,-56,-1,-1,0
17500,-1966080,90,-56,-1,-1,0
17533,-1703936,90,-56,-1,-1,0
17566,-2424832,90,-56,-1,-1,0
17600,-1245184,90,-56,-1,-1,0
17633,-2162688,92,-56,-1,-1,0
17666,8650752,92,-56,-1,-1,0
17700,-3407872,92,-56,-1,-1,0
17733,-1310720,92,-56,-1,-1,0
17766,-786432,92,-56,-1,-1,0
17800,1179648,92,-56,-1,-1,0
17833,4587520,92,-56,-1,-1,0
17866,4587520,92,-56,-1,-1,0
17900,524288,92,-56,-1,-1,0
17933,-524288,92,-56,-1,-1,0
17966,-983040,92,-56,-1,-1,0
18000,-1048576,92,-56,-1,-1,0
18033,-1245184,92,-56,-1,-1,0
18066,-1376256,92,-56,-1,-1,0
18100,-1507328,92,-56,-1,-1,0
18133,-1507328,92,-56,-1,-1,0
18166,-917504,92,-56,-1,-1,0
18200,-720896,92,-56,-1,-1,0
18233,1638400,92,-56,-1,-1,0
18266,-5767168,92,-56,-1,-1,0
18300,-1507328,92,-56,-1,-1,0
18333,-655360,92,-56,-1,-1,0
18366,524288,92,-56,-1,-1,0
18400,2818048,92,-56,-1,-1,0
18433,5439488,92,-56,-1,-1,0
18466,3080192,92,-56,-1,-1,0
18500,-131072,92,-56,-1,-1,0
18533,65536,92,-56,-1,-1,0
18566,-720896,92,-56,-1,-1,0
18600,-1245184,92,-56,-1,-1,0
18633,-1769472,92,-56,-1,-1,0
18666,-1638400,92,-56,-1,-1,0
18700,-1900544,92,-56,-1,-1,0
18733,-1703936,92,-56,-1,-1,0
18766,-1179648,92,-56,-1,-1,0
18800,655360,92,-56,-1,-1,0
18833,-5177344,92,-56,-1,-1,0
18866,-1310720,92,-56,-1,-1,0
18900,-327680,92,-56,-1,-1,0
18933,196608,92,-56,-1,-1,0
18966,2686976,92,-56,-1,-1,0
19000,4849664,92,-56,-1,-1,0
19033,3145728,92,-56,-1,-1,0
19066,196608,92,-56,-1,-1,0
19100,-131072,92,-56,-1,-1,0
19133,393216,92,-56,-1,-1,0
19166,-393216,92,-56,-1,-1,0
19200,-327680,92,-56,-1,-1,0
19233,-786432,92,-56,-1,-1,0
19266,-1048576,92,-56,-1,-1,0
19300,0,90,-56,-1,-1,0
19333,-655360,90,-56,-1,-1,0
19366,11272192,90,-56,-1,-1,0
19400,-2359296,90,-56,-1,-1,0
19433,-1441792,90,-56,-1,-1,0
19466,-983040,90,-56,-1,-1,0
19500,720896,90,-56,-1,-1,0
19533,3342336,90,-56,-1,-1,0
19566,3932160,90,-56,-1,-1,0
19600,524288,90,-56,-1,-1,0
19633,-458752,90,-56,-1,-1,0
19666,-720896,90,-56,-1,-1,0
19700,-917504,90,-56,-1,-1,0
19733,-1638400,90,-56,-1,-1,0
19766,-1114112,90,-56,-1,-1,0
19800,-2097152,90,-56,-1,-1,0
19833,-1376256,90,-56,-1,-1,0
19866,-1048576,90,-56,-1,-1,0
19900,65536,90,-56,-1,-1,0
19933,-4915200,90,-56,-1,-1,0
19966,-1638400,90,-56,-1,-1,0
20000,-720896,90,-56,-1,-1,0
20033,-262144,90,-56,-1,-1,0
20066,1310720,90,-56,-1,-1,0
20100,3538944,90,-56,-1,-1,0
20133,2228224,90,-56,-1,-1,0
20166,-196608,90,-56,-1,-1,0
20200,131072,90,-56,-1,-1,0
20233,-1310720,90,-56,-1,-1,0
20266,-1376256,90,-56,-1,-1,0
20300,-1638400,90,-56,-1,-1,0
20333,-1310720,90,-56,-1,-1,0
20366,-655360,90,-56,-1,-1,0
20400,-1703936,90,-56,-1,-1,0
20433,1179648,90,-56,-1,-1,0
20466,-6881280,90,-56,-1,-1,0
20500,-2490368,90,-56,-1,-1,0
20533,-851968,90,-56,-1,-1,0
20566,-196608,90,-56,-1,-1,0
20600,2686976,90,-56,-1,-1,0
20633,4980736,90,-56,-1,-1,0
20666,2359296,90,-56,-1,-1,0
20700,-196608,90,-56,-1,-1,0
20733,-917504,90,-56,-1,-1,0
20766,-1114112,90,-56,-1,-1,0
20800,-1376256,90,-56,-1,-1,0
20833,-2031616,91,-56,-1,-1,0
20866,-1245184,91,-56,-1,-1,0
20900,-1966080,91,-56,-1,-1,0
20933,3080192,91,-56,-1,-1,0
20966,-6225920,91,-56,-1,-1,0
21000,-1572864,91,-56,-1,-1,0
21033,-1048576,91,-56,-1,-1,0
21066,196608,91,-56,-1,-1,0
21100,2162688,91,-56,-1,-1,0
21133,3670016,91,-56,-1,-1,0
21166,1114112,91,-56,-1,-1,0
21200,-393216,91,-56,-1,-1,0
21233,-720896,91,-56,-1,-1,0
21266,-1048576,91,-56,-1,-1,0
21300,-1310720,91,-56,-1,-1,0
21333,-1703936,92,-56,-1,-1,0
21366,-1310720,92,-56,-1,-1,0
21400,-1572864,92,-56,-1,-1,0
21433,1572864,92,-56,-1,-1,0
21466,-5636096,92,-56,-1,-1,0
21500,-1638400,92,-56,-1,-1,0
21533,-1048576,92,-56,-1,-1,0
21566,393216,92,-56,-1,-1,0
21600,2162688,92,-56,-1,-1,0
21633,4128768,92,-56,-1,-1,0
21666,1310720,92,-56,-1,-1,0
21700,-196608,92,-56,-1,-1,0
21733,-196608,92,-56,-1,-1,0
21766,-983040,92,-56,-1,-1,0
21800,-655360,92,-56,-1,-1,0
21833,-1376256,92,-56,-1,-1,0
21866,-1245184,92,-56,-1,-1,0
21900,-1048576,92,-56,-1,-1,0
21933,0,92,-56,-1,-1,0
21966,-3801088,92,-56,-1,-1,0
22000,-1310720,92,-56,-1,-1,0
22033,-786432,92,-56,-1,-1,0
22066,-65536,92,-56,-1,-1,0
22100,1900544,92,-56,-1,-1,0
22133,3735552,92,-56,-1,-1,0
22166,1900544,92,-56,-1,-1,0
22200,-131072,92,-56,-1,-1,0
22233,-786432,92,-56,-1,-1,0
22266,-983040,92,-56,-1,-1,0
22300,-1376256,92,-56,-1,-1,0
22333,-1114112,92,-56,-1,-1,0
22366,-2031616,93,-56,-1,-1,0
22400,-983040,93,-56,-1,-1,0
22433,-1310720,93,-56,-1,-1,0
22466,10682368,93,-56,-1,-1,0
22500,-2228224,93,-56,-1,-1,0
22533,-1441792,93,-56,-1,-1,0
22566,-851968,93,-56,-1,-1,0
22600,720896,93,-56,-1,-1,0
22633,2949120,93,-56,-1,-1,0
22666,3997696,93,-56,-1,-1,0
22700,655360,93,-56,-1,-1,0
22733,-524288,93,-56,-1,-1,0
22766,-589824,93,-56,-1,-1,0
22800,-983040,93,-56,-1,-1,0
22833,-983040,93,-56,-1,-1,0
22866,-1310720,93,-56,-1,-1,0
22900,-1703936,94,-56,-1,-1,0
22933,-1114112,94,-56,-1,-1,0
22966,-786432,94,-56,-1,-1,0
23000,-2162688,94,-56,-1,-1,0
23033,-1572864,94,-56,-1,-1,0
23066,-1376256,94,-56,-1,-1,0
23100,-327680,94,-56,-1,-1,0
23133,1638400,94,-56,-1,-1,0
23166,3866624,94,-56,-1,-1,0
23200,2555904,94,-56,-1,-1,0
23233,0,94,-56,-1,-1,0
23266,-655360,94,-56,-1,-1,0
23300,-851968,94,-56,-1,-1,0
23333,-1114112,94,-56,-1,-1,0
23366,-1179648,96,-56,-1,-1,0
23400,-1835008,96,-56,-1,-1,0
23433,-327680,96,-56,-1,-1,0
23466,-1179648,96,-56,-1,-1,0
23500,5636096,96,-56,-1,-1,0
23533,-1835008,96,-56,-1,-1,0
23566,-983040,96,-56,-1,-1,0
23600,-458752,96,-56,-1,-1,0
23633,1179648,96,-56,-1,-1,0
23666,4390912,96,-56,-1,-1,0
23700,4325376,96,-56,-1,-1,0
23733,655360,96,-56,-1,-1,0
23766,-262144,96,-56,-1,-1,0
23800,-589824,96,-56,-1,-1,0
23833,-1048576,96,-56,-1,-1,0
23866,-1441792,96,-56,-1,-1,0
23900,-1441792,96,-56,-1,-1,0
23933,-1310720,96,-56,-1,-1,0
23966,1048576,96,-56,-1,-1,0
24000,-7602176,96,-56,-1,-1,0
24033,-1703936,96,-56,-1,-1,0
24066,-1179648,96,-56,-1,-1,0
24100,-65536,96,-56,-1,-1,0
24133,2424832,96,-56,-1,-1,0
24166,4849664,96,-56,-1,-1,0
24200,1572864,96,-56,-1,-1,0
24233,-262144,96,-56,-1,-1,0
24266,-524288,96,-56,-1,-1,0
24300,-917504,96,-56,-1,-1,0
24333,-1179648,97,-56,-1,-1,0
24366,-1835008,97,-56,-1,-1,0
24400,-851968,97,-56,-1,-1,0
24433,-851968,97,-56,-1,-1,0
24466,5832704,97,-56,-1,-1,0
24500,-1703936,97,-56,-1,-1,0
24533,-786432,97,-56,-1,-1,0
24566,-327680,97,-56,-1,-1,0
24600,720896,97,-56,-1,-1,0
24633,2883584,97,-56,-1,-1,0
24666,2359296,97,-56,-1,-1,0
24700,131072,97,-56,-1,-1,0
24733,-458752,97,-56,-1,-1,0
24766,-786432,97,-56,-1,-1,0
24800,-983040,97,-56,-1,-1,0
24833,-1900544,97,-56,-1,-1,0
24866,-720896,97,-56,-1,-1,0
24900,-1310720,97,-56,-1,-1,0
24933,7077888,97,-56,-1,-1,0
24966,-1572864,97,-56,-1,-1,0
25000,-720896,97,-56,-1,-1,0
25033,-65536,97,-56,-1,-1,0
25066,1376256,97,-56,-1,-1,0
25100,3211264,97,-56,-1,-1,0
25133,2490368,97,-56,-1,-1,0
25166,131072,97,-56,-1,-1,0
25200,-524288,97,-56,-1,-1,0
25233,-524288,97,-56,-1,-1,0
25266,-851968,97,-56,-1,-1,0
25300,-1048576,97,-56,-1,-1,0
25333,-1572864,97,-56,-1,-1,0
25366,-851968,97,-56,-1,-1,0
25400,-851968,97,-56,-1,-1,0
25433,-2228224,97,-56,-1,-1,0
25466,-1441792,97,-56,-1,-1,0
25500,-786432,97,-56,-1,-1,0
25533,0,97,-56,-1,-1,0
25566,1638400,97,-56,-1,-1,0
25600,3932160,97,-56,-1,-1,0
25633,2359296,97,-56,-1,-1,0
25666,131072,97,-56,-1,-1,0
25700,-327680,97,-56,-1,-1,0
25733,-589824,97,-56,-1,-1,0
25766,-851968,97,-56,-1,-1,0
25800,-1114112,97,-56,-1,-1,0
25833,-1048576,97,-56,-1,-1,0
25866,-1769472,97,-56,-1,-1,0
25900,-786432,97,-56,-1,-1,0
25933,-524288,97,-56,-1,-1,0
25966,-4521984,97,-56,-1,-1,0
26000,-1441792,97,-56,-1,-1,0
26033,-917504,97,-56,-1,-1,0
26066,0,97,-56,-1,-1,0
26099,1835008,97,-56,-1,-1,0
26133,4063232,97,-56,-1,-1,0
26166,2424832,97,-56,-1,-1,0
26200,65536,97,-56,-1,-1,0
26233,-393216,97,-56,-1,-1,0
26266,-720896,97,-56,-1,-1,0
26300,-983040,97,-56,-1,-1,0
26333,-1376256,97,-56,-1,-1,0
26366,-1441792,97,-56,-1,-1,0
26400,-1048576,97,-56,-1,-1,0
26433,-1310720,97,-56,-1,-1,0
26466,-1638400,97,-56,-1,-1,0
26500,-1048576,97,-56,-1,-1,0
26533,131072,97,-56,-1,-1,0
26566,-3801088,97,-56,-1,-1,0
26599,-1507328,97,-56,-1,-1,0
26633,-1048576,97,-56,-1,-1,0
26666,-196608,97,-56,-1,-1,0
26700,1769472,97,-56,-1,-1,0
26733,4521984,97,-56,-1,-1,0
26766,3604480,97,-56,-1,-1,0
26800,786432,97,-56,-1,-1,0
26833,-262144,97,-56,-1,-1,0
26866,-262144,97,-56,-1,-1,0
26900,-524288,97,-56,-1,-1,0
26933,-655360,97,-56,-1,-1,0
26966,-851968,97,-56,-1,-1,0
27000,-1310720,97,-56,-1,-1,0
27033,-1245184,97,-56,-1,-1,0
27066,-1114112,97,-56,-1,-1,0
27099,-983040,97,-56,-1,-1,0
27133,-1310720,97,-56,-1,-1,0
27166,-1114112,97,-56,-1,-1,0
27200,-1179648,97,-56,-1,-1,0
27233,8257536,97,-56,-1,-1,0
27266,-4456448,97,-56,-1,-1,0
27300,-1179648,97,-56,-1,-1,0
27333,-720896,97,-56,-1,-1,0
27366,458752,97,-56,-1,-1,0
27400,3014656,97,-56,-1,-1,0
27433,5701632,97,-56,-1,-1,0
27466,3473408,97,-56,-1,-1,0
27500,0,97,-56,-1,-1,0
27533,-196608,97,-56,-1,-1,0
27566,-327680,97,-56,-1,-1,0
27599,-917504,97,-56,-1,-1,0
27633,-1179648,97,-56,-1,-1,0
27666,-1179648,97,-56,-1,-1,0
27700,-1114112,97,-56,-1,-1,0
27733,-1310720,97,-56,-1,-1,0
27766,-1638400,97,-56,-1,-1,0
27800,-786432,97,-56,-1,-1,0
27833,-196608,97,-56,-1,-1,0
27866,-2818048,97,-56,-1,-1,0
27900,-1769472,97,-56,-1,-1,0
27933,-655360,97,-56,-1,-1,0
27966,131072,97,-56,-1,-1,0
28000,1966080,97,-56,-1,-1,0
28033,4980736,97,-56,-1,-1,0
28066,4587520,97,-56,-1,-1,0
28099,589824,97,-56,-1,-1,0
28133,-196608,97,-56,-1,-1,0
28166,-655360,97,-56,-1,-1,0
28200,-655360,97,-56,-1,-1,0
28233,-983040,97,-56,-1,-1,0
28266,-1114112,97,-56,-1,-1,0
28300,-1179648,97,-56,-1,-1,0
28333,-2097152,97,-56,-1,-1,0
28366,-1376256,97,-56,-1,-1,0
28400,-1310720,97,-56,-1,-1,0
28433,-4128768,97,-56,-1,-1,0
28466,-2818048,97,-56,-1,-1,0
28500,-983040,97,-56,-1,-1,0
28533,-524288,97,-56,-1,-1,0
28566,1376256,97,-56,-1,-1,0
28599,3997696,97,-56,-1,-1,0
28633,3407872,97,-56,-1,-1,0
28666,-458752,97,-56,-1,-1,0
28700,-327680,97,-56,-1,-1,0
28733,-851968,97,-56,-1,-1,0
28766,-851968,97,-56,-1,-1,0
28800,-1048576,97,-56,-1,-1,0
28833,-1179648,97,-56,-1,-1,0
28866,-1441792,96,-56,-1,-1,0
28900,-851968,96,-56,-1,-1,0
28933,-917504,96,-56,-1,-1,0
28966,-655360,96,-56,-1,-1,0
29000,-2293760,96,-56,-1,-1,0
29033,-1572864,96,-56,-1,-1,0
29066,-851968,96,-56,-1,-1,0
29099,1114112,96,-56,-1,-1,0
29133,4587520,96,-56,-1,-1,0
29166,4128768,96,-56,-1,-1,0
29200,65536,96,-56,-1,-1,0
29233,-524288,96,-56,-1,-1,0
29266,-917504,96,-56,-1,-1,0
29300,-1441792,96,-56,-1,-1,0
29333,-1179648,96,-56,-1,-1,0
29366,-1703936,96,-56,-1,-1,0
29400,-1310720,96,-56,-1,-1,0
29433,-1507328,96,-56,-1,-1,0
29466,458752,96,-56,-1,-1,0
29500,-6553600,96,-56,-1,-1,0
29533,-1900544,96,-56,-1,-1,0
29566,-1310720,96,-56,-1,-1,0
29599,131072,96,-56,-1,-1,0
29633,2293760,96,-56,-1,-1,0
29666,5505024,96,-56,-1,-1,0
29700,3342336,96,-56,-1,-1,0
29733,0,96,-56,-1,-1,0
29766,-524288,96,-56,-1,-1,0
29800,-589824,96,-56,-1,-1,0
29833,-524288,96,-56,-1,-1,0
29866,-851968,96,-56,-1,-1,0
29900,-1572864,96,-56,-1,-1,0
29933,-1114112,94,-56,-1,-1,0
29966,-1048576,94,-56,-1,-1,0
30000,2686976,94,-56,-1,-1,0
30033,-6815744,94,-56,-1,-1,0
30066,-1507328,94,-56,-1,-1,0
30099,-1245184,94,-56,-1,-1,0
30133,-196608,94,-56,-1,-1,0
30166,2621440,94,-56,-1,-1,0
30200,5242880,94,-56,-1,-1,0
30233,2949120,94,-56,-1,-1,0
30266,-196608,94,-56,-1,-1,0
30300,-851968,94,-56,-1,-1,0
30333,-786432,94,-56,-1,-1,0
30366,-1048576,94,-56,-1,-1,0
30400,-1638400,94,-56,-1,-1,0
30433,-1703936,94,-56,-1,-1,0
30466,-589824,94,-56,-1,-1,0
30500,-1310720,94,-56,-1,-1,0
30533,10354688,94,-56,-1,-1,0
30566,-3735552,94,-56,-1,-1,0
30599,-1376256,94,-56,-1,-1,0
30633,-983040,94,-56,-1,-1,0
30666,262144,94,-56,-1,-1,0
30700,3604480,94,-56,-1,-1,0
30733,5046272,94,-56,-1,-1,0
30766,1179648,94,-56,-1,-1,0
30800,-589824,94,-56,-1,-1,0
30833,-589824,94,-56,-1,-1,0
30866,-589824,94,-56,-1,-1,0
30900,-1179648,94,-56,-1,-1,0
30933,-1245184,94,-56,-1,-1,0
30966,-1441792,94,-56,-1,-1,0
31000,-1507328,94,-56,-1,-1,0
31033,-1835008,94,-56,-1,-1,0
31066,-1114112,93,-56,-1,-1,0
31099,-786432,93,-56,-1,-1,0
31133,-2424832,93,-56,-1,-1,0
31166,-1835008,93,-56,-1,-1,0
31200,-1441792,93,-56,-1,-1,0
31233,-393216,93,-56,-1,-1,0
31266,1638400,93,-56,-1,-1,0
31300,4784128,93,-56,-1,-1,0
31333,4194304,93,-56,-1,-1,0
31366,196608,93,-56,-1,-1,0
31400,-655360,93,-56,-1,-1,0
31433,-196608,93,-56,-1,-1,0
31466,-720896,93,-56,-1,-1,0
31500,-983040,93,-56,-1,-1,0
31533,-1179648,93,-56,-1,-1,0
31566,-1245184,93,-56,-1,-1,0
31599,-1507328,93,-56,-1,-1,0
31633,-1179648,93,-56,-1,-1,0
31666,-524288,92,-56,-1,-1,0
31700,-2293760,92,-56,-1,-1,0
31733,-1769472,92,-56,-1,-1,0
31766,-1245184,92,-56,-1,-1,0
31800,-262144,92,-56,-1,-1,0
31833,1835008,92,-56,-1,-1,0
31866,4784128,92,-56,-1,-1,0
31900,3997696,92,-56,-1,-1,0
31933,262144,92,-56,-1,-1,0
31966,-524288,92,-56,-1,-1,0
32000,-262144,92,-56,-1,-1,0
32033,-786432,92,-56,-1,-1,0
32066,-1048576,92,-56,-1,-1,0
32100,-1179648,92,-56,-1,-1,0
32133,-1179648,92,-56,-1,-1,0
32166,-1114112,92,-56,-1,-1,0
32200,-1572864,92,-56,-1,-1,0
32233,-589824,92,-56,-1,-1,0
32266,-1179648,92,-56,-1,-1,0
32299,2162688,92,-56,-1,-1,0
32333,-1703936,90,-56,-1,-1,0
32366,-983040,90,-56,-1,-1,0
32400,-262144,90,-56,-1,-1,0
32433,1507328,90,-56,-1,-1,0
32466,4325376,90,-56,-1,-1,0
32500,4456448,90,-56,-1,-1,0
32533,655360,90,-56,-1,-1,0
32566,-327680,90,-56,-1,-1,0
32600,-65536,90,-56,-1,-1,0
32633,-327680,90,-56,-1,-1,0
32666,-983040,90,-56,-1,-1,0
32700,-1114112,90,-56,-1,-1,0
32733,-1048576,90,-56,-1,-1,0
32766,-1179648,90,-56,-1,-1,0
32800,-1245184,90,-56,-1,-1,0
32833,-1179648,90,-56,-1,-1,0
32866,-1703936,90,-56,-1,-1,0
32900,-524288,90,-56,-1,-1,0
32933,-1245184,90,-56,-1,-1,0
32966,6619136,90,-56,-1,-1,0
33000,-1638400,90,-56,-1,-1,0
33033,-786432,90,-56,-1,-1,0
33066,-458752,90,-56,-1,-1,0
33100,1114112,90,-56,-1,-1,0
33133,3866624,90,-56,-1,-1,0
33166,4653056,87,-56,-1,-1,0
33200,1310720,87,-56,-1,-1,0
33233,458752,87,-56,-1,-1,0
33266,65536,87,-56,-1,-1,0
33300,-131072,87,-56,-1,-1,0
33333,-524288,87,-56,-1,-1,0
33366,-786432,87,-56,-1,-1,0
33400,-720896,87,-56,-1,-1,0
33433,-720896,87,-56,-1,-1,0
33466,-655360,87,-56,-1,-1,0
33500,-917504,87,-56,-1,-1,0
33533,-786432,87,-56,-1,-1,0
33566,-851968,87,-56,-1,-1,0
33600,-589824,87,-56,-1,-1,0
33633,-786432,87,-56,-1,-1,0
33666,-851968,87,-56,-1,-1,0
33700,-983040,87,-56,-1,-1,0
33733,-327680,87,-56,-1,-1,0
33766,-917504,87,-56,-1,-1,0
33800,3735552,87,-56,-1,-1,0
33833,-1638400,87,-56,-1,-1,0
33866,-1572864,87,-56,-1,-1,0
33900,-524288,85,-56,-1,-1,0
33933,655360,85,-56,-1,-1,0
33966,3014656,85,-56,-1,-1,0
34000,4587520,85,-56,-1,-1,0
34033,1703936,85,-56,-1,-1,0
34066,-65536,85,-56,-1,-1,0
34100,-655360,85,-56,-1,-1,0
34133,-786432,85,-56,-1,-1,0
34166,-1048576,85,-56,-1,-1,0
34200,-1441792,85,-56,-1,-1,0
34233,-1179648,85,-56,-1,-1,0
34266,-1310720,85,-56,-1,-1,0
34300,-1179648,85,-56,-1,-1,0
34333,-983040,85,-56,-1,-1,0
34366,-1245184,85,-56,-1,-1,0
34400,-1245184,85,-56,-1,-1,0
34433,-458752,85,-56,-1,-1,0
34466,-983040,85,-56,-1,-1,0
34500,0,85,-56,-1,-1,0
34533,-3670016,85,-56,-1,-1,0
34566,-1638400,85,-56,-1,-1,0
34600,-1310720,85,-56,-1,-1,0
34633,-327680,85,-56,-1,-1,0
34666,1769472,85,-56,-1,-1,0
34700,4784128,85,-56,-1,-1,0
34733,5046272,85,-56,-1,-1,0
34766,1114112,85,-56,-1,-1,0
34800,0,85,-56,-1,-1,0
34833,-196608,85,-56,-1,-1,0
34866,-720896,85,-56,-1,-1,0
34900,-983040,85,-56,-1,-1,0
34933,-1114112,85,-56,-1,-1,0
34966,-1114112,85,-56,-1,-1,0
35000,-1048576,85,-56,-1,-1,0
35033,-917504,85,-56,-1,-1,0
35066,-1245184,85,-56,-1,-1,0
35100,-983040,85,-56,-1,-1,0
35133,327680,85,-56,-1,-1,0
35166,-5701632,85,-56,-1,-1,0
35200,-1572864,85,-56,-1,-1,0
35233,-589824,85,-56,-1,-1,0
35266,-524288,85,-56,-1,-1,0
35300,1966080,85,-56,-1,-1,0
35333,4521984,85,-56,-1,-1,0
35366,4128768,85,-56,-1,-1,0
35400,131072,85,-56,-1,-1,0
35433,-655360,85,-56,-1,-1,0
35466,-589824,85,-56,-1,-1,0
35500,-917504,85,-56,-1,-1,0
35533,-1179648,85,-56,-1,-1,0
35566,-1245184,85,-56,-1,-1,0
35600,-1835008,85,-56,-1,-1,0
35633,-1441792,86,-56,-1,-1,0
35666,-655360,86,-56,-1,-1,0
35700,-1441792,86,-56,-1,-1,0
35733,5963776,86,-56,-1,-1,0
35766,-2097152,86,-56,-1,-1,0
35800,-1572864,86,-56,-1,-1,0
35833,-786432,86,-56,-1,-1,0
35866,983040,86,-56,-1,-1,0
35900,4653056,86,-56,-1,-1,0
35933,5505024,86,-56,-1,-1,0
35966,1376256,86,-56,-1,-1,0
36000,-851968,86,-56,-1,-1,0
36033,-524288,86,-56,-1,-1,0
36066,-1441792,86,-56,-1,-1,0
36100,-1638400,86,-56,-1,-1,0
36133,-1572864,86,-56,-1,-1,0
36166,-1310720,87,-56,-1,-1,0
36200,-1114112,87,-56,-1,-1,0
36233,-1310720,87,-56,-1,-1,0
36266,1703936,87,-56,-1,-1,0
36300,-2424832,87,-56,-1,-1,0
36333,-1769472,87,-56,-1,-1,0
36366,-720896,87,-56,-1,-1,0
36400,983040,87,-56,-1,-1,0
36433,5177344,87,-56,-1,-1,0
36466,5570560,87,-56,-1,-1,0
36500,524288,87,-56,-1,-1,0
36533,-655360,87,-56,-1,-1,0
36566,-720896,87,-56,-1,-1,0
36600,-1179648,87,-56,-1,-1,0
36633,-1769472,87,-56,-1,-1,0
36666,-1703936,88,-56,-1,-1,0
36700,-786432,88,-56,-1,-1,0
36733,-1703936,88,-56,-1,-1,0
36766,7143424,88,-56,-1,-1,0
36800,-5701632,88,-56,-1,-1,0
36833,-1966080,88,-56,-1,-1,0
36866,-1507328,88,-56,-1,-1,0
36900,-131072,88,-56,-1,-1,0
36933,2883584,88,-56,-1,-1,0
36966,5439488,88,-56,-1,-1,0
37000,2031616,88,-56,-1,-1,0
37033,-720896,88,-56,-1,-1,0
37066,-458752,88,-56,-1,-1,0
37100,-851968,88,-56,-1,-1,0
37133,-1441792,88,-56,-1,-1,0
37166,-1638400,88,-56,-1,-1,0
37200,-1703936,88,-56,-1,-1,0
37233,-1703936,88,-56,-1,-1,0
37266,-983040,88,-56,-1,-1,0
37300,-2621440,88,-56,-1,-1,0
37333,-1769472,88,-56,-1,-1,0
37366,-1179648,88,-56,-1,-1,0
37400,-786432,88,-56,-1,-1,0
37433,1769472,88,-56,-1,-1,0
37466,4653056,88,-56,-1,-1,0
37500,3473408,88,-56,-1,-1,0
37533,0,88,-56,-1,-1,0
37566,-589824,88,-56,-1,-1,0
37600,-458752,88,-56,-1,-1,0
37633,-983040,88,-56,-1,-1,0
37666,-1114112,88,-56,-1,-1,0
37700,-2031616,88,-56,-1,-1,0
37733,-524288,88,-56,-1,-1,0
37766,-1376256,87,-56,-1,-1,0
37800,11796480,87,-56,-1,-1,0
37833,-2490368,87,-56,-1,-1,0
37866,-1179648,87,-56,-1,-1,0
37900,-720896,87,-56,-1,-1,0
37933,786432,87,-56,-1,-1,0
37966,3866624,87,-56,-1,-1,0
38000,5046272,87,-56,-1,-1,0
38033,1179648,87,-56,-1,-1,0
38066,-589824,87,-56,-1,-1,0
38100,-393216,87,-56,-1,-1,0
38133,-655360,87,-56,-1,-1,0
38166,-983040,87,-56,-1,-1,0
38200,-1310720,87,-56,-1,-1,0
38233,-1703936,87,-56,-1,-1,0
38266,-1900544,87,-56,-1,-1,0
38300,-1114112,87,-56,-1,-1,0
38333,-1638400,87,-56,-1,-1,0
38366,8781824,87,-56,-1,-1,0
38400,-3932160,87,-56,-1,-1,0
38433,-1703936,87,-56,-1,-1,0
38466,-917504,87,-56,-1,-1,0
38500,196608,87,-56,-1,-1,0
38533,3080192,87,-56,-1,-1,0
38566,5111808,87,-56,-1,-1,0
38600,2228224,87,-56,-1,-1,0
38633,-65536,86,-56,-1,-1,0
38666,-131072,86,-56,-1,-1,0
38700,-65536,86,-56,-1,-1,0
38733,-524288,86,-56,-1,-1,0
38766,-1179648,86,-56,-1,-1,0
38800,-786432,86,-56,-1,-1,0
38833,-983040,86,-56,-1,-1,0
38866,-1114112,86,-56,-1,-1,0
38900,-1048576,86,-56,-1,-1,0
38933,-1048576,86,-56,-1,-1,0
38966,-983040,86,-56,-1,-1,0
39000,-1310720,86,-56,-1,-1,0
39033,-1048576,86,-56,-1,-1,0
39066,-1179648,86,-56,-1,-1,0
39100,-1179648,86,-56,-1,-1,0
39133,-1179648,86,-56,-1,-1,0
39166,-720896,86,-56,-1,-1,0
39200,-1048576,86,-56,-1,-1,0
39233,9699328,86,-56,-1,-1,0
39266,-1900544,86,-56,-1,-1,0
39300,-1310720,86,-56,-1,-1,0
39333,-655360,84,-56,-1,-1,0
39366,655360,84,-56,-1,-1,0
39400,3145728,84,-56,-1,-1,0
39433,5242880,84,-56,-1,-1,0
39466,3342336,84,-56,-1,-1,0
39500,851968,84,-56,-1,-1,0
39533,196608,84,-56,-1,-1,0
39566,-720896,84,-56,-1,-1,0
39600,-589824,84,-56,-1,-1,0
39633,-983040,84,-56,-1,-1,0
39666,-720896,84,-56,-1,-1,0
39700,-1048576,84,-56,-1,-1,0
39733,-1114112,84,-56,-1,-1,0
39766,-1114112,84,-56,-1,-1,0
39800,-917504,84,-56,-1,-1,0
39833,-1048576,84,-56,-1,-1,0
39866,-1048576,84,-56,-1,-1,0
39900,-720896,84,-56,-1,-1,0
39933,-720896,84,-56,-1,-1,0
39966,1638400,84,-56,-1,-1,0
40000,-1703936,84,-56,-1,-1,0
40033,-1179648,84,-56,-1,-1,0
40066,-327680,78,-56,-1,-1,0
40100,917504,78,-56,-1,-1,0
40133,4063232,78,-56,-1,-1,0
40166,4784128,78,-56,-1,-1,0
40200,1310720,78,-56,-1,-1,0
40233,0,78,-56,-1,-1,0
40266,-458752,78,-56,-1,-1,0
40300,-458752,78,-56,-1,-1,0
40333,-983040,78,-56,-1,-1,0
40366,-1048576,78,-56,-1,-1,0
40400,-1114112,78,-56,-1,-1,0
40433,-1179648,78,-56,-1,-1,0
40466,-1048576,78,-56,-1,-1,0
40500,-1310720,78,-56,-1,-1,0
40533,-1114112,78,-56,-1,-1,0
40566,-1114112,78,-56,-1,-1,0
40600,-589824,78,-56,-1,-1,0
40633,-1245184,78,-56,-1,-1,0
40666,7864320,78,-56,-1,-1,0
40700,-1835008,78,-56,-1,-1,0
40733,-1179648,78,-56,-1,-1,0
40766,-458752,78,-56,-1,-1,0
40800,851968,78,-56,-1,-1,0
40833,3801088,78,-56,-1,-1,0
40866,5832704,78,-56,-1,-1,0
40900,1966080,78,-56,-1,-1,0
40933,65536,78,-56,-1,-1,0
40966,-131072,78,-56,-1,-1,0
41000,-393216,78,-56,-1,-1,0
41033,-1048576,78,-56,-1,-1,0
41066,-983040,78,-56,-1,-1,0
41100,-1114112,78,-56,-1,-1,0
41133,-1114112,78,-56,-1,-1,0
41166,-1179648,78,-56,-1,-1,0
41200,-1310720,78,-56,-1,-1,0
41233,-983040,78,-56,-1,-1,0
41266,-1114112,78,-56,-1,-1,0
41300,-262144,78,-56,-1,-1,0
41333,-4587520,79,-56,-1,-1,0
41366,-1703936,79,-56,-1,-1,0
41400,-655360,79,-56,-1,-1,0
41433,-196608,79,-56,-1,-1,0
41466,1638400,79,-56,-1,-1,0
41500,4849664,79,-56,-1,-1,0
41533,4325376,79,-56,-1,-1,0
41566,786432,79,-56,-1,-1,0
41600,-196608,79,-56,-1,-1,0
41633,-262144,79,-56,-1,-1,0
41666,-589824,79,-56,-1,-1,0
41700,-917504,79,-56,-1,-1,0
41733,-1179648,79,-56,-1,-1,0
41766,-1245184,79,-56,-1,-1,0
41800,-1310720,79,-56,-1,-1,0
41833,-1507328,79,-56,-1,-1,0
41866,-1048576,79,-56,-1,-1,0
41900,-1179648,81,-56,-1,-1,0
41933,-720896,81,-56,-1,-1,0
41966,-4784128,81,-56,-1,-1,0
42000,-1572864,81,-56,-1,-1,0
42033,-1179648,81,-56,-1,-1,0
42066,-720896,81,-56,-1,-1,0
42100,1048576,81,-56,-1,-1,0
42133,4456448,81,-56,-1,-1,0
42166,4521984,81,-56,-1,-1,0
42200,458752,81,-56,-1,-1,0
42233,-589824,81,-56,-1,-1,0
42266,-262144,81,-56,-1,-1,0
42300,-720896,81,-56,-1,-1,0
42333,-851968,81,-56,-1,-1,0
42366,-1310720,81,-56,-1,-1,0
42400,-983040,81,-56,-1,-1,0
42433,-1441792,81,-56,-1,-1,0
42466,-1441792,81,-56,-1,-1,0
42500,0,81,-56,-1,-1,0
42533,-4194304,83,-56,-1,-1,0
42566,-1835008,83,-56,-1,-1,0
42600,-1310720,83,-56,-1,-1,0
42633,-65536,83,-56,-1,-1,0
42666,1441792,83,-56,-1,-1,0
42700,4521984,83,-56,-1,-1,0
42733,4128768,83,-56,-1,-1,0
42766,65536,83,-56,-1,-1,0
42800,-262144,83,-56,-1,-1,0
42833,-655360,83,-56,-1,-1,0
42866,-720896,83,-56,-1,-1,0
42900,-917504,83,-56,-1,-1,0
42933,-917504,83,-56,-1,-1,0
42966,-1441792,83,-56,-1,-1,0
43000,-1376256,83,-56,-1,-1,0
43033,-1572864,83,-56,-1,-1,0
43066,-589824,83,-56,-1,-1,0
43100,-1245184,83,-56,-1,-1,0
43133,9699328,83,-56,-1,-1,0
43166,-2949120,84,-56,-1,-1,0
43200,-1441792,84,-56,-1,-1,0
43233,-1179648,84,-56,-1,-1,0
43266,589824,84,-56,-1,-1,0
43300,3211264,84,-56,-1,-1,0
43333,5636096,84,-56,-1,-1,0
43366,2228224,84,-56,-1,-1,0
43400,-131072,84,-56,-1,-1,0
43433,-196608,84,-56,-1,-1,0
43466,-655360,84,-56,-1,-1,0
43500,-786432,84,-56,-1,-1,0
43533,-983040,84,-56,-1,-1,0
43566,-1245184,84,-56,-1,-1,0
43600,-1048576,84,-56,-1,-1,0
43633,-1441792,84,-56,-1,-1,0
43666,-1310720,84,-56,-1,-1,0
43700,-1572864,84,-56,-1,-1,0
43733,-589824,84,-56,-1,-1,0
43766,-1507328,84,-56,-1,-1,0
43800,3932160,84,-56,-1,-1,0
43833,-1900544,82,-56,-1,-1,0
43866,-1376256,82,-56,-1,-1,0
43900,-589824,82,-56,-1,-1,0
43933,655360,82,-56,-1,-1,0
43966,4063232,82,-56,-1,-1,0
44000,5636096,82,-56,-1,-1,0
44033,1835008,82,-56,-1,-1,0
44066,-196608,82,-56,-1,-1,0
44100,-196608,82,-56,-1,-1,0
44133,-393216,82,-56,-1,-1,0
44166,-786432,82,-56,-1,-1,0
44200,-983040,82,-56,-1,-1,0
44233,-1114112,82,-56,-1,-1,0
44266,-1048576,82,-56,-1,-1,0
44300,-1245184,82,-56,-1,-1,0
44333,-1245184,82,-56,-1,-1,0
44366,-1572864,82,-56,-1,-1,0
44400,-1179648,82,-56,-1,-1,0
44433,-131072,79,-56,-1,-1,0
44466,-4194304,79,-56,-1,-1,0
44500,-1703936,79,-56,-1,-1,0
44533,-1179648,79,-56,-1,-1,0
44566,-262144,79,-56,-1,-1,0
44600,1441792,79,-56,-1,-1,0
44633,4718592,79,-56,-1,-1,0
44666,5111808,79,-56,-1,-1,0
44700,720896,79,-56,-1,-1,0
44733,0,79,-56,-1,-1,0
44766,-196608,79,-56,-1,-1,0
44800,-524288,79,-56,-1,-1,0
44833,-917504,79,-56,-1,-1,0
44866,-1179648,79,-56,-1,-1,0
44900,-1179648,79,-56,-1,-1,0
44933,-1114112,79,-56,-1,-1,0
44966,-1179648,79,-56,-1,-1,0
45000,-983040,79,-56,-1,-1,0
45033,196608,79,-56,-1,-1,0
45066,-5242880,77,-56,-1,-1,0
45100,-1638400,77,-56,-1,-1,0
45133,-1048576,77,-56,-1,-1,0
45166,-196608,77,-56,-1,-1,0
45200,1703936,77,-56,-1,-1,0
45233,4587520,77,-56,-1,-1,0
45266,3932160,77,-56,-1,-1,0
45300,327680,77,-56,-1,-1,0
45333,-589824,77,-56,-1,-1,0
45366,-589824,77,-56,-1,-1,0
45400,-524288,77,-56,-1,-1,0
45433,-1179648,77,-56,-1,-1,0
45466,-1048576,77,-56,-1,-1,0
45500,-1310720,77,-56,-1,-1,0
45533,-1245184,77,-56,-1,-1,0
45566,-1638400,77,-56,-1,-1,0
45600,-851968,77,-56,-1,-1,0
45633,-1114112,77,-56,-1,-1,0
45666,5963776,77,-56,-1,-1,0
45700,-4653056,77,-56,-1,-1,0
45733,-1507328,77,-56,-1,-1,0
45766,-851968,77,-56,-1,-1,0
45800,131072,77,-56,-1,-1,0
45833,2293760,77,-56,-1,-1,0
45866,5046272,77,-56,-1,-1,0
45900,3145728,77,-56,-1,-1,0
45933,0,77,-56,-1,-1,0
45966,-327680,77,-56,-1,-1,0
46000,-458752,77,-56,-1,-1,0
46033,-786432,77,-56,-1,-1,0
46066,-983040,77,-56,-1,-1,0
46100,-1310720,77,-56,-1,-1,0
46133,-1179648,77,-56,-1,-1,0
46166,-1310720,77,-56,-1,-1,0
46200,-1376256,77,-56,-1,-1,0
46233,-1376256,77,-56,-1,-1,0
46266,-1900544,77,-56,-1,-1,0
46300,-589824,77,-56,-1,-1,0
46333,-1245184,77,-56,-1,-1,0
46366,6815744,77,-56,-1,-1,0
46400,-1572864,77,-56,-1,-1,0
46433,-1048576,77,-56,-1,-1,0
46466,-262144,77,-56,-1,-1,0
46500,983040,76,-56,-1,-1,0
46533,3538944,76,-56,-1,-1,0
46566,4849664,76,-56,-1,-1,0
46600,1769472,76,-56,-1,-1,0
46633,131072,76,-56,-1,-1,0
46666,65536,76,-56,-1,-1,0
46700,-393216,76,-56,-1,-1,0
46733,-393216,76,-56,-1,-1,0
46766,-786432,76,-56,-1,-1,0
46800,-983040,76,-56,-1,-1,0
46833,-983040,76,-56,-1,-1,0
46866,-1048576,76,-56,-1,-1,0
46900,-1114112,76,-56,-1,-1,0
46933,-983040,76,-56,-1,-1,0
46966,-1114112,76,-56,-1,-1,0
47000,-1179648,76,-56,-1,-1,0
47033,-1048576,76,-56,-1,-1,0
47066,-983040,76,-56,-1,-1,0
47100,5963776,76,-56,-1,-1,0
47133,-4128768,76,-56,-1,-1,0
47166,-1507328,76,-56,-1,-1,0
47200,-720896,76,-56,-1,-1,0
47233,0,76,-56,-1,-1,0
47266,2031616,76,-56,-1,-1,0
47300,4980736,76,-56,-1,-1,0
47333,4325376,76,-56,-1,-1,0
47366,589824,76,-56,-1,-1,0
47400,131072,76,-56,-1,-1,0
47433,-131072,76,-56,-1,-1,0
47466,-458752,76,-56,-1,-1,0
47500,-720896,76,-56,-1,-1,0
47533,-851968,76,-56,-1,-1,0
47566,-983040,76,-56,-1,-1,0
47600,-851968,76,-56,-1,-1,0
47633,-1179648,76,-56,-1,-1,0
47666,-1048576,76,-56,-1,-1,0
47700,-1048576,76,-56,-1,-1,0
47733,-786432,76,-56,-1,-1,0
47766,-1245184,76,-56,-1,-1,0
47800,-1114112,76,-56,-1,-1,0
47833,-1114112,76,-56,-1,-1,0
47866,-1048576,76,-56,-1,-1,0
47900,-65536,76,-56,-1,-1,0
47933,-1114112,76,-56,-1,-1,0
47966,8978432,76,-56,-1,-1,0
48000,-4063232,76,-56,-1,-1,0
48033,-786432,76,-56,-1,-1,0
48066,-524288,76,-56,-1,-1,0
48100,327680,76,-56,-1,-1,0
48133,2883584,76,-56,-1,-1,0
48166,5767168,76,-56,-1,-1,0
48200,4849664,76,-56,-1,-1,0
48233,1245184,76,-56,-1,-1,0
48266,-131072,76,-56,-1,-1,0
48300,-1179648,76,-56,-1,-1,0
48333,-1245184,76,-56,-1,-1,0
48366,-1572864,76,-56,-1,-1,0
48400,-1703936,76,-56,-1,-1,0
48433,-1310720,76,-56,-1,-1,0
48466,-1900544,76,-56,-1,-1,0
48500,-1507328,76,-56,-1,-1,0
48533,-1769472,76,-56,-1,-1,0
48566,3014656,76,-56,-1,-1,0
48600,-8388608,76,-56,-1,-1,0
48633,-2031616,76,-56,-1,-1,0
48666,-1900544,76,-56,-1,-1,0
48700,-458752,76,-56,-1,-1,0
48733,2162688,76,-56,-1,-1,0
48766,6291456,76,-56,-1,-1,0
48800,5439488,76,-56,-1,-1,0
48833,393216,76,-56,-1,-1,0
48866,-655360,76,-56,-1,-1,0
48900,-983040,76,-56,-1,-1,0
48933,-1114112,76,-56,-1,-1,0
48966,-1835008,76,-56,-1,-1,0
49000,-1769472,76,-56,-1,-1,0
49033,-2359296,76,-56,-1,-1,0
49066,-1310720,76,-56,-1,-1,0
49100,-2097152,76,-56,-1,-1,0
49133,3801088,76,-56,-1,-1,0
49166,-6684672,76,-56,-1,-1,0
49200,-2031616,76,-56,-1,-1,0
49233,-1441792,76,-56,-1,-1,0
49266,-65536,76,-56,-1,-1,0
49300,2162688,76,-56,-1,-1,0
49333,6160384,76,-56,-1,-1,0
49366,4194304,76,-56,-1,-1,0
49400,-196608,76,-56,-1,-1,0
49433,-851968,76,-56,-1,-1,0
49466,-655360,76,-56,-1,-1,0
49500,-1048576,76,-56,-1,-1,0
49533,-1179648,76,-56,-1,-1,0
49566,-1638400,76,-56,-1,-1,0
49600,-1572864,78,-56,-1,-1,0
49633,-1572864,78,-56,-1,-1,0
49666,65536,78,-56,-1,-1,0
49700,-5505024,78,-56,-1,-1,0
49733,-1835008,78,-56,-1,-1,0
49766,-1245184,78,-56,-1,-1,0
49800,-458752,78,-56,-1,-1,0
49833,1572864,78,-56,-1,-1,0
49866,4915200,78,-56,-1,-1,0
49900,3932160,78,-56,-1,-1,0
