milliseconds, ECG, ECG HR, PPG, PPG HR, SpO2, PI
1523631874577,-589824,99,-56,-1,-1,0
1523631874577,-720896,99,-56,-1,-1,0
1523631874577,-786432,99,-56,-1,-1,0
1523631874577,-851968,99,-56,-1,-1,0
1523631874577,-917504,99,-56,-1,-1,0
1523631874621,-917504,99,-56,-1,-1,0
1523631874621,-851968,99,-56,-1,-1,0
1523631874621,-720896,99,-56,-1,-1,0
1523631874621,-851968,99,-56,-1,-1,0
1523631874621,-1048576,99,-56,-1,-1,0
1523631874658,-1048576,99,-56,-1,-1,0
1523631874658,-917504,99,-56,-1,-1,0
1523631874658,-851968,99,-56,-1,-1,0
1523631874658,-917504,99,-56,-1,-1,0
1523631874658,-917504,99,-56,-1,-1,0
1523631874698,-786432,99,-56,-1,-1,0
1523631874698,-655360,99,-56,-1,-1,0
1523631874698,-786432,99,-56,-1,-1,0
1523631874698,-851968,99,-56,-1,-1,0
1523631874698,-786432,99,-56,-1,-1,0
1523631874738,-720896,99,-56,-1,-1,0
1523631874738,-655360,99,-56,-1,-1,0
1523631874738,-786432,99,-56,-1,-1,0
1523631874738,-983040,99,-56,-1,-1,0
1523631874738,-1245184,99,-56,-1,-1,0
1523631874778,-1245184,99,-56,-1,-1,0
1523631874778,-1048576,99,-56,-1,-1,0
1523631874778,-655360,99,-56,-1,-1,0
1523631874778,-131072,99,-56,-1,-1,0
1523631874778,131072,99,-56,-1,-1,0
1523631874818,0,99,-56,-1,-1,0
1523631874818,-262144,99,-56,-1,-1,0
1523631874818,-589824,99,-56,-1,-1,0
1523631874818,-720896,99,-56,-1,-1,0
1523631874818,-720896,99,-56,-1,-1,0
1523631874858,-524288,99,-56,-1,-1,0
1523631874858,983040,99,-56,-1,-1,0
1523631874858,5505024,99,-56,-1,-1,0
1523631874858,9175040,99,-56,-1,-1,0
1523631874858,5963776,99,-56,-1,-1,0
1523631874898,-2097152,99,-56,-1,-1,0
1523631874898,-7077888,99,-56,-1,-1,0
1523631874898,-6422528,99,-56,-1,-1,0
1523631874898,-3932160,99,-56,-1,-1,0
1523631874898,-2490368,99,-56,-1,-1,0
1523631874938,-1703936,99,-56,-1,-1,0
1523631874938,-1245184,99,-56,-1,-1,0
1523631874938,-851968,99,-56,-1,-1,0
1523631874938,-851968,99,-56,-1,-1,0
1523631874938,-786432,99,-56,-1,-1,0
1523631874978,-655360,99,-56,-1,-1,0
1523631874978,-393216,99,-56,-1,-1,0
1523631874978,-196608,99,-56,-1,-1,0
1523631874978,0,99,-56,-1,-1,0
1523631874978,131072,99,-56,-1,-1,0
1523631875018,327680,99,-56,-1,-1,0
1523631875018,655360,99,-56,-1,-1,0
1523631875018,1114112,99,-56,-1,-1,0
1523631875018,1638400,99,-56,-1,-1,0
1523631875018,2162688,99,-56,-1,-1,0
1523631875058,2686976,99,-56,-1,-1,0
1523631875058,3276800,99,-56,-1,-1,0
1523631875058,3801088,99,-56,-1,-1,0
1523631875058,4325376,99,-56,-1,-1,0
1523631875058,4849664,99,-56,-1,-1,0
1523631875098,5308416,99,-56,-1,-1,0
1523631875098,5570560,99,-56,-1,-1,0
1523631875098,5439488,99,-56,-1,-1,0
1523631875098,4849664,99,-56,-1,-1,0
1523631875098,3932160,99,-56,-1,-1,0
1523631875138,2949120,99,-56,-1,-1,0
1523631875138,1966080,99,-56,-1,-1,0
1523631875138,1245184,99,-56,-1,-1,0
1523631875138,655360,99,-56,-1,-1,0
1523631875138,262144,99,-56,-1,-1,0
1523631875178,0,99,-56,-1,-1,0
1523631875178,0,99,-56,-1,-1,0
1523631875178,-65536,99,-56,-1,-1,0
1523631875178,-262144,99,-56,-1,-1,0
1523631875178,-458752,99,-56,-1,-1,0
1523631875218,-458752,99,-56,-1,-1,0
1523631875218,-327680,99,-56,-1,-1,0
1523631875218,-262144,99,-56,-1,-1,0
1523631875218,-327680,99,-56,-1,-1,0
1523631875218,-458752,99,-56,-1,-1,0
1523631875259,-524288,99,-56,-1,-1,0
1523631875259,-524288,99,-56,-1,-1,0
1523631875259,-589824,99,-56,-1,-1,0
1523631875259,-655360,99,-56,-1,-1,0
1523631875259,-720896,99,-56,-1,-1,0
1523631875298,-851968,99,-56,-1,-1,0
1523631875298,-1048576,99,-56,-1,-1,0
1523631875298,-1179648,99,-56,-1,-1,0
1523631875298,-1114112,99,-56,-1,-1,0
1523631875298,-983040,99,-56,-1,-1,0
1523631875338,-917504,99,-56,-1,-1,0
1523631875338,-983040,99,-56,-1,-1,0
1523631875338,-1048576,99,-56,-1,-1,0
1523631875338,-1114112,99,-56,-1,-1,0
1523631875338,-1179648,99,-56,-1,-1,0
1523631875378,-1376256,99,-56,-1,-1,0
1523631875378,-1703936,99,-56,-1,-1,0
1523631875378,-1900544,99,-56,-1,-1,0
1523631875378,-2031616,99,-56,-1,-1,0
1523631875378,-1966080,99,-56,-1,-1,0
1523631875418,-1572864,100,-56,-1,-1,0
1523631875418,-983040,100,-56,-1,-1,0
1523631875418,-458752,100,-56,-1,-1,0
1523631875418,-262144,100,-56,-1,-1,0
1523631875418,-655360,100,-56,-1,-1,0
1523631875458,-1114112,100,-56,-1,-1,0
1523631875458,-1376256,100,-56,-1,-1,0
1523631875458,-1441792,100,-56,-1,-1,0
1523631875458,-1376256,100,-56,-1,-1,0
1523631875458,-1245184,100,-56,-1,-1,0
1523631875498,262144,100,-56,-1,-1,0
1523631875498,4653056,100,-56,-1,-1,0
1523631875498,8912896,100,-56,-1,-1,0
1523631875498,6291456,100,-56,-1,-1,0
1523631875498,-2031616,100,-56,-1,-1,0
1523631875538,-7405568,100,-56,-1,-1,0
1523631875538,-6619136,100,-56,-1,-1,0
1523631875538,-3866624,100,-56,-1,-1,0
1523631875538,-2359296,100,-56,-1,-1,0
1523631875538,-1835008,100,-56,-1,-1,0
1523631875578,-1703936,100,-56,-1,-1,0
1523631875578,-1572864,100,-56,-1,-1,0
1523631875578,-1441792,100,-56,-1,-1,0
1523631875578,-1245184,100,-56,-1,-1,0
1523631875578,-1114112,100,-56,-1,-1,0
1523631875618,-1048576,100,-56,-1,-1,0
1523631875618,-1114112,100,-56,-1,-1,0
1523631875618,-917504,100,-56,-1,-1,0
1523631875618,-196608,100,-56,-1,-1,0
1523631875618,458752,100,-56,-1,-1,0
1523631875658,720896,100,-56,-1,-1,0
1523631875658,917504,100,-56,-1,-1,0
1523631875658,1245184,100,-56,-1,-1,0
1523631875658,1638400,100,-56,-1,-1,0
1523631875658,2162688,100,-56,-1,-1,0
1523631875698,2686976,100,-56,-1,-1,0
1523631875698,3080192,100,-56,-1,-1,0
1523631875698,3538944,100,-56,-1,-1,0
1523631875698,3801088,100,-56,-1,-1,0
1523631875698,3866624,100,-56,-1,-1,0
1523631875738,3932160,100,-56,-1,-1,0
1523631875738,3866624,100,-56,-1,-1,0
1523631875738,3407872,100,-56,-1,-1,0
1523631875738,2621440,100,-56,-1,-1,0
1523631875738,1769472,100,-56,-1,-1,0
1523631875778,983040,100,-56,-1,-1,0
1523631875778,393216,100,-56,-1,-1,0
1523631875778,65536,100,-56,-1,-1,0
1523631875778,0,100,-56,-1,-1,0
1523631875778,-196608,100,-56,-1,-1,0
1523631875818,-458752,100,-56,-1,-1,0
1523631875818,-655360,100,-56,-1,-1,0
1523631875818,-720896,100,-56,-1,-1,0
1523631875818,-786432,100,-56,-1,-1,0
1523631875818,-917504,100,-56,-1,-1,0
1523631875859,-1114112,100,-56,-1,-1,0
1523631875859,-1048576,100,-56,-1,-1,0
1523631875859,-786432,100,-56,-1,-1,0
1523631875859,-589824,100,-56,-1,-1,0
1523631875859,-786432,100,-56,-1,-1,0
1523631875900,-851968,100,-56,-1,-1,0
1523631875900,-917504,100,-56,-1,-1,0
1523631875900,-983040,100,-56,-1,-1,0
1523631875900,-983040,100,-56,-1,-1,0
1523631875900,-983040,100,-56,-1,-1,0
1523631875938,-1048576,100,-56,-1,-1,0
1523631875938,-1114112,100,-56,-1,-1,0
1523631875938,-1245184,100,-56,-1,-1,0
1523631875938,-1376256,100,-56,-1,-1,0
1523631875938,-1507328,100,-56,-1,-1,0
1523631875978,-1441792,100,-56,-1,-1,0
1523631875978,-1376256,100,-56,-1,-1,0
1523631875978,-1310720,100,-56,-1,-1,0
1523631875978,-1245184,100,-56,-1,-1,0
1523631875978,-1245184,100,-56,-1,-1,0
1523631876018,-1310720,100,-56,-1,-1,0
1523631876018,-1507328,100,-56,-1,-1,0
1523631876018,-1769472,100,-56,-1,-1,0
1523631876018,-2097152,100,-56,-1,-1,0
1523631876018,-2031616,100,-56,-1,-1,0
1523631876058,-1703936,100,-56,-1,-1,0
1523631876058,-1179648,100,-56,-1,-1,0
1523631876058,-720896,100,-56,-1,-1,0
1523631876058,-458752,100,-56,-1,-1,0
1523631876058,-786432,100,-56,-1,-1,0
1523631876098,-1310720,100,-56,-1,-1,0
1523631876098,-1572864,100,-56,-1,-1,0
1523631876098,-1572864,100,-56,-1,-1,0
1523631876098,-1376256,100,-56,-1,-1,0
1523631876098,-1114112,100,-56,-1,-1,0
1523631876138,720896,100,-56,-1,-1,0
1523631876138,5832704,100,-56,-1,-1,0
1523631876138,9895936,100,-56,-1,-1,0
1523631876138,6160384,100,-56,-1,-1,0
1523631876138,-2490368,100,-56,-1,-1,0
1523631876178,-6750208,100,-56,-1,-1,0
1523631876178,-5242880,100,-56,-1,-1,0
1523631876178,-2818048,100,-56,-1,-1,0
1523631876178,-1703936,100,-56,-1,-1,0
1523631876178,-1441792,100,-56,-1,-1,0
1523631876218,-1572864,100,-56,-1,-1,0
1523631876218,-1572864,100,-56,-1,-1,0
1523631876218,-1376256,100,-56,-1,-1,0
1523631876218,-1114112,100,-56,-1,-1,0
1523631876218,-917504,100,-56,-1,-1,0
1523631876258,-851968,100,-56,-1,-1,0
1523631876258,-720896,100,-56,-1,-1,0
1523631876258,-458752,100,-56,-1,-1,0
1523631876258,-196608,100,-56,-1,-1,0
1523631876258,131072,100,-56,-1,-1,0
1523631876298,458752,100,-56,-1,-1,0
1523631876298,851968,100,-56,-1,-1,0
1523631876298,1245184,100,-56,-1,-1,0
1523631876298,1835008,100,-56,-1,-1,0
1523631876298,2424832,100,-56,-1,-1,0
1523631876338,2883584,100,-56,-1,-1,0
1523631876338,3407872,100,-56,-1,-1,0
1523631876338,3997696,100,-56,-1,-1,0
1523631876338,4587520,100,-56,-1,-1,0
1523631876338,5046272,100,-56,-1,-1,0
1523631876378,4980736,100,-56,-1,-1,0
1523631876378,4456448,100,-56,-1,-1,0
1523631876378,3735552,100,-56,-1,-1,0
1523631876378,2883584,100,-56,-1,-1,0
1523631876378,2031616,100,-56,-1,-1,0
1523631876418,1179648,100,-56,-1,-1,0
1523631876418,589824,100,-56,-1,-1,0
1523631876418,131072,100,-56,-1,-1,0
1523631876418,-131072,100,-56,-1,-1,0
1523631876418,-327680,100,-56,-1,-1,0
1523631876458,-262144,100,-56,-1,-1,0
1523631876458,-131072,100,-56,-1,-1,0
1523631876458,-131072,100,-56,-1,-1,0
1523631876458,-262144,100,-56,-1,-1,0
1523631876458,-393216,100,-56,-1,-1,0
1523631876498,-524288,100,-56,-1,-1,0
1523631876498,-655360,100,-56,-1,-1,0
1523631876498,-720896,100,-56,-1,-1,0
1523631876498,-720896,100,-56,-1,-1,0
1523631876498,-786432,100,-56,-1,-1,0
1523631876539,-786432,100,-56,-1,-1,0
1523631876539,-720896,100,-56,-1,-1,0
1523631876539,-720896,100,-56,-1,-1,0
1523631876539,-786432,100,-56,-1,-1,0
1523631876539,-917504,100,-56,-1,-1,0
1523631876578,-1048576,100,-56,-1,-1,0
1523631876578,-983040,100,-56,-1,-1,0
1523631876578,-1048576,100,-56,-1,-1,0
1523631876578,-1179648,100,-56,-1,-1,0
1523631876578,-1376256,100,-56,-1,-1,0
1523631876618,-1179648,100,-56,-1,-1,0
1523631876618,-983040,100,-56,-1,-1,0
1523631876618,-1114112,100,-56,-1,-1,0
1523631876618,-1179648,100,-56,-1,-1,0
1523631876618,-1114112,100,-56,-1,-1,0
1523631876658,-1179648,100,-56,-1,-1,0
1523631876658,-1310720,100,-56,-1,-1,0
1523631876658,-1572864,100,-56,-1,-1,0
1523631876658,-1769472,100,-56,-1,-1,0
1523631876658,-1835008,100,-56,-1,-1,0
1523631876698,-1703936,100,-56,-1,-1,0
1523631876698,-1638400,100,-56,-1,-1,0
1523631876698,-1441792,100,-56,-1,-1,0
1523631876698,-917504,100,-56,-1,-1,0
1523631876698,-458752,100,-56,-1,-1,0
1523631876738,-458752,100,-56,-1,-1,0
1523631876738,-917504,100,-56,-1,-1,0
1523631876738,-1441792,100,-56,-1,-1,0
1523631876738,-1638400,100,-56,-1,-1,0
1523631876738,-1507328,100,-56,-1,-1,0
1523631876778,-1114112,100,-56,-1,-1,0
1523631876778,393216,100,-56,-1,-1,0
1523631876778,4653056,100,-56,-1,-1,0
1523631876778,9437184,100,-56,-1,-1,0
1523631876778,7667712,100,-56,-1,-1,0
1523631876818,-262144,100,-56,-1,-1,0
1523631876818,-5963776,100,-56,-1,-1,0
1523631876818,-5505024,100,-56,-1,-1,0
1523631876818,-2883584,100,-56,-1,-1,0
1523631876818,-1638400,100,-56,-1,-1,0
1523631876858,-1572864,100,-56,-1,-1,0
1523631876858,-1769472,100,-56,-1,-1,0
1523631876858,-1769472,100,-56,-1,-1,0
1523631876858,-1703936,100,-56,-1,-1,0
1523631876858,-1572864,100,-56,-1,-1,0
1523631876898,-1376256,100,-56,-1,-1,0
1523631876898,-1114112,100,-56,-1,-1,0
1523631876898,-917504,100,-56,-1,-1,0
1523631876898,-655360,100,-56,-1,-1,0
1523631876898,-458752,100,-56,-1,-1,0
1523631876938,-131072,100,-56,-1,-1,0
1523631876938,196608,100,-56,-1,-1,0
1523631876938,458752,100,-56,-1,-1,0
1523631876938,720896,100,-56,-1,-1,0
1523631876938,1245184,100,-56,-1,-1,0
1523631876978,1900544,100,-56,-1,-1,0
1523631876978,2555904,100,-56,-1,-1,0
1523631876978,3145728,100,-56,-1,-1,0
1523631876978,3735552,100,-56,-1,-1,0
1523631876978,4259840,100,-56,-1,-1,0
1523631877018,4784128,100,-56,-1,-1,0
1523631877018,5046272,100,-56,-1,-1,0
1523631877018,4718592,100,-56,-1,-1,0
1523631877018,4063232,100,-56,-1,-1,0
1523631877018,3407872,100,-56,-1,-1,0
1523631877058,2621440,100,-56,-1,-1,0
1523631877058,1703936,100,-56,-1,-1,0
1523631877058,655360,100,-56,-1,-1,0
1523631877058,0,100,-56,-1,-1,0
1523631877058,0,100,-56,-1,-1,0
1523631877098,65536,100,-56,-1,-1,0
1523631877098,0,100,-56,-1,-1,0
1523631877098,-196608,100,-56,-1,-1,0
1523631877098,-458752,100,-56,-1,-1,0
1523631877098,-524288,100,-56,-1,-1,0
1523631877138,-524288,100,-56,-1,-1,0
1523631877138,-655360,100,-56,-1,-1,0
1523631877138,-917504,100,-56,-1,-1,0
1523631877138,-1048576,100,-56,-1,-1,0
1523631877138,-851968,100,-56,-1,-1,0
1523631877179,-655360,100,-56,-1,-1,0
1523631877179,-655360,100,-56,-1,-1,0
1523631877179,-786432,100,-56,-1,-1,0
1523631877179,-983040,100,-56,-1,-1,0
1523631877179,-1114112,100,-56,-1,-1,0
1523631877218,-1114112,100,-56,-1,-1,0
1523631877218,-983040,100,-56,-1,-1,0
1523631877218,-917504,100,-56,-1,-1,0
1523631877218,-1048576,100,-56,-1,-1,0
1523631877218,-1179648,100,-56,-1,-1,0
1523631877259,-1310720,100,-56,-1,-1,0
1523631877259,-1179648,100,-56,-1,-1,0
1523631877259,-1048576,100,-56,-1,-1,0
1523631877259,-1245184,100,-56,-1,-1,0
1523631877259,-1441792,100,-56,-1,-1,0
1523631877298,-1441792,100,-56,-1,-1,0
1523631877298,-1245184,100,-56,-1,-1,0
1523631877298,-983040,100,-56,-1,-1,0
1523631877298,-983040,100,-56,-1,-1,0
1523631877298,-1179648,100,-56,-1,-1,0
1523631877338,-1179648,100,-56,-1,-1,0
1523631877338,-1376256,100,-56,-1,-1,0
1523631877338,-1835008,100,-56,-1,-1,0
1523631877338,-2097152,100,-56,-1,-1,0
1523631877338,-1966080,100,-56,-1,-1,0
1523631877378,-1769472,100,-56,-1,-1,0
1523631877378,-1376256,100,-56,-1,-1,0
1523631877378,-655360,100,-56,-1,-1,0
1523631877378,-65536,100,-56,-1,-1,0
1523631877378,0,100,-56,-1,-1,0
1523631877418,-131072,100,-56,-1,-1,0
1523631877418,-589824,100,-56,-1,-1,0
1523631877418,-1179648,100,-56,-1,-1,0
1523631877418,-1441792,100,-56,-1,-1,0
1523631877418,-1310720,100,-56,-1,-1,0
1523631877457,393216,100,-56,-1,-1,0
1523631877457,5439488,100,-56,-1,-1,0
1523631877457,10354688,100,-56,-1,-1,0
1523631877457,8323072,100,-56,-1,-1,0
1523631877457,262144,100,-56,-1,-1,0
1523631877497,-5046272,100,-56,-1,-1,0
1523631877497,-4718592,100,-56,-1,-1,0
1523631877497,-2555904,100,-56,-1,-1,0
1523631877497,-1441792,100,-56,-1,-1,0
1523631877497,-1179648,100,-56,-1,-1,0
1523631877537,-1507328,100,-56,-1,-1,0
1523631877537,-1507328,100,-56,-1,-1,0
1523631877537,-1179648,100,-56,-1,-1,0
1523631877537,-851968,100,-56,-1,-1,0
1523631877537,-655360,100,-56,-1,-1,0
1523631877577,-524288,100,-56,-1,-1,0
1523631877577,-524288,100,-56,-1,-1,0
1523631877577,-393216,100,-56,-1,-1,0
1523631877577,-131072,100,-56,-1,-1,0
1523631877577,262144,100,-56,-1,-1,0
1523631877617,655360,100,-56,-1,-1,0
1523631877617,851968,100,-56,-1,-1,0
1523631877617,1310720,100,-56,-1,-1,0
1523631877617,1769472,100,-56,-1,-1,0
1523631877617,2162688,100,-56,-1,-1,0
1523631877657,2621440,100,-56,-1,-1,0
1523631877657,3342336,100,-56,-1,-1,0
1523631877657,4128768,100,-56,-1,-1,0
1523631877657,4849664,100,-56,-1,-1,0
1523631877657,5373952,100,-56,-1,-1,0
1523631877697,5636096,100,-56,-1,-1,0
1523631877697,5505024,100,-56,-1,-1,0
1523631877697,4849664,100,-56,-1,-1,0
1523631877697,3932160,100,-56,-1,-1,0
1523631877697,3014656,100,-56,-1,-1,0
1523631877737,2097152,100,-56,-1,-1,0
1523631877737,1441792,100,-56,-1,-1,0
1523631877737,851968,100,-56,-1,-1,0
1523631877737,458752,100,-56,-1,-1,0
1523631877737,262144,100,-56,-1,-1,0
1523631877777,196608,100,-56,-1,-1,0
1523631877777,0,100,-56,-1,-1,0
1523631877777,-393216,100,-56,-1,-1,0
1523631877777,-524288,100,-56,-1,-1,0
1523631877777,-327680,100,-56,-1,-1,0
1523631877819,-327680,100,-56,-1,-1,0
1523631877819,-524288,100,-56,-1,-1,0
1523631877819,-720896,100,-56,-1,-1,0
1523631877819,-786432,100,-56,-1,-1,0
1523631877819,-786432,100,-56,-1,-1,0
1523631877857,-786432,100,-56,-1,-1,0
1523631877857,-786432,100,-56,-1,-1,0
1523631877857,-851968,100,-56,-1,-1,0
1523631877857,-917504,100,-56,-1,-1,0
1523631877857,-917504,100,-56,-1,-1,0
1523631877897,-720896,100,-56,-1,-1,0
1523631877897,-589824,100,-56,-1,-1,0
1523631877897,-655360,100,-56,-1,-1,0
1523631877897,-917504,100,-56,-1,-1,0
1523631877897,-1114112,100,-56,-1,-1,0
1523631877937,-1179648,100,-56,-1,-1,0
1523631877937,-1179648,100,-56,-1,-1,0
1523631877937,-1179648,100,-56,-1,-1,0
1523631877937,-1179648,100,-56,-1,-1,0
1523631877937,-1114112,100,-56,-1,-1,0
1523631877977,-1048576,100,-56,-1,-1,0
1523631877977,-1048576,100,-56,-1,-1,0
1523631877977,-1114112,100,-56,-1,-1,0
1523631877977,-1179648,100,-56,-1,-1,0
1523631877977,-1441792,100,-56,-1,-1,0
1523631878017,-1769472,100,-56,-1,-1,0
1523631878017,-1966080,100,-56,-1,-1,0
1523631878017,-1966080,100,-56,-1,-1,0
1523631878017,-1703936,100,-56,-1,-1,0
1523631878017,-1114112,100,-56,-1,-1,0
1523631878057,-589824,98,-56,-1,-1,0
1523631878057,-262144,98,-56,-1,-1,0
1523631878057,-458752,98,-56,-1,-1,0
1523631878057,-851968,98,-56,-1,-1,0
1523631878057,-1114112,98,-56,-1,-1,0
1523631878097,-1179648,98,-56,-1,-1,0
1523631878097,-1245184,98,-56,-1,-1,0
1523631878097,-1179648,98,-56,-1,-1,0
1523631878097,131072,98,-56,-1,-1,0
1523631878097,4456448,98,-56,-1,-1,0
1523631878137,8585216,98,-56,-1,-1,0
1523631878137,6160384,98,-56,-1,-1,0
1523631878137,-1245184,98,-56,-1,-1,0
1523631878137,-6029312,98,-56,-1,-1,0
1523631878137,-5439488,98,-56,-1,-1,0
1523631878177,-3276800,98,-56,-1,-1,0
1523631878177,-2162688,98,-56,-1,-1,0
1523631878177,-1769472,98,-56,-1,-1,0
1523631878177,-1769472,98,-56,-1,-1,0
1523631878177,-1638400,98,-56,-1,-1,0
1523631878217,-1441792,98,-56,-1,-1,0
1523631878217,-1310720,98,-56,-1,-1,0
1523631878217,-1310720,98,-56,-1,-1,0
1523631878217,-1179648,98,-56,-1,-1,0
1523631878217,-1048576,98,-56,-1,-1,0
1523631878257,-720896,98,-56,-1,-1,0
1523631878257,-458752,98,-56,-1,-1,0
1523631878257,-262144,98,-56,-1,-1,0
1523631878257,-65536,98,-56,-1,-1,0
1523631878257,196608,98,-56,-1,-1,0
1523631878299,655360,98,-56,-1,-1,0
1523631878299,1245184,98,-56,-1,-1,0
1523631878299,1900544,98,-56,-1,-1,0
1523631878299,2686976,98,-56,-1,-1,0
1523631878299,3407872,98,-56,-1,-1,0
1523631878337,3997696,98,-56,-1,-1,0
1523631878337,4521984,98,-56,-1,-1,0
1523631878337,4980736,98,-56,-1,-1,0
1523631878337,5242880,98,-56,-1,-1,0
1523631878337,5111808,98,-56,-1,-1,0
1523631878377,4653056,98,-56,-1,-1,0
1523631878377,3866624,98,-56,-1,-1,0
1523631878377,2949120,98,-56,-1,-1,0
1523631878377,2031616,98,-56,-1,-1,0
1523631878377,1179648,98,-56,-1,-1,0
1523631878417,524288,98,-56,-1,-1,0
1523631878417,196608,98,-56,-1,-1,0
1523631878417,0,98,-56,-1,-1,0
1523631878417,-196608,98,-56,-1,-1,0
1523631878417,-327680,98,-56,-1,-1,0
1523631878459,-393216,98,-56,-1,-1,0
1523631878459,-458752,98,-56,-1,-1,0
1523631878459,-524288,98,-56,-1,-1,0
1523631878459,-655360,98,-56,-1,-1,0
1523631878459,-720896,98,-56,-1,-1,0
1523631878497,-720896,98,-56,-1,-1,0
1523631878497,-720896,98,-56,-1,-1,0
1523631878497,-851968,98,-56,-1,-1,0
1523631878497,-917504,98,-56,-1,-1,0
1523631878497,-917504,98,-56,-1,-1,0
1523631878537,-917504,98,-56,-1,-1,0
1523631878537,-917504,98,-56,-1,-1,0
1523631878537,-1048576,98,-56,-1,-1,0
1523631878537,-1179648,98,-56,-1,-1,0
1523631878537,-1245184,98,-56,-1,-1,0
1523631878577,-1114112,98,-56,-1,-1,0
1523631878577,-1179648,98,-56,-1,-1,0
1523631878577,-1310720,98,-56,-1,-1,0
1523631878577,-1441792,98,-56,-1,-1,0
1523631878577,-1507328,98,-56,-1,-1,0
1523631878617,-1441792,98,-56,-1,-1,0
1523631878617,-1376256,98,-56,-1,-1,0
1523631878617,-1441792,98,-56,-1,-1,0
1523631878617,-1638400,98,-56,-1,-1,0
1523631878617,-1769472,98,-56,-1,-1,0
1523631878657,-1900544,97,-56,-1,-1,0
1523631878657,-1966080,97,-56,-1,-1,0
1523631878657,-1769472,97,-56,-1,-1,0
1523631878657,-1179648,97,-56,-1,-1,0
1523631878657,-524288,97,-56,-1,-1,0
1523631878697,-393216,97,-56,-1,-1,0
1523631878697,-655360,97,-56,-1,-1,0
1523631878697,-1114112,97,-56,-1,-1,0
1523631878697,-1376256,97,-56,-1,-1,0
1523631878697,-1441792,97,-56,-1,-1,0
1523631878737,-1441792,97,-56,-1,-1,0
1523631878737,-1376256,97,-56,-1,-1,0
1523631878737,-589824,97,-56,-1,-1,0
1523631878737,2686976,97,-56,-1,-1,0
1523631878737,7929856,97,-56,-1,-1,0
1523631878777,8257536,97,-56,-1,-1,0
1523631878777,1179648,97,-56,-1,-1,0
1523631878777,-6094848,97,-56,-1,-1,0
1523631878777,-7143424,97,-56,-1,-1,0
1523631878777,-4849664,97,-56,-1,-1,0
1523631878817,-2818048,97,-56,-1,-1,0
1523631878817,-2031616,97,-56,-1,-1,0
1523631878817,-1769472,97,-56,-1,-1,0
1523631878817,-1638400,97,-56,-1,-1,0
1523631878817,-1507328,97,-56,-1,-1,0
1523631878857,-1376256,97,-56,-1,-1,0
1523631878857,-1245184,97,-56,-1,-1,0
1523631878857,-1048576,97,-56,-1,-1,0
1523631878857,-917504,97,-56,-1,-1,0
1523631878857,-720896,97,-56,-1,-1,0
1523631878897,-524288,97,-56,-1,-1,0
1523631878897,-196608,97,-56,-1,-1,0
1523631878897,0,97,-56,-1,-1,0
1523631878897,262144,97,-56,-1,-1,0
1523631878897,851968,97,-56,-1,-1,0
1523631878937,1376256,97,-56,-1,-1,0
1523631878937,2031616,97,-56,-1,-1,0
1523631878937,2818048,97,-56,-1,-1,0
1523631878937,3473408,97,-56,-1,-1,0
1523631878937,4063232,97,-56,-1,-1,0
1523631878977,4653056,97,-56,-1,-1,0
1523631878977,5177344,97,-56,-1,-1,0
1523631878977,5570560,97,-56,-1,-1,0
1523631878977,5505024,97,-56,-1,-1,0
1523631878977,4980736,97,-56,-1,-1,0
1523631879017,3932160,97,-56,-1,-1,0
1523631879017,2883584,97,-56,-1,-1,0
1523631879017,2031616,97,-56,-1,-1,0
1523631879017,1310720,97,-56,-1,-1,0
1523631879017,655360,97,-56,-1,-1,0
1523631879057,65536,97,-56,-1,-1,0
1523631879057,-196608,97,-56,-1,-1,0
1523631879057,-393216,97,-56,-1,-1,0
1523631879057,-524288,97,-56,-1,-1,0
1523631879057,-655360,97,-56,-1,-1,0
1523631879099,-655360,97,-56,-1,-1,0
1523631879099,-655360,97,-56,-1,-1,0
1523631879099,-655360,97,-56,-1,-1,0
1523631879099,-851968,97,-56,-1,-1,0
1523631879099,-851968,97,-56,-1,-1,0
1523631879137,-851968,97,-56,-1,-1,0
1523631879137,-1048576,97,-56,-1,-1,0
1523631879137,-1179648,97,-56,-1,-1,0
1523631879137,-1114112,97,-56,-1,-1,0
1523631879137,-1048576,97,-56,-1,-1,0
1523631879177,-1114112,97,-56,-1,-1,0
1523631879177,-1245184,97,-56,-1,-1,0
1523631879177,-1245184,97,-56,-1,-1,0
1523631879177,-1245184,97,-56,-1,-1,0
1523631879177,-1245184,97,-56,-1,-1,0
1523631879217,-1310720,97,-56,-1,-1,0
1523631879217,-1441792,97,-56,-1,-1,0
1523631879217,-1507328,97,-56,-1,-1,0
1523631879217,-1638400,97,-56,-1,-1,0
1523631879217,-1769472,97,-56,-1,-1,0
1523631879257,-1900544,96,-56,-1,-1,0
1523631879257,-1900544,96,-56,-1,-1,0
1523631879257,-1835008,96,-56,-1,-1,0
1523631879257,-1507328,96,-56,-1,-1,0
1523631879257,-983040,96,-56,-1,-1,0
1523631879297,-655360,96,-56,-1,-1,0
1523631879297,-655360,96,-56,-1,-1,0
1523631879297,-983040,96,-56,-1,-1,0
1523631879297,-1310720,96,-56,-1,-1,0
1523631879297,-1441792,96,-56,-1,-1,0
1523631879337,-1507328,96,-56,-1,-1,0
1523631879337,-1572864,96,-56,-1,-1,0
1523631879337,-1179648,96,-56,-1,-1,0
1523631879337,851968,96,-56,-1,-1,0
1523631879337,5898240,96,-56,-1,-1,0
1523631879377,8912896,96,-56,-1,-1,0
1523631879377,4390912,96,-56,-1,-1,0
1523631879377,-4128768,96,-56,-1,-1,0
1523631879377,-8060928,96,-56,-1,-1,0
1523631879377,-6553600,96,-56,-1,-1,0
1523631879417,-3866624,96,-56,-1,-1,0
1523631879417,-2424832,96,-56,-1,-1,0
1523631879417,-1900544,96,-56,-1,-1,0
1523631879417,-1900544,96,-56,-1,-1,0
1523631879417,-1769472,96,-56,-1,-1,0
1523631879457,-1572864,96,-56,-1,-1,0
1523631879457,-1376256,96,-56,-1,-1,0
1523631879457,-1245184,96,-56,-1,-1,0
1523631879457,-983040,96,-56,-1,-1,0
1523631879457,-851968,96,-56,-1,-1,0
1523631879497,-786432,96,-56,-1,-1,0
1523631879497,-655360,96,-56,-1,-1,0
1523631879497,-262144,96,-56,-1,-1,0
1523631879497,65536,96,-56,-1,-1,0
1523631879497,655360,96,-56,-1,-1,0
1523631879537,1245184,96,-56,-1,-1,0
1523631879537,1769472,96,-56,-1,-1,0
1523631879537,2228224,96,-56,-1,-1,0
1523631879537,2686976,96,-56,-1,-1,0
1523631879537,3211264,96,-56,-1,-1,0
1523631879577,3801088,96,-56,-1,-1,0
1523631879577,4521984,96,-56,-1,-1,0
1523631879577,5046272,96,-56,-1,-1,0
1523631879577,5046272,96,-56,-1,-1,0
1523631879577,4587520,96,-56,-1,-1,0
1523631879617,3866624,96,-56,-1,-1,0
1523631879617,2949120,96,-56,-1,-1,0
1523631879617,2097152,96,-56,-1,-1,0
1523631879617,1310720,96,-56,-1,-1,0
1523631879617,524288,96,-56,-1,-1,0
1523631879657,-65536,96,-56,-1,-1,0
1523631879657,-327680,96,-56,-1,-1,0
1523631879657,-458752,96,-56,-1,-1,0
1523631879657,-393216,96,-56,-1,-1,0
1523631879657,-262144,96,-56,-1,-1,0
1523631879697,-327680,96,-56,-1,-1,0
1523631879697,-393216,96,-56,-1,-1,0
1523631879697,-458752,96,-56,-1,-1,0
1523631879697,-655360,96,-56,-1,-1,0
1523631879697,-786432,96,-56,-1,-1,0
1523631879739,-786432,96,-56,-1,-1,0
1523631879739,-655360,96,-56,-1,-1,0
1523631879739,-524288,96,-56,-1,-1,0
1523631879739,-524288,96,-56,-1,-1,0
1523631879739,-917504,96,-56,-1,-1,0
1523631879777,-1179648,96,-56,-1,-1,0
1523631879777,-1245184,96,-56,-1,-1,0
1523631879777,-1114112,96,-56,-1,-1,0
1523631879777,-1048576,96,-56,-1,-1,0
1523631879777,-851968,96,-56,-1,-1,0
1523631879817,-655360,96,-56,-1,-1,0
1523631879817,-720896,96,-56,-1,-1,0
1523631879817,-983040,96,-56,-1,-1,0
1523631879817,-1245184,96,-56,-1,-1,0
1523631879817,-1441792,96,-56,-1,-1,0
1523631879857,-1507328,96,-56,-1,-1,0
1523631879857,-1638400,96,-56,-1,-1,0
1523631879857,-1900544,96,-56,-1,-1,0
1523631879857,-1769472,96,-56,-1,-1,0
1523631879857,-983040,96,-56,-1,-1,0
1523631879897,-131072,96,-56,-1,-1,0
1523631879897,-65536,96,-56,-1,-1,0
1523631879897,-589824,96,-56,-1,-1,0
1523631879897,-1048576,96,-56,-1,-1,0
1523631879897,-1114112,96,-56,-1,-1,0
1523631879937,-1114112,96,-56,-1,-1,0
1523631879937,-1114112,96,-56,-1,-1,0
1523631879937,-1179648,96,-56,-1,-1,0
1523631879937,-524288,96,-56,-1,-1,0
1523631879937,2621440,96,-56,-1,-1,0
1523631879977,7929856,96,-56,-1,-1,0
1523631879977,8650752,96,-56,-1,-1,0
1523631879977,1835008,96,-56,-1,-1,0
1523631879977,-5177344,96,-56,-1,-1,0
1523631879977,-6160384,96,-56,-1,-1,0
1523631880017,-3735552,96,-56,-1,-1,0
1523631880017,-2031616,96,-56,-1,-1,0
1523631880017,-1507328,96,-56,-1,-1,0
1523631880017,-1572864,96,-56,-1,-1,0
1523631880017,-1638400,96,-56,-1,-1,0
1523631880057,-1507328,96,-56,-1,-1,0
1523631880057,-1310720,96,-56,-1,-1,0
1523631880057,-1245184,96,-56,-1,-1,0
1523631880057,-1048576,96,-56,-1,-1,0
1523631880057,-786432,96,-56,-1,-1,0
1523631880097,-589824,96,-56,-1,-1,0
1523631880097,-524288,96,-56,-1,-1,0
1523631880097,-262144,96,-56,-1,-1,0
1523631880097,196608,96,-56,-1,-1,0
1523631880097,851968,96,-56,-1,-1,0
1523631880137,1376256,96,-56,-1,-1,0
1523631880137,1900544,96,-56,-1,-1,0
1523631880137,2228224,96,-56,-1,-1,0
1523631880137,2621440,96,-56,-1,-1,0
1523631880137,3211264,96,-56,-1,-1,0
1523631880177,3997696,96,-56,-1,-1,0
1523631880177,4653056,96,-56,-1,-1,0
1523631880177,4915200,96,-56,-1,-1,0
1523631880177,4980736,96,-56,-1,-1,0
1523631880177,5046272,96,-56,-1,-1,0
1523631880217,4784128,96,-56,-1,-1,0
1523631880217,4194304,96,-56,-1,-1,0
1523631880217,3342336,96,-56,-1,-1,0
1523631880217,2293760,96,-56,-1,-1,0
1523631880217,1310720,96,-56,-1,-1,0
1523631880257,589824,96,-56,-1,-1,0
1523631880257,131072,96,-56,-1,-1,0
1523631880257,-131072,96,-56,-1,-1,0
1523631880257,-196608,96,-56,-1,-1,0
1523631880257,-131072,96,-56,-1,-1,0
1523631880297,-65536,96,-56,-1,-1,0
1523631880297,-65536,96,-56,-1,-1,0
1523631880297,-327680,96,-56,-1,-1,0
1523631880297,-589824,96,-56,-1,-1,0
1523631880297,-393216,96,-56,-1,-1,0
1523631880337,-131072,96,-56,-1,-1,0
1523631880337,-262144,96,-56,-1,-1,0
1523631880337,-589824,96,-56,-1,-1,0
1523631880337,-720896,96,-56,-1,-1,0
1523631880337,-720896,96,-56,-1,-1,0
1523631880379,-786432,96,-56,-1,-1,0
1523631880379,-917504,96,-56,-1,-1,0
1523631880379,-983040,96,-56,-1,-1,0
1523631880379,-983040,96,-56,-1,-1,0
1523631880379,-1114112,96,-56,-1,-1,0
1523631880417,-1179648,96,-56,-1,-1,0
1523631880417,-983040,96,-56,-1,-1,0
1523631880417,-851968,96,-56,-1,-1,0
1523631880417,-983040,96,-56,-1,-1,0
1523631880417,-1245184,96,-56,-1,-1,0
1523631880457,-1376256,96,-56,-1,-1,0
1523631880457,-1507328,96,-56,-1,-1,0
1523631880457,-1572864,96,-56,-1,-1,0
1523631880457,-1572864,96,-56,-1,-1,0
1523631880457,-1376256,96,-56,-1,-1,0
1523631880497,-917504,95,-56,-1,-1,0
1523631880497,-458752,95,-56,-1,-1,0
1523631880497,-262144,95,-56,-1,-1,0
1523631880497,-524288,95,-56,-1,-1,0
1523631880497,-917504,95,-56,-1,-1,0
1523631880537,-1048576,95,-56,-1,-1,0
1523631880537,-983040,95,-56,-1,-1,0
1523631880537,-1114112,95,-56,-1,-1,0
1523631880537,-1245184,95,-56,-1,-1,0
1523631880537,-327680,95,-56,-1,-1,0
1523631880577,3342336,95,-56,-1,-1,0
1523631880577,7929856,95,-56,-1,-1,0
1523631880577,6815744,95,-56,-1,-1,0
1523631880577,-327680,95,-56,-1,-1,0
1523631880577,-5963776,95,-56,-1,-1,0
1523631880617,-6029312,95,-56,-1,-1,0
1523631880617,-3735552,95,-56,-1,-1,0
1523631880617,-2228224,95,-56,-1,-1,0
1523631880617,-1638400,95,-56,-1,-1,0
1523631880617,-1507328,95,-56,-1,-1,0
1523631880657,-1441792,95,-56,-1,-1,0
1523631880657,-1310720,95,-56,-1,-1,0
1523631880657,-1048576,95,-56,-1,-1,0
1523631880657,-851968,95,-56,-1,-1,0
1523631880657,-851968,95,-56,-1,-1,0
1523631880697,-917504,95,-56,-1,-1,0
1523631880697,-786432,95,-56,-1,-1,0
1523631880697,-524288,95,-56,-1,-1,0
1523631880697,-131072,95,-56,-1,-1,0
1523631880697,65536,95,-56,-1,-1,0
1523631880737,458752,95,-56,-1,-1,0
1523631880737,786432,95,-56,-1,-1,0
1523631880737,1245184,95,-56,-1,-1,0
1523631880737,2228224,95,-56,-1,-1,0
1523631880737,3276800,95,-56,-1,-1,0
1523631880777,3735552,95,-56,-1,-1,0
1523631880777,3801088,95,-56,-1,-1,0
1523631880777,4063232,95,-56,-1,-1,0
1523631880777,4390912,95,-56,-1,-1,0
1523631880777,4587520,95,-56,-1,-1,0
1523631880817,4587520,95,-56,-1,-1,0
1523631880817,4194304,95,-56,-1,-1,0
1523631880817,3473408,95,-56,-1,-1,0
1523631880817,2818048,95,-56,-1,-1,0
1523631880817,2228224,95,-56,-1,-1,0
1523631880857,1441792,95,-56,-1,-1,0
1523631880857,458752,95,-56,-1,-1,0
1523631880857,-65536,95,-56,-1,-1,0
1523631880857,-65536,95,-56,-1,-1,0
1523631880857,0,95,-56,-1,-1,0
1523631880897,0,95,-56,-1,-1,0
1523631880897,-65536,95,-56,-1,-1,0
1523631880897,-196608,95,-56,-1,-1,0
1523631880897,-262144,95,-56,-1,-1,0
1523631880897,-262144,95,-56,-1,-1,0
1523631880937,-262144,95,-56,-1,-1,0
1523631880937,-327680,95,-56,-1,-1,0
1523631880937,-393216,95,-56,-1,-1,0
1523631880937,-524288,95,-56,-1,-1,0
1523631880937,-524288,95,-56,-1,-1,0
1523631880977,-589824,95,-56,-1,-1,0
1523631880977,-655360,95,-56,-1,-1,0
1523631880977,-786432,95,-56,-1,-1,0
1523631880977,-851968,95,-56,-1,-1,0
1523631880977,-851968,95,-56,-1,-1,0
1523631881019,-786432,95,-56,-1,-1,0
1523631881019,-786432,95,-56,-1,-1,0
1523631881019,-851968,95,-56,-1,-1,0
1523631881019,-458752,95,-56,-1,-1,0
1523631881019,-524288,95,-56,-1,-1,0
1523631881057,-1179648,95,-56,-1,-1,0
1523631881057,-1638400,95,-56,-1,-1,0
1523631881057,-1638400,95,-56,-1,-1,0
1523631881057,-1572864,95,-56,-1,-1,0
1523631881057,-1572864,95,-56,-1,-1,0
1523631881097,-1638400,95,-56,-1,-1,0
1523631881097,-1769472,95,-56,-1,-1,0
1523631881097,-1769472,95,-56,-1,-1,0
1523631881097,-1572864,95,-56,-1,-1,0
1523631881097,-1048576,95,-56,-1,-1,0
1523631881137,-589824,94,-56,-1,-1,0
1523631881137,-393216,94,-56,-1,-1,0
1523631881137,-589824,94,-56,-1,-1,0
1523631881137,-851968,94,-56,-1,-1,0
1523631881137,-917504,94,-56,-1,-1,0
1523631881177,-1114112,94,-56,-1,-1,0
1523631881177,-1245184,94,-56,-1,-1,0
1523631881177,-1310720,94,-56,-1,-1,0
1523631881177,-524288,94,-56,-1,-1,0
1523631881177,2883584,94,-56,-1,-1,0
1523631881217,8192000,94,-56,-1,-1,0
1523631881217,8585216,94,-56,-1,-1,0
1523631881217,1703936,94,-56,-1,-1,0
1523631881217,-5373952,94,-56,-1,-1,0
1523631881217,-6619136,94,-56,-1,-1,0
1523631881257,-4456448,94,-56,-1,-1,0
1523631881257,-2555904,94,-56,-1,-1,0
1523631881257,-1835008,94,-56,-1,-1,0
1523631881257,-1638400,94,-56,-1,-1,0
1523631881257,-1507328,94,-56,-1,-1,0
1523631881297,-1507328,94,-56,-1,-1,0
1523631881297,-1310720,94,-56,-1,-1,0
1523631881297,-1114112,94,-56,-1,-1,0
1523631881297,-851968,94,-56,-1,-1,0
1523631881297,-589824,94,-56,-1,-1,0
1523631881338,-458752,94,-56,-1,-1,0
1523631881338,-458752,94,-56,-1,-1,0
1523631881338,-131072,94,-56,-1,-1,0
1523631881338,262144,94,-56,-1,-1,0
1523631881338,524288,94,-56,-1,-1,0
1523631881377,720896,94,-56,-1,-1,0
1523631881377,1114112,94,-56,-1,-1,0
1523631881377,1769472,94,-56,-1,-1,0
1523631881377,2490368,94,-56,-1,-1,0
1523631881377,3211264,94,-56,-1,-1,0
1523631881417,3735552,94,-56,-1,-1,0
1523631881417,4194304,94,-56,-1,-1,0
1523631881417,4653056,94,-56,-1,-1,0
1523631881417,5111808,94,-56,-1,-1,0
1523631881417,5111808,94,-56,-1,-1,0
1523631881457,4653056,94,-56,-1,-1,0
1523631881457,4063232,94,-56,-1,-1,0
1523631881457,3211264,94,-56,-1,-1,0
1523631881457,2031616,94,-56,-1,-1,0
1523631881457,983040,94,-56,-1,-1,0
1523631881497,327680,94,-56,-1,-1,0
1523631881497,0,94,-56,-1,-1,0
1523631881497,-327680,94,-56,-1,-1,0
1523631881497,-458752,94,-56,-1,-1,0
1523631881497,-393216,94,-56,-1,-1,0
1523631881537,-327680,94,-56,-1,-1,0
1523631881537,-327680,94,-56,-1,-1,0
1523631881537,-327680,94,-56,-1,-1,0
1523631881537,-327680,94,-56,-1,-1,0
1523631881537,-393216,94,-56,-1,-1,0
1523631881578,-458752,94,-56,-1,-1,0
1523631881578,-589824,94,-56,-1,-1,0
1523631881578,-589824,94,-56,-1,-1,0
1523631881578,-655360,94,-56,-1,-1,0
1523631881578,-786432,94,-56,-1,-1,0
1523631881617,-917504,94,-56,-1,-1,0
1523631881617,-917504,94,-56,-1,-1,0
1523631881617,-983040,94,-56,-1,-1,0
1523631881617,-1114112,94,-56,-1,-1,0
1523631881617,-1245184,94,-56,-1,-1,0
1523631881659,-1245184,94,-56,-1,-1,0
1523631881659,-1245184,94,-56,-1,-1,0
1523631881659,-1245184,94,-56,-1,-1,0
1523631881659,-1245184,94,-56,-1,-1,0
1523631881659,-1245184,94,-56,-1,-1,0
1523631881697,-1310720,94,-56,-1,-1,0
1523631881697,-1441792,94,-56,-1,-1,0
1523631881697,-1507328,94,-56,-1,-1,0
1523631881697,-1507328,94,-56,-1,-1,0
1523631881697,-1507328,94,-56,-1,-1,0
1523631881738,-1638400,94,-56,-1,-1,0
1523631881738,-1769472,94,-56,-1,-1,0
1523631881738,-1900544,94,-56,-1,-1,0
1523631881738,-2031616,94,-56,-1,-1,0
1523631881738,-1835008,94,-56,-1,-1,0
1523631881777,-1245184,94,-56,-1,-1,0
1523631881777,-655360,94,-56,-1,-1,0
1523631881777,-589824,94,-56,-1,-1,0
1523631881777,-917504,94,-56,-1,-1,0
1523631881777,-1310720,94,-56,-1,-1,0
1523631881818,-1507328,94,-56,-1,-1,0
1523631881818,-1441792,94,-56,-1,-1,0
1523631881818,-1310720,94,-56,-1,-1,0
1523631881818,-917504,94,-56,-1,-1,0
1523631881818,1310720,94,-56,-1,-1,0
1523631881857,6684672,94,-56,-1,-1,0
1523631881857,9830400,94,-56,-1,-1,0
1523631881857,5111808,94,-56,-1,-1,0
1523631881857,-3211264,94,-56,-1,-1,0
1523631881857,-6619136,94,-56,-1,-1,0
1523631881898,-5046272,94,-56,-1,-1,0
1523631881898,-2883584,94,-56,-1,-1,0
1523631881898,-1900544,94,-56,-1,-1,0
1523631881898,-1572864,94,-56,-1,-1,0
1523631881898,-1572864,94,-56,-1,-1,0
1523631881937,-1572864,94,-56,-1,-1,0
1523631881937,-1441792,94,-56,-1,-1,0
1523631881937,-1245184,94,-56,-1,-1,0
1523631881937,-1048576,94,-56,-1,-1,0
1523631881937,-917504,94,-56,-1,-1,0
1523631881978,-720896,94,-56,-1,-1,0
1523631881978,-458752,94,-56,-1,-1,0
1523631881978,-327680,94,-56,-1,-1,0
1523631881978,-131072,94,-56,-1,-1,0
1523631881978,262144,94,-56,-1,-1,0
1523631882017,786432,94,-56,-1,-1,0
1523631882017,1179648,94,-56,-1,-1,0
1523631882017,1507328,94,-56,-1,-1,0
1523631882017,1966080,94,-56,-1,-1,0
1523631882017,2424832,94,-56,-1,-1,0
1523631882057,2949120,94,-56,-1,-1,0
1523631882057,3407872,94,-56,-1,-1,0
1523631882057,3801088,94,-56,-1,-1,0
1523631882057,3997696,94,-56,-1,-1,0
1523631882057,3997696,94,-56,-1,-1,0
1523631882099,3801088,94,-56,-1,-1,0
1523631882099,3211264,94,-56,-1,-1,0
1523631882099,2359296,94,-56,-1,-1,0
1523631882099,1572864,94,-56,-1,-1,0
1523631882099,1179648,94,-56,-1,-1,0
1523631882138,851968,94,-56,-1,-1,0
1523631882138,262144,94,-56,-1,-1,0
1523631882138,-65536,94,-56,-1,-1,0
1523631882138,-262144,94,-56,-1,-1,0
1523631882138,-327680,94,-56,-1,-1,0
1523631882177,-458752,94,-56,-1,-1,0
1523631882177,-393216,94,-56,-1,-1,0
1523631882177,-393216,94,-56,-1,-1,0
1523631882177,-393216,94,-56,-1,-1,0
1523631882177,-524288,94,-56,-1,-1,0
1523631882218,-524288,94,-56,-1,-1,0
1523631882218,-458752,94,-56,-1,-1,0
1523631882218,-524288,94,-56,-1,-1,0
1523631882218,-589824,94,-56,-1,-1,0
1523631882218,-589824,94,-56,-1,-1,0
1523631882257,-524288,94,-56,-1,-1,0
1523631882257,-589824,94,-56,-1,-1,0
1523631882257,-786432,94,-56,-1,-1,0
1523631882257,-983040,94,-56,-1,-1,0
1523631882257,-1114112,94,-56,-1,-1,0
1523631882300,-1179648,94,-56,-1,-1,0
1523631882300,-1179648,94,-56,-1,-1,0
1523631882300,-1114112,94,-56,-1,-1,0
1523631882300,-1114112,94,-56,-1,-1,0
1523631882300,-1179648,94,-56,-1,-1,0
1523631882337,-1245184,94,-56,-1,-1,0
1523631882337,-1310720,94,-56,-1,-1,0
1523631882337,-1245184,94,-56,-1,-1,0
1523631882337,-1179648,94,-56,-1,-1,0
1523631882337,-1245184,94,-56,-1,-1,0
1523631882378,-1179648,94,-56,-1,-1,0
1523631882378,-1048576,94,-56,-1,-1,0
1523631882378,-1114112,94,-56,-1,-1,0
1523631882378,-1310720,94,-56,-1,-1,0
1523631882378,-1638400,94,-56,-1,-1,0
1523631882418,-1966080,94,-56,-1,-1,0
1523631882418,-2031616,94,-56,-1,-1,0
1523631882418,-1703936,94,-56,-1,-1,0
1523631882418,-1179648,94,-56,-1,-1,0
1523631882418,-655360,94,-56,-1,-1,0
1523631882458,-327680,94,-56,-1,-1,0
1523631882458,-655360,94,-56,-1,-1,0
1523631882458,-1114112,94,-56,-1,-1,0
1523631882458,-1245184,94,-56,-1,-1,0
1523631882458,-983040,94,-56,-1,-1,0
1523631882497,-917504,94,-56,-1,-1,0
1523631882497,-983040,94,-56,-1,-1,0
1523631882497,-720896,94,-56,-1,-1,0
1523631882497,1179648,94,-56,-1,-1,0
1523631882497,6291456,94,-56,-1,-1,0
1523631882539,10354688,94,-56,-1,-1,0
1523631882539,6946816,94,-56,-1,-1,0
1523631882539,-1310720,94,-56,-1,-1,0
1523631882539,-5767168,94,-56,-1,-1,0
1523631882539,-4653056,94,-56,-1,-1,0
1523631882577,-2555904,94,-56,-1,-1,0
1523631882577,-1572864,94,-56,-1,-1,0
1523631882577,-1441792,94,-56,-1,-1,0
1523631882577,-1245184,94,-56,-1,-1,0
1523631882577,-1179648,94,-56,-1,-1,0
1523631882618,-1179648,94,-56,-1,-1,0
1523631882618,-1179648,94,-56,-1,-1,0
1523631882618,-983040,94,-56,-1,-1,0
1523631882618,-786432,94,-56,-1,-1,0
1523631882618,-589824,94,-56,-1,-1,0
1523631882657,-393216,94,-56,-1,-1,0
1523631882657,-196608,94,-56,-1,-1,0
1523631882657,196608,94,-56,-1,-1,0
1523631882657,655360,94,-56,-1,-1,0
1523631882657,1048576,94,-56,-1,-1,0
1523631882698,1441792,94,-56,-1,-1,0
1523631882698,1835008,94,-56,-1,-1,0
1523631882698,2228224,94,-56,-1,-1,0
1523631882698,2818048,94,-56,-1,-1,0
1523631882698,3407872,94,-56,-1,-1,0
1523631882737,3997696,94,-56,-1,-1,0
1523631882737,4325376,94,-56,-1,-1,0
1523631882737,4521984,94,-56,-1,-1,0
1523631882737,4718592,94,-56,-1,-1,0
1523631882737,4915200,94,-56,-1,-1,0
1523631882778,4718592,94,-56,-1,-1,0
1523631882778,4259840,94,-56,-1,-1,0
1523631882778,3211264,94,-56,-1,-1,0
1523631882778,1966080,94,-56,-1,-1,0
1523631882778,1114112,94,-56,-1,-1,0
1523631882817,786432,93,-56,-1,-1,0
1523631882817,458752,93,-56,-1,-1,0
1523631882817,131072,93,-56,-1,-1,0
1523631882817,65536,93,-56,-1,-1,0
1523631882817,262144,93,-56,-1,-1,0
1523631882857,458752,93,-56,-1,-1,0
1523631882857,196608,93,-56,-1,-1,0
1523631882857,-196608,93,-56,-1,-1,0
1523631882857,-327680,93,-56,-1,-1,0
1523631882857,-196608,93,-56,-1,-1,0
1523631882897,-131072,93,-56,-1,-1,0
1523631882897,-65536,93,-56,-1,-1,0
1523631882897,-65536,93,-56,-1,-1,0
1523631882897,-131072,93,-56,-1,-1,0
1523631882897,-196608,93,-56,-1,-1,0
1523631882939,-262144,93,-56,-1,-1,0
1523631882939,-262144,93,-56,-1,-1,0
1523631882939,-327680,93,-56,-1,-1,0
1523631882939,-262144,93,-56,-1,-1,0
1523631882939,-65536,93,-56,-1,-1,0
1523631882978,-196608,93,-56,-1,-1,0
1523631882978,-589824,93,-56,-1,-1,0
1523631882978,-720896,93,-56,-1,-1,0
1523631882978,-720896,93,-56,-1,-1,0
1523631882978,-851968,93,-56,-1,-1,0
1523631883018,-983040,93,-56,-1,-1,0
1523631883018,-786432,93,-56,-1,-1,0
1523631883018,-524288,93,-56,-1,-1,0
1523631883018,-393216,93,-56,-1,-1,0
1523631883018,-589824,93,-56,-1,-1,0
1523631883058,-655360,93,-56,-1,-1,0
1523631883058,-720896,93,-56,-1,-1,0
1523631883058,-589824,93,-56,-1,-1,0
1523631883058,-524288,93,-56,-1,-1,0
1523631883058,-589824,93,-56,-1,-1,0
1523631883098,-786432,93,-56,-1,-1,0
1523631883098,-917504,93,-56,-1,-1,0
1523631883098,-786432,93,-56,-1,-1,0
1523631883098,-720896,93,-56,-1,-1,0
1523631883098,-786432,93,-56,-1,-1,0
1523631883137,-851968,93,-56,-1,-1,0
1523631883137,-786432,93,-56,-1,-1,0
1523631883137,-851968,93,-56,-1,-1,0
1523631883137,-851968,93,-56,-1,-1,0
1523631883137,-851968,93,-56,-1,-1,0
1523631883178,-917504,93,-56,-1,-1,0
1523631883178,-917504,93,-56,-1,-1,0
1523631883178,-917504,93,-56,-1,-1,0
1523631883178,-917504,93,-56,-1,-1,0
1523631883178,-917504,93,-56,-1,-1,0
1523631883217,-786432,93,-56,-1,-1,0
1523631883217,-786432,93,-56,-1,-1,0
1523631883217,-1048576,93,-56,-1,-1,0
1523631883217,-1114112,93,-56,-1,-1,0
1523631883217,-1048576,93,-56,-1,-1,0
1523631883258,-917504,93,-56,-1,-1,0
1523631883258,-851968,93,-56,-1,-1,0
1523631883258,-851968,93,-56,-1,-1,0
1523631883258,-851968,93,-56,-1,-1,0
1523631883258,-917504,93,-56,-1,-1,0
1523631883298,-1048576,93,-56,-1,-1,0
1523631883298,-1048576,93,-56,-1,-1,0
1523631883298,-983040,93,-56,-1,-1,0
1523631883298,-983040,93,-56,-1,-1,0
1523631883298,-1048576,93,-56,-1,-1,0
1523631883338,-983040,93,-56,-1,-1,0
1523631883338,-851968,93,-56,-1,-1,0
1523631883338,-786432,93,-56,-1,-1,0
1523631883338,-917504,93,-56,-1,-1,0
1523631883338,-1048576,93,-56,-1,-1,0
1523631883378,-1048576,93,-56,-1,-1,0
1523631883378,-1048576,93,-56,-1,-1,0
1523631883378,-1114112,93,-56,-1,-1,0
1523631883378,-1245184,93,-56,-1,-1,0
1523631883378,-1376256,93,-56,-1,-1,0
1523631883418,-1376256,93,-56,-1,-1,0
1523631883418,-983040,93,-56,-1,-1,0
1523631883418,-393216,93,-56,-1,-1,0
1523631883418,131072,93,-56,-1,-1,0
1523631883418,196608,93,-56,-1,-1,0
1523631883457,-65536,93,-56,-1,-1,0
1523631883457,-327680,93,-56,-1,-1,0
1523631883457,-589824,93,-56,-1,-1,0
1523631883457,-851968,93,-56,-1,-1,0
1523631883457,-851968,93,-56,-1,-1,0
1523631883498,-786432,93,-56,-1,-1,0
1523631883498,-851968,93,-56,-1,-1,0
1523631883498,0,93,-56,-1,-1,0
1523631883498,3866624,93,-56,-1,-1,0
1523631883498,8978432,93,-56,-1,-1,0
1523631883537,8454144,93,-56,-1,-1,0
1523631883537,1310720,93,-56,-1,-1,0
1523631883537,-4849664,93,-56,-1,-1,0
1523631883537,-5505024,93,-56,-1,-1,0
1523631883537,-3407872,93,-56,-1,-1,0
1523631883579,-1900544,93,-56,-1,-1,0
1523631883579,-1507328,93,-56,-1,-1,0
1523631883579,-1572864,93,-56,-1,-1,0
1523631883579,-1507328,93,-56,-1,-1,0
1523631883579,-1310720,93,-56,-1,-1,0
1523631883617,-1048576,93,-56,-1,-1,0
1523631883617,-983040,93,-56,-1,-1,0
1523631883617,-851968,93,-56,-1,-1,0
1523631883617,-720896,93,-56,-1,-1,0
1523631883617,-589824,93,-56,-1,-1,0
1523631883658,-393216,93,-56,-1,-1,0
1523631883658,0,93,-56,-1,-1,0
1523631883658,262144,93,-56,-1,-1,0
1523631883658,327680,93,-56,-1,-1,0
1523631883658,524288,93,-56,-1,-1,0
1523631883697,1048576,93,-56,-1,-1,0
1523631883697,1572864,93,-56,-1,-1,0
1523631883697,2097152,93,-56,-1,-1,0
1523631883697,2621440,93,-56,-1,-1,0
1523631883697,3145728,93,-56,-1,-1,0
1523631883738,3735552,93,-56,-1,-1,0
1523631883738,4390912,93,-56,-1,-1,0
1523631883738,4784128,93,-56,-1,-1,0
1523631883738,4980736,93,-56,-1,-1,0
1523631883738,5177344,93,-56,-1,-1,0
1523631883777,5046272,93,-56,-1,-1,0
1523631883777,4456448,93,-56,-1,-1,0
1523631883777,3670016,93,-56,-1,-1,0
1523631883777,3014656,93,-56,-1,-1,0
1523631883777,2359296,93,-56,-1,-1,0
1523631883818,1703936,93,-56,-1,-1,0
1523631883818,1179648,93,-56,-1,-1,0
1523631883818,655360,93,-56,-1,-1,0
1523631883818,262144,93,-56,-1,-1,0
1523631883818,0,93,-56,-1,-1,0
1523631883857,-196608,93,-56,-1,-1,0
1523631883857,-196608,93,-56,-1,-1,0
1523631883857,-65536,93,-56,-1,-1,0
1523631883857,-65536,93,-56,-1,-1,0
1523631883857,-131072,93,-56,-1,-1,0
1523631883898,-262144,93,-56,-1,-1,0
1523631883898,-393216,93,-56,-1,-1,0
1523631883898,-589824,93,-56,-1,-1,0
1523631883898,-589824,93,-56,-1,-1,0
1523631883898,-720896,93,-56,-1,-1,0
1523631883938,-851968,93,-56,-1,-1,0
1523631883938,-851968,93,-56,-1,-1,0
1523631883938,-851968,93,-56,-1,-1,0
1523631883938,-917504,93,-56,-1,-1,0
1523631883938,-1048576,93,-56,-1,-1,0
1523631883978,-1048576,93,-56,-1,-1,0
1523631883978,-983040,93,-56,-1,-1,0
1523631883978,-917504,93,-56,-1,-1,0
1523631883978,-983040,93,-56,-1,-1,0
1523631883978,-1245184,93,-56,-1,-1,0
1523631884017,-1376256,93,-56,-1,-1,0
1523631884017,-1310720,93,-56,-1,-1,0
1523631884017,-1048576,93,-56,-1,-1,0
1523631884017,-1114112,93,-56,-1,-1,0
1523631884017,-1245184,93,-56,-1,-1,0
1523631884057,-1310720,93,-56,-1,-1,0
1523631884057,-1245184,93,-56,-1,-1,0
1523631884057,-1245184,93,-56,-1,-1,0
1523631884057,-1310720,93,-56,-1,-1,0
1523631884057,-1310720,93,-56,-1,-1,0
1523631884097,-1245184,93,-56,-1,-1,0
1523631884097,-1179648,93,-56,-1,-1,0
1523631884097,-1114112,93,-56,-1,-1,0
1523631884097,-1245184,93,-56,-1,-1,0
1523631884097,-1376256,93,-56,-1,-1,0
1523631884137,-1441792,93,-56,-1,-1,0
1523631884137,-1441792,93,-56,-1,-1,0
1523631884137,-1376256,93,-56,-1,-1,0
1523631884137,-1245184,93,-56,-1,-1,0
1523631884137,-1245184,93,-56,-1,-1,0
1523631884177,-1376256,93,-56,-1,-1,0
1523631884177,-1572864,93,-56,-1,-1,0
1523631884177,-1638400,93,-56,-1,-1,0
1523631884177,-1441792,93,-56,-1,-1,0
1523631884177,-1179648,93,-56,-1,-1,0
1523631884219,-983040,93,-56,-1,-1,0
1523631884219,-720896,93,-56,-1,-1,0
1523631884219,-393216,93,-56,-1,-1,0
1523631884219,-131072,93,-56,-1,-1,0
1523631884219,-196608,93,-56,-1,-1,0
1523631884257,-524288,93,-56,-1,-1,0
1523631884257,-983040,93,-56,-1,-1,0
1523631884257,-1179648,93,-56,-1,-1,0
1523631884257,-1245184,93,-56,-1,-1,0
1523631884257,-1179648,93,-56,-1,-1,0
1523631884297,-1114112,93,-56,-1,-1,0
1523631884297,-655360,93,-56,-1,-1,0
1523631884297,1900544,93,-56,-1,-1,0
1523631884297,7602176,93,-56,-1,-1,0
1523631884297,10289152,93,-56,-1,-1,0
1523631884337,4980736,93,-56,-1,-1,0
1523631884337,-3276800,93,-56,-1,-1,0
1523631884337,-6225920,93,-56,-1,-1,0
1523631884337,-4456448,93,-56,-1,-1,0
1523631884337,-2424832,93,-56,-1,-1,0
1523631884377,-1769472,93,-56,-1,-1,0
1523631884377,-1638400,93,-56,-1,-1,0
1523631884377,-1441792,93,-56,-1,-1,0
1523631884377,-1245184,93,-56,-1,-1,0
1523631884377,-1114112,93,-56,-1,-1,0
1523631884417,-1048576,93,-56,-1,-1,0
1523631884417,-983040,93,-56,-1,-1,0
1523631884417,-786432,93,-56,-1,-1,0
1523631884417,-589824,93,-56,-1,-1,0
1523631884417,-327680,93,-56,-1,-1,0
1523631884457,0,93,-56,-1,-1,0
1523631884457,196608,93,-56,-1,-1,0
1523631884457,458752,93,-56,-1,-1,0
1523631884457,786432,93,-56,-1,-1,0
1523631884457,1179648,93,-56,-1,-1,0
1523631884497,1638400,93,-56,-1,-1,0
1523631884497,2162688,93,-56,-1,-1,0
1523631884497,2752512,93,-56,-1,-1,0
1523631884497,3276800,93,-56,-1,-1,0
1523631884497,3801088,93,-56,-1,-1,0
1523631884537,4128768,93,-56,-1,-1,0
1523631884537,4390912,93,-56,-1,-1,0
1523631884537,4456448,93,-56,-1,-1,0
1523631884537,4521984,93,-56,-1,-1,0
1523631884537,4325376,93,-56,-1,-1,0
1523631884577,3801088,93,-56,-1,-1,0
1523631884577,3014656,93,-56,-1,-1,0
1523631884577,2162688,93,-56,-1,-1,0
1523631884577,1507328,93,-56,-1,-1,0
1523631884577,1114112,93,-56,-1,-1,0
1523631884617,589824,93,-56,-1,-1,0
1523631884617,131072,93,-56,-1,-1,0
1523631884617,-131072,93,-56,-1,-1,0
1523631884617,-196608,93,-56,-1,-1,0
1523631884617,-196608,93,-56,-1,-1,0
1523631884657,-131072,93,-56,-1,-1,0
1523631884657,-65536,93,-56,-1,-1,0
1523631884657,-131072,93,-56,-1,-1,0
1523631884657,-131072,93,-56,-1,-1,0
1523631884657,-196608,93,-56,-1,-1,0
1523631884697,-196608,93,-56,-1,-1,0
1523631884697,-327680,93,-56,-1,-1,0
1523631884697,-524288,93,-56,-1,-1,0
1523631884697,-524288,93,-56,-1,-1,0
1523631884697,-393216,93,-56,-1,-1,0
1523631884737,-393216,93,-56,-1,-1,0
1523631884737,-589824,93,-56,-1,-1,0
1523631884737,-786432,93,-56,-1,-1,0
1523631884737,-786432,93,-56,-1,-1,0
1523631884737,-720896,93,-56,-1,-1,0
1523631884777,-720896,93,-56,-1,-1,0
1523631884777,-786432,93,-56,-1,-1,0
1523631884777,-917504,93,-56,-1,-1,0
1523631884777,-983040,93,-56,-1,-1,0
1523631884777,-917504,93,-56,-1,-1,0
1523631884817,-917504,93,-56,-1,-1,0
1523631884817,-983040,93,-56,-1,-1,0
1523631884817,-983040,93,-56,-1,-1,0
1523631884817,-983040,93,-56,-1,-1,0
1523631884817,-917504,93,-56,-1,-1,0
1523631884859,-983040,93,-56,-1,-1,0
1523631884859,-1048576,93,-56,-1,-1,0
1523631884859,-1048576,93,-56,-1,-1,0
1523631884859,-917504,93,-56,-1,-1,0
1523631884859,-851968,93,-56,-1,-1,0
1523631884897,-917504,93,-56,-1,-1,0
1523631884897,-1048576,93,-56,-1,-1,0
1523631884897,-1179648,93,-56,-1,-1,0
1523631884897,-1179648,93,-56,-1,-1,0
1523631884897,-1179648,93,-56,-1,-1,0
1523631884937,-1114112,93,-56,-1,-1,0
1523631884937,-851968,93,-56,-1,-1,0
1523631884937,-786432,93,-56,-1,-1,0
1523631884937,-786432,93,-56,-1,-1,0
1523631884937,-851968,93,-56,-1,-1,0
1523631884977,-1048576,93,-56,-1,-1,0
1523631884977,-1245184,93,-56,-1,-1,0
1523631884977,-1376256,93,-56,-1,-1,0
1523631884977,-1245184,93,-56,-1,-1,0
1523631884977,-917504,93,-56,-1,-1,0
1523631885017,-458752,93,-56,-1,-1,0
1523631885017,-131072,93,-56,-1,-1,0
1523631885017,65536,93,-56,-1,-1,0
1523631885017,131072,93,-56,-1,-1,0
1523631885017,-65536,93,-56,-1,-1,0
1523631885057,-589824,93,-56,-1,-1,0
1523631885057,-983040,93,-56,-1,-1,0
1523631885057,-1048576,93,-56,-1,-1,0
1523631885057,-983040,93,-56,-1,-1,0
1523631885057,-1048576,93,-56,-1,-1,0
1523631885097,-589824,93,-56,-1,-1,0
1523631885097,1966080,93,-56,-1,-1,0
1523631885097,7929856,93,-56,-1,-1,0
1523631885097,10944512,93,-56,-1,-1,0
1523631885097,5767168,93,-56,-1,-1,0
1523631885137,-2686976,93,-56,-1,-1,0
1523631885137,-5832704,93,-56,-1,-1,0
1523631885137,-3997696,93,-56,-1,-1,0
1523631885137,-2162688,93,-56,-1,-1,0
1523631885137,-1703936,93,-56,-1,-1,0
1523631885177,-1572864,92,-56,-1,-1,0
1523631885177,-1179648,92,-56,-1,-1,0
1523631885177,-1048576,92,-56,-1,-1,0
1523631885177,-1114112,92,-56,-1,-1,0
1523631885177,-1048576,92,-56,-1,-1,0
1523631885217,-655360,92,-56,-1,-1,0
1523631885217,-589824,92,-56,-1,-1,0
1523631885217,-851968,92,-56,-1,-1,0
1523631885217,-589824,92,-56,-1,-1,0
1523631885217,0,92,-56,-1,-1,0
1523631885257,524288,92,-56,-1,-1,0
1523631885257,851968,92,-56,-1,-1,0
1523631885257,1310720,92,-56,-1,-1,0
1523631885257,1703936,92,-56,-1,-1,0
1523631885257,1966080,92,-56,-1,-1,0
1523631885297,2228224,92,-56,-1,-1,0
1523631885297,2686976,92,-56,-1,-1,0
1523631885297,3342336,92,-56,-1,-1,0
1523631885297,4128768,92,-56,-1,-1,0
1523631885297,4653056,92,-56,-1,-1,0
1523631885337,4915200,92,-56,-1,-1,0
1523631885337,4980736,92,-56,-1,-1,0
1523631885337,5046272,92,-56,-1,-1,0
1523631885337,4915200,92,-56,-1,-1,0
1523631885337,4456448,92,-56,-1,-1,0
1523631885377,3604480,92,-56,-1,-1,0
1523631885377,2555904,92,-56,-1,-1,0
1523631885377,1638400,92,-56,-1,-1,0
1523631885377,983040,92,-56,-1,-1,0
1523631885377,458752,92,-56,-1,-1,0
1523631885417,131072,92,-56,-1,-1,0
1523631885417,0,92,-56,-1,-1,0
1523631885417,-262144,92,-56,-1,-1,0
1523631885417,-131072,92,-56,-1,-1,0
1523631885417,-65536,92,-56,-1,-1,0
1523631885457,-196608,92,-56,-1,-1,0
1523631885457,-524288,92,-56,-1,-1,0
1523631885457,-458752,92,-56,-1,-1,0
1523631885457,-196608,92,-56,-1,-1,0
1523631885457,-131072,92,-56,-1,-1,0
1523631885499,-393216,92,-56,-1,-1,0
1523631885499,-589824,92,-56,-1,-1,0
1523631885499,-589824,92,-56,-1,-1,0
1523631885499,-589824,92,-56,-1,-1,0
1523631885499,-655360,92,-56,-1,-1,0
1523631885537,-720896,92,-56,-1,-1,0
1523631885537,-655360,92,-56,-1,-1,0
1523631885537,-589824,92,-56,-1,-1,0
1523631885537,-851968,92,-56,-1,-1,0
1523631885537,-1048576,92,-56,-1,-1,0
1523631885577,-1179648,92,-56,-1,-1,0
1523631885577,-1310720,92,-56,-1,-1,0
1523631885577,-1376256,92,-56,-1,-1,0
1523631885577,-1048576,92,-56,-1,-1,0
1523631885577,-786432,92,-56,-1,-1,0
1523631885619,-851968,92,-56,-1,-1,0
1523631885619,-1048576,92,-56,-1,-1,0
1523631885619,-1179648,92,-56,-1,-1,0
1523631885619,-1441792,92,-56,-1,-1,0
1523631885619,-1376256,92,-56,-1,-1,0
1523631885657,-1048576,92,-56,-1,-1,0
1523631885657,-720896,92,-56,-1,-1,0
1523631885657,-786432,92,-56,-1,-1,0
1523631885657,-983040,92,-56,-1,-1,0
1523631885657,-1310720,92,-56,-1,-1,0
1523631885697,-1376256,92,-56,-1,-1,0
1523631885697,-1376256,92,-56,-1,-1,0
1523631885697,-1376256,92,-56,-1,-1,0
1523631885697,-1376256,92,-56,-1,-1,0
1523631885697,-1441792,92,-56,-1,-1,0
1523631885737,-1441792,92,-56,-1,-1,0
1523631885737,-1441792,92,-56,-1,-1,0
1523631885737,-1441792,92,-56,-1,-1,0
1523631885737,-1376256,92,-56,-1,-1,0
1523631885737,-1310720,92,-56,-1,-1,0
1523631885777,-1310720,92,-56,-1,-1,0
1523631885777,-1507328,92,-56,-1,-1,0
1523631885777,-1703936,92,-56,-1,-1,0
1523631885777,-1638400,92,-56,-1,-1,0
1523631885777,-1441792,92,-56,-1,-1,0
1523631885817,-1048576,92,-56,-1,-1,0
1523631885817,-458752,92,-56,-1,-1,0
1523631885817,-65536,92,-56,-1,-1,0
1523631885817,-262144,92,-56,-1,-1,0
1523631885817,-655360,92,-56,-1,-1,0
1523631885857,-983040,92,-56,-1,-1,0
1523631885857,-1245184,92,-56,-1,-1,0
1523631885857,-1441792,92,-56,-1,-1,0
1523631885857,-1507328,92,-56,-1,-1,0
1523631885857,-1245184,92,-56,-1,-1,0
1523631885897,262144,92,-56,-1,-1,0
1523631885897,4718592,92,-56,-1,-1,0
1523631885897,8585216,92,-56,-1,-1,0
1523631885897,6225920,92,-56,-1,-1,0
1523631885897,-1310720,92,-56,-1,-1,0
1523631885937,-6356992,91,-56,-1,-1,0
1523631885937,-5963776,91,-56,-1,-1,0
1523631885937,-3801088,91,-56,-1,-1,0
1523631885937,-2424832,91,-56,-1,-1,0
1523631885937,-1966080,91,-56,-1,-1,0
1523631885977,-1835008,91,-56,-1,-1,0
1523631885977,-1703936,91,-56,-1,-1,0
1523631885977,-1507328,91,-56,-1,-1,0
1523631885977,-1245184,91,-56,-1,-1,0
1523631885977,-1048576,91,-56,-1,-1,0
1523631886017,-983040,91,-56,-1,-1,0
1523631886017,-720896,91,-56,-1,-1,0
1523631886017,-589824,91,-56,-1,-1,0
1523631886017,-589824,91,-56,-1,-1,0
1523631886017,-262144,91,-56,-1,-1,0
1523631886057,65536,91,-56,-1,-1,0
1523631886057,458752,91,-56,-1,-1,0
1523631886057,917504,91,-56,-1,-1,0
1523631886057,1703936,91,-56,-1,-1,0
1523631886057,2097152,91,-56,-1,-1,0
1523631886097,2424832,91,-56,-1,-1,0
1523631886097,3014656,91,-56,-1,-1,0
1523631886097,3801088,91,-56,-1,-1,0
1523631886097,4456448,91,-56,-1,-1,0
1523631886097,5046272,91,-56,-1,-1,0
1523631886139,5439488,91,-56,-1,-1,0
1523631886139,5505024,91,-56,-1,-1,0
1523631886139,5439488,91,-56,-1,-1,0
1523631886139,4980736,91,-56,-1,-1,0
1523631886139,4194304,91,-56,-1,-1,0
1523631886177,3080192,91,-56,-1,-1,0
1523631886177,1966080,91,-56,-1,-1,0
1523631886177,1179648,91,-56,-1,-1,0
1523631886177,655360,91,-56,-1,-1,0
1523631886177,196608,91,-56,-1,-1,0
1523631886217,0,91,-56,-1,-1,0
1523631886217,-131072,91,-56,-1,-1,0
1523631886217,-393216,91,-56,-1,-1,0
1523631886217,-655360,91,-56,-1,-1,0
1523631886217,-327680,91,-56,-1,-1,0
1523631886257,-196608,91,-56,-1,-1,0
1523631886257,-458752,91,-56,-1,-1,0
1523631886257,-524288,91,-56,-1,-1,0
1523631886257,-458752,91,-56,-1,-1,0
1523631886257,-655360,91,-56,-1,-1,0
1523631886297,-851968,91,-56,-1,-1,0
1523631886297,-851968,91,-56,-1,-1,0
1523631886297,-851968,91,-56,-1,-1,0
1523631886297,-917504,91,-56,-1,-1,0
1523631886297,-983040,91,-56,-1,-1,0
1523631886337,-1114112,91,-56,-1,-1,0
1523631886337,-1310720,91,-56,-1,-1,0
1523631886337,-1245184,91,-56,-1,-1,0
1523631886337,-983040,91,-56,-1,-1,0
1523631886337,-917504,91,-56,-1,-1,0
1523631886377,-1048576,91,-56,-1,-1,0
1523631886377,-1179648,91,-56,-1,-1,0
1523631886377,-1310720,91,-56,-1,-1,0
1523631886377,-1376256,91,-56,-1,-1,0
1523631886377,-1245184,91,-56,-1,-1,0
1523631886417,-1114112,91,-56,-1,-1,0
1523631886417,-1114112,91,-56,-1,-1,0
1523631886417,-1114112,91,-56,-1,-1,0
1523631886417,-1114112,91,-56,-1,-1,0
1523631886417,-1245184,91,-56,-1,-1,0
1523631886457,-1441792,91,-56,-1,-1,0
1523631886457,-1441792,91,-56,-1,-1,0
1523631886457,-1179648,91,-56,-1,-1,0
1523631886457,-1048576,91,-56,-1,-1,0
1523631886457,-1245184,91,-56,-1,-1,0
1523631886497,-1507328,91,-56,-1,-1,0
1523631886497,-1507328,91,-56,-1,-1,0
1523631886497,-1507328,91,-56,-1,-1,0
1523631886497,-1572864,91,-56,-1,-1,0
1523631886497,-1638400,91,-56,-1,-1,0
1523631886537,-1441792,91,-56,-1,-1,0
1523631886537,-917504,91,-56,-1,-1,0
1523631886537,-327680,91,-56,-1,-1,0
1523631886537,-65536,91,-56,-1,-1,0
1523631886537,-196608,91,-56,-1,-1,0
1523631886577,-589824,91,-56,-1,-1,0
1523631886577,-1114112,91,-56,-1,-1,0
1523631886577,-1572864,91,-56,-1,-1,0
1523631886577,-1638400,91,-56,-1,-1,0
1523631886577,-1507328,91,-56,-1,-1,0
1523631886617,-1310720,89,-56,-1,-1,0
1523631886617,-655360,89,-56,-1,-1,0
1523631886617,1835008,89,-56,-1,-1,0
1523631886617,6881280,89,-56,-1,-1,0
1523631886617,8454144,89,-56,-1,-1,0
1523631886657,2752512,89,-56,-1,-1,0
1523631886657,-4915200,89,-56,-1,-1,0
1523631886657,-7340032,89,-56,-1,-1,0
1523631886657,-5439488,89,-56,-1,-1,0
1523631886657,-3145728,89,-56,-1,-1,0
1523631886697,-2162688,89,-56,-1,-1,0
1523631886697,-1966080,89,-56,-1,-1,0
1523631886697,-1900544,89,-56,-1,-1,0
1523631886697,-1769472,89,-56,-1,-1,0
1523631886697,-1572864,89,-56,-1,-1,0
1523631886737,-1376256,89,-56,-1,-1,0
1523631886737,-1245184,89,-56,-1,-1,0
1523631886737,-1376256,89,-56,-1,-1,0
1523631886737,-1310720,89,-56,-1,-1,0
1523631886737,-851968,89,-56,-1,-1,0
1523631886779,-196608,89,-56,-1,-1,0
1523631886779,131072,89,-56,-1,-1,0
1523631886779,131072,89,-56,-1,-1,0
1523631886779,458752,89,-56,-1,-1,0
1523631886779,1245184,89,-56,-1,-1,0
1523631886817,1900544,89,-56,-1,-1,0
1523631886817,1900544,89,-56,-1,-1,0
1523631886817,2424832,89,-56,-1,-1,0
1523631886817,3538944,89,-56,-1,-1,0
1523631886817,4325376,89,-56,-1,-1,0
1523631886857,4456448,89,-56,-1,-1,0
1523631886857,5111808,89,-56,-1,-1,0
1523631886857,5308416,89,-56,-1,-1,0
1523631886857,4456448,89,-56,-1,-1,0
1523631886857,3801088,89,-56,-1,-1,0
1523631886897,3670016,89,-56,-1,-1,0
1523631886897,3211264,89,-56,-1,-1,0
1523631886897,1966080,89,-56,-1,-1,0
1523631886897,1114112,89,-56,-1,-1,0
1523631886897,720896,89,-56,-1,-1,0
1523631886937,720896,89,-56,-1,-1,0
1523631886937,196608,89,-56,-1,-1,0
1523631886937,-262144,89,-56,-1,-1,0
1523631886937,-262144,89,-56,-1,-1,0
1523631886937,65536,89,-56,-1,-1,0
1523631886977,131072,89,-56,-1,-1,0
1523631886977,-393216,89,-56,-1,-1,0
1523631886977,-524288,89,-56,-1,-1,0
1523631886977,-327680,89,-56,-1,-1,0
1523631886977,-131072,89,-56,-1,-1,0
1523631887017,-327680,89,-56,-1,-1,0
1523631887017,-196608,89,-56,-1,-1,0
1523631887017,-262144,89,-56,-1,-1,0
1523631887017,-393216,89,-56,-1,-1,0
1523631887017,-655360,89,-56,-1,-1,0
1523631887057,-720896,89,-56,-1,-1,0
1523631887057,-917504,89,-56,-1,-1,0
1523631887057,-1179648,89,-56,-1,-1,0
1523631887057,-1376256,89,-56,-1,-1,0
1523631887057,-1114112,89,-56,-1,-1,0
1523631887097,-393216,89,-56,-1,-1,0
1523631887097,-131072,89,-56,-1,-1,0
1523631887097,-589824,89,-56,-1,-1,0
1523631887097,-1048576,89,-56,-1,-1,0
1523631887097,-1048576,89,-56,-1,-1,0
1523631887137,-1179648,89,-56,-1,-1,0
1523631887137,-1507328,89,-56,-1,-1,0
1523631887137,-1376256,89,-56,-1,-1,0
1523631887137,-983040,89,-56,-1,-1,0
1523631887137,-786432,89,-56,-1,-1,0
1523631887177,-983040,89,-56,-1,-1,0
1523631887177,-1048576,89,-56,-1,-1,0
1523631887177,-917504,89,-56,-1,-1,0
1523631887177,-851968,89,-56,-1,-1,0
1523631887177,-589824,89,-56,-1,-1,0
1523631887217,-1048576,89,-56,-1,-1,0
1523631887217,-1376256,89,-56,-1,-1,0
1523631887217,-1245184,89,-56,-1,-1,0
1523631887217,-1114112,89,-56,-1,-1,0
1523631887217,-1048576,89,-56,-1,-1,0
1523631887257,-262144,89,-56,-1,-1,0
1523631887257,262144,89,-56,-1,-1,0
1523631887257,196608,89,-56,-1,-1,0
1523631887257,0,89,-56,-1,-1,0
1523631887257,-65536,89,-56,-1,-1,0
1523631887297,-589824,89,-56,-1,-1,0
1523631887297,-1114112,89,-56,-1,-1,0
1523631887297,-1376256,89,-56,-1,-1,0
1523631887297,-1048576,89,-56,-1,-1,0
1523631887297,-458752,89,-56,-1,-1,0
1523631887337,851968,89,-56,-1,-1,0
1523631887337,4915200,89,-56,-1,-1,0
1523631887337,9371648,89,-56,-1,-1,0
1523631887337,7471104,89,-56,-1,-1,0
1523631887337,-393216,89,-56,-1,-1,0
1523631887377,-6291456,89,-56,-1,-1,0
1523631887377,-6225920,89,-56,-1,-1,0
1523631887377,-3801088,89,-56,-1,-1,0
1523631887377,-2162688,89,-56,-1,-1,0
1523631887377,-1441792,89,-56,-1,-1,0
1523631887419,-1245184,89,-56,-1,-1,0
1523631887419,-1310720,89,-56,-1,-1,0
1523631887419,-1441792,89,-56,-1,-1,0
1523631887419,-1245184,89,-56,-1,-1,0
1523631887419,-917504,89,-56,-1,-1,0
1523631887459,-655360,89,-56,-1,-1,0
1523631887459,-655360,89,-56,-1,-1,0
1523631887459,-655360,89,-56,-1,-1,0
1523631887459,-262144,89,-56,-1,-1,0
1523631887459,0,89,-56,-1,-1,0
1523631887497,131072,89,-56,-1,-1,0
1523631887497,327680,89,-56,-1,-1,0
1523631887497,917504,89,-56,-1,-1,0
1523631887497,1507328,89,-56,-1,-1,0
1523631887497,1966080,89,-56,-1,-1,0
1523631887537,2555904,89,-56,-1,-1,0
1523631887537,3276800,89,-56,-1,-1,0
1523631887537,3932160,89,-56,-1,-1,0
1523631887537,3997696,89,-56,-1,-1,0
1523631887537,4194304,89,-56,-1,-1,0
1523631887577,4718592,89,-56,-1,-1,0
1523631887577,5373952,89,-56,-1,-1,0
1523631887577,5439488,89,-56,-1,-1,0
1523631887577,4718592,89,-56,-1,-1,0
1523631887577,3604480,89,-56,-1,-1,0
1523631887617,2555904,89,-56,-1,-1,0
1523631887617,1769472,89,-56,-1,-1,0
1523631887617,1179648,89,-56,-1,-1,0
1523631887617,851968,89,-56,-1,-1,0
1523631887617,393216,89,-56,-1,-1,0
1523631887657,-131072,89,-56,-1,-1,0
1523631887657,-720896,89,-56,-1,-1,0
1523631887657,-655360,89,-56,-1,-1,0
1523631887657,-524288,89,-56,-1,-1,0
1523631887657,-524288,89,-56,-1,-1,0
1523631887697,-655360,89,-56,-1,-1,0
1523631887697,-720896,89,-56,-1,-1,0
1523631887697,-655360,89,-56,-1,-1,0
1523631887697,-458752,89,-56,-1,-1,0
1523631887697,-327680,89,-56,-1,-1,0
1523631887737,-655360,89,-56,-1,-1,0
1523631887737,-1179648,89,-56,-1,-1,0
1523631887737,-1441792,89,-56,-1,-1,0
1523631887737,-1441792,89,-56,-1,-1,0
1523631887737,-1048576,89,-56,-1,-1,0
1523631887777,-589824,89,-56,-1,-1,0
1523631887777,-393216,89,-56,-1,-1,0
1523631887777,-917504,89,-56,-1,-1,0
1523631887777,-1376256,89,-56,-1,-1,0
1523631887777,-1572864,89,-56,-1,-1,0
1523631887817,-1441792,89,-56,-1,-1,0
1523631887817,-1310720,89,-56,-1,-1,0
1523631887817,-1179648,89,-56,-1,-1,0
1523631887817,-1441792,89,-56,-1,-1,0
1523631887817,-1966080,89,-56,-1,-1,0
1523631887857,-2097152,89,-56,-1,-1,0
1523631887857,-1835008,89,-56,-1,-1,0
1523631887857,-1441792,89,-56,-1,-1,0
1523631887857,-983040,89,-56,-1,-1,0
1523631887857,-524288,89,-56,-1,-1,0
1523631887897,-458752,89,-56,-1,-1,0
1523631887897,-851968,89,-56,-1,-1,0
1523631887897,-1245184,89,-56,-1,-1,0
1523631887897,-1441792,89,-56,-1,-1,0
1523631887897,-1376256,89,-56,-1,-1,0
1523631887937,-1310720,89,-56,-1,-1,0
1523631887937,-1310720,89,-56,-1,-1,0
1523631887937,-1179648,89,-56,-1,-1,0
1523631887937,1310720,89,-56,-1,-1,0
1523631887937,6684672,89,-56,-1,-1,0
1523631887977,9175040,89,-56,-1,-1,0
1523631887977,4194304,89,-56,-1,-1,0
1523631887977,-3538944,89,-56,-1,-1,0
1523631887977,-6356992,89,-56,-1,-1,0
1523631887977,-4784128,89,-56,-1,-1,0
1523631888017,-2883584,89,-56,-1,-1,0
1523631888017,-2031616,89,-56,-1,-1,0
1523631888017,-1638400,89,-56,-1,-1,0
1523631888017,-1441792,89,-56,-1,-1,0
1523631888017,-1441792,89,-56,-1,-1,0
1523631888058,-1441792,89,-56,-1,-1,0
1523631888058,-1310720,89,-56,-1,-1,0
1523631888058,-983040,89,-56,-1,-1,0
1523631888058,-786432,89,-56,-1,-1,0
1523631888058,-655360,89,-56,-1,-1,0
1523631888097,-589824,89,-56,-1,-1,0
1523631888097,-524288,89,-56,-1,-1,0
1523631888097,-327680,89,-56,-1,-1,0
1523631888097,0,89,-56,-1,-1,0
1523631888097,524288,89,-56,-1,-1,0
1523631888138,1114112,89,-56,-1,-1,0
1523631888138,1900544,89,-56,-1,-1,0
1523631888138,2621440,89,-56,-1,-1,0
1523631888138,3145728,89,-56,-1,-1,0
1523631888138,3604480,89,-56,-1,-1,0
1523631888177,4128768,89,-56,-1,-1,0
1523631888177,4456448,89,-56,-1,-1,0
1523631888177,4587520,89,-56,-1,-1,0
1523631888177,4653056,89,-56,-1,-1,0
1523631888177,4587520,89,-56,-1,-1,0
1523631888217,4259840,89,-56,-1,-1,0
1523631888217,3604480,89,-56,-1,-1,0
1523631888217,2686976,89,-56,-1,-1,0
1523631888217,1638400,89,-56,-1,-1,0
1523631888217,655360,89,-56,-1,-1,0
1523631888257,131072,89,-56,-1,-1,0
1523631888257,-131072,89,-56,-1,-1,0
1523631888257,-262144,89,-56,-1,-1,0
1523631888257,-458752,89,-56,-1,-1,0
1523631888257,-655360,89,-56,-1,-1,0
1523631888297,-720896,89,-56,-1,-1,0
1523631888297,-589824,89,-56,-1,-1,0
1523631888297,-524288,89,-56,-1,-1,0
1523631888297,-524288,89,-56,-1,-1,0
1523631888297,-655360,89,-56,-1,-1,0
1523631888337,-524288,89,-56,-1,-1,0
1523631888337,-393216,89,-56,-1,-1,0
1523631888337,-458752,89,-56,-1,-1,0
1523631888337,-786432,89,-56,-1,-1,0
1523631888337,-917504,89,-56,-1,-1,0
1523631888377,-917504,89,-56,-1,-1,0
1523631888377,-851968,89,-56,-1,-1,0
1523631888377,-851968,89,-56,-1,-1,0
1523631888377,-786432,89,-56,-1,-1,0
1523631888377,-1048576,89,-56,-1,-1,0
1523631888417,-1441792,89,-56,-1,-1,0
1523631888417,-1638400,89,-56,-1,-1,0
1523631888417,-1572864,89,-56,-1,-1,0
1523631888417,-1507328,89,-56,-1,-1,0
1523631888417,-1507328,89,-56,-1,-1,0
1523631888457,-1507328,89,-56,-1,-1,0
1523631888457,-1572864,89,-56,-1,-1,0
1523631888457,-1572864,89,-56,-1,-1,0
1523631888457,-1441792,89,-56,-1,-1,0
1523631888457,-1114112,89,-56,-1,-1,0
1523631888497,-720896,89,-56,-1,-1,0
1523631888497,-720896,89,-56,-1,-1,0
1523631888497,-983040,89,-56,-1,-1,0
1523631888497,-1245184,89,-56,-1,-1,0
1523631888497,-1441792,89,-56,-1,-1,0
1523631888537,-1507328,89,-56,-1,-1,0
1523631888537,-1441792,89,-56,-1,-1,0
1523631888537,-1441792,89,-56,-1,-1,0
1523631888537,-851968,89,-56,-1,-1,0
1523631888537,1769472,89,-56,-1,-1,0
1523631888577,7077888,89,-56,-1,-1,0
1523631888577,9502720,89,-56,-1,-1,0
1523631888577,4849664,89,-56,-1,-1,0
1523631888577,-2686976,89,-56,-1,-1,0
1523631888577,-5832704,89,-56,-1,-1,0
1523631888617,-4653056,89,-56,-1,-1,0
1523631888617,-2818048,89,-56,-1,-1,0
1523631888617,-1900544,89,-56,-1,-1,0
1523631888617,-1769472,89,-56,-1,-1,0
1523631888617,-1769472,89,-56,-1,-1,0
1523631888657,-1507328,89,-56,-1,-1,0
1523631888657,-1376256,89,-56,-1,-1,0
1523631888657,-1376256,89,-56,-1,-1,0
1523631888657,-1245184,89,-56,-1,-1,0
1523631888657,-1114112,89,-56,-1,-1,0
1523631888698,-917504,89,-56,-1,-1,0
1523631888698,-589824,89,-56,-1,-1,0
1523631888698,-327680,89,-56,-1,-1,0
1523631888698,-131072,89,-56,-1,-1,0
1523631888698,0,89,-56,-1,-1,0
1523631888737,327680,89,-56,-1,-1,0
1523631888737,851968,89,-56,-1,-1,0
1523631888737,1507328,89,-56,-1,-1,0
1523631888737,2293760,89,-56,-1,-1,0
1523631888737,3014656,89,-56,-1,-1,0
1523631888777,3735552,89,-56,-1,-1,0
1523631888777,4325376,89,-56,-1,-1,0
1523631888777,4718592,89,-56,-1,-1,0
1523631888777,4849664,89,-56,-1,-1,0
1523631888777,4718592,89,-56,-1,-1,0
1523631888817,4456448,89,-56,-1,-1,0
1523631888817,3932160,89,-56,-1,-1,0
1523631888817,3276800,89,-56,-1,-1,0
1523631888817,2424832,89,-56,-1,-1,0
1523631888817,1572864,89,-56,-1,-1,0
1523631888857,786432,89,-56,-1,-1,0
1523631888857,327680,89,-56,-1,-1,0
1523631888857,-131072,89,-56,-1,-1,0
1523631888857,-589824,89,-56,-1,-1,0
1523631888857,-786432,89,-56,-1,-1,0
1523631888897,-720896,89,-56,-1,-1,0
1523631888897,-589824,89,-56,-1,-1,0
1523631888897,-589824,89,-56,-1,-1,0
1523631888897,-589824,89,-56,-1,-1,0
1523631888897,-589824,89,-56,-1,-1,0
1523631888937,-655360,89,-56,-1,-1,0
1523631888937,-851968,89,-56,-1,-1,0
1523631888937,-851968,89,-56,-1,-1,0
1523631888937,-786432,89,-56,-1,-1,0
1523631888937,-786432,89,-56,-1,-1,0
1523631888977,-917504,89,-56,-1,-1,0
1523631888977,-1048576,89,-56,-1,-1,0
1523631888977,-1114112,89,-56,-1,-1,0
1523631888977,-1048576,89,-56,-1,-1,0
1523631888977,-1179648,89,-56,-1,-1,0
1523631889017,-1310720,89,-56,-1,-1,0
1523631889017,-1310720,89,-56,-1,-1,0
1523631889017,-1245184,89,-56,-1,-1,0
1523631889017,-1245184,89,-56,-1,-1,0
1523631889017,-1310720,89,-56,-1,-1,0
1523631889057,-1441792,89,-56,-1,-1,0
1523631889057,-1572864,89,-56,-1,-1,0
1523631889057,-1638400,89,-56,-1,-1,0
1523631889057,-1703936,89,-56,-1,-1,0
1523631889057,-1835008,89,-56,-1,-1,0
1523631889097,-1966080,89,-56,-1,-1,0
1523631889097,-1769472,89,-56,-1,-1,0
1523631889097,-1310720,89,-56,-1,-1,0
1523631889097,-720896,89,-56,-1,-1,0
1523631889097,-458752,89,-56,-1,-1,0
1523631889137,-589824,89,-56,-1,-1,0
1523631889137,-983040,89,-56,-1,-1,0
1523631889137,-1245184,89,-56,-1,-1,0
1523631889137,-1376256,89,-56,-1,-1,0
1523631889137,-1507328,89,-56,-1,-1,0
1523631889177,-1441792,89,-56,-1,-1,0
1523631889177,-1048576,89,-56,-1,-1,0
1523631889177,1245184,89,-56,-1,-1,0
1523631889177,6422528,89,-56,-1,-1,0
1523631889177,9764864,89,-56,-1,-1,0
1523631889217,5505024,89,-56,-1,-1,0
1523631889217,-2818048,89,-56,-1,-1,0
1523631889217,-6946816,89,-56,-1,-1,0
1523631889217,-5636096,89,-56,-1,-1,0
1523631889217,-3276800,89,-56,-1,-1,0
1523631889257,-2097152,89,-56,-1,-1,0
1523631889257,-1769472,89,-56,-1,-1,0
1523631889257,-1900544,89,-56,-1,-1,0
1523631889257,-1835008,89,-56,-1,-1,0
1523631889257,-1441792,89,-56,-1,-1,0
1523631889298,-1179648,89,-56,-1,-1,0
1523631889298,-1114112,89,-56,-1,-1,0
1523631889298,-1048576,89,-56,-1,-1,0
1523631889298,-786432,89,-56,-1,-1,0
1523631889298,-524288,89,-56,-1,-1,0
1523631889340,-262144,89,-56,-1,-1,0
1523631889340,0,89,-56,-1,-1,0
1523631889340,196608,89,-56,-1,-1,0
1523631889340,458752,89,-56,-1,-1,0
1523631889340,917504,89,-56,-1,-1,0
1523631889377,1507328,89,-56,-1,-1,0
1523631889377,2228224,89,-56,-1,-1,0
1523631889377,2949120,89,-56,-1,-1,0
1523631889377,3538944,89,-56,-1,-1,0
1523631889377,4194304,89,-56,-1,-1,0
1523631889417,4718592,89,-56,-1,-1,0
1523631889417,4849664,89,-56,-1,-1,0
1523631889417,4718592,89,-56,-1,-1,0
1523631889417,4784128,89,-56,-1,-1,0
1523631889417,4456448,89,-56,-1,-1,0
1523631889457,3538944,89,-56,-1,-1,0
1523631889457,2555904,89,-56,-1,-1,0
1523631889457,1769472,89,-56,-1,-1,0
1523631889457,1179648,89,-56,-1,-1,0
1523631889457,720896,89,-56,-1,-1,0
1523631889497,393216,89,-56,-1,-1,0
1523631889497,65536,89,-56,-1,-1,0
1523631889497,-196608,89,-56,-1,-1,0
1523631889497,-393216,89,-56,-1,-1,0
1523631889497,-458752,89,-56,-1,-1,0
1523631889537,-262144,89,-56,-1,-1,0
1523631889537,-131072,89,-56,-1,-1,0
1523631889537,-131072,89,-56,-1,-1,0
1523631889537,-327680,89,-56,-1,-1,0
1523631889537,-458752,89,-56,-1,-1,0
1523631889577,-393216,89,-56,-1,-1,0
1523631889577,-327680,89,-56,-1,-1,0
1523631889577,-524288,89,-56,-1,-1,0
1523631889577,-655360,89,-56,-1,-1,0
1523631889577,-655360,89,-56,-1,-1,0
1523631889617,-655360,89,-56,-1,-1,0
1523631889617,-786432,89,-56,-1,-1,0
1523631889617,-786432,89,-56,-1,-1,0
1523631889617,-917504,89,-56,-1,-1,0
1523631889617,-1114112,89,-56,-1,-1,0
1523631889657,-1114112,89,-56,-1,-1,0
1523631889657,-983040,89,-56,-1,-1,0
1523631889657,-983040,89,-56,-1,-1,0
1523631889657,-1114112,89,-56,-1,-1,0
1523631889657,-1179648,89,-56,-1,-1,0
1523631889697,-1114112,89,-56,-1,-1,0
1523631889697,-1048576,89,-56,-1,-1,0
1523631889697,-1114112,89,-56,-1,-1,0
1523631889697,-1179648,89,-56,-1,-1,0
1523631889697,-1310720,89,-56,-1,-1,0
1523631889737,-1376256,89,-56,-1,-1,0
1523631889737,-1441792,89,-56,-1,-1,0
1523631889737,-1441792,89,-56,-1,-1,0
1523631889737,-1441792,89,-56,-1,-1,0
1523631889737,-1441792,89,-56,-1,-1,0
1523631889777,-1507328,89,-56,-1,-1,0
1523631889777,-1638400,89,-56,-1,-1,0
1523631889777,-1638400,89,-56,-1,-1,0
1523631889777,-1376256,89,-56,-1,-1,0
1523631889777,-917504,89,-56,-1,-1,0
1523631889817,-786432,89,-56,-1,-1,0
1523631889817,-851968,89,-56,-1,-1,0
1523631889817,-1179648,89,-56,-1,-1,0
1523631889817,-1376256,89,-56,-1,-1,0
1523631889817,-1245184,89,-56,-1,-1,0
1523631889857,-1114112,88,-56,-1,-1,0
1523631889857,-786432,88,-56,-1,-1,0
1523631889857,1114112,88,-56,-1,-1,0
1523631889857,6553600,88,-56,-1,-1,0
1523631889857,11206656,88,-56,-1,-1,0
1523631889897,8126464,88,-56,-1,-1,0
1523631889897,-393216,88,-56,-1,-1,0
1523631889897,-5373952,88,-56,-1,-1,0
1523631889897,-4653056,88,-56,-1,-1,0
1523631889897,-2818048,88,-56,-1,-1,0
1523631889937,-1900544,88,-56,-1,-1,0
1523631889937,-1507328,88,-56,-1,-1,0
1523631889937,-1310720,88,-56,-1,-1,0
1523631889937,-1179648,88,-56,-1,-1,0
1523631889937,-1048576,88,-56,-1,-1,0
1523631889979,-1114112,88,-56,-1,-1,0
1523631889979,-1114112,88,-56,-1,-1,0
1523631889979,-917504,88,-56,-1,-1,0
1523631889979,-524288,88,-56,-1,-1,0
1523631889979,-262144,88,-56,-1,-1,0
1523631890017,-65536,88,-56,-1,-1,0
1523631890017,0,88,-56,-1,-1,0
1523631890017,262144,88,-56,-1,-1,0
1523631890017,655360,88,-56,-1,-1,0
1523631890017,1048576,88,-56,-1,-1,0
1523631890057,1441792,88,-56,-1,-1,0
1523631890057,1966080,88,-56,-1,-1,0
1523631890057,2490368,88,-56,-1,-1,0
1523631890057,3080192,88,-56,-1,-1,0
1523631890057,3801088,88,-56,-1,-1,0
1523631890097,4128768,88,-56,-1,-1,0
1523631890097,4259840,88,-56,-1,-1,0
1523631890097,4325376,88,-56,-1,-1,0
1523631890097,4390912,88,-56,-1,-1,0
1523631890097,4259840,88,-56,-1,-1,0
1523631890137,3801088,88,-56,-1,-1,0
1523631890137,2949120,88,-56,-1,-1,0
1523631890137,1966080,88,-56,-1,-1,0
1523631890137,1245184,88,-56,-1,-1,0
1523631890137,655360,88,-56,-1,-1,0
1523631890177,196608,88,-56,-1,-1,0
1523631890177,0,88,-56,-1,-1,0
1523631890177,0,88,-56,-1,-1,0
1523631890177,-65536,88,-56,-1,-1,0
1523631890177,-131072,88,-56,-1,-1,0
1523631890217,-262144,88,-56,-1,-1,0
1523631890217,-327680,88,-56,-1,-1,0
1523631890217,-458752,88,-56,-1,-1,0
1523631890217,-458752,88,-56,-1,-1,0
1523631890217,-458752,88,-56,-1,-1,0
1523631890257,-524288,88,-56,-1,-1,0
1523631890257,-458752,88,-56,-1,-1,0
1523631890257,-458752,88,-56,-1,-1,0
1523631890257,-589824,88,-56,-1,-1,0
1523631890257,-720896,88,-56,-1,-1,0
1523631890297,-786432,88,-56,-1,-1,0
1523631890297,-851968,88,-56,-1,-1,0
1523631890297,-851968,88,-56,-1,-1,0
1523631890297,-917504,88,-56,-1,-1,0
1523631890297,-917504,88,-56,-1,-1,0
1523631890337,-983040,88,-56,-1,-1,0
1523631890337,-983040,88,-56,-1,-1,0
1523631890337,-983040,88,-56,-1,-1,0
1523631890337,-1114112,88,-56,-1,-1,0
1523631890337,-1114112,88,-56,-1,-1,0
1523631890377,-1114112,88,-56,-1,-1,0
1523631890377,-1114112,88,-56,-1,-1,0
1523631890377,-1179648,88,-56,-1,-1,0
1523631890377,-1179648,88,-56,-1,-1,0
1523631890377,-1310720,88,-56,-1,-1,0
1523631890417,-1245184,88,-56,-1,-1,0
1523631890417,-1245184,88,-56,-1,-1,0
1523631890417,-1179648,88,-56,-1,-1,0
1523631890417,-1310720,88,-56,-1,-1,0
1523631890417,-1572864,88,-56,-1,-1,0
1523631890457,-1900544,87,-56,-1,-1,0
1523631890457,-1900544,87,-56,-1,-1,0
1523631890457,-1769472,87,-56,-1,-1,0
1523631890457,-1441792,87,-56,-1,-1,0
1523631890457,-983040,87,-56,-1,-1,0
1523631890497,-589824,87,-56,-1,-1,0
1523631890497,-720896,87,-56,-1,-1,0
1523631890497,-1114112,87,-56,-1,-1,0
1523631890497,-1310720,87,-56,-1,-1,0
1523631890497,-1376256,87,-56,-1,-1,0
1523631890537,-1310720,87,-56,-1,-1,0
1523631890537,-1245184,87,-56,-1,-1,0
1523631890537,-131072,87,-56,-1,-1,0
1523631890537,3866624,87,-56,-1,-1,0
1523631890537,9371648,87,-56,-1,-1,0
1523631890577,9175040,87,-56,-1,-1,0
1523631890577,1703936,87,-56,-1,-1,0
1523631890577,-4980736,87,-56,-1,-1,0
1523631890577,-5636096,87,-56,-1,-1,0
1523631890577,-3407872,87,-56,-1,-1,0
1523631890618,-2097152,87,-56,-1,-1,0
1523631890618,-1769472,87,-56,-1,-1,0
1523631890618,-1769472,87,-56,-1,-1,0
1523631890618,-1638400,87,-56,-1,-1,0
1523631890618,-1507328,87,-56,-1,-1,0
1523631890657,-1376256,87,-56,-1,-1,0
1523631890657,-1179648,87,-56,-1,-1,0
1523631890657,-1114112,87,-56,-1,-1,0
1523631890657,-1048576,87,-56,-1,-1,0
1523631890657,-851968,87,-56,-1,-1,0
1523631890697,-524288,87,-56,-1,-1,0
1523631890697,-393216,87,-56,-1,-1,0
1523631890697,-262144,87,-56,-1,-1,0
1523631890697,0,87,-56,-1,-1,0
1523631890697,458752,87,-56,-1,-1,0
1523631890737,917504,87,-56,-1,-1,0
1523631890737,1441792,87,-56,-1,-1,0
1523631890737,2097152,87,-56,-1,-1,0
1523631890737,2555904,87,-56,-1,-1,0
1523631890737,2883584,87,-56,-1,-1,0
1523631890777,3211264,87,-56,-1,-1,0
1523631890777,3538944,87,-56,-1,-1,0
1523631890777,3801088,87,-56,-1,-1,0
1523631890777,3997696,87,-56,-1,-1,0
1523631890777,3866624,87,-56,-1,-1,0
1523631890817,3473408,87,-56,-1,-1,0
1523631890817,2818048,87,-56,-1,-1,0
1523631890817,1900544,87,-56,-1,-1,0
1523631890817,983040,87,-56,-1,-1,0
1523631890817,327680,87,-56,-1,-1,0
1523631890857,0,87,-56,-1,-1,0
1523631890857,-131072,87,-56,-1,-1,0
1523631890857,-327680,87,-56,-1,-1,0
1523631890857,-458752,87,-56,-1,-1,0
1523631890857,-458752,87,-56,-1,-1,0
1523631890897,-458752,87,-56,-1,-1,0
1523631890897,-524288,87,-56,-1,-1,0
1523631890897,-524288,87,-56,-1,-1,0
1523631890897,-458752,87,-56,-1,-1,0
1523631890897,-589824,87,-56,-1,-1,0
1523631890937,-851968,87,-56,-1,-1,0
1523631890937,-917504,87,-56,-1,-1,0
1523631890937,-917504,87,-56,-1,-1,0
1523631890937,-1048576,87,-56,-1,-1,0
1523631890937,-1179648,87,-56,-1,-1,0
1523631890977,-1048576,87,-56,-1,-1,0
1523631890977,-851968,87,-56,-1,-1,0
1523631890977,-720896,87,-56,-1,-1,0
1523631890977,-786432,87,-56,-1,-1,0
1523631890977,-983040,87,-56,-1,-1,0
1523631891017,-1179648,87,-56,-1,-1,0
1523631891017,-1310720,87,-56,-1,-1,0
1523631891017,-1376256,87,-56,-1,-1,0
1523631891017,-1310720,87,-56,-1,-1,0
1523631891017,-1310720,87,-56,-1,-1,0
1523631891057,-1310720,87,-56,-1,-1,0
1523631891057,-1572864,87,-56,-1,-1,0
1523631891057,-1900544,87,-56,-1,-1,0
1523631891057,-1835008,87,-56,-1,-1,0
1523631891057,-1638400,87,-56,-1,-1,0
1523631891097,-1572864,87,-56,-1,-1,0
1523631891097,-1507328,87,-56,-1,-1,0
1523631891097,-917504,87,-56,-1,-1,0
1523631891097,-458752,87,-56,-1,-1,0
1523631891097,-655360,87,-56,-1,-1,0
1523631891137,-983040,87,-56,-1,-1,0
1523631891137,-1245184,87,-56,-1,-1,0
1523631891137,-1376256,87,-56,-1,-1,0
1523631891137,-1376256,87,-56,-1,-1,0
1523631891137,-1245184,87,-56,-1,-1,0
1523631891177,-1048576,86,-56,-1,-1,0
1523631891177,-196608,86,-56,-1,-1,0
1523631891177,3145728,86,-56,-1,-1,0
1523631891177,8454144,86,-56,-1,-1,0
1523631891177,9109504,86,-56,-1,-1,0
1523631891217,2490368,86,-56,-1,-1,0
1523631891217,-4521984,86,-56,-1,-1,0
1523631891217,-5701632,86,-56,-1,-1,0
1523631891217,-3407872,86,-56,-1,-1,0
1523631891217,-1835008,86,-56,-1,-1,0
1523631891258,-1441792,86,-56,-1,-1,0
1523631891258,-1638400,86,-56,-1,-1,0
1523631891258,-1638400,86,-56,-1,-1,0
1523631891258,-1441792,86,-56,-1,-1,0
1523631891258,-1310720,86,-56,-1,-1,0
1523631891297,-1179648,86,-56,-1,-1,0
1523631891297,-983040,86,-56,-1,-1,0
1523631891297,-851968,86,-56,-1,-1,0
1523631891297,-655360,86,-56,-1,-1,0
1523631891297,-458752,86,-56,-1,-1,0
1523631891337,-131072,86,-56,-1,-1,0
1523631891337,65536,86,-56,-1,-1,0
1523631891337,327680,86,-56,-1,-1,0
1523631891337,720896,86,-56,-1,-1,0
1523631891337,1179648,86,-56,-1,-1,0
1523631891377,1703936,86,-56,-1,-1,0
1523631891377,2424832,86,-56,-1,-1,0
1523631891377,3014656,86,-56,-1,-1,0
1523631891377,3604480,86,-56,-1,-1,0
1523631891377,4128768,86,-56,-1,-1,0
1523631891417,4456448,86,-56,-1,-1,0
1523631891417,4456448,86,-56,-1,-1,0
1523631891417,4390912,86,-56,-1,-1,0
1523631891417,4390912,86,-56,-1,-1,0
1523631891417,3997696,86,-56,-1,-1,0
1523631891457,3211264,86,-56,-1,-1,0
1523631891457,2097152,86,-56,-1,-1,0
1523631891457,1245184,86,-56,-1,-1,0
1523631891457,655360,86,-56,-1,-1,0
1523631891457,393216,86,-56,-1,-1,0
1523631891497,196608,86,-56,-1,-1,0
1523631891497,0,86,-56,-1,-1,0
1523631891497,-262144,86,-56,-1,-1,0
1523631891497,-262144,86,-56,-1,-1,0
1523631891497,-262144,86,-56,-1,-1,0
1523631891537,-327680,86,-56,-1,-1,0
1523631891537,-524288,86,-56,-1,-1,0
1523631891537,-327680,86,-56,-1,-1,0
1523631891537,-327680,86,-56,-1,-1,0
1523631891537,-524288,86,-56,-1,-1,0
1523631891577,-851968,86,-56,-1,-1,0
1523631891577,-851968,86,-56,-1,-1,0
1523631891577,-720896,86,-56,-1,-1,0
1523631891577,-720896,86,-56,-1,-1,0
1523631891577,-720896,86,-56,-1,-1,0
1523631891617,-786432,86,-56,-1,-1,0
1523631891617,-655360,86,-56,-1,-1,0
1523631891617,-655360,86,-56,-1,-1,0
1523631891617,-786432,86,-56,-1,-1,0
1523631891617,-983040,86,-56,-1,-1,0
1523631891657,-1114112,86,-56,-1,-1,0
1523631891657,-1179648,86,-56,-1,-1,0
1523631891657,-1048576,86,-56,-1,-1,0
1523631891657,-851968,86,-56,-1,-1,0
1523631891657,-917504,86,-56,-1,-1,0
1523631891697,-917504,86,-56,-1,-1,0
1523631891697,-983040,86,-56,-1,-1,0
1523631891697,-983040,86,-56,-1,-1,0
1523631891697,-983040,86,-56,-1,-1,0
1523631891697,-1048576,86,-56,-1,-1,0
1523631891737,-1048576,86,-56,-1,-1,0
1523631891737,-851968,86,-56,-1,-1,0
1523631891737,-786432,86,-56,-1,-1,0
1523631891737,-1048576,86,-56,-1,-1,0
1523631891737,-1310720,86,-56,-1,-1,0
1523631891777,-1376256,86,-56,-1,-1,0
1523631891777,-1507328,86,-56,-1,-1,0
1523631891777,-1638400,86,-56,-1,-1,0
1523631891777,-1441792,86,-56,-1,-1,0
1523631891777,-851968,86,-56,-1,-1,0
1523631891817,-262144,86,-56,-1,-1,0
1523631891817,-262144,86,-56,-1,-1,0
1523631891817,-589824,86,-56,-1,-1,0
1523631891817,-983040,86,-56,-1,-1,0
1523631891817,-1048576,86,-56,-1,-1,0
1523631891857,-1048576,86,-56,-1,-1,0
1523631891857,-983040,86,-56,-1,-1,0
1523631891857,-458752,86,-56,-1,-1,0
1523631891857,2162688,86,-56,-1,-1,0
1523631891857,7798784,86,-56,-1,-1,0
1523631891898,10747904,86,-56,-1,-1,0
1523631891898,5832704,86,-56,-1,-1,0
1523631891898,-1966080,86,-56,-1,-1,0
1523631891898,-4915200,86,-56,-1,-1,0
1523631891898,-3407872,86,-56,-1,-1,0
1523631891937,-1966080,86,-56,-1,-1,0
1523631891937,-1572864,86,-56,-1,-1,0
1523631891937,-1376256,86,-56,-1,-1,0
1523631891937,-1179648,86,-56,-1,-1,0
1523631891937,-1179648,86,-56,-1,-1,0
1523631891977,-1245184,86,-56,-1,-1,0
1523631891977,-1245184,86,-56,-1,-1,0
1523631891977,-1114112,86,-56,-1,-1,0
1523631891977,-983040,86,-56,-1,-1,0
1523631891977,-786432,86,-56,-1,-1,0
1523631892017,-524288,86,-56,-1,-1,0
1523631892017,-196608,86,-56,-1,-1,0
1523631892017,0,86,-56,-1,-1,0
1523631892017,65536,86,-56,-1,-1,0
1523631892017,393216,86,-56,-1,-1,0
1523631892057,917504,86,-56,-1,-1,0
1523631892057,1310720,86,-56,-1,-1,0
1523631892057,1638400,86,-56,-1,-1,0
1523631892057,2162688,86,-56,-1,-1,0
1523631892057,2752512,86,-56,-1,-1,0
1523631892097,3342336,86,-56,-1,-1,0
1523631892097,3801088,86,-56,-1,-1,0
1523631892097,4194304,86,-56,-1,-1,0
1523631892097,4521984,86,-56,-1,-1,0
1523631892097,4456448,86,-56,-1,-1,0
1523631892137,4063232,86,-56,-1,-1,0
1523631892137,3407872,86,-56,-1,-1,0
1523631892137,2686976,86,-56,-1,-1,0
1523631892137,1966080,86,-56,-1,-1,0
1523631892137,1310720,86,-56,-1,-1,0
1523631892177,786432,86,-56,-1,-1,0
1523631892177,393216,86,-56,-1,-1,0
1523631892177,131072,86,-56,-1,-1,0
1523631892177,-65536,86,-56,-1,-1,0
1523631892177,-131072,86,-56,-1,-1,0
1523631892217,-196608,86,-56,-1,-1,0
1523631892217,-327680,86,-56,-1,-1,0
1523631892217,-393216,86,-56,-1,-1,0
1523631892217,-327680,86,-56,-1,-1,0
1523631892217,-458752,86,-56,-1,-1,0
1523631892257,-589824,86,-56,-1,-1,0
1523631892257,-720896,86,-56,-1,-1,0
1523631892257,-720896,86,-56,-1,-1,0
1523631892257,-720896,86,-56,-1,-1,0
1523631892257,-786432,86,-56,-1,-1,0
1523631892297,-851968,86,-56,-1,-1,0
1523631892297,-917504,86,-56,-1,-1,0
1523631892297,-983040,86,-56,-1,-1,0
1523631892297,-1048576,86,-56,-1,-1,0
1523631892297,-983040,86,-56,-1,-1,0
1523631892337,-917504,86,-56,-1,-1,0
1523631892337,-1114112,86,-56,-1,-1,0
1523631892337,-1245184,86,-56,-1,-1,0
1523631892337,-1179648,86,-56,-1,-1,0
1523631892337,-1114112,86,-56,-1,-1,0
1523631892377,-1179648,86,-56,-1,-1,0
1523631892377,-1310720,86,-56,-1,-1,0
1523631892377,-1310720,86,-56,-1,-1,0
1523631892377,-1114112,86,-56,-1,-1,0
1523631892377,-1048576,86,-56,-1,-1,0
1523631892417,-1114112,86,-56,-1,-1,0
1523631892417,-1179648,86,-56,-1,-1,0
1523631892417,-1245184,86,-56,-1,-1,0
1523631892417,-1245184,86,-56,-1,-1,0
1523631892417,-1310720,86,-56,-1,-1,0
1523631892457,-1179648,86,-56,-1,-1,0
1523631892457,-917504,86,-56,-1,-1,0
1523631892457,-851968,86,-56,-1,-1,0
1523631892457,-851968,86,-56,-1,-1,0
1523631892457,-983040,86,-56,-1,-1,0
1523631892497,-983040,86,-56,-1,-1,0
1523631892497,-983040,86,-56,-1,-1,0
1523631892497,-1179648,86,-56,-1,-1,0
1523631892497,-1441792,86,-56,-1,-1,0
1523631892497,-1507328,86,-56,-1,-1,0
1523631892538,-1310720,86,-56,-1,-1,0
1523631892538,-1114112,86,-56,-1,-1,0
1523631892538,-720896,86,-56,-1,-1,0
1523631892538,-327680,86,-56,-1,-1,0
1523631892538,-524288,86,-56,-1,-1,0
1523631892577,-917504,85,-56,-1,-1,0
1523631892577,-1114112,85,-56,-1,-1,0
1523631892577,-983040,85,-56,-1,-1,0
1523631892577,-983040,85,-56,-1,-1,0
1523631892577,-1114112,85,-56,-1,-1,0
1523631892617,-458752,85,-56,-1,-1,0
1523631892617,2424832,85,-56,-1,-1,0
1523631892617,7471104,85,-56,-1,-1,0
1523631892617,8716288,85,-56,-1,-1,0
1523631892617,2818048,85,-56,-1,-1,0
1523631892657,-4653056,85,-56,-1,-1,0
1523631892657,-7012352,85,-56,-1,-1,0
1523631892657,-5111808,85,-56,-1,-1,0
1523631892657,-2555904,85,-56,-1,-1,0
1523631892657,-1179648,85,-56,-1,-1,0
1523631892697,-1179648,85,-56,-1,-1,0
1523631892697,-1507328,85,-56,-1,-1,0
1523631892697,-1507328,85,-56,-1,-1,0
1523631892697,-1376256,85,-56,-1,-1,0
1523631892697,-1310720,85,-56,-1,-1,0
1523631892737,-1376256,85,-56,-1,-1,0
1523631892737,-1179648,85,-56,-1,-1,0
1523631892737,-786432,85,-56,-1,-1,0
1523631892737,-327680,85,-56,-1,-1,0
1523631892737,-196608,85,-56,-1,-1,0
1523631892777,0,85,-56,-1,-1,0
1523631892777,262144,85,-56,-1,-1,0
1523631892777,393216,85,-56,-1,-1,0
1523631892777,720896,85,-56,-1,-1,0
1523631892777,1572864,85,-56,-1,-1,0
1523631892817,2424832,85,-56,-1,-1,0
1523631892817,2883584,85,-56,-1,-1,0
1523631892817,3407872,85,-56,-1,-1,0
1523631892817,4325376,85,-56,-1,-1,0
1523631892817,5046272,85,-56,-1,-1,0
1523631892860,5373952,85,-56,-1,-1,0
1523631892860,5701632,85,-56,-1,-1,0
1523631892860,6291456,85,-56,-1,-1,0
1523631892860,6094848,85,-56,-1,-1,0
1523631892860,5373952,85,-56,-1,-1,0
1523631892897,4521984,85,-56,-1,-1,0
1523631892897,3473408,85,-56,-1,-1,0
1523631892897,2228224,85,-56,-1,-1,0
1523631892897,1310720,85,-56,-1,-1,0
1523631892897,917504,85,-56,-1,-1,0
1523631892937,786432,85,-56,-1,-1,0
1523631892937,458752,85,-56,-1,-1,0
1523631892937,-196608,85,-56,-1,-1,0
1523631892937,-655360,85,-56,-1,-1,0
1523631892937,-524288,85,-56,-1,-1,0
1523631892977,-458752,85,-56,-1,-1,0
1523631892977,-524288,85,-56,-1,-1,0
1523631892977,-393216,85,-56,-1,-1,0
1523631892977,-196608,85,-56,-1,-1,0
1523631892977,-131072,85,-56,-1,-1,0
1523631893017,-327680,85,-56,-1,-1,0
1523631893017,-851968,85,-56,-1,-1,0
1523631893017,-1114112,85,-56,-1,-1,0
1523631893017,-786432,85,-56,-1,-1,0
1523631893017,-589824,85,-56,-1,-1,0
1523631893058,-851968,85,-56,-1,-1,0
1523631893058,-1310720,85,-56,-1,-1,0
1523631893058,-1376256,85,-56,-1,-1,0
1523631893058,-1572864,85,-56,-1,-1,0
1523631893058,-1441792,85,-56,-1,-1,0
1523631893097,-1114112,85,-56,-1,-1,0
1523631893097,-720896,85,-56,-1,-1,0
1523631893097,-917504,85,-56,-1,-1,0
1523631893097,-1114112,85,-56,-1,-1,0
1523631893097,-1114112,85,-56,-1,-1,0
1523631893137,-1376256,85,-56,-1,-1,0
1523631893137,-1638400,85,-56,-1,-1,0
1523631893137,-1441792,85,-56,-1,-1,0
1523631893137,-1179648,85,-56,-1,-1,0
1523631893137,-1638400,85,-56,-1,-1,0
1523631893178,-1966080,85,-56,-1,-1,0
1523631893178,-1966080,85,-56,-1,-1,0
1523631893178,-2031616,85,-56,-1,-1,0
1523631893178,-1703936,85,-56,-1,-1,0
1523631893178,-1179648,85,-56,-1,-1,0
1523631893217,-655360,86,-56,-1,-1,0
1523631893217,-458752,86,-56,-1,-1,0
1523631893217,-655360,86,-56,-1,-1,0
1523631893217,-1572864,86,-56,-1,-1,0
1523631893217,-2031616,86,-56,-1,-1,0
1523631893257,-1900544,86,-56,-1,-1,0
1523631893257,-1507328,86,-56,-1,-1,0
1523631893257,-1572864,86,-56,-1,-1,0
1523631893257,-1179648,86,-56,-1,-1,0
1523631893257,655360,86,-56,-1,-1,0
1523631893297,5242880,86,-56,-1,-1,0
1523631893297,9437184,86,-56,-1,-1,0
1523631893297,7012352,86,-56,-1,-1,0
1523631893297,-1310720,86,-56,-1,-1,0
1523631893297,-7667712,86,-56,-1,-1,0
1523631893337,-7864320,86,-56,-1,-1,0
1523631893337,-5636096,86,-56,-1,-1,0
1523631893337,-3407872,86,-56,-1,-1,0
1523631893337,-2097152,86,-56,-1,-1,0
1523631893337,-1769472,86,-56,-1,-1,0
1523631893377,-1638400,86,-56,-1,-1,0
1523631893377,-1441792,86,-56,-1,-1,0
1523631893377,-1310720,86,-56,-1,-1,0
1523631893377,-1245184,86,-56,-1,-1,0
1523631893377,-1114112,86,-56,-1,-1,0
1523631893419,-983040,86,-56,-1,-1,0
1523631893419,-720896,86,-56,-1,-1,0
1523631893419,-327680,86,-56,-1,-1,0
1523631893419,0,86,-56,-1,-1,0
1523631893419,196608,86,-56,-1,-1,0
1523631893457,589824,86,-56,-1,-1,0
1523631893457,1245184,86,-56,-1,-1,0
1523631893457,1769472,86,-56,-1,-1,0
1523631893457,2228224,86,-56,-1,-1,0
1523631893457,3014656,86,-56,-1,-1,0
1523631893497,3997696,86,-56,-1,-1,0
1523631893497,4915200,86,-56,-1,-1,0
1523631893497,5767168,86,-56,-1,-1,0
1523631893497,6356992,86,-56,-1,-1,0
1523631893497,6553600,86,-56,-1,-1,0
1523631893537,6225920,86,-56,-1,-1,0
1523631893537,5701632,86,-56,-1,-1,0
1523631893537,5177344,86,-56,-1,-1,0
1523631893537,4980736,86,-56,-1,-1,0
1523631893537,4325376,86,-56,-1,-1,0
1523631893577,3014656,86,-56,-1,-1,0
1523631893577,1703936,86,-56,-1,-1,0
1523631893577,1245184,86,-56,-1,-1,0
1523631893577,983040,86,-56,-1,-1,0
1523631893577,393216,86,-56,-1,-1,0
1523631893617,-65536,86,-56,-1,-1,0
1523631893617,-131072,86,-56,-1,-1,0
1523631893617,-196608,86,-56,-1,-1,0
1523631893617,0,86,-56,-1,-1,0
1523631893617,0,86,-56,-1,-1,0
1523631893657,-262144,86,-56,-1,-1,0
1523631893657,-327680,86,-56,-1,-1,0
1523631893657,-524288,86,-56,-1,-1,0
1523631893657,-851968,86,-56,-1,-1,0
1523631893657,-917504,86,-56,-1,-1,0
1523631893698,-983040,86,-56,-1,-1,0
1523631893698,-1179648,86,-56,-1,-1,0
1523631893698,-1179648,86,-56,-1,-1,0
1523631893698,-917504,86,-56,-1,-1,0
1523631893698,-1048576,86,-56,-1,-1,0
1523631893738,-1376256,86,-56,-1,-1,0
1523631893738,-1245184,86,-56,-1,-1,0
1523631893738,-1179648,86,-56,-1,-1,0
1523631893738,-1376256,86,-56,-1,-1,0
1523631893738,-1638400,86,-56,-1,-1,0
1523631893777,-1835008,86,-56,-1,-1,0
1523631893777,-1966080,86,-56,-1,-1,0
1523631893777,-1638400,86,-56,-1,-1,0
1523631893777,-1638400,86,-56,-1,-1,0
1523631893777,-2097152,86,-56,-1,-1,0
1523631893820,-2490368,88,-56,-1,-1,0
1523631893820,-2359296,88,-56,-1,-1,0
1523631893820,-2097152,88,-56,-1,-1,0
1523631893820,-1638400,88,-56,-1,-1,0
1523631893820,-1441792,88,-56,-1,-1,0
1523631893857,-1835008,88,-56,-1,-1,0
1523631893857,-1572864,88,-56,-1,-1,0
1523631893857,-1441792,88,-56,-1,-1,0
1523631893857,-1703936,88,-56,-1,-1,0
1523631893857,-2162688,88,-56,-1,-1,0
1523631893897,-2359296,88,-56,-1,-1,0
1523631893897,-1900544,88,-56,-1,-1,0
1523631893897,-1310720,88,-56,-1,-1,0
1523631893897,589824,88,-56,-1,-1,0
1523631893897,5505024,88,-56,-1,-1,0
1523631893937,9699328,88,-56,-1,-1,0
1523631893937,6029312,88,-56,-1,-1,0
1523631893937,-2621440,88,-56,-1,-1,0
1523631893937,-8323072,88,-56,-1,-1,0
1523631893937,-8126464,88,-56,-1,-1,0
1523631893977,-6029312,88,-56,-1,-1,0
1523631893977,-3932160,88,-56,-1,-1,0
1523631893977,-2424832,88,-56,-1,-1,0
1523631893977,-1835008,88,-56,-1,-1,0
1523631893977,-2162688,88,-56,-1,-1,0
1523631894017,-2162688,88,-56,-1,-1,0
1523631894017,-1572864,88,-56,-1,-1,0
1523631894017,-1245184,88,-56,-1,-1,0
1523631894017,-1376256,88,-56,-1,-1,0
1523631894017,-1245184,88,-56,-1,-1,0
1523631894057,-1179648,88,-56,-1,-1,0
1523631894057,-851968,88,-56,-1,-1,0
1523631894057,-589824,88,-56,-1,-1,0
1523631894057,-393216,88,-56,-1,-1,0
1523631894057,196608,88,-56,-1,-1,0
1523631894097,917504,88,-56,-1,-1,0
1523631894097,1835008,88,-56,-1,-1,0
1523631894097,2359296,88,-56,-1,-1,0
1523631894097,3276800,88,-56,-1,-1,0
1523631894097,4325376,88,-56,-1,-1,0
1523631894137,5046272,88,-56,-1,-1,0
1523631894137,5570560,88,-56,-1,-1,0
1523631894137,6291456,88,-56,-1,-1,0
1523631894137,6619136,88,-56,-1,-1,0
1523631894137,6291456,88,-56,-1,-1,0
1523631894177,5963776,88,-56,-1,-1,0
1523631894177,5177344,88,-56,-1,-1,0
1523631894177,3866624,88,-56,-1,-1,0
1523631894177,3145728,88,-56,-1,-1,0
1523631894177,2555904,88,-56,-1,-1,0
1523631894217,1048576,88,-56,-1,-1,0
1523631894217,-65536,88,-56,-1,-1,0
1523631894217,-524288,88,-56,-1,-1,0
1523631894217,-655360,88,-56,-1,-1,0
1523631894217,-720896,88,-56,-1,-1,0
1523631894257,-786432,88,-56,-1,-1,0
1523631894257,-327680,88,-56,-1,-1,0
1523631894257,-196608,88,-56,-1,-1,0
1523631894257,-524288,88,-56,-1,-1,0
1523631894257,-1179648,88,-56,-1,-1,0
1523631894297,-1245184,88,-56,-1,-1,0
1523631894297,-1179648,88,-56,-1,-1,0
1523631894297,-1179648,88,-56,-1,-1,0
1523631894297,-1048576,88,-56,-1,-1,0
1523631894297,-1179648,88,-56,-1,-1,0
1523631894337,-1179648,88,-56,-1,-1,0
1523631894337,-1310720,88,-56,-1,-1,0
1523631894337,-1376256,88,-56,-1,-1,0
1523631894337,-1441792,88,-56,-1,-1,0
1523631894337,-1638400,88,-56,-1,-1,0
1523631894377,-1703936,88,-56,-1,-1,0
1523631894377,-1900544,88,-56,-1,-1,0
1523631894377,-2228224,88,-56,-1,-1,0
1523631894377,-2424832,88,-56,-1,-1,0
1523631894377,-2097152,88,-56,-1,-1,0
1523631894417,-1966080,90,-56,-1,-1,0
1523631894417,-1900544,90,-56,-1,-1,0
1523631894417,-1638400,90,-56,-1,-1,0
1523631894417,-1507328,90,-56,-1,-1,0
1523631894417,-1376256,90,-56,-1,-1,0
1523631894458,-1245184,90,-56,-1,-1,0
1523631894458,-1179648,90,-56,-1,-1,0
1523631894458,-2162688,90,-56,-1,-1,0
1523631894458,-2228224,90,-56,-1,-1,0
1523631894458,-1572864,90,-56,-1,-1,0
1523631894497,-1245184,90,-56,-1,-1,0
1523631894497,-1835008,90,-56,-1,-1,0
1523631894497,-1310720,90,-56,-1,-1,0
1523631894497,2293760,90,-56,-1,-1,0
1523631894497,8781824,90,-56,-1,-1,0
1523631894537,11272192,90,-56,-1,-1,0
1523631894537,4194304,90,-56,-1,-1,0
1523631894537,-5570560,90,-56,-1,-1,0
1523631894537,-8978432,90,-56,-1,-1,0
1523631894537,-6815744,90,-56,-1,-1,0
1523631894577,-4128768,90,-56,-1,-1,0
1523631894577,-2949120,90,-56,-1,-1,0
1523631894577,-1900544,90,-56,-1,-1,0
1523631894577,-1572864,90,-56,-1,-1,0
1523631894577,-1638400,90,-56,-1,-1,0
1523631894617,-1835008,90,-56,-1,-1,0
1523631894617,-1376256,90,-56,-1,-1,0
1523631894617,-1179648,90,-56,-1,-1,0
1523631894617,-1048576,90,-56,-1,-1,0
1523631894617,-1179648,90,-56,-1,-1,0
1523631894657,-851968,90,-56,-1,-1,0
1523631894657,0,90,-56,-1,-1,0
1523631894657,786432,90,-56,-1,-1,0
1523631894657,393216,90,-56,-1,-1,0
1523631894657,393216,90,-56,-1,-1,0
1523631894697,1572864,90,-56,-1,-1,0
1523631894697,2752512,90,-56,-1,-1,0
1523631894697,3342336,90,-56,-1,-1,0
1523631894697,4456448,90,-56,-1,-1,0
1523631894697,5570560,90,-56,-1,-1,0
1523631894737,6356992,90,-56,-1,-1,0
1523631894737,6946816,90,-56,-1,-1,0
1523631894737,7274496,90,-56,-1,-1,0
1523631894737,7077888,90,-56,-1,-1,0
1523631894737,6619136,90,-56,-1,-1,0
1523631894777,5832704,90,-56,-1,-1,0
1523631894777,4587520,90,-56,-1,-1,0
1523631894777,3407872,90,-56,-1,-1,0
1523631894777,2752512,90,-56,-1,-1,0
1523631894777,1769472,90,-56,-1,-1,0
1523631894817,524288,90,-56,-1,-1,0
1523631894817,-327680,90,-56,-1,-1,0
1523631894817,-983040,90,-56,-1,-1,0
1523631894817,-917504,90,-56,-1,-1,0
1523631894817,-262144,90,-56,-1,-1,0
1523631894857,-262144,90,-56,-1,-1,0
1523631894857,-917504,90,-56,-1,-1,0
1523631894857,-1048576,90,-56,-1,-1,0
1523631894857,-589824,90,-56,-1,-1,0
1523631894857,-786432,90,-56,-1,-1,0
1523631894897,-983040,90,-56,-1,-1,0
1523631894897,-720896,90,-56,-1,-1,0
1523631894897,-589824,90,-56,-1,-1,0
1523631894897,-1048576,90,-56,-1,-1,0
1523631894897,-1507328,90,-56,-1,-1,0
1523631894937,-1245184,90,-56,-1,-1,0
1523631894937,-983040,90,-56,-1,-1,0
1523631894937,-1245184,90,-56,-1,-1,0
1523631894937,-1835008,90,-56,-1,-1,0
1523631894937,-1966080,90,-56,-1,-1,0
1523631894977,-1572864,90,-56,-1,-1,0
1523631894977,-1245184,90,-56,-1,-1,0
1523631894977,-1572864,90,-56,-1,-1,0
1523631894977,-2097152,90,-56,-1,-1,0
1523631894977,-2162688,90,-56,-1,-1,0
1523631895017,-1966080,90,-56,-1,-1,0
1523631895017,-2293760,90,-56,-1,-1,0
1523631895017,-2686976,90,-56,-1,-1,0
1523631895017,-2555904,90,-56,-1,-1,0
1523631895017,-1769472,90,-56,-1,-1,0
1523631895057,-786432,90,-56,-1,-1,0
1523631895057,-983040,90,-56,-1,-1,0
1523631895057,-1572864,90,-56,-1,-1,0
1523631895057,-1966080,90,-56,-1,-1,0
1523631895057,-1900544,90,-56,-1,-1,0
1523631895099,-2097152,90,-56,-1,-1,0
1523631895099,-2293760,90,-56,-1,-1,0
1523631895099,-2162688,90,-56,-1,-1,0
1523631895099,-524288,90,-56,-1,-1,0
1523631895099,3997696,90,-56,-1,-1,0
1523631895137,10354688,90,-56,-1,-1,0
1523631895137,10682368,90,-56,-1,-1,0
1523631895137,1966080,90,-56,-1,-1,0
1523631895137,-7077888,90,-56,-1,-1,0
1523631895137,-8912896,90,-56,-1,-1,0
1523631895177,-6488064,90,-56,-1,-1,0
1523631895177,-4063232,90,-56,-1,-1,0
1523631895177,-2686976,90,-56,-1,-1,0
1523631895177,-2097152,90,-56,-1,-1,0
1523631895177,-1966080,90,-56,-1,-1,0
1523631895217,-2359296,90,-56,-1,-1,0
1523631895217,-2162688,90,-56,-1,-1,0
1523631895217,-1376256,90,-56,-1,-1,0
1523631895217,-786432,90,-56,-1,-1,0
1523631895217,-851968,90,-56,-1,-1,0
1523631895257,-851968,90,-56,-1,-1,0
1523631895257,-851968,90,-56,-1,-1,0
1523631895257,-458752,90,-56,-1,-1,0
1523631895257,0,90,-56,-1,-1,0
1523631895257,524288,90,-56,-1,-1,0
1523631895297,917504,90,-56,-1,-1,0
1523631895297,1769472,90,-56,-1,-1,0
1523631895297,2621440,90,-56,-1,-1,0
1523631895297,3407872,90,-56,-1,-1,0
1523631895297,4259840,90,-56,-1,-1,0
1523631895337,5242880,90,-56,-1,-1,0
1523631895337,5767168,90,-56,-1,-1,0
1523631895337,6356992,90,-56,-1,-1,0
1523631895337,6946816,90,-56,-1,-1,0
1523631895337,6881280,90,-56,-1,-1,0
1523631895377,6225920,90,-56,-1,-1,0
1523631895377,5242880,90,-56,-1,-1,0
1523631895377,4063232,90,-56,-1,-1,0
1523631895377,2752512,90,-56,-1,-1,0
1523631895377,1638400,90,-56,-1,-1,0
1523631895417,1048576,90,-56,-1,-1,0
1523631895417,589824,90,-56,-1,-1,0
1523631895417,-65536,90,-56,-1,-1,0
1523631895417,-786432,90,-56,-1,-1,0
1523631895417,-1310720,90,-56,-1,-1,0
1523631895457,-1245184,90,-56,-1,-1,0
1523631895457,-983040,90,-56,-1,-1,0
1523631895457,-851968,90,-56,-1,-1,0
1523631895457,-917504,90,-56,-1,-1,0
1523631895457,-851968,90,-56,-1,-1,0
1523631895497,-851968,90,-56,-1,-1,0
1523631895497,-1310720,90,-56,-1,-1,0
1523631895497,-1376256,90,-56,-1,-1,0
1523631895497,-1114112,90,-56,-1,-1,0
1523631895497,-1245184,90,-56,-1,-1,0
1523631895537,-1376256,90,-56,-1,-1,0
1523631895537,-1310720,90,-56,-1,-1,0
1523631895537,-1310720,90,-56,-1,-1,0
1523631895537,-1507328,90,-56,-1,-1,0
1523631895537,-1900544,90,-56,-1,-1,0
1523631895577,-1966080,90,-56,-1,-1,0
1523631895577,-1703936,90,-56,-1,-1,0
1523631895577,-1769472,90,-56,-1,-1,0
1523631895577,-2162688,90,-56,-1,-1,0
1523631895577,-2031616,90,-56,-1,-1,0
1523631895617,-1703936,90,-56,-1,-1,0
1523631895617,-2031616,90,-56,-1,-1,0
1523631895617,-2293760,90,-56,-1,-1,0
1523631895617,-2359296,90,-56,-1,-1,0
1523631895617,-2293760,90,-56,-1,-1,0
1523631895657,-2424832,90,-56,-1,-1,0
1523631895657,-2293760,90,-56,-1,-1,0
1523631895657,-2097152,90,-56,-1,-1,0
1523631895657,-1703936,90,-56,-1,-1,0
1523631895657,-1179648,90,-56,-1,-1,0
1523631895697,-1245184,90,-56,-1,-1,0
1523631895697,-1638400,90,-56,-1,-1,0
1523631895697,-1769472,90,-56,-1,-1,0
1523631895697,-1900544,90,-56,-1,-1,0
1523631895697,-2162688,90,-56,-1,-1,0
1523631895739,-2162688,92,-56,-1,-1,0
1523631895739,-1638400,92,-56,-1,-1,0
1523631895739,-524288,92,-56,-1,-1,0
1523631895739,2752512,92,-56,-1,-1,0
1523631895739,7798784,92,-56,-1,-1,0
1523631895777,8650752,92,-56,-1,-1,0
1523631895777,2162688,92,-56,-1,-1,0
1523631895777,-5308416,92,-56,-1,-1,0
1523631895777,-7340032,92,-56,-1,-1,0
1523631895777,-5373952,92,-56,-1,-1,0
1523631895817,-3407872,92,-56,-1,-1,0
1523631895817,-2424832,92,-56,-1,-1,0
1523631895817,-2097152,92,-56,-1,-1,0
1523631895817,-1835008,92,-56,-1,-1,0
1523631895817,-1572864,92,-56,-1,-1,0
1523631895857,-1310720,92,-56,-1,-1,0
1523631895857,-1179648,92,-56,-1,-1,0
1523631895857,-1114112,92,-56,-1,-1,0
1523631895857,-1048576,92,-56,-1,-1,0
1523631895857,-851968,92,-56,-1,-1,0
1523631895897,-786432,92,-56,-1,-1,0
1523631895897,-655360,92,-56,-1,-1,0
1523631895897,-131072,92,-56,-1,-1,0
1523631895897,327680,92,-56,-1,-1,0
1523631895897,720896,92,-56,-1,-1,0
1523631895937,1179648,92,-56,-1,-1,0
1523631895937,1835008,92,-56,-1,-1,0
1523631895937,2621440,92,-56,-1,-1,0
1523631895937,3342336,92,-56,-1,-1,0
1523631895937,3997696,92,-56,-1,-1,0
1523631895977,4587520,92,-56,-1,-1,0
1523631895977,4915200,92,-56,-1,-1,0
1523631895977,5177344,92,-56,-1,-1,0
1523631895977,5177344,92,-56,-1,-1,0
1523631895977,4980736,92,-56,-1,-1,0
1523631896018,4587520,92,-56,-1,-1,0
1523631896018,3866624,92,-56,-1,-1,0
1523631896018,3014656,92,-56,-1,-1,0
1523631896018,1966080,92,-56,-1,-1,0
1523631896018,1114112,92,-56,-1,-1,0
1523631896057,524288,92,-56,-1,-1,0
1523631896057,65536,92,-56,-1,-1,0
1523631896057,-196608,92,-56,-1,-1,0
1523631896057,-458752,92,-56,-1,-1,0
1523631896057,-524288,92,-56,-1,-1,0
1523631896097,-524288,92,-56,-1,-1,0
1523631896097,-524288,92,-56,-1,-1,0
1523631896097,-589824,92,-56,-1,-1,0
1523631896097,-720896,92,-56,-1,-1,0
1523631896097,-917504,92,-56,-1,-1,0
1523631896137,-983040,92,-56,-1,-1,0
1523631896137,-851968,92,-56,-1,-1,0
1523631896137,-720896,92,-56,-1,-1,0
1523631896137,-786432,92,-56,-1,-1,0
1523631896137,-917504,92,-56,-1,-1,0
1523631896177,-1048576,92,-56,-1,-1,0
1523631896177,-1179648,92,-56,-1,-1,0
1523631896177,-1245184,92,-56,-1,-1,0
1523631896177,-1179648,92,-56,-1,-1,0
1523631896177,-1114112,92,-56,-1,-1,0
1523631896217,-1245184,92,-56,-1,-1,0
1523631896217,-1310720,92,-56,-1,-1,0
1523631896217,-1310720,92,-56,-1,-1,0
1523631896217,-1310720,92,-56,-1,-1,0
1523631896217,-1310720,92,-56,-1,-1,0
1523631896257,-1376256,92,-56,-1,-1,0
1523631896257,-1310720,92,-56,-1,-1,0
1523631896257,-1310720,92,-56,-1,-1,0
1523631896257,-1441792,92,-56,-1,-1,0
1523631896257,-1572864,92,-56,-1,-1,0
1523631896297,-1507328,92,-56,-1,-1,0
1523631896297,-1048576,92,-56,-1,-1,0
1523631896297,-786432,92,-56,-1,-1,0
1523631896297,-1048576,92,-56,-1,-1,0
1523631896297,-1441792,92,-56,-1,-1,0
1523631896337,-1507328,92,-56,-1,-1,0
1523631896337,-1572864,92,-56,-1,-1,0
1523631896337,-1638400,92,-56,-1,-1,0
1523631896337,-1507328,92,-56,-1,-1,0
1523631896337,-1114112,92,-56,-1,-1,0
1523631896379,-917504,92,-56,-1,-1,0
1523631896379,-786432,92,-56,-1,-1,0
1523631896379,-524288,92,-56,-1,-1,0
1523631896379,-327680,92,-56,-1,-1,0
1523631896379,-393216,92,-56,-1,-1,0
1523631896417,-720896,92,-56,-1,-1,0
1523631896417,-917504,92,-56,-1,-1,0
1523631896417,-983040,92,-56,-1,-1,0
1523631896417,-983040,92,-56,-1,-1,0
1523631896417,-589824,92,-56,-1,-1,0
1523631896457,1638400,92,-56,-1,-1,0
1523631896457,6815744,92,-56,-1,-1,0
1523631896457,10551296,92,-56,-1,-1,0
1523631896457,6946816,92,-56,-1,-1,0
1523631896457,-1245184,92,-56,-1,-1,0
1523631896497,-5767168,92,-56,-1,-1,0
1523631896497,-4849664,92,-56,-1,-1,0
1523631896497,-2686976,92,-56,-1,-1,0
1523631896497,-1769472,92,-56,-1,-1,0
1523631896497,-1572864,92,-56,-1,-1,0
1523631896537,-1507328,92,-56,-1,-1,0
1523631896537,-1310720,92,-56,-1,-1,0
1523631896537,-1179648,92,-56,-1,-1,0
1523631896537,-917504,92,-56,-1,-1,0
1523631896537,-720896,92,-56,-1,-1,0
1523631896577,-655360,92,-56,-1,-1,0
1523631896577,-786432,92,-56,-1,-1,0
1523631896577,-589824,92,-56,-1,-1,0
1523631896577,-196608,92,-56,-1,-1,0
1523631896577,131072,92,-56,-1,-1,0
1523631896617,524288,92,-56,-1,-1,0
1523631896617,786432,92,-56,-1,-1,0
1523631896617,983040,92,-56,-1,-1,0
1523631896617,1441792,92,-56,-1,-1,0
1523631896617,2031616,92,-56,-1,-1,0
1523631896657,2818048,92,-56,-1,-1,0
1523631896657,3604480,92,-56,-1,-1,0
1523631896657,4325376,92,-56,-1,-1,0
1523631896657,4915200,92,-56,-1,-1,0
1523631896657,5373952,92,-56,-1,-1,0
1523631896697,5439488,92,-56,-1,-1,0
1523631896697,5439488,92,-56,-1,-1,0
1523631896697,5373952,92,-56,-1,-1,0
1523631896697,4849664,92,-56,-1,-1,0
1523631896697,3866624,92,-56,-1,-1,0
1523631896737,3080192,92,-56,-1,-1,0
1523631896737,2424832,92,-56,-1,-1,0
1523631896737,1507328,92,-56,-1,-1,0
1523631896737,589824,92,-56,-1,-1,0
1523631896737,131072,92,-56,-1,-1,0
1523631896777,-131072,92,-56,-1,-1,0
1523631896777,-262144,92,-56,-1,-1,0
1523631896777,-458752,92,-56,-1,-1,0
1523631896777,-786432,92,-56,-1,-1,0
1523631896777,-655360,92,-56,-1,-1,0
1523631896817,65536,92,-56,-1,-1,0
1523631896817,262144,92,-56,-1,-1,0
1523631896817,-262144,92,-56,-1,-1,0
1523631896817,-983040,92,-56,-1,-1,0
1523631896817,-917504,92,-56,-1,-1,0
1523631896857,-720896,92,-56,-1,-1,0
1523631896857,-917504,92,-56,-1,-1,0
1523631896857,-1310720,92,-56,-1,-1,0
1523631896857,-1376256,92,-56,-1,-1,0
1523631896857,-1310720,92,-56,-1,-1,0
1523631896897,-1245184,92,-56,-1,-1,0
1523631896897,-1245184,92,-56,-1,-1,0
1523631896897,-1114112,92,-56,-1,-1,0
1523631896897,-1114112,92,-56,-1,-1,0
1523631896897,-1441792,92,-56,-1,-1,0
1523631896937,-1769472,92,-56,-1,-1,0
1523631896937,-1769472,92,-56,-1,-1,0
1523631896937,-1638400,92,-56,-1,-1,0
1523631896937,-1376256,92,-56,-1,-1,0
1523631896937,-1310720,92,-56,-1,-1,0
1523631896977,-1638400,92,-56,-1,-1,0
1523631896977,-1835008,92,-56,-1,-1,0
1523631896977,-1572864,92,-56,-1,-1,0
1523631896977,-1310720,92,-56,-1,-1,0
1523631896977,-1507328,92,-56,-1,-1,0
1523631897018,-1900544,92,-56,-1,-1,0
1523631897018,-1900544,92,-56,-1,-1,0
1523631897018,-1572864,92,-56,-1,-1,0
1523631897018,-1507328,92,-56,-1,-1,0
1523631897018,-1835008,92,-56,-1,-1,0
1523631897057,-1703936,92,-56,-1,-1,0
1523631897057,-1114112,92,-56,-1,-1,0
1523631897057,-524288,92,-56,-1,-1,0
1523631897057,-524288,92,-56,-1,-1,0
1523631897057,-851968,92,-56,-1,-1,0
1523631897097,-1179648,92,-56,-1,-1,0
1523631897097,-1310720,92,-56,-1,-1,0
1523631897097,-1376256,92,-56,-1,-1,0
1523631897097,-1114112,92,-56,-1,-1,0
1523631897097,-589824,92,-56,-1,-1,0
1523631897137,655360,92,-56,-1,-1,0
1523631897137,4849664,92,-56,-1,-1,0
1523631897137,9764864,92,-56,-1,-1,0
1523631897137,8912896,92,-56,-1,-1,0
1523631897137,1245184,92,-56,-1,-1,0
1523631897177,-5177344,92,-56,-1,-1,0
1523631897177,-5767168,92,-56,-1,-1,0
1523631897177,-3473408,92,-56,-1,-1,0
1523631897177,-1966080,92,-56,-1,-1,0
1523631897177,-1507328,92,-56,-1,-1,0
1523631897217,-1310720,92,-56,-1,-1,0
1523631897217,-1179648,92,-56,-1,-1,0
1523631897217,-983040,92,-56,-1,-1,0
1523631897217,-655360,92,-56,-1,-1,0
1523631897217,-393216,92,-56,-1,-1,0
1523631897257,-327680,92,-56,-1,-1,0
1523631897257,-262144,92,-56,-1,-1,0
1523631897257,0,92,-56,-1,-1,0
1523631897257,-65536,92,-56,-1,-1,0
1523631897257,-196608,92,-56,-1,-1,0
1523631897297,196608,92,-56,-1,-1,0
1523631897297,786432,92,-56,-1,-1,0
1523631897297,1179648,92,-56,-1,-1,0
1523631897297,1507328,92,-56,-1,-1,0
1523631897297,2162688,92,-56,-1,-1,0
1523631897337,2686976,92,-56,-1,-1,0
1523631897337,3014656,92,-56,-1,-1,0
1523631897337,3932160,92,-56,-1,-1,0
1523631897337,4915200,92,-56,-1,-1,0
1523631897337,4980736,92,-56,-1,-1,0
1523631897377,4849664,92,-56,-1,-1,0
1523631897377,4980736,92,-56,-1,-1,0
1523631897377,5046272,92,-56,-1,-1,0
1523631897377,4849664,92,-56,-1,-1,0
1523631897377,4259840,92,-56,-1,-1,0
1523631897417,3145728,92,-56,-1,-1,0
1523631897417,2097152,92,-56,-1,-1,0
1523631897417,1638400,92,-56,-1,-1,0
1523631897417,1179648,92,-56,-1,-1,0
1523631897417,458752,92,-56,-1,-1,0
1523631897457,196608,92,-56,-1,-1,0
1523631897457,262144,92,-56,-1,-1,0
1523631897457,393216,92,-56,-1,-1,0
1523631897457,458752,92,-56,-1,-1,0
1523631897457,262144,92,-56,-1,-1,0
1523631897497,-131072,92,-56,-1,-1,0
1523631897497,-262144,92,-56,-1,-1,0
1523631897497,-196608,92,-56,-1,-1,0
1523631897497,-131072,92,-56,-1,-1,0
1523631897497,131072,92,-56,-1,-1,0
1523631897537,393216,92,-56,-1,-1,0
1523631897537,262144,92,-56,-1,-1,0
1523631897537,0,92,-56,-1,-1,0
1523631897537,-393216,92,-56,-1,-1,0
1523631897537,-327680,92,-56,-1,-1,0
1523631897577,-393216,92,-56,-1,-1,0
1523631897577,-589824,92,-56,-1,-1,0
1523631897577,-524288,92,-56,-1,-1,0
1523631897577,-327680,92,-56,-1,-1,0
1523631897577,-327680,92,-56,-1,-1,0
1523631897617,-327680,92,-56,-1,-1,0
1523631897617,-393216,92,-56,-1,-1,0
1523631897617,-655360,92,-56,-1,-1,0
1523631897617,-917504,92,-56,-1,-1,0
1523631897617,-983040,92,-56,-1,-1,0
1523631897658,-786432,92,-56,-1,-1,0
1523631897658,-655360,92,-56,-1,-1,0
1523631897658,-655360,92,-56,-1,-1,0
1523631897658,-720896,92,-56,-1,-1,0
1523631897658,-786432,92,-56,-1,-1,0
1523631897697,-1048576,92,-56,-1,-1,0
1523631897697,-1114112,92,-56,-1,-1,0
1523631897697,-1179648,92,-56,-1,-1,0
1523631897697,-851968,92,-56,-1,-1,0
1523631897697,-458752,92,-56,-1,-1,0
1523631897737,0,90,-56,-1,-1,0
1523631897737,0,90,-56,-1,-1,0
1523631897737,-393216,90,-56,-1,-1,0
1523631897737,-393216,90,-56,-1,-1,0
1523631897737,-262144,90,-56,-1,-1,0
1523631897777,-655360,90,-56,-1,-1,0
1523631897777,-1310720,90,-56,-1,-1,0
1523631897777,-524288,90,-56,-1,-1,0
1523631897777,2752512,90,-56,-1,-1,0
1523631897777,8388608,90,-56,-1,-1,0
1523631897817,11272192,90,-56,-1,-1,0
1523631897817,6553600,90,-56,-1,-1,0
1523631897817,-1376256,90,-56,-1,-1,0
1523631897817,-4849664,90,-56,-1,-1,0
1523631897817,-3670016,90,-56,-1,-1,0
1523631897857,-2359296,90,-56,-1,-1,0
1523631897857,-1966080,90,-56,-1,-1,0
1523631897857,-1572864,90,-56,-1,-1,0
1523631897857,-1310720,90,-56,-1,-1,0
1523631897857,-1376256,90,-56,-1,-1,0
1523631897897,-1441792,90,-56,-1,-1,0
1523631897897,-1179648,90,-56,-1,-1,0
1523631897897,-655360,90,-56,-1,-1,0
1523631897897,-393216,90,-56,-1,-1,0
1523631897897,-720896,90,-56,-1,-1,0
1523631897937,-983040,90,-56,-1,-1,0
1523631897937,-524288,90,-56,-1,-1,0
1523631897937,-65536,90,-56,-1,-1,0
1523631897937,65536,90,-56,-1,-1,0
1523631897937,65536,90,-56,-1,-1,0
1523631897977,720896,90,-56,-1,-1,0
1523631897977,1507328,90,-56,-1,-1,0
1523631897977,1966080,90,-56,-1,-1,0
1523631897977,2031616,90,-56,-1,-1,0
1523631897977,2686976,90,-56,-1,-1,0
1523631898017,3342336,90,-56,-1,-1,0
1523631898017,3735552,90,-56,-1,-1,0
1523631898017,3997696,90,-56,-1,-1,0
1523631898017,4259840,90,-56,-1,-1,0
1523631898017,4128768,90,-56,-1,-1,0
1523631898057,3932160,90,-56,-1,-1,0
1523631898057,3342336,90,-56,-1,-1,0
1523631898057,2359296,90,-56,-1,-1,0
1523631898057,1507328,90,-56,-1,-1,0
1523631898057,851968,90,-56,-1,-1,0
1523631898097,524288,90,-56,-1,-1,0
1523631898097,262144,90,-56,-1,-1,0
1523631898097,-196608,90,-56,-1,-1,0
1523631898097,-524288,90,-56,-1,-1,0
1523631898097,-458752,90,-56,-1,-1,0
1523631898137,-458752,90,-56,-1,-1,0
1523631898137,-720896,90,-56,-1,-1,0
1523631898137,-720896,90,-56,-1,-1,0
1523631898137,-524288,90,-56,-1,-1,0
1523631898137,-589824,90,-56,-1,-1,0
1523631898177,-720896,90,-56,-1,-1,0
1523631898177,-589824,90,-56,-1,-1,0
1523631898177,-720896,90,-56,-1,-1,0
1523631898177,-1179648,90,-56,-1,-1,0
1523631898177,-1179648,90,-56,-1,-1,0
1523631898217,-917504,90,-56,-1,-1,0
1523631898217,-851968,90,-56,-1,-1,0
1523631898217,-655360,90,-56,-1,-1,0
1523631898217,-720896,90,-56,-1,-1,0
1523631898217,-1376256,90,-56,-1,-1,0
1523631898257,-1638400,90,-56,-1,-1,0
1523631898257,-1441792,90,-56,-1,-1,0
1523631898257,-1376256,90,-56,-1,-1,0
1523631898257,-1441792,90,-56,-1,-1,0
1523631898257,-1114112,90,-56,-1,-1,0
1523631898298,-1114112,90,-56,-1,-1,0
1523631898298,-1441792,90,-56,-1,-1,0
1523631898298,-1572864,90,-56,-1,-1,0
1523631898298,-1441792,90,-56,-1,-1,0
1523631898298,-1638400,90,-56,-1,-1,0
1523631898337,-2097152,90,-56,-1,-1,0
1523631898337,-1835008,90,-56,-1,-1,0
1523631898337,-1638400,90,-56,-1,-1,0
1523631898337,-2162688,90,-56,-1,-1,0
1523631898337,-2228224,90,-56,-1,-1,0
1523631898377,-1376256,90,-56,-1,-1,0
1523631898377,-786432,90,-56,-1,-1,0
1523631898377,-917504,90,-56,-1,-1,0
1523631898377,-983040,90,-56,-1,-1,0
1523631898377,-851968,90,-56,-1,-1,0
1523631898417,-1048576,90,-56,-1,-1,0
1523631898417,-1638400,90,-56,-1,-1,0
1523631898417,-1835008,90,-56,-1,-1,0
1523631898417,-1835008,90,-56,-1,-1,0
1523631898417,-1507328,90,-56,-1,-1,0
1523631898457,65536,90,-56,-1,-1,0
1523631898457,5111808,90,-56,-1,-1,0
1523631898457,10092544,90,-56,-1,-1,0
1523631898457,8454144,90,-56,-1,-1,0
1523631898457,327680,90,-56,-1,-1,0
1523631898497,-4915200,90,-56,-1,-1,0
1523631898497,-4849664,90,-56,-1,-1,0
1523631898497,-3342336,90,-56,-1,-1,0
1523631898497,-2293760,90,-56,-1,-1,0
1523631898497,-1638400,90,-56,-1,-1,0
1523631898537,-1638400,90,-56,-1,-1,0
1523631898537,-1703936,90,-56,-1,-1,0
1523631898537,-1638400,90,-56,-1,-1,0
1523631898537,-1769472,90,-56,-1,-1,0
1523631898537,-1572864,90,-56,-1,-1,0
1523631898577,-720896,90,-56,-1,-1,0
1523631898577,-720896,90,-56,-1,-1,0
1523631898577,-1376256,90,-56,-1,-1,0
1523631898577,-983040,90,-56,-1,-1,0
1523631898577,-262144,90,-56,-1,-1,0
1523631898617,-262144,90,-56,-1,-1,0
1523631898617,-196608,90,-56,-1,-1,0
1523631898617,327680,90,-56,-1,-1,0
1523631898617,524288,90,-56,-1,-1,0
1523631898617,458752,90,-56,-1,-1,0
1523631898657,1310720,90,-56,-1,-1,0
1523631898657,2490368,90,-56,-1,-1,0
1523631898657,3276800,90,-56,-1,-1,0
1523631898657,4063232,90,-56,-1,-1,0
1523631898657,4128768,90,-56,-1,-1,0
1523631898697,3538944,90,-56,-1,-1,0
1523631898697,3276800,90,-56,-1,-1,0
1523631898697,3342336,90,-56,-1,-1,0
1523631898697,3080192,90,-56,-1,-1,0
1523631898697,2555904,90,-56,-1,-1,0
1523631898737,2228224,90,-56,-1,-1,0
1523631898737,1310720,90,-56,-1,-1,0
1523631898737,262144,90,-56,-1,-1,0
1523631898737,262144,90,-56,-1,-1,0
1523631898737,327680,90,-56,-1,-1,0
1523631898777,-196608,90,-56,-1,-1,0
1523631898777,-393216,90,-56,-1,-1,0
1523631898777,-262144,90,-56,-1,-1,0
1523631898777,-655360,90,-56,-1,-1,0
1523631898777,-524288,90,-56,-1,-1,0
1523631898817,131072,90,-56,-1,-1,0
1523631898817,-131072,90,-56,-1,-1,0
1523631898817,-1245184,90,-56,-1,-1,0
1523631898817,-1507328,90,-56,-1,-1,0
1523631898817,-1310720,90,-56,-1,-1,0
1523631898857,-1310720,90,-56,-1,-1,0
1523631898857,-1048576,90,-56,-1,-1,0
1523631898857,-589824,90,-56,-1,-1,0
1523631898857,-851968,90,-56,-1,-1,0
1523631898857,-1376256,90,-56,-1,-1,0
1523631898897,-1376256,90,-56,-1,-1,0
1523631898897,-1048576,90,-56,-1,-1,0
1523631898897,-786432,90,-56,-1,-1,0
1523631898897,-983040,90,-56,-1,-1,0
1523631898897,-1376256,90,-56,-1,-1,0
1523631898938,-1638400,90,-56,-1,-1,0
1523631898938,-1638400,90,-56,-1,-1,0
1523631898938,-1376256,90,-56,-1,-1,0
1523631898938,-1179648,90,-56,-1,-1,0
1523631898938,-1179648,90,-56,-1,-1,0
1523631898977,-1310720,90,-56,-1,-1,0
1523631898977,-1703936,90,-56,-1,-1,0
1523631898977,-2228224,90,-56,-1,-1,0
1523631898977,-2162688,90,-56,-1,-1,0
1523631898977,-1245184,90,-56,-1,-1,0
1523631899017,-655360,90,-56,-1,-1,0
1523631899017,-983040,90,-56,-1,-1,0
1523631899017,-1376256,90,-56,-1,-1,0
1523631899017,-1310720,90,-56,-1,-1,0
1523631899017,-1376256,90,-56,-1,-1,0
1523631899057,-1703936,90,-56,-1,-1,0
1523631899057,-1310720,90,-56,-1,-1,0
1523631899057,-786432,90,-56,-1,-1,0
1523631899057,-983040,90,-56,-1,-1,0
1523631899057,-851968,90,-56,-1,-1,0
1523631899097,1179648,90,-56,-1,-1,0
1523631899097,5505024,90,-56,-1,-1,0
1523631899097,7274496,90,-56,-1,-1,0
1523631899097,3473408,90,-56,-1,-1,0
1523631899097,-3342336,90,-56,-1,-1,0
1523631899137,-6881280,90,-56,-1,-1,0
1523631899137,-5439488,90,-56,-1,-1,0
1523631899137,-3014656,90,-56,-1,-1,0
1523631899137,-2359296,90,-56,-1,-1,0
1523631899137,-2686976,90,-56,-1,-1,0
1523631899177,-2490368,90,-56,-1,-1,0
1523631899177,-2293760,90,-56,-1,-1,0
1523631899177,-2228224,90,-56,-1,-1,0
1523631899177,-1966080,90,-56,-1,-1,0
1523631899177,-1507328,90,-56,-1,-1,0
1523631899217,-851968,90,-56,-1,-1,0
1523631899217,-655360,90,-56,-1,-1,0
1523631899217,-524288,90,-56,-1,-1,0
1523631899217,-524288,90,-56,-1,-1,0
1523631899217,-393216,90,-56,-1,-1,0
1523631899257,-196608,90,-56,-1,-1,0
1523631899257,131072,90,-56,-1,-1,0
1523631899257,917504,90,-56,-1,-1,0
1523631899257,1507328,90,-56,-1,-1,0
1523631899257,1966080,90,-56,-1,-1,0
1523631899297,2686976,90,-56,-1,-1,0
1523631899297,3342336,90,-56,-1,-1,0
1523631899297,3735552,90,-56,-1,-1,0
1523631899297,4063232,90,-56,-1,-1,0
1523631899297,4587520,90,-56,-1,-1,0
1523631899337,4980736,90,-56,-1,-1,0
1523631899337,4915200,90,-56,-1,-1,0
1523631899337,4194304,90,-56,-1,-1,0
1523631899337,3604480,90,-56,-1,-1,0
1523631899337,2883584,90,-56,-1,-1,0
1523631899377,2359296,90,-56,-1,-1,0
1523631899377,1638400,90,-56,-1,-1,0
1523631899377,720896,90,-56,-1,-1,0
1523631899377,65536,90,-56,-1,-1,0
1523631899377,-65536,90,-56,-1,-1,0
1523631899417,-196608,90,-56,-1,-1,0
1523631899417,-131072,90,-56,-1,-1,0
1523631899417,-65536,90,-56,-1,-1,0
1523631899417,-393216,90,-56,-1,-1,0
1523631899417,-786432,90,-56,-1,-1,0
1523631899457,-917504,90,-56,-1,-1,0
1523631899457,-917504,90,-56,-1,-1,0
1523631899457,-655360,90,-56,-1,-1,0
1523631899457,-524288,90,-56,-1,-1,0
1523631899457,-720896,90,-56,-1,-1,0
1523631899497,-1114112,90,-56,-1,-1,0
1523631899497,-1179648,90,-56,-1,-1,0
1523631899497,-1179648,90,-56,-1,-1,0
1523631899497,-1245184,90,-56,-1,-1,0
1523631899497,-1310720,90,-56,-1,-1,0
1523631899537,-1376256,90,-56,-1,-1,0
1523631899537,-1245184,90,-56,-1,-1,0
1523631899537,-1048576,90,-56,-1,-1,0
1523631899537,-1245184,90,-56,-1,-1,0
1523631899537,-1769472,90,-56,-1,-1,0
1523631899578,-2031616,91,-56,-1,-1,0
1523631899578,-1966080,91,-56,-1,-1,0
1523631899578,-1900544,91,-56,-1,-1,0
1523631899578,-1900544,91,-56,-1,-1,0
1523631899578,-1638400,91,-56,-1,-1,0
1523631899617,-1245184,91,-56,-1,-1,0
1523631899617,-917504,91,-56,-1,-1,0
1523631899617,-786432,91,-56,-1,-1,0
1523631899617,-917504,91,-56,-1,-1,0
1523631899617,-1507328,91,-56,-1,-1,0
1523631899657,-1966080,91,-56,-1,-1,0
1523631899657,-1900544,91,-56,-1,-1,0
1523631899657,-1507328,91,-56,-1,-1,0
1523631899657,-1179648,91,-56,-1,-1,0
1523631899657,-131072,91,-56,-1,-1,0
1523631899697,3080192,91,-56,-1,-1,0
1523631899697,7798784,91,-56,-1,-1,0
1523631899697,7995392,91,-56,-1,-1,0
1523631899697,1572864,91,-56,-1,-1,0
1523631899697,-4980736,91,-56,-1,-1,0
1523631899737,-6225920,91,-56,-1,-1,0
1523631899737,-4521984,91,-56,-1,-1,0
1523631899737,-2949120,91,-56,-1,-1,0
1523631899737,-2359296,91,-56,-1,-1,0
1523631899737,-2162688,91,-56,-1,-1,0
1523631899777,-1572864,91,-56,-1,-1,0
1523631899777,-1245184,91,-56,-1,-1,0
1523631899777,-1245184,91,-56,-1,-1,0
1523631899777,-1245184,91,-56,-1,-1,0
1523631899777,-1245184,91,-56,-1,-1,0
1523631899817,-1048576,91,-56,-1,-1,0
1523631899817,-786432,91,-56,-1,-1,0
1523631899817,-589824,91,-56,-1,-1,0
1523631899817,-196608,91,-56,-1,-1,0
1523631899817,131072,91,-56,-1,-1,0
1523631899857,196608,91,-56,-1,-1,0
1523631899857,65536,91,-56,-1,-1,0
1523631899857,524288,91,-56,-1,-1,0
1523631899857,1245184,91,-56,-1,-1,0
1523631899857,1703936,91,-56,-1,-1,0
1523631899897,2162688,91,-56,-1,-1,0
1523631899897,2883584,91,-56,-1,-1,0
1523631899897,3407872,91,-56,-1,-1,0
1523631899897,3473408,91,-56,-1,-1,0
1523631899897,3670016,91,-56,-1,-1,0
1523631899937,3670016,91,-56,-1,-1,0
1523631899937,3407872,91,-56,-1,-1,0
1523631899937,2818048,91,-56,-1,-1,0
1523631899937,2293760,91,-56,-1,-1,0
1523631899937,1703936,91,-56,-1,-1,0
1523631899977,1114112,91,-56,-1,-1,0
1523631899977,655360,91,-56,-1,-1,0
1523631899977,131072,91,-56,-1,-1,0
1523631899977,-131072,91,-56,-1,-1,0
1523631899977,-327680,91,-56,-1,-1,0
1523631900017,-393216,91,-56,-1,-1,0
1523631900017,-458752,91,-56,-1,-1,0
1523631900017,-589824,91,-56,-1,-1,0
1523631900017,-720896,91,-56,-1,-1,0
1523631900017,-720896,91,-56,-1,-1,0
1523631900057,-720896,91,-56,-1,-1,0
1523631900057,-851968,91,-56,-1,-1,0
1523631900057,-983040,91,-56,-1,-1,0
1523631900057,-1048576,91,-56,-1,-1,0
1523631900057,-983040,91,-56,-1,-1,0
1523631900097,-1048576,91,-56,-1,-1,0
1523631900097,-1114112,91,-56,-1,-1,0
1523631900097,-1048576,91,-56,-1,-1,0
1523631900097,-1179648,91,-56,-1,-1,0
1523631900097,-1310720,91,-56,-1,-1,0
1523631900137,-1310720,91,-56,-1,-1,0
1523631900137,-1310720,91,-56,-1,-1,0
1523631900137,-1245184,91,-56,-1,-1,0
1523631900137,-1114112,91,-56,-1,-1,0
1523631900137,-1245184,91,-56,-1,-1,0
1523631900177,-1703936,92,-56,-1,-1,0
1523631900177,-2031616,92,-56,-1,-1,0
1523631900177,-2097152,92,-56,-1,-1,0
1523631900177,-2097152,92,-56,-1,-1,0
1523631900177,-1900544,92,-56,-1,-1,0
1523631900218,-1310720,92,-56,-1,-1,0
1523631900218,-720896,92,-56,-1,-1,0
1523631900218,-393216,92,-56,-1,-1,0
1523631900218,-720896,92,-56,-1,-1,0
1523631900218,-1179648,92,-56,-1,-1,0
1523631900257,-1572864,92,-56,-1,-1,0
1523631900257,-1441792,92,-56,-1,-1,0
1523631900257,-1310720,92,-56,-1,-1,0
1523631900257,-983040,92,-56,-1,-1,0
