milliseconds, ECG, ECG HR, PPG, PPG HR, SpO2, PI
0,-2031616,84,-56,-1,-1,0
33,-1507328,84,-56,-1,-1,0
66,-327680,84,-56,-1,-1,0
100,2424832,84,-56,-1,-1,0
133,2162688,84,-56,-1,-1,0
166,0,84,-56,-1,-1,0
200,-786432,84,-56,-1,-1,0
233,-655360,84,-56,-1,-1,0
266,-851968,84,-56,-1,-1,0
300,-1048576,84,-56,-1,-1,0
333,-1179648,84,-56,-1,-1,0
366,-1310720,84,-56,-1,-1,0
400,-1179648,84,-56,-1,-1,0
433,-1310720,84,-56,-1,-1,0
466,-983040,84,-56,-1,-1,0
500,-1245184,84,-56,-1,-1,0
533,-1572864,84,-56,-1,-1,0
566,13041664,84,-56,-1,-1,0
600,-1966080,84,-56,-1,-1,0
633,-1638400,84,-56,-1,-1,0
666,-917504,84,-56,-1,-1,0
700,1245184,84,-56,-1,-1,0
733,3342336,84,-56,-1,-1,0
766,1048576,84,-56,-1,-1,0
800,-720896,84,-56,-1,-1,0
833,-786432,84,-56,-1,-1,0
866,-655360,84,-56,-1,-1,0
900,-1048576,84,-56,-1,-1,0
933,-1310720,84,-56,-1,-1,0
966,-1441792,84,-56,-1,-1,0
1000,-1572864,84,-56,-1,-1,0
1033,-1507328,84,-56,-1,-1,0
1066,-1310720,84,-56,-1,-1,0
1100,-1441792,84,-56,-1,-1,0
1133,-1900544,84,-56,-1,-1,0
1166,14680064,83,-56,-1,-1,0
1200,-1572864,83,-56,-1,-1,0
1233,-1835008,83,-56,-1,-1,0
1266,-655360,83,-56,-1,-1,0
1300,1245184,83,-56,-1,-1,0
1333,3407872,83,-56,-1,-1,0
1366,524288,83,-56,-1,-1,0
1400,-327680,83,-56,-1,-1,0
1433,-393216,83,-56,-1,-1,0
1466,-655360,83,-56,-1,-1,0
1500,-458752,83,-56,-1,-1,0
1533,-917504,83,-56,-1,-1,0
1566,-917504,83,-56,-1,-1,0
1600,-983040,83,-56,-1,-1,0
1633,-1114112,83,-56,-1,-1,0
1666,-851968,83,-56,-1,-1,0
1700,-1048576,83,-56,-1,-1,0
1733,-1703936,83,-56,-1,-1,0
1766,15138816,83,-56,-1,-1,0
1800,-1703936,83,-56,-1,-1,0
1833,-1179648,83,-56,-1,-1,0
1866,-655360,83,-56,-1,-1,0
1900,1441792,83,-56,-1,-1,0
1933,3538944,83,-56,-1,-1,0
1966,1245184,83,-56,-1,-1,0
2000,-393216,83,-56,-1,-1,0
2033,-524288,83,-56,-1,-1,0
2066,-393216,83,-56,-1,-1,0
2100,-589824,83,-56,-1,-1,0
2133,-983040,83,-56,-1,-1,0
2166,-983040,83,-56,-1,-1,0
2200,-1048576,83,-56,-1,-1,0
2233,-1179648,83,-56,-1,-1,0
2266,-1114112,83,-56,-1,-1,0
2300,-1114112,83,-56,-1,-1,0
2333,-1507328,83,-56,-1,-1,0
2366,6160384,83,-56,-1,-1,0
2400,-786432,83,-56,-1,-1,0
2433,-1900544,83,-56,-1,-1,0
2466,-1572864,83,-56,-1,-1,0
2500,-262144,83,-56,-1,-1,0
2533,2621440,83,-56,-1,-1,0
2566,2162688,83,-56,-1,-1,0
2600,-131072,83,-56,-1,-1,0
2633,-851968,83,-56,-1,-1,0
2666,-851968,83,-56,-1,-1,0
2700,-917504,83,-56,-1,-1,0
2733,-1245184,83,-56,-1,-1,0
2766,-1310720,83,-56,-1,-1,0
2800,-1376256,83,-56,-1,-1,0
2833,-1376256,83,-56,-1,-1,0
2866,-1441792,83,-56,-1,-1,0
2900,-1114112,83,-56,-1,-1,0
2933,-1376256,83,-56,-1,-1,0
2966,-1638400,83,-56,-1,-1,0
3000,11927552,82,-56,-1,-1,0
3033,-2031616,82,-56,-1,-1,0
3066,-1572864,82,-56,-1,-1,0
3100,-655360,82,-56,-1,-1,0
3133,1769472,82,-56,-1,-1,0
3166,3604480,82,-56,-1,-1,0
3200,1179648,82,-56,-1,-1,0
3233,-458752,82,-56,-1,-1,0
3266,-327680,82,-56,-1,-1,0
3300,-327680,82,-56,-1,-1,0
3333,-589824,82,-56,-1,-1,0
3366,-917504,82,-56,-1,-1,0
3400,-1048576,82,-56,-1,-1,0
3433,-1048576,82,-56,-1,-1,0
3466,-1114112,82,-56,-1,-1,0
3500,-851968,82,-56,-1,-1,0
3533,-1048576,82,-56,-1,-1,0
3566,-1441792,82,-56,-1,-1,0
3600,13369344,83,-56,-1,-1,0
3633,-1638400,83,-56,-1,-1,0
3666,-1310720,83,-56,-1,-1,0
3699,-720896,83,-56,-1,-1,0
3733,1376256,83,-56,-1,-1,0
3766,3604480,83,-56,-1,-1,0
3800,1376256,83,-56,-1,-1,0
3833,-131072,83,-56,-1,-1,0
3866,-262144,83,-56,-1,-1,0
3900,-196608,83,-56,-1,-1,0
3933,-524288,83,-56,-1,-1,0
3966,-786432,83,-56,-1,-1,0
4000,-983040,83,-56,-1,-1,0
4033,-1048576,83,-56,-1,-1,0
4066,-1114112,83,-56,-1,-1,0
4100,-1048576,83,-56,-1,-1,0
4133,-1114112,83,-56,-1,-1,0
4166,-1441792,83,-56,-1,-1,0
4200,6225920,83,-56,-1,-1,0
4233,-983040,82,-56,-1,-1,0
4266,-1900544,82,-56,-1,-1,0
4300,-1376256,82,-56,-1,-1,0
4333,-196608,82,-56,-1,-1,0
4366,2752512,82,-56,-1,-1,0
4400,2228224,82,-56,-1,-1,0
4433,-65536,82,-56,-1,-1,0
4466,-786432,82,-56,-1,-1,0
4500,-524288,82,-56,-1,-1,0
4533,-589824,82,-56,-1,-1,0
4566,-917504,82,-56,-1,-1,0
4600,-1179648,82,-56,-1,-1,0
4633,-1245184,82,-56,-1,-1,0
4666,-1376256,82,-56,-1,-1,0
4700,-1572864,82,-56,-1,-1,0
4733,-1376256,82,-56,-1,-1,0
4766,-1441792,82,-56,-1,-1,0
4800,-1835008,82,-56,-1,-1,0
4833,11993088,82,-56,-1,-1,0
4866,-2097152,82,-56,-1,-1,0
4900,-2097152,82,-56,-1,-1,0
4933,-1441792,82,-56,-1,-1,0
4966,65536,82,-56,-1,-1,0
5000,3014656,82,-56,-1,-1,0
5033,1703936,82,-56,-1,-1,0
5066,-458752,82,-56,-1,-1,0
5100,-917504,82,-56,-1,-1,0
5133,-786432,82,-56,-1,-1,0
5166,-917504,82,-56,-1,-1,0
5200,-1179648,82,-56,-1,-1,0
5233,-1245184,82,-56,-1,-1,0
5266,-1245184,82,-56,-1,-1,0
5300,-1179648,82,-56,-1,-1,0
5333,-1310720,82,-56,-1,-1,0
5366,-983040,82,-56,-1,-1,0
5400,-1376256,82,-56,-1,-1,0
5433,-1769472,82,-56,-1,-1,0
5466,13369344,82,-56,-1,-1,0
5500,-2097152,82,-56,-1,-1,0
5533,-1769472,82,-56,-1,-1,0
5566,-1048576,82,-56,-1,-1,0
5600,1179648,82,-56,-1,-1,0
5633,3473408,82,-56,-1,-1,0
5666,1310720,82,-56,-1,-1,0
5700,-393216,82,-56,-1,-1,0
5733,-458752,82,-56,-1,-1,0
5766,-458752,82,-56,-1,-1,0
5800,-655360,82,-56,-1,-1,0
5833,-917504,82,-56,-1,-1,0
5866,-1048576,82,-56,-1,-1,0
5900,-1179648,82,-56,-1,-1,0
5933,-1179648,82,-56,-1,-1,0
5966,-983040,82,-56,-1,-1,0
6000,-1310720,82,-56,-1,-1,0
6033,-720896,82,-56,-1,-1,0
6066,9502720,82,-56,-1,-1,0
6100,-1966080,82,-56,-1,-1,0
6133,-1507328,82,-56,-1,-1,0
6166,-720896,82,-56,-1,-1,0
6200,2031616,82,-56,-1,-1,0
6233,3407872,82,-56,-1,-1,0
6266,720896,82,-56,-1,-1,0
6300,-655360,82,-56,-1,-1,0
6333,-655360,82,-56,-1,-1,0
6366,-655360,82,-56,-1,-1,0
6400,-917504,82,-56,-1,-1,0
6433,-1179648,82,-56,-1,-1,0
6466,-1245184,82,-56,-1,-1,0
6500,-1245184,82,-56,-1,-1,0
6533,-1114112,82,-56,-1,-1,0
6566,-1179648,82,-56,-1,-1,0
6600,-1441792,82,-56,-1,-1,0
6633,6160384,82,-56,-1,-1,0
6666,-393216,82,-56,-1,-1,0
6700,-1769472,82,-56,-1,-1,0
6733,-1245184,82,-56,-1,-1,0
6766,0,82,-56,-1,-1,0
6800,3080192,82,-56,-1,-1,0
6833,2621440,82,-56,-1,-1,0
6866,131072,82,-56,-1,-1,0
6899,-589824,82,-56,-1,-1,0
6933,-393216,82,-56,-1,-1,0
6966,-524288,82,-56,-1,-1,0
7000,-786432,82,-56,-1,-1,0
7033,-1048576,82,-56,-1,-1,0
7066,-1179648,82,-56,-1,-1,0
7100,-1376256,82,-56,-1,-1,0
7133,-1376256,82,-56,-1,-1,0
7166,-1114112,82,-56,-1,-1,0
7200,-1441792,82,-56,-1,-1,0
7233,-1507328,82,-56,-1,-1,0
7266,12255232,81,-56,-1,-1,0
7300,-2097152,81,-56,-1,-1,0
7333,-1769472,81,-56,-1,-1,0
7366,-1048576,81,-56,-1,-1,0
7399,1245184,81,-56,-1,-1,0
7433,3014656,81,-56,-1,-1,0
7466,851968,81,-56,-1,-1,0
7500,-655360,81,-56,-1,-1,0
7533,-720896,81,-56,-1,-1,0
7566,-720896,81,-56,-1,-1,0
7600,-917504,81,-56,-1,-1,0
7633,-1179648,81,-56,-1,-1,0
7666,-1310720,81,-56,-1,-1,0
7700,-1376256,81,-56,-1,-1,0
7733,-1572864,81,-56,-1,-1,0
7766,-1179648,81,-56,-1,-1,0
7800,-1376256,81,-56,-1,-1,0
7833,-1769472,81,-56,-1,-1,0
7866,10878976,81,-56,-1,-1,0
7899,-2162688,81,-56,-1,-1,0
7933,-1966080,81,-56,-1,-1,0
7966,-1310720,81,-56,-1,-1,0
8000,131072,81,-56,-1,-1,0
8033,3014656,81,-56,-1,-1,0
8066,1835008,81,-56,-1,-1,0
8100,-327680,81,-56,-1,-1,0
8133,-786432,81,-56,-1,-1,0
8166,-655360,81,-56,-1,-1,0
8200,-917504,81,-56,-1,-1,0
8233,-1245184,81,-56,-1,-1,0
8266,-1376256,81,-56,-1,-1,0
8300,-1376256,81,-56,-1,-1,0
8333,-1507328,81,-56,-1,-1,0
8366,-1310720,81,-56,-1,-1,0
8400,-1310720,81,-56,-1,-1,0
8433,-1572864,81,-56,-1,-1,0
8466,6815744,82,-56,-1,-1,0
8500,-1114112,82,-56,-1,-1,0
8533,-1769472,82,-56,-1,-1,0
8566,-1245184,82,-56,-1,-1,0
8600,0,82,-56,-1,-1,0
8633,3211264,82,-56,-1,-1,0
8666,2621440,82,-56,-1,-1,0
8700,131072,82,-56,-1,-1,0
8733,-589824,82,-56,-1,-1,0
8766,-327680,82,-56,-1,-1,0
8800,-458752,82,-56,-1,-1,0
8833,-851968,82,-56,-1,-1,0
8866,-917504,82,-56,-1,-1,0
8900,-1114112,82,-56,-1,-1,0
8933,-1179648,82,-56,-1,-1,0
8966,-983040,82,-56,-1,-1,0
9000,-1114112,82,-56,-1,-1,0
9033,-1703936,82,-56,-1,-1,0
9066,15532032,82,-56,-1,-1,0
9100,-1638400,82,-56,-1,-1,0
9133,-1376256,82,-56,-1,-1,0
9166,-917504,82,-56,-1,-1,0
9200,1114112,82,-56,-1,-1,0
9233,3342336,82,-56,-1,-1,0
9266,1179648,82,-56,-1,-1,0
9300,-589824,82,-56,-1,-1,0
9333,-655360,82,-56,-1,-1,0
9366,-196608,82,-56,-1,-1,0
9400,-524288,82,-56,-1,-1,0
9433,-917504,82,-56,-1,-1,0
9466,-917504,82,-56,-1,-1,0
9500,-983040,82,-56,-1,-1,0
9533,-1048576,82,-56,-1,-1,0
9566,-1114112,82,-56,-1,-1,0
9600,-1310720,82,-56,-1,-1,0
9633,1376256,82,-56,-1,-1,0
9666,4849664,82,-56,-1,-1,0
9700,-1966080,82,-56,-1,-1,0
9733,-1572864,82,-56,-1,-1,0
9766,-655360,82,-56,-1,-1,0
9800,2031616,82,-56,-1,-1,0
9833,2686976,82,-56,-1,-1,0
9866,262144,82,-56,-1,-1,0
9900,-786432,82,-56,-1,-1,0
9933,-655360,82,-56,-1,-1,0
9966,-524288,82,-56,-1,-1,0
10000,-851968,82,-56,-1,-1,0
10033,-1114112,82,-56,-1,-1,0
10066,-1245184,82,-56,-1,-1,0
10100,-1245184,82,-56,-1,-1,0
10133,-1310720,82,-56,-1,-1,0
10166,-1376256,82,-56,-1,-1,0
10200,-1245184,82,-56,-1,-1,0
10233,-1245184,82,-56,-1,-1,0
10266,-1441792,82,-56,-1,-1,0
10300,5636096,82,-56,-1,-1,0
10333,196608,82,-56,-1,-1,0
10366,-1835008,82,-56,-1,-1,0
10400,-1310720,81,-56,-1,-1,0
10433,-262144,81,-56,-1,-1,0
10466,2555904,81,-56,-1,-1,0
10500,2555904,81,-56,-1,-1,0
10533,327680,81,-56,-1,-1,0
10566,-524288,81,-56,-1,-1,0
10600,-393216,81,-56,-1,-1,0
10633,-458752,81,-56,-1,-1,0
10666,-720896,81,-56,-1,-1,0
10700,-983040,81,-56,-1,-1,0
10733,-1048576,81,-56,-1,-1,0
10766,-1048576,81,-56,-1,-1,0
10800,-1048576,81,-56,-1,-1,0
10833,-1048576,81,-56,-1,-1,0
10866,-1179648,81,-56,-1,-1,0
10900,-851968,81,-56,-1,-1,0
10933,-1048576,81,-56,-1,-1,0
10966,-1376256,81,-56,-1,-1,0
11000,11337728,81,-56,-1,-1,0
11033,-1572864,81,-56,-1,-1,0
11066,-1638400,81,-56,-1,-1,0
11100,-1114112,81,-56,-1,-1,0
11133,196608,81,-56,-1,-1,0
11166,3080192,81,-56,-1,-1,0
11200,2293760,81,-56,-1,-1,0
11233,131072,81,-56,-1,-1,0
11266,-393216,81,-56,-1,-1,0
11300,-262144,81,-56,-1,-1,0
11333,-458752,81,-56,-1,-1,0
11366,-720896,81,-56,-1,-1,0
11400,-917504,81,-56,-1,-1,0
11433,-917504,81,-56,-1,-1,0
11466,-1048576,81,-56,-1,-1,0
11500,-1048576,81,-56,-1,-1,0
11533,-1048576,81,-56,-1,-1,0
11566,-1114112,81,-56,-1,-1,0
11600,-1048576,81,-56,-1,-1,0
11633,-786432,81,-56,-1,-1,0
11666,-1114112,81,-56,-1,-1,0
11700,-1572864,81,-56,-1,-1,0
11733,13434880,81,-56,-1,-1,0
11766,-1638400,81,-56,-1,-1,0
11800,-1441792,81,-56,-1,-1,0
11833,-720896,81,-56,-1,-1,0
11866,1114112,81,-56,-1,-1,0
11900,3145728,81,-56,-1,-1,0
11933,1376256,81,-56,-1,-1,0
11966,-196608,81,-56,-1,-1,0
12000,-458752,81,-56,-1,-1,0
12033,-458752,81,-56,-1,-1,0
12066,-720896,81,-56,-1,-1,0
12100,-983040,81,-56,-1,-1,0
12133,-1114112,81,-56,-1,-1,0
12166,-1048576,81,-56,-1,-1,0
12200,-1114112,81,-56,-1,-1,0
12233,-1114112,81,-56,-1,-1,0
12266,-1114112,81,-56,-1,-1,0
12300,-1179648,81,-56,-1,-1,0
12333,-917504,81,-56,-1,-1,0
12366,-1179648,81,-56,-1,-1,0
12400,-1376256,81,-56,-1,-1,0
12433,9502720,81,-56,-1,-1,0
12466,-1966080,81,-56,-1,-1,0
12500,-1769472,81,-56,-1,-1,0
12533,-1245184,81,-56,-1,-1,0
12566,0,81,-56,-1,-1,0
12600,3014656,81,-56,-1,-1,0
12633,2490368,81,-56,-1,-1,0
12666,262144,81,-56,-1,-1,0
12700,-524288,81,-56,-1,-1,0
12733,-393216,81,-56,-1,-1,0
12766,-655360,81,-56,-1,-1,0
12800,-917504,81,-56,-1,-1,0
12833,-1048576,81,-56,-1,-1,0
12866,-1048576,81,-56,-1,-1,0
12900,-1114112,81,-56,-1,-1,0
12933,-1048576,81,-56,-1,-1,0
12966,-1179648,81,-56,-1,-1,0
13000,-851968,81,-56,-1,-1,0
13033,-1048576,81,-56,-1,-1,0
13066,-1179648,81,-56,-1,-1,0
13100,6291456,81,-56,-1,-1,0
13133,-589824,81,-56,-1,-1,0
13166,-1507328,80,-56,-1,-1,0
13200,-983040,80,-56,-1,-1,0
13233,131072,80,-56,-1,-1,0
13266,3211264,80,-56,-1,-1,0
13299,3211264,80,-56,-1,-1,0
13333,786432,80,-56,-1,-1,0
13366,-327680,80,-56,-1,-1,0
13400,-262144,80,-56,-1,-1,0
13433,-393216,80,-56,-1,-1,0
13466,-786432,80,-56,-1,-1,0
13500,-983040,80,-56,-1,-1,0
13533,-1048576,80,-56,-1,-1,0
13566,-1048576,80,-56,-1,-1,0
13600,-1048576,80,-56,-1,-1,0
13633,-1179648,80,-56,-1,-1,0
13666,-786432,80,-56,-1,-1,0
13700,-1114112,80,-56,-1,-1,0
13733,-1703936,80,-56,-1,-1,0
13766,14417920,80,-56,-1,-1,0
13799,-1900544,77,-56,-1,-1,0
13833,-1703936,77,-56,-1,-1,0
13866,-1114112,77,-56,-1,-1,0
13900,589824,77,-56,-1,-1,0
13933,3342336,77,-56,-1,-1,0
13966,1835008,77,-56,-1,-1,0
14000,-196608,77,-56,-1,-1,0
14033,-589824,77,-56,-1,-1,0
14066,-524288,77,-56,-1,-1,0
14100,-655360,77,-56,-1,-1,0
14133,-917504,77,-56,-1,-1,0
14166,-1114112,77,-56,-1,-1,0
14200,-1179648,77,-56,-1,-1,0
14233,-1179648,77,-56,-1,-1,0
14266,-1245184,77,-56,-1,-1,0
14299,-1048576,77,-56,-1,-1,0
14333,-1048576,77,-56,-1,-1,0
14366,-1310720,77,-56,-1,-1,0
14400,655360,77,-56,-1,-1,0
14433,4718592,76,-56,-1,-1,0
14466,-1966080,76,-56,-1,-1,0
14500,-1572864,76,-56,-1,-1,0
14533,-655360,76,-56,-1,-1,0
14566,1703936,76,-56,-1,-1,0
14600,2949120,76,-56,-1,-1,0
14633,720896,76,-56,-1,-1,0
14666,-524288,76,-56,-1,-1,0
14700,-655360,76,-56,-1,-1,0
14733,-589824,76,-56,-1,-1,0
14766,-786432,76,-56,-1,-1,0
14799,-1048576,76,-56,-1,-1,0
14833,-1048576,76,-56,-1,-1,0
14866,-1114112,76,-56,-1,-1,0
14900,-1179648,76,-56,-1,-1,0
14933,-1048576,76,-56,-1,-1,0
14966,-983040,76,-56,-1,-1,0
15000,-1245184,76,-56,-1,-1,0
15033,0,76,-56,-1,-1,0
15066,7536640,76,-56,-1,-1,0
15100,-1900544,76,-56,-1,-1,0
15133,-1441792,76,-56,-1,-1,0
15166,-589824,76,-56,-1,-1,0
15200,2031616,76,-56,-1,-1,0
15233,3604480,76,-56,-1,-1,0
15266,1245184,76,-56,-1,-1,0
15299,-393216,76,-56,-1,-1,0
15333,-393216,76,-56,-1,-1,0
15366,-458752,76,-56,-1,-1,0
15400,-786432,76,-56,-1,-1,0
15433,-1048576,76,-56,-1,-1,0
15466,-1114112,76,-56,-1,-1,0
15500,-1179648,76,-56,-1,-1,0
15533,-1245184,76,-56,-1,-1,0
15566,-1048576,76,-56,-1,-1,0
15600,-1245184,76,-56,-1,-1,0
15633,-1376256,76,-56,-1,-1,0
15666,6225920,76,-56,-1,-1,0
15700,-655360,76,-56,-1,-1,0
15733,-1900544,76,-56,-1,-1,0
15766,-1441792,76,-56,-1,-1,0
15799,-262144,76,-56,-1,-1,0
15833,2818048,76,-56,-1,-1,0
15866,2949120,76,-56,-1,-1,0
15900,327680,76,-56,-1,-1,0
15933,-720896,76,-56,-1,-1,0
15966,-524288,76,-56,-1,-1,0
16000,-524288,76,-56,-1,-1,0
16033,-851968,76,-56,-1,-1,0
16066,-1048576,76,-56,-1,-1,0
16100,-1114112,76,-56,-1,-1,0
16133,-1114112,76,-56,-1,-1,0
16166,-1179648,76,-56,-1,-1,0
16200,-1048576,76,-56,-1,-1,0
16233,-983040,76,-56,-1,-1,0
16266,-1179648,76,-56,-1,-1,0
16300,2228224,76,-56,-1,-1,0
16333,3211264,76,-56,-1,-1,0
16366,-1835008,76,-56,-1,-1,0
16400,-1441792,76,-56,-1,-1,0
16433,-524288,76,-56,-1,-1,0
16466,2162688,76,-56,-1,-1,0
16500,3080192,76,-56,-1,-1,0
16533,655360,76,-56,-1,-1,0
16566,-524288,76,-56,-1,-1,0
16600,-458752,76,-56,-1,-1,0
16633,-393216,76,-56,-1,-1,0
16666,-524288,76,-56,-1,-1,0
16700,-851968,76,-56,-1,-1,0
16733,-983040,76,-56,-1,-1,0
16766,-1048576,76,-56,-1,-1,0
16800,-917504,76,-56,-1,-1,0
16833,-1179648,76,-56,-1,-1,0
16866,-983040,76,-56,-1,-1,0
16900,-917504,76,-56,-1,-1,0
16933,-1310720,76,-56,-1,-1,0
16966,0,76,-56,-1,-1,0
17000,6225920,76,-56,-1,-1,0
17033,-1966080,76,-56,-1,-1,0
17066,-1441792,75,-56,-1,-1,0
17100,-720896,75,-56,-1,-1,0
17133,1572864,75,-56,-1,-1,0
17166,3080192,75,-56,-1,-1,0
17200,983040,75,-56,-1,-1,0
17233,-524288,75,-56,-1,-1,0
17266,-720896,75,-56,-1,-1,0
17300,-589824,75,-56,-1,-1,0
17333,-917504,75,-56,-1,-1,0
17366,-589824,75,-56,-1,-1,0
17400,-1310720,75,-56,-1,-1,0
17433,-1114112,75,-56,-1,-1,0
17466,-983040,75,-56,-1,-1,0
17500,-1048576,75,-56,-1,-1,0
17533,-1114112,75,-56,-1,-1,0
17566,-983040,75,-56,-1,-1,0
17600,-983040,75,-56,-1,-1,0
17633,-1310720,75,-56,-1,-1,0
17666,10092544,75,-56,-1,-1,0
17700,-2031616,75,-56,-1,-1,0
17733,-1769472,75,-56,-1,-1,0
17766,-1310720,75,-56,-1,-1,0
17800,0,75,-56,-1,-1,0
17833,3407872,75,-56,-1,-1,0
17866,2949120,75,-56,-1,-1,0
17900,393216,75,-56,-1,-1,0
17933,-589824,75,-56,-1,-1,0
17966,-393216,75,-56,-1,-1,0
18000,-524288,75,-56,-1,-1,0
18033,-917504,75,-56,-1,-1,0
18066,-1114112,75,-56,-1,-1,0
18100,-1048576,75,-56,-1,-1,0
18133,-1048576,75,-56,-1,-1,0
18166,-1048576,75,-56,-1,-1,0
18200,-1114112,75,-56,-1,-1,0
18233,-655360,75,-56,-1,-1,0
18266,-1114112,75,-56,-1,-1,0
18300,-1769472,75,-56,-1,-1,0
18333,14811136,75,-56,-1,-1,0
18366,-2097152,75,-56,-1,-1,0
18400,-1900544,75,-56,-1,-1,0
18433,-1310720,75,-56,-1,-1,0
18466,393216,75,-56,-1,-1,0
18500,3538944,75,-56,-1,-1,0
18533,1900544,75,-56,-1,-1,0
18566,-458752,75,-56,-1,-1,0
18600,-1048576,75,-56,-1,-1,0
18633,-917504,75,-56,-1,-1,0
18666,-917504,75,-56,-1,-1,0
18700,-1310720,75,-56,-1,-1,0
18733,-1114112,75,-56,-1,-1,0
18766,-983040,75,-56,-1,-1,0
18800,-1179648,75,-56,-1,-1,0
18833,-1114112,75,-56,-1,-1,0
18866,-1114112,75,-56,-1,-1,0
18900,-983040,75,-56,-1,-1,0
18933,-1245184,75,-56,-1,-1,0
18966,-1441792,75,-56,-1,-1,0
19000,14286848,75,-56,-1,-1,0
19033,-1900544,75,-56,-1,-1,0
19066,-1572864,75,-56,-1,-1,0
19100,-720896,75,-56,-1,-1,0
19133,1376256,75,-56,-1,-1,0
19166,4063232,75,-56,-1,-1,0
19200,2097152,75,-56,-1,-1,0
19233,-262144,75,-56,-1,-1,0
19266,-327680,75,-56,-1,-1,0
19300,-262144,75,-56,-1,-1,0
19333,-458752,75,-56,-1,-1,0
19366,-786432,75,-56,-1,-1,0
19400,-720896,75,-56,-1,-1,0
19433,-917504,75,-56,-1,-1,0
19466,-1048576,75,-56,-1,-1,0
19500,-851968,75,-56,-1,-1,0
19533,-1179648,75,-56,-1,-1,0
19566,-1376256,75,-56,-1,-1,0
19600,7667712,75,-56,-1,-1,0
19633,-1769472,75,-56,-1,-1,0
19666,-1835008,75,-56,-1,-1,0
19700,-1048576,75,-56,-1,-1,0
19733,-131072,75,-56,-1,-1,0
19766,2686976,75,-56,-1,-1,0
19800,2555904,75,-56,-1,-1,0
19833,327680,75,-56,-1,-1,0
19866,-786432,75,-56,-1,-1,0
19900,-917504,75,-56,-1,-1,0
19933,-786432,75,-56,-1,-1,0
19966,-786432,75,-56,-1,-1,0
20000,-1179648,75,-56,-1,-1,0
20033,-1245184,75,-56,-1,-1,0
20066,-1179648,75,-56,-1,-1,0
20100,-1376256,75,-56,-1,-1,0
20133,-851968,75,-56,-1,-1,0
20166,-1376256,75,-56,-1,-1,0
20200,-1835008,75,-56,-1,-1,0
20233,14024704,76,-56,-1,-1,0
20266,-2162688,76,-56,-1,-1,0
20300,-1769472,76,-56,-1,-1,0
20333,-1114112,76,-56,-1,-1,0
20366,589824,76,-56,-1,-1,0
20400,3604480,76,-56,-1,-1,0
20433,2162688,76,-56,-1,-1,0
20466,-131072,76,-56,-1,-1,0
20500,-524288,76,-56,-1,-1,0
20533,-393216,76,-56,-1,-1,0
20566,-720896,76,-56,-1,-1,0
20600,-983040,76,-56,-1,-1,0
20633,-1114112,76,-56,-1,-1,0
20666,-1179648,76,-56,-1,-1,0
20700,-1245184,76,-56,-1,-1,0
20733,-1179648,76,-56,-1,-1,0
20766,-983040,76,-56,-1,-1,0
20800,-1245184,76,-56,-1,-1,0
20833,-720896,76,-56,-1,-1,0
20866,10158080,77,-56,-1,-1,0
20900,-1966080,77,-56,-1,-1,0
20933,-1572864,77,-56,-1,-1,0
20966,-786432,77,-56,-1,-1,0
21000,1441792,77,-56,-1,-1,0
21033,3538944,77,-56,-1,-1,0
21066,1376256,77,-56,-1,-1,0
21100,-458752,77,-56,-1,-1,0
21133,-655360,77,-56,-1,-1,0
21166,-458752,77,-56,-1,-1,0
21200,-720896,77,-56,-1,-1,0
21233,-1048576,77,-56,-1,-1,0
21266,-1245184,77,-56,-1,-1,0
21300,-1245184,77,-56,-1,-1,0
21333,-1179648,77,-56,-1,-1,0
21366,-1245184,77,-56,-1,-1,0
21400,-917504,77,-56,-1,-1,0
21433,-1245184,77,-56,-1,-1,0
21466,-1638400,77,-56,-1,-1,0
21500,14155776,77,-56,-1,-1,0
21533,-1900544,77,-56,-1,-1,0
21566,-1638400,77,-56,-1,-1,0
21600,-917504,77,-56,-1,-1,0
21633,983040,77,-56,-1,-1,0
21666,3276800,77,-56,-1,-1,0
21700,1441792,77,-56,-1,-1,0
21733,-458752,77,-56,-1,-1,0
21766,-655360,77,-56,-1,-1,0
21800,-589824,77,-56,-1,-1,0
21833,-786432,77,-56,-1,-1,0
21866,-1048576,77,-56,-1,-1,0
21900,-1114112,77,-56,-1,-1,0
21933,-1179648,77,-56,-1,-1,0
21966,-1245184,77,-56,-1,-1,0
22000,-1310720,77,-56,-1,-1,0
22033,-983040,77,-56,-1,-1,0
22066,-1376256,77,-56,-1,-1,0
22100,-1900544,77,-56,-1,-1,0
22133,12582912,77,-56,-1,-1,0
22166,-2162688,77,-56,-1,-1,0
22200,-1900544,78,-56,-1,-1,0
22233,-1245184,78,-56,-1,-1,0
22266,131072,78,-56,-1,-1,0
22300,2752512,78,-56,-1,-1,0
22333,1769472,78,-56,-1,-1,0
22366,-196608,78,-56,-1,-1,0
22400,-720896,78,-56,-1,-1,0
22433,-589824,78,-56,-1,-1,0
22466,-786432,78,-56,-1,-1,0
22500,-983040,78,-56,-1,-1,0
22533,-1179648,78,-56,-1,-1,0
22566,-1114112,78,-56,-1,-1,0
22600,-1114112,78,-56,-1,-1,0
22633,-1179648,78,-56,-1,-1,0
22666,-1114112,78,-56,-1,-1,0
22700,-786432,78,-56,-1,-1,0
22733,-1114112,78,-56,-1,-1,0
22766,-1245184,78,-56,-1,-1,0
22800,12320768,78,-56,-1,-1,0
22833,-1835008,77,-56,-1,-1,0
22866,-1441792,77,-56,-1,-1,0
22900,-655360,77,-56,-1,-1,0
22933,1376256,77,-56,-1,-1,0
22966,3866624,77,-56,-1,-1,0
23000,2228224,77,-56,-1,-1,0
23033,131072,77,-56,-1,-1,0
23066,-196608,77,-56,-1,-1,0
23100,-131072,77,-56,-1,-1,0
23133,-524288,77,-56,-1,-1,0
23166,-917504,77,-56,-1,-1,0
23200,-1048576,77,-56,-1,-1,0
23233,-1179648,77,-56,-1,-1,0
23266,-1245184,77,-56,-1,-1,0
23300,-1376256,77,-56,-1,-1,0
23333,-1114112,77,-56,-1,-1,0
23366,-1376256,77,-56,-1,-1,0
23400,-1966080,77,-56,-1,-1,0
23433,14221312,77,-56,-1,-1,0
23466,-2293760,77,-56,-1,-1,0
23500,-1966080,77,-56,-1,-1,0
23533,-1376256,77,-56,-1,-1,0
23566,262144,77,-56,-1,-1,0
23600,3276800,77,-56,-1,-1,0
23633,1966080,77,-56,-1,-1,0
23666,-131072,77,-56,-1,-1,0
23700,-393216,77,-56,-1,-1,0
23733,-458752,77,-56,-1,-1,0
23766,-589824,77,-56,-1,-1,0
23800,-983040,77,-56,-1,-1,0
23833,-983040,77,-56,-1,-1,0
23866,-1114112,77,-56,-1,-1,0
23900,-1114112,77,-56,-1,-1,0
23933,-1310720,77,-56,-1,-1,0
23966,-917504,77,-56,-1,-1,0
24000,-1114112,77,-56,-1,-1,0
24033,-1179648,77,-56,-1,-1,0
24066,9764864,77,-56,-1,-1,0
24100,-1638400,77,-56,-1,-1,0
24133,-1638400,77,-56,-1,-1,0
24166,-1048576,77,-56,-1,-1,0
24200,65536,77,-56,-1,-1,0
24233,2949120,77,-56,-1,-1,0
24266,2818048,77,-56,-1,-1,0
24300,458752,77,-56,-1,-1,0
24333,-524288,77,-56,-1,-1,0
24366,-458752,77,-56,-1,-1,0
24400,-589824,77,-56,-1,-1,0
24433,-917504,77,-56,-1,-1,0
24466,-983040,77,-56,-1,-1,0
24500,-1114112,77,-56,-1,-1,0
24533,-1179648,77,-56,-1,-1,0
24566,-1245184,77,-56,-1,-1,0
24600,-1114112,77,-56,-1,-1,0
24633,-1376256,77,-56,-1,-1,0
24666,-1900544,77,-56,-1,-1,0
24700,12189696,77,-56,-1,-1,0
24733,-2097152,77,-56,-1,-1,0
24766,-1703936,77,-56,-1,-1,0
24800,-1179648,77,-56,-1,-1,0
24833,524288,77,-56,-1,-1,0
24866,2818048,77,-56,-1,-1,0
24900,1441792,77,-56,-1,-1,0
24933,-524288,77,-56,-1,-1,0
24966,-786432,77,-56,-1,-1,0
25000,-655360,77,-56,-1,-1,0
25033,-983040,77,-56,-1,-1,0
25066,-1179648,77,-56,-1,-1,0
25100,-1179648,77,-56,-1,-1,0
25133,-1441792,77,-56,-1,-1,0
25166,-1441792,77,-56,-1,-1,0
25200,-1310720,77,-56,-1,-1,0
25233,-1638400,77,-56,-1,-1,0
25266,-2228224,78,-56,-1,-1,0
25300,12779520,78,-56,-1,-1,0
25333,-2949120,78,-56,-1,-1,0
25366,-2490368,78,-56,-1,-1,0
25400,-2097152,78,-56,-1,-1,0
25433,0,78,-56,-1,-1,0
25466,3211264,78,-56,-1,-1,0
25500,2162688,78,-56,-1,-1,0
25533,-589824,78,-56,-1,-1,0
25566,-1310720,78,-56,-1,-1,0
25600,-1572864,78,-56,-1,-1,0
25633,-1572864,78,-56,-1,-1,0
25666,-2228224,78,-56,-1,-1,0
25700,-2228224,78,-56,-1,-1,0
25733,-2621440,78,-56,-1,-1,0
25766,-1900544,78,-56,-1,-1,0
25800,-1900544,78,-56,-1,-1,0
25833,-1507328,79,-56,-1,-1,0
25866,5046272,79,-56,-1,-1,0
25900,589824,79,-56,-1,-1,0
25933,-1179648,79,-56,-1,-1,0
25966,-720896,79,-56,-1,-1,0
26000,786432,79,-56,-1,-1,0
26033,4456448,79,-56,-1,-1,0
26066,5373952,79,-56,-1,-1,0
26099,2359296,79,-56,-1,-1,0
26133,524288,79,-56,-1,-1,0
26166,851968,79,-56,-1,-1,0
26200,983040,79,-56,-1,-1,0
26233,65536,79,-56,-1,-1,0
26266,-458752,79,-56,-1,-1,0
26300,-983040,79,-56,-1,-1,0
26333,-589824,79,-56,-1,-1,0
26366,-851968,79,-56,-1,-1,0
26400,-1179648,79,-56,-1,-1,0
26433,1507328,79,-56,-1,-1,0
26466,4521984,79,-56,-1,-1,0
26500,-2228224,79,-56,-1,-1,0
26533,-1572864,79,-56,-1,-1,0
26566,-458752,79,-56,-1,-1,0
26599,2555904,79,-56,-1,-1,0
26633,4194304,79,-56,-1,-1,0
26666,1441792,79,-56,-1,-1,0
26700,-196608,79,-56,-1,-1,0
26733,-327680,79,-56,-1,-1,0
26766,-196608,79,-56,-1,-1,0
26800,-327680,79,-56,-1,-1,0
26833,-983040,79,-56,-1,-1,0
26866,-1179648,79,-56,-1,-1,0
26900,-1179648,79,-56,-1,-1,0
26933,-1769472,80,-56,-1,-1,0
26966,-2228224,80,-56,-1,-1,0
27000,5505024,80,-56,-1,-1,0
27033,-2621440,80,-56,-1,-1,0
27066,-2818048,80,-56,-1,-1,0
27099,-2686976,80,-56,-1,-1,0
27133,-2162688,80,-56,-1,-1,0
27166,2359296,80,-56,-1,-1,0
27200,3604480,80,-56,-1,-1,0
27233,786432,80,-56,-1,-1,0
27266,0,80,-56,-1,-1,0
27300,-983040,80,-56,-1,-1,0
27333,262144,80,-56,-1,-1,0
27366,-1114112,80,-56,-1,-1,0
27400,-851968,80,-56,-1,-1,0
27433,-196608,80,-56,-1,-1,0
27466,262144,80,-56,-1,-1,0
27500,-786432,80,-56,-1,-1,0
27533,-983040,80,-56,-1,-1,0
27566,14352384,80,-56,-1,-1,0
27599,-2031616,80,-56,-1,-1,0
27633,-2031616,80,-56,-1,-1,0
27666,-1048576,80,-56,-1,-1,0
27700,851968,80,-56,-1,-1,0
27733,3276800,80,-56,-1,-1,0
27766,524288,80,-56,-1,-1,0
27800,-1441792,80,-56,-1,-1,0
27833,-1441792,80,-56,-1,-1,0
27866,-1572864,80,-56,-1,-1,0
27900,-1769472,80,-56,-1,-1,0
27933,-2228224,80,-56,-1,-1,0
27966,-2162688,80,-56,-1,-1,0
28000,-1638400,80,-56,-1,-1,0
28033,-1966080,81,-56,-1,-1,0
28066,-2490368,81,-56,-1,-1,0
28099,5373952,81,-56,-1,-1,0
28133,-1835008,81,-56,-1,-1,0
28166,-2424832,81,-56,-1,-1,0
28200,-1835008,81,-56,-1,-1,0
28233,-720896,81,-56,-1,-1,0
28266,2031616,81,-56,-1,-1,0
28300,2883584,81,-56,-1,-1,0
28333,589824,81,-56,-1,-1,0
28366,-458752,81,-56,-1,-1,0
28400,-262144,81,-56,-1,-1,0
28433,-524288,81,-56,-1,-1,0
28466,-655360,81,-56,-1,-1,0
28500,-1245184,81,-56,-1,-1,0
28533,-1048576,81,-56,-1,-1,0
28566,-1245184,82,-56,-1,-1,0
28599,-1179648,82,-56,-1,-1,0
28633,1376256,82,-56,-1,-1,0
28666,4521984,82,-56,-1,-1,0
28700,-2883584,82,-56,-1,-1,0
28733,-2293760,82,-56,-1,-1,0
28766,-1638400,82,-56,-1,-1,0
28800,1900544,82,-56,-1,-1,0
28833,3473408,82,-56,-1,-1,0
28866,327680,82,-56,-1,-1,0
28900,-1179648,82,-56,-1,-1,0
28933,-983040,82,-56,-1,-1,0
28966,-1245184,82,-56,-1,-1,0
29000,-1179648,82,-56,-1,-1,0
29033,-1048576,82,-56,-1,-1,0
29066,-1310720,84,-56,-1,-1,0
29099,-1638400,84,-56,-1,-1,0
29133,-1048576,84,-56,-1,-1,0
29166,11272192,84,-56,-1,-1,0
29200,-1769472,84,-56,-1,-1,0
29233,-2162688,84,-56,-1,-1,0
29266,-2031616,84,-56,-1,-1,0
29300,-262144,84,-56,-1,-1,0
29333,2097152,84,-56,-1,-1,0
29366,2949120,84,-56,-1,-1,0
29400,-196608,84,-56,-1,-1,0
29433,-1245184,84,-56,-1,-1,0
29466,-458752,84,-56,-1,-1,0
29500,-1048576,84,-56,-1,-1,0
29533,-1638400,84,-56,-1,-1,0
29566,-1048576,86,-56,-1,-1,0
29599,-1572864,86,-56,-1,-1,0
29633,-1376256,86,-56,-1,-1,0
29666,3080192,86,-56,-1,-1,0
29700,1572864,86,-56,-1,-1,0
29733,-1769472,86,-56,-1,-1,0
29766,-1245184,86,-56,-1,-1,0
29800,-196608,86,-56,-1,-1,0
29833,2555904,86,-56,-1,-1,0
29866,3342336,86,-56,-1,-1,0
29900,720896,86,-56,-1,-1,0
29933,-655360,86,-56,-1,-1,0
29966,-786432,86,-56,-1,-1,0
30000,-983040,86,-56,-1,-1,0
30033,-1507328,86,-56,-1,-1,0
30066,-1572864,88,-56,-1,-1,0
30099,-1638400,88,-56,-1,-1,0
30133,-2031616,88,-56,-1,-1,0
30166,-1900544,88,-56,-1,-1,0
30200,11796480,88,-56,-1,-1,0
30233,-2621440,88,-56,-1,-1,0
30266,-2293760,88,-56,-1,-1,0
30300,-1572864,88,-56,-1,-1,0
30333,983040,88,-56,-1,-1,0
30366,2490368,88,-56,-1,-1,0
30400,524288,88,-56,-1,-1,0
30433,-720896,88,-56,-1,-1,0
30466,-458752,88,-56,-1,-1,0
30500,-720896,88,-56,-1,-1,0
30533,-458752,88,-56,-1,-1,0
30566,-1179648,89,-56,-1,-1,0
30599,-1310720,89,-56,-1,-1,0
30633,-2031616,89,-56,-1,-1,0
30666,-1835008,89,-56,-1,-1,0
30700,11665408,89,-56,-1,-1,0
30733,-2359296,89,-56,-1,-1,0
30766,-2228224,89,-56,-1,-1,0
30800,-1572864,89,-56,-1,-1,0
30833,786432,89,-56,-1,-1,0
30866,3080192,89,-56,-1,-1,0
30900,786432,89,-56,-1,-1,0
30933,-917504,89,-56,-1,-1,0
30966,-720896,89,-56,-1,-1,0
31000,-917504,89,-56,-1,-1,0
31033,-1048576,89,-56,-1,-1,0
31066,-1245184,89,-56,-1,-1,0
31099,-1114112,89,-56,-1,-1,0
31133,-1638400,89,-56,-1,-1,0
31166,-262144,89,-56,-1,-1,0
31200,9371648,89,-56,-1,-1,0
31233,-2162688,89,-56,-1,-1,0
31266,-1638400,89,-56,-1,-1,0
31300,-655360,89,-56,-1,-1,0
31333,2097152,89,-56,-1,-1,0
31366,3604480,89,-56,-1,-1,0
31400,1114112,89,-56,-1,-1,0
31433,-393216,89,-56,-1,-1,0
31466,-393216,89,-56,-1,-1,0
31500,-458752,89,-56,-1,-1,0
31533,-786432,89,-56,-1,-1,0
31566,-1114112,91,-56,-1,-1,0
31599,-1572864,91,-56,-1,-1,0
31633,-2097152,91,-56,-1,-1,0
31666,2752512,91,-56,-1,-1,0
31700,2162688,91,-56,-1,-1,0
31733,-1966080,91,-56,-1,-1,0
31766,-1900544,91,-56,-1,-1,0
31800,-262144,91,-56,-1,-1,0
31833,2031616,91,-56,-1,-1,0
31866,2031616,91,-56,-1,-1,0
31900,-327680,91,-56,-1,-1,0
31933,-1507328,91,-56,-1,-1,0
31966,-1048576,91,-56,-1,-1,0
32000,-786432,91,-56,-1,-1,0
32033,-1572864,91,-56,-1,-1,0
32066,-1703936,93,-56,-1,-1,0
32100,-1114112,93,-56,-1,-1,0
32133,-1835008,93,-56,-1,-1,0
32166,2031616,93,-56,-1,-1,0
32200,2621440,93,-56,-1,-1,0
32233,-1900544,93,-56,-1,-1,0
32266,-1507328,93,-56,-1,-1,0
32299,-786432,93,-56,-1,-1,0
32333,1245184,93,-56,-1,-1,0
32366,2097152,93,-56,-1,-1,0
32400,393216,93,-56,-1,-1,0
32433,-786432,93,-56,-1,-1,0
32466,-327680,93,-56,-1,-1,0
32500,-983040,93,-56,-1,-1,0
32533,-1376256,93,-56,-1,-1,0
32566,-1114112,94,-56,-1,-1,0
32600,-1310720,94,-56,-1,-1,0
32633,-1638400,94,-56,-1,-1,0
32666,1835008,94,-56,-1,-1,0
32700,2293760,94,-56,-1,-1,0
32733,-2293760,94,-56,-1,-1,0
32766,-1835008,94,-56,-1,-1,0
32800,-786432,94,-56,-1,-1,0
32833,1835008,94,-56,-1,-1,0
32866,2621440,94,-56,-1,-1,0
32900,131072,94,-56,-1,-1,0
32933,-720896,94,-56,-1,-1,0
32966,-1048576,94,-56,-1,-1,0
33000,-1572864,94,-56,-1,-1,0
33033,-1703936,96,-56,-1,-1,0
33066,-2097152,96,-56,-1,-1,0
33100,-1835008,96,-56,-1,-1,0
33133,-1114112,96,-56,-1,-1,0
33166,11403264,96,-56,-1,-1,0
33200,-2162688,96,-56,-1,-1,0
33233,-2228224,96,-56,-1,-1,0
33266,-1703936,96,-56,-1,-1,0
33300,-262144,96,-56,-1,-1,0
33333,2031616,96,-56,-1,-1,0
33366,2162688,96,-56,-1,-1,0
33400,-262144,96,-56,-1,-1,0
33433,-720896,96,-56,-1,-1,0
33466,-1048576,96,-56,-1,-1,0
33500,-983040,96,-56,-1,-1,0
33533,-1376256,97,-56,-1,-1,0
33566,-1310720,97,-56,-1,-1,0
33600,-1703936,97,-56,-1,-1,0
33633,-1376256,97,-56,-1,-1,0
33666,12845056,97,-56,-1,-1,0
33700,-1900544,97,-56,-1,-1,0
33733,-1638400,97,-56,-1,-1,0
33766,-983040,97,-56,-1,-1,0
33800,131072,97,-56,-1,-1,0
33833,3342336,97,-56,-1,-1,0
33866,786432,97,-56,-1,-1,0
33900,-589824,97,-56,-1,-1,0
33933,-589824,97,-56,-1,-1,0
33966,-655360,97,-56,-1,-1,0
34000,-1310720,97,-56,-1,-1,0
34033,-1507328,98,-56,-1,-1,0
34066,-1245184,98,-56,-1,-1,0
34100,-1507328,98,-56,-1,-1,0
34133,2031616,98,-56,-1,-1,0
34166,2818048,98,-56,-1,-1,0
34200,-2424832,98,-56,-1,-1,0
34233,-1966080,98,-56,-1,-1,0
34266,-655360,98,-56,-1,-1,0
34300,2097152,98,-56,-1,-1,0
34333,2555904,98,-56,-1,-1,0
34366,0,98,-56,-1,-1,0
34400,-720896,98,-56,-1,-1,0
34433,-851968,98,-56,-1,-1,0
34466,-1179648,98,-56,-1,-1,0
34500,-720896,100,-56,-1,-1,0
34533,-1245184,100,-56,-1,-1,0
34566,-2162688,100,-56,-1,-1,0
34600,-983040,100,-56,-1,-1,0
34633,7405568,100,-56,-1,-1,0
34666,-4325376,100,-56,-1,-1,0
34700,-2621440,100,-56,-1,-1,0
34733,-1310720,100,-56,-1,-1,0
34766,-1507328,100,-56,-1,-1,0
34800,1703936,100,-56,-1,-1,0
34833,1376256,100,-56,-1,-1,0
34866,-196608,100,-56,-1,-1,0
34900,-393216,100,-56,-1,-1,0
34933,-917504,100,-56,-1,-1,0
34966,-524288,100,-56,-1,-1,0
35000,-786432,100,-56,-1,-1,0
35033,-458752,100,-56,-1,-1,0
35066,-458752,100,-56,-1,-1,0
35100,-655360,100,-56,-1,-1,0
35133,13697024,100,-56,-1,-1,0
35166,-983040,100,-56,-1,-1,0
35200,-1441792,100,-56,-1,-1,0
35233,-524288,100,-56,-1,-1,0
35266,1048576,100,-56,-1,-1,0
35300,3080192,100,-56,-1,-1,0
35333,786432,100,-56,-1,-1,0
35366,-1245184,100,-56,-1,-1,0
35400,-1441792,100,-56,-1,-1,0
35433,-1638400,100,-56,-1,-1,0
35466,-2228224,100,-56,-1,-1,0
35500,-1835008,100,-56,-1,-1,0
35533,-2359296,100,-56,-1,-1,0
35566,-1310720,100,-56,-1,-1,0
35600,6815744,100,-56,-1,-1,0
35633,-2228224,100,-56,-1,-1,0
35666,-2490368,100,-56,-1,-1,0
35700,-1835008,100,-56,-1,-1,0
35733,327680,100,-56,-1,-1,0
35766,2818048,100,-56,-1,-1,0
35800,1572864,100,-56,-1,-1,0
35833,65536,100,-56,-1,-1,0
35866,-1179648,100,-56,-1,-1,0
35900,-1900544,100,-56,-1,-1,0
35933,-1835008,101,-56,-1,-1,0
35966,-2097152,101,-56,-1,-1,0
36000,-2228224,101,-56,-1,-1,0
36033,-1703936,101,-56,-1,-1,0
36066,3473408,101,-56,-1,-1,0
36100,-1966080,101,-56,-1,-1,0
36133,-2293760,101,-56,-1,-1,0
36166,-1769472,101,-56,-1,-1,0
36200,-589824,101,-56,-1,-1,0
36233,1966080,101,-56,-1,-1,0
36266,2162688,101,-56,-1,-1,0
36300,851968,101,-56,-1,-1,0
36333,196608,101,-56,-1,-1,0
36366,0,101,-56,-1,-1,0
36400,-458752,101,-56,-1,-1,0
36433,-786432,101,-56,-1,-1,0
36466,-983040,101,-56,-1,-1,0
36500,-1507328,101,-56,-1,-1,0
36533,5570560,101,-56,-1,-1,0
36566,0,101,-56,-1,-1,0
36600,-2162688,101,-56,-1,-1,0
36633,-1703936,101,-56,-1,-1,0
36666,-458752,101,-56,-1,-1,0
36700,2621440,101,-56,-1,-1,0
36733,2686976,101,-56,-1,-1,0
36766,131072,101,-56,-1,-1,0
36800,-720896,101,-56,-1,-1,0
36833,-851968,101,-56,-1,-1,0
36866,-1376256,102,-56,-1,-1,0
36900,-1310720,102,-56,-1,-1,0
36933,-1769472,102,-56,-1,-1,0
36966,-1835008,102,-56,-1,-1,0
37000,8454144,102,-56,-1,-1,0
37033,-2228224,102,-56,-1,-1,0
37066,-2031616,102,-56,-1,-1,0
37100,-1966080,102,-56,-1,-1,0
37133,-983040,102,-56,-1,-1,0
37166,2555904,102,-56,-1,-1,0
37200,1966080,102,-56,-1,-1,0
37233,-524288,102,-56,-1,-1,0
37266,-2031616,102,-56,-1,-1,0
37300,-983040,102,-56,-1,-1,0
37333,-1048576,102,-56,-1,-1,0
37366,-1900544,102,-56,-1,-1,0
37400,-1835008,102,-56,-1,-1,0
37433,-1900544,102,-56,-1,-1,0
37466,4915200,102,-56,-1,-1,0
37500,-1769472,102,-56,-1,-1,0
37533,-2293760,102,-56,-1,-1,0
37566,-1835008,102,-56,-1,-1,0
37600,-655360,102,-56,-1,-1,0
37633,1769472,102,-56,-1,-1,0
37666,1703936,102,-56,-1,-1,0
37700,65536,102,-56,-1,-1,0
37733,-131072,102,-56,-1,-1,0
37766,-327680,102,-56,-1,-1,0
37800,-786432,102,-56,-1,-1,0
37833,-524288,102,-56,-1,-1,0
37866,-1179648,102,-56,-1,-1,0
37900,-1703936,102,-56,-1,-1,0
37933,6291456,102,-56,-1,-1,0
37966,-655360,102,-56,-1,-1,0
38000,-2162688,102,-56,-1,-1,0
38033,-1703936,102,-56,-1,-1,0
38066,-196608,102,-56,-1,-1,0
38100,3080192,102,-56,-1,-1,0
38133,2490368,102,-56,-1,-1,0
38166,-655360,102,-56,-1,-1,0
38200,-1048576,102,-56,-1,-1,0
38233,-720896,102,-56,-1,-1,0
38266,-1245184,103,-56,-1,-1,0
38300,-2031616,103,-56,-1,-1,0
38333,-1769472,103,-56,-1,-1,0
38366,-1441792,103,-56,-1,-1,0
38400,10813440,103,-56,-1,-1,0
38433,-2686976,103,-56,-1,-1,0
38466,-2359296,103,-56,-1,-1,0
38500,-1507328,103,-56,-1,-1,0
38533,-720896,103,-56,-1,-1,0
38566,786432,103,-56,-1,-1,0
38600,655360,103,-56,-1,-1,0
38633,131072,103,-56,-1,-1,0
38666,-983040,103,-56,-1,-1,0
38700,-917504,103,-56,-1,-1,0
38733,-917504,104,-56,-1,-1,0
38766,-786432,104,-56,-1,-1,0
38800,-851968,104,-56,-1,-1,0
38833,-1245184,104,-56,-1,-1,0
38866,13172736,104,-56,-1,-1,0
38900,-1900544,104,-56,-1,-1,0
38933,-851968,104,-56,-1,-1,0
38966,-393216,104,-56,-1,-1,0
39000,1310720,104,-56,-1,-1,0
39033,3538944,104,-56,-1,-1,0
39066,1769472,104,-56,-1,-1,0
39100,589824,104,-56,-1,-1,0
39133,-196608,104,-56,-1,-1,0
39166,-1048576,104,-56,-1,-1,0
39200,-1835008,104,-56,-1,-1,0
39233,-1769472,104,-56,-1,-1,0
39266,-2293760,104,-56,-1,-1,0
39300,-3080192,104,-56,-1,-1,0
39333,12582912,104,-56,-1,-1,0
39366,-3080192,104,-56,-1,-1,0
39400,-2555904,104,-56,-1,-1,0
39433,-2162688,104,-56,-1,-1,0
39466,-655360,104,-56,-1,-1,0
39500,1572864,104,-56,-1,-1,0
39533,1114112,104,-56,-1,-1,0
39566,-655360,104,-56,-1,-1,0
39600,-1048576,104,-56,-1,-1,0
39633,-851968,105,-56,-1,-1,0
39666,-1048576,105,-56,-1,-1,0
39700,-1048576,105,-56,-1,-1,0
39733,-1179648,105,-56,-1,-1,0
39766,-1179648,105,-56,-1,-1,0
39800,14024704,105,-56,-1,-1,0
39833,-3735552,105,-56,-1,-1,0
39866,-3014656,105,-56,-1,-1,0
39900,-917504,105,-56,-1,-1,0
39933,327680,105,-56,-1,-1,0
39966,1441792,105,-56,-1,-1,0
40000,589824,105,-56,-1,-1,0
40033,-458752,105,-56,-1,-1,0
40066,-589824,105,-56,-1,-1,0
40100,-655360,105,-56,-1,-1,0
40133,-1179648,105,-56,-1,-1,0
40166,-983040,105,-56,-1,-1,0
40200,-1310720,105,-56,-1,-1,0
40233,-1048576,105,-56,-1,-1,0
40266,9633792,105,-56,-1,-1,0
40300,-1769472,105,-56,-1,-1,0
40333,-1638400,105,-56,-1,-1,0
40366,-524288,105,-56,-1,-1,0
40400,1179648,105,-56,-1,-1,0
40433,2293760,105,-56,-1,-1,0
40466,786432,105,-56,-1,-1,0
40500,-327680,105,-56,-1,-1,0
40533,-131072,105,-56,-1,-1,0
40566,-983040,106,-56,-1,-1,0
40600,-917504,106,-56,-1,-1,0
40633,-1245184,106,-56,-1,-1,0
40666,-1376256,106,-56,-1,-1,0
40700,2162688,106,-56,-1,-1,0
40733,1769472,106,-56,-1,-1,0
40766,-2752512,106,-56,-1,-1,0
40800,-2424832,106,-56,-1,-1,0
40833,-589824,106,-56,-1,-1,0
40866,1441792,106,-56,-1,-1,0
40900,1179648,106,-56,-1,-1,0
40933,-393216,106,-56,-1,-1,0
40966,-589824,106,-56,-1,-1,0
41000,-196608,107,-56,-1,-1,0
41033,0,107,-56,-1,-1,0
41066,-983040,107,-56,-1,-1,0
41100,-2162688,107,-56,-1,-1,0
41133,-2097152,107,-56,-1,-1,0
41166,10027008,107,-56,-1,-1,0
41200,-3604480,107,-56,-1,-1,0
41233,-2883584,107,-56,-1,-1,0
41266,-1245184,107,-56,-1,-1,0
41300,-458752,107,-56,-1,-1,0
41333,1179648,107,-56,-1,-1,0
41366,1114112,107,-56,-1,-1,0
41400,-262144,107,-56,-1,-1,0
41433,-524288,107,-56,-1,-1,0
41466,-655360,107,-56,-1,-1,0
41500,-983040,107,-56,-1,-1,0
41533,-720896,107,-56,-1,-1,0
41566,-983040,107,-56,-1,-1,0
41600,-1114112,107,-56,-1,-1,0
41633,9437184,107,-56,-1,-1,0
41666,-2359296,107,-56,-1,-1,0
41700,-1638400,107,-56,-1,-1,0
41733,-1114112,107,-56,-1,-1,0
41766,983040,107,-56,-1,-1,0
41800,1376256,107,-56,-1,-1,0
41833,458752,107,-56,-1,-1,0
41866,-327680,107,-56,-1,-1,0
41900,-589824,107,-56,-1,-1,0
41933,-851968,107,-56,-1,-1,0
41966,-589824,107,-56,-1,-1,0
42000,-983040,107,-56,-1,-1,0
42033,-1376256,107,-56,-1,-1,0
42066,5046272,107,-56,-1,-1,0
42100,-1114112,107,-56,-1,-1,0
42133,-2228224,107,-56,-1,-1,0
42166,-2097152,107,-56,-1,-1,0
42200,-524288,107,-56,-1,-1,0
42233,1966080,107,-56,-1,-1,0
42266,1638400,107,-56,-1,-1,0
42300,131072,107,-56,-1,-1,0
42333,0,107,-56,-1,-1,0
42366,65536,108,-56,-1,-1,0
42400,-262144,108,-56,-1,-1,0
42433,-1245184,108,-56,-1,-1,0
42466,-1835008,108,-56,-1,-1,0
42500,-2555904,108,-56,-1,-1,0
42533,9895936,108,-56,-1,-1,0
42566,-2555904,108,-56,-1,-1,0
42600,-2162688,108,-56,-1,-1,0
42633,-2097152,108,-56,-1,-1,0
42666,-655360,108,-56,-1,-1,0
42700,1114112,108,-56,-1,-1,0
42733,196608,108,-56,-1,-1,0
42766,-1114112,108,-56,-1,-1,0
42800,-720896,108,-56,-1,-1,0
42833,-786432,108,-56,-1,-1,0
42866,-720896,108,-56,-1,-1,0
42900,-1179648,108,-56,-1,-1,0
42933,-1376256,108,-56,-1,-1,0
42966,5767168,108,-56,-1,-1,0
43000,-851968,108,-56,-1,-1,0
43033,-2097152,108,-56,-1,-1,0
43066,-1638400,108,-56,-1,-1,0
43100,-589824,108,-56,-1,-1,0
43133,2490368,108,-56,-1,-1,0
43166,1966080,108,-56,-1,-1,0
43200,655360,108,-56,-1,-1,0
43233,-65536,108,-56,-1,-1,0
43266,-131072,108,-56,-1,-1,0
43300,-720896,108,-56,-1,-1,0
43333,-589824,108,-56,-1,-1,0
43366,-1376256,108,-56,-1,-1,0
43400,-1900544,108,-56,-1,-1,0
43433,14024704,108,-56,-1,-1,0
43466,-2949120,108,-56,-1,-1,0
43500,-2621440,108,-56,-1,-1,0
43533,-2097152,108,-56,-1,-1,0
43566,0,108,-56,-1,-1,0
43600,1376256,108,-56,-1,-1,0
43633,196608,108,-56,-1,-1,0
43666,589824,108,-56,-1,-1,0
43700,-458752,109,-56,-1,-1,0
43733,-1441792,109,-56,-1,-1,0
43766,-1114112,109,-56,-1,-1,0
43800,-1376256,109,-56,-1,-1,0
43833,-1441792,109,-56,-1,-1,0
43866,5046272,109,-56,-1,-1,0
43900,-3604480,109,-56,-1,-1,0
43933,-2031616,109,-56,-1,-1,0
43966,-2490368,109,-56,-1,-1,0
44000,-851968,109,-56,-1,-1,0
44033,1114112,109,-56,-1,-1,0
44066,917504,109,-56,-1,-1,0
44100,-65536,109,-56,-1,-1,0
44133,-786432,109,-56,-1,-1,0
44166,-917504,109,-56,-1,-1,0
44200,-786432,109,-56,-1,-1,0
44233,-786432,109,-56,-1,-1,0
44266,-1376256,109,-56,-1,-1,0
44300,1441792,109,-56,-1,-1,0
44333,4259840,109,-56,-1,-1,0
44366,-1703936,109,-56,-1,-1,0
44400,-720896,109,-56,-1,-1,0
44433,327680,109,-56,-1,-1,0
44466,2097152,109,-56,-1,-1,0
44500,1900544,109,-56,-1,-1,0
44533,655360,109,-56,-1,-1,0
44566,0,109,-56,-1,-1,0
44600,-262144,109,-56,-1,-1,0
44633,-917504,109,-56,-1,-1,0
44666,-917504,109,-56,-1,-1,0
44700,-1376256,109,-56,-1,-1,0
44733,-1638400,109,-56,-1,-1,0
44766,13369344,109,-56,-1,-1,0
44800,-2424832,109,-56,-1,-1,0
44833,-2293760,109,-56,-1,-1,0
44866,-1441792,109,-56,-1,-1,0
44900,589824,109,-56,-1,-1,0
44933,1769472,109,-56,-1,-1,0
44966,65536,109,-56,-1,-1,0
45000,-851968,109,-56,-1,-1,0
45033,-786432,109,-56,-1,-1,0
45066,65536,109,-56,-1,-1,0
45100,-1572864,109,-56,-1,-1,0
45133,-655360,109,-56,-1,-1,0
45166,-983040,109,-56,-1,-1,0
45200,12582912,109,-56,-1,-1,0
45233,-3735552,109,-56,-1,-1,0
45266,-3211264,109,-56,-1,-1,0
45300,-1245184,109,-56,-1,-1,0
45333,-262144,109,-56,-1,-1,0
45366,983040,109,-56,-1,-1,0
45400,-458752,109,-56,-1,-1,0
45433,-1048576,109,-56,-1,-1,0
45466,-1245184,110,-56,-1,-1,0
45500,-1179648,110,-56,-1,-1,0
45533,-1376256,110,-56,-1,-1,0
45566,-1835008,110,-56,-1,-1,0
45600,-1638400,110,-56,-1,-1,0
45633,12582912,110,-56,-1,-1,0
45666,-2228224,110,-56,-1,-1,0
45700,-1769472,110,-56,-1,-1,0
45733,-917504,110,-56,-1,-1,0
45766,1114112,110,-56,-1,-1,0
45800,2424832,110,-56,-1,-1,0
45833,1114112,110,-56,-1,-1,0
45866,262144,110,-56,-1,-1,0
45900,-65536,110,-56,-1,-1,0
45933,-65536,110,-56,-1,-1,0
45966,-524288,110,-56,-1,-1,0
46000,-1114112,110,-56,-1,-1,0
46033,-1638400,110,-56,-1,-1,0
46066,14745600,110,-56,-1,-1,0
46100,-2490368,110,-56,-1,-1,0
46133,-2228224,110,-56,-1,-1,0
46166,-1638400,110,-56,-1,-1,0
46200,196608,110,-56,-1,-1,0
46233,1376256,110,-56,-1,-1,0
46266,131072,110,-56,-1,-1,0
46300,-1048576,111,-56,-1,-1,0
46333,-458752,111,-56,-1,-1,0
46366,-131072,111,-56,-1,-1,0
46400,-1179648,111,-56,-1,-1,0
46433,-1572864,111,-56,-1,-1,0
46466,-196608,111,-56,-1,-1,0
46500,9699328,111,-56,-1,-1,0
46533,-2097152,111,-56,-1,-1,0
46566,-2097152,111,-56,-1,-1,0
46600,-1507328,111,-56,-1,-1,0
46633,-1966080,111,-56,-1,-1,0
46666,-327680,111,-56,-1,-1,0
46700,-458752,111,-56,-1,-1,0
46733,-1900544,111,-56,-1,-1,0
46766,-1769472,111,-56,-1,-1,0
46800,-2228224,111,-56,-1,-1,0
46833,-2031616,111,-56,-1,-1,0
46866,-2424832,111,-56,-1,-1,0
46900,-917504,111,-56,-1,-1,0
46933,4587520,111,-56,-1,-1,0
46966,-2752512,111,-56,-1,-1,0
47000,-2162688,111,-56,-1,-1,0
47033,-1245184,111,-56,-1,-1,0
47066,1310720,111,-56,-1,-1,0
47100,1114112,111,-56,-1,-1,0
47133,655360,111,-56,-1,-1,0
47166,196608,111,-56,-1,-1,0
47200,196608,111,-56,-1,-1,0
47233,-131072,111,-56,-1,-1,0
47266,-196608,111,-56,-1,-1,0
47300,-524288,111,-56,-1,-1,0
47333,3342336,111,-56,-1,-1,0
47366,3866624,111,-56,-1,-1,0
47400,-1310720,111,-56,-1,-1,0
47433,-1179648,111,-56,-1,-1,0
47466,-196608,111,-56,-1,-1,0
47500,2228224,111,-56,-1,-1,0
47533,2424832,111,-56,-1,-1,0
47566,196608,111,-56,-1,-1,0
47600,-393216,112,-56,-1,-1,0
47633,-458752,112,-56,-1,-1,0
47666,-589824,112,-56,-1,-1,0
47700,-983040,112,-56,-1,-1,0
47733,-2097152,112,-56,-1,-1,0
47766,5898240,112,-56,-1,-1,0
47800,-1310720,112,-56,-1,-1,0
47833,-2228224,112,-56,-1,-1,0
47866,-1572864,112,-56,-1,-1,0
47900,-589824,112,-56,-1,-1,0
47933,1572864,112,-56,-1,-1,0
47966,720896,112,-56,-1,-1,0
48000,-1507328,113,-56,-1,-1,0
48033,-1769472,113,-56,-1,-1,0
48066,-2686976,113,-56,-1,-1,0
48100,-1966080,113,-56,-1,-1,0
48133,-2293760,113,-56,-1,-1,0
48166,-2883584,113,-56,-1,-1,0
48200,9961472,113,-56,-1,-1,0
48233,-2555904,113,-56,-1,-1,0
48266,-3014656,113,-56,-1,-1,0
48300,-1507328,113,-56,-1,-1,0
48333,-851968,113,-56,-1,-1,0
48366,1769472,113,-56,-1,-1,0
48400,917504,113,-56,-1,-1,0
48433,262144,114,-56,-1,-1,0
48466,524288,114,-56,-1,-1,0
48500,720896,114,-56,-1,-1,0
48533,262144,114,-56,-1,-1,0
48566,393216,114,-56,-1,-1,0
48600,-65536,114,-56,-1,-1,0
48633,16121856,114,-56,-1,-1,0
48666,-851968,114,-56,-1,-1,0
48700,-1048576,114,-56,-1,-1,0
48733,-786432,114,-56,-1,-1,0
48766,786432,114,-56,-1,-1,0
48800,1376256,114,-56,-1,-1,0
48833,-983040,114,-56,-1,-1,0
48866,-2031616,114,-56,-1,-1,0
48900,-2359296,114,-56,-1,-1,0
48933,-2555904,114,-56,-1,-1,0
48966,-2752512,114,-56,-1,-1,0
49000,-3080192,114,-56,-1,-1,0
49033,-3407872,114,-56,-1,-1,0
49066,8978432,114,-56,-1,-1,0
49100,-3604480,114,-56,-1,-1,0
49133,-2555904,114,-56,-1,-1,0
49166,-1900544,114,-56,-1,-1,0
49200,131072,114,-56,-1,-1,0
49233,983040,114,-56,-1,-1,0
49266,327680,114,-56,-1,-1,0
49300,-131072,115,-56,-1,-1,0
49333,0,115,-56,-1,-1,0
49366,-327680,115,-56,-1,-1,0
49400,-720896,115,-56,-1,-1,0
49433,-1572864,115,-56,-1,-1,0
49466,720896,115,-56,-1,-1,0
49500,3473408,115,-56,-1,-1,0
49533,-3407872,115,-56,-1,-1,0
49566,-2818048,115,-56,-1,-1,0
49600,-1835008,115,-56,-1,-1,0
49633,917504,115,-56,-1,-1,0
49666,131072,115,-56,-1,-1,0
49700,-786432,115,-56,-1,-1,0
49733,-327680,116,-56,-1,-1,0
49766,-524288,116,-56,-1,-1,0
49800,-917504,116,-56,-1,-1,0
49833,-1114112,116,-56,-1,-1,0
49866,-983040,116,-56,-1,-1,0
49900,4718592,116,-56,-1,-1,0
49933,-262144,116,-56,-1,-1,0
49966,-1572864,116,-56,-1,-1,0
50000,-1376256,116,-56,-1,-1,0
