milliseconds, ECG, ECG HR, PPG, PPG HR, SpO2, PI
0,-1245184,77,-56,-1,-1,0
33,-1507328,77,-56,-1,-1,0
66,-786432,77,-56,-1,-1,0
100,-1245184,77,-56,-1,-1,0
133,-1245184,78,-56,-1,-1,0
166,9306112,78,-56,-1,-1,0
200,-1966080,78,-56,-1,-1,0
233,-1441792,78,-56,-1,-1,0
266,-851968,78,-56,-1,-1,0
300,0,78,-56,-1,-1,0
333,2359296,78,-56,-1,-1,0
366,3211264,78,-56,-1,-1,0
400,851968,78,-56,-1,-1,0
433,-720896,78,-56,-1,-1,0
466,-851968,78,-56,-1,-1,0
500,-983040,78,-56,-1,-1,0
533,-589824,78,-56,-1,-1,0
566,-1048576,78,-56,-1,-1,0
600,-1245184,78,-56,-1,-1,0
633,-1310720,78,-56,-1,-1,0
666,-917504,78,-56,-1,-1,0
700,-1310720,78,-56,-1,-1,0
733,-1703936,78,-56,-1,-1,0
766,13828096,78,-56,-1,-1,0
800,-1572864,78,-56,-1,-1,0
833,-1114112,78,-56,-1,-1,0
866,-655360,78,-56,-1,-1,0
900,720896,78,-56,-1,-1,0
933,2883584,78,-56,-1,-1,0
966,2424832,78,-56,-1,-1,0
1000,-393216,78,-56,-1,-1,0
1033,-983040,78,-56,-1,-1,0
1066,-1179648,78,-56,-1,-1,0
1100,-917504,78,-56,-1,-1,0
1133,-1048576,78,-56,-1,-1,0
1166,-1245184,78,-56,-1,-1,0
1200,-1310720,78,-56,-1,-1,0
1233,-1376256,78,-56,-1,-1,0
1266,-1245184,78,-56,-1,-1,0
1300,-1179648,78,-56,-1,-1,0
1333,-1376256,78,-56,-1,-1,0
1366,2818048,78,-56,-1,-1,0
1400,2293760,79,-56,-1,-1,0
1433,-1441792,79,-56,-1,-1,0
1466,-1179648,79,-56,-1,-1,0
1500,-458752,79,-56,-1,-1,0
1533,1245184,79,-56,-1,-1,0
1566,2949120,79,-56,-1,-1,0
1600,1245184,79,-56,-1,-1,0
1633,-983040,79,-56,-1,-1,0
1666,-1048576,79,-56,-1,-1,0
1700,-1048576,79,-56,-1,-1,0
1733,-983040,79,-56,-1,-1,0
1766,-1245184,79,-56,-1,-1,0
1800,-1310720,79,-56,-1,-1,0
1833,-1376256,79,-56,-1,-1,0
1866,-1507328,79,-56,-1,-1,0
1900,-1245184,79,-56,-1,-1,0
1933,-1376256,79,-56,-1,-1,0
1966,-1441792,79,-56,-1,-1,0
2000,2490368,79,-56,-1,-1,0
2033,1507328,79,-56,-1,-1,0
2066,-1507328,79,-56,-1,-1,0
2100,-851968,79,-56,-1,-1,0
2133,-327680,79,-56,-1,-1,0
2166,1441792,79,-56,-1,-1,0
2200,3080192,79,-56,-1,-1,0
2233,1769472,79,-56,-1,-1,0
2266,-720896,79,-56,-1,-1,0
2300,-786432,79,-56,-1,-1,0
2333,-786432,79,-56,-1,-1,0
2366,-851968,79,-56,-1,-1,0
2400,-1179648,79,-56,-1,-1,0
2433,-1179648,79,-56,-1,-1,0
2466,-1245184,79,-56,-1,-1,0
2500,-1310720,79,-56,-1,-1,0
2533,-1179648,79,-56,-1,-1,0
2566,-720896,79,-56,-1,-1,0
2600,-1114112,79,-56,-1,-1,0
2633,-1638400,79,-56,-1,-1,0
2666,12779520,79,-56,-1,-1,0
2700,-1179648,79,-56,-1,-1,0
2733,-1114112,79,-56,-1,-1,0
2766,-589824,79,-56,-1,-1,0
2800,393216,79,-56,-1,-1,0
2833,2359296,79,-56,-1,-1,0
2866,2228224,79,-56,-1,-1,0
2900,0,79,-56,-1,-1,0
2933,-917504,79,-56,-1,-1,0
2966,-786432,79,-56,-1,-1,0
3000,-786432,79,-56,-1,-1,0
3033,-983040,79,-56,-1,-1,0
3066,-1114112,79,-56,-1,-1,0
3100,-1245184,79,-56,-1,-1,0
3133,-1114112,79,-56,-1,-1,0
3166,-1310720,79,-56,-1,-1,0
3200,-1048576,79,-56,-1,-1,0
3233,-983040,79,-56,-1,-1,0
3266,-1310720,79,-56,-1,-1,0
3300,-786432,79,-56,-1,-1,0
3333,7208960,79,-56,-1,-1,0
3366,-1376256,78,-56,-1,-1,0
3400,-1114112,78,-56,-1,-1,0
3433,-327680,78,-56,-1,-1,0
3466,1048576,78,-56,-1,-1,0
3500,3080192,78,-56,-1,-1,0
3533,2555904,78,-56,-1,-1,0
3566,-65536,78,-56,-1,-1,0
3600,-720896,78,-56,-1,-1,0
3633,-524288,78,-56,-1,-1,0
3666,-589824,78,-56,-1,-1,0
3699,-393216,78,-56,-1,-1,0
3733,-917504,78,-56,-1,-1,0
3766,-851968,78,-56,-1,-1,0
3800,-1048576,78,-56,-1,-1,0
3833,-917504,78,-56,-1,-1,0
3866,-655360,78,-56,-1,-1,0
3900,-1048576,78,-56,-1,-1,0
3933,-1441792,78,-56,-1,-1,0
3966,11468800,78,-56,-1,-1,0
4000,-1376256,78,-56,-1,-1,0
4033,-1048576,78,-56,-1,-1,0
4066,-589824,78,-56,-1,-1,0
4100,589824,78,-56,-1,-1,0
4133,2752512,78,-56,-1,-1,0
4166,2555904,78,-56,-1,-1,0
4200,0,78,-56,-1,-1,0
4233,-917504,78,-56,-1,-1,0
4266,-786432,78,-56,-1,-1,0
4300,-786432,78,-56,-1,-1,0
4333,-1048576,78,-56,-1,-1,0
4366,-1179648,78,-56,-1,-1,0
4400,-1179648,78,-56,-1,-1,0
4433,-1114112,78,-56,-1,-1,0
4466,-1310720,78,-56,-1,-1,0
4500,-851968,78,-56,-1,-1,0
4533,-1114112,78,-56,-1,-1,0
4566,-1376256,78,-56,-1,-1,0
4600,7864320,78,-56,-1,-1,0
4633,-1441792,78,-56,-1,-1,0
4666,-1507328,78,-56,-1,-1,0
4700,-851968,78,-56,-1,-1,0
4733,-65536,78,-56,-1,-1,0
4766,2031616,78,-56,-1,-1,0
4800,2883584,78,-56,-1,-1,0
4833,524288,78,-56,-1,-1,0
4866,-1048576,78,-56,-1,-1,0
4900,-1114112,78,-56,-1,-1,0
4933,-983040,78,-56,-1,-1,0
4966,-1114112,78,-56,-1,-1,0
5000,-1179648,78,-56,-1,-1,0
5033,-1310720,78,-56,-1,-1,0
5066,-1376256,78,-56,-1,-1,0
5100,-1310720,78,-56,-1,-1,0
5133,-983040,78,-56,-1,-1,0
5166,-1376256,78,-56,-1,-1,0
5200,-1835008,78,-56,-1,-1,0
5233,11337728,78,-56,-1,-1,0
5266,-1638400,78,-56,-1,-1,0
5300,-1310720,78,-56,-1,-1,0
5333,-983040,78,-56,-1,-1,0
5366,131072,78,-56,-1,-1,0
5400,2424832,78,-56,-1,-1,0
5433,2686976,78,-56,-1,-1,0
5466,262144,78,-56,-1,-1,0
5500,-983040,78,-56,-1,-1,0
5533,-917504,78,-56,-1,-1,0
5566,-1048576,78,-56,-1,-1,0
5600,-1048576,78,-56,-1,-1,0
5633,-1179648,78,-56,-1,-1,0
5666,-1048576,78,-56,-1,-1,0
5700,-1245184,78,-56,-1,-1,0
5733,-851968,78,-56,-1,-1,0
5766,-1048576,78,-56,-1,-1,0
5800,-1310720,78,-56,-1,-1,0
5833,9175040,79,-56,-1,-1,0
5866,-1441792,79,-56,-1,-1,0
5900,-983040,79,-56,-1,-1,0
5933,-458752,79,-56,-1,-1,0
5966,393216,79,-56,-1,-1,0
6000,2883584,79,-56,-1,-1,0
6033,3866624,79,-56,-1,-1,0
6066,1179648,79,-56,-1,-1,0
6100,-393216,79,-56,-1,-1,0
6133,-524288,79,-56,-1,-1,0
6166,-327680,79,-56,-1,-1,0
6200,-786432,79,-56,-1,-1,0
6233,-720896,79,-56,-1,-1,0
6266,-1310720,79,-56,-1,-1,0
6300,-1507328,79,-56,-1,-1,0
6333,-917504,79,-56,-1,-1,0
6366,-1048576,79,-56,-1,-1,0
6400,-1769472,79,-56,-1,-1,0
6433,12451840,80,-56,-1,-1,0
6466,-1507328,80,-56,-1,-1,0
6500,-1245184,80,-56,-1,-1,0
6533,-524288,80,-56,-1,-1,0
6566,131072,80,-56,-1,-1,0
6600,3014656,80,-56,-1,-1,0
6633,2621440,80,-56,-1,-1,0
6666,65536,80,-56,-1,-1,0
6700,-851968,80,-56,-1,-1,0
6733,-917504,80,-56,-1,-1,0
6766,-917504,80,-56,-1,-1,0
6800,-1376256,80,-56,-1,-1,0
6833,-1179648,80,-56,-1,-1,0
6866,-1376256,80,-56,-1,-1,0
6899,-1310720,80,-56,-1,-1,0
6933,-1245184,80,-56,-1,-1,0
6966,-1441792,80,-56,-1,-1,0
7000,-1900544,80,-56,-1,-1,0
7033,12386304,80,-56,-1,-1,0
7066,-1638400,80,-56,-1,-1,0
7100,-1507328,80,-56,-1,-1,0
7133,-1114112,80,-56,-1,-1,0
7166,131072,80,-56,-1,-1,0
7200,2228224,80,-56,-1,-1,0
7233,2359296,80,-56,-1,-1,0
7266,0,80,-56,-1,-1,0
7300,-1376256,80,-56,-1,-1,0
7333,-1048576,80,-56,-1,-1,0
7366,-1179648,80,-56,-1,-1,0
7399,-1048576,80,-56,-1,-1,0
7433,-1310720,80,-56,-1,-1,0
7466,-1900544,80,-56,-1,-1,0
7500,-1441792,80,-56,-1,-1,0
7533,-983040,80,-56,-1,-1,0
7566,-1179648,80,-56,-1,-1,0
7600,-1835008,81,-56,-1,-1,0
7633,11534336,81,-56,-1,-1,0
7666,-1572864,81,-56,-1,-1,0
7700,-851968,81,-56,-1,-1,0
7733,-786432,81,-56,-1,-1,0
7766,851968,81,-56,-1,-1,0
7800,2818048,81,-56,-1,-1,0
7833,3276800,81,-56,-1,-1,0
7866,720896,81,-56,-1,-1,0
7899,-262144,81,-56,-1,-1,0
7933,-327680,81,-56,-1,-1,0
7966,-393216,81,-56,-1,-1,0
8000,-851968,81,-56,-1,-1,0
8033,-1245184,81,-56,-1,-1,0
8066,-1114112,81,-56,-1,-1,0
8100,-1048576,81,-56,-1,-1,0
8133,-1179648,81,-56,-1,-1,0
8166,-1245184,81,-56,-1,-1,0
8200,-589824,81,-56,-1,-1,0
8233,8060928,81,-56,-1,-1,0
8266,-1441792,81,-56,-1,-1,0
8300,-1179648,81,-56,-1,-1,0
8333,-196608,81,-56,-1,-1,0
8366,1245184,81,-56,-1,-1,0
8400,3276800,81,-56,-1,-1,0
8433,2097152,81,-56,-1,-1,0
8466,-589824,81,-56,-1,-1,0
8500,-1114112,81,-56,-1,-1,0
8533,-786432,81,-56,-1,-1,0
8566,-1048576,81,-56,-1,-1,0
8600,-1179648,81,-56,-1,-1,0
8633,-1441792,81,-56,-1,-1,0
8666,-1507328,81,-56,-1,-1,0
8700,-1441792,81,-56,-1,-1,0
8733,-1638400,81,-56,-1,-1,0
8766,-1572864,81,-56,-1,-1,0
8800,-1638400,81,-56,-1,-1,0
8833,9764864,81,-56,-1,-1,0
8866,-1966080,81,-56,-1,-1,0
8900,-1835008,81,-56,-1,-1,0
8933,-1310720,81,-56,-1,-1,0
8966,-65536,81,-56,-1,-1,0
9000,2490368,81,-56,-1,-1,0
9033,1507328,81,-56,-1,-1,0
9066,-1376256,81,-56,-1,-1,0
9100,-2031616,81,-56,-1,-1,0
9133,-1703936,81,-56,-1,-1,0
9166,-1048576,81,-56,-1,-1,0
9200,-1114112,81,-56,-1,-1,0
9233,-1114112,81,-56,-1,-1,0
9266,-1507328,81,-56,-1,-1,0
9300,-917504,81,-56,-1,-1,0
9333,-786432,81,-56,-1,-1,0
9366,-1179648,81,-56,-1,-1,0
9400,-1703936,81,-56,-1,-1,0
9433,12910592,81,-56,-1,-1,0
9466,-1048576,81,-56,-1,-1,0
9500,-1245184,81,-56,-1,-1,0
9533,-720896,81,-56,-1,-1,0
9566,589824,81,-56,-1,-1,0
9600,2555904,81,-56,-1,-1,0
9633,2752512,81,-56,-1,-1,0
9666,458752,81,-56,-1,-1,0
9700,-1114112,81,-56,-1,-1,0
9733,-655360,81,-56,-1,-1,0
9766,-917504,81,-56,-1,-1,0
9800,-1048576,81,-56,-1,-1,0
9833,-1310720,81,-56,-1,-1,0
9866,-1179648,81,-56,-1,-1,0
9900,-983040,81,-56,-1,-1,0
9933,-917504,81,-56,-1,-1,0
9966,-1114112,81,-56,-1,-1,0
10000,-1179648,81,-56,-1,-1,0
10033,-1900544,81,-56,-1,-1,0
10066,12517376,81,-56,-1,-1,0
10100,-983040,81,-56,-1,-1,0
10133,-1048576,81,-56,-1,-1,0
10166,-262144,81,-56,-1,-1,0
10200,720896,81,-56,-1,-1,0
10233,3145728,81,-56,-1,-1,0
10266,3538944,81,-56,-1,-1,0
10300,524288,81,-56,-1,-1,0
10333,0,81,-56,-1,-1,0
10366,-196608,81,-56,-1,-1,0
10400,-393216,81,-56,-1,-1,0
10433,-393216,81,-56,-1,-1,0
10466,-524288,81,-56,-1,-1,0
10500,-458752,81,-56,-1,-1,0
10533,-589824,81,-56,-1,-1,0
10566,-983040,81,-56,-1,-1,0
10600,-786432,81,-56,-1,-1,0
10633,-1310720,81,-56,-1,-1,0
10666,-1507328,81,-56,-1,-1,0
10700,12517376,81,-56,-1,-1,0
10733,-1441792,81,-56,-1,-1,0
10766,-1507328,81,-56,-1,-1,0
10800,-458752,81,-56,-1,-1,0
10833,917504,81,-56,-1,-1,0
10866,3211264,81,-56,-1,-1,0
10900,2752512,81,-56,-1,-1,0
10933,-131072,81,-56,-1,-1,0
10966,-786432,81,-56,-1,-1,0
11000,-720896,81,-56,-1,-1,0
11033,-851968,81,-56,-1,-1,0
11066,-983040,81,-56,-1,-1,0
11100,-1179648,81,-56,-1,-1,0
11133,-1245184,81,-56,-1,-1,0
11166,-983040,81,-56,-1,-1,0
11200,-1114112,81,-56,-1,-1,0
11233,-720896,81,-56,-1,-1,0
11266,-1376256,81,-56,-1,-1,0
11300,-2031616,81,-56,-1,-1,0
11333,13238272,81,-56,-1,-1,0
11366,-1441792,81,-56,-1,-1,0
11400,-1310720,81,-56,-1,-1,0
11433,-327680,81,-56,-1,-1,0
11466,393216,81,-56,-1,-1,0
11500,2818048,81,-56,-1,-1,0
11533,2555904,81,-56,-1,-1,0
11566,262144,81,-56,-1,-1,0
11600,-1179648,81,-56,-1,-1,0
11633,-786432,81,-56,-1,-1,0
11666,-393216,81,-56,-1,-1,0
11700,-786432,81,-56,-1,-1,0
11733,-917504,81,-56,-1,-1,0
11766,-1376256,81,-56,-1,-1,0
11800,-1114112,81,-56,-1,-1,0
11833,-1048576,81,-56,-1,-1,0
11866,-851968,81,-56,-1,-1,0
11900,-1048576,81,-56,-1,-1,0
11933,-1703936,81,-56,-1,-1,0
11966,13172736,81,-56,-1,-1,0
12000,-1310720,81,-56,-1,-1,0
12033,-1179648,81,-56,-1,-1,0
12066,-458752,81,-56,-1,-1,0
12100,393216,81,-56,-1,-1,0
12133,2621440,81,-56,-1,-1,0
12166,2883584,81,-56,-1,-1,0
12200,0,81,-56,-1,-1,0
12233,-851968,81,-56,-1,-1,0
12266,-983040,81,-56,-1,-1,0
12300,-786432,81,-56,-1,-1,0
12333,-1179648,81,-56,-1,-1,0
12366,-1310720,81,-56,-1,-1,0
12400,-1572864,81,-56,-1,-1,0
12433,-1441792,81,-56,-1,-1,0
12466,-1638400,81,-56,-1,-1,0
12500,-1310720,81,-56,-1,-1,0
12533,-1245184,81,-56,-1,-1,0
12566,-1572864,81,-56,-1,-1,0
12600,6684672,81,-56,-1,-1,0
12633,-1507328,81,-56,-1,-1,0
12666,-1114112,81,-56,-1,-1,0
12700,-1114112,81,-56,-1,-1,0
12733,0,81,-56,-1,-1,0
12766,1835008,81,-56,-1,-1,0
12800,3473408,81,-56,-1,-1,0
12833,1179648,81,-56,-1,-1,0
12866,-786432,81,-56,-1,-1,0
12900,-851968,81,-56,-1,-1,0
12933,-720896,81,-56,-1,-1,0
12966,-983040,81,-56,-1,-1,0
13000,-1048576,81,-56,-1,-1,0
13033,-1245184,81,-56,-1,-1,0
13066,-1114112,81,-56,-1,-1,0
13100,-1114112,81,-56,-1,-1,0
13133,-983040,81,-56,-1,-1,0
13166,-1245184,81,-56,-1,-1,0
13200,-1114112,81,-56,-1,-1,0
13233,10354688,81,-56,-1,-1,0
13266,-1310720,81,-56,-1,-1,0
13299,-1310720,81,-56,-1,-1,0
13333,-524288,81,-56,-1,-1,0
13366,917504,81,-56,-1,-1,0
13400,3342336,81,-56,-1,-1,0
13433,2490368,81,-56,-1,-1,0
13466,-262144,81,-56,-1,-1,0
13500,-1048576,81,-56,-1,-1,0
13533,-917504,81,-56,-1,-1,0
13566,-1048576,81,-56,-1,-1,0
13600,-1245184,81,-56,-1,-1,0
13633,-1310720,81,-56,-1,-1,0
13666,-1310720,81,-56,-1,-1,0
13700,-1441792,81,-56,-1,-1,0
13733,-1179648,81,-56,-1,-1,0
13766,-1376256,81,-56,-1,-1,0
13799,-1638400,81,-56,-1,-1,0
13833,6488064,81,-56,-1,-1,0
13866,-917504,81,-56,-1,-1,0
13900,-1376256,81,-56,-1,-1,0
13933,-1114112,81,-56,-1,-1,0
13966,-131072,81,-56,-1,-1,0
14000,1900544,81,-56,-1,-1,0
14033,3342336,81,-56,-1,-1,0
14066,720896,81,-56,-1,-1,0
14100,-1048576,81,-56,-1,-1,0
14133,-1114112,81,-56,-1,-1,0
14166,-917504,81,-56,-1,-1,0
14200,-1048576,81,-56,-1,-1,0
14233,-1310720,81,-56,-1,-1,0
14266,-1310720,81,-56,-1,-1,0
14299,-1441792,81,-56,-1,-1,0
14333,-1310720,81,-56,-1,-1,0
14366,-1114112,81,-56,-1,-1,0
14400,-1376256,81,-56,-1,-1,0
14433,-1572864,81,-56,-1,-1,0
14466,12451840,81,-56,-1,-1,0
14500,-1310720,81,-56,-1,-1,0
14533,-1245184,81,-56,-1,-1,0
14566,-655360,81,-56,-1,-1,0
14600,655360,81,-56,-1,-1,0
14633,2949120,81,-56,-1,-1,0
14666,2359296,81,-56,-1,-1,0
14700,-393216,81,-56,-1,-1,0
14733,-1048576,81,-56,-1,-1,0
14766,-983040,81,-56,-1,-1,0
14799,-917504,81,-56,-1,-1,0
14833,-1179648,81,-56,-1,-1,0
14866,-1114112,81,-56,-1,-1,0
14900,-1179648,81,-56,-1,-1,0
14933,-1179648,81,-56,-1,-1,0
14966,-983040,81,-56,-1,-1,0
15000,-1310720,81,-56,-1,-1,0
15033,-1769472,81,-56,-1,-1,0
15066,12386304,81,-56,-1,-1,0
15100,-1245184,81,-56,-1,-1,0
15133,-1310720,81,-56,-1,-1,0
15166,-786432,81,-56,-1,-1,0
15200,196608,81,-56,-1,-1,0
15233,2424832,81,-56,-1,-1,0
15266,2818048,81,-56,-1,-1,0
15299,131072,81,-56,-1,-1,0
15333,-786432,81,-56,-1,-1,0
15366,-917504,81,-56,-1,-1,0
15400,-917504,81,-56,-1,-1,0
15433,-1114112,81,-56,-1,-1,0
15466,-1179648,81,-56,-1,-1,0
15500,-1310720,81,-56,-1,-1,0
15533,-1441792,81,-56,-1,-1,0
15566,-983040,81,-56,-1,-1,0
15600,-1310720,81,-56,-1,-1,0
15633,-1703936,81,-56,-1,-1,0
15666,10485760,81,-56,-1,-1,0
15700,-1376256,81,-56,-1,-1,0
15733,-1310720,81,-56,-1,-1,0
15766,-786432,81,-56,-1,-1,0
15799,196608,81,-56,-1,-1,0
15833,2293760,81,-56,-1,-1,0
15866,2752512,81,-56,-1,-1,0
15900,393216,81,-56,-1,-1,0
15933,-720896,81,-56,-1,-1,0
15966,-720896,81,-56,-1,-1,0
16000,-720896,81,-56,-1,-1,0
16033,-917504,81,-56,-1,-1,0
16066,-1114112,81,-56,-1,-1,0
16100,-1114112,81,-56,-1,-1,0
16133,-1245184,81,-56,-1,-1,0
16166,-917504,81,-56,-1,-1,0
16200,-1114112,81,-56,-1,-1,0
16233,-1638400,81,-56,-1,-1,0
16266,11862016,81,-56,-1,-1,0
16300,-1245184,81,-56,-1,-1,0
16333,-1179648,81,-56,-1,-1,0
16366,-655360,81,-56,-1,-1,0
16400,393216,81,-56,-1,-1,0
16433,2359296,81,-56,-1,-1,0
16466,2359296,81,-56,-1,-1,0
16500,131072,81,-56,-1,-1,0
16533,-851968,81,-56,-1,-1,0
16566,-720896,81,-56,-1,-1,0
16600,-851968,81,-56,-1,-1,0
16633,-1048576,81,-56,-1,-1,0
16666,-1245184,81,-56,-1,-1,0
16700,-1310720,81,-56,-1,-1,0
16733,-1376256,81,-56,-1,-1,0
16766,-1114112,81,-56,-1,-1,0
16800,-1441792,81,-56,-1,-1,0
16833,-1769472,81,-56,-1,-1,0
16866,9830400,81,-56,-1,-1,0
16900,-1638400,81,-56,-1,-1,0
16933,-1245184,81,-56,-1,-1,0
16966,-720896,81,-56,-1,-1,0
17000,524288,81,-56,-1,-1,0
17033,2621440,81,-56,-1,-1,0
17066,2162688,81,-56,-1,-1,0
17100,-262144,81,-56,-1,-1,0
17133,-917504,81,-56,-1,-1,0
17166,-851968,81,-56,-1,-1,0
17200,-917504,81,-56,-1,-1,0
17233,-1114112,81,-56,-1,-1,0
17266,-1310720,81,-56,-1,-1,0
17300,-1376256,81,-56,-1,-1,0
17333,-1048576,81,-56,-1,-1,0
17366,-1310720,81,-56,-1,-1,0
17400,-1703936,81,-56,-1,-1,0
17433,9633792,81,-56,-1,-1,0
17466,-1835008,81,-56,-1,-1,0
17500,-1310720,81,-56,-1,-1,0
17533,-851968,81,-56,-1,-1,0
17566,262144,81,-56,-1,-1,0
17600,2555904,81,-56,-1,-1,0
17633,3145728,81,-56,-1,-1,0
17666,589824,81,-56,-1,-1,0
17700,-851968,81,-56,-1,-1,0
17733,-786432,81,-56,-1,-1,0
17766,-720896,81,-56,-1,-1,0
17800,-917504,81,-56,-1,-1,0
17833,-1179648,81,-56,-1,-1,0
17866,-1179648,81,-56,-1,-1,0
17900,-917504,81,-56,-1,-1,0
17933,-1179648,81,-56,-1,-1,0
17966,-1376256,81,-56,-1,-1,0
18000,7864320,81,-56,-1,-1,0
18033,-1376256,81,-56,-1,-1,0
18066,-1179648,81,-56,-1,-1,0
18100,-851968,81,-56,-1,-1,0
18133,0,81,-56,-1,-1,0
18166,2228224,81,-56,-1,-1,0
18200,3080192,81,-56,-1,-1,0
18233,524288,81,-56,-1,-1,0
18266,-1048576,81,-56,-1,-1,0
18300,-983040,81,-56,-1,-1,0
18333,-851968,81,-56,-1,-1,0
18366,-1048576,81,-56,-1,-1,0
18400,-1245184,81,-56,-1,-1,0
18433,-1310720,81,-56,-1,-1,0
18466,-1376256,81,-56,-1,-1,0
18500,-1245184,81,-56,-1,-1,0
18533,-1441792,81,-56,-1,-1,0
18566,-1507328,82,-56,-1,-1,0
18600,11665408,82,-56,-1,-1,0
18633,-1376256,82,-56,-1,-1,0
18666,-1245184,82,-56,-1,-1,0
18700,-655360,82,-56,-1,-1,0
18733,786432,82,-56,-1,-1,0
18766,3014656,82,-56,-1,-1,0
18800,2097152,82,-56,-1,-1,0
18833,-524288,82,-56,-1,-1,0
18866,-1048576,82,-56,-1,-1,0
18900,-917504,82,-56,-1,-1,0
18933,-851968,82,-56,-1,-1,0
18966,-983040,82,-56,-1,-1,0
19000,-1114112,82,-56,-1,-1,0
19033,-1245184,82,-56,-1,-1,0
19066,-1179648,82,-56,-1,-1,0
19100,-1114112,82,-56,-1,-1,0
19133,-1245184,82,-56,-1,-1,0
19166,3801088,82,-56,-1,-1,0
19200,1507328,82,-56,-1,-1,0
19233,-1310720,82,-56,-1,-1,0
19266,-1048576,82,-56,-1,-1,0
19300,-196608,82,-56,-1,-1,0
19333,1638400,82,-56,-1,-1,0
19366,3211264,82,-56,-1,-1,0
19400,1245184,82,-56,-1,-1,0
19433,-720896,82,-56,-1,-1,0
19466,-917504,82,-56,-1,-1,0
19500,-851968,82,-56,-1,-1,0
19533,-917504,82,-56,-1,-1,0
19566,-1114112,82,-56,-1,-1,0
19600,-1310720,82,-56,-1,-1,0
19633,-1245184,82,-56,-1,-1,0
19666,-1376256,82,-56,-1,-1,0
19700,-1114112,82,-56,-1,-1,0
19733,-1441792,82,-56,-1,-1,0
19766,-1835008,82,-56,-1,-1,0
19800,12779520,83,-56,-1,-1,0
19833,-1376256,83,-56,-1,-1,0
19866,-1376256,83,-56,-1,-1,0
19900,-786432,83,-56,-1,-1,0
19933,589824,83,-56,-1,-1,0
19966,2818048,83,-56,-1,-1,0
20000,2162688,83,-56,-1,-1,0
20033,-393216,83,-56,-1,-1,0
20066,-1048576,83,-56,-1,-1,0
20100,-917504,83,-56,-1,-1,0
20133,-983040,83,-56,-1,-1,0
20166,-1114112,83,-56,-1,-1,0
20200,-1179648,83,-56,-1,-1,0
20233,-1310720,83,-56,-1,-1,0
20266,-1376256,83,-56,-1,-1,0
20300,-1179648,83,-56,-1,-1,0
20333,-1376256,83,-56,-1,-1,0
20366,-1441792,83,-56,-1,-1,0
20400,5373952,83,-56,-1,-1,0
20433,-196608,83,-56,-1,-1,0
20466,-1310720,83,-56,-1,-1,0
20500,-1048576,83,-56,-1,-1,0
20533,-196608,83,-56,-1,-1,0
20566,1703936,83,-56,-1,-1,0
20600,2883584,83,-56,-1,-1,0
20633,851968,83,-56,-1,-1,0
20666,-851968,83,-56,-1,-1,0
20700,-851968,83,-56,-1,-1,0
20733,-851968,83,-56,-1,-1,0
20766,-1114112,83,-56,-1,-1,0
20800,-1245184,83,-56,-1,-1,0
20833,-1376256,83,-56,-1,-1,0
20866,-1441792,83,-56,-1,-1,0
20900,-1507328,83,-56,-1,-1,0
20933,-1245184,83,-56,-1,-1,0
20966,-1572864,83,-56,-1,-1,0
21000,-1900544,83,-56,-1,-1,0
21033,10223616,83,-56,-1,-1,0
21066,-1638400,83,-56,-1,-1,0
21100,-1572864,83,-56,-1,-1,0
21133,-1114112,83,-56,-1,-1,0
21166,-65536,83,-56,-1,-1,0
21200,2097152,83,-56,-1,-1,0
21233,2818048,83,-56,-1,-1,0
21266,524288,83,-56,-1,-1,0
21300,-720896,83,-56,-1,-1,0
21333,-589824,83,-56,-1,-1,0
21366,-655360,83,-56,-1,-1,0
21400,-655360,83,-56,-1,-1,0
21433,-851968,83,-56,-1,-1,0
21466,-917504,83,-56,-1,-1,0
21500,-983040,83,-56,-1,-1,0
21533,-720896,83,-56,-1,-1,0
21566,-1114112,83,-56,-1,-1,0
21600,-1507328,83,-56,-1,-1,0
21633,11534336,83,-56,-1,-1,0
21666,-1441792,83,-56,-1,-1,0
21700,-1048576,83,-56,-1,-1,0
21733,-589824,83,-56,-1,-1,0
21766,458752,83,-56,-1,-1,0
21800,2818048,83,-56,-1,-1,0
21833,3080192,83,-56,-1,-1,0
21866,393216,83,-56,-1,-1,0
21900,-983040,83,-56,-1,-1,0
21933,-720896,83,-56,-1,-1,0
21966,-786432,83,-56,-1,-1,0
22000,-917504,83,-56,-1,-1,0
22033,-1179648,83,-56,-1,-1,0
22066,-1114112,83,-56,-1,-1,0
22100,-1179648,83,-56,-1,-1,0
22133,-1114112,83,-56,-1,-1,0
22166,-983040,83,-56,-1,-1,0
22200,-1179648,83,-56,-1,-1,0
22233,-524288,83,-56,-1,-1,0
22266,8585216,83,-56,-1,-1,0
22300,-1179648,83,-56,-1,-1,0
22333,-1048576,83,-56,-1,-1,0
22366,-524288,83,-56,-1,-1,0
22400,983040,83,-56,-1,-1,0
22433,2752512,83,-56,-1,-1,0
22466,1769472,83,-56,-1,-1,0
22500,-524288,83,-56,-1,-1,0
22533,-917504,83,-56,-1,-1,0
22566,-851968,83,-56,-1,-1,0
22600,-851968,83,-56,-1,-1,0
22633,-1048576,83,-56,-1,-1,0
22666,-1114112,83,-56,-1,-1,0
22700,-1245184,83,-56,-1,-1,0
22733,-1310720,83,-56,-1,-1,0
22766,-1048576,83,-56,-1,-1,0
22800,-1310720,83,-56,-1,-1,0
22833,-1572864,83,-56,-1,-1,0
22866,8781824,83,-56,-1,-1,0
22900,-1114112,83,-56,-1,-1,0
22933,-1441792,83,-56,-1,-1,0
22966,-1114112,83,-56,-1,-1,0
23000,-65536,83,-56,-1,-1,0
23033,1900544,83,-56,-1,-1,0
23066,2621440,83,-56,-1,-1,0
23100,393216,83,-56,-1,-1,0
23133,-983040,83,-56,-1,-1,0
23166,-1114112,83,-56,-1,-1,0
23200,-1114112,83,-56,-1,-1,0
23233,-1310720,83,-56,-1,-1,0
23266,-1572864,83,-56,-1,-1,0
23300,-1572864,83,-56,-1,-1,0
23333,-1572864,83,-56,-1,-1,0
23366,-1638400,83,-56,-1,-1,0
23400,-1179648,83,-56,-1,-1,0
23433,-1376256,83,-56,-1,-1,0
23466,-1638400,83,-56,-1,-1,0
23500,11730944,82,-56,-1,-1,0
23533,-1310720,82,-56,-1,-1,0
23566,-983040,82,-56,-1,-1,0
23600,-458752,82,-56,-1,-1,0
23633,655360,82,-56,-1,-1,0
23666,2949120,82,-56,-1,-1,0
23700,3276800,82,-56,-1,-1,0
23733,655360,82,-56,-1,-1,0
23766,-786432,82,-56,-1,-1,0
23800,-720896,82,-56,-1,-1,0
23833,-720896,82,-56,-1,-1,0
23866,-983040,82,-56,-1,-1,0
23900,-1114112,82,-56,-1,-1,0
23933,-1310720,82,-56,-1,-1,0
23966,-1441792,82,-56,-1,-1,0
24000,-1114112,82,-56,-1,-1,0
24033,-1507328,82,-56,-1,-1,0
24066,-1835008,82,-56,-1,-1,0
24100,11862016,82,-56,-1,-1,0
24133,-1245184,82,-56,-1,-1,0
24166,-1310720,82,-56,-1,-1,0
24200,-786432,82,-56,-1,-1,0
24233,65536,82,-56,-1,-1,0
24266,2359296,82,-56,-1,-1,0
24300,2752512,82,-56,-1,-1,0
24333,196608,82,-56,-1,-1,0
24366,-983040,82,-56,-1,-1,0
24400,-851968,82,-56,-1,-1,0
24433,-786432,82,-56,-1,-1,0
24466,-983040,82,-56,-1,-1,0
24500,-1179648,82,-56,-1,-1,0
24533,-1310720,82,-56,-1,-1,0
24566,-1310720,82,-56,-1,-1,0
24600,-1114112,82,-56,-1,-1,0
24633,-1245184,82,-56,-1,-1,0
24666,-1507328,82,-56,-1,-1,0
24700,8650752,82,-56,-1,-1,0
24733,-1114112,82,-56,-1,-1,0
24766,-1376256,82,-56,-1,-1,0
24800,-1048576,82,-56,-1,-1,0
24833,-65536,82,-56,-1,-1,0
24866,2031616,82,-56,-1,-1,0
24900,2949120,82,-56,-1,-1,0
24933,589824,82,-56,-1,-1,0
24966,-917504,82,-56,-1,-1,0
25000,-917504,82,-56,-1,-1,0
25033,-786432,82,-56,-1,-1,0
25066,-1048576,82,-56,-1,-1,0
25100,-1245184,82,-56,-1,-1,0
25133,-1441792,82,-56,-1,-1,0
25166,-1507328,82,-56,-1,-1,0
25200,-1114112,82,-56,-1,-1,0
25233,-1507328,82,-56,-1,-1,0
25266,-1900544,82,-56,-1,-1,0
25300,11730944,82,-56,-1,-1,0
25333,-1572864,82,-56,-1,-1,0
25366,-1376256,82,-56,-1,-1,0
25400,-983040,82,-56,-1,-1,0
25433,65536,82,-56,-1,-1,0
25466,2228224,82,-56,-1,-1,0
25500,2424832,82,-56,-1,-1,0
25533,-65536,82,-56,-1,-1,0
25566,-1048576,82,-56,-1,-1,0
25600,-1048576,82,-56,-1,-1,0
25633,-1048576,82,-56,-1,-1,0
25666,-1179648,82,-56,-1,-1,0
25700,-1245184,82,-56,-1,-1,0
25733,-1376256,82,-56,-1,-1,0
25766,-1245184,82,-56,-1,-1,0
25800,-1114112,82,-56,-1,-1,0
25833,-1310720,82,-56,-1,-1,0
25866,0,82,-56,-1,-1,0
25900,6684672,82,-56,-1,-1,0
25933,-1245184,82,-56,-1,-1,0
25966,-917504,82,-56,-1,-1,0
26000,-131072,82,-56,-1,-1,0
26033,1441792,82,-56,-1,-1,0
26066,3407872,82,-56,-1,-1,0
26099,2162688,82,-56,-1,-1,0
26133,-327680,82,-56,-1,-1,0
26166,-786432,82,-56,-1,-1,0
26200,-589824,82,-56,-1,-1,0
26233,-720896,82,-56,-1,-1,0
26266,-1048576,82,-56,-1,-1,0
26300,-1179648,82,-56,-1,-1,0
26333,-1376256,82,-56,-1,-1,0
26366,-983040,82,-56,-1,-1,0
26400,-1310720,82,-56,-1,-1,0
26433,-1835008,82,-56,-1,-1,0
26466,13369344,82,-56,-1,-1,0
26500,-1310720,82,-56,-1,-1,0
26533,-1441792,82,-56,-1,-1,0
26566,-917504,82,-56,-1,-1,0
26599,262144,82,-56,-1,-1,0
26633,2621440,82,-56,-1,-1,0
26666,2686976,82,-56,-1,-1,0
26700,0,82,-56,-1,-1,0
26733,-1048576,82,-56,-1,-1,0
26766,-917504,82,-56,-1,-1,0
26800,-786432,82,-56,-1,-1,0
26833,-1048576,82,-56,-1,-1,0
26866,-1179648,82,-56,-1,-1,0
26900,-1245184,82,-56,-1,-1,0
26933,-1441792,82,-56,-1,-1,0
26966,-1245184,82,-56,-1,-1,0
27000,-1441792,82,-56,-1,-1,0
27033,-1966080,82,-56,-1,-1,0
27066,14942208,82,-56,-1,-1,0
27099,-1179648,82,-56,-1,-1,0
27133,-1310720,82,-56,-1,-1,0
27166,-851968,82,-56,-1,-1,0
27200,262144,82,-56,-1,-1,0
27233,2555904,82,-56,-1,-1,0
27266,2621440,82,-56,-1,-1,0
27300,-65536,82,-56,-1,-1,0
27333,-983040,82,-56,-1,-1,0
27366,-917504,82,-56,-1,-1,0
27400,-917504,82,-56,-1,-1,0
27433,-1114112,82,-56,-1,-1,0
27466,-1245184,82,-56,-1,-1,0
27500,-1441792,82,-56,-1,-1,0
27533,-1572864,82,-56,-1,-1,0
27566,-1507328,82,-56,-1,-1,0
27599,-1441792,82,-56,-1,-1,0
27633,-1769472,82,-56,-1,-1,0
27666,5308416,82,-56,-1,-1,0
27700,-851968,82,-56,-1,-1,0
27733,-1835008,82,-56,-1,-1,0
27766,-1310720,82,-56,-1,-1,0
27800,-458752,82,-56,-1,-1,0
27833,1638400,82,-56,-1,-1,0
27866,3080192,82,-56,-1,-1,0
27900,1179648,82,-56,-1,-1,0
27933,-589824,82,-56,-1,-1,0
27966,-720896,82,-56,-1,-1,0
28000,-589824,82,-56,-1,-1,0
28033,-851968,82,-56,-1,-1,0
28066,-851968,82,-56,-1,-1,0
28099,-1114112,82,-56,-1,-1,0
28133,-1048576,82,-56,-1,-1,0
28166,-786432,82,-56,-1,-1,0
28200,-1048576,82,-56,-1,-1,0
28233,-1441792,82,-56,-1,-1,0
28266,1114112,82,-56,-1,-1,0
28300,4521984,82,-56,-1,-1,0
28333,-1310720,82,-56,-1,-1,0
28366,-1048576,82,-56,-1,-1,0
28400,-262144,82,-56,-1,-1,0
28433,1572864,82,-56,-1,-1,0
28466,3276800,82,-56,-1,-1,0
28500,1245184,82,-56,-1,-1,0
28533,-720896,82,-56,-1,-1,0
28566,-786432,82,-56,-1,-1,0
28599,-655360,82,-56,-1,-1,0
28633,-786432,82,-56,-1,-1,0
28666,-1048576,82,-56,-1,-1,0
28700,-1179648,82,-56,-1,-1,0
28733,-1310720,82,-56,-1,-1,0
28766,-1310720,82,-56,-1,-1,0
28800,-1114112,82,-56,-1,-1,0
28833,-1245184,82,-56,-1,-1,0
28866,-1245184,82,-56,-1,-1,0
28900,3538944,82,-56,-1,-1,0
28933,1179648,82,-56,-1,-1,0
28966,-1441792,82,-56,-1,-1,0
29000,-1114112,82,-56,-1,-1,0
29033,-196608,82,-56,-1,-1,0
29066,1703936,82,-56,-1,-1,0
29099,3080192,82,-56,-1,-1,0
29133,1179648,82,-56,-1,-1,0
29166,-917504,82,-56,-1,-1,0
29200,-983040,82,-56,-1,-1,0
29233,-786432,82,-56,-1,-1,0
29266,-1048576,82,-56,-1,-1,0
29300,-1114112,82,-56,-1,-1,0
29333,-1441792,82,-56,-1,-1,0
29366,-1310720,82,-56,-1,-1,0
29400,-917504,82,-56,-1,-1,0
29433,-1310720,82,-56,-1,-1,0
29466,-655360,82,-56,-1,-1,0
29500,-1507328,82,-56,-1,-1,0
29533,851968,82,-56,-1,-1,0
29566,6160384,82,-56,-1,-1,0
29599,-1048576,82,-56,-1,-1,0
29633,-851968,82,-56,-1,-1,0
29666,-458752,82,-56,-1,-1,0
29700,1507328,82,-56,-1,-1,0
29733,3538944,82,-56,-1,-1,0
29766,1703936,82,-56,-1,-1,0
29800,-458752,82,-56,-1,-1,0
29833,-1048576,82,-56,-1,-1,0
29866,-720896,82,-56,-1,-1,0
29900,-655360,82,-56,-1,-1,0
29933,-1114112,82,-56,-1,-1,0
29966,-1245184,82,-56,-1,-1,0
30000,-1245184,82,-56,-1,-1,0
30033,-1376256,82,-56,-1,-1,0
30066,-1441792,82,-56,-1,-1,0
30099,-1114112,82,-56,-1,-1,0
30133,-1114112,82,-56,-1,-1,0
30166,-1703936,82,-56,-1,-1,0
30200,12189696,82,-56,-1,-1,0
30233,-1179648,82,-56,-1,-1,0
30266,-1048576,82,-56,-1,-1,0
30300,-655360,82,-56,-1,-1,0
30333,393216,82,-56,-1,-1,0
30366,2555904,82,-56,-1,-1,0
30400,2949120,82,-56,-1,-1,0
30433,458752,82,-56,-1,-1,0
30466,-851968,82,-56,-1,-1,0
30500,-851968,82,-56,-1,-1,0
30533,-655360,82,-56,-1,-1,0
30566,-851968,82,-56,-1,-1,0
30599,-1114112,82,-56,-1,-1,0
30633,-1114112,82,-56,-1,-1,0
30666,-1114112,82,-56,-1,-1,0
30700,-1376256,82,-56,-1,-1,0
30733,-1114112,82,-56,-1,-1,0
30766,-1441792,82,-56,-1,-1,0
30800,-1638400,82,-56,-1,-1,0
30833,6881280,82,-56,-1,-1,0
30866,-1507328,81,-56,-1,-1,0
30900,-1441792,81,-56,-1,-1,0
30933,-1048576,81,-56,-1,-1,0
30966,-65536,81,-56,-1,-1,0
31000,1835008,81,-56,-1,-1,0
31033,2818048,81,-56,-1,-1,0
31066,655360,81,-56,-1,-1,0
31099,-851968,81,-56,-1,-1,0
31133,-851968,81,-56,-1,-1,0
31166,-917504,81,-56,-1,-1,0
31200,-1048576,81,-56,-1,-1,0
31233,-1048576,81,-56,-1,-1,0
31266,-1245184,81,-56,-1,-1,0
31300,-1245184,81,-56,-1,-1,0
31333,-1310720,81,-56,-1,-1,0
31366,-851968,81,-56,-1,-1,0
31400,-1245184,81,-56,-1,-1,0
31433,-1638400,81,-56,-1,-1,0
31466,12124160,82,-56,-1,-1,0
31500,-1310720,82,-56,-1,-1,0
31533,-983040,82,-56,-1,-1,0
31566,-458752,82,-56,-1,-1,0
31599,589824,82,-56,-1,-1,0
31633,3014656,82,-56,-1,-1,0
31666,3342336,82,-56,-1,-1,0
31700,524288,82,-56,-1,-1,0
31733,-720896,82,-56,-1,-1,0
31766,-524288,82,-56,-1,-1,0
31800,-524288,82,-56,-1,-1,0
31833,-720896,82,-56,-1,-1,0
31866,-983040,82,-56,-1,-1,0
31900,-1048576,82,-56,-1,-1,0
31933,-1179648,82,-56,-1,-1,0
31966,-851968,82,-56,-1,-1,0
32000,-1179648,82,-56,-1,-1,0
32033,-1572864,82,-56,-1,-1,0
32066,11403264,81,-56,-1,-1,0
32100,-1376256,81,-56,-1,-1,0
32133,-1245184,81,-56,-1,-1,0
32166,-851968,81,-56,-1,-1,0
32200,196608,81,-56,-1,-1,0
32233,2424832,81,-56,-1,-1,0
32266,3014656,81,-56,-1,-1,0
32299,65536,81,-56,-1,-1,0
32333,-1114112,81,-56,-1,-1,0
32366,-1048576,81,-56,-1,-1,0
32400,-917504,81,-56,-1,-1,0
32433,-983040,81,-56,-1,-1,0
32466,-1179648,81,-56,-1,-1,0
32500,-1310720,81,-56,-1,-1,0
32533,-1441792,81,-56,-1,-1,0
32566,-1441792,81,-56,-1,-1,0
32600,-1179648,81,-56,-1,-1,0
32633,-1507328,81,-56,-1,-1,0
32666,-1703936,81,-56,-1,-1,0
32700,11468800,81,-56,-1,-1,0
32733,-1441792,81,-56,-1,-1,0
32766,-1245184,81,-56,-1,-1,0
32800,-786432,81,-56,-1,-1,0
32833,589824,81,-56,-1,-1,0
32866,2818048,81,-56,-1,-1,0
32900,2162688,81,-56,-1,-1,0
32933,-393216,81,-56,-1,-1,0
32966,-1048576,81,-56,-1,-1,0
33000,-917504,81,-56,-1,-1,0
33033,-851968,81,-56,-1,-1,0
33066,-1048576,81,-56,-1,-1,0
33100,-1114112,81,-56,-1,-1,0
33133,-1245184,81,-56,-1,-1,0
33166,-1245184,81,-56,-1,-1,0
33200,-851968,81,-56,-1,-1,0
33233,-1179648,81,-56,-1,-1,0
33266,-1441792,81,-56,-1,-1,0
33300,10747904,81,-56,-1,-1,0
33333,-1179648,81,-56,-1,-1,0
33366,-1114112,81,-56,-1,-1,0
33400,-655360,81,-56,-1,-1,0
33433,196608,81,-56,-1,-1,0
33466,2490368,81,-56,-1,-1,0
33500,3080192,81,-56,-1,-1,0
33533,393216,81,-56,-1,-1,0
33566,-851968,81,-56,-1,-1,0
33600,-786432,81,-56,-1,-1,0
33633,-786432,81,-56,-1,-1,0
33666,-917504,81,-56,-1,-1,0
33700,-983040,81,-56,-1,-1,0
33733,-1245184,81,-56,-1,-1,0
33766,-1245184,81,-56,-1,-1,0
33800,-1048576,81,-56,-1,-1,0
33833,-1179648,81,-56,-1,-1,0
33866,-1507328,81,-56,-1,-1,0
33900,6881280,81,-56,-1,-1,0
33933,-720896,81,-56,-1,-1,0
33966,-1376256,81,-56,-1,-1,0
34000,-1048576,81,-56,-1,-1,0
34033,-131072,81,-56,-1,-1,0
34066,1835008,81,-56,-1,-1,0
34100,2949120,81,-56,-1,-1,0
34133,655360,81,-56,-1,-1,0
34166,-851968,81,-56,-1,-1,0
34200,-983040,81,-56,-1,-1,0
34233,-983040,81,-56,-1,-1,0
34266,-1048576,81,-56,-1,-1,0
34300,-1245184,81,-56,-1,-1,0
34333,-1310720,81,-56,-1,-1,0
34366,-1310720,81,-56,-1,-1,0
34400,-1179648,81,-56,-1,-1,0
34433,-1507328,81,-56,-1,-1,0
34466,-1703936,81,-56,-1,-1,0
34500,9961472,81,-56,-1,-1,0
34533,-1507328,81,-56,-1,-1,0
34566,-1310720,81,-56,-1,-1,0
34600,-720896,81,-56,-1,-1,0
34633,720896,81,-56,-1,-1,0
34666,2752512,81,-56,-1,-1,0
34700,2097152,81,-56,-1,-1,0
34733,-327680,81,-56,-1,-1,0
34766,-720896,81,-56,-1,-1,0
34800,-589824,81,-56,-1,-1,0
34833,-655360,81,-56,-1,-1,0
34866,-786432,81,-56,-1,-1,0
34900,-851968,81,-56,-1,-1,0
34933,-1048576,81,-56,-1,-1,0
34966,-917504,81,-56,-1,-1,0
35000,-983040,81,-56,-1,-1,0
35033,-1245184,81,-56,-1,-1,0
35066,2949120,81,-56,-1,-1,0
35100,720896,81,-56,-1,-1,0
35133,-1179648,81,-56,-1,-1,0
35166,-917504,81,-56,-1,-1,0
35200,-65536,81,-56,-1,-1,0
35233,1703936,81,-56,-1,-1,0
35266,3014656,81,-56,-1,-1,0
35300,1114112,81,-56,-1,-1,0
35333,-786432,81,-56,-1,-1,0
35366,-917504,81,-56,-1,-1,0
35400,-720896,81,-56,-1,-1,0
35433,-851968,81,-56,-1,-1,0
35466,-1048576,81,-56,-1,-1,0
35500,-1179648,81,-56,-1,-1,0
35533,-1245184,81,-56,-1,-1,0
35566,-1376256,81,-56,-1,-1,0
35600,-1048576,81,-56,-1,-1,0
35633,-1310720,81,-56,-1,-1,0
35666,-1507328,81,-56,-1,-1,0
35700,9371648,81,-56,-1,-1,0
35733,-1048576,81,-56,-1,-1,0
35766,-1376256,81,-56,-1,-1,0
35800,-917504,81,-56,-1,-1,0
35833,0,81,-56,-1,-1,0
35866,2031616,81,-56,-1,-1,0
35900,2752512,81,-56,-1,-1,0
35933,458752,81,-56,-1,-1,0
35966,-983040,81,-56,-1,-1,0
36000,-917504,81,-56,-1,-1,0
36033,-983040,81,-56,-1,-1,0
36066,-1048576,81,-56,-1,-1,0
36100,-1179648,81,-56,-1,-1,0
36133,-1245184,81,-56,-1,-1,0
36166,-1310720,81,-56,-1,-1,0
36200,-1441792,81,-56,-1,-1,0
36233,-1179648,81,-56,-1,-1,0
36266,-1441792,81,-56,-1,-1,0
36300,-1376256,81,-56,-1,-1,0
36333,5832704,81,-56,-1,-1,0
36366,-458752,80,-56,-1,-1,0
36400,-1245184,80,-56,-1,-1,0
36433,-851968,80,-56,-1,-1,0
36466,131072,80,-56,-1,-1,0
36500,2293760,80,-56,-1,-1,0
36533,3473408,80,-56,-1,-1,0
36566,1179648,80,-56,-1,-1,0
36600,-589824,80,-56,-1,-1,0
36633,-720896,80,-56,-1,-1,0
36666,-589824,80,-56,-1,-1,0
36700,-720896,80,-56,-1,-1,0
36733,-983040,80,-56,-1,-1,0
36766,-1114112,80,-56,-1,-1,0
36800,-1245184,80,-56,-1,-1,0
36833,-1376256,80,-56,-1,-1,0
36866,-1048576,80,-56,-1,-1,0
36900,-1310720,80,-56,-1,-1,0
36933,-1900544,80,-56,-1,-1,0
36966,12451840,80,-56,-1,-1,0
37000,-1310720,80,-56,-1,-1,0
37033,-1245184,80,-56,-1,-1,0
37066,-786432,80,-56,-1,-1,0
37100,327680,80,-56,-1,-1,0
37133,2686976,80,-56,-1,-1,0
37166,2949120,80,-56,-1,-1,0
37200,196608,80,-56,-1,-1,0
37233,-851968,80,-56,-1,-1,0
37266,-786432,80,-56,-1,-1,0
37300,-786432,80,-56,-1,-1,0
37333,-983040,80,-56,-1,-1,0
37366,-1114112,80,-56,-1,-1,0
37400,-1114112,80,-56,-1,-1,0
37433,-1245184,80,-56,-1,-1,0
37466,-1310720,80,-56,-1,-1,0
37500,-1179648,80,-56,-1,-1,0
37533,-1114112,80,-56,-1,-1,0
37566,-1310720,80,-56,-1,-1,0
37600,1376256,80,-56,-1,-1,0
37633,3276800,80,-56,-1,-1,0
37666,-1376256,80,-56,-1,-1,0
37700,-1048576,80,-56,-1,-1,0
37733,-393216,80,-56,-1,-1,0
37766,1245184,80,-56,-1,-1,0
37800,3014656,80,-56,-1,-1,0
37833,1507328,80,-56,-1,-1,0
37866,-655360,80,-56,-1,-1,0
37900,-851968,80,-56,-1,-1,0
37933,-720896,80,-56,-1,-1,0
37966,-851968,80,-56,-1,-1,0
38000,-983040,80,-56,-1,-1,0
38033,-1048576,80,-56,-1,-1,0
38066,-1179648,80,-56,-1,-1,0
38100,-1245184,80,-56,-1,-1,0
38133,-1245184,80,-56,-1,-1,0
38166,-983040,80,-56,-1,-1,0
38200,-1245184,80,-56,-1,-1,0
38233,-1310720,80,-56,-1,-1,0
38266,6356992,80,-56,-1,-1,0
38300,-589824,80,-56,-1,-1,0
38333,-1245184,80,-56,-1,-1,0
38366,-917504,80,-56,-1,-1,0
38400,0,80,-56,-1,-1,0
38433,1966080,80,-56,-1,-1,0
38466,3145728,80,-56,-1,-1,0
38500,1048576,80,-56,-1,-1,0
38533,-524288,80,-56,-1,-1,0
38566,-589824,80,-56,-1,-1,0
38600,-458752,80,-56,-1,-1,0
38633,-524288,80,-56,-1,-1,0
38666,-720896,80,-56,-1,-1,0
38700,-786432,80,-56,-1,-1,0
38733,-786432,80,-56,-1,-1,0
38766,-720896,80,-56,-1,-1,0
38800,-786432,80,-56,-1,-1,0
38833,-458752,80,-56,-1,-1,0
38866,-1179648,80,-56,-1,-1,0
38900,-1769472,80,-56,-1,-1,0
38933,11665408,80,-56,-1,-1,0
38966,-1310720,80,-56,-1,-1,0
39000,-1245184,80,-56,-1,-1,0
39033,-786432,80,-56,-1,-1,0
39066,262144,80,-56,-1,-1,0
39100,2293760,80,-56,-1,-1,0
39133,2555904,80,-56,-1,-1,0
39166,196608,80,-56,-1,-1,0
39200,-786432,80,-56,-1,-1,0
39233,-786432,80,-56,-1,-1,0
39266,-720896,80,-56,-1,-1,0
39300,-917504,80,-56,-1,-1,0
39333,-1114112,80,-56,-1,-1,0
39366,-1179648,80,-56,-1,-1,0
39400,-1245184,80,-56,-1,-1,0
39433,-1376256,80,-56,-1,-1,0
39466,-1114112,80,-56,-1,-1,0
39500,-1310720,80,-56,-1,-1,0
39533,-1572864,80,-56,-1,-1,0
39566,1966080,80,-56,-1,-1,0
39600,983040,80,-56,-1,-1,0
39633,-1441792,80,-56,-1,-1,0
39666,-1048576,80,-56,-1,-1,0
39700,-262144,80,-56,-1,-1,0
39733,1572864,80,-56,-1,-1,0
39766,3211264,80,-56,-1,-1,0
39800,1638400,80,-56,-1,-1,0
39833,-458752,80,-56,-1,-1,0
39866,-655360,80,-56,-1,-1,0
39900,-589824,80,-56,-1,-1,0
39933,-786432,80,-56,-1,-1,0
39966,-983040,80,-56,-1,-1,0
40000,-1114112,80,-56,-1,-1,0
40033,-1114112,80,-56,-1,-1,0
40066,-1048576,80,-56,-1,-1,0
40100,-1114112,80,-56,-1,-1,0
40133,-1310720,80,-56,-1,-1,0
40166,589824,80,-56,-1,-1,0
40200,4128768,80,-56,-1,-1,0
40233,-1310720,80,-56,-1,-1,0
40266,-1048576,80,-56,-1,-1,0
40300,-262144,80,-56,-1,-1,0
40333,1441792,80,-56,-1,-1,0
40366,3342336,80,-56,-1,-1,0
40400,1835008,80,-56,-1,-1,0
40433,-458752,80,-56,-1,-1,0
40466,-786432,80,-56,-1,-1,0
40500,-589824,80,-56,-1,-1,0
40533,-720896,80,-56,-1,-1,0
40566,-917504,80,-56,-1,-1,0
40600,-1048576,80,-56,-1,-1,0
40633,-1114112,80,-56,-1,-1,0
40666,-1179648,80,-56,-1,-1,0
40700,-917504,80,-56,-1,-1,0
40733,-1048576,80,-56,-1,-1,0
40766,-1245184,80,-56,-1,-1,0
40800,10289152,80,-56,-1,-1,0
40833,-1048576,80,-56,-1,-1,0
40866,-1310720,80,-56,-1,-1,0
40900,-720896,80,-56,-1,-1,0
40933,-65536,80,-56,-1,-1,0
40966,1835008,80,-56,-1,-1,0
41000,2424832,80,-56,-1,-1,0
41033,262144,80,-56,-1,-1,0
41066,-917504,80,-56,-1,-1,0
41100,-983040,80,-56,-1,-1,0
41133,-983040,80,-56,-1,-1,0
41166,-983040,80,-56,-1,-1,0
41200,-1179648,80,-56,-1,-1,0
41233,-1441792,80,-56,-1,-1,0
41266,-1310720,80,-56,-1,-1,0
41300,-983040,80,-56,-1,-1,0
41333,-1310720,80,-56,-1,-1,0
41366,-1507328,80,-56,-1,-1,0
41400,8388608,80,-56,-1,-1,0
41433,-1835008,80,-56,-1,-1,0
41466,-1376256,80,-56,-1,-1,0
41500,-1048576,80,-56,-1,-1,0
41533,-131072,80,-56,-1,-1,0
41566,1769472,80,-56,-1,-1,0
41600,2031616,80,-56,-1,-1,0
41633,131072,80,-56,-1,-1,0
41666,-983040,80,-56,-1,-1,0
41700,-786432,80,-56,-1,-1,0
41733,-851968,80,-56,-1,-1,0
41766,-1179648,80,-56,-1,-1,0
41800,-1114112,80,-56,-1,-1,0
41833,-1310720,80,-56,-1,-1,0
41866,-1376256,80,-56,-1,-1,0
41900,-1048576,80,-56,-1,-1,0
41933,-1441792,80,-56,-1,-1,0
41966,-458752,80,-56,-1,-1,0
42000,6553600,80,-56,-1,-1,0
42033,-1245184,80,-56,-1,-1,0
42066,-720896,80,-56,-1,-1,0
42100,-65536,80,-56,-1,-1,0
42133,1507328,80,-56,-1,-1,0
42166,3473408,80,-56,-1,-1,0
42200,2686976,80,-56,-1,-1,0
42233,-65536,80,-56,-1,-1,0
42266,-458752,80,-56,-1,-1,0
42300,-262144,80,-56,-1,-1,0
42333,-589824,80,-56,-1,-1,0
42366,-1048576,80,-56,-1,-1,0
42400,-1245184,80,-56,-1,-1,0
42433,-983040,80,-56,-1,-1,0
42466,-1048576,80,-56,-1,-1,0
42500,-1703936,80,-56,-1,-1,0
42533,5505024,80,-56,-1,-1,0
42566,-1245184,80,-56,-1,-1,0
42600,-1114112,80,-56,-1,-1,0
42633,-983040,80,-56,-1,-1,0
42666,0,80,-56,-1,-1,0
42700,2097152,80,-56,-1,-1,0
42733,3276800,80,-56,-1,-1,0
42766,786432,80,-56,-1,-1,0
42800,-983040,80,-56,-1,-1,0
42833,-983040,80,-56,-1,-1,0
42866,-786432,80,-56,-1,-1,0
42900,-1048576,80,-56,-1,-1,0
42933,-1245184,80,-56,-1,-1,0
42966,-1441792,80,-56,-1,-1,0
43000,-1179648,80,-56,-1,-1,0
43033,-1507328,80,-56,-1,-1,0
43066,-1900544,80,-56,-1,-1,0
43100,9109504,80,-56,-1,-1,0
43133,-1769472,80,-56,-1,-1,0
43166,-1703936,80,-56,-1,-1,0
43200,-1114112,80,-56,-1,-1,0
43233,-131072,80,-56,-1,-1,0
43266,1900544,80,-56,-1,-1,0
43300,2752512,80,-56,-1,-1,0
43333,-65536,80,-56,-1,-1,0
43366,-1245184,80,-56,-1,-1,0
43400,-1179648,80,-56,-1,-1,0
43433,-1114112,80,-56,-1,-1,0
43466,-1114112,80,-56,-1,-1,0
43500,-1310720,80,-56,-1,-1,0
43533,-1179648,80,-56,-1,-1,0
43566,-983040,80,-56,-1,-1,0
43600,-1310720,80,-56,-1,-1,0
43633,-1638400,81,-56,-1,-1,0
43666,11075584,81,-56,-1,-1,0
43700,-1441792,81,-56,-1,-1,0
43733,-1179648,81,-56,-1,-1,0
43766,-786432,81,-56,-1,-1,0
43800,327680,81,-56,-1,-1,0
43833,2752512,81,-56,-1,-1,0
43866,3276800,81,-56,-1,-1,0
43900,262144,81,-56,-1,-1,0
43933,-1048576,81,-56,-1,-1,0
43966,-1048576,81,-56,-1,-1,0
44000,-786432,81,-56,-1,-1,0
44033,-983040,81,-56,-1,-1,0
44066,-1179648,81,-56,-1,-1,0
44100,-1507328,81,-56,-1,-1,0
44133,-1376256,81,-56,-1,-1,0
44166,-1572864,81,-56,-1,-1,0
44200,-1703936,81,-56,-1,-1,0
44233,10420224,82,-56,-1,-1,0
44266,-1310720,82,-56,-1,-1,0
44300,-1507328,82,-56,-1,-1,0
44333,-1048576,82,-56,-1,-1,0
44366,-65536,82,-56,-1,-1,0
44400,2293760,82,-56,-1,-1,0
44433,3014656,82,-56,-1,-1,0
44466,131072,82,-56,-1,-1,0
44500,-1048576,82,-56,-1,-1,0
44533,-1179648,82,-56,-1,-1,0
44566,-1048576,82,-56,-1,-1,0
44600,-1114112,82,-56,-1,-1,0
44633,-1310720,82,-56,-1,-1,0
44666,-1310720,82,-56,-1,-1,0
44700,-1441792,82,-56,-1,-1,0
44733,-1179648,82,-56,-1,-1,0
44766,-1441792,82,-56,-1,-1,0
44800,-1572864,82,-56,-1,-1,0
44833,9502720,82,-56,-1,-1,0
44866,-1048576,82,-56,-1,-1,0
44900,-1310720,83,-56,-1,-1,0
44933,-917504,83,-56,-1,-1,0
44966,65536,83,-56,-1,-1,0
45000,2424832,83,-56,-1,-1,0
45033,3342336,83,-56,-1,-1,0
45066,589824,83,-56,-1,-1,0
45100,-851968,83,-56,-1,-1,0
45133,-917504,83,-56,-1,-1,0
45166,-917504,83,-56,-1,-1,0
45200,-917504,83,-56,-1,-1,0
45233,-1114112,83,-56,-1,-1,0
45266,-1245184,83,-56,-1,-1,0
45300,-1179648,83,-56,-1,-1,0
45333,-1245184,83,-56,-1,-1,0
45366,-1310720,83,-56,-1,-1,0
45400,-1114112,83,-56,-1,-1,0
45433,-1376256,83,-56,-1,-1,0
45466,-2031616,83,-56,-1,-1,0
45500,13959168,83,-56,-1,-1,0
45533,-1245184,83,-56,-1,-1,0
45566,-1310720,83,-56,-1,-1,0
45600,-720896,83,-56,-1,-1,0
45633,327680,83,-56,-1,-1,0
45666,2752512,83,-56,-1,-1,0
45700,2752512,83,-56,-1,-1,0
45733,0,83,-56,-1,-1,0
45766,-917504,83,-56,-1,-1,0
45800,-786432,83,-56,-1,-1,0
45833,-851968,83,-56,-1,-1,0
45866,-983040,83,-56,-1,-1,0
45900,-983040,83,-56,-1,-1,0
45933,-1179648,83,-56,-1,-1,0
45966,-1179648,83,-56,-1,-1,0
46000,-1179648,83,-56,-1,-1,0
46033,-1310720,83,-56,-1,-1,0
46066,-917504,83,-56,-1,-1,0
46100,-1179648,83,-56,-1,-1,0
46133,-1638400,83,-56,-1,-1,0
46166,12910592,83,-56,-1,-1,0
46200,-1310720,83,-56,-1,-1,0
46233,-1048576,83,-56,-1,-1,0
46266,-655360,83,-56,-1,-1,0
46300,720896,83,-56,-1,-1,0
46333,3211264,83,-56,-1,-1,0
46366,3211264,83,-56,-1,-1,0
46400,196608,83,-56,-1,-1,0
46433,-786432,83,-56,-1,-1,0
46466,-786432,83,-56,-1,-1,0
46500,-655360,83,-56,-1,-1,0
46533,-786432,83,-56,-1,-1,0
46566,-983040,83,-56,-1,-1,0
46600,-1179648,83,-56,-1,-1,0
46633,-1245184,83,-56,-1,-1,0
46666,-1310720,83,-56,-1,-1,0
46700,-1048576,83,-56,-1,-1,0
46733,-1310720,83,-56,-1,-1,0
46766,-1703936,83,-56,-1,-1,0
46800,11599872,83,-56,-1,-1,0
46833,-1310720,83,-56,-1,-1,0
46866,-1179648,83,-56,-1,-1,0
46900,-655360,83,-56,-1,-1,0
46933,393216,83,-56,-1,-1,0
46966,2883584,83,-56,-1,-1,0
47000,3407872,83,-56,-1,-1,0
47033,327680,83,-56,-1,-1,0
47066,-1048576,83,-56,-1,-1,0
47100,-983040,83,-56,-1,-1,0
47133,-720896,83,-56,-1,-1,0
47166,-851968,83,-56,-1,-1,0
47200,-1114112,83,-56,-1,-1,0
47233,-1179648,83,-56,-1,-1,0
47266,-1310720,83,-56,-1,-1,0
47300,-1310720,83,-56,-1,-1,0
47333,-1310720,83,-56,-1,-1,0
47366,-1245184,83,-56,-1,-1,0
47400,-1441792,83,-56,-1,-1,0
47433,-131072,83,-56,-1,-1,0
47466,7208960,83,-56,-1,-1,0
47500,-1376256,83,-56,-1,-1,0
47533,-1114112,83,-56,-1,-1,0
47566,-458752,83,-56,-1,-1,0
47600,1179648,83,-56,-1,-1,0
47633,3473408,83,-56,-1,-1,0
47666,2097152,83,-56,-1,-1,0
47700,-589824,83,-56,-1,-1,0
47733,-1048576,83,-56,-1,-1,0
47766,-1048576,83,-56,-1,-1,0
47800,-917504,83,-56,-1,-1,0
47833,-1114112,83,-56,-1,-1,0
47866,-1310720,83,-56,-1,-1,0
47900,-1441792,83,-56,-1,-1,0
47933,-1441792,83,-56,-1,-1,0
47966,-1441792,83,-56,-1,-1,0
48000,-1441792,83,-56,-1,-1,0
48033,-1376256,83,-56,-1,-1,0
48066,-1572864,83,-56,-1,-1,0
48100,-393216,83,-56,-1,-1,0
48133,7733248,83,-56,-1,-1,0
48166,-1376256,83,-56,-1,-1,0
48200,-1179648,82,-56,-1,-1,0
48233,-458752,82,-56,-1,-1,0
48266,1179648,82,-56,-1,-1,0
48300,3473408,82,-56,-1,-1,0
48333,2162688,82,-56,-1,-1,0
48366,-458752,82,-56,-1,-1,0
48400,-983040,82,-56,-1,-1,0
48433,-851968,82,-56,-1,-1,0
48466,-851968,82,-56,-1,-1,0
48500,-983040,82,-56,-1,-1,0
48533,-1114112,82,-56,-1,-1,0
48566,-1179648,82,-56,-1,-1,0
48600,-1245184,82,-56,-1,-1,0
48633,-1245184,82,-56,-1,-1,0
48666,-1245184,82,-56,-1,-1,0
48700,-983040,82,-56,-1,-1,0
48733,-1310720,82,-56,-1,-1,0
48766,-1900544,82,-56,-1,-1,0
48800,14680064,82,-56,-1,-1,0
48833,-1048576,82,-56,-1,-1,0
48866,-1048576,81,-56,-1,-1,0
48900,-524288,81,-56,-1,-1,0
48933,720896,81,-56,-1,-1,0
48966,3276800,81,-56,-1,-1,0
49000,3276800,81,-56,-1,-1,0
49033,131072,81,-56,-1,-1,0
49066,-786432,81,-56,-1,-1,0
49100,-655360,81,-56,-1,-1,0
49133,-655360,81,-56,-1,-1,0
49166,-786432,81,-56,-1,-1,0
49200,-917504,81,-56,-1,-1,0
49233,-983040,81,-56,-1,-1,0
49266,-983040,81,-56,-1,-1,0
49300,-1048576,81,-56,-1,-1,0
49333,-1114112,81,-56,-1,-1,0
49366,-917504,81,-56,-1,-1,0
49400,-1114112,81,-56,-1,-1,0
49433,-1245184,81,-56,-1,-1,0
49466,6750208,81,-56,-1,-1,0
49500,-720896,81,-56,-1,-1,0
49533,-1310720,79,-56,-1,-1,0
49566,-983040,79,-56,-1,-1,0
49600,-65536,79,-56,-1,-1,0
49633,2031616,79,-56,-1,-1,0
49666,3473408,79,-56,-1,-1,0
49700,1114112,79,-56,-1,-1,0
49733,-720896,79,-56,-1,-1,0
49766,-851968,79,-56,-1,-1,0
49800,-786432,79,-56,-1,-1,0
49833,-917504,79,-56,-1,-1,0
49866,-1048576,79,-56,-1,-1,0
49900,-1114112,79,-56,-1,-1,0
49933,-1179648,79,-56,-1,-1,0
49966,-1179648,79,-56,-1,-1,0
50000,-1245184,79,-56,-1,-1,0
