milliseconds, ECG, ECG HR, PPG, PPG HR, SpO2, PI
1523613589072,458752,83,-56,-1,-1,0
1523613589072,2097152,83,-56,-1,-1,0
1523613589072,3932160,83,-56,-1,-1,0
1523613589072,3407872,83,-56,-1,-1,0
1523613589072,327680,83,-56,-1,-1,0
1523613589122,-2097152,83,-56,-1,-1,0
1523613589122,-2097152,83,-56,-1,-1,0
1523613589122,-1245184,83,-56,-1,-1,0
1523613589122,-655360,83,-56,-1,-1,0
1523613589122,-262144,83,-56,-1,-1,0
1523613589149,-196608,83,-56,-1,-1,0
1523613589149,-131072,83,-56,-1,-1,0
1523613589149,-65536,83,-56,-1,-1,0
1523613589149,0,83,-56,-1,-1,0
1523613589149,-65536,83,-56,-1,-1,0
1523613589189,-65536,83,-56,-1,-1,0
1523613589189,-65536,83,-56,-1,-1,0
1523613589189,0,83,-56,-1,-1,0
1523613589189,0,83,-56,-1,-1,0
1523613589189,0,83,-56,-1,-1,0
1523613589230,0,83,-56,-1,-1,0
1523613589230,0,83,-56,-1,-1,0
1523613589230,0,83,-56,-1,-1,0
1523613589230,0,83,-56,-1,-1,0
1523613589230,131072,83,-56,-1,-1,0
1523613589269,196608,83,-56,-1,-1,0
1523613589269,131072,83,-56,-1,-1,0
1523613589269,131072,83,-56,-1,-1,0
1523613589269,262144,83,-56,-1,-1,0
1523613589269,393216,83,-56,-1,-1,0
1523613589309,458752,83,-56,-1,-1,0
1523613589309,458752,83,-56,-1,-1,0
1523613589309,589824,83,-56,-1,-1,0
1523613589309,720896,83,-56,-1,-1,0
1523613589309,917504,83,-56,-1,-1,0
1523613589349,917504,83,-56,-1,-1,0
1523613589349,917504,83,-56,-1,-1,0
1523613589349,851968,83,-56,-1,-1,0
1523613589349,786432,83,-56,-1,-1,0
1523613589349,786432,83,-56,-1,-1,0
1523613589389,786432,83,-56,-1,-1,0
1523613589389,655360,83,-56,-1,-1,0
1523613589389,458752,83,-56,-1,-1,0
1523613589389,262144,83,-56,-1,-1,0
1523613589389,0,83,-56,-1,-1,0
1523613589429,-65536,83,-56,-1,-1,0
1523613589429,0,83,-56,-1,-1,0
1523613589429,0,83,-56,-1,-1,0
1523613589429,-65536,83,-56,-1,-1,0
1523613589429,-196608,83,-56,-1,-1,0
1523613589469,-327680,83,-56,-1,-1,0
1523613589469,-262144,83,-56,-1,-1,0
1523613589469,-262144,83,-56,-1,-1,0
1523613589469,-327680,83,-56,-1,-1,0
1523613589469,-327680,83,-56,-1,-1,0
1523613589509,-196608,83,-56,-1,-1,0
1523613589509,-196608,83,-56,-1,-1,0
1523613589509,-196608,83,-56,-1,-1,0
1523613589509,-196608,83,-56,-1,-1,0
1523613589509,-196608,83,-56,-1,-1,0
1523613589549,-262144,83,-56,-1,-1,0
1523613589549,-196608,83,-56,-1,-1,0
1523613589549,-196608,83,-56,-1,-1,0
1523613589549,-196608,83,-56,-1,-1,0
1523613589549,-262144,83,-56,-1,-1,0
1523613589589,-196608,83,-56,-1,-1,0
1523613589589,-196608,83,-56,-1,-1,0
1523613589589,-262144,83,-56,-1,-1,0
1523613589589,-327680,83,-56,-1,-1,0
1523613589589,-393216,83,-56,-1,-1,0
1523613589629,-393216,83,-56,-1,-1,0
1523613589629,-458752,83,-56,-1,-1,0
1523613589629,-458752,83,-56,-1,-1,0
1523613589629,-327680,83,-56,-1,-1,0
1523613589629,-262144,83,-56,-1,-1,0
1523613589669,-393216,83,-56,-1,-1,0
1523613589669,-327680,83,-56,-1,-1,0
1523613589669,-393216,83,-56,-1,-1,0
1523613589669,-458752,83,-56,-1,-1,0
1523613589669,-393216,83,-56,-1,-1,0
1523613589709,-327680,83,-56,-1,-1,0
1523613589709,-262144,83,-56,-1,-1,0
1523613589709,-393216,83,-56,-1,-1,0
1523613589709,-393216,83,-56,-1,-1,0
1523613589709,-327680,83,-56,-1,-1,0
1523613589750,-262144,83,-56,-1,-1,0
1523613589750,-327680,83,-56,-1,-1,0
1523613589750,-393216,83,-56,-1,-1,0
1523613589750,-393216,83,-56,-1,-1,0
1523613589750,-262144,83,-56,-1,-1,0
1523613589789,655360,83,-56,-1,-1,0
1523613589789,2555904,83,-56,-1,-1,0
1523613589789,4063232,83,-56,-1,-1,0
1523613589789,2555904,83,-56,-1,-1,0
1523613589789,-786432,83,-56,-1,-1,0
1523613589829,-2621440,83,-56,-1,-1,0
1523613589829,-2228224,83,-56,-1,-1,0
1523613589829,-1441792,83,-56,-1,-1,0
1523613589829,-851968,83,-56,-1,-1,0
1523613589829,-458752,83,-56,-1,-1,0
1523613589869,-262144,83,-56,-1,-1,0
1523613589869,-196608,83,-56,-1,-1,0
1523613589869,-196608,83,-56,-1,-1,0
1523613589869,-131072,83,-56,-1,-1,0
1523613589869,-65536,83,-56,-1,-1,0
1523613589909,-65536,83,-56,-1,-1,0
1523613589909,-65536,83,-56,-1,-1,0
1523613589909,-65536,83,-56,-1,-1,0
1523613589909,-65536,83,-56,-1,-1,0
1523613589909,-65536,83,-56,-1,-1,0
1523613589949,0,83,-56,-1,-1,0
1523613589949,0,83,-56,-1,-1,0
1523613589949,0,83,-56,-1,-1,0
1523613589949,65536,83,-56,-1,-1,0
1523613589949,196608,83,-56,-1,-1,0
1523613589989,262144,83,-56,-1,-1,0
1523613589989,327680,83,-56,-1,-1,0
1523613589989,393216,83,-56,-1,-1,0
1523613589989,458752,83,-56,-1,-1,0
1523613589989,524288,83,-56,-1,-1,0
1523613590029,589824,83,-56,-1,-1,0
1523613590029,720896,83,-56,-1,-1,0
1523613590029,786432,83,-56,-1,-1,0
1523613590029,851968,83,-56,-1,-1,0
1523613590029,983040,83,-56,-1,-1,0
1523613590069,1048576,83,-56,-1,-1,0
1523613590069,983040,83,-56,-1,-1,0
1523613590069,917504,83,-56,-1,-1,0
1523613590069,851968,83,-56,-1,-1,0
1523613590069,720896,83,-56,-1,-1,0
1523613590109,589824,83,-56,-1,-1,0
1523613590109,393216,83,-56,-1,-1,0
1523613590109,196608,83,-56,-1,-1,0
1523613590109,0,83,-56,-1,-1,0
1523613590109,-131072,83,-56,-1,-1,0
1523613590149,-196608,83,-56,-1,-1,0
1523613590149,-327680,83,-56,-1,-1,0
1523613590149,-393216,83,-56,-1,-1,0
1523613590149,-524288,83,-56,-1,-1,0
1523613590149,-524288,83,-56,-1,-1,0
1523613590189,-458752,83,-56,-1,-1,0
1523613590189,-327680,83,-56,-1,-1,0
1523613590189,-262144,83,-56,-1,-1,0
1523613590189,-262144,83,-56,-1,-1,0
1523613590189,-262144,83,-56,-1,-1,0
1523613590229,-262144,83,-56,-1,-1,0
1523613590229,-262144,83,-56,-1,-1,0
1523613590229,-262144,83,-56,-1,-1,0
1523613590229,-262144,83,-56,-1,-1,0
1523613590229,-196608,83,-56,-1,-1,0
1523613590269,-196608,83,-56,-1,-1,0
1523613590269,-262144,83,-56,-1,-1,0
1523613590269,-327680,83,-56,-1,-1,0
1523613590269,-327680,83,-56,-1,-1,0
1523613590269,-262144,83,-56,-1,-1,0
1523613590309,-262144,83,-56,-1,-1,0
1523613590309,-327680,83,-56,-1,-1,0
1523613590309,-393216,83,-56,-1,-1,0
1523613590309,-393216,83,-56,-1,-1,0
1523613590309,-327680,83,-56,-1,-1,0
1523613590349,-196608,83,-56,-1,-1,0
1523613590349,-196608,83,-56,-1,-1,0
1523613590349,-262144,83,-56,-1,-1,0
1523613590349,-327680,83,-56,-1,-1,0
1523613590349,-327680,83,-56,-1,-1,0
1523613590390,-393216,83,-56,-1,-1,0
1523613590390,-393216,83,-56,-1,-1,0
1523613590390,-262144,83,-56,-1,-1,0
1523613590390,-131072,83,-56,-1,-1,0
1523613590390,0,83,-56,-1,-1,0
1523613590429,0,83,-56,-1,-1,0
1523613590429,0,83,-56,-1,-1,0
1523613590429,-65536,83,-56,-1,-1,0
1523613590429,-131072,83,-56,-1,-1,0
1523613590429,-131072,83,-56,-1,-1,0
1523613590469,-131072,83,-56,-1,-1,0
1523613590469,-65536,83,-56,-1,-1,0
1523613590469,-65536,83,-56,-1,-1,0
1523613590469,-196608,83,-56,-1,-1,0
1523613590469,-262144,83,-56,-1,-1,0
1523613590509,-196608,83,-56,-1,-1,0
1523613590509,327680,83,-56,-1,-1,0
1523613590509,1966080,83,-56,-1,-1,0
1523613590509,3997696,83,-56,-1,-1,0
1523613590509,3932160,83,-56,-1,-1,0
1523613590549,983040,83,-56,-1,-1,0
1523613590549,-1703936,83,-56,-1,-1,0
1523613590549,-1966080,83,-56,-1,-1,0
1523613590549,-1114112,83,-56,-1,-1,0
1523613590549,-458752,83,-56,-1,-1,0
1523613590589,-65536,83,-56,-1,-1,0
1523613590589,0,83,-56,-1,-1,0
1523613590589,65536,83,-56,-1,-1,0
1523613590589,131072,83,-56,-1,-1,0
1523613590589,131072,83,-56,-1,-1,0
1523613590629,196608,83,-56,-1,-1,0
1523613590629,196608,83,-56,-1,-1,0
1523613590629,262144,83,-56,-1,-1,0
1523613590629,196608,83,-56,-1,-1,0
1523613590629,196608,83,-56,-1,-1,0
1523613590670,262144,83,-56,-1,-1,0
1523613590670,327680,83,-56,-1,-1,0
1523613590670,327680,83,-56,-1,-1,0
1523613590670,393216,83,-56,-1,-1,0
1523613590670,458752,83,-56,-1,-1,0
1523613590710,589824,83,-56,-1,-1,0
1523613590710,655360,83,-56,-1,-1,0
1523613590710,655360,83,-56,-1,-1,0
1523613590710,655360,83,-56,-1,-1,0
1523613590710,720896,83,-56,-1,-1,0
1523613590749,851968,83,-56,-1,-1,0
1523613590749,917504,83,-56,-1,-1,0
1523613590749,1048576,83,-56,-1,-1,0
1523613590749,1114112,83,-56,-1,-1,0
1523613590749,1245184,83,-56,-1,-1,0
1523613590789,1245184,83,-56,-1,-1,0
1523613590789,1245184,83,-56,-1,-1,0
1523613590789,1245184,83,-56,-1,-1,0
1523613590789,1310720,83,-56,-1,-1,0
1523613590789,1310720,83,-56,-1,-1,0
1523613590829,1245184,83,-56,-1,-1,0
1523613590829,1048576,83,-56,-1,-1,0
1523613590829,851968,83,-56,-1,-1,0
1523613590829,720896,83,-56,-1,-1,0
1523613590829,589824,83,-56,-1,-1,0
1523613590869,458752,83,-56,-1,-1,0
1523613590869,327680,83,-56,-1,-1,0
1523613590869,196608,83,-56,-1,-1,0
1523613590869,131072,83,-56,-1,-1,0
1523613590869,65536,83,-56,-1,-1,0
1523613590909,0,83,-56,-1,-1,0
1523613590909,0,83,-56,-1,-1,0
1523613590909,0,83,-56,-1,-1,0
1523613590909,0,83,-56,-1,-1,0
1523613590909,0,83,-56,-1,-1,0
1523613590949,0,83,-56,-1,-1,0
1523613590949,0,83,-56,-1,-1,0
1523613590949,0,83,-56,-1,-1,0
1523613590949,0,83,-56,-1,-1,0
1523613590949,0,83,-56,-1,-1,0
1523613590989,0,83,-56,-1,-1,0
1523613590989,0,83,-56,-1,-1,0
1523613590989,-65536,83,-56,-1,-1,0
1523613590989,-65536,83,-56,-1,-1,0
1523613590989,-131072,83,-56,-1,-1,0
1523613591030,-196608,83,-56,-1,-1,0
1523613591030,-196608,83,-56,-1,-1,0
1523613591030,-262144,83,-56,-1,-1,0
1523613591030,-262144,83,-56,-1,-1,0
1523613591030,-327680,83,-56,-1,-1,0
1523613591069,-327680,83,-56,-1,-1,0
1523613591069,-327680,83,-56,-1,-1,0
1523613591069,-327680,83,-56,-1,-1,0
1523613591069,-393216,83,-56,-1,-1,0
1523613591069,-327680,83,-56,-1,-1,0
1523613591109,-327680,83,-56,-1,-1,0
1523613591109,-327680,83,-56,-1,-1,0
1523613591109,-393216,83,-56,-1,-1,0
1523613591109,-458752,83,-56,-1,-1,0
1523613591109,-458752,83,-56,-1,-1,0
1523613591149,-524288,83,-56,-1,-1,0
1523613591149,-524288,83,-56,-1,-1,0
1523613591149,-458752,83,-56,-1,-1,0
1523613591149,-327680,83,-56,-1,-1,0
1523613591149,-327680,83,-56,-1,-1,0
1523613591189,-393216,83,-56,-1,-1,0
1523613591189,-458752,83,-56,-1,-1,0
1523613591189,-524288,83,-56,-1,-1,0
1523613591189,-458752,83,-56,-1,-1,0
1523613591189,-524288,83,-56,-1,-1,0
1523613591229,-524288,83,-56,-1,-1,0
1523613591229,-524288,83,-56,-1,-1,0
1523613591229,-524288,83,-56,-1,-1,0
1523613591229,-524288,83,-56,-1,-1,0
1523613591229,-589824,83,-56,-1,-1,0
1523613591269,-458752,83,-56,-1,-1,0
1523613591269,524288,83,-56,-1,-1,0
1523613591269,2621440,83,-56,-1,-1,0
1523613591269,3801088,83,-56,-1,-1,0
1523613591269,1900544,83,-56,-1,-1,0
1523613591309,-1245184,83,-56,-1,-1,0
1523613591309,-2752512,83,-56,-1,-1,0
1523613591309,-2228224,83,-56,-1,-1,0
1523613591309,-1507328,83,-56,-1,-1,0
1523613591309,-917504,83,-56,-1,-1,0
1523613591349,-655360,83,-56,-1,-1,0
1523613591349,-589824,83,-56,-1,-1,0
1523613591349,-589824,83,-56,-1,-1,0
1523613591349,-589824,83,-56,-1,-1,0
1523613591349,-524288,83,-56,-1,-1,0
1523613591389,-524288,83,-56,-1,-1,0
1523613591389,-458752,83,-56,-1,-1,0
1523613591389,-458752,83,-56,-1,-1,0
1523613591389,-458752,83,-56,-1,-1,0
1523613591389,-393216,83,-56,-1,-1,0
1523613591429,-458752,83,-56,-1,-1,0
1523613591429,-393216,83,-56,-1,-1,0
1523613591429,-327680,83,-56,-1,-1,0
1523613591429,-196608,83,-56,-1,-1,0
1523613591429,-196608,83,-56,-1,-1,0
1523613591469,-131072,83,-56,-1,-1,0
1523613591469,-131072,83,-56,-1,-1,0
1523613591469,-131072,83,-56,-1,-1,0
1523613591469,-65536,83,-56,-1,-1,0
1523613591469,0,83,-56,-1,-1,0
1523613591509,131072,83,-56,-1,-1,0
1523613591509,196608,83,-56,-1,-1,0
1523613591509,262144,83,-56,-1,-1,0
1523613591509,393216,83,-56,-1,-1,0
1523613591509,458752,83,-56,-1,-1,0
1523613591549,589824,83,-56,-1,-1,0
1523613591549,589824,83,-56,-1,-1,0
1523613591549,655360,83,-56,-1,-1,0
1523613591549,655360,83,-56,-1,-1,0
1523613591549,655360,83,-56,-1,-1,0
1523613591589,524288,83,-56,-1,-1,0
1523613591589,524288,83,-56,-1,-1,0
1523613591589,327680,83,-56,-1,-1,0
1523613591589,131072,83,-56,-1,-1,0
1523613591589,0,83,-56,-1,-1,0
1523613591629,-196608,83,-56,-1,-1,0
1523613591629,-327680,83,-56,-1,-1,0
1523613591629,-458752,83,-56,-1,-1,0
1523613591629,-524288,83,-56,-1,-1,0
1523613591629,-524288,83,-56,-1,-1,0
1523613591670,-524288,83,-56,-1,-1,0
1523613591670,-524288,83,-56,-1,-1,0
1523613591670,-524288,83,-56,-1,-1,0
1523613591670,-524288,83,-56,-1,-1,0
1523613591670,-524288,83,-56,-1,-1,0
1523613591709,-524288,83,-56,-1,-1,0
1523613591709,-458752,83,-56,-1,-1,0
1523613591709,-458752,83,-56,-1,-1,0
1523613591709,-524288,83,-56,-1,-1,0
1523613591709,-524288,83,-56,-1,-1,0
1523613591749,-524288,83,-56,-1,-1,0
1523613591749,-524288,83,-56,-1,-1,0
1523613591749,-524288,83,-56,-1,-1,0
1523613591749,-524288,83,-56,-1,-1,0
1523613591749,-589824,83,-56,-1,-1,0
1523613591789,-655360,83,-56,-1,-1,0
1523613591789,-655360,83,-56,-1,-1,0
1523613591789,-655360,83,-56,-1,-1,0
1523613591789,-720896,83,-56,-1,-1,0
1523613591789,-720896,83,-56,-1,-1,0
1523613591829,-720896,83,-56,-1,-1,0
1523613591829,-720896,83,-56,-1,-1,0
1523613591829,-786432,83,-56,-1,-1,0
1523613591829,-720896,83,-56,-1,-1,0
1523613591829,-720896,83,-56,-1,-1,0
1523613591869,-786432,83,-56,-1,-1,0
1523613591869,-786432,83,-56,-1,-1,0
1523613591869,-786432,83,-56,-1,-1,0
1523613591869,-720896,83,-56,-1,-1,0
1523613591869,-655360,83,-56,-1,-1,0
1523613591909,-524288,83,-56,-1,-1,0
1523613591909,-458752,83,-56,-1,-1,0
1523613591909,-458752,83,-56,-1,-1,0
1523613591909,-524288,83,-56,-1,-1,0
1523613591909,-524288,83,-56,-1,-1,0
1523613591949,-524288,83,-56,-1,-1,0
1523613591949,-458752,83,-56,-1,-1,0
1523613591949,-458752,83,-56,-1,-1,0
1523613591949,-458752,83,-56,-1,-1,0
1523613591949,-393216,83,-56,-1,-1,0
1523613591989,-393216,83,-56,-1,-1,0
1523613591989,-458752,83,-56,-1,-1,0
1523613591989,-262144,83,-56,-1,-1,0
1523613591989,655360,83,-56,-1,-1,0
1523613591989,2752512,83,-56,-1,-1,0
1523613592029,4325376,83,-56,-1,-1,0
1523613592029,2555904,83,-56,-1,-1,0
1523613592029,-917504,83,-56,-1,-1,0
1523613592029,-2752512,83,-56,-1,-1,0
1523613592029,-2162688,83,-56,-1,-1,0
1523613592071,-1376256,83,-56,-1,-1,0
1523613592071,-786432,83,-56,-1,-1,0
1523613592071,-458752,83,-56,-1,-1,0
1523613592071,-327680,83,-56,-1,-1,0
1523613592071,-262144,83,-56,-1,-1,0
1523613592109,-262144,83,-56,-1,-1,0
1523613592109,-196608,83,-56,-1,-1,0
1523613592109,-196608,83,-56,-1,-1,0
1523613592109,-262144,83,-56,-1,-1,0
1523613592109,-262144,83,-56,-1,-1,0
1523613592149,-131072,83,-56,-1,-1,0
1523613592149,-131072,83,-56,-1,-1,0
1523613592149,-65536,83,-56,-1,-1,0
1523613592149,-65536,83,-56,-1,-1,0
1523613592149,-65536,83,-56,-1,-1,0
1523613592189,0,83,-56,-1,-1,0
1523613592189,0,83,-56,-1,-1,0
1523613592189,0,83,-56,-1,-1,0
1523613592189,0,83,-56,-1,-1,0
1523613592189,131072,83,-56,-1,-1,0
1523613592229,196608,83,-56,-1,-1,0
1523613592229,262144,83,-56,-1,-1,0
1523613592229,393216,83,-56,-1,-1,0
1523613592229,458752,83,-56,-1,-1,0
1523613592229,655360,83,-56,-1,-1,0
1523613592269,786432,83,-56,-1,-1,0
1523613592269,917504,83,-56,-1,-1,0
1523613592269,917504,83,-56,-1,-1,0
1523613592269,983040,83,-56,-1,-1,0
1523613592269,1048576,83,-56,-1,-1,0
1523613592311,983040,83,-56,-1,-1,0
1523613592311,851968,83,-56,-1,-1,0
1523613592311,786432,83,-56,-1,-1,0
1523613592311,655360,83,-56,-1,-1,0
1523613592311,393216,83,-56,-1,-1,0
1523613592349,131072,83,-56,-1,-1,0
1523613592349,0,83,-56,-1,-1,0
1523613592349,-131072,83,-56,-1,-1,0
1523613592349,-196608,83,-56,-1,-1,0
1523613592349,-393216,83,-56,-1,-1,0
1523613592389,-393216,83,-56,-1,-1,0
1523613592389,-458752,83,-56,-1,-1,0
1523613592389,-393216,83,-56,-1,-1,0
1523613592389,-393216,83,-56,-1,-1,0
1523613592389,-393216,83,-56,-1,-1,0
1523613592429,-458752,83,-56,-1,-1,0
1523613592429,-393216,83,-56,-1,-1,0
1523613592429,-393216,83,-56,-1,-1,0
1523613592429,-327680,83,-56,-1,-1,0
1523613592429,-262144,83,-56,-1,-1,0
1523613592469,-196608,83,-56,-1,-1,0
1523613592469,-327680,83,-56,-1,-1,0
1523613592469,-393216,83,-56,-1,-1,0
1523613592469,-327680,83,-56,-1,-1,0
1523613592469,-196608,83,-56,-1,-1,0
1523613592509,-393216,83,-56,-1,-1,0
1523613592509,-524288,83,-56,-1,-1,0
1523613592509,-393216,83,-56,-1,-1,0
1523613592509,-262144,83,-56,-1,-1,0
1523613592509,-393216,83,-56,-1,-1,0
1523613592549,-524288,83,-56,-1,-1,0
1523613592549,-524288,83,-56,-1,-1,0
1523613592549,-458752,83,-56,-1,-1,0
1523613592549,-524288,83,-56,-1,-1,0
1523613592549,-655360,83,-56,-1,-1,0
1523613592589,-524288,83,-56,-1,-1,0
1523613592589,-458752,83,-56,-1,-1,0
1523613592589,-393216,83,-56,-1,-1,0
1523613592589,-458752,83,-56,-1,-1,0
1523613592589,-524288,83,-56,-1,-1,0
1523613592629,-458752,83,-56,-1,-1,0
1523613592629,-393216,83,-56,-1,-1,0
1523613592629,-458752,83,-56,-1,-1,0
1523613592629,-589824,83,-56,-1,-1,0
1523613592629,-458752,83,-56,-1,-1,0
1523613592669,-393216,83,-56,-1,-1,0
1523613592669,-458752,83,-56,-1,-1,0
1523613592669,-524288,83,-56,-1,-1,0
1523613592669,-458752,83,-56,-1,-1,0
1523613592669,-65536,83,-56,-1,-1,0
1523613592709,1310720,83,-56,-1,-1,0
1523613592709,3473408,83,-56,-1,-1,0
1523613592709,3801088,83,-56,-1,-1,0
1523613592709,589824,83,-56,-1,-1,0
1523613592709,-2490368,83,-56,-1,-1,0
1523613592749,-3080192,83,-56,-1,-1,0
1523613592749,-2097152,83,-56,-1,-1,0
1523613592749,-1245184,83,-56,-1,-1,0
1523613592749,-589824,83,-56,-1,-1,0
1523613592749,-327680,83,-56,-1,-1,0
1523613592791,-393216,83,-56,-1,-1,0
1523613592791,-327680,83,-56,-1,-1,0
1523613592791,-131072,83,-56,-1,-1,0
1523613592791,-65536,83,-56,-1,-1,0
1523613592791,-262144,83,-56,-1,-1,0
1523613592829,-196608,83,-56,-1,-1,0
1523613592829,-65536,83,-56,-1,-1,0
1523613592829,-65536,83,-56,-1,-1,0
1523613592829,-131072,83,-56,-1,-1,0
1523613592829,0,83,-56,-1,-1,0
1523613592869,0,83,-56,-1,-1,0
1523613592869,0,83,-56,-1,-1,0
1523613592869,65536,83,-56,-1,-1,0
1523613592869,327680,83,-56,-1,-1,0
1523613592869,327680,83,-56,-1,-1,0
1523613592909,327680,83,-56,-1,-1,0
1523613592909,393216,83,-56,-1,-1,0
1523613592909,655360,83,-56,-1,-1,0
1523613592909,786432,83,-56,-1,-1,0
1523613592909,983040,83,-56,-1,-1,0
1523613592951,1114112,83,-56,-1,-1,0
1523613592951,1245184,83,-56,-1,-1,0
1523613592951,1376256,83,-56,-1,-1,0
1523613592951,1441792,83,-56,-1,-1,0
1523613592951,1441792,83,-56,-1,-1,0
1523613592989,1376256,83,-56,-1,-1,0
1523613592989,1441792,83,-56,-1,-1,0
1523613592989,1376256,83,-56,-1,-1,0
1523613592989,1310720,83,-56,-1,-1,0
1523613592989,1048576,83,-56,-1,-1,0
1523613593029,786432,83,-56,-1,-1,0
1523613593029,524288,83,-56,-1,-1,0
1523613593029,262144,83,-56,-1,-1,0
1523613593029,131072,83,-56,-1,-1,0
1523613593029,65536,83,-56,-1,-1,0
1523613593069,0,83,-56,-1,-1,0
1523613593069,0,83,-56,-1,-1,0
1523613593069,0,83,-56,-1,-1,0
1523613593069,0,83,-56,-1,-1,0
1523613593069,0,83,-56,-1,-1,0
1523613593109,65536,83,-56,-1,-1,0
1523613593109,131072,83,-56,-1,-1,0
1523613593109,196608,83,-56,-1,-1,0
1523613593109,196608,83,-56,-1,-1,0
1523613593109,262144,83,-56,-1,-1,0
1523613593151,327680,83,-56,-1,-1,0
1523613593151,393216,83,-56,-1,-1,0
1523613593151,327680,83,-56,-1,-1,0
1523613593151,327680,83,-56,-1,-1,0
1523613593151,327680,83,-56,-1,-1,0
1523613593189,262144,83,-56,-1,-1,0
1523613593189,262144,83,-56,-1,-1,0
1523613593189,196608,83,-56,-1,-1,0
1523613593189,131072,83,-56,-1,-1,0
1523613593189,131072,83,-56,-1,-1,0
1523613593229,65536,83,-56,-1,-1,0
1523613593229,65536,83,-56,-1,-1,0
1523613593229,65536,83,-56,-1,-1,0
1523613593229,0,83,-56,-1,-1,0
1523613593229,-65536,83,-56,-1,-1,0
1523613593269,0,83,-56,-1,-1,0
1523613593269,0,83,-56,-1,-1,0
1523613593269,131072,83,-56,-1,-1,0
1523613593269,196608,83,-56,-1,-1,0
1523613593269,131072,83,-56,-1,-1,0
1523613593309,65536,83,-56,-1,-1,0
1523613593309,65536,83,-56,-1,-1,0
1523613593309,0,83,-56,-1,-1,0
1523613593309,0,83,-56,-1,-1,0
1523613593309,0,83,-56,-1,-1,0
1523613593349,0,83,-56,-1,-1,0
1523613593349,65536,83,-56,-1,-1,0
1523613593349,65536,83,-56,-1,-1,0
1523613593349,0,83,-56,-1,-1,0
1523613593349,327680,83,-56,-1,-1,0
1523613593389,1769472,83,-56,-1,-1,0
1523613593389,4325376,83,-56,-1,-1,0
1523613593389,4915200,83,-56,-1,-1,0
1523613593389,1835008,83,-56,-1,-1,0
1523613593389,-1638400,83,-56,-1,-1,0
1523613593429,-2293760,83,-56,-1,-1,0
1523613593429,-1376256,83,-56,-1,-1,0
1523613593429,-655360,83,-56,-1,-1,0
1523613593429,-131072,83,-56,-1,-1,0
1523613593429,65536,83,-56,-1,-1,0
1523613593469,65536,83,-56,-1,-1,0
1523613593469,65536,83,-56,-1,-1,0
1523613593469,65536,83,-56,-1,-1,0
1523613593469,65536,83,-56,-1,-1,0
1523613593469,65536,83,-56,-1,-1,0
1523613593509,131072,83,-56,-1,-1,0
1523613593509,65536,83,-56,-1,-1,0
1523613593509,131072,83,-56,-1,-1,0
1523613593509,131072,83,-56,-1,-1,0
1523613593509,196608,83,-56,-1,-1,0
1523613593549,262144,83,-56,-1,-1,0
1523613593549,327680,83,-56,-1,-1,0
1523613593549,327680,83,-56,-1,-1,0
1523613593549,393216,83,-56,-1,-1,0
1523613593549,458752,83,-56,-1,-1,0
1523613593590,524288,83,-56,-1,-1,0
1523613593590,524288,83,-56,-1,-1,0
1523613593590,589824,83,-56,-1,-1,0
1523613593590,655360,83,-56,-1,-1,0
1523613593590,786432,83,-56,-1,-1,0
1523613593629,917504,83,-56,-1,-1,0
1523613593629,1048576,83,-56,-1,-1,0
1523613593629,1179648,83,-56,-1,-1,0
1523613593629,1245184,83,-56,-1,-1,0
1523613593629,1245184,83,-56,-1,-1,0
1523613593669,1245184,83,-56,-1,-1,0
1523613593669,1179648,83,-56,-1,-1,0
1523613593669,1114112,83,-56,-1,-1,0
1523613593669,1048576,83,-56,-1,-1,0
1523613593669,851968,83,-56,-1,-1,0
1523613593709,720896,83,-56,-1,-1,0
1523613593709,524288,83,-56,-1,-1,0
1523613593709,327680,83,-56,-1,-1,0
1523613593709,131072,83,-56,-1,-1,0
1523613593709,0,83,-56,-1,-1,0
1523613593749,0,83,-56,-1,-1,0
1523613593749,0,83,-56,-1,-1,0
1523613593749,0,83,-56,-1,-1,0
1523613593749,0,83,-56,-1,-1,0
1523613593749,0,83,-56,-1,-1,0
1523613593789,0,83,-56,-1,-1,0
1523613593789,0,83,-56,-1,-1,0
1523613593789,0,83,-56,-1,-1,0
1523613593789,0,83,-56,-1,-1,0
1523613593789,65536,83,-56,-1,-1,0
1523613593829,65536,83,-56,-1,-1,0
1523613593829,0,83,-56,-1,-1,0
1523613593829,0,83,-56,-1,-1,0
1523613593829,0,83,-56,-1,-1,0
1523613593829,0,83,-56,-1,-1,0
1523613593869,0,83,-56,-1,-1,0
1523613593869,0,83,-56,-1,-1,0
1523613593869,-65536,83,-56,-1,-1,0
1523613593869,-65536,83,-56,-1,-1,0
1523613593869,-65536,83,-56,-1,-1,0
1523613593909,-131072,83,-56,-1,-1,0
1523613593909,-131072,83,-56,-1,-1,0
1523613593909,-131072,83,-56,-1,-1,0
1523613593909,-196608,83,-56,-1,-1,0
1523613593909,-196608,83,-56,-1,-1,0
1523613593949,-262144,83,-56,-1,-1,0
1523613593949,-262144,83,-56,-1,-1,0
1523613593949,-262144,83,-56,-1,-1,0
1523613593949,-327680,83,-56,-1,-1,0
1523613593949,-393216,83,-56,-1,-1,0
1523613593989,-458752,83,-56,-1,-1,0
1523613593989,-458752,83,-56,-1,-1,0
1523613593989,-327680,83,-56,-1,-1,0
1523613593989,-262144,83,-56,-1,-1,0
1523613593989,-196608,83,-56,-1,-1,0
1523613594029,-196608,83,-56,-1,-1,0
1523613594029,-262144,83,-56,-1,-1,0
1523613594029,-262144,83,-56,-1,-1,0
1523613594029,-262144,83,-56,-1,-1,0
1523613594029,-196608,83,-56,-1,-1,0
1523613594069,-196608,83,-56,-1,-1,0
1523613594069,-196608,83,-56,-1,-1,0
1523613594069,-196608,83,-56,-1,-1,0
1523613594069,-262144,83,-56,-1,-1,0
1523613594069,-327680,83,-56,-1,-1,0
1523613594109,65536,83,-56,-1,-1,0
1523613594109,1572864,83,-56,-1,-1,0
1523613594109,4063232,83,-56,-1,-1,0
1523613594109,4849664,83,-56,-1,-1,0
1523613594109,1900544,83,-56,-1,-1,0
1523613594149,-1572864,83,-56,-1,-1,0
1523613594149,-2424832,83,-56,-1,-1,0
1523613594149,-1572864,83,-56,-1,-1,0
1523613594149,-851968,83,-56,-1,-1,0
1523613594149,-393216,83,-56,-1,-1,0
1523613594189,-131072,83,-56,-1,-1,0
1523613594189,-131072,83,-56,-1,-1,0
1523613594189,-65536,83,-56,-1,-1,0
1523613594189,-65536,83,-56,-1,-1,0
1523613594189,0,83,-56,-1,-1,0
1523613594230,0,83,-56,-1,-1,0
1523613594230,0,83,-56,-1,-1,0
1523613594230,0,83,-56,-1,-1,0
1523613594230,0,83,-56,-1,-1,0
1523613594230,0,83,-56,-1,-1,0
1523613594269,0,83,-56,-1,-1,0
1523613594269,0,83,-56,-1,-1,0
1523613594269,65536,83,-56,-1,-1,0
1523613594269,131072,83,-56,-1,-1,0
1523613594269,196608,83,-56,-1,-1,0
1523613594309,327680,83,-56,-1,-1,0
1523613594309,393216,83,-56,-1,-1,0
1523613594309,458752,83,-56,-1,-1,0
1523613594309,524288,83,-56,-1,-1,0
1523613594309,589824,83,-56,-1,-1,0
1523613594349,720896,83,-56,-1,-1,0
1523613594349,851968,83,-56,-1,-1,0
1523613594349,983040,83,-56,-1,-1,0
1523613594349,1114112,83,-56,-1,-1,0
1523613594349,1179648,83,-56,-1,-1,0
1523613594389,1179648,83,-56,-1,-1,0
1523613594389,1245184,83,-56,-1,-1,0
1523613594389,1245184,83,-56,-1,-1,0
1523613594389,1245184,83,-56,-1,-1,0
1523613594389,1179648,83,-56,-1,-1,0
1523613594429,983040,83,-56,-1,-1,0
1523613594429,786432,83,-56,-1,-1,0
1523613594429,524288,83,-56,-1,-1,0
1523613594429,327680,83,-56,-1,-1,0
1523613594429,131072,83,-56,-1,-1,0
1523613594469,0,83,-56,-1,-1,0
1523613594469,0,83,-56,-1,-1,0
1523613594469,-65536,83,-56,-1,-1,0
1523613594469,-131072,83,-56,-1,-1,0
1523613594469,-196608,83,-56,-1,-1,0
1523613594509,-196608,83,-56,-1,-1,0
1523613594509,-262144,83,-56,-1,-1,0
1523613594509,-262144,83,-56,-1,-1,0
1523613594509,-196608,83,-56,-1,-1,0
1523613594509,-196608,83,-56,-1,-1,0
1523613594549,-196608,83,-56,-1,-1,0
1523613594549,-196608,83,-56,-1,-1,0
1523613594549,-196608,83,-56,-1,-1,0
1523613594549,-196608,83,-56,-1,-1,0
1523613594549,-262144,83,-56,-1,-1,0
1523613594589,-196608,83,-56,-1,-1,0
1523613594589,-196608,83,-56,-1,-1,0
1523613594589,-262144,83,-56,-1,-1,0
1523613594589,-262144,83,-56,-1,-1,0
1523613594589,-262144,83,-56,-1,-1,0
1523613594629,-262144,83,-56,-1,-1,0
1523613594629,-327680,83,-56,-1,-1,0
1523613594629,-327680,83,-56,-1,-1,0
1523613594629,-327680,83,-56,-1,-1,0
1523613594629,-393216,83,-56,-1,-1,0
1523613594669,-393216,83,-56,-1,-1,0
1523613594669,-393216,83,-56,-1,-1,0
1523613594669,-393216,83,-56,-1,-1,0
1523613594669,-393216,83,-56,-1,-1,0
1523613594669,-393216,83,-56,-1,-1,0
1523613594709,-393216,83,-56,-1,-1,0
1523613594709,-327680,83,-56,-1,-1,0
1523613594709,-327680,83,-56,-1,-1,0
1523613594709,-327680,83,-56,-1,-1,0
1523613594709,-327680,83,-56,-1,-1,0
1523613594749,-327680,83,-56,-1,-1,0
1523613594749,-327680,83,-56,-1,-1,0
1523613594749,-327680,83,-56,-1,-1,0
1523613594749,-262144,83,-56,-1,-1,0
1523613594749,-262144,83,-56,-1,-1,0
1523613594789,-196608,83,-56,-1,-1,0
1523613594789,-196608,83,-56,-1,-1,0
1523613594789,-196608,83,-56,-1,-1,0
1523613594789,-131072,83,-56,-1,-1,0
1523613594789,-196608,83,-56,-1,-1,0
1523613594829,-196608,83,-56,-1,-1,0
1523613594829,-262144,83,-56,-1,-1,0
1523613594829,-196608,83,-56,-1,-1,0
1523613594829,-196608,83,-56,-1,-1,0
1523613594829,-262144,83,-56,-1,-1,0
1523613594870,-262144,83,-56,-1,-1,0
1523613594870,-262144,83,-56,-1,-1,0
1523613594870,-196608,83,-56,-1,-1,0
1523613594870,-262144,83,-56,-1,-1,0
1523613594870,-327680,83,-56,-1,-1,0
1523613594909,-393216,83,-56,-1,-1,0
1523613594909,-393216,83,-56,-1,-1,0
1523613594909,-393216,83,-56,-1,-1,0
1523613594909,-458752,83,-56,-1,-1,0
1523613594909,-524288,83,-56,-1,-1,0
1523613594949,-589824,83,-56,-1,-1,0
1523613594949,-589824,83,-56,-1,-1,0
1523613594949,-524288,83,-56,-1,-1,0
1523613594949,-458752,83,-56,-1,-1,0
1523613594949,-327680,83,-56,-1,-1,0
1523613594989,-262144,83,-56,-1,-1,0
1523613594989,-262144,83,-56,-1,-1,0
1523613594989,-327680,83,-56,-1,-1,0
1523613594989,-393216,83,-56,-1,-1,0
1523613594989,-327680,83,-56,-1,-1,0
1523613595029,-327680,83,-56,-1,-1,0
1523613595029,-393216,83,-56,-1,-1,0
1523613595029,-327680,83,-56,-1,-1,0
1523613595029,-327680,83,-56,-1,-1,0
1523613595029,-327680,83,-56,-1,-1,0
1523613595069,-393216,83,-56,-1,-1,0
1523613595069,-393216,83,-56,-1,-1,0
1523613595069,262144,83,-56,-1,-1,0
1523613595069,2228224,83,-56,-1,-1,0
1523613595069,4456448,83,-56,-1,-1,0
1523613595109,3997696,83,-56,-1,-1,0
1523613595109,589824,83,-56,-1,-1,0
1523613595109,-2097152,83,-56,-1,-1,0
1523613595109,-2031616,83,-56,-1,-1,0
1523613595109,-1179648,83,-56,-1,-1,0
1523613595149,-655360,83,-56,-1,-1,0
1523613595149,-327680,83,-56,-1,-1,0
1523613595149,-196608,83,-56,-1,-1,0
1523613595149,-131072,83,-56,-1,-1,0
1523613595149,-131072,83,-56,-1,-1,0
1523613595189,-65536,83,-56,-1,-1,0
1523613595189,-65536,83,-56,-1,-1,0
1523613595189,-65536,83,-56,-1,-1,0
1523613595189,-65536,83,-56,-1,-1,0
1523613595189,-65536,83,-56,-1,-1,0
1523613595229,0,83,-56,-1,-1,0
1523613595229,0,83,-56,-1,-1,0
1523613595229,65536,83,-56,-1,-1,0
1523613595229,65536,83,-56,-1,-1,0
1523613595229,65536,83,-56,-1,-1,0
1523613595269,131072,83,-56,-1,-1,0
1523613595269,196608,83,-56,-1,-1,0
1523613595269,196608,83,-56,-1,-1,0
1523613595269,262144,83,-56,-1,-1,0
1523613595269,262144,83,-56,-1,-1,0
1523613595309,327680,83,-56,-1,-1,0
1523613595309,393216,83,-56,-1,-1,0
1523613595309,524288,83,-56,-1,-1,0
1523613595309,589824,83,-56,-1,-1,0
1523613595309,720896,83,-56,-1,-1,0
1523613595349,720896,82,-56,-1,-1,0
1523613595349,720896,82,-56,-1,-1,0
1523613595349,851968,82,-56,-1,-1,0
1523613595349,917504,82,-56,-1,-1,0
1523613595349,983040,82,-56,-1,-1,0
1523613595389,983040,82,-56,-1,-1,0
1523613595389,917504,82,-56,-1,-1,0
1523613595389,851968,82,-56,-1,-1,0
1523613595389,786432,82,-56,-1,-1,0
1523613595389,655360,82,-56,-1,-1,0
1523613595429,458752,82,-56,-1,-1,0
1523613595429,262144,82,-56,-1,-1,0
1523613595429,131072,82,-56,-1,-1,0
1523613595429,65536,82,-56,-1,-1,0
1523613595429,0,82,-56,-1,-1,0
1523613595469,0,82,-56,-1,-1,0
1523613595469,-65536,82,-56,-1,-1,0
1523613595469,-131072,82,-56,-1,-1,0
1523613595469,-131072,82,-56,-1,-1,0
1523613595469,-196608,82,-56,-1,-1,0
1523613595510,-196608,82,-56,-1,-1,0
1523613595510,-196608,82,-56,-1,-1,0
1523613595510,-196608,82,-56,-1,-1,0
1523613595510,-131072,82,-56,-1,-1,0
1523613595510,-65536,82,-56,-1,-1,0
1523613595549,-65536,82,-56,-1,-1,0
1523613595549,-131072,82,-56,-1,-1,0
1523613595549,-131072,82,-56,-1,-1,0
1523613595549,-131072,82,-56,-1,-1,0
1523613595549,-196608,82,-56,-1,-1,0
1523613595589,-196608,82,-56,-1,-1,0
1523613595589,-262144,82,-56,-1,-1,0
1523613595589,-262144,82,-56,-1,-1,0
1523613595589,-196608,82,-56,-1,-1,0
1523613595589,-196608,82,-56,-1,-1,0
1523613595629,-196608,82,-56,-1,-1,0
1523613595629,-262144,82,-56,-1,-1,0
1523613595629,-262144,82,-56,-1,-1,0
1523613595629,-262144,82,-56,-1,-1,0
1523613595629,-262144,82,-56,-1,-1,0
1523613595669,-262144,82,-56,-1,-1,0
1523613595669,-262144,82,-56,-1,-1,0
1523613595669,-262144,82,-56,-1,-1,0
1523613595669,-262144,82,-56,-1,-1,0
1523613595669,-262144,82,-56,-1,-1,0
1523613595709,-327680,82,-56,-1,-1,0
1523613595709,-327680,82,-56,-1,-1,0
1523613595709,-393216,82,-56,-1,-1,0
1523613595709,-393216,82,-56,-1,-1,0
1523613595709,-458752,82,-56,-1,-1,0
1523613595749,-458752,82,-56,-1,-1,0
1523613595749,-393216,82,-56,-1,-1,0
1523613595749,-393216,82,-56,-1,-1,0
1523613595749,-393216,82,-56,-1,-1,0
1523613595749,-393216,82,-56,-1,-1,0
1523613595789,-393216,82,-56,-1,-1,0
1523613595789,-393216,82,-56,-1,-1,0
1523613595789,-393216,82,-56,-1,-1,0
1523613595789,-327680,82,-56,-1,-1,0
1523613595789,-327680,82,-56,-1,-1,0
1523613595829,-327680,82,-56,-1,-1,0
1523613595829,-327680,82,-56,-1,-1,0
1523613595829,-393216,82,-56,-1,-1,0
1523613595829,-393216,82,-56,-1,-1,0
1523613595829,-393216,82,-56,-1,-1,0
1523613595869,-393216,82,-56,-1,-1,0
1523613595869,-458752,82,-56,-1,-1,0
1523613595869,-458752,82,-56,-1,-1,0
1523613595869,-458752,82,-56,-1,-1,0
1523613595869,-458752,82,-56,-1,-1,0
1523613595909,-458752,82,-56,-1,-1,0
1523613595909,-458752,82,-56,-1,-1,0
1523613595909,-458752,82,-56,-1,-1,0
1523613595909,-393216,82,-56,-1,-1,0
1523613595909,-262144,82,-56,-1,-1,0
1523613595949,-196608,82,-56,-1,-1,0
1523613595949,-131072,82,-56,-1,-1,0
1523613595949,-131072,82,-56,-1,-1,0
1523613595949,-196608,82,-56,-1,-1,0
1523613595949,-262144,82,-56,-1,-1,0
1523613595989,-262144,82,-56,-1,-1,0
1523613595989,-262144,82,-56,-1,-1,0
1523613595989,-262144,82,-56,-1,-1,0
1523613595989,-262144,82,-56,-1,-1,0
1523613595989,-262144,82,-56,-1,-1,0
1523613596029,-262144,82,-56,-1,-1,0
1523613596029,-393216,82,-56,-1,-1,0
1523613596029,-196608,82,-56,-1,-1,0
1523613596029,851968,82,-56,-1,-1,0
1523613596029,3014656,82,-56,-1,-1,0
1523613596069,4390912,82,-56,-1,-1,0
1523613596069,2490368,82,-56,-1,-1,0
1523613596069,-851968,82,-56,-1,-1,0
1523613596069,-2359296,82,-56,-1,-1,0
1523613596069,-1769472,82,-56,-1,-1,0
1523613596109,-1048576,82,-56,-1,-1,0
1523613596109,-589824,82,-56,-1,-1,0
1523613596109,-327680,82,-56,-1,-1,0
1523613596109,-262144,82,-56,-1,-1,0
1523613596109,-196608,82,-56,-1,-1,0
1523613596150,-196608,82,-56,-1,-1,0
1523613596150,-131072,82,-56,-1,-1,0
1523613596150,-196608,82,-56,-1,-1,0
1523613596150,-131072,82,-56,-1,-1,0
1523613596150,-196608,82,-56,-1,-1,0
1523613596189,-131072,82,-56,-1,-1,0
1523613596189,-131072,82,-56,-1,-1,0
1523613596189,-131072,82,-56,-1,-1,0
1523613596189,-65536,82,-56,-1,-1,0
1523613596189,0,82,-56,-1,-1,0
1523613596229,0,82,-56,-1,-1,0
1523613596229,0,82,-56,-1,-1,0
1523613596229,0,82,-56,-1,-1,0
1523613596229,0,82,-56,-1,-1,0
1523613596229,65536,82,-56,-1,-1,0
1523613596269,131072,81,-56,-1,-1,0
1523613596269,262144,81,-56,-1,-1,0
1523613596269,262144,81,-56,-1,-1,0
1523613596269,327680,81,-56,-1,-1,0
1523613596269,458752,81,-56,-1,-1,0
1523613596309,524288,81,-56,-1,-1,0
1523613596309,589824,81,-56,-1,-1,0
1523613596309,655360,81,-56,-1,-1,0
1523613596309,786432,81,-56,-1,-1,0
1523613596309,851968,81,-56,-1,-1,0
1523613596349,851968,81,-56,-1,-1,0
1523613596349,851968,81,-56,-1,-1,0
1523613596349,851968,81,-56,-1,-1,0
1523613596349,786432,81,-56,-1,-1,0
1523613596349,655360,81,-56,-1,-1,0
1523613596389,458752,81,-56,-1,-1,0
1523613596389,262144,81,-56,-1,-1,0
1523613596389,65536,81,-56,-1,-1,0
1523613596389,0,81,-56,-1,-1,0
1523613596389,-65536,81,-56,-1,-1,0
1523613596429,-65536,81,-56,-1,-1,0
1523613596429,-131072,81,-56,-1,-1,0
1523613596429,-196608,81,-56,-1,-1,0
1523613596429,-196608,81,-56,-1,-1,0
1523613596429,-196608,81,-56,-1,-1,0
1523613596469,-196608,81,-56,-1,-1,0
1523613596469,-196608,81,-56,-1,-1,0
1523613596469,-196608,81,-56,-1,-1,0
1523613596469,-131072,81,-56,-1,-1,0
1523613596469,-65536,81,-56,-1,-1,0
1523613596509,-65536,81,-56,-1,-1,0
1523613596509,-65536,81,-56,-1,-1,0
1523613596509,-131072,81,-56,-1,-1,0
1523613596509,-131072,81,-56,-1,-1,0
1523613596509,-196608,81,-56,-1,-1,0
1523613596549,-196608,81,-56,-1,-1,0
1523613596549,-196608,81,-56,-1,-1,0
1523613596549,-196608,81,-56,-1,-1,0
1523613596549,-196608,81,-56,-1,-1,0
1523613596549,-196608,81,-56,-1,-1,0
1523613596589,-196608,81,-56,-1,-1,0
1523613596589,-262144,81,-56,-1,-1,0
1523613596589,-262144,81,-56,-1,-1,0
1523613596589,-262144,81,-56,-1,-1,0
1523613596589,-262144,81,-56,-1,-1,0
1523613596629,-262144,81,-56,-1,-1,0
1523613596629,-327680,81,-56,-1,-1,0
1523613596629,-327680,81,-56,-1,-1,0
1523613596629,-262144,81,-56,-1,-1,0
1523613596629,-262144,81,-56,-1,-1,0
1523613596669,-262144,81,-56,-1,-1,0
1523613596669,-262144,81,-56,-1,-1,0
1523613596669,-262144,81,-56,-1,-1,0
1523613596669,-262144,81,-56,-1,-1,0
1523613596669,-327680,81,-56,-1,-1,0
1523613596709,-393216,81,-56,-1,-1,0
1523613596709,-393216,81,-56,-1,-1,0
1523613596709,-393216,81,-56,-1,-1,0
1523613596709,-393216,81,-56,-1,-1,0
1523613596709,-393216,81,-56,-1,-1,0
1523613596749,-327680,81,-56,-1,-1,0
1523613596749,-327680,81,-56,-1,-1,0
1523613596749,-393216,81,-56,-1,-1,0
1523613596749,-458752,81,-56,-1,-1,0
1523613596749,-458752,81,-56,-1,-1,0
1523613596790,-458752,81,-56,-1,-1,0
1523613596790,-458752,81,-56,-1,-1,0
1523613596790,-393216,81,-56,-1,-1,0
1523613596790,-393216,81,-56,-1,-1,0
1523613596790,-393216,81,-56,-1,-1,0
1523613596829,-458752,81,-56,-1,-1,0
1523613596829,-458752,81,-56,-1,-1,0
1523613596829,-458752,81,-56,-1,-1,0
1523613596829,-458752,81,-56,-1,-1,0
1523613596829,-393216,81,-56,-1,-1,0
1523613596869,-327680,81,-56,-1,-1,0
1523613596869,-262144,81,-56,-1,-1,0
1523613596869,-196608,81,-56,-1,-1,0
1523613596869,-196608,81,-56,-1,-1,0
1523613596869,-196608,81,-56,-1,-1,0
1523613596909,-262144,81,-56,-1,-1,0
1523613596909,-327680,81,-56,-1,-1,0
1523613596909,-262144,81,-56,-1,-1,0
1523613596909,-327680,81,-56,-1,-1,0
1523613596909,-393216,81,-56,-1,-1,0
1523613596949,-393216,81,-56,-1,-1,0
1523613596949,-393216,81,-56,-1,-1,0
1523613596949,-393216,81,-56,-1,-1,0
1523613596949,-393216,81,-56,-1,-1,0
1523613596949,-131072,81,-56,-1,-1,0
1523613596989,851968,81,-56,-1,-1,0
1523613596989,2949120,81,-56,-1,-1,0
1523613596989,4259840,81,-56,-1,-1,0
1523613596989,2228224,81,-56,-1,-1,0
1523613596989,-1048576,81,-56,-1,-1,0
1523613597029,-2424832,81,-56,-1,-1,0
1523613597029,-1769472,81,-56,-1,-1,0
1523613597029,-983040,81,-56,-1,-1,0
1523613597029,-524288,81,-56,-1,-1,0
1523613597029,-262144,81,-56,-1,-1,0
1523613597069,-196608,81,-56,-1,-1,0
1523613597069,-131072,81,-56,-1,-1,0
1523613597069,-131072,81,-56,-1,-1,0
1523613597069,-131072,81,-56,-1,-1,0
1523613597069,-131072,81,-56,-1,-1,0
1523613597109,-65536,81,-56,-1,-1,0
1523613597109,-65536,81,-56,-1,-1,0
1523613597109,-65536,81,-56,-1,-1,0
1523613597109,-65536,81,-56,-1,-1,0
1523613597109,0,81,-56,-1,-1,0
1523613597149,0,81,-56,-1,-1,0
1523613597149,0,81,-56,-1,-1,0
1523613597149,0,81,-56,-1,-1,0
1523613597149,65536,81,-56,-1,-1,0
1523613597149,131072,81,-56,-1,-1,0
1523613597189,196608,81,-56,-1,-1,0
1523613597189,262144,81,-56,-1,-1,0
1523613597189,327680,81,-56,-1,-1,0
1523613597189,393216,81,-56,-1,-1,0
1523613597189,458752,81,-56,-1,-1,0
1523613597229,524288,81,-56,-1,-1,0
1523613597229,589824,81,-56,-1,-1,0
1523613597229,720896,81,-56,-1,-1,0
1523613597229,786432,81,-56,-1,-1,0
1523613597229,917504,81,-56,-1,-1,0
1523613597269,983040,81,-56,-1,-1,0
1523613597269,983040,81,-56,-1,-1,0
1523613597269,983040,81,-56,-1,-1,0
1523613597269,1048576,81,-56,-1,-1,0
1523613597269,1048576,81,-56,-1,-1,0
1523613597309,983040,81,-56,-1,-1,0
1523613597309,851968,81,-56,-1,-1,0
1523613597309,655360,81,-56,-1,-1,0
1523613597309,458752,81,-56,-1,-1,0
1523613597309,327680,81,-56,-1,-1,0
1523613597349,131072,81,-56,-1,-1,0
1523613597349,0,81,-56,-1,-1,0
1523613597349,0,81,-56,-1,-1,0
1523613597349,0,81,-56,-1,-1,0
1523613597349,-65536,81,-56,-1,-1,0
1523613597389,-65536,81,-56,-1,-1,0
1523613597389,-65536,81,-56,-1,-1,0
1523613597389,-65536,81,-56,-1,-1,0
1523613597389,0,81,-56,-1,-1,0
1523613597389,-65536,81,-56,-1,-1,0
1523613597430,-65536,81,-56,-1,-1,0
1523613597430,0,81,-56,-1,-1,0
1523613597430,0,81,-56,-1,-1,0
1523613597430,0,81,-56,-1,-1,0
1523613597430,0,81,-56,-1,-1,0
1523613597469,0,81,-56,-1,-1,0
1523613597469,0,81,-56,-1,-1,0
1523613597469,-65536,81,-56,-1,-1,0
1523613597469,-65536,81,-56,-1,-1,0
1523613597469,-131072,81,-56,-1,-1,0
1523613597509,-131072,81,-56,-1,-1,0
1523613597509,-131072,81,-56,-1,-1,0
1523613597509,-131072,81,-56,-1,-1,0
1523613597509,-131072,81,-56,-1,-1,0
1523613597509,-131072,81,-56,-1,-1,0
1523613597549,-131072,81,-56,-1,-1,0
1523613597549,-196608,81,-56,-1,-1,0
1523613597549,-196608,81,-56,-1,-1,0
1523613597549,-196608,81,-56,-1,-1,0
1523613597549,-196608,81,-56,-1,-1,0
1523613597589,-196608,81,-56,-1,-1,0
1523613597589,-196608,81,-56,-1,-1,0
1523613597589,-196608,81,-56,-1,-1,0
1523613597589,-196608,81,-56,-1,-1,0
1523613597589,-196608,81,-56,-1,-1,0
1523613597629,-196608,81,-56,-1,-1,0
1523613597629,-196608,81,-56,-1,-1,0
1523613597629,-196608,81,-56,-1,-1,0
1523613597629,-262144,81,-56,-1,-1,0
1523613597629,-262144,81,-56,-1,-1,0
1523613597669,-262144,81,-56,-1,-1,0
1523613597669,-262144,81,-56,-1,-1,0
1523613597669,-196608,81,-56,-1,-1,0
1523613597669,-196608,81,-56,-1,-1,0
1523613597669,-262144,81,-56,-1,-1,0
1523613597709,-262144,81,-56,-1,-1,0
1523613597709,-262144,81,-56,-1,-1,0
1523613597709,-262144,81,-56,-1,-1,0
1523613597709,-262144,81,-56,-1,-1,0
1523613597709,-327680,81,-56,-1,-1,0
1523613597749,-393216,81,-56,-1,-1,0
1523613597749,-393216,81,-56,-1,-1,0
1523613597749,-393216,81,-56,-1,-1,0
1523613597749,-393216,81,-56,-1,-1,0
1523613597749,-393216,81,-56,-1,-1,0
1523613597789,-262144,81,-56,-1,-1,0
1523613597789,-196608,81,-56,-1,-1,0
1523613597789,-131072,81,-56,-1,-1,0
1523613597789,-131072,81,-56,-1,-1,0
1523613597789,-131072,81,-56,-1,-1,0
1523613597829,-196608,81,-56,-1,-1,0
1523613597829,-262144,81,-56,-1,-1,0
1523613597829,-327680,81,-56,-1,-1,0
1523613597829,-327680,81,-56,-1,-1,0
1523613597829,-393216,81,-56,-1,-1,0
1523613597869,-393216,81,-56,-1,-1,0
1523613597869,-393216,81,-56,-1,-1,0
1523613597869,-393216,81,-56,-1,-1,0
1523613597869,-393216,81,-56,-1,-1,0
1523613597869,0,81,-56,-1,-1,0
1523613597909,1507328,81,-56,-1,-1,0
1523613597909,3670016,81,-56,-1,-1,0
1523613597909,3670016,81,-56,-1,-1,0
1523613597909,720896,81,-56,-1,-1,0
1523613597909,-2097152,81,-56,-1,-1,0
1523613597949,-2359296,81,-56,-1,-1,0
1523613597949,-1572864,81,-56,-1,-1,0
1523613597949,-983040,81,-56,-1,-1,0
1523613597949,-524288,81,-56,-1,-1,0
1523613597949,-327680,81,-56,-1,-1,0
1523613597989,-262144,81,-56,-1,-1,0
1523613597989,-196608,81,-56,-1,-1,0
1523613597989,-196608,81,-56,-1,-1,0
1523613597989,-131072,81,-56,-1,-1,0
1523613597989,-131072,81,-56,-1,-1,0
1523613598029,-65536,81,-56,-1,-1,0
1523613598029,-131072,81,-56,-1,-1,0
1523613598029,-131072,81,-56,-1,-1,0
1523613598029,-65536,81,-56,-1,-1,0
1523613598029,0,81,-56,-1,-1,0
1523613598070,0,81,-56,-1,-1,0
1523613598070,0,81,-56,-1,-1,0
1523613598070,0,81,-56,-1,-1,0
1523613598070,65536,81,-56,-1,-1,0
1523613598070,65536,81,-56,-1,-1,0
1523613598109,196608,77,-56,-1,-1,0
1523613598109,262144,77,-56,-1,-1,0
1523613598109,327680,77,-56,-1,-1,0
1523613598109,393216,77,-56,-1,-1,0
1523613598109,458752,77,-56,-1,-1,0
1523613598149,524288,77,-56,-1,-1,0
1523613598149,655360,77,-56,-1,-1,0
1523613598149,720896,77,-56,-1,-1,0
1523613598149,786432,77,-56,-1,-1,0
1523613598149,851968,77,-56,-1,-1,0
1523613598189,917504,77,-56,-1,-1,0
1523613598189,917504,77,-56,-1,-1,0
1523613598189,983040,77,-56,-1,-1,0
1523613598189,983040,77,-56,-1,-1,0
1523613598189,917504,77,-56,-1,-1,0
1523613598229,720896,77,-56,-1,-1,0
1523613598229,589824,77,-56,-1,-1,0
1523613598229,393216,77,-56,-1,-1,0
1523613598229,196608,77,-56,-1,-1,0
1523613598229,0,77,-56,-1,-1,0
1523613598269,0,77,-56,-1,-1,0
1523613598269,-65536,77,-56,-1,-1,0
1523613598269,-131072,77,-56,-1,-1,0
1523613598269,-196608,77,-56,-1,-1,0
1523613598269,-196608,77,-56,-1,-1,0
1523613598309,-196608,77,-56,-1,-1,0
1523613598309,-131072,77,-56,-1,-1,0
1523613598309,-65536,77,-56,-1,-1,0
1523613598309,-65536,77,-56,-1,-1,0
1523613598309,-65536,77,-56,-1,-1,0
1523613598349,-65536,77,-56,-1,-1,0
1523613598349,-65536,77,-56,-1,-1,0
1523613598349,-65536,77,-56,-1,-1,0
1523613598349,0,77,-56,-1,-1,0
1523613598349,0,77,-56,-1,-1,0
1523613598389,-65536,77,-56,-1,-1,0
1523613598389,-65536,77,-56,-1,-1,0
1523613598389,-65536,77,-56,-1,-1,0
1523613598389,-65536,77,-56,-1,-1,0
1523613598389,-65536,77,-56,-1,-1,0
1523613598429,-131072,77,-56,-1,-1,0
1523613598429,-196608,77,-56,-1,-1,0
1523613598429,-196608,77,-56,-1,-1,0
1523613598429,-262144,77,-56,-1,-1,0
1523613598429,-262144,77,-56,-1,-1,0
1523613598469,-262144,77,-56,-1,-1,0
1523613598469,-262144,77,-56,-1,-1,0
1523613598469,-262144,77,-56,-1,-1,0
1523613598469,-262144,77,-56,-1,-1,0
1523613598469,-262144,77,-56,-1,-1,0
1523613598509,-262144,77,-56,-1,-1,0
1523613598509,-196608,77,-56,-1,-1,0
1523613598509,-262144,77,-56,-1,-1,0
1523613598509,-262144,77,-56,-1,-1,0
1523613598509,-262144,77,-56,-1,-1,0
1523613598549,-262144,77,-56,-1,-1,0
1523613598549,-327680,77,-56,-1,-1,0
1523613598549,-327680,77,-56,-1,-1,0
1523613598549,-327680,77,-56,-1,-1,0
1523613598549,-262144,77,-56,-1,-1,0
1523613598589,-262144,77,-56,-1,-1,0
1523613598589,-262144,77,-56,-1,-1,0
1523613598589,-262144,77,-56,-1,-1,0
1523613598589,-327680,77,-56,-1,-1,0
1523613598589,-327680,77,-56,-1,-1,0
1523613598629,-327680,77,-56,-1,-1,0
1523613598629,-327680,77,-56,-1,-1,0
1523613598629,-327680,77,-56,-1,-1,0
1523613598629,-262144,77,-56,-1,-1,0
1523613598629,-262144,77,-56,-1,-1,0
1523613598669,-327680,77,-56,-1,-1,0
1523613598669,-327680,77,-56,-1,-1,0
1523613598669,-327680,77,-56,-1,-1,0
1523613598669,-393216,77,-56,-1,-1,0
1523613598669,-393216,77,-56,-1,-1,0
1523613598710,-458752,77,-56,-1,-1,0
1523613598710,-393216,77,-56,-1,-1,0
1523613598710,-262144,77,-56,-1,-1,0
1523613598710,-196608,77,-56,-1,-1,0
1523613598710,-196608,77,-56,-1,-1,0
1523613598749,-196608,77,-56,-1,-1,0
1523613598749,-196608,77,-56,-1,-1,0
1523613598749,-262144,77,-56,-1,-1,0
1523613598749,-262144,77,-56,-1,-1,0
1523613598749,-262144,77,-56,-1,-1,0
1523613598789,-262144,77,-56,-1,-1,0
1523613598789,-262144,77,-56,-1,-1,0
1523613598789,-262144,77,-56,-1,-1,0
1523613598789,-262144,77,-56,-1,-1,0
1523613598789,-262144,77,-56,-1,-1,0
1523613598829,-393216,77,-56,-1,-1,0
1523613598829,-65536,77,-56,-1,-1,0
1523613598829,1114112,77,-56,-1,-1,0
1523613598829,3276800,77,-56,-1,-1,0
1523613598829,3997696,77,-56,-1,-1,0
1523613598869,1572864,77,-56,-1,-1,0
1523613598869,-1507328,77,-56,-1,-1,0
1523613598869,-2359296,77,-56,-1,-1,0
1523613598869,-1638400,77,-56,-1,-1,0
1523613598869,-983040,77,-56,-1,-1,0
1523613598909,-524288,77,-56,-1,-1,0
1523613598909,-327680,77,-56,-1,-1,0
1523613598909,-262144,77,-56,-1,-1,0
1523613598909,-196608,77,-56,-1,-1,0
1523613598909,-196608,77,-56,-1,-1,0
1523613598949,-131072,77,-56,-1,-1,0
1523613598949,-131072,77,-56,-1,-1,0
1523613598949,-131072,77,-56,-1,-1,0
1523613598949,-131072,77,-56,-1,-1,0
1523613598949,-65536,77,-56,-1,-1,0
1523613598989,-65536,77,-56,-1,-1,0
1523613598989,0,77,-56,-1,-1,0
1523613598989,-65536,77,-56,-1,-1,0
1523613598989,0,77,-56,-1,-1,0
1523613598989,0,77,-56,-1,-1,0
1523613599030,65536,77,-56,-1,-1,0
1523613599030,65536,77,-56,-1,-1,0
1523613599030,131072,77,-56,-1,-1,0
1523613599030,196608,77,-56,-1,-1,0
1523613599030,262144,77,-56,-1,-1,0
1523613599069,327680,77,-56,-1,-1,0
1523613599069,458752,77,-56,-1,-1,0
1523613599069,524288,77,-56,-1,-1,0
1523613599069,589824,77,-56,-1,-1,0
1523613599069,655360,77,-56,-1,-1,0
1523613599109,786432,73,-56,-1,-1,0
1523613599109,917504,73,-56,-1,-1,0
1523613599109,983040,73,-56,-1,-1,0
1523613599109,1114112,73,-56,-1,-1,0
1523613599109,1114112,73,-56,-1,-1,0
1523613599149,1179648,73,-56,-1,-1,0
1523613599149,1114112,73,-56,-1,-1,0
1523613599149,983040,73,-56,-1,-1,0
1523613599149,786432,73,-56,-1,-1,0
1523613599149,589824,73,-56,-1,-1,0
1523613599189,393216,73,-56,-1,-1,0
1523613599189,196608,73,-56,-1,-1,0
1523613599189,65536,73,-56,-1,-1,0
1523613599189,0,73,-56,-1,-1,0
1523613599189,0,73,-56,-1,-1,0
1523613599229,-65536,73,-56,-1,-1,0
1523613599229,-65536,73,-56,-1,-1,0
1523613599229,-131072,73,-56,-1,-1,0
1523613599229,-131072,73,-56,-1,-1,0
1523613599229,-131072,73,-56,-1,-1,0
1523613599269,-65536,73,-56,-1,-1,0
1523613599269,-65536,73,-56,-1,-1,0
1523613599269,-65536,73,-56,-1,-1,0
1523613599269,-65536,73,-56,-1,-1,0
1523613599269,0,73,-56,-1,-1,0
1523613599309,0,73,-56,-1,-1,0
1523613599309,0,73,-56,-1,-1,0
1523613599309,0,73,-56,-1,-1,0
1523613599309,-65536,73,-56,-1,-1,0
1523613599309,-65536,73,-56,-1,-1,0
1523613599350,-65536,73,-56,-1,-1,0
1523613599350,-65536,73,-56,-1,-1,0
1523613599350,-131072,73,-56,-1,-1,0
1523613599350,-196608,73,-56,-1,-1,0
1523613599350,-196608,73,-56,-1,-1,0
1523613599389,-196608,73,-56,-1,-1,0
1523613599389,-196608,73,-56,-1,-1,0
1523613599389,-196608,73,-56,-1,-1,0
1523613599389,-196608,73,-56,-1,-1,0
1523613599389,-196608,73,-56,-1,-1,0
1523613599429,-196608,73,-56,-1,-1,0
1523613599429,-196608,73,-56,-1,-1,0
1523613599429,-196608,73,-56,-1,-1,0
1523613599429,-262144,73,-56,-1,-1,0
1523613599429,-262144,73,-56,-1,-1,0
1523613599469,-262144,73,-56,-1,-1,0
1523613599469,-262144,73,-56,-1,-1,0
1523613599469,-262144,73,-56,-1,-1,0
1523613599469,-262144,73,-56,-1,-1,0
1523613599469,-262144,73,-56,-1,-1,0
1523613599509,-262144,73,-56,-1,-1,0
1523613599509,-327680,73,-56,-1,-1,0
1523613599509,-327680,73,-56,-1,-1,0
1523613599509,-327680,73,-56,-1,-1,0
1523613599509,-327680,73,-56,-1,-1,0
1523613599549,-262144,73,-56,-1,-1,0
1523613599549,-327680,73,-56,-1,-1,0
1523613599549,-327680,73,-56,-1,-1,0
1523613599549,-327680,73,-56,-1,-1,0
1523613599549,-327680,73,-56,-1,-1,0
1523613599589,-327680,73,-56,-1,-1,0
1523613599589,-327680,73,-56,-1,-1,0
1523613599589,-262144,73,-56,-1,-1,0
1523613599589,-327680,73,-56,-1,-1,0
1523613599589,-327680,73,-56,-1,-1,0
1523613599629,-327680,73,-56,-1,-1,0
1523613599629,-327680,73,-56,-1,-1,0
1523613599629,-327680,73,-56,-1,-1,0
1523613599629,-393216,73,-56,-1,-1,0
1523613599629,-393216,73,-56,-1,-1,0
1523613599669,-393216,73,-56,-1,-1,0
1523613599669,-458752,73,-56,-1,-1,0
1523613599669,-458752,73,-56,-1,-1,0
1523613599669,-393216,73,-56,-1,-1,0
1523613599669,-327680,73,-56,-1,-1,0
1523613599709,-131072,73,-56,-1,-1,0
1523613599709,-65536,73,-56,-1,-1,0
1523613599709,-131072,73,-56,-1,-1,0
1523613599709,-131072,73,-56,-1,-1,0
1523613599709,-196608,73,-56,-1,-1,0
1523613599749,-262144,73,-56,-1,-1,0
1523613599749,-262144,73,-56,-1,-1,0
1523613599749,-196608,73,-56,-1,-1,0
1523613599749,-196608,73,-56,-1,-1,0
1523613599749,-196608,73,-56,-1,-1,0
1523613599789,-196608,73,-56,-1,-1,0
1523613599789,-262144,73,-56,-1,-1,0
1523613599789,-327680,73,-56,-1,-1,0
1523613599789,-65536,73,-56,-1,-1,0
1523613599789,1048576,73,-56,-1,-1,0
1523613599829,3145728,73,-56,-1,-1,0
1523613599829,4063232,73,-56,-1,-1,0
1523613599829,1769472,73,-56,-1,-1,0
1523613599829,-1310720,73,-56,-1,-1,0
1523613599829,-2228224,73,-56,-1,-1,0
1523613599869,-1507328,73,-56,-1,-1,0
1523613599869,-851968,73,-56,-1,-1,0
1523613599869,-458752,73,-56,-1,-1,0
1523613599869,-262144,73,-56,-1,-1,0
1523613599869,-131072,73,-56,-1,-1,0
1523613599909,-65536,73,-56,-1,-1,0
1523613599909,-65536,73,-56,-1,-1,0
1523613599909,0,73,-56,-1,-1,0
1523613599909,0,73,-56,-1,-1,0
1523613599909,0,73,-56,-1,-1,0
1523613599949,0,73,-56,-1,-1,0
1523613599949,0,73,-56,-1,-1,0
1523613599949,0,73,-56,-1,-1,0
1523613599949,0,73,-56,-1,-1,0
1523613599949,0,73,-56,-1,-1,0
1523613599990,0,73,-56,-1,-1,0
1523613599990,0,73,-56,-1,-1,0
1523613599990,65536,73,-56,-1,-1,0
1523613599990,65536,73,-56,-1,-1,0
1523613599990,131072,73,-56,-1,-1,0
1523613600029,196608,73,-56,-1,-1,0
1523613600029,327680,73,-56,-1,-1,0
1523613600029,393216,73,-56,-1,-1,0
1523613600029,458752,73,-56,-1,-1,0
1523613600029,524288,73,-56,-1,-1,0
1523613600069,655360,70,-56,-1,-1,0
1523613600069,786432,70,-56,-1,-1,0
1523613600069,851968,70,-56,-1,-1,0
1523613600069,983040,70,-56,-1,-1,0
1523613600069,1048576,70,-56,-1,-1,0
1523613600110,1114112,70,-56,-1,-1,0
1523613600110,1114112,70,-56,-1,-1,0
1523613600110,1179648,70,-56,-1,-1,0
1523613600110,1114112,70,-56,-1,-1,0
1523613600110,983040,70,-56,-1,-1,0
1523613600149,786432,70,-56,-1,-1,0
1523613600149,589824,70,-56,-1,-1,0
1523613600149,327680,70,-56,-1,-1,0
1523613600149,131072,70,-56,-1,-1,0
1523613600149,0,70,-56,-1,-1,0
1523613600189,-65536,70,-56,-1,-1,0
1523613600189,-131072,70,-56,-1,-1,0
1523613600189,-196608,70,-56,-1,-1,0
1523613600189,-262144,70,-56,-1,-1,0
1523613600189,-262144,70,-56,-1,-1,0
1523613600229,-262144,70,-56,-1,-1,0
1523613600229,-262144,70,-56,-1,-1,0
1523613600229,-262144,70,-56,-1,-1,0
1523613600229,-262144,70,-56,-1,-1,0
1523613600229,-262144,70,-56,-1,-1,0
1523613600269,-262144,70,-56,-1,-1,0
1523613600269,-262144,70,-56,-1,-1,0
1523613600269,-262144,70,-56,-1,-1,0
1523613600269,-262144,70,-56,-1,-1,0
1523613600269,-196608,70,-56,-1,-1,0
1523613600309,-196608,70,-56,-1,-1,0
1523613600309,-262144,70,-56,-1,-1,0
1523613600309,-262144,70,-56,-1,-1,0
1523613600309,-262144,70,-56,-1,-1,0
1523613600309,-327680,70,-56,-1,-1,0
1523613600349,-327680,70,-56,-1,-1,0
1523613600349,-327680,70,-56,-1,-1,0
1523613600349,-327680,70,-56,-1,-1,0
1523613600349,-327680,70,-56,-1,-1,0
1523613600349,-327680,70,-56,-1,-1,0
1523613600389,-393216,70,-56,-1,-1,0
1523613600389,-393216,70,-56,-1,-1,0
1523613600389,-393216,70,-56,-1,-1,0
1523613600389,-393216,70,-56,-1,-1,0
1523613600389,-524288,70,-56,-1,-1,0
1523613600429,-524288,70,-56,-1,-1,0
1523613600429,-524288,70,-56,-1,-1,0
1523613600429,-524288,70,-56,-1,-1,0
1523613600429,-524288,70,-56,-1,-1,0
1523613600429,-524288,70,-56,-1,-1,0
1523613600469,-524288,70,-56,-1,-1,0
1523613600469,-524288,70,-56,-1,-1,0
1523613600469,-458752,70,-56,-1,-1,0
1523613600469,-524288,70,-56,-1,-1,0
1523613600469,-524288,70,-56,-1,-1,0
1523613600509,-458752,70,-56,-1,-1,0
1523613600509,-458752,70,-56,-1,-1,0
1523613600509,-393216,70,-56,-1,-1,0
1523613600509,-262144,70,-56,-1,-1,0
1523613600509,-393216,70,-56,-1,-1,0
1523613600549,-458752,70,-56,-1,-1,0
1523613600549,-327680,70,-56,-1,-1,0
1523613600549,-393216,70,-56,-1,-1,0
1523613600549,-393216,70,-56,-1,-1,0
1523613600549,-327680,70,-56,-1,-1,0
1523613600589,-327680,70,-56,-1,-1,0
1523613600589,-393216,70,-56,-1,-1,0
1523613600589,-327680,70,-56,-1,-1,0
1523613600589,-196608,70,-56,-1,-1,0
1523613600589,-131072,70,-56,-1,-1,0
1523613600630,-131072,70,-56,-1,-1,0
1523613600630,-65536,70,-56,-1,-1,0
1523613600630,-65536,70,-56,-1,-1,0
1523613600630,-262144,70,-56,-1,-1,0
1523613600630,-393216,70,-56,-1,-1,0
1523613600669,-327680,70,-56,-1,-1,0
1523613600669,-196608,70,-56,-1,-1,0
1523613600669,-65536,70,-56,-1,-1,0
1523613600669,-65536,70,-56,-1,-1,0
1523613600669,-65536,70,-56,-1,-1,0
1523613600709,-65536,70,-56,-1,-1,0
1523613600709,-65536,70,-56,-1,-1,0
1523613600709,-131072,70,-56,-1,-1,0
1523613600709,0,70,-56,-1,-1,0
1523613600709,0,70,-56,-1,-1,0
1523613600749,-65536,70,-56,-1,-1,0
1523613600749,-65536,70,-56,-1,-1,0
1523613600749,0,70,-56,-1,-1,0
1523613600749,0,70,-56,-1,-1,0
1523613600749,-65536,70,-56,-1,-1,0
1523613600789,-65536,70,-56,-1,-1,0
1523613600789,524288,70,-56,-1,-1,0
1523613600789,2228224,70,-56,-1,-1,0
1523613600789,4128768,70,-56,-1,-1,0
1523613600789,3342336,70,-56,-1,-1,0
1523613600829,196608,70,-56,-1,-1,0
1523613600829,-2228224,70,-56,-1,-1,0
1523613600829,-2097152,70,-56,-1,-1,0
1523613600829,-1376256,70,-56,-1,-1,0
1523613600829,-720896,70,-56,-1,-1,0
1523613600869,-327680,70,-56,-1,-1,0
1523613600869,-196608,70,-56,-1,-1,0
1523613600869,-131072,70,-56,-1,-1,0
1523613600869,0,70,-56,-1,-1,0
1523613600869,0,70,-56,-1,-1,0
1523613600909,0,70,-56,-1,-1,0
1523613600909,0,70,-56,-1,-1,0
1523613600909,0,70,-56,-1,-1,0
1523613600909,0,70,-56,-1,-1,0
1523613600909,0,70,-56,-1,-1,0
1523613600949,0,70,-56,-1,-1,0
1523613600949,0,70,-56,-1,-1,0
1523613600949,0,70,-56,-1,-1,0
1523613600949,0,70,-56,-1,-1,0
1523613600949,65536,70,-56,-1,-1,0
1523613600989,131072,70,-56,-1,-1,0
1523613600989,65536,70,-56,-1,-1,0
1523613600989,131072,70,-56,-1,-1,0
1523613600989,196608,70,-56,-1,-1,0
1523613600989,327680,70,-56,-1,-1,0
1523613601029,458752,66,-56,-1,-1,0
1523613601029,524288,66,-56,-1,-1,0
1523613601029,655360,66,-56,-1,-1,0
1523613601029,720896,66,-56,-1,-1,0
1523613601029,851968,66,-56,-1,-1,0
1523613601069,983040,66,-56,-1,-1,0
1523613601069,1048576,66,-56,-1,-1,0
1523613601069,1048576,66,-56,-1,-1,0
1523613601069,1048576,66,-56,-1,-1,0
1523613601069,1048576,66,-56,-1,-1,0
1523613601110,1048576,66,-56,-1,-1,0
1523613601110,1048576,66,-56,-1,-1,0
1523613601110,983040,66,-56,-1,-1,0
1523613601110,720896,66,-56,-1,-1,0
1523613601110,524288,66,-56,-1,-1,0
1523613601149,327680,66,-56,-1,-1,0
1523613601149,196608,66,-56,-1,-1,0
1523613601149,65536,66,-56,-1,-1,0
1523613601149,0,66,-56,-1,-1,0
1523613601149,-65536,66,-56,-1,-1,0
1523613601189,-65536,66,-56,-1,-1,0
1523613601189,-131072,66,-56,-1,-1,0
1523613601189,-65536,66,-56,-1,-1,0
1523613601189,-65536,66,-56,-1,-1,0
1523613601189,0,66,-56,-1,-1,0
1523613601229,0,66,-56,-1,-1,0
1523613601229,65536,66,-56,-1,-1,0
1523613601229,65536,66,-56,-1,-1,0
1523613601229,65536,66,-56,-1,-1,0
1523613601229,0,66,-56,-1,-1,0
1523613601270,0,66,-56,-1,-1,0
1523613601270,65536,66,-56,-1,-1,0
1523613601270,65536,66,-56,-1,-1,0
1523613601270,0,66,-56,-1,-1,0
1523613601270,0,66,-56,-1,-1,0
1523613601309,0,66,-56,-1,-1,0
1523613601309,0,66,-56,-1,-1,0
1523613601309,-65536,66,-56,-1,-1,0
1523613601309,-65536,66,-56,-1,-1,0
1523613601309,-65536,66,-56,-1,-1,0
1523613601349,-65536,66,-56,-1,-1,0
1523613601349,-131072,66,-56,-1,-1,0
1523613601349,-131072,66,-56,-1,-1,0
1523613601349,-131072,66,-56,-1,-1,0
1523613601349,-196608,66,-56,-1,-1,0
1523613601389,-196608,66,-56,-1,-1,0
1523613601389,-196608,66,-56,-1,-1,0
1523613601389,-196608,66,-56,-1,-1,0
1523613601389,-196608,66,-56,-1,-1,0
1523613601389,-262144,66,-56,-1,-1,0
1523613601429,-262144,66,-56,-1,-1,0
1523613601429,-262144,66,-56,-1,-1,0
1523613601429,-262144,66,-56,-1,-1,0
1523613601429,-262144,66,-56,-1,-1,0
1523613601429,-327680,66,-56,-1,-1,0
1523613601469,-327680,66,-56,-1,-1,0
1523613601469,-327680,66,-56,-1,-1,0
1523613601469,-327680,66,-56,-1,-1,0
1523613601469,-327680,66,-56,-1,-1,0
1523613601469,-327680,66,-56,-1,-1,0
1523613601509,-262144,66,-56,-1,-1,0
1523613601509,-262144,66,-56,-1,-1,0
1523613601509,-262144,66,-56,-1,-1,0
1523613601509,-262144,66,-56,-1,-1,0
1523613601509,-262144,66,-56,-1,-1,0
1523613601549,-262144,66,-56,-1,-1,0
1523613601549,-196608,66,-56,-1,-1,0
1523613601549,-196608,66,-56,-1,-1,0
1523613601549,-196608,66,-56,-1,-1,0
1523613601549,-262144,66,-56,-1,-1,0
1523613601589,-262144,66,-56,-1,-1,0
1523613601589,-262144,66,-56,-1,-1,0
1523613601589,-262144,66,-56,-1,-1,0
1523613601589,-196608,66,-56,-1,-1,0
1523613601589,-131072,66,-56,-1,-1,0
1523613601629,-65536,66,-56,-1,-1,0
1523613601629,0,66,-56,-1,-1,0
1523613601629,0,66,-56,-1,-1,0
1523613601629,0,66,-56,-1,-1,0
1523613601629,-131072,66,-56,-1,-1,0
1523613601669,-131072,66,-56,-1,-1,0
1523613601669,-65536,66,-56,-1,-1,0
1523613601669,-65536,66,-56,-1,-1,0
1523613601669,-65536,66,-56,-1,-1,0
1523613601669,-65536,66,-56,-1,-1,0
1523613601709,-65536,66,-56,-1,-1,0
1523613601709,-65536,66,-56,-1,-1,0
1523613601709,-65536,66,-56,-1,-1,0
1523613601709,393216,66,-56,-1,-1,0
1523613601709,1966080,66,-56,-1,-1,0
1523613601749,3801088,66,-56,-1,-1,0
1523613601749,3407872,66,-56,-1,-1,0
1523613601749,458752,66,-56,-1,-1,0
1523613601749,-1900544,66,-56,-1,-1,0
1523613601749,-1966080,66,-56,-1,-1,0
1523613601789,-1245184,66,-56,-1,-1,0
1523613601789,-655360,66,-56,-1,-1,0
1523613601789,-262144,66,-56,-1,-1,0
1523613601789,-131072,66,-56,-1,-1,0
1523613601789,-65536,66,-56,-1,-1,0
1523613601829,-65536,66,-56,-1,-1,0
1523613601829,-65536,66,-56,-1,-1,0
1523613601829,-65536,66,-56,-1,-1,0
1523613601829,0,66,-56,-1,-1,0
1523613601829,0,66,-56,-1,-1,0
1523613601869,0,66,-56,-1,-1,0
1523613601869,0,66,-56,-1,-1,0
1523613601869,0,66,-56,-1,-1,0
1523613601869,0,66,-56,-1,-1,0
1523613601869,0,66,-56,-1,-1,0
1523613601910,65536,66,-56,-1,-1,0
1523613601910,131072,66,-56,-1,-1,0
1523613601910,196608,66,-56,-1,-1,0
1523613601910,196608,66,-56,-1,-1,0
1523613601910,196608,66,-56,-1,-1,0
1523613601949,262144,64,-56,-1,-1,0
1523613601949,393216,64,-56,-1,-1,0
1523613601949,458752,64,-56,-1,-1,0
1523613601949,524288,64,-56,-1,-1,0
1523613601949,589824,64,-56,-1,-1,0
1523613601989,720896,64,-56,-1,-1,0
1523613601989,851968,64,-56,-1,-1,0
1523613601989,983040,64,-56,-1,-1,0
1523613601989,1114112,64,-56,-1,-1,0
1523613601989,1179648,64,-56,-1,-1,0
1523613602029,1245184,64,-56,-1,-1,0
1523613602029,1245184,64,-56,-1,-1,0
1523613602029,1310720,64,-56,-1,-1,0
1523613602029,1245184,64,-56,-1,-1,0
1523613602029,1048576,64,-56,-1,-1,0
1523613602069,851968,64,-56,-1,-1,0
1523613602069,589824,64,-56,-1,-1,0
1523613602069,458752,64,-56,-1,-1,0
1523613602069,262144,64,-56,-1,-1,0
1523613602069,131072,64,-56,-1,-1,0
1523613602109,0,64,-56,-1,-1,0
1523613602109,0,64,-56,-1,-1,0
1523613602109,-65536,64,-56,-1,-1,0
1523613602109,-65536,64,-56,-1,-1,0
1523613602109,-65536,64,-56,-1,-1,0
1523613602149,-131072,64,-56,-1,-1,0
1523613602149,-65536,64,-56,-1,-1,0
1523613602149,0,64,-56,-1,-1,0
1523613602149,0,64,-56,-1,-1,0
1523613602149,0,64,-56,-1,-1,0
1523613602190,0,64,-56,-1,-1,0
1523613602190,0,64,-56,-1,-1,0
1523613602190,0,64,-56,-1,-1,0
1523613602190,0,64,-56,-1,-1,0
1523613602190,65536,64,-56,-1,-1,0
1523613602229,65536,64,-56,-1,-1,0
1523613602229,65536,64,-56,-1,-1,0
1523613602229,0,64,-56,-1,-1,0
1523613602229,0,64,-56,-1,-1,0
1523613602229,0,64,-56,-1,-1,0
1523613602269,0,64,-56,-1,-1,0
1523613602269,0,64,-56,-1,-1,0
1523613602269,0,64,-56,-1,-1,0
1523613602269,0,64,-56,-1,-1,0
1523613602269,0,64,-56,-1,-1,0
1523613602309,0,64,-56,-1,-1,0
1523613602309,0,64,-56,-1,-1,0
1523613602309,0,64,-56,-1,-1,0
1523613602309,0,64,-56,-1,-1,0
1523613602309,0,64,-56,-1,-1,0
1523613602350,0,64,-56,-1,-1,0
1523613602350,0,64,-56,-1,-1,0
1523613602350,-65536,64,-56,-1,-1,0
1523613602350,-65536,64,-56,-1,-1,0
1523613602350,-65536,64,-56,-1,-1,0
1523613602389,-65536,64,-56,-1,-1,0
1523613602389,-131072,64,-56,-1,-1,0
1523613602389,-131072,64,-56,-1,-1,0
1523613602389,-196608,64,-56,-1,-1,0
1523613602389,-196608,64,-56,-1,-1,0
1523613602429,-196608,64,-56,-1,-1,0
1523613602429,-262144,64,-56,-1,-1,0
1523613602429,-262144,64,-56,-1,-1,0
1523613602429,-262144,64,-56,-1,-1,0
1523613602429,-262144,64,-56,-1,-1,0
1523613602469,-262144,64,-56,-1,-1,0
1523613602469,-262144,64,-56,-1,-1,0
1523613602469,-327680,64,-56,-1,-1,0
1523613602469,-393216,64,-56,-1,-1,0
1523613602469,-327680,64,-56,-1,-1,0
1523613602509,-327680,64,-56,-1,-1,0
1523613602509,-327680,64,-56,-1,-1,0
1523613602509,-327680,64,-56,-1,-1,0
1523613602509,-327680,64,-56,-1,-1,0
1523613602509,-262144,64,-56,-1,-1,0
1523613602550,-131072,64,-56,-1,-1,0
1523613602550,-65536,64,-56,-1,-1,0
1523613602550,-65536,64,-56,-1,-1,0
1523613602550,-65536,64,-56,-1,-1,0
1523613602550,-65536,64,-56,-1,-1,0
1523613602589,-131072,64,-56,-1,-1,0
1523613602589,-131072,64,-56,-1,-1,0
1523613602589,-196608,64,-56,-1,-1,0
1523613602589,-196608,64,-56,-1,-1,0
1523613602589,-131072,64,-56,-1,-1,0
1523613602629,-65536,64,-56,-1,-1,0
1523613602629,-65536,64,-56,-1,-1,0
1523613602629,-65536,64,-56,-1,-1,0
1523613602629,-131072,64,-56,-1,-1,0
1523613602629,65536,64,-56,-1,-1,0
1523613602669,1179648,64,-56,-1,-1,0
1523613602669,3211264,64,-56,-1,-1,0
1523613602669,4259840,64,-56,-1,-1,0
1523613602669,2097152,64,-56,-1,-1,0
1523613602669,-1048576,64,-56,-1,-1,0
1523613602709,-2162688,64,-56,-1,-1,0
1523613602709,-1572864,64,-56,-1,-1,0
1523613602709,-917504,64,-56,-1,-1,0
1523613602709,-458752,64,-56,-1,-1,0
1523613602709,-196608,64,-56,-1,-1,0
1523613602749,-196608,64,-56,-1,-1,0
1523613602749,-131072,64,-56,-1,-1,0
1523613602749,-131072,64,-56,-1,-1,0
1523613602749,-131072,64,-56,-1,-1,0
1523613602749,-131072,64,-56,-1,-1,0
1523613602789,-196608,64,-56,-1,-1,0
1523613602789,-196608,64,-56,-1,-1,0
1523613602789,-196608,64,-56,-1,-1,0
1523613602789,-196608,64,-56,-1,-1,0
1523613602789,-131072,64,-56,-1,-1,0
1523613602829,-65536,64,-56,-1,-1,0
1523613602829,-65536,64,-56,-1,-1,0
1523613602829,0,64,-56,-1,-1,0
1523613602829,0,64,-56,-1,-1,0
1523613602829,0,64,-56,-1,-1,0
1523613602869,65536,63,-56,-1,-1,0
1523613602869,196608,63,-56,-1,-1,0
1523613602869,262144,63,-56,-1,-1,0
1523613602869,327680,63,-56,-1,-1,0
1523613602869,327680,63,-56,-1,-1,0
1523613602909,458752,63,-56,-1,-1,0
1523613602909,655360,63,-56,-1,-1,0
1523613602909,786432,63,-56,-1,-1,0
1523613602909,851968,63,-56,-1,-1,0
1523613602909,983040,63,-56,-1,-1,0
1523613602949,1114112,63,-56,-1,-1,0
1523613602949,1179648,63,-56,-1,-1,0
1523613602949,1179648,63,-56,-1,-1,0
1523613602949,1245184,63,-56,-1,-1,0
1523613602949,1179648,63,-56,-1,-1,0
1523613602989,1114112,63,-56,-1,-1,0
1523613602989,917504,63,-56,-1,-1,0
1523613602989,720896,63,-56,-1,-1,0
1523613602989,458752,63,-56,-1,-1,0
1523613602989,262144,63,-56,-1,-1,0
1523613603029,65536,63,-56,-1,-1,0
1523613603029,0,63,-56,-1,-1,0
1523613603029,-65536,63,-56,-1,-1,0
1523613603029,-131072,63,-56,-1,-1,0
1523613603029,-196608,63,-56,-1,-1,0
1523613603069,-196608,63,-56,-1,-1,0
1523613603069,-196608,63,-56,-1,-1,0
1523613603069,-196608,63,-56,-1,-1,0
1523613603069,-196608,63,-56,-1,-1,0
1523613603069,-131072,63,-56,-1,-1,0
1523613603109,-131072,63,-56,-1,-1,0
1523613603109,-131072,63,-56,-1,-1,0
1523613603109,-131072,63,-56,-1,-1,0
1523613603109,-131072,63,-56,-1,-1,0
1523613603109,-131072,63,-56,-1,-1,0
1523613603149,-131072,63,-56,-1,-1,0
1523613603149,-65536,63,-56,-1,-1,0
1523613603149,-131072,63,-56,-1,-1,0
1523613603149,-131072,63,-56,-1,-1,0
1523613603149,-131072,63,-56,-1,-1,0
1523613603190,-196608,63,-56,-1,-1,0
1523613603190,-262144,63,-56,-1,-1,0
1523613603190,-327680,63,-56,-1,-1,0
1523613603190,-327680,63,-56,-1,-1,0
1523613603190,-327680,63,-56,-1,-1,0
1523613603229,-327680,63,-56,-1,-1,0
1523613603229,-327680,63,-56,-1,-1,0
1523613603229,-327680,63,-56,-1,-1,0
1523613603229,-327680,63,-56,-1,-1,0
1523613603229,-327680,63,-56,-1,-1,0
1523613603269,-393216,63,-56,-1,-1,0
1523613603269,-393216,63,-56,-1,-1,0
1523613603269,-393216,63,-56,-1,-1,0
1523613603269,-393216,63,-56,-1,-1,0
1523613603269,-393216,63,-56,-1,-1,0
1523613603309,-393216,63,-56,-1,-1,0
1523613603309,-393216,63,-56,-1,-1,0
1523613603309,-458752,63,-56,-1,-1,0
1523613603309,-458752,63,-56,-1,-1,0
1523613603309,-458752,63,-56,-1,-1,0
1523613603349,-458752,63,-56,-1,-1,0
1523613603349,-458752,63,-56,-1,-1,0
1523613603349,-458752,63,-56,-1,-1,0
1523613603349,-458752,63,-56,-1,-1,0
1523613603349,-524288,63,-56,-1,-1,0
1523613603389,-524288,63,-56,-1,-1,0
1523613603389,-524288,63,-56,-1,-1,0
1523613603389,-524288,63,-56,-1,-1,0
1523613603389,-589824,63,-56,-1,-1,0
1523613603389,-655360,63,-56,-1,-1,0
1523613603429,-655360,63,-56,-1,-1,0
1523613603429,-655360,63,-56,-1,-1,0
1523613603429,-655360,63,-56,-1,-1,0
1523613603429,-589824,63,-56,-1,-1,0
1523613603429,-524288,63,-56,-1,-1,0
1523613603469,-458752,63,-56,-1,-1,0
1523613603469,-393216,63,-56,-1,-1,0
1523613603469,-393216,63,-56,-1,-1,0
1523613603469,-458752,63,-56,-1,-1,0
1523613603469,-524288,63,-56,-1,-1,0
1523613603509,-524288,63,-56,-1,-1,0
1523613603509,-524288,63,-56,-1,-1,0
1523613603509,-524288,63,-56,-1,-1,0
1523613603509,-524288,63,-56,-1,-1,0
1523613603509,-458752,63,-56,-1,-1,0
1523613603549,-393216,63,-56,-1,-1,0
1523613603549,-393216,63,-56,-1,-1,0
1523613603549,-393216,63,-56,-1,-1,0
1523613603549,196608,63,-56,-1,-1,0
1523613603549,1966080,63,-56,-1,-1,0
1523613603589,4063232,63,-56,-1,-1,0
1523613603589,3604480,63,-56,-1,-1,0
1523613603589,327680,63,-56,-1,-1,0
1523613603589,-2424832,63,-56,-1,-1,0
1523613603589,-2490368,63,-56,-1,-1,0
1523613603629,-1638400,63,-56,-1,-1,0
1523613603629,-983040,63,-56,-1,-1,0
1523613603629,-524288,63,-56,-1,-1,0
1523613603629,-262144,63,-56,-1,-1,0
1523613603629,-196608,63,-56,-1,-1,0
1523613603669,-131072,63,-56,-1,-1,0
1523613603669,-131072,63,-56,-1,-1,0
1523613603669,-196608,63,-56,-1,-1,0
1523613603669,-131072,63,-56,-1,-1,0
1523613603669,-131072,63,-56,-1,-1,0
1523613603709,-131072,63,-56,-1,-1,0
1523613603709,-65536,63,-56,-1,-1,0
1523613603709,-65536,63,-56,-1,-1,0
1523613603709,0,63,-56,-1,-1,0
1523613603709,0,63,-56,-1,-1,0
1523613603749,65536,63,-56,-1,-1,0
1523613603749,65536,63,-56,-1,-1,0
1523613603749,65536,63,-56,-1,-1,0
1523613603749,131072,63,-56,-1,-1,0
1523613603749,196608,63,-56,-1,-1,0
1523613603789,196608,63,-56,-1,-1,0
1523613603789,327680,63,-56,-1,-1,0
1523613603789,393216,63,-56,-1,-1,0
1523613603789,524288,63,-56,-1,-1,0
1523613603789,589824,63,-56,-1,-1,0
1523613603830,720896,63,-56,-1,-1,0
1523613603830,917504,63,-56,-1,-1,0
1523613603830,1048576,63,-56,-1,-1,0
1523613603830,1114112,63,-56,-1,-1,0
1523613603830,1245184,63,-56,-1,-1,0
1523613603869,1245184,63,-56,-1,-1,0
1523613603869,1245184,63,-56,-1,-1,0
1523613603869,1245184,63,-56,-1,-1,0
1523613603869,1179648,63,-56,-1,-1,0
1523613603869,983040,63,-56,-1,-1,0
1523613603909,786432,63,-56,-1,-1,0
1523613603909,458752,63,-56,-1,-1,0
1523613603909,196608,63,-56,-1,-1,0
1523613603909,65536,63,-56,-1,-1,0
1523613603909,0,63,-56,-1,-1,0
1523613603949,-131072,63,-56,-1,-1,0
1523613603949,-196608,63,-56,-1,-1,0
1523613603949,-262144,63,-56,-1,-1,0
1523613603949,-262144,63,-56,-1,-1,0
1523613603949,-262144,63,-56,-1,-1,0
1523613603989,-262144,63,-56,-1,-1,0
1523613603989,-196608,63,-56,-1,-1,0
1523613603989,-131072,63,-56,-1,-1,0
1523613603989,-131072,63,-56,-1,-1,0
1523613603989,-131072,63,-56,-1,-1,0
1523613604029,-131072,63,-56,-1,-1,0
1523613604029,-196608,63,-56,-1,-1,0
1523613604029,-131072,63,-56,-1,-1,0
1523613604029,-131072,63,-56,-1,-1,0
1523613604029,-65536,63,-56,-1,-1,0
1523613604069,-65536,63,-56,-1,-1,0
1523613604069,-131072,63,-56,-1,-1,0
1523613604069,-131072,63,-56,-1,-1,0
1523613604069,-196608,63,-56,-1,-1,0
1523613604069,-196608,63,-56,-1,-1,0
1523613604109,-196608,63,-56,-1,-1,0
1523613604109,-262144,63,-56,-1,-1,0
1523613604109,-262144,63,-56,-1,-1,0
1523613604109,-262144,63,-56,-1,-1,0
1523613604109,-262144,63,-56,-1,-1,0
1523613604149,-262144,63,-56,-1,-1,0
1523613604149,-262144,63,-56,-1,-1,0
1523613604149,-327680,63,-56,-1,-1,0
1523613604149,-393216,63,-56,-1,-1,0
1523613604149,-393216,63,-56,-1,-1,0
1523613604189,-393216,63,-56,-1,-1,0
1523613604189,-327680,63,-56,-1,-1,0
1523613604189,-327680,63,-56,-1,-1,0
1523613604189,-327680,63,-56,-1,-1,0
1523613604189,-327680,63,-56,-1,-1,0
1523613604230,-327680,63,-56,-1,-1,0
1523613604230,-327680,63,-56,-1,-1,0
1523613604230,-327680,63,-56,-1,-1,0
1523613604230,-327680,63,-56,-1,-1,0
1523613604230,-327680,63,-56,-1,-1,0
1523613604269,-393216,63,-56,-1,-1,0
1523613604269,-393216,63,-56,-1,-1,0
1523613604269,-393216,63,-56,-1,-1,0
1523613604269,-393216,63,-56,-1,-1,0
1523613604269,-327680,63,-56,-1,-1,0
1523613604319,-327680,63,-56,-1,-1,0
1523613604319,-327680,63,-56,-1,-1,0
1523613604319,-393216,63,-56,-1,-1,0
1523613604319,-458752,63,-56,-1,-1,0
1523613604319,-524288,63,-56,-1,-1,0
1523613604349,-524288,63,-56,-1,-1,0
1523613604349,-524288,63,-56,-1,-1,0
1523613604349,-524288,63,-56,-1,-1,0
1523613604349,-458752,63,-56,-1,-1,0
1523613604349,-393216,63,-56,-1,-1,0
1523613604389,-327680,63,-56,-1,-1,0
1523613604389,-262144,63,-56,-1,-1,0
1523613604389,-262144,63,-56,-1,-1,0
1523613604389,-262144,63,-56,-1,-1,0
1523613604389,-327680,63,-56,-1,-1,0
1523613604429,-327680,63,-56,-1,-1,0
1523613604429,-327680,63,-56,-1,-1,0
1523613604429,-327680,63,-56,-1,-1,0
1523613604429,-327680,63,-56,-1,-1,0
1523613604429,-327680,63,-56,-1,-1,0
1523613604470,-327680,63,-56,-1,-1,0
1523613604470,-393216,63,-56,-1,-1,0
1523613604470,-393216,63,-56,-1,-1,0
1523613604470,65536,63,-56,-1,-1,0
1523613604470,1638400,63,-56,-1,-1,0
1523613604509,3997696,63,-56,-1,-1,0
1523613604509,4325376,63,-56,-1,-1,0
1523613604509,1441792,63,-56,-1,-1,0
1523613604509,-1638400,63,-56,-1,-1,0
1523613604509,-2162688,63,-56,-1,-1,0
1523613604549,-1376256,63,-56,-1,-1,0
1523613604549,-786432,63,-56,-1,-1,0
1523613604549,-393216,63,-56,-1,-1,0
1523613604549,-196608,63,-56,-1,-1,0
1523613604549,-131072,63,-56,-1,-1,0
1523613604589,-65536,63,-56,-1,-1,0
1523613604589,-65536,63,-56,-1,-1,0
1523613604589,-65536,63,-56,-1,-1,0
1523613604589,-65536,63,-56,-1,-1,0
1523613604589,0,63,-56,-1,-1,0
1523613604629,0,63,-56,-1,-1,0
1523613604629,0,63,-56,-1,-1,0
1523613604629,65536,63,-56,-1,-1,0
1523613604629,65536,63,-56,-1,-1,0
1523613604629,65536,63,-56,-1,-1,0
1523613604669,65536,63,-56,-1,-1,0
1523613604669,131072,63,-56,-1,-1,0
1523613604669,196608,63,-56,-1,-1,0
1523613604669,196608,63,-56,-1,-1,0
1523613604669,196608,63,-56,-1,-1,0
1523613604709,262144,64,-56,-1,-1,0
1523613604709,327680,64,-56,-1,-1,0
1523613604709,393216,64,-56,-1,-1,0
1523613604709,524288,64,-56,-1,-1,0
1523613604709,655360,64,-56,-1,-1,0
1523613604749,786432,64,-56,-1,-1,0
1523613604749,917504,64,-56,-1,-1,0
1523613604749,1048576,64,-56,-1,-1,0
1523613604749,1179648,64,-56,-1,-1,0
1523613604749,1245184,64,-56,-1,-1,0
1523613604789,1310720,64,-56,-1,-1,0
1523613604789,1310720,64,-56,-1,-1,0
1523613604789,1310720,64,-56,-1,-1,0
1523613604789,1310720,64,-56,-1,-1,0
1523613604789,1179648,64,-56,-1,-1,0
1523613604829,917504,64,-56,-1,-1,0
1523613604829,720896,64,-56,-1,-1,0
1523613604829,524288,64,-56,-1,-1,0
1523613604829,327680,64,-56,-1,-1,0
1523613604829,131072,64,-56,-1,-1,0
1523613604869,65536,64,-56,-1,-1,0
1523613604869,0,64,-56,-1,-1,0
1523613604869,-65536,64,-56,-1,-1,0
1523613604869,-65536,64,-56,-1,-1,0
1523613604869,-65536,64,-56,-1,-1,0
1523613604909,-65536,64,-56,-1,-1,0
1523613604909,-65536,64,-56,-1,-1,0
1523613604909,-65536,64,-56,-1,-1,0
1523613604909,-65536,64,-56,-1,-1,0
1523613604909,-65536,64,-56,-1,-1,0
1523613604949,-65536,64,-56,-1,-1,0
1523613604949,0,64,-56,-1,-1,0
1523613604949,0,64,-56,-1,-1,0
1523613604949,0,64,-56,-1,-1,0
1523613604949,0,64,-56,-1,-1,0
1523613604989,0,64,-56,-1,-1,0
1523613604989,0,64,-56,-1,-1,0
1523613604989,-65536,64,-56,-1,-1,0
1523613604989,-65536,64,-56,-1,-1,0
1523613604989,-65536,64,-56,-1,-1,0
1523613605029,-131072,64,-56,-1,-1,0
1523613605029,-196608,64,-56,-1,-1,0
1523613605029,-196608,64,-56,-1,-1,0
1523613605029,-196608,64,-56,-1,-1,0
1523613605029,-196608,64,-56,-1,-1,0
1523613605069,-196608,64,-56,-1,-1,0
1523613605069,-196608,64,-56,-1,-1,0
1523613605069,-196608,64,-56,-1,-1,0
1523613605069,-196608,64,-56,-1,-1,0
1523613605069,-196608,64,-56,-1,-1,0
1523613605110,-196608,64,-56,-1,-1,0
1523613605110,-196608,64,-56,-1,-1,0
1523613605110,-262144,64,-56,-1,-1,0
1523613605110,-262144,64,-56,-1,-1,0
1523613605110,-262144,64,-56,-1,-1,0
1523613605149,-262144,64,-56,-1,-1,0
1523613605149,-196608,64,-56,-1,-1,0
1523613605149,-196608,64,-56,-1,-1,0
1523613605149,-262144,64,-56,-1,-1,0
1523613605149,-327680,64,-56,-1,-1,0
1523613605189,-327680,64,-56,-1,-1,0
1523613605189,-327680,64,-56,-1,-1,0
1523613605189,-262144,64,-56,-1,-1,0
1523613605189,-262144,64,-56,-1,-1,0
1523613605189,-262144,64,-56,-1,-1,0
1523613605229,-262144,64,-56,-1,-1,0
1523613605229,-262144,64,-56,-1,-1,0
1523613605229,-262144,64,-56,-1,-1,0
1523613605229,-262144,64,-56,-1,-1,0
1523613605229,-262144,64,-56,-1,-1,0
1523613605269,-262144,64,-56,-1,-1,0
1523613605269,-327680,64,-56,-1,-1,0
1523613605269,-327680,64,-56,-1,-1,0
1523613605269,-327680,64,-56,-1,-1,0
1523613605269,-327680,64,-56,-1,-1,0
1523613605309,-327680,64,-56,-1,-1,0
1523613605309,-262144,64,-56,-1,-1,0
1523613605309,-196608,64,-56,-1,-1,0
1523613605309,-131072,64,-56,-1,-1,0
1523613605309,-65536,64,-56,-1,-1,0
1523613605349,-131072,64,-56,-1,-1,0
1523613605349,-196608,64,-56,-1,-1,0
1523613605349,-262144,64,-56,-1,-1,0
1523613605349,-262144,64,-56,-1,-1,0
1523613605349,-262144,64,-56,-1,-1,0
1523613605389,-196608,64,-56,-1,-1,0
1523613605389,-196608,64,-56,-1,-1,0
1523613605389,-196608,64,-56,-1,-1,0
1523613605389,-262144,64,-56,-1,-1,0
1523613605389,-327680,64,-56,-1,-1,0
1523613605429,-131072,64,-56,-1,-1,0
1523613605429,720896,64,-56,-1,-1,0
1523613605429,2883584,64,-56,-1,-1,0
1523613605429,4653056,64,-56,-1,-1,0
1523613605429,3211264,64,-56,-1,-1,0
1523613605469,-262144,64,-56,-1,-1,0
1523613605469,-2293760,64,-56,-1,-1,0
1523613605469,-1835008,64,-56,-1,-1,0
1523613605469,-1048576,64,-56,-1,-1,0
1523613605469,-589824,64,-56,-1,-1,0
1523613605509,-262144,64,-56,-1,-1,0
1523613605509,-131072,64,-56,-1,-1,0
1523613605509,-65536,64,-56,-1,-1,0
1523613605509,-131072,64,-56,-1,-1,0
1523613605509,-65536,64,-56,-1,-1,0
1523613605549,-65536,64,-56,-1,-1,0
1523613605549,0,64,-56,-1,-1,0
1523613605549,0,64,-56,-1,-1,0
1523613605549,0,64,-56,-1,-1,0
1523613605549,-65536,64,-56,-1,-1,0
1523613605589,-65536,64,-56,-1,-1,0
1523613605589,0,64,-56,-1,-1,0
1523613605589,0,64,-56,-1,-1,0
1523613605589,0,64,-56,-1,-1,0
1523613605589,0,64,-56,-1,-1,0
1523613605629,65536,64,-56,-1,-1,0
1523613605629,131072,64,-56,-1,-1,0
1523613605629,196608,64,-56,-1,-1,0
1523613605629,262144,64,-56,-1,-1,0
1523613605629,327680,64,-56,-1,-1,0
1523613605669,458752,64,-56,-1,-1,0
1523613605669,524288,64,-56,-1,-1,0
1523613605669,655360,64,-56,-1,-1,0
1523613605669,851968,64,-56,-1,-1,0
1523613605669,983040,64,-56,-1,-1,0
1523613605709,1048576,64,-56,-1,-1,0
1523613605709,1179648,64,-56,-1,-1,0
1523613605709,1376256,64,-56,-1,-1,0
1523613605709,1441792,64,-56,-1,-1,0
1523613605709,1441792,64,-56,-1,-1,0
1523613605750,1441792,64,-56,-1,-1,0
1523613605750,1310720,64,-56,-1,-1,0
1523613605750,1179648,64,-56,-1,-1,0
1523613605750,917504,64,-56,-1,-1,0
1523613605750,655360,64,-56,-1,-1,0
1523613605789,458752,64,-56,-1,-1,0
1523613605789,262144,64,-56,-1,-1,0
1523613605789,131072,64,-56,-1,-1,0
1523613605789,0,64,-56,-1,-1,0
1523613605789,-65536,64,-56,-1,-1,0
1523613605829,-65536,64,-56,-1,-1,0
1523613605829,-65536,64,-56,-1,-1,0
1523613605829,-65536,64,-56,-1,-1,0
1523613605829,-65536,64,-56,-1,-1,0
1523613605829,-65536,64,-56,-1,-1,0
1523613605869,-65536,64,-56,-1,-1,0
1523613605869,-65536,64,-56,-1,-1,0
1523613605869,-65536,64,-56,-1,-1,0
1523613605869,-65536,64,-56,-1,-1,0
1523613605869,-65536,64,-56,-1,-1,0
1523613605909,-65536,64,-56,-1,-1,0
1523613605909,-65536,64,-56,-1,-1,0
1523613605909,-65536,64,-56,-1,-1,0
1523613605909,0,64,-56,-1,-1,0
1523613605909,0,64,-56,-1,-1,0
1523613605949,-65536,64,-56,-1,-1,0
1523613605949,-65536,64,-56,-1,-1,0
1523613605949,-65536,64,-56,-1,-1,0
1523613605949,-65536,64,-56,-1,-1,0
1523613605949,-65536,64,-56,-1,-1,0
1523613605989,-65536,64,-56,-1,-1,0
1523613605989,-131072,64,-56,-1,-1,0
1523613605989,-131072,64,-56,-1,-1,0
1523613605989,-196608,64,-56,-1,-1,0
1523613605989,-196608,64,-56,-1,-1,0
1523613606029,-196608,64,-56,-1,-1,0
1523613606029,-196608,64,-56,-1,-1,0
1523613606029,-196608,64,-56,-1,-1,0
1523613606029,-196608,64,-56,-1,-1,0
1523613606029,-196608,64,-56,-1,-1,0
1523613606069,-196608,64,-56,-1,-1,0
1523613606069,-262144,64,-56,-1,-1,0
1523613606069,-262144,64,-56,-1,-1,0
1523613606069,-196608,64,-56,-1,-1,0
1523613606069,-131072,64,-56,-1,-1,0
1523613606109,-131072,64,-56,-1,-1,0
1523613606109,-196608,64,-56,-1,-1,0
1523613606109,-196608,64,-56,-1,-1,0
1523613606109,-196608,64,-56,-1,-1,0
1523613606109,-196608,64,-56,-1,-1,0
1523613606149,-196608,64,-56,-1,-1,0
1523613606149,-262144,64,-56,-1,-1,0
1523613606149,-262144,64,-56,-1,-1,0
1523613606149,-196608,64,-56,-1,-1,0
1523613606149,-196608,64,-56,-1,-1,0
1523613606189,-262144,64,-56,-1,-1,0
1523613606189,-262144,64,-56,-1,-1,0
1523613606189,-327680,64,-56,-1,-1,0
1523613606189,-393216,64,-56,-1,-1,0
1523613606189,-393216,64,-56,-1,-1,0
1523613606229,-393216,64,-56,-1,-1,0
1523613606229,-393216,64,-56,-1,-1,0
1523613606229,-262144,64,-56,-1,-1,0
1523613606229,-196608,64,-56,-1,-1,0
1523613606229,-196608,64,-56,-1,-1,0
1523613606269,-262144,64,-56,-1,-1,0
1523613606269,-327680,64,-56,-1,-1,0
1523613606269,-393216,64,-56,-1,-1,0
1523613606269,-393216,64,-56,-1,-1,0
1523613606269,-327680,64,-56,-1,-1,0
1523613606309,-327680,64,-56,-1,-1,0
1523613606309,-262144,64,-56,-1,-1,0
1523613606309,-262144,64,-56,-1,-1,0
1523613606309,-327680,64,-56,-1,-1,0
1523613606309,-327680,64,-56,-1,-1,0
1523613606349,131072,64,-56,-1,-1,0
1523613606349,1703936,64,-56,-1,-1,0
1523613606349,4128768,64,-56,-1,-1,0
1523613606349,4456448,64,-56,-1,-1,0
1523613606349,1376256,64,-56,-1,-1,0
1523613606390,-1703936,64,-56,-1,-1,0
1523613606390,-2162688,64,-56,-1,-1,0
1523613606390,-1441792,64,-56,-1,-1,0
1523613606390,-851968,64,-56,-1,-1,0
1523613606390,-393216,64,-56,-1,-1,0
1523613606429,-196608,64,-56,-1,-1,0
1523613606429,-131072,64,-56,-1,-1,0
1523613606429,-65536,64,-56,-1,-1,0
1523613606429,-65536,64,-56,-1,-1,0
1523613606429,0,64,-56,-1,-1,0
1523613606469,0,64,-56,-1,-1,0
1523613606469,0,64,-56,-1,-1,0
1523613606469,0,64,-56,-1,-1,0
1523613606469,0,64,-56,-1,-1,0
1523613606469,0,64,-56,-1,-1,0
1523613606509,65536,64,-56,-1,-1,0
1523613606509,65536,64,-56,-1,-1,0
1523613606509,131072,64,-56,-1,-1,0
1523613606509,196608,64,-56,-1,-1,0
1523613606509,262144,64,-56,-1,-1,0
1523613606549,262144,64,-56,-1,-1,0
1523613606549,327680,64,-56,-1,-1,0
1523613606549,327680,64,-56,-1,-1,0
1523613606549,327680,64,-56,-1,-1,0
1523613606549,393216,64,-56,-1,-1,0
1523613606589,524288,64,-56,-1,-1,0
1523613606589,655360,64,-56,-1,-1,0
1523613606589,786432,64,-56,-1,-1,0
1523613606589,917504,64,-56,-1,-1,0
1523613606589,1048576,64,-56,-1,-1,0
1523613606629,1179648,64,-56,-1,-1,0
1523613606629,1245184,64,-56,-1,-1,0
1523613606629,1245184,64,-56,-1,-1,0
1523613606629,1310720,64,-56,-1,-1,0
1523613606629,1310720,64,-56,-1,-1,0
1523613606669,1245184,64,-56,-1,-1,0
1523613606669,1114112,64,-56,-1,-1,0
1523613606669,917504,64,-56,-1,-1,0
1523613606669,655360,64,-56,-1,-1,0
1523613606669,458752,64,-56,-1,-1,0
1523613606709,262144,64,-56,-1,-1,0
1523613606709,131072,64,-56,-1,-1,0
1523613606709,65536,64,-56,-1,-1,0
1523613606709,0,64,-56,-1,-1,0
1523613606709,0,64,-56,-1,-1,0
1523613606749,0,64,-56,-1,-1,0
1523613606749,-65536,64,-56,-1,-1,0
1523613606749,-65536,64,-56,-1,-1,0
1523613606749,-65536,64,-56,-1,-1,0
1523613606749,-131072,64,-56,-1,-1,0
1523613606789,-131072,64,-56,-1,-1,0
1523613606789,-131072,64,-56,-1,-1,0
1523613606789,-131072,64,-56,-1,-1,0
1523613606789,-131072,64,-56,-1,-1,0
1523613606789,-131072,64,-56,-1,-1,0
1523613606830,-131072,64,-56,-1,-1,0
1523613606830,-131072,64,-56,-1,-1,0
1523613606830,-131072,64,-56,-1,-1,0
1523613606830,-196608,64,-56,-1,-1,0
1523613606830,-196608,64,-56,-1,-1,0
1523613606869,-196608,64,-56,-1,-1,0
1523613606869,-262144,64,-56,-1,-1,0
1523613606869,-262144,64,-56,-1,-1,0
1523613606869,-327680,64,-56,-1,-1,0
1523613606869,-327680,64,-56,-1,-1,0
1523613606909,-393216,64,-56,-1,-1,0
1523613606909,-393216,64,-56,-1,-1,0
1523613606909,-458752,64,-56,-1,-1,0
1523613606909,-393216,64,-56,-1,-1,0
1523613606909,-393216,64,-56,-1,-1,0
1523613606949,-393216,64,-56,-1,-1,0
1523613606949,-458752,64,-56,-1,-1,0
1523613606949,-458752,64,-56,-1,-1,0
1523613606949,-458752,64,-56,-1,-1,0
1523613606949,-458752,64,-56,-1,-1,0
1523613606989,-458752,64,-56,-1,-1,0
1523613606989,-458752,64,-56,-1,-1,0
1523613606989,-458752,64,-56,-1,-1,0
1523613606989,-458752,64,-56,-1,-1,0
1523613606989,-458752,64,-56,-1,-1,0
1523613607030,-458752,64,-56,-1,-1,0
1523613607030,-393216,64,-56,-1,-1,0
1523613607030,-393216,64,-56,-1,-1,0
1523613607030,-393216,64,-56,-1,-1,0
1523613607030,-458752,64,-56,-1,-1,0
1523613607069,-393216,64,-56,-1,-1,0
1523613607069,-327680,64,-56,-1,-1,0
1523613607069,-327680,64,-56,-1,-1,0
1523613607069,-393216,64,-56,-1,-1,0
1523613607069,-393216,64,-56,-1,-1,0
1523613607110,-327680,64,-56,-1,-1,0
1523613607110,-327680,64,-56,-1,-1,0
1523613607110,-327680,64,-56,-1,-1,0
1523613607110,-327680,64,-56,-1,-1,0
1523613607110,-262144,64,-56,-1,-1,0
1523613607149,-196608,64,-56,-1,-1,0
1523613607149,-65536,64,-56,-1,-1,0
1523613607149,-65536,64,-56,-1,-1,0
1523613607149,-65536,64,-56,-1,-1,0
1523613607149,-65536,64,-56,-1,-1,0
1523613607189,-131072,64,-56,-1,-1,0
1523613607189,-196608,64,-56,-1,-1,0
1523613607189,-131072,64,-56,-1,-1,0
1523613607189,-65536,64,-56,-1,-1,0
1523613607189,-65536,64,-56,-1,-1,0
1523613607229,-65536,64,-56,-1,-1,0
1523613607229,-65536,64,-56,-1,-1,0
1523613607229,-65536,64,-56,-1,-1,0
1523613607229,-65536,64,-56,-1,-1,0
1523613607229,393216,64,-56,-1,-1,0
1523613607269,1966080,64,-56,-1,-1,0
1523613607269,4259840,64,-56,-1,-1,0
1523613607269,4521984,64,-56,-1,-1,0
1523613607269,1507328,64,-56,-1,-1,0
1523613607269,-1572864,64,-56,-1,-1,0
1523613607309,-2031616,64,-56,-1,-1,0
1523613607309,-1245184,64,-56,-1,-1,0
1523613607309,-589824,64,-56,-1,-1,0
1523613607309,-196608,64,-56,-1,-1,0
1523613607309,0,64,-56,-1,-1,0
1523613607349,65536,64,-56,-1,-1,0
1523613607349,131072,64,-56,-1,-1,0
1523613607349,131072,64,-56,-1,-1,0
1523613607349,196608,64,-56,-1,-1,0
1523613607349,131072,64,-56,-1,-1,0
1523613607389,196608,64,-56,-1,-1,0
1523613607389,196608,64,-56,-1,-1,0
1523613607389,196608,64,-56,-1,-1,0
1523613607389,131072,64,-56,-1,-1,0
1523613607389,131072,64,-56,-1,-1,0
1523613607429,131072,64,-56,-1,-1,0
1523613607429,131072,64,-56,-1,-1,0
1523613607429,196608,64,-56,-1,-1,0
1523613607429,262144,64,-56,-1,-1,0
1523613607429,327680,64,-56,-1,-1,0
1523613607469,393216,64,-56,-1,-1,0
1523613607469,458752,64,-56,-1,-1,0
1523613607469,524288,64,-56,-1,-1,0
1523613607469,589824,64,-56,-1,-1,0
1523613607469,720896,64,-56,-1,-1,0
1523613607509,851968,64,-56,-1,-1,0
1523613607509,917504,64,-56,-1,-1,0
1523613607509,1114112,64,-56,-1,-1,0
1523613607509,1245184,64,-56,-1,-1,0
1523613607509,1310720,64,-56,-1,-1,0
1523613607549,1441792,64,-56,-1,-1,0
1523613607549,1507328,64,-56,-1,-1,0
1523613607549,1441792,64,-56,-1,-1,0
1523613607549,1441792,64,-56,-1,-1,0
1523613607549,1310720,64,-56,-1,-1,0
1523613607589,1179648,64,-56,-1,-1,0
1523613607589,917504,64,-56,-1,-1,0
1523613607589,720896,64,-56,-1,-1,0
1523613607589,458752,64,-56,-1,-1,0
1523613607589,262144,64,-56,-1,-1,0
1523613607629,131072,64,-56,-1,-1,0
1523613607629,0,64,-56,-1,-1,0
1523613607629,0,64,-56,-1,-1,0
1523613607629,-65536,64,-56,-1,-1,0
1523613607629,-131072,64,-56,-1,-1,0
1523613607670,-65536,64,-56,-1,-1,0
1523613607670,-65536,64,-56,-1,-1,0
1523613607670,-65536,64,-56,-1,-1,0
1523613607670,-65536,64,-56,-1,-1,0
1523613607670,-65536,64,-56,-1,-1,0
1523613607709,0,64,-56,-1,-1,0
1523613607709,0,64,-56,-1,-1,0
1523613607709,0,64,-56,-1,-1,0
1523613607709,0,64,-56,-1,-1,0
1523613607709,0,64,-56,-1,-1,0
1523613607749,0,64,-56,-1,-1,0
1523613607749,0,64,-56,-1,-1,0
1523613607749,0,64,-56,-1,-1,0
1523613607749,-65536,64,-56,-1,-1,0
1523613607749,-65536,64,-56,-1,-1,0
1523613607789,0,64,-56,-1,-1,0
1523613607789,-65536,64,-56,-1,-1,0
1523613607789,-131072,64,-56,-1,-1,0
1523613607789,-196608,64,-56,-1,-1,0
1523613607789,-131072,64,-56,-1,-1,0
1523613607830,-131072,64,-56,-1,-1,0
1523613607830,-131072,64,-56,-1,-1,0
1523613607830,-196608,64,-56,-1,-1,0
1523613607830,-196608,64,-56,-1,-1,0
1523613607830,-262144,64,-56,-1,-1,0
1523613607869,-262144,64,-56,-1,-1,0
1523613607869,-327680,64,-56,-1,-1,0
1523613607869,-327680,64,-56,-1,-1,0
1523613607869,-327680,64,-56,-1,-1,0
1523613607869,-327680,64,-56,-1,-1,0
1523613607909,-327680,64,-56,-1,-1,0
1523613607909,-327680,64,-56,-1,-1,0
1523613607909,-327680,64,-56,-1,-1,0
1523613607909,-327680,64,-56,-1,-1,0
1523613607909,-327680,64,-56,-1,-1,0
1523613607949,-393216,64,-56,-1,-1,0
1523613607949,-393216,64,-56,-1,-1,0
1523613607949,-393216,64,-56,-1,-1,0
1523613607949,-458752,64,-56,-1,-1,0
1523613607949,-458752,64,-56,-1,-1,0
1523613607989,-458752,64,-56,-1,-1,0
1523613607989,-458752,64,-56,-1,-1,0
1523613607989,-524288,64,-56,-1,-1,0
1523613607989,-655360,64,-56,-1,-1,0
1523613607989,-655360,64,-56,-1,-1,0
1523613608029,-589824,64,-56,-1,-1,0
1523613608029,-458752,64,-56,-1,-1,0
1523613608029,-393216,64,-56,-1,-1,0
1523613608029,-327680,64,-56,-1,-1,0
1523613608029,-327680,64,-56,-1,-1,0
1523613608069,-393216,64,-56,-1,-1,0
1523613608069,-458752,64,-56,-1,-1,0
1523613608069,-524288,64,-56,-1,-1,0
1523613608069,-524288,64,-56,-1,-1,0
1523613608069,-458752,64,-56,-1,-1,0
1523613608109,-458752,64,-56,-1,-1,0
1523613608109,-458752,64,-56,-1,-1,0
1523613608109,-458752,64,-56,-1,-1,0
1523613608109,-524288,64,-56,-1,-1,0
1523613608109,-589824,64,-56,-1,-1,0
1523613608149,-131072,64,-56,-1,-1,0
1523613608149,1376256,64,-56,-1,-1,0
1523613608149,3997696,64,-56,-1,-1,0
1523613608149,4849664,64,-56,-1,-1,0
1523613608149,1900544,64,-56,-1,-1,0
1523613608189,-1638400,64,-56,-1,-1,0
1523613608189,-2555904,64,-56,-1,-1,0
1523613608189,-1769472,64,-56,-1,-1,0
1523613608189,-1114112,64,-56,-1,-1,0
1523613608189,-720896,64,-56,-1,-1,0
1523613608229,-524288,64,-56,-1,-1,0
1523613608229,-458752,64,-56,-1,-1,0
1523613608229,-393216,64,-56,-1,-1,0
1523613608229,-393216,64,-56,-1,-1,0
1523613608229,-327680,64,-56,-1,-1,0
1523613608269,-327680,64,-56,-1,-1,0
1523613608269,-327680,64,-56,-1,-1,0
1523613608269,-327680,64,-56,-1,-1,0
1523613608269,-327680,64,-56,-1,-1,0
1523613608269,-262144,64,-56,-1,-1,0
1523613608310,-262144,64,-56,-1,-1,0
1523613608310,-262144,64,-56,-1,-1,0
1523613608310,-262144,64,-56,-1,-1,0
1523613608310,-196608,64,-56,-1,-1,0
1523613608310,-131072,64,-56,-1,-1,0
1523613608349,-65536,64,-56,-1,-1,0
1523613608349,0,64,-56,-1,-1,0
1523613608349,0,64,-56,-1,-1,0
1523613608349,65536,64,-56,-1,-1,0
1523613608349,131072,64,-56,-1,-1,0
1523613608389,262144,64,-56,-1,-1,0
1523613608389,327680,64,-56,-1,-1,0
1523613608389,458752,64,-56,-1,-1,0
1523613608389,589824,64,-56,-1,-1,0
1523613608389,786432,64,-56,-1,-1,0
1523613608429,917504,64,-56,-1,-1,0
1523613608429,983040,64,-56,-1,-1,0
1523613608429,1114112,64,-56,-1,-1,0
1523613608429,1179648,64,-56,-1,-1,0
1523613608429,1179648,64,-56,-1,-1,0
1523613608469,1048576,64,-56,-1,-1,0
1523613608469,917504,64,-56,-1,-1,0
1523613608469,655360,64,-56,-1,-1,0
1523613608469,393216,64,-56,-1,-1,0
1523613608469,196608,64,-56,-1,-1,0
1523613608509,0,64,-56,-1,-1,0
1523613608509,-65536,64,-56,-1,-1,0
1523613608509,-196608,64,-56,-1,-1,0
1523613608509,-262144,64,-56,-1,-1,0
1523613608509,-262144,64,-56,-1,-1,0
1523613608549,-327680,64,-56,-1,-1,0
1523613608549,-393216,64,-56,-1,-1,0
1523613608549,-393216,64,-56,-1,-1,0
1523613608549,-393216,64,-56,-1,-1,0
1523613608549,-393216,64,-56,-1,-1,0
1523613608589,-393216,64,-56,-1,-1,0
1523613608589,-393216,64,-56,-1,-1,0
1523613608589,-393216,64,-56,-1,-1,0
1523613608589,-393216,64,-56,-1,-1,0
1523613608589,-393216,64,-56,-1,-1,0
1523613608629,-393216,64,-56,-1,-1,0
1523613608629,-393216,64,-56,-1,-1,0
1523613608629,-327680,64,-56,-1,-1,0
1523613608629,-327680,64,-56,-1,-1,0
1523613608629,-393216,64,-56,-1,-1,0
1523613608669,-458752,64,-56,-1,-1,0
1523613608669,-458752,64,-56,-1,-1,0
1523613608669,-458752,64,-56,-1,-1,0
1523613608669,-458752,64,-56,-1,-1,0
1523613608669,-458752,64,-56,-1,-1,0
1523613608709,-524288,64,-56,-1,-1,0
1523613608709,-524288,64,-56,-1,-1,0
1523613608709,-458752,64,-56,-1,-1,0
1523613608709,-524288,64,-56,-1,-1,0
1523613608709,-524288,64,-56,-1,-1,0
1523613608749,-589824,64,-56,-1,-1,0
1523613608749,-589824,64,-56,-1,-1,0
1523613608749,-589824,64,-56,-1,-1,0
1523613608749,-524288,64,-56,-1,-1,0
1523613608749,-524288,64,-56,-1,-1,0
1523613608789,-458752,64,-56,-1,-1,0
1523613608789,-458752,64,-56,-1,-1,0
1523613608789,-393216,64,-56,-1,-1,0
1523613608789,-393216,64,-56,-1,-1,0
1523613608789,-327680,64,-56,-1,-1,0
1523613608829,-327680,64,-56,-1,-1,0
1523613608829,-327680,64,-56,-1,-1,0
1523613608829,-393216,64,-56,-1,-1,0
1523613608829,-393216,64,-56,-1,-1,0
1523613608829,-393216,64,-56,-1,-1,0
1523613608869,-393216,64,-56,-1,-1,0
1523613608869,-393216,64,-56,-1,-1,0
1523613608869,-393216,64,-56,-1,-1,0
1523613608869,-393216,64,-56,-1,-1,0
1523613608869,-393216,64,-56,-1,-1,0
1523613608909,-458752,64,-56,-1,-1,0
1523613608909,-393216,64,-56,-1,-1,0
1523613608909,-327680,64,-56,-1,-1,0
1523613608909,-196608,64,-56,-1,-1,0
1523613608909,-65536,64,-56,-1,-1,0
1523613608950,0,64,-56,-1,-1,0
1523613608950,-65536,64,-56,-1,-1,0
1523613608950,-65536,64,-56,-1,-1,0
1523613608950,-131072,64,-56,-1,-1,0
1523613608950,-131072,64,-56,-1,-1,0
1523613608989,-131072,64,-56,-1,-1,0
1523613608989,-196608,64,-56,-1,-1,0
1523613608989,-131072,64,-56,-1,-1,0
1523613608989,-131072,64,-56,-1,-1,0
1523613608989,-131072,64,-56,-1,-1,0
1523613609029,-196608,64,-56,-1,-1,0
1523613609029,-262144,64,-56,-1,-1,0
1523613609029,65536,64,-56,-1,-1,0
1523613609029,1441792,64,-56,-1,-1,0
1523613609029,3997696,64,-56,-1,-1,0
1523613609069,4980736,64,-56,-1,-1,0
1523613609069,2293760,64,-56,-1,-1,0
1523613609069,-1245184,64,-56,-1,-1,0
1523613609069,-2228224,64,-56,-1,-1,0
1523613609069,-1441792,64,-56,-1,-1,0
1523613609109,-851968,64,-56,-1,-1,0
1523613609109,-458752,64,-56,-1,-1,0
1523613609109,-327680,64,-56,-1,-1,0
1523613609109,-327680,64,-56,-1,-1,0
1523613609109,-262144,64,-56,-1,-1,0
1523613609149,-262144,64,-56,-1,-1,0
1523613609149,-131072,64,-56,-1,-1,0
1523613609149,-131072,64,-56,-1,-1,0
1523613609149,-131072,64,-56,-1,-1,0
1523613609149,-131072,64,-56,-1,-1,0
1523613609189,-65536,64,-56,-1,-1,0
1523613609189,-65536,64,-56,-1,-1,0
1523613609189,-65536,64,-56,-1,-1,0
1523613609189,-65536,64,-56,-1,-1,0
1523613609189,0,64,-56,-1,-1,0
1523613609229,0,65,-56,-1,-1,0
1523613609229,0,65,-56,-1,-1,0
1523613609229,0,65,-56,-1,-1,0
1523613609229,65536,65,-56,-1,-1,0
1523613609229,196608,65,-56,-1,-1,0
1523613609269,262144,65,-56,-1,-1,0
1523613609269,393216,65,-56,-1,-1,0
1523613609269,524288,65,-56,-1,-1,0
1523613609269,655360,65,-56,-1,-1,0
1523613609269,786432,65,-56,-1,-1,0
1523613609309,983040,65,-56,-1,-1,0
1523613609309,1114112,65,-56,-1,-1,0
1523613609309,1245184,65,-56,-1,-1,0
1523613609309,1376256,65,-56,-1,-1,0
1523613609309,1441792,65,-56,-1,-1,0
1523613609349,1441792,65,-56,-1,-1,0
1523613609349,1441792,65,-56,-1,-1,0
1523613609349,1441792,65,-56,-1,-1,0
1523613609349,1245184,65,-56,-1,-1,0
1523613609349,983040,65,-56,-1,-1,0
1523613609389,786432,65,-56,-1,-1,0
1523613609389,524288,65,-56,-1,-1,0
1523613609389,262144,65,-56,-1,-1,0
1523613609389,131072,65,-56,-1,-1,0
1523613609389,0,65,-56,-1,-1,0
1523613609429,0,65,-56,-1,-1,0
1523613609429,-65536,65,-56,-1,-1,0
1523613609429,-131072,65,-56,-1,-1,0
1523613609429,-131072,65,-56,-1,-1,0
1523613609429,-131072,65,-56,-1,-1,0
1523613609469,-196608,65,-56,-1,-1,0
1523613609469,-196608,65,-56,-1,-1,0
1523613609469,-131072,65,-56,-1,-1,0
1523613609469,-131072,65,-56,-1,-1,0
1523613609469,-131072,65,-56,-1,-1,0
1523613609509,-131072,65,-56,-1,-1,0
1523613609509,-131072,65,-56,-1,-1,0
1523613609509,-131072,65,-56,-1,-1,0
1523613609509,-131072,65,-56,-1,-1,0
1523613609509,-131072,65,-56,-1,-1,0
1523613609549,-196608,65,-56,-1,-1,0
1523613609549,-196608,65,-56,-1,-1,0
1523613609549,-196608,65,-56,-1,-1,0
1523613609549,-262144,65,-56,-1,-1,0
1523613609549,-327680,65,-56,-1,-1,0
1523613609590,-327680,65,-56,-1,-1,0
1523613609590,-327680,65,-56,-1,-1,0
1523613609590,-327680,65,-56,-1,-1,0
1523613609590,-327680,65,-56,-1,-1,0
1523613609590,-327680,65,-56,-1,-1,0
1523613609629,-393216,65,-56,-1,-1,0
1523613609629,-393216,65,-56,-1,-1,0
1523613609629,-393216,65,-56,-1,-1,0
1523613609629,-393216,65,-56,-1,-1,0
1523613609629,-393216,65,-56,-1,-1,0
1523613609669,-393216,65,-56,-1,-1,0
1523613609669,-393216,65,-56,-1,-1,0
1523613609669,-393216,65,-56,-1,-1,0
1523613609669,-393216,65,-56,-1,-1,0
1523613609669,-393216,65,-56,-1,-1,0
1523613609709,-393216,65,-56,-1,-1,0
1523613609709,-327680,65,-56,-1,-1,0
1523613609709,-327680,65,-56,-1,-1,0
1523613609709,-393216,65,-56,-1,-1,0
1523613609709,-393216,65,-56,-1,-1,0
1523613609749,-393216,65,-56,-1,-1,0
1523613609749,-327680,65,-56,-1,-1,0
1523613609749,-327680,65,-56,-1,-1,0
1523613609749,-327680,65,-56,-1,-1,0
1523613609749,-327680,65,-56,-1,-1,0
1523613609789,-327680,65,-56,-1,-1,0
1523613609789,-327680,65,-56,-1,-1,0
1523613609789,-393216,65,-56,-1,-1,0
1523613609789,-458752,65,-56,-1,-1,0
1523613609789,-458752,65,-56,-1,-1,0
1523613609829,-393216,65,-56,-1,-1,0
1523613609829,-262144,65,-56,-1,-1,0
1523613609829,-131072,65,-56,-1,-1,0
1523613609829,-65536,65,-56,-1,-1,0
1523613609829,-131072,65,-56,-1,-1,0
1523613609870,-196608,65,-56,-1,-1,0
1523613609870,-262144,65,-56,-1,-1,0
1523613609870,-327680,65,-56,-1,-1,0
1523613609870,-327680,65,-56,-1,-1,0
1523613609870,-327680,65,-56,-1,-1,0
1523613609909,-262144,65,-56,-1,-1,0
1523613609909,-262144,65,-56,-1,-1,0
1523613609909,-196608,65,-56,-1,-1,0
1523613609909,-196608,65,-56,-1,-1,0
1523613609909,-327680,65,-56,-1,-1,0
1523613609949,-196608,65,-56,-1,-1,0
1523613609949,720896,65,-56,-1,-1,0
1523613609949,2883584,65,-56,-1,-1,0
1523613609949,4653056,65,-56,-1,-1,0
1523613609949,3080192,65,-56,-1,-1,0
1523613609989,-458752,65,-56,-1,-1,0
1523613609989,-2424832,65,-56,-1,-1,0
1523613609989,-1900544,65,-56,-1,-1,0
1523613609989,-1114112,65,-56,-1,-1,0
1523613609989,-589824,65,-56,-1,-1,0
1523613610029,-327680,65,-56,-1,-1,0
1523613610029,-262144,65,-56,-1,-1,0
1523613610029,-196608,65,-56,-1,-1,0
1523613610029,-131072,65,-56,-1,-1,0
1523613610029,-131072,65,-56,-1,-1,0
1523613610070,-131072,65,-56,-1,-1,0
1523613610070,-131072,65,-56,-1,-1,0
1523613610070,-131072,65,-56,-1,-1,0
1523613610070,-131072,65,-56,-1,-1,0
1523613610070,-65536,65,-56,-1,-1,0
1523613610109,-65536,65,-56,-1,-1,0
1523613610109,0,65,-56,-1,-1,0
1523613610109,0,65,-56,-1,-1,0
1523613610109,0,65,-56,-1,-1,0
1523613610109,65536,65,-56,-1,-1,0
1523613610149,131072,65,-56,-1,-1,0
1523613610149,131072,65,-56,-1,-1,0
1523613610149,196608,65,-56,-1,-1,0
1523613610149,262144,65,-56,-1,-1,0
1523613610149,327680,65,-56,-1,-1,0
1523613610189,393216,65,-56,-1,-1,0
1523613610189,458752,65,-56,-1,-1,0
1523613610189,524288,65,-56,-1,-1,0
1523613610189,655360,65,-56,-1,-1,0
1523613610189,786432,65,-56,-1,-1,0
1523613610230,917504,65,-56,-1,-1,0
1523613610230,1048576,65,-56,-1,-1,0
1523613610230,1114112,65,-56,-1,-1,0
1523613610230,1179648,65,-56,-1,-1,0
1523613610230,1179648,65,-56,-1,-1,0
1523613610269,1179648,65,-56,-1,-1,0
1523613610269,1114112,65,-56,-1,-1,0
1523613610269,917504,65,-56,-1,-1,0
1523613610269,720896,65,-56,-1,-1,0
1523613610269,458752,65,-56,-1,-1,0
1523613610309,262144,65,-56,-1,-1,0
1523613610309,131072,65,-56,-1,-1,0
1523613610309,0,65,-56,-1,-1,0
1523613610309,0,65,-56,-1,-1,0
1523613610309,-65536,65,-56,-1,-1,0
1523613610349,-131072,65,-56,-1,-1,0
1523613610349,-131072,65,-56,-1,-1,0
1523613610349,-131072,65,-56,-1,-1,0
1523613610349,-131072,65,-56,-1,-1,0
1523613610349,-131072,65,-56,-1,-1,0
1523613610389,-65536,65,-56,-1,-1,0
1523613610389,-65536,65,-56,-1,-1,0
1523613610389,-65536,65,-56,-1,-1,0
1523613610389,-65536,65,-56,-1,-1,0
1523613610389,0,65,-56,-1,-1,0
1523613610429,-65536,65,-56,-1,-1,0
1523613610429,-65536,65,-56,-1,-1,0
1523613610429,-65536,65,-56,-1,-1,0
1523613610429,-65536,65,-56,-1,-1,0
1523613610429,-131072,65,-56,-1,-1,0
1523613610469,-131072,65,-56,-1,-1,0
1523613610469,-196608,65,-56,-1,-1,0
1523613610469,-196608,65,-56,-1,-1,0
1523613610469,-196608,65,-56,-1,-1,0
1523613610469,-196608,65,-56,-1,-1,0
1523613610510,-196608,65,-56,-1,-1,0
1523613610510,-262144,65,-56,-1,-1,0
1523613610510,-262144,65,-56,-1,-1,0
1523613610510,-327680,65,-56,-1,-1,0
1523613610510,-327680,65,-56,-1,-1,0
1523613610549,-327680,65,-56,-1,-1,0
1523613610549,-327680,65,-56,-1,-1,0
1523613610549,-393216,65,-56,-1,-1,0
1523613610549,-393216,65,-56,-1,-1,0
1523613610549,-393216,65,-56,-1,-1,0
1523613610589,-327680,65,-56,-1,-1,0
1523613610589,-327680,65,-56,-1,-1,0
1523613610589,-327680,65,-56,-1,-1,0
1523613610589,-327680,65,-56,-1,-1,0
1523613610589,-327680,65,-56,-1,-1,0
1523613610629,-327680,65,-56,-1,-1,0
1523613610629,-327680,65,-56,-1,-1,0
1523613610629,-393216,65,-56,-1,-1,0
1523613610629,-393216,65,-56,-1,-1,0
1523613610629,-393216,65,-56,-1,-1,0
1523613610669,-393216,65,-56,-1,-1,0
1523613610669,-393216,65,-56,-1,-1,0
1523613610669,-458752,65,-56,-1,-1,0
1523613610669,-524288,65,-56,-1,-1,0
1523613610669,-524288,65,-56,-1,-1,0
1523613610709,-524288,65,-56,-1,-1,0
1523613610709,-458752,65,-56,-1,-1,0
1523613610709,-393216,65,-56,-1,-1,0
1523613610709,-262144,65,-56,-1,-1,0
1523613610709,-196608,65,-56,-1,-1,0
1523613610749,-131072,65,-56,-1,-1,0
1523613610749,-131072,65,-56,-1,-1,0
1523613610749,-196608,65,-56,-1,-1,0
1523613610749,-196608,65,-56,-1,-1,0
1523613610749,-196608,65,-56,-1,-1,0
1523613610789,-196608,65,-56,-1,-1,0
1523613610789,-131072,65,-56,-1,-1,0
1523613610789,-65536,65,-56,-1,-1,0
1523613610789,-65536,65,-56,-1,-1,0
1523613610789,-65536,65,-56,-1,-1,0
1523613610829,-65536,65,-56,-1,-1,0
1523613610829,-131072,65,-56,-1,-1,0
1523613610829,0,65,-56,-1,-1,0
1523613610829,851968,65,-56,-1,-1,0
1523613610829,2818048,65,-56,-1,-1,0
1523613610870,4456448,65,-56,-1,-1,0
1523613610870,2883584,65,-56,-1,-1,0
1523613610870,-458752,65,-56,-1,-1,0
1523613610870,-2293760,65,-56,-1,-1,0
1523613610870,-1703936,65,-56,-1,-1,0
1523613610909,-917504,65,-56,-1,-1,0
1523613610909,-458752,65,-56,-1,-1,0
1523613610909,-131072,65,-56,-1,-1,0
1523613610909,-65536,65,-56,-1,-1,0
1523613610909,0,65,-56,-1,-1,0
1523613610949,0,65,-56,-1,-1,0
1523613610949,0,65,-56,-1,-1,0
1523613610949,0,65,-56,-1,-1,0
1523613610949,0,65,-56,-1,-1,0
1523613610949,0,65,-56,-1,-1,0
1523613610989,0,65,-56,-1,-1,0
1523613610989,65536,65,-56,-1,-1,0
1523613610989,65536,65,-56,-1,-1,0
1523613610989,0,65,-56,-1,-1,0
1523613610989,65536,65,-56,-1,-1,0
1523613611029,65536,66,-56,-1,-1,0
1523613611029,131072,66,-56,-1,-1,0
1523613611029,131072,66,-56,-1,-1,0
1523613611029,131072,66,-56,-1,-1,0
1523613611029,262144,66,-56,-1,-1,0
1523613611069,262144,66,-56,-1,-1,0
1523613611069,327680,66,-56,-1,-1,0
1523613611069,393216,66,-56,-1,-1,0
1523613611069,524288,66,-56,-1,-1,0
1523613611069,655360,66,-56,-1,-1,0
1523613611109,786432,66,-56,-1,-1,0
1523613611109,851968,66,-56,-1,-1,0
1523613611109,983040,66,-56,-1,-1,0
1523613611109,1048576,66,-56,-1,-1,0
1523613611109,1114112,66,-56,-1,-1,0
1523613611149,1179648,66,-56,-1,-1,0
1523613611149,1179648,66,-56,-1,-1,0
1523613611149,1114112,66,-56,-1,-1,0
1523613611149,1048576,66,-56,-1,-1,0
1523613611149,851968,66,-56,-1,-1,0
1523613611189,655360,66,-56,-1,-1,0
1523613611189,393216,66,-56,-1,-1,0
1523613611189,196608,66,-56,-1,-1,0
1523613611189,0,66,-56,-1,-1,0
1523613611189,-131072,66,-56,-1,-1,0
1523613611229,-196608,66,-56,-1,-1,0
1523613611229,-196608,66,-56,-1,-1,0
1523613611229,-196608,66,-56,-1,-1,0
1523613611229,-196608,66,-56,-1,-1,0
1523613611229,-196608,66,-56,-1,-1,0
1523613611269,-262144,66,-56,-1,-1,0
1523613611269,-262144,66,-56,-1,-1,0
1523613611269,-196608,66,-56,-1,-1,0
1523613611269,-196608,66,-56,-1,-1,0
1523613611269,-131072,66,-56,-1,-1,0
1523613611309,-131072,66,-56,-1,-1,0
1523613611309,-196608,66,-56,-1,-1,0
1523613611309,-196608,66,-56,-1,-1,0
1523613611309,-196608,66,-56,-1,-1,0
1523613611309,-196608,66,-56,-1,-1,0
1523613611349,-262144,66,-56,-1,-1,0
1523613611349,-262144,66,-56,-1,-1,0
1523613611349,-262144,66,-56,-1,-1,0
1523613611349,-327680,66,-56,-1,-1,0
1523613611349,-327680,66,-56,-1,-1,0
1523613611389,-327680,66,-56,-1,-1,0
1523613611389,-393216,66,-56,-1,-1,0
1523613611389,-393216,66,-56,-1,-1,0
1523613611389,-458752,66,-56,-1,-1,0
1523613611389,-458752,66,-56,-1,-1,0
1523613611429,-458752,66,-56,-1,-1,0
1523613611429,-393216,66,-56,-1,-1,0
1523613611429,-458752,66,-56,-1,-1,0
1523613611429,-458752,66,-56,-1,-1,0
1523613611429,-458752,66,-56,-1,-1,0
1523613611469,-458752,66,-56,-1,-1,0
1523613611469,-458752,66,-56,-1,-1,0
1523613611469,-458752,66,-56,-1,-1,0
1523613611469,-458752,66,-56,-1,-1,0
1523613611469,-458752,66,-56,-1,-1,0
1523613611510,-458752,66,-56,-1,-1,0
1523613611510,-458752,66,-56,-1,-1,0
1523613611510,-524288,66,-56,-1,-1,0
1523613611510,-524288,66,-56,-1,-1,0
1523613611510,-589824,66,-56,-1,-1,0
1523613611549,-589824,66,-56,-1,-1,0
1523613611549,-524288,66,-56,-1,-1,0
1523613611549,-524288,66,-56,-1,-1,0
1523613611549,-524288,66,-56,-1,-1,0
1523613611549,-589824,66,-56,-1,-1,0
1523613611589,-589824,66,-56,-1,-1,0
1523613611589,-589824,66,-56,-1,-1,0
1523613611589,-589824,66,-56,-1,-1,0
1523613611589,-589824,66,-56,-1,-1,0
1523613611589,-524288,66,-56,-1,-1,0
1523613611629,-458752,66,-56,-1,-1,0
1523613611629,-327680,66,-56,-1,-1,0
1523613611629,-262144,66,-56,-1,-1,0
1523613611629,-262144,66,-56,-1,-1,0
1523613611629,-393216,66,-56,-1,-1,0
1523613611670,-458752,66,-56,-1,-1,0
1523613611670,-393216,66,-56,-1,-1,0
1523613611670,-393216,66,-56,-1,-1,0
1523613611670,-393216,66,-56,-1,-1,0
1523613611670,-393216,66,-56,-1,-1,0
1523613611709,-327680,66,-56,-1,-1,0
1523613611709,-393216,66,-56,-1,-1,0
1523613611709,-458752,66,-56,-1,-1,0
1523613611709,-393216,66,-56,-1,-1,0
1523613611709,65536,66,-56,-1,-1,0
1523613611750,1376256,66,-56,-1,-1,0
1523613611750,3473408,66,-56,-1,-1,0
1523613611750,3801088,66,-56,-1,-1,0
1523613611750,917504,66,-56,-1,-1,0
1523613611750,-2228224,66,-56,-1,-1,0
1523613611789,-2818048,66,-56,-1,-1,0
1523613611789,-1966080,66,-56,-1,-1,0
1523613611789,-1179648,66,-56,-1,-1,0
1523613611789,-589824,66,-56,-1,-1,0
1523613611789,-327680,66,-56,-1,-1,0
1523613611829,-262144,66,-56,-1,-1,0
1523613611829,-196608,66,-56,-1,-1,0
1523613611829,-196608,66,-56,-1,-1,0
1523613611829,-131072,66,-56,-1,-1,0
1523613611829,-131072,66,-56,-1,-1,0
1523613611869,0,66,-56,-1,-1,0
1523613611869,0,66,-56,-1,-1,0
1523613611869,0,66,-56,-1,-1,0
1523613611869,0,66,-56,-1,-1,0
1523613611869,0,66,-56,-1,-1,0
1523613611909,0,66,-56,-1,-1,0
1523613611909,65536,66,-56,-1,-1,0
1523613611909,65536,66,-56,-1,-1,0
1523613611909,131072,66,-56,-1,-1,0
1523613611909,196608,66,-56,-1,-1,0
1523613611952,262144,66,-56,-1,-1,0
1523613611952,327680,66,-56,-1,-1,0
1523613611952,458752,66,-56,-1,-1,0
1523613611952,524288,66,-56,-1,-1,0
1523613611952,589824,66,-56,-1,-1,0
1523613611989,720896,66,-56,-1,-1,0
1523613611989,917504,66,-56,-1,-1,0
1523613611989,1048576,66,-56,-1,-1,0
1523613611989,1114112,66,-56,-1,-1,0
1523613611989,1245184,66,-56,-1,-1,0
1523613612029,1310720,66,-56,-1,-1,0
1523613612029,1376256,66,-56,-1,-1,0
1523613612029,1441792,66,-56,-1,-1,0
1523613612029,1441792,66,-56,-1,-1,0
1523613612029,1376256,66,-56,-1,-1,0
1523613612069,1179648,66,-56,-1,-1,0
1523613612069,917504,66,-56,-1,-1,0
1523613612069,720896,66,-56,-1,-1,0
1523613612069,458752,66,-56,-1,-1,0
1523613612069,196608,66,-56,-1,-1,0
1523613612109,0,66,-56,-1,-1,0
1523613612109,0,66,-56,-1,-1,0
1523613612109,-65536,66,-56,-1,-1,0
1523613612109,-65536,66,-56,-1,-1,0
1523613612109,-131072,66,-56,-1,-1,0
1523613612150,-131072,66,-56,-1,-1,0
1523613612150,-65536,66,-56,-1,-1,0
1523613612150,-65536,66,-56,-1,-1,0
1523613612150,-65536,66,-56,-1,-1,0
1523613612150,0,66,-56,-1,-1,0
1523613612189,0,66,-56,-1,-1,0
1523613612189,0,66,-56,-1,-1,0
1523613612189,0,66,-56,-1,-1,0
1523613612189,0,66,-56,-1,-1,0
1523613612189,0,66,-56,-1,-1,0
1523613612229,0,66,-56,-1,-1,0
1523613612229,0,66,-56,-1,-1,0
1523613612229,0,66,-56,-1,-1,0
1523613612229,0,66,-56,-1,-1,0
1523613612229,0,66,-56,-1,-1,0
1523613612269,-65536,66,-56,-1,-1,0
1523613612269,-65536,66,-56,-1,-1,0
1523613612269,-65536,66,-56,-1,-1,0
1523613612269,-65536,66,-56,-1,-1,0
1523613612269,-131072,66,-56,-1,-1,0
1523613612309,-131072,66,-56,-1,-1,0
1523613612309,-196608,66,-56,-1,-1,0
1523613612309,-196608,66,-56,-1,-1,0
1523613612309,-131072,66,-56,-1,-1,0
1523613612309,-131072,66,-56,-1,-1,0
1523613612349,-196608,66,-56,-1,-1,0
1523613612349,-196608,66,-56,-1,-1,0
1523613612349,-262144,66,-56,-1,-1,0
1523613612349,-262144,66,-56,-1,-1,0
1523613612349,-262144,66,-56,-1,-1,0
1523613612389,-196608,66,-56,-1,-1,0
1523613612389,-196608,66,-56,-1,-1,0
1523613612389,-262144,66,-56,-1,-1,0
1523613612389,-327680,66,-56,-1,-1,0
1523613612389,-327680,66,-56,-1,-1,0
1523613612429,-393216,66,-56,-1,-1,0
1523613612429,-458752,66,-56,-1,-1,0
1523613612429,-458752,66,-56,-1,-1,0
1523613612429,-327680,66,-56,-1,-1,0
1523613612429,-196608,66,-56,-1,-1,0
1523613612469,-131072,66,-56,-1,-1,0
1523613612469,-131072,66,-56,-1,-1,0
1523613612469,-196608,66,-56,-1,-1,0
1523613612469,-327680,66,-56,-1,-1,0
1523613612469,-393216,66,-56,-1,-1,0
1523613612509,-393216,66,-56,-1,-1,0
1523613612509,-327680,66,-56,-1,-1,0
1523613612509,-327680,66,-56,-1,-1,0
1523613612509,-327680,66,-56,-1,-1,0
1523613612509,-393216,66,-56,-1,-1,0
1523613612549,-393216,66,-56,-1,-1,0
1523613612549,-458752,66,-56,-1,-1,0
1523613612549,-393216,66,-56,-1,-1,0
1523613612549,131072,66,-56,-1,-1,0
1523613612549,1835008,66,-56,-1,-1,0
1523613612589,3932160,66,-56,-1,-1,0
1523613612589,3473408,66,-56,-1,-1,0
1523613612589,131072,66,-56,-1,-1,0
1523613612589,-2621440,66,-56,-1,-1,0
1523613612589,-2686976,66,-56,-1,-1,0
1523613612629,-1835008,66,-56,-1,-1,0
1523613612629,-1179648,66,-56,-1,-1,0
1523613612629,-655360,66,-56,-1,-1,0
1523613612629,-393216,66,-56,-1,-1,0
1523613612629,-262144,66,-56,-1,-1,0
1523613612669,-196608,66,-56,-1,-1,0
1523613612669,-196608,66,-56,-1,-1,0
1523613612669,-196608,66,-56,-1,-1,0
1523613612669,-196608,66,-56,-1,-1,0
1523613612669,-131072,66,-56,-1,-1,0
1523613612709,-131072,66,-56,-1,-1,0
1523613612709,-131072,66,-56,-1,-1,0
1523613612709,-131072,66,-56,-1,-1,0
1523613612709,-65536,66,-56,-1,-1,0
1523613612709,-65536,66,-56,-1,-1,0
1523613612749,-65536,66,-56,-1,-1,0
1523613612749,0,66,-56,-1,-1,0
1523613612749,0,66,-56,-1,-1,0
1523613612749,0,66,-56,-1,-1,0
1523613612749,65536,66,-56,-1,-1,0
1523613612790,131072,66,-56,-1,-1,0
1523613612790,262144,66,-56,-1,-1,0
1523613612790,393216,66,-56,-1,-1,0
1523613612790,524288,66,-56,-1,-1,0
1523613612790,655360,66,-56,-1,-1,0
1523613612829,786432,66,-56,-1,-1,0
1523613612829,983040,66,-56,-1,-1,0
1523613612829,1179648,66,-56,-1,-1,0
1523613612829,1245184,66,-56,-1,-1,0
1523613612829,1245184,66,-56,-1,-1,0
1523613612869,1245184,66,-56,-1,-1,0
1523613612869,1179648,66,-56,-1,-1,0
1523613612869,1114112,66,-56,-1,-1,0
1523613612869,983040,66,-56,-1,-1,0
1523613612869,786432,66,-56,-1,-1,0
1523613612909,524288,66,-56,-1,-1,0
1523613612909,262144,66,-56,-1,-1,0
1523613612909,0,66,-56,-1,-1,0
1523613612909,-131072,66,-56,-1,-1,0
1523613612909,-262144,66,-56,-1,-1,0
1523613612949,-393216,66,-56,-1,-1,0
1523613612949,-458752,66,-56,-1,-1,0
1523613612949,-524288,66,-56,-1,-1,0
1523613612949,-524288,66,-56,-1,-1,0
1523613612949,-524288,66,-56,-1,-1,0
1523613612989,-458752,66,-56,-1,-1,0
1523613612989,-458752,66,-56,-1,-1,0
1523613612989,-393216,66,-56,-1,-1,0
1523613612989,-393216,66,-56,-1,-1,0
1523613612989,-327680,66,-56,-1,-1,0
1523613613029,-327680,66,-56,-1,-1,0
1523613613029,-262144,66,-56,-1,-1,0
1523613613029,-262144,66,-56,-1,-1,0
1523613613029,-262144,66,-56,-1,-1,0
1523613613029,-262144,66,-56,-1,-1,0
1523613613070,-262144,66,-56,-1,-1,0
1523613613070,-262144,66,-56,-1,-1,0
1523613613070,-327680,66,-56,-1,-1,0
1523613613070,-393216,66,-56,-1,-1,0
1523613613070,-393216,66,-56,-1,-1,0
1523613613109,-327680,66,-56,-1,-1,0
1523613613109,-327680,66,-56,-1,-1,0
1523613613109,-327680,66,-56,-1,-1,0
1523613613109,-327680,66,-56,-1,-1,0
1523613613109,-327680,66,-56,-1,-1,0
1523613613149,-393216,66,-56,-1,-1,0
1523613613149,-393216,66,-56,-1,-1,0
1523613613149,-393216,66,-56,-1,-1,0
1523613613149,-393216,66,-56,-1,-1,0
1523613613149,-393216,66,-56,-1,-1,0
1523613613189,-393216,66,-56,-1,-1,0
1523613613189,-393216,66,-56,-1,-1,0
1523613613189,-393216,66,-56,-1,-1,0
1523613613189,-393216,66,-56,-1,-1,0
1523613613189,-393216,66,-56,-1,-1,0
1523613613229,-393216,66,-56,-1,-1,0
1523613613229,-458752,66,-56,-1,-1,0
1523613613229,-524288,66,-56,-1,-1,0
1523613613229,-524288,66,-56,-1,-1,0
1523613613229,-589824,66,-56,-1,-1,0
1523613613269,-524288,66,-56,-1,-1,0
1523613613269,-393216,66,-56,-1,-1,0
1523613613269,-262144,66,-56,-1,-1,0
1523613613269,-196608,66,-56,-1,-1,0
1523613613269,-196608,66,-56,-1,-1,0
1523613613309,-262144,66,-56,-1,-1,0
1523613613309,-327680,66,-56,-1,-1,0
1523613613309,-327680,66,-56,-1,-1,0
1523613613309,-327680,66,-56,-1,-1,0
1523613613309,-327680,66,-56,-1,-1,0
1523613613349,-262144,66,-56,-1,-1,0
1523613613349,-262144,66,-56,-1,-1,0
1523613613349,-262144,66,-56,-1,-1,0
1523613613349,-262144,66,-56,-1,-1,0
1523613613349,-327680,66,-56,-1,-1,0
1523613613389,-327680,66,-56,-1,-1,0
1523613613389,196608,66,-56,-1,-1,0
1523613613389,1900544,66,-56,-1,-1,0
1523613613389,4390912,66,-56,-1,-1,0
1523613613389,4653056,66,-56,-1,-1,0
1523613613430,1310720,66,-56,-1,-1,0
1523613613430,-1900544,66,-56,-1,-1,0
1523613613430,-2293760,66,-56,-1,-1,0
1523613613430,-1507328,66,-56,-1,-1,0
1523613613430,-851968,66,-56,-1,-1,0
1523613613469,-458752,66,-56,-1,-1,0
1523613613469,-196608,66,-56,-1,-1,0
1523613613469,-131072,66,-56,-1,-1,0
1523613613469,-65536,66,-56,-1,-1,0
1523613613469,0,66,-56,-1,-1,0
1523613613510,0,66,-56,-1,-1,0
1523613613510,0,66,-56,-1,-1,0
1523613613510,0,66,-56,-1,-1,0
1523613613510,0,66,-56,-1,-1,0
1523613613510,65536,66,-56,-1,-1,0
1523613613549,65536,66,-56,-1,-1,0
1523613613549,131072,66,-56,-1,-1,0
1523613613549,65536,66,-56,-1,-1,0
1523613613549,65536,66,-56,-1,-1,0
1523613613549,65536,66,-56,-1,-1,0
1523613613589,131072,66,-56,-1,-1,0
1523613613589,196608,66,-56,-1,-1,0
1523613613589,262144,66,-56,-1,-1,0
1523613613589,393216,66,-56,-1,-1,0
1523613613589,458752,66,-56,-1,-1,0
1523613613629,524288,66,-56,-1,-1,0
1523613613629,655360,66,-56,-1,-1,0
1523613613629,786432,66,-56,-1,-1,0
1523613613629,917504,66,-56,-1,-1,0
1523613613629,1114112,66,-56,-1,-1,0
1523613613669,1310720,66,-56,-1,-1,0
1523613613669,1376256,66,-56,-1,-1,0
1523613613669,1507328,66,-56,-1,-1,0
1523613613669,1507328,66,-56,-1,-1,0
1523613613669,1507328,66,-56,-1,-1,0
1523613613709,1441792,66,-56,-1,-1,0
1523613613709,1245184,66,-56,-1,-1,0
1523613613709,1048576,66,-56,-1,-1,0
1523613613709,720896,66,-56,-1,-1,0
1523613613709,458752,66,-56,-1,-1,0
1523613613749,262144,66,-56,-1,-1,0
1523613613749,65536,66,-56,-1,-1,0
1523613613749,0,66,-56,-1,-1,0
1523613613749,-65536,66,-56,-1,-1,0
1523613613749,-131072,66,-56,-1,-1,0
1523613613789,-131072,66,-56,-1,-1,0
1523613613789,-196608,66,-56,-1,-1,0
1523613613789,-262144,66,-56,-1,-1,0
1523613613789,-262144,66,-56,-1,-1,0
1523613613789,-196608,66,-56,-1,-1,0
1523613613829,-196608,66,-56,-1,-1,0
1523613613829,-196608,66,-56,-1,-1,0
1523613613829,-196608,66,-56,-1,-1,0
1523613613829,-131072,66,-56,-1,-1,0
1523613613829,-65536,66,-56,-1,-1,0
1523613613869,0,66,-56,-1,-1,0
1523613613869,0,66,-56,-1,-1,0
1523613613869,0,66,-56,-1,-1,0
1523613613869,0,66,-56,-1,-1,0
1523613613869,0,66,-56,-1,-1,0
1523613613909,-65536,66,-56,-1,-1,0
1523613613909,-65536,66,-56,-1,-1,0
1523613613909,-65536,66,-56,-1,-1,0
1523613613909,-65536,66,-56,-1,-1,0
1523613613909,-65536,66,-56,-1,-1,0
1523613613949,-131072,66,-56,-1,-1,0
1523613613949,-131072,66,-56,-1,-1,0
1523613613949,-131072,66,-56,-1,-1,0
1523613613949,-131072,66,-56,-1,-1,0
1523613613949,-131072,66,-56,-1,-1,0
1523613613989,-196608,66,-56,-1,-1,0
1523613613989,-196608,66,-56,-1,-1,0
1523613613989,-262144,66,-56,-1,-1,0
1523613613989,-196608,66,-56,-1,-1,0
1523613613989,-262144,66,-56,-1,-1,0
1523613614029,-262144,66,-56,-1,-1,0
1523613614029,-327680,66,-56,-1,-1,0
1523613614029,-327680,66,-56,-1,-1,0
1523613614029,-262144,66,-56,-1,-1,0
1523613614029,-262144,66,-56,-1,-1,0
1523613614070,-262144,66,-56,-1,-1,0
1523613614070,-262144,66,-56,-1,-1,0
1523613614070,-262144,66,-56,-1,-1,0
1523613614070,-327680,66,-56,-1,-1,0
1523613614070,-458752,66,-56,-1,-1,0
1523613614109,-458752,66,-56,-1,-1,0
1523613614109,-327680,66,-56,-1,-1,0
1523613614109,-196608,66,-56,-1,-1,0
1523613614109,-65536,66,-56,-1,-1,0
1523613614109,-65536,66,-56,-1,-1,0
1523613614149,-131072,66,-56,-1,-1,0
1523613614149,-131072,66,-56,-1,-1,0
1523613614149,-131072,66,-56,-1,-1,0
1523613614149,-131072,66,-56,-1,-1,0
1523613614149,-131072,66,-56,-1,-1,0
1523613614189,-131072,66,-56,-1,-1,0
1523613614189,-131072,66,-56,-1,-1,0
1523613614189,-196608,66,-56,-1,-1,0
1523613614189,-196608,66,-56,-1,-1,0
1523613614189,-196608,66,-56,-1,-1,0
1523613614229,-131072,66,-56,-1,-1,0
1523613614229,655360,66,-56,-1,-1,0
1523613614229,2686976,66,-56,-1,-1,0
1523613614229,4980736,66,-56,-1,-1,0
1523613614229,4194304,66,-56,-1,-1,0
1523613614269,589824,66,-56,-1,-1,0
1523613614269,-2031616,66,-56,-1,-1,0
1523613614269,-1900544,66,-56,-1,-1,0
1523613614269,-1048576,66,-56,-1,-1,0
1523613614269,-524288,66,-56,-1,-1,0
1523613614309,-196608,66,-56,-1,-1,0
1523613614309,-131072,66,-56,-1,-1,0
1523613614309,-65536,66,-56,-1,-1,0
1523613614309,-65536,66,-56,-1,-1,0
1523613614309,-65536,66,-56,-1,-1,0
1523613614349,-65536,66,-56,-1,-1,0
1523613614349,-65536,66,-56,-1,-1,0
1523613614349,0,66,-56,-1,-1,0
1523613614349,0,66,-56,-1,-1,0
1523613614349,0,66,-56,-1,-1,0
1523613614389,-65536,66,-56,-1,-1,0
1523613614389,-65536,66,-56,-1,-1,0
1523613614389,-65536,66,-56,-1,-1,0
1523613614389,0,66,-56,-1,-1,0
1523613614389,0,66,-56,-1,-1,0
1523613614429,65536,66,-56,-1,-1,0
1523613614429,131072,66,-56,-1,-1,0
1523613614429,196608,66,-56,-1,-1,0
1523613614429,262144,66,-56,-1,-1,0
1523613614429,327680,66,-56,-1,-1,0
1523613614469,393216,66,-56,-1,-1,0
1523613614469,589824,66,-56,-1,-1,0
1523613614469,720896,66,-56,-1,-1,0
1523613614469,917504,66,-56,-1,-1,0
1523613614469,1048576,66,-56,-1,-1,0
1523613614509,1179648,66,-56,-1,-1,0
1523613614509,1310720,66,-56,-1,-1,0
1523613614509,1441792,66,-56,-1,-1,0
1523613614509,1507328,66,-56,-1,-1,0
1523613614509,1507328,66,-56,-1,-1,0
1523613614549,1507328,66,-56,-1,-1,0
1523613614549,1376256,66,-56,-1,-1,0
1523613614549,1114112,66,-56,-1,-1,0
1523613614549,786432,66,-56,-1,-1,0
1523613614549,524288,66,-56,-1,-1,0
1523613614589,262144,66,-56,-1,-1,0
1523613614589,65536,66,-56,-1,-1,0
1523613614589,0,66,-56,-1,-1,0
1523613614589,0,66,-56,-1,-1,0
1523613614589,-65536,66,-56,-1,-1,0
1523613614629,-131072,66,-56,-1,-1,0
1523613614629,-196608,66,-56,-1,-1,0
1523613614629,-196608,66,-56,-1,-1,0
1523613614629,-196608,66,-56,-1,-1,0
1523613614629,-262144,66,-56,-1,-1,0
1523613614669,-262144,66,-56,-1,-1,0
1523613614669,-262144,66,-56,-1,-1,0
1523613614669,-196608,66,-56,-1,-1,0
1523613614669,-196608,66,-56,-1,-1,0
1523613614669,-131072,66,-56,-1,-1,0
1523613614710,-131072,66,-56,-1,-1,0
1523613614710,-131072,66,-56,-1,-1,0
1523613614710,-131072,66,-56,-1,-1,0
1523613614710,-131072,66,-56,-1,-1,0
1523613614710,-131072,66,-56,-1,-1,0
1523613614749,-196608,66,-56,-1,-1,0
1523613614749,-196608,66,-56,-1,-1,0
1523613614749,-196608,66,-56,-1,-1,0
1523613614749,-196608,66,-56,-1,-1,0
1523613614749,-196608,66,-56,-1,-1,0
1523613614789,-196608,66,-56,-1,-1,0
1523613614789,-262144,66,-56,-1,-1,0
1523613614789,-262144,66,-56,-1,-1,0
1523613614789,-262144,66,-56,-1,-1,0
1523613614789,-262144,66,-56,-1,-1,0
1523613614829,-262144,66,-56,-1,-1,0
1523613614829,-262144,66,-56,-1,-1,0
1523613614829,-327680,66,-56,-1,-1,0
1523613614829,-327680,66,-56,-1,-1,0
1523613614829,-327680,66,-56,-1,-1,0
1523613614869,-327680,66,-56,-1,-1,0
1523613614869,-393216,66,-56,-1,-1,0
1523613614869,-393216,66,-56,-1,-1,0
1523613614869,-458752,66,-56,-1,-1,0
1523613614869,-458752,66,-56,-1,-1,0
1523613614909,-458752,66,-56,-1,-1,0
1523613614909,-458752,66,-56,-1,-1,0
1523613614909,-458752,66,-56,-1,-1,0
1523613614909,-458752,66,-56,-1,-1,0
1523613614909,-458752,66,-56,-1,-1,0
1523613614949,-458752,66,-56,-1,-1,0
1523613614949,-393216,66,-56,-1,-1,0
1523613614949,-393216,66,-56,-1,-1,0
1523613614949,-393216,66,-56,-1,-1,0
1523613614949,-458752,66,-56,-1,-1,0
1523613614989,-524288,66,-56,-1,-1,0
1523613614989,-524288,66,-56,-1,-1,0
1523613614989,-524288,66,-56,-1,-1,0
1523613614989,-524288,66,-56,-1,-1,0
1523613614989,-524288,66,-56,-1,-1,0
1523613615029,-393216,66,-56,-1,-1,0
1523613615029,-327680,66,-56,-1,-1,0
1523613615029,-262144,66,-56,-1,-1,0
1523613615029,-262144,66,-56,-1,-1,0
1523613615029,-393216,66,-56,-1,-1,0
1523613615069,-458752,66,-56,-1,-1,0
1523613615069,-458752,66,-56,-1,-1,0
1523613615069,-458752,66,-56,-1,-1,0
1523613615069,-458752,66,-56,-1,-1,0
1523613615069,-458752,66,-56,-1,-1,0
1523613615109,-524288,66,-56,-1,-1,0
1523613615109,-524288,66,-56,-1,-1,0
1523613615109,-524288,66,-56,-1,-1,0
1523613615109,-524288,66,-56,-1,-1,0
1523613615109,-524288,66,-56,-1,-1,0
1523613615149,0,66,-56,-1,-1,0
1523613615149,1638400,66,-56,-1,-1,0
1523613615149,4063232,66,-56,-1,-1,0
1523613615149,4194304,66,-56,-1,-1,0
1523613615149,1048576,66,-56,-1,-1,0
1523613615189,-2162688,66,-56,-1,-1,0
1523613615189,-2621440,66,-56,-1,-1,0
1523613615189,-1835008,66,-56,-1,-1,0
1523613615189,-1179648,66,-56,-1,-1,0
1523613615189,-786432,66,-56,-1,-1,0
1523613615229,-524288,66,-56,-1,-1,0
1523613615229,-393216,66,-56,-1,-1,0
1523613615229,-327680,66,-56,-1,-1,0
1523613615229,-327680,66,-56,-1,-1,0
1523613615229,-327680,66,-56,-1,-1,0
1523613615269,-327680,66,-56,-1,-1,0
1523613615269,-262144,66,-56,-1,-1,0
1523613615269,-262144,66,-56,-1,-1,0
1523613615269,-196608,66,-56,-1,-1,0
1523613615269,-196608,66,-56,-1,-1,0
1523613615309,-131072,66,-56,-1,-1,0
1523613615309,-131072,66,-56,-1,-1,0
1523613615309,-131072,66,-56,-1,-1,0
1523613615309,-65536,66,-56,-1,-1,0
1523613615309,0,66,-56,-1,-1,0
1523613615350,65536,66,-56,-1,-1,0
1523613615350,131072,66,-56,-1,-1,0
1523613615350,196608,66,-56,-1,-1,0
1523613615350,327680,66,-56,-1,-1,0
1523613615350,393216,66,-56,-1,-1,0
1523613615389,524288,66,-56,-1,-1,0
1523613615389,720896,66,-56,-1,-1,0
1523613615389,917504,66,-56,-1,-1,0
1523613615389,1114112,66,-56,-1,-1,0
1523613615389,1310720,66,-56,-1,-1,0
1523613615429,1441792,66,-56,-1,-1,0
1523613615429,1638400,66,-56,-1,-1,0
1523613615429,1703936,66,-56,-1,-1,0
1523613615429,1769472,66,-56,-1,-1,0
1523613615429,1769472,66,-56,-1,-1,0
1523613615469,1638400,66,-56,-1,-1,0
1523613615469,1441792,66,-56,-1,-1,0
1523613615469,1114112,66,-56,-1,-1,0
1523613615469,786432,66,-56,-1,-1,0
1523613615469,458752,66,-56,-1,-1,0
1523613615509,196608,66,-56,-1,-1,0
1523613615509,65536,66,-56,-1,-1,0
1523613615509,0,66,-56,-1,-1,0
1523613615509,-65536,66,-56,-1,-1,0
1523613615509,-131072,66,-56,-1,-1,0
1523613615549,-196608,66,-56,-1,-1,0
1523613615549,-196608,66,-56,-1,-1,0
1523613615549,-262144,66,-56,-1,-1,0
1523613615549,-262144,66,-56,-1,-1,0
1523613615549,-262144,66,-56,-1,-1,0
1523613615589,-196608,66,-56,-1,-1,0
