milliseconds, ECG, ECG HR, PPG, PPG HR, SpO2, PI,Landmark_0,Landmark_1,Landmark_2,Landmark_3,Landmark_4,Landmark_5,Landmark_6,Landmark_7,Landmark_8,Landmark_9,Landmark_10,Landmark_11,Landmark_12,Landmark_13,Landmark_14,Landmark_15,Landmark_16,Landmark_17,Landmark_18,Landmark_19,Landmark_20,Landmark_21,Landmark_22,Landmark_23,Landmark_24,Landmark_25,Landmark_26,Landmark_27,Landmark_28,Landmark_29,Landmark_30,Landmark_31,Landmark_32,Landmark_33,Landmark_34,Landmark_35,Landmark_36,Landmark_37,Landmark_38,Landmark_39,Landmark_40,Landmark_41,Landmark_42,Landmark_43,Landmark_44,Landmark_45,Landmark_46,Landmark_47,Landmark_48,Landmark_49,Landmark_50,Landmark_51,Landmark_52,Landmark_53,Landmark_54,Landmark_55,Landmark_56,Landmark_57,Landmark_58,Landmark_59,Landmark_60,Landmark_61,Landmark_62,Landmark_63,Landmark_64,Landmark_65,Landmark_66,Landmark_67,EyeAspectRatio,MouthAspectRatio,LightIntensity,FaceWidthRatio,EyebrowHeight,LipsWidthRatio,LipsHeightRatio,EyeOpening,NoseWidthRatio,NoseHeightRatio,AvgRedForehead,AvgGreenForehead,AvgBlueForehead,AvgRedLips,AvgGreenLips,AvgBlueLips,AvgRedCheeks,AvgGreenCheeks,AvgBlueCheeks
0,-524288,83,-56,-1,-1,0,"(1084, 425)","(1084, 446)","(1086, 466)","(1090, 486)","(1097, 506)","(1107, 526)","(1119, 545)","(1132, 562)","(1150, 568)","(1169, 566)","(1188, 553)","(1207, 537)","(1224, 520)","(1236, 498)","(1242, 476)","(1247, 453)","(1251, 429)","(1090, 431)","(1102, 429)","(1116, 434)","(1129, 440)","(1142, 447)","(1172, 448)","(1186, 443)","(1201, 439)","(1216, 437)","(1230, 440)","(1156, 457)","(1155, 474)","(1154, 492)","(1152, 509)","(1134, 502)","(1143, 508)","(1153, 514)","(1164, 510)","(1174, 505)","(1108, 447)","(1118, 447)","(1128, 449)","(1137, 453)","(1127, 454)","(1116, 452)","(1180, 455)","(1190, 453)","(1201, 453)","(1211, 454)","(1202, 458)","(1191, 458)","(1118, 508)","(1130, 514)","(1142, 519)","(1151, 522)","(1162, 521)","(1175, 519)","(1191, 515)","(1175, 532)","(1160, 539)","(1149, 540)","(1139, 537)","(1127, 527)","(1122, 512)","(1142, 521)","(1151, 524)","(1162, 523)","(1185, 518)","(1161, 531)","(1150, 531)","(1140, 529)",0.16,0.88,77.0,0.36,0.07,0.43,0.04,-6.0,0.1,0.46,41.1,42.2,71.1,35.55,37.25,66.9,36.47,39.88,55.11
33,-524288,83,-56,-1,-1,0,"(1044, 408)","(1036, 435)","(1032, 463)","(1032, 492)","(1035, 522)","(1044, 551)","(1056, 579)","(1071, 607)","(1097, 620)","(1128, 622)","(1160, 611)","(1192, 595)","(1219, 573)","(1240, 544)","(1253, 512)","(1263, 476)","(1270, 441)","(1048, 392)","(1061, 385)","(1078, 388)","(1094, 396)","(1109, 407)","(1147, 410)","(1171, 405)","(1194, 404)","(1218, 410)","(1235, 423)","(1123, 431)","(1117, 452)","(1110, 473)","(1103, 495)","(1090, 501)","(1097, 509)","(1106, 515)","(1119, 513)","(1132, 510)","(1065, 418)","(1076, 413)","(1091, 416)","(1101, 428)","(1087, 430)","(1073, 427)","(1161, 437)","(1176, 429)","(1192, 431)","(1205, 440)","(1192, 446)","(1175, 444)","(1078, 540)","(1086, 535)","(1097, 534)","(1105, 539)","(1116, 538)","(1132, 546)","(1151, 557)","(1131, 565)","(1113, 568)","(1102, 566)","(1092, 562)","(1084, 554)","(1085, 541)","(1095, 543)","(1104, 546)","(1115, 548)","(1142, 556)","(1115, 552)","(1104, 550)","(1095, 546)",0.34,1.23,76.0,0.35,0.19,0.32,0.02,-17.0,0.03,0.33,56.6,59.0,86.4,52.1,49.45,89.35,46.05,49.88,64.7
66,-524288,83,-56,-1,-1,0,"(1050, 406)","(1041, 433)","(1037, 461)","(1036, 490)","(1039, 520)","(1047, 551)","(1059, 580)","(1074, 607)","(1100, 620)","(1132, 622)","(1166, 610)","(1199, 592)","(1226, 569)","(1247, 539)","(1259, 506)","(1267, 471)","(1272, 436)","(1051, 386)","(1062, 379)","(1078, 381)","(1094, 389)","(1108, 402)","(1151, 409)","(1174, 403)","(1197, 402)","(1220, 408)","(1237, 421)","(1124, 432)","(1118, 453)","(1111, 473)","(1105, 494)","(1089, 501)","(1097, 509)","(1107, 515)","(1120, 513)","(1134, 510)","(1065, 419)","(1076, 415)","(1091, 418)","(1103, 428)","(1088, 431)","(1073, 428)","(1162, 438)","(1177, 431)","(1193, 434)","(1206, 442)","(1192, 448)","(1176, 445)","(1079, 539)","(1087, 535)","(1098, 534)","(1106, 540)","(1117, 539)","(1134, 545)","(1152, 555)","(1132, 566)","(1114, 569)","(1103, 567)","(1093, 563)","(1085, 555)","(1086, 541)","(1097, 545)","(1105, 548)","(1116, 550)","(1144, 554)","(1116, 553)","(1105, 551)","(1096, 548)",0.31,1.23,75.0,0.37,0.2,0.32,0.02,-16.5,0.04,0.32,64.9,67.7,98.7,42.7,39.85,78.55,40.52,44.76,61.29
100,-524288,83,-56,-1,-1,0,"(1054, 404)","(1045, 431)","(1041, 459)","(1040, 488)","(1044, 519)","(1052, 549)","(1063, 579)","(1078, 608)","(1103, 622)","(1134, 623)","(1168, 610)","(1200, 592)","(1228, 567)","(1249, 537)","(1261, 504)","(1268, 470)","(1273, 434)","(1053, 386)","(1064, 378)","(1080, 381)","(1095, 389)","(1109, 402)","(1153, 409)","(1175, 403)","(1199, 402)","(1222, 408)","(1238, 421)","(1125, 432)","(1119, 453)","(1113, 473)","(1106, 495)","(1091, 501)","(1099, 510)","(1109, 516)","(1122, 514)","(1136, 511)","(1068, 418)","(1079, 415)","(1093, 417)","(1105, 428)","(1090, 430)","(1076, 427)","(1165, 438)","(1180, 432)","(1196, 435)","(1208, 443)","(1194, 448)","(1178, 445)","(1082, 537)","(1090, 534)","(1101, 534)","(1109, 539)","(1119, 538)","(1137, 545)","(1155, 554)","(1135, 567)","(1117, 571)","(1105, 570)","(1095, 566)","(1087, 556)","(1089, 539)","(1099, 544)","(1108, 547)","(1119, 549)","(1147, 553)","(1118, 555)","(1107, 554)","(1098, 550)",0.3,1.27,75.0,0.36,0.2,0.33,0.03,-15.5,0.05,0.33,68.7,70.5,102.0,53.75,51.4,89.3,38.76,43.58,59.47
133,-393216,83,-56,-1,-1,0,"(1055, 404)","(1047, 432)","(1043, 460)","(1043, 489)","(1047, 520)","(1055, 551)","(1066, 581)","(1081, 609)","(1106, 623)","(1138, 623)","(1171, 610)","(1203, 591)","(1230, 567)","(1250, 537)","(1262, 505)","(1269, 470)","(1274, 435)","(1054, 388)","(1064, 380)","(1080, 382)","(1096, 390)","(1110, 403)","(1154, 410)","(1176, 403)","(1201, 403)","(1223, 409)","(1240, 422)","(1126, 433)","(1120, 454)","(1113, 474)","(1107, 496)","(1092, 501)","(1100, 510)","(1110, 516)","(1124, 514)","(1138, 510)","(1069, 419)","(1081, 416)","(1095, 418)","(1107, 429)","(1092, 431)","(1078, 428)","(1165, 439)","(1181, 433)","(1197, 436)","(1210, 444)","(1196, 448)","(1180, 446)","(1083, 535)","(1090, 532)","(1102, 532)","(1111, 537)","(1122, 536)","(1141, 543)","(1160, 552)","(1140, 568)","(1120, 574)","(1108, 573)","(1097, 569)","(1088, 558)","(1089, 537)","(1101, 541)","(1110, 545)","(1121, 546)","(1152, 551)","(1121, 559)","(1110, 558)","(1100, 553)",0.27,1.31,75.0,0.38,0.19,0.35,0.04,-15.0,0.05,0.33,67.2,69.3,100.7,63.55,61.0,101.9,43.88,46.76,64.47
166,-196608,83,-56,-1,-1,0,"(1055, 404)","(1048, 432)","(1044, 461)","(1044, 490)","(1047, 521)","(1055, 552)","(1066, 582)","(1081, 610)","(1107, 623)","(1138, 623)","(1171, 610)","(1202, 591)","(1229, 567)","(1249, 537)","(1260, 505)","(1268, 471)","(1273, 436)","(1054, 388)","(1065, 380)","(1080, 382)","(1097, 390)","(1111, 403)","(1157, 411)","(1179, 405)","(1203, 404)","(1226, 411)","(1242, 424)","(1128, 434)","(1122, 454)","(1116, 475)","(1109, 496)","(1093, 501)","(1101, 509)","(1112, 515)","(1126, 513)","(1140, 510)","(1069, 419)","(1081, 415)","(1096, 418)","(1108, 430)","(1093, 431)","(1078, 428)","(1167, 439)","(1182, 433)","(1199, 436)","(1211, 444)","(1197, 449)","(1181, 446)","(1081, 533)","(1090, 530)","(1103, 530)","(1112, 535)","(1124, 534)","(1144, 540)","(1163, 550)","(1143, 568)","(1123, 575)","(1109, 574)","(1098, 570)","(1087, 558)","(1088, 536)","(1102, 539)","(1112, 542)","(1124, 543)","(1154, 549)","(1124, 560)","(1111, 559)","(1101, 555)",0.29,1.24,75.0,0.38,0.2,0.37,0.05,-16.0,0.05,0.32,65.2,67.3,97.9,66.25,65.0,105.85,42.41,45.88,63.52
200,-393216,83,-56,-1,-1,0,"(1056, 401)","(1048, 429)","(1044, 458)","(1043, 487)","(1046, 518)","(1054, 550)","(1066, 580)","(1082, 609)","(1107, 623)","(1139, 623)","(1171, 610)","(1203, 590)","(1230, 566)","(1250, 536)","(1261, 504)","(1268, 470)","(1273, 435)","(1055, 389)","(1066, 382)","(1082, 385)","(1099, 393)","(1114, 406)","(1157, 412)","(1180, 406)","(1203, 405)","(1226, 411)","(1242, 424)","(1130, 435)","(1124, 455)","(1117, 476)","(1111, 498)","(1095, 501)","(1103, 509)","(1113, 516)","(1127, 513)","(1141, 510)","(1071, 419)","(1083, 415)","(1098, 418)","(1109, 429)","(1095, 431)","(1080, 428)","(1168, 439)","(1184, 433)","(1200, 435)","(1212, 443)","(1199, 448)","(1182, 446)","(1083, 534)","(1092, 530)","(1104, 531)","(1113, 536)","(1125, 535)","(1144, 541)","(1162, 550)","(1143, 568)","(1123, 574)","(1110, 573)","(1099, 569)","(1089, 557)","(1090, 536)","(1103, 539)","(1113, 542)","(1124, 543)","(1153, 550)","(1124, 560)","(1112, 559)","(1102, 555)",0.29,1.23,75.0,0.38,0.2,0.36,0.05,-15.5,0.05,0.33,65.7,67.9,99.2,63.25,62.05,102.4,39.29,43.76,61.58
233,-458752,83,-56,-1,-1,0,"(1054, 404)","(1047, 433)","(1043, 461)","(1043, 490)","(1047, 520)","(1056, 551)","(1068, 580)","(1084, 609)","(1110, 622)","(1141, 622)","(1174, 608)","(1204, 589)","(1230, 565)","(1250, 535)","(1261, 503)","(1268, 469)","(1273, 433)","(1054, 390)","(1065, 382)","(1082, 384)","(1099, 392)","(1114, 405)","(1157, 412)","(1180, 405)","(1204, 404)","(1226, 410)","(1243, 423)","(1130, 435)","(1125, 455)","(1119, 476)","(1113, 498)","(1096, 502)","(1105, 510)","(1115, 517)","(1129, 514)","(1143, 511)","(1070, 420)","(1082, 416)","(1097, 419)","(1109, 430)","(1094, 432)","(1079, 429)","(1168, 439)","(1184, 433)","(1200, 435)","(1213, 444)","(1199, 449)","(1183, 446)","(1085, 534)","(1094, 531)","(1106, 531)","(1116, 536)","(1127, 535)","(1146, 541)","(1165, 550)","(1145, 567)","(1126, 573)","(1113, 572)","(1102, 568)","(1091, 557)","(1092, 537)","(1105, 539)","(1115, 543)","(1127, 544)","(1156, 550)","(1127, 558)","(1115, 557)","(1104, 553)",0.29,1.22,75.0,0.38,0.18,0.36,0.05,-16.0,0.05,0.33,66.9,68.5,101.1,63.4,62.25,102.95,42.52,45.88,62.88
266,3014656,83,-56,-1,-1,0,"(1054, 406)","(1046, 434)","(1042, 463)","(1043, 491)","(1047, 522)","(1056, 552)","(1069, 581)","(1086, 608)","(1112, 622)","(1143, 621)","(1175, 607)","(1205, 588)","(1231, 564)","(1250, 535)","(1261, 502)","(1268, 469)","(1272, 434)","(1053, 392)","(1064, 383)","(1081, 386)","(1098, 394)","(1113, 407)","(1158, 413)","(1180, 406)","(1204, 405)","(1226, 411)","(1243, 424)","(1130, 436)","(1125, 457)","(1119, 478)","(1113, 500)","(1096, 502)","(1105, 511)","(1116, 518)","(1130, 515)","(1144, 511)","(1070, 421)","(1082, 417)","(1097, 420)","(1109, 432)","(1094, 433)","(1079, 431)","(1168, 441)","(1184, 434)","(1200, 436)","(1213, 445)","(1199, 450)","(1183, 447)","(1084, 532)","(1095, 530)","(1107, 531)","(1117, 536)","(1128, 535)","(1148, 540)","(1167, 548)","(1147, 566)","(1126, 572)","(1114, 571)","(1102, 568)","(1092, 556)","(1091, 534)","(1106, 539)","(1116, 542)","(1128, 543)","(1159, 548)","(1127, 558)","(1115, 557)","(1105, 553)",0.29,1.18,75.0,0.38,0.18,0.38,0.05,-16.0,0.06,0.34,64.3,66.8,97.2,64.65,64.3,104.2,42.47,45.47,63.94
300,-3670016,83,-56,-1,-1,0,"(1051, 404)","(1044, 433)","(1040, 462)","(1041, 491)","(1045, 522)","(1054, 552)","(1067, 582)","(1083, 610)","(1110, 623)","(1141, 623)","(1173, 609)","(1203, 589)","(1229, 565)","(1248, 535)","(1260, 503)","(1267, 469)","(1272, 434)","(1053, 388)","(1065, 379)","(1082, 381)","(1099, 389)","(1114, 403)","(1160, 410)","(1182, 402)","(1205, 401)","(1227, 407)","(1243, 420)","(1131, 434)","(1126, 456)","(1120, 478)","(1115, 500)","(1097, 503)","(1106, 512)","(1116, 518)","(1130, 515)","(1144, 511)","(1070, 421)","(1082, 417)","(1097, 420)","(1109, 431)","(1094, 433)","(1079, 430)","(1169, 440)","(1185, 433)","(1201, 435)","(1213, 443)","(1200, 449)","(1184, 446)","(1083, 535)","(1094, 532)","(1106, 532)","(1116, 537)","(1128, 536)","(1146, 541)","(1164, 550)","(1144, 567)","(1125, 573)","(1113, 573)","(1102, 569)","(1091, 558)","(1090, 538)","(1105, 540)","(1115, 543)","(1127, 544)","(1155, 549)","(1127, 558)","(1115, 557)","(1104, 554)",0.3,1.12,75.0,0.37,0.17,0.36,0.05,-16.0,0.05,0.34,70.9,72.9,105.8,64.25,63.1,103.15,41.7,45.47,62.41
333,-65536,83,-56,-1,-1,0,"(1051, 406)","(1043, 435)","(1040, 463)","(1040, 492)","(1044, 523)","(1054, 553)","(1067, 583)","(1084, 611)","(1110, 624)","(1141, 624)","(1173, 609)","(1204, 590)","(1230, 565)","(1249, 535)","(1259, 503)","(1267, 469)","(1271, 434)","(1053, 389)","(1065, 381)","(1082, 383)","(1099, 391)","(1113, 404)","(1158, 411)","(1180, 404)","(1203, 402)","(1226, 408)","(1242, 420)","(1130, 435)","(1125, 456)","(1119, 477)","(1114, 500)","(1096, 504)","(1105, 512)","(1116, 518)","(1130, 516)","(1144, 512)","(1069, 421)","(1081, 417)","(1096, 420)","(1108, 431)","(1093, 433)","(1078, 430)","(1168, 440)","(1184, 433)","(1200, 435)","(1213, 443)","(1200, 449)","(1183, 446)","(1084, 535)","(1094, 532)","(1107, 532)","(1117, 537)","(1129, 536)","(1148, 541)","(1167, 550)","(1146, 568)","(1126, 575)","(1113, 574)","(1102, 570)","(1091, 558)","(1091, 537)","(1106, 540)","(1116, 543)","(1128, 544)","(1158, 550)","(1127, 560)","(1115, 559)","(1104, 555)",0.29,1.16,75.0,0.38,0.17,0.37,0.05,-16.0,0.06,0.34,70.3,73.0,105.3,67.15,65.75,106.65,43.05,47.05,64.76
366,196608,82,-56,-1,-1,0,"(1050, 409)","(1042, 437)","(1038, 466)","(1038, 495)","(1043, 526)","(1052, 556)","(1065, 585)","(1082, 613)","(1108, 626)","(1139, 625)","(1171, 611)","(1201, 591)","(1227, 567)","(1246, 537)","(1257, 505)","(1264, 471)","(1269, 436)","(1052, 392)","(1063, 383)","(1080, 385)","(1097, 392)","(1112, 405)","(1157, 413)","(1179, 406)","(1203, 404)","(1225, 410)","(1241, 423)","(1129, 436)","(1124, 457)","(1118, 478)","(1113, 501)","(1095, 505)","(1104, 513)","(1114, 519)","(1128, 517)","(1142, 513)","(1067, 422)","(1079, 418)","(1094, 421)","(1107, 431)","(1091, 433)","(1076, 430)","(1167, 440)","(1183, 434)","(1199, 436)","(1212, 444)","(1198, 449)","(1182, 447)","(1081, 537)","(1091, 533)","(1104, 533)","(1114, 538)","(1126, 536)","(1145, 542)","(1163, 551)","(1144, 569)","(1125, 576)","(1111, 575)","(1100, 572)","(1089, 560)","(1088, 539)","(1103, 541)","(1114, 544)","(1126, 545)","(1155, 550)","(1126, 561)","(1113, 561)","(1102, 557)",0.28,1.16,75.0,0.39,0.16,0.37,0.05,-15.0,0.05,0.34,69.3,72.0,103.0,65.3,64.15,105.35,44.11,48.47,66.82
400,393216,82,-56,-1,-1,0,"(1041, 413)","(1036, 442)","(1033, 471)","(1033, 500)","(1038, 530)","(1049, 559)","(1063, 588)","(1081, 616)","(1107, 627)","(1138, 628)","(1168, 614)","(1197, 596)","(1222, 572)","(1241, 543)","(1252, 510)","(1261, 477)","(1267, 442)","(1046, 399)","(1059, 391)","(1077, 393)","(1095, 401)","(1112, 412)","(1152, 416)","(1175, 410)","(1198, 409)","(1221, 414)","(1238, 428)","(1127, 436)","(1122, 459)","(1116, 481)","(1111, 504)","(1094, 507)","(1103, 515)","(1113, 521)","(1127, 518)","(1140, 514)","(1065, 424)","(1078, 419)","(1093, 422)","(1104, 433)","(1090, 434)","(1075, 432)","(1165, 441)","(1180, 433)","(1196, 435)","(1208, 444)","(1195, 449)","(1180, 447)","(1080, 540)","(1090, 536)","(1103, 535)","(1113, 539)","(1126, 538)","(1145, 544)","(1163, 554)","(1145, 570)","(1126, 576)","(1112, 576)","(1100, 572)","(1089, 562)","(1087, 542)","(1102, 542)","(1113, 545)","(1126, 546)","(1155, 554)","(1126, 562)","(1113, 561)","(1102, 557)",0.32,1.15,75.0,0.36,0.16,0.36,0.05,-15.5,0.05,0.35,56.1,57.9,86.7,61.15,61.0,100.75,44.47,48.23,65.76
433,1310720,82,-56,-1,-1,0,"(1040, 412)","(1033, 441)","(1030, 471)","(1029, 500)","(1033, 531)","(1044, 561)","(1058, 590)","(1077, 618)","(1105, 630)","(1136, 631)","(1168, 617)","(1198, 599)","(1223, 574)","(1242, 545)","(1253, 512)","(1261, 477)","(1267, 442)","(1044, 399)","(1057, 391)","(1075, 394)","(1093, 402)","(1110, 413)","(1151, 417)","(1174, 411)","(1198, 410)","(1221, 415)","(1237, 429)","(1126, 437)","(1121, 460)","(1115, 482)","(1109, 505)","(1092, 508)","(1101, 516)","(1112, 523)","(1125, 520)","(1138, 516)","(1063, 425)","(1075, 421)","(1090, 423)","(1102, 434)","(1087, 436)","(1073, 433)","(1164, 442)","(1178, 435)","(1195, 437)","(1207, 446)","(1194, 451)","(1178, 449)","(1078, 542)","(1088, 538)","(1102, 538)","(1112, 543)","(1124, 542)","(1143, 548)","(1162, 557)","(1143, 573)","(1123, 579)","(1110, 578)","(1098, 574)","(1086, 564)","(1086, 545)","(1101, 546)","(1111, 549)","(1124, 550)","(1154, 557)","(1124, 564)","(1111, 563)","(1100, 559)",0.32,1.15,75.0,0.36,0.17,0.37,0.05,-15.5,0.05,0.35,57.5,60.0,88.2,60.15,59.6,100.35,43.52,47.0,64.05
466,2162688,82,-56,-1,-1,0,"(1038, 416)","(1032, 445)","(1028, 474)","(1027, 504)","(1032, 535)","(1042, 564)","(1056, 594)","(1074, 622)","(1102, 634)","(1134, 634)","(1166, 621)","(1195, 602)","(1221, 577)","(1239, 547)","(1250, 514)","(1258, 480)","(1264, 444)","(1043, 401)","(1056, 393)","(1074, 396)","(1091, 403)","(1109, 414)","(1149, 418)","(1172, 412)","(1196, 412)","(1219, 417)","(1235, 430)","(1125, 440)","(1119, 462)","(1114, 484)","(1108, 507)","(1091, 510)","(1100, 518)","(1110, 525)","(1124, 522)","(1138, 518)","(1062, 427)","(1074, 422)","(1089, 425)","(1101, 436)","(1086, 438)","(1071, 435)","(1162, 444)","(1177, 436)","(1193, 438)","(1206, 447)","(1193, 452)","(1177, 451)","(1078, 545)","(1088, 540)","(1101, 539)","(1111, 543)","(1123, 542)","(1141, 549)","(1159, 561)","(1141, 577)","(1122, 582)","(1109, 581)","(1097, 578)","(1086, 567)","(1085, 547)","(1100, 546)","(1110, 549)","(1122, 550)","(1151, 560)","(1123, 567)","(1110, 566)","(1099, 562)",0.32,1.16,75.0,0.36,0.16,0.35,0.05,-16.0,0.05,0.34,59.8,60.7,90.2,57.35,56.35,97.0,43.23,47.11,64.35
500,65536,82,-56,-1,-1,0,"(1036, 417)","(1030, 446)","(1026, 475)","(1027, 505)","(1032, 536)","(1044, 566)","(1058, 595)","(1075, 623)","(1102, 636)","(1133, 636)","(1164, 622)","(1195, 603)","(1221, 579)","(1240, 548)","(1251, 515)","(1259, 480)","(1265, 445)","(1039, 401)","(1053, 394)","(1071, 397)","(1089, 404)","(1105, 416)","(1147, 420)","(1170, 414)","(1194, 413)","(1218, 418)","(1235, 431)","(1122, 442)","(1117, 464)","(1111, 487)","(1106, 510)","(1088, 513)","(1097, 521)","(1108, 527)","(1122, 524)","(1135, 521)","(1059, 429)","(1071, 424)","(1086, 427)","(1098, 438)","(1083, 440)","(1068, 437)","(1161, 446)","(1175, 438)","(1191, 440)","(1205, 448)","(1191, 453)","(1175, 452)","(1075, 547)","(1085, 542)","(1098, 541)","(1108, 546)","(1120, 545)","(1139, 550)","(1157, 560)","(1140, 577)","(1121, 584)","(1107, 584)","(1095, 580)","(1083, 569)","(1082, 549)","(1097, 549)","(1108, 552)","(1120, 552)","(1149, 560)","(1121, 569)","(1108, 568)","(1097, 564)",0.3,1.17,75.0,0.36,0.17,0.35,0.05,-15.5,0.05,0.35,57.5,60.3,88.3,60.25,59.85,100.55,43.29,46.05,62.52
533,-655360,82,-56,-1,-1,0,"(1037, 417)","(1030, 446)","(1027, 476)","(1027, 506)","(1033, 537)","(1044, 567)","(1058, 597)","(1076, 626)","(1102, 639)","(1133, 639)","(1165, 623)","(1195, 604)","(1222, 579)","(1242, 549)","(1253, 515)","(1260, 480)","(1265, 444)","(1039, 402)","(1052, 395)","(1070, 399)","(1087, 406)","(1104, 418)","(1145, 422)","(1169, 416)","(1194, 415)","(1217, 420)","(1234, 433)","(1120, 444)","(1115, 466)","(1109, 488)","(1103, 512)","(1085, 515)","(1094, 523)","(1106, 530)","(1120, 527)","(1134, 523)","(1057, 429)","(1069, 425)","(1084, 428)","(1096, 439)","(1082, 440)","(1067, 438)","(1160, 447)","(1174, 440)","(1190, 442)","(1204, 450)","(1190, 455)","(1174, 453)","(1073, 550)","(1082, 545)","(1096, 544)","(1106, 548)","(1118, 547)","(1138, 553)","(1156, 563)","(1138, 581)","(1119, 587)","(1105, 587)","(1093, 583)","(1081, 572)","(1080, 552)","(1095, 552)","(1105, 555)","(1118, 555)","(1148, 563)","(1119, 572)","(1106, 571)","(1095, 568)",0.29,1.19,75.0,0.36,0.18,0.36,0.05,-15.0,0.06,0.34,58.1,60.1,88.6,63.8,63.35,102.5,37.58,41.11,58.0
566,-786432,82,-56,-1,-1,0,"(1034, 421)","(1027, 450)","(1022, 479)","(1022, 509)","(1027, 540)","(1037, 570)","(1052, 600)","(1071, 629)","(1098, 641)","(1130, 642)","(1162, 628)","(1193, 608)","(1219, 583)","(1238, 553)","(1249, 519)","(1257, 484)","(1262, 449)","(1036, 403)","(1049, 395)","(1067, 398)","(1086, 406)","(1103, 418)","(1144, 423)","(1167, 417)","(1191, 416)","(1215, 421)","(1231, 434)","(1119, 444)","(1113, 467)","(1108, 490)","(1102, 514)","(1084, 517)","(1094, 525)","(1105, 532)","(1119, 529)","(1132, 525)","(1055, 431)","(1067, 426)","(1082, 429)","(1094, 440)","(1079, 442)","(1064, 439)","(1157, 449)","(1172, 441)","(1189, 443)","(1202, 452)","(1188, 457)","(1172, 455)","(1072, 551)","(1082, 547)","(1095, 546)","(1105, 551)","(1118, 550)","(1136, 556)","(1155, 567)","(1136, 582)","(1116, 588)","(1103, 587)","(1091, 583)","(1080, 572)","(1079, 553)","(1094, 554)","(1105, 557)","(1117, 558)","(1147, 566)","(1117, 573)","(1104, 572)","(1093, 568)",0.31,1.15,75.0,0.37,0.17,0.36,0.05,-16.0,0.05,0.35,60.2,62.8,90.4,60.85,59.0,100.4,41.52,44.11,60.0
600,-524288,82,-56,-1,-1,0,"(1031, 414)","(1026, 445)","(1024, 476)","(1025, 507)","(1031, 539)","(1042, 569)","(1057, 599)","(1073, 630)","(1099, 644)","(1130, 644)","(1162, 628)","(1195, 607)","(1223, 581)","(1245, 549)","(1258, 515)","(1267, 478)","(1274, 439)","(1034, 399)","(1047, 393)","(1065, 397)","(1082, 405)","(1098, 417)","(1144, 424)","(1168, 418)","(1193, 417)","(1216, 421)","(1235, 433)","(1116, 447)","(1111, 469)","(1105, 492)","(1100, 516)","(1083, 519)","(1091, 527)","(1102, 533)","(1116, 530)","(1130, 526)","(1053, 431)","(1066, 427)","(1081, 430)","(1093, 441)","(1077, 443)","(1062, 440)","(1157, 450)","(1172, 444)","(1188, 446)","(1202, 454)","(1187, 459)","(1171, 457)","(1071, 553)","(1080, 549)","(1093, 548)","(1103, 552)","(1115, 551)","(1134, 557)","(1152, 566)","(1133, 585)","(1115, 592)","(1101, 591)","(1090, 587)","(1079, 576)","(1078, 556)","(1092, 556)","(1102, 558)","(1114, 559)","(1143, 566)","(1116, 576)","(1103, 575)","(1092, 571)",0.28,1.18,75.0,0.35,0.18,0.33,0.05,-15.5,0.05,0.35,61.9,64.9,93.2,63.4,63.3,101.9,39.76,43.11,58.41
633,-524288,82,-56,-1,-1,0,"(1030, 415)","(1024, 446)","(1022, 476)","(1024, 508)","(1028, 540)","(1039, 572)","(1052, 602)","(1069, 633)","(1097, 646)","(1129, 647)","(1162, 631)","(1195, 611)","(1223, 585)","(1245, 553)","(1258, 518)","(1266, 481)","(1272, 442)","(1033, 396)","(1047, 389)","(1064, 394)","(1080, 404)","(1096, 417)","(1146, 424)","(1169, 418)","(1192, 416)","(1215, 420)","(1233, 430)","(1115, 449)","(1110, 471)","(1105, 494)","(1099, 518)","(1082, 520)","(1091, 529)","(1102, 536)","(1115, 533)","(1129, 528)","(1051, 432)","(1063, 428)","(1079, 431)","(1092, 443)","(1076, 445)","(1060, 442)","(1155, 452)","(1170, 445)","(1187, 448)","(1201, 456)","(1187, 462)","(1170, 459)","(1071, 556)","(1080, 551)","(1093, 550)","(1102, 554)","(1114, 553)","(1132, 559)","(1151, 569)","(1132, 587)","(1112, 594)","(1099, 593)","(1088, 589)","(1077, 578)","(1078, 558)","(1092, 558)","(1101, 561)","(1112, 562)","(1142, 569)","(1113, 578)","(1101, 577)","(1091, 573)",0.3,1.19,75.0,0.36,0.19,0.33,0.05,-17.0,0.05,0.35,67.8,70.5,100.8,63.55,62.3,101.9,41.23,43.88,58.7
666,-589824,82,-56,-1,-1,0,"(1029, 414)","(1022, 445)","(1019, 476)","(1019, 508)","(1023, 541)","(1034, 573)","(1049, 605)","(1067, 635)","(1095, 649)","(1127, 648)","(1160, 632)","(1190, 611)","(1216, 584)","(1235, 553)","(1246, 518)","(1254, 482)","(1259, 446)","(1030, 403)","(1045, 396)","(1062, 400)","(1080, 408)","(1097, 421)","(1141, 427)","(1165, 421)","(1190, 420)","(1214, 424)","(1232, 438)","(1115, 448)","(1109, 471)","(1103, 495)","(1097, 520)","(1078, 521)","(1088, 530)","(1099, 537)","(1114, 534)","(1128, 530)","(1049, 433)","(1062, 429)","(1077, 432)","(1090, 443)","(1074, 445)","(1059, 442)","(1154, 453)","(1170, 445)","(1187, 448)","(1200, 456)","(1186, 462)","(1169, 459)","(1064, 553)","(1075, 551)","(1089, 552)","(1100, 557)","(1113, 556)","(1133, 561)","(1153, 570)","(1133, 589)","(1112, 596)","(1098, 595)","(1085, 591)","(1073, 578)","(1071, 556)","(1088, 560)","(1099, 563)","(1113, 564)","(1144, 570)","(1113, 580)","(1099, 579)","(1087, 575)",0.3,1.14,75.0,0.38,0.18,0.38,0.05,-16.5,0.05,0.35,60.4,62.9,93.3,67.25,66.15,105.6,37.29,41.29,59.05
700,-720896,82,-56,-1,-1,0,"(1027, 416)","(1020, 448)","(1017, 479)","(1017, 511)","(1021, 544)","(1032, 576)","(1046, 607)","(1064, 638)","(1093, 651)","(1126, 650)","(1159, 634)","(1190, 613)","(1216, 587)","(1236, 555)","(1246, 520)","(1254, 485)","(1259, 448)","(1027, 405)","(1041, 398)","(1059, 402)","(1077, 410)","(1094, 423)","(1139, 428)","(1163, 421)","(1188, 420)","(1213, 424)","(1230, 437)","(1112, 449)","(1107, 473)","(1101, 496)","(1095, 521)","(1077, 523)","(1086, 531)","(1097, 538)","(1112, 535)","(1126, 531)","(1047, 435)","(1059, 431)","(1074, 434)","(1087, 445)","(1071, 447)","(1056, 444)","(1152, 453)","(1167, 446)","(1184, 448)","(1198, 457)","(1184, 462)","(1167, 460)","(1063, 556)","(1073, 554)","(1086, 554)","(1097, 559)","(1110, 557)","(1129, 563)","(1149, 572)","(1129, 590)","(1109, 597)","(1095, 596)","(1083, 592)","(1071, 580)","(1070, 559)","(1085, 562)","(1096, 565)","(1109, 566)","(1140, 572)","(1110, 580)","(1097, 580)","(1085, 576)",0.3,1.16,75.0,0.37,0.17,0.37,0.05,-16.0,0.06,0.35,63.1,65.3,94.5,64.15,62.75,102.2,39.35,41.7,57.76
733,-720896,82,-56,-1,-1,0,"(1026, 419)","(1020, 450)","(1018, 481)","(1017, 513)","(1021, 546)","(1032, 578)","(1045, 609)","(1064, 638)","(1092, 652)","(1125, 652)","(1158, 636)","(1188, 615)","(1214, 588)","(1233, 556)","(1243, 522)","(1252, 485)","(1257, 448)","(1026, 406)","(1040, 399)","(1058, 402)","(1076, 410)","(1093, 422)","(1137, 428)","(1161, 422)","(1186, 421)","(1210, 426)","(1228, 439)","(1111, 450)","(1105, 473)","(1099, 497)","(1093, 521)","(1075, 524)","(1084, 532)","(1096, 539)","(1110, 536)","(1124, 532)","(1045, 435)","(1057, 431)","(1073, 434)","(1085, 445)","(1069, 447)","(1054, 444)","(1150, 455)","(1166, 447)","(1183, 450)","(1197, 458)","(1182, 464)","(1165, 462)","(1061, 558)","(1072, 555)","(1085, 555)","(1096, 560)","(1110, 559)","(1129, 565)","(1149, 575)","(1128, 592)","(1108, 598)","(1094, 597)","(1081, 593)","(1069, 581)","(1069, 561)","(1084, 563)","(1096, 566)","(1109, 567)","(1140, 575)","(1109, 582)","(1095, 581)","(1083, 577)",0.3,1.13,75.0,0.37,0.17,0.38,0.05,-16.5,0.05,0.35,60.6,63.0,92.7,63.0,61.4,101.3,48.76,52.41,69.82
766,-720896,82,-56,-1,-1,0,"(1024, 419)","(1017, 451)","(1015, 482)","(1015, 513)","(1019, 546)","(1030, 578)","(1044, 609)","(1062, 639)","(1089, 653)","(1122, 654)","(1156, 639)","(1187, 617)","(1213, 591)","(1232, 558)","(1243, 523)","(1251, 486)","(1257, 448)","(1024, 406)","(1037, 397)","(1056, 401)","(1074, 410)","(1091, 422)","(1135, 427)","(1160, 421)","(1186, 420)","(1211, 425)","(1229, 440)","(1108, 450)","(1103, 473)","(1097, 496)","(1091, 521)","(1072, 524)","(1082, 533)","(1093, 540)","(1108, 537)","(1123, 533)","(1042, 435)","(1055, 431)","(1071, 434)","(1084, 445)","(1068, 447)","(1052, 444)","(1149, 455)","(1165, 448)","(1182, 451)","(1196, 459)","(1181, 464)","(1164, 462)","(1060, 559)","(1070, 556)","(1083, 555)","(1094, 560)","(1107, 560)","(1127, 566)","(1147, 577)","(1126, 594)","(1106, 600)","(1091, 599)","(1078, 594)","(1067, 582)","(1067, 562)","(1082, 564)","(1093, 567)","(1107, 568)","(1138, 576)","(1107, 583)","(1093, 582)","(1081, 578)",0.28,1.19,75.0,0.38,0.18,0.37,0.05,-16.0,0.06,0.34,67.1,70.0,98.7,63.25,62.1,101.35,50.29,53.35,70.0
800,-720896,82,-56,-1,-1,0,"(1022, 420)","(1016, 451)","(1013, 482)","(1014, 513)","(1018, 546)","(1028, 579)","(1041, 610)","(1059, 641)","(1087, 654)","(1121, 654)","(1154, 638)","(1186, 617)","(1213, 590)","(1232, 557)","(1243, 522)","(1251, 486)","(1256, 448)","(1021, 404)","(1035, 397)","(1053, 401)","(1071, 409)","(1088, 422)","(1134, 428)","(1158, 421)","(1183, 420)","(1208, 425)","(1226, 438)","(1106, 450)","(1100, 473)","(1094, 497)","(1088, 522)","(1070, 524)","(1079, 533)","(1091, 540)","(1105, 537)","(1120, 532)","(1040, 435)","(1052, 431)","(1068, 434)","(1081, 446)","(1064, 447)","(1049, 445)","(1147, 455)","(1162, 447)","(1180, 450)","(1194, 458)","(1179, 464)","(1162, 461)","(1055, 558)","(1066, 556)","(1080, 556)","(1092, 561)","(1105, 559)","(1125, 565)","(1145, 573)","(1124, 592)","(1103, 599)","(1089, 598)","(1076, 594)","(1064, 582)","(1063, 561)","(1080, 564)","(1091, 567)","(1104, 568)","(1136, 573)","(1104, 583)","(1091, 582)","(1079, 578)",0.29,1.12,75.0,0.37,0.18,0.38,0.05,-16.5,0.05,0.35,63.3,65.7,96.1,66.7,66.35,104.85,48.58,51.58,69.23
833,-524288,82,-56,-1,-1,0,"(1018, 418)","(1013, 451)","(1011, 483)","(1013, 515)","(1017, 548)","(1027, 580)","(1042, 610)","(1059, 640)","(1087, 654)","(1120, 654)","(1155, 638)","(1187, 616)","(1216, 590)","(1237, 557)","(1249, 521)","(1258, 484)","(1265, 444)","(1019, 402)","(1032, 394)","(1050, 397)","(1067, 405)","(1083, 418)","(1135, 425)","(1160, 419)","(1185, 418)","(1209, 423)","(1227, 436)","(1104, 450)","(1099, 473)","(1093, 498)","(1087, 522)","(1069, 525)","(1079, 534)","(1090, 540)","(1105, 537)","(1119, 533)","(1037, 435)","(1050, 431)","(1066, 434)","(1079, 445)","(1063, 448)","(1047, 445)","(1145, 454)","(1161, 448)","(1178, 450)","(1193, 458)","(1178, 463)","(1161, 461)","(1058, 560)","(1068, 556)","(1081, 556)","(1092, 560)","(1105, 559)","(1124, 565)","(1144, 575)","(1122, 592)","(1102, 598)","(1087, 598)","(1075, 594)","(1064, 582)","(1065, 563)","(1080, 563)","(1091, 566)","(1104, 567)","(1135, 575)","(1103, 583)","(1089, 582)","(1078, 578)",0.26,1.15,75.0,0.36,0.18,0.34,0.05,-16.0,0.06,0.35,67.9,68.8,100.1,62.4,60.45,102.65,47.29,49.41,66.05
866,-458752,82,-56,-1,-1,0,"(1015, 417)","(1009, 448)","(1008, 480)","(1009, 511)","(1013, 545)","(1023, 579)","(1038, 612)","(1057, 642)","(1086, 654)","(1119, 654)","(1151, 639)","(1180, 618)","(1205, 591)","(1223, 560)","(1233, 525)","(1240, 490)","(1245, 453)","(1017, 407)","(1030, 399)","(1049, 402)","(1068, 410)","(1086, 422)","(1129, 427)","(1152, 420)","(1177, 420)","(1201, 424)","(1218, 438)","(1103, 449)","(1098, 473)","(1092, 498)","(1086, 523)","(1067, 525)","(1077, 534)","(1089, 541)","(1103, 537)","(1118, 533)","(1037, 435)","(1049, 430)","(1065, 433)","(1078, 445)","(1062, 446)","(1046, 444)","(1142, 454)","(1157, 446)","(1174, 448)","(1188, 457)","(1174, 462)","(1157, 460)","(1053, 558)","(1063, 556)","(1077, 555)","(1089, 560)","(1102, 559)","(1123, 564)","(1143, 573)","(1123, 593)","(1103, 601)","(1088, 600)","(1075, 597)","(1062, 584)","(1060, 561)","(1077, 564)","(1088, 567)","(1102, 568)","(1134, 573)","(1104, 585)","(1090, 584)","(1077, 580)",0.3,1.17,75.0,0.37,0.16,0.39,0.05,-16.0,0.06,0.36,61.8,62.8,91.4,68.75,67.6,108.05,46.88,49.88,68.0
900,-655360,82,-56,-1,-1,0,"(1014, 416)","(1008, 447)","(1006, 478)","(1006, 509)","(1009, 544)","(1019, 578)","(1034, 611)","(1053, 641)","(1083, 655)","(1117, 655)","(1150, 639)","(1181, 618)","(1206, 591)","(1223, 559)","(1233, 524)","(1240, 489)","(1245, 452)","(1015, 406)","(1028, 397)","(1046, 400)","(1065, 408)","(1084, 420)","(1129, 426)","(1153, 419)","(1178, 418)","(1203, 423)","(1220, 437)","(1102, 448)","(1096, 472)","(1090, 496)","(1084, 521)","(1066, 524)","(1076, 532)","(1087, 540)","(1102, 536)","(1117, 532)","(1035, 435)","(1047, 430)","(1063, 433)","(1076, 444)","(1060, 446)","(1044, 444)","(1143, 453)","(1159, 445)","(1176, 447)","(1190, 457)","(1175, 462)","(1158, 460)","(1051, 558)","(1061, 555)","(1076, 555)","(1087, 560)","(1101, 559)","(1122, 564)","(1143, 574)","(1123, 592)","(1102, 600)","(1087, 599)","(1074, 595)","(1060, 583)","(1059, 561)","(1075, 564)","(1087, 567)","(1101, 568)","(1134, 574)","(1103, 584)","(1088, 583)","(1076, 579)",0.31,1.18,75.0,0.38,0.15,0.39,0.05,-16.5,0.06,0.35,60.9,64.0,94.3,65.65,65.25,105.3,42.05,45.41,62.41
933,-720896,82,-56,-1,-1,0,"(1012, 418)","(1006, 449)","(1004, 480)","(1005, 511)","(1008, 545)","(1018, 579)","(1033, 612)","(1052, 642)","(1082, 655)","(1116, 655)","(1150, 640)","(1180, 618)","(1205, 591)","(1222, 559)","(1232, 524)","(1239, 489)","(1244, 452)","(1014, 407)","(1026, 398)","(1045, 400)","(1064, 407)","(1082, 419)","(1127, 424)","(1151, 418)","(1176, 417)","(1200, 422)","(1218, 436)","(1100, 447)","(1095, 471)","(1089, 495)","(1083, 519)","(1064, 523)","(1074, 532)","(1086, 539)","(1100, 536)","(1115, 532)","(1033, 434)","(1045, 429)","(1061, 432)","(1075, 444)","(1059, 446)","(1043, 443)","(1140, 452)","(1156, 444)","(1174, 446)","(1188, 455)","(1173, 461)","(1156, 459)","(1050, 558)","(1060, 555)","(1075, 554)","(1086, 559)","(1099, 558)","(1120, 564)","(1141, 574)","(1120, 592)","(1099, 599)","(1085, 598)","(1072, 595)","(1059, 582)","(1058, 561)","(1074, 564)","(1086, 567)","(1099, 568)","(1132, 574)","(1100, 583)","(1086, 582)","(1074, 578)",0.31,1.18,76.0,0.38,0.15,0.39,0.04,-17.0,0.06,0.34,60.6,63.2,93.6,65.8,64.55,103.8,43.11,46.05,63.82
966,11075584,82,-56,-1,-1,0,"(1011, 415)","(1005, 447)","(1003, 479)","(1003, 511)","(1007, 546)","(1017, 580)","(1031, 614)","(1050, 644)","(1081, 657)","(1116, 656)","(1150, 640)","(1180, 619)","(1205, 591)","(1223, 559)","(1233, 524)","(1240, 488)","(1245, 451)","(1012, 406)","(1025, 397)","(1045, 400)","(1064, 407)","(1082, 419)","(1127, 424)","(1152, 418)","(1177, 417)","(1202, 422)","(1220, 437)","(1101, 446)","(1095, 471)","(1089, 495)","(1082, 519)","(1064, 523)","(1074, 532)","(1086, 539)","(1100, 536)","(1115, 532)","(1033, 433)","(1045, 428)","(1061, 431)","(1074, 443)","(1058, 445)","(1042, 442)","(1141, 451)","(1157, 443)","(1175, 446)","(1189, 455)","(1174, 460)","(1157, 458)","(1050, 558)","(1060, 556)","(1074, 556)","(1086, 561)","(1100, 560)","(1120, 565)","(1142, 575)","(1121, 593)","(1099, 600)","(1085, 599)","(1071, 595)","(1058, 583)","(1057, 561)","(1074, 565)","(1086, 568)","(1099, 569)","(1133, 575)","(1100, 584)","(1086, 583)","(1074, 579)",0.3,1.17,76.0,0.38,0.16,0.39,0.05,-17.0,0.05,0.34,56.9,60.5,87.4,65.35,62.6,104.2,45.64,48.47,67.41
1000,-2359296,82,-56,-1,-1,0,"(1005, 420)","(1001, 452)","(1001, 484)","(1003, 517)","(1007, 550)","(1019, 583)","(1034, 615)","(1054, 645)","(1084, 658)","(1117, 657)","(1149, 641)","(1179, 620)","(1205, 594)","(1223, 563)","(1234, 527)","(1243, 491)","(1249, 453)","(1011, 409)","(1026, 399)","(1046, 401)","(1065, 409)","(1085, 419)","(1127, 423)","(1152, 417)","(1177, 416)","(1202, 421)","(1220, 436)","(1102, 444)","(1097, 468)","(1091, 493)","(1086, 518)","(1066, 522)","(1076, 530)","(1088, 538)","(1103, 534)","(1117, 530)","(1034, 434)","(1047, 430)","(1062, 432)","(1075, 442)","(1060, 443)","(1045, 441)","(1143, 450)","(1158, 444)","(1175, 446)","(1188, 454)","(1174, 458)","(1158, 456)","(1051, 561)","(1063, 557)","(1076, 556)","(1088, 562)","(1102, 560)","(1122, 566)","(1142, 576)","(1122, 592)","(1101, 598)","(1087, 597)","(1074, 593)","(1061, 582)","(1059, 564)","(1076, 567)","(1088, 570)","(1101, 570)","(1133, 577)","(1102, 581)","(1088, 580)","(1076, 576)",0.26,1.12,76.0,0.35,0.13,0.37,0.03,-13.5,0.06,0.34,54.5,57.5,86.0,55.7,52.6,95.95,44.05,48.05,65.47
1033,-262144,82,-56,-1,-1,0,"(1005, 420)","(1000, 452)","(1000, 484)","(1001, 516)","(1006, 550)","(1017, 583)","(1033, 615)","(1053, 645)","(1084, 657)","(1117, 657)","(1149, 642)","(1179, 620)","(1204, 594)","(1222, 562)","(1233, 527)","(1242, 491)","(1248, 454)","(1014, 409)","(1029, 399)","(1049, 401)","(1069, 409)","(1088, 420)","(1129, 423)","(1154, 417)","(1178, 416)","(1203, 421)","(1220, 436)","(1104, 444)","(1099, 468)","(1094, 492)","(1089, 518)","(1069, 523)","(1079, 531)","(1090, 538)","(1105, 535)","(1119, 531)","(1037, 434)","(1050, 431)","(1065, 433)","(1077, 442)","(1062, 443)","(1048, 441)","(1144, 450)","(1160, 444)","(1176, 447)","(1189, 454)","(1175, 458)","(1159, 455)","(1052, 561)","(1064, 558)","(1078, 558)","(1090, 563)","(1103, 562)","(1122, 568)","(1143, 576)","(1122, 590)","(1102, 595)","(1088, 594)","(1075, 590)","(1063, 580)","(1060, 564)","(1078, 569)","(1089, 572)","(1103, 573)","(1134, 577)","(1103, 578)","(1089, 577)","(1078, 573)",0.24,1.08,76.0,0.35,0.14,0.37,0.02,-13.0,0.06,0.34,56.6,59.0,87.6,56.15,51.8,95.35,44.76,47.64,67.0
1066,0,80,-56,-1,-1,0,"(1014, 422)","(1008, 454)","(1006, 485)","(1007, 518)","(1011, 551)","(1021, 584)","(1037, 615)","(1056, 644)","(1085, 657)","(1119, 657)","(1152, 641)","(1183, 620)","(1209, 593)","(1228, 560)","(1238, 525)","(1247, 488)","(1252, 450)","(1018, 407)","(1031, 397)","(1051, 398)","(1070, 405)","(1089, 416)","(1133, 421)","(1158, 414)","(1184, 414)","(1208, 420)","(1226, 435)","(1107, 443)","(1102, 467)","(1097, 490)","(1092, 515)","(1071, 522)","(1081, 530)","(1092, 537)","(1106, 534)","(1120, 530)","(1038, 432)","(1051, 428)","(1067, 430)","(1080, 441)","(1064, 442)","(1049, 440)","(1147, 449)","(1163, 443)","(1180, 445)","(1193, 454)","(1179, 458)","(1162, 456)","(1052, 560)","(1065, 557)","(1080, 557)","(1091, 562)","(1105, 561)","(1124, 568)","(1144, 577)","(1122, 590)","(1102, 595)","(1087, 594)","(1075, 590)","(1062, 579)","(1060, 563)","(1079, 568)","(1090, 572)","(1104, 573)","(1135, 577)","(1103, 578)","(1089, 577)","(1077, 573)",0.28,1.04,76.0,0.37,0.13,0.38,0.02,-14.5,0.05,0.33,62.7,65.6,94.7,60.3,54.7,100.4,43.41,46.64,64.17
1100,458752,80,-56,-1,-1,0,"(1013, 420)","(1008, 452)","(1006, 484)","(1006, 517)","(1011, 551)","(1022, 584)","(1038, 615)","(1058, 644)","(1088, 657)","(1122, 656)","(1155, 640)","(1185, 618)","(1210, 591)","(1228, 558)","(1238, 523)","(1247, 487)","(1252, 450)","(1019, 406)","(1033, 396)","(1053, 397)","(1073, 404)","(1092, 416)","(1135, 420)","(1160, 413)","(1186, 413)","(1210, 419)","(1228, 433)","(1109, 443)","(1105, 466)","(1100, 489)","(1095, 513)","(1074, 521)","(1083, 528)","(1095, 535)","(1109, 532)","(1123, 529)","(1039, 432)","(1052, 427)","(1068, 429)","(1081, 440)","(1065, 442)","(1049, 440)","(1149, 448)","(1165, 441)","(1182, 443)","(1196, 452)","(1181, 457)","(1164, 455)","(1054, 559)","(1067, 555)","(1082, 554)","(1094, 560)","(1107, 558)","(1127, 565)","(1146, 575)","(1125, 591)","(1105, 597)","(1090, 596)","(1077, 592)","(1064, 581)","(1062, 562)","(1081, 566)","(1093, 569)","(1107, 570)","(1137, 575)","(1106, 579)","(1092, 578)","(1080, 575)",0.29,1.06,76.0,0.37,0.13,0.38,0.03,-15.5,0.05,0.32,66.6,69.0,99.1,59.0,55.15,100.55,43.35,46.88,63.52
1133,1507328,80,-56,-1,-1,0,"(1014, 422)","(1009, 455)","(1007, 487)","(1008, 519)","(1013, 553)","(1025, 586)","(1041, 617)","(1061, 645)","(1090, 658)","(1124, 657)","(1156, 640)","(1186, 618)","(1211, 591)","(1229, 559)","(1239, 523)","(1247, 487)","(1253, 450)","(1020, 406)","(1034, 396)","(1054, 397)","(1074, 404)","(1092, 416)","(1138, 419)","(1163, 412)","(1189, 412)","(1213, 418)","(1230, 433)","(1112, 442)","(1107, 466)","(1102, 489)","(1097, 513)","(1076, 520)","(1086, 528)","(1097, 535)","(1112, 531)","(1125, 528)","(1040, 432)","(1054, 427)","(1070, 429)","(1083, 440)","(1067, 442)","(1051, 440)","(1151, 448)","(1167, 441)","(1184, 443)","(1198, 452)","(1184, 457)","(1167, 454)","(1055, 558)","(1069, 554)","(1084, 553)","(1096, 558)","(1110, 557)","(1129, 563)","(1149, 573)","(1128, 591)","(1108, 598)","(1093, 598)","(1079, 594)","(1065, 582)","(1063, 561)","(1083, 564)","(1095, 567)","(1109, 568)","(1140, 573)","(1109, 581)","(1094, 581)","(1082, 577)",0.28,1.03,76.0,0.37,0.14,0.39,0.04,-15.5,0.05,0.32,63.0,66.7,95.1,66.15,62.9,105.5,46.29,49.52,67.41
1166,1703936,80,-56,-1,-1,0,"(1014, 420)","(1009, 454)","(1008, 487)","(1008, 520)","(1013, 555)","(1025, 588)","(1041, 619)","(1062, 647)","(1092, 660)","(1126, 658)","(1158, 641)","(1187, 619)","(1212, 591)","(1229, 559)","(1239, 525)","(1247, 489)","(1253, 451)","(1021, 407)","(1035, 396)","(1056, 397)","(1076, 403)","(1096, 415)","(1141, 420)","(1165, 413)","(1191, 413)","(1215, 419)","(1231, 435)","(1114, 442)","(1110, 465)","(1105, 489)","(1100, 513)","(1078, 519)","(1088, 527)","(1100, 534)","(1114, 531)","(1128, 527)","(1043, 432)","(1056, 426)","(1072, 428)","(1084, 440)","(1069, 441)","(1053, 439)","(1154, 448)","(1169, 440)","(1186, 443)","(1199, 452)","(1185, 456)","(1169, 454)","(1056, 558)","(1069, 552)","(1086, 551)","(1098, 556)","(1112, 555)","(1132, 561)","(1151, 573)","(1131, 593)","(1110, 600)","(1095, 600)","(1081, 597)","(1066, 584)","(1064, 561)","(1085, 561)","(1097, 564)","(1112, 565)","(1142, 573)","(1111, 583)","(1097, 583)","(1083, 579)",0.29,1.05,76.0,0.36,0.13,0.39,0.05,-15.5,0.05,0.32,60.5,64.1,93.7,65.95,62.6,105.25,48.35,51.0,69.29
1200,-393216,80,-56,-1,-1,0,"(1014, 419)","(1010, 453)","(1009, 487)","(1010, 520)","(1015, 555)","(1027, 588)","(1043, 618)","(1064, 646)","(1094, 658)","(1126, 656)","(1157, 639)","(1186, 617)","(1210, 589)","(1228, 557)","(1238, 523)","(1246, 486)","(1252, 449)","(1022, 407)","(1036, 396)","(1057, 397)","(1077, 403)","(1096, 414)","(1141, 419)","(1165, 412)","(1190, 412)","(1214, 417)","(1230, 432)","(1115, 441)","(1110, 465)","(1106, 488)","(1101, 513)","(1079, 518)","(1090, 526)","(1101, 533)","(1115, 530)","(1129, 526)","(1044, 432)","(1057, 427)","(1073, 429)","(1086, 439)","(1070, 441)","(1055, 439)","(1153, 447)","(1168, 441)","(1185, 443)","(1198, 451)","(1184, 455)","(1168, 453)","(1058, 558)","(1071, 552)","(1087, 550)","(1100, 555)","(1114, 553)","(1134, 559)","(1151, 571)","(1132, 592)","(1112, 601)","(1097, 601)","(1082, 597)","(1067, 585)","(1066, 560)","(1086, 559)","(1099, 562)","(1113, 562)","(1143, 571)","(1113, 584)","(1098, 584)","(1085, 580)",0.26,1.03,76.0,0.36,0.11,0.39,0.06,-14.0,0.05,0.33,59.9,61.7,91.0,62.5,59.6,101.05,48.47,51.58,70.58
1233,-786432,80,-56,-1,-1,0,"(1015, 420)","(1011, 453)","(1010, 486)","(1010, 520)","(1014, 554)","(1026, 588)","(1042, 619)","(1064, 646)","(1093, 658)","(1126, 656)","(1157, 639)","(1186, 616)","(1210, 589)","(1227, 558)","(1237, 524)","(1245, 489)","(1252, 452)","(1026, 409)","(1040, 397)","(1061, 397)","(1081, 404)","(1101, 415)","(1143, 418)","(1167, 412)","(1192, 412)","(1215, 418)","(1230, 434)","(1118, 441)","(1113, 464)","(1109, 488)","(1104, 512)","(1082, 517)","(1092, 525)","(1103, 532)","(1118, 529)","(1131, 525)","(1048, 435)","(1061, 432)","(1075, 434)","(1087, 441)","(1073, 442)","(1059, 440)","(1155, 449)","(1170, 445)","(1185, 448)","(1198, 454)","(1184, 456)","(1169, 454)","(1059, 557)","(1072, 550)","(1089, 548)","(1101, 553)","(1115, 551)","(1134, 558)","(1151, 571)","(1133, 593)","(1113, 601)","(1098, 601)","(1083, 597)","(1068, 584)","(1066, 559)","(1088, 557)","(1100, 560)","(1114, 560)","(1143, 571)","(1114, 584)","(1099, 584)","(1086, 581)",0.19,1.03,76.0,0.34,0.13,0.38,0.07,-10.5,0.05,0.32,55.5,57.1,87.0,59.5,58.5,99.45,49.82,53.35,71.47
1266,-720896,80,-56,-1,-1,0,"(1015, 421)","(1011, 455)","(1009, 488)","(1009, 521)","(1014, 555)","(1026, 588)","(1043, 618)","(1065, 645)","(1094, 657)","(1127, 655)","(1158, 638)","(1187, 617)","(1211, 590)","(1228, 558)","(1238, 525)","(1246, 490)","(1252, 453)","(1027, 408)","(1041, 396)","(1062, 396)","(1083, 402)","(1103, 413)","(1143, 418)","(1168, 411)","(1193, 411)","(1217, 418)","(1231, 434)","(1119, 440)","(1115, 463)","(1110, 486)","(1106, 510)","(1083, 516)","(1093, 523)","(1105, 530)","(1119, 527)","(1132, 523)","(1049, 435)","(1062, 432)","(1076, 434)","(1088, 440)","(1074, 441)","(1060, 440)","(1156, 448)","(1171, 446)","(1186, 448)","(1199, 454)","(1184, 456)","(1170, 454)","(1060, 555)","(1073, 549)","(1090, 547)","(1103, 552)","(1117, 551)","(1136, 558)","(1153, 570)","(1134, 591)","(1114, 600)","(1098, 599)","(1084, 596)","(1069, 583)","(1068, 558)","(1089, 556)","(1102, 559)","(1116, 560)","(1145, 570)","(1115, 583)","(1100, 583)","(1087, 580)",0.18,1.01,76.0,0.34,0.12,0.39,0.06,-9.5,0.05,0.32,59.3,61.6,90.8,62.45,60.6,100.45,49.47,52.58,70.7
1300,-655360,80,-56,-1,-1,0,"(1017, 417)","(1012, 450)","(1010, 483)","(1010, 517)","(1015, 552)","(1027, 586)","(1044, 617)","(1066, 645)","(1096, 656)","(1128, 654)","(1159, 637)","(1187, 614)","(1211, 586)","(1228, 555)","(1238, 522)","(1246, 487)","(1252, 450)","(1028, 406)","(1043, 394)","(1064, 395)","(1085, 401)","(1105, 413)","(1146, 417)","(1171, 411)","(1195, 410)","(1218, 416)","(1233, 432)","(1121, 439)","(1117, 463)","(1113, 486)","(1108, 511)","(1085, 516)","(1095, 523)","(1107, 530)","(1121, 527)","(1134, 523)","(1051, 431)","(1064, 427)","(1078, 429)","(1091, 437)","(1076, 439)","(1062, 437)","(1158, 446)","(1173, 441)","(1189, 443)","(1201, 450)","(1188, 453)","(1173, 451)","(1062, 554)","(1076, 548)","(1092, 547)","(1105, 552)","(1119, 551)","(1138, 557)","(1155, 568)","(1137, 591)","(1116, 600)","(1101, 600)","(1087, 596)","(1071, 583)","(1069, 557)","(1091, 555)","(1104, 558)","(1118, 558)","(1147, 569)","(1117, 584)","(1103, 584)","(1089, 580)",0.23,1.01,76.0,0.35,0.13,0.39,0.07,-12.0,0.05,0.33,57.8,61.3,91.6,64.75,62.8,101.15,50.35,53.29,71.17
1333,-589824,80,-56,-1,-1,0,"(1016, 412)","(1012, 445)","(1010, 478)","(1012, 512)","(1018, 546)","(1030, 580)","(1046, 611)","(1067, 641)","(1097, 654)","(1130, 652)","(1161, 634)","(1190, 612)","(1216, 586)","(1235, 554)","(1246, 520)","(1256, 484)","(1264, 446)","(1028, 401)","(1044, 390)","(1064, 391)","(1084, 398)","(1102, 410)","(1149, 416)","(1173, 409)","(1198, 408)","(1221, 414)","(1237, 429)","(1122, 438)","(1118, 461)","(1113, 483)","(1109, 507)","(1087, 513)","(1097, 521)","(1108, 527)","(1122, 525)","(1135, 521)","(1050, 428)","(1064, 423)","(1080, 426)","(1093, 437)","(1077, 439)","(1061, 436)","(1159, 445)","(1175, 438)","(1191, 440)","(1204, 449)","(1190, 453)","(1174, 451)","(1066, 553)","(1079, 546)","(1095, 544)","(1106, 548)","(1119, 547)","(1138, 554)","(1154, 567)","(1135, 590)","(1115, 598)","(1101, 597)","(1088, 594)","(1074, 581)","(1074, 555)","(1093, 552)","(1105, 554)","(1118, 555)","(1146, 567)","(1117, 581)","(1103, 581)","(1091, 577)",0.28,1.04,76.0,0.35,0.13,0.35,0.07,-15.5,0.05,0.31,64.7,67.5,97.8,55.05,53.2,92.8,49.7,52.11,70.58
1366,-589824,80,-56,-1,-1,0,"(1019, 412)","(1013, 445)","(1011, 478)","(1012, 511)","(1017, 545)","(1030, 578)","(1047, 609)","(1068, 638)","(1098, 651)","(1130, 649)","(1160, 633)","(1188, 611)","(1213, 585)","(1230, 554)","(1241, 520)","(1250, 485)","(1256, 448)","(1032, 402)","(1047, 391)","(1068, 393)","(1088, 399)","(1107, 411)","(1151, 415)","(1175, 409)","(1199, 409)","(1222, 415)","(1238, 430)","(1125, 437)","(1121, 460)","(1116, 482)","(1112, 506)","(1089, 512)","(1099, 519)","(1111, 526)","(1124, 523)","(1137, 520)","(1053, 426)","(1067, 420)","(1083, 423)","(1095, 435)","(1080, 436)","(1064, 434)","(1162, 443)","(1177, 435)","(1194, 437)","(1206, 447)","(1193, 451)","(1177, 449)","(1066, 551)","(1080, 544)","(1096, 543)","(1108, 547)","(1121, 546)","(1140, 553)","(1157, 565)","(1139, 588)","(1119, 596)","(1104, 596)","(1091, 593)","(1076, 579)","(1074, 553)","(1095, 551)","(1107, 554)","(1120, 555)","(1149, 565)","(1120, 579)","(1106, 579)","(1093, 575)",0.31,1.03,76.0,0.36,0.14,0.38,0.07,-16.0,0.05,0.32,60.7,62.9,91.3,61.15,59.15,99.4,49.17,52.0,69.76
1400,-655360,80,-56,-1,-1,0,"(1018, 409)","(1013, 443)","(1011, 476)","(1013, 509)","(1019, 543)","(1031, 576)","(1049, 608)","(1071, 636)","(1100, 649)","(1132, 647)","(1162, 630)","(1190, 608)","(1214, 580)","(1231, 549)","(1241, 516)","(1250, 481)","(1256, 445)","(1033, 400)","(1049, 390)","(1070, 392)","(1090, 398)","(1110, 410)","(1153, 414)","(1176, 408)","(1200, 407)","(1223, 412)","(1238, 427)","(1127, 435)","(1123, 458)","(1118, 481)","(1114, 505)","(1091, 511)","(1101, 518)","(1113, 525)","(1127, 522)","(1139, 519)","(1055, 424)","(1069, 418)","(1085, 421)","(1097, 433)","(1082, 434)","(1066, 431)","(1163, 441)","(1178, 433)","(1195, 435)","(1207, 445)","(1194, 449)","(1178, 447)","(1068, 548)","(1082, 543)","(1098, 541)","(1110, 546)","(1123, 545)","(1142, 552)","(1159, 564)","(1141, 585)","(1121, 593)","(1107, 593)","(1093, 590)","(1078, 576)","(1076, 551)","(1097, 550)","(1109, 553)","(1122, 554)","(1151, 564)","(1122, 577)","(1109, 576)","(1096, 573)",0.31,1.02,76.0,0.36,0.13,0.38,0.06,-16.0,0.05,0.32,59.5,62.5,91.9,62.9,60.9,99.6,47.7,50.64,67.7
1433,-589824,80,-56,-1,-1,0,"(1019, 407)","(1014, 441)","(1012, 474)","(1013, 508)","(1019, 541)","(1032, 574)","(1050, 605)","(1072, 633)","(1101, 645)","(1133, 644)","(1163, 627)","(1191, 606)","(1215, 579)","(1232, 549)","(1242, 515)","(1251, 481)","(1258, 445)","(1036, 398)","(1052, 389)","(1072, 390)","(1092, 396)","(1111, 408)","(1155, 413)","(1178, 406)","(1202, 406)","(1225, 411)","(1240, 426)","(1129, 434)","(1125, 457)","(1120, 479)","(1116, 503)","(1093, 509)","(1103, 516)","(1114, 523)","(1128, 520)","(1141, 517)","(1057, 422)","(1071, 416)","(1088, 419)","(1099, 431)","(1084, 432)","(1068, 430)","(1165, 440)","(1180, 431)","(1197, 433)","(1209, 443)","(1196, 448)","(1180, 446)","(1071, 547)","(1085, 542)","(1101, 540)","(1112, 545)","(1125, 544)","(1143, 551)","(1160, 562)","(1142, 581)","(1123, 588)","(1109, 588)","(1095, 584)","(1081, 572)","(1078, 550)","(1099, 549)","(1111, 552)","(1124, 553)","(1152, 562)","(1124, 571)","(1111, 571)","(1098, 567)",0.34,1.0,76.0,0.35,0.14,0.37,0.06,-16.5,0.05,0.32,59.1,61.7,90.6,61.0,58.5,98.5,46.23,48.94,67.11
1466,-589824,80,-56,-1,-1,0,"(1022, 405)","(1017, 438)","(1016, 470)","(1016, 503)","(1022, 537)","(1034, 569)","(1052, 599)","(1074, 627)","(1103, 639)","(1134, 638)","(1164, 622)","(1191, 601)","(1214, 575)","(1231, 544)","(1242, 511)","(1251, 477)","(1258, 442)","(1038, 397)","(1054, 387)","(1074, 389)","(1094, 396)","(1113, 406)","(1154, 411)","(1178, 404)","(1201, 404)","(1224, 409)","(1240, 423)","(1130, 431)","(1126, 454)","(1121, 476)","(1117, 500)","(1094, 506)","(1105, 514)","(1116, 520)","(1129, 518)","(1142, 515)","(1059, 420)","(1073, 414)","(1089, 416)","(1100, 429)","(1086, 430)","(1070, 428)","(1166, 437)","(1181, 429)","(1198, 431)","(1210, 440)","(1197, 446)","(1181, 443)","(1074, 546)","(1087, 541)","(1103, 540)","(1113, 545)","(1125, 543)","(1142, 551)","(1159, 561)","(1141, 577)","(1123, 582)","(1109, 582)","(1097, 578)","(1084, 567)","(1082, 548)","(1101, 550)","(1112, 553)","(1124, 554)","(1150, 561)","(1124, 565)","(1111, 565)","(1100, 561)",0.32,1.0,76.0,0.36,0.12,0.36,0.04,-16.5,0.05,0.33,60.9,62.6,91.8,56.5,53.35,92.4,44.23,46.58,65.23
1500,-589824,80,-56,-1,-1,0,"(1021, 403)","(1017, 436)","(1015, 469)","(1016, 502)","(1022, 535)","(1034, 567)","(1052, 597)","(1074, 623)","(1104, 635)","(1136, 634)","(1166, 618)","(1193, 597)","(1215, 572)","(1231, 542)","(1241, 509)","(1250, 475)","(1256, 440)","(1038, 395)","(1055, 386)","(1075, 387)","(1096, 394)","(1115, 405)","(1157, 409)","(1180, 403)","(1202, 403)","(1225, 408)","(1239, 422)","(1132, 429)","(1128, 452)","(1124, 475)","(1120, 498)","(1097, 505)","(1107, 512)","(1118, 519)","(1131, 517)","(1143, 514)","(1060, 418)","(1074, 412)","(1090, 414)","(1102, 427)","(1087, 429)","(1071, 426)","(1166, 436)","(1182, 427)","(1199, 429)","(1211, 439)","(1198, 444)","(1182, 442)","(1076, 544)","(1090, 540)","(1105, 540)","(1115, 545)","(1127, 544)","(1143, 551)","(1159, 560)","(1141, 571)","(1124, 575)","(1111, 574)","(1099, 570)","(1086, 561)","(1083, 546)","(1103, 551)","(1114, 554)","(1126, 555)","(1151, 560)","(1125, 559)","(1113, 558)","(1102, 554)",0.33,0.95,76.0,0.37,0.14,0.35,0.02,-17.0,0.04,0.33,60.1,62.9,92.1,48.55,45.15,85.35,45.35,48.58,67.7
1533,-327680,80,-56,-1,-1,0,"(1025, 404)","(1021, 437)","(1020, 469)","(1021, 501)","(1027, 534)","(1039, 565)","(1057, 594)","(1078, 620)","(1107, 632)","(1139, 631)","(1168, 616)","(1195, 595)","(1217, 570)","(1234, 541)","(1244, 508)","(1253, 475)","(1259, 440)","(1040, 396)","(1056, 385)","(1077, 386)","(1097, 393)","(1117, 403)","(1157, 408)","(1181, 402)","(1204, 402)","(1226, 408)","(1241, 423)","(1134, 428)","(1130, 451)","(1125, 473)","(1121, 497)","(1099, 504)","(1109, 511)","(1120, 518)","(1133, 516)","(1145, 513)","(1063, 418)","(1077, 412)","(1093, 414)","(1104, 427)","(1090, 428)","(1074, 426)","(1168, 435)","(1184, 426)","(1201, 428)","(1212, 438)","(1200, 444)","(1183, 442)","(1080, 543)","(1093, 540)","(1107, 539)","(1117, 545)","(1128, 544)","(1143, 550)","(1159, 560)","(1141, 569)","(1125, 572)","(1113, 571)","(1102, 567)","(1090, 559)","(1087, 546)","(1105, 550)","(1116, 554)","(1127, 555)","(1151, 560)","(1126, 556)","(1115, 555)","(1104, 551)",0.36,0.96,76.0,0.36,0.13,0.33,0.01,-17.0,0.04,0.33,61.8,63.9,93.0,49.8,45.9,90.3,48.76,52.05,69.88
1566,-589824,80,-56,-1,-1,0,"(1024, 405)","(1020, 438)","(1020, 470)","(1020, 503)","(1026, 535)","(1039, 566)","(1058, 594)","(1080, 620)","(1109, 631)","(1140, 630)","(1169, 615)","(1196, 595)","(1218, 570)","(1233, 540)","(1244, 508)","(1253, 474)","(1259, 440)","(1041, 397)","(1058, 387)","(1079, 387)","(1100, 394)","(1120, 405)","(1159, 410)","(1182, 403)","(1205, 402)","(1228, 407)","(1243, 422)","(1136, 429)","(1132, 451)","(1128, 474)","(1123, 497)","(1102, 505)","(1111, 512)","(1122, 519)","(1135, 516)","(1147, 513)","(1064, 418)","(1078, 412)","(1094, 414)","(1106, 427)","(1091, 429)","(1075, 426)","(1170, 435)","(1186, 426)","(1202, 428)","(1214, 438)","(1202, 443)","(1185, 441)","(1081, 543)","(1095, 540)","(1109, 540)","(1119, 545)","(1130, 544)","(1146, 550)","(1163, 558)","(1145, 568)","(1128, 571)","(1116, 570)","(1104, 566)","(1092, 559)","(1088, 545)","(1108, 550)","(1118, 553)","(1130, 554)","(1155, 559)","(1129, 555)","(1118, 555)","(1107, 551)",0.34,0.96,76.0,0.36,0.12,0.34,0.01,-17.0,0.04,0.33,59.5,63.1,92.2,51.05,46.5,94.1,44.76,48.23,67.58
1600,-786432,80,-56,-1,-1,0,"(1034, 408)","(1029, 440)","(1026, 472)","(1027, 503)","(1033, 536)","(1046, 566)","(1063, 593)","(1085, 618)","(1114, 629)","(1145, 627)","(1175, 612)","(1201, 592)","(1223, 567)","(1239, 538)","(1249, 505)","(1257, 473)","(1261, 439)","(1048, 389)","(1062, 378)","(1081, 377)","(1101, 383)","(1119, 395)","(1168, 402)","(1190, 395)","(1213, 396)","(1233, 403)","(1246, 419)","(1139, 429)","(1135, 451)","(1131, 473)","(1127, 495)","(1104, 504)","(1114, 511)","(1126, 518)","(1139, 515)","(1152, 511)","(1067, 419)","(1080, 412)","(1097, 415)","(1109, 428)","(1094, 430)","(1077, 428)","(1172, 437)","(1188, 428)","(1206, 430)","(1217, 440)","(1204, 446)","(1187, 444)","(1084, 541)","(1098, 538)","(1113, 537)","(1123, 542)","(1135, 541)","(1151, 547)","(1167, 556)","(1148, 568)","(1131, 572)","(1119, 571)","(1107, 568)","(1095, 559)","(1091, 543)","(1112, 548)","(1122, 552)","(1134, 552)","(1159, 555)","(1132, 556)","(1121, 556)","(1110, 552)",0.35,0.94,76.0,0.38,0.14,0.36,0.01,-18.0,0.05,0.33,72.8,75.6,108.4,58.05,54.85,98.5,47.82,52.29,70.82
1633,-917504,80,-56,-1,-1,0,"(1027, 406)","(1023, 438)","(1021, 471)","(1022, 503)","(1028, 536)","(1042, 566)","(1061, 594)","(1085, 619)","(1114, 630)","(1144, 630)","(1173, 615)","(1200, 595)","(1221, 570)","(1236, 541)","(1246, 509)","(1254, 476)","(1260, 442)","(1048, 397)","(1064, 388)","(1085, 389)","(1106, 396)","(1125, 407)","(1165, 412)","(1188, 406)","(1210, 405)","(1232, 410)","(1246, 424)","(1142, 432)","(1138, 454)","(1134, 477)","(1131, 500)","(1107, 507)","(1118, 514)","(1129, 520)","(1141, 518)","(1153, 515)","(1070, 420)","(1085, 416)","(1100, 418)","(1111, 429)","(1097, 430)","(1082, 428)","(1175, 438)","(1191, 431)","(1206, 433)","(1218, 442)","(1205, 446)","(1190, 444)","(1086, 544)","(1100, 541)","(1115, 541)","(1125, 546)","(1137, 545)","(1152, 551)","(1168, 559)","(1150, 569)","(1134, 572)","(1122, 571)","(1110, 568)","(1097, 559)","(1093, 546)","(1114, 552)","(1124, 555)","(1136, 556)","(1160, 559)","(1135, 557)","(1124, 556)","(1113, 552)",0.3,0.91,76.0,0.36,0.13,0.35,0.01,-14.5,0.04,0.34,60.2,62.9,92.1,53.45,49.35,95.45,46.64,50.05,70.41
1666,8192000,80,-56,-1,-1,0,"(1028, 409)","(1024, 442)","(1022, 474)","(1023, 507)","(1030, 539)","(1045, 570)","(1066, 597)","(1090, 621)","(1120, 632)","(1150, 630)","(1178, 614)","(1203, 594)","(1224, 569)","(1238, 541)","(1247, 509)","(1254, 477)","(1259, 445)","(1052, 401)","(1069, 392)","(1090, 393)","(1111, 400)","(1130, 411)","(1170, 415)","(1192, 409)","(1214, 407)","(1235, 412)","(1248, 425)","(1148, 436)","(1144, 458)","(1140, 480)","(1137, 502)","(1114, 509)","(1124, 516)","(1135, 522)","(1147, 520)","(1158, 517)","(1076, 426)","(1091, 423)","(1106, 424)","(1116, 434)","(1103, 436)","(1088, 433)","(1179, 442)","(1195, 436)","(1210, 438)","(1220, 446)","(1209, 450)","(1194, 448)","(1092, 545)","(1107, 543)","(1121, 542)","(1131, 547)","(1142, 546)","(1157, 552)","(1172, 560)","(1155, 570)","(1140, 573)","(1128, 572)","(1117, 569)","(1104, 561)","(1099, 547)","(1120, 553)","(1130, 556)","(1141, 557)","(1164, 560)","(1141, 558)","(1130, 557)","(1120, 554)",0.29,0.9,76.0,0.35,0.12,0.34,0.01,-13.5,0.04,0.33,55.5,58.3,87.2,51.3,47.25,94.75,50.41,53.7,72.88
1700,-1048576,80,-56,-1,-1,0,"(1038, 414)","(1034, 447)","(1033, 478)","(1033, 511)","(1039, 543)","(1054, 572)","(1075, 599)","(1100, 622)","(1130, 632)","(1160, 630)","(1187, 613)","(1213, 592)","(1233, 567)","(1246, 538)","(1254, 508)","(1261, 477)","(1267, 445)","(1062, 405)","(1079, 396)","(1101, 397)","(1122, 404)","(1142, 414)","(1182, 418)","(1204, 411)","(1225, 410)","(1245, 415)","(1258, 428)","(1159, 439)","(1156, 461)","(1154, 482)","(1151, 505)","(1126, 511)","(1136, 518)","(1147, 524)","(1159, 522)","(1171, 519)","(1086, 430)","(1100, 427)","(1115, 428)","(1125, 437)","(1112, 438)","(1098, 437)","(1189, 444)","(1204, 439)","(1219, 441)","(1229, 447)","(1218, 452)","(1204, 450)","(1101, 547)","(1117, 545)","(1133, 544)","(1143, 549)","(1154, 548)","(1168, 554)","(1181, 561)","(1165, 571)","(1151, 575)","(1139, 574)","(1127, 571)","(1113, 562)","(1108, 549)","(1131, 555)","(1142, 558)","(1153, 559)","(1174, 561)","(1152, 559)","(1141, 559)","(1130, 555)",0.27,0.82,76.0,0.34,0.12,0.34,0.01,-12.0,0.05,0.34,56.0,58.8,86.8,47.2,43.6,89.55,49.23,51.82,70.94
1733,-131072,80,-56,-1,-1,0,"(1043, 417)","(1039, 451)","(1037, 484)","(1039, 517)","(1048, 549)","(1064, 579)","(1086, 605)","(1113, 626)","(1143, 634)","(1173, 630)","(1197, 612)","(1217, 590)","(1233, 564)","(1244, 536)","(1251, 508)","(1255, 480)","(1256, 451)","(1073, 410)","(1091, 400)","(1114, 400)","(1136, 407)","(1156, 418)","(1193, 422)","(1213, 416)","(1233, 415)","(1250, 418)","(1260, 431)","(1172, 443)","(1172, 464)","(1171, 486)","(1170, 508)","(1139, 515)","(1151, 522)","(1164, 528)","(1177, 525)","(1188, 520)","(1097, 434)","(1111, 431)","(1126, 432)","(1137, 440)","(1123, 442)","(1109, 440)","(1198, 447)","(1213, 442)","(1226, 444)","(1236, 450)","(1225, 454)","(1211, 452)","(1110, 547)","(1130, 545)","(1148, 546)","(1160, 550)","(1172, 548)","(1185, 551)","(1196, 557)","(1183, 572)","(1168, 578)","(1156, 578)","(1142, 575)","(1126, 566)","(1117, 549)","(1147, 554)","(1159, 557)","(1171, 557)","(1190, 557)","(1170, 563)","(1157, 564)","(1145, 561)",0.26,0.71,76.0,0.36,0.11,0.4,0.03,-11.5,0.07,0.34,54.4,56.3,86.4,56.65,54.0,95.65,52.88,56.29,74.82
1766,131072,78,-56,-1,-1,0,"(1047, 417)","(1043, 451)","(1042, 485)","(1044, 519)","(1055, 551)","(1074, 580)","(1098, 606)","(1126, 627)","(1156, 634)","(1184, 630)","(1207, 610)","(1228, 588)","(1246, 563)","(1258, 536)","(1265, 508)","(1270, 480)","(1271, 452)","(1085, 413)","(1106, 405)","(1129, 406)","(1151, 413)","(1171, 424)","(1209, 428)","(1228, 422)","(1246, 420)","(1263, 422)","(1272, 433)","(1189, 448)","(1188, 470)","(1188, 492)","(1188, 515)","(1155, 520)","(1168, 527)","(1181, 534)","(1193, 531)","(1203, 525)","(1111, 439)","(1126, 435)","(1141, 436)","(1151, 444)","(1138, 446)","(1124, 444)","(1212, 451)","(1226, 446)","(1239, 447)","(1249, 453)","(1239, 457)","(1226, 456)","(1124, 553)","(1145, 552)","(1163, 553)","(1174, 557)","(1185, 555)","(1196, 559)","(1206, 563)","(1193, 574)","(1181, 579)","(1169, 579)","(1157, 577)","(1141, 569)","(1132, 555)","(1162, 562)","(1173, 565)","(1183, 564)","(1199, 564)","(1182, 564)","(1171, 565)","(1159, 562)",0.26,0.65,76.0,0.34,0.1,0.36,0.01,-11.0,0.06,0.36,48.4,51.5,77.7,45.55,41.5,86.85,51.11,53.23,69.64
1800,786432,78,-56,-1,-1,0,"(1057, 420)","(1053, 455)","(1052, 490)","(1055, 524)","(1067, 557)","(1087, 586)","(1111, 610)","(1139, 630)","(1168, 635)","(1195, 629)","(1217, 608)","(1237, 586)","(1255, 562)","(1267, 536)","(1275, 509)","(1278, 481)","(1278, 453)","(1098, 417)","(1119, 408)","(1142, 409)","(1165, 416)","(1185, 427)","(1224, 431)","(1241, 424)","(1258, 422)","(1273, 423)","(1281, 433)","(1203, 452)","(1203, 473)","(1204, 495)","(1205, 517)","(1171, 523)","(1183, 530)","(1196, 536)","(1208, 533)","(1218, 527)","(1122, 443)","(1138, 439)","(1153, 440)","(1164, 448)","(1150, 451)","(1135, 449)","(1224, 454)","(1238, 449)","(1251, 450)","(1260, 456)","(1251, 460)","(1237, 459)","(1135, 556)","(1157, 554)","(1178, 554)","(1189, 558)","(1199, 556)","(1210, 558)","(1218, 562)","(1206, 577)","(1194, 584)","(1182, 585)","(1169, 583)","(1152, 574)","(1143, 558)","(1176, 563)","(1187, 565)","(1198, 564)","(1212, 564)","(1195, 569)","(1184, 570)","(1172, 568)",0.27,0.6,76.0,0.35,0.07,0.37,0.02,-11.5,0.06,0.35,53.9,56.8,85.6,53.3,51.15,91.8,49.35,52.29,68.35
1833,1900544,78,-56,-1,-1,0,"(1060, 420)","(1056, 456)","(1055, 491)","(1058, 525)","(1071, 558)","(1093, 587)","(1119, 612)","(1147, 632)","(1177, 639)","(1203, 632)","(1223, 610)","(1241, 587)","(1259, 563)","(1272, 537)","(1279, 511)","(1282, 484)","(1281, 457)","(1107, 420)","(1128, 412)","(1152, 413)","(1176, 419)","(1197, 431)","(1234, 435)","(1251, 428)","(1267, 425)","(1281, 426)","(1288, 435)","(1214, 457)","(1215, 479)","(1217, 500)","(1219, 523)","(1182, 528)","(1196, 535)","(1209, 541)","(1221, 538)","(1230, 532)","(1132, 446)","(1148, 443)","(1163, 443)","(1174, 452)","(1161, 455)","(1146, 453)","(1232, 458)","(1246, 452)","(1260, 453)","(1268, 459)","(1259, 464)","(1246, 463)","(1145, 560)","(1169, 558)","(1190, 559)","(1201, 563)","(1211, 560)","(1221, 562)","(1227, 566)","(1217, 580)","(1205, 587)","(1194, 588)","(1182, 586)","(1163, 577)","(1153, 561)","(1188, 567)","(1199, 569)","(1209, 569)","(1221, 567)","(1207, 573)","(1196, 574)","(1185, 572)",0.3,0.55,76.0,0.35,0.06,0.37,0.02,-12.0,0.07,0.36,56.1,57.8,87.2,47.75,44.1,85.65,46.23,48.47,63.41
1866,1114112,78,-56,-1,-1,0,"(1065, 421)","(1060, 457)","(1058, 492)","(1061, 526)","(1075, 559)","(1097, 588)","(1124, 613)","(1153, 634)","(1183, 640)","(1208, 633)","(1226, 610)","(1244, 586)","(1260, 562)","(1273, 536)","(1280, 510)","(1282, 485)","(1280, 460)","(1117, 424)","(1139, 416)","(1163, 416)","(1186, 423)","(1207, 435)","(1243, 439)","(1258, 432)","(1273, 429)","(1286, 430)","(1291, 439)","(1223, 461)","(1225, 482)","(1227, 503)","(1230, 525)","(1191, 530)","(1205, 537)","(1218, 543)","(1229, 540)","(1238, 533)","(1141, 449)","(1157, 445)","(1172, 446)","(1182, 455)","(1170, 458)","(1155, 456)","(1238, 461)","(1252, 454)","(1264, 455)","(1272, 461)","(1264, 466)","(1252, 465)","(1152, 561)","(1176, 559)","(1198, 559)","(1209, 563)","(1218, 561)","(1227, 563)","(1231, 568)","(1222, 581)","(1212, 589)","(1201, 590)","(1189, 588)","(1170, 579)","(1160, 562)","(1196, 568)","(1207, 570)","(1216, 569)","(1225, 568)","(1213, 575)","(1203, 576)","(1192, 575)",0.32,0.52,76.0,0.34,0.06,0.36,0.03,-12.5,0.06,0.35,49.6,51.6,78.3,47.5,44.65,84.35,45.29,46.82,61.58
1900,-524288,78,-56,-1,-1,0,"(1068, 423)","(1064, 460)","(1062, 495)","(1066, 530)","(1080, 562)","(1103, 591)","(1130, 616)","(1160, 636)","(1189, 642)","(1214, 635)","(1231, 611)","(1247, 587)","(1262, 564)","(1274, 539)","(1281, 513)","(1283, 488)","(1280, 464)","(1123, 428)","(1145, 420)","(1169, 419)","(1192, 425)","(1213, 437)","(1248, 441)","(1263, 433)","(1277, 430)","(1289, 431)","(1293, 441)","(1229, 463)","(1231, 485)","(1234, 506)","(1236, 529)","(1197, 533)","(1211, 539)","(1224, 546)","(1236, 542)","(1245, 535)","(1147, 452)","(1163, 448)","(1178, 449)","(1189, 458)","(1176, 461)","(1161, 459)","(1242, 463)","(1256, 456)","(1269, 456)","(1276, 463)","(1268, 468)","(1256, 467)","(1157, 562)","(1182, 561)","(1204, 561)","(1215, 565)","(1225, 563)","(1233, 564)","(1237, 567)","(1229, 582)","(1219, 590)","(1208, 591)","(1196, 590)","(1176, 581)","(1165, 564)","(1202, 570)","(1214, 572)","(1223, 571)","(1231, 568)","(1221, 575)","(1211, 577)","(1199, 576)",0.33,0.5,76.0,0.35,0.04,0.37,0.02,-12.5,0.07,0.36,48.7,51.6,79.8,44.9,42.25,83.45,45.64,47.41,61.88
1933,-655360,78,-56,-1,-1,0,"(1068, 425)","(1063, 461)","(1060, 496)","(1065, 531)","(1081, 563)","(1105, 592)","(1133, 617)","(1164, 638)","(1192, 644)","(1216, 636)","(1232, 611)","(1248, 587)","(1264, 563)","(1277, 538)","(1284, 513)","(1284, 488)","(1280, 464)","(1128, 429)","(1149, 421)","(1173, 420)","(1197, 427)","(1218, 438)","(1250, 443)","(1264, 435)","(1279, 431)","(1290, 432)","(1294, 441)","(1233, 466)","(1235, 487)","(1238, 508)","(1241, 530)","(1201, 534)","(1215, 541)","(1229, 547)","(1240, 544)","(1249, 537)","(1152, 453)","(1167, 450)","(1182, 450)","(1192, 460)","(1180, 462)","(1165, 460)","(1244, 464)","(1258, 458)","(1270, 458)","(1277, 463)","(1270, 469)","(1258, 469)","(1161, 562)","(1186, 561)","(1209, 561)","(1220, 564)","(1229, 562)","(1237, 563)","(1239, 567)","(1232, 583)","(1223, 592)","(1212, 594)","(1200, 593)","(1180, 583)","(1169, 564)","(1207, 569)","(1218, 571)","(1227, 570)","(1233, 568)","(1225, 578)","(1215, 580)","(1203, 579)",0.33,0.48,76.0,0.34,0.02,0.36,0.03,-11.5,0.07,0.35,52.4,54.5,83.3,44.65,42.15,81.25,46.0,47.23,63.05
1966,-524288,78,-56,-1,-1,0,"(1069, 426)","(1065, 462)","(1064, 499)","(1068, 534)","(1084, 566)","(1108, 594)","(1136, 619)","(1165, 640)","(1194, 646)","(1217, 637)","(1232, 613)","(1248, 589)","(1264, 565)","(1278, 540)","(1287, 515)","(1290, 490)","(1289, 466)","(1128, 433)","(1151, 426)","(1175, 426)","(1199, 432)","(1220, 443)","(1252, 446)","(1267, 439)","(1282, 434)","(1295, 434)","(1300, 443)","(1235, 467)","(1238, 489)","(1240, 512)","(1243, 535)","(1204, 537)","(1217, 544)","(1231, 550)","(1242, 547)","(1251, 540)","(1153, 456)","(1169, 452)","(1184, 452)","(1194, 462)","(1181, 464)","(1167, 463)","(1248, 466)","(1261, 458)","(1273, 458)","(1280, 464)","(1273, 470)","(1261, 470)","(1163, 565)","(1188, 563)","(1210, 563)","(1221, 566)","(1231, 564)","(1239, 566)","(1242, 570)","(1234, 587)","(1224, 596)","(1213, 598)","(1200, 596)","(1181, 586)","(1170, 566)","(1208, 571)","(1219, 573)","(1229, 572)","(1236, 571)","(1226, 580)","(1216, 583)","(1204, 581)",0.37,0.5,76.0,0.32,0.02,0.35,0.04,-12.0,0.07,0.37,44.6,48.5,74.0,45.3,43.5,79.45,46.35,47.76,62.64
2000,-524288,78,-56,-1,-1,0,"(1061, 431)","(1057, 468)","(1055, 505)","(1060, 541)","(1077, 572)","(1104, 600)","(1136, 623)","(1169, 643)","(1198, 648)","(1219, 640)","(1232, 617)","(1245, 595)","(1258, 571)","(1270, 547)","(1279, 523)","(1282, 498)","(1280, 474)","(1131, 436)","(1153, 428)","(1177, 428)","(1200, 434)","(1222, 444)","(1253, 448)","(1267, 441)","(1280, 437)","(1292, 437)","(1295, 446)","(1238, 469)","(1240, 490)","(1244, 512)","(1247, 534)","(1207, 539)","(1221, 546)","(1234, 551)","(1245, 548)","(1252, 541)","(1156, 459)","(1172, 455)","(1187, 455)","(1195, 464)","(1184, 467)","(1170, 465)","(1247, 469)","(1260, 462)","(1272, 462)","(1277, 468)","(1271, 473)","(1260, 472)","(1165, 567)","(1190, 565)","(1213, 564)","(1224, 568)","(1233, 566)","(1240, 567)","(1242, 571)","(1236, 588)","(1227, 597)","(1217, 599)","(1205, 598)","(1185, 588)","(1173, 569)","(1211, 572)","(1222, 574)","(1231, 573)","(1236, 573)","(1229, 582)","(1220, 584)","(1208, 584)",0.35,0.47,76.0,0.31,0.02,0.35,0.04,-11.5,0.06,0.36,45.8,48.2,75.7,44.55,43.35,79.15,50.17,52.35,72.88
2033,-589824,78,-56,-1,-1,0,"(1062, 430)","(1058, 467)","(1055, 505)","(1060, 540)","(1077, 572)","(1103, 600)","(1134, 624)","(1166, 644)","(1195, 650)","(1217, 642)","(1230, 621)","(1243, 598)","(1257, 575)","(1270, 552)","(1280, 527)","(1283, 501)","(1282, 477)","(1130, 434)","(1153, 427)","(1177, 427)","(1200, 434)","(1221, 445)","(1257, 450)","(1270, 442)","(1283, 439)","(1294, 438)","(1298, 447)","(1238, 471)","(1241, 493)","(1244, 515)","(1248, 537)","(1207, 542)","(1221, 548)","(1234, 554)","(1245, 551)","(1253, 544)","(1155, 459)","(1172, 455)","(1187, 456)","(1196, 466)","(1184, 469)","(1169, 466)","(1248, 471)","(1262, 462)","(1274, 463)","(1279, 470)","(1273, 475)","(1261, 475)","(1163, 569)","(1189, 568)","(1213, 568)","(1223, 571)","(1232, 569)","(1240, 570)","(1242, 573)","(1236, 591)","(1226, 600)","(1216, 602)","(1204, 600)","(1183, 591)","(1171, 571)","(1210, 575)","(1221, 576)","(1230, 576)","(1236, 575)","(1229, 585)","(1219, 587)","(1208, 586)",0.4,0.47,76.0,0.32,0.02,0.35,0.04,-13.5,0.06,0.36,56.6,58.4,87.0,46.95,45.65,81.45,51.41,53.35,74.52
2066,-524288,78,-56,-1,-1,0,"(1063, 436)","(1059, 473)","(1057, 510)","(1062, 545)","(1079, 577)","(1106, 605)","(1138, 630)","(1170, 649)","(1199, 655)","(1221, 647)","(1235, 623)","(1247, 600)","(1261, 576)","(1273, 553)","(1281, 528)","(1283, 503)","(1281, 480)","(1133, 439)","(1155, 433)","(1179, 432)","(1202, 438)","(1222, 450)","(1258, 454)","(1270, 446)","(1283, 442)","(1293, 442)","(1297, 449)","(1240, 476)","(1242, 498)","(1246, 519)","(1249, 541)","(1209, 546)","(1223, 553)","(1236, 558)","(1247, 555)","(1255, 548)","(1157, 465)","(1173, 461)","(1188, 461)","(1197, 471)","(1186, 473)","(1171, 471)","(1249, 475)","(1262, 467)","(1274, 467)","(1280, 473)","(1274, 479)","(1262, 478)","(1165, 573)","(1191, 572)","(1215, 572)","(1226, 575)","(1235, 573)","(1244, 574)","(1245, 577)","(1240, 597)","(1231, 607)","(1220, 609)","(1208, 607)","(1186, 597)","(1172, 576)","(1213, 579)","(1224, 580)","(1233, 579)","(1239, 579)","(1233, 592)","(1223, 594)","(1211, 593)",0.37,0.49,76.0,0.32,-0.0,0.36,0.05,-12.0,0.06,0.36,53.5,55.3,83.1,41.8,40.55,74.95,48.88,50.23,68.52
2100,-589824,78,-56,-1,-1,0,"(1065, 441)","(1060, 476)","(1056, 513)","(1060, 547)","(1076, 579)","(1102, 606)","(1133, 630)","(1167, 648)","(1196, 653)","(1219, 645)","(1233, 623)","(1246, 600)","(1259, 577)","(1270, 554)","(1278, 530)","(1280, 507)","(1278, 484)","(1135, 443)","(1157, 436)","(1181, 436)","(1204, 442)","(1224, 453)","(1258, 457)","(1271, 449)","(1283, 445)","(1293, 445)","(1296, 452)","(1240, 479)","(1243, 501)","(1247, 522)","(1251, 544)","(1209, 549)","(1223, 555)","(1236, 561)","(1247, 558)","(1254, 550)","(1158, 469)","(1175, 465)","(1189, 465)","(1198, 474)","(1187, 477)","(1173, 475)","(1249, 478)","(1262, 470)","(1273, 470)","(1279, 476)","(1273, 481)","(1262, 481)","(1165, 576)","(1191, 574)","(1214, 574)","(1224, 577)","(1233, 575)","(1240, 576)","(1240, 579)","(1235, 595)","(1227, 604)","(1217, 606)","(1206, 605)","(1185, 596)","(1173, 577)","(1212, 581)","(1223, 583)","(1231, 582)","(1235, 581)","(1229, 590)","(1220, 593)","(1209, 592)",0.36,0.44,76.0,0.32,-0.0,0.35,0.03,-11.5,0.06,0.37,55.3,57.1,85.5,39.7,38.5,72.85,48.58,51.11,72.23
2133,-655360,78,-56,-1,-1,0,"(1060, 442)","(1057, 479)","(1056, 516)","(1061, 551)","(1078, 583)","(1105, 611)","(1136, 634)","(1168, 652)","(1198, 657)","(1218, 650)","(1231, 628)","(1244, 605)","(1257, 583)","(1270, 560)","(1279, 536)","(1282, 512)","(1281, 489)","(1134, 448)","(1158, 442)","(1182, 442)","(1206, 448)","(1227, 458)","(1257, 461)","(1270, 455)","(1283, 451)","(1294, 451)","(1297, 459)","(1241, 482)","(1244, 503)","(1247, 525)","(1251, 548)","(1209, 551)","(1223, 558)","(1236, 564)","(1248, 561)","(1256, 554)","(1159, 471)","(1175, 468)","(1190, 468)","(1198, 476)","(1187, 479)","(1174, 477)","(1250, 481)","(1263, 474)","(1274, 474)","(1280, 480)","(1273, 485)","(1263, 484)","(1165, 578)","(1192, 576)","(1215, 577)","(1226, 580)","(1236, 578)","(1244, 580)","(1244, 583)","(1239, 599)","(1230, 608)","(1219, 610)","(1207, 608)","(1186, 599)","(1173, 580)","(1213, 583)","(1225, 585)","(1234, 584)","(1239, 584)","(1232, 593)","(1222, 595)","(1211, 594)",0.35,0.46,76.0,0.3,0.02,0.35,0.04,-11.0,0.06,0.37,46.2,47.9,73.8,39.5,37.75,71.75,46.05,49.0,68.64
2166,-589824,78,-56,-1,-1,0,"(1057, 445)","(1054, 482)","(1053, 520)","(1058, 557)","(1076, 589)","(1104, 616)","(1137, 638)","(1170, 655)","(1200, 660)","(1221, 651)","(1233, 627)","(1246, 605)","(1259, 582)","(1271, 558)","(1279, 534)","(1281, 510)","(1279, 488)","(1132, 451)","(1156, 445)","(1181, 445)","(1204, 452)","(1226, 462)","(1256, 465)","(1268, 458)","(1280, 454)","(1291, 452)","(1294, 459)","(1241, 486)","(1244, 507)","(1247, 528)","(1251, 550)","(1209, 555)","(1224, 561)","(1237, 567)","(1248, 564)","(1256, 557)","(1158, 475)","(1174, 472)","(1188, 472)","(1197, 480)","(1186, 483)","(1172, 481)","(1249, 484)","(1262, 477)","(1273, 477)","(1278, 483)","(1272, 488)","(1261, 487)","(1166, 581)","(1193, 580)","(1216, 580)","(1227, 583)","(1237, 581)","(1244, 582)","(1244, 584)","(1239, 601)","(1231, 610)","(1220, 612)","(1208, 610)","(1187, 601)","(1173, 583)","(1214, 587)","(1226, 589)","(1235, 587)","(1239, 586)","(1233, 595)","(1223, 598)","(1212, 597)",0.36,0.45,76.0,0.3,-0.01,0.35,0.03,-11.0,0.06,0.36,48.1,50.8,77.5,38.35,36.8,70.15,45.52,48.23,67.82
2200,-589824,78,-56,-1,-1,0,"(1059, 447)","(1055, 484)","(1054, 522)","(1058, 557)","(1075, 589)","(1101, 617)","(1132, 640)","(1165, 657)","(1194, 662)","(1216, 654)","(1229, 631)","(1242, 608)","(1256, 585)","(1268, 562)","(1277, 538)","(1280, 514)","(1279, 490)","(1133, 452)","(1157, 447)","(1181, 448)","(1204, 454)","(1224, 464)","(1257, 467)","(1269, 460)","(1280, 456)","(1290, 455)","(1293, 461)","(1240, 488)","(1242, 509)","(1246, 531)","(1250, 553)","(1208, 557)","(1222, 564)","(1235, 570)","(1246, 566)","(1253, 559)","(1158, 477)","(1174, 474)","(1188, 475)","(1196, 483)","(1186, 485)","(1172, 484)","(1248, 486)","(1261, 480)","(1272, 480)","(1277, 485)","(1271, 491)","(1260, 490)","(1164, 584)","(1191, 583)","(1213, 583)","(1223, 586)","(1232, 585)","(1238, 585)","(1238, 587)","(1233, 602)","(1225, 611)","(1215, 612)","(1204, 611)","(1184, 603)","(1172, 585)","(1211, 590)","(1221, 591)","(1230, 590)","(1233, 588)","(1228, 596)","(1219, 599)","(1208, 598)",0.36,0.42,76.0,0.3,-0.01,0.33,0.03,-11.0,0.05,0.37,53.2,54.6,82.8,38.05,37.1,69.1,48.23,50.0,71.17
2233,-327680,78,-56,-1,-1,0,"(1065, 447)","(1060, 483)","(1058, 520)","(1063, 555)","(1079, 586)","(1104, 615)","(1133, 641)","(1164, 662)","(1193, 668)","(1215, 660)","(1228, 636)","(1240, 612)","(1255, 589)","(1268, 565)","(1278, 541)","(1282, 517)","(1281, 493)","(1134, 455)","(1157, 450)","(1181, 450)","(1203, 457)","(1224, 468)","(1257, 471)","(1269, 464)","(1281, 459)","(1291, 458)","(1295, 464)","(1239, 491)","(1242, 514)","(1245, 537)","(1248, 560)","(1207, 561)","(1221, 568)","(1234, 574)","(1245, 571)","(1253, 563)","(1158, 480)","(1174, 477)","(1189, 477)","(1197, 486)","(1186, 489)","(1172, 487)","(1248, 489)","(1261, 482)","(1273, 482)","(1278, 488)","(1272, 494)","(1261, 493)","(1163, 586)","(1189, 585)","(1212, 585)","(1223, 588)","(1232, 587)","(1239, 587)","(1240, 590)","(1235, 607)","(1226, 618)","(1216, 620)","(1204, 618)","(1183, 608)","(1171, 588)","(1210, 592)","(1221, 594)","(1230, 593)","(1234, 592)","(1229, 601)","(1219, 604)","(1208, 603)",0.38,0.46,76.0,0.31,-0.01,0.35,0.04,-12.0,0.06,0.38,50.9,53.3,80.1,40.9,41.35,72.65,45.88,48.7,67.52
2266,-458752,78,-56,-1,-1,0,"(1063, 450)","(1059, 487)","(1057, 524)","(1062, 560)","(1079, 592)","(1105, 621)","(1135, 647)","(1166, 668)","(1196, 674)","(1217, 665)","(1230, 640)","(1242, 615)","(1257, 591)","(1270, 567)","(1280, 542)","(1283, 517)","(1281, 493)","(1131, 459)","(1154, 454)","(1178, 454)","(1201, 460)","(1222, 470)","(1256, 472)","(1268, 464)","(1281, 460)","(1291, 458)","(1297, 464)","(1239, 494)","(1241, 516)","(1244, 539)","(1247, 562)","(1208, 564)","(1221, 571)","(1234, 577)","(1246, 574)","(1255, 567)","(1157, 483)","(1173, 480)","(1187, 480)","(1196, 488)","(1185, 491)","(1171, 489)","(1249, 491)","(1261, 484)","(1272, 484)","(1278, 489)","(1272, 495)","(1261, 494)","(1163, 587)","(1190, 588)","(1214, 589)","(1225, 593)","(1235, 591)","(1244, 592)","(1247, 593)","(1240, 614)","(1229, 626)","(1218, 627)","(1205, 625)","(1184, 613)","(1171, 590)","(1212, 597)","(1224, 599)","(1234, 598)","(1241, 596)","(1231, 610)","(1221, 612)","(1209, 610)",0.36,0.5,76.0,0.3,-0.03,0.38,0.05,-11.0,0.07,0.37,54.8,56.6,83.6,38.15,37.2,66.45,45.88,47.0,64.47
2300,-655360,78,-56,-1,-1,0,"(1063, 449)","(1058, 486)","(1056, 523)","(1060, 558)","(1077, 590)","(1103, 619)","(1131, 646)","(1162, 667)","(1191, 672)","(1212, 663)","(1225, 639)","(1238, 614)","(1253, 591)","(1267, 567)","(1277, 543)","(1280, 519)","(1279, 495)","(1133, 460)","(1157, 455)","(1180, 455)","(1203, 461)","(1224, 472)","(1258, 475)","(1269, 468)","(1281, 463)","(1291, 461)","(1294, 467)","(1239, 496)","(1241, 518)","(1244, 540)","(1247, 562)","(1207, 565)","(1220, 571)","(1233, 577)","(1244, 574)","(1252, 566)","(1158, 485)","(1174, 481)","(1189, 481)","(1197, 490)","(1186, 493)","(1172, 491)","(1248, 493)","(1260, 485)","(1272, 485)","(1277, 491)","(1271, 497)","(1260, 497)","(1162, 591)","(1188, 589)","(1211, 589)","(1221, 592)","(1230, 591)","(1236, 591)","(1236, 593)","(1231, 612)","(1223, 624)","(1213, 626)","(1202, 625)","(1181, 614)","(1169, 592)","(1209, 596)","(1219, 598)","(1227, 596)","(1231, 595)","(1226, 608)","(1217, 611)","(1206, 611)",0.41,0.43,76.0,0.3,-0.04,0.34,0.05,-12.0,0.06,0.37,52.1,55.3,82.8,39.1,38.45,68.6,46.64,48.52,69.76
2333,-589824,78,-56,-1,-1,0,"(1063, 452)","(1058, 489)","(1056, 526)","(1060, 561)","(1077, 593)","(1103, 622)","(1132, 647)","(1163, 668)","(1192, 673)","(1214, 664)","(1227, 639)","(1240, 615)","(1255, 592)","(1268, 568)","(1278, 544)","(1280, 519)","(1279, 496)","(1132, 463)","(1155, 458)","(1178, 458)","(1201, 464)","(1222, 474)","(1255, 477)","(1267, 469)","(1279, 465)","(1288, 463)","(1292, 468)","(1237, 498)","(1240, 519)","(1243, 541)","(1246, 563)","(1205, 566)","(1220, 573)","(1233, 579)","(1243, 575)","(1251, 568)","(1157, 487)","(1172, 484)","(1187, 484)","(1195, 492)","(1184, 495)","(1170, 493)","(1247, 494)","(1259, 487)","(1270, 487)","(1275, 492)","(1270, 498)","(1259, 498)","(1161, 592)","(1187, 590)","(1210, 590)","(1221, 593)","(1229, 591)","(1236, 591)","(1237, 594)","(1232, 612)","(1224, 623)","(1214, 625)","(1202, 624)","(1181, 615)","(1168, 594)","(1208, 597)","(1219, 599)","(1227, 597)","(1231, 596)","(1226, 608)","(1217, 611)","(1206, 610)",0.39,0.45,76.0,0.3,-0.05,0.35,0.04,-11.0,0.06,0.37,49.2,52.3,79.3,42.55,41.6,73.4,44.35,46.17,65.35
2366,11796480,78,-56,-1,-1,0,"(1072, 458)","(1068, 493)","(1066, 528)","(1070, 562)","(1085, 592)","(1109, 621)","(1135, 647)","(1165, 667)","(1193, 672)","(1214, 664)","(1227, 640)","(1239, 617)","(1253, 594)","(1265, 571)","(1273, 547)","(1275, 522)","(1274, 500)","(1135, 465)","(1157, 459)","(1180, 459)","(1203, 465)","(1222, 475)","(1253, 478)","(1265, 471)","(1276, 467)","(1286, 466)","(1290, 473)","(1236, 497)","(1238, 519)","(1241, 542)","(1244, 564)","(1204, 566)","(1218, 573)","(1231, 579)","(1242, 575)","(1250, 568)","(1157, 487)","(1172, 484)","(1186, 485)","(1195, 493)","(1184, 496)","(1170, 494)","(1245, 496)","(1257, 489)","(1269, 489)","(1274, 494)","(1268, 500)","(1258, 500)","(1160, 591)","(1185, 590)","(1208, 590)","(1219, 593)","(1229, 591)","(1237, 592)","(1238, 594)","(1232, 614)","(1223, 625)","(1213, 627)","(1200, 626)","(1179, 615)","(1167, 593)","(1206, 597)","(1218, 599)","(1227, 597)","(1233, 596)","(1226, 609)","(1215, 612)","(1204, 611)",0.37,0.48,76.0,0.32,-0.0,0.38,0.05,-11.5,0.06,0.38,48.9,51.6,80.7,44.05,42.55,74.35,43.23,44.94,67.17
2400,-1638400,77,-56,-1,-1,0,"(1063, 452)","(1058, 488)","(1056, 525)","(1060, 560)","(1076, 593)","(1101, 621)","(1131, 646)","(1162, 666)","(1191, 671)","(1212, 663)","(1226, 641)","(1240, 618)","(1255, 596)","(1268, 572)","(1277, 547)","(1280, 523)","(1280, 498)","(1131, 462)","(1154, 457)","(1177, 458)","(1199, 464)","(1220, 475)","(1256, 478)","(1268, 470)","(1280, 466)","(1291, 464)","(1295, 471)","(1236, 499)","(1238, 521)","(1241, 544)","(1244, 566)","(1204, 569)","(1218, 575)","(1231, 581)","(1242, 578)","(1249, 570)","(1155, 488)","(1171, 484)","(1186, 484)","(1195, 494)","(1183, 497)","(1169, 495)","(1246, 497)","(1259, 489)","(1271, 489)","(1276, 495)","(1270, 501)","(1259, 500)","(1160, 591)","(1186, 591)","(1209, 592)","(1220, 595)","(1229, 593)","(1236, 592)","(1239, 593)","(1232, 611)","(1223, 622)","(1213, 624)","(1200, 623)","(1180, 613)","(1168, 593)","(1207, 599)","(1218, 600)","(1227, 599)","(1233, 595)","(1226, 607)","(1216, 610)","(1205, 609)",0.38,0.46,76.0,0.31,-0.01,0.36,0.04,-12.5,0.05,0.38,57.1,59.3,86.9,42.15,40.7,73.4,44.23,46.47,64.58
2433,-65536,77,-56,-1,-1,0,"(1065, 452)","(1060, 488)","(1058, 525)","(1062, 559)","(1077, 591)","(1102, 620)","(1132, 645)","(1163, 666)","(1192, 672)","(1213, 664)","(1227, 641)","(1240, 617)","(1255, 594)","(1267, 570)","(1277, 546)","(1280, 522)","(1280, 498)","(1131, 461)","(1154, 457)","(1177, 459)","(1199, 466)","(1218, 477)","(1255, 480)","(1267, 472)","(1279, 468)","(1289, 465)","(1294, 471)","(1235, 501)","(1237, 524)","(1240, 546)","(1243, 568)","(1203, 570)","(1217, 577)","(1230, 583)","(1241, 580)","(1248, 572)","(1155, 488)","(1171, 484)","(1185, 485)","(1194, 495)","(1183, 498)","(1168, 496)","(1245, 498)","(1257, 490)","(1269, 490)","(1275, 495)","(1269, 502)","(1258, 502)","(1160, 592)","(1185, 593)","(1208, 594)","(1218, 598)","(1227, 596)","(1234, 595)","(1237, 595)","(1230, 615)","(1221, 626)","(1211, 628)","(1200, 627)","(1179, 616)","(1167, 595)","(1206, 601)","(1216, 602)","(1225, 601)","(1231, 598)","(1224, 611)","(1214, 614)","(1204, 614)",0.39,0.47,76.0,0.31,-0.02,0.35,0.05,-13.0,0.06,0.39,59.1,62.6,91.2,40.35,39.15,70.75,45.17,47.52,66.76
2466,196608,77,-56,-1,-1,0,"(1068, 455)","(1062, 491)","(1059, 527)","(1064, 561)","(1079, 592)","(1104, 621)","(1133, 645)","(1164, 666)","(1192, 672)","(1214, 664)","(1227, 641)","(1240, 619)","(1255, 596)","(1268, 573)","(1277, 550)","(1281, 526)","(1281, 502)","(1131, 465)","(1154, 460)","(1176, 460)","(1199, 467)","(1218, 478)","(1254, 481)","(1267, 474)","(1279, 471)","(1291, 470)","(1295, 476)","(1235, 502)","(1237, 524)","(1240, 546)","(1242, 569)","(1203, 571)","(1217, 577)","(1230, 583)","(1240, 580)","(1248, 572)","(1155, 490)","(1171, 486)","(1185, 487)","(1195, 496)","(1183, 499)","(1168, 497)","(1245, 500)","(1257, 492)","(1270, 492)","(1275, 498)","(1269, 504)","(1257, 504)","(1162, 594)","(1187, 594)","(1209, 595)","(1219, 597)","(1228, 596)","(1235, 596)","(1237, 597)","(1231, 615)","(1223, 625)","(1213, 627)","(1201, 625)","(1182, 616)","(1170, 597)","(1207, 601)","(1217, 602)","(1226, 601)","(1231, 599)","(1225, 610)","(1216, 613)","(1205, 612)",0.39,0.46,76.0,0.32,0.01,0.35,0.04,-12.5,0.06,0.39,56.0,58.7,85.9,37.85,36.3,70.35,44.64,46.23,64.82
2500,786432,77,-56,-1,-1,0,"(1069, 458)","(1064, 493)","(1062, 529)","(1066, 562)","(1081, 593)","(1106, 621)","(1135, 646)","(1166, 666)","(1194, 672)","(1216, 664)","(1229, 641)","(1243, 619)","(1257, 596)","(1269, 572)","(1278, 549)","(1281, 525)","(1280, 501)","(1132, 467)","(1153, 461)","(1176, 462)","(1198, 469)","(1218, 480)","(1254, 483)","(1267, 476)","(1279, 472)","(1290, 470)","(1295, 476)","(1235, 504)","(1237, 526)","(1240, 548)","(1243, 570)","(1204, 573)","(1217, 579)","(1230, 585)","(1241, 581)","(1248, 574)","(1155, 492)","(1171, 488)","(1186, 489)","(1195, 498)","(1183, 501)","(1169, 499)","(1245, 501)","(1257, 493)","(1269, 493)","(1275, 499)","(1269, 505)","(1257, 505)","(1162, 597)","(1187, 596)","(1209, 597)","(1219, 599)","(1228, 597)","(1235, 597)","(1236, 598)","(1231, 615)","(1223, 625)","(1213, 627)","(1202, 626)","(1182, 617)","(1170, 598)","(1207, 603)","(1217, 604)","(1226, 603)","(1231, 600)","(1225, 612)","(1216, 614)","(1205, 613)",0.39,0.45,76.0,0.32,-0.0,0.35,0.04,-12.5,0.06,0.39,59.2,60.8,89.2,40.1,38.0,73.85,43.76,46.17,64.88
2533,2031616,77,-56,-1,-1,0,"(1070, 457)","(1065, 492)","(1063, 528)","(1067, 562)","(1082, 593)","(1106, 622)","(1136, 647)","(1167, 668)","(1195, 674)","(1216, 666)","(1230, 643)","(1242, 620)","(1255, 597)","(1267, 573)","(1276, 550)","(1279, 527)","(1279, 503)","(1131, 466)","(1153, 461)","(1176, 463)","(1198, 470)","(1217, 482)","(1254, 485)","(1267, 478)","(1280, 473)","(1291, 472)","(1296, 478)","(1235, 506)","(1237, 528)","(1240, 550)","(1243, 572)","(1203, 573)","(1217, 580)","(1230, 586)","(1241, 582)","(1248, 574)","(1154, 493)","(1170, 491)","(1184, 493)","(1194, 500)","(1182, 503)","(1168, 501)","(1245, 504)","(1258, 497)","(1270, 498)","(1276, 502)","(1269, 508)","(1258, 507)","(1161, 596)","(1187, 597)","(1209, 598)","(1220, 601)","(1228, 599)","(1236, 598)","(1239, 599)","(1233, 618)","(1224, 628)","(1214, 630)","(1202, 629)","(1182, 619)","(1169, 598)","(1207, 604)","(1218, 606)","(1227, 604)","(1234, 601)","(1226, 614)","(1217, 617)","(1206, 616)",0.32,0.48,76.0,0.33,0.0,0.37,0.04,-11.5,0.06,0.39,59.5,60.5,91.2,38.65,37.15,72.95,44.05,47.35,66.82
2566,1835008,77,-56,-1,-1,0,"(1073, 455)","(1070, 491)","(1069, 527)","(1073, 561)","(1088, 592)","(1110, 621)","(1136, 647)","(1164, 667)","(1190, 672)","(1212, 665)","(1227, 641)","(1242, 619)","(1259, 596)","(1275, 572)","(1286, 548)","(1291, 523)","(1293, 498)","(1132, 472)","(1155, 468)","(1177, 469)","(1200, 475)","(1220, 485)","(1255, 488)","(1268, 481)","(1282, 476)","(1294, 473)","(1301, 479)","(1235, 507)","(1236, 530)","(1238, 553)","(1239, 576)","(1201, 576)","(1214, 582)","(1228, 588)","(1240, 585)","(1249, 577)","(1155, 496)","(1171, 493)","(1185, 494)","(1195, 502)","(1183, 505)","(1168, 503)","(1248, 504)","(1260, 497)","(1272, 496)","(1280, 501)","(1272, 507)","(1260, 507)","(1160, 597)","(1184, 598)","(1206, 599)","(1217, 602)","(1227, 600)","(1236, 599)","(1241, 599)","(1232, 618)","(1222, 629)","(1211, 631)","(1198, 629)","(1178, 619)","(1167, 599)","(1204, 605)","(1216, 607)","(1226, 605)","(1235, 602)","(1224, 613)","(1214, 616)","(1202, 615)",0.32,0.52,76.0,0.32,-0.02,0.36,0.04,-11.0,0.06,0.41,49.6,51.9,78.3,37.9,37.55,72.85,48.58,50.29,67.64
2600,-262144,77,-56,-1,-1,0,"(1077, 458)","(1073, 493)","(1071, 528)","(1074, 562)","(1088, 593)","(1109, 622)","(1135, 648)","(1164, 668)","(1192, 673)","(1215, 666)","(1230, 643)","(1244, 620)","(1258, 597)","(1271, 573)","(1281, 550)","(1286, 526)","(1286, 502)","(1132, 470)","(1154, 466)","(1177, 467)","(1199, 474)","(1218, 486)","(1256, 489)","(1269, 480)","(1282, 475)","(1294, 473)","(1299, 479)","(1235, 509)","(1236, 531)","(1238, 554)","(1240, 577)","(1202, 577)","(1215, 583)","(1228, 589)","(1239, 586)","(1248, 578)","(1154, 497)","(1170, 495)","(1184, 495)","(1195, 503)","(1182, 506)","(1167, 505)","(1247, 506)","(1260, 499)","(1272, 499)","(1280, 503)","(1272, 510)","(1260, 509)","(1161, 599)","(1185, 600)","(1207, 600)","(1218, 603)","(1228, 601)","(1236, 601)","(1240, 602)","(1232, 619)","(1222, 629)","(1211, 631)","(1199, 629)","(1179, 620)","(1168, 601)","(1205, 607)","(1217, 608)","(1226, 607)","(1234, 604)","(1224, 615)","(1214, 618)","(1202, 617)",0.31,0.5,76.0,0.34,-0.02,0.37,0.04,-11.0,0.06,0.41,60.6,61.5,91.1,38.05,36.9,72.65,42.76,45.23,60.94
2633,-589824,77,-56,-1,-1,0,"(1068, 466)","(1064, 502)","(1064, 538)","(1069, 571)","(1084, 601)","(1108, 629)","(1136, 651)","(1166, 669)","(1194, 673)","(1214, 666)","(1228, 645)","(1241, 624)","(1256, 602)","(1268, 580)","(1278, 557)","(1282, 533)","(1283, 510)","(1132, 477)","(1155, 473)","(1177, 474)","(1198, 480)","(1219, 489)","(1252, 492)","(1265, 485)","(1277, 481)","(1289, 478)","(1294, 484)","(1234, 510)","(1236, 533)","(1238, 555)","(1240, 578)","(1202, 579)","(1215, 586)","(1228, 592)","(1240, 588)","(1248, 581)","(1155, 500)","(1171, 497)","(1185, 498)","(1193, 505)","(1182, 508)","(1169, 506)","(1246, 508)","(1258, 501)","(1270, 501)","(1276, 505)","(1270, 511)","(1259, 511)","(1162, 601)","(1186, 601)","(1208, 602)","(1218, 605)","(1227, 603)","(1235, 603)","(1238, 604)","(1231, 619)","(1223, 628)","(1212, 630)","(1201, 629)","(1181, 620)","(1169, 603)","(1206, 608)","(1217, 609)","(1226, 608)","(1233, 606)","(1225, 614)","(1215, 617)","(1204, 616)",0.33,0.49,76.0,0.31,-0.02,0.35,0.03,-10.5,0.06,0.41,47.4,49.3,77.1,40.1,37.3,74.6,45.11,48.23,66.58
2666,-524288,77,-56,-1,-1,0,"(1079, 458)","(1075, 493)","(1072, 528)","(1076, 561)","(1090, 593)","(1110, 621)","(1136, 647)","(1163, 668)","(1190, 673)","(1212, 666)","(1228, 643)","(1242, 620)","(1258, 597)","(1272, 574)","(1282, 550)","(1286, 526)","(1286, 502)","(1133, 473)","(1154, 468)","(1177, 469)","(1198, 476)","(1217, 487)","(1255, 491)","(1269, 482)","(1282, 477)","(1294, 474)","(1300, 481)","(1234, 511)","(1234, 534)","(1236, 557)","(1238, 581)","(1200, 579)","(1213, 586)","(1227, 592)","(1239, 588)","(1248, 580)","(1154, 500)","(1170, 497)","(1185, 498)","(1195, 505)","(1182, 509)","(1168, 507)","(1246, 508)","(1260, 501)","(1272, 501)","(1279, 505)","(1272, 511)","(1259, 511)","(1161, 600)","(1184, 601)","(1206, 602)","(1218, 605)","(1227, 603)","(1236, 602)","(1240, 602)","(1232, 621)","(1221, 631)","(1210, 633)","(1197, 632)","(1178, 622)","(1168, 602)","(1204, 608)","(1216, 610)","(1226, 608)","(1235, 604)","(1224, 617)","(1213, 620)","(1201, 619)",0.3,0.52,76.0,0.35,-0.02,0.38,0.04,-11.0,0.06,0.43,62.8,65.2,94.4,42.35,41.35,76.55,45.17,47.41,64.52
2700,-393216,77,-56,-1,-1,0,"(1066, 464)","(1062, 500)","(1061, 537)","(1066, 571)","(1082, 602)","(1106, 630)","(1135, 652)","(1166, 670)","(1194, 674)","(1215, 666)","(1228, 645)","(1241, 624)","(1255, 603)","(1268, 581)","(1277, 557)","(1281, 534)","(1282, 510)","(1131, 479)","(1154, 474)","(1177, 476)","(1198, 482)","(1219, 492)","(1251, 494)","(1264, 487)","(1277, 483)","(1288, 481)","(1293, 486)","(1234, 512)","(1235, 535)","(1237, 557)","(1240, 580)","(1201, 581)","(1214, 587)","(1228, 593)","(1239, 590)","(1248, 582)","(1155, 502)","(1171, 500)","(1184, 500)","(1193, 507)","(1182, 510)","(1169, 509)","(1245, 510)","(1258, 503)","(1269, 503)","(1276, 507)","(1269, 513)","(1258, 513)","(1163, 603)","(1187, 604)","(1208, 604)","(1218, 607)","(1227, 605)","(1234, 605)","(1237, 605)","(1230, 620)","(1222, 628)","(1212, 630)","(1201, 629)","(1182, 621)","(1171, 605)","(1206, 610)","(1216, 611)","(1225, 610)","(1232, 608)","(1224, 615)","(1215, 617)","(1204, 617)",0.32,0.47,76.0,0.31,-0.02,0.34,0.03,-10.0,0.06,0.41,48.4,50.2,78.4,38.2,36.15,70.65,45.76,47.76,68.0
2733,-458752,77,-56,-1,-1,0,"(1065, 465)","(1061, 501)","(1060, 537)","(1065, 571)","(1080, 603)","(1104, 631)","(1133, 653)","(1164, 671)","(1192, 675)","(1213, 668)","(1227, 647)","(1240, 626)","(1255, 604)","(1267, 582)","(1277, 559)","(1281, 535)","(1281, 511)","(1130, 478)","(1153, 475)","(1176, 476)","(1197, 483)","(1217, 493)","(1252, 496)","(1264, 489)","(1277, 484)","(1288, 482)","(1293, 487)","(1233, 514)","(1235, 536)","(1236, 558)","(1238, 581)","(1200, 581)","(1213, 588)","(1226, 594)","(1238, 591)","(1246, 583)","(1154, 502)","(1169, 500)","(1183, 501)","(1192, 508)","(1181, 511)","(1167, 509)","(1244, 511)","(1257, 504)","(1269, 504)","(1275, 509)","(1268, 514)","(1257, 514)","(1161, 602)","(1185, 603)","(1206, 604)","(1216, 607)","(1225, 605)","(1233, 605)","(1236, 605)","(1229, 620)","(1221, 629)","(1210, 631)","(1199, 629)","(1180, 621)","(1168, 604)","(1204, 610)","(1215, 612)","(1224, 611)","(1230, 608)","(1223, 616)","(1213, 618)","(1202, 617)",0.32,0.49,76.0,0.31,-0.02,0.34,0.03,-10.5,0.06,0.41,43.7,46.0,72.0,38.65,36.95,71.75,43.11,44.88,65.52
2766,-524288,77,-56,-1,-1,0,"(1067, 461)","(1063, 497)","(1062, 533)","(1066, 567)","(1081, 598)","(1104, 627)","(1133, 652)","(1163, 671)","(1190, 677)","(1212, 669)","(1226, 647)","(1240, 625)","(1255, 603)","(1268, 580)","(1277, 557)","(1282, 534)","(1282, 510)","(1129, 477)","(1151, 473)","(1174, 475)","(1195, 482)","(1215, 492)","(1250, 495)","(1263, 488)","(1276, 484)","(1288, 481)","(1294, 487)","(1231, 513)","(1232, 535)","(1234, 558)","(1236, 581)","(1198, 581)","(1211, 588)","(1224, 594)","(1236, 590)","(1244, 583)","(1152, 500)","(1167, 498)","(1181, 499)","(1190, 507)","(1179, 509)","(1165, 507)","(1243, 510)","(1256, 503)","(1267, 504)","(1274, 508)","(1267, 514)","(1255, 513)","(1158, 601)","(1182, 603)","(1203, 605)","(1214, 608)","(1223, 606)","(1232, 605)","(1236, 605)","(1228, 621)","(1218, 631)","(1208, 632)","(1195, 631)","(1176, 621)","(1165, 603)","(1201, 610)","(1212, 612)","(1222, 611)","(1230, 607)","(1221, 617)","(1211, 620)","(1199, 619)",0.32,0.51,76.0,0.31,-0.0,0.36,0.03,-11.0,0.06,0.41,49.1,52.8,78.9,39.65,37.9,74.2,41.7,44.0,62.47
2800,-589824,77,-56,-1,-1,0,"(1063, 460)","(1059, 497)","(1058, 533)","(1062, 567)","(1077, 598)","(1100, 627)","(1129, 652)","(1159, 670)","(1187, 676)","(1208, 668)","(1223, 647)","(1237, 625)","(1251, 603)","(1264, 581)","(1274, 557)","(1278, 534)","(1279, 511)","(1127, 475)","(1150, 472)","(1172, 474)","(1193, 481)","(1213, 492)","(1247, 495)","(1260, 488)","(1273, 484)","(1284, 481)","(1289, 487)","(1229, 512)","(1230, 534)","(1231, 557)","(1233, 580)","(1195, 579)","(1208, 587)","(1221, 593)","(1232, 589)","(1240, 582)","(1150, 499)","(1165, 497)","(1179, 498)","(1188, 505)","(1176, 508)","(1163, 506)","(1240, 509)","(1252, 503)","(1264, 503)","(1270, 508)","(1263, 513)","(1252, 513)","(1155, 600)","(1179, 602)","(1200, 603)","(1210, 607)","(1219, 605)","(1227, 605)","(1231, 605)","(1223, 622)","(1214, 630)","(1204, 632)","(1192, 630)","(1173, 621)","(1162, 602)","(1198, 609)","(1209, 611)","(1218, 610)","(1225, 608)","(1216, 617)","(1206, 619)","(1196, 617)",0.33,0.5,76.0,0.3,0.0,0.35,0.03,-10.5,0.05,0.41,50.8,53.1,80.1,38.6,36.65,74.55,45.52,48.64,68.94
2833,-655360,77,-56,-1,-1,0,"(1070, 461)","(1065, 496)","(1063, 531)","(1067, 564)","(1080, 595)","(1102, 623)","(1130, 648)","(1159, 668)","(1186, 674)","(1208, 667)","(1224, 645)","(1237, 623)","(1251, 601)","(1263, 578)","(1272, 555)","(1276, 532)","(1276, 509)","(1126, 470)","(1147, 464)","(1169, 465)","(1191, 471)","(1210, 484)","(1250, 488)","(1263, 481)","(1276, 478)","(1288, 477)","(1292, 485)","(1228, 510)","(1229, 532)","(1230, 554)","(1232, 576)","(1195, 577)","(1208, 584)","(1221, 590)","(1232, 586)","(1240, 579)","(1148, 496)","(1163, 493)","(1178, 494)","(1188, 504)","(1175, 507)","(1161, 504)","(1240, 508)","(1253, 501)","(1265, 501)","(1272, 507)","(1265, 513)","(1252, 512)","(1155, 599)","(1180, 600)","(1201, 601)","(1211, 605)","(1221, 603)","(1229, 602)","(1234, 602)","(1226, 620)","(1216, 629)","(1205, 631)","(1193, 630)","(1174, 621)","(1163, 601)","(1199, 607)","(1210, 609)","(1219, 608)","(1228, 604)","(1218, 616)","(1208, 618)","(1197, 617)",0.35,0.51,76.0,0.34,0.04,0.38,0.04,-13.0,0.05,0.4,67.8,68.8,100.5,39.2,37.8,75.35,45.17,47.41,68.64
2866,-655360,77,-56,-1,-1,0,"(1069, 458)","(1064, 493)","(1061, 529)","(1064, 562)","(1077, 593)","(1099, 622)","(1126, 646)","(1155, 667)","(1183, 672)","(1205, 666)","(1221, 644)","(1235, 623)","(1249, 601)","(1262, 579)","(1272, 556)","(1276, 533)","(1277, 510)","(1124, 470)","(1145, 465)","(1168, 466)","(1190, 474)","(1208, 486)","(1248, 491)","(1261, 483)","(1274, 479)","(1286, 477)","(1291, 484)","(1226, 510)","(1227, 533)","(1228, 555)","(1229, 578)","(1192, 577)","(1205, 585)","(1218, 591)","(1229, 587)","(1238, 580)","(1146, 497)","(1161, 494)","(1176, 496)","(1186, 504)","(1173, 507)","(1159, 504)","(1238, 509)","(1252, 502)","(1264, 502)","(1271, 507)","(1264, 513)","(1251, 513)","(1152, 598)","(1176, 599)","(1197, 601)","(1207, 604)","(1217, 602)","(1225, 602)","(1230, 603)","(1221, 620)","(1212, 629)","(1201, 631)","(1189, 629)","(1170, 619)","(1160, 600)","(1196, 607)","(1206, 609)","(1215, 608)","(1224, 605)","(1214, 616)","(1204, 618)","(1193, 617)",0.33,0.51,76.0,0.34,0.01,0.37,0.04,-12.0,0.05,0.41,61.5,63.7,92.6,41.7,39.45,77.4,44.17,46.7,66.7
2900,-393216,77,-56,-1,-1,0,"(1067, 455)","(1061, 491)","(1059, 527)","(1062, 560)","(1075, 592)","(1098, 621)","(1126, 645)","(1156, 664)","(1183, 670)","(1205, 662)","(1221, 640)","(1236, 618)","(1251, 597)","(1263, 574)","(1273, 551)","(1276, 527)","(1276, 504)","(1121, 465)","(1143, 462)","(1165, 464)","(1185, 472)","(1204, 484)","(1245, 489)","(1258, 482)","(1271, 477)","(1282, 475)","(1288, 480)","(1223, 509)","(1223, 531)","(1225, 554)","(1226, 577)","(1189, 576)","(1202, 583)","(1215, 589)","(1226, 586)","(1234, 579)","(1142, 493)","(1158, 490)","(1173, 492)","(1182, 502)","(1169, 504)","(1155, 501)","(1235, 506)","(1249, 499)","(1262, 499)","(1269, 504)","(1261, 511)","(1249, 510)","(1150, 595)","(1173, 597)","(1194, 599)","(1205, 603)","(1214, 601)","(1223, 601)","(1228, 601)","(1219, 619)","(1209, 628)","(1199, 630)","(1186, 628)","(1168, 618)","(1157, 598)","(1192, 606)","(1203, 608)","(1213, 607)","(1222, 603)","(1211, 614)","(1201, 616)","(1190, 615)",0.33,0.53,76.0,0.34,0.0,0.37,0.04,-13.0,0.05,0.42,62.2,64.6,94.6,41.4,38.7,76.3,40.41,43.58,61.82
2933,-655360,77,-56,-1,-1,0,"(1066, 455)","(1061, 491)","(1059, 527)","(1063, 560)","(1076, 591)","(1097, 620)","(1125, 644)","(1154, 664)","(1182, 669)","(1204, 662)","(1220, 639)","(1234, 616)","(1249, 593)","(1261, 570)","(1270, 547)","(1274, 524)","(1274, 500)","(1119, 465)","(1141, 460)","(1163, 462)","(1184, 470)","(1202, 482)","(1243, 486)","(1256, 479)","(1270, 474)","(1282, 473)","(1287, 479)","(1221, 506)","(1222, 528)","(1223, 551)","(1224, 574)","(1187, 574)","(1201, 581)","(1214, 587)","(1225, 583)","(1233, 576)","(1142, 492)","(1157, 489)","(1171, 491)","(1182, 500)","(1169, 502)","(1154, 499)","(1234, 504)","(1247, 497)","(1260, 498)","(1267, 503)","(1259, 509)","(1247, 508)","(1147, 594)","(1172, 596)","(1193, 597)","(1204, 601)","(1213, 599)","(1222, 598)","(1227, 598)","(1219, 616)","(1209, 625)","(1198, 627)","(1185, 625)","(1166, 616)","(1155, 596)","(1191, 603)","(1202, 605)","(1212, 604)","(1221, 600)","(1211, 612)","(1201, 614)","(1189, 613)",0.33,0.52,76.0,0.34,0.02,0.38,0.04,-12.5,0.05,0.41,63.2,65.5,96.4,40.1,38.6,75.35,43.41,45.94,64.64
2966,-720896,77,-56,-1,-1,0,"(1063, 452)","(1058, 488)","(1055, 524)","(1059, 557)","(1073, 589)","(1095, 619)","(1122, 644)","(1151, 664)","(1179, 669)","(1201, 661)","(1217, 638)","(1232, 615)","(1248, 592)","(1261, 569)","(1270, 546)","(1274, 522)","(1274, 499)","(1119, 466)","(1141, 462)","(1162, 464)","(1184, 471)","(1203, 481)","(1241, 486)","(1254, 478)","(1267, 473)","(1279, 471)","(1285, 476)","(1220, 505)","(1220, 527)","(1221, 551)","(1222, 574)","(1185, 573)","(1198, 581)","(1212, 587)","(1223, 583)","(1232, 575)","(1140, 492)","(1155, 490)","(1169, 491)","(1179, 499)","(1167, 501)","(1153, 499)","(1233, 503)","(1246, 496)","(1258, 496)","(1266, 500)","(1257, 506)","(1246, 506)","(1144, 592)","(1168, 594)","(1190, 597)","(1201, 600)","(1211, 598)","(1220, 597)","(1225, 596)","(1216, 616)","(1206, 626)","(1195, 628)","(1182, 626)","(1163, 616)","(1151, 595)","(1188, 602)","(1200, 604)","(1209, 603)","(1219, 599)","(1208, 612)","(1198, 615)","(1186, 613)",0.3,0.53,76.0,0.33,-0.02,0.38,0.04,-10.5,0.05,0.42,55.7,57.3,87.0,42.2,41.55,77.3,45.64,47.35,63.94
3000,-786432,77,-56,-1,-1,0,"(1062, 451)","(1056, 487)","(1053, 523)","(1056, 557)","(1070, 588)","(1093, 617)","(1119, 642)","(1147, 662)","(1174, 668)","(1196, 661)","(1212, 638)","(1228, 615)","(1244, 593)","(1258, 570)","(1268, 547)","(1272, 524)","(1273, 500)","(1115, 464)","(1137, 460)","(1159, 461)","(1180, 468)","(1200, 479)","(1237, 484)","(1251, 476)","(1265, 472)","(1277, 471)","(1283, 478)","(1216, 502)","(1216, 525)","(1217, 548)","(1217, 571)","(1180, 570)","(1194, 577)","(1207, 584)","(1219, 580)","(1228, 573)","(1137, 489)","(1152, 486)","(1166, 488)","(1176, 496)","(1164, 498)","(1150, 496)","(1230, 500)","(1243, 493)","(1255, 494)","(1263, 498)","(1255, 504)","(1243, 503)","(1140, 591)","(1163, 591)","(1185, 593)","(1197, 597)","(1207, 595)","(1217, 595)","(1222, 597)","(1213, 616)","(1201, 626)","(1190, 628)","(1177, 626)","(1157, 614)","(1147, 593)","(1184, 599)","(1195, 602)","(1205, 601)","(1216, 599)","(1204, 611)","(1193, 614)","(1181, 612)",0.3,0.56,76.0,0.33,0.02,0.38,0.04,-11.5,0.05,0.41,53.6,55.5,82.9,42.85,40.7,78.25,44.94,47.82,64.41
3033,7012352,77,-56,-1,-1,0,"(1063, 443)","(1059, 478)","(1058, 514)","(1061, 547)","(1073, 579)","(1092, 609)","(1115, 637)","(1140, 659)","(1167, 666)","(1190, 660)","(1208, 637)","(1224, 613)","(1243, 589)","(1260, 566)","(1272, 542)","(1278, 516)","(1281, 490)","(1110, 459)","(1132, 455)","(1155, 459)","(1177, 466)","(1196, 478)","(1233, 481)","(1249, 474)","(1265, 470)","(1279, 467)","(1287, 475)","(1212, 499)","(1211, 523)","(1211, 546)","(1211, 571)","(1175, 567)","(1188, 575)","(1201, 582)","(1213, 579)","(1223, 572)","(1131, 485)","(1146, 483)","(1161, 485)","(1172, 493)","(1158, 495)","(1143, 493)","(1228, 498)","(1241, 491)","(1254, 492)","(1263, 496)","(1254, 503)","(1241, 502)","(1137, 590)","(1159, 591)","(1180, 593)","(1191, 597)","(1202, 595)","(1212, 596)","(1218, 597)","(1207, 617)","(1195, 627)","(1184, 629)","(1170, 626)","(1152, 614)","(1145, 592)","(1178, 601)","(1190, 603)","(1200, 602)","(1211, 599)","(1198, 611)","(1187, 613)","(1175, 610)",0.31,0.58,76.0,0.34,0.05,0.37,0.04,-12.0,0.05,0.43,56.4,58.1,86.1,42.2,40.5,74.8,49.29,50.88,68.41
3066,-851968,76,-56,-1,-1,0,"(1057, 445)","(1052, 481)","(1050, 517)","(1054, 551)","(1066, 582)","(1087, 612)","(1112, 638)","(1138, 659)","(1165, 666)","(1189, 659)","(1206, 636)","(1223, 613)","(1240, 590)","(1255, 566)","(1266, 542)","(1271, 518)","(1272, 493)","(1105, 457)","(1128, 453)","(1150, 456)","(1171, 464)","(1191, 476)","(1228, 480)","(1243, 473)","(1258, 468)","(1272, 467)","(1280, 473)","(1208, 497)","(1207, 520)","(1207, 544)","(1207, 568)","(1172, 567)","(1185, 574)","(1198, 581)","(1209, 578)","(1219, 570)","(1128, 484)","(1142, 481)","(1157, 483)","(1168, 491)","(1154, 493)","(1140, 491)","(1223, 496)","(1236, 489)","(1249, 490)","(1258, 495)","(1249, 501)","(1236, 500)","(1136, 589)","(1158, 590)","(1178, 592)","(1188, 596)","(1198, 594)","(1208, 594)","(1214, 594)","(1204, 612)","(1193, 621)","(1182, 622)","(1170, 620)","(1152, 610)","(1143, 591)","(1176, 599)","(1187, 601)","(1197, 600)","(1208, 597)","(1196, 605)","(1185, 607)","(1174, 605)",0.31,0.57,76.0,0.34,0.04,0.36,0.03,-12.0,0.05,0.42,53.6,56.5,83.5,46.25,45.15,80.1,45.23,48.52,65.35
3100,0,76,-56,-1,-1,0,"(1042, 434)","(1037, 471)","(1036, 507)","(1040, 542)","(1052, 574)","(1073, 604)","(1098, 629)","(1126, 651)","(1155, 661)","(1180, 656)","(1200, 636)","(1217, 614)","(1235, 591)","(1251, 568)","(1265, 544)","(1273, 518)","(1277, 490)","(1092, 435)","(1114, 428)","(1139, 429)","(1162, 437)","(1183, 451)","(1232, 459)","(1249, 452)","(1266, 449)","(1280, 451)","(1287, 462)","(1205, 488)","(1204, 511)","(1205, 534)","(1205, 557)","(1169, 561)","(1181, 567)","(1194, 573)","(1205, 572)","(1214, 567)","(1114, 470)","(1133, 467)","(1150, 471)","(1162, 484)","(1146, 486)","(1127, 482)","(1223, 493)","(1238, 484)","(1254, 484)","(1264, 492)","(1253, 500)","(1238, 499)","(1132, 589)","(1155, 590)","(1176, 590)","(1185, 594)","(1195, 593)","(1203, 596)","(1207, 599)","(1197, 614)","(1187, 622)","(1177, 622)","(1165, 619)","(1148, 609)","(1140, 592)","(1172, 600)","(1183, 602)","(1192, 601)","(1201, 600)","(1191, 605)","(1181, 606)","(1170, 604)",0.37,0.52,76.0,0.37,0.11,0.31,0.02,-17.5,0.03,0.39,73.0,77.2,109.7,43.35,40.85,78.15,62.7,64.17,85.05
3133,393216,76,-56,-1,-1,0,"(1050, 451)","(1046, 485)","(1045, 520)","(1050, 554)","(1062, 585)","(1082, 614)","(1105, 641)","(1132, 662)","(1160, 667)","(1184, 661)","(1202, 639)","(1217, 615)","(1232, 591)","(1244, 566)","(1252, 542)","(1256, 517)","(1256, 493)","(1096, 456)","(1118, 450)","(1141, 453)","(1162, 460)","(1181, 471)","(1218, 476)","(1233, 470)","(1247, 466)","(1260, 465)","(1267, 473)","(1198, 492)","(1198, 516)","(1198, 540)","(1198, 564)","(1163, 565)","(1176, 572)","(1189, 578)","(1201, 575)","(1210, 568)","(1118, 479)","(1133, 476)","(1147, 477)","(1158, 486)","(1145, 488)","(1131, 487)","(1215, 492)","(1228, 486)","(1241, 486)","(1249, 492)","(1240, 497)","(1228, 496)","(1129, 591)","(1151, 591)","(1170, 592)","(1181, 596)","(1192, 594)","(1201, 595)","(1208, 597)","(1198, 614)","(1188, 622)","(1176, 623)","(1163, 621)","(1146, 611)","(1136, 593)","(1169, 600)","(1180, 603)","(1191, 602)","(1201, 599)","(1190, 605)","(1179, 607)","(1167, 605)",0.3,0.58,76.0,0.35,0.05,0.38,0.03,-11.5,0.05,0.41,45.7,49.9,76.7,40.4,37.65,73.6,45.35,47.29,66.17
3166,1048576,76,-56,-1,-1,0,"(1039, 435)","(1034, 472)","(1033, 509)","(1038, 543)","(1051, 576)","(1071, 607)","(1096, 634)","(1123, 658)","(1150, 667)","(1174, 661)","(1194, 639)","(1213, 614)","(1231, 590)","(1248, 566)","(1261, 539)","(1268, 512)","(1271, 482)","(1088, 439)","(1109, 434)","(1132, 436)","(1153, 444)","(1170, 459)","(1219, 465)","(1234, 457)","(1250, 454)","(1264, 453)","(1273, 461)","(1192, 490)","(1191, 513)","(1191, 538)","(1191, 562)","(1158, 562)","(1170, 570)","(1183, 577)","(1194, 574)","(1203, 567)","(1110, 473)","(1127, 470)","(1142, 473)","(1154, 484)","(1139, 486)","(1123, 483)","(1211, 491)","(1226, 483)","(1240, 484)","(1249, 490)","(1239, 497)","(1225, 496)","(1127, 589)","(1147, 588)","(1165, 588)","(1175, 592)","(1185, 590)","(1194, 592)","(1199, 596)","(1189, 615)","(1178, 624)","(1167, 626)","(1156, 623)","(1140, 611)","(1135, 591)","(1163, 598)","(1173, 601)","(1182, 600)","(1192, 597)","(1181, 606)","(1171, 608)","(1160, 606)",0.34,0.59,76.0,0.35,0.08,0.31,0.03,-15.0,0.04,0.4,72.6,74.8,109.0,35.25,32.2,68.1,54.76,56.23,74.52
3200,2097152,76,-56,-1,-1,0,"(1045, 428)","(1040, 466)","(1038, 503)","(1041, 538)","(1051, 572)","(1068, 604)","(1091, 632)","(1116, 657)","(1143, 666)","(1168, 660)","(1190, 637)","(1211, 614)","(1231, 591)","(1250, 567)","(1264, 540)","(1273, 512)","(1278, 482)","(1089, 434)","(1110, 429)","(1131, 431)","(1153, 439)","(1171, 453)","(1220, 461)","(1237, 453)","(1253, 449)","(1269, 449)","(1278, 458)","(1190, 488)","(1188, 513)","(1186, 538)","(1184, 563)","(1152, 562)","(1164, 570)","(1177, 577)","(1189, 574)","(1199, 567)","(1110, 472)","(1126, 469)","(1143, 472)","(1154, 483)","(1139, 485)","(1122, 482)","(1211, 491)","(1227, 483)","(1242, 484)","(1252, 490)","(1241, 498)","(1226, 497)","(1119, 588)","(1139, 586)","(1158, 587)","(1168, 590)","(1179, 589)","(1189, 591)","(1195, 595)","(1184, 617)","(1172, 627)","(1160, 628)","(1148, 625)","(1132, 613)","(1127, 590)","(1155, 597)","(1167, 599)","(1176, 598)","(1187, 597)","(1175, 608)","(1164, 610)","(1152, 608)",0.34,0.63,76.0,0.36,0.08,0.32,0.04,-15.5,0.03,0.42,74.7,78.4,111.4,36.7,34.7,70.55,54.47,57.41,74.64
3233,917504,76,-56,-1,-1,0,"(1043, 433)","(1038, 470)","(1037, 507)","(1041, 541)","(1053, 573)","(1071, 604)","(1093, 633)","(1117, 658)","(1143, 667)","(1169, 662)","(1190, 638)","(1211, 614)","(1232, 589)","(1250, 564)","(1264, 536)","(1272, 507)","(1278, 476)","(1084, 438)","(1104, 432)","(1126, 434)","(1147, 442)","(1165, 455)","(1213, 462)","(1230, 454)","(1247, 451)","(1263, 451)","(1273, 460)","(1184, 488)","(1182, 513)","(1181, 538)","(1179, 562)","(1148, 562)","(1160, 569)","(1173, 576)","(1185, 573)","(1195, 566)","(1105, 474)","(1120, 471)","(1136, 473)","(1148, 482)","(1133, 485)","(1117, 482)","(1205, 489)","(1221, 482)","(1235, 483)","(1246, 488)","(1235, 495)","(1220, 494)","(1117, 587)","(1135, 584)","(1155, 584)","(1165, 588)","(1176, 586)","(1187, 588)","(1195, 593)","(1183, 615)","(1170, 625)","(1158, 627)","(1146, 624)","(1129, 612)","(1125, 589)","(1153, 592)","(1164, 594)","(1174, 593)","(1187, 594)","(1172, 608)","(1161, 610)","(1149, 608)",0.29,0.67,76.0,0.35,0.08,0.33,0.05,-13.5,0.04,0.41,73.3,75.7,110.4,46.05,45.3,84.45,48.29,50.29,66.05
3266,-720896,76,-56,-1,-1,0,"(1040, 431)","(1035, 467)","(1034, 504)","(1037, 538)","(1049, 571)","(1067, 601)","(1089, 629)","(1113, 654)","(1139, 664)","(1165, 660)","(1187, 637)","(1209, 614)","(1230, 590)","(1249, 565)","(1263, 537)","(1272, 507)","(1278, 475)","(1081, 434)","(1101, 429)","(1123, 430)","(1144, 438)","(1162, 452)","(1210, 459)","(1227, 451)","(1245, 448)","(1262, 448)","(1273, 459)","(1180, 486)","(1178, 511)","(1176, 536)","(1175, 561)","(1144, 560)","(1156, 568)","(1168, 575)","(1180, 571)","(1190, 565)","(1101, 471)","(1117, 466)","(1134, 469)","(1145, 481)","(1130, 483)","(1113, 481)","(1202, 489)","(1218, 480)","(1234, 481)","(1245, 488)","(1233, 496)","(1217, 495)","(1112, 586)","(1131, 583)","(1150, 584)","(1161, 588)","(1172, 586)","(1183, 589)","(1191, 593)","(1179, 614)","(1166, 623)","(1154, 624)","(1141, 622)","(1125, 610)","(1120, 588)","(1147, 592)","(1159, 594)","(1170, 594)","(1184, 595)","(1168, 606)","(1157, 608)","(1145, 605)",0.34,0.67,76.0,0.36,0.1,0.33,0.05,-16.5,0.04,0.42,73.7,77.2,111.7,50.75,49.15,89.05,49.76,52.11,68.94
3300,-917504,76,-56,-1,-1,0,"(1039, 432)","(1034, 468)","(1032, 505)","(1035, 539)","(1046, 571)","(1065, 600)","(1088, 627)","(1112, 652)","(1139, 660)","(1165, 655)","(1188, 633)","(1211, 609)","(1232, 584)","(1251, 558)","(1265, 531)","(1274, 501)","(1279, 469)","(1078, 434)","(1097, 427)","(1119, 428)","(1141, 435)","(1161, 448)","(1208, 455)","(1226, 445)","(1246, 441)","(1265, 442)","(1277, 453)","(1179, 485)","(1176, 509)","(1173, 533)","(1171, 557)","(1141, 560)","(1153, 567)","(1165, 573)","(1177, 570)","(1188, 564)","(1099, 470)","(1115, 464)","(1133, 467)","(1145, 481)","(1128, 484)","(1110, 481)","(1202, 487)","(1218, 475)","(1235, 475)","(1246, 483)","(1235, 494)","(1217, 494)","(1111, 588)","(1130, 587)","(1148, 587)","(1158, 591)","(1168, 589)","(1180, 592)","(1191, 594)","(1177, 611)","(1163, 620)","(1152, 621)","(1140, 618)","(1125, 608)","(1119, 590)","(1146, 598)","(1156, 600)","(1166, 599)","(1183, 596)","(1165, 602)","(1155, 603)","(1144, 601)",0.43,0.69,76.0,0.37,0.06,0.33,0.02,-19.5,0.03,0.41,74.9,78.2,112.2,50.0,47.75,87.05,50.82,51.82,69.58
3333,-720896,76,-56,-1,-1,0,"(1033, 440)","(1030, 476)","(1030, 511)","(1034, 545)","(1044, 577)","(1063, 607)","(1086, 633)","(1112, 655)","(1139, 663)","(1165, 658)","(1186, 638)","(1205, 616)","(1223, 592)","(1237, 568)","(1247, 541)","(1254, 514)","(1258, 486)","(1071, 446)","(1093, 441)","(1116, 444)","(1138, 452)","(1158, 464)","(1197, 469)","(1216, 463)","(1234, 460)","(1251, 460)","(1261, 470)","(1176, 486)","(1174, 510)","(1173, 534)","(1172, 559)","(1141, 560)","(1153, 567)","(1165, 574)","(1176, 571)","(1186, 566)","(1096, 472)","(1111, 469)","(1126, 471)","(1137, 480)","(1123, 482)","(1108, 480)","(1198, 488)","(1212, 481)","(1226, 483)","(1236, 489)","(1225, 494)","(1212, 493)","(1109, 588)","(1129, 588)","(1146, 589)","(1157, 593)","(1168, 591)","(1178, 595)","(1187, 598)","(1175, 611)","(1164, 617)","(1152, 618)","(1140, 615)","(1124, 606)","(1117, 590)","(1145, 598)","(1156, 601)","(1167, 600)","(1179, 599)","(1166, 600)","(1155, 601)","(1143, 598)",0.3,0.64,76.0,0.34,0.1,0.34,0.02,-13.0,0.04,0.41,49.8,52.3,80.3,46.55,41.7,86.65,47.94,51.05,68.82
3366,-655360,76,-56,-1,-1,0,"(1032, 439)","(1029, 474)","(1028, 510)","(1031, 544)","(1042, 577)","(1061, 606)","(1084, 632)","(1110, 654)","(1138, 663)","(1164, 658)","(1185, 638)","(1204, 616)","(1222, 592)","(1235, 567)","(1245, 540)","(1253, 512)","(1257, 484)","(1069, 445)","(1091, 440)","(1115, 444)","(1136, 452)","(1157, 464)","(1196, 469)","(1214, 462)","(1232, 459)","(1249, 459)","(1259, 469)","(1175, 485)","(1173, 509)","(1172, 533)","(1170, 558)","(1140, 559)","(1151, 566)","(1164, 573)","(1175, 571)","(1184, 565)","(1094, 471)","(1109, 468)","(1124, 469)","(1135, 479)","(1121, 481)","(1107, 479)","(1196, 487)","(1210, 480)","(1225, 481)","(1235, 487)","(1224, 493)","(1211, 492)","(1108, 589)","(1128, 589)","(1145, 589)","(1156, 594)","(1167, 592)","(1178, 595)","(1186, 599)","(1175, 612)","(1163, 618)","(1151, 618)","(1139, 616)","(1123, 606)","(1116, 591)","(1144, 599)","(1155, 602)","(1166, 601)","(1179, 600)","(1165, 600)","(1154, 601)","(1142, 599)",0.3,0.65,76.0,0.35,0.1,0.34,0.01,-13.0,0.04,0.41,46.9,50.1,77.6,47.85,43.8,87.8,46.58,48.58,66.05
3400,-589824,76,-56,-1,-1,0,"(1026, 434)","(1022, 470)","(1021, 506)","(1025, 540)","(1037, 573)","(1057, 603)","(1081, 630)","(1108, 653)","(1136, 662)","(1161, 658)","(1183, 638)","(1202, 617)","(1220, 594)","(1234, 569)","(1244, 542)","(1251, 515)","(1254, 487)","(1068, 442)","(1091, 438)","(1113, 442)","(1135, 450)","(1155, 462)","(1195, 467)","(1213, 461)","(1230, 458)","(1246, 458)","(1257, 467)","(1173, 484)","(1171, 508)","(1170, 533)","(1169, 557)","(1138, 558)","(1150, 566)","(1162, 573)","(1173, 570)","(1183, 565)","(1093, 469)","(1108, 466)","(1123, 468)","(1134, 478)","(1121, 479)","(1106, 477)","(1195, 486)","(1210, 480)","(1224, 481)","(1233, 487)","(1223, 493)","(1210, 491)","(1108, 589)","(1127, 588)","(1144, 588)","(1154, 593)","(1165, 591)","(1176, 595)","(1184, 600)","(1173, 613)","(1162, 619)","(1150, 619)","(1138, 617)","(1122, 607)","(1115, 591)","(1143, 598)","(1153, 600)","(1164, 600)","(1177, 601)","(1163, 601)","(1152, 602)","(1142, 599)",0.3,0.67,76.0,0.34,0.11,0.33,0.02,-13.0,0.04,0.41,48.2,50.2,79.5,44.95,41.65,83.9,47.35,49.7,68.94
3433,-458752,76,-56,-1,-1,0,"(1023, 435)","(1020, 471)","(1019, 507)","(1024, 541)","(1037, 573)","(1057, 603)","(1082, 630)","(1109, 653)","(1137, 662)","(1162, 657)","(1184, 637)","(1203, 617)","(1220, 593)","(1234, 567)","(1244, 540)","(1250, 513)","(1252, 485)","(1066, 441)","(1089, 437)","(1112, 440)","(1133, 449)","(1153, 460)","(1194, 465)","(1211, 459)","(1228, 456)","(1244, 456)","(1255, 465)","(1172, 482)","(1170, 506)","(1168, 530)","(1167, 555)","(1137, 556)","(1148, 564)","(1161, 571)","(1172, 568)","(1182, 563)","(1091, 468)","(1107, 466)","(1122, 468)","(1132, 477)","(1119, 478)","(1104, 476)","(1194, 485)","(1208, 478)","(1222, 480)","(1232, 486)","(1222, 491)","(1209, 490)","(1109, 588)","(1127, 587)","(1144, 587)","(1154, 592)","(1165, 590)","(1176, 594)","(1184, 599)","(1173, 611)","(1162, 617)","(1150, 617)","(1139, 615)","(1123, 605)","(1116, 590)","(1143, 597)","(1153, 599)","(1164, 599)","(1177, 600)","(1163, 599)","(1153, 600)","(1142, 597)",0.3,0.68,75.0,0.34,0.1,0.32,0.02,-12.5,0.04,0.4,49.6,51.9,81.2,42.75,41.25,79.65,48.35,51.17,70.88
3466,-720896,76,-56,-1,-1,0,"(1024, 436)","(1020, 472)","(1020, 507)","(1024, 542)","(1036, 574)","(1056, 605)","(1081, 631)","(1108, 654)","(1136, 662)","(1161, 658)","(1182, 639)","(1201, 617)","(1218, 594)","(1232, 568)","(1242, 541)","(1249, 513)","(1252, 485)","(1066, 439)","(1088, 434)","(1111, 438)","(1132, 446)","(1152, 458)","(1192, 465)","(1209, 459)","(1226, 456)","(1242, 456)","(1252, 465)","(1170, 481)","(1169, 505)","(1168, 530)","(1167, 554)","(1136, 556)","(1148, 564)","(1160, 571)","(1172, 568)","(1181, 563)","(1090, 467)","(1105, 464)","(1120, 466)","(1131, 476)","(1118, 477)","(1103, 475)","(1192, 485)","(1206, 478)","(1220, 480)","(1230, 486)","(1220, 491)","(1206, 490)","(1106, 587)","(1125, 587)","(1143, 587)","(1153, 592)","(1163, 590)","(1174, 594)","(1183, 598)","(1171, 611)","(1160, 616)","(1148, 617)","(1137, 614)","(1121, 605)","(1113, 589)","(1141, 597)","(1152, 599)","(1162, 599)","(1177, 599)","(1161, 599)","(1151, 600)","(1140, 597)",0.3,0.66,75.0,0.34,0.1,0.33,0.02,-13.0,0.04,0.4,48.0,49.5,78.9,48.35,44.9,86.9,45.7,47.76,67.64
3500,-720896,76,-56,-1,-1,0,"(1026, 433)","(1022, 469)","(1021, 504)","(1025, 539)","(1036, 572)","(1056, 603)","(1079, 630)","(1106, 654)","(1134, 662)","(1159, 658)","(1181, 638)","(1201, 617)","(1218, 593)","(1233, 567)","(1243, 540)","(1250, 511)","(1254, 482)","(1065, 436)","(1088, 433)","(1110, 437)","(1131, 446)","(1151, 457)","(1191, 462)","(1208, 456)","(1225, 454)","(1242, 453)","(1253, 462)","(1169, 480)","(1167, 504)","(1166, 528)","(1164, 553)","(1135, 555)","(1146, 563)","(1158, 570)","(1169, 567)","(1179, 562)","(1089, 465)","(1104, 462)","(1119, 464)","(1130, 474)","(1116, 475)","(1102, 473)","(1192, 482)","(1206, 475)","(1220, 477)","(1230, 483)","(1220, 489)","(1206, 487)","(1104, 586)","(1123, 586)","(1140, 587)","(1151, 592)","(1161, 590)","(1172, 593)","(1182, 597)","(1170, 611)","(1158, 617)","(1146, 618)","(1135, 615)","(1119, 605)","(1112, 588)","(1139, 596)","(1150, 599)","(1160, 599)","(1175, 599)","(1159, 600)","(1148, 600)","(1138, 598)",0.31,0.68,75.0,0.34,0.11,0.34,0.02,-13.5,0.04,0.4,47.5,50.0,77.4,51.3,47.45,89.1,49.41,50.94,68.0
3533,-720896,76,-56,-1,-1,0,"(1024, 430)","(1020, 466)","(1019, 502)","(1023, 537)","(1034, 569)","(1053, 600)","(1076, 628)","(1102, 652)","(1130, 662)","(1155, 657)","(1177, 638)","(1197, 617)","(1215, 593)","(1230, 568)","(1240, 540)","(1247, 511)","(1251, 482)","(1061, 435)","(1084, 430)","(1107, 434)","(1128, 442)","(1149, 454)","(1188, 459)","(1207, 453)","(1224, 451)","(1241, 452)","(1251, 462)","(1166, 476)","(1164, 501)","(1163, 525)","(1161, 551)","(1131, 552)","(1143, 560)","(1155, 567)","(1166, 564)","(1176, 560)","(1086, 461)","(1101, 458)","(1116, 460)","(1127, 471)","(1113, 472)","(1098, 470)","(1189, 479)","(1203, 472)","(1217, 473)","(1228, 480)","(1217, 486)","(1203, 484)","(1101, 585)","(1120, 585)","(1137, 585)","(1148, 590)","(1158, 589)","(1170, 593)","(1179, 597)","(1167, 611)","(1155, 616)","(1143, 617)","(1131, 614)","(1116, 603)","(1109, 587)","(1136, 594)","(1147, 597)","(1157, 597)","(1172, 599)","(1156, 599)","(1145, 599)","(1135, 596)",0.32,0.69,75.0,0.34,0.12,0.34,0.02,-14.0,0.04,0.4,52.8,55.4,84.6,43.15,40.4,81.2,49.11,50.29,70.41
3566,-327680,76,-56,-1,-1,0,"(1021, 424)","(1016, 460)","(1015, 496)","(1018, 531)","(1029, 565)","(1047, 598)","(1071, 627)","(1098, 652)","(1128, 661)","(1155, 656)","(1178, 635)","(1198, 612)","(1215, 586)","(1228, 559)","(1236, 532)","(1242, 504)","(1244, 475)","(1058, 427)","(1080, 423)","(1102, 427)","(1124, 436)","(1143, 449)","(1185, 455)","(1203, 449)","(1220, 446)","(1237, 446)","(1247, 456)","(1162, 473)","(1160, 498)","(1158, 522)","(1156, 548)","(1127, 549)","(1138, 557)","(1150, 564)","(1162, 562)","(1171, 556)","(1081, 456)","(1095, 453)","(1111, 456)","(1123, 467)","(1108, 468)","(1092, 466)","(1184, 475)","(1199, 467)","(1214, 469)","(1224, 477)","(1213, 483)","(1199, 481)","(1097, 583)","(1116, 583)","(1133, 583)","(1143, 588)","(1154, 586)","(1165, 590)","(1174, 594)","(1163, 608)","(1151, 614)","(1139, 614)","(1128, 612)","(1112, 602)","(1105, 585)","(1132, 593)","(1142, 596)","(1152, 595)","(1167, 595)","(1152, 596)","(1142, 597)","(1131, 594)",0.35,0.68,75.0,0.36,0.13,0.34,0.02,-15.5,0.04,0.39,63.4,65.3,95.9,42.9,39.9,78.85,49.23,51.17,69.88
3600,-720896,76,-56,-1,-1,0,"(1020, 419)","(1016, 455)","(1016, 491)","(1019, 526)","(1029, 559)","(1045, 592)","(1066, 623)","(1091, 649)","(1120, 660)","(1148, 656)","(1172, 635)","(1194, 613)","(1213, 588)","(1229, 561)","(1240, 532)","(1250, 501)","(1256, 469)","(1052, 425)","(1075, 421)","(1098, 426)","(1118, 435)","(1138, 447)","(1179, 452)","(1199, 446)","(1218, 444)","(1237, 445)","(1250, 455)","(1156, 470)","(1153, 495)","(1150, 520)","(1148, 546)","(1120, 546)","(1130, 554)","(1142, 561)","(1154, 558)","(1164, 554)","(1076, 452)","(1090, 448)","(1106, 451)","(1117, 463)","(1103, 465)","(1087, 462)","(1182, 472)","(1196, 464)","(1212, 465)","(1223, 473)","(1212, 480)","(1196, 478)","(1094, 581)","(1110, 579)","(1126, 579)","(1136, 584)","(1147, 582)","(1159, 587)","(1169, 594)","(1156, 608)","(1143, 614)","(1132, 614)","(1120, 611)","(1106, 601)","(1102, 584)","(1125, 589)","(1135, 592)","(1146, 592)","(1161, 595)","(1145, 594)","(1134, 595)","(1123, 592)",0.35,0.77,75.0,0.34,0.14,0.31,0.02,-16.5,0.03,0.4,54.2,55.7,84.1,38.1,35.35,73.6,46.76,49.17,67.7
3633,-1114112,76,-56,-1,-1,0,"(1021, 416)","(1016, 452)","(1014, 487)","(1016, 521)","(1024, 556)","(1038, 590)","(1059, 621)","(1084, 647)","(1114, 658)","(1143, 654)","(1169, 634)","(1191, 610)","(1210, 584)","(1225, 556)","(1235, 526)","(1242, 495)","(1246, 463)","(1047, 422)","(1067, 416)","(1090, 420)","(1111, 429)","(1131, 441)","(1172, 447)","(1193, 441)","(1213, 439)","(1232, 441)","(1243, 452)","(1148, 466)","(1145, 491)","(1142, 516)","(1139, 541)","(1112, 542)","(1123, 550)","(1134, 557)","(1147, 554)","(1157, 550)","(1069, 447)","(1083, 442)","(1100, 446)","(1112, 459)","(1096, 460)","(1080, 457)","(1175, 468)","(1190, 459)","(1206, 461)","(1217, 469)","(1206, 476)","(1190, 474)","(1087, 577)","(1103, 575)","(1119, 575)","(1129, 581)","(1140, 579)","(1153, 584)","(1164, 590)","(1150, 605)","(1137, 611)","(1124, 612)","(1112, 609)","(1098, 598)","(1095, 579)","(1117, 585)","(1128, 589)","(1139, 589)","(1156, 591)","(1138, 593)","(1127, 594)","(1116, 591)",0.35,0.8,75.0,0.37,0.14,0.34,0.03,-17.5,0.04,0.39,59.4,60.6,90.9,37.55,35.9,73.05,51.11,54.35,73.76
