milliseconds, ECG, ECG HR, PPG, PPG HR, SpO2, PI
1523616866406,-524288,83,-56,-1,-1,0
1523616866406,-524288,83,-56,-1,-1,0
1523616866406,-524288,83,-56,-1,-1,0
1523616866406,-458752,83,-56,-1,-1,0
1523616866406,-458752,83,-56,-1,-1,0
1523616866425,-524288,83,-56,-1,-1,0
1523616866425,-524288,83,-56,-1,-1,0
1523616866425,-524288,83,-56,-1,-1,0
1523616866425,-524288,83,-56,-1,-1,0
1523616866425,-524288,83,-56,-1,-1,0
1523616866465,-524288,83,-56,-1,-1,0
1523616866465,-524288,83,-56,-1,-1,0
1523616866465,-524288,83,-56,-1,-1,0
1523616866465,-524288,83,-56,-1,-1,0
1523616866465,-458752,83,-56,-1,-1,0
1523616866505,-524288,83,-56,-1,-1,0
1523616866505,-458752,83,-56,-1,-1,0
1523616866505,-458752,83,-56,-1,-1,0
1523616866505,-458752,83,-56,-1,-1,0
1523616866505,-393216,83,-56,-1,-1,0
1523616866545,-393216,83,-56,-1,-1,0
1523616866545,-327680,83,-56,-1,-1,0
1523616866545,-262144,83,-56,-1,-1,0
1523616866545,-131072,83,-56,-1,-1,0
1523616866545,-131072,83,-56,-1,-1,0
1523616866585,-196608,83,-56,-1,-1,0
1523616866585,-262144,83,-56,-1,-1,0
1523616866585,-262144,83,-56,-1,-1,0
1523616866585,-327680,83,-56,-1,-1,0
1523616866585,-393216,83,-56,-1,-1,0
1523616866625,-393216,83,-56,-1,-1,0
1523616866625,-393216,83,-56,-1,-1,0
1523616866625,-393216,83,-56,-1,-1,0
1523616866625,-458752,83,-56,-1,-1,0
1523616866625,-458752,83,-56,-1,-1,0
1523616866665,-458752,83,-56,-1,-1,0
1523616866665,-458752,83,-56,-1,-1,0
1523616866665,-458752,83,-56,-1,-1,0
1523616866665,-589824,83,-56,-1,-1,0
1523616866665,0,83,-56,-1,-1,0
1523616866705,3014656,83,-56,-1,-1,0
1523616866705,8192000,83,-56,-1,-1,0
1523616866705,11927552,83,-56,-1,-1,0
1523616866705,9109504,83,-56,-1,-1,0
1523616866705,1310720,83,-56,-1,-1,0
1523616866745,-3670016,83,-56,-1,-1,0
1523616866745,-3342336,83,-56,-1,-1,0
1523616866745,-1769472,83,-56,-1,-1,0
1523616866745,-851968,83,-56,-1,-1,0
1523616866745,-327680,83,-56,-1,-1,0
1523616866785,-65536,83,-56,-1,-1,0
1523616866785,0,83,-56,-1,-1,0
1523616866785,65536,83,-56,-1,-1,0
1523616866785,65536,83,-56,-1,-1,0
1523616866785,131072,83,-56,-1,-1,0
1523616866825,196608,82,-56,-1,-1,0
1523616866825,196608,82,-56,-1,-1,0
1523616866825,196608,82,-56,-1,-1,0
1523616866825,262144,82,-56,-1,-1,0
1523616866825,327680,82,-56,-1,-1,0
1523616866865,393216,82,-56,-1,-1,0
1523616866865,524288,82,-56,-1,-1,0
1523616866865,589824,82,-56,-1,-1,0
1523616866865,786432,82,-56,-1,-1,0
1523616866865,1048576,82,-56,-1,-1,0
1523616866905,1310720,82,-56,-1,-1,0
1523616866905,1572864,82,-56,-1,-1,0
1523616866905,1769472,82,-56,-1,-1,0
1523616866905,1966080,82,-56,-1,-1,0
1523616866905,2097152,82,-56,-1,-1,0
1523616866945,2162688,82,-56,-1,-1,0
1523616866945,2031616,82,-56,-1,-1,0
1523616866945,1572864,82,-56,-1,-1,0
1523616866945,983040,82,-56,-1,-1,0
1523616866945,458752,82,-56,-1,-1,0
1523616866985,65536,82,-56,-1,-1,0
1523616866985,-196608,82,-56,-1,-1,0
1523616866985,-393216,82,-56,-1,-1,0
1523616866985,-524288,82,-56,-1,-1,0
1523616866985,-589824,82,-56,-1,-1,0
1523616867039,-655360,82,-56,-1,-1,0
1523616867039,-655360,82,-56,-1,-1,0
1523616867039,-655360,82,-56,-1,-1,0
1523616867039,-720896,82,-56,-1,-1,0
1523616867039,-786432,82,-56,-1,-1,0
1523616867065,-786432,82,-56,-1,-1,0
1523616867065,-720896,82,-56,-1,-1,0
1523616867065,-655360,82,-56,-1,-1,0
1523616867065,-655360,82,-56,-1,-1,0
1523616867065,-589824,82,-56,-1,-1,0
1523616867105,-524288,82,-56,-1,-1,0
1523616867105,-524288,82,-56,-1,-1,0
1523616867105,-589824,82,-56,-1,-1,0
1523616867105,-524288,82,-56,-1,-1,0
1523616867105,-524288,82,-56,-1,-1,0
1523616867145,-524288,82,-56,-1,-1,0
1523616867145,-524288,82,-56,-1,-1,0
1523616867145,-524288,82,-56,-1,-1,0
1523616867145,-524288,82,-56,-1,-1,0
1523616867145,-524288,82,-56,-1,-1,0
1523616867185,-589824,82,-56,-1,-1,0
1523616867185,-589824,82,-56,-1,-1,0
1523616867185,-655360,82,-56,-1,-1,0
1523616867185,-655360,82,-56,-1,-1,0
1523616867185,-720896,82,-56,-1,-1,0
1523616867225,-720896,82,-56,-1,-1,0
1523616867225,-786432,82,-56,-1,-1,0
1523616867225,-720896,82,-56,-1,-1,0
1523616867225,-720896,82,-56,-1,-1,0
1523616867225,-720896,82,-56,-1,-1,0
1523616867265,-720896,82,-56,-1,-1,0
1523616867265,-720896,82,-56,-1,-1,0
1523616867265,-720896,82,-56,-1,-1,0
1523616867265,-720896,82,-56,-1,-1,0
1523616867265,-720896,82,-56,-1,-1,0
1523616867305,-720896,82,-56,-1,-1,0
1523616867305,-720896,82,-56,-1,-1,0
1523616867305,-720896,82,-56,-1,-1,0
1523616867305,-720896,82,-56,-1,-1,0
1523616867305,-720896,82,-56,-1,-1,0
1523616867345,-720896,82,-56,-1,-1,0
1523616867345,-589824,82,-56,-1,-1,0
1523616867345,-524288,82,-56,-1,-1,0
1523616867345,-524288,82,-56,-1,-1,0
1523616867345,-589824,82,-56,-1,-1,0
1523616867385,-524288,82,-56,-1,-1,0
1523616867385,-393216,82,-56,-1,-1,0
1523616867385,-327680,82,-56,-1,-1,0
1523616867385,-393216,82,-56,-1,-1,0
1523616867385,-458752,82,-56,-1,-1,0
1523616867425,-458752,82,-56,-1,-1,0
1523616867425,-524288,82,-56,-1,-1,0
1523616867425,-589824,82,-56,-1,-1,0
1523616867425,-589824,82,-56,-1,-1,0
1523616867425,-655360,82,-56,-1,-1,0
1523616867465,-655360,82,-56,-1,-1,0
1523616867465,-655360,82,-56,-1,-1,0
1523616867465,-655360,82,-56,-1,-1,0
1523616867465,-655360,82,-56,-1,-1,0
1523616867465,-655360,82,-56,-1,-1,0
1523616867505,-720896,82,-56,-1,-1,0
1523616867505,-851968,82,-56,-1,-1,0
1523616867505,-720896,82,-56,-1,-1,0
1523616867505,1245184,82,-56,-1,-1,0
1523616867505,5898240,82,-56,-1,-1,0
1523616867545,11075584,82,-56,-1,-1,0
1523616867545,11206656,82,-56,-1,-1,0
1523616867545,4390912,82,-56,-1,-1,0
1523616867545,-2490368,82,-56,-1,-1,0
1523616867545,-3997696,82,-56,-1,-1,0
1523616867585,-2359296,82,-56,-1,-1,0
1523616867585,-1310720,82,-56,-1,-1,0
1523616867585,-851968,82,-56,-1,-1,0
1523616867585,-524288,82,-56,-1,-1,0
1523616867585,-393216,82,-56,-1,-1,0
1523616867625,-262144,82,-56,-1,-1,0
1523616867625,-196608,82,-56,-1,-1,0
1523616867625,-131072,82,-56,-1,-1,0
1523616867625,-65536,82,-56,-1,-1,0
1523616867625,0,82,-56,-1,-1,0
1523616867679,0,80,-56,-1,-1,0
1523616867679,65536,80,-56,-1,-1,0
1523616867679,65536,80,-56,-1,-1,0
1523616867679,196608,80,-56,-1,-1,0
1523616867679,262144,80,-56,-1,-1,0
1523616867705,458752,80,-56,-1,-1,0
1523616867705,589824,80,-56,-1,-1,0
1523616867705,851968,80,-56,-1,-1,0
1523616867705,1048576,80,-56,-1,-1,0
1523616867705,1245184,80,-56,-1,-1,0
1523616867745,1507328,80,-56,-1,-1,0
1523616867745,1703936,80,-56,-1,-1,0
1523616867745,1900544,80,-56,-1,-1,0
1523616867745,2031616,80,-56,-1,-1,0
1523616867745,1966080,80,-56,-1,-1,0
1523616867785,1703936,80,-56,-1,-1,0
1523616867785,1179648,80,-56,-1,-1,0
1523616867785,589824,80,-56,-1,-1,0
1523616867785,131072,80,-56,-1,-1,0
1523616867785,-131072,80,-56,-1,-1,0
1523616867825,-393216,80,-56,-1,-1,0
1523616867825,-589824,80,-56,-1,-1,0
1523616867825,-720896,80,-56,-1,-1,0
1523616867825,-786432,80,-56,-1,-1,0
1523616867825,-786432,80,-56,-1,-1,0
1523616867865,-786432,80,-56,-1,-1,0
1523616867865,-786432,80,-56,-1,-1,0
1523616867865,-786432,80,-56,-1,-1,0
1523616867865,-786432,80,-56,-1,-1,0
1523616867865,-720896,80,-56,-1,-1,0
1523616867905,-720896,80,-56,-1,-1,0
1523616867905,-655360,80,-56,-1,-1,0
1523616867905,-655360,80,-56,-1,-1,0
1523616867905,-655360,80,-56,-1,-1,0
1523616867905,-655360,80,-56,-1,-1,0
1523616867945,-655360,80,-56,-1,-1,0
1523616867945,-589824,80,-56,-1,-1,0
1523616867945,-589824,80,-56,-1,-1,0
1523616867945,-589824,80,-56,-1,-1,0
1523616867945,-589824,80,-56,-1,-1,0
1523616867985,-589824,80,-56,-1,-1,0
1523616867985,-589824,80,-56,-1,-1,0
1523616867985,-589824,80,-56,-1,-1,0
1523616867985,-589824,80,-56,-1,-1,0
1523616867985,-589824,80,-56,-1,-1,0
1523616868026,-589824,80,-56,-1,-1,0
1523616868026,-589824,80,-56,-1,-1,0
1523616868026,-589824,80,-56,-1,-1,0
1523616868026,-589824,80,-56,-1,-1,0
1523616868026,-589824,80,-56,-1,-1,0
1523616868065,-655360,80,-56,-1,-1,0
1523616868065,-655360,80,-56,-1,-1,0
1523616868065,-655360,80,-56,-1,-1,0
1523616868065,-655360,80,-56,-1,-1,0
1523616868065,-655360,80,-56,-1,-1,0
1523616868105,-589824,80,-56,-1,-1,0
1523616868105,-589824,80,-56,-1,-1,0
1523616868105,-589824,80,-56,-1,-1,0
1523616868105,-589824,80,-56,-1,-1,0
1523616868105,-589824,80,-56,-1,-1,0
1523616868145,-589824,80,-56,-1,-1,0
1523616868145,-589824,80,-56,-1,-1,0
1523616868145,-589824,80,-56,-1,-1,0
1523616868145,-589824,80,-56,-1,-1,0
1523616868145,-589824,80,-56,-1,-1,0
1523616868185,-589824,80,-56,-1,-1,0
1523616868185,-589824,80,-56,-1,-1,0
1523616868185,-589824,80,-56,-1,-1,0
1523616868185,-524288,80,-56,-1,-1,0
1523616868185,-393216,80,-56,-1,-1,0
1523616868225,-327680,80,-56,-1,-1,0
1523616868225,-327680,80,-56,-1,-1,0
1523616868225,-458752,80,-56,-1,-1,0
1523616868225,-458752,80,-56,-1,-1,0
1523616868225,-458752,80,-56,-1,-1,0
1523616868265,-589824,80,-56,-1,-1,0
1523616868265,-720896,80,-56,-1,-1,0
1523616868265,-720896,80,-56,-1,-1,0
1523616868265,-786432,80,-56,-1,-1,0
1523616868265,-786432,80,-56,-1,-1,0
1523616868318,-786432,80,-56,-1,-1,0
1523616868318,-720896,80,-56,-1,-1,0
1523616868318,-720896,80,-56,-1,-1,0
1523616868318,-720896,80,-56,-1,-1,0
1523616868318,-786432,80,-56,-1,-1,0
1523616868345,-917504,80,-56,-1,-1,0
1523616868345,-196608,80,-56,-1,-1,0
1523616868345,2686976,80,-56,-1,-1,0
1523616868345,7536640,80,-56,-1,-1,0
1523616868345,10878976,80,-56,-1,-1,0
1523616868385,8192000,80,-56,-1,-1,0
1523616868385,917504,80,-56,-1,-1,0
1523616868385,-3735552,80,-56,-1,-1,0
1523616868385,-3342336,80,-56,-1,-1,0
1523616868385,-1835008,80,-56,-1,-1,0
1523616868425,-1048576,80,-56,-1,-1,0
1523616868425,-655360,80,-56,-1,-1,0
1523616868425,-393216,80,-56,-1,-1,0
1523616868425,-327680,80,-56,-1,-1,0
1523616868425,-196608,80,-56,-1,-1,0
1523616868465,-131072,80,-56,-1,-1,0
1523616868465,-65536,80,-56,-1,-1,0
1523616868465,0,80,-56,-1,-1,0
1523616868465,65536,80,-56,-1,-1,0
1523616868465,65536,80,-56,-1,-1,0
1523616868505,131072,78,-56,-1,-1,0
1523616868505,196608,78,-56,-1,-1,0
1523616868505,327680,78,-56,-1,-1,0
1523616868505,393216,78,-56,-1,-1,0
1523616868505,589824,78,-56,-1,-1,0
1523616868546,786432,78,-56,-1,-1,0
1523616868546,1048576,78,-56,-1,-1,0
1523616868546,1245184,78,-56,-1,-1,0
1523616868546,1507328,78,-56,-1,-1,0
1523616868546,1703936,78,-56,-1,-1,0
1523616868585,1900544,78,-56,-1,-1,0
1523616868585,2031616,78,-56,-1,-1,0
1523616868585,2097152,78,-56,-1,-1,0
1523616868585,1966080,78,-56,-1,-1,0
1523616868585,1638400,78,-56,-1,-1,0
1523616868626,1114112,78,-56,-1,-1,0
1523616868626,524288,78,-56,-1,-1,0
1523616868626,65536,78,-56,-1,-1,0
1523616868626,-196608,78,-56,-1,-1,0
1523616868626,-393216,78,-56,-1,-1,0
1523616868665,-524288,78,-56,-1,-1,0
1523616868665,-589824,78,-56,-1,-1,0
1523616868665,-655360,78,-56,-1,-1,0
1523616868665,-720896,78,-56,-1,-1,0
1523616868665,-720896,78,-56,-1,-1,0
1523616868705,-655360,78,-56,-1,-1,0
1523616868705,-655360,78,-56,-1,-1,0
1523616868705,-655360,78,-56,-1,-1,0
1523616868705,-655360,78,-56,-1,-1,0
1523616868705,-589824,78,-56,-1,-1,0
1523616868745,-524288,78,-56,-1,-1,0
1523616868745,-524288,78,-56,-1,-1,0
1523616868745,-524288,78,-56,-1,-1,0
1523616868745,-524288,78,-56,-1,-1,0
1523616868745,-524288,78,-56,-1,-1,0
1523616868785,-524288,78,-56,-1,-1,0
1523616868785,-524288,78,-56,-1,-1,0
1523616868785,-524288,78,-56,-1,-1,0
1523616868785,-524288,78,-56,-1,-1,0
1523616868785,-589824,78,-56,-1,-1,0
1523616868825,-589824,78,-56,-1,-1,0
1523616868825,-589824,78,-56,-1,-1,0
1523616868825,-589824,78,-56,-1,-1,0
1523616868825,-589824,78,-56,-1,-1,0
1523616868825,-524288,78,-56,-1,-1,0
1523616868865,-524288,78,-56,-1,-1,0
1523616868865,-524288,78,-56,-1,-1,0
1523616868865,-589824,78,-56,-1,-1,0
1523616868865,-589824,78,-56,-1,-1,0
1523616868865,-589824,78,-56,-1,-1,0
1523616868905,-589824,78,-56,-1,-1,0
1523616868905,-589824,78,-56,-1,-1,0
1523616868905,-589824,78,-56,-1,-1,0
1523616868905,-589824,78,-56,-1,-1,0
1523616868905,-589824,78,-56,-1,-1,0
1523616868960,-655360,78,-56,-1,-1,0
1523616868960,-655360,78,-56,-1,-1,0
1523616868960,-655360,78,-56,-1,-1,0
1523616868960,-589824,78,-56,-1,-1,0
1523616868960,-589824,78,-56,-1,-1,0
1523616868986,-589824,78,-56,-1,-1,0
1523616868986,-589824,78,-56,-1,-1,0
1523616868986,-589824,78,-56,-1,-1,0
1523616868986,-589824,78,-56,-1,-1,0
1523616868986,-589824,78,-56,-1,-1,0
1523616869026,-589824,78,-56,-1,-1,0
1523616869026,-589824,78,-56,-1,-1,0
1523616869026,-589824,78,-56,-1,-1,0
1523616869026,-589824,78,-56,-1,-1,0
1523616869026,-458752,78,-56,-1,-1,0
1523616869065,-327680,78,-56,-1,-1,0
1523616869065,-262144,78,-56,-1,-1,0
1523616869065,-262144,78,-56,-1,-1,0
1523616869065,-327680,78,-56,-1,-1,0
1523616869065,-393216,78,-56,-1,-1,0
1523616869105,-458752,78,-56,-1,-1,0
1523616869105,-524288,78,-56,-1,-1,0
1523616869105,-589824,78,-56,-1,-1,0
1523616869105,-655360,78,-56,-1,-1,0
1523616869105,-655360,78,-56,-1,-1,0
1523616869145,-655360,78,-56,-1,-1,0
1523616869145,-655360,78,-56,-1,-1,0
1523616869145,-589824,78,-56,-1,-1,0
1523616869145,-589824,78,-56,-1,-1,0
1523616869145,-589824,78,-56,-1,-1,0
1523616869185,-589824,78,-56,-1,-1,0
1523616869185,-720896,78,-56,-1,-1,0
1523616869185,327680,78,-56,-1,-1,0
1523616869185,3997696,78,-56,-1,-1,0
1523616869185,9371648,78,-56,-1,-1,0
1523616869225,11796480,78,-56,-1,-1,0
1523616869225,7012352,78,-56,-1,-1,0
1523616869225,-720896,78,-56,-1,-1,0
1523616869225,-4259840,78,-56,-1,-1,0
1523616869225,-3014656,78,-56,-1,-1,0
1523616869265,-1638400,77,-56,-1,-1,0
1523616869265,-851968,77,-56,-1,-1,0
1523616869265,-458752,77,-56,-1,-1,0
1523616869265,-327680,77,-56,-1,-1,0
1523616869265,-131072,77,-56,-1,-1,0
1523616869308,-65536,77,-56,-1,-1,0
1523616869308,0,77,-56,-1,-1,0
1523616869308,0,77,-56,-1,-1,0
1523616869308,65536,77,-56,-1,-1,0
1523616869308,131072,77,-56,-1,-1,0
1523616869345,196608,77,-56,-1,-1,0
1523616869345,262144,77,-56,-1,-1,0
1523616869345,327680,77,-56,-1,-1,0
1523616869345,458752,77,-56,-1,-1,0
1523616869345,589824,77,-56,-1,-1,0
1523616869385,786432,77,-56,-1,-1,0
1523616869385,983040,77,-56,-1,-1,0
1523616869385,1310720,77,-56,-1,-1,0
1523616869385,1572864,77,-56,-1,-1,0
1523616869385,1835008,77,-56,-1,-1,0
1523616869425,2031616,77,-56,-1,-1,0
1523616869425,2228224,77,-56,-1,-1,0
1523616869425,2424832,77,-56,-1,-1,0
1523616869425,2424832,77,-56,-1,-1,0
1523616869425,2228224,77,-56,-1,-1,0
1523616869465,1835008,77,-56,-1,-1,0
1523616869465,1245184,77,-56,-1,-1,0
1523616869465,655360,77,-56,-1,-1,0
1523616869465,196608,77,-56,-1,-1,0
1523616869465,0,77,-56,-1,-1,0
1523616869506,-262144,77,-56,-1,-1,0
1523616869506,-393216,77,-56,-1,-1,0
1523616869506,-458752,77,-56,-1,-1,0
1523616869506,-524288,77,-56,-1,-1,0
1523616869506,-524288,77,-56,-1,-1,0
1523616869545,-589824,77,-56,-1,-1,0
1523616869545,-589824,77,-56,-1,-1,0
1523616869545,-589824,77,-56,-1,-1,0
1523616869545,-524288,77,-56,-1,-1,0
1523616869545,-524288,77,-56,-1,-1,0
1523616869598,-524288,77,-56,-1,-1,0
1523616869598,-458752,77,-56,-1,-1,0
1523616869598,-458752,77,-56,-1,-1,0
1523616869598,-458752,77,-56,-1,-1,0
1523616869598,-393216,77,-56,-1,-1,0
1523616869625,-393216,77,-56,-1,-1,0
1523616869625,-393216,77,-56,-1,-1,0
1523616869625,-393216,77,-56,-1,-1,0
1523616869625,-393216,77,-56,-1,-1,0
1523616869625,-458752,77,-56,-1,-1,0
1523616869665,-458752,77,-56,-1,-1,0
1523616869665,-458752,77,-56,-1,-1,0
1523616869665,-458752,77,-56,-1,-1,0
1523616869665,-458752,77,-56,-1,-1,0
1523616869665,-524288,77,-56,-1,-1,0
1523616869705,-524288,77,-56,-1,-1,0
1523616869705,-589824,77,-56,-1,-1,0
1523616869705,-589824,77,-56,-1,-1,0
1523616869705,-589824,77,-56,-1,-1,0
1523616869705,-589824,77,-56,-1,-1,0
1523616869745,-589824,77,-56,-1,-1,0
1523616869745,-589824,77,-56,-1,-1,0
1523616869745,-589824,77,-56,-1,-1,0
1523616869745,-589824,77,-56,-1,-1,0
1523616869745,-589824,77,-56,-1,-1,0
1523616869785,-655360,77,-56,-1,-1,0
1523616869785,-655360,77,-56,-1,-1,0
1523616869785,-720896,77,-56,-1,-1,0
1523616869785,-655360,77,-56,-1,-1,0
1523616869785,-655360,77,-56,-1,-1,0
1523616869826,-655360,77,-56,-1,-1,0
1523616869826,-655360,77,-56,-1,-1,0
1523616869826,-655360,77,-56,-1,-1,0
1523616869826,-589824,77,-56,-1,-1,0
1523616869826,-458752,77,-56,-1,-1,0
1523616869865,-393216,77,-56,-1,-1,0
1523616869865,-458752,77,-56,-1,-1,0
1523616869865,-524288,77,-56,-1,-1,0
1523616869865,-524288,77,-56,-1,-1,0
1523616869865,-589824,77,-56,-1,-1,0
1523616869908,-655360,77,-56,-1,-1,0
1523616869908,-786432,77,-56,-1,-1,0
1523616869908,-786432,77,-56,-1,-1,0
1523616869908,-786432,77,-56,-1,-1,0
1523616869908,-720896,77,-56,-1,-1,0
1523616869945,-720896,77,-56,-1,-1,0
1523616869945,-720896,77,-56,-1,-1,0
1523616869945,-720896,77,-56,-1,-1,0
1523616869945,-720896,77,-56,-1,-1,0
1523616869945,-720896,77,-56,-1,-1,0
1523616869986,-786432,77,-56,-1,-1,0
1523616869986,327680,77,-56,-1,-1,0
1523616869986,4063232,77,-56,-1,-1,0
1523616869986,9306112,77,-56,-1,-1,0
1523616869986,11730944,77,-56,-1,-1,0
1523616870025,7012352,77,-56,-1,-1,0
1523616870025,-720896,77,-56,-1,-1,0
1523616870025,-4259840,77,-56,-1,-1,0
1523616870025,-2883584,77,-56,-1,-1,0
1523616870025,-1507328,77,-56,-1,-1,0
1523616870065,-851968,76,-56,-1,-1,0
1523616870065,-524288,76,-56,-1,-1,0
1523616870065,-327680,76,-56,-1,-1,0
1523616870065,-196608,76,-56,-1,-1,0
1523616870065,-131072,76,-56,-1,-1,0
1523616870105,0,76,-56,-1,-1,0
1523616870105,0,76,-56,-1,-1,0
1523616870105,65536,76,-56,-1,-1,0
1523616870105,131072,76,-56,-1,-1,0
1523616870105,262144,76,-56,-1,-1,0
1523616870145,393216,76,-56,-1,-1,0
1523616870145,524288,76,-56,-1,-1,0
1523616870145,655360,76,-56,-1,-1,0
1523616870145,786432,76,-56,-1,-1,0
1523616870145,917504,76,-56,-1,-1,0
1523616870185,1048576,76,-56,-1,-1,0
1523616870185,1245184,76,-56,-1,-1,0
1523616870185,1441792,76,-56,-1,-1,0
1523616870185,1769472,76,-56,-1,-1,0
1523616870185,1900544,76,-56,-1,-1,0
1523616870237,2097152,76,-56,-1,-1,0
1523616870237,2162688,76,-56,-1,-1,0
1523616870237,2162688,76,-56,-1,-1,0
1523616870237,1966080,76,-56,-1,-1,0
1523616870237,1507328,76,-56,-1,-1,0
1523616870266,917504,76,-56,-1,-1,0
1523616870266,393216,76,-56,-1,-1,0
1523616870266,0,76,-56,-1,-1,0
1523616870266,-262144,76,-56,-1,-1,0
1523616870266,-524288,76,-56,-1,-1,0
1523616870305,-720896,76,-56,-1,-1,0
1523616870305,-786432,76,-56,-1,-1,0
1523616870305,-851968,76,-56,-1,-1,0
1523616870305,-851968,76,-56,-1,-1,0
1523616870305,-917504,76,-56,-1,-1,0
1523616870345,-917504,76,-56,-1,-1,0
1523616870345,-917504,76,-56,-1,-1,0
1523616870345,-851968,76,-56,-1,-1,0
1523616870345,-786432,76,-56,-1,-1,0
1523616870345,-786432,76,-56,-1,-1,0
1523616870385,-720896,76,-56,-1,-1,0
1523616870385,-720896,76,-56,-1,-1,0
1523616870385,-720896,76,-56,-1,-1,0
1523616870385,-720896,76,-56,-1,-1,0
1523616870385,-720896,76,-56,-1,-1,0
1523616870425,-655360,76,-56,-1,-1,0
1523616870425,-589824,76,-56,-1,-1,0
1523616870425,-589824,76,-56,-1,-1,0
1523616870425,-655360,76,-56,-1,-1,0
1523616870425,-655360,76,-56,-1,-1,0
1523616870468,-589824,76,-56,-1,-1,0
1523616870468,-524288,76,-56,-1,-1,0
1523616870468,-458752,76,-56,-1,-1,0
1523616870468,-393216,76,-56,-1,-1,0
1523616870468,-458752,76,-56,-1,-1,0
1523616870505,-458752,76,-56,-1,-1,0
1523616870505,-524288,76,-56,-1,-1,0
1523616870505,-589824,76,-56,-1,-1,0
1523616870505,-589824,76,-56,-1,-1,0
1523616870505,-655360,76,-56,-1,-1,0
1523616870545,-720896,76,-56,-1,-1,0
1523616870545,-720896,76,-56,-1,-1,0
1523616870545,-720896,76,-56,-1,-1,0
1523616870545,-720896,76,-56,-1,-1,0
1523616870545,-720896,76,-56,-1,-1,0
1523616870586,-720896,76,-56,-1,-1,0
1523616870586,-720896,76,-56,-1,-1,0
1523616870586,-720896,76,-56,-1,-1,0
1523616870586,-655360,76,-56,-1,-1,0
1523616870586,-655360,76,-56,-1,-1,0
1523616870625,-720896,76,-56,-1,-1,0
1523616870625,-655360,76,-56,-1,-1,0
1523616870625,-655360,76,-56,-1,-1,0
1523616870625,-589824,76,-56,-1,-1,0
1523616870625,-393216,76,-56,-1,-1,0
1523616870665,-327680,76,-56,-1,-1,0
1523616870665,-327680,76,-56,-1,-1,0
1523616870665,-393216,76,-56,-1,-1,0
1523616870665,-524288,76,-56,-1,-1,0
1523616870665,-589824,76,-56,-1,-1,0
1523616870705,-720896,76,-56,-1,-1,0
1523616870705,-786432,76,-56,-1,-1,0
1523616870705,-917504,76,-56,-1,-1,0
1523616870705,-983040,76,-56,-1,-1,0
1523616870705,-1048576,76,-56,-1,-1,0
1523616870745,-1114112,76,-56,-1,-1,0
1523616870745,-1245184,76,-56,-1,-1,0
1523616870745,-1310720,76,-56,-1,-1,0
1523616870745,-1310720,76,-56,-1,-1,0
1523616870745,-1376256,76,-56,-1,-1,0
1523616870785,-1310720,76,-56,-1,-1,0
1523616870785,65536,76,-56,-1,-1,0
1523616870785,3866624,76,-56,-1,-1,0
1523616870785,8585216,76,-56,-1,-1,0
1523616870785,9764864,76,-56,-1,-1,0
1523616870825,4390912,76,-56,-1,-1,0
1523616870825,-2424832,76,-56,-1,-1,0
1523616870825,-4784128,76,-56,-1,-1,0
1523616870825,-3145728,76,-56,-1,-1,0
1523616870825,-1769472,76,-56,-1,-1,0
1523616870877,-1114112,76,-56,-1,-1,0
1523616870877,-720896,76,-56,-1,-1,0
1523616870877,-589824,76,-56,-1,-1,0
1523616870877,-393216,76,-56,-1,-1,0
1523616870877,-327680,76,-56,-1,-1,0
1523616870905,-196608,76,-56,-1,-1,0
1523616870905,-131072,76,-56,-1,-1,0
1523616870905,-131072,76,-56,-1,-1,0
1523616870905,-65536,76,-56,-1,-1,0
1523616870905,0,76,-56,-1,-1,0
1523616870945,0,76,-56,-1,-1,0
1523616870945,65536,76,-56,-1,-1,0
1523616870945,131072,76,-56,-1,-1,0
1523616870945,262144,76,-56,-1,-1,0
1523616870945,393216,76,-56,-1,-1,0
1523616870985,589824,76,-56,-1,-1,0
1523616870985,786432,76,-56,-1,-1,0
1523616870985,1048576,76,-56,-1,-1,0
1523616870985,1376256,76,-56,-1,-1,0
1523616870985,1572864,76,-56,-1,-1,0
1523616871025,1769472,76,-56,-1,-1,0
1523616871025,1900544,76,-56,-1,-1,0
1523616871025,1966080,76,-56,-1,-1,0
1523616871025,1835008,76,-56,-1,-1,0
1523616871025,1507328,76,-56,-1,-1,0
1523616871065,1048576,76,-56,-1,-1,0
1523616871065,524288,76,-56,-1,-1,0
1523616871065,131072,76,-56,-1,-1,0
1523616871065,-131072,76,-56,-1,-1,0
1523616871065,-327680,76,-56,-1,-1,0
1523616871105,-458752,76,-56,-1,-1,0
1523616871105,-589824,76,-56,-1,-1,0
1523616871105,-655360,76,-56,-1,-1,0
1523616871105,-720896,76,-56,-1,-1,0
1523616871105,-720896,76,-56,-1,-1,0
1523616871145,-655360,76,-56,-1,-1,0
1523616871145,-655360,76,-56,-1,-1,0
1523616871145,-655360,76,-56,-1,-1,0
1523616871145,-655360,76,-56,-1,-1,0
1523616871145,-589824,76,-56,-1,-1,0
1523616871185,-589824,76,-56,-1,-1,0
1523616871185,-589824,76,-56,-1,-1,0
1523616871185,-589824,76,-56,-1,-1,0
1523616871185,-655360,76,-56,-1,-1,0
1523616871185,-655360,76,-56,-1,-1,0
1523616871225,-655360,76,-56,-1,-1,0
1523616871225,-655360,76,-56,-1,-1,0
1523616871225,-655360,76,-56,-1,-1,0
1523616871225,-720896,76,-56,-1,-1,0
1523616871225,-720896,76,-56,-1,-1,0
1523616871265,-720896,76,-56,-1,-1,0
1523616871265,-720896,76,-56,-1,-1,0
1523616871265,-655360,76,-56,-1,-1,0
1523616871265,-655360,76,-56,-1,-1,0
1523616871265,-720896,76,-56,-1,-1,0
1523616871305,-655360,76,-56,-1,-1,0
1523616871305,-589824,76,-56,-1,-1,0
1523616871305,-589824,76,-56,-1,-1,0
1523616871305,-589824,76,-56,-1,-1,0
1523616871305,-589824,76,-56,-1,-1,0
1523616871345,-589824,76,-56,-1,-1,0
1523616871345,-589824,76,-56,-1,-1,0
1523616871345,-589824,76,-56,-1,-1,0
1523616871345,-524288,76,-56,-1,-1,0
1523616871345,-524288,76,-56,-1,-1,0
1523616871385,-524288,76,-56,-1,-1,0
1523616871385,-458752,76,-56,-1,-1,0
1523616871385,-458752,76,-56,-1,-1,0
1523616871385,-393216,76,-56,-1,-1,0
1523616871385,-327680,76,-56,-1,-1,0
1523616871425,-262144,76,-56,-1,-1,0
1523616871425,-196608,76,-56,-1,-1,0
1523616871425,0,76,-56,-1,-1,0
1523616871425,65536,76,-56,-1,-1,0
1523616871425,0,76,-56,-1,-1,0
1523616871465,0,76,-56,-1,-1,0
1523616871465,-65536,76,-56,-1,-1,0
1523616871465,-65536,76,-56,-1,-1,0
1523616871465,-131072,76,-56,-1,-1,0
1523616871465,-196608,76,-56,-1,-1,0
1523616871518,-196608,76,-56,-1,-1,0
1523616871518,-196608,76,-56,-1,-1,0
1523616871518,-262144,76,-56,-1,-1,0
1523616871518,-327680,76,-56,-1,-1,0
1523616871518,-327680,76,-56,-1,-1,0
1523616871545,-327680,76,-56,-1,-1,0
1523616871545,-327680,76,-56,-1,-1,0
1523616871545,-393216,76,-56,-1,-1,0
1523616871545,-458752,76,-56,-1,-1,0
1523616871545,655360,76,-56,-1,-1,0
1523616871585,4259840,76,-56,-1,-1,0
1523616871585,9240576,76,-56,-1,-1,0
1523616871585,10944512,76,-56,-1,-1,0
1523616871585,5832704,76,-56,-1,-1,0
1523616871585,-1441792,76,-56,-1,-1,0
1523616871625,-4390912,76,-56,-1,-1,0
1523616871625,-3014656,76,-56,-1,-1,0
1523616871625,-1572864,76,-56,-1,-1,0
1523616871625,-786432,76,-56,-1,-1,0
1523616871625,-327680,76,-56,-1,-1,0
1523616871665,-131072,76,-56,-1,-1,0
1523616871665,0,76,-56,-1,-1,0
1523616871665,0,76,-56,-1,-1,0
1523616871665,0,76,-56,-1,-1,0
1523616871665,65536,76,-56,-1,-1,0
1523616871705,131072,76,-56,-1,-1,0
1523616871705,196608,76,-56,-1,-1,0
1523616871705,262144,76,-56,-1,-1,0
1523616871705,327680,76,-56,-1,-1,0
1523616871705,393216,76,-56,-1,-1,0
1523616871745,524288,76,-56,-1,-1,0
1523616871745,655360,76,-56,-1,-1,0
1523616871745,851968,76,-56,-1,-1,0
1523616871745,1048576,76,-56,-1,-1,0
1523616871745,1310720,76,-56,-1,-1,0
1523616871785,1572864,76,-56,-1,-1,0
1523616871785,1900544,76,-56,-1,-1,0
1523616871785,2162688,76,-56,-1,-1,0
1523616871785,2359296,76,-56,-1,-1,0
1523616871785,2490368,76,-56,-1,-1,0
1523616871825,2490368,76,-56,-1,-1,0
1523616871825,2293760,76,-56,-1,-1,0
1523616871825,1835008,76,-56,-1,-1,0
1523616871825,1310720,76,-56,-1,-1,0
1523616871825,786432,76,-56,-1,-1,0
1523616871865,327680,76,-56,-1,-1,0
1523616871865,65536,76,-56,-1,-1,0
1523616871865,-65536,76,-56,-1,-1,0
1523616871865,-131072,76,-56,-1,-1,0
1523616871865,-131072,76,-56,-1,-1,0
1523616871905,-131072,76,-56,-1,-1,0
1523616871905,-131072,76,-56,-1,-1,0
1523616871905,-131072,76,-56,-1,-1,0
1523616871905,-131072,76,-56,-1,-1,0
1523616871905,-131072,76,-56,-1,-1,0
1523616871945,-65536,76,-56,-1,-1,0
1523616871945,0,76,-56,-1,-1,0
1523616871945,0,76,-56,-1,-1,0
1523616871945,0,76,-56,-1,-1,0
1523616871945,65536,76,-56,-1,-1,0
1523616871985,65536,76,-56,-1,-1,0
1523616871985,131072,76,-56,-1,-1,0
1523616871985,65536,76,-56,-1,-1,0
1523616871985,0,76,-56,-1,-1,0
1523616871985,0,76,-56,-1,-1,0
1523616872025,-65536,76,-56,-1,-1,0
1523616872025,-65536,76,-56,-1,-1,0
1523616872025,0,76,-56,-1,-1,0
1523616872025,-65536,76,-56,-1,-1,0
1523616872025,-131072,76,-56,-1,-1,0
1523616872065,-131072,76,-56,-1,-1,0
1523616872065,-196608,76,-56,-1,-1,0
1523616872065,-262144,76,-56,-1,-1,0
1523616872065,-262144,76,-56,-1,-1,0
1523616872065,-327680,76,-56,-1,-1,0
1523616872105,-327680,76,-56,-1,-1,0
1523616872105,-393216,76,-56,-1,-1,0
1523616872105,-458752,76,-56,-1,-1,0
1523616872105,-458752,76,-56,-1,-1,0
1523616872105,-524288,76,-56,-1,-1,0
1523616872158,-524288,76,-56,-1,-1,0
1523616872158,-589824,76,-56,-1,-1,0
1523616872158,-524288,76,-56,-1,-1,0
1523616872158,-524288,76,-56,-1,-1,0
1523616872158,-589824,76,-56,-1,-1,0
1523616872185,-589824,76,-56,-1,-1,0
1523616872185,-655360,76,-56,-1,-1,0
1523616872185,-589824,76,-56,-1,-1,0
1523616872185,-458752,76,-56,-1,-1,0
1523616872185,-458752,76,-56,-1,-1,0
1523616872225,-524288,76,-56,-1,-1,0
1523616872225,-655360,76,-56,-1,-1,0
1523616872225,-720896,76,-56,-1,-1,0
1523616872225,-720896,76,-56,-1,-1,0
1523616872225,-851968,76,-56,-1,-1,0
1523616872265,-983040,76,-56,-1,-1,0
1523616872265,-1048576,76,-56,-1,-1,0
1523616872265,-1048576,76,-56,-1,-1,0
1523616872265,-1114112,76,-56,-1,-1,0
1523616872265,-1114112,76,-56,-1,-1,0
1523616872305,-1179648,76,-56,-1,-1,0
1523616872305,-1179648,76,-56,-1,-1,0
1523616872305,-1179648,76,-56,-1,-1,0
1523616872305,-1245184,76,-56,-1,-1,0
1523616872305,-720896,76,-56,-1,-1,0
1523616872345,1835008,76,-56,-1,-1,0
1523616872345,6291456,76,-56,-1,-1,0
1523616872345,9502720,76,-56,-1,-1,0
1523616872345,7077888,76,-56,-1,-1,0
1523616872345,65536,76,-56,-1,-1,0
1523616872385,-4653056,76,-56,-1,-1,0
1523616872385,-4128768,76,-56,-1,-1,0
1523616872385,-2359296,76,-56,-1,-1,0
1523616872385,-1441792,76,-56,-1,-1,0
1523616872385,-1048576,76,-56,-1,-1,0
1523616872425,-786432,76,-56,-1,-1,0
1523616872425,-655360,76,-56,-1,-1,0
1523616872425,-524288,76,-56,-1,-1,0
1523616872425,-458752,76,-56,-1,-1,0
1523616872425,-393216,76,-56,-1,-1,0
1523616872465,-262144,76,-56,-1,-1,0
1523616872465,-196608,76,-56,-1,-1,0
1523616872465,-131072,76,-56,-1,-1,0
1523616872465,-65536,76,-56,-1,-1,0
1523616872465,0,76,-56,-1,-1,0
1523616872505,0,76,-56,-1,-1,0
1523616872505,65536,76,-56,-1,-1,0
1523616872505,262144,76,-56,-1,-1,0
1523616872505,393216,76,-56,-1,-1,0
1523616872505,589824,76,-56,-1,-1,0
1523616872545,851968,76,-56,-1,-1,0
1523616872545,1114112,76,-56,-1,-1,0
1523616872545,1376256,76,-56,-1,-1,0
1523616872545,1572864,76,-56,-1,-1,0
1523616872545,1703936,76,-56,-1,-1,0
1523616872585,1835008,76,-56,-1,-1,0
1523616872585,1769472,76,-56,-1,-1,0
1523616872585,1441792,76,-56,-1,-1,0
1523616872585,1048576,76,-56,-1,-1,0
1523616872585,589824,76,-56,-1,-1,0
1523616872625,262144,76,-56,-1,-1,0
1523616872625,0,76,-56,-1,-1,0
1523616872625,-65536,76,-56,-1,-1,0
1523616872625,-131072,76,-56,-1,-1,0
1523616872625,-196608,76,-56,-1,-1,0
1523616872665,-196608,76,-56,-1,-1,0
1523616872665,-262144,76,-56,-1,-1,0
1523616872665,-196608,76,-56,-1,-1,0
1523616872665,-196608,76,-56,-1,-1,0
1523616872665,-131072,76,-56,-1,-1,0
1523616872705,-131072,76,-56,-1,-1,0
1523616872705,-65536,76,-56,-1,-1,0
1523616872705,-65536,76,-56,-1,-1,0
1523616872705,-65536,76,-56,-1,-1,0
1523616872705,0,76,-56,-1,-1,0
1523616872745,-65536,76,-56,-1,-1,0
1523616872745,-65536,76,-56,-1,-1,0
1523616872745,-131072,76,-56,-1,-1,0
1523616872745,-131072,76,-56,-1,-1,0
1523616872745,-131072,76,-56,-1,-1,0
1523616872797,-196608,76,-56,-1,-1,0
1523616872797,-196608,76,-56,-1,-1,0
1523616872797,-262144,76,-56,-1,-1,0
1523616872797,-262144,76,-56,-1,-1,0
1523616872797,-327680,76,-56,-1,-1,0
1523616872825,-327680,76,-56,-1,-1,0
1523616872825,-327680,76,-56,-1,-1,0
1523616872825,-393216,76,-56,-1,-1,0
1523616872825,-393216,76,-56,-1,-1,0
1523616872825,-458752,76,-56,-1,-1,0
1523616872865,-458752,76,-56,-1,-1,0
1523616872865,-524288,76,-56,-1,-1,0
1523616872865,-589824,76,-56,-1,-1,0
1523616872865,-589824,76,-56,-1,-1,0
1523616872865,-589824,76,-56,-1,-1,0
1523616872905,-655360,76,-56,-1,-1,0
1523616872905,-655360,76,-56,-1,-1,0
1523616872905,-655360,76,-56,-1,-1,0
1523616872905,-655360,76,-56,-1,-1,0
1523616872905,-589824,76,-56,-1,-1,0
1523616872945,-589824,76,-56,-1,-1,0
1523616872945,-589824,76,-56,-1,-1,0
1523616872945,-589824,76,-56,-1,-1,0
1523616872945,-458752,76,-56,-1,-1,0
1523616872945,-327680,76,-56,-1,-1,0
1523616872985,-393216,76,-56,-1,-1,0
1523616872985,-458752,76,-56,-1,-1,0
1523616872985,-524288,76,-56,-1,-1,0
1523616872985,-524288,76,-56,-1,-1,0
1523616872985,-589824,76,-56,-1,-1,0
1523616873025,-655360,76,-56,-1,-1,0
1523616873025,-655360,76,-56,-1,-1,0
1523616873025,-655360,76,-56,-1,-1,0
1523616873025,-720896,76,-56,-1,-1,0
1523616873025,-655360,76,-56,-1,-1,0
1523616873065,-655360,76,-56,-1,-1,0
1523616873065,-655360,76,-56,-1,-1,0
1523616873065,-589824,76,-56,-1,-1,0
1523616873065,-655360,76,-56,-1,-1,0
1523616873065,-393216,76,-56,-1,-1,0
1523616873106,1310720,76,-56,-1,-1,0
1523616873106,5111808,76,-56,-1,-1,0
1523616873106,8978432,76,-56,-1,-1,0
1523616873106,8716288,76,-56,-1,-1,0
1523616873106,2752512,76,-56,-1,-1,0
1523616873145,-3014656,76,-56,-1,-1,0
1523616873145,-4128768,76,-56,-1,-1,0
1523616873145,-2359296,76,-56,-1,-1,0
1523616873145,-1179648,76,-56,-1,-1,0
1523616873145,-655360,76,-56,-1,-1,0
1523616873185,-327680,76,-56,-1,-1,0
1523616873185,-262144,76,-56,-1,-1,0
1523616873185,-196608,76,-56,-1,-1,0
1523616873185,-131072,76,-56,-1,-1,0
1523616873185,-65536,76,-56,-1,-1,0
1523616873227,0,76,-56,-1,-1,0
1523616873227,0,76,-56,-1,-1,0
1523616873227,0,76,-56,-1,-1,0
1523616873227,65536,76,-56,-1,-1,0
1523616873227,65536,76,-56,-1,-1,0
1523616873265,131072,76,-56,-1,-1,0
1523616873265,131072,76,-56,-1,-1,0
1523616873265,262144,76,-56,-1,-1,0
1523616873265,393216,76,-56,-1,-1,0
1523616873265,589824,76,-56,-1,-1,0
1523616873305,786432,76,-56,-1,-1,0
1523616873305,983040,76,-56,-1,-1,0
1523616873305,1179648,76,-56,-1,-1,0
1523616873305,1376256,76,-56,-1,-1,0
1523616873305,1507328,76,-56,-1,-1,0
1523616873345,1572864,76,-56,-1,-1,0
1523616873345,1572864,76,-56,-1,-1,0
1523616873345,1310720,76,-56,-1,-1,0
1523616873345,917504,76,-56,-1,-1,0
1523616873345,393216,76,-56,-1,-1,0
1523616873385,0,76,-56,-1,-1,0
1523616873385,-262144,76,-56,-1,-1,0
1523616873385,-458752,76,-56,-1,-1,0
1523616873385,-589824,76,-56,-1,-1,0
1523616873385,-720896,76,-56,-1,-1,0
1523616873437,-786432,76,-56,-1,-1,0
1523616873437,-786432,76,-56,-1,-1,0
1523616873437,-786432,76,-56,-1,-1,0
1523616873437,-786432,76,-56,-1,-1,0
1523616873437,-720896,76,-56,-1,-1,0
1523616873465,-655360,76,-56,-1,-1,0
1523616873465,-589824,76,-56,-1,-1,0
1523616873465,-589824,76,-56,-1,-1,0
1523616873465,-458752,76,-56,-1,-1,0
1523616873465,-393216,76,-56,-1,-1,0
1523616873505,-393216,76,-56,-1,-1,0
1523616873505,-458752,76,-56,-1,-1,0
1523616873505,-458752,76,-56,-1,-1,0
1523616873505,-458752,76,-56,-1,-1,0
1523616873505,-458752,76,-56,-1,-1,0
1523616873545,-458752,76,-56,-1,-1,0
1523616873545,-524288,76,-56,-1,-1,0
1523616873545,-458752,76,-56,-1,-1,0
1523616873545,-458752,76,-56,-1,-1,0
1523616873545,-524288,76,-56,-1,-1,0
1523616873585,-589824,76,-56,-1,-1,0
1523616873585,-589824,76,-56,-1,-1,0
1523616873585,-655360,76,-56,-1,-1,0
1523616873585,-655360,76,-56,-1,-1,0
1523616873585,-589824,76,-56,-1,-1,0
1523616873625,-524288,76,-56,-1,-1,0
1523616873625,-524288,76,-56,-1,-1,0
1523616873625,-589824,76,-56,-1,-1,0
1523616873625,-655360,76,-56,-1,-1,0
1523616873625,-655360,76,-56,-1,-1,0
1523616873665,-720896,76,-56,-1,-1,0
1523616873665,-720896,76,-56,-1,-1,0
1523616873665,-786432,76,-56,-1,-1,0
1523616873665,-720896,76,-56,-1,-1,0
1523616873665,-655360,76,-56,-1,-1,0
1523616873705,-524288,76,-56,-1,-1,0
1523616873705,-458752,76,-56,-1,-1,0
1523616873705,-393216,76,-56,-1,-1,0
1523616873705,-524288,76,-56,-1,-1,0
1523616873705,-589824,76,-56,-1,-1,0
1523616873745,-589824,76,-56,-1,-1,0
1523616873745,-720896,76,-56,-1,-1,0
1523616873745,-786432,76,-56,-1,-1,0
1523616873745,-851968,76,-56,-1,-1,0
1523616873745,-917504,76,-56,-1,-1,0
1523616873785,-983040,76,-56,-1,-1,0
1523616873785,-983040,76,-56,-1,-1,0
1523616873785,-1048576,76,-56,-1,-1,0
1523616873785,-1048576,76,-56,-1,-1,0
1523616873785,-1048576,76,-56,-1,-1,0
1523616873825,-917504,76,-56,-1,-1,0
1523616873825,-983040,76,-56,-1,-1,0
1523616873825,-589824,76,-56,-1,-1,0
1523616873825,1703936,76,-56,-1,-1,0
1523616873825,5767168,76,-56,-1,-1,0
1523616873865,8454144,76,-56,-1,-1,0
1523616873865,6029312,76,-56,-1,-1,0
1523616873865,-393216,76,-56,-1,-1,0
1523616873865,-4718592,76,-56,-1,-1,0
1523616873865,-4259840,76,-56,-1,-1,0
1523616873906,-2424832,76,-56,-1,-1,0
1523616873906,-1245184,76,-56,-1,-1,0
1523616873906,-720896,76,-56,-1,-1,0
1523616873906,-327680,76,-56,-1,-1,0
1523616873906,-196608,76,-56,-1,-1,0
1523616873945,-196608,76,-56,-1,-1,0
1523616873945,-196608,76,-56,-1,-1,0
1523616873945,-65536,76,-56,-1,-1,0
1523616873945,0,76,-56,-1,-1,0
1523616873945,131072,76,-56,-1,-1,0
1523616873985,262144,76,-56,-1,-1,0
1523616873985,393216,76,-56,-1,-1,0
1523616873985,393216,76,-56,-1,-1,0
1523616873985,393216,76,-56,-1,-1,0
1523616873985,393216,76,-56,-1,-1,0
1523616874025,589824,76,-56,-1,-1,0
1523616874025,786432,76,-56,-1,-1,0
1523616874025,1114112,76,-56,-1,-1,0
1523616874025,1507328,76,-56,-1,-1,0
1523616874025,1769472,76,-56,-1,-1,0
1523616874077,1966080,76,-56,-1,-1,0
1523616874077,2097152,76,-56,-1,-1,0
1523616874077,2293760,76,-56,-1,-1,0
1523616874077,2293760,76,-56,-1,-1,0
1523616874077,2228224,76,-56,-1,-1,0
1523616874105,1900544,76,-56,-1,-1,0
1523616874105,1310720,76,-56,-1,-1,0
1523616874105,786432,76,-56,-1,-1,0
1523616874105,393216,76,-56,-1,-1,0
1523616874105,65536,76,-56,-1,-1,0
1523616874147,-131072,76,-56,-1,-1,0
1523616874147,-393216,76,-56,-1,-1,0
1523616874147,-458752,76,-56,-1,-1,0
1523616874147,-393216,76,-56,-1,-1,0
1523616874147,-393216,76,-56,-1,-1,0
1523616874185,-327680,76,-56,-1,-1,0
1523616874185,-262144,76,-56,-1,-1,0
1523616874185,-196608,76,-56,-1,-1,0
1523616874185,-131072,76,-56,-1,-1,0
1523616874185,0,76,-56,-1,-1,0
1523616874232,0,76,-56,-1,-1,0
1523616874232,-65536,76,-56,-1,-1,0
1523616874232,-196608,76,-56,-1,-1,0
1523616874232,-196608,76,-56,-1,-1,0
1523616874232,-262144,76,-56,-1,-1,0
1523616874266,-393216,76,-56,-1,-1,0
1523616874266,-524288,76,-56,-1,-1,0
1523616874266,-524288,76,-56,-1,-1,0
1523616874266,-458752,76,-56,-1,-1,0
1523616874266,-458752,76,-56,-1,-1,0
1523616874307,-589824,76,-56,-1,-1,0
1523616874307,-655360,76,-56,-1,-1,0
1523616874307,-655360,76,-56,-1,-1,0
1523616874307,-655360,76,-56,-1,-1,0
1523616874307,-655360,76,-56,-1,-1,0
1523616874345,-589824,76,-56,-1,-1,0
1523616874345,-524288,76,-56,-1,-1,0
1523616874345,-589824,76,-56,-1,-1,0
1523616874345,-589824,76,-56,-1,-1,0
1523616874345,-589824,76,-56,-1,-1,0
1523616874385,-655360,76,-56,-1,-1,0
1523616874385,-655360,76,-56,-1,-1,0
1523616874385,-589824,76,-56,-1,-1,0
1523616874385,-524288,76,-56,-1,-1,0
1523616874385,-393216,76,-56,-1,-1,0
1523616874428,-262144,76,-56,-1,-1,0
1523616874428,-262144,76,-56,-1,-1,0
1523616874428,-393216,76,-56,-1,-1,0
1523616874428,-458752,76,-56,-1,-1,0
1523616874428,-524288,76,-56,-1,-1,0
1523616874465,-524288,76,-56,-1,-1,0
1523616874465,-458752,76,-56,-1,-1,0
1523616874465,-393216,76,-56,-1,-1,0
1523616874465,-393216,76,-56,-1,-1,0
1523616874465,-524288,76,-56,-1,-1,0
1523616874508,-589824,76,-56,-1,-1,0
1523616874508,-655360,76,-56,-1,-1,0
1523616874508,-589824,76,-56,-1,-1,0
1523616874508,-589824,76,-56,-1,-1,0
1523616874508,-589824,76,-56,-1,-1,0
1523616874545,-393216,76,-56,-1,-1,0
1523616874545,1179648,76,-56,-1,-1,0
1523616874545,4653056,76,-56,-1,-1,0
1523616874545,7995392,76,-56,-1,-1,0
1523616874545,7208960,76,-56,-1,-1,0
1523616874585,1245184,76,-56,-1,-1,0
1523616874585,-4128768,76,-56,-1,-1,0
1523616874585,-4980736,76,-56,-1,-1,0
1523616874585,-3014656,76,-56,-1,-1,0
1523616874585,-1572864,76,-56,-1,-1,0
1523616874625,-851968,76,-56,-1,-1,0
1523616874625,-458752,76,-56,-1,-1,0
1523616874625,-327680,76,-56,-1,-1,0
1523616874625,-131072,76,-56,-1,-1,0
1523616874625,-65536,76,-56,-1,-1,0
1523616874668,0,76,-56,-1,-1,0
1523616874668,0,76,-56,-1,-1,0
1523616874668,131072,76,-56,-1,-1,0
1523616874668,262144,76,-56,-1,-1,0
1523616874668,393216,76,-56,-1,-1,0
1523616874717,393216,76,-56,-1,-1,0
1523616874717,458752,76,-56,-1,-1,0
1523616874717,589824,76,-56,-1,-1,0
1523616874717,720896,76,-56,-1,-1,0
1523616874717,917504,76,-56,-1,-1,0
1523616874747,1114112,76,-56,-1,-1,0
1523616874747,1376256,76,-56,-1,-1,0
1523616874747,1638400,76,-56,-1,-1,0
1523616874747,1835008,76,-56,-1,-1,0
1523616874747,2031616,76,-56,-1,-1,0
1523616874785,2228224,76,-56,-1,-1,0
1523616874785,2228224,76,-56,-1,-1,0
1523616874785,2162688,76,-56,-1,-1,0
1523616874785,1900544,76,-56,-1,-1,0
1523616874785,1441792,76,-56,-1,-1,0
1523616874825,983040,76,-56,-1,-1,0
1523616874825,589824,76,-56,-1,-1,0
1523616874825,262144,76,-56,-1,-1,0
1523616874825,0,76,-56,-1,-1,0
1523616874825,-131072,76,-56,-1,-1,0
1523616874865,-196608,76,-56,-1,-1,0
1523616874865,-262144,76,-56,-1,-1,0
1523616874865,-262144,76,-56,-1,-1,0
1523616874865,-327680,76,-56,-1,-1,0
1523616874865,-393216,76,-56,-1,-1,0
1523616874905,-393216,76,-56,-1,-1,0
1523616874905,-393216,76,-56,-1,-1,0
1523616874905,-262144,76,-56,-1,-1,0
1523616874905,-262144,76,-56,-1,-1,0
1523616874905,-262144,76,-56,-1,-1,0
1523616874947,-262144,76,-56,-1,-1,0
1523616874947,-262144,76,-56,-1,-1,0
1523616874947,-262144,76,-56,-1,-1,0
1523616874947,-327680,76,-56,-1,-1,0
1523616874947,-327680,76,-56,-1,-1,0
1523616874985,-393216,76,-56,-1,-1,0
1523616874985,-458752,76,-56,-1,-1,0
1523616874985,-524288,76,-56,-1,-1,0
1523616874985,-524288,76,-56,-1,-1,0
1523616874985,-524288,76,-56,-1,-1,0
1523616875027,-589824,76,-56,-1,-1,0
1523616875027,-589824,76,-56,-1,-1,0
1523616875027,-589824,76,-56,-1,-1,0
1523616875027,-589824,76,-56,-1,-1,0
1523616875027,-655360,76,-56,-1,-1,0
1523616875065,-655360,76,-56,-1,-1,0
1523616875065,-655360,76,-56,-1,-1,0
1523616875065,-589824,76,-56,-1,-1,0
1523616875065,-589824,76,-56,-1,-1,0
1523616875065,-589824,76,-56,-1,-1,0
1523616875107,-589824,76,-56,-1,-1,0
1523616875107,-589824,76,-56,-1,-1,0
1523616875107,-524288,76,-56,-1,-1,0
1523616875107,-524288,76,-56,-1,-1,0
1523616875107,-393216,76,-56,-1,-1,0
1523616875145,-327680,76,-56,-1,-1,0
1523616875145,-327680,76,-56,-1,-1,0
1523616875145,-327680,76,-56,-1,-1,0
1523616875145,-393216,76,-56,-1,-1,0
1523616875145,-458752,76,-56,-1,-1,0
1523616875185,-524288,76,-56,-1,-1,0
1523616875185,-524288,76,-56,-1,-1,0
1523616875185,-589824,76,-56,-1,-1,0
1523616875185,-589824,76,-56,-1,-1,0
1523616875185,-589824,76,-56,-1,-1,0
1523616875228,-589824,76,-56,-1,-1,0
1523616875228,-589824,76,-56,-1,-1,0
1523616875228,-589824,76,-56,-1,-1,0
1523616875228,-655360,76,-56,-1,-1,0
1523616875228,-655360,76,-56,-1,-1,0
1523616875265,-524288,76,-56,-1,-1,0
1523616875265,1048576,76,-56,-1,-1,0
1523616875265,4653056,76,-56,-1,-1,0
1523616875265,8388608,76,-56,-1,-1,0
1523616875265,8323072,76,-56,-1,-1,0
1523616875308,2818048,76,-56,-1,-1,0
1523616875308,-3014656,76,-56,-1,-1,0
1523616875308,-4390912,76,-56,-1,-1,0
1523616875308,-2621440,76,-56,-1,-1,0
1523616875308,-1376256,76,-56,-1,-1,0
1523616875356,-851968,76,-56,-1,-1,0
1523616875356,-524288,76,-56,-1,-1,0
1523616875356,-393216,76,-56,-1,-1,0
1523616875356,-327680,76,-56,-1,-1,0
1523616875356,-262144,76,-56,-1,-1,0
1523616875385,-196608,76,-56,-1,-1,0
1523616875385,-196608,76,-56,-1,-1,0
1523616875385,-196608,76,-56,-1,-1,0
1523616875385,-262144,76,-56,-1,-1,0
1523616875385,-262144,76,-56,-1,-1,0
1523616875425,-327680,76,-56,-1,-1,0
1523616875425,-262144,76,-56,-1,-1,0
1523616875425,-131072,76,-56,-1,-1,0
1523616875425,0,76,-56,-1,-1,0
1523616875425,65536,76,-56,-1,-1,0
1523616875466,196608,76,-56,-1,-1,0
1523616875466,458752,76,-56,-1,-1,0
1523616875466,720896,76,-56,-1,-1,0
1523616875466,983040,76,-56,-1,-1,0
1523616875466,1245184,76,-56,-1,-1,0
1523616875505,1441792,76,-56,-1,-1,0
1523616875505,1507328,76,-56,-1,-1,0
1523616875505,1507328,76,-56,-1,-1,0
1523616875505,1245184,76,-56,-1,-1,0
1523616875505,851968,76,-56,-1,-1,0
1523616875545,393216,76,-56,-1,-1,0
1523616875545,65536,76,-56,-1,-1,0
1523616875545,-65536,76,-56,-1,-1,0
1523616875545,-196608,76,-56,-1,-1,0
1523616875545,-262144,76,-56,-1,-1,0
1523616875585,-327680,76,-56,-1,-1,0
1523616875585,-393216,76,-56,-1,-1,0
1523616875585,-393216,76,-56,-1,-1,0
1523616875585,-327680,76,-56,-1,-1,0
1523616875585,-327680,76,-56,-1,-1,0
1523616875625,-327680,76,-56,-1,-1,0
1523616875625,-262144,76,-56,-1,-1,0
1523616875625,-196608,76,-56,-1,-1,0
1523616875625,-196608,76,-56,-1,-1,0
1523616875625,-196608,76,-56,-1,-1,0
1523616875665,-196608,76,-56,-1,-1,0
1523616875665,-262144,76,-56,-1,-1,0
1523616875665,-393216,76,-56,-1,-1,0
1523616875665,-458752,76,-56,-1,-1,0
1523616875665,-524288,76,-56,-1,-1,0
1523616875706,-589824,76,-56,-1,-1,0
1523616875706,-589824,76,-56,-1,-1,0
1523616875706,-655360,76,-56,-1,-1,0
1523616875706,-720896,76,-56,-1,-1,0
1523616875706,-786432,76,-56,-1,-1,0
1523616875745,-786432,76,-56,-1,-1,0
1523616875745,-851968,76,-56,-1,-1,0
1523616875745,-851968,76,-56,-1,-1,0
1523616875745,-917504,76,-56,-1,-1,0
1523616875745,-917504,76,-56,-1,-1,0
1523616875785,-983040,76,-56,-1,-1,0
1523616875785,-1048576,76,-56,-1,-1,0
1523616875785,-1114112,76,-56,-1,-1,0
1523616875785,-1179648,76,-56,-1,-1,0
1523616875785,-1179648,76,-56,-1,-1,0
1523616875826,-1245184,76,-56,-1,-1,0
1523616875826,-1245184,76,-56,-1,-1,0
1523616875826,-1245184,76,-56,-1,-1,0
1523616875826,-1179648,76,-56,-1,-1,0
1523616875826,-1048576,76,-56,-1,-1,0
1523616875865,-983040,76,-56,-1,-1,0
1523616875865,-983040,76,-56,-1,-1,0
1523616875865,-1114112,76,-56,-1,-1,0
1523616875865,-1179648,76,-56,-1,-1,0
1523616875865,-1245184,76,-56,-1,-1,0
1523616875906,-1310720,76,-56,-1,-1,0
1523616875906,-1376256,76,-56,-1,-1,0
1523616875906,-1376256,76,-56,-1,-1,0
1523616875906,-1310720,76,-56,-1,-1,0
1523616875906,-1245184,76,-56,-1,-1,0
1523616875945,-1245184,76,-56,-1,-1,0
1523616875945,-1245184,76,-56,-1,-1,0
1523616875945,-1179648,76,-56,-1,-1,0
1523616875945,-1114112,76,-56,-1,-1,0
1523616875945,-1114112,76,-56,-1,-1,0
1523616875998,-1114112,77,-56,-1,-1,0
1523616875998,-262144,77,-56,-1,-1,0
1523616875998,2555904,77,-56,-1,-1,0
1523616875998,6488064,77,-56,-1,-1,0
1523616875998,7929856,77,-56,-1,-1,0
1523616876025,3866624,77,-56,-1,-1,0
1523616876025,-2228224,77,-56,-1,-1,0
1523616876025,-4980736,77,-56,-1,-1,0
1523616876025,-3538944,77,-56,-1,-1,0
1523616876025,-1900544,77,-56,-1,-1,0
1523616876065,-983040,77,-56,-1,-1,0
1523616876065,-589824,77,-56,-1,-1,0
1523616876065,-458752,77,-56,-1,-1,0
1523616876065,-327680,77,-56,-1,-1,0
1523616876065,-262144,77,-56,-1,-1,0
1523616876108,-196608,77,-56,-1,-1,0
1523616876108,-131072,77,-56,-1,-1,0
1523616876108,-65536,77,-56,-1,-1,0
1523616876108,0,77,-56,-1,-1,0
1523616876108,65536,77,-56,-1,-1,0
1523616876145,196608,77,-56,-1,-1,0
1523616876145,327680,77,-56,-1,-1,0
1523616876145,393216,77,-56,-1,-1,0
1523616876145,458752,77,-56,-1,-1,0
1523616876145,589824,77,-56,-1,-1,0
1523616876185,720896,77,-56,-1,-1,0
1523616876185,983040,77,-56,-1,-1,0
1523616876185,1245184,77,-56,-1,-1,0
1523616876185,1441792,77,-56,-1,-1,0
1523616876185,1572864,77,-56,-1,-1,0
1523616876226,1769472,77,-56,-1,-1,0
1523616876226,1835008,77,-56,-1,-1,0
1523616876226,1769472,77,-56,-1,-1,0
1523616876226,1572864,77,-56,-1,-1,0
1523616876226,1179648,77,-56,-1,-1,0
1523616876265,655360,77,-56,-1,-1,0
1523616876265,196608,77,-56,-1,-1,0
1523616876265,-131072,77,-56,-1,-1,0
1523616876265,-393216,77,-56,-1,-1,0
1523616876265,-524288,77,-56,-1,-1,0
1523616876306,-524288,77,-56,-1,-1,0
1523616876306,-589824,77,-56,-1,-1,0
1523616876306,-655360,77,-56,-1,-1,0
1523616876306,-655360,77,-56,-1,-1,0
1523616876306,-655360,77,-56,-1,-1,0
1523616876345,-524288,77,-56,-1,-1,0
1523616876345,-458752,77,-56,-1,-1,0
1523616876345,-327680,77,-56,-1,-1,0
1523616876345,-327680,77,-56,-1,-1,0
1523616876345,-262144,77,-56,-1,-1,0
1523616876385,-196608,77,-56,-1,-1,0
1523616876385,-131072,77,-56,-1,-1,0
1523616876385,-196608,77,-56,-1,-1,0
1523616876385,-196608,77,-56,-1,-1,0
1523616876385,-262144,77,-56,-1,-1,0
1523616876426,-327680,77,-56,-1,-1,0
1523616876426,-327680,77,-56,-1,-1,0
1523616876426,-327680,77,-56,-1,-1,0
1523616876426,-327680,77,-56,-1,-1,0
1523616876426,-393216,77,-56,-1,-1,0
1523616876465,-393216,77,-56,-1,-1,0
1523616876465,-458752,77,-56,-1,-1,0
1523616876465,-458752,77,-56,-1,-1,0
1523616876465,-458752,77,-56,-1,-1,0
1523616876465,-458752,77,-56,-1,-1,0
1523616876506,-458752,77,-56,-1,-1,0
1523616876506,-393216,77,-56,-1,-1,0
1523616876506,-327680,77,-56,-1,-1,0
1523616876506,-262144,77,-56,-1,-1,0
1523616876506,-131072,77,-56,-1,-1,0
1523616876545,0,77,-56,-1,-1,0
1523616876545,0,77,-56,-1,-1,0
1523616876545,-65536,77,-56,-1,-1,0
1523616876545,-196608,77,-56,-1,-1,0
1523616876545,-327680,77,-56,-1,-1,0
1523616876585,-393216,77,-56,-1,-1,0
1523616876585,-327680,77,-56,-1,-1,0
1523616876585,-327680,77,-56,-1,-1,0
1523616876585,-327680,77,-56,-1,-1,0
1523616876585,-393216,77,-56,-1,-1,0
1523616876638,-393216,77,-56,-1,-1,0
1523616876638,-393216,77,-56,-1,-1,0
1523616876638,-393216,77,-56,-1,-1,0
1523616876638,-393216,77,-56,-1,-1,0
1523616876638,-262144,77,-56,-1,-1,0
1523616876665,-196608,78,-56,-1,-1,0
1523616876665,131072,78,-56,-1,-1,0
1523616876665,1966080,78,-56,-1,-1,0
1523616876665,5570560,78,-56,-1,-1,0
1523616876665,8585216,78,-56,-1,-1,0
1523616876705,7077888,78,-56,-1,-1,0
1523616876705,851968,78,-56,-1,-1,0
1523616876705,-3932160,78,-56,-1,-1,0
1523616876705,-4456448,78,-56,-1,-1,0
1523616876705,-2686976,78,-56,-1,-1,0
1523616876745,-1310720,78,-56,-1,-1,0
1523616876745,-524288,78,-56,-1,-1,0
1523616876745,-131072,78,-56,-1,-1,0
1523616876745,0,78,-56,-1,-1,0
1523616876745,131072,78,-56,-1,-1,0
1523616876785,196608,78,-56,-1,-1,0
1523616876785,327680,78,-56,-1,-1,0
1523616876785,327680,78,-56,-1,-1,0
1523616876785,458752,78,-56,-1,-1,0
1523616876785,458752,78,-56,-1,-1,0
1523616876825,524288,78,-56,-1,-1,0
1523616876825,589824,78,-56,-1,-1,0
1523616876825,655360,78,-56,-1,-1,0
1523616876825,786432,78,-56,-1,-1,0
1523616876825,917504,78,-56,-1,-1,0
1523616876866,1114112,78,-56,-1,-1,0
1523616876866,1376256,78,-56,-1,-1,0
1523616876866,1572864,78,-56,-1,-1,0
1523616876866,1835008,78,-56,-1,-1,0
1523616876866,2031616,78,-56,-1,-1,0
1523616876905,2162688,78,-56,-1,-1,0
1523616876905,2228224,78,-56,-1,-1,0
1523616876905,2228224,78,-56,-1,-1,0
1523616876905,2031616,78,-56,-1,-1,0
1523616876905,1572864,78,-56,-1,-1,0
1523616876946,1048576,78,-56,-1,-1,0
1523616876946,589824,78,-56,-1,-1,0
1523616876946,196608,78,-56,-1,-1,0
1523616876946,-65536,78,-56,-1,-1,0
1523616876946,-262144,78,-56,-1,-1,0
1523616876989,-393216,78,-56,-1,-1,0
1523616876989,-458752,78,-56,-1,-1,0
1523616876989,-458752,78,-56,-1,-1,0
1523616876989,-524288,78,-56,-1,-1,0
1523616876989,-524288,78,-56,-1,-1,0
1523616877025,-524288,78,-56,-1,-1,0
1523616877025,-524288,78,-56,-1,-1,0
1523616877025,-458752,78,-56,-1,-1,0
1523616877025,-458752,78,-56,-1,-1,0
1523616877025,-458752,78,-56,-1,-1,0
1523616877065,-393216,78,-56,-1,-1,0
1523616877065,-393216,78,-56,-1,-1,0
1523616877065,-458752,78,-56,-1,-1,0
1523616877065,-458752,78,-56,-1,-1,0
1523616877065,-458752,78,-56,-1,-1,0
1523616877105,-458752,78,-56,-1,-1,0
1523616877105,-458752,78,-56,-1,-1,0
1523616877105,-458752,78,-56,-1,-1,0
1523616877105,-458752,78,-56,-1,-1,0
1523616877105,-524288,78,-56,-1,-1,0
1523616877145,-589824,78,-56,-1,-1,0
1523616877145,-589824,78,-56,-1,-1,0
1523616877145,-655360,78,-56,-1,-1,0
1523616877145,-655360,78,-56,-1,-1,0
1523616877145,-655360,78,-56,-1,-1,0
1523616877186,-655360,78,-56,-1,-1,0
1523616877186,-655360,78,-56,-1,-1,0
1523616877186,-655360,78,-56,-1,-1,0
1523616877186,-655360,78,-56,-1,-1,0
1523616877186,-655360,78,-56,-1,-1,0
1523616877225,-589824,78,-56,-1,-1,0
1523616877225,-524288,78,-56,-1,-1,0
1523616877225,-393216,78,-56,-1,-1,0
1523616877225,-327680,78,-56,-1,-1,0
1523616877225,-393216,78,-56,-1,-1,0
1523616877278,-458752,78,-56,-1,-1,0
1523616877278,-458752,78,-56,-1,-1,0
1523616877278,-524288,78,-56,-1,-1,0
1523616877278,-589824,78,-56,-1,-1,0
1523616877278,-720896,78,-56,-1,-1,0
1523616877305,-720896,78,-56,-1,-1,0
1523616877305,-655360,78,-56,-1,-1,0
1523616877305,-720896,78,-56,-1,-1,0
1523616877305,-786432,78,-56,-1,-1,0
1523616877305,-786432,78,-56,-1,-1,0
1523616877345,-786432,79,-56,-1,-1,0
1523616877345,-786432,79,-56,-1,-1,0
1523616877345,-917504,79,-56,-1,-1,0
1523616877345,-655360,79,-56,-1,-1,0
1523616877345,1179648,79,-56,-1,-1,0
1523616877385,4980736,79,-56,-1,-1,0
1523616877385,8192000,79,-56,-1,-1,0
1523616877385,6684672,79,-56,-1,-1,0
1523616877385,655360,79,-56,-1,-1,0
1523616877385,-3932160,79,-56,-1,-1,0
1523616877425,-4325376,79,-56,-1,-1,0
1523616877425,-2686976,79,-56,-1,-1,0
1523616877425,-1572864,79,-56,-1,-1,0
1523616877425,-983040,79,-56,-1,-1,0
1523616877425,-655360,79,-56,-1,-1,0
1523616877465,-458752,79,-56,-1,-1,0
1523616877465,-327680,79,-56,-1,-1,0
1523616877465,-262144,79,-56,-1,-1,0
1523616877465,-196608,79,-56,-1,-1,0
1523616877465,-131072,79,-56,-1,-1,0
1523616877509,-65536,79,-56,-1,-1,0
1523616877509,-65536,79,-56,-1,-1,0
1523616877509,0,79,-56,-1,-1,0
1523616877509,65536,79,-56,-1,-1,0
1523616877509,196608,79,-56,-1,-1,0
1523616877550,262144,79,-56,-1,-1,0
1523616877550,458752,79,-56,-1,-1,0
1523616877550,720896,79,-56,-1,-1,0
1523616877550,851968,79,-56,-1,-1,0
1523616877550,1048576,79,-56,-1,-1,0
1523616877589,1245184,79,-56,-1,-1,0
1523616877589,1441792,79,-56,-1,-1,0
1523616877589,1638400,79,-56,-1,-1,0
1523616877589,1703936,79,-56,-1,-1,0
1523616877589,1835008,79,-56,-1,-1,0
1523616877634,1769472,79,-56,-1,-1,0
1523616877634,1441792,79,-56,-1,-1,0
1523616877634,1048576,79,-56,-1,-1,0
1523616877634,589824,79,-56,-1,-1,0
1523616877634,196608,79,-56,-1,-1,0
1523616877679,0,79,-56,-1,-1,0
1523616877679,-131072,79,-56,-1,-1,0
1523616877679,-262144,79,-56,-1,-1,0
1523616877679,-327680,79,-56,-1,-1,0
1523616877679,-393216,79,-56,-1,-1,0
1523616877708,-327680,79,-56,-1,-1,0
1523616877708,-327680,79,-56,-1,-1,0
1523616877708,-393216,79,-56,-1,-1,0
1523616877708,-393216,79,-56,-1,-1,0
1523616877708,-393216,79,-56,-1,-1,0
1523616877745,-393216,79,-56,-1,-1,0
1523616877745,-393216,79,-56,-1,-1,0
1523616877745,-393216,79,-56,-1,-1,0
1523616877745,-393216,79,-56,-1,-1,0
1523616877745,-458752,79,-56,-1,-1,0
1523616877785,-458752,79,-56,-1,-1,0
1523616877785,-524288,79,-56,-1,-1,0
1523616877785,-720896,79,-56,-1,-1,0
1523616877785,-720896,79,-56,-1,-1,0
1523616877785,-524288,79,-56,-1,-1,0
1523616877825,-262144,79,-56,-1,-1,0
1523616877825,-327680,79,-56,-1,-1,0
1523616877825,-393216,79,-56,-1,-1,0
1523616877825,-393216,79,-56,-1,-1,0
1523616877825,-524288,79,-56,-1,-1,0
1523616877865,-589824,79,-56,-1,-1,0
1523616877865,-589824,79,-56,-1,-1,0
1523616877865,-786432,79,-56,-1,-1,0
1523616877865,-983040,79,-56,-1,-1,0
1523616877865,-983040,79,-56,-1,-1,0
1523616877918,-720896,79,-56,-1,-1,0
1523616877918,-327680,79,-56,-1,-1,0
1523616877918,-65536,79,-56,-1,-1,0
1523616877918,-131072,79,-56,-1,-1,0
1523616877918,-524288,79,-56,-1,-1,0
1523616877946,-720896,79,-56,-1,-1,0
1523616877946,-458752,79,-56,-1,-1,0
1523616877946,-131072,79,-56,-1,-1,0
1523616877946,-262144,79,-56,-1,-1,0
1523616877946,-983040,79,-56,-1,-1,0
1523616877985,-1507328,79,-56,-1,-1,0
1523616877985,-1376256,79,-56,-1,-1,0
1523616877985,-917504,79,-56,-1,-1,0
1523616877985,-851968,79,-56,-1,-1,0
1523616877985,-1048576,79,-56,-1,-1,0
1523616878025,-1310720,81,-56,-1,-1,0
1523616878025,-1441792,81,-56,-1,-1,0
1523616878025,-1179648,81,-56,-1,-1,0
1523616878025,-983040,81,-56,-1,-1,0
1523616878025,-458752,81,-56,-1,-1,0
1523616878066,1048576,81,-56,-1,-1,0
1523616878066,4849664,81,-56,-1,-1,0
1523616878066,8454144,81,-56,-1,-1,0
1523616878066,7929856,81,-56,-1,-1,0
1523616878066,2424832,81,-56,-1,-1,0
1523616878105,-2359296,81,-56,-1,-1,0
1523616878105,-3604480,81,-56,-1,-1,0
1523616878105,-2555904,81,-56,-1,-1,0
1523616878105,-1245184,81,-56,-1,-1,0
1523616878105,-65536,81,-56,-1,-1,0
1523616878145,262144,81,-56,-1,-1,0
1523616878145,0,81,-56,-1,-1,0
1523616878145,-262144,81,-56,-1,-1,0
1523616878145,65536,81,-56,-1,-1,0
1523616878145,589824,81,-56,-1,-1,0
1523616878185,458752,81,-56,-1,-1,0
1523616878185,0,81,-56,-1,-1,0
1523616878185,0,81,-56,-1,-1,0
1523616878185,589824,81,-56,-1,-1,0
1523616878185,786432,81,-56,-1,-1,0
1523616878225,393216,81,-56,-1,-1,0
1523616878225,196608,81,-56,-1,-1,0
1523616878225,327680,81,-56,-1,-1,0
1523616878225,524288,81,-56,-1,-1,0
1523616878225,786432,81,-56,-1,-1,0
1523616878265,983040,81,-56,-1,-1,0
1523616878265,720896,81,-56,-1,-1,0
1523616878265,917504,81,-56,-1,-1,0
1523616878265,1703936,81,-56,-1,-1,0
1523616878265,2097152,81,-56,-1,-1,0
1523616878305,1966080,81,-56,-1,-1,0
1523616878305,1310720,81,-56,-1,-1,0
1523616878305,589824,81,-56,-1,-1,0
1523616878305,458752,81,-56,-1,-1,0
1523616878305,327680,81,-56,-1,-1,0
1523616878345,-589824,81,-56,-1,-1,0
1523616878345,-1245184,81,-56,-1,-1,0
1523616878345,-1507328,81,-56,-1,-1,0
1523616878345,-2031616,81,-56,-1,-1,0
1523616878345,-2293760,81,-56,-1,-1,0
1523616878385,-2424832,81,-56,-1,-1,0
1523616878385,-2490368,81,-56,-1,-1,0
1523616878385,-2555904,81,-56,-1,-1,0
1523616878385,-2555904,81,-56,-1,-1,0
1523616878385,-2752512,81,-56,-1,-1,0
1523616878425,-3014656,81,-56,-1,-1,0
1523616878425,-2883584,81,-56,-1,-1,0
1523616878425,-2752512,81,-56,-1,-1,0
1523616878425,-2686976,81,-56,-1,-1,0
1523616878425,-2293760,81,-56,-1,-1,0
1523616878466,-1769472,81,-56,-1,-1,0
1523616878466,-1572864,81,-56,-1,-1,0
1523616878466,-1769472,81,-56,-1,-1,0
1523616878466,-1638400,81,-56,-1,-1,0
1523616878466,-1441792,81,-56,-1,-1,0
1523616878505,-1507328,81,-56,-1,-1,0
1523616878505,-1507328,81,-56,-1,-1,0
1523616878505,-1441792,81,-56,-1,-1,0
1523616878505,-1376256,81,-56,-1,-1,0
1523616878505,-1310720,81,-56,-1,-1,0
1523616878558,-1310720,81,-56,-1,-1,0
1523616878558,-1245184,81,-56,-1,-1,0
1523616878558,-1179648,81,-56,-1,-1,0
1523616878558,-1048576,81,-56,-1,-1,0
1523616878558,-851968,81,-56,-1,-1,0
1523616878585,-720896,81,-56,-1,-1,0
1523616878585,-851968,81,-56,-1,-1,0
1523616878585,-917504,81,-56,-1,-1,0
1523616878585,-720896,81,-56,-1,-1,0
1523616878585,-589824,81,-56,-1,-1,0
1523616878625,-720896,81,-56,-1,-1,0
1523616878625,-655360,81,-56,-1,-1,0
1523616878625,-393216,81,-56,-1,-1,0
1523616878625,-458752,81,-56,-1,-1,0
1523616878625,-655360,81,-56,-1,-1,0
1523616878665,-589824,81,-56,-1,-1,0
1523616878665,-589824,81,-56,-1,-1,0
1523616878665,-458752,81,-56,-1,-1,0
1523616878665,-524288,81,-56,-1,-1,0
1523616878665,-589824,81,-56,-1,-1,0
1523616878705,-524288,82,-56,-1,-1,0
1523616878705,-524288,82,-56,-1,-1,0
1523616878705,-458752,82,-56,-1,-1,0
1523616878705,-524288,82,-56,-1,-1,0
1523616878705,-262144,82,-56,-1,-1,0
1523616878746,1703936,82,-56,-1,-1,0
1523616878746,6356992,82,-56,-1,-1,0
1523616878746,11075584,82,-56,-1,-1,0
1523616878746,10747904,82,-56,-1,-1,0
1523616878746,3997696,82,-56,-1,-1,0
1523616878785,-2293760,82,-56,-1,-1,0
1523616878785,-3670016,82,-56,-1,-1,0
1523616878785,-2031616,82,-56,-1,-1,0
1523616878785,-720896,82,-56,-1,-1,0
1523616878785,0,82,-56,-1,-1,0
1523616878825,458752,82,-56,-1,-1,0
1523616878825,786432,82,-56,-1,-1,0
1523616878825,1114112,82,-56,-1,-1,0
1523616878825,1376256,82,-56,-1,-1,0
1523616878825,1703936,82,-56,-1,-1,0
1523616878865,1966080,82,-56,-1,-1,0
1523616878865,2228224,82,-56,-1,-1,0
1523616878865,2293760,82,-56,-1,-1,0
1523616878865,2424832,82,-56,-1,-1,0
1523616878865,2555904,82,-56,-1,-1,0
1523616878905,2752512,82,-56,-1,-1,0
1523616878905,2949120,82,-56,-1,-1,0
1523616878905,3145728,82,-56,-1,-1,0
1523616878905,3276800,82,-56,-1,-1,0
1523616878905,3473408,82,-56,-1,-1,0
1523616878945,3735552,82,-56,-1,-1,0
1523616878945,3932160,82,-56,-1,-1,0
1523616878945,4194304,82,-56,-1,-1,0
1523616878945,4390912,82,-56,-1,-1,0
1523616878945,4521984,82,-56,-1,-1,0
1523616878985,4456448,82,-56,-1,-1,0
1523616878985,4325376,82,-56,-1,-1,0
1523616878985,3866624,82,-56,-1,-1,0
1523616878985,3211264,82,-56,-1,-1,0
1523616878985,2424832,82,-56,-1,-1,0
1523616879025,1835008,82,-56,-1,-1,0
1523616879025,1376256,82,-56,-1,-1,0
1523616879025,1048576,82,-56,-1,-1,0
1523616879025,720896,82,-56,-1,-1,0
1523616879025,458752,82,-56,-1,-1,0
1523616879065,327680,82,-56,-1,-1,0
1523616879065,327680,82,-56,-1,-1,0
1523616879065,131072,82,-56,-1,-1,0
1523616879065,0,82,-56,-1,-1,0
1523616879065,-65536,82,-56,-1,-1,0
1523616879105,-131072,82,-56,-1,-1,0
1523616879105,-262144,82,-56,-1,-1,0
1523616879105,-327680,82,-56,-1,-1,0
1523616879105,-327680,82,-56,-1,-1,0
1523616879105,-327680,82,-56,-1,-1,0
1523616879145,-393216,82,-56,-1,-1,0
1523616879145,-458752,82,-56,-1,-1,0
1523616879145,-458752,82,-56,-1,-1,0
1523616879145,-524288,82,-56,-1,-1,0
1523616879145,-524288,82,-56,-1,-1,0
1523616879197,-524288,82,-56,-1,-1,0
1523616879197,-524288,82,-56,-1,-1,0
1523616879197,-524288,82,-56,-1,-1,0
1523616879197,-589824,82,-56,-1,-1,0
1523616879197,-589824,82,-56,-1,-1,0
1523616879225,-655360,82,-56,-1,-1,0
1523616879225,-720896,82,-56,-1,-1,0
1523616879225,-786432,82,-56,-1,-1,0
1523616879225,-786432,82,-56,-1,-1,0
1523616879225,-720896,82,-56,-1,-1,0
1523616879265,-655360,82,-56,-1,-1,0
1523616879265,-655360,82,-56,-1,-1,0
1523616879265,-720896,82,-56,-1,-1,0
1523616879265,-851968,82,-56,-1,-1,0
1523616879265,-983040,82,-56,-1,-1,0
1523616879305,-1048576,82,-56,-1,-1,0
1523616879305,-1048576,82,-56,-1,-1,0
1523616879305,-1048576,82,-56,-1,-1,0
1523616879305,-1179648,82,-56,-1,-1,0
1523616879305,-1245184,82,-56,-1,-1,0
1523616879345,-1245184,82,-56,-1,-1,0
1523616879345,-1245184,82,-56,-1,-1,0
1523616879345,-1310720,82,-56,-1,-1,0
1523616879345,-1376256,82,-56,-1,-1,0
1523616879345,-1376256,82,-56,-1,-1,0
1523616879385,-1441792,83,-56,-1,-1,0
1523616879385,-1507328,83,-56,-1,-1,0
1523616879385,0,83,-56,-1,-1,0
1523616879385,4521984,83,-56,-1,-1,0
1523616879385,10485760,83,-56,-1,-1,0
1523616879425,12386304,83,-56,-1,-1,0
1523616879425,6422528,83,-56,-1,-1,0
1523616879425,-1572864,83,-56,-1,-1,0
1523616879425,-4849664,83,-56,-1,-1,0
1523616879425,-3670016,83,-56,-1,-1,0
1523616879466,-2490368,83,-56,-1,-1,0
1523616879466,-1835008,83,-56,-1,-1,0
1523616879466,-1376256,83,-56,-1,-1,0
1523616879466,-1114112,83,-56,-1,-1,0
1523616879466,-983040,83,-56,-1,-1,0
1523616879505,-917504,83,-56,-1,-1,0
1523616879505,-786432,83,-56,-1,-1,0
1523616879505,-720896,83,-56,-1,-1,0
1523616879505,-720896,83,-56,-1,-1,0
1523616879505,-655360,83,-56,-1,-1,0
1523616879545,-524288,83,-56,-1,-1,0
1523616879545,-458752,83,-56,-1,-1,0
1523616879545,-393216,83,-56,-1,-1,0
1523616879545,-262144,83,-56,-1,-1,0
1523616879545,-131072,83,-56,-1,-1,0
1523616879585,0,83,-56,-1,-1,0
1523616879585,196608,83,-56,-1,-1,0
1523616879585,458752,83,-56,-1,-1,0
1523616879585,720896,83,-56,-1,-1,0
1523616879585,1048576,83,-56,-1,-1,0
1523616879625,1376256,83,-56,-1,-1,0
1523616879625,1638400,83,-56,-1,-1,0
1523616879625,1703936,83,-56,-1,-1,0
1523616879625,1703936,83,-56,-1,-1,0
1523616879625,1310720,83,-56,-1,-1,0
1523616879665,720896,83,-56,-1,-1,0
1523616879665,65536,83,-56,-1,-1,0
1523616879665,-393216,83,-56,-1,-1,0
1523616879665,-720896,83,-56,-1,-1,0
1523616879665,-983040,83,-56,-1,-1,0
1523616879705,-1114112,83,-56,-1,-1,0
1523616879705,-1048576,83,-56,-1,-1,0
1523616879705,-1048576,83,-56,-1,-1,0
1523616879705,-1114112,83,-56,-1,-1,0
1523616879705,-1179648,83,-56,-1,-1,0
1523616879745,-1114112,83,-56,-1,-1,0
1523616879745,-1114112,83,-56,-1,-1,0
1523616879745,-1114112,83,-56,-1,-1,0
1523616879745,-1114112,83,-56,-1,-1,0
1523616879745,-1114112,83,-56,-1,-1,0
1523616879785,-1114112,83,-56,-1,-1,0
1523616879785,-1114112,83,-56,-1,-1,0
1523616879785,-1114112,83,-56,-1,-1,0
1523616879785,-1114112,83,-56,-1,-1,0
1523616879785,-1114112,83,-56,-1,-1,0
1523616879838,-1048576,83,-56,-1,-1,0
1523616879838,-1048576,83,-56,-1,-1,0
1523616879838,-1114112,83,-56,-1,-1,0
1523616879838,-1114112,83,-56,-1,-1,0
1523616879838,-1114112,83,-56,-1,-1,0
1523616879867,-1114112,83,-56,-1,-1,0
1523616879867,-1114112,83,-56,-1,-1,0
1523616879867,-1114112,83,-56,-1,-1,0
1523616879867,-1179648,83,-56,-1,-1,0
1523616879867,-1179648,83,-56,-1,-1,0
1523616879906,-1179648,83,-56,-1,-1,0
1523616879906,-1114112,83,-56,-1,-1,0
1523616879906,-1114112,83,-56,-1,-1,0
1523616879906,-1048576,83,-56,-1,-1,0
1523616879906,-917504,83,-56,-1,-1,0
1523616879945,-851968,83,-56,-1,-1,0
1523616879945,-786432,83,-56,-1,-1,0
1523616879945,-786432,83,-56,-1,-1,0
1523616879945,-851968,83,-56,-1,-1,0
1523616879945,-917504,83,-56,-1,-1,0
1523616879985,-917504,83,-56,-1,-1,0
1523616879985,-983040,83,-56,-1,-1,0
1523616879985,-1048576,83,-56,-1,-1,0
1523616879985,-1048576,83,-56,-1,-1,0
1523616879985,-1048576,83,-56,-1,-1,0
1523616880025,-1048576,83,-56,-1,-1,0
1523616880025,-1048576,83,-56,-1,-1,0
1523616880025,-1048576,83,-56,-1,-1,0
1523616880025,-1048576,83,-56,-1,-1,0
1523616880025,-1048576,83,-56,-1,-1,0
1523616880065,-983040,83,-56,-1,-1,0
1523616880065,-1114112,83,-56,-1,-1,0
1523616880065,-1179648,83,-56,-1,-1,0
1523616880065,327680,83,-56,-1,-1,0
1523616880065,5046272,83,-56,-1,-1,0
1523616880105,11534336,85,-56,-1,-1,0
1523616880105,14155776,85,-56,-1,-1,0
1523616880105,8650752,85,-56,-1,-1,0
1523616880105,65536,85,-56,-1,-1,0
1523616880105,-3866624,85,-56,-1,-1,0
1523616880145,-2883584,85,-56,-1,-1,0
1523616880145,-1638400,85,-56,-1,-1,0
1523616880145,-1048576,85,-56,-1,-1,0
1523616880145,-655360,85,-56,-1,-1,0
1523616880145,-458752,85,-56,-1,-1,0
1523616880185,-327680,85,-56,-1,-1,0
1523616880185,-262144,85,-56,-1,-1,0
1523616880185,-196608,85,-56,-1,-1,0
1523616880185,-131072,85,-56,-1,-1,0
1523616880185,0,85,-56,-1,-1,0
1523616880225,0,85,-56,-1,-1,0
1523616880225,0,85,-56,-1,-1,0
1523616880225,131072,85,-56,-1,-1,0
1523616880225,196608,85,-56,-1,-1,0
1523616880225,262144,85,-56,-1,-1,0
1523616880265,393216,85,-56,-1,-1,0
1523616880265,589824,85,-56,-1,-1,0
1523616880265,720896,85,-56,-1,-1,0
1523616880265,1048576,85,-56,-1,-1,0
1523616880265,1310720,85,-56,-1,-1,0
1523616880305,1638400,85,-56,-1,-1,0
1523616880305,1835008,85,-56,-1,-1,0
1523616880305,2031616,85,-56,-1,-1,0
1523616880305,2162688,85,-56,-1,-1,0
1523616880305,2162688,85,-56,-1,-1,0
1523616880345,1769472,85,-56,-1,-1,0
1523616880345,1245184,85,-56,-1,-1,0
1523616880345,655360,85,-56,-1,-1,0
1523616880345,196608,85,-56,-1,-1,0
1523616880345,-131072,85,-56,-1,-1,0
1523616880385,-393216,85,-56,-1,-1,0
1523616880385,-589824,85,-56,-1,-1,0
1523616880385,-655360,85,-56,-1,-1,0
1523616880385,-720896,85,-56,-1,-1,0
1523616880385,-786432,85,-56,-1,-1,0
1523616880425,-786432,85,-56,-1,-1,0
1523616880425,-720896,85,-56,-1,-1,0
1523616880425,-786432,85,-56,-1,-1,0
1523616880425,-786432,85,-56,-1,-1,0
1523616880425,-720896,85,-56,-1,-1,0
1523616880478,-655360,85,-56,-1,-1,0
1523616880478,-655360,85,-56,-1,-1,0
1523616880478,-720896,85,-56,-1,-1,0
1523616880478,-655360,85,-56,-1,-1,0
1523616880478,-720896,85,-56,-1,-1,0
1523616880505,-655360,85,-56,-1,-1,0
1523616880505,-655360,85,-56,-1,-1,0
1523616880505,-655360,85,-56,-1,-1,0
1523616880505,-655360,85,-56,-1,-1,0
1523616880505,-655360,85,-56,-1,-1,0
1523616880545,-589824,85,-56,-1,-1,0
1523616880545,-589824,85,-56,-1,-1,0
1523616880545,-655360,85,-56,-1,-1,0
1523616880545,-720896,85,-56,-1,-1,0
1523616880545,-720896,85,-56,-1,-1,0
1523616880585,-786432,85,-56,-1,-1,0
1523616880585,-786432,85,-56,-1,-1,0
1523616880585,-786432,85,-56,-1,-1,0
1523616880585,-786432,85,-56,-1,-1,0
1523616880585,-851968,85,-56,-1,-1,0
1523616880625,-917504,85,-56,-1,-1,0
1523616880625,-917504,85,-56,-1,-1,0
1523616880625,-917504,85,-56,-1,-1,0
1523616880625,-917504,85,-56,-1,-1,0
1523616880625,-786432,85,-56,-1,-1,0
1523616880665,-655360,85,-56,-1,-1,0
1523616880665,-655360,85,-56,-1,-1,0
1523616880665,-720896,85,-56,-1,-1,0
1523616880665,-786432,85,-56,-1,-1,0
1523616880665,-786432,85,-56,-1,-1,0
1523616880706,-851968,85,-56,-1,-1,0
1523616880706,-917504,85,-56,-1,-1,0
1523616880706,-917504,85,-56,-1,-1,0
1523616880706,-983040,85,-56,-1,-1,0
1523616880706,-917504,85,-56,-1,-1,0
1523616880745,-917504,85,-56,-1,-1,0
1523616880745,-983040,85,-56,-1,-1,0
1523616880745,-983040,85,-56,-1,-1,0
1523616880745,-983040,85,-56,-1,-1,0
1523616880745,-983040,85,-56,-1,-1,0
1523616880787,-1114112,85,-56,-1,-1,0
1523616880787,-1310720,85,-56,-1,-1,0
1523616880787,-393216,85,-56,-1,-1,0
1523616880787,3407872,85,-56,-1,-1,0
1523616880787,9568256,85,-56,-1,-1,0
1523616880825,13762560,85,-56,-1,-1,0
1523616880825,10289152,85,-56,-1,-1,0
1523616880825,1703936,85,-56,-1,-1,0
1523616880825,-3670016,85,-56,-1,-1,0
1523616880825,-3407872,85,-56,-1,-1,0
1523616880865,-2097152,85,-56,-1,-1,0
1523616880865,-1441792,85,-56,-1,-1,0
1523616880865,-983040,85,-56,-1,-1,0
1523616880865,-786432,85,-56,-1,-1,0
1523616880865,-655360,85,-56,-1,-1,0
1523616880905,-589824,85,-56,-1,-1,0
1523616880905,-524288,85,-56,-1,-1,0
1523616880905,-458752,85,-56,-1,-1,0
1523616880905,-393216,85,-56,-1,-1,0
1523616880905,-262144,85,-56,-1,-1,0
1523616880945,-262144,85,-56,-1,-1,0
1523616880945,-131072,85,-56,-1,-1,0
1523616880945,0,85,-56,-1,-1,0
1523616880945,65536,85,-56,-1,-1,0
1523616880945,131072,85,-56,-1,-1,0
1523616880985,196608,85,-56,-1,-1,0
1523616880985,393216,85,-56,-1,-1,0
1523616880985,655360,85,-56,-1,-1,0
1523616880985,917504,85,-56,-1,-1,0
1523616880985,1179648,85,-56,-1,-1,0
1523616881025,1441792,85,-56,-1,-1,0
1523616881025,1638400,85,-56,-1,-1,0
1523616881025,1769472,85,-56,-1,-1,0
1523616881025,1900544,85,-56,-1,-1,0
1523616881025,1638400,85,-56,-1,-1,0
1523616881066,1245184,85,-56,-1,-1,0
1523616881066,655360,85,-56,-1,-1,0
1523616881066,131072,85,-56,-1,-1,0
1523616881066,-131072,85,-56,-1,-1,0
1523616881066,-327680,85,-56,-1,-1,0
1523616881119,-524288,85,-56,-1,-1,0
1523616881119,-589824,85,-56,-1,-1,0
1523616881119,-655360,85,-56,-1,-1,0
1523616881119,-655360,85,-56,-1,-1,0
1523616881119,-720896,85,-56,-1,-1,0
1523616881145,-720896,85,-56,-1,-1,0
1523616881145,-720896,85,-56,-1,-1,0
1523616881145,-720896,85,-56,-1,-1,0
1523616881145,-720896,85,-56,-1,-1,0
1523616881145,-655360,85,-56,-1,-1,0
1523616881185,-655360,85,-56,-1,-1,0
1523616881185,-655360,85,-56,-1,-1,0
1523616881185,-655360,85,-56,-1,-1,0
1523616881185,-655360,85,-56,-1,-1,0
1523616881185,-589824,85,-56,-1,-1,0
1523616881226,-524288,85,-56,-1,-1,0
1523616881226,-589824,85,-56,-1,-1,0
1523616881226,-655360,85,-56,-1,-1,0
1523616881226,-655360,85,-56,-1,-1,0
1523616881226,-589824,85,-56,-1,-1,0
1523616881265,-524288,85,-56,-1,-1,0
1523616881265,-589824,85,-56,-1,-1,0
1523616881265,-589824,85,-56,-1,-1,0
1523616881265,-655360,85,-56,-1,-1,0
1523616881265,-655360,85,-56,-1,-1,0
1523616881305,-655360,85,-56,-1,-1,0
1523616881305,-655360,85,-56,-1,-1,0
1523616881305,-655360,85,-56,-1,-1,0
1523616881305,-720896,85,-56,-1,-1,0
1523616881305,-720896,85,-56,-1,-1,0
1523616881345,-720896,85,-56,-1,-1,0
1523616881345,-720896,85,-56,-1,-1,0
1523616881345,-720896,85,-56,-1,-1,0
1523616881345,-720896,85,-56,-1,-1,0
1523616881345,-655360,85,-56,-1,-1,0
1523616881385,-655360,85,-56,-1,-1,0
1523616881385,-720896,85,-56,-1,-1,0
1523616881385,-720896,85,-56,-1,-1,0
1523616881385,-720896,85,-56,-1,-1,0
1523616881385,-720896,85,-56,-1,-1,0
1523616881426,-786432,85,-56,-1,-1,0
1523616881426,-786432,85,-56,-1,-1,0
1523616881426,-720896,85,-56,-1,-1,0
1523616881426,-655360,85,-56,-1,-1,0
1523616881426,-655360,85,-56,-1,-1,0
1523616881465,-720896,85,-56,-1,-1,0
1523616881465,-720896,85,-56,-1,-1,0
1523616881465,-655360,85,-56,-1,-1,0
1523616881465,-589824,85,-56,-1,-1,0
1523616881465,-589824,85,-56,-1,-1,0
1523616881505,-589824,85,-56,-1,-1,0
1523616881505,-589824,85,-56,-1,-1,0
1523616881505,-524288,85,-56,-1,-1,0
1523616881505,-524288,85,-56,-1,-1,0
1523616881505,-458752,85,-56,-1,-1,0
1523616881545,-393216,85,-56,-1,-1,0
1523616881545,-327680,85,-56,-1,-1,0
1523616881545,-327680,85,-56,-1,-1,0
1523616881545,-393216,85,-56,-1,-1,0
1523616881545,-393216,85,-56,-1,-1,0
1523616881585,-458752,85,-56,-1,-1,0
1523616881585,-524288,85,-56,-1,-1,0
1523616881585,-589824,85,-56,-1,-1,0
1523616881585,-655360,85,-56,-1,-1,0
1523616881585,-720896,85,-56,-1,-1,0
1523616881625,-720896,85,-56,-1,-1,0
1523616881625,-720896,85,-56,-1,-1,0
1523616881625,-786432,85,-56,-1,-1,0
1523616881625,-720896,85,-56,-1,-1,0
1523616881625,-720896,85,-56,-1,-1,0
1523616881665,-720896,85,-56,-1,-1,0
1523616881665,-917504,85,-56,-1,-1,0
1523616881665,-393216,85,-56,-1,-1,0
1523616881665,2752512,85,-56,-1,-1,0
1523616881665,8585216,85,-56,-1,-1,0
1523616881705,13565952,85,-56,-1,-1,0
1523616881705,12189696,85,-56,-1,-1,0
1523616881705,4259840,85,-56,-1,-1,0
1523616881705,-2162688,85,-56,-1,-1,0
1523616881705,-3014656,85,-56,-1,-1,0
1523616881758,-1769472,85,-56,-1,-1,0
1523616881758,-1114112,85,-56,-1,-1,0
1523616881758,-720896,85,-56,-1,-1,0
1523616881758,-458752,85,-56,-1,-1,0
1523616881758,-327680,85,-56,-1,-1,0
1523616881785,-262144,85,-56,-1,-1,0
1523616881785,-196608,85,-56,-1,-1,0
1523616881785,-65536,85,-56,-1,-1,0
1523616881785,-65536,85,-56,-1,-1,0
1523616881785,0,85,-56,-1,-1,0
1523616881825,0,85,-56,-1,-1,0
1523616881825,0,85,-56,-1,-1,0
1523616881825,131072,85,-56,-1,-1,0
1523616881825,262144,85,-56,-1,-1,0
1523616881825,327680,85,-56,-1,-1,0
1523616881865,458752,85,-56,-1,-1,0
1523616881865,655360,85,-56,-1,-1,0
1523616881865,851968,85,-56,-1,-1,0
1523616881865,1114112,85,-56,-1,-1,0
1523616881865,1376256,85,-56,-1,-1,0
1523616881905,1638400,85,-56,-1,-1,0
1523616881905,1900544,85,-56,-1,-1,0
1523616881905,2097152,85,-56,-1,-1,0
1523616881905,2162688,85,-56,-1,-1,0
1523616881905,2031616,85,-56,-1,-1,0
1523616881945,1703936,85,-56,-1,-1,0
1523616881945,1179648,85,-56,-1,-1,0
1523616881945,589824,85,-56,-1,-1,0
1523616881945,65536,85,-56,-1,-1,0
1523616881945,-262144,85,-56,-1,-1,0
1523616881985,-524288,85,-56,-1,-1,0
1523616881985,-655360,85,-56,-1,-1,0
1523616881985,-786432,85,-56,-1,-1,0
1523616881985,-786432,85,-56,-1,-1,0
1523616881985,-786432,85,-56,-1,-1,0
1523616882025,-786432,85,-56,-1,-1,0
1523616882025,-720896,85,-56,-1,-1,0
1523616882025,-720896,85,-56,-1,-1,0
1523616882025,-720896,85,-56,-1,-1,0
1523616882025,-720896,85,-56,-1,-1,0
1523616882065,-720896,85,-56,-1,-1,0
1523616882065,-720896,85,-56,-1,-1,0
1523616882065,-786432,85,-56,-1,-1,0
1523616882065,-786432,85,-56,-1,-1,0
1523616882065,-720896,85,-56,-1,-1,0
1523616882105,-655360,85,-56,-1,-1,0
1523616882105,-655360,85,-56,-1,-1,0
1523616882105,-655360,85,-56,-1,-1,0
1523616882105,-655360,85,-56,-1,-1,0
1523616882105,-655360,85,-56,-1,-1,0
1523616882145,-655360,85,-56,-1,-1,0
1523616882145,-720896,85,-56,-1,-1,0
1523616882145,-720896,85,-56,-1,-1,0
1523616882145,-720896,85,-56,-1,-1,0
1523616882145,-786432,85,-56,-1,-1,0
1523616882185,-786432,85,-56,-1,-1,0
1523616882185,-786432,85,-56,-1,-1,0
1523616882185,-786432,85,-56,-1,-1,0
1523616882185,-851968,85,-56,-1,-1,0
1523616882185,-851968,85,-56,-1,-1,0
1523616882226,-917504,85,-56,-1,-1,0
1523616882226,-917504,85,-56,-1,-1,0
1523616882226,-983040,85,-56,-1,-1,0
1523616882226,-983040,85,-56,-1,-1,0
1523616882226,-917504,85,-56,-1,-1,0
1523616882265,-917504,85,-56,-1,-1,0
1523616882265,-983040,85,-56,-1,-1,0
1523616882265,-983040,85,-56,-1,-1,0
1523616882265,-983040,85,-56,-1,-1,0
1523616882265,-917504,85,-56,-1,-1,0
1523616882305,-851968,85,-56,-1,-1,0
1523616882305,-851968,85,-56,-1,-1,0
1523616882305,-786432,85,-56,-1,-1,0
1523616882305,-655360,85,-56,-1,-1,0
1523616882305,-655360,85,-56,-1,-1,0
1523616882345,-589824,85,-56,-1,-1,0
1523616882345,-589824,85,-56,-1,-1,0
1523616882345,-589824,85,-56,-1,-1,0
1523616882345,-458752,85,-56,-1,-1,0
1523616882345,-393216,85,-56,-1,-1,0
1523616882398,-393216,85,-56,-1,-1,0
1523616882398,-393216,85,-56,-1,-1,0
1523616882398,-327680,85,-56,-1,-1,0
1523616882398,-262144,85,-56,-1,-1,0
1523616882398,-262144,85,-56,-1,-1,0
1523616882425,-262144,85,-56,-1,-1,0
1523616882425,-262144,85,-56,-1,-1,0
1523616882425,-131072,85,-56,-1,-1,0
1523616882425,0,85,-56,-1,-1,0
1523616882425,-65536,85,-56,-1,-1,0
1523616882466,-196608,85,-56,-1,-1,0
1523616882466,-262144,85,-56,-1,-1,0
1523616882466,-262144,85,-56,-1,-1,0
1523616882466,-262144,85,-56,-1,-1,0
1523616882466,-262144,85,-56,-1,-1,0
1523616882505,-327680,85,-56,-1,-1,0
1523616882505,-393216,85,-56,-1,-1,0
1523616882505,-393216,85,-56,-1,-1,0
1523616882505,-393216,85,-56,-1,-1,0
1523616882505,-393216,85,-56,-1,-1,0
1523616882547,-393216,85,-56,-1,-1,0
1523616882547,-327680,85,-56,-1,-1,0
1523616882547,-327680,85,-56,-1,-1,0
1523616882547,-393216,85,-56,-1,-1,0
1523616882547,-655360,85,-56,-1,-1,0
1523616882586,-196608,85,-56,-1,-1,0
1523616882586,2818048,85,-56,-1,-1,0
1523616882586,8650752,85,-56,-1,-1,0
1523616882586,13762560,85,-56,-1,-1,0
1523616882586,12255232,85,-56,-1,-1,0
1523616882625,4194304,85,-56,-1,-1,0
1523616882625,-2293760,85,-56,-1,-1,0
1523616882625,-3080192,85,-56,-1,-1,0
1523616882625,-1835008,85,-56,-1,-1,0
1523616882625,-983040,85,-56,-1,-1,0
1523616882670,-524288,85,-56,-1,-1,0
1523616882670,-196608,85,-56,-1,-1,0
1523616882670,-65536,85,-56,-1,-1,0
1523616882670,0,85,-56,-1,-1,0
1523616882670,0,85,-56,-1,-1,0
1523616882706,65536,85,-56,-1,-1,0
1523616882706,65536,85,-56,-1,-1,0
1523616882706,196608,85,-56,-1,-1,0
1523616882706,262144,85,-56,-1,-1,0
1523616882706,458752,85,-56,-1,-1,0
1523616882745,524288,85,-56,-1,-1,0
1523616882745,655360,85,-56,-1,-1,0
1523616882745,786432,85,-56,-1,-1,0
1523616882745,983040,85,-56,-1,-1,0
1523616882745,1114112,85,-56,-1,-1,0
1523616882788,1376256,85,-56,-1,-1,0
1523616882788,1703936,85,-56,-1,-1,0
1523616882788,2031616,85,-56,-1,-1,0
1523616882788,2359296,85,-56,-1,-1,0
1523616882788,2621440,85,-56,-1,-1,0
1523616882825,2818048,85,-56,-1,-1,0
1523616882825,2949120,85,-56,-1,-1,0
1523616882825,2752512,85,-56,-1,-1,0
1523616882825,2293760,85,-56,-1,-1,0
1523616882825,1638400,85,-56,-1,-1,0
1523616882867,983040,85,-56,-1,-1,0
1523616882867,393216,85,-56,-1,-1,0
1523616882867,0,85,-56,-1,-1,0
1523616882867,-131072,85,-56,-1,-1,0
1523616882867,-262144,85,-56,-1,-1,0
1523616882906,-327680,85,-56,-1,-1,0
1523616882906,-393216,85,-56,-1,-1,0
1523616882906,-458752,85,-56,-1,-1,0
1523616882906,-458752,85,-56,-1,-1,0
1523616882906,-458752,85,-56,-1,-1,0
1523616882945,-458752,85,-56,-1,-1,0
1523616882945,-458752,85,-56,-1,-1,0
1523616882945,-458752,85,-56,-1,-1,0
1523616882945,-458752,85,-56,-1,-1,0
1523616882945,-458752,85,-56,-1,-1,0
1523616882988,-524288,85,-56,-1,-1,0
1523616882988,-524288,85,-56,-1,-1,0
1523616882988,-458752,85,-56,-1,-1,0
1523616882988,-393216,85,-56,-1,-1,0
1523616882988,-393216,85,-56,-1,-1,0
1523616883038,-458752,85,-56,-1,-1,0
1523616883038,-458752,85,-56,-1,-1,0
1523616883038,-393216,85,-56,-1,-1,0
1523616883038,-458752,85,-56,-1,-1,0
1523616883038,-458752,85,-56,-1,-1,0
1523616883065,-458752,85,-56,-1,-1,0
1523616883065,-458752,85,-56,-1,-1,0
1523616883065,-524288,85,-56,-1,-1,0
1523616883065,-524288,85,-56,-1,-1,0
1523616883065,-589824,85,-56,-1,-1,0
1523616883105,-589824,85,-56,-1,-1,0
1523616883105,-589824,85,-56,-1,-1,0
1523616883105,-655360,85,-56,-1,-1,0
1523616883105,-655360,85,-56,-1,-1,0
1523616883105,-655360,85,-56,-1,-1,0
1523616883145,-655360,85,-56,-1,-1,0
1523616883145,-720896,85,-56,-1,-1,0
1523616883145,-720896,85,-56,-1,-1,0
1523616883145,-720896,85,-56,-1,-1,0
1523616883145,-720896,85,-56,-1,-1,0
1523616883186,-786432,85,-56,-1,-1,0
1523616883186,-786432,85,-56,-1,-1,0
1523616883186,-786432,85,-56,-1,-1,0
1523616883186,-720896,85,-56,-1,-1,0
1523616883186,-720896,85,-56,-1,-1,0
1523616883225,-720896,85,-56,-1,-1,0
1523616883225,-786432,85,-56,-1,-1,0
1523616883225,-851968,85,-56,-1,-1,0
1523616883225,-917504,85,-56,-1,-1,0
1523616883225,-917504,85,-56,-1,-1,0
1523616883266,-851968,85,-56,-1,-1,0
1523616883266,-851968,85,-56,-1,-1,0
1523616883266,-851968,85,-56,-1,-1,0
1523616883266,-786432,85,-56,-1,-1,0
1523616883266,-786432,85,-56,-1,-1,0
1523616883306,-851968,85,-56,-1,-1,0
1523616883306,-917504,85,-56,-1,-1,0
1523616883306,-786432,85,-56,-1,-1,0
1523616883306,-655360,85,-56,-1,-1,0
1523616883306,-589824,85,-56,-1,-1,0
1523616883348,-720896,85,-56,-1,-1,0
1523616883348,-786432,85,-56,-1,-1,0
1523616883348,-786432,85,-56,-1,-1,0
1523616883348,-786432,85,-56,-1,-1,0
1523616883348,-851968,85,-56,-1,-1,0
1523616883385,-917504,85,-56,-1,-1,0
1523616883385,-983040,85,-56,-1,-1,0
1523616883385,-983040,85,-56,-1,-1,0
1523616883385,-983040,85,-56,-1,-1,0
1523616883385,-983040,85,-56,-1,-1,0
1523616883425,-983040,85,-56,-1,-1,0
1523616883425,-1048576,85,-56,-1,-1,0
1523616883425,-983040,85,-56,-1,-1,0
1523616883425,-851968,85,-56,-1,-1,0
1523616883425,-917504,85,-56,-1,-1,0
1523616883465,-1179648,85,-56,-1,-1,0
1523616883465,-393216,85,-56,-1,-1,0
1523616883465,3211264,85,-56,-1,-1,0
1523616883465,9240576,85,-56,-1,-1,0
1523616883465,13762560,85,-56,-1,-1,0
1523616883505,11403264,85,-56,-1,-1,0
1523616883505,3145728,85,-56,-1,-1,0
1523616883505,-2686976,85,-56,-1,-1,0
1523616883505,-2949120,85,-56,-1,-1,0
1523616883505,-1835008,85,-56,-1,-1,0
1523616883545,-1179648,85,-56,-1,-1,0
1523616883545,-851968,85,-56,-1,-1,0
1523616883545,-589824,85,-56,-1,-1,0
1523616883545,-458752,85,-56,-1,-1,0
1523616883545,-327680,85,-56,-1,-1,0
1523616883585,-262144,85,-56,-1,-1,0
1523616883585,-196608,85,-56,-1,-1,0
1523616883585,-131072,85,-56,-1,-1,0
1523616883585,-65536,85,-56,-1,-1,0
1523616883585,0,85,-56,-1,-1,0
1523616883625,65536,85,-56,-1,-1,0
1523616883625,196608,85,-56,-1,-1,0
1523616883625,393216,85,-56,-1,-1,0
1523616883625,458752,85,-56,-1,-1,0
1523616883625,589824,85,-56,-1,-1,0
1523616883678,786432,85,-56,-1,-1,0
1523616883678,1048576,85,-56,-1,-1,0
1523616883678,1310720,85,-56,-1,-1,0
1523616883678,1638400,85,-56,-1,-1,0
1523616883678,1900544,85,-56,-1,-1,0
1523616883705,2162688,85,-56,-1,-1,0
1523616883705,2359296,85,-56,-1,-1,0
1523616883705,2424832,85,-56,-1,-1,0
1523616883705,2293760,85,-56,-1,-1,0
1523616883705,1966080,85,-56,-1,-1,0
1523616883745,1376256,85,-56,-1,-1,0
1523616883745,720896,85,-56,-1,-1,0
1523616883745,262144,85,-56,-1,-1,0
1523616883745,0,85,-56,-1,-1,0
1523616883745,-196608,85,-56,-1,-1,0
1523616883785,-393216,85,-56,-1,-1,0
1523616883785,-458752,85,-56,-1,-1,0
1523616883785,-524288,85,-56,-1,-1,0
1523616883785,-524288,85,-56,-1,-1,0
1523616883785,-524288,85,-56,-1,-1,0
1523616883825,-524288,85,-56,-1,-1,0
1523616883825,-458752,85,-56,-1,-1,0
1523616883825,-458752,85,-56,-1,-1,0
1523616883825,-458752,85,-56,-1,-1,0
1523616883825,-458752,85,-56,-1,-1,0
1523616883865,-458752,85,-56,-1,-1,0
1523616883865,-458752,85,-56,-1,-1,0
1523616883865,-458752,85,-56,-1,-1,0
1523616883865,-458752,85,-56,-1,-1,0
1523616883865,-458752,85,-56,-1,-1,0
1523616883905,-393216,85,-56,-1,-1,0
1523616883905,-393216,85,-56,-1,-1,0
1523616883905,-458752,85,-56,-1,-1,0
1523616883905,-458752,85,-56,-1,-1,0
1523616883905,-458752,85,-56,-1,-1,0
1523616883945,-458752,85,-56,-1,-1,0
1523616883945,-524288,85,-56,-1,-1,0
1523616883945,-524288,85,-56,-1,-1,0
1523616883945,-589824,85,-56,-1,-1,0
1523616883945,-589824,85,-56,-1,-1,0
1523616883985,-655360,85,-56,-1,-1,0
1523616883985,-786432,85,-56,-1,-1,0
1523616883985,-786432,85,-56,-1,-1,0
1523616883985,-786432,85,-56,-1,-1,0
1523616883985,-786432,85,-56,-1,-1,0
1523616884025,-786432,85,-56,-1,-1,0
1523616884025,-851968,85,-56,-1,-1,0
1523616884025,-851968,85,-56,-1,-1,0
1523616884025,-917504,85,-56,-1,-1,0
1523616884025,-917504,85,-56,-1,-1,0
1523616884065,-983040,85,-56,-1,-1,0
1523616884065,-983040,85,-56,-1,-1,0
1523616884065,-983040,85,-56,-1,-1,0
1523616884065,-983040,85,-56,-1,-1,0
1523616884065,-983040,85,-56,-1,-1,0
1523616884105,-983040,85,-56,-1,-1,0
1523616884105,-983040,85,-56,-1,-1,0
1523616884105,-983040,85,-56,-1,-1,0
1523616884105,-983040,85,-56,-1,-1,0
1523616884105,-983040,85,-56,-1,-1,0
1523616884145,-983040,85,-56,-1,-1,0
1523616884145,-983040,85,-56,-1,-1,0
1523616884145,-917504,85,-56,-1,-1,0
1523616884145,-917504,85,-56,-1,-1,0
1523616884145,-983040,85,-56,-1,-1,0
1523616884185,-917504,85,-56,-1,-1,0
1523616884185,-720896,85,-56,-1,-1,0
1523616884185,-589824,85,-56,-1,-1,0
1523616884185,-655360,85,-56,-1,-1,0
1523616884185,-720896,85,-56,-1,-1,0
1523616884225,-720896,85,-56,-1,-1,0
1523616884225,-720896,85,-56,-1,-1,0
1523616884225,-786432,85,-56,-1,-1,0
1523616884225,-917504,85,-56,-1,-1,0
1523616884225,-851968,85,-56,-1,-1,0
1523616884265,-917504,85,-56,-1,-1,0
1523616884265,-917504,85,-56,-1,-1,0
1523616884265,-983040,85,-56,-1,-1,0
1523616884265,-983040,85,-56,-1,-1,0
1523616884265,-917504,85,-56,-1,-1,0
1523616884319,-851968,85,-56,-1,-1,0
1523616884319,-851968,85,-56,-1,-1,0
1523616884319,-917504,85,-56,-1,-1,0
1523616884319,-1114112,85,-56,-1,-1,0
1523616884319,-655360,85,-56,-1,-1,0
1523616884345,2293760,85,-56,-1,-1,0
1523616884345,7864320,85,-56,-1,-1,0
1523616884345,12845056,85,-56,-1,-1,0
1523616884345,11468800,85,-56,-1,-1,0
1523616884345,3735552,85,-56,-1,-1,0
1523616884385,-2490368,85,-56,-1,-1,0
1523616884385,-3276800,85,-56,-1,-1,0
1523616884385,-2031616,85,-56,-1,-1,0
1523616884385,-1310720,85,-56,-1,-1,0
1523616884385,-917504,85,-56,-1,-1,0
1523616884425,-720896,85,-56,-1,-1,0
1523616884425,-524288,85,-56,-1,-1,0
1523616884425,-393216,85,-56,-1,-1,0
1523616884425,-327680,85,-56,-1,-1,0
1523616884425,-196608,85,-56,-1,-1,0
1523616884465,-196608,84,-56,-1,-1,0
1523616884465,-131072,84,-56,-1,-1,0
1523616884465,-131072,84,-56,-1,-1,0
1523616884465,0,84,-56,-1,-1,0
1523616884465,65536,84,-56,-1,-1,0
1523616884505,196608,84,-56,-1,-1,0
1523616884505,262144,84,-56,-1,-1,0
1523616884505,393216,84,-56,-1,-1,0
1523616884505,589824,84,-56,-1,-1,0
1523616884505,851968,84,-56,-1,-1,0
1523616884545,1114112,84,-56,-1,-1,0
1523616884545,1441792,84,-56,-1,-1,0
1523616884545,1769472,84,-56,-1,-1,0
1523616884545,2031616,84,-56,-1,-1,0
1523616884545,2228224,84,-56,-1,-1,0
1523616884586,2359296,84,-56,-1,-1,0
1523616884586,2293760,84,-56,-1,-1,0
1523616884586,1900544,84,-56,-1,-1,0
1523616884586,1310720,84,-56,-1,-1,0
1523616884586,720896,84,-56,-1,-1,0
1523616884625,196608,84,-56,-1,-1,0
1523616884625,0,84,-56,-1,-1,0
1523616884625,-262144,84,-56,-1,-1,0
1523616884625,-458752,84,-56,-1,-1,0
1523616884625,-589824,84,-56,-1,-1,0
1523616884665,-655360,84,-56,-1,-1,0
1523616884665,-655360,84,-56,-1,-1,0
1523616884665,-655360,84,-56,-1,-1,0
1523616884665,-720896,84,-56,-1,-1,0
1523616884665,-655360,84,-56,-1,-1,0
1523616884706,-655360,84,-56,-1,-1,0
1523616884706,-655360,84,-56,-1,-1,0
1523616884706,-720896,84,-56,-1,-1,0
1523616884706,-720896,84,-56,-1,-1,0
1523616884706,-720896,84,-56,-1,-1,0
1523616884745,-655360,84,-56,-1,-1,0
1523616884745,-589824,84,-56,-1,-1,0
1523616884745,-524288,84,-56,-1,-1,0
1523616884745,-524288,84,-56,-1,-1,0
1523616884745,-589824,84,-56,-1,-1,0
1523616884786,-589824,84,-56,-1,-1,0
1523616884786,-589824,84,-56,-1,-1,0
1523616884786,-589824,84,-56,-1,-1,0
1523616884786,-589824,84,-56,-1,-1,0
1523616884786,-589824,84,-56,-1,-1,0
1523616884825,-589824,84,-56,-1,-1,0
1523616884825,-589824,84,-56,-1,-1,0
1523616884825,-655360,84,-56,-1,-1,0
1523616884825,-655360,84,-56,-1,-1,0
1523616884825,-655360,84,-56,-1,-1,0
1523616884865,-720896,84,-56,-1,-1,0
1523616884865,-720896,84,-56,-1,-1,0
1523616884865,-786432,84,-56,-1,-1,0
1523616884865,-786432,84,-56,-1,-1,0
1523616884865,-786432,84,-56,-1,-1,0
1523616884905,-786432,84,-56,-1,-1,0
1523616884905,-720896,84,-56,-1,-1,0
1523616884905,-720896,84,-56,-1,-1,0
1523616884905,-720896,84,-56,-1,-1,0
1523616884905,-720896,84,-56,-1,-1,0
1523616884958,-720896,84,-56,-1,-1,0
1523616884958,-720896,84,-56,-1,-1,0
1523616884958,-720896,84,-56,-1,-1,0
1523616884958,-786432,84,-56,-1,-1,0
1523616884958,-786432,84,-56,-1,-1,0
1523616884985,-786432,84,-56,-1,-1,0
1523616884985,-786432,84,-56,-1,-1,0
1523616884985,-786432,84,-56,-1,-1,0
1523616884985,-786432,84,-56,-1,-1,0
1523616884985,-786432,84,-56,-1,-1,0
1523616885025,-720896,84,-56,-1,-1,0
1523616885025,-655360,84,-56,-1,-1,0
1523616885025,-458752,84,-56,-1,-1,0
1523616885025,-458752,84,-56,-1,-1,0
1523616885025,-589824,84,-56,-1,-1,0
1523616885066,-655360,84,-56,-1,-1,0
1523616885066,-655360,84,-56,-1,-1,0
1523616885066,-720896,84,-56,-1,-1,0
1523616885066,-786432,84,-56,-1,-1,0
1523616885066,-851968,84,-56,-1,-1,0
1523616885105,-851968,84,-56,-1,-1,0
1523616885105,-851968,84,-56,-1,-1,0
1523616885105,-851968,84,-56,-1,-1,0
1523616885105,-851968,84,-56,-1,-1,0
1523616885105,-786432,84,-56,-1,-1,0
1523616885145,-786432,84,-56,-1,-1,0
1523616885145,-786432,84,-56,-1,-1,0
1523616885145,-851968,84,-56,-1,-1,0
1523616885145,-1048576,84,-56,-1,-1,0
1523616885145,-458752,84,-56,-1,-1,0
1523616885185,2490368,84,-56,-1,-1,0
1523616885185,7864320,84,-56,-1,-1,0
1523616885185,12320768,84,-56,-1,-1,0
1523616885185,10223616,84,-56,-1,-1,0
1523616885185,2555904,84,-56,-1,-1,0
1523616885225,-3080192,84,-56,-1,-1,0
1523616885225,-3211264,84,-56,-1,-1,0
1523616885225,-1900544,84,-56,-1,-1,0
1523616885225,-1179648,84,-56,-1,-1,0
1523616885225,-786432,84,-56,-1,-1,0
1523616885265,-589824,81,-56,-1,-1,0
1523616885265,-458752,81,-56,-1,-1,0
1523616885265,-393216,81,-56,-1,-1,0
1523616885265,-262144,81,-56,-1,-1,0
1523616885265,-196608,81,-56,-1,-1,0
1523616885305,-196608,81,-56,-1,-1,0
1523616885305,-131072,81,-56,-1,-1,0
1523616885305,0,81,-56,-1,-1,0
1523616885305,65536,81,-56,-1,-1,0
1523616885305,65536,81,-56,-1,-1,0
1523616885345,196608,81,-56,-1,-1,0
1523616885345,327680,81,-56,-1,-1,0
1523616885345,458752,81,-56,-1,-1,0
1523616885345,655360,81,-56,-1,-1,0
1523616885345,917504,81,-56,-1,-1,0
1523616885385,1179648,81,-56,-1,-1,0
1523616885385,1507328,81,-56,-1,-1,0
1523616885385,1769472,81,-56,-1,-1,0
1523616885385,2031616,81,-56,-1,-1,0
1523616885385,2228224,81,-56,-1,-1,0
1523616885425,2359296,81,-56,-1,-1,0
1523616885425,2228224,81,-56,-1,-1,0
1523616885425,1900544,81,-56,-1,-1,0
1523616885425,1376256,81,-56,-1,-1,0
1523616885425,720896,81,-56,-1,-1,0
1523616885465,196608,81,-56,-1,-1,0
1523616885465,-131072,81,-56,-1,-1,0
1523616885465,-327680,81,-56,-1,-1,0
1523616885465,-458752,81,-56,-1,-1,0
1523616885465,-524288,81,-56,-1,-1,0
1523616885506,-589824,81,-56,-1,-1,0
1523616885506,-655360,81,-56,-1,-1,0
1523616885506,-655360,81,-56,-1,-1,0
1523616885506,-655360,81,-56,-1,-1,0
1523616885506,-655360,81,-56,-1,-1,0
1523616885545,-655360,81,-56,-1,-1,0
1523616885545,-655360,81,-56,-1,-1,0
1523616885545,-655360,81,-56,-1,-1,0
1523616885545,-589824,81,-56,-1,-1,0
1523616885545,-589824,81,-56,-1,-1,0
1523616885598,-589824,81,-56,-1,-1,0
1523616885598,-524288,81,-56,-1,-1,0
1523616885598,-524288,81,-56,-1,-1,0
1523616885598,-458752,81,-56,-1,-1,0
1523616885598,-458752,81,-56,-1,-1,0
1523616885625,-458752,81,-56,-1,-1,0
1523616885625,-524288,81,-56,-1,-1,0
1523616885625,-524288,81,-56,-1,-1,0
1523616885625,-589824,81,-56,-1,-1,0
1523616885625,-589824,81,-56,-1,-1,0
1523616885665,-524288,81,-56,-1,-1,0
1523616885665,-589824,81,-56,-1,-1,0
1523616885665,-589824,81,-56,-1,-1,0
1523616885665,-655360,81,-56,-1,-1,0
1523616885665,-655360,81,-56,-1,-1,0
1523616885707,-655360,81,-56,-1,-1,0
1523616885707,-655360,81,-56,-1,-1,0
1523616885707,-655360,81,-56,-1,-1,0
1523616885707,-655360,81,-56,-1,-1,0
1523616885707,-655360,81,-56,-1,-1,0
1523616885745,-655360,81,-56,-1,-1,0
1523616885745,-589824,81,-56,-1,-1,0
1523616885745,-655360,81,-56,-1,-1,0
1523616885745,-720896,81,-56,-1,-1,0
1523616885745,-720896,81,-56,-1,-1,0
1523616885785,-655360,81,-56,-1,-1,0
1523616885785,-655360,81,-56,-1,-1,0
1523616885785,-655360,81,-56,-1,-1,0
1523616885785,-720896,81,-56,-1,-1,0
1523616885785,-655360,81,-56,-1,-1,0
1523616885825,-589824,81,-56,-1,-1,0
1523616885825,-458752,81,-56,-1,-1,0
1523616885825,-327680,81,-56,-1,-1,0
1523616885825,-262144,81,-56,-1,-1,0
1523616885825,-393216,81,-56,-1,-1,0
1523616885865,-458752,81,-56,-1,-1,0
1523616885865,-458752,81,-56,-1,-1,0
1523616885865,-524288,81,-56,-1,-1,0
1523616885865,-589824,81,-56,-1,-1,0
1523616885865,-655360,81,-56,-1,-1,0
1523616885905,-589824,81,-56,-1,-1,0
1523616885905,-655360,81,-56,-1,-1,0
1523616885905,-655360,81,-56,-1,-1,0
1523616885905,-655360,81,-56,-1,-1,0
1523616885905,-655360,81,-56,-1,-1,0
1523616885945,-655360,81,-56,-1,-1,0
1523616885945,-655360,81,-56,-1,-1,0
1523616885945,-720896,81,-56,-1,-1,0
1523616885945,-917504,81,-56,-1,-1,0
1523616885945,-589824,81,-56,-1,-1,0
1523616885986,1900544,81,-56,-1,-1,0
1523616885986,7012352,81,-56,-1,-1,0
1523616885986,11599872,81,-56,-1,-1,0
1523616885986,10092544,81,-56,-1,-1,0
1523616885986,2686976,81,-56,-1,-1,0
1523616886025,-3080192,76,-56,-1,-1,0
1523616886025,-3538944,76,-56,-1,-1,0
1523616886025,-2097152,76,-56,-1,-1,0
1523616886025,-1245184,76,-56,-1,-1,0
1523616886025,-786432,76,-56,-1,-1,0
1523616886065,-458752,76,-56,-1,-1,0
1523616886065,-262144,76,-56,-1,-1,0
1523616886065,-196608,76,-56,-1,-1,0
1523616886065,-131072,76,-56,-1,-1,0
1523616886065,-65536,76,-56,-1,-1,0
1523616886105,-65536,76,-56,-1,-1,0
1523616886105,0,76,-56,-1,-1,0
1523616886105,0,76,-56,-1,-1,0
1523616886105,131072,76,-56,-1,-1,0
1523616886105,196608,76,-56,-1,-1,0
1523616886145,262144,76,-56,-1,-1,0
1523616886145,327680,76,-56,-1,-1,0
1523616886145,458752,76,-56,-1,-1,0
1523616886145,655360,76,-56,-1,-1,0
1523616886145,983040,76,-56,-1,-1,0
1523616886185,1245184,76,-56,-1,-1,0
1523616886185,1572864,76,-56,-1,-1,0
1523616886185,1835008,76,-56,-1,-1,0
1523616886185,2097152,76,-56,-1,-1,0
1523616886185,2293760,76,-56,-1,-1,0
1523616886237,2424832,76,-56,-1,-1,0
1523616886237,2293760,76,-56,-1,-1,0
1523616886237,1966080,76,-56,-1,-1,0
1523616886237,1441792,76,-56,-1,-1,0
1523616886237,917504,76,-56,-1,-1,0
1523616886266,393216,76,-56,-1,-1,0
1523616886266,0,76,-56,-1,-1,0
1523616886266,-196608,76,-56,-1,-1,0
1523616886266,-327680,76,-56,-1,-1,0
1523616886266,-393216,76,-56,-1,-1,0
1523616886305,-458752,76,-56,-1,-1,0
1523616886305,-524288,76,-56,-1,-1,0
1523616886305,-524288,76,-56,-1,-1,0
1523616886305,-524288,76,-56,-1,-1,0
1523616886305,-589824,76,-56,-1,-1,0
1523616886345,-524288,76,-56,-1,-1,0
1523616886345,-524288,76,-56,-1,-1,0
1523616886345,-524288,76,-56,-1,-1,0
1523616886345,-524288,76,-56,-1,-1,0
1523616886345,-458752,76,-56,-1,-1,0
1523616886385,-458752,76,-56,-1,-1,0
1523616886385,-393216,76,-56,-1,-1,0
1523616886385,-393216,76,-56,-1,-1,0
1523616886385,-393216,76,-56,-1,-1,0
1523616886385,-393216,76,-56,-1,-1,0
1523616886425,-393216,76,-56,-1,-1,0
1523616886425,-393216,76,-56,-1,-1,0
1523616886425,-393216,76,-56,-1,-1,0
1523616886425,-393216,76,-56,-1,-1,0
1523616886425,-393216,76,-56,-1,-1,0
1523616886465,-393216,76,-56,-1,-1,0
1523616886465,-393216,76,-56,-1,-1,0
1523616886465,-458752,76,-56,-1,-1,0
1523616886465,-458752,76,-56,-1,-1,0
1523616886465,-458752,76,-56,-1,-1,0
1523616886505,-524288,76,-56,-1,-1,0
1523616886505,-589824,76,-56,-1,-1,0
1523616886505,-458752,76,-56,-1,-1,0
1523616886505,-524288,76,-56,-1,-1,0
1523616886505,-589824,76,-56,-1,-1,0
1523616886545,-589824,76,-56,-1,-1,0
1523616886545,-589824,76,-56,-1,-1,0
1523616886545,-589824,76,-56,-1,-1,0
1523616886545,-589824,76,-56,-1,-1,0
1523616886545,-524288,76,-56,-1,-1,0
1523616886585,-524288,76,-56,-1,-1,0
1523616886585,-458752,76,-56,-1,-1,0
1523616886585,-327680,76,-56,-1,-1,0
1523616886585,-262144,76,-56,-1,-1,0
1523616886585,-262144,76,-56,-1,-1,0
1523616886625,-393216,76,-56,-1,-1,0
1523616886625,-458752,76,-56,-1,-1,0
1523616886625,-524288,76,-56,-1,-1,0
1523616886625,-589824,76,-56,-1,-1,0
1523616886625,-655360,76,-56,-1,-1,0
1523616886665,-720896,76,-56,-1,-1,0
1523616886665,-655360,76,-56,-1,-1,0
1523616886665,-655360,76,-56,-1,-1,0
1523616886665,-589824,76,-56,-1,-1,0
1523616886665,-589824,76,-56,-1,-1,0
1523616886707,-655360,76,-56,-1,-1,0
1523616886707,-655360,76,-56,-1,-1,0
1523616886707,-655360,76,-56,-1,-1,0
1523616886707,-851968,76,-56,-1,-1,0
1523616886707,-851968,76,-56,-1,-1,0
1523616886745,720896,76,-56,-1,-1,0
1523616886745,5046272,76,-56,-1,-1,0
1523616886745,10092544,76,-56,-1,-1,0
1523616886745,10616832,76,-56,-1,-1,0
1523616886745,4456448,76,-56,-1,-1,0
1523616886789,-2097152,75,-56,-1,-1,0
1523616886789,-3932160,75,-56,-1,-1,0
1523616886789,-2555904,75,-56,-1,-1,0
1523616886789,-1441792,75,-56,-1,-1,0
1523616886789,-917504,75,-56,-1,-1,0
1523616886826,-589824,75,-56,-1,-1,0
1523616886826,-393216,75,-56,-1,-1,0
1523616886826,-262144,75,-56,-1,-1,0
1523616886826,-262144,75,-56,-1,-1,0
1523616886826,-196608,75,-56,-1,-1,0
1523616886879,-131072,75,-56,-1,-1,0
1523616886879,-65536,75,-56,-1,-1,0
1523616886879,0,75,-56,-1,-1,0
1523616886879,65536,75,-56,-1,-1,0
1523616886879,131072,75,-56,-1,-1,0
1523616886906,196608,75,-56,-1,-1,0
1523616886906,262144,75,-56,-1,-1,0
1523616886906,458752,75,-56,-1,-1,0
1523616886906,589824,75,-56,-1,-1,0
1523616886906,786432,75,-56,-1,-1,0
1523616886949,1048576,75,-56,-1,-1,0
1523616886949,1376256,75,-56,-1,-1,0
1523616886949,1638400,75,-56,-1,-1,0
1523616886949,1835008,75,-56,-1,-1,0
1523616886949,2031616,75,-56,-1,-1,0
1523616886985,2228224,75,-56,-1,-1,0
1523616886985,2228224,75,-56,-1,-1,0
1523616886985,1966080,75,-56,-1,-1,0
1523616886985,1441792,75,-56,-1,-1,0
1523616886985,851968,75,-56,-1,-1,0
1523616887026,327680,75,-56,-1,-1,0
1523616887026,0,75,-56,-1,-1,0
1523616887026,-262144,75,-56,-1,-1,0
1523616887026,-458752,75,-56,-1,-1,0
1523616887026,-589824,75,-56,-1,-1,0
1523616887065,-655360,75,-56,-1,-1,0
1523616887065,-655360,75,-56,-1,-1,0
1523616887065,-720896,75,-56,-1,-1,0
1523616887065,-720896,75,-56,-1,-1,0
1523616887065,-720896,75,-56,-1,-1,0
1523616887106,-655360,75,-56,-1,-1,0
1523616887106,-720896,75,-56,-1,-1,0
1523616887106,-720896,75,-56,-1,-1,0
1523616887106,-720896,75,-56,-1,-1,0
1523616887106,-655360,75,-56,-1,-1,0
1523616887145,-720896,75,-56,-1,-1,0
1523616887145,-655360,75,-56,-1,-1,0
1523616887145,-655360,75,-56,-1,-1,0
1523616887145,-655360,75,-56,-1,-1,0
1523616887145,-589824,75,-56,-1,-1,0
1523616887185,-589824,75,-56,-1,-1,0
1523616887185,-655360,75,-56,-1,-1,0
1523616887185,-655360,75,-56,-1,-1,0
1523616887185,-655360,75,-56,-1,-1,0
1523616887185,-655360,75,-56,-1,-1,0
1523616887225,-655360,75,-56,-1,-1,0
1523616887225,-720896,75,-56,-1,-1,0
1523616887225,-720896,75,-56,-1,-1,0
1523616887225,-655360,75,-56,-1,-1,0
1523616887225,-720896,75,-56,-1,-1,0
1523616887265,-786432,75,-56,-1,-1,0
1523616887265,-786432,75,-56,-1,-1,0
1523616887265,-786432,75,-56,-1,-1,0
1523616887265,-786432,75,-56,-1,-1,0
1523616887265,-786432,75,-56,-1,-1,0
1523616887306,-786432,75,-56,-1,-1,0
1523616887306,-720896,75,-56,-1,-1,0
1523616887306,-720896,75,-56,-1,-1,0
1523616887306,-720896,75,-56,-1,-1,0
1523616887306,-655360,75,-56,-1,-1,0
1523616887345,-458752,75,-56,-1,-1,0
1523616887345,-458752,75,-56,-1,-1,0
1523616887345,-524288,75,-56,-1,-1,0
1523616887345,-589824,75,-56,-1,-1,0
1523616887345,-720896,75,-56,-1,-1,0
1523616887385,-720896,75,-56,-1,-1,0
1523616887385,-786432,75,-56,-1,-1,0
1523616887385,-851968,75,-56,-1,-1,0
1523616887385,-917504,75,-56,-1,-1,0
1523616887385,-983040,75,-56,-1,-1,0
1523616887425,-917504,75,-56,-1,-1,0
1523616887425,-851968,75,-56,-1,-1,0
1523616887425,-851968,75,-56,-1,-1,0
1523616887425,-851968,75,-56,-1,-1,0
1523616887425,-786432,75,-56,-1,-1,0
1523616887465,-851968,75,-56,-1,-1,0
1523616887465,-1114112,75,-56,-1,-1,0
1523616887465,-524288,75,-56,-1,-1,0
1523616887465,2490368,75,-56,-1,-1,0
1523616887465,7667712,75,-56,-1,-1,0
1523616887517,10616832,75,-56,-1,-1,0
1523616887517,7012352,75,-56,-1,-1,0
1523616887517,-131072,75,-56,-1,-1,0
1523616887517,-4063232,75,-56,-1,-1,0
1523616887517,-3473408,75,-56,-1,-1,0
1523616887545,-2162688,75,-56,-1,-1,0
1523616887545,-1310720,75,-56,-1,-1,0
1523616887545,-786432,75,-56,-1,-1,0
1523616887545,-524288,75,-56,-1,-1,0
1523616887545,-393216,75,-56,-1,-1,0
1523616887585,-327680,75,-56,-1,-1,0
1523616887585,-262144,75,-56,-1,-1,0
1523616887585,-262144,75,-56,-1,-1,0
1523616887585,-196608,75,-56,-1,-1,0
1523616887585,-196608,75,-56,-1,-1,0
1523616887625,-131072,75,-56,-1,-1,0
1523616887625,-65536,75,-56,-1,-1,0
1523616887625,0,75,-56,-1,-1,0
1523616887625,131072,75,-56,-1,-1,0
1523616887625,196608,75,-56,-1,-1,0
1523616887665,393216,75,-56,-1,-1,0
1523616887665,524288,75,-56,-1,-1,0
1523616887665,786432,75,-56,-1,-1,0
1523616887665,983040,75,-56,-1,-1,0
1523616887665,1376256,75,-56,-1,-1,0
1523616887705,1638400,75,-56,-1,-1,0
1523616887705,1835008,75,-56,-1,-1,0
1523616887705,1966080,75,-56,-1,-1,0
1523616887705,2097152,75,-56,-1,-1,0
1523616887705,1966080,75,-56,-1,-1,0
1523616887745,1507328,75,-56,-1,-1,0
1523616887745,917504,75,-56,-1,-1,0
1523616887745,393216,75,-56,-1,-1,0
1523616887745,0,75,-56,-1,-1,0
1523616887745,-327680,75,-56,-1,-1,0
1523616887785,-524288,75,-56,-1,-1,0
1523616887785,-720896,75,-56,-1,-1,0
1523616887785,-851968,75,-56,-1,-1,0
1523616887785,-917504,75,-56,-1,-1,0
1523616887785,-851968,75,-56,-1,-1,0
1523616887825,-851968,75,-56,-1,-1,0
1523616887825,-917504,75,-56,-1,-1,0
1523616887825,-917504,75,-56,-1,-1,0
1523616887825,-917504,75,-56,-1,-1,0
1523616887825,-917504,75,-56,-1,-1,0
1523616887865,-917504,75,-56,-1,-1,0
1523616887865,-786432,75,-56,-1,-1,0
1523616887865,-720896,75,-56,-1,-1,0
1523616887865,-786432,75,-56,-1,-1,0
1523616887865,-786432,75,-56,-1,-1,0
1523616887905,-786432,75,-56,-1,-1,0
1523616887905,-786432,75,-56,-1,-1,0
1523616887905,-786432,75,-56,-1,-1,0
1523616887905,-786432,75,-56,-1,-1,0
1523616887905,-851968,75,-56,-1,-1,0
1523616887945,-851968,75,-56,-1,-1,0
1523616887945,-851968,75,-56,-1,-1,0
1523616887945,-851968,75,-56,-1,-1,0
1523616887945,-851968,75,-56,-1,-1,0
1523616887945,-917504,75,-56,-1,-1,0
1523616887985,-917504,75,-56,-1,-1,0
1523616887985,-851968,75,-56,-1,-1,0
1523616887985,-917504,75,-56,-1,-1,0
1523616887985,-917504,75,-56,-1,-1,0
1523616887985,-983040,75,-56,-1,-1,0
1523616888025,-983040,75,-56,-1,-1,0
1523616888025,-983040,75,-56,-1,-1,0
1523616888025,-917504,75,-56,-1,-1,0
1523616888025,-786432,75,-56,-1,-1,0
1523616888025,-655360,75,-56,-1,-1,0
1523616888065,-589824,75,-56,-1,-1,0
1523616888065,-589824,75,-56,-1,-1,0
1523616888065,-655360,75,-56,-1,-1,0
1523616888065,-720896,75,-56,-1,-1,0
1523616888065,-786432,75,-56,-1,-1,0
1523616888105,-917504,75,-56,-1,-1,0
1523616888105,-983040,75,-56,-1,-1,0
1523616888105,-1048576,75,-56,-1,-1,0
1523616888105,-1048576,75,-56,-1,-1,0
1523616888105,-983040,75,-56,-1,-1,0
1523616888157,-983040,75,-56,-1,-1,0
1523616888157,-983040,75,-56,-1,-1,0
1523616888157,-983040,75,-56,-1,-1,0
1523616888157,-917504,75,-56,-1,-1,0
1523616888157,-851968,75,-56,-1,-1,0
1523616888185,-917504,75,-56,-1,-1,0
1523616888185,-851968,75,-56,-1,-1,0
1523616888185,720896,75,-56,-1,-1,0
1523616888185,5111808,75,-56,-1,-1,0
1523616888185,10092544,75,-56,-1,-1,0
1523616888225,10354688,75,-56,-1,-1,0
1523616888225,4128768,75,-56,-1,-1,0
1523616888225,-2162688,75,-56,-1,-1,0
1523616888225,-3932160,75,-56,-1,-1,0
1523616888225,-2621440,75,-56,-1,-1,0
1523616888265,-1572864,75,-56,-1,-1,0
1523616888265,-917504,75,-56,-1,-1,0
1523616888265,-458752,75,-56,-1,-1,0
1523616888265,-262144,75,-56,-1,-1,0
1523616888265,-196608,75,-56,-1,-1,0
1523616888305,-196608,75,-56,-1,-1,0
1523616888305,-65536,75,-56,-1,-1,0
1523616888305,0,75,-56,-1,-1,0
1523616888305,131072,75,-56,-1,-1,0
1523616888305,196608,75,-56,-1,-1,0
1523616888345,196608,75,-56,-1,-1,0
1523616888345,196608,75,-56,-1,-1,0
1523616888345,327680,75,-56,-1,-1,0
1523616888345,458752,75,-56,-1,-1,0
1523616888345,589824,75,-56,-1,-1,0
1523616888385,786432,75,-56,-1,-1,0
1523616888385,917504,75,-56,-1,-1,0
1523616888385,1179648,75,-56,-1,-1,0
1523616888385,1441792,75,-56,-1,-1,0
1523616888385,1769472,75,-56,-1,-1,0
1523616888425,2031616,75,-56,-1,-1,0
1523616888425,2228224,75,-56,-1,-1,0
1523616888425,2359296,75,-56,-1,-1,0
1523616888425,2424832,75,-56,-1,-1,0
1523616888425,2097152,75,-56,-1,-1,0
1523616888465,1572864,75,-56,-1,-1,0
1523616888465,983040,75,-56,-1,-1,0
1523616888465,458752,75,-56,-1,-1,0
1523616888465,0,75,-56,-1,-1,0
1523616888465,-131072,75,-56,-1,-1,0
1523616888505,-262144,75,-56,-1,-1,0
1523616888505,-327680,75,-56,-1,-1,0
1523616888505,-458752,75,-56,-1,-1,0
1523616888505,-458752,75,-56,-1,-1,0
1523616888505,-393216,75,-56,-1,-1,0
1523616888546,-458752,75,-56,-1,-1,0
1523616888546,-458752,75,-56,-1,-1,0
1523616888546,-458752,75,-56,-1,-1,0
1523616888546,-393216,75,-56,-1,-1,0
1523616888546,-393216,75,-56,-1,-1,0
1523616888585,-393216,75,-56,-1,-1,0
1523616888585,-327680,75,-56,-1,-1,0
1523616888585,-262144,75,-56,-1,-1,0
1523616888585,-262144,75,-56,-1,-1,0
1523616888585,-262144,75,-56,-1,-1,0
1523616888625,-262144,75,-56,-1,-1,0
1523616888625,-262144,75,-56,-1,-1,0
1523616888625,-262144,75,-56,-1,-1,0
1523616888625,-262144,75,-56,-1,-1,0
1523616888625,-262144,75,-56,-1,-1,0
1523616888665,-262144,75,-56,-1,-1,0
1523616888665,-327680,75,-56,-1,-1,0
1523616888665,-327680,75,-56,-1,-1,0
1523616888665,-393216,75,-56,-1,-1,0
1523616888665,-393216,75,-56,-1,-1,0
1523616888705,-393216,75,-56,-1,-1,0
1523616888705,-393216,75,-56,-1,-1,0
1523616888705,-393216,75,-56,-1,-1,0
1523616888705,-393216,75,-56,-1,-1,0
1523616888705,-393216,75,-56,-1,-1,0
1523616888746,-393216,75,-56,-1,-1,0
1523616888746,-262144,75,-56,-1,-1,0
1523616888746,-131072,75,-56,-1,-1,0
1523616888746,-196608,75,-56,-1,-1,0
1523616888746,-262144,75,-56,-1,-1,0
1523616888799,-327680,75,-56,-1,-1,0
1523616888799,-458752,75,-56,-1,-1,0
1523616888799,-524288,75,-56,-1,-1,0
1523616888799,-589824,75,-56,-1,-1,0
1523616888799,-589824,75,-56,-1,-1,0
1523616888825,-589824,75,-56,-1,-1,0
1523616888825,-655360,75,-56,-1,-1,0
1523616888825,-720896,75,-56,-1,-1,0
1523616888825,-786432,75,-56,-1,-1,0
1523616888825,-720896,75,-56,-1,-1,0
1523616888866,-589824,75,-56,-1,-1,0
1523616888866,-655360,75,-56,-1,-1,0
1523616888866,-917504,75,-56,-1,-1,0
1523616888866,-393216,75,-56,-1,-1,0
1523616888866,2555904,75,-56,-1,-1,0
1523616888905,7929856,75,-56,-1,-1,0
1523616888905,12124160,75,-56,-1,-1,0
1523616888905,9764864,75,-56,-1,-1,0
1523616888905,2097152,75,-56,-1,-1,0
1523616888905,-3276800,75,-56,-1,-1,0
1523616888945,-3342336,75,-56,-1,-1,0
1523616888945,-1966080,75,-56,-1,-1,0
1523616888945,-1179648,75,-56,-1,-1,0
1523616888945,-786432,75,-56,-1,-1,0
1523616888945,-524288,75,-56,-1,-1,0
1523616888985,-393216,75,-56,-1,-1,0
1523616888985,-327680,75,-56,-1,-1,0
1523616888985,-262144,75,-56,-1,-1,0
1523616888985,-131072,75,-56,-1,-1,0
1523616888985,-131072,75,-56,-1,-1,0
1523616889030,-131072,75,-56,-1,-1,0
1523616889030,-131072,75,-56,-1,-1,0
1523616889030,0,75,-56,-1,-1,0
1523616889030,0,75,-56,-1,-1,0
1523616889030,131072,75,-56,-1,-1,0
1523616889065,131072,75,-56,-1,-1,0
1523616889065,327680,75,-56,-1,-1,0
1523616889065,524288,75,-56,-1,-1,0
1523616889065,786432,75,-56,-1,-1,0
1523616889065,983040,75,-56,-1,-1,0
1523616889107,1310720,75,-56,-1,-1,0
1523616889107,1507328,75,-56,-1,-1,0
1523616889107,1769472,75,-56,-1,-1,0
1523616889107,1900544,75,-56,-1,-1,0
1523616889107,2031616,75,-56,-1,-1,0
1523616889145,1900544,75,-56,-1,-1,0
1523616889145,1441792,75,-56,-1,-1,0
1523616889145,917504,75,-56,-1,-1,0
1523616889145,327680,75,-56,-1,-1,0
1523616889145,-65536,75,-56,-1,-1,0
1523616889185,-393216,75,-56,-1,-1,0
1523616889185,-589824,75,-56,-1,-1,0
1523616889185,-655360,75,-56,-1,-1,0
1523616889185,-720896,75,-56,-1,-1,0
1523616889185,-786432,75,-56,-1,-1,0
1523616889226,-786432,75,-56,-1,-1,0
1523616889226,-720896,75,-56,-1,-1,0
1523616889226,-720896,75,-56,-1,-1,0
1523616889226,-786432,75,-56,-1,-1,0
1523616889226,-786432,75,-56,-1,-1,0
1523616889265,-786432,75,-56,-1,-1,0
1523616889265,-720896,75,-56,-1,-1,0
1523616889265,-786432,75,-56,-1,-1,0
1523616889265,-786432,75,-56,-1,-1,0
1523616889265,-786432,75,-56,-1,-1,0
1523616889305,-786432,75,-56,-1,-1,0
1523616889305,-720896,75,-56,-1,-1,0
1523616889305,-720896,75,-56,-1,-1,0
1523616889305,-655360,75,-56,-1,-1,0
1523616889305,-655360,75,-56,-1,-1,0
1523616889345,-720896,75,-56,-1,-1,0
1523616889345,-786432,75,-56,-1,-1,0
1523616889345,-851968,75,-56,-1,-1,0
1523616889345,-851968,75,-56,-1,-1,0
1523616889345,-786432,75,-56,-1,-1,0
1523616889385,-786432,75,-56,-1,-1,0
1523616889385,-786432,75,-56,-1,-1,0
1523616889385,-786432,75,-56,-1,-1,0
1523616889385,-786432,75,-56,-1,-1,0
1523616889385,-720896,75,-56,-1,-1,0
1523616889437,-720896,75,-56,-1,-1,0
1523616889437,-720896,75,-56,-1,-1,0
1523616889437,-655360,75,-56,-1,-1,0
1523616889437,-589824,75,-56,-1,-1,0
1523616889437,-589824,75,-56,-1,-1,0
1523616889466,-655360,75,-56,-1,-1,0
1523616889466,-720896,75,-56,-1,-1,0
1523616889466,-786432,75,-56,-1,-1,0
1523616889466,-851968,75,-56,-1,-1,0
1523616889466,-917504,75,-56,-1,-1,0
1523616889505,-983040,75,-56,-1,-1,0
1523616889505,-917504,75,-56,-1,-1,0
1523616889505,-983040,75,-56,-1,-1,0
1523616889505,-983040,75,-56,-1,-1,0
1523616889505,-1048576,75,-56,-1,-1,0
1523616889545,-1048576,75,-56,-1,-1,0
1523616889545,-1048576,75,-56,-1,-1,0
1523616889545,-1048576,75,-56,-1,-1,0
1523616889545,-1179648,75,-56,-1,-1,0
1523616889545,-1179648,75,-56,-1,-1,0
1523616889585,131072,75,-56,-1,-1,0
1523616889585,4325376,75,-56,-1,-1,0
1523616889585,9895936,75,-56,-1,-1,0
1523616889585,11730944,75,-56,-1,-1,0
1523616889585,6160384,75,-56,-1,-1,0
1523616889626,-1310720,75,-56,-1,-1,0
1523616889626,-4259840,75,-56,-1,-1,0
1523616889626,-3014656,75,-56,-1,-1,0
1523616889626,-1835008,75,-56,-1,-1,0
1523616889626,-1245184,75,-56,-1,-1,0
1523616889666,-917504,75,-56,-1,-1,0
1523616889666,-786432,75,-56,-1,-1,0
1523616889666,-655360,75,-56,-1,-1,0
1523616889666,-589824,75,-56,-1,-1,0
1523616889666,-524288,75,-56,-1,-1,0
1523616889705,-524288,75,-56,-1,-1,0
1523616889705,-393216,75,-56,-1,-1,0
1523616889705,-327680,75,-56,-1,-1,0
1523616889705,-262144,75,-56,-1,-1,0
1523616889705,-196608,75,-56,-1,-1,0
1523616889745,-131072,75,-56,-1,-1,0
1523616889745,0,75,-56,-1,-1,0
1523616889745,65536,75,-56,-1,-1,0
1523616889745,262144,75,-56,-1,-1,0
1523616889745,393216,75,-56,-1,-1,0
1523616889785,655360,75,-56,-1,-1,0
1523616889785,917504,75,-56,-1,-1,0
1523616889785,1245184,75,-56,-1,-1,0
1523616889785,1507328,75,-56,-1,-1,0
1523616889785,1703936,75,-56,-1,-1,0
1523616889825,1900544,75,-56,-1,-1,0
1523616889825,1966080,75,-56,-1,-1,0
1523616889825,1703936,75,-56,-1,-1,0
1523616889825,1179648,75,-56,-1,-1,0
1523616889825,524288,75,-56,-1,-1,0
1523616889866,0,75,-56,-1,-1,0
1523616889866,-393216,75,-56,-1,-1,0
1523616889866,-655360,75,-56,-1,-1,0
1523616889866,-786432,75,-56,-1,-1,0
1523616889866,-851968,75,-56,-1,-1,0
1523616889906,-917504,75,-56,-1,-1,0
1523616889906,-917504,75,-56,-1,-1,0
1523616889906,-983040,75,-56,-1,-1,0
1523616889906,-917504,75,-56,-1,-1,0
1523616889906,-917504,75,-56,-1,-1,0
1523616889945,-851968,75,-56,-1,-1,0
1523616889945,-917504,75,-56,-1,-1,0
1523616889945,-851968,75,-56,-1,-1,0
1523616889945,-851968,75,-56,-1,-1,0
1523616889945,-851968,75,-56,-1,-1,0
1523616889985,-851968,75,-56,-1,-1,0
1523616889985,-786432,75,-56,-1,-1,0
1523616889985,-786432,75,-56,-1,-1,0
1523616889985,-786432,75,-56,-1,-1,0
1523616889985,-786432,75,-56,-1,-1,0
1523616890025,-786432,75,-56,-1,-1,0
1523616890025,-720896,75,-56,-1,-1,0
1523616890025,-720896,75,-56,-1,-1,0
1523616890025,-720896,75,-56,-1,-1,0
1523616890025,-720896,75,-56,-1,-1,0
1523616890077,-720896,75,-56,-1,-1,0
1523616890077,-786432,75,-56,-1,-1,0
1523616890077,-786432,75,-56,-1,-1,0
1523616890077,-786432,75,-56,-1,-1,0
1523616890077,-786432,75,-56,-1,-1,0
1523616890105,-786432,75,-56,-1,-1,0
1523616890105,-786432,75,-56,-1,-1,0
1523616890105,-786432,75,-56,-1,-1,0
1523616890105,-786432,75,-56,-1,-1,0
1523616890105,-720896,75,-56,-1,-1,0
1523616890145,-589824,75,-56,-1,-1,0
1523616890145,-589824,75,-56,-1,-1,0
1523616890145,-589824,75,-56,-1,-1,0
1523616890145,-655360,75,-56,-1,-1,0
1523616890145,-786432,75,-56,-1,-1,0
1523616890185,-851968,75,-56,-1,-1,0
1523616890185,-851968,75,-56,-1,-1,0
1523616890185,-851968,75,-56,-1,-1,0
1523616890185,-917504,75,-56,-1,-1,0
1523616890185,-983040,75,-56,-1,-1,0
1523616890225,-1048576,75,-56,-1,-1,0
1523616890225,-983040,75,-56,-1,-1,0
1523616890225,-917504,75,-56,-1,-1,0
1523616890225,-917504,75,-56,-1,-1,0
1523616890225,-983040,75,-56,-1,-1,0
1523616890265,-1114112,75,-56,-1,-1,0
1523616890265,-1114112,75,-56,-1,-1,0
1523616890265,327680,75,-56,-1,-1,0
1523616890265,4456448,75,-56,-1,-1,0
1523616890265,9699328,75,-56,-1,-1,0
1523616890305,10944512,75,-56,-1,-1,0
1523616890305,5242880,75,-56,-1,-1,0
1523616890305,-1769472,75,-56,-1,-1,0
1523616890305,-4194304,75,-56,-1,-1,0
1523616890305,-2883584,75,-56,-1,-1,0
1523616890345,-1835008,75,-56,-1,-1,0
1523616890345,-1245184,75,-56,-1,-1,0
1523616890345,-851968,75,-56,-1,-1,0
1523616890345,-720896,75,-56,-1,-1,0
1523616890345,-589824,75,-56,-1,-1,0
1523616890385,-524288,75,-56,-1,-1,0
1523616890385,-393216,75,-56,-1,-1,0
1523616890385,-393216,75,-56,-1,-1,0
1523616890385,-327680,75,-56,-1,-1,0
1523616890385,-262144,75,-56,-1,-1,0
1523616890425,-196608,75,-56,-1,-1,0
1523616890425,-131072,75,-56,-1,-1,0
1523616890425,-65536,75,-56,-1,-1,0
1523616890425,0,75,-56,-1,-1,0
1523616890425,65536,75,-56,-1,-1,0
1523616890465,196608,75,-56,-1,-1,0
1523616890465,393216,75,-56,-1,-1,0
1523616890465,655360,75,-56,-1,-1,0
1523616890465,983040,75,-56,-1,-1,0
1523616890465,1310720,75,-56,-1,-1,0
1523616890507,1507328,75,-56,-1,-1,0
1523616890507,1769472,75,-56,-1,-1,0
1523616890507,1835008,75,-56,-1,-1,0
1523616890507,1835008,75,-56,-1,-1,0
1523616890507,1572864,75,-56,-1,-1,0
1523616890545,1048576,75,-56,-1,-1,0
1523616890545,458752,75,-56,-1,-1,0
1523616890545,0,75,-56,-1,-1,0
1523616890545,-327680,75,-56,-1,-1,0
1523616890545,-589824,75,-56,-1,-1,0
1523616890585,-786432,75,-56,-1,-1,0
1523616890585,-917504,75,-56,-1,-1,0
1523616890585,-983040,75,-56,-1,-1,0
1523616890585,-983040,75,-56,-1,-1,0
1523616890585,-1048576,75,-56,-1,-1,0
1523616890625,-1048576,75,-56,-1,-1,0
1523616890625,-1048576,75,-56,-1,-1,0
1523616890625,-1048576,75,-56,-1,-1,0
1523616890625,-1048576,75,-56,-1,-1,0
1523616890625,-1048576,75,-56,-1,-1,0
1523616890665,-1048576,75,-56,-1,-1,0
1523616890665,-983040,75,-56,-1,-1,0
1523616890665,-983040,75,-56,-1,-1,0
1523616890665,-983040,75,-56,-1,-1,0
1523616890665,-917504,75,-56,-1,-1,0
1523616890718,-917504,75,-56,-1,-1,0
1523616890718,-917504,75,-56,-1,-1,0
1523616890718,-917504,75,-56,-1,-1,0
1523616890718,-851968,75,-56,-1,-1,0
1523616890718,-786432,75,-56,-1,-1,0
1523616890745,-851968,75,-56,-1,-1,0
1523616890745,-786432,75,-56,-1,-1,0
1523616890745,-786432,75,-56,-1,-1,0
1523616890745,-851968,75,-56,-1,-1,0
1523616890745,-851968,75,-56,-1,-1,0
1523616890785,-851968,75,-56,-1,-1,0
1523616890785,-786432,75,-56,-1,-1,0
1523616890785,-786432,75,-56,-1,-1,0
1523616890785,-720896,75,-56,-1,-1,0
1523616890785,-786432,75,-56,-1,-1,0
1523616890826,-720896,75,-56,-1,-1,0
1523616890826,-720896,75,-56,-1,-1,0
1523616890826,-655360,75,-56,-1,-1,0
1523616890826,-589824,75,-56,-1,-1,0
1523616890826,-458752,75,-56,-1,-1,0
1523616890865,-393216,75,-56,-1,-1,0
1523616890865,-458752,75,-56,-1,-1,0
1523616890865,-589824,75,-56,-1,-1,0
1523616890865,-589824,75,-56,-1,-1,0
1523616890865,-655360,75,-56,-1,-1,0
1523616890907,-720896,75,-56,-1,-1,0
1523616890907,-851968,75,-56,-1,-1,0
1523616890907,-851968,75,-56,-1,-1,0
1523616890907,-851968,75,-56,-1,-1,0
1523616890907,-851968,75,-56,-1,-1,0
1523616890945,-786432,75,-56,-1,-1,0
1523616890945,-786432,75,-56,-1,-1,0
1523616890945,-851968,75,-56,-1,-1,0
1523616890945,-786432,75,-56,-1,-1,0
1523616890945,-786432,75,-56,-1,-1,0
1523616890985,-983040,78,-56,-1,-1,0
1523616890985,-327680,78,-56,-1,-1,0
1523616890985,3080192,78,-56,-1,-1,0
1523616890985,8847360,78,-56,-1,-1,0
1523616890985,12582912,78,-56,-1,-1,0
1523616891026,9175040,78,-56,-1,-1,0
1523616891026,1245184,78,-56,-1,-1,0
1523616891026,-3604480,78,-56,-1,-1,0
1523616891026,-3211264,78,-56,-1,-1,0
1523616891026,-1966080,78,-56,-1,-1,0
1523616891065,-1179648,78,-56,-1,-1,0
1523616891065,-655360,78,-56,-1,-1,0
1523616891065,-393216,78,-56,-1,-1,0
1523616891065,-262144,78,-56,-1,-1,0
1523616891065,-196608,78,-56,-1,-1,0
1523616891105,-131072,78,-56,-1,-1,0
1523616891105,0,78,-56,-1,-1,0
1523616891105,0,78,-56,-1,-1,0
1523616891105,65536,78,-56,-1,-1,0
1523616891105,131072,78,-56,-1,-1,0
1523616891145,262144,78,-56,-1,-1,0
1523616891145,393216,78,-56,-1,-1,0
1523616891145,458752,78,-56,-1,-1,0
1523616891145,524288,78,-56,-1,-1,0
1523616891145,655360,78,-56,-1,-1,0
1523616891185,917504,78,-56,-1,-1,0
1523616891185,1179648,78,-56,-1,-1,0
1523616891185,1376256,78,-56,-1,-1,0
1523616891185,1703936,78,-56,-1,-1,0
1523616891185,2031616,78,-56,-1,-1,0
1523616891225,2228224,78,-56,-1,-1,0
1523616891225,2359296,78,-56,-1,-1,0
1523616891225,2424832,78,-56,-1,-1,0
1523616891225,2293760,78,-56,-1,-1,0
1523616891225,1835008,78,-56,-1,-1,0
1523616891265,1245184,78,-56,-1,-1,0
1523616891265,720896,78,-56,-1,-1,0
1523616891265,327680,78,-56,-1,-1,0
1523616891265,0,78,-56,-1,-1,0
1523616891265,-131072,78,-56,-1,-1,0
1523616891305,-196608,78,-56,-1,-1,0
1523616891305,-327680,78,-56,-1,-1,0
1523616891305,-393216,78,-56,-1,-1,0
1523616891305,-327680,78,-56,-1,-1,0
1523616891305,-393216,78,-56,-1,-1,0
1523616891357,-393216,78,-56,-1,-1,0
1523616891357,-327680,78,-56,-1,-1,0
1523616891357,-327680,78,-56,-1,-1,0
1523616891357,-262144,78,-56,-1,-1,0
1523616891357,-262144,78,-56,-1,-1,0
1523616891385,-262144,78,-56,-1,-1,0
1523616891385,-262144,78,-56,-1,-1,0
1523616891385,-262144,78,-56,-1,-1,0
1523616891385,-327680,78,-56,-1,-1,0
1523616891385,-327680,78,-56,-1,-1,0
1523616891425,-262144,78,-56,-1,-1,0
1523616891425,-262144,78,-56,-1,-1,0
1523616891425,-262144,78,-56,-1,-1,0
1523616891425,-262144,78,-56,-1,-1,0
1523616891425,-327680,78,-56,-1,-1,0
1523616891465,-262144,78,-56,-1,-1,0
1523616891465,-196608,78,-56,-1,-1,0
1523616891465,-262144,78,-56,-1,-1,0
1523616891465,-262144,78,-56,-1,-1,0
1523616891465,-262144,78,-56,-1,-1,0
1523616891505,-327680,78,-56,-1,-1,0
1523616891505,-327680,78,-56,-1,-1,0
1523616891505,-393216,78,-56,-1,-1,0
1523616891505,-327680,78,-56,-1,-1,0
1523616891505,-262144,78,-56,-1,-1,0
1523616891545,-262144,78,-56,-1,-1,0
1523616891545,-196608,78,-56,-1,-1,0
1523616891545,-131072,78,-56,-1,-1,0
1523616891545,0,78,-56,-1,-1,0
1523616891545,0,78,-56,-1,-1,0
1523616891585,-65536,78,-56,-1,-1,0
1523616891585,-196608,78,-56,-1,-1,0
1523616891585,-327680,78,-56,-1,-1,0
1523616891585,-327680,78,-56,-1,-1,0
1523616891585,-458752,78,-56,-1,-1,0
1523616891625,-524288,78,-56,-1,-1,0
1523616891625,-524288,78,-56,-1,-1,0
1523616891625,-524288,78,-56,-1,-1,0
1523616891625,-589824,78,-56,-1,-1,0
1523616891625,-589824,78,-56,-1,-1,0
1523616891665,-589824,78,-56,-1,-1,0
1523616891665,-655360,78,-56,-1,-1,0
1523616891665,-655360,78,-56,-1,-1,0
1523616891665,-851968,78,-56,-1,-1,0
1523616891665,-851968,78,-56,-1,-1,0
1523616891705,851968,80,-56,-1,-1,0
1523616891705,5636096,80,-56,-1,-1,0
1523616891705,11665408,80,-56,-1,-1,0
1523616891705,12910592,80,-56,-1,-1,0
1523616891705,6291456,80,-56,-1,-1,0
1523616891746,-1507328,80,-56,-1,-1,0
1523616891746,-4194304,80,-56,-1,-1,0
1523616891746,-2949120,80,-56,-1,-1,0
1523616891746,-1835008,80,-56,-1,-1,0
1523616891746,-1179648,80,-56,-1,-1,0
1523616891785,-720896,80,-56,-1,-1,0
1523616891785,-589824,80,-56,-1,-1,0
1523616891785,-393216,80,-56,-1,-1,0
1523616891785,-327680,80,-56,-1,-1,0
1523616891785,-327680,80,-56,-1,-1,0
1523616891828,-262144,80,-56,-1,-1,0
1523616891828,-196608,80,-56,-1,-1,0
1523616891828,-131072,80,-56,-1,-1,0
1523616891828,-65536,80,-56,-1,-1,0
1523616891828,0,80,-56,-1,-1,0
1523616891865,0,80,-56,-1,-1,0
1523616891865,131072,80,-56,-1,-1,0
1523616891865,262144,80,-56,-1,-1,0
1523616891865,458752,80,-56,-1,-1,0
1523616891865,720896,80,-56,-1,-1,0
1523616891905,983040,80,-56,-1,-1,0
1523616891905,1310720,80,-56,-1,-1,0
1523616891905,1572864,80,-56,-1,-1,0
1523616891905,1835008,80,-56,-1,-1,0
1523616891905,2097152,80,-56,-1,-1,0
1523616891945,2162688,80,-56,-1,-1,0
1523616891945,2097152,80,-56,-1,-1,0
1523616891945,1703936,80,-56,-1,-1,0
1523616891945,1245184,80,-56,-1,-1,0
1523616891945,589824,80,-56,-1,-1,0
1523616891997,65536,80,-56,-1,-1,0
1523616891997,-262144,80,-56,-1,-1,0
1523616891997,-458752,80,-56,-1,-1,0
1523616891997,-524288,80,-56,-1,-1,0
1523616891997,-655360,80,-56,-1,-1,0
1523616892025,-720896,80,-56,-1,-1,0
1523616892025,-720896,80,-56,-1,-1,0
1523616892025,-786432,80,-56,-1,-1,0
1523616892025,-786432,80,-56,-1,-1,0
1523616892025,-786432,80,-56,-1,-1,0
1523616892065,-786432,80,-56,-1,-1,0
1523616892065,-851968,80,-56,-1,-1,0
1523616892065,-786432,80,-56,-1,-1,0
1523616892065,-786432,80,-56,-1,-1,0
1523616892065,-720896,80,-56,-1,-1,0
1523616892105,-655360,80,-56,-1,-1,0
1523616892105,-655360,80,-56,-1,-1,0
1523616892105,-589824,80,-56,-1,-1,0
1523616892105,-589824,80,-56,-1,-1,0
1523616892105,-524288,80,-56,-1,-1,0
1523616892145,-524288,80,-56,-1,-1,0
1523616892145,-589824,80,-56,-1,-1,0
1523616892145,-589824,80,-56,-1,-1,0
1523616892145,-589824,80,-56,-1,-1,0
1523616892145,-589824,80,-56,-1,-1,0
1523616892185,-589824,80,-56,-1,-1,0
1523616892185,-655360,80,-56,-1,-1,0
1523616892185,-720896,80,-56,-1,-1,0
1523616892185,-720896,80,-56,-1,-1,0
1523616892185,-720896,80,-56,-1,-1,0
1523616892225,-720896,80,-56,-1,-1,0
1523616892225,-720896,80,-56,-1,-1,0
1523616892225,-720896,80,-56,-1,-1,0
1523616892225,-720896,80,-56,-1,-1,0
1523616892225,-655360,80,-56,-1,-1,0
1523616892265,-524288,80,-56,-1,-1,0
1523616892265,-393216,80,-56,-1,-1,0
1523616892265,-458752,80,-56,-1,-1,0
1523616892265,-589824,80,-56,-1,-1,0
1523616892265,-589824,80,-56,-1,-1,0
1523616892305,-655360,80,-56,-1,-1,0
1523616892305,-720896,80,-56,-1,-1,0
1523616892305,-851968,80,-56,-1,-1,0
1523616892305,-851968,80,-56,-1,-1,0
1523616892305,-851968,80,-56,-1,-1,0
1523616892345,-851968,80,-56,-1,-1,0
1523616892345,-917504,80,-56,-1,-1,0
1523616892345,-917504,80,-56,-1,-1,0
1523616892345,-917504,80,-56,-1,-1,0
1523616892345,-917504,80,-56,-1,-1,0
1523616892385,-917504,80,-56,-1,-1,0
1523616892385,-1048576,80,-56,-1,-1,0
1523616892385,-917504,80,-56,-1,-1,0
1523616892385,1245184,80,-56,-1,-1,0
1523616892385,6684672,80,-56,-1,-1,0
1523616892425,12648448,82,-56,-1,-1,0
1523616892425,12845056,82,-56,-1,-1,0
1523616892425,5373952,82,-56,-1,-1,0
1523616892425,-2031616,82,-56,-1,-1,0
