milliseconds, ECG, ECG HR, PPG, PPG HR, SpO2, PI
0,589824,85,-56,-1,-1,0
33,524288,85,-56,-1,-1,0
66,524288,85,-56,-1,-1,0
100,262144,85,-56,-1,-1,0
133,393216,85,-56,-1,-1,0
166,655360,85,-56,-1,-1,0
200,262144,85,-56,-1,-1,0
233,-4784128,85,-56,-1,-1,0
266,786432,85,-56,-1,-1,0
300,131072,85,-56,-1,-1,0
333,-458752,85,-56,-1,-1,0
366,-1376256,85,-56,-1,-1,0
400,-2752512,85,-56,-1,-1,0
433,-983040,85,-56,-1,-1,0
466,262144,85,-56,-1,-1,0
500,262144,85,-56,-1,-1,0
533,458752,85,-56,-1,-1,0
566,524288,85,-56,-1,-1,0
600,327680,85,-56,-1,-1,0
633,327680,85,-56,-1,-1,0
666,327680,85,-56,-1,-1,0
700,327680,85,-56,-1,-1,0
733,655360,85,-56,-1,-1,0
766,720896,85,-56,-1,-1,0
800,-7733248,86,-56,-1,-1,0
833,1572864,86,-56,-1,-1,0
866,524288,86,-56,-1,-1,0
900,0,86,-56,-1,-1,0
933,-720896,86,-56,-1,-1,0
966,-2228224,86,-56,-1,-1,0
1000,-1245184,86,-56,-1,-1,0
1033,65536,86,-56,-1,-1,0
1066,458752,86,-56,-1,-1,0
1100,458752,86,-56,-1,-1,0
1133,524288,86,-56,-1,-1,0
1166,524288,86,-56,-1,-1,0
1200,458752,86,-56,-1,-1,0
1233,589824,86,-56,-1,-1,0
1266,458752,86,-56,-1,-1,0
1300,327680,86,-56,-1,-1,0
1333,851968,86,-56,-1,-1,0
1366,786432,86,-56,-1,-1,0
1400,-8060928,86,-56,-1,-1,0
1433,1638400,86,-56,-1,-1,0
1466,524288,86,-56,-1,-1,0
1500,65536,86,-56,-1,-1,0
1533,-458752,86,-56,-1,-1,0
1566,-2228224,86,-56,-1,-1,0
1600,-1048576,86,-56,-1,-1,0
1633,720896,86,-56,-1,-1,0
1666,851968,86,-56,-1,-1,0
1700,1179648,86,-56,-1,-1,0
1733,1048576,86,-56,-1,-1,0
1766,1048576,86,-56,-1,-1,0
1800,1048576,86,-56,-1,-1,0
1833,655360,86,-56,-1,-1,0
1866,458752,86,-56,-1,-1,0
1900,655360,86,-56,-1,-1,0
1933,786432,86,-56,-1,-1,0
1966,917504,86,-56,-1,-1,0
2000,-8126464,86,-56,-1,-1,0
2033,786432,86,-56,-1,-1,0
2066,-131072,86,-56,-1,-1,0
2100,-65536,86,-56,-1,-1,0
2133,-1572864,86,-56,-1,-1,0
2166,-3014656,86,-56,-1,-1,0
2200,-1441792,86,-56,-1,-1,0
2233,65536,86,-56,-1,-1,0
2266,524288,86,-56,-1,-1,0
2300,327680,86,-56,-1,-1,0
2333,1376256,86,-56,-1,-1,0
2366,589824,86,-56,-1,-1,0
2400,917504,86,-56,-1,-1,0
2433,655360,86,-56,-1,-1,0
2466,589824,86,-56,-1,-1,0
2500,917504,86,-56,-1,-1,0
2533,262144,86,-56,-1,-1,0
2566,-4128768,86,-56,-1,-1,0
2600,983040,86,-56,-1,-1,0
2633,589824,86,-56,-1,-1,0
2666,-720896,86,-56,-1,-1,0
2700,-1835008,86,-56,-1,-1,0
2733,-3538944,86,-56,-1,-1,0
2766,-1703936,86,-56,-1,-1,0
2800,458752,86,-56,-1,-1,0
2833,458752,86,-56,-1,-1,0
2866,524288,86,-56,-1,-1,0
2900,393216,86,-56,-1,-1,0
2933,327680,86,-56,-1,-1,0
2966,131072,86,-56,-1,-1,0
3000,196608,86,-56,-1,-1,0
3033,524288,86,-56,-1,-1,0
3066,655360,86,-56,-1,-1,0
3100,-1310720,86,-56,-1,-1,0
3133,2424832,86,-56,-1,-1,0
3166,720896,86,-56,-1,-1,0
3200,131072,86,-56,-1,-1,0
3233,-393216,86,-56,-1,-1,0
3266,-2031616,86,-56,-1,-1,0
3300,-2228224,86,-56,-1,-1,0
3333,0,86,-56,-1,-1,0
3366,851968,86,-56,-1,-1,0
3400,1114112,86,-56,-1,-1,0
3433,1376256,86,-56,-1,-1,0
3466,851968,86,-56,-1,-1,0
3500,1114112,86,-56,-1,-1,0
3533,655360,86,-56,-1,-1,0
3566,851968,86,-56,-1,-1,0
3600,786432,86,-56,-1,-1,0
3633,917504,86,-56,-1,-1,0
3666,-7143424,86,-56,-1,-1,0
3699,1769472,86,-56,-1,-1,0
3733,655360,86,-56,-1,-1,0
3766,131072,86,-56,-1,-1,0
3800,-851968,86,-56,-1,-1,0
3833,-2621440,86,-56,-1,-1,0
3866,-917504,86,-56,-1,-1,0
3900,65536,86,-56,-1,-1,0
3933,655360,86,-56,-1,-1,0
3966,655360,86,-56,-1,-1,0
4000,655360,86,-56,-1,-1,0
4033,720896,86,-56,-1,-1,0
4066,524288,86,-56,-1,-1,0
4100,131072,86,-56,-1,-1,0
4133,720896,86,-56,-1,-1,0
4166,786432,86,-56,-1,-1,0
4200,-5505024,86,-56,-1,-1,0
4233,2293760,86,-56,-1,-1,0
4266,589824,86,-56,-1,-1,0
4300,0,86,-56,-1,-1,0
4333,-786432,86,-56,-1,-1,0
4366,-2424832,86,-56,-1,-1,0
4400,-1835008,86,-56,-1,-1,0
4433,65536,86,-56,-1,-1,0
4466,458752,86,-56,-1,-1,0
4500,655360,86,-56,-1,-1,0
4533,720896,86,-56,-1,-1,0
4566,589824,86,-56,-1,-1,0
4600,655360,86,-56,-1,-1,0
4633,393216,86,-56,-1,-1,0
4666,917504,86,-56,-1,-1,0
4700,1048576,87,-56,-1,-1,0
4733,851968,87,-56,-1,-1,0
4766,-2818048,87,-56,-1,-1,0
4800,1245184,87,-56,-1,-1,0
4833,458752,87,-56,-1,-1,0
4866,196608,87,-56,-1,-1,0
4900,-851968,87,-56,-1,-1,0
4933,-1966080,87,-56,-1,-1,0
4966,0,87,-56,-1,-1,0
5000,983040,87,-56,-1,-1,0
5033,1310720,87,-56,-1,-1,0
5066,1441792,87,-56,-1,-1,0
5100,1376256,87,-56,-1,-1,0
5133,1310720,87,-56,-1,-1,0
5166,1376256,87,-56,-1,-1,0
5200,1114112,87,-56,-1,-1,0
5233,1507328,87,-56,-1,-1,0
5266,1245184,87,-56,-1,-1,0
5300,1376256,87,-56,-1,-1,0
5333,-3473408,87,-56,-1,-1,0
5366,1572864,87,-56,-1,-1,0
5400,786432,87,-56,-1,-1,0
5433,262144,87,-56,-1,-1,0
5466,-1048576,87,-56,-1,-1,0
5500,-2162688,87,-56,-1,-1,0
5533,-524288,87,-56,-1,-1,0
5566,524288,87,-56,-1,-1,0
5600,393216,87,-56,-1,-1,0
5633,327680,87,-56,-1,-1,0
5666,262144,87,-56,-1,-1,0
5700,262144,87,-56,-1,-1,0
5733,262144,87,-56,-1,-1,0
5766,262144,87,-56,-1,-1,0
5800,-65536,87,-56,-1,-1,0
5833,327680,87,-56,-1,-1,0
5866,393216,87,-56,-1,-1,0
5900,-4390912,87,-56,-1,-1,0
5933,2097152,87,-56,-1,-1,0
5966,327680,87,-56,-1,-1,0
6000,-65536,87,-56,-1,-1,0
6033,-720896,87,-56,-1,-1,0
6066,-2162688,87,-56,-1,-1,0
6100,-2031616,87,-56,-1,-1,0
6133,-262144,87,-56,-1,-1,0
6166,196608,87,-56,-1,-1,0
6200,262144,87,-56,-1,-1,0
6233,262144,87,-56,-1,-1,0
6266,393216,87,-56,-1,-1,0
6300,196608,87,-56,-1,-1,0
6333,327680,87,-56,-1,-1,0
6366,196608,87,-56,-1,-1,0
6400,262144,87,-56,-1,-1,0
6433,327680,87,-56,-1,-1,0
6466,458752,87,-56,-1,-1,0
6500,-7995392,87,-56,-1,-1,0
6533,983040,87,-56,-1,-1,0
6566,196608,87,-56,-1,-1,0
6600,-196608,87,-56,-1,-1,0
6633,-1245184,87,-56,-1,-1,0
6666,-2818048,87,-56,-1,-1,0
6700,-1507328,87,-56,-1,-1,0
6733,262144,87,-56,-1,-1,0
6766,524288,87,-56,-1,-1,0
6800,720896,87,-56,-1,-1,0
6833,851968,87,-56,-1,-1,0
6866,524288,87,-56,-1,-1,0
6899,589824,87,-56,-1,-1,0
6933,262144,87,-56,-1,-1,0
6966,655360,87,-56,-1,-1,0
7000,720896,88,-56,-1,-1,0
7033,131072,88,-56,-1,-1,0
7066,0,88,-56,-1,-1,0
7100,720896,88,-56,-1,-1,0
7133,327680,88,-56,-1,-1,0
7166,-65536,88,-56,-1,-1,0
7200,-1507328,88,-56,-1,-1,0
7233,-1966080,88,-56,-1,-1,0
7266,-196608,88,-56,-1,-1,0
7300,720896,88,-56,-1,-1,0
7333,851968,88,-56,-1,-1,0
7366,851968,88,-56,-1,-1,0
7399,786432,88,-56,-1,-1,0
7433,589824,88,-56,-1,-1,0
7466,786432,88,-56,-1,-1,0
7500,524288,88,-56,-1,-1,0
7533,786432,88,-56,-1,-1,0
7566,983040,88,-56,-1,-1,0
7600,-458752,88,-56,-1,-1,0
7633,1572864,88,-56,-1,-1,0
7666,983040,88,-56,-1,-1,0
7700,524288,88,-56,-1,-1,0
7733,-65536,88,-56,-1,-1,0
7766,-1441792,88,-56,-1,-1,0
7800,-1900544,88,-56,-1,-1,0
7833,65536,88,-56,-1,-1,0
7866,720896,88,-56,-1,-1,0
7899,917504,88,-56,-1,-1,0
7933,983040,88,-56,-1,-1,0
7966,720896,88,-56,-1,-1,0
8000,720896,88,-56,-1,-1,0
8033,917504,88,-56,-1,-1,0
8066,458752,88,-56,-1,-1,0
8100,786432,88,-56,-1,-1,0
8133,917504,88,-56,-1,-1,0
8166,-917504,88,-56,-1,-1,0
8200,1441792,88,-56,-1,-1,0
8233,851968,88,-56,-1,-1,0
8266,327680,88,-56,-1,-1,0
8300,-327680,88,-56,-1,-1,0
8333,-1638400,88,-56,-1,-1,0
8366,-2031616,88,-56,-1,-1,0
8400,-65536,88,-56,-1,-1,0
8433,655360,88,-56,-1,-1,0
8466,851968,88,-56,-1,-1,0
8500,851968,88,-56,-1,-1,0
8533,786432,88,-56,-1,-1,0
8566,589824,88,-56,-1,-1,0
8600,786432,88,-56,-1,-1,0
8633,589824,88,-56,-1,-1,0
8666,458752,88,-56,-1,-1,0
8700,720896,88,-56,-1,-1,0
8733,720896,88,-56,-1,-1,0
8766,-6815744,88,-56,-1,-1,0
8800,1835008,88,-56,-1,-1,0
8833,524288,88,-56,-1,-1,0
8866,65536,88,-56,-1,-1,0
8900,-720896,88,-56,-1,-1,0
8933,-2293760,88,-56,-1,-1,0
8966,-1966080,88,-56,-1,-1,0
9000,-131072,88,-56,-1,-1,0
9033,393216,88,-56,-1,-1,0
9066,327680,88,-56,-1,-1,0
9100,524288,88,-56,-1,-1,0
9133,393216,88,-56,-1,-1,0
9166,524288,88,-56,-1,-1,0
9200,589824,88,-56,-1,-1,0
9233,655360,88,-56,-1,-1,0
9266,589824,88,-56,-1,-1,0
9300,720896,88,-56,-1,-1,0
9333,786432,88,-56,-1,-1,0
9366,-6881280,88,-56,-1,-1,0
9400,1966080,88,-56,-1,-1,0
9433,327680,88,-56,-1,-1,0
9466,0,88,-56,-1,-1,0
9500,-1245184,88,-56,-1,-1,0
9533,-2818048,88,-56,-1,-1,0
9566,-1900544,88,-56,-1,-1,0
9600,0,88,-56,-1,-1,0
9633,393216,88,-56,-1,-1,0
9666,589824,88,-56,-1,-1,0
9700,589824,88,-56,-1,-1,0
9733,393216,88,-56,-1,-1,0
9766,524288,88,-56,-1,-1,0
9800,458752,88,-56,-1,-1,0
9833,196608,88,-56,-1,-1,0
9866,524288,88,-56,-1,-1,0
9900,589824,88,-56,-1,-1,0
9933,-3866624,88,-56,-1,-1,0
9966,2097152,88,-56,-1,-1,0
10000,327680,88,-56,-1,-1,0
10033,0,88,-56,-1,-1,0
10066,-655360,88,-56,-1,-1,0
10100,-2031616,88,-56,-1,-1,0
10133,-1900544,88,-56,-1,-1,0
10166,0,88,-56,-1,-1,0
10200,393216,88,-56,-1,-1,0
10233,655360,88,-56,-1,-1,0
10266,720896,88,-56,-1,-1,0
10300,458752,88,-56,-1,-1,0
10333,458752,88,-56,-1,-1,0
10366,589824,88,-56,-1,-1,0
10400,458752,88,-56,-1,-1,0
10433,589824,88,-56,-1,-1,0
10466,655360,88,-56,-1,-1,0
10500,655360,88,-56,-1,-1,0
10533,-5832704,88,-56,-1,-1,0
10566,1048576,88,-56,-1,-1,0
10600,262144,88,-56,-1,-1,0
10633,0,88,-56,-1,-1,0
10666,-983040,88,-56,-1,-1,0
10700,-2228224,88,-56,-1,-1,0
10733,-851968,88,-56,-1,-1,0
10766,458752,88,-56,-1,-1,0
10800,589824,88,-56,-1,-1,0
10833,720896,88,-56,-1,-1,0
10866,851968,88,-56,-1,-1,0
10900,458752,88,-56,-1,-1,0
10933,589824,88,-56,-1,-1,0
10966,720896,88,-56,-1,-1,0
11000,720896,88,-56,-1,-1,0
11033,589824,88,-56,-1,-1,0
11066,786432,88,-56,-1,-1,0
11100,851968,88,-56,-1,-1,0
11133,-7208960,88,-56,-1,-1,0
11166,1703936,87,-56,-1,-1,0
11200,524288,87,-56,-1,-1,0
11233,131072,87,-56,-1,-1,0
11266,-589824,87,-56,-1,-1,0
11300,-1966080,87,-56,-1,-1,0
11333,-1376256,87,-56,-1,-1,0
11366,458752,87,-56,-1,-1,0
11400,720896,87,-56,-1,-1,0
11433,851968,87,-56,-1,-1,0
11466,786432,87,-56,-1,-1,0
11500,720896,87,-56,-1,-1,0
11533,655360,87,-56,-1,-1,0
11566,589824,87,-56,-1,-1,0
11600,720896,87,-56,-1,-1,0
11633,720896,87,-56,-1,-1,0
11666,524288,87,-56,-1,-1,0
11700,786432,87,-56,-1,-1,0
11733,655360,87,-56,-1,-1,0
11766,-7733248,86,-56,-1,-1,0
11800,1703936,86,-56,-1,-1,0
11833,458752,86,-56,-1,-1,0
11866,-65536,86,-56,-1,-1,0
11900,-786432,86,-56,-1,-1,0
11933,-2490368,86,-56,-1,-1,0
11966,-1572864,86,-56,-1,-1,0
12000,196608,86,-56,-1,-1,0
12033,524288,86,-56,-1,-1,0
12066,655360,86,-56,-1,-1,0
12100,720896,86,-56,-1,-1,0
12133,524288,86,-56,-1,-1,0
12166,524288,86,-56,-1,-1,0
12200,589824,86,-56,-1,-1,0
12233,720896,86,-56,-1,-1,0
12266,393216,86,-56,-1,-1,0
12300,655360,86,-56,-1,-1,0
12333,720896,86,-56,-1,-1,0
12366,65536,86,-56,-1,-1,0
12400,-851968,86,-56,-1,-1,0
12433,786432,86,-56,-1,-1,0
12466,262144,86,-56,-1,-1,0
12500,-131072,86,-56,-1,-1,0
12533,-1441792,86,-56,-1,-1,0
12566,-2359296,86,-56,-1,-1,0
12600,-393216,86,-56,-1,-1,0
12633,589824,86,-56,-1,-1,0
12666,655360,86,-56,-1,-1,0
12700,917504,86,-56,-1,-1,0
12733,720896,86,-56,-1,-1,0
12766,524288,86,-56,-1,-1,0
12800,589824,86,-56,-1,-1,0
12833,786432,86,-56,-1,-1,0
12866,851968,86,-56,-1,-1,0
12900,589824,86,-56,-1,-1,0
12933,786432,86,-56,-1,-1,0
12966,983040,86,-56,-1,-1,0
13000,-1900544,85,-56,-1,-1,0
13033,2686976,85,-56,-1,-1,0
13066,720896,85,-56,-1,-1,0
13100,327680,85,-56,-1,-1,0
13133,-393216,85,-56,-1,-1,0
13166,-2097152,85,-56,-1,-1,0
13200,-2490368,85,-56,-1,-1,0
13233,-131072,85,-56,-1,-1,0
13266,524288,85,-56,-1,-1,0
13299,655360,85,-56,-1,-1,0
13333,786432,85,-56,-1,-1,0
13366,458752,85,-56,-1,-1,0
13400,458752,85,-56,-1,-1,0
13433,524288,85,-56,-1,-1,0
13466,196608,85,-56,-1,-1,0
13500,458752,85,-56,-1,-1,0
13533,720896,85,-56,-1,-1,0
13566,655360,85,-56,-1,-1,0
13600,-4521984,85,-56,-1,-1,0
13633,1048576,85,-56,-1,-1,0
13666,327680,85,-56,-1,-1,0
13700,-458752,85,-56,-1,-1,0
13733,-1507328,85,-56,-1,-1,0
13766,-2883584,85,-56,-1,-1,0
13799,-1179648,85,-56,-1,-1,0
13833,327680,85,-56,-1,-1,0
13866,393216,85,-56,-1,-1,0
13900,589824,85,-56,-1,-1,0
13933,262144,85,-56,-1,-1,0
13966,458752,85,-56,-1,-1,0
14000,524288,85,-56,-1,-1,0
14033,786432,85,-56,-1,-1,0
14066,327680,85,-56,-1,-1,0
14100,655360,85,-56,-1,-1,0
14133,720896,85,-56,-1,-1,0
14166,-458752,85,-56,-1,-1,0
14200,2424832,85,-56,-1,-1,0
14233,655360,85,-56,-1,-1,0
14266,0,85,-56,-1,-1,0
14299,-393216,85,-56,-1,-1,0
14333,-2228224,85,-56,-1,-1,0
14366,-2555904,85,-56,-1,-1,0
14400,-458752,85,-56,-1,-1,0
14433,589824,85,-56,-1,-1,0
14466,655360,85,-56,-1,-1,0
14500,983040,85,-56,-1,-1,0
14533,851968,85,-56,-1,-1,0
14566,720896,85,-56,-1,-1,0
14600,983040,85,-56,-1,-1,0
14633,327680,85,-56,-1,-1,0
14666,786432,85,-56,-1,-1,0
14700,720896,85,-56,-1,-1,0
14733,-1441792,85,-56,-1,-1,0
14766,2162688,85,-56,-1,-1,0
14799,131072,85,-56,-1,-1,0
14833,-262144,85,-56,-1,-1,0
14866,-1245184,85,-56,-1,-1,0
14900,-2818048,85,-56,-1,-1,0
14933,-3145728,85,-56,-1,-1,0
14966,-720896,85,-56,-1,-1,0
15000,0,85,-56,-1,-1,0
15033,262144,85,-56,-1,-1,0
15066,0,85,-56,-1,-1,0
15100,0,85,-56,-1,-1,0
15133,-262144,85,-56,-1,-1,0
15166,0,85,-56,-1,-1,0
15200,-262144,85,-56,-1,-1,0
15233,393216,85,-56,-1,-1,0
15266,0,85,-56,-1,-1,0
15299,458752,85,-56,-1,-1,0
15333,-720896,85,-56,-1,-1,0
15366,917504,85,-56,-1,-1,0
15400,1114112,85,-56,-1,-1,0
15433,524288,85,-56,-1,-1,0
15466,-458752,85,-56,-1,-1,0
15500,-1572864,85,-56,-1,-1,0
15533,131072,85,-56,-1,-1,0
15566,1114112,85,-56,-1,-1,0
15600,1376256,85,-56,-1,-1,0
15633,1048576,85,-56,-1,-1,0
15666,1179648,85,-56,-1,-1,0
15700,917504,85,-56,-1,-1,0
15733,851968,85,-56,-1,-1,0
15766,786432,85,-56,-1,-1,0
15799,720896,85,-56,-1,-1,0
15833,720896,85,-56,-1,-1,0
15866,655360,85,-56,-1,-1,0
15900,-4849664,85,-56,-1,-1,0
15933,1966080,85,-56,-1,-1,0
15966,458752,85,-56,-1,-1,0
16000,393216,85,-56,-1,-1,0
16033,-458752,85,-56,-1,-1,0
16066,-1835008,85,-56,-1,-1,0
16100,-1507328,85,-56,-1,-1,0
16133,393216,85,-56,-1,-1,0
16166,851968,85,-56,-1,-1,0
16200,917504,85,-56,-1,-1,0
16233,851968,85,-56,-1,-1,0
16266,983040,85,-56,-1,-1,0
16300,851968,85,-56,-1,-1,0
16333,786432,85,-56,-1,-1,0
16366,851968,85,-56,-1,-1,0
16400,524288,85,-56,-1,-1,0
16433,655360,85,-56,-1,-1,0
16466,786432,85,-56,-1,-1,0
16500,458752,85,-56,-1,-1,0
16533,-2490368,84,-56,-1,-1,0
16566,720896,84,-56,-1,-1,0
16600,131072,84,-56,-1,-1,0
16633,-262144,84,-56,-1,-1,0
16666,-1572864,84,-56,-1,-1,0
16700,-2752512,84,-56,-1,-1,0
16733,-1179648,84,-56,-1,-1,0
16766,196608,84,-56,-1,-1,0
16800,131072,84,-56,-1,-1,0
16833,262144,84,-56,-1,-1,0
16866,393216,84,-56,-1,-1,0
16900,196608,84,-56,-1,-1,0
16933,196608,84,-56,-1,-1,0
16966,458752,84,-56,-1,-1,0
17000,524288,84,-56,-1,-1,0
17033,393216,84,-56,-1,-1,0
17066,589824,84,-56,-1,-1,0
17100,655360,84,-56,-1,-1,0
17133,458752,84,-56,-1,-1,0
17166,-3997696,84,-56,-1,-1,0
17200,851968,84,-56,-1,-1,0
17233,65536,84,-56,-1,-1,0
17266,-262144,84,-56,-1,-1,0
17300,-1310720,84,-56,-1,-1,0
17333,-2490368,84,-56,-1,-1,0
17366,-1114112,84,-56,-1,-1,0
17400,262144,84,-56,-1,-1,0
17433,393216,84,-56,-1,-1,0
17466,393216,84,-56,-1,-1,0
17500,524288,84,-56,-1,-1,0
17533,458752,84,-56,-1,-1,0
17566,393216,84,-56,-1,-1,0
17600,393216,84,-56,-1,-1,0
17633,524288,84,-56,-1,-1,0
17666,327680,84,-56,-1,-1,0
17700,262144,84,-56,-1,-1,0
17733,458752,84,-56,-1,-1,0
17766,524288,84,-56,-1,-1,0
17800,-917504,84,-56,-1,-1,0
17833,1114112,84,-56,-1,-1,0
17866,589824,83,-56,-1,-1,0
17900,131072,83,-56,-1,-1,0
17933,-393216,83,-56,-1,-1,0
17966,-1507328,83,-56,-1,-1,0
18000,-2555904,83,-56,-1,-1,0
18033,-458752,83,-56,-1,-1,0
18066,458752,83,-56,-1,-1,0
18100,524288,83,-56,-1,-1,0
18133,524288,83,-56,-1,-1,0
18166,589824,83,-56,-1,-1,0
18200,589824,83,-56,-1,-1,0
18233,655360,83,-56,-1,-1,0
18266,655360,83,-56,-1,-1,0
18300,720896,83,-56,-1,-1,0
18333,917504,83,-56,-1,-1,0
18366,393216,83,-56,-1,-1,0
18400,720896,83,-56,-1,-1,0
18433,851968,83,-56,-1,-1,0
18466,-2228224,83,-56,-1,-1,0
18500,2031616,81,-56,-1,-1,0
18533,655360,81,-56,-1,-1,0
18566,65536,81,-56,-1,-1,0
18600,-393216,81,-56,-1,-1,0
18633,-1769472,81,-56,-1,-1,0
18666,-2424832,81,-56,-1,-1,0
18700,-458752,81,-56,-1,-1,0
18733,589824,81,-56,-1,-1,0
18766,458752,81,-56,-1,-1,0
18800,720896,81,-56,-1,-1,0
18833,524288,81,-56,-1,-1,0
18866,524288,81,-56,-1,-1,0
18900,589824,81,-56,-1,-1,0
18933,589824,81,-56,-1,-1,0
18966,655360,81,-56,-1,-1,0
19000,458752,81,-56,-1,-1,0
19033,524288,81,-56,-1,-1,0
19066,720896,81,-56,-1,-1,0
19100,786432,81,-56,-1,-1,0
19133,-4784128,81,-56,-1,-1,0
19166,1179648,81,-56,-1,-1,0
19200,327680,81,-56,-1,-1,0
19233,0,81,-56,-1,-1,0
19266,-1310720,81,-56,-1,-1,0
19300,-2883584,81,-56,-1,-1,0
19333,-1376256,81,-56,-1,-1,0
19366,458752,81,-56,-1,-1,0
19400,589824,81,-56,-1,-1,0
19433,720896,81,-56,-1,-1,0
19466,589824,81,-56,-1,-1,0
19500,589824,81,-56,-1,-1,0
19533,524288,81,-56,-1,-1,0
19566,589824,81,-56,-1,-1,0
19600,393216,81,-56,-1,-1,0
19633,786432,81,-56,-1,-1,0
19666,851968,81,-56,-1,-1,0
19700,131072,81,-56,-1,-1,0
19733,131072,82,-56,-1,-1,0
19766,720896,82,-56,-1,-1,0
19800,262144,82,-56,-1,-1,0
19833,-262144,82,-56,-1,-1,0
19866,-1507328,82,-56,-1,-1,0
19900,-2490368,82,-56,-1,-1,0
19933,-458752,82,-56,-1,-1,0
19966,458752,82,-56,-1,-1,0
20000,720896,82,-56,-1,-1,0
20033,720896,82,-56,-1,-1,0
20066,655360,82,-56,-1,-1,0
20100,589824,82,-56,-1,-1,0
20133,589824,82,-56,-1,-1,0
20166,720896,82,-56,-1,-1,0
20200,655360,82,-56,-1,-1,0
20233,589824,82,-56,-1,-1,0
20266,720896,82,-56,-1,-1,0
20300,786432,82,-56,-1,-1,0
20333,-6881280,82,-56,-1,-1,0
20366,1376256,82,-56,-1,-1,0
20400,458752,82,-56,-1,-1,0
20433,0,82,-56,-1,-1,0
20466,-917504,82,-56,-1,-1,0
20500,-2359296,82,-56,-1,-1,0
20533,-1441792,82,-56,-1,-1,0
20566,196608,82,-56,-1,-1,0
20600,524288,82,-56,-1,-1,0
20633,589824,82,-56,-1,-1,0
20666,589824,82,-56,-1,-1,0
20700,458752,82,-56,-1,-1,0
20733,655360,82,-56,-1,-1,0
20766,589824,82,-56,-1,-1,0
20800,786432,82,-56,-1,-1,0
20833,327680,82,-56,-1,-1,0
20866,786432,82,-56,-1,-1,0
20900,786432,82,-56,-1,-1,0
20933,-3080192,82,-56,-1,-1,0
20966,2293760,82,-56,-1,-1,0
21000,524288,82,-56,-1,-1,0
21033,131072,82,-56,-1,-1,0
21066,-524288,82,-56,-1,-1,0
21100,-1966080,82,-56,-1,-1,0
21133,-2228224,82,-56,-1,-1,0
21166,0,82,-56,-1,-1,0
21200,524288,82,-56,-1,-1,0
21233,589824,82,-56,-1,-1,0
21266,589824,82,-56,-1,-1,0
21300,589824,82,-56,-1,-1,0
21333,524288,82,-56,-1,-1,0
21366,589824,82,-56,-1,-1,0
21400,458752,82,-56,-1,-1,0
21433,655360,82,-56,-1,-1,0
21466,196608,82,-56,-1,-1,0
21500,655360,82,-56,-1,-1,0
21533,786432,82,-56,-1,-1,0
21566,-3670016,81,-56,-1,-1,0
21600,2031616,81,-56,-1,-1,0
21633,458752,81,-56,-1,-1,0
21666,65536,81,-56,-1,-1,0
21700,-524288,81,-56,-1,-1,0
21733,-2097152,81,-56,-1,-1,0
21766,-2490368,81,-56,-1,-1,0
21800,-131072,81,-56,-1,-1,0
21833,720896,81,-56,-1,-1,0
21866,524288,81,-56,-1,-1,0
21900,786432,81,-56,-1,-1,0
21933,720896,81,-56,-1,-1,0
21966,720896,81,-56,-1,-1,0
22000,786432,81,-56,-1,-1,0
22033,655360,81,-56,-1,-1,0
22066,720896,81,-56,-1,-1,0
22100,917504,81,-56,-1,-1,0
22133,851968,81,-56,-1,-1,0
22166,-6160384,81,-56,-1,-1,0
22200,1966080,81,-56,-1,-1,0
22233,393216,81,-56,-1,-1,0
22266,-65536,81,-56,-1,-1,0
22300,-851968,81,-56,-1,-1,0
22333,-2621440,81,-56,-1,-1,0
22366,-1638400,81,-56,-1,-1,0
22400,393216,81,-56,-1,-1,0
22433,655360,81,-56,-1,-1,0
22466,655360,81,-56,-1,-1,0
22500,720896,81,-56,-1,-1,0
22533,589824,81,-56,-1,-1,0
22566,720896,81,-56,-1,-1,0
22600,589824,81,-56,-1,-1,0
22633,393216,81,-56,-1,-1,0
22666,720896,81,-56,-1,-1,0
22700,786432,81,-56,-1,-1,0
22733,458752,81,-56,-1,-1,0
22766,-2097152,81,-56,-1,-1,0
22800,720896,81,-56,-1,-1,0
22833,65536,81,-56,-1,-1,0
22866,-327680,81,-56,-1,-1,0
22900,-1572864,81,-56,-1,-1,0
22933,-2752512,81,-56,-1,-1,0
22966,-1048576,81,-56,-1,-1,0
23000,65536,81,-56,-1,-1,0
23033,196608,81,-56,-1,-1,0
23066,458752,81,-56,-1,-1,0
23100,720896,81,-56,-1,-1,0
23133,720896,81,-56,-1,-1,0
23166,524288,81,-56,-1,-1,0
23200,655360,81,-56,-1,-1,0
23233,589824,81,-56,-1,-1,0
23266,720896,81,-56,-1,-1,0
23300,983040,81,-56,-1,-1,0
23333,-5898240,81,-56,-1,-1,0
23366,2162688,81,-56,-1,-1,0
23400,851968,81,-56,-1,-1,0
23433,393216,81,-56,-1,-1,0
23466,0,81,-56,-1,-1,0
23500,-1441792,81,-56,-1,-1,0
23533,-2031616,81,-56,-1,-1,0
23566,262144,81,-56,-1,-1,0
23600,655360,81,-56,-1,-1,0
23633,1048576,81,-56,-1,-1,0
23666,851968,81,-56,-1,-1,0
23700,524288,81,-56,-1,-1,0
23733,524288,81,-56,-1,-1,0
23766,655360,81,-56,-1,-1,0
23800,589824,81,-56,-1,-1,0
23833,589824,81,-56,-1,-1,0
23866,720896,81,-56,-1,-1,0
23900,851968,81,-56,-1,-1,0
23933,-3014656,81,-56,-1,-1,0
23966,589824,81,-56,-1,-1,0
24000,393216,81,-56,-1,-1,0
24033,-131072,81,-56,-1,-1,0
24066,-1179648,81,-56,-1,-1,0
24100,-2359296,81,-56,-1,-1,0
24133,-786432,81,-56,-1,-1,0
24166,458752,81,-56,-1,-1,0
24200,458752,81,-56,-1,-1,0
24233,720896,81,-56,-1,-1,0
24266,589824,81,-56,-1,-1,0
24300,786432,81,-56,-1,-1,0
24333,720896,81,-56,-1,-1,0
24366,655360,81,-56,-1,-1,0
24400,655360,81,-56,-1,-1,0
24433,851968,81,-56,-1,-1,0
24466,1048576,82,-56,-1,-1,0
24500,-7667712,82,-56,-1,-1,0
24533,1638400,82,-56,-1,-1,0
24566,786432,82,-56,-1,-1,0
24600,393216,82,-56,-1,-1,0
24633,-327680,82,-56,-1,-1,0
24666,-1769472,82,-56,-1,-1,0
24700,-1310720,82,-56,-1,-1,0
24733,327680,82,-56,-1,-1,0
24766,393216,82,-56,-1,-1,0
24800,458752,82,-56,-1,-1,0
24833,458752,82,-56,-1,-1,0
24866,196608,82,-56,-1,-1,0
24900,262144,82,-56,-1,-1,0
24933,196608,82,-56,-1,-1,0
24966,65536,82,-56,-1,-1,0
25000,262144,82,-56,-1,-1,0
25033,327680,83,-56,-1,-1,0
25066,-7864320,83,-56,-1,-1,0
25100,1572864,83,-56,-1,-1,0
25133,458752,83,-56,-1,-1,0
25166,0,83,-56,-1,-1,0
25200,-655360,83,-56,-1,-1,0
25233,-2162688,83,-56,-1,-1,0
25266,-1179648,83,-56,-1,-1,0
25300,983040,83,-56,-1,-1,0
25333,1179648,83,-56,-1,-1,0
25366,1310720,83,-56,-1,-1,0
25400,1048576,83,-56,-1,-1,0
25433,786432,83,-56,-1,-1,0
25466,851968,83,-56,-1,-1,0
25500,393216,83,-56,-1,-1,0
25533,851968,83,-56,-1,-1,0
25566,720896,84,-56,-1,-1,0
25600,851968,84,-56,-1,-1,0
25633,-4915200,84,-56,-1,-1,0
25666,1376256,84,-56,-1,-1,0
25700,458752,84,-56,-1,-1,0
25733,-65536,84,-56,-1,-1,0
25766,-1114112,84,-56,-1,-1,0
25800,-2621440,84,-56,-1,-1,0
25833,-1114112,84,-56,-1,-1,0
25866,196608,84,-56,-1,-1,0
25900,524288,84,-56,-1,-1,0
25933,720896,84,-56,-1,-1,0
25966,655360,84,-56,-1,-1,0
26000,589824,84,-56,-1,-1,0
26033,589824,84,-56,-1,-1,0
26066,524288,84,-56,-1,-1,0
26099,655360,84,-56,-1,-1,0
26133,917504,84,-56,-1,-1,0
26166,786432,84,-56,-1,-1,0
26200,-3276800,84,-56,-1,-1,0
26233,983040,84,-56,-1,-1,0
26266,393216,84,-56,-1,-1,0
26300,196608,84,-56,-1,-1,0
26333,-917504,84,-56,-1,-1,0
26366,-2031616,84,-56,-1,-1,0
26400,-524288,84,-56,-1,-1,0
26433,720896,84,-56,-1,-1,0
26466,458752,84,-56,-1,-1,0
26500,458752,84,-56,-1,-1,0
26533,524288,84,-56,-1,-1,0
26566,655360,84,-56,-1,-1,0
26599,327680,84,-56,-1,-1,0
26633,393216,84,-56,-1,-1,0
26666,458752,84,-56,-1,-1,0
26700,655360,84,-56,-1,-1,0
26733,589824,85,-56,-1,-1,0
26766,-7405568,85,-56,-1,-1,0
26800,1114112,85,-56,-1,-1,0
26833,262144,85,-56,-1,-1,0
26866,-65536,85,-56,-1,-1,0
26900,-917504,85,-56,-1,-1,0
26933,-2490368,85,-56,-1,-1,0
26966,-1114112,85,-56,-1,-1,0
27000,327680,85,-56,-1,-1,0
27033,524288,85,-56,-1,-1,0
27066,589824,85,-56,-1,-1,0
27099,720896,85,-56,-1,-1,0
27133,720896,85,-56,-1,-1,0
27166,589824,85,-56,-1,-1,0
27200,786432,85,-56,-1,-1,0
27233,393216,85,-56,-1,-1,0
27266,589824,85,-56,-1,-1,0
27300,720896,85,-56,-1,-1,0
27333,786432,85,-56,-1,-1,0
27366,-6488064,85,-56,-1,-1,0
27400,1048576,85,-56,-1,-1,0
27433,458752,85,-56,-1,-1,0
27466,131072,85,-56,-1,-1,0
27500,-851968,85,-56,-1,-1,0
27533,-2228224,85,-56,-1,-1,0
27566,-983040,85,-56,-1,-1,0
27599,327680,85,-56,-1,-1,0
27633,655360,85,-56,-1,-1,0
27666,589824,85,-56,-1,-1,0
27700,655360,85,-56,-1,-1,0
27733,655360,85,-56,-1,-1,0
27766,589824,85,-56,-1,-1,0
27800,655360,85,-56,-1,-1,0
27833,720896,85,-56,-1,-1,0
27866,458752,85,-56,-1,-1,0
27900,589824,85,-56,-1,-1,0
27933,983040,85,-56,-1,-1,0
27966,786432,85,-56,-1,-1,0
28000,-5242880,85,-56,-1,-1,0
28033,983040,85,-56,-1,-1,0
28066,589824,85,-56,-1,-1,0
28099,0,85,-56,-1,-1,0
28133,-1048576,85,-56,-1,-1,0
28166,-2359296,85,-56,-1,-1,0
28200,-1048576,85,-56,-1,-1,0
28233,262144,85,-56,-1,-1,0
28266,458752,85,-56,-1,-1,0
28300,524288,85,-56,-1,-1,0
28333,458752,85,-56,-1,-1,0
28366,458752,85,-56,-1,-1,0
28400,262144,85,-56,-1,-1,0
28433,393216,85,-56,-1,-1,0
28466,393216,85,-56,-1,-1,0
28500,393216,85,-56,-1,-1,0
28533,458752,85,-56,-1,-1,0
28566,720896,85,-56,-1,-1,0
28599,786432,85,-56,-1,-1,0
28633,-6946816,85,-56,-1,-1,0
28666,1966080,85,-56,-1,-1,0
28700,458752,85,-56,-1,-1,0
28733,-65536,85,-56,-1,-1,0
28766,-720896,85,-56,-1,-1,0
28800,-2621440,85,-56,-1,-1,0
28833,-1966080,85,-56,-1,-1,0
28866,196608,85,-56,-1,-1,0
28900,524288,85,-56,-1,-1,0
28933,720896,85,-56,-1,-1,0
28966,720896,85,-56,-1,-1,0
29000,458752,85,-56,-1,-1,0
29033,458752,85,-56,-1,-1,0
29066,393216,85,-56,-1,-1,0
29099,196608,85,-56,-1,-1,0
29133,524288,85,-56,-1,-1,0
29166,393216,85,-56,-1,-1,0
29200,327680,85,-56,-1,-1,0
29233,-4063232,85,-56,-1,-1,0
29266,786432,85,-56,-1,-1,0
29300,131072,85,-56,-1,-1,0
29333,-720896,85,-56,-1,-1,0
29366,-1638400,85,-56,-1,-1,0
29400,-3276800,85,-56,-1,-1,0
29433,-1572864,85,-56,-1,-1,0
29466,-720896,85,-56,-1,-1,0
29500,524288,85,-56,-1,-1,0
29533,1179648,85,-56,-1,-1,0
29566,655360,85,-56,-1,-1,0
29599,1048576,85,-56,-1,-1,0
29633,1179648,85,-56,-1,-1,0
29666,983040,85,-56,-1,-1,0
29700,589824,85,-56,-1,-1,0
29733,851968,85,-56,-1,-1,0
29766,851968,85,-56,-1,-1,0
29800,-3080192,85,-56,-1,-1,0
29833,2097152,85,-56,-1,-1,0
29866,655360,85,-56,-1,-1,0
29900,786432,85,-56,-1,-1,0
29933,-262144,85,-56,-1,-1,0
29966,-1310720,85,-56,-1,-1,0
30000,-1835008,85,-56,-1,-1,0
30033,0,85,-56,-1,-1,0
30066,393216,85,-56,-1,-1,0
30099,1835008,85,-56,-1,-1,0
30133,720896,85,-56,-1,-1,0
30166,983040,85,-56,-1,-1,0
30200,917504,85,-56,-1,-1,0
30233,327680,85,-56,-1,-1,0
30266,589824,85,-56,-1,-1,0
30300,1179648,85,-56,-1,-1,0
30333,917504,86,-56,-1,-1,0
30366,-5963776,86,-56,-1,-1,0
30400,1835008,86,-56,-1,-1,0
30433,327680,86,-56,-1,-1,0
30466,589824,86,-56,-1,-1,0
30500,-131072,86,-56,-1,-1,0
30533,-1376256,86,-56,-1,-1,0
30566,-1376256,86,-56,-1,-1,0
30599,327680,86,-56,-1,-1,0
30633,720896,86,-56,-1,-1,0
30666,655360,86,-56,-1,-1,0
30700,720896,86,-56,-1,-1,0
30733,524288,86,-56,-1,-1,0
30766,655360,86,-56,-1,-1,0
30800,524288,86,-56,-1,-1,0
30833,262144,86,-56,-1,-1,0
30866,655360,86,-56,-1,-1,0
30900,786432,86,-56,-1,-1,0
30933,-8060928,86,-56,-1,-1,0
30966,1179648,86,-56,-1,-1,0
31000,589824,86,-56,-1,-1,0
31033,327680,86,-56,-1,-1,0
31066,-327680,86,-56,-1,-1,0
31099,-1638400,86,-56,-1,-1,0
31133,-851968,86,-56,-1,-1,0
31166,262144,86,-56,-1,-1,0
31200,851968,86,-56,-1,-1,0
31233,1048576,86,-56,-1,-1,0
31266,917504,86,-56,-1,-1,0
31300,1048576,86,-56,-1,-1,0
31333,1048576,86,-56,-1,-1,0
31366,786432,86,-56,-1,-1,0
31400,851968,86,-56,-1,-1,0
31433,851968,87,-56,-1,-1,0
31466,327680,87,-56,-1,-1,0
31500,-655360,87,-56,-1,-1,0
31533,720896,87,-56,-1,-1,0
31566,262144,87,-56,-1,-1,0
31599,0,87,-56,-1,-1,0
31633,-1179648,87,-56,-1,-1,0
31666,-2097152,87,-56,-1,-1,0
31700,-458752,87,-56,-1,-1,0
31733,458752,87,-56,-1,-1,0
31766,589824,87,-56,-1,-1,0
31800,655360,87,-56,-1,-1,0
31833,655360,87,-56,-1,-1,0
31866,589824,87,-56,-1,-1,0
31900,393216,87,-56,-1,-1,0
31933,524288,87,-56,-1,-1,0
31966,786432,87,-56,-1,-1,0
32000,917504,87,-56,-1,-1,0
32033,-7208960,87,-56,-1,-1,0
32066,1376256,87,-56,-1,-1,0
32100,655360,87,-56,-1,-1,0
32133,262144,87,-56,-1,-1,0
32166,-327680,87,-56,-1,-1,0
32200,-1835008,87,-56,-1,-1,0
32233,-917504,87,-56,-1,-1,0
32266,327680,87,-56,-1,-1,0
32299,655360,87,-56,-1,-1,0
32333,720896,87,-56,-1,-1,0
32366,655360,87,-56,-1,-1,0
32400,524288,87,-56,-1,-1,0
32433,262144,87,-56,-1,-1,0
32466,196608,87,-56,-1,-1,0
32500,458752,88,-56,-1,-1,0
32533,262144,88,-56,-1,-1,0
32566,-5308416,88,-56,-1,-1,0
32600,1966080,88,-56,-1,-1,0
32633,262144,88,-56,-1,-1,0
32666,-196608,88,-56,-1,-1,0
32700,-917504,88,-56,-1,-1,0
32733,-2490368,88,-56,-1,-1,0
32766,-2359296,88,-56,-1,-1,0
32800,-262144,88,-56,-1,-1,0
32833,262144,88,-56,-1,-1,0
32866,393216,88,-56,-1,-1,0
32900,458752,88,-56,-1,-1,0
32933,524288,88,-56,-1,-1,0
32966,524288,88,-56,-1,-1,0
33000,393216,88,-56,-1,-1,0
33033,524288,88,-56,-1,-1,0
33066,589824,88,-56,-1,-1,0
33100,-1441792,88,-56,-1,-1,0
33133,1310720,88,-56,-1,-1,0
33166,786432,88,-56,-1,-1,0
33200,327680,88,-56,-1,-1,0
33233,-196608,88,-56,-1,-1,0
33266,-1310720,88,-56,-1,-1,0
33300,-1966080,88,-56,-1,-1,0
33333,-262144,88,-56,-1,-1,0
33366,589824,88,-56,-1,-1,0
33400,524288,88,-56,-1,-1,0
33433,720896,88,-56,-1,-1,0
33466,851968,88,-56,-1,-1,0
33500,720896,88,-56,-1,-1,0
33533,655360,88,-56,-1,-1,0
33566,655360,88,-56,-1,-1,0
33600,983040,88,-56,-1,-1,0
33633,1048576,88,-56,-1,-1,0
33666,-8388608,88,-56,-1,-1,0
33700,1507328,88,-56,-1,-1,0
33733,720896,88,-56,-1,-1,0
33766,458752,88,-56,-1,-1,0
33800,-458752,88,-56,-1,-1,0
33833,-1900544,88,-56,-1,-1,0
33866,-983040,88,-56,-1,-1,0
33900,524288,88,-56,-1,-1,0
33933,720896,88,-56,-1,-1,0
33966,786432,88,-56,-1,-1,0
34000,786432,88,-56,-1,-1,0
34033,851968,88,-56,-1,-1,0
34066,786432,88,-56,-1,-1,0
34100,851968,88,-56,-1,-1,0
34133,458752,88,-56,-1,-1,0
34166,851968,88,-56,-1,-1,0
34200,786432,88,-56,-1,-1,0
34233,-2555904,88,-56,-1,-1,0
34266,1966080,88,-56,-1,-1,0
34300,786432,88,-56,-1,-1,0
34333,458752,88,-56,-1,-1,0
34366,-65536,88,-56,-1,-1,0
34400,-1507328,88,-56,-1,-1,0
34433,-2031616,88,-56,-1,-1,0
34466,0,88,-56,-1,-1,0
34500,655360,88,-56,-1,-1,0
34533,589824,88,-56,-1,-1,0
34566,720896,88,-56,-1,-1,0
34600,851968,88,-56,-1,-1,0
34633,655360,88,-56,-1,-1,0
34666,720896,88,-56,-1,-1,0
34700,655360,88,-56,-1,-1,0
34733,851968,88,-56,-1,-1,0
34766,524288,88,-56,-1,-1,0
34800,851968,88,-56,-1,-1,0
34833,917504,88,-56,-1,-1,0
34866,-7340032,88,-56,-1,-1,0
34900,1835008,87,-56,-1,-1,0
34933,524288,87,-56,-1,-1,0
34966,131072,87,-56,-1,-1,0
35000,-458752,87,-56,-1,-1,0
35033,-1900544,87,-56,-1,-1,0
35066,-1835008,87,-56,-1,-1,0
35100,-131072,87,-56,-1,-1,0
35133,458752,87,-56,-1,-1,0
35166,458752,87,-56,-1,-1,0
35200,655360,87,-56,-1,-1,0
35233,458752,87,-56,-1,-1,0
35266,524288,87,-56,-1,-1,0
35300,655360,87,-56,-1,-1,0
35333,589824,87,-56,-1,-1,0
35366,655360,87,-56,-1,-1,0
35400,393216,87,-56,-1,-1,0
35433,720896,87,-56,-1,-1,0
35466,786432,87,-56,-1,-1,0
35500,655360,87,-56,-1,-1,0
35533,-3211264,87,-56,-1,-1,0
35566,983040,87,-56,-1,-1,0
35600,589824,87,-56,-1,-1,0
35633,131072,87,-56,-1,-1,0
35666,-786432,87,-56,-1,-1,0
35700,-2162688,87,-56,-1,-1,0
35733,-786432,87,-56,-1,-1,0
35766,262144,87,-56,-1,-1,0
35800,393216,87,-56,-1,-1,0
35833,327680,87,-56,-1,-1,0
35866,393216,87,-56,-1,-1,0
35900,131072,87,-56,-1,-1,0
35933,262144,87,-56,-1,-1,0
35966,262144,87,-56,-1,-1,0
36000,196608,87,-56,-1,-1,0
36033,262144,87,-56,-1,-1,0
36066,-65536,87,-56,-1,-1,0
36100,196608,87,-56,-1,-1,0
36133,196608,87,-56,-1,-1,0
36166,-3801088,87,-56,-1,-1,0
36200,1703936,87,-56,-1,-1,0
36233,131072,87,-56,-1,-1,0
36266,-196608,87,-56,-1,-1,0
36300,-786432,87,-56,-1,-1,0
36333,-2359296,87,-56,-1,-1,0
36366,-2752512,87,-56,-1,-1,0
36400,-327680,87,-56,-1,-1,0
36433,589824,87,-56,-1,-1,0
36466,720896,87,-56,-1,-1,0
36500,1114112,87,-56,-1,-1,0
36533,983040,87,-56,-1,-1,0
36566,917504,87,-56,-1,-1,0
36600,917504,87,-56,-1,-1,0
36633,720896,87,-56,-1,-1,0
36666,983040,87,-56,-1,-1,0
36700,1114112,87,-56,-1,-1,0
36733,1048576,87,-56,-1,-1,0
36766,-5636096,87,-56,-1,-1,0
36800,1507328,87,-56,-1,-1,0
36833,524288,87,-56,-1,-1,0
36866,0,87,-56,-1,-1,0
36900,-983040,87,-56,-1,-1,0
36933,-2424832,87,-56,-1,-1,0
36966,-1179648,87,-56,-1,-1,0
37000,458752,87,-56,-1,-1,0
37033,655360,87,-56,-1,-1,0
37066,786432,87,-56,-1,-1,0
37100,655360,87,-56,-1,-1,0
37133,524288,87,-56,-1,-1,0
37166,655360,87,-56,-1,-1,0
37200,655360,87,-56,-1,-1,0
37233,393216,87,-56,-1,-1,0
37266,589824,87,-56,-1,-1,0
37300,655360,87,-56,-1,-1,0
37333,524288,87,-56,-1,-1,0
37366,-6029312,87,-56,-1,-1,0
37400,720896,87,-56,-1,-1,0
37433,131072,87,-56,-1,-1,0
37466,-327680,87,-56,-1,-1,0
37500,-1310720,87,-56,-1,-1,0
37533,-2686976,87,-56,-1,-1,0
37566,-1507328,87,-56,-1,-1,0
37600,-131072,87,-56,-1,-1,0
37633,0,87,-56,-1,-1,0
37666,-786432,87,-56,-1,-1,0
37700,65536,87,-56,-1,-1,0
37733,851968,87,-56,-1,-1,0
37766,786432,87,-56,-1,-1,0
37800,1179648,87,-56,-1,-1,0
37833,1310720,87,-56,-1,-1,0
37866,1441792,87,-56,-1,-1,0
37900,1245184,87,-56,-1,-1,0
37933,-3538944,87,-56,-1,-1,0
37966,1638400,87,-56,-1,-1,0
38000,1114112,87,-56,-1,-1,0
38033,786432,87,-56,-1,-1,0
38066,131072,87,-56,-1,-1,0
38100,-1179648,87,-56,-1,-1,0
38133,-1769472,87,-56,-1,-1,0
38166,262144,87,-56,-1,-1,0
38200,851968,87,-56,-1,-1,0
38233,1048576,87,-56,-1,-1,0
38266,1048576,87,-56,-1,-1,0
38300,917504,87,-56,-1,-1,0
38333,786432,87,-56,-1,-1,0
38366,1179648,87,-56,-1,-1,0
38400,655360,87,-56,-1,-1,0
38433,1376256,87,-56,-1,-1,0
38466,1179648,87,-56,-1,-1,0
38500,196608,87,-56,-1,-1,0
38533,524288,87,-56,-1,-1,0
38566,1114112,87,-56,-1,-1,0
38600,458752,87,-56,-1,-1,0
38633,-131072,87,-56,-1,-1,0
38666,-1572864,87,-56,-1,-1,0
38700,-2621440,87,-56,-1,-1,0
38733,-917504,87,-56,-1,-1,0
38766,65536,87,-56,-1,-1,0
38800,196608,87,-56,-1,-1,0
38833,393216,87,-56,-1,-1,0
38866,327680,87,-56,-1,-1,0
38900,196608,87,-56,-1,-1,0
38933,393216,87,-56,-1,-1,0
38966,196608,87,-56,-1,-1,0
39000,655360,87,-56,-1,-1,0
39033,851968,87,-56,-1,-1,0
39066,-1441792,87,-56,-1,-1,0
39100,2621440,87,-56,-1,-1,0
39133,917504,87,-56,-1,-1,0
39166,393216,87,-56,-1,-1,0
39200,-131072,87,-56,-1,-1,0
39233,-1835008,87,-56,-1,-1,0
39266,-2228224,87,-56,-1,-1,0
39300,-196608,87,-56,-1,-1,0
39333,589824,87,-56,-1,-1,0
39366,786432,87,-56,-1,-1,0
39400,655360,87,-56,-1,-1,0
39433,589824,87,-56,-1,-1,0
39466,589824,87,-56,-1,-1,0
39500,655360,87,-56,-1,-1,0
39533,458752,87,-56,-1,-1,0
39566,720896,87,-56,-1,-1,0
39600,851968,87,-56,-1,-1,0
39633,65536,86,-56,-1,-1,0
39666,-196608,86,-56,-1,-1,0
39700,851968,86,-56,-1,-1,0
39733,393216,86,-56,-1,-1,0
39766,-65536,86,-56,-1,-1,0
39800,-1310720,86,-56,-1,-1,0
39833,-2228224,86,-56,-1,-1,0
39866,-458752,86,-56,-1,-1,0
39900,589824,86,-56,-1,-1,0
39933,524288,86,-56,-1,-1,0
39966,589824,86,-56,-1,-1,0
40000,786432,86,-56,-1,-1,0
40033,589824,86,-56,-1,-1,0
40066,589824,86,-56,-1,-1,0
40100,524288,86,-56,-1,-1,0
40133,458752,86,-56,-1,-1,0
40166,786432,86,-56,-1,-1,0
40200,720896,86,-56,-1,-1,0
40233,-8519680,86,-56,-1,-1,0
40266,1441792,86,-56,-1,-1,0
40300,393216,86,-56,-1,-1,0
40333,0,86,-56,-1,-1,0
40366,-720896,86,-56,-1,-1,0
40400,-2228224,86,-56,-1,-1,0
40433,-1507328,86,-56,-1,-1,0
40466,262144,86,-56,-1,-1,0
40500,589824,86,-56,-1,-1,0
40533,786432,86,-56,-1,-1,0
40566,786432,86,-56,-1,-1,0
40600,786432,86,-56,-1,-1,0
40633,720896,86,-56,-1,-1,0
40666,655360,86,-56,-1,-1,0
40700,786432,86,-56,-1,-1,0
40733,524288,86,-56,-1,-1,0
40766,655360,86,-56,-1,-1,0
40800,786432,86,-56,-1,-1,0
40833,-3276800,85,-56,-1,-1,0
40866,1769472,85,-56,-1,-1,0
40900,458752,85,-56,-1,-1,0
40933,196608,85,-56,-1,-1,0
40966,-589824,85,-56,-1,-1,0
41000,-2162688,85,-56,-1,-1,0
41033,-2555904,85,-56,-1,-1,0
41066,-262144,85,-56,-1,-1,0
41100,327680,85,-56,-1,-1,0
41133,786432,85,-56,-1,-1,0
41166,786432,85,-56,-1,-1,0
41200,851968,85,-56,-1,-1,0
41233,589824,85,-56,-1,-1,0
41266,655360,85,-56,-1,-1,0
41300,589824,85,-56,-1,-1,0
41333,524288,85,-56,-1,-1,0
41366,917504,85,-56,-1,-1,0
41400,917504,85,-56,-1,-1,0
41433,-5570560,85,-56,-1,-1,0
41466,2228224,85,-56,-1,-1,0
41500,524288,85,-56,-1,-1,0
41533,0,85,-56,-1,-1,0
41566,-589824,85,-56,-1,-1,0
41600,-2424832,85,-56,-1,-1,0
41633,-2031616,85,-56,-1,-1,0
41666,131072,85,-56,-1,-1,0
41700,655360,85,-56,-1,-1,0
41733,720896,85,-56,-1,-1,0
41766,655360,85,-56,-1,-1,0
41800,458752,85,-56,-1,-1,0
41833,589824,85,-56,-1,-1,0
41866,655360,85,-56,-1,-1,0
41900,655360,85,-56,-1,-1,0
41933,393216,85,-56,-1,-1,0
41966,720896,85,-56,-1,-1,0
42000,786432,85,-56,-1,-1,0
42033,65536,85,-56,-1,-1,0
42066,-983040,84,-56,-1,-1,0
42100,655360,84,-56,-1,-1,0
42133,262144,84,-56,-1,-1,0
42166,-131072,84,-56,-1,-1,0
42200,-1179648,84,-56,-1,-1,0
42233,-2162688,84,-56,-1,-1,0
42266,-655360,84,-56,-1,-1,0
42300,524288,84,-56,-1,-1,0
42333,655360,84,-56,-1,-1,0
42366,720896,84,-56,-1,-1,0
42400,786432,84,-56,-1,-1,0
42433,589824,84,-56,-1,-1,0
42466,589824,84,-56,-1,-1,0
42500,524288,84,-56,-1,-1,0
42533,720896,84,-56,-1,-1,0
42566,393216,84,-56,-1,-1,0
42600,655360,84,-56,-1,-1,0
42633,720896,84,-56,-1,-1,0
42666,-7471104,84,-56,-1,-1,0
42700,1572864,84,-56,-1,-1,0
42733,327680,84,-56,-1,-1,0
42766,0,84,-56,-1,-1,0
42800,-655360,84,-56,-1,-1,0
42833,-2031616,84,-56,-1,-1,0
42866,-1835008,84,-56,-1,-1,0
42900,65536,84,-56,-1,-1,0
42933,458752,84,-56,-1,-1,0
42966,458752,84,-56,-1,-1,0
43000,655360,84,-56,-1,-1,0
43033,589824,84,-56,-1,-1,0
43066,524288,84,-56,-1,-1,0
43100,524288,84,-56,-1,-1,0
43133,589824,84,-56,-1,-1,0
43166,655360,84,-56,-1,-1,0
43200,327680,84,-56,-1,-1,0
43233,655360,84,-56,-1,-1,0
43266,589824,84,-56,-1,-1,0
43300,-1245184,84,-56,-1,-1,0
43333,1310720,84,-56,-1,-1,0
43366,655360,84,-56,-1,-1,0
43400,196608,84,-56,-1,-1,0
43433,-262144,84,-56,-1,-1,0
43466,-1638400,84,-56,-1,-1,0
43500,-2293760,84,-56,-1,-1,0
43533,-524288,84,-56,-1,-1,0
43566,393216,84,-56,-1,-1,0
43600,589824,84,-56,-1,-1,0
43633,524288,84,-56,-1,-1,0
43666,720896,84,-56,-1,-1,0
43700,655360,84,-56,-1,-1,0
43733,458752,84,-56,-1,-1,0
43766,655360,84,-56,-1,-1,0
43800,720896,84,-56,-1,-1,0
43833,589824,84,-56,-1,-1,0
43866,524288,84,-56,-1,-1,0
43900,720896,84,-56,-1,-1,0
43933,589824,84,-56,-1,-1,0
43966,-7864320,84,-56,-1,-1,0
44000,1441792,84,-56,-1,-1,0
44033,524288,84,-56,-1,-1,0
44066,65536,84,-56,-1,-1,0
44100,-786432,84,-56,-1,-1,0
44133,-2162688,84,-56,-1,-1,0
44166,-1835008,84,-56,-1,-1,0
44200,131072,84,-56,-1,-1,0
44233,589824,84,-56,-1,-1,0
44266,524288,84,-56,-1,-1,0
44300,786432,84,-56,-1,-1,0
44333,589824,84,-56,-1,-1,0
44366,589824,84,-56,-1,-1,0
44400,524288,84,-56,-1,-1,0
44433,589824,84,-56,-1,-1,0
44466,720896,84,-56,-1,-1,0
44500,393216,84,-56,-1,-1,0
44533,655360,84,-56,-1,-1,0
44566,851968,84,-56,-1,-1,0
44600,-1966080,84,-56,-1,-1,0
44633,2097152,83,-56,-1,-1,0
44666,720896,83,-56,-1,-1,0
44700,327680,83,-56,-1,-1,0
44733,-262144,83,-56,-1,-1,0
44766,-1638400,83,-56,-1,-1,0
44800,-2359296,83,-56,-1,-1,0
44833,-393216,83,-56,-1,-1,0
44866,458752,83,-56,-1,-1,0
44900,589824,83,-56,-1,-1,0
44933,589824,83,-56,-1,-1,0
44966,655360,83,-56,-1,-1,0
45000,524288,83,-56,-1,-1,0
45033,589824,83,-56,-1,-1,0
45066,524288,83,-56,-1,-1,0
45100,720896,83,-56,-1,-1,0
45133,393216,83,-56,-1,-1,0
45166,655360,83,-56,-1,-1,0
45200,786432,83,-56,-1,-1,0
45233,458752,83,-56,-1,-1,0
45266,-2621440,83,-56,-1,-1,0
45300,786432,82,-56,-1,-1,0
45333,327680,82,-56,-1,-1,0
45366,-131072,82,-56,-1,-1,0
45400,-1179648,82,-56,-1,-1,0
45433,-2490368,82,-56,-1,-1,0
45466,-1048576,82,-56,-1,-1,0
45500,393216,82,-56,-1,-1,0
45533,589824,82,-56,-1,-1,0
45566,655360,82,-56,-1,-1,0
45600,589824,82,-56,-1,-1,0
45633,655360,82,-56,-1,-1,0
45666,458752,82,-56,-1,-1,0
45700,589824,82,-56,-1,-1,0
45733,655360,82,-56,-1,-1,0
45766,720896,82,-56,-1,-1,0
45800,524288,82,-56,-1,-1,0
45833,655360,82,-56,-1,-1,0
45866,786432,82,-56,-1,-1,0
45900,-7929856,82,-56,-1,-1,0
45933,1441792,81,-56,-1,-1,0
45966,458752,81,-56,-1,-1,0
46000,65536,81,-56,-1,-1,0
46033,-655360,81,-56,-1,-1,0
46066,-2228224,81,-56,-1,-1,0
46100,-1900544,81,-56,-1,-1,0
46133,0,81,-56,-1,-1,0
46166,524288,81,-56,-1,-1,0
46200,589824,81,-56,-1,-1,0
46233,655360,81,-56,-1,-1,0
46266,524288,81,-56,-1,-1,0
46300,524288,81,-56,-1,-1,0
46333,655360,81,-56,-1,-1,0
46366,524288,81,-56,-1,-1,0
46400,655360,81,-56,-1,-1,0
46433,262144,81,-56,-1,-1,0
46466,589824,81,-56,-1,-1,0
46500,786432,81,-56,-1,-1,0
46533,0,81,-56,-1,-1,0
46566,0,81,-56,-1,-1,0
46600,720896,80,-56,-1,-1,0
46633,458752,80,-56,-1,-1,0
46666,-131072,80,-56,-1,-1,0
46700,-1376256,80,-56,-1,-1,0
46733,-2359296,80,-56,-1,-1,0
46766,-655360,80,-56,-1,-1,0
46800,458752,80,-56,-1,-1,0
46833,589824,80,-56,-1,-1,0
46866,786432,80,-56,-1,-1,0
46900,655360,80,-56,-1,-1,0
46933,524288,80,-56,-1,-1,0
46966,655360,80,-56,-1,-1,0
47000,589824,80,-56,-1,-1,0
47033,720896,80,-56,-1,-1,0
47066,655360,80,-56,-1,-1,0
47100,720896,80,-56,-1,-1,0
47133,786432,80,-56,-1,-1,0
47166,851968,80,-56,-1,-1,0
47200,-7077888,79,-56,-1,-1,0
47233,1245184,79,-56,-1,-1,0
47266,524288,79,-56,-1,-1,0
47300,196608,79,-56,-1,-1,0
47333,-458752,79,-56,-1,-1,0
47366,-2162688,79,-56,-1,-1,0
47400,-1179648,79,-56,-1,-1,0
47433,393216,79,-56,-1,-1,0
47466,524288,79,-56,-1,-1,0
47500,589824,79,-56,-1,-1,0
47533,524288,79,-56,-1,-1,0
47566,262144,79,-56,-1,-1,0
47600,458752,79,-56,-1,-1,0
47633,393216,79,-56,-1,-1,0
47666,786432,79,-56,-1,-1,0
47700,393216,79,-56,-1,-1,0
47733,917504,79,-56,-1,-1,0
47766,720896,79,-56,-1,-1,0
47800,-2621440,79,-56,-1,-1,0
47833,3145728,79,-56,-1,-1,0
47866,589824,79,-56,-1,-1,0
47900,131072,79,-56,-1,-1,0
47933,-983040,79,-56,-1,-1,0
47966,-2424832,79,-56,-1,-1,0
48000,-3211264,79,-56,-1,-1,0
48033,-458752,79,-56,-1,-1,0
48066,458752,79,-56,-1,-1,0
48100,524288,79,-56,-1,-1,0
48133,589824,79,-56,-1,-1,0
48166,589824,79,-56,-1,-1,0
48200,589824,79,-56,-1,-1,0
48233,655360,79,-56,-1,-1,0
48266,327680,79,-56,-1,-1,0
48300,720896,79,-56,-1,-1,0
48333,851968,79,-56,-1,-1,0
48366,458752,79,-56,-1,-1,0
48400,-2359296,79,-56,-1,-1,0
48433,1048576,79,-56,-1,-1,0
48466,262144,79,-56,-1,-1,0
48500,0,79,-56,-1,-1,0
48533,-1376256,79,-56,-1,-1,0
48566,-2424832,79,-56,-1,-1,0
48600,-851968,79,-56,-1,-1,0
48633,589824,79,-56,-1,-1,0
48666,720896,79,-56,-1,-1,0
48700,851968,79,-56,-1,-1,0
48733,917504,79,-56,-1,-1,0
48766,458752,79,-56,-1,-1,0
48800,786432,79,-56,-1,-1,0
48833,720896,79,-56,-1,-1,0
48866,524288,79,-56,-1,-1,0
48900,720896,79,-56,-1,-1,0
48933,917504,79,-56,-1,-1,0
48966,-6160384,79,-56,-1,-1,0
49000,2293760,79,-56,-1,-1,0
49033,655360,79,-56,-1,-1,0
49066,327680,79,-56,-1,-1,0
49100,-327680,79,-56,-1,-1,0
49133,-2162688,79,-56,-1,-1,0
49166,-2097152,79,-56,-1,-1,0
49200,0,79,-56,-1,-1,0
49233,524288,79,-56,-1,-1,0
49266,720896,79,-56,-1,-1,0
49300,720896,79,-56,-1,-1,0
49333,655360,79,-56,-1,-1,0
49366,458752,79,-56,-1,-1,0
49400,720896,79,-56,-1,-1,0
49433,262144,79,-56,-1,-1,0
49466,589824,79,-56,-1,-1,0
49500,786432,79,-56,-1,-1,0
49533,720896,79,-56,-1,-1,0
49566,-5570560,79,-56,-1,-1,0
49600,1048576,79,-56,-1,-1,0
49633,458752,79,-56,-1,-1,0
49666,-65536,79,-56,-1,-1,0
49700,-1114112,79,-56,-1,-1,0
49733,-2555904,79,-56,-1,-1,0
49766,-1114112,79,-56,-1,-1,0
49800,458752,79,-56,-1,-1,0
49833,589824,79,-56,-1,-1,0
49866,655360,79,-56,-1,-1,0
49900,786432,79,-56,-1,-1,0
49933,589824,79,-56,-1,-1,0
49966,655360,79,-56,-1,-1,0
50000,589824,79,-56,-1,-1,0
