milliseconds, ECG, ECG HR, PPG, PPG HR, SpO2, PI,Landmark_0,Landmark_1,Landmark_2,Landmark_3,Landmark_4,Landmark_5,Landmark_6,Landmark_7,Landmark_8,Landmark_9,Landmark_10,Landmark_11,Landmark_12,Landmark_13,Landmark_14,Landmark_15,Landmark_16,Landmark_17,Landmark_18,Landmark_19,Landmark_20,Landmark_21,Landmark_22,Landmark_23,Landmark_24,Landmark_25,Landmark_26,Landmark_27,Landmark_28,Landmark_29,Landmark_30,Landmark_31,Landmark_32,Landmark_33,Landmark_34,Landmark_35,Landmark_36,Landmark_37,Landmark_38,Landmark_39,Landmark_40,Landmark_41,Landmark_42,Landmark_43,Landmark_44,Landmark_45,Landmark_46,Landmark_47,Landmark_48,Landmark_49,Landmark_50,Landmark_51,Landmark_52,Landmark_53,Landmark_54,Landmark_55,Landmark_56,Landmark_57,Landmark_58,Landmark_59,Landmark_60,Landmark_61,Landmark_62,Landmark_63,Landmark_64,Landmark_65,Landmark_66,Landmark_67,EyeAspectRatio,MouthAspectRatio,LightIntensity,FaceWidthRatio,EyebrowHeight,LipsWidthRatio,LipsHeightRatio,EyeOpening,NoseWidthRatio,NoseHeightRatio,AvgRedForehead,AvgGreenForehead,AvgBlueForehead,AvgRedLips,AvgGreenLips,AvgBlueLips,AvgRedCheeks,AvgGreenCheeks,AvgBlueCheeks
0,589824,85,-56,-1,-1,0,"(1206, 491)","(1209, 524)","(1214, 557)","(1223, 588)","(1240, 617)","(1265, 640)","(1295, 658)","(1328, 670)","(1359, 671)","(1386, 663)","(1409, 644)","(1426, 618)","(1438, 591)","(1446, 561)","(1448, 533)","(1447, 505)","(1443, 478)","(1240, 473)","(1257, 459)","(1281, 452)","(1306, 453)","(1331, 462)","(1362, 463)","(1381, 452)","(1401, 447)","(1420, 448)","(1434, 459)","(1347, 489)","(1350, 509)","(1354, 529)","(1357, 549)","(1327, 564)","(1341, 569)","(1357, 572)","(1370, 566)","(1381, 558)","(1266, 496)","(1280, 489)","(1296, 488)","(1312, 495)","(1297, 500)","(1280, 501)","(1372, 490)","(1387, 482)","(1401, 480)","(1414, 485)","(1402, 492)","(1388, 493)","(1307, 603)","(1328, 594)","(1346, 589)","(1358, 591)","(1368, 587)","(1383, 589)","(1398, 594)","(1385, 612)","(1372, 621)","(1361, 624)","(1348, 623)","(1330, 618)","(1317, 603)","(1347, 600)","(1358, 600)","(1369, 598)","(1390, 596)","(1370, 606)","(1360, 608)","(1348, 608)",0.27,0.72,38.0,0.37,-0.08,0.38,0.03,-10.5,0.14,0.32,15.7,18.0,29.2,17.75,19.35,30.3,14.52,16.11,18.76
33,524288,85,-56,-1,-1,0,"(1160, 450)","(1154, 479)","(1149, 510)","(1149, 541)","(1155, 573)","(1167, 602)","(1186, 628)","(1210, 648)","(1240, 657)","(1273, 658)","(1305, 648)","(1333, 631)","(1356, 608)","(1372, 580)","(1380, 549)","(1387, 518)","(1391, 486)","(1180, 424)","(1195, 411)","(1216, 409)","(1237, 414)","(1256, 427)","(1287, 432)","(1310, 424)","(1334, 425)","(1356, 434)","(1368, 453)","(1267, 454)","(1262, 473)","(1257, 491)","(1252, 511)","(1228, 524)","(1239, 531)","(1252, 537)","(1266, 535)","(1280, 532)","(1200, 450)","(1213, 445)","(1227, 447)","(1239, 456)","(1225, 457)","(1211, 455)","(1298, 465)","(1314, 459)","(1328, 462)","(1340, 470)","(1326, 472)","(1312, 469)","(1205, 563)","(1221, 556)","(1238, 555)","(1250, 560)","(1264, 559)","(1284, 566)","(1305, 578)","(1283, 595)","(1262, 600)","(1247, 599)","(1233, 595)","(1218, 584)","(1213, 565)","(1237, 564)","(1250, 567)","(1263, 568)","(1297, 578)","(1263, 586)","(1249, 585)","(1236, 581)",0.24,1.0,37.0,0.34,0.14,0.43,0.05,-12.5,0.05,0.28,19.0,21.3,30.1,21.95,22.35,34.5,19.29,20.88,23.23
66,524288,85,-56,-1,-1,0,"(1158, 451)","(1151, 481)","(1147, 511)","(1148, 542)","(1154, 573)","(1167, 602)","(1186, 627)","(1211, 646)","(1240, 655)","(1272, 656)","(1303, 647)","(1331, 630)","(1354, 608)","(1370, 581)","(1379, 550)","(1385, 519)","(1390, 487)","(1181, 423)","(1196, 410)","(1217, 408)","(1239, 414)","(1258, 426)","(1289, 431)","(1311, 424)","(1335, 424)","(1356, 433)","(1368, 451)","(1268, 454)","(1263, 473)","(1258, 490)","(1253, 510)","(1229, 524)","(1241, 531)","(1253, 536)","(1267, 535)","(1281, 532)","(1200, 450)","(1213, 445)","(1227, 447)","(1240, 456)","(1225, 457)","(1211, 455)","(1299, 465)","(1314, 459)","(1329, 461)","(1340, 470)","(1327, 472)","(1313, 469)","(1206, 563)","(1222, 556)","(1239, 554)","(1251, 559)","(1265, 558)","(1284, 565)","(1304, 578)","(1283, 593)","(1262, 598)","(1248, 597)","(1235, 594)","(1219, 584)","(1214, 565)","(1238, 564)","(1250, 566)","(1264, 567)","(1296, 577)","(1263, 584)","(1250, 583)","(1237, 579)",0.25,0.98,37.0,0.34,0.14,0.42,0.05,-12.5,0.05,0.27,19.1,21.6,30.3,22.2,22.55,35.35,19.64,21.47,23.88
100,262144,85,-56,-1,-1,0,"(1161, 445)","(1154, 475)","(1150, 506)","(1150, 537)","(1156, 568)","(1168, 598)","(1187, 623)","(1211, 643)","(1240, 653)","(1272, 654)","(1304, 645)","(1332, 628)","(1354, 606)","(1371, 578)","(1380, 547)","(1387, 516)","(1391, 484)","(1181, 421)","(1196, 409)","(1217, 407)","(1239, 413)","(1258, 426)","(1289, 431)","(1312, 424)","(1336, 424)","(1357, 434)","(1370, 452)","(1268, 454)","(1263, 472)","(1258, 491)","(1253, 510)","(1229, 523)","(1240, 530)","(1253, 536)","(1267, 534)","(1281, 531)","(1201, 448)","(1214, 443)","(1228, 445)","(1241, 455)","(1226, 455)","(1212, 453)","(1300, 464)","(1316, 458)","(1330, 461)","(1342, 469)","(1329, 471)","(1314, 469)","(1207, 562)","(1222, 555)","(1239, 553)","(1251, 558)","(1265, 557)","(1285, 564)","(1305, 577)","(1283, 593)","(1263, 598)","(1248, 597)","(1235, 593)","(1219, 583)","(1214, 563)","(1238, 562)","(1250, 565)","(1264, 566)","(1297, 576)","(1264, 584)","(1250, 583)","(1237, 579)",0.25,1.01,37.0,0.35,0.15,0.42,0.05,-12.5,0.05,0.28,19.5,21.2,30.5,21.7,22.75,34.35,18.7,20.76,22.7
133,393216,85,-56,-1,-1,0,"(1161, 442)","(1154, 472)","(1150, 503)","(1149, 535)","(1155, 566)","(1168, 596)","(1187, 622)","(1211, 642)","(1241, 651)","(1272, 653)","(1304, 644)","(1331, 627)","(1353, 605)","(1370, 577)","(1379, 547)","(1386, 516)","(1392, 485)","(1184, 419)","(1200, 407)","(1221, 405)","(1243, 412)","(1262, 425)","(1292, 430)","(1315, 424)","(1338, 425)","(1359, 434)","(1371, 452)","(1272, 452)","(1267, 471)","(1262, 489)","(1257, 509)","(1233, 521)","(1244, 528)","(1256, 534)","(1270, 533)","(1284, 530)","(1204, 446)","(1217, 441)","(1231, 443)","(1244, 453)","(1229, 453)","(1215, 451)","(1302, 463)","(1318, 457)","(1332, 460)","(1344, 468)","(1331, 471)","(1316, 468)","(1208, 559)","(1224, 552)","(1242, 551)","(1254, 556)","(1268, 556)","(1287, 563)","(1306, 576)","(1285, 592)","(1265, 597)","(1250, 596)","(1237, 592)","(1221, 581)","(1216, 561)","(1240, 560)","(1253, 563)","(1267, 564)","(1298, 576)","(1266, 583)","(1252, 582)","(1239, 578)",0.26,0.97,37.0,0.35,0.17,0.42,0.05,-13.0,0.05,0.28,18.6,21.0,29.3,19.8,20.9,33.45,19.35,20.82,23.05
166,655360,85,-56,-1,-1,0,"(1160, 444)","(1154, 475)","(1149, 505)","(1149, 537)","(1156, 568)","(1169, 596)","(1189, 622)","(1214, 641)","(1243, 651)","(1275, 652)","(1306, 643)","(1333, 626)","(1356, 603)","(1372, 576)","(1381, 545)","(1388, 514)","(1393, 483)","(1183, 418)","(1199, 406)","(1220, 404)","(1242, 411)","(1261, 423)","(1292, 429)","(1314, 422)","(1338, 423)","(1359, 432)","(1371, 450)","(1272, 452)","(1267, 470)","(1262, 488)","(1258, 508)","(1233, 522)","(1245, 528)","(1257, 534)","(1271, 533)","(1284, 530)","(1203, 446)","(1217, 441)","(1231, 443)","(1243, 453)","(1229, 453)","(1214, 451)","(1302, 462)","(1318, 457)","(1332, 459)","(1344, 468)","(1331, 470)","(1316, 467)","(1210, 560)","(1226, 553)","(1243, 551)","(1255, 556)","(1269, 555)","(1288, 563)","(1307, 576)","(1287, 592)","(1266, 597)","(1252, 596)","(1238, 592)","(1223, 581)","(1218, 562)","(1242, 561)","(1254, 564)","(1268, 565)","(1299, 575)","(1267, 582)","(1254, 581)","(1241, 577)",0.25,0.98,37.0,0.35,0.16,0.41,0.05,-12.5,0.05,0.28,20.1,22.6,30.8,21.35,22.4,34.3,18.76,20.58,22.76
200,262144,85,-56,-1,-1,0,"(1158, 447)","(1153, 477)","(1150, 508)","(1150, 539)","(1158, 570)","(1172, 598)","(1192, 623)","(1217, 641)","(1247, 650)","(1278, 650)","(1309, 640)","(1335, 623)","(1356, 601)","(1371, 573)","(1380, 543)","(1386, 512)","(1390, 481)","(1184, 421)","(1200, 407)","(1222, 405)","(1244, 411)","(1263, 423)","(1293, 428)","(1314, 421)","(1337, 421)","(1358, 430)","(1370, 448)","(1273, 451)","(1269, 469)","(1265, 487)","(1261, 506)","(1236, 520)","(1248, 527)","(1260, 532)","(1274, 530)","(1287, 527)","(1205, 447)","(1218, 442)","(1232, 444)","(1245, 453)","(1231, 453)","(1217, 451)","(1303, 461)","(1318, 456)","(1332, 458)","(1344, 466)","(1331, 468)","(1317, 465)","(1212, 559)","(1229, 552)","(1246, 550)","(1258, 555)","(1272, 554)","(1291, 561)","(1309, 573)","(1289, 589)","(1270, 594)","(1255, 593)","(1242, 590)","(1226, 579)","(1220, 560)","(1245, 559)","(1258, 562)","(1271, 563)","(1301, 573)","(1271, 580)","(1257, 579)","(1244, 575)",0.23,0.94,37.0,0.34,0.13,0.41,0.05,-11.5,0.06,0.27,21.1,24.2,33.3,20.55,20.8,33.3,19.52,21.52,23.47
233,-4784128,85,-56,-1,-1,0,"(1159, 448)","(1154, 478)","(1151, 509)","(1152, 539)","(1160, 570)","(1175, 597)","(1195, 622)","(1220, 640)","(1249, 649)","(1280, 649)","(1310, 638)","(1336, 621)","(1357, 599)","(1372, 571)","(1381, 541)","(1387, 511)","(1390, 480)","(1186, 422)","(1201, 409)","(1222, 406)","(1244, 412)","(1263, 424)","(1294, 429)","(1315, 421)","(1337, 421)","(1358, 429)","(1369, 447)","(1274, 452)","(1270, 470)","(1266, 488)","(1262, 507)","(1238, 521)","(1249, 528)","(1261, 533)","(1275, 531)","(1288, 528)","(1205, 449)","(1219, 444)","(1233, 445)","(1245, 454)","(1231, 455)","(1217, 454)","(1303, 462)","(1318, 456)","(1333, 458)","(1344, 466)","(1331, 468)","(1317, 466)","(1215, 561)","(1231, 553)","(1248, 551)","(1260, 555)","(1273, 554)","(1291, 561)","(1310, 573)","(1290, 589)","(1270, 595)","(1257, 594)","(1244, 591)","(1229, 581)","(1223, 562)","(1247, 560)","(1259, 563)","(1272, 563)","(1302, 573)","(1271, 580)","(1258, 580)","(1246, 576)",0.24,0.94,37.0,0.34,0.12,0.41,0.04,-11.5,0.06,0.27,20.1,22.4,31.4,21.2,21.75,34.3,18.52,20.58,23.23
266,786432,85,-56,-1,-1,0,"(1159, 444)","(1153, 474)","(1150, 505)","(1151, 536)","(1159, 567)","(1174, 595)","(1194, 620)","(1219, 639)","(1249, 648)","(1279, 648)","(1309, 638)","(1336, 621)","(1357, 598)","(1372, 571)","(1381, 541)","(1387, 510)","(1391, 480)","(1186, 420)","(1202, 408)","(1223, 406)","(1245, 411)","(1265, 424)","(1295, 429)","(1316, 422)","(1339, 422)","(1359, 430)","(1370, 446)","(1275, 451)","(1271, 469)","(1267, 487)","(1263, 506)","(1238, 520)","(1250, 527)","(1262, 532)","(1276, 531)","(1289, 527)","(1206, 447)","(1220, 442)","(1234, 444)","(1246, 453)","(1232, 454)","(1218, 452)","(1304, 461)","(1319, 455)","(1334, 457)","(1345, 465)","(1332, 467)","(1318, 465)","(1215, 559)","(1231, 552)","(1248, 550)","(1261, 554)","(1273, 554)","(1292, 560)","(1310, 573)","(1290, 589)","(1271, 594)","(1257, 593)","(1244, 590)","(1228, 579)","(1222, 560)","(1248, 559)","(1260, 562)","(1273, 563)","(1302, 572)","(1272, 579)","(1259, 579)","(1246, 575)",0.24,0.95,37.0,0.34,0.13,0.4,0.04,-12.0,0.06,0.27,18.7,21.6,30.1,21.2,21.95,33.9,19.23,21.41,23.0
300,131072,85,-56,-1,-1,0,"(1158, 447)","(1153, 477)","(1151, 507)","(1152, 538)","(1160, 568)","(1175, 596)","(1196, 620)","(1222, 638)","(1252, 646)","(1282, 646)","(1311, 636)","(1336, 619)","(1356, 596)","(1371, 569)","(1379, 540)","(1385, 510)","(1388, 480)","(1187, 421)","(1203, 408)","(1225, 405)","(1247, 411)","(1267, 423)","(1298, 428)","(1319, 421)","(1340, 421)","(1360, 429)","(1371, 446)","(1278, 450)","(1275, 468)","(1271, 485)","(1268, 504)","(1242, 519)","(1254, 525)","(1266, 531)","(1280, 529)","(1292, 526)","(1207, 448)","(1221, 443)","(1235, 444)","(1248, 453)","(1234, 454)","(1220, 452)","(1306, 460)","(1322, 455)","(1336, 457)","(1347, 465)","(1334, 467)","(1320, 465)","(1217, 559)","(1235, 551)","(1252, 549)","(1264, 553)","(1277, 552)","(1295, 559)","(1312, 571)","(1293, 586)","(1275, 591)","(1261, 591)","(1248, 588)","(1232, 578)","(1225, 560)","(1251, 558)","(1263, 560)","(1276, 561)","(1304, 571)","(1275, 577)","(1263, 577)","(1250, 573)",0.24,0.9,37.0,0.35,0.13,0.41,0.05,-11.5,0.06,0.27,19.5,22.1,30.2,18.95,20.05,32.65,19.11,21.52,24.0
333,-458752,85,-56,-1,-1,0,"(1157, 445)","(1152, 476)","(1149, 507)","(1151, 538)","(1159, 568)","(1174, 596)","(1196, 620)","(1223, 637)","(1253, 645)","(1283, 645)","(1312, 634)","(1336, 617)","(1355, 594)","(1369, 567)","(1377, 538)","(1383, 509)","(1386, 480)","(1187, 420)","(1204, 408)","(1226, 406)","(1248, 412)","(1268, 424)","(1298, 429)","(1318, 422)","(1340, 422)","(1359, 429)","(1370, 446)","(1279, 451)","(1276, 469)","(1273, 486)","(1270, 505)","(1243, 520)","(1255, 527)","(1267, 532)","(1281, 530)","(1293, 527)","(1207, 447)","(1221, 443)","(1235, 444)","(1248, 453)","(1234, 454)","(1219, 452)","(1305, 461)","(1320, 455)","(1335, 457)","(1346, 465)","(1333, 467)","(1319, 465)","(1217, 559)","(1235, 551)","(1253, 549)","(1265, 554)","(1278, 553)","(1295, 560)","(1312, 572)","(1293, 587)","(1275, 592)","(1261, 591)","(1248, 588)","(1232, 578)","(1225, 560)","(1252, 559)","(1264, 561)","(1277, 562)","(1304, 571)","(1276, 578)","(1263, 577)","(1250, 574)",0.24,0.88,37.0,0.35,0.13,0.41,0.05,-11.5,0.06,0.27,17.7,20.8,28.7,21.0,21.7,33.7,20.29,21.88,24.76
366,-1376256,85,-56,-1,-1,0,"(1158, 440)","(1153, 471)","(1150, 503)","(1152, 534)","(1160, 565)","(1175, 593)","(1196, 618)","(1223, 636)","(1253, 644)","(1283, 644)","(1312, 633)","(1336, 616)","(1356, 593)","(1370, 567)","(1378, 538)","(1384, 508)","(1387, 479)","(1190, 418)","(1207, 407)","(1229, 405)","(1252, 411)","(1271, 424)","(1301, 429)","(1321, 422)","(1343, 422)","(1362, 430)","(1372, 446)","(1282, 451)","(1278, 468)","(1275, 485)","(1272, 504)","(1245, 519)","(1257, 525)","(1269, 530)","(1283, 529)","(1295, 525)","(1210, 445)","(1224, 440)","(1238, 442)","(1251, 452)","(1237, 453)","(1222, 451)","(1307, 460)","(1322, 454)","(1337, 456)","(1348, 465)","(1336, 467)","(1321, 465)","(1219, 558)","(1237, 550)","(1255, 548)","(1267, 552)","(1279, 552)","(1296, 558)","(1312, 571)","(1294, 586)","(1276, 590)","(1263, 590)","(1250, 587)","(1234, 577)","(1227, 559)","(1254, 557)","(1266, 560)","(1278, 561)","(1305, 570)","(1277, 577)","(1265, 576)","(1252, 573)",0.26,0.87,37.0,0.35,0.15,0.4,0.04,-13.0,0.05,0.27,17.2,21.1,28.3,20.5,21.45,33.3,19.76,22.17,25.0
400,-2752512,85,-56,-1,-1,0,"(1156, 443)","(1151, 474)","(1148, 506)","(1150, 537)","(1158, 568)","(1174, 596)","(1196, 619)","(1224, 636)","(1255, 644)","(1286, 643)","(1314, 632)","(1338, 615)","(1356, 592)","(1369, 565)","(1377, 537)","(1382, 508)","(1385, 479)","(1189, 420)","(1206, 407)","(1229, 404)","(1252, 410)","(1272, 422)","(1301, 427)","(1321, 420)","(1343, 420)","(1362, 429)","(1372, 446)","(1283, 449)","(1280, 467)","(1278, 484)","(1275, 503)","(1247, 518)","(1259, 524)","(1272, 530)","(1285, 528)","(1298, 524)","(1210, 446)","(1224, 440)","(1238, 442)","(1251, 451)","(1237, 452)","(1222, 451)","(1308, 459)","(1323, 453)","(1337, 455)","(1348, 463)","(1336, 466)","(1322, 464)","(1220, 557)","(1239, 549)","(1257, 547)","(1269, 552)","(1282, 551)","(1299, 557)","(1315, 569)","(1297, 584)","(1279, 588)","(1265, 588)","(1252, 585)","(1235, 575)","(1227, 558)","(1256, 557)","(1268, 559)","(1281, 560)","(1307, 569)","(1280, 575)","(1267, 574)","(1254, 571)",0.27,0.85,37.0,0.35,0.14,0.41,0.04,-12.5,0.06,0.27,18.4,21.5,29.6,20.2,21.3,33.8,19.58,21.0,24.11
433,-983040,85,-56,-1,-1,0,"(1180, 442)","(1174, 470)","(1171, 499)","(1171, 529)","(1177, 559)","(1189, 587)","(1206, 612)","(1229, 631)","(1257, 641)","(1287, 642)","(1319, 633)","(1347, 617)","(1371, 596)","(1388, 570)","(1398, 540)","(1405, 509)","(1410, 477)","(1199, 420)","(1213, 407)","(1233, 405)","(1254, 410)","(1273, 422)","(1303, 426)","(1326, 419)","(1349, 420)","(1371, 429)","(1384, 446)","(1283, 448)","(1278, 466)","(1273, 484)","(1268, 503)","(1246, 516)","(1257, 523)","(1268, 528)","(1282, 527)","(1296, 524)","(1218, 445)","(1230, 440)","(1244, 442)","(1257, 451)","(1243, 452)","(1229, 450)","(1315, 458)","(1329, 453)","(1344, 456)","(1356, 463)","(1342, 466)","(1328, 464)","(1225, 555)","(1240, 548)","(1255, 546)","(1267, 551)","(1279, 550)","(1298, 557)","(1317, 569)","(1296, 583)","(1277, 588)","(1263, 587)","(1251, 584)","(1237, 574)","(1233, 556)","(1254, 555)","(1266, 558)","(1278, 559)","(1309, 568)","(1278, 574)","(1265, 573)","(1253, 569)",0.25,1.0,37.0,0.34,0.13,0.4,0.04,-12.5,0.05,0.28,15.1,17.8,26.3,19.6,20.65,32.2,16.23,18.0,20.17
466,262144,85,-56,-1,-1,0,"(1202, 445)","(1195, 471)","(1192, 498)","(1191, 526)","(1196, 554)","(1206, 581)","(1219, 605)","(1238, 625)","(1264, 635)","(1294, 635)","(1322, 624)","(1348, 608)","(1369, 586)","(1384, 561)","(1394, 532)","(1400, 503)","(1403, 473)","(1215, 421)","(1226, 409)","(1243, 407)","(1260, 412)","(1276, 423)","(1305, 427)","(1325, 419)","(1346, 419)","(1366, 427)","(1379, 444)","(1286, 449)","(1281, 466)","(1276, 484)","(1271, 502)","(1252, 514)","(1261, 521)","(1272, 526)","(1286, 524)","(1298, 521)","(1230, 445)","(1241, 441)","(1253, 442)","(1264, 450)","(1251, 451)","(1239, 449)","(1316, 457)","(1330, 452)","(1343, 454)","(1354, 462)","(1341, 464)","(1328, 462)","(1233, 552)","(1245, 545)","(1260, 544)","(1271, 548)","(1283, 547)","(1301, 553)","(1319, 565)","(1300, 580)","(1282, 585)","(1269, 585)","(1256, 581)","(1243, 571)","(1240, 554)","(1259, 553)","(1270, 556)","(1283, 556)","(1312, 564)","(1283, 571)","(1270, 570)","(1259, 567)",0.26,1.04,37.0,0.35,0.12,0.42,0.05,-11.0,0.05,0.28,16.4,19.8,27.7,17.9,19.05,30.75,11.64,14.41,19.29
500,262144,85,-56,-1,-1,0,"(1202, 446)","(1196, 472)","(1192, 499)","(1192, 527)","(1197, 554)","(1207, 580)","(1222, 604)","(1241, 623)","(1267, 631)","(1296, 631)","(1325, 621)","(1350, 605)","(1371, 584)","(1386, 559)","(1395, 530)","(1400, 502)","(1404, 472)","(1216, 420)","(1227, 409)","(1244, 407)","(1262, 412)","(1277, 423)","(1306, 427)","(1325, 420)","(1346, 420)","(1366, 427)","(1378, 443)","(1287, 449)","(1283, 466)","(1278, 483)","(1273, 500)","(1254, 514)","(1263, 519)","(1274, 524)","(1287, 523)","(1299, 520)","(1232, 445)","(1243, 440)","(1255, 442)","(1266, 450)","(1253, 451)","(1241, 449)","(1317, 457)","(1331, 452)","(1344, 454)","(1354, 461)","(1342, 464)","(1329, 462)","(1235, 551)","(1248, 544)","(1262, 542)","(1273, 546)","(1285, 545)","(1303, 551)","(1320, 563)","(1302, 577)","(1284, 582)","(1271, 582)","(1259, 579)","(1246, 569)","(1242, 552)","(1261, 552)","(1272, 554)","(1284, 555)","(1313, 562)","(1285, 568)","(1272, 568)","(1261, 565)",0.27,1.02,37.0,0.35,0.13,0.42,0.04,-11.5,0.05,0.28,14.8,18.0,26.1,17.2,17.25,29.8,11.76,14.64,20.0
533,458752,85,-56,-1,-1,0,"(1203, 447)","(1196, 472)","(1193, 499)","(1192, 527)","(1198, 555)","(1208, 581)","(1222, 605)","(1241, 625)","(1267, 634)","(1296, 634)","(1324, 624)","(1349, 607)","(1370, 586)","(1385, 561)","(1394, 533)","(1400, 504)","(1403, 475)","(1218, 419)","(1229, 408)","(1246, 405)","(1264, 410)","(1279, 421)","(1307, 425)","(1327, 418)","(1347, 418)","(1367, 426)","(1379, 442)","(1288, 447)","(1284, 464)","(1279, 480)","(1274, 498)","(1255, 512)","(1265, 518)","(1275, 523)","(1288, 521)","(1300, 519)","(1234, 443)","(1244, 439)","(1256, 440)","(1267, 449)","(1255, 450)","(1243, 448)","(1318, 456)","(1331, 450)","(1344, 452)","(1355, 460)","(1343, 462)","(1330, 460)","(1236, 551)","(1248, 543)","(1263, 541)","(1274, 546)","(1285, 545)","(1303, 551)","(1320, 563)","(1302, 578)","(1284, 583)","(1271, 583)","(1259, 579)","(1246, 570)","(1243, 552)","(1262, 551)","(1273, 553)","(1285, 554)","(1313, 563)","(1285, 569)","(1273, 568)","(1262, 565)",0.27,1.04,37.0,0.35,0.13,0.42,0.05,-11.5,0.06,0.27,16.3,18.9,28.5,17.75,18.4,30.3,13.17,16.0,20.47
566,524288,85,-56,-1,-1,0,"(1200, 445)","(1194, 471)","(1191, 498)","(1192, 526)","(1198, 554)","(1208, 580)","(1224, 604)","(1243, 623)","(1269, 632)","(1297, 632)","(1325, 621)","(1349, 605)","(1369, 583)","(1385, 558)","(1394, 530)","(1400, 501)","(1403, 472)","(1217, 418)","(1228, 406)","(1246, 404)","(1264, 408)","(1280, 419)","(1308, 423)","(1327, 416)","(1348, 416)","(1368, 424)","(1380, 440)","(1289, 444)","(1285, 461)","(1281, 478)","(1276, 496)","(1256, 510)","(1266, 516)","(1277, 521)","(1290, 519)","(1302, 517)","(1233, 441)","(1244, 437)","(1256, 438)","(1267, 446)","(1254, 447)","(1242, 446)","(1318, 453)","(1332, 447)","(1345, 449)","(1356, 457)","(1343, 459)","(1330, 457)","(1237, 549)","(1250, 542)","(1264, 539)","(1275, 544)","(1287, 542)","(1304, 549)","(1321, 561)","(1303, 576)","(1285, 581)","(1273, 581)","(1261, 578)","(1247, 568)","(1243, 550)","(1263, 549)","(1274, 551)","(1286, 552)","(1314, 561)","(1286, 567)","(1274, 566)","(1263, 563)",0.26,1.01,37.0,0.35,0.12,0.41,0.05,-11.0,0.06,0.27,18.0,20.3,29.6,16.7,17.45,29.5,10.41,12.76,17.05
600,327680,85,-56,-1,-1,0,"(1202, 441)","(1196, 468)","(1193, 495)","(1193, 523)","(1199, 550)","(1210, 576)","(1225, 600)","(1244, 619)","(1269, 627)","(1297, 628)","(1325, 618)","(1349, 602)","(1369, 581)","(1385, 556)","(1395, 528)","(1401, 499)","(1405, 470)","(1219, 415)","(1231, 405)","(1248, 403)","(1266, 408)","(1281, 418)","(1309, 422)","(1328, 416)","(1349, 416)","(1369, 423)","(1381, 439)","(1290, 444)","(1286, 461)","(1281, 477)","(1277, 495)","(1258, 509)","(1267, 515)","(1277, 519)","(1290, 518)","(1302, 516)","(1235, 440)","(1245, 435)","(1258, 437)","(1269, 445)","(1256, 446)","(1244, 445)","(1319, 452)","(1333, 447)","(1346, 449)","(1357, 456)","(1344, 459)","(1331, 457)","(1239, 548)","(1251, 540)","(1265, 538)","(1276, 542)","(1287, 541)","(1304, 548)","(1321, 560)","(1303, 574)","(1286, 579)","(1273, 578)","(1262, 575)","(1249, 565)","(1245, 549)","(1265, 547)","(1275, 550)","(1287, 550)","(1314, 559)","(1287, 564)","(1275, 564)","(1264, 561)",0.26,1.03,37.0,0.35,0.13,0.4,0.04,-11.5,0.05,0.27,17.3,20.0,28.5,16.95,17.75,30.1,12.0,14.41,19.7
633,327680,85,-56,-1,-1,0,"(1201, 442)","(1196, 469)","(1193, 496)","(1194, 524)","(1201, 551)","(1212, 577)","(1227, 600)","(1247, 618)","(1272, 626)","(1299, 626)","(1326, 616)","(1350, 599)","(1370, 578)","(1385, 554)","(1394, 526)","(1400, 497)","(1403, 469)","(1219, 416)","(1230, 405)","(1248, 403)","(1266, 407)","(1282, 418)","(1310, 422)","(1329, 415)","(1349, 415)","(1368, 422)","(1380, 438)","(1292, 443)","(1287, 460)","(1283, 476)","(1279, 494)","(1259, 507)","(1268, 513)","(1279, 518)","(1292, 516)","(1304, 514)","(1235, 440)","(1246, 436)","(1258, 437)","(1269, 445)","(1256, 446)","(1244, 445)","(1320, 452)","(1333, 446)","(1346, 448)","(1356, 455)","(1345, 457)","(1332, 456)","(1239, 546)","(1252, 538)","(1267, 536)","(1277, 540)","(1289, 539)","(1306, 545)","(1323, 557)","(1305, 573)","(1288, 578)","(1275, 578)","(1263, 575)","(1250, 565)","(1246, 547)","(1266, 545)","(1277, 548)","(1289, 548)","(1316, 557)","(1288, 564)","(1277, 563)","(1265, 560)",0.26,1.0,37.0,0.34,0.12,0.41,0.05,-10.5,0.05,0.27,15.6,18.6,27.3,16.55,17.65,29.1,12.05,14.94,18.94
666,327680,85,-56,-1,-1,0,"(1198, 444)","(1193, 471)","(1192, 498)","(1193, 526)","(1201, 553)","(1213, 578)","(1230, 601)","(1250, 619)","(1275, 627)","(1303, 626)","(1329, 615)","(1352, 598)","(1371, 577)","(1386, 552)","(1394, 524)","(1399, 496)","(1402, 467)","(1217, 417)","(1229, 405)","(1247, 402)","(1265, 405)","(1282, 415)","(1311, 419)","(1329, 413)","(1349, 412)","(1368, 420)","(1380, 435)","(1292, 441)","(1289, 458)","(1285, 475)","(1281, 492)","(1261, 507)","(1271, 512)","(1282, 517)","(1294, 515)","(1306, 512)","(1234, 440)","(1245, 435)","(1258, 436)","(1269, 444)","(1256, 445)","(1244, 444)","(1320, 450)","(1333, 444)","(1346, 445)","(1356, 452)","(1345, 455)","(1332, 453)","(1241, 545)","(1255, 538)","(1269, 535)","(1280, 539)","(1292, 538)","(1309, 544)","(1326, 556)","(1308, 571)","(1291, 577)","(1278, 576)","(1266, 574)","(1253, 564)","(1248, 546)","(1269, 544)","(1280, 547)","(1291, 547)","(1319, 556)","(1291, 562)","(1280, 562)","(1268, 559)",0.26,0.98,37.0,0.34,0.09,0.41,0.05,-10.5,0.06,0.27,15.6,19.2,27.0,15.6,16.55,28.9,9.17,12.17,14.76
700,327680,85,-56,-1,-1,0,"(1198, 442)","(1193, 469)","(1192, 497)","(1193, 525)","(1201, 552)","(1213, 577)","(1229, 599)","(1250, 617)","(1275, 625)","(1303, 624)","(1329, 613)","(1352, 597)","(1372, 576)","(1386, 552)","(1394, 524)","(1400, 495)","(1403, 467)","(1217, 417)","(1229, 405)","(1247, 401)","(1266, 405)","(1283, 415)","(1313, 419)","(1332, 412)","(1352, 412)","(1371, 420)","(1382, 435)","(1294, 441)","(1290, 458)","(1286, 474)","(1283, 492)","(1263, 506)","(1272, 511)","(1283, 516)","(1295, 514)","(1307, 511)","(1235, 439)","(1246, 434)","(1259, 435)","(1270, 444)","(1257, 445)","(1244, 444)","(1321, 450)","(1335, 444)","(1348, 445)","(1358, 452)","(1347, 455)","(1334, 454)","(1242, 545)","(1255, 537)","(1270, 534)","(1281, 538)","(1292, 536)","(1309, 543)","(1325, 555)","(1309, 570)","(1291, 576)","(1279, 576)","(1267, 573)","(1253, 563)","(1249, 545)","(1270, 543)","(1280, 545)","(1292, 546)","(1318, 554)","(1292, 562)","(1280, 561)","(1269, 559)",0.27,0.98,37.0,0.35,0.09,0.4,0.05,-11.0,0.06,0.27,14.9,18.9,26.0,15.85,17.35,28.45,10.0,12.64,15.64
733,655360,85,-56,-1,-1,0,"(1198, 442)","(1194, 470)","(1193, 497)","(1195, 525)","(1202, 552)","(1215, 577)","(1231, 599)","(1252, 617)","(1277, 624)","(1305, 623)","(1330, 612)","(1353, 595)","(1372, 574)","(1386, 550)","(1394, 522)","(1400, 494)","(1403, 466)","(1218, 416)","(1230, 404)","(1249, 400)","(1268, 404)","(1285, 414)","(1314, 418)","(1333, 411)","(1352, 411)","(1371, 418)","(1382, 434)","(1295, 440)","(1292, 456)","(1288, 473)","(1285, 490)","(1264, 505)","(1274, 510)","(1285, 514)","(1297, 513)","(1309, 510)","(1236, 438)","(1247, 433)","(1260, 434)","(1271, 443)","(1258, 444)","(1245, 442)","(1322, 448)","(1335, 442)","(1348, 443)","(1359, 451)","(1347, 453)","(1334, 452)","(1243, 544)","(1257, 536)","(1272, 533)","(1283, 537)","(1295, 536)","(1311, 542)","(1327, 553)","(1310, 568)","(1294, 574)","(1281, 574)","(1269, 571)","(1255, 562)","(1250, 545)","(1271, 542)","(1283, 544)","(1294, 545)","(1320, 553)","(1294, 560)","(1283, 560)","(1271, 557)",0.27,0.94,37.0,0.35,0.09,0.4,0.05,-11.0,0.06,0.27,14.7,17.7,25.9,16.1,16.7,28.55,9.94,12.11,15.41
766,720896,85,-56,-1,-1,0,"(1199, 443)","(1195, 470)","(1193, 497)","(1195, 525)","(1203, 552)","(1216, 577)","(1233, 598)","(1254, 616)","(1279, 623)","(1306, 622)","(1332, 610)","(1354, 594)","(1372, 573)","(1386, 549)","(1395, 522)","(1400, 494)","(1403, 466)","(1220, 415)","(1232, 403)","(1251, 400)","(1270, 403)","(1287, 414)","(1315, 418)","(1333, 412)","(1353, 411)","(1371, 418)","(1382, 433)","(1297, 439)","(1294, 456)","(1290, 473)","(1287, 490)","(1266, 505)","(1276, 510)","(1287, 514)","(1299, 512)","(1310, 510)","(1237, 437)","(1248, 432)","(1261, 433)","(1272, 442)","(1259, 443)","(1247, 442)","(1323, 448)","(1336, 441)","(1349, 443)","(1360, 450)","(1348, 453)","(1335, 452)","(1245, 543)","(1259, 535)","(1274, 532)","(1285, 536)","(1296, 535)","(1313, 541)","(1329, 553)","(1312, 568)","(1295, 573)","(1283, 573)","(1271, 570)","(1257, 561)","(1252, 544)","(1273, 541)","(1284, 543)","(1296, 544)","(1322, 552)","(1296, 559)","(1284, 559)","(1273, 556)",0.28,0.96,37.0,0.35,0.1,0.41,0.05,-11.5,0.06,0.27,14.3,17.5,26.3,14.75,15.75,26.95,10.0,12.64,16.35
800,-7733248,86,-56,-1,-1,0,"(1216, 442)","(1211, 468)","(1208, 494)","(1209, 521)","(1214, 547)","(1224, 572)","(1237, 595)","(1254, 614)","(1279, 622)","(1307, 623)","(1336, 613)","(1362, 599)","(1385, 579)","(1401, 554)","(1411, 525)","(1417, 496)","(1420, 466)","(1230, 413)","(1240, 401)","(1256, 398)","(1273, 403)","(1288, 413)","(1317, 416)","(1337, 409)","(1358, 410)","(1377, 418)","(1390, 433)","(1298, 438)","(1294, 455)","(1289, 471)","(1284, 489)","(1266, 503)","(1275, 508)","(1285, 513)","(1298, 511)","(1310, 509)","(1245, 436)","(1255, 431)","(1267, 433)","(1278, 441)","(1265, 442)","(1254, 441)","(1329, 447)","(1341, 441)","(1354, 443)","(1365, 450)","(1353, 453)","(1340, 451)","(1249, 541)","(1260, 534)","(1274, 532)","(1285, 536)","(1296, 535)","(1314, 541)","(1333, 553)","(1313, 567)","(1295, 573)","(1282, 572)","(1270, 569)","(1258, 560)","(1255, 543)","(1273, 541)","(1284, 543)","(1296, 544)","(1325, 553)","(1295, 558)","(1283, 558)","(1272, 555)",0.27,1.08,37.0,0.33,0.11,0.41,0.05,-11.5,0.05,0.27,16.0,19.1,28.5,16.55,18.65,30.05,8.7,12.0,16.11
833,1572864,86,-56,-1,-1,0,"(1200, 442)","(1196, 469)","(1195, 497)","(1197, 525)","(1205, 552)","(1217, 576)","(1235, 598)","(1256, 614)","(1282, 621)","(1309, 620)","(1334, 609)","(1357, 593)","(1375, 573)","(1389, 549)","(1397, 521)","(1402, 493)","(1404, 466)","(1221, 415)","(1234, 402)","(1252, 399)","(1272, 403)","(1289, 413)","(1317, 417)","(1335, 411)","(1355, 410)","(1373, 417)","(1384, 433)","(1299, 438)","(1296, 455)","(1293, 471)","(1290, 488)","(1268, 503)","(1278, 508)","(1289, 512)","(1301, 511)","(1313, 508)","(1239, 437)","(1250, 432)","(1263, 433)","(1274, 441)","(1261, 442)","(1249, 441)","(1326, 447)","(1339, 441)","(1352, 443)","(1362, 450)","(1351, 452)","(1338, 451)","(1247, 542)","(1261, 534)","(1277, 531)","(1288, 535)","(1299, 533)","(1316, 540)","(1332, 551)","(1315, 566)","(1298, 571)","(1286, 571)","(1274, 568)","(1259, 559)","(1254, 543)","(1276, 540)","(1287, 542)","(1299, 542)","(1325, 551)","(1299, 557)","(1287, 557)","(1275, 554)",0.26,0.94,37.0,0.34,0.1,0.41,0.05,-10.5,0.06,0.27,14.3,16.7,25.3,14.65,15.75,27.3,10.05,12.88,15.47
866,524288,86,-56,-1,-1,0,"(1218, 441)","(1212, 466)","(1209, 493)","(1209, 519)","(1214, 546)","(1224, 570)","(1237, 593)","(1255, 611)","(1279, 619)","(1307, 620)","(1336, 611)","(1362, 597)","(1385, 578)","(1402, 554)","(1411, 526)","(1417, 496)","(1421, 467)","(1232, 412)","(1242, 401)","(1259, 398)","(1275, 402)","(1290, 412)","(1320, 416)","(1339, 410)","(1360, 410)","(1379, 417)","(1392, 432)","(1300, 438)","(1295, 455)","(1290, 471)","(1285, 489)","(1268, 503)","(1277, 508)","(1287, 513)","(1299, 511)","(1311, 509)","(1247, 436)","(1257, 430)","(1269, 432)","(1280, 441)","(1267, 442)","(1255, 440)","(1331, 447)","(1343, 441)","(1356, 442)","(1367, 450)","(1355, 453)","(1342, 451)","(1250, 540)","(1261, 533)","(1275, 531)","(1286, 535)","(1297, 534)","(1315, 541)","(1333, 552)","(1314, 566)","(1295, 571)","(1283, 570)","(1271, 567)","(1259, 558)","(1256, 542)","(1274, 540)","(1285, 542)","(1297, 543)","(1326, 552)","(1296, 557)","(1285, 556)","(1274, 553)",0.29,1.08,37.0,0.33,0.1,0.4,0.05,-12.0,0.05,0.28,17.2,18.4,27.2,17.05,17.5,28.55,9.64,12.35,17.7
900,0,86,-56,-1,-1,0,"(1218, 441)","(1213, 466)","(1210, 492)","(1210, 518)","(1215, 545)","(1224, 570)","(1237, 593)","(1255, 611)","(1279, 620)","(1308, 621)","(1336, 612)","(1363, 597)","(1385, 578)","(1402, 554)","(1411, 526)","(1418, 497)","(1422, 467)","(1232, 412)","(1242, 400)","(1259, 397)","(1276, 402)","(1291, 412)","(1320, 415)","(1340, 409)","(1361, 409)","(1380, 417)","(1393, 433)","(1301, 437)","(1296, 454)","(1291, 470)","(1286, 488)","(1268, 502)","(1277, 507)","(1287, 512)","(1300, 510)","(1312, 508)","(1247, 435)","(1257, 429)","(1269, 431)","(1280, 440)","(1268, 441)","(1256, 440)","(1331, 446)","(1344, 440)","(1357, 442)","(1368, 450)","(1356, 452)","(1343, 450)","(1250, 540)","(1262, 533)","(1276, 530)","(1286, 534)","(1298, 533)","(1316, 540)","(1334, 552)","(1314, 566)","(1296, 571)","(1284, 570)","(1272, 567)","(1260, 558)","(1256, 541)","(1275, 539)","(1286, 542)","(1297, 543)","(1326, 551)","(1297, 557)","(1285, 556)","(1274, 553)",0.27,1.05,37.0,0.34,0.11,0.41,0.04,-12.0,0.05,0.27,18.3,20.3,28.9,15.95,17.0,28.7,9.47,12.58,16.82
933,-720896,86,-56,-1,-1,0,"(1201, 441)","(1197, 468)","(1196, 496)","(1198, 524)","(1206, 550)","(1220, 574)","(1237, 596)","(1258, 612)","(1284, 618)","(1311, 617)","(1337, 606)","(1358, 590)","(1376, 569)","(1389, 545)","(1397, 518)","(1402, 490)","(1404, 463)","(1222, 415)","(1235, 403)","(1253, 400)","(1273, 403)","(1290, 413)","(1318, 418)","(1336, 411)","(1356, 411)","(1374, 417)","(1385, 432)","(1300, 439)","(1297, 455)","(1295, 471)","(1292, 489)","(1271, 504)","(1280, 509)","(1291, 513)","(1304, 511)","(1315, 508)","(1240, 437)","(1251, 432)","(1264, 433)","(1275, 442)","(1262, 443)","(1250, 442)","(1327, 447)","(1340, 441)","(1353, 442)","(1363, 449)","(1352, 452)","(1339, 451)","(1250, 541)","(1264, 534)","(1279, 531)","(1290, 535)","(1301, 534)","(1317, 540)","(1334, 551)","(1317, 565)","(1300, 570)","(1288, 570)","(1276, 567)","(1262, 558)","(1256, 542)","(1278, 540)","(1289, 542)","(1301, 542)","(1326, 550)","(1301, 556)","(1289, 556)","(1278, 553)",0.27,0.95,37.0,0.34,0.08,0.41,0.05,-11.0,0.07,0.27,13.6,16.6,24.2,13.9,15.1,26.9,9.05,11.76,14.82
966,-2228224,86,-56,-1,-1,0,"(1203, 441)","(1199, 467)","(1197, 495)","(1199, 522)","(1207, 549)","(1219, 573)","(1236, 595)","(1257, 611)","(1282, 618)","(1309, 618)","(1334, 607)","(1356, 592)","(1374, 571)","(1388, 548)","(1396, 521)","(1402, 494)","(1405, 467)","(1224, 414)","(1237, 402)","(1255, 399)","(1274, 403)","(1291, 413)","(1320, 418)","(1338, 411)","(1358, 411)","(1376, 418)","(1386, 434)","(1302, 438)","(1298, 455)","(1295, 471)","(1292, 488)","(1271, 503)","(1280, 508)","(1291, 512)","(1303, 511)","(1314, 508)","(1242, 436)","(1253, 431)","(1266, 433)","(1277, 441)","(1264, 442)","(1252, 441)","(1328, 447)","(1341, 441)","(1354, 443)","(1364, 450)","(1353, 453)","(1340, 451)","(1249, 540)","(1263, 533)","(1278, 530)","(1289, 534)","(1300, 533)","(1316, 539)","(1332, 550)","(1315, 565)","(1299, 570)","(1287, 570)","(1275, 567)","(1261, 558)","(1255, 541)","(1277, 539)","(1288, 541)","(1299, 542)","(1325, 550)","(1300, 556)","(1288, 556)","(1277, 553)",0.27,0.94,37.0,0.35,0.11,0.41,0.05,-11.5,0.05,0.27,14.1,16.7,25.7,15.2,15.95,28.3,9.11,12.41,14.88
1000,-1245184,86,-56,-1,-1,0,"(1220, 441)","(1214, 466)","(1211, 492)","(1211, 518)","(1217, 545)","(1226, 569)","(1239, 592)","(1257, 610)","(1281, 618)","(1309, 618)","(1337, 610)","(1363, 596)","(1385, 577)","(1401, 553)","(1411, 525)","(1417, 497)","(1421, 468)","(1234, 414)","(1245, 402)","(1261, 400)","(1278, 404)","(1293, 414)","(1321, 417)","(1340, 411)","(1361, 411)","(1380, 419)","(1393, 434)","(1302, 439)","(1298, 455)","(1293, 471)","(1288, 489)","(1270, 502)","(1279, 508)","(1289, 512)","(1301, 511)","(1314, 508)","(1249, 436)","(1259, 431)","(1271, 433)","(1281, 441)","(1269, 442)","(1257, 440)","(1332, 447)","(1345, 441)","(1358, 443)","(1368, 451)","(1356, 453)","(1344, 451)","(1251, 540)","(1263, 533)","(1277, 530)","(1288, 534)","(1299, 533)","(1317, 539)","(1334, 551)","(1315, 565)","(1298, 570)","(1285, 569)","(1273, 566)","(1261, 557)","(1258, 541)","(1276, 539)","(1287, 542)","(1299, 542)","(1327, 551)","(1298, 555)","(1287, 555)","(1276, 552)",0.27,1.03,37.0,0.33,0.11,0.41,0.04,-11.5,0.05,0.27,14.9,17.8,26.0,15.8,16.35,28.0,9.47,12.58,18.23
1033,65536,86,-56,-1,-1,0,"(1218, 439)","(1212, 464)","(1209, 490)","(1209, 517)","(1214, 543)","(1224, 568)","(1237, 590)","(1255, 609)","(1279, 617)","(1307, 618)","(1335, 610)","(1361, 596)","(1384, 577)","(1400, 554)","(1410, 526)","(1417, 497)","(1421, 468)","(1233, 412)","(1244, 400)","(1261, 398)","(1279, 402)","(1294, 413)","(1322, 416)","(1342, 410)","(1363, 411)","(1382, 419)","(1395, 435)","(1303, 438)","(1298, 455)","(1294, 471)","(1289, 488)","(1270, 502)","(1279, 508)","(1289, 512)","(1302, 511)","(1314, 509)","(1248, 435)","(1259, 430)","(1271, 432)","(1282, 441)","(1269, 442)","(1257, 440)","(1333, 448)","(1346, 442)","(1359, 444)","(1370, 452)","(1358, 454)","(1345, 452)","(1251, 540)","(1263, 533)","(1277, 531)","(1287, 535)","(1299, 534)","(1316, 541)","(1333, 553)","(1314, 566)","(1296, 570)","(1284, 570)","(1273, 567)","(1260, 558)","(1257, 542)","(1276, 540)","(1286, 543)","(1298, 543)","(1326, 552)","(1297, 556)","(1286, 555)","(1275, 552)",0.27,1.03,37.0,0.34,0.13,0.4,0.04,-12.0,0.05,0.27,17.1,19.6,27.7,17.8,18.4,29.35,10.82,13.41,18.47
1066,458752,86,-56,-1,-1,0,"(1219, 442)","(1213, 467)","(1210, 493)","(1211, 519)","(1216, 545)","(1225, 569)","(1239, 591)","(1256, 609)","(1280, 617)","(1308, 618)","(1336, 610)","(1362, 596)","(1385, 578)","(1401, 554)","(1411, 526)","(1417, 498)","(1421, 470)","(1234, 413)","(1244, 402)","(1261, 399)","(1278, 403)","(1293, 413)","(1321, 417)","(1340, 411)","(1360, 411)","(1380, 419)","(1392, 434)","(1302, 438)","(1298, 454)","(1293, 470)","(1288, 488)","(1270, 502)","(1279, 507)","(1289, 512)","(1301, 510)","(1313, 508)","(1249, 436)","(1259, 431)","(1271, 432)","(1281, 441)","(1269, 442)","(1257, 440)","(1332, 448)","(1344, 441)","(1357, 443)","(1368, 451)","(1356, 453)","(1343, 451)","(1251, 540)","(1263, 532)","(1277, 530)","(1287, 534)","(1299, 533)","(1316, 539)","(1334, 551)","(1315, 564)","(1297, 569)","(1284, 568)","(1273, 565)","(1261, 557)","(1258, 541)","(1276, 539)","(1287, 541)","(1298, 542)","(1326, 551)","(1298, 555)","(1286, 555)","(1275, 552)",0.27,1.03,37.0,0.33,0.11,0.41,0.04,-11.5,0.05,0.27,16.9,18.8,28.0,16.45,16.75,28.4,11.29,13.58,18.64
1100,458752,86,-56,-1,-1,0,"(1219, 440)","(1213, 465)","(1210, 491)","(1210, 517)","(1215, 543)","(1224, 568)","(1238, 589)","(1256, 607)","(1280, 616)","(1307, 617)","(1335, 609)","(1362, 596)","(1384, 577)","(1400, 554)","(1410, 526)","(1417, 498)","(1421, 469)","(1234, 412)","(1245, 401)","(1262, 398)","(1279, 402)","(1294, 412)","(1322, 416)","(1341, 410)","(1362, 411)","(1382, 418)","(1394, 434)","(1303, 437)","(1299, 454)","(1294, 470)","(1289, 487)","(1271, 501)","(1279, 507)","(1289, 511)","(1302, 510)","(1314, 508)","(1249, 435)","(1259, 429)","(1272, 431)","(1282, 440)","(1270, 441)","(1258, 439)","(1333, 447)","(1346, 441)","(1359, 442)","(1370, 450)","(1358, 452)","(1345, 451)","(1252, 539)","(1264, 532)","(1278, 530)","(1288, 534)","(1299, 533)","(1316, 540)","(1333, 552)","(1314, 564)","(1297, 568)","(1285, 567)","(1274, 564)","(1261, 556)","(1258, 540)","(1277, 539)","(1287, 541)","(1298, 542)","(1326, 551)","(1298, 554)","(1287, 553)","(1276, 550)",0.27,1.03,37.0,0.34,0.12,0.4,0.04,-11.5,0.05,0.27,17.4,19.3,28.5,16.5,16.8,28.5,10.82,13.58,18.05
1133,524288,86,-56,-1,-1,0,"(1217, 439)","(1212, 464)","(1209, 490)","(1210, 517)","(1215, 543)","(1225, 567)","(1239, 589)","(1258, 607)","(1282, 615)","(1310, 616)","(1338, 607)","(1364, 593)","(1386, 574)","(1402, 550)","(1411, 523)","(1417, 494)","(1421, 466)","(1233, 412)","(1244, 401)","(1261, 399)","(1278, 403)","(1294, 413)","(1322, 417)","(1341, 410)","(1362, 410)","(1381, 418)","(1394, 432)","(1303, 438)","(1299, 455)","(1294, 471)","(1290, 488)","(1271, 502)","(1280, 507)","(1291, 512)","(1303, 510)","(1315, 508)","(1248, 435)","(1259, 430)","(1271, 432)","(1282, 441)","(1269, 442)","(1257, 440)","(1333, 447)","(1345, 441)","(1359, 442)","(1369, 450)","(1357, 452)","(1344, 451)","(1253, 540)","(1265, 533)","(1279, 530)","(1289, 534)","(1300, 533)","(1317, 539)","(1335, 551)","(1316, 564)","(1299, 568)","(1287, 568)","(1275, 565)","(1263, 556)","(1259, 541)","(1278, 539)","(1288, 542)","(1300, 542)","(1327, 550)","(1299, 554)","(1288, 554)","(1278, 551)",0.28,1.03,37.0,0.34,0.11,0.4,0.04,-11.5,0.05,0.28,17.2,19.5,27.6,17.75,17.75,29.4,10.05,12.76,17.0
1166,524288,86,-56,-1,-1,0,"(1218, 439)","(1212, 464)","(1209, 490)","(1210, 517)","(1215, 543)","(1225, 568)","(1239, 590)","(1257, 607)","(1282, 615)","(1309, 616)","(1338, 607)","(1363, 593)","(1385, 575)","(1401, 551)","(1410, 524)","(1416, 496)","(1420, 468)","(1234, 413)","(1245, 401)","(1262, 398)","(1279, 403)","(1295, 413)","(1323, 417)","(1342, 411)","(1362, 411)","(1382, 418)","(1394, 434)","(1304, 437)","(1300, 454)","(1295, 470)","(1290, 488)","(1272, 501)","(1281, 507)","(1291, 511)","(1303, 510)","(1315, 507)","(1249, 435)","(1260, 430)","(1272, 431)","(1283, 440)","(1270, 441)","(1258, 440)","(1333, 447)","(1346, 441)","(1359, 442)","(1369, 450)","(1358, 452)","(1345, 451)","(1253, 539)","(1265, 532)","(1279, 529)","(1289, 533)","(1300, 532)","(1317, 539)","(1334, 550)","(1315, 563)","(1298, 567)","(1286, 566)","(1275, 564)","(1263, 555)","(1259, 540)","(1278, 538)","(1288, 541)","(1300, 541)","(1327, 550)","(1299, 553)","(1288, 553)","(1277, 550)",0.27,1.02,37.0,0.34,0.11,0.4,0.04,-11.0,0.05,0.28,15.7,18.7,27.4,16.15,16.2,28.1,10.7,13.35,17.88
1200,458752,86,-56,-1,-1,0,"(1218, 439)","(1213, 464)","(1210, 490)","(1210, 516)","(1216, 542)","(1226, 567)","(1240, 589)","(1258, 606)","(1282, 614)","(1310, 615)","(1338, 607)","(1363, 593)","(1385, 575)","(1401, 552)","(1411, 524)","(1417, 496)","(1421, 467)","(1234, 412)","(1245, 400)","(1262, 398)","(1279, 402)","(1295, 412)","(1324, 416)","(1343, 410)","(1364, 410)","(1383, 418)","(1395, 433)","(1304, 437)","(1300, 454)","(1295, 470)","(1291, 488)","(1272, 501)","(1281, 507)","(1291, 511)","(1303, 510)","(1316, 508)","(1249, 434)","(1260, 429)","(1272, 431)","(1283, 440)","(1270, 440)","(1258, 439)","(1334, 446)","(1347, 440)","(1360, 442)","(1371, 450)","(1359, 452)","(1346, 450)","(1253, 538)","(1265, 532)","(1279, 529)","(1290, 534)","(1301, 532)","(1318, 539)","(1335, 550)","(1316, 563)","(1299, 567)","(1287, 567)","(1275, 564)","(1263, 555)","(1259, 540)","(1278, 539)","(1289, 541)","(1300, 542)","(1328, 550)","(1300, 553)","(1288, 553)","(1278, 550)",0.27,1.01,37.0,0.35,0.11,0.4,0.04,-11.5,0.05,0.28,15.8,18.2,27.1,16.8,18.25,29.35,10.05,13.17,17.82
1233,589824,86,-56,-1,-1,0,"(1219, 439)","(1214, 464)","(1211, 490)","(1211, 516)","(1216, 542)","(1226, 566)","(1240, 588)","(1259, 606)","(1283, 614)","(1311, 614)","(1339, 606)","(1365, 592)","(1386, 574)","(1402, 550)","(1411, 523)","(1417, 494)","(1421, 466)","(1235, 412)","(1246, 401)","(1263, 398)","(1280, 402)","(1296, 412)","(1323, 416)","(1343, 410)","(1363, 410)","(1383, 417)","(1395, 433)","(1305, 436)","(1300, 453)","(1296, 469)","(1291, 487)","(1273, 500)","(1282, 506)","(1292, 510)","(1304, 509)","(1316, 506)","(1250, 434)","(1261, 429)","(1273, 431)","(1284, 439)","(1271, 440)","(1259, 439)","(1334, 445)","(1347, 440)","(1360, 441)","(1371, 449)","(1359, 451)","(1346, 450)","(1254, 538)","(1266, 531)","(1280, 528)","(1290, 533)","(1301, 531)","(1318, 538)","(1335, 550)","(1316, 562)","(1299, 566)","(1287, 565)","(1276, 562)","(1264, 554)","(1260, 539)","(1279, 538)","(1289, 540)","(1300, 541)","(1327, 549)","(1300, 552)","(1289, 551)","(1278, 548)",0.27,1.02,37.0,0.35,0.11,0.4,0.04,-11.0,0.05,0.28,16.1,18.7,27.8,16.15,17.0,27.7,10.29,13.05,18.11
1266,458752,86,-56,-1,-1,0,"(1219, 437)","(1213, 463)","(1210, 489)","(1210, 515)","(1215, 542)","(1225, 566)","(1239, 588)","(1258, 605)","(1282, 613)","(1310, 614)","(1338, 606)","(1364, 593)","(1385, 574)","(1401, 551)","(1411, 523)","(1417, 495)","(1421, 467)","(1236, 411)","(1248, 400)","(1265, 398)","(1282, 402)","(1297, 412)","(1324, 416)","(1343, 410)","(1364, 411)","(1383, 418)","(1395, 433)","(1306, 436)","(1301, 453)","(1297, 469)","(1292, 486)","(1273, 500)","(1282, 505)","(1292, 510)","(1304, 509)","(1316, 507)","(1251, 434)","(1262, 429)","(1274, 431)","(1284, 439)","(1272, 440)","(1260, 438)","(1335, 446)","(1347, 440)","(1360, 442)","(1370, 450)","(1358, 452)","(1346, 450)","(1255, 538)","(1267, 531)","(1280, 528)","(1290, 533)","(1301, 532)","(1317, 539)","(1334, 550)","(1316, 562)","(1299, 566)","(1287, 565)","(1276, 562)","(1264, 554)","(1261, 539)","(1279, 538)","(1290, 540)","(1300, 541)","(1327, 550)","(1300, 551)","(1289, 551)","(1279, 548)",0.28,1.03,37.0,0.33,0.12,0.39,0.04,-11.5,0.04,0.28,16.5,18.3,27.0,15.6,16.55,27.6,10.05,12.88,18.17
1300,327680,86,-56,-1,-1,0,"(1219, 439)","(1214, 464)","(1211, 490)","(1211, 516)","(1217, 542)","(1226, 567)","(1240, 589)","(1259, 606)","(1283, 614)","(1311, 615)","(1339, 606)","(1364, 593)","(1386, 574)","(1401, 551)","(1410, 523)","(1417, 495)","(1420, 467)","(1236, 412)","(1247, 401)","(1264, 399)","(1281, 403)","(1296, 413)","(1324, 417)","(1343, 411)","(1363, 411)","(1382, 418)","(1395, 433)","(1306, 437)","(1301, 454)","(1297, 470)","(1292, 487)","(1274, 501)","(1283, 507)","(1293, 511)","(1305, 510)","(1316, 507)","(1251, 435)","(1261, 430)","(1274, 431)","(1284, 440)","(1272, 441)","(1260, 439)","(1334, 446)","(1347, 440)","(1360, 442)","(1370, 450)","(1359, 452)","(1346, 450)","(1254, 539)","(1267, 532)","(1280, 529)","(1291, 533)","(1302, 532)","(1318, 539)","(1335, 551)","(1317, 563)","(1300, 567)","(1288, 566)","(1277, 563)","(1264, 555)","(1261, 540)","(1280, 538)","(1290, 541)","(1301, 541)","(1328, 550)","(1301, 553)","(1289, 552)","(1279, 549)",0.27,1.0,37.0,0.34,0.11,0.4,0.04,-11.5,0.04,0.28,15.4,17.6,26.7,17.1,17.3,28.45,10.88,13.52,18.35
1333,851968,86,-56,-1,-1,0,"(1220, 437)","(1215, 462)","(1211, 488)","(1212, 515)","(1217, 541)","(1227, 566)","(1241, 588)","(1259, 606)","(1283, 615)","(1311, 615)","(1339, 606)","(1365, 592)","(1386, 573)","(1402, 550)","(1411, 522)","(1418, 494)","(1422, 466)","(1237, 412)","(1248, 401)","(1265, 398)","(1282, 403)","(1298, 413)","(1324, 417)","(1343, 411)","(1364, 411)","(1383, 419)","(1396, 434)","(1306, 437)","(1302, 454)","(1297, 470)","(1292, 488)","(1273, 501)","(1282, 506)","(1293, 511)","(1305, 509)","(1317, 507)","(1252, 434)","(1262, 430)","(1274, 431)","(1285, 440)","(1273, 440)","(1261, 439)","(1335, 446)","(1348, 441)","(1361, 443)","(1371, 450)","(1359, 452)","(1347, 451)","(1254, 538)","(1267, 531)","(1281, 529)","(1291, 533)","(1302, 532)","(1319, 539)","(1336, 550)","(1317, 563)","(1300, 567)","(1288, 567)","(1276, 564)","(1264, 555)","(1261, 539)","(1280, 538)","(1290, 541)","(1301, 541)","(1328, 549)","(1301, 553)","(1289, 553)","(1279, 550)",0.26,1.01,37.0,0.34,0.12,0.4,0.04,-10.5,0.05,0.28,16.4,18.7,28.0,16.15,17.05,28.55,10.11,13.23,17.94
1366,786432,86,-56,-1,-1,0,"(1220, 436)","(1214, 461)","(1211, 487)","(1212, 514)","(1217, 540)","(1226, 565)","(1241, 588)","(1259, 606)","(1283, 614)","(1311, 615)","(1340, 606)","(1365, 592)","(1386, 573)","(1402, 549)","(1411, 522)","(1418, 494)","(1422, 466)","(1237, 411)","(1249, 400)","(1266, 399)","(1283, 403)","(1298, 414)","(1325, 418)","(1344, 412)","(1364, 412)","(1383, 419)","(1396, 434)","(1306, 438)","(1302, 454)","(1297, 471)","(1293, 488)","(1274, 501)","(1283, 507)","(1293, 511)","(1305, 510)","(1317, 508)","(1252, 434)","(1263, 429)","(1275, 431)","(1285, 440)","(1273, 440)","(1261, 439)","(1335, 447)","(1348, 441)","(1361, 443)","(1371, 450)","(1360, 453)","(1347, 451)","(1255, 539)","(1267, 532)","(1281, 530)","(1291, 534)","(1302, 533)","(1318, 539)","(1334, 551)","(1316, 563)","(1300, 567)","(1288, 567)","(1277, 564)","(1265, 555)","(1262, 540)","(1280, 539)","(1290, 541)","(1301, 542)","(1327, 550)","(1301, 553)","(1290, 553)","(1279, 550)",0.27,1.0,37.0,0.34,0.13,0.39,0.04,-11.5,0.05,0.28,16.7,18.8,28.5,15.55,16.25,27.9,11.17,13.94,18.58
1400,-8060928,86,-56,-1,-1,0,"(1219, 438)","(1214, 463)","(1210, 490)","(1211, 516)","(1216, 543)","(1225, 568)","(1239, 590)","(1258, 608)","(1282, 616)","(1310, 617)","(1339, 609)","(1364, 595)","(1386, 576)","(1402, 552)","(1411, 525)","(1418, 496)","(1422, 468)","(1236, 411)","(1248, 400)","(1265, 398)","(1283, 403)","(1298, 414)","(1325, 418)","(1344, 412)","(1365, 412)","(1384, 420)","(1396, 435)","(1307, 438)","(1303, 455)","(1298, 471)","(1293, 489)","(1274, 502)","(1283, 508)","(1293, 513)","(1306, 511)","(1318, 509)","(1252, 435)","(1262, 430)","(1274, 432)","(1285, 440)","(1272, 441)","(1261, 440)","(1336, 447)","(1349, 442)","(1362, 444)","(1372, 451)","(1360, 454)","(1348, 452)","(1255, 540)","(1267, 534)","(1281, 531)","(1291, 536)","(1302, 535)","(1318, 541)","(1335, 553)","(1317, 564)","(1300, 568)","(1288, 568)","(1277, 565)","(1265, 556)","(1261, 542)","(1280, 541)","(1290, 543)","(1301, 544)","(1328, 552)","(1301, 554)","(1290, 554)","(1279, 550)",0.27,1.01,37.0,0.33,0.14,0.39,0.04,-11.5,0.05,0.28,17.3,20.1,28.6,16.65,17.6,28.9,11.7,14.58,19.47
1433,1638400,86,-56,-1,-1,0,"(1219, 439)","(1213, 465)","(1210, 491)","(1211, 518)","(1216, 545)","(1226, 569)","(1240, 592)","(1259, 610)","(1284, 618)","(1312, 618)","(1340, 609)","(1366, 595)","(1387, 576)","(1403, 552)","(1412, 525)","(1418, 497)","(1422, 468)","(1235, 413)","(1247, 401)","(1264, 399)","(1282, 403)","(1297, 413)","(1325, 417)","(1345, 411)","(1365, 412)","(1385, 419)","(1397, 435)","(1307, 438)","(1302, 455)","(1297, 472)","(1293, 489)","(1274, 503)","(1283, 509)","(1293, 513)","(1305, 512)","(1317, 510)","(1250, 436)","(1261, 431)","(1274, 432)","(1284, 441)","(1272, 442)","(1260, 440)","(1336, 447)","(1349, 442)","(1362, 444)","(1372, 451)","(1361, 453)","(1348, 452)","(1255, 542)","(1267, 535)","(1281, 532)","(1291, 536)","(1302, 535)","(1318, 542)","(1335, 553)","(1317, 565)","(1300, 569)","(1288, 569)","(1277, 566)","(1265, 558)","(1261, 543)","(1280, 542)","(1290, 544)","(1301, 545)","(1328, 553)","(1301, 555)","(1290, 554)","(1280, 552)",0.26,1.0,37.0,0.34,0.12,0.39,0.04,-11.0,0.04,0.28,17.3,18.7,28.3,16.85,17.7,28.45,11.0,13.58,18.52
1466,524288,86,-56,-1,-1,0,"(1221, 438)","(1215, 463)","(1211, 489)","(1211, 516)","(1217, 543)","(1226, 568)","(1240, 591)","(1259, 609)","(1283, 618)","(1311, 619)","(1339, 609)","(1365, 595)","(1386, 576)","(1402, 552)","(1412, 525)","(1418, 497)","(1422, 469)","(1237, 412)","(1249, 401)","(1266, 399)","(1283, 404)","(1298, 415)","(1325, 419)","(1344, 413)","(1365, 413)","(1384, 421)","(1396, 436)","(1307, 439)","(1302, 456)","(1297, 472)","(1293, 490)","(1274, 503)","(1283, 509)","(1293, 514)","(1305, 512)","(1317, 510)","(1252, 435)","(1263, 430)","(1275, 432)","(1285, 441)","(1273, 441)","(1261, 440)","(1335, 448)","(1348, 442)","(1361, 444)","(1372, 452)","(1360, 454)","(1347, 452)","(1255, 542)","(1267, 534)","(1281, 532)","(1291, 536)","(1302, 535)","(1318, 542)","(1335, 553)","(1317, 565)","(1300, 570)","(1288, 569)","(1277, 566)","(1265, 557)","(1261, 543)","(1280, 542)","(1290, 544)","(1301, 545)","(1327, 553)","(1301, 555)","(1290, 555)","(1279, 552)",0.27,1.01,37.0,0.34,0.14,0.39,0.04,-11.5,0.04,0.28,16.0,18.7,28.1,16.05,16.75,28.1,10.82,13.35,17.76
1500,65536,86,-56,-1,-1,0,"(1220, 439)","(1215, 464)","(1212, 491)","(1212, 517)","(1217, 544)","(1226, 569)","(1240, 592)","(1259, 610)","(1284, 618)","(1312, 619)","(1341, 610)","(1366, 595)","(1387, 576)","(1402, 552)","(1411, 525)","(1418, 497)","(1422, 469)","(1237, 413)","(1249, 402)","(1266, 400)","(1283, 404)","(1298, 415)","(1326, 419)","(1345, 413)","(1365, 413)","(1384, 421)","(1396, 436)","(1307, 439)","(1303, 456)","(1298, 472)","(1293, 490)","(1275, 503)","(1283, 509)","(1294, 513)","(1306, 512)","(1318, 510)","(1253, 435)","(1263, 431)","(1275, 433)","(1285, 441)","(1273, 442)","(1261, 440)","(1336, 448)","(1349, 443)","(1361, 445)","(1372, 452)","(1360, 454)","(1347, 452)","(1256, 541)","(1268, 534)","(1281, 532)","(1292, 536)","(1303, 535)","(1319, 542)","(1336, 554)","(1318, 566)","(1301, 570)","(1289, 569)","(1277, 566)","(1265, 557)","(1262, 542)","(1280, 541)","(1291, 544)","(1302, 544)","(1329, 553)","(1302, 556)","(1290, 555)","(1280, 552)",0.25,1.02,37.0,0.33,0.13,0.39,0.04,-11.0,0.05,0.28,15.9,18.6,27.0,14.0,14.9,26.05,10.88,13.29,18.23
1533,-458752,86,-56,-1,-1,0,"(1220, 438)","(1214, 464)","(1211, 490)","(1211, 517)","(1216, 544)","(1226, 569)","(1240, 592)","(1259, 610)","(1284, 618)","(1312, 619)","(1340, 610)","(1365, 595)","(1386, 576)","(1402, 552)","(1411, 524)","(1417, 496)","(1421, 468)","(1237, 412)","(1249, 402)","(1266, 400)","(1283, 405)","(1299, 415)","(1326, 419)","(1345, 413)","(1365, 413)","(1385, 421)","(1397, 436)","(1307, 439)","(1303, 456)","(1299, 473)","(1294, 490)","(1275, 504)","(1284, 509)","(1294, 514)","(1306, 513)","(1318, 510)","(1252, 436)","(1263, 432)","(1275, 433)","(1286, 441)","(1273, 442)","(1261, 441)","(1336, 449)","(1349, 443)","(1362, 445)","(1372, 453)","(1360, 455)","(1348, 453)","(1255, 542)","(1268, 535)","(1281, 533)","(1292, 537)","(1303, 536)","(1319, 543)","(1335, 554)","(1317, 566)","(1301, 570)","(1289, 570)","(1277, 567)","(1265, 558)","(1261, 543)","(1280, 542)","(1291, 545)","(1302, 545)","(1328, 553)","(1302, 556)","(1290, 556)","(1280, 553)",0.27,0.98,37.0,0.34,0.14,0.39,0.04,-11.0,0.05,0.28,15.3,18.2,26.5,15.45,15.85,26.75,10.88,12.94,18.94
1566,-2228224,86,-56,-1,-1,0,"(1220, 441)","(1214, 467)","(1211, 493)","(1212, 520)","(1217, 546)","(1227, 571)","(1242, 593)","(1261, 611)","(1285, 619)","(1313, 620)","(1341, 611)","(1366, 597)","(1388, 578)","(1403, 554)","(1412, 527)","(1418, 499)","(1423, 470)","(1236, 413)","(1247, 402)","(1265, 399)","(1282, 404)","(1297, 414)","(1326, 418)","(1345, 412)","(1366, 413)","(1385, 420)","(1397, 436)","(1307, 440)","(1303, 457)","(1298, 473)","(1294, 491)","(1275, 505)","(1284, 510)","(1294, 515)","(1306, 513)","(1318, 511)","(1251, 437)","(1262, 433)","(1274, 434)","(1285, 443)","(1272, 444)","(1260, 442)","(1337, 449)","(1350, 444)","(1363, 446)","(1373, 453)","(1361, 456)","(1348, 454)","(1256, 543)","(1268, 536)","(1282, 534)","(1292, 538)","(1303, 537)","(1320, 544)","(1337, 555)","(1318, 567)","(1301, 571)","(1289, 571)","(1278, 568)","(1266, 559)","(1262, 545)","(1281, 543)","(1291, 546)","(1302, 546)","(1329, 555)","(1302, 557)","(1291, 556)","(1281, 553)",0.28,1.02,37.0,0.34,0.13,0.39,0.04,-11.5,0.05,0.28,15.9,18.9,27.5,15.8,16.65,28.6,9.58,12.7,17.76
1600,-1048576,86,-56,-1,-1,0,"(1220, 443)","(1214, 468)","(1211, 495)","(1212, 522)","(1217, 548)","(1227, 572)","(1242, 594)","(1260, 612)","(1284, 620)","(1312, 620)","(1340, 611)","(1366, 598)","(1387, 579)","(1403, 555)","(1412, 528)","(1418, 500)","(1422, 472)","(1237, 413)","(1248, 402)","(1265, 400)","(1282, 404)","(1297, 415)","(1326, 418)","(1345, 412)","(1365, 412)","(1384, 420)","(1396, 435)","(1307, 440)","(1302, 457)","(1298, 473)","(1293, 490)","(1275, 505)","(1284, 510)","(1294, 515)","(1306, 514)","(1318, 511)","(1252, 438)","(1262, 433)","(1275, 435)","(1285, 443)","(1273, 444)","(1261, 443)","(1336, 449)","(1349, 444)","(1362, 446)","(1373, 453)","(1361, 456)","(1348, 454)","(1255, 545)","(1268, 537)","(1282, 534)","(1292, 538)","(1303, 537)","(1319, 544)","(1336, 556)","(1318, 567)","(1301, 571)","(1289, 571)","(1278, 568)","(1266, 560)","(1262, 545)","(1281, 544)","(1291, 546)","(1302, 547)","(1329, 555)","(1302, 557)","(1291, 556)","(1280, 554)",0.27,0.98,37.0,0.34,0.13,0.4,0.04,-11.5,0.05,0.27,16.2,18.2,27.3,17.6,17.25,29.0,10.76,13.47,18.35
1633,720896,86,-56,-1,-1,0,"(1219, 443)","(1213, 468)","(1210, 495)","(1210, 522)","(1216, 548)","(1225, 573)","(1240, 595)","(1259, 612)","(1284, 620)","(1312, 621)","(1340, 613)","(1366, 599)","(1388, 581)","(1403, 557)","(1413, 529)","(1419, 501)","(1423, 473)","(1236, 414)","(1247, 402)","(1265, 399)","(1282, 403)","(1298, 414)","(1327, 418)","(1346, 412)","(1366, 412)","(1386, 420)","(1397, 436)","(1307, 440)","(1303, 456)","(1298, 472)","(1293, 490)","(1274, 505)","(1283, 510)","(1294, 515)","(1306, 514)","(1318, 511)","(1251, 438)","(1262, 433)","(1274, 434)","(1285, 443)","(1272, 444)","(1260, 442)","(1337, 450)","(1350, 444)","(1363, 446)","(1373, 454)","(1361, 456)","(1348, 454)","(1255, 545)","(1267, 537)","(1281, 534)","(1292, 538)","(1303, 537)","(1319, 544)","(1336, 556)","(1318, 568)","(1300, 572)","(1289, 571)","(1278, 568)","(1265, 560)","(1261, 546)","(1280, 544)","(1291, 546)","(1302, 547)","(1329, 556)","(1301, 557)","(1290, 557)","(1280, 554)",0.28,1.0,37.0,0.34,0.12,0.39,0.04,-11.5,0.05,0.27,16.9,19.7,29.0,16.0,16.75,27.4,10.11,13.41,18.0
1666,851968,86,-56,-1,-1,0,"(1219, 442)","(1212, 468)","(1209, 495)","(1209, 522)","(1214, 548)","(1224, 573)","(1239, 595)","(1258, 613)","(1283, 621)","(1310, 622)","(1339, 614)","(1365, 600)","(1386, 581)","(1402, 558)","(1412, 530)","(1418, 502)","(1422, 474)","(1236, 413)","(1247, 402)","(1264, 399)","(1282, 404)","(1298, 414)","(1327, 419)","(1346, 413)","(1367, 413)","(1386, 421)","(1398, 437)","(1307, 440)","(1303, 457)","(1298, 473)","(1294, 490)","(1274, 505)","(1283, 511)","(1293, 515)","(1305, 514)","(1317, 512)","(1251, 438)","(1262, 433)","(1274, 435)","(1285, 443)","(1272, 444)","(1260, 442)","(1337, 450)","(1350, 445)","(1363, 447)","(1373, 455)","(1361, 457)","(1348, 455)","(1254, 545)","(1267, 537)","(1281, 535)","(1291, 539)","(1302, 538)","(1318, 545)","(1335, 557)","(1317, 569)","(1300, 573)","(1288, 572)","(1277, 569)","(1265, 561)","(1261, 546)","(1280, 545)","(1290, 547)","(1301, 548)","(1328, 557)","(1301, 558)","(1290, 557)","(1279, 555)",0.28,0.99,37.0,0.34,0.13,0.39,0.04,-11.5,0.04,0.27,16.6,19.0,28.0,15.65,16.75,28.1,10.58,13.58,18.23
1700,1179648,86,-56,-1,-1,0,"(1220, 444)","(1214, 470)","(1211, 496)","(1211, 523)","(1217, 550)","(1226, 574)","(1241, 596)","(1259, 614)","(1283, 622)","(1311, 623)","(1339, 614)","(1365, 601)","(1387, 582)","(1403, 559)","(1412, 531)","(1419, 503)","(1423, 475)","(1236, 414)","(1247, 402)","(1264, 400)","(1282, 404)","(1297, 415)","(1327, 418)","(1346, 412)","(1367, 413)","(1386, 421)","(1398, 438)","(1307, 441)","(1303, 457)","(1298, 474)","(1293, 491)","(1275, 506)","(1283, 512)","(1293, 516)","(1305, 515)","(1317, 513)","(1251, 439)","(1262, 433)","(1274, 435)","(1285, 444)","(1272, 445)","(1260, 443)","(1337, 451)","(1350, 445)","(1363, 447)","(1373, 455)","(1361, 457)","(1348, 455)","(1254, 546)","(1267, 539)","(1281, 536)","(1291, 540)","(1302, 539)","(1319, 546)","(1336, 558)","(1317, 570)","(1300, 574)","(1288, 573)","(1277, 570)","(1265, 562)","(1261, 547)","(1280, 545)","(1290, 548)","(1302, 549)","(1329, 557)","(1301, 559)","(1290, 559)","(1280, 556)",0.28,1.0,37.0,0.34,0.14,0.4,0.04,-12.0,0.04,0.27,15.8,17.8,27.8,15.75,16.5,28.2,9.82,12.7,18.41
1733,1048576,86,-56,-1,-1,0,"(1219, 443)","(1213, 469)","(1209, 495)","(1209, 523)","(1215, 549)","(1225, 575)","(1239, 597)","(1257, 615)","(1282, 624)","(1310, 624)","(1338, 615)","(1364, 601)","(1386, 582)","(1402, 558)","(1412, 530)","(1418, 502)","(1422, 474)","(1236, 413)","(1247, 402)","(1264, 399)","(1282, 404)","(1297, 415)","(1327, 419)","(1346, 413)","(1366, 413)","(1386, 421)","(1397, 437)","(1307, 441)","(1303, 458)","(1298, 474)","(1293, 491)","(1274, 507)","(1283, 512)","(1293, 516)","(1305, 515)","(1317, 513)","(1251, 438)","(1262, 433)","(1274, 435)","(1285, 444)","(1272, 445)","(1260, 443)","(1336, 451)","(1350, 445)","(1363, 447)","(1373, 455)","(1361, 457)","(1348, 455)","(1254, 547)","(1267, 539)","(1281, 536)","(1291, 540)","(1302, 539)","(1319, 546)","(1336, 558)","(1317, 570)","(1300, 574)","(1288, 574)","(1277, 571)","(1265, 563)","(1261, 548)","(1280, 546)","(1290, 549)","(1301, 549)","(1329, 558)","(1301, 560)","(1290, 559)","(1280, 557)",0.27,1.0,37.0,0.34,0.14,0.4,0.03,-12.0,0.04,0.27,16.4,19.5,28.6,15.1,16.45,27.35,10.47,13.76,18.17
1766,1048576,86,-56,-1,-1,0,"(1219, 445)","(1213, 470)","(1210, 497)","(1210, 524)","(1215, 551)","(1225, 576)","(1239, 598)","(1257, 617)","(1282, 625)","(1311, 626)","(1339, 617)","(1365, 603)","(1386, 584)","(1403, 560)","(1412, 532)","(1419, 503)","(1423, 475)","(1235, 415)","(1246, 403)","(1263, 400)","(1281, 405)","(1297, 415)","(1326, 419)","(1345, 413)","(1366, 414)","(1385, 422)","(1397, 438)","(1306, 442)","(1302, 458)","(1297, 475)","(1292, 492)","(1273, 507)","(1282, 512)","(1292, 517)","(1305, 516)","(1316, 514)","(1250, 439)","(1261, 434)","(1274, 436)","(1284, 445)","(1272, 446)","(1259, 444)","(1336, 452)","(1349, 446)","(1362, 448)","(1372, 456)","(1360, 458)","(1347, 456)","(1254, 548)","(1266, 540)","(1280, 537)","(1290, 541)","(1302, 540)","(1318, 547)","(1335, 560)","(1317, 571)","(1299, 575)","(1288, 574)","(1277, 572)","(1264, 563)","(1261, 549)","(1279, 547)","(1290, 550)","(1301, 550)","(1328, 559)","(1300, 560)","(1289, 560)","(1279, 557)",0.28,1.01,37.0,0.34,0.12,0.39,0.03,-12.0,0.04,0.27,15.4,19.0,26.4,15.4,15.8,27.5,10.17,13.47,18.76
1800,1048576,86,-56,-1,-1,0,"(1219, 443)","(1213, 469)","(1210, 496)","(1210, 523)","(1215, 550)","(1224, 576)","(1238, 599)","(1257, 618)","(1282, 626)","(1311, 626)","(1339, 617)","(1365, 603)","(1387, 583)","(1403, 559)","(1412, 531)","(1419, 503)","(1423, 474)","(1235, 415)","(1246, 403)","(1263, 400)","(1281, 405)","(1297, 416)","(1326, 420)","(1345, 414)","(1366, 415)","(1386, 423)","(1398, 439)","(1306, 442)","(1302, 459)","(1297, 475)","(1292, 493)","(1273, 508)","(1282, 513)","(1292, 518)","(1304, 517)","(1316, 515)","(1250, 439)","(1261, 435)","(1273, 436)","(1284, 445)","(1271, 446)","(1259, 444)","(1336, 452)","(1349, 447)","(1362, 449)","(1373, 457)","(1361, 459)","(1348, 457)","(1253, 549)","(1266, 541)","(1280, 538)","(1290, 542)","(1301, 541)","(1318, 548)","(1335, 560)","(1316, 572)","(1299, 576)","(1287, 576)","(1276, 573)","(1263, 564)","(1260, 550)","(1279, 548)","(1289, 551)","(1300, 551)","(1327, 559)","(1300, 561)","(1289, 561)","(1278, 558)",0.26,1.0,37.0,0.34,0.13,0.4,0.03,-11.5,0.04,0.27,17.0,18.6,26.8,15.95,17.4,28.3,9.88,13.11,17.94
1833,655360,86,-56,-1,-1,0,"(1217, 445)","(1211, 471)","(1208, 498)","(1208, 526)","(1213, 553)","(1223, 578)","(1237, 601)","(1256, 620)","(1281, 628)","(1310, 628)","(1338, 619)","(1364, 605)","(1386, 585)","(1403, 561)","(1412, 533)","(1418, 504)","(1422, 474)","(1233, 414)","(1244, 403)","(1261, 400)","(1279, 405)","(1294, 416)","(1325, 420)","(1344, 414)","(1365, 414)","(1384, 422)","(1396, 438)","(1304, 442)","(1300, 459)","(1295, 476)","(1290, 494)","(1272, 509)","(1281, 514)","(1291, 519)","(1303, 518)","(1315, 515)","(1248, 440)","(1259, 435)","(1272, 436)","(1282, 445)","(1269, 446)","(1257, 445)","(1334, 452)","(1348, 446)","(1361, 449)","(1372, 457)","(1359, 459)","(1346, 457)","(1252, 550)","(1265, 542)","(1279, 539)","(1289, 543)","(1300, 542)","(1317, 549)","(1334, 561)","(1316, 574)","(1298, 578)","(1286, 577)","(1275, 575)","(1262, 566)","(1259, 551)","(1278, 549)","(1288, 552)","(1299, 552)","(1327, 561)","(1299, 563)","(1288, 563)","(1277, 560)",0.27,1.01,37.0,0.35,0.13,0.4,0.03,-12.0,0.05,0.27,15.9,19.3,27.2,16.55,17.1,28.5,10.17,13.17,17.94
1866,458752,86,-56,-1,-1,0,"(1217, 442)","(1211, 469)","(1208, 496)","(1208, 524)","(1213, 552)","(1223, 577)","(1238, 600)","(1257, 619)","(1282, 627)","(1311, 628)","(1339, 618)","(1364, 603)","(1385, 582)","(1401, 558)","(1410, 530)","(1417, 501)","(1421, 472)","(1233, 415)","(1244, 403)","(1262, 400)","(1280, 405)","(1296, 417)","(1325, 421)","(1344, 415)","(1366, 415)","(1385, 423)","(1396, 440)","(1305, 443)","(1301, 459)","(1296, 476)","(1291, 493)","(1272, 508)","(1281, 514)","(1291, 518)","(1304, 517)","(1316, 515)","(1249, 440)","(1260, 435)","(1272, 436)","(1283, 445)","(1270, 446)","(1258, 444)","(1334, 452)","(1348, 447)","(1361, 449)","(1371, 457)","(1359, 459)","(1346, 457)","(1253, 550)","(1266, 542)","(1280, 539)","(1290, 543)","(1301, 542)","(1318, 549)","(1334, 562)","(1316, 574)","(1299, 578)","(1287, 577)","(1276, 574)","(1263, 566)","(1260, 551)","(1279, 549)","(1289, 552)","(1300, 552)","(1327, 561)","(1300, 563)","(1289, 563)","(1278, 560)",0.27,1.0,37.0,0.34,0.14,0.39,0.03,-11.5,0.05,0.27,16.4,19.9,28.6,15.05,15.2,26.5,9.88,13.58,18.35
1900,655360,86,-56,-1,-1,0,"(1216, 443)","(1210, 470)","(1207, 498)","(1208, 526)","(1213, 554)","(1223, 579)","(1238, 603)","(1257, 621)","(1283, 629)","(1312, 630)","(1340, 620)","(1366, 605)","(1387, 585)","(1403, 560)","(1412, 531)","(1418, 501)","(1422, 472)","(1232, 416)","(1244, 404)","(1262, 401)","(1280, 406)","(1296, 417)","(1323, 421)","(1343, 414)","(1364, 415)","(1384, 423)","(1396, 440)","(1305, 443)","(1300, 460)","(1295, 477)","(1290, 495)","(1271, 510)","(1280, 515)","(1291, 520)","(1304, 519)","(1316, 516)","(1249, 440)","(1259, 435)","(1272, 437)","(1283, 445)","(1270, 447)","(1258, 445)","(1334, 452)","(1347, 447)","(1360, 449)","(1371, 457)","(1359, 459)","(1346, 457)","(1253, 551)","(1265, 543)","(1279, 540)","(1289, 545)","(1301, 543)","(1317, 550)","(1334, 562)","(1316, 574)","(1299, 579)","(1287, 578)","(1276, 575)","(1263, 567)","(1260, 552)","(1278, 551)","(1289, 553)","(1300, 554)","(1327, 561)","(1300, 564)","(1289, 564)","(1278, 561)",0.26,1.0,37.0,0.34,0.13,0.39,0.04,-12.0,0.05,0.27,17.1,20.1,29.5,15.15,15.95,28.6,10.41,13.17,18.82
1933,786432,86,-56,-1,-1,0,"(1204, 430)","(1198, 459)","(1194, 489)","(1194, 519)","(1201, 550)","(1212, 579)","(1229, 605)","(1251, 625)","(1280, 634)","(1311, 633)","(1343, 622)","(1372, 604)","(1395, 580)","(1412, 552)","(1421, 521)","(1426, 489)","(1429, 457)","(1222, 407)","(1236, 396)","(1256, 394)","(1276, 400)","(1294, 412)","(1327, 416)","(1349, 408)","(1372, 407)","(1393, 415)","(1406, 430)","(1306, 439)","(1302, 458)","(1297, 476)","(1292, 496)","(1270, 511)","(1280, 517)","(1292, 522)","(1306, 520)","(1319, 517)","(1240, 432)","(1252, 425)","(1267, 427)","(1280, 439)","(1265, 441)","(1250, 439)","(1337, 445)","(1352, 436)","(1368, 438)","(1379, 447)","(1367, 452)","(1351, 450)","(1248, 552)","(1263, 545)","(1279, 543)","(1290, 548)","(1302, 546)","(1320, 552)","(1338, 563)","(1319, 576)","(1300, 581)","(1287, 581)","(1275, 578)","(1261, 569)","(1256, 553)","(1278, 554)","(1289, 557)","(1301, 557)","(1330, 562)","(1301, 566)","(1289, 566)","(1278, 563)",0.33,0.96,37.0,0.36,0.12,0.4,0.03,-16.0,0.05,0.29,21.7,25.1,36.6,18.05,18.15,30.0,11.58,14.94,18.0
1966,917504,86,-56,-1,-1,0,"(1205, 446)","(1199, 473)","(1195, 501)","(1196, 529)","(1201, 557)","(1212, 584)","(1228, 607)","(1248, 625)","(1275, 634)","(1305, 635)","(1336, 627)","(1364, 613)","(1388, 593)","(1406, 568)","(1416, 539)","(1423, 509)","(1429, 478)","(1225, 417)","(1237, 404)","(1257, 400)","(1277, 404)","(1295, 416)","(1323, 420)","(1345, 413)","(1368, 414)","(1389, 424)","(1402, 442)","(1303, 442)","(1298, 459)","(1293, 476)","(1288, 495)","(1267, 511)","(1277, 517)","(1288, 522)","(1301, 521)","(1314, 518)","(1242, 441)","(1253, 435)","(1267, 436)","(1279, 445)","(1265, 447)","(1252, 445)","(1334, 452)","(1348, 446)","(1362, 449)","(1374, 458)","(1361, 460)","(1347, 458)","(1246, 553)","(1260, 545)","(1275, 542)","(1286, 547)","(1297, 546)","(1315, 554)","(1333, 567)","(1312, 578)","(1294, 581)","(1282, 580)","(1270, 577)","(1257, 569)","(1254, 554)","(1274, 553)","(1285, 555)","(1296, 556)","(1325, 566)","(1295, 566)","(1284, 565)","(1273, 562)",0.28,1.0,37.0,0.34,0.12,0.38,0.03,-13.0,0.04,0.27,20.1,22.6,32.6,16.05,17.15,28.8,12.35,14.82,19.41
2000,-8126464,86,-56,-1,-1,0,"(1201, 444)","(1195, 472)","(1192, 501)","(1192, 530)","(1199, 559)","(1210, 586)","(1227, 610)","(1248, 628)","(1275, 636)","(1305, 637)","(1337, 629)","(1366, 614)","(1389, 593)","(1407, 568)","(1417, 538)","(1424, 507)","(1429, 476)","(1221, 418)","(1234, 404)","(1254, 400)","(1275, 404)","(1293, 416)","(1322, 421)","(1344, 414)","(1367, 415)","(1389, 424)","(1402, 442)","(1302, 442)","(1297, 460)","(1292, 477)","(1287, 495)","(1266, 512)","(1276, 518)","(1287, 523)","(1301, 522)","(1314, 519)","(1239, 440)","(1251, 435)","(1264, 436)","(1277, 445)","(1263, 446)","(1249, 445)","(1333, 452)","(1347, 447)","(1361, 449)","(1373, 458)","(1360, 460)","(1346, 457)","(1244, 554)","(1259, 546)","(1274, 543)","(1285, 548)","(1297, 547)","(1314, 555)","(1332, 568)","(1312, 579)","(1293, 583)","(1281, 582)","(1269, 579)","(1256, 570)","(1252, 555)","(1273, 554)","(1284, 556)","(1296, 557)","(1324, 567)","(1295, 568)","(1283, 567)","(1271, 564)",0.26,0.96,37.0,0.34,0.11,0.38,0.03,-12.0,0.05,0.27,19.0,22.1,30.7,16.6,17.55,28.85,9.47,11.94,16.35
2033,786432,86,-56,-1,-1,0,"(1201, 446)","(1196, 474)","(1192, 502)","(1193, 531)","(1199, 559)","(1211, 586)","(1227, 609)","(1249, 628)","(1276, 636)","(1306, 637)","(1338, 628)","(1366, 613)","(1390, 593)","(1407, 567)","(1417, 537)","(1423, 506)","(1428, 475)","(1221, 419)","(1234, 405)","(1253, 401)","(1274, 405)","(1292, 416)","(1321, 421)","(1343, 414)","(1366, 414)","(1387, 424)","(1400, 441)","(1301, 443)","(1296, 460)","(1292, 477)","(1287, 495)","(1266, 512)","(1276, 518)","(1287, 523)","(1300, 521)","(1313, 519)","(1239, 441)","(1251, 435)","(1265, 437)","(1277, 446)","(1263, 447)","(1250, 446)","(1331, 452)","(1345, 446)","(1360, 448)","(1371, 457)","(1358, 459)","(1344, 457)","(1246, 555)","(1260, 547)","(1274, 544)","(1285, 548)","(1297, 547)","(1314, 555)","(1332, 568)","(1312, 578)","(1294, 581)","(1281, 581)","(1270, 578)","(1257, 570)","(1253, 556)","(1273, 554)","(1284, 557)","(1296, 557)","(1324, 567)","(1295, 567)","(1283, 566)","(1272, 563)",0.27,0.98,37.0,0.34,0.1,0.37,0.03,-12.5,0.05,0.26,18.1,21.7,31.3,15.9,16.75,28.9,10.7,13.35,17.11
2066,-131072,86,-56,-1,-1,0,"(1177, 441)","(1173, 472)","(1172, 504)","(1175, 535)","(1185, 565)","(1201, 592)","(1222, 615)","(1249, 631)","(1278, 638)","(1308, 637)","(1337, 626)","(1362, 610)","(1381, 587)","(1395, 560)","(1404, 530)","(1409, 499)","(1412, 469)","(1206, 418)","(1222, 404)","(1245, 401)","(1268, 405)","(1288, 417)","(1318, 421)","(1339, 414)","(1361, 414)","(1381, 421)","(1393, 438)","(1299, 444)","(1296, 462)","(1294, 479)","(1291, 499)","(1266, 516)","(1277, 522)","(1289, 526)","(1302, 525)","(1314, 521)","(1228, 442)","(1242, 437)","(1256, 438)","(1269, 446)","(1255, 448)","(1240, 447)","(1327, 453)","(1341, 446)","(1356, 448)","(1367, 455)","(1355, 459)","(1340, 457)","(1244, 560)","(1260, 552)","(1276, 549)","(1287, 553)","(1298, 552)","(1313, 559)","(1330, 570)","(1312, 580)","(1296, 583)","(1284, 583)","(1272, 580)","(1258, 573)","(1251, 560)","(1275, 559)","(1286, 562)","(1297, 562)","(1322, 570)","(1296, 568)","(1285, 568)","(1274, 565)",0.27,0.87,37.0,0.34,0.1,0.36,0.02,-12.0,0.06,0.28,17.0,20.4,28.8,16.25,16.8,29.65,15.11,18.35,20.58
2100,-65536,86,-56,-1,-1,0,"(1175, 439)","(1170, 471)","(1169, 504)","(1172, 535)","(1181, 566)","(1197, 594)","(1219, 617)","(1246, 633)","(1276, 641)","(1306, 640)","(1335, 630)","(1360, 613)","(1380, 589)","(1394, 562)","(1403, 532)","(1408, 502)","(1411, 471)","(1205, 417)","(1222, 403)","(1246, 399)","(1269, 404)","(1290, 416)","(1320, 421)","(1341, 414)","(1363, 414)","(1383, 422)","(1394, 439)","(1300, 444)","(1298, 463)","(1295, 481)","(1292, 501)","(1266, 518)","(1277, 523)","(1289, 528)","(1303, 527)","(1315, 523)","(1227, 441)","(1241, 436)","(1256, 437)","(1269, 447)","(1254, 448)","(1240, 447)","(1328, 454)","(1343, 447)","(1357, 449)","(1368, 457)","(1356, 460)","(1342, 458)","(1242, 560)","(1260, 553)","(1276, 550)","(1287, 555)","(1299, 554)","(1315, 561)","(1331, 573)","(1312, 583)","(1296, 586)","(1283, 586)","(1271, 583)","(1256, 575)","(1250, 561)","(1275, 561)","(1286, 563)","(1298, 564)","(1323, 572)","(1296, 571)","(1285, 571)","(1273, 567)",0.27,0.86,37.0,0.34,0.11,0.37,0.03,-12.5,0.06,0.28,19.1,22.8,31.1,16.5,17.3,29.55,16.0,18.47,21.76
2133,-1572864,86,-56,-1,-1,0,"(1174, 442)","(1170, 473)","(1168, 506)","(1170, 537)","(1180, 568)","(1195, 596)","(1217, 619)","(1244, 636)","(1274, 643)","(1305, 642)","(1334, 632)","(1360, 615)","(1380, 591)","(1394, 564)","(1402, 534)","(1408, 503)","(1411, 473)","(1205, 418)","(1222, 405)","(1245, 401)","(1268, 406)","(1288, 418)","(1318, 422)","(1339, 415)","(1362, 415)","(1382, 423)","(1393, 440)","(1299, 445)","(1296, 463)","(1293, 481)","(1290, 500)","(1264, 518)","(1275, 524)","(1287, 528)","(1301, 527)","(1313, 523)","(1226, 442)","(1240, 437)","(1255, 439)","(1267, 447)","(1253, 449)","(1239, 448)","(1326, 454)","(1341, 448)","(1356, 450)","(1367, 458)","(1355, 460)","(1340, 458)","(1240, 562)","(1258, 554)","(1274, 551)","(1285, 556)","(1296, 554)","(1312, 561)","(1328, 573)","(1310, 583)","(1294, 586)","(1282, 586)","(1269, 583)","(1255, 575)","(1248, 562)","(1272, 561)","(1284, 564)","(1295, 565)","(1320, 573)","(1295, 571)","(1283, 571)","(1272, 568)",0.24,0.85,37.0,0.34,0.11,0.37,0.02,-12.0,0.05,0.27,17.5,21.4,30.7,17.0,17.6,29.25,15.64,18.64,21.47
2166,-3014656,86,-56,-1,-1,0,"(1176, 442)","(1171, 473)","(1169, 505)","(1171, 536)","(1180, 567)","(1195, 595)","(1216, 619)","(1242, 636)","(1272, 643)","(1302, 643)","(1333, 633)","(1359, 616)","(1380, 593)","(1395, 566)","(1404, 535)","(1409, 504)","(1413, 472)","(1204, 418)","(1220, 404)","(1243, 401)","(1266, 406)","(1287, 418)","(1317, 422)","(1338, 415)","(1361, 415)","(1381, 423)","(1393, 440)","(1297, 445)","(1294, 464)","(1290, 482)","(1287, 502)","(1262, 519)","(1273, 525)","(1285, 530)","(1298, 528)","(1311, 525)","(1226, 442)","(1240, 436)","(1254, 438)","(1267, 448)","(1253, 449)","(1238, 448)","(1325, 454)","(1340, 447)","(1355, 449)","(1366, 457)","(1354, 461)","(1339, 459)","(1239, 563)","(1255, 555)","(1271, 552)","(1282, 557)","(1294, 556)","(1310, 563)","(1327, 574)","(1309, 585)","(1291, 588)","(1279, 588)","(1267, 585)","(1252, 577)","(1246, 563)","(1270, 563)","(1281, 565)","(1293, 566)","(1319, 574)","(1292, 573)","(1281, 573)","(1269, 570)",0.29,0.9,37.0,0.34,0.11,0.37,0.03,-13.5,0.05,0.28,17.2,20.5,30.9,17.7,18.3,29.75,15.88,18.7,21.88
2200,-1441792,86,-56,-1,-1,0,"(1172, 439)","(1168, 471)","(1165, 504)","(1168, 536)","(1177, 568)","(1193, 596)","(1214, 620)","(1240, 638)","(1270, 645)","(1301, 645)","(1331, 634)","(1358, 617)","(1379, 594)","(1395, 566)","(1404, 535)","(1410, 503)","(1413, 471)","(1200, 418)","(1217, 404)","(1240, 400)","(1264, 405)","(1285, 418)","(1316, 423)","(1339, 416)","(1362, 415)","(1384, 423)","(1396, 441)","(1295, 446)","(1292, 465)","(1288, 483)","(1285, 503)","(1259, 520)","(1270, 526)","(1283, 531)","(1297, 529)","(1310, 526)","(1222, 443)","(1236, 438)","(1251, 439)","(1264, 449)","(1249, 450)","(1234, 449)","(1325, 456)","(1340, 449)","(1356, 451)","(1368, 459)","(1355, 462)","(1339, 460)","(1235, 563)","(1252, 556)","(1268, 553)","(1280, 558)","(1292, 557)","(1309, 564)","(1326, 575)","(1307, 587)","(1289, 590)","(1276, 590)","(1264, 587)","(1249, 579)","(1243, 564)","(1267, 564)","(1279, 567)","(1291, 568)","(1318, 575)","(1290, 575)","(1278, 575)","(1266, 571)",0.25,0.9,37.0,0.35,0.1,0.37,0.02,-12.5,0.06,0.28,18.9,21.9,30.9,17.6,18.45,29.85,16.17,18.94,22.0
2233,65536,86,-56,-1,-1,0,"(1172, 445)","(1167, 476)","(1166, 508)","(1168, 539)","(1177, 570)","(1192, 598)","(1213, 622)","(1239, 639)","(1269, 646)","(1300, 646)","(1330, 635)","(1357, 618)","(1378, 595)","(1393, 568)","(1402, 537)","(1407, 506)","(1411, 474)","(1199, 420)","(1215, 405)","(1239, 401)","(1262, 406)","(1283, 418)","(1314, 422)","(1336, 415)","(1359, 414)","(1380, 423)","(1391, 441)","(1294, 445)","(1290, 464)","(1287, 482)","(1283, 502)","(1258, 520)","(1269, 526)","(1282, 530)","(1295, 529)","(1308, 526)","(1221, 444)","(1234, 438)","(1249, 439)","(1263, 449)","(1248, 451)","(1233, 450)","(1323, 455)","(1338, 448)","(1353, 450)","(1364, 458)","(1352, 462)","(1337, 460)","(1235, 564)","(1252, 557)","(1268, 554)","(1279, 558)","(1291, 557)","(1308, 564)","(1325, 576)","(1306, 587)","(1288, 590)","(1276, 590)","(1263, 587)","(1249, 579)","(1243, 565)","(1267, 565)","(1278, 567)","(1290, 568)","(1317, 576)","(1289, 574)","(1277, 574)","(1266, 571)",0.29,0.9,37.0,0.34,0.1,0.37,0.02,-13.5,0.05,0.28,19.7,22.0,31.7,17.95,18.6,29.8,16.41,19.0,22.05
2266,524288,86,-56,-1,-1,0,"(1173, 444)","(1168, 475)","(1166, 507)","(1169, 539)","(1178, 570)","(1192, 598)","(1212, 622)","(1238, 640)","(1267, 648)","(1299, 647)","(1330, 637)","(1357, 620)","(1379, 597)","(1395, 569)","(1403, 537)","(1409, 505)","(1412, 472)","(1199, 420)","(1215, 405)","(1238, 402)","(1261, 406)","(1282, 418)","(1313, 423)","(1335, 416)","(1358, 415)","(1380, 423)","(1392, 441)","(1292, 446)","(1289, 465)","(1285, 483)","(1281, 502)","(1257, 520)","(1268, 526)","(1280, 531)","(1294, 529)","(1307, 526)","(1221, 444)","(1234, 438)","(1249, 439)","(1262, 449)","(1247, 451)","(1233, 449)","(1322, 455)","(1337, 448)","(1352, 450)","(1364, 458)","(1351, 461)","(1336, 460)","(1233, 565)","(1250, 557)","(1266, 554)","(1277, 559)","(1289, 558)","(1306, 565)","(1324, 577)","(1304, 587)","(1286, 591)","(1274, 590)","(1261, 587)","(1247, 580)","(1241, 566)","(1265, 565)","(1276, 568)","(1288, 568)","(1315, 576)","(1287, 575)","(1275, 575)","(1264, 572)",0.27,0.9,37.0,0.34,0.09,0.38,0.02,-13.0,0.06,0.27,18.6,21.6,31.7,17.65,18.6,30.6,15.64,18.82,22.05
2300,327680,86,-56,-1,-1,0,"(1176, 445)","(1170, 476)","(1168, 507)","(1169, 539)","(1178, 570)","(1192, 598)","(1212, 622)","(1236, 640)","(1266, 648)","(1298, 648)","(1329, 638)","(1357, 621)","(1379, 598)","(1395, 570)","(1404, 539)","(1409, 507)","(1412, 475)","(1202, 421)","(1218, 407)","(1239, 403)","(1262, 408)","(1281, 420)","(1311, 424)","(1333, 417)","(1356, 416)","(1378, 425)","(1390, 442)","(1291, 446)","(1288, 464)","(1284, 482)","(1279, 502)","(1255, 519)","(1266, 526)","(1278, 530)","(1292, 529)","(1305, 525)","(1223, 445)","(1236, 440)","(1250, 441)","(1263, 449)","(1248, 451)","(1234, 449)","(1322, 455)","(1336, 450)","(1351, 452)","(1362, 460)","(1349, 462)","(1335, 460)","(1233, 565)","(1249, 557)","(1265, 554)","(1276, 558)","(1288, 557)","(1305, 564)","(1323, 577)","(1303, 588)","(1286, 591)","(1273, 591)","(1261, 588)","(1246, 580)","(1241, 566)","(1263, 564)","(1275, 567)","(1287, 567)","(1314, 576)","(1287, 576)","(1275, 576)","(1263, 573)",0.25,0.92,37.0,0.33,0.1,0.38,0.03,-11.5,0.05,0.27,17.3,20.0,28.9,17.7,18.05,30.4,15.76,18.35,21.58
2333,1376256,86,-56,-1,-1,0,"(1173, 447)","(1168, 478)","(1166, 510)","(1168, 541)","(1177, 572)","(1192, 601)","(1212, 625)","(1237, 643)","(1267, 651)","(1298, 650)","(1329, 639)","(1357, 622)","(1378, 598)","(1395, 570)","(1404, 538)","(1409, 506)","(1411, 473)","(1200, 421)","(1215, 407)","(1237, 404)","(1260, 408)","(1280, 420)","(1310, 425)","(1332, 417)","(1355, 416)","(1376, 424)","(1388, 442)","(1290, 449)","(1286, 467)","(1282, 485)","(1278, 505)","(1254, 523)","(1265, 529)","(1277, 534)","(1291, 532)","(1305, 529)","(1220, 447)","(1233, 441)","(1247, 443)","(1261, 451)","(1246, 453)","(1232, 452)","(1319, 457)","(1334, 452)","(1349, 453)","(1361, 461)","(1348, 464)","(1333, 462)","(1233, 567)","(1249, 560)","(1264, 557)","(1276, 562)","(1288, 561)","(1304, 568)","(1323, 579)","(1303, 590)","(1285, 594)","(1272, 593)","(1260, 590)","(1246, 582)","(1241, 568)","(1263, 568)","(1275, 570)","(1287, 571)","(1314, 579)","(1286, 579)","(1274, 578)","(1262, 575)",0.25,0.92,37.0,0.34,0.1,0.37,0.03,-12.0,0.06,0.27,18.7,20.7,31.4,17.75,18.1,29.7,16.41,18.64,21.47
2366,589824,86,-56,-1,-1,0,"(1171, 450)","(1165, 481)","(1163, 513)","(1166, 544)","(1176, 575)","(1191, 602)","(1211, 626)","(1236, 643)","(1265, 651)","(1297, 651)","(1328, 641)","(1355, 624)","(1377, 600)","(1393, 572)","(1402, 541)","(1407, 508)","(1409, 476)","(1196, 422)","(1212, 408)","(1234, 404)","(1257, 409)","(1277, 420)","(1308, 425)","(1330, 418)","(1353, 418)","(1375, 426)","(1387, 443)","(1287, 449)","(1284, 467)","(1281, 485)","(1277, 505)","(1252, 523)","(1263, 529)","(1276, 534)","(1290, 532)","(1303, 529)","(1216, 447)","(1230, 441)","(1244, 442)","(1258, 452)","(1243, 454)","(1228, 452)","(1317, 458)","(1333, 452)","(1347, 454)","(1360, 462)","(1346, 465)","(1331, 463)","(1230, 568)","(1246, 560)","(1262, 557)","(1274, 562)","(1286, 560)","(1303, 567)","(1321, 579)","(1301, 590)","(1283, 593)","(1270, 593)","(1258, 590)","(1244, 582)","(1238, 569)","(1261, 568)","(1273, 570)","(1285, 571)","(1312, 579)","(1284, 578)","(1272, 577)","(1260, 575)",0.25,0.91,37.0,0.35,0.09,0.38,0.03,-13.0,0.06,0.27,18.0,20.6,30.7,17.3,17.75,30.75,15.7,18.35,20.94
2400,917504,86,-56,-1,-1,0,"(1177, 445)","(1171, 475)","(1167, 507)","(1169, 538)","(1177, 569)","(1190, 598)","(1208, 623)","(1231, 643)","(1260, 651)","(1292, 652)","(1324, 642)","(1353, 625)","(1376, 602)","(1394, 574)","(1404, 542)","(1410, 509)","(1414, 476)","(1199, 422)","(1214, 408)","(1236, 404)","(1258, 409)","(1278, 421)","(1308, 426)","(1331, 419)","(1355, 419)","(1377, 428)","(1390, 446)","(1287, 450)","(1283, 468)","(1278, 487)","(1273, 507)","(1249, 524)","(1260, 530)","(1272, 535)","(1287, 534)","(1300, 531)","(1219, 446)","(1232, 441)","(1247, 442)","(1259, 451)","(1245, 453)","(1231, 451)","(1318, 459)","(1333, 452)","(1348, 454)","(1360, 463)","(1347, 466)","(1332, 464)","(1228, 568)","(1243, 561)","(1259, 559)","(1270, 563)","(1282, 562)","(1300, 569)","(1318, 581)","(1298, 592)","(1280, 596)","(1267, 595)","(1254, 592)","(1240, 584)","(1236, 569)","(1257, 569)","(1269, 572)","(1281, 572)","(1310, 580)","(1281, 580)","(1268, 580)","(1257, 577)",0.28,0.96,37.0,0.34,0.11,0.37,0.02,-13.0,0.05,0.28,18.3,21.4,31.9,17.85,18.8,30.9,15.52,18.35,20.76
2433,655360,86,-56,-1,-1,0,"(1174, 447)","(1168, 478)","(1164, 510)","(1166, 541)","(1174, 572)","(1187, 600)","(1206, 626)","(1230, 645)","(1259, 653)","(1291, 653)","(1323, 643)","(1352, 627)","(1375, 604)","(1392, 575)","(1402, 544)","(1407, 511)","(1410, 478)","(1198, 421)","(1212, 408)","(1234, 404)","(1256, 410)","(1275, 422)","(1305, 427)","(1328, 420)","(1352, 420)","(1374, 429)","(1386, 447)","(1285, 451)","(1281, 470)","(1276, 488)","(1272, 507)","(1248, 525)","(1259, 532)","(1271, 537)","(1285, 535)","(1298, 532)","(1217, 448)","(1230, 443)","(1244, 444)","(1257, 453)","(1242, 455)","(1228, 453)","(1316, 461)","(1331, 455)","(1345, 457)","(1357, 465)","(1344, 468)","(1329, 466)","(1226, 570)","(1242, 563)","(1257, 560)","(1268, 565)","(1280, 564)","(1297, 571)","(1315, 583)","(1295, 593)","(1277, 596)","(1265, 595)","(1253, 592)","(1239, 584)","(1234, 571)","(1256, 571)","(1267, 574)","(1279, 575)","(1307, 582)","(1278, 581)","(1267, 580)","(1255, 577)",0.26,0.93,37.0,0.34,0.12,0.37,0.02,-12.5,0.05,0.27,18.3,21.1,31.0,16.15,17.5,29.85,15.52,19.0,21.0
2466,589824,86,-56,-1,-1,0,"(1177, 445)","(1170, 475)","(1167, 507)","(1168, 539)","(1175, 570)","(1188, 600)","(1206, 626)","(1229, 647)","(1259, 655)","(1291, 655)","(1323, 645)","(1352, 628)","(1376, 605)","(1394, 576)","(1404, 545)","(1410, 512)","(1414, 480)","(1200, 421)","(1215, 408)","(1236, 405)","(1258, 410)","(1277, 423)","(1309, 428)","(1331, 421)","(1355, 421)","(1377, 430)","(1390, 448)","(1287, 451)","(1282, 469)","(1277, 487)","(1271, 507)","(1248, 523)","(1258, 530)","(1271, 535)","(1285, 534)","(1299, 531)","(1219, 446)","(1232, 442)","(1246, 443)","(1259, 452)","(1244, 454)","(1230, 452)","(1319, 460)","(1335, 455)","(1350, 457)","(1362, 465)","(1348, 468)","(1333, 465)","(1224, 569)","(1241, 561)","(1257, 559)","(1268, 564)","(1281, 562)","(1299, 569)","(1318, 582)","(1297, 594)","(1278, 598)","(1265, 598)","(1252, 594)","(1238, 586)","(1232, 570)","(1256, 570)","(1267, 572)","(1280, 573)","(1310, 581)","(1280, 582)","(1267, 582)","(1255, 578)",0.24,0.93,37.0,0.34,0.13,0.39,0.03,-12.5,0.05,0.27,19.2,23.1,33.1,18.2,19.5,31.05,16.41,18.76,21.47
2500,917504,86,-56,-1,-1,0,"(1178, 448)","(1171, 478)","(1166, 509)","(1167, 540)","(1174, 571)","(1186, 599)","(1204, 625)","(1227, 645)","(1255, 654)","(1287, 655)","(1320, 645)","(1350, 629)","(1374, 607)","(1392, 579)","(1402, 547)","(1409, 514)","(1413, 482)","(1200, 421)","(1215, 408)","(1235, 405)","(1256, 410)","(1275, 423)","(1306, 428)","(1329, 421)","(1353, 421)","(1375, 430)","(1387, 448)","(1285, 451)","(1280, 470)","(1274, 488)","(1269, 507)","(1246, 524)","(1257, 531)","(1268, 536)","(1282, 535)","(1296, 532)","(1219, 446)","(1231, 441)","(1246, 443)","(1258, 453)","(1244, 454)","(1229, 452)","(1316, 461)","(1331, 455)","(1346, 457)","(1358, 466)","(1344, 469)","(1329, 466)","(1224, 570)","(1239, 562)","(1254, 560)","(1265, 565)","(1277, 564)","(1295, 571)","(1313, 583)","(1292, 594)","(1274, 597)","(1261, 596)","(1250, 593)","(1236, 585)","(1232, 571)","(1253, 570)","(1264, 573)","(1276, 574)","(1305, 582)","(1275, 582)","(1264, 581)","(1252, 578)",0.27,0.97,37.0,0.34,0.13,0.37,0.03,-13.5,0.04,0.27,19.9,22.6,33.5,18.2,18.85,31.65,16.64,18.47,21.47
2533,262144,86,-56,-1,-1,0,"(1178, 444)","(1171, 474)","(1166, 505)","(1166, 536)","(1172, 568)","(1184, 598)","(1202, 625)","(1224, 646)","(1253, 655)","(1286, 657)","(1318, 647)","(1348, 631)","(1372, 608)","(1391, 579)","(1401, 548)","(1408, 514)","(1413, 481)","(1201, 420)","(1215, 407)","(1236, 405)","(1257, 411)","(1276, 424)","(1307, 430)","(1330, 423)","(1354, 423)","(1376, 432)","(1388, 450)","(1285, 452)","(1280, 471)","(1275, 489)","(1269, 509)","(1246, 525)","(1257, 532)","(1268, 537)","(1283, 536)","(1296, 533)","(1219, 445)","(1232, 440)","(1246, 442)","(1258, 452)","(1244, 454)","(1230, 451)","(1317, 461)","(1332, 455)","(1347, 457)","(1359, 466)","(1345, 469)","(1330, 467)","(1224, 569)","(1238, 563)","(1254, 561)","(1265, 566)","(1277, 565)","(1295, 572)","(1313, 584)","(1292, 596)","(1274, 599)","(1261, 598)","(1249, 595)","(1235, 586)","(1231, 571)","(1253, 571)","(1264, 574)","(1276, 575)","(1305, 583)","(1276, 584)","(1263, 583)","(1252, 580)",0.28,0.98,37.0,0.34,0.14,0.37,0.03,-14.0,0.04,0.28,20.3,23.1,33.3,18.15,18.55,31.25,16.17,18.41,21.35
2566,-4128768,86,-56,-1,-1,0,"(1175, 446)","(1169, 477)","(1165, 508)","(1167, 540)","(1175, 571)","(1188, 600)","(1207, 626)","(1229, 646)","(1258, 655)","(1290, 655)","(1322, 644)","(1351, 627)","(1375, 604)","(1393, 576)","(1403, 544)","(1409, 510)","(1412, 477)","(1198, 422)","(1212, 409)","(1233, 406)","(1255, 411)","(1274, 424)","(1305, 428)","(1328, 421)","(1352, 421)","(1374, 429)","(1387, 447)","(1284, 452)","(1280, 470)","(1275, 489)","(1270, 509)","(1247, 525)","(1258, 532)","(1270, 537)","(1284, 536)","(1297, 533)","(1217, 448)","(1230, 442)","(1244, 444)","(1257, 453)","(1243, 455)","(1228, 454)","(1315, 461)","(1330, 454)","(1346, 456)","(1357, 465)","(1344, 468)","(1329, 466)","(1226, 571)","(1241, 563)","(1256, 561)","(1267, 566)","(1279, 564)","(1296, 572)","(1315, 584)","(1294, 595)","(1276, 599)","(1264, 598)","(1252, 595)","(1238, 587)","(1234, 572)","(1255, 571)","(1266, 574)","(1278, 575)","(1306, 583)","(1277, 583)","(1265, 583)","(1254, 579)",0.28,0.96,37.0,0.34,0.12,0.37,0.03,-13.5,0.05,0.28,19.5,22.2,31.4,18.45,19.45,31.5,16.0,18.23,22.0
2600,983040,86,-56,-1,-1,0,"(1173, 449)","(1167, 480)","(1163, 511)","(1165, 543)","(1173, 573)","(1187, 602)","(1205, 627)","(1229, 646)","(1258, 654)","(1289, 655)","(1321, 645)","(1350, 628)","(1373, 605)","(1390, 577)","(1400, 545)","(1406, 512)","(1409, 480)","(1196, 422)","(1211, 408)","(1233, 405)","(1255, 411)","(1274, 423)","(1304, 428)","(1327, 421)","(1350, 421)","(1372, 430)","(1385, 448)","(1283, 452)","(1279, 470)","(1275, 489)","(1270, 508)","(1246, 526)","(1257, 533)","(1269, 538)","(1283, 536)","(1297, 533)","(1215, 448)","(1228, 443)","(1243, 445)","(1255, 454)","(1241, 455)","(1227, 454)","(1314, 461)","(1329, 456)","(1344, 458)","(1356, 466)","(1343, 469)","(1328, 466)","(1225, 572)","(1241, 564)","(1256, 561)","(1267, 566)","(1279, 565)","(1296, 572)","(1313, 585)","(1293, 595)","(1276, 598)","(1263, 598)","(1251, 594)","(1238, 586)","(1233, 573)","(1255, 572)","(1266, 575)","(1277, 576)","(1305, 584)","(1277, 582)","(1265, 582)","(1254, 579)",0.24,0.93,37.0,0.34,0.12,0.37,0.02,-12.5,0.05,0.27,18.9,21.8,31.5,18.25,18.75,31.15,15.94,18.47,21.29
2633,589824,86,-56,-1,-1,0,"(1180, 448)","(1172, 478)","(1168, 509)","(1168, 540)","(1175, 570)","(1187, 599)","(1205, 625)","(1227, 645)","(1256, 654)","(1288, 655)","(1321, 646)","(1351, 630)","(1375, 608)","(1393, 580)","(1403, 549)","(1410, 516)","(1414, 483)","(1202, 420)","(1217, 408)","(1237, 405)","(1258, 411)","(1276, 423)","(1308, 428)","(1330, 421)","(1354, 422)","(1375, 431)","(1388, 448)","(1286, 452)","(1281, 470)","(1276, 488)","(1270, 508)","(1248, 525)","(1258, 532)","(1270, 537)","(1284, 536)","(1297, 533)","(1221, 446)","(1233, 441)","(1247, 443)","(1259, 453)","(1245, 454)","(1231, 452)","(1317, 461)","(1332, 455)","(1347, 458)","(1359, 466)","(1346, 469)","(1331, 467)","(1226, 570)","(1240, 562)","(1256, 560)","(1267, 565)","(1279, 564)","(1297, 571)","(1315, 584)","(1295, 596)","(1276, 599)","(1263, 598)","(1251, 595)","(1237, 586)","(1234, 571)","(1254, 571)","(1266, 574)","(1278, 575)","(1307, 583)","(1277, 583)","(1265, 583)","(1253, 579)",0.27,0.99,37.0,0.34,0.14,0.38,0.03,-13.5,0.04,0.27,21.5,23.9,34.9,18.3,19.35,31.1,15.17,18.05,20.82
2666,-720896,86,-56,-1,-1,0,"(1173, 448)","(1167, 478)","(1163, 510)","(1165, 541)","(1173, 572)","(1186, 601)","(1205, 626)","(1228, 646)","(1257, 654)","(1289, 655)","(1321, 645)","(1350, 628)","(1374, 605)","(1392, 577)","(1402, 545)","(1408, 512)","(1411, 479)","(1197, 422)","(1212, 409)","(1233, 406)","(1255, 411)","(1274, 423)","(1305, 428)","(1328, 421)","(1351, 420)","(1373, 429)","(1386, 446)","(1284, 452)","(1280, 471)","(1275, 489)","(1270, 509)","(1247, 526)","(1258, 533)","(1270, 538)","(1284, 536)","(1297, 533)","(1216, 448)","(1229, 443)","(1243, 444)","(1256, 454)","(1241, 456)","(1227, 454)","(1316, 461)","(1331, 455)","(1346, 457)","(1358, 465)","(1344, 468)","(1329, 466)","(1225, 571)","(1241, 564)","(1256, 562)","(1267, 566)","(1279, 565)","(1296, 572)","(1314, 584)","(1294, 595)","(1276, 598)","(1263, 597)","(1251, 594)","(1238, 586)","(1233, 572)","(1255, 573)","(1266, 575)","(1278, 576)","(1306, 583)","(1277, 582)","(1265, 582)","(1254, 579)",0.26,0.93,37.0,0.34,0.11,0.37,0.02,-13.0,0.05,0.28,18.7,21.0,31.1,17.0,17.6,30.1,15.52,18.52,21.23
2700,-1835008,86,-56,-1,-1,0,"(1179, 444)","(1172, 475)","(1168, 506)","(1169, 537)","(1175, 569)","(1188, 598)","(1206, 624)","(1228, 644)","(1258, 654)","(1290, 654)","(1322, 645)","(1350, 627)","(1373, 604)","(1391, 577)","(1401, 545)","(1407, 513)","(1412, 480)","(1202, 421)","(1216, 408)","(1237, 406)","(1258, 412)","(1277, 424)","(1309, 429)","(1331, 422)","(1354, 423)","(1376, 432)","(1388, 449)","(1287, 451)","(1283, 470)","(1278, 488)","(1273, 508)","(1249, 524)","(1260, 531)","(1271, 536)","(1285, 535)","(1299, 532)","(1221, 446)","(1233, 441)","(1248, 443)","(1260, 452)","(1245, 454)","(1231, 452)","(1318, 461)","(1333, 455)","(1348, 457)","(1359, 466)","(1346, 468)","(1331, 466)","(1226, 569)","(1241, 562)","(1257, 559)","(1269, 564)","(1281, 563)","(1299, 570)","(1316, 582)","(1296, 594)","(1278, 598)","(1265, 598)","(1253, 594)","(1239, 585)","(1234, 570)","(1256, 570)","(1267, 572)","(1280, 573)","(1308, 581)","(1279, 583)","(1267, 582)","(1255, 579)",0.27,0.94,37.0,0.34,0.14,0.38,0.03,-13.0,0.05,0.28,19.3,22.9,32.6,17.85,19.1,31.0,15.82,19.0,21.23
2733,-3538944,86,-56,-1,-1,0,"(1177, 443)","(1170, 474)","(1166, 505)","(1167, 537)","(1175, 568)","(1187, 597)","(1205, 623)","(1228, 644)","(1257, 652)","(1289, 653)","(1321, 643)","(1350, 627)","(1373, 604)","(1391, 576)","(1401, 544)","(1408, 512)","(1412, 479)","(1201, 420)","(1216, 408)","(1237, 405)","(1258, 410)","(1277, 422)","(1308, 427)","(1331, 420)","(1355, 421)","(1376, 430)","(1389, 447)","(1287, 451)","(1282, 469)","(1278, 487)","(1272, 507)","(1249, 523)","(1260, 530)","(1271, 535)","(1285, 534)","(1299, 531)","(1220, 446)","(1233, 441)","(1247, 442)","(1260, 452)","(1245, 454)","(1231, 452)","(1318, 460)","(1333, 453)","(1348, 456)","(1360, 464)","(1347, 467)","(1332, 465)","(1227, 569)","(1242, 561)","(1258, 559)","(1269, 563)","(1280, 562)","(1298, 569)","(1315, 582)","(1295, 593)","(1277, 597)","(1265, 596)","(1253, 593)","(1239, 585)","(1235, 570)","(1256, 569)","(1268, 571)","(1279, 572)","(1307, 581)","(1279, 581)","(1267, 581)","(1256, 578)",0.27,0.95,37.0,0.34,0.13,0.37,0.03,-13.5,0.05,0.27,19.5,23.0,32.7,17.55,18.1,31.0,15.88,18.52,21.05
2766,-1703936,86,-56,-1,-1,0,"(1178, 446)","(1172, 476)","(1169, 507)","(1170, 538)","(1177, 569)","(1190, 598)","(1208, 623)","(1232, 643)","(1260, 652)","(1292, 652)","(1324, 643)","(1352, 626)","(1376, 603)","(1393, 576)","(1403, 544)","(1409, 512)","(1413, 480)","(1203, 422)","(1217, 409)","(1238, 406)","(1260, 411)","(1278, 423)","(1309, 427)","(1331, 420)","(1355, 421)","(1376, 430)","(1389, 447)","(1288, 451)","(1284, 469)","(1279, 488)","(1274, 507)","(1251, 524)","(1261, 530)","(1273, 536)","(1287, 534)","(1300, 531)","(1222, 447)","(1234, 442)","(1249, 443)","(1261, 453)","(1246, 454)","(1233, 452)","(1319, 460)","(1334, 454)","(1348, 456)","(1360, 465)","(1347, 467)","(1332, 465)","(1229, 569)","(1244, 561)","(1260, 558)","(1270, 563)","(1282, 562)","(1299, 569)","(1317, 581)","(1297, 592)","(1279, 596)","(1267, 595)","(1255, 592)","(1242, 584)","(1237, 570)","(1258, 569)","(1269, 571)","(1281, 572)","(1309, 580)","(1281, 580)","(1269, 580)","(1258, 577)",0.26,0.95,37.0,0.34,0.12,0.37,0.03,-12.5,0.05,0.27,19.2,22.8,32.4,18.7,19.0,32.2,16.29,18.47,21.11
2800,458752,86,-56,-1,-1,0,"(1174, 447)","(1168, 478)","(1165, 509)","(1167, 541)","(1176, 572)","(1189, 600)","(1209, 625)","(1233, 644)","(1263, 652)","(1294, 652)","(1326, 642)","(1353, 625)","(1375, 602)","(1392, 574)","(1401, 543)","(1407, 511)","(1410, 479)","(1199, 422)","(1215, 409)","(1237, 406)","(1259, 411)","(1279, 423)","(1309, 428)","(1331, 421)","(1354, 421)","(1376, 429)","(1388, 447)","(1289, 452)","(1285, 470)","(1281, 488)","(1277, 507)","(1252, 525)","(1263, 531)","(1275, 536)","(1289, 535)","(1302, 531)","(1219, 448)","(1232, 442)","(1247, 444)","(1259, 453)","(1245, 455)","(1231, 453)","(1318, 461)","(1333, 454)","(1348, 456)","(1360, 464)","(1347, 467)","(1332, 465)","(1230, 569)","(1246, 562)","(1261, 560)","(1272, 564)","(1284, 563)","(1301, 570)","(1319, 582)","(1299, 592)","(1281, 595)","(1269, 595)","(1257, 592)","(1243, 584)","(1238, 570)","(1260, 571)","(1271, 573)","(1283, 574)","(1310, 581)","(1282, 580)","(1271, 580)","(1259, 576)",0.26,0.93,37.0,0.34,0.12,0.37,0.02,-13.0,0.05,0.27,18.1,20.8,30.5,16.45,17.5,29.35,15.82,18.64,21.17
2833,458752,86,-56,-1,-1,0,"(1177, 448)","(1170, 478)","(1167, 509)","(1169, 540)","(1177, 571)","(1190, 599)","(1210, 624)","(1234, 642)","(1264, 651)","(1295, 651)","(1327, 641)","(1355, 625)","(1377, 602)","(1393, 574)","(1402, 543)","(1407, 512)","(1411, 481)","(1202, 422)","(1217, 409)","(1239, 406)","(1261, 411)","(1280, 423)","(1310, 429)","(1332, 422)","(1354, 422)","(1375, 431)","(1387, 448)","(1290, 452)","(1286, 470)","(1282, 488)","(1278, 507)","(1253, 524)","(1264, 530)","(1276, 535)","(1290, 534)","(1303, 531)","(1222, 448)","(1235, 443)","(1249, 445)","(1261, 453)","(1247, 455)","(1234, 453)","(1319, 461)","(1334, 456)","(1348, 458)","(1359, 466)","(1347, 468)","(1332, 466)","(1231, 568)","(1247, 561)","(1262, 558)","(1274, 563)","(1286, 562)","(1302, 569)","(1320, 581)","(1300, 592)","(1283, 595)","(1270, 594)","(1258, 591)","(1244, 583)","(1239, 569)","(1261, 569)","(1273, 572)","(1284, 572)","(1312, 581)","(1284, 580)","(1272, 579)","(1260, 576)",0.25,0.91,37.0,0.33,0.12,0.38,0.02,-12.0,0.05,0.27,17.0,20.3,28.9,17.55,18.4,30.9,15.23,18.11,20.64
2866,524288,86,-56,-1,-1,0,"(1179, 447)","(1173, 477)","(1170, 508)","(1171, 539)","(1178, 570)","(1191, 598)","(1210, 623)","(1235, 641)","(1264, 650)","(1295, 651)","(1327, 641)","(1354, 625)","(1376, 602)","(1392, 575)","(1401, 545)","(1407, 514)","(1411, 483)","(1206, 422)","(1221, 409)","(1243, 406)","(1264, 411)","(1284, 423)","(1313, 428)","(1335, 422)","(1358, 422)","(1379, 432)","(1390, 449)","(1293, 450)","(1290, 468)","(1286, 486)","(1281, 505)","(1257, 522)","(1268, 528)","(1279, 533)","(1293, 532)","(1306, 529)","(1226, 447)","(1239, 442)","(1253, 444)","(1265, 452)","(1251, 453)","(1237, 452)","(1323, 461)","(1337, 456)","(1351, 458)","(1362, 466)","(1350, 468)","(1336, 466)","(1234, 567)","(1250, 559)","(1266, 556)","(1277, 561)","(1288, 560)","(1305, 567)","(1321, 580)","(1302, 591)","(1285, 594)","(1272, 593)","(1260, 590)","(1246, 582)","(1241, 568)","(1264, 567)","(1276, 569)","(1287, 570)","(1313, 579)","(1286, 579)","(1274, 578)","(1263, 575)",0.25,0.91,37.0,0.33,0.13,0.37,0.03,-11.5,0.05,0.27,19.2,21.9,31.4,17.3,18.0,29.65,14.88,16.82,19.88
2900,393216,86,-56,-1,-1,0,"(1174, 446)","(1169, 477)","(1166, 509)","(1168, 540)","(1176, 572)","(1190, 600)","(1211, 624)","(1236, 641)","(1266, 649)","(1297, 649)","(1327, 640)","(1354, 624)","(1376, 602)","(1392, 575)","(1401, 545)","(1407, 514)","(1411, 483)","(1200, 421)","(1216, 406)","(1239, 403)","(1263, 408)","(1283, 421)","(1315, 427)","(1338, 420)","(1361, 420)","(1382, 430)","(1393, 449)","(1294, 450)","(1290, 469)","(1286, 487)","(1282, 506)","(1257, 523)","(1268, 530)","(1280, 535)","(1293, 533)","(1306, 531)","(1221, 447)","(1235, 442)","(1249, 443)","(1262, 453)","(1248, 454)","(1233, 452)","(1323, 461)","(1339, 455)","(1354, 458)","(1365, 466)","(1352, 469)","(1337, 466)","(1233, 567)","(1250, 560)","(1266, 557)","(1277, 562)","(1289, 561)","(1306, 569)","(1323, 581)","(1303, 591)","(1286, 594)","(1273, 593)","(1261, 590)","(1247, 582)","(1241, 568)","(1265, 568)","(1276, 571)","(1288, 572)","(1314, 580)","(1287, 579)","(1275, 578)","(1264, 575)",0.26,0.9,37.0,0.34,0.13,0.37,0.02,-13.0,0.05,0.28,20.3,23.2,32.4,17.2,18.4,30.35,14.88,18.17,19.52
2933,327680,86,-56,-1,-1,0,"(1171, 444)","(1166, 476)","(1163, 508)","(1165, 540)","(1174, 571)","(1189, 600)","(1211, 623)","(1238, 641)","(1268, 648)","(1300, 648)","(1330, 638)","(1357, 621)","(1377, 597)","(1392, 570)","(1401, 539)","(1406, 509)","(1409, 478)","(1200, 422)","(1217, 408)","(1240, 404)","(1264, 409)","(1285, 421)","(1315, 427)","(1337, 419)","(1360, 420)","(1381, 428)","(1392, 446)","(1295, 450)","(1292, 469)","(1288, 487)","(1285, 506)","(1259, 523)","(1271, 530)","(1283, 535)","(1296, 533)","(1309, 530)","(1222, 447)","(1235, 442)","(1250, 443)","(1263, 452)","(1249, 454)","(1234, 452)","(1324, 460)","(1339, 454)","(1353, 456)","(1365, 463)","(1352, 466)","(1337, 464)","(1236, 566)","(1253, 559)","(1269, 557)","(1281, 562)","(1292, 561)","(1309, 568)","(1325, 580)","(1306, 590)","(1289, 594)","(1276, 593)","(1264, 590)","(1250, 581)","(1244, 567)","(1268, 567)","(1280, 570)","(1291, 571)","(1317, 579)","(1290, 579)","(1278, 578)","(1267, 575)",0.24,0.89,37.0,0.34,0.11,0.37,0.03,-12.0,0.05,0.28,18.6,21.9,31.6,17.5,18.25,29.65,15.7,18.05,20.58
2966,131072,86,-56,-1,-1,0,"(1173, 442)","(1168, 474)","(1166, 506)","(1168, 538)","(1177, 570)","(1192, 598)","(1214, 622)","(1241, 639)","(1271, 647)","(1303, 646)","(1333, 636)","(1359, 619)","(1379, 595)","(1393, 568)","(1402, 538)","(1407, 508)","(1410, 477)","(1203, 420)","(1220, 406)","(1243, 402)","(1267, 407)","(1288, 420)","(1318, 425)","(1340, 419)","(1363, 419)","(1383, 427)","(1394, 445)","(1298, 449)","(1295, 467)","(1292, 486)","(1289, 505)","(1262, 522)","(1274, 528)","(1286, 533)","(1299, 532)","(1311, 529)","(1224, 446)","(1238, 441)","(1253, 442)","(1266, 451)","(1251, 453)","(1237, 451)","(1326, 459)","(1341, 453)","(1356, 455)","(1367, 463)","(1355, 466)","(1340, 464)","(1238, 566)","(1256, 559)","(1272, 556)","(1283, 561)","(1295, 560)","(1310, 567)","(1327, 579)","(1308, 589)","(1292, 592)","(1279, 591)","(1267, 588)","(1252, 580)","(1246, 567)","(1270, 567)","(1282, 569)","(1294, 570)","(1318, 578)","(1293, 577)","(1281, 576)","(1269, 573)",0.26,0.85,37.0,0.34,0.12,0.37,0.02,-12.5,0.05,0.28,19.7,22.2,32.6,17.2,17.3,29.9,15.94,18.76,21.11
3000,196608,86,-56,-1,-1,0,"(1177, 443)","(1172, 474)","(1170, 506)","(1172, 537)","(1180, 568)","(1195, 596)","(1216, 620)","(1243, 637)","(1273, 645)","(1303, 645)","(1333, 635)","(1358, 618)","(1378, 595)","(1392, 569)","(1401, 539)","(1406, 509)","(1409, 480)","(1208, 421)","(1224, 408)","(1247, 404)","(1269, 409)","(1289, 422)","(1319, 427)","(1340, 420)","(1362, 421)","(1382, 430)","(1393, 447)","(1299, 449)","(1296, 467)","(1293, 485)","(1290, 504)","(1264, 520)","(1275, 526)","(1287, 531)","(1300, 530)","(1312, 527)","(1229, 446)","(1242, 441)","(1256, 442)","(1269, 451)","(1255, 452)","(1241, 450)","(1327, 459)","(1341, 454)","(1355, 456)","(1366, 464)","(1354, 466)","(1340, 463)","(1240, 563)","(1257, 555)","(1273, 553)","(1285, 558)","(1296, 556)","(1312, 564)","(1328, 576)","(1310, 587)","(1294, 590)","(1281, 590)","(1269, 587)","(1254, 578)","(1248, 564)","(1272, 564)","(1284, 566)","(1295, 567)","(1320, 575)","(1295, 575)","(1283, 575)","(1271, 572)",0.24,0.88,37.0,0.33,0.13,0.37,0.03,-11.5,0.05,0.28,17.1,20.0,29.0,17.05,17.5,29.85,15.64,17.88,20.64
3033,524288,86,-56,-1,-1,0,"(1177, 445)","(1172, 476)","(1170, 507)","(1172, 538)","(1181, 568)","(1195, 595)","(1216, 618)","(1243, 635)","(1273, 642)","(1303, 642)","(1332, 632)","(1357, 616)","(1376, 594)","(1390, 567)","(1399, 539)","(1405, 509)","(1408, 480)","(1206, 421)","(1223, 407)","(1246, 403)","(1270, 409)","(1291, 421)","(1320, 426)","(1342, 420)","(1363, 421)","(1383, 430)","(1393, 447)","(1301, 449)","(1297, 467)","(1294, 484)","(1291, 503)","(1265, 520)","(1276, 526)","(1288, 531)","(1301, 529)","(1313, 526)","(1228, 446)","(1241, 440)","(1256, 442)","(1269, 451)","(1254, 453)","(1240, 451)","(1327, 459)","(1342, 453)","(1356, 456)","(1367, 464)","(1355, 467)","(1341, 464)","(1241, 563)","(1258, 555)","(1275, 553)","(1285, 557)","(1297, 556)","(1312, 563)","(1328, 575)","(1310, 585)","(1294, 588)","(1282, 588)","(1270, 585)","(1255, 577)","(1249, 564)","(1273, 563)","(1284, 566)","(1295, 566)","(1320, 574)","(1295, 574)","(1284, 573)","(1272, 570)",0.27,0.85,37.0,0.34,0.13,0.37,0.02,-13.5,0.05,0.27,17.5,20.4,28.8,17.45,18.55,30.4,15.52,17.52,19.7
3066,655360,86,-56,-1,-1,0,"(1213, 452)","(1207, 479)","(1205, 507)","(1205, 535)","(1211, 563)","(1220, 589)","(1235, 612)","(1254, 630)","(1280, 639)","(1308, 639)","(1336, 630)","(1362, 616)","(1384, 596)","(1400, 572)","(1410, 543)","(1416, 514)","(1421, 485)","(1231, 425)","(1244, 414)","(1261, 413)","(1279, 418)","(1295, 429)","(1324, 434)","(1343, 429)","(1364, 429)","(1383, 436)","(1395, 451)","(1304, 454)","(1300, 471)","(1296, 487)","(1291, 505)","(1271, 519)","(1280, 525)","(1290, 530)","(1303, 529)","(1315, 527)","(1246, 449)","(1258, 444)","(1270, 447)","(1281, 456)","(1268, 457)","(1256, 454)","(1332, 464)","(1346, 458)","(1360, 461)","(1370, 469)","(1358, 471)","(1344, 469)","(1249, 560)","(1263, 552)","(1277, 550)","(1288, 554)","(1299, 553)","(1315, 560)","(1332, 573)","(1313, 585)","(1296, 588)","(1284, 588)","(1273, 585)","(1260, 576)","(1255, 561)","(1276, 560)","(1287, 562)","(1298, 563)","(1325, 572)","(1298, 574)","(1286, 573)","(1275, 570)",0.27,0.97,37.0,0.35,0.14,0.39,0.04,-13.0,0.05,0.27,10.3,13.8,20.1,15.2,17.1,28.6,11.0,14.11,19.11
3100,-1310720,86,-56,-1,-1,0,"(1214, 451)","(1209, 478)","(1206, 505)","(1206, 534)","(1212, 561)","(1222, 587)","(1237, 610)","(1256, 629)","(1281, 637)","(1309, 638)","(1337, 629)","(1363, 614)","(1384, 595)","(1401, 571)","(1410, 542)","(1417, 514)","(1421, 485)","(1233, 424)","(1246, 413)","(1264, 413)","(1282, 418)","(1297, 429)","(1326, 435)","(1344, 429)","(1365, 429)","(1383, 436)","(1396, 451)","(1306, 454)","(1302, 470)","(1298, 487)","(1293, 504)","(1273, 519)","(1282, 525)","(1292, 529)","(1305, 528)","(1316, 526)","(1249, 448)","(1260, 444)","(1272, 446)","(1283, 456)","(1270, 456)","(1258, 454)","(1334, 464)","(1347, 458)","(1360, 461)","(1371, 469)","(1359, 471)","(1346, 469)","(1251, 559)","(1265, 552)","(1279, 549)","(1289, 554)","(1301, 552)","(1317, 560)","(1332, 572)","(1314, 583)","(1298, 587)","(1286, 587)","(1275, 584)","(1262, 575)","(1258, 560)","(1278, 559)","(1288, 562)","(1299, 562)","(1325, 571)","(1299, 573)","(1288, 572)","(1277, 569)",0.28,0.95,37.0,0.34,0.15,0.39,0.04,-12.5,0.04,0.27,9.6,13.3,20.4,16.15,16.05,28.25,10.52,13.47,18.7
3133,2424832,86,-56,-1,-1,0,"(1218, 444)","(1212, 471)","(1208, 498)","(1208, 526)","(1213, 554)","(1223, 580)","(1238, 603)","(1259, 621)","(1285, 629)","(1313, 630)","(1341, 619)","(1365, 603)","(1385, 583)","(1400, 559)","(1409, 532)","(1414, 505)","(1418, 477)","(1237, 420)","(1249, 409)","(1267, 406)","(1285, 412)","(1301, 424)","(1328, 429)","(1347, 422)","(1367, 422)","(1386, 431)","(1397, 447)","(1310, 450)","(1306, 467)","(1301, 483)","(1297, 500)","(1276, 514)","(1285, 520)","(1296, 525)","(1308, 523)","(1320, 521)","(1253, 445)","(1264, 440)","(1277, 442)","(1288, 451)","(1275, 452)","(1262, 450)","(1336, 459)","(1350, 454)","(1363, 457)","(1373, 465)","(1361, 467)","(1348, 465)","(1257, 552)","(1270, 544)","(1284, 542)","(1294, 546)","(1305, 546)","(1320, 552)","(1335, 565)","(1318, 577)","(1302, 582)","(1290, 581)","(1279, 578)","(1267, 569)","(1263, 553)","(1283, 552)","(1293, 555)","(1303, 555)","(1328, 564)","(1303, 568)","(1292, 567)","(1282, 564)",0.28,0.97,37.0,0.36,0.15,0.39,0.04,-12.5,0.05,0.27,14.4,16.9,25.1,16.3,17.8,29.55,13.94,17.11,22.58
3166,720896,86,-56,-1,-1,0,"(1218, 443)","(1212, 469)","(1209, 497)","(1209, 525)","(1214, 552)","(1224, 578)","(1240, 600)","(1261, 618)","(1287, 626)","(1316, 626)","(1343, 617)","(1366, 601)","(1386, 581)","(1401, 557)","(1410, 530)","(1415, 503)","(1418, 476)","(1238, 420)","(1251, 409)","(1269, 407)","(1288, 412)","(1304, 424)","(1330, 428)","(1349, 422)","(1369, 422)","(1388, 431)","(1398, 447)","(1312, 449)","(1308, 466)","(1304, 483)","(1300, 500)","(1279, 513)","(1288, 519)","(1299, 524)","(1311, 523)","(1323, 520)","(1255, 444)","(1266, 440)","(1278, 441)","(1289, 450)","(1277, 451)","(1264, 449)","(1338, 458)","(1352, 453)","(1364, 456)","(1374, 463)","(1363, 466)","(1350, 463)","(1260, 550)","(1273, 543)","(1287, 541)","(1297, 545)","(1308, 544)","(1323, 551)","(1337, 563)","(1320, 574)","(1305, 578)","(1293, 577)","(1282, 574)","(1270, 565)","(1266, 551)","(1286, 551)","(1296, 554)","(1306, 554)","(1330, 562)","(1306, 564)","(1295, 563)","(1285, 560)",0.27,0.94,37.0,0.34,0.16,0.38,0.03,-12.0,0.05,0.28,13.3,16.0,25.5,16.1,17.3,29.7,15.0,17.58,23.76
3200,131072,86,-56,-1,-1,0,"(1221, 442)","(1215, 469)","(1212, 496)","(1211, 524)","(1216, 551)","(1227, 575)","(1242, 598)","(1263, 614)","(1289, 622)","(1316, 623)","(1343, 614)","(1366, 599)","(1385, 579)","(1400, 556)","(1409, 531)","(1415, 504)","(1419, 477)","(1241, 419)","(1254, 408)","(1273, 406)","(1291, 412)","(1307, 423)","(1334, 429)","(1353, 423)","(1372, 423)","(1391, 431)","(1401, 447)","(1316, 449)","(1312, 465)","(1308, 482)","(1304, 499)","(1282, 512)","(1291, 518)","(1302, 523)","(1314, 522)","(1325, 519)","(1257, 443)","(1269, 439)","(1281, 440)","(1292, 449)","(1279, 450)","(1267, 448)","(1341, 458)","(1355, 453)","(1368, 456)","(1377, 464)","(1366, 466)","(1353, 463)","(1262, 549)","(1276, 542)","(1290, 540)","(1299, 544)","(1310, 543)","(1324, 550)","(1338, 563)","(1322, 572)","(1307, 576)","(1296, 575)","(1285, 572)","(1273, 564)","(1269, 550)","(1289, 550)","(1298, 552)","(1309, 553)","(1331, 561)","(1308, 562)","(1298, 561)","(1288, 558)",0.27,0.92,37.0,0.35,0.15,0.38,0.03,-12.0,0.04,0.28,13.7,16.4,24.4,15.85,18.05,30.0,15.11,17.35,24.64
3233,-393216,86,-56,-1,-1,0,"(1222, 444)","(1216, 470)","(1212, 498)","(1212, 525)","(1218, 552)","(1229, 578)","(1244, 601)","(1265, 618)","(1291, 626)","(1318, 626)","(1345, 616)","(1368, 600)","(1387, 580)","(1401, 557)","(1410, 531)","(1416, 504)","(1419, 477)","(1242, 420)","(1255, 408)","(1273, 406)","(1292, 411)","(1308, 423)","(1335, 428)","(1354, 422)","(1374, 422)","(1392, 431)","(1401, 447)","(1317, 449)","(1313, 465)","(1309, 482)","(1305, 499)","(1284, 512)","(1293, 518)","(1303, 523)","(1315, 522)","(1327, 519)","(1259, 443)","(1270, 439)","(1283, 441)","(1293, 450)","(1281, 451)","(1268, 449)","(1342, 458)","(1356, 453)","(1368, 456)","(1378, 464)","(1366, 466)","(1354, 463)","(1264, 550)","(1277, 542)","(1292, 540)","(1301, 544)","(1312, 544)","(1327, 550)","(1340, 563)","(1324, 575)","(1309, 579)","(1297, 578)","(1286, 575)","(1274, 566)","(1270, 550)","(1290, 550)","(1300, 553)","(1311, 553)","(1333, 562)","(1310, 565)","(1299, 564)","(1289, 561)",0.27,0.94,37.0,0.35,0.16,0.38,0.04,-12.5,0.05,0.28,14.1,16.6,26.3,15.5,17.35,28.75,14.0,16.94,22.11
3266,-2031616,86,-56,-1,-1,0,"(1223, 445)","(1217, 471)","(1213, 499)","(1213, 527)","(1219, 554)","(1230, 579)","(1247, 602)","(1268, 619)","(1294, 626)","(1322, 626)","(1348, 615)","(1371, 600)","(1389, 579)","(1403, 556)","(1411, 530)","(1417, 503)","(1420, 477)","(1243, 421)","(1256, 409)","(1274, 406)","(1293, 411)","(1310, 423)","(1336, 428)","(1355, 422)","(1375, 422)","(1393, 431)","(1403, 447)","(1319, 449)","(1315, 465)","(1311, 481)","(1307, 499)","(1286, 512)","(1295, 518)","(1306, 523)","(1318, 521)","(1329, 519)","(1260, 444)","(1271, 439)","(1284, 441)","(1294, 450)","(1282, 451)","(1269, 449)","(1344, 458)","(1357, 453)","(1370, 455)","(1379, 463)","(1368, 465)","(1355, 463)","(1265, 551)","(1279, 543)","(1294, 541)","(1303, 545)","(1314, 543)","(1329, 550)","(1343, 562)","(1327, 573)","(1312, 577)","(1300, 577)","(1289, 574)","(1276, 566)","(1272, 551)","(1292, 550)","(1302, 553)","(1313, 553)","(1336, 561)","(1313, 564)","(1302, 564)","(1292, 561)",0.28,0.91,37.0,0.35,0.15,0.39,0.04,-12.0,0.05,0.28,13.3,16.8,25.4,16.2,17.15,28.5,14.47,16.88,22.47
3300,-2228224,86,-56,-1,-1,0,"(1224, 441)","(1218, 468)","(1215, 496)","(1214, 524)","(1220, 552)","(1231, 578)","(1247, 602)","(1267, 620)","(1293, 628)","(1321, 628)","(1347, 618)","(1370, 601)","(1388, 580)","(1402, 556)","(1411, 530)","(1418, 503)","(1422, 476)","(1244, 419)","(1257, 408)","(1276, 406)","(1295, 411)","(1312, 422)","(1340, 428)","(1359, 422)","(1379, 423)","(1398, 431)","(1407, 448)","(1321, 449)","(1317, 466)","(1313, 483)","(1309, 500)","(1287, 513)","(1297, 519)","(1307, 524)","(1319, 522)","(1331, 520)","(1261, 443)","(1273, 439)","(1285, 441)","(1296, 450)","(1283, 450)","(1271, 448)","(1347, 458)","(1361, 454)","(1374, 457)","(1383, 464)","(1372, 466)","(1359, 463)","(1265, 550)","(1279, 543)","(1294, 542)","(1304, 546)","(1315, 545)","(1330, 551)","(1345, 563)","(1328, 577)","(1312, 582)","(1300, 581)","(1289, 578)","(1276, 569)","(1272, 552)","(1293, 552)","(1303, 554)","(1314, 555)","(1337, 563)","(1314, 567)","(1303, 567)","(1292, 564)",0.25,0.93,37.0,0.35,0.16,0.4,0.04,-11.5,0.05,0.28,15.5,18.1,26.3,16.5,17.3,28.4,13.88,16.7,22.76
3333,0,86,-56,-1,-1,0,"(1225, 440)","(1219, 467)","(1215, 495)","(1214, 524)","(1220, 552)","(1231, 579)","(1247, 603)","(1268, 622)","(1294, 630)","(1322, 631)","(1348, 620)","(1371, 603)","(1389, 582)","(1403, 557)","(1412, 531)","(1419, 504)","(1423, 476)","(1247, 418)","(1261, 407)","(1279, 405)","(1298, 410)","(1315, 422)","(1343, 428)","(1362, 422)","(1381, 423)","(1399, 431)","(1409, 447)","(1324, 448)","(1320, 465)","(1316, 482)","(1312, 500)","(1289, 512)","(1299, 518)","(1309, 523)","(1321, 522)","(1333, 520)","(1264, 442)","(1275, 439)","(1288, 440)","(1299, 449)","(1286, 449)","(1273, 447)","(1349, 458)","(1363, 454)","(1376, 456)","(1385, 464)","(1374, 466)","(1361, 463)","(1266, 551)","(1281, 544)","(1296, 542)","(1306, 546)","(1317, 545)","(1332, 552)","(1346, 564)","(1330, 577)","(1314, 582)","(1302, 581)","(1291, 578)","(1277, 569)","(1273, 552)","(1295, 552)","(1305, 555)","(1316, 556)","(1339, 563)","(1316, 567)","(1305, 567)","(1294, 564)",0.26,0.91,37.0,0.35,0.16,0.4,0.04,-11.0,0.04,0.28,15.2,18.0,27.3,17.65,17.85,29.4,13.17,15.94,22.64
3366,851968,86,-56,-1,-1,0,"(1237, 442)","(1231, 468)","(1227, 495)","(1227, 523)","(1232, 551)","(1242, 577)","(1256, 602)","(1275, 621)","(1301, 630)","(1330, 630)","(1358, 620)","(1383, 604)","(1404, 584)","(1420, 559)","(1429, 531)","(1435, 503)","(1439, 475)","(1253, 416)","(1266, 405)","(1284, 404)","(1302, 410)","(1317, 421)","(1347, 426)","(1366, 420)","(1387, 421)","(1406, 429)","(1417, 445)","(1327, 448)","(1323, 465)","(1318, 482)","(1313, 501)","(1293, 513)","(1302, 519)","(1313, 524)","(1325, 523)","(1337, 520)","(1269, 442)","(1280, 438)","(1293, 440)","(1304, 448)","(1291, 450)","(1278, 448)","(1356, 457)","(1369, 452)","(1382, 455)","(1393, 462)","(1380, 465)","(1367, 462)","(1272, 551)","(1286, 545)","(1300, 543)","(1311, 547)","(1322, 546)","(1338, 553)","(1354, 564)","(1336, 577)","(1319, 582)","(1306, 581)","(1295, 578)","(1282, 569)","(1279, 553)","(1299, 553)","(1310, 556)","(1321, 557)","(1346, 564)","(1320, 567)","(1309, 567)","(1298, 563)",0.27,0.96,37.0,0.35,0.16,0.4,0.03,-12.5,0.04,0.29,16.6,18.8,27.9,17.65,18.1,29.45,9.29,12.11,17.11
3400,1114112,86,-56,-1,-1,0,"(1238, 440)","(1232, 467)","(1228, 494)","(1228, 522)","(1233, 550)","(1242, 576)","(1257, 600)","(1276, 620)","(1302, 629)","(1330, 630)","(1358, 619)","(1384, 603)","(1405, 583)","(1420, 558)","(1430, 531)","(1436, 502)","(1441, 474)","(1255, 415)","(1268, 404)","(1286, 403)","(1304, 408)","(1319, 420)","(1349, 425)","(1368, 419)","(1389, 420)","(1408, 428)","(1419, 443)","(1329, 447)","(1324, 464)","(1319, 481)","(1315, 499)","(1294, 512)","(1304, 518)","(1314, 523)","(1326, 522)","(1338, 519)","(1271, 440)","(1282, 436)","(1295, 438)","(1306, 447)","(1293, 448)","(1280, 446)","(1357, 455)","(1371, 450)","(1384, 453)","(1394, 461)","(1382, 463)","(1369, 461)","(1275, 551)","(1287, 544)","(1302, 542)","(1312, 546)","(1323, 545)","(1339, 552)","(1355, 564)","(1337, 577)","(1320, 582)","(1308, 581)","(1297, 578)","(1284, 568)","(1281, 552)","(1301, 552)","(1311, 555)","(1322, 555)","(1347, 563)","(1321, 567)","(1310, 566)","(1300, 563)",0.28,0.99,37.0,0.35,0.16,0.39,0.04,-12.5,0.04,0.28,17.0,19.9,29.0,18.4,18.6,29.05,9.64,12.82,17.76
3433,1376256,86,-56,-1,-1,0,"(1237, 441)","(1231, 468)","(1227, 496)","(1227, 524)","(1233, 552)","(1244, 578)","(1259, 602)","(1279, 620)","(1305, 629)","(1333, 629)","(1361, 618)","(1385, 602)","(1404, 581)","(1420, 557)","(1429, 530)","(1435, 503)","(1439, 475)","(1257, 415)","(1270, 404)","(1288, 402)","(1307, 407)","(1323, 419)","(1351, 424)","(1370, 418)","(1390, 419)","(1409, 427)","(1419, 443)","(1332, 445)","(1328, 462)","(1323, 479)","(1319, 497)","(1298, 510)","(1307, 516)","(1318, 521)","(1330, 520)","(1342, 518)","(1273, 439)","(1284, 435)","(1297, 437)","(1308, 446)","(1295, 447)","(1282, 445)","(1359, 455)","(1372, 449)","(1385, 452)","(1395, 460)","(1383, 462)","(1370, 460)","(1276, 550)","(1290, 543)","(1305, 541)","(1315, 545)","(1326, 544)","(1342, 551)","(1357, 563)","(1340, 576)","(1323, 581)","(1312, 580)","(1300, 577)","(1287, 568)","(1283, 551)","(1304, 551)","(1314, 553)","(1325, 554)","(1350, 562)","(1325, 566)","(1314, 566)","(1303, 562)",0.29,0.95,37.0,0.35,0.16,0.4,0.04,-12.5,0.04,0.28,17.2,20.0,31.2,18.0,18.35,29.8,10.0,12.88,17.82
3466,851968,86,-56,-1,-1,0,"(1239, 437)","(1233, 465)","(1229, 492)","(1229, 521)","(1234, 549)","(1244, 576)","(1258, 600)","(1278, 620)","(1304, 629)","(1333, 629)","(1361, 619)","(1385, 602)","(1405, 582)","(1420, 558)","(1430, 530)","(1437, 503)","(1441, 475)","(1259, 414)","(1272, 403)","(1290, 401)","(1308, 407)","(1324, 419)","(1353, 424)","(1373, 418)","(1393, 419)","(1412, 428)","(1422, 444)","(1334, 446)","(1329, 463)","(1325, 480)","(1320, 498)","(1299, 511)","(1308, 517)","(1318, 522)","(1331, 521)","(1342, 519)","(1275, 439)","(1286, 434)","(1299, 436)","(1309, 446)","(1297, 447)","(1284, 444)","(1361, 455)","(1375, 450)","(1388, 452)","(1398, 461)","(1386, 463)","(1373, 461)","(1277, 550)","(1291, 543)","(1306, 541)","(1316, 546)","(1327, 545)","(1343, 552)","(1358, 564)","(1340, 577)","(1323, 581)","(1311, 580)","(1300, 577)","(1287, 568)","(1284, 551)","(1304, 551)","(1315, 554)","(1326, 555)","(1350, 563)","(1325, 566)","(1314, 566)","(1303, 562)",0.29,0.95,37.0,0.35,0.17,0.4,0.04,-13.0,0.03,0.28,17.8,20.3,29.1,17.5,18.05,29.05,8.82,12.52,16.7
3500,1114112,86,-56,-1,-1,0,"(1239, 438)","(1234, 465)","(1230, 493)","(1229, 521)","(1235, 549)","(1245, 576)","(1261, 599)","(1281, 618)","(1307, 627)","(1336, 628)","(1363, 617)","(1387, 601)","(1407, 580)","(1421, 556)","(1431, 529)","(1437, 501)","(1441, 473)","(1259, 413)","(1273, 403)","(1291, 401)","(1310, 407)","(1326, 419)","(1354, 424)","(1373, 419)","(1394, 419)","(1412, 428)","(1422, 443)","(1335, 446)","(1331, 463)","(1326, 479)","(1322, 497)","(1300, 510)","(1310, 516)","(1320, 521)","(1333, 520)","(1344, 518)","(1275, 438)","(1287, 434)","(1300, 436)","(1310, 445)","(1297, 446)","(1285, 444)","(1362, 454)","(1375, 449)","(1388, 452)","(1398, 460)","(1386, 462)","(1373, 460)","(1279, 549)","(1292, 542)","(1308, 540)","(1318, 544)","(1329, 543)","(1345, 550)","(1360, 562)","(1343, 575)","(1326, 579)","(1314, 579)","(1303, 575)","(1289, 566)","(1285, 550)","(1306, 550)","(1317, 553)","(1328, 553)","(1353, 561)","(1327, 565)","(1316, 564)","(1306, 561)",0.29,0.95,37.0,0.35,0.17,0.4,0.04,-12.5,0.04,0.28,18.1,20.6,30.0,17.45,17.6,29.1,10.76,13.35,18.76
3533,655360,86,-56,-1,-1,0,"(1242, 441)","(1236, 467)","(1232, 495)","(1231, 523)","(1236, 550)","(1246, 576)","(1262, 600)","(1282, 618)","(1308, 626)","(1336, 627)","(1363, 617)","(1387, 602)","(1407, 582)","(1422, 558)","(1431, 531)","(1438, 504)","(1442, 477)","(1262, 415)","(1275, 404)","(1293, 402)","(1312, 407)","(1328, 419)","(1356, 424)","(1375, 419)","(1396, 420)","(1414, 429)","(1424, 445)","(1337, 445)","(1333, 462)","(1328, 478)","(1324, 496)","(1302, 509)","(1312, 515)","(1322, 520)","(1334, 519)","(1346, 517)","(1278, 439)","(1289, 434)","(1302, 436)","(1313, 446)","(1300, 446)","(1287, 444)","(1364, 455)","(1377, 450)","(1390, 452)","(1400, 461)","(1388, 463)","(1375, 460)","(1281, 549)","(1295, 542)","(1309, 540)","(1319, 544)","(1330, 543)","(1346, 550)","(1360, 563)","(1343, 574)","(1327, 578)","(1315, 577)","(1304, 574)","(1291, 565)","(1287, 550)","(1308, 549)","(1318, 552)","(1329, 553)","(1353, 562)","(1329, 563)","(1318, 563)","(1307, 559)",0.29,0.95,37.0,0.35,0.17,0.39,0.04,-12.5,0.04,0.28,17.7,19.5,28.4,16.35,17.8,28.9,9.58,12.29,16.52
3566,851968,86,-56,-1,-1,0,"(1243, 438)","(1237, 465)","(1233, 493)","(1232, 521)","(1237, 548)","(1248, 574)","(1264, 597)","(1284, 615)","(1310, 624)","(1337, 624)","(1364, 614)","(1388, 599)","(1407, 579)","(1422, 555)","(1431, 529)","(1437, 502)","(1442, 475)","(1264, 414)","(1277, 403)","(1295, 401)","(1314, 407)","(1329, 418)","(1357, 424)","(1376, 419)","(1396, 420)","(1414, 428)","(1424, 444)","(1339, 444)","(1334, 461)","(1330, 477)","(1326, 495)","(1304, 508)","(1313, 514)","(1324, 519)","(1336, 518)","(1347, 516)","(1280, 437)","(1291, 433)","(1304, 435)","(1314, 445)","(1302, 445)","(1289, 443)","(1364, 454)","(1378, 448)","(1391, 451)","(1401, 460)","(1389, 462)","(1376, 459)","(1282, 546)","(1296, 539)","(1311, 537)","(1321, 541)","(1332, 540)","(1347, 547)","(1362, 560)","(1345, 572)","(1329, 576)","(1317, 575)","(1306, 572)","(1293, 563)","(1288, 547)","(1309, 547)","(1320, 550)","(1331, 551)","(1355, 559)","(1330, 561)","(1319, 561)","(1309, 557)",0.29,0.93,37.0,0.35,0.17,0.4,0.04,-13.0,0.04,0.28,17.0,19.8,29.0,15.75,17.15,27.75,9.94,12.7,17.35
3600,786432,86,-56,-1,-1,0,"(1245, 440)","(1239, 467)","(1236, 494)","(1235, 521)","(1240, 548)","(1250, 573)","(1266, 596)","(1286, 613)","(1311, 621)","(1338, 622)","(1365, 613)","(1388, 599)","(1407, 579)","(1421, 556)","(1430, 530)","(1437, 504)","(1442, 477)","(1265, 415)","(1278, 404)","(1296, 402)","(1315, 408)","(1331, 419)","(1359, 425)","(1378, 419)","(1397, 420)","(1415, 429)","(1425, 445)","(1340, 445)","(1336, 461)","(1332, 478)","(1327, 495)","(1306, 508)","(1315, 514)","(1325, 519)","(1337, 518)","(1348, 516)","(1281, 439)","(1293, 434)","(1305, 436)","(1315, 445)","(1303, 446)","(1291, 444)","(1366, 455)","(1379, 449)","(1392, 452)","(1402, 461)","(1390, 463)","(1377, 460)","(1284, 547)","(1298, 540)","(1312, 538)","(1322, 543)","(1332, 542)","(1347, 549)","(1361, 561)","(1345, 571)","(1329, 574)","(1318, 572)","(1307, 569)","(1295, 561)","(1291, 548)","(1311, 548)","(1321, 551)","(1331, 552)","(1354, 560)","(1331, 560)","(1320, 559)","(1310, 556)",0.3,0.94,37.0,0.35,0.17,0.39,0.03,-13.0,0.04,0.28,16.3,19.5,27.8,14.8,16.3,27.35,9.76,13.0,16.7
3633,917504,86,-56,-1,-1,0,"(1245, 440)","(1239, 466)","(1236, 494)","(1235, 521)","(1240, 548)","(1251, 572)","(1267, 594)","(1288, 611)","(1313, 619)","(1340, 620)","(1367, 610)","(1389, 596)","(1408, 577)","(1421, 554)","(1430, 528)","(1437, 503)","(1441, 476)","(1266, 416)","(1279, 405)","(1298, 403)","(1317, 408)","(1333, 419)","(1360, 425)","(1379, 419)","(1398, 421)","(1416, 429)","(1426, 445)","(1342, 445)","(1338, 461)","(1335, 478)","(1331, 495)","(1308, 508)","(1318, 514)","(1328, 519)","(1340, 517)","(1351, 515)","(1282, 439)","(1294, 434)","(1306, 436)","(1317, 446)","(1304, 446)","(1292, 444)","(1367, 455)","(1380, 449)","(1393, 452)","(1402, 460)","(1391, 462)","(1378, 460)","(1285, 546)","(1300, 539)","(1315, 537)","(1325, 541)","(1335, 540)","(1350, 547)","(1363, 559)","(1347, 569)","(1332, 572)","(1321, 571)","(1310, 568)","(1297, 560)","(1292, 547)","(1313, 547)","(1323, 550)","(1334, 550)","(1356, 558)","(1333, 558)","(1323, 557)","(1313, 554)",0.3,0.88,37.0,0.35,0.16,0.39,0.03,-12.5,0.04,0.28,16.6,19.7,28.6,14.35,15.3,26.35,10.64,12.94,18.17
