milliseconds, ECG, ECG HR, PPG, PPG HR, SpO2, PI
0,65536,70,-56,-1,-1,0
33,-917504,70,-56,-1,-1,0
66,-1114112,70,-56,-1,-1,0
100,-917504,70,-56,-1,-1,0
133,-720896,70,-56,-1,-1,0
166,-589824,70,-56,-1,-1,0
200,-524288,70,-56,-1,-1,0
233,-393216,70,-56,-1,-1,0
266,-655360,70,-56,-1,-1,0
300,-1310720,70,-56,-1,-1,0
333,-1376256,70,-56,-1,-1,0
366,-1507328,70,-56,-1,-1,0
400,9764864,70,-56,-1,-1,0
433,-983040,70,-56,-1,-1,0
466,-1376256,70,-56,-1,-1,0
500,-1507328,70,-56,-1,-1,0
533,-851968,70,-56,-1,-1,0
566,0,70,-56,-1,-1,0
600,1638400,70,-56,-1,-1,0
633,3735552,70,-56,-1,-1,0
666,2293760,70,-56,-1,-1,0
700,-720896,70,-56,-1,-1,0
733,-720896,70,-56,-1,-1,0
766,-589824,70,-56,-1,-1,0
800,-458752,70,-56,-1,-1,0
833,-524288,70,-56,-1,-1,0
866,-589824,70,-56,-1,-1,0
900,-524288,70,-56,-1,-1,0
933,-589824,70,-56,-1,-1,0
966,0,70,-56,-1,-1,0
1000,-524288,70,-56,-1,-1,0
1033,-589824,70,-56,-1,-1,0
1066,-720896,70,-56,-1,-1,0
1100,-1245184,70,-56,-1,-1,0
1133,7077888,70,-56,-1,-1,0
1166,-458752,70,-56,-1,-1,0
1200,-1048576,70,-56,-1,-1,0
1233,-655360,70,-56,-1,-1,0
1266,-65536,70,-56,-1,-1,0
1300,786432,70,-56,-1,-1,0
1333,2293760,70,-56,-1,-1,0
1366,3866624,70,-56,-1,-1,0
1400,1376256,70,-56,-1,-1,0
1433,-720896,70,-56,-1,-1,0
1466,-1048576,70,-56,-1,-1,0
1500,-983040,70,-56,-1,-1,0
1533,-851968,70,-56,-1,-1,0
1566,-786432,70,-56,-1,-1,0
1600,-983040,70,-56,-1,-1,0
1633,-1114112,70,-56,-1,-1,0
1666,-983040,70,-56,-1,-1,0
1700,-851968,70,-56,-1,-1,0
1733,-851968,70,-56,-1,-1,0
1766,-262144,70,-56,-1,-1,0
1800,-917504,70,-56,-1,-1,0
1833,-786432,70,-56,-1,-1,0
1866,-458752,70,-56,-1,-1,0
1900,-589824,70,-56,-1,-1,0
1933,2097152,70,-56,-1,-1,0
1966,-917504,70,-56,-1,-1,0
2000,-393216,70,-56,-1,-1,0
2033,-655360,70,-56,-1,-1,0
2066,0,70,-56,-1,-1,0
2100,65536,70,-56,-1,-1,0
2133,1769472,70,-56,-1,-1,0
2166,3080192,70,-56,-1,-1,0
2200,655360,70,-56,-1,-1,0
2233,-1572864,70,-56,-1,-1,0
2266,-1572864,70,-56,-1,-1,0
2300,-1441792,70,-56,-1,-1,0
2333,-1572864,70,-56,-1,-1,0
2366,-1703936,70,-56,-1,-1,0
2400,-1572864,70,-56,-1,-1,0
2433,-983040,70,-56,-1,-1,0
2466,327680,70,-56,-1,-1,0
2500,0,70,-56,-1,-1,0
2533,-458752,70,-56,-1,-1,0
2566,524288,70,-56,-1,-1,0
2600,-393216,70,-56,-1,-1,0
2633,-655360,70,-56,-1,-1,0
2666,-524288,70,-56,-1,-1,0
2700,-851968,70,-56,-1,-1,0
2733,9502720,70,-56,-1,-1,0
2766,458752,70,-56,-1,-1,0
2800,-327680,70,-56,-1,-1,0
2833,131072,70,-56,-1,-1,0
2866,393216,69,-56,-1,-1,0
2900,1835008,69,-56,-1,-1,0
2933,3538944,69,-56,-1,-1,0
2966,4063232,69,-56,-1,-1,0
3000,1966080,69,-56,-1,-1,0
3033,-1048576,69,-56,-1,-1,0
3066,-983040,69,-56,-1,-1,0
3100,-1179648,69,-56,-1,-1,0
3133,-917504,69,-56,-1,-1,0
3166,-851968,69,-56,-1,-1,0
3200,-917504,69,-56,-1,-1,0
3233,-458752,69,-56,-1,-1,0
3266,-458752,69,-56,-1,-1,0
3300,-524288,69,-56,-1,-1,0
3333,-983040,69,-56,-1,-1,0
3366,-2490368,69,-56,-1,-1,0
3400,-1835008,69,-56,-1,-1,0
3433,-983040,69,-56,-1,-1,0
3466,-655360,69,-56,-1,-1,0
3500,9175040,69,-56,-1,-1,0
3533,0,69,-56,-1,-1,0
3566,-393216,69,-56,-1,-1,0
3600,-131072,69,-56,-1,-1,0
3633,0,69,-56,-1,-1,0
3666,393216,69,-56,-1,-1,0
3699,1572864,69,-56,-1,-1,0
3733,3407872,69,-56,-1,-1,0
3766,2097152,69,-56,-1,-1,0
3800,-393216,69,-56,-1,-1,0
3833,-655360,69,-56,-1,-1,0
3866,-524288,69,-56,-1,-1,0
3900,65536,69,-56,-1,-1,0
3933,917504,69,-56,-1,-1,0
3966,1048576,69,-56,-1,-1,0
4000,1900544,69,-56,-1,-1,0
4033,2883584,69,-56,-1,-1,0
4066,4194304,69,-56,-1,-1,0
4100,4456448,69,-56,-1,-1,0
4133,4849664,69,-56,-1,-1,0
4166,5570560,69,-56,-1,-1,0
4200,6160384,69,-56,-1,-1,0
4233,17760256,69,-56,-1,-1,0
4266,8978432,69,-56,-1,-1,0
4300,9961472,69,-56,-1,-1,0
4333,10747904,69,-56,-1,-1,0
4366,12648448,69,-56,-1,-1,0
4400,14745600,69,-56,-1,-1,0
4433,16711680,69,-56,-1,-1,0
4466,19922944,69,-56,-1,-1,0
4500,19398656,69,-56,-1,-1,0
4533,16318464,69,-56,-1,-1,0
4566,-22020096,69,-56,-1,-1,0
4600,-53542912,69,-56,-1,-1,0
4633,-45744128,69,-56,-1,-1,0
4666,-33488896,69,-56,-1,-1,0
4700,-25493504,69,-56,-1,-1,0
4733,-19333120,69,-56,-1,-1,0
4766,-13172736,69,-56,-1,-1,0
4800,-9699328,69,-56,-1,-1,0
4833,-8716288,69,-56,-1,-1,0
4866,-5570560,69,-56,-1,-1,0
4900,-4456448,69,-56,-1,-1,0
4933,6488064,69,-56,-1,-1,0
4966,-1703936,70,-56,-1,-1,0
5000,0,70,-56,-1,-1,0
5033,983040,70,-56,-1,-1,0
5066,2883584,70,-56,-1,-1,0
5100,3670016,70,-56,-1,-1,0
5133,5242880,70,-56,-1,-1,0
5166,6225920,70,-56,-1,-1,0
5200,4587520,70,-56,-1,-1,0
5233,1638400,70,-56,-1,-1,0
5266,917504,70,-56,-1,-1,0
5300,1441792,70,-56,-1,-1,0
5333,589824,70,-56,-1,-1,0
5366,524288,70,-56,-1,-1,0
5400,-131072,70,-56,-1,-1,0
5433,-393216,70,-56,-1,-1,0
5466,-1638400,70,-56,-1,-1,0
5500,-1966080,70,-56,-1,-1,0
5533,-2490368,70,-56,-1,-1,0
5566,-1900544,70,-56,-1,-1,0
5600,4456448,70,-56,-1,-1,0
5633,2097152,70,-56,-1,-1,0
5666,2097152,70,-56,-1,-1,0
5700,1769472,70,-56,-1,-1,0
5733,2621440,70,-56,-1,-1,0
5766,2949120,70,-56,-1,-1,0
5800,4325376,70,-56,-1,-1,0
5833,5832704,70,-56,-1,-1,0
5866,3276800,70,-56,-1,-1,0
5900,1114112,70,-56,-1,-1,0
5933,524288,70,-56,-1,-1,0
5966,655360,70,-56,-1,-1,0
6000,917504,70,-56,-1,-1,0
6033,786432,70,-56,-1,-1,0
6066,851968,70,-56,-1,-1,0
6100,0,70,-56,-1,-1,0
6133,-196608,70,-56,-1,-1,0
6166,131072,70,-56,-1,-1,0
6200,1769472,71,-56,-1,-1,0
6233,327680,71,-56,-1,-1,0
6266,589824,71,-56,-1,-1,0
6300,917504,71,-56,-1,-1,0
6333,917504,71,-56,-1,-1,0
6366,786432,71,-56,-1,-1,0
6400,4456448,71,-56,-1,-1,0
6433,-6815744,71,-56,-1,-1,0
6466,-14155776,71,-56,-1,-1,0
6500,-11927552,71,-56,-1,-1,0
6533,-7405568,71,-56,-1,-1,0
6566,-1703936,71,-56,-1,-1,0
6600,1114112,71,-56,-1,-1,0
6633,3407872,71,-56,-1,-1,0
6666,3342336,71,-56,-1,-1,0
6700,2359296,71,-56,-1,-1,0
6733,65536,71,-56,-1,-1,0
6766,-458752,71,-56,-1,-1,0
6800,327680,71,-56,-1,-1,0
6833,4587520,71,-56,-1,-1,0
6866,393216,71,-56,-1,-1,0
6899,-131072,71,-56,-1,-1,0
6933,262144,71,-56,-1,-1,0
6966,720896,71,-56,-1,-1,0
7000,1769472,71,-56,-1,-1,0
7033,3145728,71,-56,-1,-1,0
7066,3670016,71,-56,-1,-1,0
7100,0,71,-56,-1,-1,0
7133,-2293760,71,-56,-1,-1,0
7166,-2424832,71,-56,-1,-1,0
7200,-2228224,71,-56,-1,-1,0
7233,-2031616,71,-56,-1,-1,0
7266,-1179648,71,-56,-1,-1,0
7300,-2228224,71,-56,-1,-1,0
7333,-2031616,71,-56,-1,-1,0
7366,-1900544,72,-56,-1,-1,0
7399,983040,72,-56,-1,-1,0
7433,-65536,72,-56,-1,-1,0
7466,-458752,72,-56,-1,-1,0
7500,-1179648,72,-56,-1,-1,0
7533,-1179648,72,-56,-1,-1,0
7566,-524288,72,-56,-1,-1,0
7600,720896,72,-56,-1,-1,0
7633,2686976,72,-56,-1,-1,0
7666,4390912,72,-56,-1,-1,0
7700,1966080,72,-56,-1,-1,0
7733,1245184,72,-56,-1,-1,0
7766,1441792,72,-56,-1,-1,0
7800,524288,72,-56,-1,-1,0
7833,1114112,72,-56,-1,-1,0
7866,3932160,72,-56,-1,-1,0
7899,3276800,72,-56,-1,-1,0
7933,1441792,72,-56,-1,-1,0
7966,1507328,73,-56,-1,-1,0
8000,14352384,73,-56,-1,-1,0
8033,4063232,73,-56,-1,-1,0
8066,3735552,73,-56,-1,-1,0
8100,4653056,73,-56,-1,-1,0
8133,4259840,73,-56,-1,-1,0
8166,4456448,73,-56,-1,-1,0
8200,5505024,73,-56,-1,-1,0
8233,8126464,73,-56,-1,-1,0
8266,5308416,73,-56,-1,-1,0
8300,2752512,73,-56,-1,-1,0
8333,-16187392,73,-56,-1,-1,0
8366,-33030144,73,-56,-1,-1,0
8400,-31916032,73,-56,-1,-1,0
8433,-15532032,73,-56,-1,-1,0
8466,-9043968,73,-56,-1,-1,0
8500,-6094848,75,-56,-1,-1,0
8533,-1966080,75,-56,-1,-1,0
8566,6684672,75,-56,-1,-1,0
8600,720896,75,-56,-1,-1,0
8633,655360,75,-56,-1,-1,0
8666,720896,75,-56,-1,-1,0
8700,327680,75,-56,-1,-1,0
8733,2949120,75,-56,-1,-1,0
8766,6750208,75,-56,-1,-1,0
8800,7471104,75,-56,-1,-1,0
8833,7536640,75,-56,-1,-1,0
8866,4521984,75,-56,-1,-1,0
8900,4128768,75,-56,-1,-1,0
8933,2359296,75,-56,-1,-1,0
8966,1048576,75,-56,-1,-1,0
9000,-1703936,75,-56,-1,-1,0
9033,-2424832,75,-56,-1,-1,0
9066,-2162688,78,-56,-1,-1,0
9100,-2424832,78,-56,-1,-1,0
9133,9306112,78,-56,-1,-1,0
9166,-1376256,78,-56,-1,-1,0
9200,-1310720,78,-56,-1,-1,0
9233,-1048576,78,-56,-1,-1,0
9266,-720896,78,-56,-1,-1,0
9300,-327680,78,-56,-1,-1,0
9333,1441792,78,-56,-1,-1,0
9366,2621440,78,-56,-1,-1,0
9400,-65536,78,-56,-1,-1,0
9433,-1638400,80,-56,-1,-1,0
9466,-1114112,80,-56,-1,-1,0
9500,-589824,80,-56,-1,-1,0
9533,-1638400,80,-56,-1,-1,0
9566,-2752512,80,-56,-1,-1,0
9600,-1638400,80,-56,-1,-1,0
9633,-1376256,80,-56,-1,-1,0
9666,8257536,80,-56,-1,-1,0
9700,-1572864,80,-56,-1,-1,0
9733,-1310720,80,-56,-1,-1,0
9766,-917504,80,-56,-1,-1,0
9800,-1310720,80,-56,-1,-1,0
9833,-1769472,80,-56,-1,-1,0
9866,-1769472,80,-56,-1,-1,0
9900,-1048576,80,-56,-1,-1,0
9933,-3342336,80,-56,-1,-1,0
9966,-6815744,80,-56,-1,-1,0
10000,-5177344,80,-56,-1,-1,0
10033,6815744,80,-56,-1,-1,0
10066,3866624,80,-56,-1,-1,0
10100,7995392,80,-56,-1,-1,0
10133,6619136,83,-56,-1,-1,0
10166,6815744,83,-56,-1,-1,0
10200,9699328,83,-56,-1,-1,0
10233,4456448,83,-56,-1,-1,0
10266,3014656,83,-56,-1,-1,0
10300,1572864,83,-56,-1,-1,0
10333,851968,83,-56,-1,-1,0
10366,-720896,83,-56,-1,-1,0
10400,-1900544,83,-56,-1,-1,0
10433,-720896,83,-56,-1,-1,0
10466,-458752,83,-56,-1,-1,0
10500,-2490368,83,-56,-1,-1,0
10533,-3276800,83,-56,-1,-1,0
10566,-2949120,83,-56,-1,-1,0
10600,-1703936,83,-56,-1,-1,0
10633,-1835008,86,-56,-1,-1,0
10666,-2097152,86,-56,-1,-1,0
10700,-2490368,86,-56,-1,-1,0
10733,7667712,86,-56,-1,-1,0
10766,-1179648,86,-56,-1,-1,0
10800,-1703936,86,-56,-1,-1,0
10833,-1179648,86,-56,-1,-1,0
10866,-524288,86,-56,-1,-1,0
10900,0,86,-56,-1,-1,0
10933,851968,86,-56,-1,-1,0
10966,3014656,86,-56,-1,-1,0
11000,1376256,86,-56,-1,-1,0
11033,-1245184,86,-56,-1,-1,0
11066,-4915200,86,-56,-1,-1,0
11100,-851968,86,-56,-1,-1,0
11133,-655360,86,-56,-1,-1,0
11166,-2097152,88,-56,-1,-1,0
11200,-2424832,88,-56,-1,-1,0
11233,-3276800,88,-56,-1,-1,0
11266,10027008,88,-56,-1,-1,0
11300,2818048,88,-56,-1,-1,0
11333,2555904,88,-56,-1,-1,0
11366,1310720,88,-56,-1,-1,0
11400,1310720,88,-56,-1,-1,0
11433,1900544,88,-56,-1,-1,0
11466,3735552,88,-56,-1,-1,0
11500,3932160,88,-56,-1,-1,0
11533,-131072,88,-56,-1,-1,0
11566,-1507328,88,-56,-1,-1,0
11600,-393216,88,-56,-1,-1,0
11633,-1900544,88,-56,-1,-1,0
11666,-1900544,90,-56,-1,-1,0
11700,-2031616,90,-56,-1,-1,0
11733,-2424832,90,-56,-1,-1,0
11766,917504,90,-56,-1,-1,0
11800,524288,90,-56,-1,-1,0
11833,-655360,90,-56,-1,-1,0
11866,-1245184,90,-56,-1,-1,0
11900,-1245184,90,-56,-1,-1,0
11933,-1245184,90,-56,-1,-1,0
11966,-196608,90,-56,-1,-1,0
12000,1507328,90,-56,-1,-1,0
12033,1441792,90,-56,-1,-1,0
12066,-1245184,90,-56,-1,-1,0
12100,-2752512,90,-56,-1,-1,0
12133,-2162688,90,-56,-1,-1,0
12166,-2359296,92,-56,-1,-1,0
12200,-2949120,92,-56,-1,-1,0
12233,-2883584,92,-56,-1,-1,0
12266,-3145728,92,-56,-1,-1,0
12300,7208960,92,-56,-1,-1,0
12333,-786432,92,-56,-1,-1,0
12366,-65536,92,-56,-1,-1,0
12400,-655360,92,-56,-1,-1,0
12433,0,92,-56,-1,-1,0
12466,1048576,92,-56,-1,-1,0
12500,2555904,92,-56,-1,-1,0
12533,3604480,92,-56,-1,-1,0
12566,131072,92,-56,-1,-1,0
12600,-786432,92,-56,-1,-1,0
12633,-524288,92,-56,-1,-1,0
12666,655360,94,-56,-1,-1,0
12700,327680,94,-56,-1,-1,0
12733,-262144,94,-56,-1,-1,0
12766,-1310720,94,-56,-1,-1,0
12800,13762560,94,-56,-1,-1,0
12833,2293760,94,-56,-1,-1,0
12866,917504,94,-56,-1,-1,0
12900,65536,94,-56,-1,-1,0
12933,589824,94,-56,-1,-1,0
12966,1572864,94,-56,-1,-1,0
13000,2883584,94,-56,-1,-1,0
13033,4325376,94,-56,-1,-1,0
13066,1638400,94,-56,-1,-1,0
13100,-983040,94,-56,-1,-1,0
13133,-1114112,94,-56,-1,-1,0
13166,-1638400,94,-56,-1,-1,0
13200,-3866624,94,-56,-1,-1,0
13233,-1769472,94,-56,-1,-1,0
13266,-14417920,94,-56,-1,-1,0
13299,2424832,94,-56,-1,-1,0
13333,-7274496,94,-56,-1,-1,0
13366,-3407872,94,-56,-1,-1,0
13400,-1376256,94,-56,-1,-1,0
13433,0,94,-56,-1,-1,0
13466,1114112,94,-56,-1,-1,0
13500,3145728,94,-56,-1,-1,0
13533,5046272,94,-56,-1,-1,0
13566,1114112,94,-56,-1,-1,0
13600,-65536,94,-56,-1,-1,0
13633,-720896,94,-56,-1,-1,0
13666,-1179648,95,-56,-1,-1,0
13700,-983040,95,-56,-1,-1,0
13733,-2228224,95,-56,-1,-1,0
13766,-1703936,95,-56,-1,-1,0
13799,10813440,95,-56,-1,-1,0
13833,-917504,95,-56,-1,-1,0
13866,-458752,95,-56,-1,-1,0
13900,-393216,95,-56,-1,-1,0
13933,65536,95,-56,-1,-1,0
13966,851968,95,-56,-1,-1,0
14000,2359296,95,-56,-1,-1,0
14033,4718592,95,-56,-1,-1,0
14066,-196608,95,-56,-1,-1,0
14100,-2097152,95,-56,-1,-1,0
14133,-2359296,95,-56,-1,-1,0
14166,-2621440,96,-56,-1,-1,0
14200,-3080192,96,-56,-1,-1,0
14233,-2228224,96,-56,-1,-1,0
14266,-1114112,96,-56,-1,-1,0
14299,2359296,96,-56,-1,-1,0
14333,-196608,96,-56,-1,-1,0
14366,-2031616,96,-56,-1,-1,0
14400,393216,96,-56,-1,-1,0
14433,-1114112,96,-56,-1,-1,0
14466,-983040,96,-56,-1,-1,0
14500,1441792,96,-56,-1,-1,0
14533,1638400,96,-56,-1,-1,0
14566,-1245184,96,-56,-1,-1,0
14600,-2359296,96,-56,-1,-1,0
14633,-1966080,96,-56,-1,-1,0
14666,-2883584,96,-56,-1,-1,0
14700,-4718592,96,-56,-1,-1,0
14733,-8126464,96,-56,-1,-1,0
14766,3997696,96,-56,-1,-1,0
14799,-2555904,96,-56,-1,-1,0
14833,11010048,96,-56,-1,-1,0
14866,13893632,96,-56,-1,-1,0
14900,6553600,96,-56,-1,-1,0
14933,5505024,96,-56,-1,-1,0
14966,4915200,96,-56,-1,-1,0
15000,3997696,96,-56,-1,-1,0
15033,1376256,96,-56,-1,-1,0
15066,0,96,-56,-1,-1,0
15100,-851968,97,-56,-1,-1,0
15133,-1572864,97,-56,-1,-1,0
15166,-983040,97,-56,-1,-1,0
15200,-1572864,97,-56,-1,-1,0
15233,-2490368,97,-56,-1,-1,0
15266,1245184,97,-56,-1,-1,0
15299,-1179648,97,-56,-1,-1,0
15333,-1507328,97,-56,-1,-1,0
15366,-1507328,97,-56,-1,-1,0
15400,-983040,97,-56,-1,-1,0
15433,-65536,97,-56,-1,-1,0
15466,2752512,97,-56,-1,-1,0
15500,2293760,97,-56,-1,-1,0
15533,-786432,97,-56,-1,-1,0
15566,-2424832,97,-56,-1,-1,0
15600,-2162688,97,-56,-1,-1,0
15633,-1703936,98,-56,-1,-1,0
15666,-2883584,98,-56,-1,-1,0
15700,-3473408,98,-56,-1,-1,0
15733,9371648,98,-56,-1,-1,0
15766,262144,98,-56,-1,-1,0
15799,-524288,98,-56,-1,-1,0
15833,-2031616,98,-56,-1,-1,0
15866,-1048576,98,-56,-1,-1,0
15900,2228224,98,-56,-1,-1,0
15933,3604480,98,-56,-1,-1,0
15966,4718592,98,-56,-1,-1,0
16000,1376256,98,-56,-1,-1,0
16033,131072,98,-56,-1,-1,0
16066,65536,100,-56,-1,-1,0
16100,131072,100,-56,-1,-1,0
16133,-655360,100,-56,-1,-1,0
16166,-1441792,100,-56,-1,-1,0
16200,9043968,100,-56,-1,-1,0
16233,-2162688,100,-56,-1,-1,0
16266,1179648,100,-56,-1,-1,0
16300,-4718592,100,-56,-1,-1,0
16333,-5308416,100,-56,-1,-1,0
16366,-3342336,100,-56,-1,-1,0
16400,393216,100,-56,-1,-1,0
16433,1769472,100,-56,-1,-1,0
16466,917504,100,-56,-1,-1,0
16500,655360,100,-56,-1,-1,0
16533,0,101,-56,-1,-1,0
16566,720896,101,-56,-1,-1,0
16600,-1048576,101,-56,-1,-1,0
16633,-2686976,101,-56,-1,-1,0
16666,4456448,101,-56,-1,-1,0
16700,-2949120,101,-56,-1,-1,0
16733,-4325376,101,-56,-1,-1,0
16766,-2818048,101,-56,-1,-1,0
16800,-655360,101,-56,-1,-1,0
16833,-786432,101,-56,-1,-1,0
16866,1966080,101,-56,-1,-1,0
16900,4390912,101,-56,-1,-1,0
16933,2752512,101,-56,-1,-1,0
16966,262144,101,-56,-1,-1,0
17000,-196608,102,-56,-1,-1,0
17033,-655360,102,-56,-1,-1,0
17066,-983040,102,-56,-1,-1,0
17100,-1179648,102,-56,-1,-1,0
17133,4259840,102,-56,-1,-1,0
17166,262144,102,-56,-1,-1,0
17200,393216,102,-56,-1,-1,0
17233,589824,102,-56,-1,-1,0
17266,1441792,102,-56,-1,-1,0
17300,1245184,102,-56,-1,-1,0
17333,3080192,102,-56,-1,-1,0
17366,6815744,102,-56,-1,-1,0
17400,6619136,102,-56,-1,-1,0
17433,3604480,102,-56,-1,-1,0
17466,2097152,103,-56,-1,-1,0
17500,1310720,103,-56,-1,-1,0
17533,458752,103,-56,-1,-1,0
17566,327680,103,-56,-1,-1,0
17600,4784128,103,-56,-1,-1,0
17633,-1114112,103,-56,-1,-1,0
17666,-2162688,103,-56,-1,-1,0
17700,-3342336,103,-56,-1,-1,0
17733,-2228224,103,-56,-1,-1,0
17766,-4128768,103,-56,-1,-1,0
17800,-3342336,103,-56,-1,-1,0
17833,-589824,103,-56,-1,-1,0
17866,-1769472,103,-56,-1,-1,0
17900,-2621440,103,-56,-1,-1,0
17933,-1769472,103,-56,-1,-1,0
17966,-2228224,103,-56,-1,-1,0
18000,-2424832,103,-56,-1,-1,0
18033,-1769472,103,-56,-1,-1,0
18066,7864320,103,-56,-1,-1,0
18100,-2293760,103,-56,-1,-1,0
18133,-3670016,103,-56,-1,-1,0
18166,-4194304,103,-56,-1,-1,0
18200,-3735552,103,-56,-1,-1,0
18233,-3014656,103,-56,-1,-1,0
18266,-983040,103,-56,-1,-1,0
18300,-131072,103,-56,-1,-1,0
18333,-1507328,103,-56,-1,-1,0
18366,-2621440,103,-56,-1,-1,0
18400,-2097152,103,-56,-1,-1,0
18433,-2686976,103,-56,-1,-1,0
18466,-3866624,103,-56,-1,-1,0
18500,-3604480,103,-56,-1,-1,0
18533,8060928,103,-56,-1,-1,0
18566,-2490368,103,-56,-1,-1,0
18600,-2424832,103,-56,-1,-1,0
18633,-983040,103,-56,-1,-1,0
18666,-65536,103,-56,-1,-1,0
18700,1179648,103,-56,-1,-1,0
18733,2490368,103,-56,-1,-1,0
18766,3604480,103,-56,-1,-1,0
18800,3276800,103,-56,-1,-1,0
18833,2162688,104,-56,-1,-1,0
18866,3604480,104,-56,-1,-1,0
18900,2490368,104,-56,-1,-1,0
18933,1572864,104,-56,-1,-1,0
18966,1703936,104,-56,-1,-1,0
19000,5767168,104,-56,-1,-1,0
19033,1835008,104,-56,-1,-1,0
19066,1900544,104,-56,-1,-1,0
19100,1179648,104,-56,-1,-1,0
19133,2097152,104,-56,-1,-1,0
19166,4390912,104,-56,-1,-1,0
19200,-12189696,104,-56,-1,-1,0
19233,-9306112,104,-56,-1,-1,0
19266,-7208960,105,-56,-1,-1,0
19300,-2752512,105,-56,-1,-1,0
19333,-1048576,105,-56,-1,-1,0
19366,-786432,105,-56,-1,-1,0
19400,-131072,105,-56,-1,-1,0
19433,9043968,105,-56,-1,-1,0
19466,196608,105,-56,-1,-1,0
19500,393216,105,-56,-1,-1,0
19533,2424832,105,-56,-1,-1,0
19566,1376256,105,-56,-1,-1,0
19600,65536,105,-56,-1,-1,0
19633,1245184,105,-56,-1,-1,0
19666,2424832,105,-56,-1,-1,0
19700,851968,105,-56,-1,-1,0
19733,393216,106,-56,-1,-1,0
19766,0,106,-56,-1,-1,0
19800,524288,106,-56,-1,-1,0
19833,327680,106,-56,-1,-1,0
19866,524288,106,-56,-1,-1,0
19900,6619136,106,-56,-1,-1,0
19933,1114112,106,-56,-1,-1,0
19966,1703936,106,-56,-1,-1,0
20000,1900544,106,-56,-1,-1,0
20033,2686976,106,-56,-1,-1,0
20066,3932160,106,-56,-1,-1,0
20100,5373952,106,-56,-1,-1,0
20133,5898240,106,-56,-1,-1,0
20166,3801088,106,-56,-1,-1,0
20200,2555904,106,-56,-1,-1,0
20233,1507328,106,-56,-1,-1,0
20266,1114112,106,-56,-1,-1,0
20300,1835008,106,-56,-1,-1,0
20333,11796480,106,-56,-1,-1,0
20366,983040,106,-56,-1,-1,0
20400,393216,106,-56,-1,-1,0
20433,917504,106,-56,-1,-1,0
20466,1900544,106,-56,-1,-1,0
20500,2031616,106,-56,-1,-1,0
20533,2949120,106,-56,-1,-1,0
20566,4980736,106,-56,-1,-1,0
20600,1966080,107,-56,-1,-1,0
20633,1638400,107,-56,-1,-1,0
20666,-3473408,107,-56,-1,-1,0
20700,-32440320,107,-56,-1,-1,0
20733,-14811136,107,-56,-1,-1,0
20766,-11206656,107,-56,-1,-1,0
20800,-10158080,107,-56,-1,-1,0
20833,-7405568,107,-56,-1,-1,0
20866,-7012352,107,-56,-1,-1,0
20900,-4325376,107,-56,-1,-1,0
20933,-2818048,107,-56,-1,-1,0
20966,-1769472,107,-56,-1,-1,0
21000,-327680,107,-56,-1,-1,0
21033,-1179648,107,-56,-1,-1,0
21066,-3407872,106,-56,-1,-1,0
21100,-5505024,106,-56,-1,-1,0
21133,-6946816,106,-56,-1,-1,0
21166,-7536640,106,-56,-1,-1,0
21200,-5898240,106,-56,-1,-1,0
21233,5439488,106,-56,-1,-1,0
21266,-6946816,106,-56,-1,-1,0
21300,-7864320,106,-56,-1,-1,0
21333,-6946816,106,-56,-1,-1,0
21366,-5373952,106,-56,-1,-1,0
21400,-2359296,106,-56,-1,-1,0
21433,4718592,106,-56,-1,-1,0
21466,7929856,106,-56,-1,-1,0
21500,7733248,107,-56,-1,-1,0
21533,8912896,107,-56,-1,-1,0
21566,9109504,107,-56,-1,-1,0
21600,7929856,107,-56,-1,-1,0
21633,7667712,107,-56,-1,-1,0
21666,19398656,107,-56,-1,-1,0
21700,7143424,107,-56,-1,-1,0
21733,4587520,107,-56,-1,-1,0
21766,3604480,107,-56,-1,-1,0
21800,3538944,107,-56,-1,-1,0
21833,4784128,107,-56,-1,-1,0
21866,3932160,107,-56,-1,-1,0
21900,4587520,107,-56,-1,-1,0
21933,2424832,107,-56,-1,-1,0
21966,2031616,107,-56,-1,-1,0
22000,1835008,107,-56,-1,-1,0
22033,-327680,107,-56,-1,-1,0
22066,-917504,107,-56,-1,-1,0
22100,7471104,107,-56,-1,-1,0
22133,-1114112,107,-56,-1,-1,0
22166,-3276800,107,-56,-1,-1,0
22200,589824,107,-56,-1,-1,0
22233,-720896,107,-56,-1,-1,0
22266,-2752512,107,-56,-1,-1,0
22300,-3735552,107,-56,-1,-1,0
22333,-2949120,107,-56,-1,-1,0
22366,-3407872,108,-56,-1,-1,0
22400,-1114112,108,-56,-1,-1,0
22433,-524288,108,-56,-1,-1,0
22466,-327680,108,-56,-1,-1,0
22500,-917504,108,-56,-1,-1,0
22533,12124160,108,-56,-1,-1,0
22566,65536,108,-56,-1,-1,0
22600,-3473408,108,-56,-1,-1,0
22633,-3735552,108,-56,-1,-1,0
22666,-2555904,108,-56,-1,-1,0
22700,-1310720,108,-56,-1,-1,0
22733,-2293760,108,-56,-1,-1,0
22766,-3276800,108,-56,-1,-1,0
22800,-4587520,109,-56,-1,-1,0
22833,-2949120,109,-56,-1,-1,0
22866,-2031616,109,-56,-1,-1,0
22900,-2752512,109,-56,-1,-1,0
22933,-2228224,109,-56,-1,-1,0
22966,2949120,109,-56,-1,-1,0
23000,-1114112,109,-56,-1,-1,0
23033,-589824,109,-56,-1,-1,0
23066,131072,109,-56,-1,-1,0
23100,720896,109,-56,-1,-1,0
23133,1507328,109,-56,-1,-1,0
23166,1572864,109,-56,-1,-1,0
23200,2818048,110,-56,-1,-1,0
23233,327680,110,-56,-1,-1,0
23266,-1835008,110,-56,-1,-1,0
23300,-1703936,110,-56,-1,-1,0
23333,-1376256,110,-56,-1,-1,0
23366,983040,110,-56,-1,-1,0
23400,8454144,110,-56,-1,-1,0
23433,1179648,110,-56,-1,-1,0
23466,786432,110,-56,-1,-1,0
23500,2031616,110,-56,-1,-1,0
23533,1835008,110,-56,-1,-1,0
23566,1310720,110,-56,-1,-1,0
23600,-65536,110,-56,-1,-1,0
23633,196608,111,-56,-1,-1,0
23666,65536,111,-56,-1,-1,0
23700,983040,111,-56,-1,-1,0
23733,5177344,111,-56,-1,-1,0
23766,-4325376,111,-56,-1,-1,0
23800,6356992,111,-56,-1,-1,0
23833,13697024,111,-56,-1,-1,0
23866,3407872,111,-56,-1,-1,0
23900,1703936,111,-56,-1,-1,0
23933,1376256,111,-56,-1,-1,0
23966,1769472,111,-56,-1,-1,0
24000,-458752,111,-56,-1,-1,0
24033,-458752,111,-56,-1,-1,0
24066,-2031616,111,-56,-1,-1,0
24100,-2883584,111,-56,-1,-1,0
24133,-2621440,111,-56,-1,-1,0
24166,-2031616,111,-56,-1,-1,0
24200,-3080192,111,-56,-1,-1,0
24233,-4259840,111,-56,-1,-1,0
24266,8585216,111,-56,-1,-1,0
24300,-2293760,111,-56,-1,-1,0
24333,-3997696,111,-56,-1,-1,0
24366,-5308416,111,-56,-1,-1,0
24400,-3801088,111,-56,-1,-1,0
24433,-2490368,111,-56,-1,-1,0
24466,-1966080,111,-56,-1,-1,0
24500,-3080192,111,-56,-1,-1,0
24533,-3670016,111,-56,-1,-1,0
24566,-2686976,111,-56,-1,-1,0
24600,-2752512,111,-56,-1,-1,0
24633,-1966080,111,-56,-1,-1,0
24666,-1048576,111,-56,-1,-1,0
24700,3670016,111,-56,-1,-1,0
24733,2162688,111,-56,-1,-1,0
24766,3080192,111,-56,-1,-1,0
24800,3538944,111,-56,-1,-1,0
24833,4325376,111,-56,-1,-1,0
24866,4390912,111,-56,-1,-1,0
24900,4521984,111,-56,-1,-1,0
24933,2686976,111,-56,-1,-1,0
24966,2818048,111,-56,-1,-1,0
25000,3604480,111,-56,-1,-1,0
25033,3145728,111,-56,-1,-1,0
25066,2818048,111,-56,-1,-1,0
25100,10158080,111,-56,-1,-1,0
25133,2490368,111,-56,-1,-1,0
25166,1703936,111,-56,-1,-1,0
25200,2621440,111,-56,-1,-1,0
25233,1835008,111,-56,-1,-1,0
25266,2228224,111,-56,-1,-1,0
25300,458752,111,-56,-1,-1,0
25333,-31850496,111,-56,-1,-1,0
25366,-19857408,111,-56,-1,-1,0
25400,-16252928,111,-56,-1,-1,0
25433,-9568256,111,-56,-1,-1,0
25466,-5832704,111,-56,-1,-1,0
25500,-5570560,111,-56,-1,-1,0
25533,4390912,111,-56,-1,-1,0
25566,-1966080,111,-56,-1,-1,0
25600,196608,111,-56,-1,-1,0
25633,1376256,111,-56,-1,-1,0
25666,1376256,111,-56,-1,-1,0
25700,1900544,111,-56,-1,-1,0
25733,1769472,112,-56,-1,-1,0
25766,0,112,-56,-1,-1,0
25800,-1376256,112,-56,-1,-1,0
25833,-851968,112,-56,-1,-1,0
25866,-65536,112,-56,-1,-1,0
25900,0,112,-56,-1,-1,0
25933,5046272,112,-56,-1,-1,0
25966,131072,112,-56,-1,-1,0
26000,-458752,112,-56,-1,-1,0
26033,131072,112,-56,-1,-1,0
26066,-786432,112,-56,-1,-1,0
26099,-589824,112,-56,-1,-1,0
26133,-524288,112,-56,-1,-1,0
26166,-589824,114,-56,-1,-1,0
26200,-720896,114,-56,-1,-1,0
26233,851968,114,-56,-1,-1,0
26266,1245184,114,-56,-1,-1,0
26300,589824,114,-56,-1,-1,0
26333,-393216,114,-56,-1,-1,0
26366,10354688,114,-56,-1,-1,0
26400,3604480,114,-56,-1,-1,0
26433,3211264,114,-56,-1,-1,0
26466,1572864,114,-56,-1,-1,0
26500,720896,114,-56,-1,-1,0
26533,1572864,114,-56,-1,-1,0
26566,3342336,115,-56,-1,-1,0
26599,2293760,115,-56,-1,-1,0
26633,786432,115,-56,-1,-1,0
26666,1310720,115,-56,-1,-1,0
26700,327680,115,-56,-1,-1,0
26733,-327680,115,-56,-1,-1,0
26766,7929856,115,-56,-1,-1,0
26800,-1048576,115,-56,-1,-1,0
26833,-1179648,115,-56,-1,-1,0
26866,-1703936,115,-56,-1,-1,0
26900,-1245184,115,-56,-1,-1,0
26933,-3866624,115,-56,-1,-1,0
26966,-19070976,116,-56,-1,-1,0
27000,-5046272,116,-56,-1,-1,0
27033,-5832704,116,-56,-1,-1,0
27066,-5832704,116,-56,-1,-1,0
27099,-4390912,116,-56,-1,-1,0
27133,-3342336,116,-56,-1,-1,0
27166,-327680,116,-56,-1,-1,0
27200,851968,116,-56,-1,-1,0
27233,1703936,116,-56,-1,-1,0
27266,1769472,116,-56,-1,-1,0
27300,1638400,116,-56,-1,-1,0
27333,1835008,116,-56,-1,-1,0
27366,2424832,117,-56,-1,-1,0
27400,1572864,117,-56,-1,-1,0
27433,196608,117,-56,-1,-1,0
27466,1507328,117,-56,-1,-1,0
27500,1900544,117,-56,-1,-1,0
27533,2818048,117,-56,-1,-1,0
27566,2686976,117,-56,-1,-1,0
27599,10878976,117,-56,-1,-1,0
27633,1048576,117,-56,-1,-1,0
27666,0,117,-56,-1,-1,0
27700,327680,117,-56,-1,-1,0
27733,393216,117,-56,-1,-1,0
27766,1376256,117,-56,-1,-1,0
27800,1114112,118,-56,-1,-1,0
27833,-65536,118,-56,-1,-1,0
27866,0,118,-56,-1,-1,0
27900,262144,118,-56,-1,-1,0
27933,-720896,118,-56,-1,-1,0
27966,-720896,119,-56,-1,-1,0
28000,11599872,119,-56,-1,-1,0
28033,-786432,119,-56,-1,-1,0
28066,-1966080,119,-56,-1,-1,0
28099,-2752512,119,-56,-1,-1,0
28133,-3211264,119,-56,-1,-1,0
28166,-2621440,119,-56,-1,-1,0
28200,-524288,120,-56,-1,-1,0
28233,-1114112,120,-56,-1,-1,0
28266,-2424832,120,-56,-1,-1,0
28300,-1835008,120,-56,-1,-1,0
28333,-2621440,120,-56,-1,-1,0
28366,-3014656,120,-56,-1,-1,0
28400,6291456,120,-56,-1,-1,0
28433,-2359296,120,-56,-1,-1,0
28466,-2621440,120,-56,-1,-1,0
28500,-4128768,120,-56,-1,-1,0
28533,-262144,120,-56,-1,-1,0
28566,-2228224,120,-56,-1,-1,0
28599,-2162688,120,-56,-1,-1,0
28633,2686976,120,-56,-1,-1,0
28666,-393216,120,-56,-1,-1,0
28700,393216,120,-56,-1,-1,0
28733,-131072,120,-56,-1,-1,0
28766,589824,120,-56,-1,-1,0
28800,4456448,120,-56,-1,-1,0
28833,720896,120,-56,-1,-1,0
28866,851968,120,-56,-1,-1,0
28900,1507328,120,-56,-1,-1,0
28933,2293760,120,-56,-1,-1,0
28966,3342336,120,-56,-1,-1,0
29000,3735552,120,-56,-1,-1,0
29033,5636096,120,-56,-1,-1,0
29066,2883584,120,-56,-1,-1,0
29099,2818048,120,-56,-1,-1,0
29133,1376256,120,-56,-1,-1,0
29166,786432,120,-56,-1,-1,0
29200,6160384,120,-56,-1,-1,0
29233,1114112,120,-56,-1,-1,0
29266,983040,120,-56,-1,-1,0
29300,589824,120,-56,-1,-1,0
29333,524288,120,-56,-1,-1,0
29366,655360,120,-56,-1,-1,0
29400,851968,120,-56,-1,-1,0
29433,0,120,-56,-1,-1,0
29466,-720896,120,-56,-1,-1,0
29500,-786432,120,-56,-1,-1,0
29533,-1572864,120,-56,-1,-1,0
29566,-1900544,120,-56,-1,-1,0
29599,1703936,120,-56,-1,-1,0
29633,-196608,120,-56,-1,-1,0
29666,-196608,120,-56,-1,-1,0
29700,-131072,120,-56,-1,-1,0
29733,-327680,120,-56,-1,-1,0
29766,0,120,-56,-1,-1,0
29800,1638400,120,-56,-1,-1,0
29833,2031616,120,-56,-1,-1,0
29866,983040,120,-56,-1,-1,0
29900,2228224,120,-56,-1,-1,0
29933,1441792,120,-56,-1,-1,0
29966,917504,120,-56,-1,-1,0
30000,4259840,120,-56,-1,-1,0
30033,720896,120,-56,-1,-1,0
30066,917504,120,-56,-1,-1,0
30099,-1703936,120,-56,-1,-1,0
30133,-2621440,120,-56,-1,-1,0
30166,1769472,120,-56,-1,-1,0
30200,-22347776,121,-56,-1,-1,0
30233,-15925248,121,-56,-1,-1,0
30266,-6815744,121,-56,-1,-1,0
30300,-4259840,121,-56,-1,-1,0
30333,-3211264,121,-56,-1,-1,0
30366,-1769472,121,-56,-1,-1,0
30400,5046272,121,-56,-1,-1,0
30433,458752,121,-56,-1,-1,0
30466,1507328,121,-56,-1,-1,0
30500,1507328,121,-56,-1,-1,0
30533,1900544,121,-56,-1,-1,0
30566,1572864,121,-56,-1,-1,0
30599,2162688,121,-56,-1,-1,0
30633,720896,121,-56,-1,-1,0
30666,524288,121,-56,-1,-1,0
30700,589824,121,-56,-1,-1,0
30733,-327680,121,-56,-1,-1,0
30766,-262144,121,-56,-1,-1,0
30800,9830400,121,-56,-1,-1,0
30833,-655360,121,-56,-1,-1,0
30866,-851968,121,-56,-1,-1,0
30900,-1507328,121,-56,-1,-1,0
30933,-655360,121,-56,-1,-1,0
30966,-196608,121,-56,-1,-1,0
31000,-327680,122,-56,-1,-1,0
31033,-1441792,122,-56,-1,-1,0
31066,-1769472,122,-56,-1,-1,0
31099,-1376256,122,-56,-1,-1,0
31133,-1966080,122,-56,-1,-1,0
31166,-2162688,122,-56,-1,-1,0
31200,10485760,122,-56,-1,-1,0
31233,589824,122,-56,-1,-1,0
31266,-196608,122,-56,-1,-1,0
31300,-917504,122,-56,-1,-1,0
31333,-786432,122,-56,-1,-1,0
31366,-655360,123,-56,-1,-1,0
31400,851968,123,-56,-1,-1,0
31433,262144,123,-56,-1,-1,0
31466,262144,123,-56,-1,-1,0
31500,589824,123,-56,-1,-1,0
31533,-131072,123,-56,-1,-1,0
31566,-524288,123,-56,-1,-1,0
31599,9175040,123,-56,-1,-1,0
31633,-786432,123,-56,-1,-1,0
31666,-1048576,123,-56,-1,-1,0
31700,65536,123,-56,-1,-1,0
31733,-1966080,123,-56,-1,-1,0
31766,-11993088,123,-56,-1,-1,0
31800,-10158080,123,-56,-1,-1,0
31833,-6029312,123,-56,-1,-1,0
31866,-3145728,123,-56,-1,-1,0
31900,-3473408,123,-56,-1,-1,0
31933,-3276800,123,-56,-1,-1,0
31966,-2818048,123,-56,-1,-1,0
32000,-196608,123,-56,-1,-1,0
32033,-720896,123,-56,-1,-1,0
32066,-458752,123,-56,-1,-1,0
32100,-393216,123,-56,-1,-1,0
32133,1376256,123,-56,-1,-1,0
32166,1769472,123,-56,-1,-1,0
32200,2228224,123,-56,-1,-1,0
32233,917504,123,-56,-1,-1,0
32266,1376256,123,-56,-1,-1,0
32299,-131072,123,-56,-1,-1,0
32333,-65536,123,-56,-1,-1,0
32366,8257536,123,-56,-1,-1,0
32400,720896,123,-56,-1,-1,0
32433,589824,123,-56,-1,-1,0
32466,655360,123,-56,-1,-1,0
32500,-65536,123,-56,-1,-1,0
32533,655360,125,-56,-1,-1,0
32566,589824,125,-56,-1,-1,0
32600,-65536,125,-56,-1,-1,0
32633,-458752,125,-56,-1,-1,0
32666,-655360,125,-56,-1,-1,0
32700,-1638400,125,-56,-1,-1,0
32733,-2621440,125,-56,-1,-1,0
32766,9043968,125,-56,-1,-1,0
32800,-2228224,125,-56,-1,-1,0
32833,-2031616,125,-56,-1,-1,0
32866,-1441792,125,-56,-1,-1,0
32900,-1114112,125,-56,-1,-1,0
32933,262144,125,-56,-1,-1,0
32966,1179648,125,-56,-1,-1,0
33000,65536,125,-56,-1,-1,0
33033,0,125,-56,-1,-1,0
33066,-786432,125,-56,-1,-1,0
33100,0,125,-56,-1,-1,0
33133,327680,125,-56,-1,-1,0
33166,3538944,125,-56,-1,-1,0
33200,-196608,125,-56,-1,-1,0
33233,1507328,125,-56,-1,-1,0
33266,-655360,125,-56,-1,-1,0
33300,-589824,126,-56,-1,-1,0
33333,3211264,126,-56,-1,-1,0
33366,1376256,126,-56,-1,-1,0
33400,1310720,126,-56,-1,-1,0
33433,983040,126,-56,-1,-1,0
33466,393216,126,-56,-1,-1,0
33500,327680,126,-56,-1,-1,0
33533,9699328,126,-56,-1,-1,0
33566,851968,126,-56,-1,-1,0
33600,589824,126,-56,-1,-1,0
33633,655360,126,-56,-1,-1,0
33666,1310720,126,-56,-1,-1,0
33700,2359296,126,-56,-1,-1,0
33733,720896,126,-56,-1,-1,0
33766,-1179648,126,-56,-1,-1,0
33800,-1441792,126,-56,-1,-1,0
33833,-1638400,126,-56,-1,-1,0
33866,-2359296,126,-56,-1,-1,0
33900,-3276800,126,-56,-1,-1,0
33933,3211264,126,-56,-1,-1,0
33966,-1507328,126,-56,-1,-1,0
34000,-1507328,126,-56,-1,-1,0
34033,-1769472,126,-56,-1,-1,0
34066,-524288,126,-56,-1,-1,0
34100,65536,126,-56,-1,-1,0
34133,-196608,126,-56,-1,-1,0
34166,-589824,126,-56,-1,-1,0
34200,131072,127,-56,-1,-1,0
34233,-524288,127,-56,-1,-1,0
34266,-458752,127,-56,-1,-1,0
34300,8454144,127,-56,-1,-1,0
34333,1769472,127,-56,-1,-1,0
34366,1966080,127,-56,-1,-1,0
34400,917504,127,-56,-1,-1,0
34433,1048576,127,-56,-1,-1,0
34466,2555904,127,-56,-1,-1,0
34500,4063232,127,-56,-1,-1,0
34533,2162688,127,-56,-1,-1,0
34566,655360,127,-56,-1,-1,0
34600,131072,127,-56,-1,-1,0
34633,851968,127,-56,-1,-1,0
34666,-851968,127,-56,-1,-1,0
34700,4849664,127,-56,-1,-1,0
34733,1376256,127,-56,-1,-1,0
34766,-1900544,127,-56,-1,-1,0
34800,-19267584,127,-56,-1,-1,0
34833,-1245184,127,-56,-1,-1,0
34866,-1310720,127,-56,-1,-1,0
34900,-1572864,127,-56,-1,-1,0
34933,-1376256,127,-56,-1,-1,0
34966,-786432,127,-56,-1,-1,0
35000,-1507328,127,-56,-1,-1,0
35033,-1638400,127,-56,-1,-1,0
35066,10616832,127,-56,-1,-1,0
35100,-1507328,127,-56,-1,-1,0
35133,-2621440,127,-56,-1,-1,0
35166,-3342336,127,-56,-1,-1,0
