milliseconds, ECG, ECG HR, PPG, PPG HR, SpO2, PI,Landmark_0,Landmark_1,Landmark_2,Landmark_3,Landmark_4,Landmark_5,Landmark_6,Landmark_7,Landmark_8,Landmark_9,Landmark_10,Landmark_11,Landmark_12,Landmark_13,Landmark_14,Landmark_15,Landmark_16,Landmark_17,Landmark_18,Landmark_19,Landmark_20,Landmark_21,Landmark_22,Landmark_23,Landmark_24,Landmark_25,Landmark_26,Landmark_27,Landmark_28,Landmark_29,Landmark_30,Landmark_31,Landmark_32,Landmark_33,Landmark_34,Landmark_35,Landmark_36,Landmark_37,Landmark_38,Landmark_39,Landmark_40,Landmark_41,Landmark_42,Landmark_43,Landmark_44,Landmark_45,Landmark_46,Landmark_47,Landmark_48,Landmark_49,Landmark_50,Landmark_51,Landmark_52,Landmark_53,Landmark_54,Landmark_55,Landmark_56,Landmark_57,Landmark_58,Landmark_59,Landmark_60,Landmark_61,Landmark_62,Landmark_63,Landmark_64,Landmark_65,Landmark_66,Landmark_67,EyeAspectRatio,MouthAspectRatio,LightIntensity,FaceWidthRatio,EyebrowHeight,LipsWidthRatio,LipsHeightRatio,EyeOpening,NoseWidthRatio,NoseHeightRatio,AvgRedForehead,AvgGreenForehead,AvgBlueForehead,AvgRedLips,AvgGreenLips,AvgBlueLips,AvgRedCheeks,AvgGreenCheeks,AvgBlueCheeks
0,65536,70,-56,-1,-1,0,"(1073, 385)","(1073, 408)","(1075, 430)","(1079, 453)","(1087, 475)","(1100, 496)","(1117, 513)","(1139, 526)","(1163, 530)","(1187, 526)","(1208, 513)","(1225, 496)","(1237, 476)","(1244, 453)","(1247, 431)","(1247, 407)","(1246, 384)","(1087, 375)","(1097, 365)","(1113, 362)","(1130, 365)","(1146, 374)","(1172, 374)","(1187, 366)","(1204, 361)","(1221, 363)","(1231, 374)","(1160, 386)","(1160, 403)","(1160, 419)","(1160, 437)","(1141, 443)","(1151, 447)","(1161, 451)","(1171, 447)","(1181, 442)","(1107, 388)","(1116, 385)","(1126, 384)","(1137, 388)","(1126, 390)","(1116, 390)","(1183, 387)","(1193, 383)","(1203, 383)","(1212, 386)","(1204, 389)","(1194, 389)","(1127, 467)","(1140, 466)","(1152, 466)","(1162, 468)","(1171, 466)","(1184, 466)","(1198, 467)","(1185, 478)","(1173, 482)","(1163, 483)","(1153, 481)","(1141, 478)","(1133, 468)","(1152, 471)","(1162, 472)","(1171, 471)","(1193, 468)","(1172, 472)","(1162, 473)","(1153, 472)",0.2,0.86,100.0,0.34,-0.0,0.41,0.02,-5.5,0.12,0.35,42.1,47.8,77.6,29.45,28.9,67.45,40.05,37.11,53.82
33,-917504,70,-56,-1,-1,0,"(1091, 439)","(1091, 458)","(1092, 478)","(1095, 497)","(1101, 515)","(1111, 533)","(1125, 548)","(1142, 560)","(1162, 563)","(1183, 560)","(1202, 549)","(1217, 535)","(1229, 518)","(1236, 499)","(1239, 478)","(1240, 458)","(1240, 437)","(1096, 435)","(1105, 427)","(1119, 426)","(1134, 429)","(1147, 436)","(1170, 435)","(1184, 428)","(1199, 424)","(1215, 425)","(1225, 433)","(1159, 444)","(1159, 460)","(1159, 476)","(1159, 491)","(1141, 492)","(1150, 498)","(1160, 501)","(1170, 497)","(1179, 493)","(1113, 444)","(1121, 440)","(1130, 440)","(1140, 444)","(1130, 446)","(1121, 446)","(1182, 444)","(1191, 439)","(1200, 439)","(1208, 442)","(1201, 445)","(1191, 445)","(1130, 510)","(1141, 510)","(1152, 511)","(1160, 514)","(1170, 512)","(1182, 511)","(1196, 509)","(1183, 521)","(1171, 525)","(1161, 526)","(1152, 525)","(1142, 521)","(1135, 511)","(1152, 515)","(1160, 516)","(1170, 515)","(1192, 511)","(1170, 517)","(1161, 518)","(1152, 517)",0.23,0.91,100.0,0.35,-0.0,0.44,0.02,-6.0,0.13,0.39,36.5,40.2,66.6,26.1,24.2,60.9,47.41,41.76,56.58
66,-1114112,70,-56,-1,-1,0,"(1054, 456)","(1056, 481)","(1059, 505)","(1066, 528)","(1079, 550)","(1097, 567)","(1118, 581)","(1142, 590)","(1167, 592)","(1191, 584)","(1208, 567)","(1223, 548)","(1234, 527)","(1240, 504)","(1242, 481)","(1241, 459)","(1238, 436)","(1071, 434)","(1083, 422)","(1101, 418)","(1119, 420)","(1136, 426)","(1168, 425)","(1182, 416)","(1198, 410)","(1215, 411)","(1226, 420)","(1153, 440)","(1156, 455)","(1158, 470)","(1161, 486)","(1137, 497)","(1148, 500)","(1160, 502)","(1170, 498)","(1180, 492)","(1092, 447)","(1102, 440)","(1113, 439)","(1125, 444)","(1113, 447)","(1102, 448)","(1177, 440)","(1188, 433)","(1199, 432)","(1208, 436)","(1199, 439)","(1189, 440)","(1113, 521)","(1131, 518)","(1148, 516)","(1159, 517)","(1169, 514)","(1184, 512)","(1199, 511)","(1186, 531)","(1172, 539)","(1161, 542)","(1150, 542)","(1132, 537)","(1119, 522)","(1148, 521)","(1159, 521)","(1169, 519)","(1193, 514)","(1171, 529)","(1161, 532)","(1149, 532)",0.22,0.78,100.0,0.34,-0.1,0.46,0.04,-6.5,0.14,0.3,49.9,55.9,89.3,39.65,40.2,81.35,97.05,61.17,41.76
100,-917504,70,-56,-1,-1,0,"(1076, 437)","(1076, 459)","(1077, 479)","(1081, 501)","(1089, 521)","(1102, 540)","(1118, 557)","(1136, 572)","(1159, 576)","(1181, 571)","(1201, 557)","(1219, 540)","(1233, 520)","(1241, 497)","(1245, 474)","(1246, 451)","(1247, 427)","(1085, 429)","(1095, 421)","(1110, 420)","(1125, 423)","(1140, 429)","(1165, 427)","(1181, 420)","(1198, 416)","(1215, 417)","(1228, 425)","(1154, 439)","(1153, 454)","(1153, 470)","(1153, 485)","(1134, 489)","(1144, 494)","(1154, 497)","(1165, 493)","(1175, 488)","(1104, 439)","(1112, 436)","(1122, 436)","(1132, 439)","(1122, 441)","(1112, 441)","(1178, 437)","(1188, 433)","(1198, 433)","(1208, 435)","(1199, 438)","(1189, 439)","(1117, 507)","(1132, 507)","(1145, 508)","(1154, 509)","(1165, 507)","(1179, 505)","(1195, 503)","(1180, 521)","(1167, 528)","(1156, 530)","(1145, 529)","(1132, 523)","(1123, 509)","(1144, 511)","(1154, 512)","(1165, 510)","(1190, 505)","(1166, 520)","(1155, 522)","(1145, 521)",0.18,0.87,100.0,0.33,-0.01,0.45,0.04,-5.0,0.12,0.33,43.5,47.4,76.8,30.0,30.4,62.05,66.7,54.05,62.58
133,-720896,70,-56,-1,-1,0,"(1077, 436)","(1078, 456)","(1080, 476)","(1084, 495)","(1090, 515)","(1101, 533)","(1115, 549)","(1133, 563)","(1155, 566)","(1178, 562)","(1198, 550)","(1214, 534)","(1226, 515)","(1233, 494)","(1236, 472)","(1236, 450)","(1236, 428)","(1081, 429)","(1090, 420)","(1105, 418)","(1120, 422)","(1135, 429)","(1158, 426)","(1173, 419)","(1190, 414)","(1207, 416)","(1219, 425)","(1147, 437)","(1147, 453)","(1146, 470)","(1146, 488)","(1130, 489)","(1139, 495)","(1149, 498)","(1159, 494)","(1169, 488)","(1100, 438)","(1108, 434)","(1117, 434)","(1128, 438)","(1117, 440)","(1108, 441)","(1172, 436)","(1181, 431)","(1191, 431)","(1200, 434)","(1192, 438)","(1182, 438)","(1120, 509)","(1132, 510)","(1142, 510)","(1151, 512)","(1161, 510)","(1174, 508)","(1189, 506)","(1176, 519)","(1163, 524)","(1153, 525)","(1143, 524)","(1132, 520)","(1125, 510)","(1142, 514)","(1151, 515)","(1161, 513)","(1184, 508)","(1162, 515)","(1152, 517)","(1143, 516)",0.25,0.93,100.0,0.35,-0.0,0.43,0.02,-6.5,0.13,0.39,41.2,45.7,73.7,27.35,25.9,61.5,41.11,37.11,53.94
166,-589824,70,-56,-1,-1,0,"(1074, 437)","(1074, 457)","(1077, 477)","(1081, 497)","(1087, 517)","(1098, 536)","(1112, 552)","(1129, 566)","(1152, 569)","(1175, 566)","(1196, 552)","(1213, 536)","(1226, 516)","(1233, 494)","(1236, 471)","(1236, 447)","(1235, 424)","(1077, 429)","(1086, 420)","(1100, 419)","(1116, 422)","(1130, 428)","(1153, 426)","(1168, 417)","(1185, 413)","(1203, 413)","(1216, 422)","(1142, 437)","(1142, 454)","(1142, 471)","(1142, 488)","(1125, 490)","(1134, 495)","(1145, 499)","(1155, 494)","(1165, 489)","(1095, 438)","(1103, 434)","(1113, 434)","(1123, 438)","(1113, 440)","(1103, 441)","(1168, 436)","(1177, 430)","(1187, 430)","(1197, 432)","(1189, 436)","(1178, 437)","(1116, 511)","(1127, 511)","(1138, 511)","(1147, 513)","(1157, 511)","(1170, 509)","(1186, 508)","(1172, 520)","(1159, 526)","(1149, 527)","(1139, 526)","(1128, 522)","(1121, 512)","(1138, 515)","(1147, 516)","(1157, 515)","(1181, 510)","(1158, 517)","(1148, 518)","(1138, 517)",0.22,0.95,100.0,0.35,-0.04,0.43,0.02,-6.0,0.14,0.38,41.0,46.0,77.4,29.25,27.75,65.8,42.47,38.11,54.35
200,-524288,70,-56,-1,-1,0,"(1050, 439)","(1052, 462)","(1055, 484)","(1061, 506)","(1071, 527)","(1085, 545)","(1103, 561)","(1124, 573)","(1148, 575)","(1172, 570)","(1192, 556)","(1209, 539)","(1221, 519)","(1228, 496)","(1231, 473)","(1231, 448)","(1229, 424)","(1062, 429)","(1072, 419)","(1089, 417)","(1106, 421)","(1121, 428)","(1148, 425)","(1163, 416)","(1180, 411)","(1197, 411)","(1210, 419)","(1137, 437)","(1137, 453)","(1138, 471)","(1139, 488)","(1121, 493)","(1131, 498)","(1141, 501)","(1152, 496)","(1161, 491)","(1083, 440)","(1092, 437)","(1102, 437)","(1113, 439)","(1103, 442)","(1093, 443)","(1161, 436)","(1172, 432)","(1182, 431)","(1192, 432)","(1183, 436)","(1173, 437)","(1108, 514)","(1122, 514)","(1133, 514)","(1143, 516)","(1153, 514)","(1166, 512)","(1182, 509)","(1168, 523)","(1156, 529)","(1145, 530)","(1135, 530)","(1123, 526)","(1114, 515)","(1134, 518)","(1143, 519)","(1153, 517)","(1176, 511)","(1154, 520)","(1144, 522)","(1135, 521)",0.16,0.88,100.0,0.34,-0.05,0.41,0.02,-4.5,0.13,0.36,44.7,49.5,79.9,28.85,27.45,63.5,54.29,45.47,55.94
233,-393216,70,-56,-1,-1,0,"(1049, 441)","(1051, 463)","(1055, 484)","(1060, 506)","(1069, 527)","(1083, 546)","(1100, 562)","(1121, 574)","(1145, 577)","(1170, 572)","(1191, 559)","(1208, 541)","(1221, 520)","(1227, 497)","(1228, 473)","(1228, 448)","(1226, 423)","(1056, 433)","(1064, 422)","(1080, 418)","(1096, 420)","(1112, 427)","(1141, 423)","(1157, 414)","(1175, 409)","(1193, 411)","(1205, 421)","(1129, 437)","(1130, 455)","(1130, 472)","(1131, 490)","(1114, 495)","(1124, 499)","(1134, 503)","(1145, 498)","(1155, 493)","(1079, 443)","(1087, 439)","(1097, 438)","(1108, 440)","(1098, 443)","(1088, 445)","(1156, 437)","(1166, 432)","(1176, 432)","(1186, 433)","(1177, 437)","(1167, 438)","(1105, 518)","(1117, 517)","(1127, 517)","(1137, 519)","(1147, 516)","(1161, 514)","(1178, 512)","(1164, 525)","(1151, 530)","(1140, 532)","(1130, 531)","(1119, 528)","(1110, 518)","(1128, 521)","(1138, 522)","(1148, 520)","(1172, 514)","(1149, 521)","(1139, 523)","(1129, 522)",0.18,0.97,101.0,0.33,-0.06,0.41,0.01,-4.5,0.14,0.37,46.4,51.1,80.9,31.55,29.1,67.85,52.0,42.47,53.41
266,-655360,70,-56,-1,-1,0,"(1045, 441)","(1047, 463)","(1050, 485)","(1055, 507)","(1064, 529)","(1077, 549)","(1094, 566)","(1114, 580)","(1139, 583)","(1164, 578)","(1186, 563)","(1205, 544)","(1218, 522)","(1224, 498)","(1226, 473)","(1225, 447)","(1223, 422)","(1049, 436)","(1057, 424)","(1073, 420)","(1091, 422)","(1107, 429)","(1133, 425)","(1150, 415)","(1169, 410)","(1188, 412)","(1201, 422)","(1121, 439)","(1122, 457)","(1122, 474)","(1123, 493)","(1106, 498)","(1115, 502)","(1126, 505)","(1138, 500)","(1148, 495)","(1071, 444)","(1080, 440)","(1090, 439)","(1102, 442)","(1091, 445)","(1080, 446)","(1150, 437)","(1160, 432)","(1170, 431)","(1181, 433)","(1172, 438)","(1161, 439)","(1097, 521)","(1109, 521)","(1120, 520)","(1130, 522)","(1140, 519)","(1154, 517)","(1172, 515)","(1158, 529)","(1145, 534)","(1134, 536)","(1123, 536)","(1111, 532)","(1103, 522)","(1121, 524)","(1131, 525)","(1141, 523)","(1166, 517)","(1143, 526)","(1132, 528)","(1122, 527)",0.22,0.97,101.0,0.34,-0.08,0.42,0.02,-5.5,0.15,0.37,39.5,42.0,69.2,33.5,30.7,69.95,48.88,42.41,54.23
300,-1310720,70,-56,-1,-1,0,"(1031, 445)","(1032, 468)","(1035, 491)","(1041, 514)","(1050, 536)","(1065, 557)","(1084, 575)","(1106, 588)","(1133, 590)","(1158, 584)","(1181, 569)","(1199, 551)","(1212, 529)","(1217, 504)","(1218, 478)","(1216, 452)","(1213, 427)","(1038, 436)","(1048, 425)","(1064, 421)","(1082, 424)","(1098, 430)","(1126, 426)","(1142, 416)","(1160, 410)","(1178, 411)","(1191, 421)","(1114, 440)","(1115, 458)","(1116, 476)","(1117, 495)","(1099, 501)","(1109, 506)","(1121, 509)","(1131, 504)","(1142, 498)","(1061, 446)","(1070, 441)","(1080, 440)","(1092, 443)","(1082, 446)","(1071, 448)","(1141, 438)","(1151, 432)","(1162, 431)","(1172, 434)","(1164, 438)","(1153, 439)","(1090, 526)","(1102, 525)","(1113, 525)","(1123, 527)","(1134, 523)","(1149, 521)","(1167, 520)","(1152, 533)","(1139, 539)","(1128, 540)","(1117, 540)","(1105, 537)","(1096, 527)","(1115, 529)","(1124, 530)","(1135, 528)","(1161, 522)","(1136, 530)","(1126, 531)","(1116, 531)",0.23,0.99,101.0,0.34,-0.08,0.42,0.01,-5.5,0.15,0.36,41.0,45.9,73.2,37.4,35.75,76.0,50.41,43.35,53.23
333,-1376256,70,-56,-1,-1,0,"(1027, 449)","(1028, 472)","(1031, 496)","(1037, 519)","(1046, 542)","(1060, 564)","(1078, 582)","(1100, 596)","(1126, 599)","(1152, 593)","(1176, 578)","(1195, 558)","(1209, 534)","(1215, 508)","(1216, 481)","(1214, 454)","(1211, 427)","(1029, 439)","(1038, 426)","(1054, 423)","(1072, 425)","(1089, 432)","(1119, 427)","(1136, 417)","(1155, 411)","(1175, 412)","(1189, 422)","(1106, 442)","(1106, 461)","(1107, 480)","(1107, 499)","(1090, 506)","(1100, 510)","(1111, 513)","(1123, 508)","(1134, 502)","(1052, 447)","(1061, 442)","(1072, 440)","(1085, 445)","(1073, 448)","(1061, 450)","(1136, 440)","(1146, 432)","(1158, 431)","(1169, 434)","(1160, 439)","(1148, 441)","(1081, 533)","(1093, 531)","(1105, 530)","(1115, 532)","(1125, 528)","(1141, 527)","(1160, 525)","(1145, 539)","(1131, 545)","(1120, 547)","(1109, 547)","(1096, 544)","(1087, 533)","(1106, 535)","(1116, 536)","(1127, 534)","(1154, 527)","(1129, 535)","(1118, 538)","(1108, 537)",0.26,1.01,102.0,0.35,-0.09,0.42,0.01,-6.5,0.15,0.36,47.6,52.2,83.3,39.5,37.8,75.8,51.35,43.23,54.11
366,-1507328,70,-56,-1,-1,0,"(1016, 455)","(1017, 479)","(1022, 503)","(1028, 526)","(1037, 549)","(1051, 571)","(1069, 590)","(1091, 606)","(1118, 609)","(1146, 603)","(1171, 586)","(1191, 565)","(1205, 540)","(1212, 513)","(1214, 485)","(1213, 457)","(1210, 429)","(1017, 445)","(1026, 432)","(1043, 427)","(1062, 429)","(1079, 436)","(1110, 431)","(1128, 420)","(1148, 415)","(1169, 416)","(1185, 426)","(1096, 446)","(1097, 466)","(1098, 485)","(1098, 505)","(1081, 512)","(1091, 517)","(1103, 520)","(1115, 514)","(1126, 508)","(1041, 453)","(1050, 447)","(1062, 445)","(1075, 450)","(1062, 454)","(1051, 455)","(1128, 444)","(1139, 437)","(1151, 435)","(1163, 438)","(1153, 444)","(1141, 445)","(1071, 539)","(1084, 538)","(1096, 537)","(1107, 539)","(1118, 535)","(1134, 533)","(1154, 531)","(1138, 546)","(1123, 553)","(1111, 555)","(1100, 554)","(1087, 551)","(1077, 540)","(1097, 543)","(1108, 543)","(1119, 541)","(1148, 533)","(1121, 542)","(1109, 545)","(1098, 544)",0.24,0.99,102.0,0.35,-0.1,0.42,0.02,-7.0,0.15,0.36,52.0,55.6,83.0,41.35,38.75,77.2,52.52,43.7,52.76
400,9764864,70,-56,-1,-1,0,"(1001, 459)","(1004, 484)","(1008, 509)","(1014, 534)","(1024, 558)","(1040, 580)","(1060, 598)","(1082, 613)","(1109, 615)","(1138, 609)","(1164, 593)","(1185, 573)","(1200, 548)","(1208, 521)","(1211, 492)","(1211, 462)","(1210, 433)","(1004, 449)","(1013, 436)","(1031, 432)","(1051, 434)","(1069, 441)","(1100, 436)","(1120, 425)","(1142, 419)","(1164, 421)","(1181, 432)","(1087, 452)","(1088, 472)","(1089, 492)","(1089, 513)","(1072, 520)","(1083, 525)","(1094, 528)","(1106, 522)","(1118, 516)","(1029, 459)","(1039, 453)","(1051, 451)","(1064, 456)","(1052, 460)","(1039, 462)","(1120, 451)","(1132, 442)","(1145, 441)","(1157, 444)","(1147, 450)","(1134, 452)","(1062, 547)","(1076, 546)","(1088, 546)","(1098, 548)","(1109, 544)","(1126, 541)","(1147, 538)","(1130, 553)","(1114, 560)","(1102, 562)","(1092, 562)","(1078, 558)","(1068, 547)","(1089, 550)","(1099, 551)","(1111, 549)","(1140, 540)","(1112, 550)","(1101, 553)","(1090, 552)",0.25,1.01,103.0,0.34,-0.08,0.4,0.01,-7.5,0.14,0.37,46.0,50.6,79.7,40.3,38.45,77.4,59.17,46.17,49.29
433,-983040,70,-56,-1,-1,0,"(994, 462)","(995, 488)","(1000, 513)","(1005, 538)","(1014, 563)","(1029, 586)","(1048, 606)","(1072, 624)","(1100, 627)","(1130, 621)","(1158, 604)","(1180, 582)","(1197, 555)","(1206, 526)","(1209, 496)","(1208, 465)","(1206, 434)","(993, 453)","(1002, 439)","(1020, 435)","(1040, 438)","(1059, 445)","(1091, 439)","(1112, 429)","(1134, 423)","(1157, 424)","(1175, 435)","(1078, 457)","(1078, 478)","(1078, 499)","(1078, 520)","(1061, 527)","(1072, 532)","(1084, 535)","(1097, 529)","(1109, 523)","(1018, 462)","(1028, 456)","(1041, 454)","(1055, 460)","(1042, 464)","(1029, 465)","(1112, 454)","(1124, 446)","(1137, 444)","(1150, 448)","(1140, 454)","(1126, 456)","(1052, 555)","(1065, 554)","(1078, 553)","(1089, 555)","(1101, 551)","(1119, 549)","(1141, 546)","(1123, 562)","(1106, 570)","(1094, 572)","(1082, 571)","(1068, 568)","(1059, 556)","(1079, 558)","(1090, 559)","(1102, 556)","(1133, 548)","(1104, 560)","(1092, 562)","(1080, 561)",0.26,1.03,103.0,0.35,-0.08,0.41,0.02,-8.0,0.14,0.37,52.4,56.4,88.4,40.15,36.65,79.35,66.7,52.52,55.35
466,-1376256,70,-56,-1,-1,0,"(960, 469)","(962, 498)","(966, 527)","(974, 556)","(988, 583)","(1010, 606)","(1035, 625)","(1063, 639)","(1093, 640)","(1123, 632)","(1149, 613)","(1170, 592)","(1184, 566)","(1191, 536)","(1192, 507)","(1190, 475)","(1185, 445)","(970, 450)","(984, 438)","(1004, 436)","(1025, 440)","(1045, 448)","(1082, 444)","(1101, 432)","(1122, 425)","(1145, 425)","(1162, 435)","(1067, 461)","(1068, 482)","(1070, 504)","(1071, 525)","(1050, 535)","(1062, 540)","(1075, 543)","(1089, 537)","(1101, 530)","(997, 467)","(1009, 461)","(1024, 460)","(1038, 466)","(1024, 469)","(1010, 471)","(1099, 460)","(1112, 451)","(1126, 449)","(1139, 453)","(1129, 459)","(1114, 461)","(1035, 563)","(1053, 561)","(1068, 560)","(1080, 563)","(1093, 558)","(1112, 556)","(1134, 554)","(1116, 572)","(1099, 580)","(1085, 583)","(1072, 582)","(1055, 578)","(1043, 564)","(1069, 567)","(1081, 568)","(1094, 565)","(1127, 556)","(1096, 569)","(1083, 571)","(1070, 570)",0.25,0.93,103.0,0.36,-0.06,0.44,0.02,-8.0,0.15,0.35,63.0,67.8,98.6,43.6,42.75,82.5,73.58,60.88,66.35
500,-1507328,70,-56,-1,-1,0,"(973, 472)","(973, 499)","(976, 526)","(982, 553)","(992, 580)","(1009, 605)","(1030, 627)","(1054, 645)","(1084, 649)","(1115, 643)","(1143, 625)","(1166, 603)","(1182, 576)","(1191, 544)","(1193, 512)","(1191, 480)","(1188, 448)","(971, 459)","(981, 445)","(999, 442)","(1019, 445)","(1038, 453)","(1074, 449)","(1094, 437)","(1117, 431)","(1141, 433)","(1158, 444)","(1058, 467)","(1058, 489)","(1058, 511)","(1059, 533)","(1040, 540)","(1052, 546)","(1065, 550)","(1079, 543)","(1092, 536)","(997, 471)","(1007, 465)","(1021, 464)","(1035, 470)","(1021, 474)","(1008, 475)","(1094, 465)","(1107, 456)","(1121, 455)","(1135, 459)","(1123, 465)","(1109, 467)","(1029, 568)","(1043, 568)","(1057, 568)","(1070, 570)","(1083, 566)","(1103, 564)","(1128, 561)","(1108, 581)","(1089, 589)","(1075, 591)","(1062, 590)","(1047, 585)","(1036, 570)","(1059, 573)","(1071, 574)","(1085, 572)","(1120, 564)","(1087, 578)","(1073, 580)","(1060, 579)",0.25,1.05,104.0,0.36,-0.07,0.46,0.03,-9.0,0.15,0.36,57.5,62.3,93.3,44.9,43.25,83.5,66.41,53.47,59.47
533,-851968,70,-56,-1,-1,0,"(964, 478)","(964, 505)","(968, 532)","(973, 560)","(982, 587)","(998, 614)","(1018, 636)","(1041, 655)","(1072, 661)","(1104, 655)","(1135, 637)","(1161, 614)","(1180, 586)","(1191, 554)","(1194, 521)","(1194, 488)","(1193, 455)","(964, 465)","(974, 451)","(993, 447)","(1013, 451)","(1032, 459)","(1065, 454)","(1087, 442)","(1112, 436)","(1138, 439)","(1158, 451)","(1050, 472)","(1049, 495)","(1048, 517)","(1047, 540)","(1029, 547)","(1041, 554)","(1054, 558)","(1068, 552)","(1082, 545)","(989, 476)","(999, 469)","(1013, 468)","(1027, 475)","(1013, 478)","(1000, 479)","(1089, 471)","(1102, 462)","(1116, 461)","(1131, 466)","(1118, 472)","(1103, 473)","(1019, 576)","(1034, 577)","(1047, 576)","(1059, 579)","(1072, 575)","(1093, 573)","(1118, 571)","(1097, 589)","(1078, 596)","(1064, 598)","(1051, 597)","(1036, 592)","(1025, 578)","(1048, 582)","(1060, 583)","(1073, 581)","(1110, 573)","(1075, 585)","(1062, 587)","(1050, 585)",0.26,1.06,104.0,0.34,-0.06,0.43,0.02,-9.5,0.13,0.35,54.1,57.2,89.0,48.6,46.2,85.65,73.41,55.41,57.58
566,0,70,-56,-1,-1,0,"(941, 484)","(940, 514)","(943, 543)","(950, 572)","(963, 601)","(983, 626)","(1008, 648)","(1034, 666)","(1067, 671)","(1099, 664)","(1127, 645)","(1151, 623)","(1169, 595)","(1177, 564)","(1179, 531)","(1178, 498)","(1173, 466)","(947, 468)","(959, 454)","(979, 450)","(1001, 454)","(1021, 463)","(1057, 460)","(1079, 448)","(1103, 441)","(1128, 444)","(1146, 457)","(1042, 478)","(1042, 501)","(1042, 523)","(1042, 547)","(1022, 555)","(1034, 561)","(1047, 566)","(1062, 559)","(1076, 553)","(975, 482)","(986, 475)","(1000, 474)","(1016, 481)","(1001, 484)","(987, 485)","(1078, 477)","(1091, 467)","(1107, 466)","(1121, 471)","(1109, 477)","(1094, 478)","(1009, 584)","(1025, 584)","(1040, 585)","(1053, 587)","(1067, 584)","(1088, 581)","(1113, 578)","(1093, 596)","(1074, 604)","(1059, 606)","(1045, 605)","(1028, 599)","(1016, 586)","(1041, 590)","(1054, 592)","(1068, 589)","(1105, 581)","(1071, 592)","(1057, 594)","(1043, 593)",0.26,1.02,104.0,0.36,-0.05,0.44,0.01,-9.5,0.14,0.35,65.5,70.0,99.5,53.3,50.0,87.95,71.35,57.47,60.58
600,1638400,70,-56,-1,-1,0,"(940, 488)","(938, 517)","(940, 546)","(946, 576)","(958, 605)","(976, 633)","(999, 656)","(1025, 676)","(1057, 682)","(1090, 676)","(1120, 657)","(1144, 633)","(1163, 605)","(1173, 573)","(1176, 540)","(1175, 505)","(1170, 472)","(942, 472)","(952, 457)","(972, 454)","(993, 458)","(1013, 468)","(1051, 464)","(1073, 452)","(1098, 446)","(1123, 449)","(1142, 462)","(1034, 484)","(1034, 508)","(1034, 531)","(1033, 555)","(1013, 562)","(1025, 569)","(1039, 574)","(1055, 567)","(1070, 560)","(967, 486)","(978, 479)","(992, 479)","(1008, 487)","(993, 490)","(978, 491)","(1072, 483)","(1086, 473)","(1102, 472)","(1116, 478)","(1104, 484)","(1088, 485)","(1000, 591)","(1017, 591)","(1032, 592)","(1045, 595)","(1059, 591)","(1081, 589)","(1107, 587)","(1086, 608)","(1065, 616)","(1050, 618)","(1036, 617)","(1019, 609)","(1007, 593)","(1033, 598)","(1046, 599)","(1060, 597)","(1099, 590)","(1062, 604)","(1048, 605)","(1035, 604)",0.27,1.03,105.0,0.36,-0.03,0.46,0.03,-11.0,0.15,0.35,64.5,69.0,102.0,53.65,52.0,91.25,76.29,62.47,66.35
633,3735552,70,-56,-1,-1,0,"(932, 493)","(932, 523)","(936, 553)","(943, 584)","(954, 613)","(971, 641)","(992, 665)","(1016, 687)","(1047, 694)","(1082, 688)","(1113, 670)","(1140, 646)","(1161, 617)","(1173, 584)","(1177, 548)","(1177, 511)","(1175, 475)","(934, 478)","(945, 462)","(966, 460)","(987, 464)","(1007, 474)","(1043, 470)","(1067, 458)","(1093, 453)","(1120, 455)","(1140, 470)","(1026, 488)","(1025, 513)","(1024, 538)","(1023, 563)","(1002, 569)","(1015, 576)","(1030, 581)","(1046, 574)","(1061, 567)","(960, 491)","(971, 484)","(985, 484)","(1001, 492)","(986, 495)","(971, 496)","(1067, 489)","(1081, 479)","(1096, 478)","(1111, 483)","(1098, 490)","(1082, 491)","(991, 599)","(1007, 599)","(1022, 600)","(1035, 603)","(1050, 599)","(1073, 597)","(1100, 596)","(1077, 617)","(1056, 625)","(1040, 627)","(1026, 625)","(1009, 618)","(998, 601)","(1023, 604)","(1036, 606)","(1051, 604)","(1092, 598)","(1053, 613)","(1038, 615)","(1025, 612)",0.27,1.06,105.0,0.35,-0.02,0.44,0.03,-11.0,0.14,0.36,59.2,63.8,95.1,54.4,52.75,92.7,72.05,57.47,62.41
666,2293760,70,-56,-1,-1,0,"(912, 498)","(911, 529)","(913, 560)","(919, 592)","(929, 623)","(948, 652)","(972, 677)","(1000, 698)","(1035, 704)","(1071, 700)","(1102, 681)","(1128, 656)","(1147, 626)","(1158, 593)","(1161, 558)","(1161, 522)","(1158, 487)","(918, 482)","(930, 466)","(953, 464)","(976, 468)","(998, 478)","(1036, 475)","(1060, 464)","(1086, 458)","(1113, 461)","(1132, 476)","(1019, 495)","(1018, 520)","(1017, 545)","(1017, 570)","(993, 576)","(1007, 584)","(1022, 590)","(1039, 584)","(1054, 576)","(946, 496)","(958, 488)","(975, 488)","(991, 497)","(975, 500)","(959, 501)","(1058, 496)","(1073, 485)","(1090, 484)","(1104, 491)","(1092, 497)","(1075, 498)","(978, 606)","(996, 607)","(1013, 609)","(1028, 612)","(1044, 609)","(1067, 607)","(1094, 606)","(1071, 627)","(1049, 636)","(1031, 637)","(1016, 635)","(998, 626)","(985, 609)","(1014, 615)","(1028, 617)","(1045, 615)","(1085, 608)","(1047, 623)","(1030, 624)","(1015, 621)",0.28,0.99,105.0,0.37,-0.01,0.47,0.03,-12.0,0.14,0.35,64.3,67.5,98.0,55.7,54.4,94.4,76.05,61.41,62.35
700,-720896,70,-56,-1,-1,0,"(909, 504)","(907, 535)","(910, 567)","(916, 598)","(927, 630)","(945, 661)","(968, 687)","(996, 709)","(1032, 716)","(1069, 711)","(1100, 691)","(1125, 664)","(1144, 633)","(1154, 599)","(1157, 564)","(1156, 527)","(1152, 492)","(912, 488)","(924, 471)","(947, 469)","(970, 474)","(992, 484)","(1031, 481)","(1056, 469)","(1083, 463)","(1109, 466)","(1128, 482)","(1013, 501)","(1012, 526)","(1012, 551)","(1011, 577)","(988, 584)","(1001, 592)","(1017, 597)","(1034, 591)","(1050, 583)","(940, 503)","(952, 495)","(968, 494)","(984, 504)","(968, 507)","(952, 508)","(1054, 501)","(1069, 491)","(1086, 490)","(1100, 496)","(1088, 503)","(1071, 504)","(973, 616)","(991, 617)","(1008, 617)","(1023, 621)","(1039, 617)","(1063, 616)","(1090, 615)","(1068, 638)","(1045, 647)","(1028, 649)","(1012, 646)","(994, 638)","(981, 619)","(1009, 623)","(1024, 625)","(1040, 623)","(1081, 618)","(1043, 633)","(1026, 635)","(1011, 632)",0.28,1.02,105.0,0.37,-0.01,0.48,0.04,-12.0,0.15,0.35,70.2,75.9,106.5,55.15,54.2,94.25,75.41,62.52,64.17
733,-720896,70,-56,-1,-1,0,"(890, 497)","(885, 531)","(883, 564)","(885, 599)","(893, 635)","(911, 668)","(936, 698)","(966, 724)","(1006, 734)","(1049, 729)","(1087, 709)","(1122, 684)","(1148, 652)","(1163, 615)","(1168, 576)","(1170, 537)","(1169, 498)","(900, 486)","(916, 472)","(940, 471)","(964, 477)","(986, 490)","(1026, 488)","(1052, 474)","(1082, 469)","(1111, 473)","(1133, 488)","(1006, 506)","(1003, 532)","(1000, 559)","(998, 587)","(972, 592)","(986, 601)","(1002, 608)","(1021, 601)","(1039, 593)","(929, 504)","(943, 498)","(960, 499)","(976, 507)","(959, 509)","(943, 509)","(1049, 507)","(1067, 498)","(1084, 498)","(1100, 504)","(1085, 509)","(1068, 510)","(947, 619)","(969, 621)","(989, 624)","(1006, 628)","(1024, 625)","(1052, 623)","(1083, 622)","(1054, 646)","(1027, 656)","(1007, 657)","(989, 654)","(968, 644)","(955, 622)","(990, 630)","(1006, 633)","(1025, 631)","(1074, 624)","(1026, 643)","(1007, 644)","(989, 642)",0.22,0.98,105.0,0.35,0.02,0.48,0.03,-11.0,0.11,0.35,60.7,65.2,96.0,50.2,48.85,87.8,77.64,61.11,61.47
766,-589824,70,-56,-1,-1,0,"(898, 506)","(893, 538)","(891, 571)","(894, 605)","(902, 640)","(920, 672)","(944, 700)","(972, 724)","(1010, 734)","(1052, 731)","(1091, 713)","(1125, 689)","(1151, 658)","(1166, 620)","(1172, 581)","(1174, 541)","(1174, 503)","(900, 487)","(914, 472)","(938, 472)","(963, 479)","(985, 492)","(1026, 489)","(1054, 476)","(1084, 472)","(1115, 477)","(1136, 494)","(1005, 511)","(1002, 538)","(999, 565)","(997, 592)","(971, 596)","(986, 606)","(1002, 613)","(1021, 606)","(1039, 599)","(929, 507)","(942, 502)","(959, 502)","(976, 512)","(959, 514)","(942, 514)","(1051, 513)","(1068, 503)","(1086, 503)","(1102, 510)","(1087, 516)","(1069, 516)","(952, 622)","(973, 626)","(991, 629)","(1007, 634)","(1025, 631)","(1052, 629)","(1084, 627)","(1055, 650)","(1028, 658)","(1009, 658)","(992, 655)","(973, 646)","(961, 625)","(992, 635)","(1007, 639)","(1026, 637)","(1075, 629)","(1027, 645)","(1008, 646)","(992, 642)",0.25,1.01,105.0,0.35,0.05,0.47,0.02,-12.5,0.12,0.36,65.6,70.8,101.1,51.55,50.05,87.8,78.17,60.41,59.41
800,-458752,70,-56,-1,-1,0,"(894, 507)","(890, 541)","(888, 574)","(891, 607)","(900, 643)","(918, 675)","(943, 702)","(971, 727)","(1008, 737)","(1049, 734)","(1086, 715)","(1120, 690)","(1146, 659)","(1161, 622)","(1167, 584)","(1170, 545)","(1170, 507)","(897, 490)","(911, 476)","(935, 475)","(959, 482)","(982, 495)","(1022, 494)","(1049, 481)","(1080, 476)","(1111, 481)","(1133, 498)","(1003, 514)","(1000, 539)","(997, 564)","(995, 590)","(969, 595)","(984, 604)","(1000, 612)","(1018, 606)","(1036, 600)","(925, 511)","(938, 504)","(955, 505)","(972, 514)","(955, 517)","(938, 517)","(1048, 516)","(1065, 507)","(1083, 507)","(1100, 514)","(1085, 520)","(1066, 520)","(949, 624)","(969, 627)","(989, 629)","(1004, 634)","(1022, 632)","(1050, 631)","(1082, 631)","(1052, 656)","(1024, 666)","(1005, 666)","(989, 662)","(969, 651)","(957, 628)","(989, 636)","(1005, 640)","(1023, 638)","(1072, 633)","(1023, 651)","(1005, 651)","(989, 647)",0.25,1.03,105.0,0.35,0.04,0.48,0.03,-13.0,0.11,0.34,63.2,68.4,100.2,43.1,42.4,80.95,76.64,60.23,59.7
833,-524288,70,-56,-1,-1,0,"(894, 512)","(889, 545)","(888, 579)","(891, 614)","(900, 649)","(918, 681)","(942, 708)","(970, 733)","(1006, 744)","(1047, 741)","(1085, 724)","(1119, 698)","(1145, 667)","(1160, 629)","(1167, 589)","(1169, 550)","(1169, 511)","(898, 491)","(911, 477)","(934, 475)","(958, 482)","(981, 495)","(1024, 495)","(1051, 482)","(1081, 477)","(1111, 482)","(1132, 500)","(1002, 516)","(999, 543)","(995, 571)","(992, 599)","(968, 603)","(982, 612)","(999, 619)","(1018, 613)","(1036, 606)","(926, 512)","(939, 506)","(956, 506)","(974, 517)","(956, 519)","(939, 519)","(1048, 519)","(1065, 509)","(1083, 510)","(1099, 517)","(1084, 523)","(1066, 523)","(951, 630)","(971, 634)","(989, 637)","(1005, 641)","(1023, 639)","(1050, 637)","(1082, 636)","(1053, 661)","(1026, 669)","(1007, 669)","(990, 666)","(971, 655)","(959, 633)","(990, 642)","(1006, 646)","(1024, 644)","(1073, 638)","(1025, 655)","(1007, 656)","(990, 652)",0.26,1.03,105.0,0.36,0.04,0.47,0.03,-13.5,0.12,0.36,66.1,72.9,104.5,54.25,53.05,91.65,83.47,67.05,70.17
866,-589824,70,-56,-1,-1,0,"(888, 513)","(884, 546)","(884, 580)","(888, 615)","(899, 650)","(918, 683)","(942, 711)","(971, 736)","(1009, 745)","(1050, 741)","(1087, 722)","(1119, 695)","(1145, 663)","(1160, 625)","(1166, 585)","(1167, 545)","(1164, 506)","(896, 495)","(909, 480)","(931, 478)","(955, 484)","(977, 496)","(1020, 494)","(1046, 480)","(1075, 475)","(1103, 480)","(1125, 496)","(999, 516)","(997, 543)","(994, 570)","(992, 598)","(968, 602)","(982, 611)","(998, 618)","(1017, 612)","(1035, 605)","(923, 515)","(935, 507)","(952, 508)","(970, 518)","(953, 520)","(935, 520)","(1043, 517)","(1059, 507)","(1077, 507)","(1094, 513)","(1079, 519)","(1061, 520)","(950, 631)","(970, 633)","(989, 635)","(1004, 639)","(1022, 636)","(1050, 636)","(1082, 636)","(1053, 663)","(1026, 672)","(1007, 673)","(989, 670)","(970, 658)","(958, 634)","(990, 640)","(1005, 644)","(1024, 642)","(1073, 638)","(1024, 658)","(1006, 659)","(989, 655)",0.24,1.05,105.0,0.35,0.01,0.47,0.04,-12.5,0.13,0.35,75.9,79.8,111.4,56.95,56.4,96.8,77.47,62.05,63.11
900,-524288,70,-56,-1,-1,0,"(894, 510)","(888, 544)","(887, 577)","(890, 613)","(898, 649)","(917, 682)","(940, 711)","(969, 736)","(1008, 745)","(1050, 742)","(1088, 723)","(1121, 697)","(1147, 666)","(1162, 628)","(1168, 589)","(1171, 549)","(1170, 509)","(899, 493)","(912, 476)","(935, 473)","(961, 479)","(984, 492)","(1026, 491)","(1053, 477)","(1083, 472)","(1113, 479)","(1133, 497)","(1005, 512)","(1003, 539)","(999, 565)","(997, 593)","(972, 598)","(986, 608)","(1002, 615)","(1021, 609)","(1039, 602)","(929, 511)","(942, 503)","(958, 503)","(976, 514)","(959, 516)","(942, 516)","(1050, 514)","(1068, 504)","(1085, 504)","(1101, 512)","(1087, 518)","(1068, 518)","(953, 628)","(973, 629)","(991, 632)","(1007, 637)","(1026, 634)","(1053, 634)","(1083, 635)","(1055, 659)","(1028, 667)","(1008, 668)","(991, 665)","(972, 654)","(961, 631)","(992, 637)","(1008, 641)","(1027, 640)","(1074, 637)","(1026, 654)","(1007, 655)","(990, 651)",0.27,1.02,105.0,0.35,0.02,0.47,0.04,-13.5,0.12,0.34,73.5,78.8,109.0,57.45,55.85,97.65,82.52,67.17,68.23
933,-589824,70,-56,-1,-1,0,"(910, 502)","(906, 535)","(906, 568)","(909, 602)","(917, 636)","(933, 669)","(953, 699)","(978, 726)","(1013, 738)","(1054, 735)","(1094, 717)","(1130, 693)","(1160, 662)","(1177, 624)","(1185, 583)","(1188, 542)","(1189, 502)","(910, 484)","(921, 468)","(943, 466)","(967, 472)","(988, 484)","(1033, 485)","(1062, 474)","(1093, 471)","(1123, 478)","(1145, 496)","(1010, 507)","(1006, 534)","(1002, 561)","(998, 589)","(975, 592)","(988, 602)","(1005, 609)","(1024, 603)","(1043, 597)","(937, 502)","(949, 496)","(966, 497)","(983, 507)","(965, 509)","(948, 508)","(1058, 511)","(1075, 502)","(1093, 502)","(1110, 510)","(1094, 515)","(1075, 515)","(956, 618)","(975, 622)","(994, 625)","(1011, 630)","(1029, 628)","(1058, 627)","(1090, 628)","(1060, 654)","(1031, 663)","(1011, 663)","(993, 658)","(974, 646)","(964, 622)","(994, 630)","(1011, 634)","(1030, 634)","(1082, 630)","(1030, 649)","(1011, 649)","(993, 644)",0.25,1.05,105.0,0.35,0.04,0.48,0.04,-13.0,0.11,0.35,61.9,66.3,97.1,55.65,55.4,96.05,81.29,65.29,65.82
966,0,70,-56,-1,-1,0,"(888, 492)","(884, 528)","(883, 564)","(887, 601)","(897, 637)","(917, 670)","(943, 699)","(974, 724)","(1014, 734)","(1056, 730)","(1093, 711)","(1126, 686)","(1151, 654)","(1165, 618)","(1172, 579)","(1174, 540)","(1173, 502)","(906, 476)","(923, 461)","(947, 460)","(972, 468)","(995, 481)","(1037, 482)","(1063, 469)","(1092, 464)","(1120, 468)","(1141, 485)","(1017, 500)","(1015, 527)","(1012, 555)","(1009, 583)","(981, 586)","(996, 596)","(1013, 604)","(1032, 598)","(1049, 591)","(937, 497)","(951, 491)","(968, 492)","(985, 502)","(968, 504)","(951, 503)","(1059, 505)","(1077, 495)","(1095, 495)","(1110, 503)","(1096, 509)","(1078, 508)","(955, 614)","(978, 616)","(999, 618)","(1017, 624)","(1035, 621)","(1063, 621)","(1093, 623)","(1064, 648)","(1037, 656)","(1017, 656)","(998, 653)","(977, 641)","(963, 618)","(1000, 625)","(1017, 629)","(1036, 628)","(1084, 626)","(1036, 643)","(1016, 643)","(998, 639)",0.26,0.96,105.0,0.34,0.04,0.48,0.03,-13.5,0.11,0.35,71.7,75.9,106.2,61.4,62.75,100.3,87.47,72.47,72.88
1000,-524288,70,-56,-1,-1,0,"(918, 490)","(913, 523)","(912, 556)","(915, 591)","(923, 625)","(939, 658)","(962, 686)","(990, 711)","(1027, 722)","(1068, 719)","(1108, 703)","(1144, 680)","(1171, 650)","(1187, 613)","(1194, 573)","(1197, 532)","(1199, 492)","(924, 474)","(937, 459)","(961, 457)","(985, 464)","(1007, 477)","(1046, 476)","(1074, 463)","(1105, 459)","(1136, 465)","(1158, 483)","(1026, 494)","(1022, 520)","(1018, 547)","(1014, 574)","(991, 577)","(1004, 587)","(1020, 595)","(1039, 588)","(1058, 581)","(952, 491)","(965, 485)","(981, 485)","(999, 494)","(981, 496)","(965, 495)","(1072, 496)","(1089, 488)","(1106, 488)","(1122, 495)","(1107, 500)","(1089, 499)","(972, 606)","(991, 607)","(1009, 611)","(1026, 615)","(1044, 613)","(1072, 612)","(1104, 614)","(1074, 637)","(1046, 645)","(1027, 645)","(1009, 641)","(991, 630)","(980, 609)","(1010, 615)","(1026, 619)","(1045, 618)","(1095, 615)","(1045, 633)","(1026, 633)","(1009, 629)",0.23,1.05,105.0,0.34,0.04,0.46,0.03,-11.5,0.11,0.35,60.1,64.8,93.6,55.25,54.7,95.1,76.35,60.41,62.41
1033,-589824,70,-56,-1,-1,0,"(924, 485)","(919, 517)","(918, 549)","(921, 583)","(930, 617)","(948, 648)","(972, 674)","(1002, 697)","(1039, 707)","(1078, 704)","(1116, 687)","(1150, 664)","(1174, 635)","(1189, 599)","(1195, 562)","(1197, 524)","(1196, 486)","(933, 461)","(948, 449)","(969, 448)","(991, 454)","(1012, 467)","(1056, 467)","(1082, 455)","(1111, 451)","(1140, 456)","(1161, 471)","(1035, 488)","(1032, 513)","(1028, 537)","(1025, 563)","(1002, 569)","(1015, 578)","(1031, 585)","(1049, 579)","(1067, 573)","(961, 485)","(974, 479)","(990, 479)","(1007, 490)","(990, 492)","(973, 492)","(1078, 492)","(1096, 482)","(1113, 483)","(1129, 491)","(1114, 496)","(1096, 496)","(984, 597)","(1003, 598)","(1021, 600)","(1037, 604)","(1053, 602)","(1081, 602)","(1112, 604)","(1083, 628)","(1057, 636)","(1038, 636)","(1022, 633)","(1003, 622)","(991, 600)","(1022, 606)","(1037, 609)","(1055, 609)","(1102, 606)","(1056, 623)","(1038, 623)","(1022, 619)",0.26,1.06,104.0,0.35,0.05,0.47,0.04,-13.5,0.11,0.34,70.4,74.8,106.8,56.35,55.3,95.6,74.94,60.29,61.47
1066,-720896,70,-56,-1,-1,0,"(924, 477)","(922, 510)","(922, 544)","(927, 578)","(938, 612)","(959, 642)","(986, 666)","(1017, 686)","(1054, 694)","(1093, 690)","(1129, 674)","(1160, 652)","(1183, 623)","(1196, 588)","(1201, 551)","(1202, 513)","(1200, 477)","(942, 457)","(958, 443)","(980, 443)","(1004, 448)","(1026, 461)","(1070, 460)","(1094, 448)","(1122, 444)","(1148, 448)","(1169, 463)","(1048, 480)","(1046, 504)","(1044, 528)","(1042, 553)","(1018, 559)","(1031, 568)","(1047, 575)","(1064, 569)","(1081, 562)","(972, 479)","(986, 472)","(1003, 473)","(1019, 483)","(1002, 485)","(986, 485)","(1090, 484)","(1106, 475)","(1124, 474)","(1139, 481)","(1125, 487)","(1108, 488)","(996, 588)","(1017, 588)","(1036, 591)","(1052, 595)","(1069, 592)","(1094, 591)","(1124, 592)","(1097, 614)","(1072, 622)","(1054, 623)","(1037, 620)","(1017, 610)","(1004, 591)","(1036, 596)","(1052, 599)","(1070, 598)","(1115, 594)","(1071, 611)","(1053, 611)","(1037, 608)",0.26,0.97,104.0,0.34,0.03,0.46,0.03,-12.5,0.11,0.34,71.9,76.7,107.6,53.1,53.5,92.55,77.58,62.94,65.35
1100,-1245184,70,-56,-1,-1,0,"(962, 475)","(960, 505)","(960, 536)","(964, 567)","(974, 598)","(990, 627)","(1012, 652)","(1038, 674)","(1071, 681)","(1108, 678)","(1141, 661)","(1169, 639)","(1190, 610)","(1202, 577)","(1205, 541)","(1206, 504)","(1205, 469)","(963, 459)","(973, 443)","(994, 439)","(1016, 443)","(1037, 454)","(1078, 452)","(1102, 442)","(1129, 438)","(1155, 444)","(1173, 460)","(1059, 472)","(1057, 496)","(1055, 519)","(1053, 544)","(1031, 550)","(1044, 558)","(1059, 564)","(1075, 558)","(1091, 551)","(991, 473)","(1002, 466)","(1017, 465)","(1032, 474)","(1017, 477)","(1002, 478)","(1099, 475)","(1115, 465)","(1131, 465)","(1144, 472)","(1132, 478)","(1116, 478)","(1017, 580)","(1033, 579)","(1049, 580)","(1064, 584)","(1080, 582)","(1104, 581)","(1131, 584)","(1107, 604)","(1084, 612)","(1066, 612)","(1051, 610)","(1034, 601)","(1024, 582)","(1050, 585)","(1065, 588)","(1081, 587)","(1123, 585)","(1082, 599)","(1065, 600)","(1050, 597)",0.28,1.05,104.0,0.35,0.0,0.46,0.04,-12.0,0.13,0.34,63.0,65.6,94.4,54.05,52.95,93.25,75.7,63.0,67.41
1133,7077888,70,-56,-1,-1,0,"(983, 471)","(982, 500)","(983, 529)","(988, 558)","(997, 588)","(1012, 615)","(1031, 640)","(1053, 662)","(1084, 669)","(1119, 666)","(1151, 650)","(1181, 630)","(1204, 603)","(1217, 571)","(1222, 535)","(1224, 499)","(1222, 463)","(983, 456)","(993, 440)","(1013, 437)","(1034, 442)","(1054, 451)","(1090, 449)","(1114, 438)","(1141, 434)","(1168, 439)","(1187, 456)","(1072, 467)","(1069, 490)","(1067, 514)","(1065, 537)","(1044, 542)","(1057, 550)","(1071, 556)","(1088, 549)","(1104, 543)","(1008, 467)","(1019, 461)","(1033, 461)","(1048, 470)","(1033, 471)","(1019, 471)","(1113, 469)","(1127, 460)","(1143, 460)","(1157, 466)","(1144, 471)","(1128, 471)","(1030, 569)","(1045, 569)","(1061, 571)","(1075, 574)","(1091, 571)","(1116, 571)","(1143, 572)","(1119, 593)","(1095, 602)","(1078, 602)","(1063, 600)","(1046, 591)","(1036, 572)","(1062, 575)","(1076, 578)","(1092, 576)","(1135, 574)","(1094, 590)","(1077, 591)","(1062, 588)",0.25,1.09,103.0,0.35,0.0,0.47,0.04,-10.5,0.13,0.34,59.7,64.9,94.7,48.8,48.25,89.0,68.35,54.41,60.05
1166,-458752,70,-56,-1,-1,0,"(1004, 464)","(1002, 492)","(1003, 519)","(1006, 547)","(1013, 576)","(1026, 604)","(1044, 628)","(1065, 649)","(1094, 656)","(1127, 653)","(1158, 638)","(1184, 618)","(1205, 592)","(1218, 562)","(1224, 529)","(1225, 496)","(1224, 463)","(1003, 451)","(1012, 437)","(1030, 434)","(1049, 438)","(1068, 449)","(1105, 448)","(1128, 437)","(1153, 434)","(1178, 439)","(1195, 455)","(1086, 466)","(1084, 489)","(1081, 511)","(1079, 534)","(1059, 538)","(1071, 545)","(1084, 551)","(1100, 545)","(1115, 540)","(1025, 465)","(1036, 459)","(1049, 460)","(1063, 467)","(1049, 470)","(1035, 469)","(1125, 468)","(1139, 460)","(1154, 461)","(1167, 467)","(1154, 471)","(1140, 471)","(1045, 563)","(1060, 564)","(1075, 565)","(1088, 569)","(1103, 566)","(1125, 565)","(1151, 566)","(1128, 586)","(1106, 594)","(1090, 594)","(1076, 592)","(1061, 583)","(1051, 565)","(1075, 570)","(1089, 572)","(1104, 571)","(1143, 568)","(1105, 582)","(1090, 584)","(1076, 581)",0.25,1.06,102.0,0.36,0.02,0.48,0.04,-11.0,0.13,0.35,59.6,64.0,95.6,52.9,52.2,93.0,56.29,47.41,57.29
1200,-1048576,70,-56,-1,-1,0,"(1017, 467)","(1015, 493)","(1017, 518)","(1022, 543)","(1029, 569)","(1043, 594)","(1060, 616)","(1080, 637)","(1108, 644)","(1139, 641)","(1169, 627)","(1195, 608)","(1216, 583)","(1229, 554)","(1234, 523)","(1236, 490)","(1235, 458)","(1016, 452)","(1026, 439)","(1044, 437)","(1063, 442)","(1081, 452)","(1117, 450)","(1139, 438)","(1163, 435)","(1187, 439)","(1205, 452)","(1099, 467)","(1098, 489)","(1096, 510)","(1094, 532)","(1074, 534)","(1086, 541)","(1099, 546)","(1114, 541)","(1129, 535)","(1039, 467)","(1050, 462)","(1063, 462)","(1077, 469)","(1063, 470)","(1050, 470)","(1137, 469)","(1150, 461)","(1164, 461)","(1178, 466)","(1165, 470)","(1151, 470)","(1060, 556)","(1076, 558)","(1090, 560)","(1103, 563)","(1117, 560)","(1139, 559)","(1164, 558)","(1141, 579)","(1120, 586)","(1105, 587)","(1091, 585)","(1076, 577)","(1066, 559)","(1091, 564)","(1103, 566)","(1118, 565)","(1157, 560)","(1119, 575)","(1104, 577)","(1091, 574)",0.22,1.04,102.0,0.36,0.01,0.47,0.04,-8.5,0.13,0.36,60.3,64.1,97.7,47.35,47.05,86.4,58.58,46.58,53.47
1233,-655360,70,-56,-1,-1,0,"(1024, 465)","(1021, 490)","(1021, 515)","(1023, 541)","(1032, 567)","(1048, 591)","(1067, 612)","(1090, 631)","(1117, 637)","(1146, 633)","(1174, 618)","(1199, 599)","(1218, 575)","(1230, 548)","(1234, 518)","(1235, 488)","(1234, 459)","(1031, 454)","(1041, 443)","(1058, 441)","(1077, 445)","(1094, 454)","(1127, 452)","(1148, 442)","(1170, 438)","(1191, 441)","(1207, 453)","(1112, 470)","(1111, 490)","(1110, 510)","(1109, 531)","(1088, 533)","(1099, 540)","(1112, 546)","(1126, 540)","(1139, 534)","(1053, 469)","(1064, 464)","(1076, 464)","(1089, 470)","(1076, 472)","(1064, 472)","(1145, 469)","(1157, 463)","(1171, 462)","(1182, 467)","(1172, 471)","(1159, 472)","(1070, 552)","(1086, 553)","(1101, 556)","(1114, 559)","(1128, 556)","(1149, 554)","(1172, 554)","(1151, 574)","(1130, 583)","(1115, 584)","(1102, 582)","(1086, 574)","(1076, 554)","(1102, 560)","(1115, 562)","(1128, 560)","(1165, 556)","(1129, 573)","(1115, 575)","(1102, 572)",0.24,1.0,101.0,0.34,0.0,0.48,0.04,-8.0,0.12,0.36,59.3,64.1,97.3,42.4,41.95,82.35,66.0,53.11,54.23
1266,-65536,70,-56,-1,-1,0,"(1043, 465)","(1043, 490)","(1046, 513)","(1050, 537)","(1058, 561)","(1072, 583)","(1089, 603)","(1108, 621)","(1133, 627)","(1160, 624)","(1185, 609)","(1206, 589)","(1223, 567)","(1233, 541)","(1237, 514)","(1239, 485)","(1238, 457)","(1044, 456)","(1054, 444)","(1071, 443)","(1089, 447)","(1105, 456)","(1135, 454)","(1154, 444)","(1176, 439)","(1198, 442)","(1214, 454)","(1121, 467)","(1120, 487)","(1118, 507)","(1117, 528)","(1099, 528)","(1109, 535)","(1122, 540)","(1135, 535)","(1148, 529)","(1066, 467)","(1075, 462)","(1087, 463)","(1099, 469)","(1087, 470)","(1075, 470)","(1153, 468)","(1165, 461)","(1177, 461)","(1189, 465)","(1179, 469)","(1166, 469)","(1086, 547)","(1100, 550)","(1114, 552)","(1126, 555)","(1139, 553)","(1158, 551)","(1180, 549)","(1161, 568)","(1142, 576)","(1128, 577)","(1115, 574)","(1101, 566)","(1092, 550)","(1114, 556)","(1126, 558)","(1139, 557)","(1174, 551)","(1140, 565)","(1127, 566)","(1115, 564)",0.22,1.01,101.0,0.35,0.0,0.48,0.04,-8.0,0.13,0.38,51.4,55.0,86.6,45.3,45.65,83.2,54.35,45.94,56.94
1300,786432,70,-56,-1,-1,0,"(1054, 458)","(1053, 482)","(1055, 505)","(1059, 527)","(1066, 551)","(1079, 572)","(1096, 592)","(1116, 608)","(1141, 614)","(1168, 610)","(1191, 596)","(1212, 578)","(1227, 557)","(1236, 532)","(1239, 505)","(1240, 478)","(1238, 452)","(1055, 449)","(1064, 438)","(1081, 437)","(1098, 441)","(1114, 450)","(1143, 448)","(1161, 439)","(1181, 434)","(1201, 436)","(1217, 447)","(1129, 461)","(1128, 481)","(1127, 500)","(1126, 520)","(1107, 521)","(1118, 527)","(1130, 532)","(1143, 526)","(1156, 521)","(1075, 460)","(1085, 456)","(1096, 456)","(1108, 462)","(1096, 463)","(1085, 463)","(1160, 461)","(1171, 455)","(1183, 455)","(1195, 458)","(1184, 462)","(1172, 463)","(1096, 539)","(1109, 541)","(1122, 542)","(1134, 545)","(1146, 543)","(1165, 540)","(1186, 539)","(1168, 556)","(1151, 564)","(1137, 566)","(1125, 564)","(1111, 556)","(1102, 541)","(1123, 547)","(1135, 548)","(1147, 547)","(1179, 541)","(1149, 554)","(1136, 556)","(1124, 554)",0.21,1.03,100.0,0.37,0.0,0.48,0.04,-7.0,0.14,0.38,52.1,57.3,88.2,46.8,45.45,82.5,56.64,45.23,54.05
1333,2293760,70,-56,-1,-1,0,"(1050, 451)","(1050, 475)","(1052, 499)","(1056, 522)","(1066, 545)","(1082, 564)","(1101, 581)","(1123, 595)","(1148, 599)","(1173, 594)","(1195, 581)","(1213, 564)","(1227, 544)","(1235, 521)","(1238, 496)","(1238, 471)","(1237, 446)","(1061, 440)","(1072, 430)","(1088, 429)","(1106, 433)","(1121, 441)","(1151, 440)","(1167, 431)","(1186, 427)","(1205, 429)","(1218, 439)","(1137, 451)","(1137, 470)","(1136, 489)","(1136, 508)","(1116, 509)","(1127, 515)","(1139, 520)","(1151, 515)","(1163, 509)","(1082, 451)","(1092, 447)","(1103, 447)","(1114, 452)","(1103, 454)","(1092, 453)","(1164, 452)","(1175, 446)","(1187, 445)","(1197, 449)","(1188, 452)","(1177, 453)","(1101, 526)","(1117, 528)","(1130, 530)","(1142, 532)","(1154, 530)","(1172, 528)","(1192, 526)","(1174, 544)","(1157, 550)","(1144, 551)","(1132, 550)","(1117, 543)","(1107, 528)","(1131, 533)","(1143, 535)","(1155, 533)","(1186, 528)","(1156, 542)","(1143, 543)","(1131, 541)",0.21,0.95,100.0,0.34,0.0,0.48,0.03,-6.5,0.13,0.38,48.1,53.7,83.6,42.35,41.95,79.5,61.23,49.29,53.76
1366,3866624,70,-56,-1,-1,0,"(1072, 439)","(1072, 461)","(1074, 482)","(1078, 503)","(1084, 525)","(1096, 545)","(1111, 564)","(1129, 579)","(1152, 585)","(1177, 581)","(1201, 568)","(1221, 551)","(1237, 531)","(1246, 507)","(1250, 482)","(1251, 457)","(1251, 431)","(1071, 431)","(1080, 421)","(1096, 420)","(1113, 424)","(1128, 433)","(1157, 431)","(1174, 422)","(1194, 418)","(1214, 420)","(1229, 430)","(1142, 443)","(1141, 462)","(1140, 480)","(1139, 498)","(1122, 499)","(1132, 505)","(1143, 509)","(1155, 504)","(1167, 499)","(1091, 442)","(1100, 438)","(1111, 438)","(1123, 444)","(1111, 445)","(1100, 445)","(1173, 443)","(1184, 437)","(1196, 437)","(1207, 441)","(1197, 445)","(1185, 445)","(1111, 516)","(1124, 518)","(1136, 519)","(1146, 522)","(1157, 520)","(1174, 518)","(1195, 516)","(1177, 532)","(1161, 539)","(1148, 540)","(1137, 538)","(1125, 532)","(1117, 518)","(1136, 524)","(1147, 525)","(1158, 524)","(1188, 518)","(1159, 530)","(1148, 531)","(1137, 529)",0.23,1.02,100.0,0.36,0.01,0.46,0.03,-7.5,0.13,0.38,47.5,52.2,82.7,42.3,41.15,78.5,52.29,41.23,49.17
1400,1376256,70,-56,-1,-1,0,"(1078, 433)","(1079, 454)","(1081, 475)","(1085, 496)","(1092, 517)","(1103, 537)","(1118, 555)","(1136, 571)","(1159, 575)","(1183, 571)","(1205, 557)","(1222, 540)","(1236, 520)","(1243, 498)","(1246, 475)","(1246, 451)","(1244, 427)","(1080, 426)","(1088, 416)","(1103, 414)","(1119, 418)","(1133, 426)","(1160, 424)","(1176, 415)","(1194, 411)","(1213, 413)","(1227, 423)","(1147, 435)","(1146, 453)","(1146, 470)","(1145, 489)","(1128, 489)","(1137, 495)","(1149, 500)","(1161, 494)","(1172, 489)","(1098, 434)","(1107, 430)","(1117, 431)","(1128, 436)","(1117, 437)","(1107, 437)","(1175, 435)","(1185, 429)","(1196, 428)","(1207, 432)","(1197, 435)","(1186, 436)","(1117, 506)","(1129, 508)","(1141, 510)","(1152, 512)","(1164, 510)","(1180, 507)","(1199, 505)","(1183, 521)","(1167, 528)","(1155, 530)","(1144, 528)","(1131, 522)","(1122, 509)","(1142, 514)","(1153, 516)","(1164, 514)","(1193, 508)","(1166, 519)","(1154, 520)","(1143, 519)",0.22,1.0,100.0,0.37,-0.0,0.49,0.03,-6.5,0.15,0.38,43.3,47.0,76.5,38.5,38.0,73.5,47.64,39.94,49.47
1433,-720896,70,-56,-1,-1,0,"(1078, 429)","(1079, 451)","(1080, 472)","(1084, 493)","(1092, 513)","(1106, 531)","(1123, 547)","(1141, 560)","(1164, 564)","(1187, 559)","(1208, 546)","(1226, 531)","(1240, 512)","(1248, 490)","(1252, 467)","(1253, 444)","(1254, 420)","(1084, 419)","(1094, 410)","(1109, 409)","(1125, 412)","(1140, 420)","(1164, 418)","(1180, 410)","(1199, 406)","(1218, 408)","(1231, 418)","(1153, 430)","(1152, 447)","(1152, 464)","(1151, 481)","(1133, 482)","(1143, 488)","(1154, 493)","(1166, 488)","(1177, 482)","(1103, 429)","(1112, 425)","(1122, 425)","(1132, 430)","(1122, 432)","(1112, 432)","(1180, 429)","(1190, 423)","(1201, 423)","(1211, 426)","(1202, 430)","(1191, 430)","(1122, 500)","(1135, 501)","(1147, 502)","(1157, 504)","(1167, 502)","(1183, 500)","(1202, 498)","(1185, 513)","(1170, 519)","(1159, 520)","(1149, 519)","(1136, 514)","(1127, 502)","(1147, 506)","(1157, 507)","(1168, 506)","(1196, 500)","(1169, 511)","(1158, 512)","(1148, 511)",0.22,0.98,99.0,0.34,0.0,0.45,0.02,-7.0,0.13,0.38,47.6,52.3,80.2,35.65,35.05,72.5,53.05,39.35,43.11
1466,-1048576,70,-56,-1,-1,0,"(1086, 431)","(1084, 452)","(1085, 473)","(1088, 493)","(1097, 514)","(1111, 532)","(1128, 547)","(1146, 559)","(1167, 564)","(1189, 558)","(1209, 545)","(1226, 528)","(1239, 508)","(1248, 486)","(1251, 463)","(1252, 440)","(1251, 417)","(1090, 415)","(1099, 407)","(1113, 406)","(1128, 409)","(1141, 416)","(1171, 415)","(1186, 407)","(1202, 402)","(1219, 403)","(1232, 410)","(1158, 427)","(1158, 444)","(1158, 460)","(1158, 477)","(1141, 480)","(1150, 486)","(1160, 489)","(1171, 485)","(1180, 479)","(1109, 427)","(1117, 423)","(1127, 423)","(1138, 428)","(1127, 429)","(1117, 429)","(1183, 426)","(1194, 419)","(1204, 419)","(1213, 422)","(1205, 425)","(1195, 426)","(1127, 497)","(1140, 497)","(1152, 499)","(1162, 500)","(1172, 498)","(1187, 495)","(1205, 493)","(1190, 510)","(1175, 517)","(1164, 519)","(1154, 518)","(1141, 512)","(1132, 498)","(1153, 502)","(1162, 503)","(1173, 501)","(1200, 495)","(1174, 510)","(1163, 512)","(1153, 511)",0.21,0.96,99.0,0.35,-0.03,0.47,0.03,-6.0,0.13,0.36,47.0,51.1,81.3,33.1,33.45,66.3,56.0,44.41,50.58
1500,-983040,70,-56,-1,-1,0,"(1092, 427)","(1093, 447)","(1095, 467)","(1099, 487)","(1106, 507)","(1119, 525)","(1135, 540)","(1154, 552)","(1176, 554)","(1199, 549)","(1217, 537)","(1231, 521)","(1241, 502)","(1246, 480)","(1247, 459)","(1246, 437)","(1244, 416)","(1096, 418)","(1105, 408)","(1120, 407)","(1135, 410)","(1148, 417)","(1172, 415)","(1186, 407)","(1202, 402)","(1219, 403)","(1230, 411)","(1162, 425)","(1163, 441)","(1163, 458)","(1164, 475)","(1146, 477)","(1156, 482)","(1166, 485)","(1177, 480)","(1187, 475)","(1115, 426)","(1123, 423)","(1132, 422)","(1142, 426)","(1133, 428)","(1123, 429)","(1186, 424)","(1195, 419)","(1205, 418)","(1214, 420)","(1206, 424)","(1197, 424)","(1136, 495)","(1148, 496)","(1159, 497)","(1169, 499)","(1179, 496)","(1193, 494)","(1210, 492)","(1196, 505)","(1183, 510)","(1172, 512)","(1162, 511)","(1150, 507)","(1141, 497)","(1160, 501)","(1169, 502)","(1180, 500)","(1204, 494)","(1181, 502)","(1171, 504)","(1161, 503)",0.2,0.96,99.0,0.36,-0.04,0.48,0.02,-5.0,0.16,0.38,37.2,42.6,71.4,31.3,29.8,67.55,47.0,38.82,46.11
1533,-851968,70,-56,-1,-1,0,"(1098, 422)","(1098, 441)","(1100, 461)","(1104, 480)","(1112, 500)","(1123, 518)","(1138, 534)","(1156, 548)","(1177, 551)","(1199, 548)","(1218, 535)","(1234, 520)","(1246, 501)","(1252, 480)","(1255, 458)","(1255, 436)","(1254, 414)","(1101, 417)","(1110, 408)","(1124, 407)","(1139, 411)","(1153, 417)","(1178, 416)","(1192, 408)","(1209, 403)","(1226, 403)","(1238, 412)","(1166, 426)","(1166, 443)","(1166, 459)","(1166, 476)","(1149, 477)","(1159, 482)","(1169, 486)","(1180, 481)","(1190, 476)","(1119, 426)","(1127, 422)","(1137, 422)","(1147, 427)","(1137, 429)","(1127, 429)","(1192, 425)","(1201, 419)","(1211, 418)","(1221, 421)","(1213, 425)","(1202, 426)","(1141, 495)","(1152, 496)","(1163, 497)","(1172, 499)","(1181, 496)","(1195, 494)","(1211, 493)","(1198, 505)","(1185, 510)","(1175, 511)","(1165, 511)","(1154, 507)","(1146, 497)","(1163, 501)","(1172, 502)","(1182, 500)","(1206, 494)","(1183, 501)","(1174, 503)","(1164, 502)",0.24,0.98,99.0,0.36,-0.03,0.44,0.01,-6.5,0.15,0.4,38.7,43.6,70.8,28.5,26.8,64.8,55.64,43.52,51.82
1566,-786432,70,-56,-1,-1,0,"(1096, 423)","(1097, 444)","(1098, 464)","(1102, 484)","(1110, 504)","(1122, 523)","(1138, 540)","(1156, 554)","(1177, 558)","(1198, 553)","(1218, 539)","(1235, 521)","(1248, 500)","(1256, 478)","(1259, 455)","(1260, 432)","(1259, 409)","(1103, 419)","(1112, 411)","(1125, 410)","(1140, 413)","(1154, 420)","(1180, 417)","(1194, 409)","(1211, 404)","(1227, 404)","(1239, 412)","(1168, 430)","(1169, 446)","(1169, 462)","(1169, 478)","(1153, 479)","(1162, 485)","(1171, 488)","(1182, 484)","(1191, 478)","(1122, 429)","(1130, 426)","(1139, 425)","(1149, 429)","(1140, 431)","(1130, 432)","(1192, 426)","(1201, 421)","(1211, 420)","(1220, 423)","(1212, 426)","(1203, 427)","(1142, 496)","(1154, 497)","(1164, 498)","(1173, 500)","(1182, 498)","(1194, 495)","(1210, 493)","(1196, 508)","(1184, 515)","(1174, 516)","(1165, 515)","(1154, 510)","(1147, 497)","(1165, 501)","(1173, 502)","(1182, 500)","(1204, 494)","(1183, 508)","(1174, 509)","(1165, 508)",0.22,0.92,99.0,0.33,-0.03,0.41,0.03,-5.0,0.14,0.37,45.7,50.2,80.2,26.55,26.2,57.2,65.88,49.41,51.82
1600,-983040,70,-56,-1,-1,0,"(1104, 431)","(1104, 450)","(1106, 468)","(1110, 487)","(1117, 505)","(1128, 522)","(1142, 537)","(1160, 550)","(1180, 552)","(1201, 548)","(1219, 536)","(1234, 520)","(1244, 502)","(1251, 483)","(1252, 462)","(1252, 441)","(1250, 421)","(1108, 427)","(1116, 418)","(1129, 417)","(1143, 420)","(1156, 426)","(1180, 424)","(1193, 416)","(1208, 412)","(1223, 412)","(1234, 419)","(1169, 434)","(1170, 450)","(1170, 466)","(1171, 482)","(1155, 483)","(1163, 488)","(1173, 491)","(1183, 486)","(1192, 481)","(1125, 434)","(1132, 431)","(1142, 431)","(1151, 434)","(1142, 436)","(1133, 437)","(1192, 432)","(1201, 427)","(1210, 426)","(1218, 428)","(1211, 432)","(1202, 432)","(1145, 499)","(1157, 500)","(1167, 501)","(1175, 503)","(1184, 501)","(1197, 498)","(1212, 495)","(1199, 507)","(1188, 512)","(1178, 514)","(1168, 513)","(1158, 509)","(1150, 500)","(1167, 504)","(1176, 505)","(1185, 504)","(1207, 497)","(1186, 505)","(1177, 506)","(1168, 506)",0.21,0.94,100.0,0.35,-0.05,0.45,0.02,-5.0,0.15,0.4,36.3,39.0,64.6,26.6,24.3,62.8,49.88,38.7,45.82
1633,-1114112,70,-56,-1,-1,0,"(1106, 437)","(1106, 456)","(1108, 474)","(1112, 492)","(1119, 510)","(1131, 526)","(1145, 541)","(1164, 553)","(1184, 555)","(1205, 551)","(1222, 538)","(1236, 522)","(1246, 503)","(1252, 483)","(1253, 463)","(1251, 443)","(1248, 422)","(1108, 432)","(1115, 424)","(1128, 423)","(1142, 426)","(1155, 431)","(1182, 429)","(1195, 422)","(1209, 417)","(1224, 417)","(1235, 423)","(1170, 441)","(1171, 456)","(1172, 471)","(1173, 486)","(1157, 488)","(1166, 492)","(1175, 495)","(1185, 491)","(1194, 485)","(1125, 441)","(1133, 437)","(1142, 437)","(1152, 441)","(1143, 443)","(1133, 444)","(1193, 438)","(1202, 432)","(1211, 431)","(1220, 433)","(1213, 437)","(1203, 438)","(1148, 504)","(1159, 505)","(1169, 505)","(1178, 507)","(1186, 504)","(1199, 502)","(1214, 499)","(1202, 512)","(1190, 518)","(1181, 519)","(1171, 519)","(1161, 515)","(1153, 505)","(1170, 509)","(1178, 510)","(1187, 508)","(1209, 501)","(1188, 510)","(1179, 511)","(1170, 510)",0.22,0.96,100.0,0.38,-0.06,0.46,0.02,-5.5,0.16,0.39,38.7,42.6,70.0,25.85,24.85,60.8,52.05,38.52,41.29
1666,-983040,70,-56,-1,-1,0,"(1104, 445)","(1105, 463)","(1108, 481)","(1111, 499)","(1119, 517)","(1130, 534)","(1145, 548)","(1162, 558)","(1182, 559)","(1202, 555)","(1219, 543)","(1233, 528)","(1243, 511)","(1249, 492)","(1250, 472)","(1250, 453)","(1248, 432)","(1108, 441)","(1117, 433)","(1130, 432)","(1145, 436)","(1158, 442)","(1180, 440)","(1193, 432)","(1207, 427)","(1222, 426)","(1234, 432)","(1170, 448)","(1171, 463)","(1172, 479)","(1173, 495)","(1156, 495)","(1165, 500)","(1174, 503)","(1184, 498)","(1193, 493)","(1125, 448)","(1133, 445)","(1142, 445)","(1152, 448)","(1142, 450)","(1133, 451)","(1192, 445)","(1201, 440)","(1210, 439)","(1218, 441)","(1211, 444)","(1202, 445)","(1146, 509)","(1158, 511)","(1168, 512)","(1177, 514)","(1185, 511)","(1197, 508)","(1212, 505)","(1199, 518)","(1188, 523)","(1178, 525)","(1169, 524)","(1158, 520)","(1150, 511)","(1168, 515)","(1177, 516)","(1186, 514)","(1207, 507)","(1187, 516)","(1177, 517)","(1169, 517)",0.19,0.91,100.0,0.36,-0.06,0.45,0.02,-4.5,0.15,0.42,32.7,36.6,60.9,25.6,23.9,61.15,56.0,37.47,35.7
1700,-851968,70,-56,-1,-1,0,"(1104, 451)","(1105, 469)","(1107, 486)","(1110, 503)","(1117, 521)","(1128, 537)","(1143, 551)","(1160, 562)","(1180, 563)","(1200, 559)","(1217, 547)","(1230, 532)","(1240, 515)","(1246, 496)","(1247, 477)","(1246, 458)","(1243, 439)","(1108, 447)","(1116, 439)","(1130, 438)","(1143, 442)","(1156, 448)","(1181, 446)","(1193, 439)","(1207, 434)","(1221, 433)","(1232, 438)","(1170, 457)","(1171, 472)","(1172, 487)","(1173, 502)","(1156, 502)","(1165, 507)","(1174, 510)","(1184, 505)","(1193, 500)","(1125, 456)","(1132, 453)","(1141, 452)","(1151, 456)","(1142, 458)","(1132, 459)","(1191, 453)","(1200, 448)","(1209, 447)","(1217, 449)","(1210, 452)","(1201, 453)","(1146, 515)","(1158, 517)","(1168, 518)","(1176, 520)","(1185, 518)","(1197, 515)","(1211, 511)","(1199, 524)","(1187, 530)","(1178, 531)","(1169, 531)","(1158, 527)","(1150, 517)","(1169, 521)","(1177, 522)","(1186, 521)","(1207, 513)","(1186, 523)","(1177, 524)","(1168, 523)",0.19,0.9,100.0,0.37,-0.06,0.46,0.02,-4.5,0.16,0.42,35.4,39.4,67.2,24.65,23.7,58.95,60.76,42.94,41.58
1733,-851968,70,-56,-1,-1,0,"(1103, 455)","(1104, 473)","(1107, 490)","(1110, 507)","(1117, 524)","(1128, 540)","(1142, 555)","(1159, 565)","(1179, 567)","(1200, 563)","(1217, 550)","(1230, 535)","(1239, 517)","(1244, 498)","(1245, 480)","(1243, 461)","(1241, 442)","(1107, 450)","(1114, 442)","(1127, 441)","(1140, 444)","(1152, 450)","(1180, 448)","(1192, 441)","(1205, 436)","(1219, 435)","(1229, 441)","(1168, 461)","(1169, 475)","(1170, 490)","(1171, 504)","(1155, 505)","(1164, 509)","(1173, 512)","(1182, 508)","(1190, 502)","(1123, 461)","(1130, 457)","(1139, 457)","(1149, 461)","(1140, 463)","(1131, 464)","(1189, 457)","(1197, 452)","(1206, 451)","(1215, 453)","(1208, 457)","(1199, 458)","(1147, 521)","(1158, 521)","(1167, 522)","(1175, 523)","(1183, 521)","(1194, 519)","(1206, 517)","(1196, 529)","(1185, 534)","(1177, 535)","(1168, 535)","(1158, 531)","(1151, 522)","(1168, 526)","(1176, 526)","(1183, 525)","(1201, 519)","(1184, 526)","(1176, 528)","(1168, 527)",0.24,0.9,99.0,0.37,-0.07,0.42,0.02,-5.5,0.15,0.4,45.6,51.2,82.4,27.55,24.4,60.8,56.29,39.47,40.7
1766,-262144,70,-56,-1,-1,0,"(1099, 457)","(1101, 476)","(1104, 494)","(1108, 511)","(1115, 529)","(1126, 545)","(1141, 558)","(1159, 569)","(1179, 571)","(1199, 567)","(1216, 555)","(1230, 540)","(1240, 522)","(1245, 502)","(1246, 482)","(1245, 462)","(1243, 442)","(1104, 457)","(1113, 449)","(1127, 448)","(1141, 451)","(1155, 457)","(1175, 454)","(1188, 446)","(1202, 441)","(1217, 440)","(1229, 446)","(1165, 462)","(1167, 478)","(1168, 493)","(1169, 509)","(1152, 509)","(1161, 514)","(1171, 517)","(1181, 512)","(1190, 506)","(1122, 464)","(1129, 461)","(1138, 461)","(1147, 463)","(1138, 465)","(1130, 466)","(1188, 459)","(1196, 455)","(1204, 454)","(1213, 455)","(1206, 458)","(1197, 459)","(1144, 522)","(1155, 525)","(1165, 526)","(1173, 527)","(1182, 525)","(1193, 521)","(1208, 517)","(1196, 529)","(1185, 535)","(1176, 536)","(1167, 536)","(1157, 533)","(1148, 524)","(1165, 528)","(1174, 529)","(1183, 527)","(1204, 519)","(1184, 528)","(1175, 529)","(1166, 529)",0.16,0.92,99.0,0.34,-0.07,0.44,0.01,-3.5,0.17,0.43,32.3,36.0,61.1,24.25,21.45,55.4,59.05,37.58,33.05
1800,-917504,70,-56,-1,-1,0,"(1098, 462)","(1100, 480)","(1104, 498)","(1109, 515)","(1117, 532)","(1129, 548)","(1143, 561)","(1161, 571)","(1180, 573)","(1200, 568)","(1217, 555)","(1230, 539)","(1240, 521)","(1245, 501)","(1246, 482)","(1244, 462)","(1242, 442)","(1103, 459)","(1111, 452)","(1124, 451)","(1138, 454)","(1151, 459)","(1172, 455)","(1185, 447)","(1199, 442)","(1214, 441)","(1226, 446)","(1163, 465)","(1165, 480)","(1166, 495)","(1167, 511)","(1150, 511)","(1159, 516)","(1169, 519)","(1180, 514)","(1188, 508)","(1120, 468)","(1128, 465)","(1136, 464)","(1146, 466)","(1137, 468)","(1128, 469)","(1185, 462)","(1194, 458)","(1202, 457)","(1211, 457)","(1203, 460)","(1195, 461)","(1143, 525)","(1154, 527)","(1164, 527)","(1172, 529)","(1181, 526)","(1193, 522)","(1207, 518)","(1196, 532)","(1185, 538)","(1175, 540)","(1166, 540)","(1156, 536)","(1147, 526)","(1164, 530)","(1173, 531)","(1182, 529)","(1202, 520)","(1183, 530)","(1174, 532)","(1165, 532)",0.11,0.95,99.0,0.36,-0.08,0.44,0.02,-2.5,0.17,0.42,33.9,36.6,64.2,23.8,23.65,56.4,53.17,36.35,34.35
1833,-786432,70,-56,-1,-1,0,"(1089, 470)","(1091, 490)","(1095, 509)","(1101, 528)","(1111, 545)","(1126, 561)","(1144, 574)","(1163, 582)","(1183, 582)","(1201, 575)","(1214, 560)","(1225, 543)","(1232, 524)","(1235, 505)","(1234, 486)","(1232, 467)","(1227, 448)","(1100, 469)","(1109, 460)","(1122, 457)","(1136, 459)","(1150, 464)","(1169, 460)","(1181, 451)","(1194, 445)","(1208, 443)","(1218, 449)","(1163, 470)","(1165, 485)","(1168, 500)","(1171, 514)","(1153, 517)","(1162, 521)","(1172, 523)","(1181, 518)","(1189, 512)","(1119, 476)","(1126, 473)","(1134, 471)","(1144, 473)","(1136, 475)","(1127, 477)","(1181, 466)","(1189, 461)","(1196, 460)","(1204, 460)","(1198, 463)","(1190, 465)","(1142, 532)","(1155, 533)","(1165, 533)","(1174, 533)","(1182, 530)","(1193, 526)","(1206, 521)","(1197, 536)","(1187, 544)","(1178, 546)","(1169, 547)","(1157, 544)","(1147, 533)","(1166, 535)","(1175, 535)","(1183, 532)","(1202, 523)","(1185, 537)","(1177, 540)","(1168, 541)",0.16,0.87,99.0,0.35,-0.15,0.46,0.03,-2.0,0.18,0.39,33.5,36.4,65.4,24.3,24.75,58.75,73.41,49.58,43.94
1866,-458752,70,-56,-1,-1,0,"(1099, 474)","(1103, 493)","(1108, 511)","(1114, 528)","(1123, 544)","(1137, 557)","(1153, 569)","(1172, 577)","(1192, 576)","(1210, 569)","(1224, 555)","(1235, 538)","(1242, 520)","(1245, 500)","(1243, 481)","(1239, 462)","(1235, 443)","(1104, 475)","(1112, 466)","(1125, 463)","(1140, 464)","(1154, 468)","(1178, 462)","(1189, 453)","(1202, 447)","(1216, 444)","(1226, 449)","(1169, 475)","(1172, 489)","(1175, 504)","(1178, 519)","(1161, 520)","(1170, 524)","(1180, 526)","(1189, 520)","(1197, 513)","(1124, 482)","(1131, 480)","(1140, 477)","(1150, 478)","(1141, 481)","(1133, 483)","(1188, 469)","(1196, 465)","(1205, 463)","(1214, 462)","(1207, 466)","(1198, 469)","(1152, 534)","(1164, 535)","(1174, 535)","(1182, 535)","(1190, 532)","(1200, 527)","(1212, 522)","(1203, 536)","(1195, 542)","(1186, 545)","(1178, 546)","(1166, 544)","(1157, 535)","(1175, 537)","(1183, 537)","(1191, 534)","(1208, 524)","(1193, 535)","(1184, 538)","(1176, 539)",0.14,0.86,99.0,0.38,-0.2,0.44,0.02,-1.0,0.2,0.43,34.3,37.4,66.0,23.0,21.75,57.9,47.7,35.47,36.82
1900,-589824,70,-56,-1,-1,0,"(1101, 474)","(1106, 493)","(1111, 512)","(1118, 530)","(1130, 546)","(1145, 560)","(1163, 570)","(1182, 578)","(1201, 577)","(1218, 569)","(1230, 553)","(1239, 535)","(1245, 516)","(1247, 497)","(1246, 479)","(1242, 460)","(1238, 441)","(1111, 475)","(1119, 466)","(1133, 463)","(1147, 464)","(1162, 467)","(1183, 460)","(1194, 451)","(1206, 444)","(1219, 441)","(1229, 445)","(1176, 474)","(1180, 488)","(1183, 502)","(1187, 516)","(1169, 520)","(1179, 522)","(1188, 524)","(1197, 518)","(1204, 511)","(1131, 483)","(1138, 480)","(1147, 478)","(1157, 478)","(1148, 482)","(1140, 484)","(1194, 467)","(1202, 464)","(1210, 461)","(1218, 459)","(1212, 464)","(1204, 467)","(1158, 534)","(1171, 534)","(1181, 533)","(1190, 533)","(1197, 529)","(1207, 525)","(1219, 519)","(1212, 534)","(1203, 542)","(1195, 546)","(1186, 547)","(1174, 545)","(1163, 535)","(1183, 536)","(1191, 535)","(1198, 532)","(1215, 522)","(1201, 536)","(1193, 539)","(1184, 540)",0.14,0.85,99.0,0.36,-0.23,0.44,0.03,-1.0,0.2,0.4,36.7,40.2,67.7,23.55,22.65,56.8,54.88,38.64,42.52
1933,2097152,70,-56,-1,-1,0,"(1099, 473)","(1104, 493)","(1111, 512)","(1119, 530)","(1132, 545)","(1149, 557)","(1168, 566)","(1188, 572)","(1207, 570)","(1223, 560)","(1232, 544)","(1240, 526)","(1245, 508)","(1246, 489)","(1244, 471)","(1241, 454)","(1236, 437)","(1112, 474)","(1121, 465)","(1135, 461)","(1150, 461)","(1165, 463)","(1186, 456)","(1195, 447)","(1207, 439)","(1219, 434)","(1229, 437)","(1180, 468)","(1184, 483)","(1189, 497)","(1194, 511)","(1175, 515)","(1185, 518)","(1195, 519)","(1202, 513)","(1208, 506)","(1132, 480)","(1140, 477)","(1148, 475)","(1158, 473)","(1150, 478)","(1142, 481)","(1196, 462)","(1203, 457)","(1210, 454)","(1218, 452)","(1213, 457)","(1205, 460)","(1165, 531)","(1177, 530)","(1187, 529)","(1196, 528)","(1202, 524)","(1211, 519)","(1221, 513)","(1215, 528)","(1209, 535)","(1201, 539)","(1193, 540)","(1180, 539)","(1169, 531)","(1189, 531)","(1197, 530)","(1204, 526)","(1217, 517)","(1206, 528)","(1199, 532)","(1191, 533)",0.16,0.82,99.0,0.36,-0.3,0.4,0.02,-0.5,0.2,0.42,31.7,35.9,63.8,23.0,21.2,57.15,51.64,41.23,49.47
1966,-917504,70,-56,-1,-1,0,"(1103, 474)","(1109, 494)","(1117, 513)","(1126, 531)","(1141, 547)","(1160, 560)","(1181, 570)","(1202, 577)","(1223, 575)","(1240, 563)","(1252, 545)","(1261, 525)","(1267, 504)","(1268, 483)","(1264, 463)","(1257, 443)","(1248, 425)","(1117, 470)","(1125, 462)","(1139, 458)","(1154, 457)","(1169, 459)","(1190, 451)","(1199, 441)","(1211, 432)","(1223, 427)","(1235, 428)","(1184, 463)","(1189, 477)","(1194, 491)","(1199, 505)","(1181, 511)","(1191, 513)","(1202, 514)","(1210, 507)","(1217, 499)","(1137, 476)","(1145, 472)","(1153, 469)","(1164, 468)","(1155, 472)","(1147, 475)","(1202, 454)","(1208, 449)","(1216, 445)","(1225, 443)","(1219, 448)","(1211, 452)","(1167, 527)","(1181, 524)","(1195, 522)","(1205, 521)","(1213, 516)","(1225, 510)","(1237, 503)","(1232, 524)","(1222, 536)","(1213, 541)","(1203, 543)","(1187, 540)","(1172, 527)","(1196, 524)","(1206, 523)","(1215, 518)","(1234, 507)","(1219, 530)","(1210, 534)","(1200, 536)",0.16,0.84,99.0,0.35,-0.33,0.48,0.05,0.5,0.22,0.37,28.0,31.3,60.0,26.0,27.85,55.4,76.47,56.41,50.52
2000,-393216,70,-56,-1,-1,0,"(1108, 468)","(1114, 489)","(1121, 508)","(1131, 526)","(1145, 542)","(1164, 555)","(1184, 566)","(1205, 573)","(1225, 570)","(1242, 559)","(1253, 539)","(1261, 517)","(1266, 495)","(1267, 473)","(1263, 453)","(1255, 433)","(1246, 414)","(1120, 464)","(1128, 456)","(1141, 451)","(1156, 450)","(1171, 452)","(1193, 443)","(1201, 432)","(1212, 422)","(1225, 416)","(1236, 417)","(1187, 458)","(1193, 472)","(1198, 486)","(1203, 500)","(1186, 506)","(1196, 508)","(1207, 509)","(1214, 502)","(1221, 494)","(1141, 472)","(1148, 468)","(1157, 464)","(1168, 463)","(1160, 468)","(1151, 472)","(1204, 448)","(1210, 443)","(1218, 439)","(1227, 436)","(1221, 442)","(1213, 446)","(1175, 523)","(1188, 520)","(1200, 518)","(1209, 517)","(1217, 513)","(1228, 506)","(1239, 501)","(1234, 522)","(1226, 534)","(1218, 539)","(1208, 540)","(1192, 537)","(1180, 523)","(1202, 521)","(1211, 519)","(1219, 515)","(1235, 505)","(1222, 527)","(1214, 531)","(1204, 533)",0.16,0.85,99.0,0.36,-0.37,0.46,0.06,0.5,0.24,0.37,41.3,46.8,80.0,26.55,26.9,57.55,74.41,57.76,55.88
2033,-655360,70,-56,-1,-1,0,"(1101, 467)","(1108, 489)","(1116, 509)","(1127, 529)","(1143, 545)","(1164, 557)","(1187, 566)","(1210, 572)","(1232, 568)","(1249, 555)","(1258, 534)","(1264, 511)","(1268, 489)","(1267, 467)","(1262, 447)","(1254, 428)","(1245, 410)","(1120, 464)","(1130, 454)","(1144, 448)","(1161, 446)","(1178, 447)","(1197, 438)","(1205, 427)","(1215, 417)","(1227, 410)","(1237, 412)","(1193, 452)","(1199, 466)","(1206, 481)","(1213, 495)","(1193, 503)","(1204, 504)","(1215, 505)","(1222, 498)","(1228, 490)","(1143, 469)","(1151, 464)","(1159, 460)","(1171, 459)","(1162, 465)","(1153, 469)","(1207, 443)","(1213, 436)","(1221, 432)","(1229, 430)","(1224, 436)","(1217, 441)","(1179, 522)","(1194, 519)","(1207, 516)","(1217, 515)","(1223, 510)","(1233, 504)","(1243, 497)","(1239, 518)","(1232, 529)","(1224, 534)","(1214, 536)","(1198, 534)","(1184, 521)","(1209, 519)","(1218, 517)","(1226, 513)","(1240, 501)","(1228, 521)","(1220, 526)","(1211, 529)",0.22,0.76,100.0,0.35,-0.41,0.44,0.05,-0.5,0.24,0.37,38.0,44.4,77.8,28.2,27.5,59.9,71.47,53.88,48.94
2066,0,70,-56,-1,-1,0,"(1101, 470)","(1109, 491)","(1117, 512)","(1128, 532)","(1146, 548)","(1168, 559)","(1192, 567)","(1216, 570)","(1236, 565)","(1252, 553)","(1261, 533)","(1267, 511)","(1270, 489)","(1269, 467)","(1264, 448)","(1255, 430)","(1245, 413)","(1124, 463)","(1134, 452)","(1148, 445)","(1165, 442)","(1182, 443)","(1200, 434)","(1208, 423)","(1218, 413)","(1229, 407)","(1239, 409)","(1197, 448)","(1204, 462)","(1211, 475)","(1218, 489)","(1198, 499)","(1209, 500)","(1219, 500)","(1227, 494)","(1232, 485)","(1147, 467)","(1154, 462)","(1163, 457)","(1174, 456)","(1166, 462)","(1158, 466)","(1210, 440)","(1216, 433)","(1223, 428)","(1232, 426)","(1227, 432)","(1220, 436)","(1183, 520)","(1198, 515)","(1211, 512)","(1221, 511)","(1228, 506)","(1237, 500)","(1247, 495)","(1243, 513)","(1236, 524)","(1228, 530)","(1218, 532)","(1202, 531)","(1187, 519)","(1213, 515)","(1223, 513)","(1230, 509)","(1244, 498)","(1232, 517)","(1224, 523)","(1215, 525)",0.2,0.73,100.0,0.35,-0.43,0.44,0.05,0.5,0.24,0.35,37.4,41.9,72.9,28.95,28.0,59.65,70.64,53.94,49.94
2100,65536,70,-56,-1,-1,0,"(1099, 472)","(1107, 493)","(1116, 514)","(1128, 532)","(1147, 548)","(1171, 558)","(1196, 564)","(1220, 566)","(1240, 560)","(1255, 546)","(1262, 526)","(1268, 505)","(1271, 484)","(1269, 464)","(1264, 445)","(1255, 428)","(1244, 412)","(1122, 464)","(1132, 453)","(1147, 445)","(1165, 441)","(1182, 441)","(1201, 431)","(1208, 420)","(1218, 410)","(1229, 404)","(1239, 405)","(1198, 448)","(1205, 460)","(1213, 473)","(1221, 487)","(1201, 497)","(1211, 498)","(1222, 497)","(1229, 491)","(1234, 482)","(1146, 468)","(1153, 463)","(1162, 458)","(1173, 456)","(1165, 461)","(1157, 466)","(1211, 438)","(1216, 432)","(1223, 427)","(1232, 424)","(1227, 429)","(1220, 434)","(1186, 518)","(1201, 512)","(1215, 507)","(1224, 505)","(1231, 500)","(1240, 495)","(1248, 490)","(1245, 508)","(1239, 519)","(1231, 525)","(1222, 528)","(1205, 527)","(1191, 517)","(1217, 511)","(1226, 508)","(1233, 504)","(1245, 493)","(1235, 512)","(1228, 517)","(1218, 521)",0.17,0.68,100.0,0.34,-0.46,0.42,0.04,2.5,0.24,0.34,38.6,43.9,75.9,32.9,31.1,58.25,65.47,52.76,51.17
2133,1769472,70,-56,-1,-1,0,"(1095, 476)","(1104, 497)","(1113, 518)","(1126, 537)","(1145, 553)","(1169, 564)","(1194, 571)","(1220, 573)","(1241, 567)","(1257, 553)","(1265, 531)","(1271, 509)","(1274, 486)","(1272, 464)","(1266, 444)","(1257, 425)","(1245, 408)","(1118, 466)","(1128, 454)","(1144, 445)","(1162, 440)","(1180, 441)","(1200, 430)","(1208, 418)","(1218, 408)","(1230, 401)","(1240, 403)","(1197, 446)","(1205, 459)","(1212, 473)","(1220, 487)","(1200, 499)","(1211, 499)","(1222, 499)","(1229, 492)","(1235, 484)","(1143, 469)","(1151, 463)","(1160, 457)","(1172, 455)","(1164, 462)","(1155, 467)","(1211, 436)","(1217, 428)","(1224, 423)","(1233, 421)","(1228, 427)","(1221, 432)","(1186, 523)","(1200, 517)","(1214, 512)","(1224, 510)","(1230, 505)","(1239, 499)","(1248, 495)","(1245, 512)","(1239, 523)","(1231, 529)","(1221, 532)","(1205, 532)","(1190, 521)","(1216, 515)","(1226, 513)","(1233, 508)","(1245, 498)","(1234, 516)","(1227, 521)","(1217, 524)",0.21,0.71,100.0,0.35,-0.46,0.41,0.04,1.0,0.25,0.33,39.9,43.8,73.9,36.15,30.9,56.85,71.29,57.0,54.76
2166,3080192,70,-56,-1,-1,0,"(1082, 471)","(1091, 494)","(1100, 517)","(1113, 538)","(1132, 555)","(1156, 566)","(1182, 573)","(1208, 576)","(1231, 569)","(1247, 555)","(1254, 533)","(1257, 510)","(1258, 487)","(1255, 466)","(1250, 446)","(1241, 428)","(1231, 412)","(1108, 466)","(1119, 454)","(1135, 445)","(1154, 441)","(1173, 442)","(1193, 432)","(1201, 420)","(1211, 410)","(1222, 404)","(1230, 406)","(1190, 449)","(1198, 462)","(1206, 476)","(1214, 490)","(1192, 502)","(1204, 502)","(1215, 502)","(1222, 495)","(1227, 486)","(1133, 471)","(1142, 465)","(1151, 459)","(1162, 458)","(1155, 464)","(1145, 469)","(1203, 439)","(1208, 432)","(1216, 427)","(1224, 424)","(1220, 431)","(1213, 436)","(1176, 525)","(1192, 519)","(1207, 514)","(1217, 512)","(1223, 507)","(1232, 502)","(1241, 498)","(1238, 516)","(1232, 526)","(1224, 532)","(1214, 535)","(1197, 535)","(1181, 523)","(1209, 518)","(1219, 515)","(1226, 511)","(1237, 502)","(1227, 518)","(1220, 524)","(1210, 527)",0.23,0.67,99.0,0.35,-0.46,0.43,0.04,1.0,0.24,0.34,40.3,44.8,77.3,31.85,30.15,60.6,65.23,52.47,52.41
2200,655360,70,-56,-1,-1,0,"(1072, 477)","(1081, 501)","(1092, 524)","(1105, 545)","(1124, 563)","(1148, 575)","(1175, 582)","(1202, 585)","(1225, 579)","(1242, 565)","(1250, 543)","(1254, 520)","(1256, 497)","(1253, 475)","(1248, 455)","(1240, 436)","(1230, 418)","(1099, 469)","(1110, 455)","(1127, 446)","(1147, 442)","(1166, 443)","(1186, 434)","(1195, 423)","(1206, 414)","(1218, 408)","(1228, 412)","(1182, 449)","(1190, 464)","(1198, 479)","(1205, 495)","(1183, 506)","(1194, 507)","(1206, 508)","(1214, 500)","(1220, 492)","(1125, 470)","(1133, 463)","(1143, 458)","(1155, 458)","(1146, 464)","(1136, 469)","(1196, 441)","(1202, 433)","(1210, 428)","(1219, 427)","(1214, 434)","(1206, 438)","(1166, 531)","(1183, 526)","(1198, 521)","(1209, 520)","(1216, 514)","(1226, 509)","(1236, 504)","(1231, 522)","(1224, 532)","(1216, 537)","(1205, 540)","(1187, 540)","(1171, 530)","(1200, 525)","(1211, 523)","(1219, 518)","(1232, 508)","(1220, 524)","(1212, 529)","(1202, 532)",0.25,0.69,100.0,0.35,-0.41,0.44,0.03,-1.0,0.24,0.35,37.9,41.9,72.0,33.9,31.7,62.9,67.64,53.05,51.58
2233,-1572864,70,-56,-1,-1,0,"(1060, 480)","(1068, 503)","(1078, 526)","(1090, 547)","(1108, 566)","(1130, 578)","(1156, 586)","(1184, 589)","(1209, 584)","(1227, 572)","(1236, 551)","(1240, 529)","(1241, 505)","(1238, 483)","(1234, 462)","(1226, 443)","(1217, 426)","(1086, 470)","(1098, 457)","(1115, 449)","(1134, 446)","(1152, 448)","(1174, 440)","(1183, 428)","(1195, 419)","(1208, 414)","(1218, 418)","(1170, 454)","(1177, 470)","(1184, 485)","(1191, 502)","(1169, 513)","(1180, 514)","(1192, 514)","(1200, 507)","(1206, 499)","(1112, 473)","(1120, 467)","(1130, 462)","(1142, 462)","(1133, 468)","(1123, 472)","(1185, 447)","(1192, 440)","(1200, 436)","(1208, 435)","(1203, 441)","(1195, 444)","(1153, 538)","(1170, 534)","(1184, 529)","(1194, 528)","(1201, 523)","(1211, 518)","(1221, 513)","(1217, 530)","(1211, 539)","(1202, 544)","(1192, 547)","(1175, 547)","(1159, 538)","(1186, 533)","(1196, 531)","(1204, 526)","(1217, 517)","(1207, 531)","(1199, 536)","(1189, 538)",0.2,0.71,100.0,0.34,-0.38,0.43,0.03,-1.0,0.22,0.36,37.0,40.5,70.2,27.55,27.05,62.9,64.35,51.0,52.52
2266,-1572864,70,-56,-1,-1,0,"(1050, 486)","(1058, 511)","(1068, 535)","(1081, 558)","(1101, 577)","(1125, 591)","(1152, 602)","(1179, 609)","(1204, 605)","(1224, 590)","(1236, 567)","(1245, 541)","(1250, 515)","(1249, 490)","(1244, 467)","(1234, 445)","(1224, 423)","(1068, 474)","(1079, 462)","(1096, 455)","(1116, 452)","(1135, 455)","(1162, 444)","(1172, 431)","(1186, 421)","(1200, 415)","(1213, 418)","(1155, 461)","(1162, 478)","(1169, 495)","(1176, 512)","(1155, 522)","(1167, 524)","(1179, 525)","(1188, 517)","(1195, 507)","(1095, 479)","(1104, 473)","(1115, 468)","(1128, 469)","(1118, 474)","(1107, 478)","(1174, 452)","(1182, 443)","(1192, 438)","(1202, 437)","(1196, 444)","(1186, 448)","(1138, 547)","(1155, 542)","(1170, 538)","(1182, 536)","(1191, 531)","(1204, 524)","(1219, 519)","(1212, 543)","(1202, 556)","(1192, 562)","(1180, 565)","(1161, 562)","(1144, 547)","(1173, 542)","(1184, 539)","(1193, 534)","(1214, 523)","(1198, 548)","(1188, 554)","(1176, 556)",0.21,0.81,101.0,0.35,-0.36,0.46,0.05,-1.0,0.22,0.35,44.6,48.3,80.9,31.95,32.5,62.65,73.11,56.05,54.0
2300,-1441792,70,-56,-1,-1,0,"(1025, 492)","(1034, 518)","(1045, 543)","(1059, 566)","(1077, 585)","(1102, 600)","(1129, 610)","(1158, 616)","(1185, 612)","(1206, 598)","(1219, 576)","(1227, 551)","(1231, 526)","(1229, 501)","(1225, 477)","(1218, 455)","(1208, 433)","(1050, 486)","(1062, 472)","(1081, 464)","(1102, 461)","(1123, 464)","(1147, 455)","(1159, 442)","(1173, 431)","(1189, 426)","(1202, 431)","(1141, 468)","(1148, 487)","(1154, 505)","(1161, 524)","(1138, 533)","(1151, 535)","(1164, 536)","(1173, 528)","(1180, 518)","(1078, 487)","(1087, 480)","(1098, 475)","(1112, 476)","(1101, 482)","(1090, 486)","(1160, 459)","(1169, 450)","(1179, 446)","(1189, 446)","(1183, 452)","(1173, 456)","(1122, 559)","(1140, 556)","(1155, 552)","(1167, 550)","(1175, 544)","(1188, 538)","(1202, 530)","(1195, 550)","(1186, 560)","(1176, 566)","(1164, 569)","(1146, 569)","(1129, 559)","(1157, 556)","(1169, 553)","(1178, 548)","(1197, 535)","(1182, 551)","(1172, 557)","(1161, 559)",0.22,0.79,101.0,0.35,-0.34,0.43,0.02,-2.0,0.21,0.38,38.7,42.4,71.6,33.45,31.75,69.8,66.82,52.0,52.88
2333,-1572864,70,-56,-1,-1,0,"(1012, 497)","(1019, 524)","(1028, 549)","(1041, 574)","(1059, 594)","(1084, 609)","(1111, 620)","(1140, 626)","(1167, 621)","(1188, 608)","(1200, 586)","(1208, 562)","(1213, 536)","(1212, 511)","(1209, 488)","(1202, 465)","(1193, 443)","(1033, 491)","(1046, 478)","(1065, 470)","(1087, 469)","(1108, 472)","(1135, 462)","(1147, 449)","(1161, 438)","(1178, 432)","(1190, 437)","(1128, 479)","(1135, 498)","(1142, 516)","(1149, 535)","(1123, 545)","(1136, 547)","(1150, 548)","(1160, 540)","(1168, 531)","(1061, 497)","(1071, 490)","(1083, 486)","(1097, 487)","(1086, 494)","(1074, 498)","(1148, 470)","(1157, 461)","(1167, 457)","(1178, 456)","(1171, 464)","(1161, 468)","(1107, 572)","(1125, 569)","(1140, 565)","(1152, 564)","(1160, 558)","(1172, 552)","(1185, 545)","(1178, 562)","(1170, 573)","(1160, 578)","(1148, 581)","(1130, 580)","(1113, 571)","(1142, 570)","(1153, 568)","(1163, 563)","(1180, 549)","(1166, 562)","(1156, 567)","(1145, 570)",0.24,0.76,102.0,0.37,-0.32,0.43,0.01,-3.5,0.22,0.39,45.6,50.1,81.8,34.95,33.35,74.25,58.23,45.76,51.47
2366,-1703936,70,-56,-1,-1,0,"(1005, 500)","(1013, 528)","(1022, 554)","(1034, 579)","(1052, 601)","(1076, 618)","(1104, 632)","(1135, 640)","(1164, 637)","(1189, 623)","(1208, 601)","(1223, 577)","(1232, 549)","(1234, 521)","(1230, 494)","(1222, 468)","(1212, 442)","(1021, 496)","(1033, 483)","(1053, 478)","(1075, 478)","(1095, 483)","(1123, 473)","(1137, 458)","(1154, 446)","(1174, 440)","(1191, 444)","(1114, 488)","(1120, 508)","(1126, 528)","(1131, 549)","(1110, 557)","(1122, 560)","(1136, 562)","(1147, 552)","(1157, 542)","(1050, 503)","(1060, 498)","(1072, 493)","(1087, 494)","(1075, 500)","(1063, 504)","(1141, 477)","(1151, 469)","(1162, 464)","(1176, 463)","(1166, 470)","(1155, 474)","(1095, 582)","(1112, 579)","(1128, 576)","(1140, 574)","(1150, 568)","(1166, 559)","(1184, 551)","(1175, 574)","(1163, 586)","(1152, 592)","(1139, 595)","(1120, 594)","(1102, 582)","(1130, 580)","(1142, 578)","(1153, 572)","(1179, 556)","(1159, 577)","(1147, 582)","(1135, 585)",0.18,0.9,102.0,0.35,-0.28,0.42,0.02,-1.5,0.2,0.4,42.5,46.0,75.9,35.1,33.6,73.55,75.29,59.88,59.23
2400,-1572864,70,-56,-1,-1,0,"(987, 508)","(995, 536)","(1003, 564)","(1015, 589)","(1033, 612)","(1056, 631)","(1083, 646)","(1113, 656)","(1142, 653)","(1167, 639)","(1182, 615)","(1193, 589)","(1199, 560)","(1200, 532)","(1197, 505)","(1191, 480)","(1184, 454)","(1003, 503)","(1015, 490)","(1035, 484)","(1056, 484)","(1077, 489)","(1113, 479)","(1127, 464)","(1144, 453)","(1163, 447)","(1177, 453)","(1102, 499)","(1108, 520)","(1114, 541)","(1120, 562)","(1095, 569)","(1109, 572)","(1123, 574)","(1134, 565)","(1144, 556)","(1031, 515)","(1042, 508)","(1055, 504)","(1070, 506)","(1058, 513)","(1044, 517)","(1127, 490)","(1137, 479)","(1149, 474)","(1162, 474)","(1154, 483)","(1141, 488)","(1080, 596)","(1097, 594)","(1113, 591)","(1124, 591)","(1134, 585)","(1148, 578)","(1164, 571)","(1155, 591)","(1144, 603)","(1133, 608)","(1120, 610)","(1102, 608)","(1087, 596)","(1115, 596)","(1126, 595)","(1137, 590)","(1158, 575)","(1140, 591)","(1129, 597)","(1117, 598)",0.26,0.84,102.0,0.38,-0.28,0.42,0.02,-4.5,0.21,0.4,53.2,57.9,91.6,39.6,36.7,79.95,62.94,48.64,53.88
2433,-983040,70,-56,-1,-1,0,"(974, 519)","(983, 548)","(993, 577)","(1005, 603)","(1022, 626)","(1045, 646)","(1071, 661)","(1102, 671)","(1132, 667)","(1159, 655)","(1177, 630)","(1189, 604)","(1197, 574)","(1197, 545)","(1194, 518)","(1188, 490)","(1181, 462)","(989, 518)","(1002, 503)","(1024, 497)","(1047, 496)","(1070, 501)","(1099, 491)","(1115, 477)","(1134, 465)","(1154, 460)","(1171, 467)","(1090, 506)","(1096, 529)","(1102, 551)","(1108, 573)","(1083, 580)","(1096, 584)","(1110, 586)","(1122, 577)","(1132, 567)","(1019, 523)","(1030, 516)","(1043, 512)","(1059, 514)","(1046, 520)","(1032, 525)","(1116, 497)","(1127, 488)","(1139, 484)","(1152, 484)","(1144, 492)","(1131, 496)","(1068, 608)","(1086, 607)","(1101, 604)","(1114, 604)","(1123, 598)","(1137, 592)","(1154, 584)","(1143, 603)","(1132, 613)","(1121, 618)","(1109, 620)","(1091, 619)","(1075, 608)","(1103, 609)","(1115, 608)","(1126, 603)","(1148, 588)","(1128, 602)","(1117, 607)","(1106, 608)",0.24,0.83,103.0,0.36,-0.26,0.41,0.01,-4.0,0.2,0.41,43.0,48.8,77.2,40.45,37.1,78.95,68.76,53.17,55.76
2466,327680,70,-56,-1,-1,0,"(964, 529)","(970, 559)","(978, 588)","(989, 615)","(1006, 640)","(1030, 661)","(1057, 679)","(1088, 690)","(1120, 687)","(1147, 674)","(1165, 649)","(1178, 621)","(1185, 591)","(1186, 561)","(1183, 533)","(1177, 506)","(1169, 478)","(976, 526)","(989, 511)","(1010, 505)","(1033, 505)","(1056, 510)","(1088, 500)","(1104, 486)","(1123, 475)","(1143, 470)","(1158, 478)","(1079, 518)","(1085, 541)","(1090, 563)","(1096, 586)","(1069, 594)","(1084, 597)","(1099, 600)","(1111, 591)","(1121, 582)","(1006, 534)","(1017, 528)","(1030, 524)","(1046, 525)","(1033, 532)","(1020, 536)","(1105, 510)","(1116, 501)","(1129, 497)","(1141, 496)","(1133, 504)","(1120, 508)","(1054, 623)","(1073, 622)","(1088, 619)","(1102, 619)","(1113, 613)","(1128, 607)","(1146, 600)","(1135, 620)","(1123, 631)","(1110, 636)","(1096, 638)","(1078, 636)","(1061, 623)","(1091, 624)","(1104, 623)","(1116, 618)","(1140, 604)","(1118, 620)","(1106, 625)","(1093, 626)",0.2,0.84,103.0,0.37,-0.24,0.44,0.02,-3.5,0.2,0.4,48.3,52.6,82.9,40.5,37.9,81.3,71.7,56.05,59.94
2500,0,70,-56,-1,-1,0,"(954, 542)","(961, 570)","(971, 598)","(982, 625)","(997, 651)","(1019, 673)","(1044, 692)","(1074, 705)","(1107, 704)","(1136, 691)","(1157, 667)","(1172, 639)","(1181, 609)","(1183, 579)","(1181, 549)","(1176, 520)","(1169, 490)","(965, 535)","(978, 519)","(1000, 514)","(1023, 515)","(1046, 520)","(1078, 511)","(1096, 497)","(1115, 486)","(1137, 482)","(1154, 490)","(1067, 527)","(1072, 551)","(1078, 575)","(1083, 600)","(1058, 605)","(1071, 610)","(1086, 613)","(1099, 604)","(1109, 595)","(996, 541)","(1006, 534)","(1020, 531)","(1036, 533)","(1022, 540)","(1009, 543)","(1097, 519)","(1108, 510)","(1121, 506)","(1134, 506)","(1125, 514)","(1112, 518)","(1043, 636)","(1061, 635)","(1077, 633)","(1090, 633)","(1101, 628)","(1117, 622)","(1136, 615)","(1122, 634)","(1109, 645)","(1096, 649)","(1083, 651)","(1065, 648)","(1051, 636)","(1079, 638)","(1091, 637)","(1103, 633)","(1129, 619)","(1105, 633)","(1092, 637)","(1080, 638)",0.22,0.86,104.0,0.36,-0.22,0.43,0.01,-5.0,0.19,0.41,42.1,44.7,74.2,42.65,38.95,82.1,74.05,56.58,59.05
2533,-458752,70,-56,-1,-1,0,"(946, 549)","(954, 578)","(964, 606)","(974, 633)","(989, 659)","(1011, 682)","(1036, 702)","(1066, 717)","(1098, 717)","(1128, 706)","(1150, 681)","(1166, 651)","(1177, 618)","(1179, 586)","(1177, 554)","(1172, 523)","(1165, 491)","(950, 540)","(964, 525)","(986, 520)","(1011, 522)","(1034, 528)","(1069, 519)","(1088, 504)","(1109, 493)","(1132, 489)","(1151, 496)","(1056, 538)","(1062, 562)","(1067, 587)","(1072, 612)","(1048, 618)","(1061, 623)","(1076, 626)","(1089, 617)","(1100, 608)","(982, 550)","(993, 543)","(1008, 540)","(1025, 543)","(1010, 549)","(995, 553)","(1090, 529)","(1101, 520)","(1116, 516)","(1130, 517)","(1120, 525)","(1105, 529)","(1034, 650)","(1052, 648)","(1067, 646)","(1080, 647)","(1092, 642)","(1108, 637)","(1127, 631)","(1114, 652)","(1099, 664)","(1087, 668)","(1073, 669)","(1055, 664)","(1042, 651)","(1069, 653)","(1082, 653)","(1094, 649)","(1120, 635)","(1095, 649)","(1083, 654)","(1070, 654)",0.23,0.87,104.0,0.37,-0.2,0.42,0.02,-5.5,0.2,0.41,51.3,54.5,85.3,40.5,37.4,82.2,69.47,53.47,58.7
2566,524288,70,-56,-1,-1,0,"(902, 563)","(907, 599)","(915, 635)","(926, 670)","(947, 701)","(976, 727)","(1009, 746)","(1045, 761)","(1082, 761)","(1115, 746)","(1139, 717)","(1159, 685)","(1172, 651)","(1177, 615)","(1175, 581)","(1169, 547)","(1160, 513)","(928, 549)","(944, 533)","(969, 527)","(996, 528)","(1022, 535)","(1059, 525)","(1080, 510)","(1102, 498)","(1127, 495)","(1146, 503)","(1046, 545)","(1051, 569)","(1056, 594)","(1062, 619)","(1032, 633)","(1047, 637)","(1063, 640)","(1077, 631)","(1089, 621)","(963, 558)","(976, 551)","(992, 547)","(1010, 551)","(994, 557)","(979, 560)","(1079, 537)","(1092, 526)","(1107, 523)","(1121, 524)","(1110, 531)","(1096, 535)","(1006, 669)","(1030, 666)","(1051, 663)","(1066, 663)","(1080, 657)","(1099, 650)","(1120, 644)","(1105, 670)","(1089, 682)","(1074, 688)","(1057, 690)","(1034, 687)","(1014, 669)","(1053, 668)","(1068, 667)","(1082, 662)","(1113, 648)","(1085, 670)","(1070, 676)","(1055, 677)",0.2,0.8,104.0,0.34,-0.19,0.44,0.03,-5.5,0.16,0.34,56.2,59.6,90.0,42.1,39.0,81.35,107.82,71.47,49.05
2600,-393216,70,-56,-1,-1,0,"(907, 563)","(912, 596)","(919, 629)","(930, 662)","(948, 693)","(973, 720)","(1004, 742)","(1037, 758)","(1073, 760)","(1107, 746)","(1133, 719)","(1155, 688)","(1170, 654)","(1176, 617)","(1175, 581)","(1171, 545)","(1165, 509)","(925, 551)","(940, 536)","(964, 531)","(990, 534)","(1014, 541)","(1050, 532)","(1071, 517)","(1094, 506)","(1119, 502)","(1139, 511)","(1037, 551)","(1042, 577)","(1047, 603)","(1052, 629)","(1024, 637)","(1038, 643)","(1054, 647)","(1069, 638)","(1082, 629)","(959, 563)","(972, 557)","(986, 553)","(1004, 555)","(989, 561)","(974, 565)","(1072, 542)","(1084, 534)","(1099, 531)","(1113, 531)","(1102, 538)","(1088, 541)","(1007, 672)","(1027, 670)","(1044, 669)","(1059, 670)","(1072, 665)","(1091, 660)","(1113, 654)","(1096, 678)","(1079, 689)","(1064, 693)","(1049, 693)","(1030, 689)","(1015, 672)","(1046, 675)","(1060, 675)","(1074, 670)","(1105, 658)","(1075, 676)","(1061, 680)","(1047, 680)",0.18,0.88,104.0,0.33,-0.17,0.41,0.02,-4.0,0.17,0.37,51.2,54.1,85.6,40.0,36.55,80.5,98.7,69.58,57.76
2633,-655360,70,-56,-1,-1,0,"(921, 563)","(924, 595)","(931, 626)","(942, 657)","(957, 687)","(977, 715)","(1001, 740)","(1029, 760)","(1063, 763)","(1097, 753)","(1125, 729)","(1148, 699)","(1165, 666)","(1175, 630)","(1178, 594)","(1176, 556)","(1170, 517)","(923, 552)","(935, 536)","(958, 532)","(982, 536)","(1005, 544)","(1042, 535)","(1064, 519)","(1090, 509)","(1117, 506)","(1139, 516)","(1028, 557)","(1031, 584)","(1034, 611)","(1036, 638)","(1013, 646)","(1027, 652)","(1042, 655)","(1057, 647)","(1071, 638)","(954, 565)","(966, 559)","(981, 556)","(999, 560)","(983, 566)","(968, 569)","(1068, 548)","(1081, 539)","(1097, 536)","(1113, 537)","(1100, 546)","(1085, 549)","(1001, 680)","(1019, 679)","(1034, 679)","(1047, 680)","(1060, 675)","(1080, 670)","(1106, 665)","(1086, 686)","(1067, 697)","(1053, 701)","(1039, 701)","(1022, 696)","(1010, 681)","(1035, 684)","(1049, 685)","(1063, 681)","(1097, 668)","(1064, 684)","(1050, 688)","(1036, 688)",0.22,0.98,105.0,0.36,-0.14,0.42,0.02,-7.0,0.17,0.39,61.0,63.8,96.7,41.65,37.8,81.4,89.05,66.17,65.64
2666,-524288,70,-56,-1,-1,0,"(914, 562)","(918, 594)","(926, 625)","(937, 656)","(950, 688)","(970, 717)","(993, 744)","(1022, 766)","(1057, 769)","(1093, 761)","(1124, 736)","(1148, 705)","(1166, 670)","(1173, 633)","(1175, 595)","(1172, 557)","(1167, 518)","(912, 551)","(924, 535)","(948, 532)","(973, 537)","(997, 546)","(1037, 538)","(1061, 522)","(1088, 512)","(1116, 510)","(1139, 521)","(1021, 559)","(1023, 587)","(1026, 615)","(1028, 643)","(1006, 650)","(1019, 656)","(1034, 661)","(1049, 653)","(1063, 645)","(944, 566)","(956, 559)","(973, 557)","(991, 563)","(974, 568)","(958, 571)","(1063, 553)","(1077, 543)","(1094, 540)","(1111, 543)","(1098, 552)","(1081, 554)","(994, 685)","(1012, 686)","(1026, 685)","(1040, 688)","(1053, 683)","(1073, 680)","(1098, 675)","(1077, 695)","(1059, 703)","(1044, 706)","(1030, 705)","(1014, 700)","(1002, 687)","(1028, 692)","(1041, 693)","(1055, 690)","(1089, 677)","(1056, 689)","(1042, 692)","(1028, 691)",0.24,0.97,105.0,0.37,-0.11,0.41,0.01,-9.0,0.16,0.4,65.1,69.0,102.0,41.4,37.6,79.3,83.47,62.0,63.7
2700,-851968,70,-56,-1,-1,0,"(882, 569)","(885, 606)","(891, 642)","(901, 678)","(919, 713)","(945, 744)","(978, 768)","(1012, 789)","(1051, 795)","(1088, 783)","(1122, 756)","(1152, 724)","(1174, 687)","(1186, 647)","(1189, 607)","(1188, 566)","(1184, 524)","(900, 551)","(917, 537)","(942, 535)","(969, 540)","(995, 549)","(1037, 542)","(1062, 526)","(1091, 515)","(1121, 512)","(1148, 522)","(1019, 562)","(1021, 589)","(1024, 616)","(1026, 644)","(1002, 657)","(1015, 663)","(1031, 667)","(1046, 659)","(1060, 650)","(936, 568)","(950, 562)","(967, 559)","(986, 565)","(968, 570)","(951, 572)","(1064, 556)","(1080, 546)","(1097, 543)","(1114, 546)","(1100, 554)","(1082, 557)","(983, 694)","(1004, 693)","(1022, 692)","(1036, 694)","(1049, 689)","(1070, 685)","(1097, 680)","(1075, 703)","(1056, 713)","(1041, 716)","(1027, 716)","(1007, 711)","(991, 695)","(1023, 698)","(1037, 699)","(1051, 695)","(1088, 683)","(1053, 699)","(1039, 702)","(1025, 702)",0.22,0.92,105.0,0.33,-0.09,0.37,0.01,-8.0,0.13,0.35,57.5,61.2,93.0,41.0,36.65,76.4,106.17,73.7,60.05
2733,9502720,70,-56,-1,-1,0,"(881, 575)","(884, 613)","(891, 651)","(901, 687)","(918, 722)","(946, 752)","(979, 777)","(1014, 798)","(1053, 802)","(1090, 790)","(1119, 763)","(1142, 730)","(1158, 694)","(1166, 655)","(1166, 617)","(1163, 578)","(1156, 541)","(900, 556)","(916, 540)","(942, 537)","(969, 541)","(994, 551)","(1036, 545)","(1060, 531)","(1087, 522)","(1114, 521)","(1135, 533)","(1019, 565)","(1021, 594)","(1024, 623)","(1027, 652)","(1001, 663)","(1015, 670)","(1031, 674)","(1046, 666)","(1060, 657)","(935, 572)","(949, 565)","(966, 563)","(984, 570)","(967, 575)","(950, 577)","(1057, 562)","(1073, 552)","(1090, 550)","(1105, 554)","(1093, 562)","(1076, 564)","(981, 702)","(1003, 702)","(1021, 701)","(1036, 703)","(1050, 698)","(1071, 695)","(1095, 691)","(1076, 713)","(1057, 723)","(1042, 726)","(1026, 725)","(1006, 720)","(990, 704)","(1022, 707)","(1037, 709)","(1052, 705)","(1086, 694)","(1055, 708)","(1040, 711)","(1024, 710)",0.25,0.88,105.0,0.35,-0.08,0.41,0.02,-10.0,0.14,0.36,49.9,53.3,83.7,39.2,34.95,78.0,87.64,61.23,52.58
2766,458752,70,-56,-1,-1,0,"(882, 572)","(884, 609)","(890, 646)","(899, 682)","(914, 718)","(938, 750)","(969, 776)","(1004, 797)","(1044, 801)","(1082, 791)","(1114, 765)","(1139, 733)","(1157, 696)","(1165, 657)","(1165, 618)","(1163, 578)","(1157, 540)","(895, 558)","(910, 541)","(936, 538)","(963, 542)","(989, 551)","(1031, 546)","(1056, 530)","(1084, 521)","(1112, 521)","(1134, 534)","(1013, 565)","(1015, 594)","(1017, 623)","(1019, 653)","(995, 664)","(1009, 671)","(1024, 675)","(1040, 668)","(1054, 659)","(931, 571)","(944, 564)","(962, 562)","(980, 569)","(963, 574)","(945, 576)","(1055, 561)","(1070, 551)","(1088, 549)","(1103, 553)","(1091, 561)","(1073, 563)","(977, 702)","(997, 704)","(1014, 704)","(1029, 707)","(1043, 702)","(1064, 699)","(1090, 693)","(1069, 711)","(1049, 719)","(1034, 722)","(1019, 721)","(1000, 717)","(985, 704)","(1016, 710)","(1031, 712)","(1045, 708)","(1081, 696)","(1046, 706)","(1032, 709)","(1017, 708)",0.25,0.93,105.0,0.35,-0.09,0.41,0.0,-10.0,0.14,0.37,57.3,59.7,91.6,39.05,34.15,75.25,77.47,55.41,53.11
2800,-327680,70,-56,-1,-1,0,"(888, 566)","(888, 603)","(892, 639)","(899, 676)","(911, 713)","(934, 747)","(963, 776)","(997, 798)","(1037, 804)","(1077, 796)","(1111, 771)","(1138, 740)","(1156, 703)","(1165, 663)","(1168, 624)","(1168, 584)","(1163, 545)","(899, 552)","(915, 535)","(941, 533)","(967, 539)","(992, 550)","(1030, 546)","(1057, 531)","(1085, 522)","(1115, 523)","(1137, 537)","(1015, 564)","(1016, 593)","(1017, 623)","(1019, 653)","(994, 661)","(1007, 669)","(1022, 675)","(1039, 668)","(1054, 659)","(933, 566)","(946, 559)","(963, 558)","(981, 566)","(964, 571)","(947, 572)","(1056, 562)","(1072, 552)","(1089, 550)","(1105, 556)","(1093, 563)","(1075, 564)","(973, 698)","(993, 698)","(1011, 699)","(1026, 704)","(1042, 700)","(1064, 698)","(1090, 697)","(1066, 717)","(1045, 724)","(1029, 726)","(1012, 724)","(994, 717)","(982, 700)","(1012, 707)","(1027, 709)","(1043, 707)","(1081, 700)","(1043, 711)","(1027, 712)","(1011, 710)",0.26,0.93,105.0,0.35,-0.05,0.42,0.02,-11.5,0.14,0.37,56.4,59.2,92.6,44.45,41.05,81.05,84.88,63.23,61.11
2833,131072,70,-56,-1,-1,0,"(907, 559)","(910, 595)","(918, 630)","(929, 664)","(942, 698)","(961, 731)","(984, 760)","(1010, 786)","(1045, 792)","(1084, 784)","(1120, 760)","(1148, 730)","(1170, 694)","(1182, 655)","(1187, 614)","(1189, 572)","(1186, 530)","(904, 548)","(917, 530)","(942, 528)","(968, 534)","(993, 545)","(1032, 540)","(1060, 526)","(1091, 517)","(1123, 519)","(1148, 534)","(1014, 560)","(1015, 590)","(1015, 621)","(1016, 652)","(994, 659)","(1007, 667)","(1022, 672)","(1039, 665)","(1055, 658)","(935, 562)","(948, 555)","(966, 555)","(985, 563)","(966, 568)","(949, 569)","(1062, 559)","(1079, 548)","(1097, 547)","(1115, 552)","(1100, 561)","(1081, 562)","(983, 702)","(1000, 702)","(1015, 700)","(1028, 704)","(1043, 699)","(1065, 699)","(1093, 696)","(1070, 716)","(1048, 723)","(1033, 725)","(1018, 723)","(1002, 718)","(992, 704)","(1016, 708)","(1029, 710)","(1044, 707)","(1083, 698)","(1045, 707)","(1031, 709)","(1017, 707)",0.26,1.03,105.0,0.36,-0.04,0.39,0.01,-13.0,0.14,0.39,61.4,65.7,98.8,40.2,36.15,77.85,76.17,59.52,61.52
2866,393216,69,-56,-1,-1,0,"(909, 551)","(912, 587)","(920, 623)","(929, 657)","(942, 692)","(961, 724)","(984, 753)","(1011, 778)","(1045, 785)","(1083, 778)","(1118, 755)","(1147, 727)","(1169, 694)","(1182, 657)","(1188, 617)","(1191, 577)","(1191, 535)","(910, 539)","(924, 522)","(949, 520)","(974, 527)","(998, 538)","(1041, 534)","(1069, 520)","(1100, 513)","(1131, 516)","(1155, 532)","(1022, 555)","(1021, 584)","(1021, 614)","(1020, 644)","(999, 653)","(1012, 660)","(1026, 665)","(1042, 659)","(1057, 653)","(941, 555)","(954, 548)","(972, 548)","(990, 558)","(971, 563)","(954, 563)","(1069, 555)","(1084, 544)","(1103, 544)","(1121, 550)","(1105, 559)","(1086, 559)","(986, 695)","(1003, 695)","(1018, 694)","(1031, 698)","(1045, 693)","(1067, 694)","(1093, 692)","(1070, 710)","(1049, 717)","(1034, 719)","(1020, 717)","(1005, 712)","(995, 698)","(1019, 702)","(1032, 704)","(1046, 701)","(1084, 694)","(1047, 701)","(1033, 703)","(1020, 701)",0.28,1.01,105.0,0.35,-0.01,0.37,0.01,-15.0,0.12,0.38,61.8,64.6,96.8,39.75,36.35,79.4,75.82,55.88,55.7
2900,1835008,69,-56,-1,-1,0,"(917, 549)","(918, 584)","(923, 620)","(932, 654)","(944, 689)","(963, 722)","(987, 750)","(1015, 773)","(1050, 779)","(1088, 772)","(1122, 751)","(1150, 723)","(1172, 690)","(1185, 653)","(1190, 613)","(1191, 572)","(1189, 532)","(916, 534)","(929, 516)","(953, 513)","(979, 520)","(1004, 531)","(1044, 526)","(1072, 513)","(1103, 506)","(1134, 509)","(1156, 527)","(1026, 548)","(1025, 576)","(1025, 605)","(1024, 634)","(1003, 645)","(1015, 652)","(1030, 657)","(1046, 650)","(1061, 644)","(948, 550)","(960, 543)","(977, 543)","(995, 550)","(977, 556)","(960, 557)","(1072, 548)","(1088, 538)","(1106, 538)","(1122, 545)","(1107, 552)","(1089, 552)","(991, 689)","(1007, 688)","(1021, 687)","(1034, 690)","(1047, 686)","(1068, 686)","(1094, 685)","(1072, 699)","(1052, 705)","(1038, 706)","(1025, 705)","(1010, 701)","(999, 690)","(1022, 694)","(1035, 696)","(1049, 693)","(1085, 687)","(1050, 690)","(1037, 692)","(1024, 690)",0.28,1.02,105.0,0.35,-0.01,0.37,0.0,-13.5,0.12,0.37,62.3,66.4,98.9,42.3,37.55,83.6,82.23,62.58,62.64
2933,3538944,69,-56,-1,-1,0,"(918, 537)","(917, 573)","(920, 608)","(926, 644)","(936, 679)","(956, 713)","(981, 742)","(1012, 765)","(1048, 772)","(1085, 766)","(1119, 746)","(1149, 720)","(1172, 687)","(1186, 650)","(1191, 611)","(1193, 571)","(1192, 530)","(925, 526)","(939, 508)","(964, 506)","(990, 513)","(1014, 524)","(1050, 521)","(1078, 508)","(1108, 501)","(1137, 505)","(1158, 523)","(1033, 541)","(1032, 568)","(1031, 596)","(1030, 624)","(1009, 636)","(1021, 643)","(1035, 648)","(1050, 642)","(1064, 636)","(957, 543)","(969, 537)","(985, 536)","(1002, 543)","(986, 548)","(969, 549)","(1076, 542)","(1092, 534)","(1109, 534)","(1124, 540)","(1110, 546)","(1093, 546)","(994, 681)","(1010, 679)","(1025, 678)","(1037, 682)","(1051, 678)","(1071, 678)","(1095, 679)","(1074, 692)","(1056, 697)","(1041, 698)","(1028, 697)","(1012, 693)","(1002, 682)","(1025, 686)","(1038, 688)","(1052, 686)","(1087, 680)","(1054, 682)","(1040, 684)","(1027, 682)",0.25,0.99,105.0,0.33,-0.0,0.36,0.0,-11.5,0.11,0.35,53.1,56.3,87.0,46.6,39.7,90.75,79.17,61.64,62.05
2966,4063232,69,-56,-1,-1,0,"(935, 529)","(936, 563)","(941, 598)","(949, 632)","(959, 666)","(975, 700)","(995, 729)","(1020, 755)","(1054, 764)","(1091, 759)","(1128, 737)","(1159, 710)","(1183, 678)","(1199, 641)","(1206, 602)","(1211, 560)","(1212, 518)","(935, 516)","(947, 498)","(971, 495)","(997, 502)","(1021, 512)","(1062, 510)","(1092, 498)","(1123, 492)","(1155, 498)","(1178, 516)","(1041, 531)","(1040, 558)","(1038, 586)","(1035, 614)","(1016, 625)","(1027, 632)","(1041, 637)","(1056, 631)","(1071, 626)","(965, 530)","(977, 523)","(995, 523)","(1013, 533)","(994, 538)","(976, 538)","(1089, 533)","(1105, 522)","(1125, 522)","(1141, 530)","(1126, 538)","(1107, 538)","(1002, 670)","(1017, 668)","(1031, 666)","(1044, 670)","(1058, 666)","(1078, 668)","(1104, 670)","(1081, 684)","(1061, 690)","(1046, 690)","(1033, 689)","(1018, 685)","(1010, 672)","(1032, 674)","(1045, 676)","(1058, 674)","(1094, 670)","(1059, 673)","(1045, 675)","(1033, 673)",0.3,1.02,105.0,0.36,0.0,0.36,0.01,-15.5,0.1,0.35,56.1,59.5,90.1,49.9,43.9,95.4,80.47,62.35,64.58
3000,1966080,69,-56,-1,-1,0,"(942, 519)","(941, 553)","(942, 587)","(947, 621)","(956, 656)","(973, 689)","(997, 716)","(1025, 739)","(1060, 746)","(1097, 741)","(1133, 723)","(1163, 697)","(1187, 666)","(1201, 629)","(1207, 591)","(1209, 552)","(1210, 512)","(947, 509)","(959, 491)","(982, 487)","(1008, 493)","(1032, 504)","(1068, 502)","(1096, 489)","(1127, 484)","(1157, 489)","(1178, 508)","(1051, 523)","(1050, 549)","(1048, 575)","(1046, 602)","(1025, 614)","(1037, 621)","(1050, 625)","(1066, 620)","(1080, 615)","(976, 525)","(989, 519)","(1005, 518)","(1022, 526)","(1005, 531)","(989, 531)","(1094, 525)","(1110, 518)","(1127, 519)","(1142, 525)","(1128, 531)","(1110, 530)","(1010, 659)","(1026, 656)","(1040, 654)","(1052, 657)","(1065, 654)","(1084, 655)","(1108, 657)","(1085, 669)","(1068, 673)","(1054, 674)","(1042, 673)","(1027, 670)","(1018, 659)","(1040, 661)","(1053, 663)","(1066, 661)","(1099, 657)","(1067, 659)","(1054, 660)","(1042, 659)",0.25,0.96,105.0,0.35,-0.0,0.36,0.0,-12.5,0.1,0.35,57.4,61.4,91.2,46.3,41.6,92.1,84.7,67.0,68.7
3033,-1048576,69,-56,-1,-1,0,"(941, 512)","(939, 547)","(939, 582)","(942, 616)","(950, 651)","(968, 683)","(994, 710)","(1026, 731)","(1063, 738)","(1101, 734)","(1137, 715)","(1167, 690)","(1190, 659)","(1204, 623)","(1211, 586)","(1215, 548)","(1216, 509)","(952, 498)","(968, 481)","(993, 478)","(1019, 483)","(1044, 495)","(1080, 492)","(1108, 481)","(1138, 476)","(1167, 481)","(1187, 499)","(1062, 513)","(1061, 538)","(1059, 563)","(1058, 589)","(1036, 603)","(1047, 610)","(1060, 614)","(1074, 610)","(1088, 604)","(984, 515)","(998, 507)","(1015, 506)","(1032, 516)","(1015, 521)","(997, 521)","(1102, 516)","(1119, 506)","(1137, 507)","(1151, 515)","(1138, 522)","(1120, 521)","(1015, 647)","(1033, 643)","(1048, 641)","(1061, 645)","(1074, 641)","(1092, 643)","(1114, 646)","(1093, 658)","(1076, 662)","(1062, 663)","(1048, 661)","(1033, 658)","(1024, 647)","(1048, 649)","(1061, 650)","(1074, 649)","(1105, 646)","(1075, 649)","(1062, 650)","(1049, 648)",0.3,0.89,104.0,0.35,0.01,0.36,0.01,-15.0,0.09,0.33,61.0,64.4,95.5,50.45,45.25,96.7,82.41,64.76,64.88
3066,-983040,69,-56,-1,-1,0,"(967, 501)","(968, 535)","(972, 569)","(978, 602)","(988, 635)","(1004, 667)","(1025, 694)","(1050, 718)","(1082, 725)","(1117, 720)","(1150, 700)","(1178, 675)","(1201, 645)","(1215, 609)","(1222, 573)","(1227, 535)","(1230, 496)","(974, 495)","(986, 476)","(1009, 471)","(1034, 476)","(1058, 485)","(1090, 484)","(1118, 473)","(1148, 469)","(1176, 475)","(1195, 493)","(1074, 502)","(1073, 526)","(1071, 551)","(1070, 576)","(1051, 590)","(1061, 596)","(1073, 599)","(1086, 595)","(1099, 591)","(1004, 505)","(1015, 498)","(1031, 497)","(1047, 505)","(1031, 510)","(1015, 511)","(1114, 505)","(1129, 497)","(1146, 497)","(1161, 504)","(1147, 511)","(1130, 510)","(1035, 635)","(1050, 630)","(1063, 627)","(1074, 630)","(1086, 627)","(1104, 629)","(1124, 634)","(1105, 649)","(1088, 654)","(1075, 655)","(1063, 653)","(1050, 649)","(1043, 635)","(1062, 633)","(1074, 635)","(1086, 633)","(1116, 634)","(1088, 640)","(1075, 641)","(1063, 639)",0.28,0.96,104.0,0.34,-0.01,0.33,0.02,-13.0,0.09,0.33,50.2,53.3,82.6,49.8,46.55,95.4,82.76,66.58,68.47
3100,-1179648,69,-56,-1,-1,0,"(986, 498)","(987, 529)","(991, 559)","(995, 589)","(1003, 619)","(1018, 647)","(1040, 670)","(1064, 689)","(1095, 694)","(1128, 691)","(1158, 676)","(1183, 655)","(1201, 628)","(1212, 597)","(1215, 564)","(1218, 531)","(1219, 498)","(994, 484)","(1005, 469)","(1026, 465)","(1048, 471)","(1069, 480)","(1102, 478)","(1125, 468)","(1151, 464)","(1176, 469)","(1192, 486)","(1086, 496)","(1086, 519)","(1084, 541)","(1084, 565)","(1064, 578)","(1075, 583)","(1086, 587)","(1099, 582)","(1111, 578)","(1020, 500)","(1031, 495)","(1044, 495)","(1059, 500)","(1045, 504)","(1031, 504)","(1123, 500)","(1137, 495)","(1151, 496)","(1164, 501)","(1151, 505)","(1137, 504)","(1050, 617)","(1064, 614)","(1077, 613)","(1088, 616)","(1099, 613)","(1116, 615)","(1136, 617)","(1118, 626)","(1102, 629)","(1090, 630)","(1079, 629)","(1066, 626)","(1057, 618)","(1077, 620)","(1088, 622)","(1100, 621)","(1129, 618)","(1101, 617)","(1090, 618)","(1079, 616)",0.21,0.96,104.0,0.34,0.01,0.36,0.0,-9.5,0.1,0.34,45.4,48.7,75.9,47.75,44.25,94.05,67.88,57.05,66.88
3133,-917504,69,-56,-1,-1,0,"(1002, 487)","(1002, 516)","(1005, 545)","(1010, 573)","(1017, 602)","(1031, 629)","(1049, 653)","(1070, 674)","(1100, 680)","(1133, 677)","(1163, 661)","(1189, 639)","(1210, 613)","(1222, 583)","(1229, 551)","(1233, 517)","(1235, 483)","(1007, 476)","(1018, 461)","(1039, 459)","(1061, 464)","(1082, 473)","(1113, 472)","(1137, 463)","(1163, 459)","(1188, 463)","(1205, 478)","(1097, 489)","(1096, 512)","(1094, 535)","(1093, 558)","(1075, 568)","(1084, 574)","(1096, 578)","(1109, 574)","(1121, 569)","(1033, 489)","(1044, 483)","(1059, 483)","(1073, 492)","(1058, 496)","(1043, 496)","(1134, 492)","(1148, 484)","(1163, 484)","(1176, 490)","(1164, 497)","(1148, 497)","(1062, 605)","(1075, 603)","(1087, 602)","(1098, 606)","(1109, 602)","(1125, 605)","(1145, 607)","(1126, 617)","(1110, 620)","(1098, 620)","(1087, 619)","(1075, 615)","(1068, 606)","(1087, 609)","(1098, 610)","(1109, 609)","(1138, 608)","(1109, 607)","(1097, 608)","(1087, 606)",0.3,0.97,103.0,0.35,0.01,0.35,0.01,-13.0,0.1,0.36,53.8,57.9,88.0,45.5,40.35,92.5,63.35,51.47,60.23
3166,-851968,69,-56,-1,-1,0,"(1018, 485)","(1016, 513)","(1018, 541)","(1021, 568)","(1028, 596)","(1041, 622)","(1060, 644)","(1081, 662)","(1109, 668)","(1139, 665)","(1167, 651)","(1191, 632)","(1210, 607)","(1221, 580)","(1226, 550)","(1230, 519)","(1232, 488)","(1023, 475)","(1034, 461)","(1054, 458)","(1075, 463)","(1094, 473)","(1124, 472)","(1146, 462)","(1170, 458)","(1193, 463)","(1208, 479)","(1109, 487)","(1107, 508)","(1106, 530)","(1104, 552)","(1086, 561)","(1095, 566)","(1106, 571)","(1118, 567)","(1130, 563)","(1047, 490)","(1058, 487)","(1071, 486)","(1084, 490)","(1071, 493)","(1058, 494)","(1142, 491)","(1156, 488)","(1169, 489)","(1180, 493)","(1169, 496)","(1156, 495)","(1071, 595)","(1085, 594)","(1097, 593)","(1107, 597)","(1118, 594)","(1134, 596)","(1153, 598)","(1134, 607)","(1119, 609)","(1108, 609)","(1097, 608)","(1085, 605)","(1077, 596)","(1097, 599)","(1107, 601)","(1119, 600)","(1146, 598)","(1119, 598)","(1108, 599)","(1097, 597)",0.18,0.94,103.0,0.35,0.02,0.38,0.0,-7.0,0.09,0.35,39.5,42.9,70.5,43.25,39.1,88.35,67.64,55.94,65.0
3200,-917504,69,-56,-1,-1,0,"(1014, 489)","(1012, 518)","(1012, 547)","(1014, 576)","(1023, 604)","(1039, 629)","(1062, 650)","(1088, 666)","(1118, 673)","(1147, 668)","(1174, 653)","(1196, 632)","(1214, 607)","(1224, 578)","(1229, 549)","(1232, 520)","(1233, 490)","(1030, 473)","(1044, 460)","(1064, 457)","(1084, 461)","(1104, 470)","(1136, 470)","(1157, 461)","(1179, 457)","(1200, 462)","(1214, 476)","(1120, 487)","(1120, 506)","(1120, 525)","(1120, 545)","(1098, 557)","(1109, 562)","(1120, 565)","(1131, 562)","(1141, 558)","(1056, 489)","(1068, 486)","(1081, 486)","(1094, 490)","(1081, 493)","(1068, 493)","(1150, 491)","(1163, 487)","(1176, 488)","(1186, 492)","(1176, 495)","(1163, 494)","(1076, 590)","(1092, 585)","(1107, 584)","(1118, 587)","(1130, 584)","(1146, 586)","(1163, 590)","(1146, 604)","(1131, 609)","(1119, 610)","(1106, 609)","(1092, 604)","(1083, 590)","(1107, 590)","(1118, 591)","(1130, 590)","(1156, 590)","(1131, 599)","(1119, 600)","(1107, 598)",0.19,0.86,102.0,0.33,0.01,0.39,0.03,-7.5,0.09,0.31,58.0,60.6,91.7,42.8,41.95,82.35,83.35,63.11,63.58
3233,-458752,69,-56,-1,-1,0,"(1044, 483)","(1043, 508)","(1045, 532)","(1048, 557)","(1055, 582)","(1068, 605)","(1084, 626)","(1104, 643)","(1129, 648)","(1155, 646)","(1180, 632)","(1200, 615)","(1216, 594)","(1226, 569)","(1231, 543)","(1234, 516)","(1235, 489)","(1053, 474)","(1063, 462)","(1081, 461)","(1099, 467)","(1116, 476)","(1141, 475)","(1160, 467)","(1180, 463)","(1201, 466)","(1215, 479)","(1128, 489)","(1127, 509)","(1125, 528)","(1124, 547)","(1107, 554)","(1116, 559)","(1126, 563)","(1137, 560)","(1147, 556)","(1074, 488)","(1083, 483)","(1096, 484)","(1107, 491)","(1095, 494)","(1082, 494)","(1156, 492)","(1168, 487)","(1181, 487)","(1191, 492)","(1181, 497)","(1168, 497)","(1095, 584)","(1108, 583)","(1118, 582)","(1127, 585)","(1137, 583)","(1150, 585)","(1167, 587)","(1151, 596)","(1138, 599)","(1128, 599)","(1118, 598)","(1108, 594)","(1101, 585)","(1118, 588)","(1127, 589)","(1137, 589)","(1161, 587)","(1138, 588)","(1128, 588)","(1119, 587)",0.28,0.92,101.0,0.35,0.04,0.37,0.01,-10.5,0.09,0.36,40.2,44.1,74.3,38.5,34.8,81.8,60.23,49.82,60.7
3266,-458752,69,-56,-1,-1,0,"(1035, 479)","(1033, 507)","(1034, 535)","(1037, 563)","(1046, 590)","(1061, 615)","(1082, 636)","(1105, 653)","(1133, 661)","(1161, 658)","(1186, 643)","(1208, 623)","(1225, 598)","(1237, 570)","(1244, 542)","(1249, 513)","(1251, 483)","(1055, 465)","(1069, 456)","(1087, 457)","(1106, 462)","(1124, 472)","(1156, 473)","(1176, 465)","(1197, 461)","(1217, 464)","(1232, 474)","(1140, 488)","(1139, 506)","(1138, 524)","(1137, 542)","(1118, 553)","(1127, 558)","(1136, 562)","(1147, 560)","(1157, 556)","(1077, 483)","(1088, 478)","(1101, 479)","(1113, 487)","(1100, 490)","(1087, 489)","(1170, 490)","(1182, 483)","(1196, 484)","(1207, 490)","(1196, 495)","(1183, 494)","(1099, 588)","(1114, 585)","(1127, 583)","(1136, 587)","(1145, 585)","(1159, 589)","(1174, 595)","(1158, 607)","(1145, 611)","(1135, 611)","(1125, 608)","(1112, 603)","(1106, 589)","(1126, 591)","(1136, 592)","(1145, 593)","(1167, 595)","(1145, 599)","(1136, 599)","(1126, 597)",0.29,0.87,100.0,0.33,0.05,0.34,0.03,-12.0,0.07,0.31,59.4,65.6,101.0,47.1,43.3,90.95,102.7,70.76,52.94
3300,-524288,69,-56,-1,-1,0,"(1071, 473)","(1070, 495)","(1072, 517)","(1074, 539)","(1079, 562)","(1089, 584)","(1104, 602)","(1122, 618)","(1143, 623)","(1167, 622)","(1190, 610)","(1210, 595)","(1226, 576)","(1236, 553)","(1242, 529)","(1245, 505)","(1246, 479)","(1073, 466)","(1084, 457)","(1100, 458)","(1117, 463)","(1132, 472)","(1159, 473)","(1177, 465)","(1196, 462)","(1215, 464)","(1229, 475)","(1145, 485)","(1144, 502)","(1142, 520)","(1141, 538)","(1125, 543)","(1133, 548)","(1142, 552)","(1152, 549)","(1162, 546)","(1093, 480)","(1102, 476)","(1113, 477)","(1124, 483)","(1112, 485)","(1101, 485)","(1173, 485)","(1184, 480)","(1196, 481)","(1206, 485)","(1197, 490)","(1185, 489)","(1115, 569)","(1126, 569)","(1135, 569)","(1142, 572)","(1151, 570)","(1163, 571)","(1177, 573)","(1163, 579)","(1151, 581)","(1143, 581)","(1135, 580)","(1126, 576)","(1120, 570)","(1135, 574)","(1142, 576)","(1151, 575)","(1171, 573)","(1151, 573)","(1143, 573)","(1135, 571)",0.27,0.93,100.0,0.36,0.06,0.35,0.0,-9.5,0.09,0.38,47.3,50.6,81.1,41.1,34.65,85.2,55.88,43.23,52.64
3333,-983040,69,-56,-1,-1,0,"(1074, 467)","(1073, 490)","(1074, 513)","(1075, 536)","(1081, 560)","(1092, 582)","(1108, 601)","(1127, 617)","(1151, 623)","(1175, 620)","(1197, 607)","(1218, 590)","(1233, 569)","(1243, 546)","(1248, 521)","(1252, 496)","(1255, 470)","(1080, 461)","(1091, 452)","(1108, 451)","(1125, 455)","(1141, 463)","(1165, 464)","(1183, 457)","(1203, 454)","(1222, 457)","(1236, 467)","(1153, 474)","(1152, 491)","(1151, 508)","(1149, 525)","(1133, 532)","(1141, 537)","(1150, 540)","(1160, 538)","(1169, 534)","(1101, 470)","(1110, 466)","(1121, 467)","(1131, 473)","(1120, 475)","(1109, 474)","(1179, 475)","(1190, 469)","(1202, 470)","(1211, 475)","(1202, 478)","(1191, 477)","(1115, 557)","(1127, 557)","(1140, 557)","(1149, 560)","(1159, 558)","(1173, 558)","(1189, 559)","(1173, 572)","(1160, 577)","(1149, 578)","(1139, 576)","(1127, 571)","(1120, 558)","(1140, 561)","(1149, 563)","(1159, 562)","(1182, 560)","(1159, 568)","(1149, 569)","(1140, 568)",0.25,0.92,99.0,0.34,0.03,0.4,0.03,-9.0,0.08,0.34,45.0,48.7,77.6,39.25,35.55,79.3,83.64,56.29,47.0
3366,-2490368,69,-56,-1,-1,0,"(1079, 459)","(1076, 482)","(1074, 505)","(1075, 529)","(1081, 552)","(1093, 574)","(1109, 592)","(1128, 607)","(1152, 614)","(1176, 611)","(1197, 598)","(1216, 581)","(1232, 560)","(1242, 537)","(1249, 513)","(1252, 490)","(1254, 465)","(1089, 443)","(1101, 436)","(1117, 437)","(1133, 442)","(1147, 451)","(1175, 453)","(1191, 446)","(1208, 442)","(1226, 444)","(1238, 453)","(1160, 464)","(1159, 480)","(1158, 496)","(1156, 513)","(1138, 521)","(1147, 526)","(1156, 529)","(1165, 527)","(1174, 524)","(1106, 459)","(1116, 455)","(1127, 456)","(1137, 462)","(1126, 464)","(1115, 463)","(1186, 465)","(1197, 459)","(1208, 460)","(1217, 465)","(1208, 469)","(1197, 468)","(1119, 548)","(1132, 547)","(1145, 547)","(1153, 550)","(1162, 548)","(1175, 550)","(1189, 552)","(1175, 566)","(1162, 570)","(1152, 571)","(1143, 569)","(1131, 563)","(1124, 549)","(1144, 553)","(1153, 554)","(1162, 554)","(1183, 553)","(1162, 560)","(1153, 561)","(1144, 559)",0.29,0.87,99.0,0.35,0.06,0.4,0.03,-9.5,0.08,0.32,50.6,55.9,89.7,41.6,39.35,83.95,88.64,56.82,39.29
3400,-1835008,69,-56,-1,-1,0,"(1071, 458)","(1069, 483)","(1068, 507)","(1071, 532)","(1080, 555)","(1094, 575)","(1112, 593)","(1134, 607)","(1158, 612)","(1182, 609)","(1202, 596)","(1220, 578)","(1234, 557)","(1244, 534)","(1251, 510)","(1254, 486)","(1255, 461)","(1091, 437)","(1104, 428)","(1121, 428)","(1138, 433)","(1154, 441)","(1178, 444)","(1194, 437)","(1212, 434)","(1229, 436)","(1241, 446)","(1166, 454)","(1165, 470)","(1164, 485)","(1164, 502)","(1145, 513)","(1153, 518)","(1162, 521)","(1171, 519)","(1180, 516)","(1111, 450)","(1121, 445)","(1132, 446)","(1141, 453)","(1130, 455)","(1119, 454)","(1189, 456)","(1200, 450)","(1212, 451)","(1220, 456)","(1211, 460)","(1200, 459)","(1124, 545)","(1139, 543)","(1152, 541)","(1160, 544)","(1168, 543)","(1180, 545)","(1192, 549)","(1179, 559)","(1167, 563)","(1159, 563)","(1150, 561)","(1138, 557)","(1130, 546)","(1151, 548)","(1160, 550)","(1168, 550)","(1187, 549)","(1168, 551)","(1159, 552)","(1151, 550)",0.29,0.78,99.0,0.33,0.04,0.36,0.01,-10.0,0.07,0.3,48.7,52.9,84.4,36.85,36.35,74.35,97.35,60.7,38.88
3433,-983040,69,-56,-1,-1,0,"(1099, 433)","(1098, 455)","(1097, 475)","(1098, 496)","(1103, 518)","(1112, 539)","(1125, 557)","(1142, 572)","(1162, 579)","(1184, 577)","(1206, 565)","(1225, 550)","(1241, 531)","(1251, 510)","(1257, 487)","(1261, 464)","(1264, 440)","(1104, 430)","(1114, 423)","(1129, 423)","(1144, 428)","(1158, 436)","(1182, 437)","(1198, 430)","(1216, 427)","(1233, 430)","(1245, 439)","(1169, 448)","(1167, 463)","(1166, 478)","(1164, 494)","(1149, 498)","(1157, 503)","(1164, 507)","(1174, 505)","(1182, 502)","(1121, 441)","(1130, 439)","(1140, 439)","(1150, 445)","(1139, 447)","(1129, 446)","(1194, 447)","(1204, 443)","(1214, 444)","(1223, 447)","(1215, 451)","(1204, 450)","(1135, 520)","(1146, 520)","(1156, 521)","(1163, 524)","(1171, 523)","(1183, 524)","(1197, 525)","(1183, 537)","(1171, 541)","(1162, 541)","(1154, 539)","(1144, 533)","(1140, 521)","(1155, 525)","(1163, 527)","(1171, 527)","(1192, 526)","(1171, 532)","(1163, 533)","(1155, 531)",0.24,0.94,99.0,0.35,0.07,0.37,0.03,-8.0,0.07,0.35,43.2,48.4,79.0,36.8,33.9,77.7,74.41,55.47,56.41
3466,-655360,69,-56,-1,-1,0,"(1102, 430)","(1100, 450)","(1100, 470)","(1102, 491)","(1107, 511)","(1117, 530)","(1131, 546)","(1148, 560)","(1167, 565)","(1188, 563)","(1207, 553)","(1224, 540)","(1238, 523)","(1246, 504)","(1251, 483)","(1254, 462)","(1256, 441)","(1109, 427)","(1119, 419)","(1134, 419)","(1149, 424)","(1162, 432)","(1184, 433)","(1199, 427)","(1216, 424)","(1232, 427)","(1243, 437)","(1172, 442)","(1171, 458)","(1169, 474)","(1168, 490)","(1153, 494)","(1160, 498)","(1168, 502)","(1177, 499)","(1185, 496)","(1126, 437)","(1134, 434)","(1144, 434)","(1153, 440)","(1142, 442)","(1133, 441)","(1194, 443)","(1204, 438)","(1214, 439)","(1222, 443)","(1214, 446)","(1204, 446)","(1140, 515)","(1151, 516)","(1160, 516)","(1168, 519)","(1175, 517)","(1186, 517)","(1199, 518)","(1186, 525)","(1176, 527)","(1168, 527)","(1160, 526)","(1151, 523)","(1145, 516)","(1160, 520)","(1167, 522)","(1175, 521)","(1194, 518)","(1176, 519)","(1168, 519)","(1161, 518)",0.26,0.88,99.0,0.35,0.08,0.38,0.0,-8.0,0.08,0.39,38.7,43.4,71.9,38.05,33.1,80.45,54.52,43.11,49.47
3500,9175040,69,-56,-1,-1,0,"(1099, 431)","(1097, 454)","(1096, 476)","(1096, 499)","(1101, 521)","(1112, 542)","(1126, 561)","(1144, 577)","(1166, 583)","(1190, 582)","(1211, 570)","(1229, 553)","(1244, 533)","(1254, 511)","(1261, 487)","(1266, 464)","(1269, 439)","(1113, 420)","(1124, 414)","(1139, 415)","(1153, 420)","(1166, 428)","(1191, 429)","(1206, 423)","(1223, 420)","(1239, 422)","(1251, 432)","(1178, 440)","(1176, 455)","(1174, 470)","(1173, 485)","(1157, 492)","(1164, 497)","(1172, 501)","(1181, 499)","(1189, 496)","(1129, 434)","(1138, 430)","(1148, 431)","(1157, 437)","(1147, 439)","(1137, 438)","(1202, 440)","(1212, 435)","(1223, 436)","(1230, 441)","(1222, 444)","(1212, 443)","(1141, 520)","(1152, 518)","(1163, 518)","(1171, 521)","(1179, 520)","(1190, 523)","(1202, 527)","(1189, 537)","(1177, 539)","(1169, 539)","(1160, 537)","(1151, 532)","(1146, 521)","(1162, 523)","(1170, 525)","(1178, 526)","(1197, 527)","(1178, 530)","(1170, 530)","(1162, 528)",0.28,0.88,99.0,0.33,0.09,0.35,0.02,-9.0,0.06,0.31,47.4,52.0,83.7,35.5,34.05,73.7,98.94,64.7,44.52
3533,0,69,-56,-1,-1,0,"(1099, 430)","(1097, 452)","(1097, 473)","(1099, 495)","(1105, 516)","(1116, 535)","(1132, 551)","(1151, 563)","(1173, 567)","(1193, 564)","(1212, 552)","(1227, 537)","(1239, 519)","(1247, 500)","(1251, 480)","(1254, 459)","(1254, 439)","(1116, 424)","(1127, 417)","(1142, 416)","(1157, 421)","(1171, 428)","(1192, 429)","(1206, 423)","(1220, 421)","(1234, 423)","(1244, 431)","(1181, 437)","(1180, 452)","(1180, 467)","(1179, 482)","(1162, 487)","(1170, 492)","(1178, 495)","(1186, 493)","(1193, 489)","(1134, 433)","(1142, 429)","(1152, 430)","(1160, 436)","(1151, 437)","(1141, 436)","(1199, 438)","(1209, 433)","(1218, 434)","(1225, 438)","(1218, 440)","(1209, 440)","(1145, 508)","(1158, 507)","(1169, 507)","(1177, 509)","(1185, 508)","(1195, 508)","(1207, 510)","(1195, 520)","(1184, 524)","(1176, 524)","(1167, 523)","(1156, 519)","(1149, 508)","(1168, 510)","(1176, 511)","(1185, 511)","(1202, 510)","(1185, 517)","(1176, 517)","(1168, 516)",0.25,0.79,100.0,0.33,0.05,0.4,0.03,-7.5,0.07,0.34,39.7,44.2,73.3,24.85,24.3,59.35,74.23,49.82,41.7
3566,-393216,69,-56,-1,-1,0,"(1124, 423)","(1121, 442)","(1121, 459)","(1121, 478)","(1125, 496)","(1133, 514)","(1145, 530)","(1159, 544)","(1178, 548)","(1198, 548)","(1218, 539)","(1235, 527)","(1247, 511)","(1256, 493)","(1261, 475)","(1264, 455)","(1265, 435)","(1127, 419)","(1136, 413)","(1149, 414)","(1162, 420)","(1174, 427)","(1198, 429)","(1213, 424)","(1228, 421)","(1243, 423)","(1252, 431)","(1185, 439)","(1183, 454)","(1181, 468)","(1179, 483)","(1165, 485)","(1172, 490)","(1180, 493)","(1188, 491)","(1197, 488)","(1141, 432)","(1149, 430)","(1158, 431)","(1167, 437)","(1157, 438)","(1148, 437)","(1207, 440)","(1217, 436)","(1227, 437)","(1235, 440)","(1226, 444)","(1217, 443)","(1155, 504)","(1164, 505)","(1173, 505)","(1179, 508)","(1187, 506)","(1197, 507)","(1209, 509)","(1197, 515)","(1187, 517)","(1179, 517)","(1172, 516)","(1164, 512)","(1159, 505)","(1172, 509)","(1179, 511)","(1186, 511)","(1204, 509)","(1187, 509)","(1180, 509)","(1173, 508)",0.25,0.92,100.0,0.38,0.1,0.38,0.01,-8.0,0.08,0.4,42.6,48.3,79.5,30.45,27.55,66.0,48.05,35.17,39.52
3600,-131072,69,-56,-1,-1,0,"(1125, 426)","(1124, 443)","(1123, 461)","(1124, 478)","(1127, 496)","(1135, 514)","(1147, 530)","(1162, 543)","(1181, 548)","(1201, 547)","(1219, 538)","(1235, 525)","(1246, 510)","(1254, 492)","(1258, 474)","(1260, 455)","(1261, 436)","(1130, 422)","(1138, 415)","(1152, 416)","(1165, 421)","(1177, 429)","(1199, 430)","(1212, 425)","(1227, 422)","(1241, 424)","(1250, 433)","(1187, 439)","(1185, 454)","(1184, 468)","(1183, 482)","(1168, 484)","(1175, 489)","(1183, 492)","(1191, 490)","(1199, 487)","(1144, 433)","(1152, 431)","(1161, 432)","(1169, 437)","(1160, 438)","(1151, 437)","(1207, 440)","(1216, 436)","(1225, 437)","(1233, 440)","(1225, 444)","(1216, 443)","(1158, 503)","(1168, 504)","(1176, 505)","(1182, 508)","(1189, 506)","(1199, 507)","(1211, 507)","(1199, 514)","(1190, 515)","(1182, 515)","(1175, 514)","(1167, 510)","(1163, 504)","(1176, 508)","(1182, 510)","(1189, 510)","(1206, 508)","(1190, 508)","(1183, 508)","(1176, 507)",0.26,0.9,100.0,0.37,0.1,0.38,0.01,-7.5,0.08,0.39,38.8,42.4,69.0,30.35,26.65,66.5,47.0,35.17,42.47
3633,0,69,-56,-1,-1,0,"(1124, 422)","(1122, 440)","(1121, 459)","(1122, 477)","(1127, 496)","(1136, 514)","(1149, 529)","(1164, 542)","(1183, 547)","(1202, 546)","(1221, 537)","(1236, 524)","(1248, 508)","(1256, 491)","(1260, 473)","(1262, 454)","(1263, 434)","(1131, 419)","(1141, 414)","(1154, 415)","(1167, 421)","(1178, 428)","(1202, 430)","(1216, 426)","(1229, 423)","(1243, 425)","(1252, 431)","(1190, 440)","(1188, 454)","(1187, 468)","(1186, 482)","(1170, 484)","(1177, 489)","(1185, 493)","(1194, 491)","(1202, 487)","(1145, 432)","(1154, 429)","(1163, 430)","(1171, 436)","(1162, 437)","(1152, 436)","(1209, 440)","(1219, 435)","(1228, 436)","(1235, 440)","(1228, 443)","(1218, 442)","(1160, 503)","(1170, 504)","(1178, 505)","(1185, 507)","(1191, 506)","(1201, 507)","(1212, 508)","(1200, 515)","(1191, 517)","(1184, 516)","(1177, 515)","(1169, 511)","(1164, 504)","(1178, 509)","(1184, 511)","(1191, 510)","(1207, 508)","(1191, 509)","(1184, 509)","(1178, 507)",0.27,0.87,100.0,0.37,0.1,0.37,0.0,-8.0,0.08,0.39,41.1,44.5,74.0,32.5,29.7,67.4,48.23,37.52,45.35
