milliseconds, ECG, ECG HR, PPG, PPG HR, SpO2, PI
0,-983040,57,-56,-1,-1,0
33,-1048576,57,-56,-1,-1,0
66,-786432,57,-56,-1,-1,0
100,-983040,57,-56,-1,-1,0
133,-1245184,57,-56,-1,-1,0
166,2490368,57,-56,-1,-1,0
200,1638400,57,-56,-1,-1,0
233,-589824,57,-56,-1,-1,0
266,-524288,57,-56,-1,-1,0
300,0,57,-56,-1,-1,0
333,589824,57,-56,-1,-1,0
366,2031616,57,-56,-1,-1,0
400,3014656,57,-56,-1,-1,0
433,786432,57,-56,-1,-1,0
466,-851968,57,-56,-1,-1,0
500,-1114112,57,-56,-1,-1,0
533,-786432,57,-56,-1,-1,0
566,-851968,57,-56,-1,-1,0
600,-720896,57,-56,-1,-1,0
633,-786432,57,-56,-1,-1,0
666,-917504,57,-56,-1,-1,0
700,-983040,57,-56,-1,-1,0
733,-917504,57,-56,-1,-1,0
766,-917504,57,-56,-1,-1,0
800,-851968,57,-56,-1,-1,0
833,-1245184,57,-56,-1,-1,0
866,-1703936,57,-56,-1,-1,0
900,12189696,57,-56,-1,-1,0
933,-393216,57,-56,-1,-1,0
966,-720896,57,-56,-1,-1,0
1000,-524288,57,-56,-1,-1,0
1033,0,57,-56,-1,-1,0
1066,1245184,57,-56,-1,-1,0
1100,2752512,57,-56,-1,-1,0
1133,1638400,57,-56,-1,-1,0
1166,-524288,57,-56,-1,-1,0
1200,-917504,57,-56,-1,-1,0
1233,-983040,57,-56,-1,-1,0
1266,-786432,57,-56,-1,-1,0
1300,-720896,57,-56,-1,-1,0
1333,-917504,57,-56,-1,-1,0
1366,-983040,57,-56,-1,-1,0
1400,-1114112,57,-56,-1,-1,0
1433,-1114112,57,-56,-1,-1,0
1466,-1114112,57,-56,-1,-1,0
1500,-1114112,57,-56,-1,-1,0
1533,-851968,57,-56,-1,-1,0
1566,-1179648,57,-56,-1,-1,0
1600,-1179648,57,-56,-1,-1,0
1633,7077888,57,-56,-1,-1,0
1666,393216,57,-56,-1,-1,0
1700,-655360,57,-56,-1,-1,0
1733,-458752,57,-56,-1,-1,0
1766,-65536,57,-56,-1,-1,0
1800,589824,57,-56,-1,-1,0
1833,2162688,57,-56,-1,-1,0
1866,2752512,57,-56,-1,-1,0
1900,327680,57,-56,-1,-1,0
1933,-458752,57,-56,-1,-1,0
1966,-524288,57,-56,-1,-1,0
2000,-393216,57,-56,-1,-1,0
2033,-327680,57,-56,-1,-1,0
2066,-327680,57,-56,-1,-1,0
2100,-393216,57,-56,-1,-1,0
2133,-524288,57,-56,-1,-1,0
2166,-524288,57,-56,-1,-1,0
2200,-524288,57,-56,-1,-1,0
2233,-524288,57,-56,-1,-1,0
2266,-655360,57,-56,-1,-1,0
2300,-655360,57,-56,-1,-1,0
2333,-655360,57,-56,-1,-1,0
2366,-524288,57,-56,-1,-1,0
2400,-524288,57,-56,-1,-1,0
2433,-655360,57,-56,-1,-1,0
2466,-786432,57,-56,-1,-1,0
2500,-1048576,57,-56,-1,-1,0
2533,-1179648,57,-56,-1,-1,0
2566,2162688,57,-56,-1,-1,0
2600,2293760,57,-56,-1,-1,0
2633,-720896,57,-56,-1,-1,0
2666,-655360,57,-56,-1,-1,0
2700,-327680,57,-56,-1,-1,0
2733,262144,57,-56,-1,-1,0
2766,1507328,57,-56,-1,-1,0
2800,2490368,57,-56,-1,-1,0
2833,917504,57,-56,-1,-1,0
2866,-458752,57,-56,-1,-1,0
2900,-524288,54,-56,-1,-1,0
2933,-327680,54,-56,-1,-1,0
2966,-393216,54,-56,-1,-1,0
3000,-458752,54,-56,-1,-1,0
3033,-589824,54,-56,-1,-1,0
3066,-720896,54,-56,-1,-1,0
3100,-786432,54,-56,-1,-1,0
3133,-786432,54,-56,-1,-1,0
3166,-786432,54,-56,-1,-1,0
3200,-786432,54,-56,-1,-1,0
3233,-851968,54,-56,-1,-1,0
3266,-851968,54,-56,-1,-1,0
3300,-917504,54,-56,-1,-1,0
3333,-917504,54,-56,-1,-1,0
3366,-917504,54,-56,-1,-1,0
3400,-917504,54,-56,-1,-1,0
3433,-720896,54,-56,-1,-1,0
3466,-1048576,54,-56,-1,-1,0
3500,-1507328,54,-56,-1,-1,0
3533,13369344,54,-56,-1,-1,0
3566,-131072,54,-56,-1,-1,0
3600,-524288,54,-56,-1,-1,0
3633,-393216,54,-56,-1,-1,0
3666,131072,54,-56,-1,-1,0
3699,1179648,54,-56,-1,-1,0
3733,2686976,54,-56,-1,-1,0
3766,2097152,53,-56,-1,-1,0
3800,-196608,53,-56,-1,-1,0
3833,-786432,53,-56,-1,-1,0
3866,-589824,53,-56,-1,-1,0
3900,-589824,53,-56,-1,-1,0
3933,-524288,53,-56,-1,-1,0
3966,-655360,53,-56,-1,-1,0
4000,-786432,53,-56,-1,-1,0
4033,-851968,53,-56,-1,-1,0
4066,-851968,53,-56,-1,-1,0
4100,-917504,53,-56,-1,-1,0
4133,-917504,53,-56,-1,-1,0
4166,-917504,53,-56,-1,-1,0
4200,-917504,53,-56,-1,-1,0
4233,-917504,53,-56,-1,-1,0
4266,-851968,53,-56,-1,-1,0
4300,-720896,53,-56,-1,-1,0
4333,-983040,53,-56,-1,-1,0
4366,-1441792,53,-56,-1,-1,0
4400,11862016,53,-56,-1,-1,0
4433,-262144,53,-56,-1,-1,0
4466,-589824,53,-56,-1,-1,0
4500,-327680,53,-56,-1,-1,0
4533,131072,53,-56,-1,-1,0
4566,1310720,53,-56,-1,-1,0
4600,2752512,53,-56,-1,-1,0
4633,1769472,55,-56,-1,-1,0
4666,-327680,55,-56,-1,-1,0
4700,-720896,55,-56,-1,-1,0
4733,-655360,55,-56,-1,-1,0
4766,-524288,55,-56,-1,-1,0
4800,-589824,55,-56,-1,-1,0
4833,-655360,55,-56,-1,-1,0
4866,-786432,55,-56,-1,-1,0
4900,-851968,55,-56,-1,-1,0
4933,-851968,55,-56,-1,-1,0
4966,-917504,55,-56,-1,-1,0
5000,-917504,55,-56,-1,-1,0
5033,-983040,55,-56,-1,-1,0
5066,-851968,55,-56,-1,-1,0
5100,-917504,55,-56,-1,-1,0
5133,-524288,55,-56,-1,-1,0
5166,-917504,55,-56,-1,-1,0
5200,-1048576,55,-56,-1,-1,0
5233,10747904,55,-56,-1,-1,0
5266,327680,55,-56,-1,-1,0
5300,-589824,55,-56,-1,-1,0
5333,-393216,55,-56,-1,-1,0
5366,-65536,55,-56,-1,-1,0
5400,655360,55,-56,-1,-1,0
5433,2097152,55,-56,-1,-1,0
5466,2555904,55,-56,-1,-1,0
5500,196608,56,-56,-1,-1,0
5533,-589824,56,-56,-1,-1,0
5566,-589824,56,-56,-1,-1,0
5600,-524288,56,-56,-1,-1,0
5633,-458752,56,-56,-1,-1,0
5666,-524288,56,-56,-1,-1,0
5700,-655360,56,-56,-1,-1,0
5733,-786432,56,-56,-1,-1,0
5766,-851968,56,-56,-1,-1,0
5800,-851968,56,-56,-1,-1,0
5833,-851968,56,-56,-1,-1,0
5866,-851968,56,-56,-1,-1,0
5900,-851968,56,-56,-1,-1,0
5933,-851968,56,-56,-1,-1,0
5966,-851968,56,-56,-1,-1,0
6000,-786432,56,-56,-1,-1,0
6033,-720896,56,-56,-1,-1,0
6066,-851968,56,-56,-1,-1,0
6100,-1179648,56,-56,-1,-1,0
6133,10878976,56,-56,-1,-1,0
6166,-327680,56,-56,-1,-1,0
6200,-524288,56,-56,-1,-1,0
6233,-327680,56,-56,-1,-1,0
6266,131072,56,-56,-1,-1,0
6300,1245184,56,-56,-1,-1,0
6333,2555904,56,-56,-1,-1,0
6366,1507328,56,-56,-1,-1,0
6400,-458752,56,-56,-1,-1,0
6433,-851968,56,-56,-1,-1,0
6466,-786432,56,-56,-1,-1,0
6500,-655360,56,-56,-1,-1,0
6533,-655360,56,-56,-1,-1,0
6566,-786432,56,-56,-1,-1,0
6600,-917504,56,-56,-1,-1,0
6633,-851968,56,-56,-1,-1,0
6666,-851968,56,-56,-1,-1,0
6700,-917504,56,-56,-1,-1,0
6733,-917504,56,-56,-1,-1,0
6766,-917504,56,-56,-1,-1,0
6800,-983040,56,-56,-1,-1,0
6833,-851968,56,-56,-1,-1,0
6866,-851968,56,-56,-1,-1,0
6899,-1048576,56,-56,-1,-1,0
6933,-1507328,56,-56,-1,-1,0
6966,12255232,56,-56,-1,-1,0
7000,-196608,56,-56,-1,-1,0
7033,-524288,56,-56,-1,-1,0
7066,-262144,56,-56,-1,-1,0
7100,262144,56,-56,-1,-1,0
7133,1376256,56,-56,-1,-1,0
7166,3014656,58,-56,-1,-1,0
7200,2031616,58,-56,-1,-1,0
7233,-196608,58,-56,-1,-1,0
7266,-786432,58,-56,-1,-1,0
7300,-655360,58,-56,-1,-1,0
7333,-589824,58,-56,-1,-1,0
7366,-458752,58,-56,-1,-1,0
7399,-786432,58,-56,-1,-1,0
7433,-917504,58,-56,-1,-1,0
7466,-917504,58,-56,-1,-1,0
7500,-917504,58,-56,-1,-1,0
7533,-917504,58,-56,-1,-1,0
7566,-983040,58,-56,-1,-1,0
7600,-1048576,58,-56,-1,-1,0
7633,-1114112,58,-56,-1,-1,0
7666,-983040,58,-56,-1,-1,0
7700,-1048576,58,-56,-1,-1,0
7733,-1114112,58,-56,-1,-1,0
7766,-851968,58,-56,-1,-1,0
7800,7864320,58,-56,-1,-1,0
7833,-458752,58,-56,-1,-1,0
7866,-458752,58,-56,-1,-1,0
7899,-262144,58,-56,-1,-1,0
7933,327680,58,-56,-1,-1,0
7966,1703936,58,-56,-1,-1,0
8000,3145728,58,-56,-1,-1,0
8033,1703936,58,-56,-1,-1,0
8066,65536,58,-56,-1,-1,0
8100,-65536,58,-56,-1,-1,0
8133,-65536,58,-56,-1,-1,0
8166,-131072,58,-56,-1,-1,0
8200,-131072,58,-56,-1,-1,0
8233,-393216,58,-56,-1,-1,0
8266,-524288,58,-56,-1,-1,0
8300,-720896,58,-56,-1,-1,0
8333,-851968,58,-56,-1,-1,0
8366,-851968,58,-56,-1,-1,0
8400,-983040,58,-56,-1,-1,0
8433,-1114112,58,-56,-1,-1,0
8466,-1114112,58,-56,-1,-1,0
8500,-1179648,58,-56,-1,-1,0
8533,-1114112,58,-56,-1,-1,0
8566,-1179648,58,-56,-1,-1,0
8600,-1048576,58,-56,-1,-1,0
8633,-1048576,58,-56,-1,-1,0
8666,-524288,58,-56,-1,-1,0
8700,-917504,58,-56,-1,-1,0
8733,-1179648,58,-56,-1,-1,0
8766,12517376,58,-56,-1,-1,0
8800,393216,58,-56,-1,-1,0
8833,-786432,58,-56,-1,-1,0
8866,-589824,58,-56,-1,-1,0
8900,0,58,-56,-1,-1,0
8933,786432,58,-56,-1,-1,0
8966,2293760,58,-56,-1,-1,0
9000,2686976,58,-56,-1,-1,0
9033,262144,58,-56,-1,-1,0
9066,-458752,56,-56,-1,-1,0
9100,-589824,56,-56,-1,-1,0
9133,-524288,56,-56,-1,-1,0
9166,-393216,56,-56,-1,-1,0
9200,-524288,56,-56,-1,-1,0
9233,-589824,56,-56,-1,-1,0
9266,-655360,56,-56,-1,-1,0
9300,-720896,56,-56,-1,-1,0
9333,-720896,56,-56,-1,-1,0
9366,-786432,56,-56,-1,-1,0
9400,-786432,56,-56,-1,-1,0
9433,-851968,56,-56,-1,-1,0
9466,-983040,56,-56,-1,-1,0
9500,-983040,56,-56,-1,-1,0
9533,-983040,56,-56,-1,-1,0
9566,-720896,56,-56,-1,-1,0
9600,-1114112,56,-56,-1,-1,0
9633,-1114112,56,-56,-1,-1,0
9666,8454144,56,-56,-1,-1,0
9700,262144,56,-56,-1,-1,0
9733,-655360,56,-56,-1,-1,0
9766,-524288,56,-56,-1,-1,0
9800,-131072,56,-56,-1,-1,0
9833,655360,56,-56,-1,-1,0
9866,2293760,56,-56,-1,-1,0
9900,3014656,56,-56,-1,-1,0
9933,393216,55,-56,-1,-1,0
9966,-655360,55,-56,-1,-1,0
10000,-786432,55,-56,-1,-1,0
10033,-720896,55,-56,-1,-1,0
10066,-524288,55,-56,-1,-1,0
10100,-524288,55,-56,-1,-1,0
10133,-589824,55,-56,-1,-1,0
10166,-720896,55,-56,-1,-1,0
10200,-851968,55,-56,-1,-1,0
10233,-851968,55,-56,-1,-1,0
10266,-917504,55,-56,-1,-1,0
10300,-851968,55,-56,-1,-1,0
10333,-917504,55,-56,-1,-1,0
10366,-851968,55,-56,-1,-1,0
10400,-786432,55,-56,-1,-1,0
10433,-655360,55,-56,-1,-1,0
10466,-720896,55,-56,-1,-1,0
10500,-917504,55,-56,-1,-1,0
10533,-1376256,55,-56,-1,-1,0
10566,12910592,55,-56,-1,-1,0
10600,-131072,55,-56,-1,-1,0
10633,-524288,55,-56,-1,-1,0
10666,-196608,55,-56,-1,-1,0
10700,262144,55,-56,-1,-1,0
10733,1376256,55,-56,-1,-1,0
10766,2949120,55,-56,-1,-1,0
10800,2162688,55,-56,-1,-1,0
10833,-262144,55,-56,-1,-1,0
10866,-720896,55,-56,-1,-1,0
10900,-720896,56,-56,-1,-1,0
10933,-589824,56,-56,-1,-1,0
10966,-524288,56,-56,-1,-1,0
11000,-524288,56,-56,-1,-1,0
11033,-655360,56,-56,-1,-1,0
11066,-786432,56,-56,-1,-1,0
11100,-720896,56,-56,-1,-1,0
11133,-786432,56,-56,-1,-1,0
11166,-786432,56,-56,-1,-1,0
11200,-720896,56,-56,-1,-1,0
11233,-786432,56,-56,-1,-1,0
11266,-720896,56,-56,-1,-1,0
11300,-786432,56,-56,-1,-1,0
11333,-786432,56,-56,-1,-1,0
11366,-851968,56,-56,-1,-1,0
11400,-589824,56,-56,-1,-1,0
11433,-851968,56,-56,-1,-1,0
11466,-917504,56,-56,-1,-1,0
11500,-589824,56,-56,-1,-1,0
11533,7274496,56,-56,-1,-1,0
11566,-524288,56,-56,-1,-1,0
11600,-589824,56,-56,-1,-1,0
11633,-327680,56,-56,-1,-1,0
11666,131072,56,-56,-1,-1,0
11700,1376256,56,-56,-1,-1,0
11733,2818048,56,-56,-1,-1,0
11766,1572864,56,-56,-1,-1,0
11800,-393216,56,-56,-1,-1,0
11833,-720896,56,-56,-1,-1,0
11866,-655360,56,-56,-1,-1,0
11900,-524288,56,-56,-1,-1,0
11933,-589824,56,-56,-1,-1,0
11966,-655360,56,-56,-1,-1,0
12000,-655360,56,-56,-1,-1,0
12033,-720896,56,-56,-1,-1,0
12066,-851968,56,-56,-1,-1,0
12100,-917504,56,-56,-1,-1,0
12133,-917504,56,-56,-1,-1,0
12166,-917504,56,-56,-1,-1,0
12200,-917504,56,-56,-1,-1,0
12233,-851968,56,-56,-1,-1,0
12266,-917504,56,-56,-1,-1,0
12300,-720896,56,-56,-1,-1,0
12333,-786432,56,-56,-1,-1,0
12366,-851968,56,-56,-1,-1,0
12400,-1245184,56,-56,-1,-1,0
12433,11862016,56,-56,-1,-1,0
12466,-131072,56,-56,-1,-1,0
12500,-393216,56,-56,-1,-1,0
12533,-262144,56,-56,-1,-1,0
12566,196608,56,-56,-1,-1,0
12600,1376256,56,-56,-1,-1,0
12633,3014656,56,-56,-1,-1,0
12666,2097152,56,-56,-1,-1,0
12700,-262144,56,-56,-1,-1,0
12733,-655360,56,-56,-1,-1,0
12766,-655360,55,-56,-1,-1,0
12800,-589824,55,-56,-1,-1,0
12833,-458752,55,-56,-1,-1,0
12866,-589824,55,-56,-1,-1,0
12900,-720896,55,-56,-1,-1,0
12933,-786432,55,-56,-1,-1,0
12966,-786432,55,-56,-1,-1,0
13000,-786432,55,-56,-1,-1,0
13033,-917504,55,-56,-1,-1,0
13066,-786432,55,-56,-1,-1,0
13100,-851968,55,-56,-1,-1,0
13133,-851968,55,-56,-1,-1,0
13166,-851968,55,-56,-1,-1,0
13200,-851968,55,-56,-1,-1,0
13233,-917504,55,-56,-1,-1,0
13266,-851968,55,-56,-1,-1,0
13299,-851968,55,-56,-1,-1,0
13333,-983040,55,-56,-1,-1,0
13366,11599872,55,-56,-1,-1,0
13400,458752,55,-56,-1,-1,0
13433,-524288,55,-56,-1,-1,0
13466,-393216,55,-56,-1,-1,0
13500,-65536,55,-56,-1,-1,0
13533,786432,55,-56,-1,-1,0
13566,2359296,55,-56,-1,-1,0
13600,2883584,55,-56,-1,-1,0
13633,393216,55,-56,-1,-1,0
13666,-524288,55,-56,-1,-1,0
13700,-589824,55,-56,-1,-1,0
13733,-589824,55,-56,-1,-1,0
13766,-524288,54,-56,-1,-1,0
13799,-524288,54,-56,-1,-1,0
13833,-655360,54,-56,-1,-1,0
13866,-655360,54,-56,-1,-1,0
13900,-720896,54,-56,-1,-1,0
13933,-786432,54,-56,-1,-1,0
13966,-786432,54,-56,-1,-1,0
14000,-786432,54,-56,-1,-1,0
14033,-786432,54,-56,-1,-1,0
14066,-786432,54,-56,-1,-1,0
14100,-786432,54,-56,-1,-1,0
14133,-786432,54,-56,-1,-1,0
14166,-786432,54,-56,-1,-1,0
14200,-786432,54,-56,-1,-1,0
14233,-786432,54,-56,-1,-1,0
14266,-524288,54,-56,-1,-1,0
14299,-851968,54,-56,-1,-1,0
14333,-917504,54,-56,-1,-1,0
14366,9699328,54,-56,-1,-1,0
14400,655360,54,-56,-1,-1,0
14433,-458752,54,-56,-1,-1,0
14466,-393216,54,-56,-1,-1,0
14500,-65536,54,-56,-1,-1,0
14533,720896,54,-56,-1,-1,0
14566,2097152,54,-56,-1,-1,0
14600,2818048,54,-56,-1,-1,0
14633,589824,54,-56,-1,-1,0
14666,-458752,54,-56,-1,-1,0
14700,-524288,54,-56,-1,-1,0
14733,-458752,54,-56,-1,-1,0
14766,-393216,53,-56,-1,-1,0
14799,-458752,53,-56,-1,-1,0
14833,-589824,53,-56,-1,-1,0
14866,-655360,53,-56,-1,-1,0
14900,-786432,53,-56,-1,-1,0
14933,-720896,53,-56,-1,-1,0
14966,-720896,53,-56,-1,-1,0
15000,-786432,53,-56,-1,-1,0
15033,-851968,53,-56,-1,-1,0
15066,-851968,53,-56,-1,-1,0
15100,-917504,53,-56,-1,-1,0
15133,-917504,53,-56,-1,-1,0
15166,-851968,53,-56,-1,-1,0
15200,-851968,53,-56,-1,-1,0
15233,-917504,53,-56,-1,-1,0
15266,-786432,53,-56,-1,-1,0
15299,-786432,53,-56,-1,-1,0
15333,-917504,53,-56,-1,-1,0
15366,-1245184,53,-56,-1,-1,0
15400,11665408,53,-56,-1,-1,0
15433,-196608,53,-56,-1,-1,0
15466,-393216,53,-56,-1,-1,0
15500,-131072,53,-56,-1,-1,0
15533,262144,53,-56,-1,-1,0
15566,1441792,53,-56,-1,-1,0
15600,2883584,53,-56,-1,-1,0
15633,2293760,53,-56,-1,-1,0
15666,-65536,53,-56,-1,-1,0
15700,-655360,52,-56,-1,-1,0
15733,-589824,52,-56,-1,-1,0
15766,-458752,52,-56,-1,-1,0
15799,-393216,52,-56,-1,-1,0
15833,-589824,52,-56,-1,-1,0
15866,-720896,52,-56,-1,-1,0
15900,-786432,52,-56,-1,-1,0
15933,-851968,52,-56,-1,-1,0
15966,-917504,52,-56,-1,-1,0
16000,-917504,52,-56,-1,-1,0
16033,-917504,52,-56,-1,-1,0
16066,-917504,52,-56,-1,-1,0
16100,-983040,52,-56,-1,-1,0
16133,-917504,52,-56,-1,-1,0
16166,-851968,52,-56,-1,-1,0
16200,-655360,52,-56,-1,-1,0
16233,-917504,52,-56,-1,-1,0
16266,-1048576,52,-56,-1,-1,0
16300,13107200,52,-56,-1,-1,0
16333,196608,52,-56,-1,-1,0
16366,-524288,52,-56,-1,-1,0
16400,-327680,52,-56,-1,-1,0
16433,0,52,-56,-1,-1,0
16466,851968,52,-56,-1,-1,0
16500,2424832,52,-56,-1,-1,0
16533,2686976,52,-56,-1,-1,0
16566,196608,52,-56,-1,-1,0
16600,-655360,52,-56,-1,-1,0
16633,-655360,53,-56,-1,-1,0
16666,-524288,53,-56,-1,-1,0
16700,-458752,53,-56,-1,-1,0
16733,-524288,53,-56,-1,-1,0
16766,-655360,53,-56,-1,-1,0
16800,-720896,53,-56,-1,-1,0
16833,-720896,53,-56,-1,-1,0
16866,-786432,53,-56,-1,-1,0
16900,-786432,53,-56,-1,-1,0
16933,-786432,53,-56,-1,-1,0
16966,-786432,53,-56,-1,-1,0
17000,-786432,53,-56,-1,-1,0
17033,-786432,53,-56,-1,-1,0
17066,-786432,53,-56,-1,-1,0
17100,-786432,53,-56,-1,-1,0
17133,-458752,53,-56,-1,-1,0
17166,-851968,53,-56,-1,-1,0
17200,-851968,53,-56,-1,-1,0
17233,7733248,53,-56,-1,-1,0
17266,655360,53,-56,-1,-1,0
17300,-458752,53,-56,-1,-1,0
17333,-393216,53,-56,-1,-1,0
17366,-65536,53,-56,-1,-1,0
17400,524288,53,-56,-1,-1,0
17433,1835008,53,-56,-1,-1,0
17466,2621440,53,-56,-1,-1,0
17500,655360,53,-56,-1,-1,0
17533,-524288,53,-56,-1,-1,0
17566,-655360,53,-56,-1,-1,0
17600,-524288,53,-56,-1,-1,0
17633,-524288,53,-56,-1,-1,0
17666,-589824,53,-56,-1,-1,0
17700,-1048576,53,-56,-1,-1,0
17733,-655360,53,-56,-1,-1,0
17766,-655360,53,-56,-1,-1,0
17800,-720896,53,-56,-1,-1,0
17833,-851968,53,-56,-1,-1,0
17866,-851968,53,-56,-1,-1,0
17900,-851968,53,-56,-1,-1,0
17933,-917504,53,-56,-1,-1,0
17966,-851968,53,-56,-1,-1,0
18000,-917504,53,-56,-1,-1,0
18033,-851968,53,-56,-1,-1,0
18066,-720896,53,-56,-1,-1,0
18100,-983040,53,-56,-1,-1,0
18133,-1179648,53,-56,-1,-1,0
18166,13959168,53,-56,-1,-1,0
18200,65536,53,-56,-1,-1,0
18233,-524288,53,-56,-1,-1,0
18266,-393216,53,-56,-1,-1,0
18300,-65536,53,-56,-1,-1,0
18333,720896,53,-56,-1,-1,0
18366,2097152,53,-56,-1,-1,0
18400,2293760,53,-56,-1,-1,0
18433,65536,53,-56,-1,-1,0
18466,-655360,53,-56,-1,-1,0
18500,-655360,53,-56,-1,-1,0
18533,-524288,53,-56,-1,-1,0
18566,-524288,53,-56,-1,-1,0
18600,-589824,53,-56,-1,-1,0
18633,-720896,53,-56,-1,-1,0
18666,-786432,53,-56,-1,-1,0
18700,-851968,53,-56,-1,-1,0
18733,-917504,53,-56,-1,-1,0
18766,-917504,53,-56,-1,-1,0
18800,-917504,53,-56,-1,-1,0
18833,-917504,53,-56,-1,-1,0
18866,-917504,53,-56,-1,-1,0
18900,-786432,53,-56,-1,-1,0
18933,-786432,53,-56,-1,-1,0
18966,-983040,53,-56,-1,-1,0
19000,-1310720,53,-56,-1,-1,0
19033,10878976,53,-56,-1,-1,0
19066,-327680,53,-56,-1,-1,0
19100,-524288,53,-56,-1,-1,0
19133,-327680,53,-56,-1,-1,0
19166,65536,53,-56,-1,-1,0
19200,1114112,53,-56,-1,-1,0
19233,2424832,53,-56,-1,-1,0
19266,1703936,53,-56,-1,-1,0
19300,-327680,53,-56,-1,-1,0
19333,-720896,53,-56,-1,-1,0
19366,-720896,53,-56,-1,-1,0
19400,-589824,53,-56,-1,-1,0
19433,-524288,53,-56,-1,-1,0
19466,-655360,53,-56,-1,-1,0
19500,-851968,53,-56,-1,-1,0
19533,-851968,53,-56,-1,-1,0
19566,-983040,53,-56,-1,-1,0
19600,-983040,53,-56,-1,-1,0
19633,-1048576,53,-56,-1,-1,0
19666,-1114112,53,-56,-1,-1,0
19700,-983040,53,-56,-1,-1,0
19733,-983040,53,-56,-1,-1,0
19766,-1114112,53,-56,-1,-1,0
19800,-917504,53,-56,-1,-1,0
19833,8388608,53,-56,-1,-1,0
19866,-393216,53,-56,-1,-1,0
19900,-524288,53,-56,-1,-1,0
19933,-262144,53,-56,-1,-1,0
19966,262144,53,-56,-1,-1,0
20000,1572864,53,-56,-1,-1,0
20033,2949120,53,-56,-1,-1,0
20066,1703936,53,-56,-1,-1,0
20100,-262144,53,-56,-1,-1,0
20133,-655360,53,-56,-1,-1,0
20166,-655360,53,-56,-1,-1,0
20200,-524288,53,-56,-1,-1,0
20233,-458752,53,-56,-1,-1,0
20266,-655360,53,-56,-1,-1,0
20300,-786432,53,-56,-1,-1,0
20333,-851968,53,-56,-1,-1,0
20366,-983040,53,-56,-1,-1,0
20400,-983040,53,-56,-1,-1,0
20433,-917504,53,-56,-1,-1,0
20466,-983040,53,-56,-1,-1,0
20500,-983040,53,-56,-1,-1,0
20533,-983040,53,-56,-1,-1,0
20566,-655360,53,-56,-1,-1,0
20600,-1048576,53,-56,-1,-1,0
20633,-1114112,53,-56,-1,-1,0
20666,10878976,53,-56,-1,-1,0
20700,262144,53,-56,-1,-1,0
20733,-589824,53,-56,-1,-1,0
20766,-458752,53,-56,-1,-1,0
20800,-131072,53,-56,-1,-1,0
20833,589824,53,-56,-1,-1,0
20866,2031616,53,-56,-1,-1,0
20900,2424832,53,-56,-1,-1,0
20933,196608,53,-56,-1,-1,0
20966,-655360,53,-56,-1,-1,0
21000,-655360,53,-56,-1,-1,0
21033,-524288,53,-56,-1,-1,0
21066,-458752,53,-56,-1,-1,0
21100,-524288,53,-56,-1,-1,0
21133,-655360,53,-56,-1,-1,0
21166,-720896,53,-56,-1,-1,0
21200,-720896,53,-56,-1,-1,0
21233,-786432,53,-56,-1,-1,0
21266,-786432,53,-56,-1,-1,0
21300,-851968,53,-56,-1,-1,0
21333,-851968,53,-56,-1,-1,0
21366,-786432,53,-56,-1,-1,0
21400,-851968,53,-56,-1,-1,0
21433,-851968,53,-56,-1,-1,0
21466,-589824,53,-56,-1,-1,0
21500,-983040,53,-56,-1,-1,0
21533,-1114112,53,-56,-1,-1,0
21566,13172736,53,-56,-1,-1,0
21600,196608,53,-56,-1,-1,0
21633,-589824,53,-56,-1,-1,0
21666,-393216,53,-56,-1,-1,0
21700,-65536,53,-56,-1,-1,0
21733,720896,53,-56,-1,-1,0
21766,2162688,53,-56,-1,-1,0
21800,2359296,53,-56,-1,-1,0
21833,131072,53,-56,-1,-1,0
21866,-655360,53,-56,-1,-1,0
21900,-589824,54,-56,-1,-1,0
21933,-458752,54,-56,-1,-1,0
21966,-458752,54,-56,-1,-1,0
22000,-524288,54,-56,-1,-1,0
22033,-655360,54,-56,-1,-1,0
22066,-720896,54,-56,-1,-1,0
22100,-720896,54,-56,-1,-1,0
22133,-786432,54,-56,-1,-1,0
22166,-786432,54,-56,-1,-1,0
22200,-917504,54,-56,-1,-1,0
22233,-851968,54,-56,-1,-1,0
22266,-851968,54,-56,-1,-1,0
22300,-917504,54,-56,-1,-1,0
22333,-917504,54,-56,-1,-1,0
22366,-851968,54,-56,-1,-1,0
22400,-786432,54,-56,-1,-1,0
22433,-983040,54,-56,-1,-1,0
22466,-1376256,54,-56,-1,-1,0
22500,14286848,54,-56,-1,-1,0
22533,0,54,-56,-1,-1,0
22566,-524288,54,-56,-1,-1,0
22600,-327680,54,-56,-1,-1,0
22633,131072,54,-56,-1,-1,0
22666,1048576,54,-56,-1,-1,0
22700,2621440,54,-56,-1,-1,0
22733,2424832,54,-56,-1,-1,0
22766,-131072,54,-56,-1,-1,0
22800,-720896,54,-56,-1,-1,0
22833,-720896,54,-56,-1,-1,0
22866,-524288,54,-56,-1,-1,0
22900,-458752,54,-56,-1,-1,0
22933,-589824,54,-56,-1,-1,0
22966,-720896,54,-56,-1,-1,0
23000,-851968,54,-56,-1,-1,0
23033,-917504,54,-56,-1,-1,0
23066,-917504,54,-56,-1,-1,0
23100,-917504,54,-56,-1,-1,0
23133,-983040,54,-56,-1,-1,0
23166,-983040,54,-56,-1,-1,0
23200,-983040,54,-56,-1,-1,0
23233,-655360,54,-56,-1,-1,0
23266,-983040,54,-56,-1,-1,0
23300,-1048576,54,-56,-1,-1,0
23333,3145728,54,-56,-1,-1,0
23366,1835008,54,-56,-1,-1,0
23400,-589824,54,-56,-1,-1,0
23433,-524288,54,-56,-1,-1,0
23466,-196608,54,-56,-1,-1,0
23500,458752,54,-56,-1,-1,0
23533,1900544,54,-56,-1,-1,0
23566,2883584,54,-56,-1,-1,0
23600,851968,54,-56,-1,-1,0
23633,-458752,54,-56,-1,-1,0
23666,-720896,54,-56,-1,-1,0
23700,-589824,55,-56,-1,-1,0
23733,-524288,55,-56,-1,-1,0
23766,-458752,55,-56,-1,-1,0
23800,-524288,55,-56,-1,-1,0
23833,-589824,55,-56,-1,-1,0
23866,-655360,55,-56,-1,-1,0
23900,-720896,55,-56,-1,-1,0
23933,-720896,55,-56,-1,-1,0
23966,-720896,55,-56,-1,-1,0
24000,-720896,55,-56,-1,-1,0
24033,-720896,55,-56,-1,-1,0
24066,-786432,55,-56,-1,-1,0
24100,-786432,55,-56,-1,-1,0
24133,-851968,55,-56,-1,-1,0
24166,-786432,55,-56,-1,-1,0
24200,-524288,55,-56,-1,-1,0
24233,-917504,55,-56,-1,-1,0
24266,-851968,55,-56,-1,-1,0
24300,7340032,55,-56,-1,-1,0
24333,720896,55,-56,-1,-1,0
24366,-589824,55,-56,-1,-1,0
24400,-458752,55,-56,-1,-1,0
24433,-131072,55,-56,-1,-1,0
24466,589824,55,-56,-1,-1,0
24500,1966080,55,-56,-1,-1,0
24533,2752512,55,-56,-1,-1,0
24566,655360,55,-56,-1,-1,0
24600,-524288,55,-56,-1,-1,0
24633,-589824,55,-56,-1,-1,0
24666,-458752,55,-56,-1,-1,0
24700,-393216,55,-56,-1,-1,0
24733,-393216,55,-56,-1,-1,0
24766,-524288,55,-56,-1,-1,0
24800,-589824,55,-56,-1,-1,0
24833,-655360,55,-56,-1,-1,0
24866,-655360,55,-56,-1,-1,0
24900,-786432,55,-56,-1,-1,0
24933,-786432,55,-56,-1,-1,0
24966,-851968,55,-56,-1,-1,0
25000,-851968,55,-56,-1,-1,0
25033,-917504,55,-56,-1,-1,0
25066,-851968,55,-56,-1,-1,0
25100,-851968,55,-56,-1,-1,0
25133,-851968,55,-56,-1,-1,0
25166,-786432,55,-56,-1,-1,0
25200,-655360,55,-56,-1,-1,0
25233,-917504,55,-56,-1,-1,0
25266,-983040,55,-56,-1,-1,0
25300,9764864,55,-56,-1,-1,0
25333,524288,55,-56,-1,-1,0
25366,-524288,55,-56,-1,-1,0
25400,-393216,55,-56,-1,-1,0
25433,0,55,-56,-1,-1,0
25466,786432,55,-56,-1,-1,0
25500,2228224,55,-56,-1,-1,0
25533,2949120,55,-56,-1,-1,0
25566,524288,55,-56,-1,-1,0
25600,-524288,55,-56,-1,-1,0
25633,-589824,55,-56,-1,-1,0
25666,-393216,55,-56,-1,-1,0
25700,-327680,55,-56,-1,-1,0
25733,-327680,55,-56,-1,-1,0
25766,-458752,55,-56,-1,-1,0
25800,-393216,55,-56,-1,-1,0
25833,-327680,55,-56,-1,-1,0
25866,-327680,55,-56,-1,-1,0
25900,-458752,55,-56,-1,-1,0
25933,-327680,55,-56,-1,-1,0
25966,-393216,55,-56,-1,-1,0
26000,-524288,55,-56,-1,-1,0
26033,-524288,55,-56,-1,-1,0
26066,-458752,55,-56,-1,-1,0
26099,-589824,55,-56,-1,-1,0
26133,-786432,55,-56,-1,-1,0
26166,-720896,55,-56,-1,-1,0
26200,-589824,55,-56,-1,-1,0
26233,-983040,55,-56,-1,-1,0
26266,-1179648,55,-56,-1,-1,0
26300,11665408,55,-56,-1,-1,0
26333,0,55,-56,-1,-1,0
26366,-720896,55,-56,-1,-1,0
26400,-589824,55,-56,-1,-1,0
26433,-262144,55,-56,-1,-1,0
26466,458752,55,-56,-1,-1,0
26500,1835008,55,-56,-1,-1,0
26533,2228224,55,-56,-1,-1,0
26566,65536,55,-56,-1,-1,0
26599,-720896,54,-56,-1,-1,0
26633,-720896,54,-56,-1,-1,0
26666,-458752,54,-56,-1,-1,0
26700,-393216,54,-56,-1,-1,0
26733,-458752,54,-56,-1,-1,0
26766,-458752,54,-56,-1,-1,0
26800,-524288,54,-56,-1,-1,0
26833,-589824,54,-56,-1,-1,0
26866,-589824,54,-56,-1,-1,0
26900,-589824,54,-56,-1,-1,0
26933,-655360,54,-56,-1,-1,0
26966,-655360,54,-56,-1,-1,0
27000,-655360,54,-56,-1,-1,0
27033,-589824,54,-56,-1,-1,0
27066,-655360,54,-56,-1,-1,0
27099,-327680,54,-56,-1,-1,0
27133,-655360,54,-56,-1,-1,0
27166,-720896,54,-56,-1,-1,0
27200,9371648,54,-56,-1,-1,0
27233,524288,54,-56,-1,-1,0
27266,-524288,54,-56,-1,-1,0
27300,-327680,54,-56,-1,-1,0
27333,65536,54,-56,-1,-1,0
27366,917504,54,-56,-1,-1,0
27400,2293760,54,-56,-1,-1,0
27433,3014656,54,-56,-1,-1,0
27466,851968,54,-56,-1,-1,0
27500,-131072,54,-56,-1,-1,0
27533,-131072,54,-56,-1,-1,0
27566,0,54,-56,-1,-1,0
27599,0,54,-56,-1,-1,0
27633,-65536,54,-56,-1,-1,0
27666,-131072,54,-56,-1,-1,0
27700,-196608,54,-56,-1,-1,0
27733,-262144,54,-56,-1,-1,0
27766,-393216,54,-56,-1,-1,0
27800,-458752,54,-56,-1,-1,0
27833,-458752,54,-56,-1,-1,0
27866,-393216,54,-56,-1,-1,0
27900,-458752,54,-56,-1,-1,0
27933,-524288,54,-56,-1,-1,0
27966,-589824,54,-56,-1,-1,0
28000,-458752,54,-56,-1,-1,0
28033,-1048576,54,-56,-1,-1,0
28066,-1179648,54,-56,-1,-1,0
28099,8192000,54,-56,-1,-1,0
28133,0,54,-56,-1,-1,0
28166,-1114112,54,-56,-1,-1,0
28200,-917504,54,-56,-1,-1,0
28233,-589824,54,-56,-1,-1,0
28266,65536,54,-56,-1,-1,0
28300,1441792,54,-56,-1,-1,0
28333,2031616,54,-56,-1,-1,0
28366,-131072,54,-56,-1,-1,0
28400,-1114112,54,-56,-1,-1,0
28433,-1114112,54,-56,-1,-1,0
28466,-983040,54,-56,-1,-1,0
28500,-720896,54,-56,-1,-1,0
28533,-786432,54,-56,-1,-1,0
28566,-917504,54,-56,-1,-1,0
28599,-983040,54,-56,-1,-1,0
28633,-1048576,54,-56,-1,-1,0
28666,-1048576,54,-56,-1,-1,0
28700,-1114112,54,-56,-1,-1,0
28733,-1048576,54,-56,-1,-1,0
28766,-983040,54,-56,-1,-1,0
28800,-983040,54,-56,-1,-1,0
28833,-851968,54,-56,-1,-1,0
28866,-917504,54,-56,-1,-1,0
28900,-589824,54,-56,-1,-1,0
28933,-851968,54,-56,-1,-1,0
28966,-917504,54,-56,-1,-1,0
29000,7208960,54,-56,-1,-1,0
29033,655360,54,-56,-1,-1,0
29066,-720896,54,-56,-1,-1,0
29099,-589824,54,-56,-1,-1,0
29133,-262144,54,-56,-1,-1,0
29166,393216,54,-56,-1,-1,0
29200,1900544,54,-56,-1,-1,0
29233,2490368,54,-56,-1,-1,0
29266,393216,54,-56,-1,-1,0
29300,-720896,54,-56,-1,-1,0
29333,-851968,54,-56,-1,-1,0
29366,-786432,54,-56,-1,-1,0
29400,-851968,54,-56,-1,-1,0
29433,-983040,54,-56,-1,-1,0
29466,-983040,54,-56,-1,-1,0
29500,-1048576,54,-56,-1,-1,0
29533,-1048576,54,-56,-1,-1,0
29566,-1048576,54,-56,-1,-1,0
29599,-983040,54,-56,-1,-1,0
29633,-983040,54,-56,-1,-1,0
29666,-917504,54,-56,-1,-1,0
29700,-917504,54,-56,-1,-1,0
29733,-851968,54,-56,-1,-1,0
29766,-917504,54,-56,-1,-1,0
29800,-720896,54,-56,-1,-1,0
29833,-786432,54,-56,-1,-1,0
29866,-983040,54,-56,-1,-1,0
29900,-1441792,54,-56,-1,-1,0
29933,13500416,54,-56,-1,-1,0
29966,-131072,54,-56,-1,-1,0
30000,-589824,54,-56,-1,-1,0
30033,-327680,54,-56,-1,-1,0
30066,0,54,-56,-1,-1,0
30099,1114112,54,-56,-1,-1,0
30133,2490368,54,-56,-1,-1,0
30166,2097152,54,-56,-1,-1,0
30200,-131072,53,-56,-1,-1,0
30233,-655360,53,-56,-1,-1,0
30266,-589824,53,-56,-1,-1,0
30300,-458752,53,-56,-1,-1,0
30333,-393216,53,-56,-1,-1,0
30366,-458752,53,-56,-1,-1,0
30400,-720896,53,-56,-1,-1,0
30433,-851968,53,-56,-1,-1,0
30466,-851968,53,-56,-1,-1,0
30500,-851968,53,-56,-1,-1,0
30533,-851968,53,-56,-1,-1,0
30566,-786432,53,-56,-1,-1,0
30599,-851968,53,-56,-1,-1,0
30633,-851968,53,-56,-1,-1,0
30666,-917504,53,-56,-1,-1,0
30700,-589824,53,-56,-1,-1,0
30733,-917504,53,-56,-1,-1,0
30766,-917504,53,-56,-1,-1,0
30800,1048576,53,-56,-1,-1,0
30833,3932160,53,-56,-1,-1,0
30866,-458752,53,-56,-1,-1,0
30900,-458752,53,-56,-1,-1,0
30933,-196608,53,-56,-1,-1,0
30966,327680,53,-56,-1,-1,0
31000,1638400,53,-56,-1,-1,0
31033,2752512,53,-56,-1,-1,0
31066,1245184,53,-56,-1,-1,0
31099,-458752,54,-56,-1,-1,0
31133,-720896,54,-56,-1,-1,0
31166,-589824,54,-56,-1,-1,0
31200,-524288,54,-56,-1,-1,0
31233,-589824,54,-56,-1,-1,0
31266,-720896,54,-56,-1,-1,0
31300,-786432,54,-56,-1,-1,0
31333,-917504,54,-56,-1,-1,0
31366,-851968,54,-56,-1,-1,0
31400,-917504,54,-56,-1,-1,0
31433,-917504,54,-56,-1,-1,0
31466,-917504,54,-56,-1,-1,0
31500,-983040,54,-56,-1,-1,0
31533,-917504,54,-56,-1,-1,0
31566,-983040,54,-56,-1,-1,0
31599,-655360,54,-56,-1,-1,0
31633,-917504,54,-56,-1,-1,0
31666,-917504,54,-56,-1,-1,0
31700,1245184,54,-56,-1,-1,0
31733,3670016,54,-56,-1,-1,0
31766,-458752,54,-56,-1,-1,0
31800,-458752,54,-56,-1,-1,0
31833,-131072,54,-56,-1,-1,0
31866,327680,54,-56,-1,-1,0
31900,1441792,54,-56,-1,-1,0
31933,2490368,54,-56,-1,-1,0
31966,1114112,54,-56,-1,-1,0
32000,-393216,54,-56,-1,-1,0
32033,-524288,54,-56,-1,-1,0
32066,-458752,54,-56,-1,-1,0
32100,-393216,54,-56,-1,-1,0
32133,-458752,54,-56,-1,-1,0
32166,-655360,54,-56,-1,-1,0
32200,-655360,54,-56,-1,-1,0
32233,-786432,54,-56,-1,-1,0
32266,-851968,54,-56,-1,-1,0
32299,-851968,54,-56,-1,-1,0
32333,-786432,54,-56,-1,-1,0
32366,-786432,54,-56,-1,-1,0
32400,-786432,54,-56,-1,-1,0
32433,-786432,54,-56,-1,-1,0
32466,-786432,54,-56,-1,-1,0
32500,-720896,54,-56,-1,-1,0
32533,-458752,54,-56,-1,-1,0
32566,-851968,54,-56,-1,-1,0
32600,-917504,54,-56,-1,-1,0
32633,10420224,54,-56,-1,-1,0
32666,393216,54,-56,-1,-1,0
32700,-524288,54,-56,-1,-1,0
32733,-393216,54,-56,-1,-1,0
32766,0,54,-56,-1,-1,0
32800,720896,54,-56,-1,-1,0
32833,2031616,54,-56,-1,-1,0
32866,2621440,54,-56,-1,-1,0
32900,393216,54,-56,-1,-1,0
32933,-655360,54,-56,-1,-1,0
32966,-720896,54,-56,-1,-1,0
33000,-589824,54,-56,-1,-1,0
33033,-524288,54,-56,-1,-1,0
33066,-655360,54,-56,-1,-1,0
33100,-786432,54,-56,-1,-1,0
33133,-851968,54,-56,-1,-1,0
33166,-851968,54,-56,-1,-1,0
33200,-917504,54,-56,-1,-1,0
33233,-917504,54,-56,-1,-1,0
33266,-917504,54,-56,-1,-1,0
33300,-917504,54,-56,-1,-1,0
33333,-917504,54,-56,-1,-1,0
33366,-917504,54,-56,-1,-1,0
33400,-851968,54,-56,-1,-1,0
33433,-589824,54,-56,-1,-1,0
33466,-917504,54,-56,-1,-1,0
33500,-983040,54,-56,-1,-1,0
33533,12255232,54,-56,-1,-1,0
33566,327680,54,-56,-1,-1,0
33600,-655360,54,-56,-1,-1,0
33633,-458752,54,-56,-1,-1,0
33666,-131072,54,-56,-1,-1,0
33700,524288,54,-56,-1,-1,0
33733,1835008,54,-56,-1,-1,0
33766,2293760,54,-56,-1,-1,0
33800,131072,54,-56,-1,-1,0
33833,-655360,55,-56,-1,-1,0
33866,-655360,55,-56,-1,-1,0
33900,-524288,55,-56,-1,-1,0
33933,-458752,55,-56,-1,-1,0
33966,-524288,55,-56,-1,-1,0
34000,-589824,55,-56,-1,-1,0
34033,-786432,55,-56,-1,-1,0
34066,-786432,55,-56,-1,-1,0
34100,-786432,55,-56,-1,-1,0
34133,-851968,55,-56,-1,-1,0
34166,-851968,55,-56,-1,-1,0
34200,-851968,55,-56,-1,-1,0
34233,-851968,55,-56,-1,-1,0
34266,-851968,55,-56,-1,-1,0
34300,-786432,55,-56,-1,-1,0
34333,-524288,55,-56,-1,-1,0
34366,-851968,55,-56,-1,-1,0
34400,-786432,55,-56,-1,-1,0
34433,5308416,55,-56,-1,-1,0
34466,983040,55,-56,-1,-1,0
34500,-458752,55,-56,-1,-1,0
34533,-327680,55,-56,-1,-1,0
34566,0,55,-56,-1,-1,0
34600,262144,55,-56,-1,-1,0
34633,1441792,55,-56,-1,-1,0
34666,2293760,55,-56,-1,-1,0
34700,720896,55,-56,-1,-1,0
34733,-655360,55,-56,-1,-1,0
34766,-655360,55,-56,-1,-1,0
34800,-524288,55,-56,-1,-1,0
34833,-524288,55,-56,-1,-1,0
34866,-524288,55,-56,-1,-1,0
34900,-720896,55,-56,-1,-1,0
34933,-851968,55,-56,-1,-1,0
34966,-786432,55,-56,-1,-1,0
35000,-917504,55,-56,-1,-1,0
35033,-851968,55,-56,-1,-1,0
35066,-786432,55,-56,-1,-1,0
35100,-1048576,55,-56,-1,-1,0
35133,-983040,55,-56,-1,-1,0
35166,-917504,55,-56,-1,-1,0
35200,-720896,55,-56,-1,-1,0
35233,-524288,55,-56,-1,-1,0
35266,-1048576,55,-56,-1,-1,0
35300,-851968,55,-56,-1,-1,0
35333,7536640,55,-56,-1,-1,0
35366,524288,55,-56,-1,-1,0
35400,-524288,55,-56,-1,-1,0
35433,-327680,55,-56,-1,-1,0
35466,0,55,-56,-1,-1,0
35500,589824,55,-56,-1,-1,0
35533,1638400,55,-56,-1,-1,0
35566,2359296,55,-56,-1,-1,0
35600,524288,55,-56,-1,-1,0
35633,-655360,55,-56,-1,-1,0
35666,-589824,55,-56,-1,-1,0
35700,-458752,55,-56,-1,-1,0
35733,-393216,55,-56,-1,-1,0
35766,-393216,55,-56,-1,-1,0
35800,-458752,55,-56,-1,-1,0
35833,-589824,55,-56,-1,-1,0
35866,-786432,55,-56,-1,-1,0
35900,-720896,55,-56,-1,-1,0
35933,-851968,55,-56,-1,-1,0
35966,-983040,55,-56,-1,-1,0
36000,-917504,55,-56,-1,-1,0
36033,-917504,55,-56,-1,-1,0
36066,-655360,55,-56,-1,-1,0
36100,-917504,55,-56,-1,-1,0
36133,-983040,55,-56,-1,-1,0
36166,1310720,55,-56,-1,-1,0
36200,3080192,55,-56,-1,-1,0
36233,-458752,55,-56,-1,-1,0
36266,-458752,55,-56,-1,-1,0
36300,-131072,55,-56,-1,-1,0
36333,458752,55,-56,-1,-1,0
36366,1638400,55,-56,-1,-1,0
36400,2686976,55,-56,-1,-1,0
36433,1114112,55,-56,-1,-1,0
36466,-262144,55,-56,-1,-1,0
36500,-524288,55,-56,-1,-1,0
36533,-458752,55,-56,-1,-1,0
36566,-393216,55,-56,-1,-1,0
36600,-524288,55,-56,-1,-1,0
36633,-589824,55,-56,-1,-1,0
36666,-851968,55,-56,-1,-1,0
36700,-851968,55,-56,-1,-1,0
36733,-917504,55,-56,-1,-1,0
36766,-917504,55,-56,-1,-1,0
36800,-917504,55,-56,-1,-1,0
36833,-917504,55,-56,-1,-1,0
36866,-917504,55,-56,-1,-1,0
36900,-983040,55,-56,-1,-1,0
36933,-720896,55,-56,-1,-1,0
36966,-917504,55,-56,-1,-1,0
37000,-983040,55,-56,-1,-1,0
37033,2162688,55,-56,-1,-1,0
37066,2359296,55,-56,-1,-1,0
37100,-589824,55,-56,-1,-1,0
37133,-524288,55,-56,-1,-1,0
37166,-262144,55,-56,-1,-1,0
37200,327680,55,-56,-1,-1,0
37233,1572864,55,-56,-1,-1,0
37266,2621440,55,-56,-1,-1,0
37300,1048576,55,-56,-1,-1,0
37333,-393216,55,-56,-1,-1,0
37366,-589824,55,-56,-1,-1,0
37400,-524288,55,-56,-1,-1,0
37433,-393216,55,-56,-1,-1,0
37466,-393216,55,-56,-1,-1,0
37500,-524288,55,-56,-1,-1,0
37533,-655360,55,-56,-1,-1,0
37566,-720896,55,-56,-1,-1,0
37600,-720896,55,-56,-1,-1,0
37633,-786432,55,-56,-1,-1,0
37666,-720896,55,-56,-1,-1,0
37700,-720896,55,-56,-1,-1,0
37733,-720896,55,-56,-1,-1,0
37766,-655360,55,-56,-1,-1,0
37800,-655360,55,-56,-1,-1,0
37833,-720896,55,-56,-1,-1,0
37866,-458752,55,-56,-1,-1,0
37900,-786432,55,-56,-1,-1,0
37933,-917504,55,-56,-1,-1,0
37966,6553600,55,-56,-1,-1,0
38000,589824,55,-56,-1,-1,0
38033,-655360,55,-56,-1,-1,0
38066,-458752,55,-56,-1,-1,0
38100,-65536,55,-56,-1,-1,0
38133,589824,55,-56,-1,-1,0
38166,1966080,55,-56,-1,-1,0
38200,2752512,55,-56,-1,-1,0
38233,655360,55,-56,-1,-1,0
38266,-655360,55,-56,-1,-1,0
38300,-851968,55,-56,-1,-1,0
38333,-786432,55,-56,-1,-1,0
38366,-655360,55,-56,-1,-1,0
38400,-524288,55,-56,-1,-1,0
38433,-655360,55,-56,-1,-1,0
38466,-786432,55,-56,-1,-1,0
38500,-851968,55,-56,-1,-1,0
38533,-851968,55,-56,-1,-1,0
38566,-851968,55,-56,-1,-1,0
38600,-917504,55,-56,-1,-1,0
38633,-917504,55,-56,-1,-1,0
38666,-983040,55,-56,-1,-1,0
38700,-720896,55,-56,-1,-1,0
38733,-983040,55,-56,-1,-1,0
38766,-1048576,55,-56,-1,-1,0
38800,917504,55,-56,-1,-1,0
38833,3997696,55,-56,-1,-1,0
38866,-524288,55,-56,-1,-1,0
38900,-458752,55,-56,-1,-1,0
38933,-262144,55,-56,-1,-1,0
38966,393216,55,-56,-1,-1,0
39000,1572864,55,-56,-1,-1,0
39033,2818048,55,-56,-1,-1,0
39066,1114112,55,-56,-1,-1,0
39100,-458752,55,-56,-1,-1,0
39133,-589824,55,-56,-1,-1,0
39166,-655360,55,-56,-1,-1,0
39200,-655360,55,-56,-1,-1,0
39233,-524288,55,-56,-1,-1,0
39266,-655360,55,-56,-1,-1,0
39300,-720896,55,-56,-1,-1,0
39333,-786432,55,-56,-1,-1,0
39366,-851968,55,-56,-1,-1,0
39400,-851968,55,-56,-1,-1,0
39433,-786432,55,-56,-1,-1,0
39466,-851968,55,-56,-1,-1,0
39500,-786432,55,-56,-1,-1,0
39533,-786432,55,-56,-1,-1,0
39566,-851968,55,-56,-1,-1,0
39600,-851968,55,-56,-1,-1,0
39633,-524288,55,-56,-1,-1,0
39666,-786432,55,-56,-1,-1,0
39700,-851968,55,-56,-1,-1,0
39733,1245184,55,-56,-1,-1,0
39766,3866624,55,-56,-1,-1,0
39800,-393216,55,-56,-1,-1,0
39833,-458752,55,-56,-1,-1,0
39866,-131072,55,-56,-1,-1,0
39900,327680,55,-56,-1,-1,0
39933,1507328,55,-56,-1,-1,0
39966,2686976,55,-56,-1,-1,0
40000,1245184,55,-56,-1,-1,0
40033,-327680,55,-56,-1,-1,0
40066,-458752,55,-56,-1,-1,0
40100,-393216,55,-56,-1,-1,0
40133,-327680,55,-56,-1,-1,0
40166,-458752,55,-56,-1,-1,0
40200,-589824,55,-56,-1,-1,0
40233,-720896,55,-56,-1,-1,0
40266,-786432,55,-56,-1,-1,0
40300,-851968,55,-56,-1,-1,0
40333,-851968,55,-56,-1,-1,0
40366,-851968,55,-56,-1,-1,0
40400,-851968,55,-56,-1,-1,0
40433,-917504,55,-56,-1,-1,0
40466,-851968,55,-56,-1,-1,0
40500,-851968,55,-56,-1,-1,0
40533,-720896,55,-56,-1,-1,0
40566,-786432,55,-56,-1,-1,0
40600,-917504,55,-56,-1,-1,0
40633,-1048576,55,-56,-1,-1,0
40666,10092544,55,-56,-1,-1,0
40700,-327680,55,-56,-1,-1,0
40733,-524288,55,-56,-1,-1,0
40766,-196608,55,-56,-1,-1,0
40800,131072,55,-56,-1,-1,0
40833,1179648,55,-56,-1,-1,0
40866,2555904,55,-56,-1,-1,0
40900,1703936,55,-56,-1,-1,0
40933,-196608,55,-56,-1,-1,0
40966,-589824,55,-56,-1,-1,0
41000,-589824,55,-56,-1,-1,0
41033,-524288,55,-56,-1,-1,0
41066,-524288,55,-56,-1,-1,0
41100,-655360,55,-56,-1,-1,0
41133,-720896,55,-56,-1,-1,0
41166,-786432,55,-56,-1,-1,0
41200,-786432,55,-56,-1,-1,0
41233,-851968,55,-56,-1,-1,0
41266,-851968,55,-56,-1,-1,0
41300,-786432,55,-56,-1,-1,0
41333,-851968,55,-56,-1,-1,0
41366,-786432,55,-56,-1,-1,0
41400,-851968,55,-56,-1,-1,0
41433,-655360,55,-56,-1,-1,0
41466,-589824,55,-56,-1,-1,0
41500,-917504,55,-56,-1,-1,0
41533,-1310720,55,-56,-1,-1,0
41566,13762560,55,-56,-1,-1,0
41600,0,55,-56,-1,-1,0
41633,-524288,55,-56,-1,-1,0
41666,-393216,55,-56,-1,-1,0
41700,0,55,-56,-1,-1,0
41733,851968,55,-56,-1,-1,0
41766,2162688,55,-56,-1,-1,0
41800,2162688,55,-56,-1,-1,0
41833,-65536,55,-56,-1,-1,0
41866,-655360,55,-56,-1,-1,0
41900,-589824,55,-56,-1,-1,0
41933,-458752,55,-56,-1,-1,0
41966,-458752,55,-56,-1,-1,0
42000,-655360,55,-56,-1,-1,0
42033,-786432,55,-56,-1,-1,0
42066,-786432,55,-56,-1,-1,0
42100,-851968,55,-56,-1,-1,0
42133,-851968,55,-56,-1,-1,0
42166,-851968,55,-56,-1,-1,0
42200,-786432,55,-56,-1,-1,0
42233,-851968,55,-56,-1,-1,0
42266,-851968,55,-56,-1,-1,0
42300,-720896,55,-56,-1,-1,0
42333,-524288,55,-56,-1,-1,0
42366,-851968,55,-56,-1,-1,0
42400,-851968,55,-56,-1,-1,0
42433,1572864,55,-56,-1,-1,0
42466,2818048,55,-56,-1,-1,0
42500,-524288,55,-56,-1,-1,0
42533,-655360,55,-56,-1,-1,0
42566,-327680,55,-56,-1,-1,0
42600,131072,55,-56,-1,-1,0
42633,1310720,55,-56,-1,-1,0
42666,2424832,55,-56,-1,-1,0
42700,1245184,55,-56,-1,-1,0
42733,-393216,55,-56,-1,-1,0
42766,-655360,55,-56,-1,-1,0
42800,-589824,55,-56,-1,-1,0
42833,-589824,55,-56,-1,-1,0
42866,-655360,55,-56,-1,-1,0
42900,-720896,55,-56,-1,-1,0
42933,-786432,55,-56,-1,-1,0
42966,-917504,55,-56,-1,-1,0
43000,-917504,55,-56,-1,-1,0
43033,-917504,55,-56,-1,-1,0
43066,-917504,55,-56,-1,-1,0
43100,-851968,55,-56,-1,-1,0
43133,-917504,55,-56,-1,-1,0
43166,-917504,55,-56,-1,-1,0
43200,-786432,55,-56,-1,-1,0
43233,-851968,55,-56,-1,-1,0
43266,-983040,55,-56,-1,-1,0
43300,-983040,55,-56,-1,-1,0
43333,9371648,55,-56,-1,-1,0
43366,-327680,55,-56,-1,-1,0
43400,-524288,55,-56,-1,-1,0
43433,-262144,55,-56,-1,-1,0
43466,196608,55,-56,-1,-1,0
43500,1245184,55,-56,-1,-1,0
43533,2621440,55,-56,-1,-1,0
43566,1703936,55,-56,-1,-1,0
43600,-327680,55,-56,-1,-1,0
43633,-655360,55,-56,-1,-1,0
43666,-655360,55,-56,-1,-1,0
43700,-524288,55,-56,-1,-1,0
43733,-524288,55,-56,-1,-1,0
43766,-720896,55,-56,-1,-1,0
43800,-851968,55,-56,-1,-1,0
43833,-851968,55,-56,-1,-1,0
43866,-983040,55,-56,-1,-1,0
43900,-917504,55,-56,-1,-1,0
43933,-655360,55,-56,-1,-1,0
43966,-851968,55,-56,-1,-1,0
44000,-851968,55,-56,-1,-1,0
44033,-589824,55,-56,-1,-1,0
44066,-786432,55,-56,-1,-1,0
44100,-589824,55,-56,-1,-1,0
44133,-1048576,55,-56,-1,-1,0
44166,-983040,55,-56,-1,-1,0
44200,5570560,55,-56,-1,-1,0
44233,1048576,55,-56,-1,-1,0
44266,-720896,55,-56,-1,-1,0
44300,-65536,55,-56,-1,-1,0
44333,-196608,55,-56,-1,-1,0
44366,327680,55,-56,-1,-1,0
44400,1638400,55,-56,-1,-1,0
44433,2752512,55,-56,-1,-1,0
44466,786432,55,-56,-1,-1,0
44500,-458752,55,-56,-1,-1,0
44533,-589824,55,-56,-1,-1,0
44566,-589824,55,-56,-1,-1,0
44600,-589824,55,-56,-1,-1,0
44633,-589824,55,-56,-1,-1,0
44666,-458752,55,-56,-1,-1,0
44700,-720896,55,-56,-1,-1,0
44733,-786432,55,-56,-1,-1,0
44766,-786432,55,-56,-1,-1,0
44800,-983040,55,-56,-1,-1,0
44833,-917504,55,-56,-1,-1,0
44866,-851968,55,-56,-1,-1,0
44900,-917504,55,-56,-1,-1,0
44933,-786432,55,-56,-1,-1,0
44966,-720896,55,-56,-1,-1,0
45000,-720896,55,-56,-1,-1,0
45033,-851968,55,-56,-1,-1,0
45066,-1179648,55,-56,-1,-1,0
45100,11206656,55,-56,-1,-1,0
45133,-196608,55,-56,-1,-1,0
45166,-458752,55,-56,-1,-1,0
45200,-262144,55,-56,-1,-1,0
45233,0,55,-56,-1,-1,0
45266,1179648,55,-56,-1,-1,0
45300,2818048,55,-56,-1,-1,0
45333,1900544,55,-56,-1,-1,0
45366,-262144,55,-56,-1,-1,0
45400,-720896,55,-56,-1,-1,0
45433,-786432,55,-56,-1,-1,0
45466,-655360,55,-56,-1,-1,0
45500,-589824,55,-56,-1,-1,0
45533,-655360,55,-56,-1,-1,0
45566,-720896,55,-56,-1,-1,0
45600,-851968,55,-56,-1,-1,0
45633,-851968,55,-56,-1,-1,0
45666,-917504,55,-56,-1,-1,0
45700,-917504,55,-56,-1,-1,0
45733,-851968,55,-56,-1,-1,0
45766,-983040,55,-56,-1,-1,0
45800,-655360,55,-56,-1,-1,0
45833,-1048576,55,-56,-1,-1,0
45866,-1048576,55,-56,-1,-1,0
45900,7536640,55,-56,-1,-1,0
45933,458752,55,-56,-1,-1,0
45966,-458752,55,-56,-1,-1,0
46000,-327680,55,-56,-1,-1,0
46033,0,55,-56,-1,-1,0
46066,720896,55,-56,-1,-1,0
46100,2228224,55,-56,-1,-1,0
46133,2883584,55,-56,-1,-1,0
46166,458752,55,-56,-1,-1,0
46200,-589824,56,-56,-1,-1,0
46233,-786432,56,-56,-1,-1,0
46266,-786432,56,-56,-1,-1,0
46300,-589824,56,-56,-1,-1,0
46333,-589824,56,-56,-1,-1,0
46366,-655360,56,-56,-1,-1,0
46400,-720896,56,-56,-1,-1,0
46433,-786432,56,-56,-1,-1,0
46466,-720896,56,-56,-1,-1,0
46500,-851968,56,-56,-1,-1,0
46533,-851968,56,-56,-1,-1,0
46566,-917504,56,-56,-1,-1,0
46600,-917504,56,-56,-1,-1,0
46633,-1048576,56,-56,-1,-1,0
46666,-1114112,56,-56,-1,-1,0
46700,-917504,56,-56,-1,-1,0
46733,-983040,56,-56,-1,-1,0
46766,-1114112,56,-56,-1,-1,0
46800,-1638400,56,-56,-1,-1,0
46833,13762560,56,-56,-1,-1,0
46866,-131072,56,-56,-1,-1,0
46900,-524288,56,-56,-1,-1,0
46933,-393216,56,-56,-1,-1,0
46966,131072,56,-56,-1,-1,0
47000,1114112,56,-56,-1,-1,0
47033,2621440,56,-56,-1,-1,0
47066,2228224,56,-56,-1,-1,0
47100,0,56,-56,-1,-1,0
47133,-524288,56,-56,-1,-1,0
47166,-589824,55,-56,-1,-1,0
47200,-524288,55,-56,-1,-1,0
47233,-393216,55,-56,-1,-1,0
47266,-524288,55,-56,-1,-1,0
47300,-655360,55,-56,-1,-1,0
47333,-655360,55,-56,-1,-1,0
47366,-720896,55,-56,-1,-1,0
47400,-720896,55,-56,-1,-1,0
47433,-655360,55,-56,-1,-1,0
47466,-720896,55,-56,-1,-1,0
47500,-720896,55,-56,-1,-1,0
47533,-851968,55,-56,-1,-1,0
47566,-786432,55,-56,-1,-1,0
47600,-655360,55,-56,-1,-1,0
47633,-655360,55,-56,-1,-1,0
47666,-327680,55,-56,-1,-1,0
47700,-720896,55,-56,-1,-1,0
47733,-786432,55,-56,-1,-1,0
47766,3014656,55,-56,-1,-1,0
47800,2097152,55,-56,-1,-1,0
47833,-393216,55,-56,-1,-1,0
47866,-393216,55,-56,-1,-1,0
47900,-65536,55,-56,-1,-1,0
47933,327680,55,-56,-1,-1,0
47966,1703936,55,-56,-1,-1,0
48000,2752512,55,-56,-1,-1,0
48033,1048576,55,-56,-1,-1,0
48066,-524288,55,-56,-1,-1,0
48100,-655360,55,-56,-1,-1,0
48133,-655360,55,-56,-1,-1,0
48166,-524288,55,-56,-1,-1,0
48200,-458752,55,-56,-1,-1,0
48233,-589824,55,-56,-1,-1,0
48266,-655360,55,-56,-1,-1,0
48300,-720896,55,-56,-1,-1,0
48333,-720896,55,-56,-1,-1,0
48366,-720896,55,-56,-1,-1,0
48400,-655360,55,-56,-1,-1,0
48433,-589824,55,-56,-1,-1,0
48466,-589824,55,-56,-1,-1,0
48500,-655360,55,-56,-1,-1,0
48533,-655360,55,-56,-1,-1,0
48566,-655360,55,-56,-1,-1,0
48600,-589824,55,-56,-1,-1,0
48633,-655360,55,-56,-1,-1,0
48666,-917504,55,-56,-1,-1,0
48700,-1114112,55,-56,-1,-1,0
48733,12976128,55,-56,-1,-1,0
48766,0,55,-56,-1,-1,0
48800,-589824,55,-56,-1,-1,0
48833,-393216,55,-56,-1,-1,0
48866,-65536,55,-56,-1,-1,0
48900,655360,55,-56,-1,-1,0
48933,1966080,55,-56,-1,-1,0
48966,2228224,55,-56,-1,-1,0
49000,0,55,-56,-1,-1,0
49033,-720896,55,-56,-1,-1,0
49066,-720896,55,-56,-1,-1,0
49100,-589824,55,-56,-1,-1,0
49133,-458752,55,-56,-1,-1,0
49166,-524288,55,-56,-1,-1,0
49200,-589824,55,-56,-1,-1,0
49233,-720896,55,-56,-1,-1,0
49266,-786432,55,-56,-1,-1,0
49300,-851968,55,-56,-1,-1,0
49333,-917504,55,-56,-1,-1,0
49366,-917504,55,-56,-1,-1,0
49400,-917504,55,-56,-1,-1,0
49433,-917504,55,-56,-1,-1,0
49466,-1048576,55,-56,-1,-1,0
49500,-917504,55,-56,-1,-1,0
49533,-917504,55,-56,-1,-1,0
49566,-1048576,55,-56,-1,-1,0
49600,-1507328,55,-56,-1,-1,0
49633,12976128,55,-56,-1,-1,0
49666,-65536,55,-56,-1,-1,0
49700,-589824,55,-56,-1,-1,0
49733,-327680,55,-56,-1,-1,0
49766,65536,55,-56,-1,-1,0
49800,1114112,55,-56,-1,-1,0
49833,2818048,55,-56,-1,-1,0
49866,2621440,55,-56,-1,-1,0
49900,0,55,-56,-1,-1,0
49933,-720896,55,-56,-1,-1,0
49966,-720896,55,-56,-1,-1,0
50000,-589824,55,-56,-1,-1,0
