milliseconds, ECG, ECG HR, PPG, PPG HR, SpO2, PI
1523628147786,-983040,57,-56,-1,-1,0
1523628147786,-983040,57,-56,-1,-1,0
1523628147786,-983040,57,-56,-1,-1,0
1523628147786,-917504,57,-56,-1,-1,0
1523628147786,-983040,57,-56,-1,-1,0
1523628147830,-1048576,57,-56,-1,-1,0
1523628147830,-983040,57,-56,-1,-1,0
1523628147830,-917504,57,-56,-1,-1,0
1523628147830,-851968,57,-56,-1,-1,0
1523628147830,-851968,57,-56,-1,-1,0
1523628147866,-786432,57,-56,-1,-1,0
1523628147866,-786432,57,-56,-1,-1,0
1523628147866,-720896,57,-56,-1,-1,0
1523628147866,-720896,57,-56,-1,-1,0
1523628147866,-786432,57,-56,-1,-1,0
1523628147906,-983040,57,-56,-1,-1,0
1523628147906,-1114112,57,-56,-1,-1,0
1523628147906,-1179648,57,-56,-1,-1,0
1523628147906,-1245184,57,-56,-1,-1,0
1523628147906,-1310720,57,-56,-1,-1,0
1523628147946,-1245184,57,-56,-1,-1,0
1523628147946,-1048576,57,-56,-1,-1,0
1523628147946,-983040,57,-56,-1,-1,0
1523628147946,-1179648,57,-56,-1,-1,0
1523628147946,-458752,57,-56,-1,-1,0
1523628147986,2490368,57,-56,-1,-1,0
1523628147986,7733248,57,-56,-1,-1,0
1523628147986,12386304,57,-56,-1,-1,0
1523628147986,12058624,57,-56,-1,-1,0
1523628147986,6488064,57,-56,-1,-1,0
1523628148026,1638400,57,-56,-1,-1,0
1523628148026,393216,57,-56,-1,-1,0
1523628148026,0,57,-56,-1,-1,0
1523628148026,-327680,57,-56,-1,-1,0
1523628148026,-458752,57,-56,-1,-1,0
1523628148066,-589824,57,-56,-1,-1,0
1523628148066,-720896,57,-56,-1,-1,0
1523628148066,-786432,57,-56,-1,-1,0
1523628148066,-720896,57,-56,-1,-1,0
1523628148066,-589824,57,-56,-1,-1,0
1523628148106,-524288,57,-56,-1,-1,0
1523628148106,-393216,57,-56,-1,-1,0
1523628148106,-262144,57,-56,-1,-1,0
1523628148106,-196608,57,-56,-1,-1,0
1523628148106,-65536,57,-56,-1,-1,0
1523628148146,0,57,-56,-1,-1,0
1523628148146,-65536,57,-56,-1,-1,0
1523628148146,-65536,57,-56,-1,-1,0
1523628148146,0,57,-56,-1,-1,0
1523628148146,262144,57,-56,-1,-1,0
1523628148186,589824,57,-56,-1,-1,0
1523628148186,851968,57,-56,-1,-1,0
1523628148186,983040,57,-56,-1,-1,0
1523628148186,1245184,57,-56,-1,-1,0
1523628148186,1572864,57,-56,-1,-1,0
1523628148226,2031616,57,-56,-1,-1,0
1523628148226,2359296,57,-56,-1,-1,0
1523628148226,2621440,57,-56,-1,-1,0
1523628148226,2686976,57,-56,-1,-1,0
1523628148226,2883584,57,-56,-1,-1,0
1523628148266,3014656,57,-56,-1,-1,0
1523628148266,2818048,57,-56,-1,-1,0
1523628148266,2359296,57,-56,-1,-1,0
1523628148266,1769472,57,-56,-1,-1,0
1523628148266,1310720,57,-56,-1,-1,0
1523628148306,786432,57,-56,-1,-1,0
1523628148306,131072,57,-56,-1,-1,0
1523628148306,-327680,57,-56,-1,-1,0
1523628148306,-589824,57,-56,-1,-1,0
1523628148306,-720896,57,-56,-1,-1,0
1523628148346,-851968,57,-56,-1,-1,0
1523628148346,-851968,57,-56,-1,-1,0
1523628148346,-917504,57,-56,-1,-1,0
1523628148346,-1048576,57,-56,-1,-1,0
1523628148346,-1048576,57,-56,-1,-1,0
1523628148386,-1114112,57,-56,-1,-1,0
1523628148386,-1114112,57,-56,-1,-1,0
1523628148386,-983040,57,-56,-1,-1,0
1523628148386,-851968,57,-56,-1,-1,0
1523628148386,-786432,57,-56,-1,-1,0
1523628148446,-786432,57,-56,-1,-1,0
1523628148446,-851968,57,-56,-1,-1,0
1523628148446,-851968,57,-56,-1,-1,0
1523628148446,-786432,57,-56,-1,-1,0
1523628148446,-851968,57,-56,-1,-1,0
1523628148466,-851968,57,-56,-1,-1,0
1523628148466,-524288,57,-56,-1,-1,0
1523628148466,-393216,57,-56,-1,-1,0
1523628148466,-589824,57,-56,-1,-1,0
1523628148466,-786432,57,-56,-1,-1,0
1523628148506,-720896,57,-56,-1,-1,0
1523628148506,-655360,57,-56,-1,-1,0
1523628148506,-851968,57,-56,-1,-1,0
1523628148506,-983040,57,-56,-1,-1,0
1523628148506,-851968,57,-56,-1,-1,0
1523628148546,-786432,57,-56,-1,-1,0
1523628148546,-786432,57,-56,-1,-1,0
1523628148546,-786432,57,-56,-1,-1,0
1523628148546,-851968,57,-56,-1,-1,0
1523628148546,-917504,57,-56,-1,-1,0
1523628148586,-917504,57,-56,-1,-1,0
1523628148586,-917504,57,-56,-1,-1,0
1523628148586,-983040,57,-56,-1,-1,0
1523628148586,-1114112,57,-56,-1,-1,0
1523628148586,-1114112,57,-56,-1,-1,0
1523628148626,-983040,57,-56,-1,-1,0
1523628148626,-786432,57,-56,-1,-1,0
1523628148626,-851968,57,-56,-1,-1,0
1523628148626,-917504,57,-56,-1,-1,0
1523628148626,-917504,57,-56,-1,-1,0
1523628148666,-917504,57,-56,-1,-1,0
1523628148666,-983040,57,-56,-1,-1,0
1523628148666,-983040,57,-56,-1,-1,0
1523628148666,-983040,57,-56,-1,-1,0
1523628148666,-983040,57,-56,-1,-1,0
1523628148706,-917504,57,-56,-1,-1,0
1523628148706,-851968,57,-56,-1,-1,0
1523628148706,-851968,57,-56,-1,-1,0
1523628148706,-720896,57,-56,-1,-1,0
1523628148706,-720896,57,-56,-1,-1,0
1523628148746,-851968,57,-56,-1,-1,0
1523628148746,-983040,57,-56,-1,-1,0
1523628148746,-1114112,57,-56,-1,-1,0
1523628148746,-1179648,57,-56,-1,-1,0
1523628148746,-1179648,57,-56,-1,-1,0
1523628148786,-1245184,57,-56,-1,-1,0
1523628148786,-1245184,57,-56,-1,-1,0
1523628148786,-1245184,57,-56,-1,-1,0
1523628148786,-1245184,57,-56,-1,-1,0
1523628148786,-1376256,57,-56,-1,-1,0
1523628148826,-1703936,57,-56,-1,-1,0
1523628148826,-851968,57,-56,-1,-1,0
1523628148826,2162688,57,-56,-1,-1,0
1523628148826,7340032,57,-56,-1,-1,0
1523628148826,12124160,57,-56,-1,-1,0
1523628148866,12189696,57,-56,-1,-1,0
1523628148866,6815744,57,-56,-1,-1,0
1523628148866,1638400,57,-56,-1,-1,0
1523628148866,0,57,-56,-1,-1,0
1523628148866,-131072,57,-56,-1,-1,0
1523628148906,-393216,57,-56,-1,-1,0
1523628148906,-655360,57,-56,-1,-1,0
1523628148906,-720896,57,-56,-1,-1,0
1523628148906,-786432,57,-56,-1,-1,0
1523628148906,-786432,57,-56,-1,-1,0
1523628148946,-720896,57,-56,-1,-1,0
1523628148946,-655360,57,-56,-1,-1,0
1523628148946,-655360,57,-56,-1,-1,0
1523628148946,-589824,57,-56,-1,-1,0
1523628148946,-589824,57,-56,-1,-1,0
1523628148986,-524288,57,-56,-1,-1,0
1523628148986,-458752,57,-56,-1,-1,0
1523628148986,-327680,57,-56,-1,-1,0
1523628148986,-196608,57,-56,-1,-1,0
1523628148986,-65536,57,-56,-1,-1,0
1523628149026,0,57,-56,-1,-1,0
1523628149026,131072,57,-56,-1,-1,0
1523628149026,393216,57,-56,-1,-1,0
1523628149026,655360,57,-56,-1,-1,0
1523628149026,917504,57,-56,-1,-1,0
1523628149086,1245184,57,-56,-1,-1,0
1523628149086,1572864,57,-56,-1,-1,0
1523628149086,1900544,57,-56,-1,-1,0
1523628149086,2293760,57,-56,-1,-1,0
1523628149086,2555904,57,-56,-1,-1,0
1523628149106,2752512,57,-56,-1,-1,0
1523628149106,2818048,57,-56,-1,-1,0
1523628149106,2818048,57,-56,-1,-1,0
1523628149106,2621440,57,-56,-1,-1,0
1523628149106,2228224,57,-56,-1,-1,0
1523628149146,1638400,57,-56,-1,-1,0
1523628149146,1048576,57,-56,-1,-1,0
1523628149146,458752,57,-56,-1,-1,0
1523628149146,0,57,-56,-1,-1,0
1523628149146,-327680,57,-56,-1,-1,0
1523628149186,-524288,57,-56,-1,-1,0
1523628149186,-720896,57,-56,-1,-1,0
1523628149186,-786432,57,-56,-1,-1,0
1523628149186,-917504,57,-56,-1,-1,0
1523628149186,-917504,57,-56,-1,-1,0
1523628149226,-917504,57,-56,-1,-1,0
1523628149226,-917504,57,-56,-1,-1,0
1523628149226,-917504,57,-56,-1,-1,0
1523628149226,-917504,57,-56,-1,-1,0
1523628149226,-983040,57,-56,-1,-1,0
1523628149266,-983040,57,-56,-1,-1,0
1523628149266,-917504,57,-56,-1,-1,0
1523628149266,-851968,57,-56,-1,-1,0
1523628149266,-851968,57,-56,-1,-1,0
1523628149266,-851968,57,-56,-1,-1,0
1523628149306,-786432,57,-56,-1,-1,0
1523628149306,-720896,57,-56,-1,-1,0
1523628149306,-655360,57,-56,-1,-1,0
1523628149306,-720896,57,-56,-1,-1,0
1523628149306,-720896,57,-56,-1,-1,0
1523628149346,-720896,57,-56,-1,-1,0
1523628149346,-720896,57,-56,-1,-1,0
1523628149346,-720896,57,-56,-1,-1,0
1523628149346,-786432,57,-56,-1,-1,0
1523628149346,-851968,57,-56,-1,-1,0
1523628149386,-917504,57,-56,-1,-1,0
1523628149386,-917504,57,-56,-1,-1,0
1523628149386,-983040,57,-56,-1,-1,0
1523628149386,-983040,57,-56,-1,-1,0
1523628149386,-983040,57,-56,-1,-1,0
1523628149426,-983040,57,-56,-1,-1,0
1523628149426,-1048576,57,-56,-1,-1,0
1523628149426,-1048576,57,-56,-1,-1,0
1523628149426,-1048576,57,-56,-1,-1,0
1523628149426,-1114112,57,-56,-1,-1,0
1523628149466,-1114112,57,-56,-1,-1,0
1523628149466,-1114112,57,-56,-1,-1,0
1523628149466,-1114112,57,-56,-1,-1,0
1523628149466,-1114112,57,-56,-1,-1,0
1523628149466,-1114112,57,-56,-1,-1,0
1523628149506,-1114112,57,-56,-1,-1,0
1523628149506,-1114112,57,-56,-1,-1,0
1523628149506,-1114112,57,-56,-1,-1,0
1523628149506,-1114112,57,-56,-1,-1,0
1523628149506,-1114112,57,-56,-1,-1,0
1523628149546,-1114112,57,-56,-1,-1,0
1523628149546,-1114112,57,-56,-1,-1,0
1523628149546,-1114112,57,-56,-1,-1,0
1523628149546,-1114112,57,-56,-1,-1,0
1523628149546,-1114112,57,-56,-1,-1,0
1523628149586,-1114112,57,-56,-1,-1,0
1523628149586,-1114112,57,-56,-1,-1,0
1523628149586,-1048576,57,-56,-1,-1,0
1523628149586,-1048576,57,-56,-1,-1,0
1523628149586,-983040,57,-56,-1,-1,0
1523628149626,-851968,57,-56,-1,-1,0
1523628149626,-786432,57,-56,-1,-1,0
1523628149626,-917504,57,-56,-1,-1,0
1523628149626,-1048576,57,-56,-1,-1,0
1523628149626,-1114112,57,-56,-1,-1,0
1523628149666,-1179648,57,-56,-1,-1,0
1523628149666,-1245184,57,-56,-1,-1,0
1523628149666,-1179648,57,-56,-1,-1,0
1523628149666,-1179648,57,-56,-1,-1,0
1523628149666,-1179648,57,-56,-1,-1,0
1523628149726,-1179648,57,-56,-1,-1,0
1523628149726,-1310720,57,-56,-1,-1,0
1523628149726,-1638400,57,-56,-1,-1,0
1523628149726,-983040,57,-56,-1,-1,0
1523628149726,1769472,57,-56,-1,-1,0
1523628149746,7077888,57,-56,-1,-1,0
1523628149746,12648448,57,-56,-1,-1,0
1523628149746,13434880,57,-56,-1,-1,0
1523628149746,8126464,57,-56,-1,-1,0
1523628149746,2490368,57,-56,-1,-1,0
1523628149786,393216,57,-56,-1,-1,0
1523628149786,65536,57,-56,-1,-1,0
1523628149786,-196608,57,-56,-1,-1,0
1523628149786,-524288,57,-56,-1,-1,0
1523628149786,-589824,57,-56,-1,-1,0
1523628149826,-655360,57,-56,-1,-1,0
1523628149826,-589824,57,-56,-1,-1,0
1523628149826,-589824,57,-56,-1,-1,0
1523628149826,-524288,57,-56,-1,-1,0
1523628149826,-524288,57,-56,-1,-1,0
1523628149866,-458752,57,-56,-1,-1,0
1523628149866,-327680,57,-56,-1,-1,0
1523628149866,-262144,57,-56,-1,-1,0
1523628149866,-262144,57,-56,-1,-1,0
1523628149866,-196608,57,-56,-1,-1,0
1523628149906,-65536,57,-56,-1,-1,0
1523628149906,0,57,-56,-1,-1,0
1523628149906,131072,57,-56,-1,-1,0
1523628149906,262144,57,-56,-1,-1,0
1523628149906,393216,57,-56,-1,-1,0
1523628149946,589824,57,-56,-1,-1,0
1523628149946,851968,57,-56,-1,-1,0
1523628149946,1179648,57,-56,-1,-1,0
1523628149946,1507328,57,-56,-1,-1,0
1523628149946,1835008,57,-56,-1,-1,0
1523628149986,2162688,57,-56,-1,-1,0
1523628149986,2424832,57,-56,-1,-1,0
1523628149986,2686976,57,-56,-1,-1,0
1523628149986,2818048,57,-56,-1,-1,0
1523628149986,2818048,57,-56,-1,-1,0
1523628150026,2752512,57,-56,-1,-1,0
1523628150026,2424832,57,-56,-1,-1,0
1523628150026,1966080,57,-56,-1,-1,0
1523628150026,1376256,57,-56,-1,-1,0
1523628150026,786432,57,-56,-1,-1,0
1523628150066,327680,57,-56,-1,-1,0
1523628150066,0,57,-56,-1,-1,0
1523628150066,-131072,57,-56,-1,-1,0
1523628150066,-327680,57,-56,-1,-1,0
1523628150066,-458752,57,-56,-1,-1,0
1523628150106,-458752,57,-56,-1,-1,0
1523628150106,-458752,57,-56,-1,-1,0
1523628150106,-524288,57,-56,-1,-1,0
1523628150106,-524288,57,-56,-1,-1,0
1523628150106,-524288,57,-56,-1,-1,0
1523628150146,-524288,57,-56,-1,-1,0
1523628150146,-524288,57,-56,-1,-1,0
1523628150146,-458752,57,-56,-1,-1,0
1523628150146,-458752,57,-56,-1,-1,0
1523628150146,-458752,57,-56,-1,-1,0
1523628150186,-393216,57,-56,-1,-1,0
1523628150186,-327680,57,-56,-1,-1,0
1523628150186,-327680,57,-56,-1,-1,0
1523628150186,-327680,57,-56,-1,-1,0
1523628150186,-327680,57,-56,-1,-1,0
1523628150226,-327680,57,-56,-1,-1,0
1523628150226,-262144,57,-56,-1,-1,0
1523628150226,-262144,57,-56,-1,-1,0
1523628150226,-327680,57,-56,-1,-1,0
1523628150226,-327680,57,-56,-1,-1,0
1523628150266,-327680,57,-56,-1,-1,0
1523628150266,-327680,57,-56,-1,-1,0
1523628150266,-327680,57,-56,-1,-1,0
1523628150266,-393216,57,-56,-1,-1,0
1523628150266,-393216,57,-56,-1,-1,0
1523628150306,-393216,57,-56,-1,-1,0
1523628150306,-393216,57,-56,-1,-1,0
1523628150306,-393216,57,-56,-1,-1,0
1523628150306,-458752,57,-56,-1,-1,0
1523628150306,-458752,57,-56,-1,-1,0
1523628150366,-524288,57,-56,-1,-1,0
1523628150366,-524288,57,-56,-1,-1,0
1523628150366,-524288,57,-56,-1,-1,0
1523628150366,-524288,57,-56,-1,-1,0
1523628150366,-524288,57,-56,-1,-1,0
1523628150386,-524288,57,-56,-1,-1,0
1523628150386,-524288,57,-56,-1,-1,0
1523628150386,-524288,57,-56,-1,-1,0
1523628150386,-524288,57,-56,-1,-1,0
1523628150386,-524288,57,-56,-1,-1,0
1523628150426,-524288,57,-56,-1,-1,0
1523628150426,-524288,57,-56,-1,-1,0
1523628150426,-524288,57,-56,-1,-1,0
1523628150426,-524288,57,-56,-1,-1,0
1523628150426,-524288,57,-56,-1,-1,0
1523628150466,-524288,57,-56,-1,-1,0
1523628150466,-589824,57,-56,-1,-1,0
1523628150466,-655360,57,-56,-1,-1,0
1523628150466,-655360,57,-56,-1,-1,0
1523628150466,-655360,57,-56,-1,-1,0
1523628150506,-655360,57,-56,-1,-1,0
1523628150506,-655360,57,-56,-1,-1,0
1523628150506,-589824,57,-56,-1,-1,0
1523628150506,-589824,57,-56,-1,-1,0
1523628150506,-655360,57,-56,-1,-1,0
1523628150546,-655360,57,-56,-1,-1,0
1523628150546,-655360,57,-56,-1,-1,0
1523628150546,-655360,57,-56,-1,-1,0
1523628150546,-655360,57,-56,-1,-1,0
1523628150546,-655360,57,-56,-1,-1,0
1523628150587,-655360,57,-56,-1,-1,0
1523628150587,-655360,57,-56,-1,-1,0
1523628150587,-589824,57,-56,-1,-1,0
1523628150587,-589824,57,-56,-1,-1,0
1523628150587,-589824,57,-56,-1,-1,0
1523628150626,-524288,57,-56,-1,-1,0
1523628150626,-524288,57,-56,-1,-1,0
1523628150626,-524288,57,-56,-1,-1,0
1523628150626,-589824,57,-56,-1,-1,0
1523628150626,-589824,57,-56,-1,-1,0
1523628150666,-524288,57,-56,-1,-1,0
1523628150666,-524288,57,-56,-1,-1,0
1523628150666,-589824,57,-56,-1,-1,0
1523628150666,-589824,57,-56,-1,-1,0
1523628150666,-655360,57,-56,-1,-1,0
1523628150706,-655360,57,-56,-1,-1,0
1523628150706,-786432,57,-56,-1,-1,0
1523628150706,-786432,57,-56,-1,-1,0
1523628150706,-786432,57,-56,-1,-1,0
1523628150706,-786432,57,-56,-1,-1,0
1523628150746,-786432,57,-56,-1,-1,0
1523628150746,-720896,57,-56,-1,-1,0
1523628150746,-720896,57,-56,-1,-1,0
1523628150746,-917504,57,-56,-1,-1,0
1523628150746,-983040,57,-56,-1,-1,0
1523628150786,-1048576,57,-56,-1,-1,0
1523628150786,-1114112,57,-56,-1,-1,0
1523628150786,-1114112,57,-56,-1,-1,0
1523628150786,-1114112,57,-56,-1,-1,0
1523628150786,-1179648,57,-56,-1,-1,0
1523628150827,-1179648,57,-56,-1,-1,0
1523628150827,-1179648,57,-56,-1,-1,0
1523628150827,-1376256,57,-56,-1,-1,0
1523628150827,-1703936,57,-56,-1,-1,0
1523628150827,-917504,57,-56,-1,-1,0
1523628150866,2162688,57,-56,-1,-1,0
1523628150866,7929856,57,-56,-1,-1,0
1523628150866,13500416,57,-56,-1,-1,0
1523628150866,13565952,57,-56,-1,-1,0
1523628150866,7864320,57,-56,-1,-1,0
1523628150906,2293760,57,-56,-1,-1,0
1523628150906,393216,57,-56,-1,-1,0
1523628150906,0,57,-56,-1,-1,0
1523628150906,-393216,57,-56,-1,-1,0
1523628150906,-655360,57,-56,-1,-1,0
1523628150946,-720896,57,-56,-1,-1,0
1523628150946,-786432,57,-56,-1,-1,0
1523628150946,-786432,57,-56,-1,-1,0
1523628150946,-720896,57,-56,-1,-1,0
1523628150946,-720896,57,-56,-1,-1,0
1523628151006,-655360,57,-56,-1,-1,0
1523628151006,-589824,57,-56,-1,-1,0
1523628151006,-589824,57,-56,-1,-1,0
1523628151006,-524288,57,-56,-1,-1,0
1523628151006,-458752,57,-56,-1,-1,0
1523628151026,-327680,57,-56,-1,-1,0
1523628151026,-262144,57,-56,-1,-1,0
1523628151026,-131072,57,-56,-1,-1,0
1523628151026,0,57,-56,-1,-1,0
1523628151026,131072,57,-56,-1,-1,0
1523628151066,262144,57,-56,-1,-1,0
1523628151066,458752,57,-56,-1,-1,0
1523628151066,655360,57,-56,-1,-1,0
1523628151066,983040,57,-56,-1,-1,0
1523628151066,1245184,57,-56,-1,-1,0
1523628151106,1507328,57,-56,-1,-1,0
1523628151106,1835008,57,-56,-1,-1,0
1523628151106,2097152,57,-56,-1,-1,0
1523628151106,2293760,57,-56,-1,-1,0
1523628151106,2424832,57,-56,-1,-1,0
1523628151146,2490368,57,-56,-1,-1,0
1523628151146,2490368,57,-56,-1,-1,0
1523628151146,2293760,57,-56,-1,-1,0
1523628151146,1966080,57,-56,-1,-1,0
1523628151146,1441792,57,-56,-1,-1,0
1523628151186,917504,57,-56,-1,-1,0
1523628151186,458752,57,-56,-1,-1,0
1523628151186,65536,57,-56,-1,-1,0
1523628151186,-131072,57,-56,-1,-1,0
1523628151186,-327680,57,-56,-1,-1,0
1523628151226,-458752,57,-56,-1,-1,0
1523628151226,-524288,57,-56,-1,-1,0
1523628151226,-589824,57,-56,-1,-1,0
1523628151226,-589824,57,-56,-1,-1,0
1523628151226,-589824,57,-56,-1,-1,0
1523628151266,-524288,54,-56,-1,-1,0
1523628151266,-524288,54,-56,-1,-1,0
1523628151266,-458752,54,-56,-1,-1,0
1523628151266,-458752,54,-56,-1,-1,0
1523628151266,-393216,54,-56,-1,-1,0
1523628151306,-327680,54,-56,-1,-1,0
1523628151306,-393216,54,-56,-1,-1,0
1523628151306,-393216,54,-56,-1,-1,0
1523628151306,-393216,54,-56,-1,-1,0
1523628151306,-393216,54,-56,-1,-1,0
1523628151346,-393216,54,-56,-1,-1,0
1523628151346,-458752,54,-56,-1,-1,0
1523628151346,-458752,54,-56,-1,-1,0
1523628151346,-458752,54,-56,-1,-1,0
1523628151346,-458752,54,-56,-1,-1,0
1523628151388,-458752,54,-56,-1,-1,0
1523628151388,-458752,54,-56,-1,-1,0
1523628151388,-524288,54,-56,-1,-1,0
1523628151388,-524288,54,-56,-1,-1,0
1523628151388,-524288,54,-56,-1,-1,0
1523628151426,-589824,54,-56,-1,-1,0
1523628151426,-655360,54,-56,-1,-1,0
1523628151426,-655360,54,-56,-1,-1,0
1523628151426,-655360,54,-56,-1,-1,0
1523628151426,-720896,54,-56,-1,-1,0
1523628151466,-720896,54,-56,-1,-1,0
1523628151466,-720896,54,-56,-1,-1,0
1523628151466,-720896,54,-56,-1,-1,0
1523628151466,-720896,54,-56,-1,-1,0
1523628151466,-720896,54,-56,-1,-1,0
1523628151506,-786432,54,-56,-1,-1,0
1523628151506,-786432,54,-56,-1,-1,0
1523628151506,-786432,54,-56,-1,-1,0
1523628151506,-786432,54,-56,-1,-1,0
1523628151506,-786432,54,-56,-1,-1,0
1523628151546,-786432,54,-56,-1,-1,0
1523628151546,-786432,54,-56,-1,-1,0
1523628151546,-720896,54,-56,-1,-1,0
1523628151546,-720896,54,-56,-1,-1,0
1523628151546,-720896,54,-56,-1,-1,0
1523628151586,-786432,54,-56,-1,-1,0
1523628151586,-786432,54,-56,-1,-1,0
1523628151586,-786432,54,-56,-1,-1,0
1523628151586,-851968,54,-56,-1,-1,0
1523628151586,-851968,54,-56,-1,-1,0
1523628151646,-786432,54,-56,-1,-1,0
1523628151646,-786432,54,-56,-1,-1,0
1523628151646,-786432,54,-56,-1,-1,0
1523628151646,-851968,54,-56,-1,-1,0
1523628151646,-851968,54,-56,-1,-1,0
1523628151666,-851968,54,-56,-1,-1,0
1523628151666,-851968,54,-56,-1,-1,0
1523628151666,-786432,54,-56,-1,-1,0
1523628151666,-851968,54,-56,-1,-1,0
1523628151666,-786432,54,-56,-1,-1,0
1523628151706,-851968,54,-56,-1,-1,0
1523628151706,-851968,54,-56,-1,-1,0
1523628151706,-917504,54,-56,-1,-1,0
1523628151706,-917504,54,-56,-1,-1,0
1523628151706,-917504,54,-56,-1,-1,0
1523628151746,-917504,54,-56,-1,-1,0
1523628151746,-917504,54,-56,-1,-1,0
1523628151746,-917504,54,-56,-1,-1,0
1523628151746,-917504,54,-56,-1,-1,0
1523628151746,-917504,54,-56,-1,-1,0
1523628151786,-917504,54,-56,-1,-1,0
1523628151786,-917504,54,-56,-1,-1,0
1523628151786,-917504,54,-56,-1,-1,0
1523628151786,-917504,54,-56,-1,-1,0
1523628151786,-917504,54,-56,-1,-1,0
1523628151826,-917504,54,-56,-1,-1,0
1523628151826,-917504,54,-56,-1,-1,0
1523628151826,-851968,54,-56,-1,-1,0
1523628151826,-917504,54,-56,-1,-1,0
1523628151826,-917504,54,-56,-1,-1,0
1523628151866,-917504,54,-56,-1,-1,0
1523628151866,-851968,54,-56,-1,-1,0
1523628151866,-786432,54,-56,-1,-1,0
1523628151866,-655360,54,-56,-1,-1,0
1523628151866,-655360,54,-56,-1,-1,0
1523628151906,-720896,54,-56,-1,-1,0
1523628151906,-917504,54,-56,-1,-1,0
1523628151906,-983040,54,-56,-1,-1,0
1523628151906,-983040,54,-56,-1,-1,0
1523628151906,-983040,54,-56,-1,-1,0
1523628151946,-1048576,54,-56,-1,-1,0
1523628151946,-1048576,54,-56,-1,-1,0
1523628151946,-1048576,54,-56,-1,-1,0
1523628151946,-1048576,54,-56,-1,-1,0
1523628151946,-1179648,54,-56,-1,-1,0
1523628151986,-1507328,54,-56,-1,-1,0
1523628151986,-720896,54,-56,-1,-1,0
1523628151986,2228224,54,-56,-1,-1,0
1523628151986,7471104,54,-56,-1,-1,0
1523628151986,12779520,54,-56,-1,-1,0
1523628152026,13369344,54,-56,-1,-1,0
1523628152026,7929856,54,-56,-1,-1,0
1523628152026,2359296,54,-56,-1,-1,0
1523628152026,458752,54,-56,-1,-1,0
1523628152026,131072,54,-56,-1,-1,0
1523628152066,-131072,54,-56,-1,-1,0
1523628152066,-393216,54,-56,-1,-1,0
1523628152066,-524288,54,-56,-1,-1,0
1523628152066,-589824,54,-56,-1,-1,0
1523628152066,-589824,54,-56,-1,-1,0
1523628152106,-524288,54,-56,-1,-1,0
1523628152106,-458752,54,-56,-1,-1,0
1523628152106,-458752,54,-56,-1,-1,0
1523628152106,-458752,54,-56,-1,-1,0
1523628152106,-458752,54,-56,-1,-1,0
1523628152146,-393216,54,-56,-1,-1,0
1523628152146,-262144,54,-56,-1,-1,0
1523628152146,-131072,54,-56,-1,-1,0
1523628152146,-65536,54,-56,-1,-1,0
1523628152146,0,54,-56,-1,-1,0
1523628152186,131072,54,-56,-1,-1,0
1523628152186,327680,54,-56,-1,-1,0
1523628152186,524288,54,-56,-1,-1,0
1523628152186,720896,54,-56,-1,-1,0
1523628152186,917504,54,-56,-1,-1,0
1523628152226,1179648,54,-56,-1,-1,0
1523628152226,1572864,54,-56,-1,-1,0
1523628152226,1900544,54,-56,-1,-1,0
1523628152226,2228224,54,-56,-1,-1,0
1523628152226,2490368,54,-56,-1,-1,0
1523628152286,2686976,54,-56,-1,-1,0
1523628152286,2883584,54,-56,-1,-1,0
1523628152286,2883584,54,-56,-1,-1,0
1523628152286,2818048,54,-56,-1,-1,0
1523628152286,2555904,54,-56,-1,-1,0
1523628152306,2097152,53,-56,-1,-1,0
1523628152306,1507328,53,-56,-1,-1,0
1523628152306,917504,53,-56,-1,-1,0
1523628152306,393216,53,-56,-1,-1,0
1523628152306,0,53,-56,-1,-1,0
1523628152346,-196608,53,-56,-1,-1,0
1523628152346,-393216,53,-56,-1,-1,0
1523628152346,-524288,53,-56,-1,-1,0
1523628152346,-655360,53,-56,-1,-1,0
1523628152346,-720896,53,-56,-1,-1,0
1523628152386,-786432,53,-56,-1,-1,0
1523628152386,-786432,53,-56,-1,-1,0
1523628152386,-720896,53,-56,-1,-1,0
1523628152386,-720896,53,-56,-1,-1,0
1523628152386,-655360,53,-56,-1,-1,0
1523628152426,-589824,53,-56,-1,-1,0
1523628152426,-589824,53,-56,-1,-1,0
1523628152426,-589824,53,-56,-1,-1,0
1523628152426,-589824,53,-56,-1,-1,0
1523628152426,-589824,53,-56,-1,-1,0
1523628152466,-589824,53,-56,-1,-1,0
1523628152466,-524288,53,-56,-1,-1,0
1523628152466,-458752,53,-56,-1,-1,0
1523628152466,-458752,53,-56,-1,-1,0
1523628152466,-524288,53,-56,-1,-1,0
1523628152506,-524288,53,-56,-1,-1,0
1523628152506,-524288,53,-56,-1,-1,0
1523628152506,-589824,53,-56,-1,-1,0
1523628152506,-589824,53,-56,-1,-1,0
1523628152506,-655360,53,-56,-1,-1,0
1523628152546,-655360,53,-56,-1,-1,0
1523628152546,-655360,53,-56,-1,-1,0
1523628152546,-655360,53,-56,-1,-1,0
1523628152546,-720896,53,-56,-1,-1,0
1523628152546,-720896,53,-56,-1,-1,0
1523628152586,-786432,53,-56,-1,-1,0
1523628152586,-786432,53,-56,-1,-1,0
1523628152586,-851968,53,-56,-1,-1,0
1523628152586,-851968,53,-56,-1,-1,0
1523628152586,-917504,53,-56,-1,-1,0
1523628152626,-851968,53,-56,-1,-1,0
1523628152626,-917504,53,-56,-1,-1,0
1523628152626,-917504,53,-56,-1,-1,0
1523628152626,-917504,53,-56,-1,-1,0
1523628152626,-917504,53,-56,-1,-1,0
1523628152666,-851968,53,-56,-1,-1,0
1523628152666,-851968,53,-56,-1,-1,0
1523628152666,-851968,53,-56,-1,-1,0
1523628152666,-851968,53,-56,-1,-1,0
1523628152666,-851968,53,-56,-1,-1,0
1523628152706,-917504,53,-56,-1,-1,0
1523628152706,-917504,53,-56,-1,-1,0
1523628152706,-917504,53,-56,-1,-1,0
1523628152706,-917504,53,-56,-1,-1,0
1523628152706,-917504,53,-56,-1,-1,0
1523628152746,-917504,53,-56,-1,-1,0
1523628152746,-917504,53,-56,-1,-1,0
1523628152746,-917504,53,-56,-1,-1,0
1523628152746,-917504,53,-56,-1,-1,0
1523628152746,-917504,53,-56,-1,-1,0
1523628152786,-917504,53,-56,-1,-1,0
1523628152786,-917504,53,-56,-1,-1,0
1523628152786,-851968,53,-56,-1,-1,0
1523628152786,-917504,53,-56,-1,-1,0
1523628152786,-917504,53,-56,-1,-1,0
1523628152826,-917504,53,-56,-1,-1,0
1523628152826,-917504,53,-56,-1,-1,0
1523628152826,-917504,53,-56,-1,-1,0
1523628152826,-917504,53,-56,-1,-1,0
1523628152826,-917504,53,-56,-1,-1,0
1523628152866,-917504,53,-56,-1,-1,0
1523628152866,-917504,53,-56,-1,-1,0
1523628152866,-983040,53,-56,-1,-1,0
1523628152866,-983040,53,-56,-1,-1,0
1523628152866,-917504,53,-56,-1,-1,0
1523628152926,-851968,53,-56,-1,-1,0
1523628152926,-786432,53,-56,-1,-1,0
1523628152926,-655360,53,-56,-1,-1,0
1523628152926,-524288,53,-56,-1,-1,0
1523628152926,-589824,53,-56,-1,-1,0
1523628152946,-720896,53,-56,-1,-1,0
1523628152946,-851968,53,-56,-1,-1,0
1523628152946,-917504,53,-56,-1,-1,0
1523628152946,-983040,53,-56,-1,-1,0
1523628152946,-983040,53,-56,-1,-1,0
1523628152986,-983040,53,-56,-1,-1,0
1523628152986,-983040,53,-56,-1,-1,0
1523628152986,-983040,53,-56,-1,-1,0
1523628152986,-1048576,53,-56,-1,-1,0
1523628152986,-1310720,53,-56,-1,-1,0
1523628153026,-1441792,53,-56,-1,-1,0
1523628153026,0,53,-56,-1,-1,0
1523628153026,4128768,53,-56,-1,-1,0
1523628153026,10092544,53,-56,-1,-1,0
1523628153026,14155776,53,-56,-1,-1,0
1523628153066,11862016,53,-56,-1,-1,0
1523628153066,5505024,53,-56,-1,-1,0
1523628153066,1179648,53,-56,-1,-1,0
1523628153066,327680,53,-56,-1,-1,0
1523628153066,0,53,-56,-1,-1,0
1523628153106,-262144,53,-56,-1,-1,0
1523628153106,-458752,53,-56,-1,-1,0
1523628153106,-589824,53,-56,-1,-1,0
1523628153106,-589824,53,-56,-1,-1,0
1523628153106,-589824,53,-56,-1,-1,0
1523628153146,-589824,53,-56,-1,-1,0
1523628153146,-524288,53,-56,-1,-1,0
1523628153146,-458752,53,-56,-1,-1,0
1523628153146,-458752,53,-56,-1,-1,0
1523628153146,-393216,53,-56,-1,-1,0
1523628153186,-327680,53,-56,-1,-1,0
1523628153186,-262144,53,-56,-1,-1,0
1523628153186,-196608,53,-56,-1,-1,0
1523628153186,-65536,53,-56,-1,-1,0
1523628153186,0,53,-56,-1,-1,0
1523628153226,131072,53,-56,-1,-1,0
1523628153226,327680,53,-56,-1,-1,0
1523628153226,458752,53,-56,-1,-1,0
1523628153226,720896,53,-56,-1,-1,0
1523628153226,983040,53,-56,-1,-1,0
1523628153266,1310720,53,-56,-1,-1,0
1523628153266,1638400,53,-56,-1,-1,0
1523628153266,1966080,53,-56,-1,-1,0
1523628153266,2228224,53,-56,-1,-1,0
1523628153266,2490368,53,-56,-1,-1,0
1523628153306,2752512,53,-56,-1,-1,0
1523628153306,2818048,53,-56,-1,-1,0
1523628153306,2818048,53,-56,-1,-1,0
1523628153306,2621440,53,-56,-1,-1,0
1523628153306,2293760,53,-56,-1,-1,0
1523628153346,1769472,55,-56,-1,-1,0
1523628153346,1179648,55,-56,-1,-1,0
1523628153346,655360,55,-56,-1,-1,0
1523628153346,196608,55,-56,-1,-1,0
1523628153346,-65536,55,-56,-1,-1,0
1523628153386,-327680,55,-56,-1,-1,0
1523628153386,-524288,55,-56,-1,-1,0
1523628153386,-589824,55,-56,-1,-1,0
1523628153386,-655360,55,-56,-1,-1,0
1523628153386,-720896,55,-56,-1,-1,0
1523628153426,-720896,55,-56,-1,-1,0
1523628153426,-720896,55,-56,-1,-1,0
1523628153426,-720896,55,-56,-1,-1,0
1523628153426,-720896,55,-56,-1,-1,0
1523628153426,-720896,55,-56,-1,-1,0
1523628153466,-655360,55,-56,-1,-1,0
1523628153466,-589824,55,-56,-1,-1,0
1523628153466,-589824,55,-56,-1,-1,0
1523628153466,-589824,55,-56,-1,-1,0
1523628153466,-524288,55,-56,-1,-1,0
1523628153506,-524288,55,-56,-1,-1,0
1523628153506,-524288,55,-56,-1,-1,0
1523628153506,-524288,55,-56,-1,-1,0
1523628153506,-524288,55,-56,-1,-1,0
1523628153506,-589824,55,-56,-1,-1,0
1523628153566,-589824,55,-56,-1,-1,0
1523628153566,-589824,55,-56,-1,-1,0
1523628153566,-589824,55,-56,-1,-1,0
1523628153566,-589824,55,-56,-1,-1,0
1523628153566,-589824,55,-56,-1,-1,0
1523628153587,-655360,55,-56,-1,-1,0
1523628153587,-655360,55,-56,-1,-1,0
1523628153587,-655360,55,-56,-1,-1,0
1523628153587,-720896,55,-56,-1,-1,0
1523628153587,-720896,55,-56,-1,-1,0
1523628153626,-786432,55,-56,-1,-1,0
1523628153626,-786432,55,-56,-1,-1,0
1523628153626,-851968,55,-56,-1,-1,0
1523628153626,-851968,55,-56,-1,-1,0
1523628153626,-851968,55,-56,-1,-1,0
1523628153666,-851968,55,-56,-1,-1,0
1523628153666,-851968,55,-56,-1,-1,0
1523628153666,-851968,55,-56,-1,-1,0
1523628153666,-851968,55,-56,-1,-1,0
1523628153666,-851968,55,-56,-1,-1,0
1523628153706,-851968,55,-56,-1,-1,0
1523628153706,-851968,55,-56,-1,-1,0
1523628153706,-917504,55,-56,-1,-1,0
1523628153706,-917504,55,-56,-1,-1,0
1523628153706,-917504,55,-56,-1,-1,0
1523628153746,-917504,55,-56,-1,-1,0
1523628153746,-851968,55,-56,-1,-1,0
1523628153746,-851968,55,-56,-1,-1,0
1523628153746,-917504,55,-56,-1,-1,0
1523628153746,-917504,55,-56,-1,-1,0
1523628153786,-917504,55,-56,-1,-1,0
1523628153786,-917504,55,-56,-1,-1,0
1523628153786,-917504,55,-56,-1,-1,0
1523628153786,-917504,55,-56,-1,-1,0
1523628153786,-983040,55,-56,-1,-1,0
1523628153827,-983040,55,-56,-1,-1,0
1523628153827,-983040,55,-56,-1,-1,0
1523628153827,-917504,55,-56,-1,-1,0
1523628153827,-917504,55,-56,-1,-1,0
1523628153827,-917504,55,-56,-1,-1,0
1523628153866,-851968,55,-56,-1,-1,0
1523628153866,-851968,55,-56,-1,-1,0
1523628153866,-917504,55,-56,-1,-1,0
1523628153866,-917504,55,-56,-1,-1,0
1523628153866,-917504,55,-56,-1,-1,0
1523628153906,-917504,55,-56,-1,-1,0
1523628153906,-917504,55,-56,-1,-1,0
1523628153906,-851968,55,-56,-1,-1,0
1523628153906,-720896,55,-56,-1,-1,0
1523628153906,-589824,55,-56,-1,-1,0
1523628153946,-524288,55,-56,-1,-1,0
1523628153946,-589824,55,-56,-1,-1,0
1523628153946,-720896,55,-56,-1,-1,0
1523628153946,-851968,55,-56,-1,-1,0
1523628153946,-917504,55,-56,-1,-1,0
1523628153986,-917504,55,-56,-1,-1,0
1523628153986,-983040,55,-56,-1,-1,0
1523628153986,-983040,55,-56,-1,-1,0
1523628153986,-983040,55,-56,-1,-1,0
1523628153986,-983040,55,-56,-1,-1,0
1523628154026,-1048576,55,-56,-1,-1,0
1523628154026,-1310720,55,-56,-1,-1,0
1523628154026,-1310720,55,-56,-1,-1,0
1523628154026,262144,55,-56,-1,-1,0
1523628154026,4653056,55,-56,-1,-1,0
1523628154066,10747904,55,-56,-1,-1,0
1523628154066,14417920,55,-56,-1,-1,0
1523628154066,11468800,55,-56,-1,-1,0
1523628154066,5046272,55,-56,-1,-1,0
1523628154066,1048576,55,-56,-1,-1,0
1523628154107,327680,55,-56,-1,-1,0
1523628154107,0,55,-56,-1,-1,0
1523628154107,-327680,55,-56,-1,-1,0
1523628154107,-524288,55,-56,-1,-1,0
1523628154107,-589824,55,-56,-1,-1,0
1523628154146,-589824,55,-56,-1,-1,0
1523628154146,-589824,55,-56,-1,-1,0
1523628154146,-524288,55,-56,-1,-1,0
1523628154146,-524288,55,-56,-1,-1,0
1523628154146,-458752,55,-56,-1,-1,0
1523628154206,-393216,55,-56,-1,-1,0
1523628154206,-327680,55,-56,-1,-1,0
1523628154206,-262144,55,-56,-1,-1,0
1523628154206,-196608,55,-56,-1,-1,0
1523628154206,-131072,55,-56,-1,-1,0
1523628154226,-65536,55,-56,-1,-1,0
1523628154226,0,55,-56,-1,-1,0
1523628154226,131072,55,-56,-1,-1,0
1523628154226,327680,55,-56,-1,-1,0
1523628154226,458752,55,-56,-1,-1,0
1523628154266,655360,55,-56,-1,-1,0
1523628154266,917504,55,-56,-1,-1,0
1523628154266,1179648,55,-56,-1,-1,0
1523628154266,1507328,55,-56,-1,-1,0
1523628154266,1835008,55,-56,-1,-1,0
1523628154306,2097152,55,-56,-1,-1,0
1523628154306,2359296,55,-56,-1,-1,0
1523628154306,2555904,55,-56,-1,-1,0
1523628154306,2686976,55,-56,-1,-1,0
1523628154306,2686976,55,-56,-1,-1,0
1523628154346,2555904,55,-56,-1,-1,0
1523628154346,2228224,55,-56,-1,-1,0
1523628154346,1703936,55,-56,-1,-1,0
1523628154346,1114112,55,-56,-1,-1,0
1523628154346,655360,55,-56,-1,-1,0
1523628154386,196608,56,-56,-1,-1,0
1523628154386,-65536,56,-56,-1,-1,0
1523628154386,-327680,56,-56,-1,-1,0
1523628154386,-458752,56,-56,-1,-1,0
1523628154386,-524288,56,-56,-1,-1,0
1523628154426,-589824,56,-56,-1,-1,0
1523628154426,-589824,56,-56,-1,-1,0
1523628154426,-655360,56,-56,-1,-1,0
1523628154426,-655360,56,-56,-1,-1,0
1523628154426,-589824,56,-56,-1,-1,0
1523628154466,-589824,56,-56,-1,-1,0
1523628154466,-589824,56,-56,-1,-1,0
1523628154466,-589824,56,-56,-1,-1,0
1523628154466,-524288,56,-56,-1,-1,0
1523628154466,-524288,56,-56,-1,-1,0
1523628154506,-524288,56,-56,-1,-1,0
1523628154506,-458752,56,-56,-1,-1,0
1523628154506,-458752,56,-56,-1,-1,0
1523628154506,-524288,56,-56,-1,-1,0
1523628154506,-458752,56,-56,-1,-1,0
1523628154546,-458752,56,-56,-1,-1,0
1523628154546,-524288,56,-56,-1,-1,0
1523628154546,-524288,56,-56,-1,-1,0
1523628154546,-524288,56,-56,-1,-1,0
1523628154546,-524288,56,-56,-1,-1,0
1523628154586,-524288,56,-56,-1,-1,0
1523628154586,-524288,56,-56,-1,-1,0
1523628154586,-589824,56,-56,-1,-1,0
1523628154586,-655360,56,-56,-1,-1,0
1523628154586,-655360,56,-56,-1,-1,0
1523628154627,-655360,56,-56,-1,-1,0
1523628154627,-720896,56,-56,-1,-1,0
1523628154627,-720896,56,-56,-1,-1,0
1523628154627,-720896,56,-56,-1,-1,0
1523628154627,-720896,56,-56,-1,-1,0
1523628154666,-786432,56,-56,-1,-1,0
1523628154666,-786432,56,-56,-1,-1,0
1523628154666,-786432,56,-56,-1,-1,0
1523628154666,-786432,56,-56,-1,-1,0
1523628154666,-786432,56,-56,-1,-1,0
1523628154706,-851968,56,-56,-1,-1,0
1523628154706,-851968,56,-56,-1,-1,0
1523628154706,-917504,56,-56,-1,-1,0
1523628154706,-917504,56,-56,-1,-1,0
1523628154706,-851968,56,-56,-1,-1,0
1523628154746,-851968,56,-56,-1,-1,0
1523628154746,-851968,56,-56,-1,-1,0
1523628154746,-851968,56,-56,-1,-1,0
1523628154746,-851968,56,-56,-1,-1,0
1523628154746,-851968,56,-56,-1,-1,0
1523628154786,-851968,56,-56,-1,-1,0
1523628154786,-851968,56,-56,-1,-1,0
1523628154786,-917504,56,-56,-1,-1,0
1523628154786,-917504,56,-56,-1,-1,0
1523628154786,-917504,56,-56,-1,-1,0
1523628154846,-851968,56,-56,-1,-1,0
1523628154846,-851968,56,-56,-1,-1,0
1523628154846,-851968,56,-56,-1,-1,0
1523628154846,-917504,56,-56,-1,-1,0
1523628154846,-917504,56,-56,-1,-1,0
1523628154866,-851968,56,-56,-1,-1,0
1523628154866,-851968,56,-56,-1,-1,0
1523628154866,-917504,56,-56,-1,-1,0
1523628154866,-917504,56,-56,-1,-1,0
1523628154866,-917504,56,-56,-1,-1,0
1523628154906,-851968,56,-56,-1,-1,0
1523628154906,-917504,56,-56,-1,-1,0
1523628154906,-917504,56,-56,-1,-1,0
1523628154906,-851968,56,-56,-1,-1,0
1523628154906,-851968,56,-56,-1,-1,0
1523628154946,-851968,56,-56,-1,-1,0
1523628154946,-917504,56,-56,-1,-1,0
1523628154946,-917504,56,-56,-1,-1,0
1523628154946,-917504,56,-56,-1,-1,0
1523628154946,-851968,56,-56,-1,-1,0
1523628154986,-786432,56,-56,-1,-1,0
1523628154986,-720896,56,-56,-1,-1,0
1523628154986,-589824,56,-56,-1,-1,0
1523628154986,-524288,56,-56,-1,-1,0
1523628154986,-589824,56,-56,-1,-1,0
1523628155026,-720896,56,-56,-1,-1,0
1523628155026,-786432,56,-56,-1,-1,0
1523628155026,-851968,56,-56,-1,-1,0
1523628155026,-917504,56,-56,-1,-1,0
1523628155026,-917504,56,-56,-1,-1,0
1523628155066,-851968,56,-56,-1,-1,0
1523628155066,-917504,56,-56,-1,-1,0
1523628155066,-917504,56,-56,-1,-1,0
1523628155066,-983040,56,-56,-1,-1,0
1523628155066,-1310720,56,-56,-1,-1,0
1523628155106,-1179648,56,-56,-1,-1,0
1523628155106,720896,56,-56,-1,-1,0
1523628155106,5373952,56,-56,-1,-1,0
1523628155106,11534336,56,-56,-1,-1,0
1523628155106,14548992,56,-56,-1,-1,0
1523628155146,10878976,56,-56,-1,-1,0
1523628155146,4521984,56,-56,-1,-1,0
1523628155146,917504,56,-56,-1,-1,0
1523628155146,327680,56,-56,-1,-1,0
1523628155146,0,56,-56,-1,-1,0
1523628155186,-327680,56,-56,-1,-1,0
1523628155186,-458752,56,-56,-1,-1,0
1523628155186,-524288,56,-56,-1,-1,0
1523628155186,-524288,56,-56,-1,-1,0
1523628155186,-524288,56,-56,-1,-1,0
1523628155226,-524288,56,-56,-1,-1,0
1523628155226,-524288,56,-56,-1,-1,0
1523628155226,-458752,56,-56,-1,-1,0
1523628155226,-458752,56,-56,-1,-1,0
1523628155226,-393216,56,-56,-1,-1,0
1523628155266,-327680,56,-56,-1,-1,0
1523628155266,-262144,56,-56,-1,-1,0
1523628155266,-131072,56,-56,-1,-1,0
1523628155266,-65536,56,-56,-1,-1,0
1523628155266,0,56,-56,-1,-1,0
1523628155306,131072,56,-56,-1,-1,0
1523628155306,262144,56,-56,-1,-1,0
1523628155306,458752,56,-56,-1,-1,0
1523628155306,720896,56,-56,-1,-1,0
1523628155306,917504,56,-56,-1,-1,0
1523628155346,1245184,56,-56,-1,-1,0
1523628155346,1507328,56,-56,-1,-1,0
1523628155346,1835008,56,-56,-1,-1,0
1523628155346,2097152,56,-56,-1,-1,0
1523628155346,2359296,56,-56,-1,-1,0
1523628155386,2555904,56,-56,-1,-1,0
1523628155386,2555904,56,-56,-1,-1,0
1523628155386,2555904,56,-56,-1,-1,0
1523628155386,2359296,56,-56,-1,-1,0
1523628155386,2031616,56,-56,-1,-1,0
1523628155426,1507328,56,-56,-1,-1,0
1523628155426,983040,56,-56,-1,-1,0
1523628155426,458752,56,-56,-1,-1,0
1523628155426,65536,56,-56,-1,-1,0
1523628155426,-196608,56,-56,-1,-1,0
1523628155486,-458752,56,-56,-1,-1,0
1523628155486,-655360,56,-56,-1,-1,0
1523628155486,-720896,56,-56,-1,-1,0
1523628155486,-786432,56,-56,-1,-1,0
1523628155486,-851968,56,-56,-1,-1,0
1523628155506,-851968,56,-56,-1,-1,0
1523628155506,-786432,56,-56,-1,-1,0
1523628155506,-786432,56,-56,-1,-1,0
1523628155506,-851968,56,-56,-1,-1,0
1523628155506,-786432,56,-56,-1,-1,0
1523628155546,-786432,56,-56,-1,-1,0
1523628155546,-720896,56,-56,-1,-1,0
1523628155546,-720896,56,-56,-1,-1,0
1523628155546,-655360,56,-56,-1,-1,0
1523628155546,-655360,56,-56,-1,-1,0
1523628155586,-655360,56,-56,-1,-1,0
1523628155586,-655360,56,-56,-1,-1,0
1523628155586,-655360,56,-56,-1,-1,0
1523628155586,-655360,56,-56,-1,-1,0
1523628155586,-655360,56,-56,-1,-1,0
1523628155626,-655360,56,-56,-1,-1,0
1523628155626,-655360,56,-56,-1,-1,0
1523628155626,-720896,56,-56,-1,-1,0
1523628155626,-720896,56,-56,-1,-1,0
1523628155626,-786432,56,-56,-1,-1,0
1523628155666,-786432,56,-56,-1,-1,0
1523628155666,-786432,56,-56,-1,-1,0
1523628155666,-851968,56,-56,-1,-1,0
1523628155666,-851968,56,-56,-1,-1,0
1523628155666,-851968,56,-56,-1,-1,0
1523628155707,-917504,56,-56,-1,-1,0
1523628155707,-786432,56,-56,-1,-1,0
1523628155707,-720896,56,-56,-1,-1,0
1523628155707,-851968,56,-56,-1,-1,0
1523628155707,-917504,56,-56,-1,-1,0
1523628155746,-851968,56,-56,-1,-1,0
1523628155746,-786432,56,-56,-1,-1,0
1523628155746,-786432,56,-56,-1,-1,0
1523628155746,-786432,56,-56,-1,-1,0
1523628155746,-786432,56,-56,-1,-1,0
1523628155786,-851968,56,-56,-1,-1,0
1523628155786,-851968,56,-56,-1,-1,0
1523628155786,-917504,56,-56,-1,-1,0
1523628155786,-917504,56,-56,-1,-1,0
1523628155786,-917504,56,-56,-1,-1,0
1523628155826,-917504,56,-56,-1,-1,0
1523628155826,-917504,56,-56,-1,-1,0
1523628155826,-917504,56,-56,-1,-1,0
1523628155826,-917504,56,-56,-1,-1,0
1523628155826,-917504,56,-56,-1,-1,0
1523628155866,-917504,56,-56,-1,-1,0
1523628155866,-917504,56,-56,-1,-1,0
1523628155866,-983040,56,-56,-1,-1,0
1523628155866,-917504,56,-56,-1,-1,0
1523628155866,-917504,56,-56,-1,-1,0
1523628155906,-917504,56,-56,-1,-1,0
1523628155906,-983040,56,-56,-1,-1,0
1523628155906,-983040,56,-56,-1,-1,0
1523628155906,-983040,56,-56,-1,-1,0
1523628155906,-983040,56,-56,-1,-1,0
1523628155946,-983040,56,-56,-1,-1,0
1523628155946,-917504,56,-56,-1,-1,0
1523628155946,-983040,56,-56,-1,-1,0
1523628155946,-983040,56,-56,-1,-1,0
1523628155946,-983040,56,-56,-1,-1,0
1523628155986,-851968,56,-56,-1,-1,0
1523628155986,-851968,56,-56,-1,-1,0
1523628155986,-786432,56,-56,-1,-1,0
1523628155986,-720896,56,-56,-1,-1,0
1523628155986,-720896,56,-56,-1,-1,0
1523628156026,-851968,56,-56,-1,-1,0
1523628156026,-983040,56,-56,-1,-1,0
1523628156026,-1048576,56,-56,-1,-1,0
1523628156026,-1048576,56,-56,-1,-1,0
1523628156026,-1048576,56,-56,-1,-1,0
1523628156066,-1048576,56,-56,-1,-1,0
1523628156066,-983040,56,-56,-1,-1,0
1523628156066,-983040,56,-56,-1,-1,0
1523628156066,-1048576,56,-56,-1,-1,0
1523628156066,-1245184,56,-56,-1,-1,0
1523628156126,-1507328,56,-56,-1,-1,0
1523628156126,-589824,56,-56,-1,-1,0
1523628156126,2359296,56,-56,-1,-1,0
1523628156126,7340032,56,-56,-1,-1,0
1523628156126,12124160,56,-56,-1,-1,0
1523628156146,12255232,56,-56,-1,-1,0
1523628156146,6946816,56,-56,-1,-1,0
1523628156146,1835008,56,-56,-1,-1,0
1523628156146,196608,56,-56,-1,-1,0
1523628156146,65536,56,-56,-1,-1,0
1523628156186,-196608,56,-56,-1,-1,0
1523628156186,-458752,56,-56,-1,-1,0
1523628156186,-524288,56,-56,-1,-1,0
1523628156186,-589824,56,-56,-1,-1,0
1523628156186,-589824,56,-56,-1,-1,0
1523628156226,-524288,56,-56,-1,-1,0
1523628156226,-458752,56,-56,-1,-1,0
1523628156226,-458752,56,-56,-1,-1,0
1523628156226,-458752,56,-56,-1,-1,0
1523628156226,-393216,56,-56,-1,-1,0
1523628156266,-262144,56,-56,-1,-1,0
1523628156266,-196608,56,-56,-1,-1,0
1523628156266,-65536,56,-56,-1,-1,0
1523628156266,0,56,-56,-1,-1,0
1523628156266,131072,56,-56,-1,-1,0
1523628156306,262144,56,-56,-1,-1,0
1523628156306,393216,56,-56,-1,-1,0
1523628156306,589824,56,-56,-1,-1,0
1523628156306,851968,56,-56,-1,-1,0
1523628156306,1114112,56,-56,-1,-1,0
1523628156346,1376256,56,-56,-1,-1,0
1523628156346,1638400,56,-56,-1,-1,0
1523628156346,2097152,56,-56,-1,-1,0
1523628156346,2621440,56,-56,-1,-1,0
1523628156346,2949120,56,-56,-1,-1,0
1523628156386,3014656,58,-56,-1,-1,0
1523628156386,2949120,58,-56,-1,-1,0
1523628156386,2949120,58,-56,-1,-1,0
1523628156386,2883584,58,-56,-1,-1,0
1523628156386,2555904,58,-56,-1,-1,0
1523628156426,2031616,58,-56,-1,-1,0
1523628156426,1507328,58,-56,-1,-1,0
1523628156426,917504,58,-56,-1,-1,0
1523628156426,393216,58,-56,-1,-1,0
1523628156426,0,58,-56,-1,-1,0
1523628156466,-196608,58,-56,-1,-1,0
1523628156466,-524288,58,-56,-1,-1,0
1523628156466,-786432,58,-56,-1,-1,0
1523628156466,-851968,58,-56,-1,-1,0
1523628156466,-786432,58,-56,-1,-1,0
1523628156506,-786432,58,-56,-1,-1,0
1523628156506,-786432,58,-56,-1,-1,0
1523628156506,-720896,58,-56,-1,-1,0
1523628156506,-655360,58,-56,-1,-1,0
1523628156506,-655360,58,-56,-1,-1,0
1523628156546,-655360,58,-56,-1,-1,0
1523628156546,-655360,58,-56,-1,-1,0
1523628156546,-655360,58,-56,-1,-1,0
1523628156546,-655360,58,-56,-1,-1,0
1523628156546,-589824,58,-56,-1,-1,0
1523628156586,-589824,58,-56,-1,-1,0
1523628156586,-589824,58,-56,-1,-1,0
1523628156586,-589824,58,-56,-1,-1,0
1523628156586,-655360,58,-56,-1,-1,0
1523628156586,-524288,58,-56,-1,-1,0
1523628156626,-458752,58,-56,-1,-1,0
1523628156626,-524288,58,-56,-1,-1,0
1523628156626,-655360,58,-56,-1,-1,0
1523628156626,-720896,58,-56,-1,-1,0
1523628156626,-786432,58,-56,-1,-1,0
1523628156666,-786432,58,-56,-1,-1,0
1523628156666,-720896,58,-56,-1,-1,0
1523628156666,-720896,58,-56,-1,-1,0
1523628156666,-786432,58,-56,-1,-1,0
1523628156666,-851968,58,-56,-1,-1,0
1523628156706,-917504,58,-56,-1,-1,0
1523628156706,-917504,58,-56,-1,-1,0
1523628156706,-917504,58,-56,-1,-1,0
1523628156706,-983040,58,-56,-1,-1,0
1523628156706,-917504,58,-56,-1,-1,0
1523628156766,-917504,58,-56,-1,-1,0
1523628156766,-851968,58,-56,-1,-1,0
1523628156766,-786432,58,-56,-1,-1,0
1523628156766,-786432,58,-56,-1,-1,0
1523628156766,-917504,58,-56,-1,-1,0
1523628156786,-917504,58,-56,-1,-1,0
1523628156786,-983040,58,-56,-1,-1,0
1523628156786,-983040,58,-56,-1,-1,0
1523628156786,-917504,58,-56,-1,-1,0
1523628156786,-917504,58,-56,-1,-1,0
1523628156826,-917504,58,-56,-1,-1,0
1523628156826,-983040,58,-56,-1,-1,0
1523628156826,-983040,58,-56,-1,-1,0
1523628156826,-917504,58,-56,-1,-1,0
1523628156826,-917504,58,-56,-1,-1,0
1523628156866,-983040,58,-56,-1,-1,0
1523628156866,-917504,58,-56,-1,-1,0
1523628156866,-983040,58,-56,-1,-1,0
1523628156866,-1048576,58,-56,-1,-1,0
1523628156866,-1048576,58,-56,-1,-1,0
1523628156906,-1048576,58,-56,-1,-1,0
1523628156906,-1048576,58,-56,-1,-1,0
1523628156906,-1048576,58,-56,-1,-1,0
1523628156906,-1048576,58,-56,-1,-1,0
1523628156906,-1179648,58,-56,-1,-1,0
1523628156946,-1114112,58,-56,-1,-1,0
1523628156946,-1048576,58,-56,-1,-1,0
1523628156946,-851968,58,-56,-1,-1,0
1523628156946,-851968,58,-56,-1,-1,0
1523628156946,-917504,58,-56,-1,-1,0
1523628156986,-983040,58,-56,-1,-1,0
1523628156986,-917504,58,-56,-1,-1,0
1523628156986,-720896,58,-56,-1,-1,0
1523628156986,-720896,58,-56,-1,-1,0
1523628156986,-851968,58,-56,-1,-1,0
1523628157026,-1048576,58,-56,-1,-1,0
1523628157026,-1048576,58,-56,-1,-1,0
1523628157026,-983040,58,-56,-1,-1,0
1523628157026,-1048576,58,-56,-1,-1,0
1523628157026,-1114112,58,-56,-1,-1,0
1523628157066,-1114112,58,-56,-1,-1,0
1523628157066,-1048576,58,-56,-1,-1,0
1523628157066,-1114112,58,-56,-1,-1,0
1523628157066,-1310720,58,-56,-1,-1,0
1523628157066,-1572864,58,-56,-1,-1,0
1523628157106,-851968,58,-56,-1,-1,0
1523628157106,2097152,58,-56,-1,-1,0
1523628157106,7536640,58,-56,-1,-1,0
1523628157106,12910592,58,-56,-1,-1,0
1523628157106,13303808,58,-56,-1,-1,0
1523628157146,7864320,58,-56,-1,-1,0
1523628157146,2359296,58,-56,-1,-1,0
1523628157146,458752,58,-56,-1,-1,0
1523628157146,131072,58,-56,-1,-1,0
1523628157146,-196608,58,-56,-1,-1,0
1523628157186,-458752,58,-56,-1,-1,0
1523628157186,-524288,58,-56,-1,-1,0
1523628157186,-589824,58,-56,-1,-1,0
1523628157186,-524288,58,-56,-1,-1,0
1523628157186,-589824,58,-56,-1,-1,0
1523628157226,-458752,58,-56,-1,-1,0
1523628157226,-458752,58,-56,-1,-1,0
1523628157226,-393216,58,-56,-1,-1,0
1523628157226,-327680,58,-56,-1,-1,0
1523628157226,-262144,58,-56,-1,-1,0
1523628157266,-262144,58,-56,-1,-1,0
1523628157266,-131072,58,-56,-1,-1,0
1523628157266,-65536,58,-56,-1,-1,0
1523628157266,0,58,-56,-1,-1,0
1523628157266,196608,58,-56,-1,-1,0
1523628157306,327680,58,-56,-1,-1,0
1523628157306,524288,58,-56,-1,-1,0
1523628157306,786432,58,-56,-1,-1,0
1523628157306,1048576,58,-56,-1,-1,0
1523628157306,1310720,58,-56,-1,-1,0
1523628157346,1703936,58,-56,-1,-1,0
1523628157346,2097152,58,-56,-1,-1,0
1523628157346,2424832,58,-56,-1,-1,0
1523628157346,2686976,58,-56,-1,-1,0
1523628157346,2949120,58,-56,-1,-1,0
1523628157406,3145728,58,-56,-1,-1,0
1523628157406,3211264,58,-56,-1,-1,0
1523628157406,3080192,58,-56,-1,-1,0
1523628157406,2752512,58,-56,-1,-1,0
1523628157406,2293760,58,-56,-1,-1,0
1523628157426,1703936,58,-56,-1,-1,0
1523628157426,1179648,58,-56,-1,-1,0
1523628157426,720896,58,-56,-1,-1,0
1523628157426,458752,58,-56,-1,-1,0
1523628157426,262144,58,-56,-1,-1,0
1523628157466,65536,58,-56,-1,-1,0
1523628157466,0,58,-56,-1,-1,0
1523628157466,0,58,-56,-1,-1,0
1523628157466,-65536,58,-56,-1,-1,0
1523628157466,-65536,58,-56,-1,-1,0
1523628157506,-65536,58,-56,-1,-1,0
1523628157506,-65536,58,-56,-1,-1,0
1523628157506,-65536,58,-56,-1,-1,0
1523628157506,-65536,58,-56,-1,-1,0
1523628157506,-65536,58,-56,-1,-1,0
1523628157546,-65536,58,-56,-1,-1,0
1523628157546,0,58,-56,-1,-1,0
1523628157546,0,58,-56,-1,-1,0
1523628157546,-65536,58,-56,-1,-1,0
1523628157546,-65536,58,-56,-1,-1,0
1523628157586,-131072,58,-56,-1,-1,0
1523628157586,-131072,58,-56,-1,-1,0
1523628157586,-65536,58,-56,-1,-1,0
1523628157586,-131072,58,-56,-1,-1,0
1523628157586,-131072,58,-56,-1,-1,0
1523628157626,-131072,58,-56,-1,-1,0
1523628157626,-196608,58,-56,-1,-1,0
1523628157626,-327680,58,-56,-1,-1,0
1523628157626,-327680,58,-56,-1,-1,0
1523628157626,-393216,58,-56,-1,-1,0
1523628157666,-393216,58,-56,-1,-1,0
1523628157666,-458752,58,-56,-1,-1,0
1523628157666,-458752,58,-56,-1,-1,0
1523628157666,-524288,58,-56,-1,-1,0
1523628157666,-589824,58,-56,-1,-1,0
1523628157706,-524288,58,-56,-1,-1,0
1523628157706,-589824,58,-56,-1,-1,0
1523628157706,-655360,58,-56,-1,-1,0
1523628157706,-720896,58,-56,-1,-1,0
1523628157706,-720896,58,-56,-1,-1,0
1523628157746,-720896,58,-56,-1,-1,0
1523628157746,-786432,58,-56,-1,-1,0
1523628157746,-851968,58,-56,-1,-1,0
1523628157746,-851968,58,-56,-1,-1,0
1523628157746,-851968,58,-56,-1,-1,0
1523628157786,-851968,58,-56,-1,-1,0
1523628157786,-786432,58,-56,-1,-1,0
1523628157786,-851968,58,-56,-1,-1,0
1523628157786,-917504,58,-56,-1,-1,0
1523628157786,-851968,58,-56,-1,-1,0
1523628157826,-851968,58,-56,-1,-1,0
1523628157826,-851968,58,-56,-1,-1,0
1523628157826,-917504,58,-56,-1,-1,0
1523628157826,-917504,58,-56,-1,-1,0
1523628157826,-983040,58,-56,-1,-1,0
1523628157866,-983040,58,-56,-1,-1,0
1523628157866,-983040,58,-56,-1,-1,0
1523628157866,-1048576,58,-56,-1,-1,0
1523628157866,-1048576,58,-56,-1,-1,0
1523628157866,-1114112,58,-56,-1,-1,0
1523628157906,-1114112,58,-56,-1,-1,0
1523628157906,-1114112,58,-56,-1,-1,0
1523628157906,-1114112,58,-56,-1,-1,0
1523628157906,-1114112,58,-56,-1,-1,0
1523628157906,-1114112,58,-56,-1,-1,0
1523628157946,-1114112,58,-56,-1,-1,0
1523628157946,-1179648,58,-56,-1,-1,0
1523628157946,-1114112,58,-56,-1,-1,0
1523628157946,-1048576,58,-56,-1,-1,0
1523628157946,-1048576,58,-56,-1,-1,0
1523628157986,-1179648,58,-56,-1,-1,0
1523628157986,-1245184,58,-56,-1,-1,0
1523628157986,-1245184,58,-56,-1,-1,0
1523628157986,-1310720,58,-56,-1,-1,0
1523628157986,-1245184,58,-56,-1,-1,0
1523628158046,-1114112,58,-56,-1,-1,0
1523628158046,-1114112,58,-56,-1,-1,0
1523628158046,-1114112,58,-56,-1,-1,0
1523628158046,-1179648,58,-56,-1,-1,0
1523628158046,-1245184,58,-56,-1,-1,0
1523628158066,-1179648,58,-56,-1,-1,0
1523628158066,-1114112,58,-56,-1,-1,0
1523628158066,-1179648,58,-56,-1,-1,0
1523628158066,-1245184,58,-56,-1,-1,0
1523628158066,-1114112,58,-56,-1,-1,0
1523628158106,-1048576,58,-56,-1,-1,0
1523628158106,-1179648,58,-56,-1,-1,0
1523628158106,-1179648,58,-56,-1,-1,0
1523628158106,-1114112,58,-56,-1,-1,0
1523628158106,-1114112,58,-56,-1,-1,0
1523628158146,-1048576,58,-56,-1,-1,0
1523628158146,-917504,58,-56,-1,-1,0
1523628158146,-720896,58,-56,-1,-1,0
1523628158146,-655360,58,-56,-1,-1,0
1523628158146,-524288,58,-56,-1,-1,0
1523628158186,-524288,58,-56,-1,-1,0
1523628158186,-655360,58,-56,-1,-1,0
1523628158186,-786432,58,-56,-1,-1,0
1523628158186,-786432,58,-56,-1,-1,0
1523628158186,-786432,58,-56,-1,-1,0
1523628158226,-917504,58,-56,-1,-1,0
1523628158226,-983040,58,-56,-1,-1,0
1523628158226,-983040,58,-56,-1,-1,0
1523628158226,-983040,58,-56,-1,-1,0
1523628158226,-983040,58,-56,-1,-1,0
1523628158266,-1179648,58,-56,-1,-1,0
1523628158266,-1507328,58,-56,-1,-1,0
1523628158266,-720896,58,-56,-1,-1,0
1523628158266,2162688,58,-56,-1,-1,0
1523628158266,7405568,58,-56,-1,-1,0
1523628158306,12517376,58,-56,-1,-1,0
1523628158306,13107200,58,-56,-1,-1,0
1523628158306,8192000,58,-56,-1,-1,0
1523628158306,2883584,58,-56,-1,-1,0
1523628158306,786432,58,-56,-1,-1,0
1523628158346,393216,58,-56,-1,-1,0
1523628158346,0,58,-56,-1,-1,0
1523628158346,-393216,58,-56,-1,-1,0
1523628158346,-589824,58,-56,-1,-1,0
1523628158346,-655360,58,-56,-1,-1,0
1523628158386,-786432,58,-56,-1,-1,0
1523628158386,-786432,58,-56,-1,-1,0
1523628158386,-655360,58,-56,-1,-1,0
1523628158386,-589824,58,-56,-1,-1,0
1523628158386,-655360,58,-56,-1,-1,0
1523628158426,-589824,58,-56,-1,-1,0
1523628158426,-262144,58,-56,-1,-1,0
1523628158426,-65536,58,-56,-1,-1,0
1523628158426,0,58,-56,-1,-1,0
1523628158426,0,58,-56,-1,-1,0
1523628158466,0,58,-56,-1,-1,0
1523628158466,131072,58,-56,-1,-1,0
1523628158466,262144,58,-56,-1,-1,0
1523628158466,393216,58,-56,-1,-1,0
1523628158466,589824,58,-56,-1,-1,0
1523628158506,786432,58,-56,-1,-1,0
1523628158506,1048576,58,-56,-1,-1,0
1523628158506,1310720,58,-56,-1,-1,0
1523628158506,1638400,58,-56,-1,-1,0
1523628158506,1966080,58,-56,-1,-1,0
1523628158546,2293760,58,-56,-1,-1,0
1523628158546,2555904,58,-56,-1,-1,0
1523628158546,2752512,58,-56,-1,-1,0
1523628158546,2883584,58,-56,-1,-1,0
1523628158546,2883584,58,-56,-1,-1,0
1523628158586,2686976,58,-56,-1,-1,0
1523628158586,2228224,58,-56,-1,-1,0
1523628158586,1703936,58,-56,-1,-1,0
1523628158586,1114112,58,-56,-1,-1,0
1523628158586,589824,58,-56,-1,-1,0
1523628158626,262144,58,-56,-1,-1,0
1523628158626,0,58,-56,-1,-1,0
1523628158626,-196608,58,-56,-1,-1,0
1523628158626,-327680,58,-56,-1,-1,0
1523628158626,-393216,58,-56,-1,-1,0
1523628158686,-458752,56,-56,-1,-1,0
1523628158686,-458752,56,-56,-1,-1,0
1523628158686,-524288,56,-56,-1,-1,0
1523628158686,-524288,56,-56,-1,-1,0
1523628158686,-589824,56,-56,-1,-1,0
1523628158706,-589824,56,-56,-1,-1,0
1523628158706,-589824,56,-56,-1,-1,0
1523628158706,-655360,56,-56,-1,-1,0
1523628158706,-655360,56,-56,-1,-1,0
1523628158706,-589824,56,-56,-1,-1,0
1523628158746,-524288,56,-56,-1,-1,0
1523628158746,-524288,56,-56,-1,-1,0
1523628158746,-458752,56,-56,-1,-1,0
1523628158746,-393216,56,-56,-1,-1,0
1523628158746,-393216,56,-56,-1,-1,0
1523628158786,-393216,56,-56,-1,-1,0
1523628158786,-393216,56,-56,-1,-1,0
1523628158786,-393216,56,-56,-1,-1,0
1523628158786,-393216,56,-56,-1,-1,0
1523628158786,-458752,56,-56,-1,-1,0
1523628158826,-524288,56,-56,-1,-1,0
1523628158826,-524288,56,-56,-1,-1,0
1523628158826,-458752,56,-56,-1,-1,0
1523628158826,-524288,56,-56,-1,-1,0
1523628158826,-589824,56,-56,-1,-1,0
1523628158866,-589824,56,-56,-1,-1,0
1523628158866,-655360,56,-56,-1,-1,0
1523628158866,-655360,56,-56,-1,-1,0
1523628158866,-655360,56,-56,-1,-1,0
1523628158866,-589824,56,-56,-1,-1,0
1523628158906,-655360,56,-56,-1,-1,0
1523628158906,-655360,56,-56,-1,-1,0
1523628158906,-720896,56,-56,-1,-1,0
1523628158906,-720896,56,-56,-1,-1,0
1523628158906,-720896,56,-56,-1,-1,0
1523628158946,-720896,56,-56,-1,-1,0
1523628158946,-786432,56,-56,-1,-1,0
1523628158946,-786432,56,-56,-1,-1,0
1523628158946,-786432,56,-56,-1,-1,0
1523628158946,-786432,56,-56,-1,-1,0
1523628158986,-720896,56,-56,-1,-1,0
1523628158986,-720896,56,-56,-1,-1,0
1523628158986,-720896,56,-56,-1,-1,0
1523628158986,-786432,56,-56,-1,-1,0
1523628158986,-786432,56,-56,-1,-1,0
1523628159026,-786432,56,-56,-1,-1,0
1523628159026,-720896,56,-56,-1,-1,0
1523628159026,-786432,56,-56,-1,-1,0
1523628159026,-786432,56,-56,-1,-1,0
1523628159026,-786432,56,-56,-1,-1,0
1523628159066,-786432,56,-56,-1,-1,0
1523628159066,-786432,56,-56,-1,-1,0
1523628159066,-786432,56,-56,-1,-1,0
1523628159066,-786432,56,-56,-1,-1,0
1523628159066,-786432,56,-56,-1,-1,0
1523628159106,-851968,56,-56,-1,-1,0
1523628159106,-851968,56,-56,-1,-1,0
1523628159106,-851968,56,-56,-1,-1,0
1523628159106,-917504,56,-56,-1,-1,0
1523628159106,-917504,56,-56,-1,-1,0
1523628159146,-983040,56,-56,-1,-1,0
1523628159146,-983040,56,-56,-1,-1,0
1523628159146,-983040,56,-56,-1,-1,0
1523628159146,-983040,56,-56,-1,-1,0
1523628159146,-983040,56,-56,-1,-1,0
1523628159186,-983040,56,-56,-1,-1,0
1523628159186,-983040,56,-56,-1,-1,0
1523628159186,-1048576,56,-56,-1,-1,0
1523628159186,-983040,56,-56,-1,-1,0
1523628159186,-983040,56,-56,-1,-1,0
1523628159226,-983040,56,-56,-1,-1,0
1523628159226,-917504,56,-56,-1,-1,0
1523628159226,-917504,56,-56,-1,-1,0
1523628159226,-786432,56,-56,-1,-1,0
1523628159226,-720896,56,-56,-1,-1,0
1523628159266,-720896,56,-56,-1,-1,0
1523628159266,-851968,56,-56,-1,-1,0
1523628159266,-983040,56,-56,-1,-1,0
1523628159266,-1048576,56,-56,-1,-1,0
1523628159266,-1048576,56,-56,-1,-1,0
1523628159326,-1114112,56,-56,-1,-1,0
1523628159326,-1114112,56,-56,-1,-1,0
1523628159326,-1048576,56,-56,-1,-1,0
1523628159326,-1048576,56,-56,-1,-1,0
1523628159326,-1048576,56,-56,-1,-1,0
1523628159346,-1114112,56,-56,-1,-1,0
1523628159346,-1310720,56,-56,-1,-1,0
1523628159346,-1572864,56,-56,-1,-1,0
1523628159346,-589824,56,-56,-1,-1,0
1523628159346,2686976,56,-56,-1,-1,0
1523628159386,8454144,56,-56,-1,-1,0
1523628159386,13565952,56,-56,-1,-1,0
1523628159386,12976128,56,-56,-1,-1,0
1523628159386,6946816,56,-56,-1,-1,0
1523628159386,1769472,56,-56,-1,-1,0
1523628159426,262144,56,-56,-1,-1,0
1523628159426,0,56,-56,-1,-1,0
1523628159426,-327680,56,-56,-1,-1,0
1523628159426,-589824,56,-56,-1,-1,0
1523628159426,-655360,56,-56,-1,-1,0
1523628159466,-655360,56,-56,-1,-1,0
1523628159466,-655360,56,-56,-1,-1,0
1523628159466,-655360,56,-56,-1,-1,0
1523628159466,-589824,56,-56,-1,-1,0
1523628159466,-589824,56,-56,-1,-1,0
1523628159506,-524288,56,-56,-1,-1,0
1523628159506,-458752,56,-56,-1,-1,0
1523628159506,-393216,56,-56,-1,-1,0
1523628159506,-262144,56,-56,-1,-1,0
1523628159506,-196608,56,-56,-1,-1,0
1523628159546,-131072,56,-56,-1,-1,0
1523628159546,0,56,-56,-1,-1,0
1523628159546,65536,56,-56,-1,-1,0
1523628159546,262144,56,-56,-1,-1,0
1523628159546,393216,56,-56,-1,-1,0
1523628159586,655360,56,-56,-1,-1,0
1523628159586,917504,56,-56,-1,-1,0
1523628159586,1179648,56,-56,-1,-1,0
1523628159586,1507328,56,-56,-1,-1,0
1523628159586,1900544,56,-56,-1,-1,0
1523628159626,2293760,56,-56,-1,-1,0
1523628159626,2621440,56,-56,-1,-1,0
1523628159626,2883584,56,-56,-1,-1,0
1523628159626,3080192,56,-56,-1,-1,0
1523628159626,3145728,56,-56,-1,-1,0
1523628159666,3014656,56,-56,-1,-1,0
1523628159666,2686976,56,-56,-1,-1,0
1523628159666,2162688,56,-56,-1,-1,0
1523628159666,1507328,56,-56,-1,-1,0
1523628159666,917504,56,-56,-1,-1,0
1523628159706,393216,55,-56,-1,-1,0
1523628159706,0,55,-56,-1,-1,0
1523628159706,-262144,55,-56,-1,-1,0
1523628159706,-458752,55,-56,-1,-1,0
1523628159706,-589824,55,-56,-1,-1,0
1523628159746,-655360,55,-56,-1,-1,0
1523628159746,-720896,55,-56,-1,-1,0
1523628159746,-720896,55,-56,-1,-1,0
1523628159746,-786432,55,-56,-1,-1,0
1523628159746,-786432,55,-56,-1,-1,0
1523628159786,-786432,55,-56,-1,-1,0
1523628159786,-786432,55,-56,-1,-1,0
1523628159786,-786432,55,-56,-1,-1,0
1523628159786,-786432,55,-56,-1,-1,0
1523628159786,-786432,55,-56,-1,-1,0
1523628159826,-720896,55,-56,-1,-1,0
1523628159826,-655360,55,-56,-1,-1,0
1523628159826,-589824,55,-56,-1,-1,0
1523628159826,-589824,55,-56,-1,-1,0
1523628159826,-524288,55,-56,-1,-1,0
1523628159866,-524288,55,-56,-1,-1,0
1523628159866,-524288,55,-56,-1,-1,0
1523628159866,-524288,55,-56,-1,-1,0
1523628159866,-524288,55,-56,-1,-1,0
1523628159866,-524288,55,-56,-1,-1,0
1523628159906,-524288,55,-56,-1,-1,0
1523628159906,-524288,55,-56,-1,-1,0
1523628159906,-589824,55,-56,-1,-1,0
1523628159906,-655360,55,-56,-1,-1,0
1523628159906,-589824,55,-56,-1,-1,0
1523628159966,-589824,55,-56,-1,-1,0
1523628159966,-655360,55,-56,-1,-1,0
1523628159966,-655360,55,-56,-1,-1,0
1523628159966,-720896,55,-56,-1,-1,0
1523628159966,-720896,55,-56,-1,-1,0
1523628159986,-720896,55,-56,-1,-1,0
1523628159986,-720896,55,-56,-1,-1,0
1523628159986,-786432,55,-56,-1,-1,0
1523628159986,-786432,55,-56,-1,-1,0
1523628159986,-786432,55,-56,-1,-1,0
1523628160026,-851968,55,-56,-1,-1,0
1523628160026,-851968,55,-56,-1,-1,0
1523628160026,-917504,55,-56,-1,-1,0
1523628160026,-917504,55,-56,-1,-1,0
1523628160026,-917504,55,-56,-1,-1,0
1523628160066,-851968,55,-56,-1,-1,0
1523628160066,-917504,55,-56,-1,-1,0
1523628160066,-917504,55,-56,-1,-1,0
1523628160066,-917504,55,-56,-1,-1,0
1523628160066,-917504,55,-56,-1,-1,0
1523628160106,-917504,55,-56,-1,-1,0
1523628160106,-917504,55,-56,-1,-1,0
1523628160106,-917504,55,-56,-1,-1,0
1523628160106,-917504,55,-56,-1,-1,0
1523628160106,-851968,55,-56,-1,-1,0
1523628160146,-851968,55,-56,-1,-1,0
1523628160146,-851968,55,-56,-1,-1,0
1523628160146,-851968,55,-56,-1,-1,0
1523628160146,-851968,55,-56,-1,-1,0
1523628160146,-851968,55,-56,-1,-1,0
1523628160186,-917504,55,-56,-1,-1,0
1523628160186,-917504,55,-56,-1,-1,0
1523628160186,-851968,55,-56,-1,-1,0
1523628160186,-851968,55,-56,-1,-1,0
1523628160186,-851968,55,-56,-1,-1,0
1523628160226,-851968,55,-56,-1,-1,0
1523628160226,-786432,55,-56,-1,-1,0
1523628160226,-786432,55,-56,-1,-1,0
1523628160226,-786432,55,-56,-1,-1,0
1523628160226,-786432,55,-56,-1,-1,0
1523628160266,-786432,55,-56,-1,-1,0
1523628160266,-851968,55,-56,-1,-1,0
1523628160266,-851968,55,-56,-1,-1,0
1523628160266,-786432,55,-56,-1,-1,0
1523628160266,-720896,55,-56,-1,-1,0
1523628160306,-655360,55,-56,-1,-1,0
1523628160306,-524288,55,-56,-1,-1,0
1523628160306,-524288,55,-56,-1,-1,0
1523628160306,-589824,55,-56,-1,-1,0
1523628160306,-655360,55,-56,-1,-1,0
1523628160346,-720896,55,-56,-1,-1,0
1523628160346,-786432,55,-56,-1,-1,0
1523628160346,-917504,55,-56,-1,-1,0
1523628160346,-983040,55,-56,-1,-1,0
1523628160346,-917504,55,-56,-1,-1,0
1523628160386,-917504,55,-56,-1,-1,0
1523628160386,-851968,55,-56,-1,-1,0
1523628160386,-851968,55,-56,-1,-1,0
1523628160386,-851968,55,-56,-1,-1,0
1523628160386,-1114112,55,-56,-1,-1,0
1523628160426,-1376256,55,-56,-1,-1,0
1523628160426,-327680,55,-56,-1,-1,0
1523628160426,3211264,55,-56,-1,-1,0
1523628160426,9109504,55,-56,-1,-1,0
1523628160426,13959168,55,-56,-1,-1,0
1523628160466,12910592,55,-56,-1,-1,0
1523628160466,6750208,55,-56,-1,-1,0
1523628160466,1703936,55,-56,-1,-1,0
1523628160466,393216,55,-56,-1,-1,0
1523628160466,131072,55,-56,-1,-1,0
1523628160506,-131072,55,-56,-1,-1,0
1523628160506,-393216,55,-56,-1,-1,0
1523628160506,-524288,55,-56,-1,-1,0
1523628160506,-524288,55,-56,-1,-1,0
1523628160506,-524288,55,-56,-1,-1,0
1523628160546,-524288,55,-56,-1,-1,0
1523628160546,-458752,55,-56,-1,-1,0
1523628160546,-393216,55,-56,-1,-1,0
1523628160546,-327680,55,-56,-1,-1,0
1523628160546,-262144,55,-56,-1,-1,0
1523628160606,-196608,55,-56,-1,-1,0
1523628160606,-131072,55,-56,-1,-1,0
1523628160606,-65536,55,-56,-1,-1,0
1523628160606,0,55,-56,-1,-1,0
1523628160606,131072,55,-56,-1,-1,0
1523628160626,262144,55,-56,-1,-1,0
1523628160626,393216,55,-56,-1,-1,0
1523628160626,524288,55,-56,-1,-1,0
1523628160626,786432,55,-56,-1,-1,0
1523628160626,983040,55,-56,-1,-1,0
1523628160666,1376256,55,-56,-1,-1,0
1523628160666,1703936,55,-56,-1,-1,0
1523628160666,2031616,55,-56,-1,-1,0
1523628160666,2424832,55,-56,-1,-1,0
1523628160666,2686976,55,-56,-1,-1,0
1523628160706,2949120,55,-56,-1,-1,0
1523628160706,3145728,55,-56,-1,-1,0
1523628160706,3211264,55,-56,-1,-1,0
1523628160706,3080192,55,-56,-1,-1,0
1523628160706,2686976,55,-56,-1,-1,0
1523628160746,2162688,55,-56,-1,-1,0
1523628160746,1507328,55,-56,-1,-1,0
1523628160746,851968,55,-56,-1,-1,0
1523628160746,327680,55,-56,-1,-1,0
1523628160746,0,55,-56,-1,-1,0
1523628160786,-262144,55,-56,-1,-1,0
1523628160786,-458752,55,-56,-1,-1,0
1523628160786,-524288,55,-56,-1,-1,0
1523628160786,-655360,55,-56,-1,-1,0
1523628160786,-655360,55,-56,-1,-1,0
1523628160826,-720896,55,-56,-1,-1,0
1523628160826,-720896,55,-56,-1,-1,0
1523628160826,-720896,55,-56,-1,-1,0
1523628160826,-720896,55,-56,-1,-1,0
1523628160826,-720896,55,-56,-1,-1,0
1523628160867,-720896,56,-56,-1,-1,0
1523628160867,-655360,56,-56,-1,-1,0
1523628160867,-655360,56,-56,-1,-1,0
1523628160867,-589824,56,-56,-1,-1,0
1523628160867,-589824,56,-56,-1,-1,0
1523628160906,-589824,56,-56,-1,-1,0
1523628160906,-589824,56,-56,-1,-1,0
1523628160906,-524288,56,-56,-1,-1,0
1523628160906,-524288,56,-56,-1,-1,0
1523628160906,-524288,56,-56,-1,-1,0
1523628160946,-524288,56,-56,-1,-1,0
1523628160946,-458752,56,-56,-1,-1,0
1523628160946,-458752,56,-56,-1,-1,0
1523628160946,-524288,56,-56,-1,-1,0
1523628160946,-524288,56,-56,-1,-1,0
1523628160986,-524288,56,-56,-1,-1,0
1523628160986,-589824,56,-56,-1,-1,0
1523628160986,-589824,56,-56,-1,-1,0
1523628160986,-655360,56,-56,-1,-1,0
1523628160986,-655360,56,-56,-1,-1,0
1523628161026,-655360,56,-56,-1,-1,0
1523628161026,-655360,56,-56,-1,-1,0
1523628161026,-720896,56,-56,-1,-1,0
1523628161026,-720896,56,-56,-1,-1,0
1523628161026,-720896,56,-56,-1,-1,0
1523628161066,-786432,56,-56,-1,-1,0
1523628161066,-786432,56,-56,-1,-1,0
1523628161066,-786432,56,-56,-1,-1,0
1523628161066,-720896,56,-56,-1,-1,0
1523628161066,-720896,56,-56,-1,-1,0
1523628161106,-720896,56,-56,-1,-1,0
1523628161106,-720896,56,-56,-1,-1,0
1523628161106,-720896,56,-56,-1,-1,0
1523628161106,-720896,56,-56,-1,-1,0
1523628161106,-786432,56,-56,-1,-1,0
1523628161146,-786432,56,-56,-1,-1,0
1523628161146,-786432,56,-56,-1,-1,0
1523628161146,-786432,56,-56,-1,-1,0
1523628161146,-786432,56,-56,-1,-1,0
1523628161146,-786432,56,-56,-1,-1,0
1523628161186,-786432,56,-56,-1,-1,0
1523628161186,-786432,56,-56,-1,-1,0
1523628161186,-786432,56,-56,-1,-1,0
1523628161186,-720896,56,-56,-1,-1,0
1523628161186,-720896,56,-56,-1,-1,0
1523628161246,-720896,56,-56,-1,-1,0
1523628161246,-720896,56,-56,-1,-1,0
1523628161246,-786432,56,-56,-1,-1,0
1523628161246,-786432,56,-56,-1,-1,0
1523628161246,-786432,56,-56,-1,-1,0
1523628161266,-786432,56,-56,-1,-1,0
1523628161266,-720896,56,-56,-1,-1,0
1523628161266,-720896,56,-56,-1,-1,0
1523628161266,-720896,56,-56,-1,-1,0
1523628161266,-720896,56,-56,-1,-1,0
1523628161306,-720896,56,-56,-1,-1,0
1523628161306,-786432,56,-56,-1,-1,0
1523628161306,-786432,56,-56,-1,-1,0
1523628161306,-786432,56,-56,-1,-1,0
1523628161306,-786432,56,-56,-1,-1,0
1523628161346,-786432,56,-56,-1,-1,0
1523628161346,-786432,56,-56,-1,-1,0
1523628161346,-786432,56,-56,-1,-1,0
1523628161346,-786432,56,-56,-1,-1,0
1523628161346,-786432,56,-56,-1,-1,0
1523628161386,-786432,56,-56,-1,-1,0
1523628161386,-786432,56,-56,-1,-1,0
1523628161386,-786432,56,-56,-1,-1,0
1523628161386,-786432,56,-56,-1,-1,0
1523628161386,-786432,56,-56,-1,-1,0
1523628161426,-851968,56,-56,-1,-1,0
1523628161426,-786432,56,-56,-1,-1,0
1523628161426,-786432,56,-56,-1,-1,0
1523628161426,-720896,56,-56,-1,-1,0
1523628161426,-655360,56,-56,-1,-1,0
1523628161466,-589824,56,-56,-1,-1,0
1523628161466,-524288,56,-56,-1,-1,0
1523628161466,-524288,56,-56,-1,-1,0
1523628161466,-655360,56,-56,-1,-1,0
1523628161466,-786432,56,-56,-1,-1,0
1523628161506,-851968,56,-56,-1,-1,0
1523628161506,-917504,56,-56,-1,-1,0
1523628161506,-917504,56,-56,-1,-1,0
1523628161506,-917504,56,-56,-1,-1,0
1523628161506,-917504,56,-56,-1,-1,0
1523628161546,-917504,56,-56,-1,-1,0
1523628161546,-917504,56,-56,-1,-1,0
1523628161546,-983040,56,-56,-1,-1,0
1523628161546,-1245184,56,-56,-1,-1,0
1523628161546,-1507328,56,-56,-1,-1,0
1523628161586,-589824,56,-56,-1,-1,0
1523628161586,2818048,56,-56,-1,-1,0
1523628161586,8716288,56,-56,-1,-1,0
1523628161586,13893632,56,-56,-1,-1,0
1523628161586,13303808,56,-56,-1,-1,0
1523628161626,7274496,56,-56,-1,-1,0
1523628161626,2097152,56,-56,-1,-1,0
1523628161626,458752,56,-56,-1,-1,0
1523628161626,65536,56,-56,-1,-1,0
1523628161626,-262144,56,-56,-1,-1,0
1523628161665,-524288,56,-56,-1,-1,0
1523628161665,-589824,56,-56,-1,-1,0
1523628161665,-655360,56,-56,-1,-1,0
1523628161665,-655360,56,-56,-1,-1,0
1523628161665,-655360,56,-56,-1,-1,0
1523628161705,-589824,56,-56,-1,-1,0
1523628161705,-524288,56,-56,-1,-1,0
1523628161705,-458752,56,-56,-1,-1,0
1523628161705,-458752,56,-56,-1,-1,0
1523628161705,-393216,56,-56,-1,-1,0
1523628161746,-327680,56,-56,-1,-1,0
1523628161746,-262144,56,-56,-1,-1,0
1523628161746,-131072,56,-56,-1,-1,0
1523628161746,-65536,56,-56,-1,-1,0
1523628161746,0,56,-56,-1,-1,0
1523628161785,131072,56,-56,-1,-1,0
1523628161785,327680,56,-56,-1,-1,0
1523628161785,589824,56,-56,-1,-1,0
1523628161785,786432,56,-56,-1,-1,0
1523628161785,1048576,56,-56,-1,-1,0
1523628161825,1376256,56,-56,-1,-1,0
1523628161825,1703936,56,-56,-1,-1,0
1523628161825,2031616,56,-56,-1,-1,0
1523628161825,2424832,56,-56,-1,-1,0
1523628161825,2686976,56,-56,-1,-1,0
1523628161886,2818048,56,-56,-1,-1,0
1523628161886,2883584,56,-56,-1,-1,0
1523628161886,2818048,56,-56,-1,-1,0
1523628161886,2621440,56,-56,-1,-1,0
1523628161886,2097152,56,-56,-1,-1,0
1523628161906,1572864,56,-56,-1,-1,0
1523628161906,983040,56,-56,-1,-1,0
1523628161906,458752,56,-56,-1,-1,0
1523628161906,65536,56,-56,-1,-1,0
1523628161906,-131072,56,-56,-1,-1,0
1523628161945,-393216,56,-56,-1,-1,0
1523628161945,-524288,56,-56,-1,-1,0
1523628161945,-589824,56,-56,-1,-1,0
1523628161945,-589824,56,-56,-1,-1,0
1523628161945,-655360,56,-56,-1,-1,0
1523628161986,-720896,56,-56,-1,-1,0
1523628161986,-720896,56,-56,-1,-1,0
1523628161986,-720896,56,-56,-1,-1,0
1523628161986,-655360,56,-56,-1,-1,0
1523628161986,-655360,56,-56,-1,-1,0
1523628162026,-655360,56,-56,-1,-1,0
1523628162026,-655360,56,-56,-1,-1,0
1523628162026,-655360,56,-56,-1,-1,0
1523628162026,-655360,56,-56,-1,-1,0
1523628162026,-589824,56,-56,-1,-1,0
1523628162065,-524288,56,-56,-1,-1,0
1523628162065,-524288,56,-56,-1,-1,0
1523628162065,-524288,56,-56,-1,-1,0
1523628162065,-524288,56,-56,-1,-1,0
1523628162065,-524288,56,-56,-1,-1,0
1523628162106,-589824,56,-56,-1,-1,0
1523628162106,-589824,56,-56,-1,-1,0
1523628162106,-589824,56,-56,-1,-1,0
1523628162106,-655360,56,-56,-1,-1,0
1523628162106,-655360,56,-56,-1,-1,0
1523628162146,-655360,56,-56,-1,-1,0
1523628162146,-655360,56,-56,-1,-1,0
1523628162146,-720896,56,-56,-1,-1,0
1523628162146,-720896,56,-56,-1,-1,0
1523628162146,-655360,56,-56,-1,-1,0
1523628162185,-655360,56,-56,-1,-1,0
1523628162185,-786432,56,-56,-1,-1,0
1523628162185,-851968,56,-56,-1,-1,0
1523628162185,-851968,56,-56,-1,-1,0
1523628162185,-720896,56,-56,-1,-1,0
1523628162226,-720896,56,-56,-1,-1,0
1523628162226,-720896,56,-56,-1,-1,0
1523628162226,-786432,56,-56,-1,-1,0
1523628162226,-786432,56,-56,-1,-1,0
1523628162226,-851968,56,-56,-1,-1,0
1523628162265,-851968,56,-56,-1,-1,0
1523628162265,-851968,56,-56,-1,-1,0
1523628162265,-851968,56,-56,-1,-1,0
1523628162265,-917504,56,-56,-1,-1,0
1523628162265,-917504,56,-56,-1,-1,0
1523628162305,-917504,56,-56,-1,-1,0
1523628162305,-917504,56,-56,-1,-1,0
1523628162305,-917504,56,-56,-1,-1,0
1523628162305,-851968,56,-56,-1,-1,0
1523628162305,-851968,56,-56,-1,-1,0
1523628162345,-917504,56,-56,-1,-1,0
1523628162345,-917504,56,-56,-1,-1,0
1523628162345,-917504,56,-56,-1,-1,0
1523628162345,-917504,56,-56,-1,-1,0
1523628162345,-917504,56,-56,-1,-1,0
1523628162385,-917504,56,-56,-1,-1,0
1523628162385,-851968,56,-56,-1,-1,0
1523628162385,-851968,56,-56,-1,-1,0
1523628162385,-851968,56,-56,-1,-1,0
1523628162385,-851968,56,-56,-1,-1,0
1523628162425,-917504,56,-56,-1,-1,0
1523628162425,-917504,56,-56,-1,-1,0
1523628162425,-851968,56,-56,-1,-1,0
1523628162425,-851968,56,-56,-1,-1,0
1523628162425,-851968,56,-56,-1,-1,0
1523628162466,-851968,56,-56,-1,-1,0
1523628162466,-851968,56,-56,-1,-1,0
1523628162466,-851968,56,-56,-1,-1,0
1523628162466,-917504,56,-56,-1,-1,0
1523628162466,-917504,56,-56,-1,-1,0
1523628162526,-917504,56,-56,-1,-1,0
1523628162526,-917504,56,-56,-1,-1,0
1523628162526,-851968,56,-56,-1,-1,0
1523628162526,-786432,56,-56,-1,-1,0
1523628162526,-720896,56,-56,-1,-1,0
1523628162545,-720896,56,-56,-1,-1,0
1523628162545,-655360,56,-56,-1,-1,0
1523628162545,-524288,56,-56,-1,-1,0
1523628162545,-589824,56,-56,-1,-1,0
1523628162545,-720896,56,-56,-1,-1,0
1523628162585,-786432,56,-56,-1,-1,0
1523628162585,-786432,56,-56,-1,-1,0
1523628162585,-851968,56,-56,-1,-1,0
1523628162585,-851968,56,-56,-1,-1,0
1523628162585,-851968,56,-56,-1,-1,0
1523628162626,-851968,56,-56,-1,-1,0
1523628162626,-851968,56,-56,-1,-1,0
1523628162626,-851968,56,-56,-1,-1,0
1523628162626,-917504,56,-56,-1,-1,0
1523628162626,-1179648,56,-56,-1,-1,0
1523628162666,-1245184,56,-56,-1,-1,0
1523628162666,65536,56,-56,-1,-1,0
1523628162666,3866624,56,-56,-1,-1,0
1523628162666,9437184,56,-56,-1,-1,0
1523628162666,13565952,56,-56,-1,-1,0
1523628162706,11862016,56,-56,-1,-1,0
1523628162706,5767168,56,-56,-1,-1,0
1523628162706,1310720,56,-56,-1,-1,0
1523628162706,327680,56,-56,-1,-1,0
1523628162706,65536,56,-56,-1,-1,0
1523628162745,-131072,56,-56,-1,-1,0
1523628162745,-327680,56,-56,-1,-1,0
1523628162745,-393216,56,-56,-1,-1,0
1523628162745,-393216,56,-56,-1,-1,0
1523628162745,-393216,56,-56,-1,-1,0
1523628162786,-393216,56,-56,-1,-1,0
1523628162786,-393216,56,-56,-1,-1,0
1523628162786,-393216,56,-56,-1,-1,0
1523628162786,-327680,56,-56,-1,-1,0
1523628162786,-327680,56,-56,-1,-1,0
1523628162825,-262144,56,-56,-1,-1,0
1523628162825,-131072,56,-56,-1,-1,0
1523628162825,0,56,-56,-1,-1,0
1523628162825,0,56,-56,-1,-1,0
1523628162825,65536,56,-56,-1,-1,0
1523628162866,196608,56,-56,-1,-1,0
1523628162866,393216,56,-56,-1,-1,0
1523628162866,589824,56,-56,-1,-1,0
1523628162866,851968,56,-56,-1,-1,0
1523628162866,1048576,56,-56,-1,-1,0
1523628162906,1376256,56,-56,-1,-1,0
1523628162906,1769472,56,-56,-1,-1,0
1523628162906,2097152,56,-56,-1,-1,0
1523628162906,2424832,56,-56,-1,-1,0
1523628162906,2752512,56,-56,-1,-1,0
1523628162946,3014656,56,-56,-1,-1,0
1523628162946,3145728,56,-56,-1,-1,0
1523628162946,3145728,56,-56,-1,-1,0
1523628162946,3014656,56,-56,-1,-1,0
1523628162946,2621440,56,-56,-1,-1,0
1523628162986,2097152,56,-56,-1,-1,0
1523628162986,1441792,56,-56,-1,-1,0
1523628162986,851968,56,-56,-1,-1,0
1523628162986,262144,56,-56,-1,-1,0
1523628162986,-65536,56,-56,-1,-1,0
1523628163026,-262144,56,-56,-1,-1,0
1523628163026,-393216,56,-56,-1,-1,0
1523628163026,-524288,56,-56,-1,-1,0
1523628163026,-655360,56,-56,-1,-1,0
1523628163026,-655360,56,-56,-1,-1,0
1523628163066,-655360,56,-56,-1,-1,0
1523628163066,-720896,56,-56,-1,-1,0
1523628163066,-655360,56,-56,-1,-1,0
1523628163066,-655360,56,-56,-1,-1,0
1523628163066,-655360,56,-56,-1,-1,0
1523628163106,-655360,55,-56,-1,-1,0
1523628163106,-720896,55,-56,-1,-1,0
1523628163106,-720896,55,-56,-1,-1,0
1523628163106,-655360,55,-56,-1,-1,0
1523628163106,-589824,55,-56,-1,-1,0
1523628163166,-589824,55,-56,-1,-1,0
1523628163166,-524288,55,-56,-1,-1,0
1523628163166,-458752,55,-56,-1,-1,0
1523628163166,-524288,55,-56,-1,-1,0
1523628163166,-524288,55,-56,-1,-1,0
1523628163186,-458752,55,-56,-1,-1,0
1523628163186,-524288,55,-56,-1,-1,0
1523628163186,-524288,55,-56,-1,-1,0
1523628163186,-524288,55,-56,-1,-1,0
1523628163186,-589824,55,-56,-1,-1,0
1523628163226,-589824,55,-56,-1,-1,0
1523628163226,-655360,55,-56,-1,-1,0
1523628163226,-655360,55,-56,-1,-1,0
1523628163226,-655360,55,-56,-1,-1,0
1523628163226,-655360,55,-56,-1,-1,0
1523628163266,-720896,55,-56,-1,-1,0
1523628163266,-720896,55,-56,-1,-1,0
1523628163266,-786432,55,-56,-1,-1,0
1523628163266,-786432,55,-56,-1,-1,0
1523628163266,-786432,55,-56,-1,-1,0
1523628163306,-786432,55,-56,-1,-1,0
1523628163306,-786432,55,-56,-1,-1,0
1523628163306,-786432,55,-56,-1,-1,0
1523628163306,-786432,55,-56,-1,-1,0
1523628163306,-786432,55,-56,-1,-1,0
1523628163346,-786432,55,-56,-1,-1,0
1523628163346,-786432,55,-56,-1,-1,0
1523628163346,-786432,55,-56,-1,-1,0
1523628163346,-786432,55,-56,-1,-1,0
1523628163346,-786432,55,-56,-1,-1,0
1523628163386,-786432,55,-56,-1,-1,0
1523628163386,-786432,55,-56,-1,-1,0
1523628163386,-851968,55,-56,-1,-1,0
1523628163386,-851968,55,-56,-1,-1,0
1523628163386,-851968,55,-56,-1,-1,0
1523628163426,-917504,55,-56,-1,-1,0
1523628163426,-851968,55,-56,-1,-1,0
1523628163426,-786432,55,-56,-1,-1,0
1523628163426,-786432,55,-56,-1,-1,0
1523628163426,-786432,55,-56,-1,-1,0
1523628163466,-786432,55,-56,-1,-1,0
1523628163466,-851968,55,-56,-1,-1,0
1523628163466,-851968,55,-56,-1,-1,0
1523628163466,-851968,55,-56,-1,-1,0
1523628163466,-851968,55,-56,-1,-1,0
1523628163506,-851968,55,-56,-1,-1,0
1523628163506,-851968,55,-56,-1,-1,0
1523628163506,-786432,55,-56,-1,-1,0
1523628163506,-786432,55,-56,-1,-1,0
1523628163506,-851968,55,-56,-1,-1,0
1523628163546,-851968,55,-56,-1,-1,0
1523628163546,-851968,55,-56,-1,-1,0
1523628163546,-851968,55,-56,-1,-1,0
1523628163546,-917504,55,-56,-1,-1,0
1523628163546,-917504,55,-56,-1,-1,0
1523628163586,-851968,55,-56,-1,-1,0
1523628163586,-786432,55,-56,-1,-1,0
1523628163586,-851968,55,-56,-1,-1,0
1523628163586,-851968,55,-56,-1,-1,0
1523628163586,-851968,55,-56,-1,-1,0
1523628163626,-851968,55,-56,-1,-1,0
1523628163626,-851968,55,-56,-1,-1,0
1523628163626,-851968,55,-56,-1,-1,0
1523628163626,-917504,55,-56,-1,-1,0
1523628163626,-917504,55,-56,-1,-1,0
1523628163666,-917504,55,-56,-1,-1,0
1523628163666,-983040,55,-56,-1,-1,0
1523628163666,-917504,55,-56,-1,-1,0
1523628163666,-720896,55,-56,-1,-1,0
1523628163666,-589824,55,-56,-1,-1,0
1523628163706,-851968,55,-56,-1,-1,0
1523628163706,-851968,55,-56,-1,-1,0
1523628163706,-786432,55,-56,-1,-1,0
1523628163706,-720896,55,-56,-1,-1,0
1523628163706,-786432,55,-56,-1,-1,0
1523628163746,-851968,55,-56,-1,-1,0
1523628163746,-917504,55,-56,-1,-1,0
1523628163746,-917504,55,-56,-1,-1,0
1523628163746,-917504,55,-56,-1,-1,0
1523628163746,-917504,55,-56,-1,-1,0
1523628163806,-983040,55,-56,-1,-1,0
1523628163806,-1376256,55,-56,-1,-1,0
1523628163806,-1310720,55,-56,-1,-1,0
1523628163806,524288,55,-56,-1,-1,0
1523628163806,5308416,55,-56,-1,-1,0
1523628163826,11599872,55,-56,-1,-1,0
1523628163826,14942208,55,-56,-1,-1,0
1523628163826,11534336,55,-56,-1,-1,0
1523628163826,5046272,55,-56,-1,-1,0
1523628163826,1179648,55,-56,-1,-1,0
1523628163866,458752,55,-56,-1,-1,0
1523628163866,65536,55,-56,-1,-1,0
1523628163866,-262144,55,-56,-1,-1,0
1523628163866,-393216,55,-56,-1,-1,0
1523628163866,-458752,55,-56,-1,-1,0
1523628163906,-524288,55,-56,-1,-1,0
1523628163906,-524288,55,-56,-1,-1,0
1523628163906,-458752,55,-56,-1,-1,0
1523628163906,-393216,55,-56,-1,-1,0
1523628163906,-393216,55,-56,-1,-1,0
1523628163946,-393216,55,-56,-1,-1,0
1523628163946,-327680,55,-56,-1,-1,0
1523628163946,-262144,55,-56,-1,-1,0
1523628163946,-196608,55,-56,-1,-1,0
1523628163946,-131072,55,-56,-1,-1,0
1523628163986,-65536,55,-56,-1,-1,0
1523628163986,0,55,-56,-1,-1,0
1523628163986,196608,55,-56,-1,-1,0
1523628163986,393216,55,-56,-1,-1,0
1523628163986,589824,55,-56,-1,-1,0
1523628164026,786432,55,-56,-1,-1,0
1523628164026,1048576,55,-56,-1,-1,0
1523628164026,1376256,55,-56,-1,-1,0
1523628164026,1703936,55,-56,-1,-1,0
1523628164026,2031616,55,-56,-1,-1,0
1523628164066,2359296,55,-56,-1,-1,0
1523628164066,2621440,55,-56,-1,-1,0
1523628164066,2818048,55,-56,-1,-1,0
1523628164066,3014656,55,-56,-1,-1,0
1523628164066,3014656,55,-56,-1,-1,0
1523628164106,2883584,55,-56,-1,-1,0
1523628164106,2490368,55,-56,-1,-1,0
1523628164106,1966080,55,-56,-1,-1,0
1523628164106,1376256,55,-56,-1,-1,0
1523628164106,851968,55,-56,-1,-1,0
1523628164146,393216,55,-56,-1,-1,0
1523628164146,65536,55,-56,-1,-1,0
1523628164146,-131072,55,-56,-1,-1,0
1523628164146,-327680,55,-56,-1,-1,0
1523628164146,-458752,55,-56,-1,-1,0
1523628164186,-524288,55,-56,-1,-1,0
1523628164186,-589824,55,-56,-1,-1,0
1523628164186,-589824,55,-56,-1,-1,0
1523628164186,-589824,55,-56,-1,-1,0
1523628164186,-655360,55,-56,-1,-1,0
1523628164226,-589824,55,-56,-1,-1,0
1523628164226,-589824,55,-56,-1,-1,0
1523628164226,-589824,55,-56,-1,-1,0
1523628164226,-589824,55,-56,-1,-1,0
1523628164226,-589824,55,-56,-1,-1,0
1523628164266,-589824,55,-56,-1,-1,0
1523628164266,-524288,55,-56,-1,-1,0
1523628164266,-524288,55,-56,-1,-1,0
1523628164266,-524288,55,-56,-1,-1,0
1523628164266,-524288,55,-56,-1,-1,0
1523628164306,-524288,54,-56,-1,-1,0
1523628164306,-524288,54,-56,-1,-1,0
1523628164306,-524288,54,-56,-1,-1,0
1523628164306,-524288,54,-56,-1,-1,0
1523628164306,-524288,54,-56,-1,-1,0
1523628164346,-524288,54,-56,-1,-1,0
1523628164346,-524288,54,-56,-1,-1,0
1523628164346,-524288,54,-56,-1,-1,0
1523628164346,-589824,54,-56,-1,-1,0
1523628164346,-589824,54,-56,-1,-1,0
1523628164386,-655360,54,-56,-1,-1,0
1523628164386,-655360,54,-56,-1,-1,0
1523628164386,-589824,54,-56,-1,-1,0
1523628164386,-589824,54,-56,-1,-1,0
1523628164386,-655360,54,-56,-1,-1,0
1523628164446,-655360,54,-56,-1,-1,0
1523628164446,-655360,54,-56,-1,-1,0
1523628164446,-720896,54,-56,-1,-1,0
1523628164446,-720896,54,-56,-1,-1,0
1523628164446,-720896,54,-56,-1,-1,0
1523628164466,-720896,54,-56,-1,-1,0
1523628164466,-720896,54,-56,-1,-1,0
1523628164466,-786432,54,-56,-1,-1,0
1523628164466,-786432,54,-56,-1,-1,0
1523628164466,-786432,54,-56,-1,-1,0
1523628164506,-786432,54,-56,-1,-1,0
1523628164506,-786432,54,-56,-1,-1,0
1523628164506,-786432,54,-56,-1,-1,0
1523628164506,-786432,54,-56,-1,-1,0
1523628164506,-786432,54,-56,-1,-1,0
1523628164546,-786432,54,-56,-1,-1,0
1523628164546,-786432,54,-56,-1,-1,0
1523628164546,-786432,54,-56,-1,-1,0
1523628164546,-786432,54,-56,-1,-1,0
1523628164546,-786432,54,-56,-1,-1,0
1523628164586,-786432,54,-56,-1,-1,0
1523628164586,-786432,54,-56,-1,-1,0
1523628164586,-786432,54,-56,-1,-1,0
1523628164586,-786432,54,-56,-1,-1,0
1523628164586,-786432,54,-56,-1,-1,0
1523628164626,-786432,54,-56,-1,-1,0
1523628164626,-786432,54,-56,-1,-1,0
1523628164626,-720896,54,-56,-1,-1,0
1523628164626,-720896,54,-56,-1,-1,0
1523628164626,-786432,54,-56,-1,-1,0
1523628164666,-786432,54,-56,-1,-1,0
1523628164666,-786432,54,-56,-1,-1,0
1523628164666,-786432,54,-56,-1,-1,0
1523628164666,-786432,54,-56,-1,-1,0
1523628164666,-786432,54,-56,-1,-1,0
1523628164706,-786432,54,-56,-1,-1,0
1523628164706,-786432,54,-56,-1,-1,0
1523628164706,-851968,54,-56,-1,-1,0
1523628164706,-851968,54,-56,-1,-1,0
1523628164706,-786432,54,-56,-1,-1,0
1523628164746,-786432,54,-56,-1,-1,0
1523628164746,-786432,54,-56,-1,-1,0
1523628164746,-786432,54,-56,-1,-1,0
1523628164746,-786432,54,-56,-1,-1,0
1523628164746,-786432,54,-56,-1,-1,0
1523628164786,-786432,54,-56,-1,-1,0
1523628164786,-786432,54,-56,-1,-1,0
1523628164786,-851968,54,-56,-1,-1,0
1523628164786,-851968,54,-56,-1,-1,0
1523628164786,-786432,54,-56,-1,-1,0
1523628164826,-786432,54,-56,-1,-1,0
1523628164826,-786432,54,-56,-1,-1,0
1523628164826,-786432,54,-56,-1,-1,0
1523628164826,-851968,54,-56,-1,-1,0
1523628164826,-851968,54,-56,-1,-1,0
1523628164866,-786432,54,-56,-1,-1,0
1523628164866,-720896,54,-56,-1,-1,0
1523628164866,-655360,54,-56,-1,-1,0
1523628164866,-589824,54,-56,-1,-1,0
1523628164866,-524288,54,-56,-1,-1,0
1523628164906,-524288,54,-56,-1,-1,0
1523628164906,-655360,54,-56,-1,-1,0
1523628164906,-720896,54,-56,-1,-1,0
1523628164906,-786432,54,-56,-1,-1,0
1523628164906,-786432,54,-56,-1,-1,0
1523628164946,-851968,54,-56,-1,-1,0
1523628164946,-851968,54,-56,-1,-1,0
1523628164946,-851968,54,-56,-1,-1,0
1523628164946,-851968,54,-56,-1,-1,0
1523628164946,-851968,54,-56,-1,-1,0
1523628164986,-917504,54,-56,-1,-1,0
1523628164986,-1179648,54,-56,-1,-1,0
1523628164986,-1441792,54,-56,-1,-1,0
1523628164986,-327680,54,-56,-1,-1,0
1523628164986,3407872,54,-56,-1,-1,0
1523628165026,9699328,54,-56,-1,-1,0
1523628165026,14811136,54,-56,-1,-1,0
1523628165026,13631488,54,-56,-1,-1,0
1523628165026,7274496,54,-56,-1,-1,0
1523628165026,2162688,54,-56,-1,-1,0
1523628165086,655360,54,-56,-1,-1,0
1523628165086,262144,54,-56,-1,-1,0
1523628165086,-65536,54,-56,-1,-1,0
1523628165086,-327680,54,-56,-1,-1,0
1523628165086,-393216,54,-56,-1,-1,0
1523628165106,-458752,54,-56,-1,-1,0
1523628165106,-458752,54,-56,-1,-1,0
1523628165106,-458752,54,-56,-1,-1,0
1523628165106,-458752,54,-56,-1,-1,0
1523628165106,-458752,54,-56,-1,-1,0
1523628165146,-393216,54,-56,-1,-1,0
1523628165146,-327680,54,-56,-1,-1,0
1523628165146,-262144,54,-56,-1,-1,0
1523628165146,-196608,54,-56,-1,-1,0
1523628165146,-131072,54,-56,-1,-1,0
1523628165186,-65536,54,-56,-1,-1,0
1523628165186,0,54,-56,-1,-1,0
1523628165186,196608,54,-56,-1,-1,0
1523628165186,327680,54,-56,-1,-1,0
1523628165186,524288,54,-56,-1,-1,0
1523628165226,720896,54,-56,-1,-1,0
1523628165226,917504,54,-56,-1,-1,0
1523628165226,1179648,54,-56,-1,-1,0
1523628165226,1507328,54,-56,-1,-1,0
1523628165226,1835008,54,-56,-1,-1,0
1523628165266,2097152,54,-56,-1,-1,0
1523628165266,2359296,54,-56,-1,-1,0
1523628165266,2621440,54,-56,-1,-1,0
1523628165266,2818048,54,-56,-1,-1,0
1523628165266,2883584,54,-56,-1,-1,0
1523628165306,2818048,54,-56,-1,-1,0
1523628165306,2621440,54,-56,-1,-1,0
1523628165306,2162688,54,-56,-1,-1,0
1523628165306,1638400,54,-56,-1,-1,0
1523628165306,1114112,54,-56,-1,-1,0
1523628165346,589824,54,-56,-1,-1,0
1523628165346,196608,54,-56,-1,-1,0
1523628165346,-65536,54,-56,-1,-1,0
1523628165346,-262144,54,-56,-1,-1,0
1523628165346,-393216,54,-56,-1,-1,0
1523628165386,-458752,54,-56,-1,-1,0
1523628165386,-524288,54,-56,-1,-1,0
1523628165386,-524288,54,-56,-1,-1,0
1523628165386,-524288,54,-56,-1,-1,0
1523628165386,-524288,54,-56,-1,-1,0
1523628165426,-524288,54,-56,-1,-1,0
1523628165426,-524288,54,-56,-1,-1,0
1523628165426,-524288,54,-56,-1,-1,0
1523628165426,-524288,54,-56,-1,-1,0
1523628165426,-458752,54,-56,-1,-1,0
1523628165466,-458752,54,-56,-1,-1,0
1523628165466,-458752,54,-56,-1,-1,0
1523628165466,-458752,54,-56,-1,-1,0
1523628165466,-524288,54,-56,-1,-1,0
1523628165466,-458752,54,-56,-1,-1,0
1523628165506,-393216,53,-56,-1,-1,0
1523628165506,-458752,53,-56,-1,-1,0
1523628165506,-458752,53,-56,-1,-1,0
1523628165506,-458752,53,-56,-1,-1,0
1523628165506,-458752,53,-56,-1,-1,0
1523628165546,-458752,53,-56,-1,-1,0
1523628165546,-458752,53,-56,-1,-1,0
1523628165546,-524288,53,-56,-1,-1,0
1523628165546,-524288,53,-56,-1,-1,0
1523628165546,-589824,53,-56,-1,-1,0
1523628165586,-589824,53,-56,-1,-1,0
1523628165586,-589824,53,-56,-1,-1,0
1523628165586,-589824,53,-56,-1,-1,0
1523628165586,-589824,53,-56,-1,-1,0
1523628165586,-589824,53,-56,-1,-1,0
1523628165626,-655360,53,-56,-1,-1,0
1523628165626,-655360,53,-56,-1,-1,0
1523628165626,-720896,53,-56,-1,-1,0
1523628165626,-720896,53,-56,-1,-1,0
1523628165626,-786432,53,-56,-1,-1,0
1523628165666,-786432,53,-56,-1,-1,0
1523628165666,-720896,53,-56,-1,-1,0
1523628165666,-720896,53,-56,-1,-1,0
1523628165666,-720896,53,-56,-1,-1,0
1523628165666,-720896,53,-56,-1,-1,0
1523628165726,-720896,53,-56,-1,-1,0
1523628165726,-720896,53,-56,-1,-1,0
1523628165726,-720896,53,-56,-1,-1,0
1523628165726,-720896,53,-56,-1,-1,0
1523628165726,-720896,53,-56,-1,-1,0
1523628165746,-720896,53,-56,-1,-1,0
1523628165746,-786432,53,-56,-1,-1,0
1523628165746,-786432,53,-56,-1,-1,0
1523628165746,-786432,53,-56,-1,-1,0
1523628165746,-786432,53,-56,-1,-1,0
1523628165786,-786432,53,-56,-1,-1,0
1523628165786,-786432,53,-56,-1,-1,0
1523628165786,-786432,53,-56,-1,-1,0
1523628165786,-786432,53,-56,-1,-1,0
1523628165786,-851968,53,-56,-1,-1,0
1523628165826,-851968,53,-56,-1,-1,0
1523628165826,-786432,53,-56,-1,-1,0
1523628165826,-851968,53,-56,-1,-1,0
1523628165826,-851968,53,-56,-1,-1,0
1523628165826,-851968,53,-56,-1,-1,0
1523628165866,-851968,53,-56,-1,-1,0
1523628165866,-851968,53,-56,-1,-1,0
1523628165866,-851968,53,-56,-1,-1,0
1523628165866,-851968,53,-56,-1,-1,0
1523628165866,-851968,53,-56,-1,-1,0
1523628165906,-917504,53,-56,-1,-1,0
1523628165906,-917504,53,-56,-1,-1,0
1523628165906,-851968,53,-56,-1,-1,0
1523628165906,-917504,53,-56,-1,-1,0
1523628165906,-917504,53,-56,-1,-1,0
1523628165946,-917504,53,-56,-1,-1,0
1523628165946,-851968,53,-56,-1,-1,0
1523628165946,-851968,53,-56,-1,-1,0
1523628165946,-851968,53,-56,-1,-1,0
1523628165946,-851968,53,-56,-1,-1,0
1523628165986,-851968,53,-56,-1,-1,0
1523628165986,-851968,53,-56,-1,-1,0
1523628165986,-851968,53,-56,-1,-1,0
1523628165986,-851968,53,-56,-1,-1,0
1523628165986,-851968,53,-56,-1,-1,0
1523628166026,-851968,53,-56,-1,-1,0
1523628166026,-917504,53,-56,-1,-1,0
1523628166026,-917504,53,-56,-1,-1,0
1523628166026,-917504,53,-56,-1,-1,0
1523628166026,-851968,53,-56,-1,-1,0
1523628166066,-917504,53,-56,-1,-1,0
1523628166066,-917504,53,-56,-1,-1,0
1523628166066,-917504,53,-56,-1,-1,0
1523628166066,-851968,53,-56,-1,-1,0
1523628166066,-851968,53,-56,-1,-1,0
1523628166106,-786432,53,-56,-1,-1,0
1523628166106,-655360,53,-56,-1,-1,0
1523628166106,-589824,53,-56,-1,-1,0
1523628166106,-589824,53,-56,-1,-1,0
1523628166106,-720896,53,-56,-1,-1,0
1523628166146,-786432,53,-56,-1,-1,0
1523628166146,-851968,53,-56,-1,-1,0
1523628166146,-917504,53,-56,-1,-1,0
1523628166146,-917504,53,-56,-1,-1,0
1523628166146,-917504,53,-56,-1,-1,0
1523628166186,-917504,53,-56,-1,-1,0
1523628166186,-917504,53,-56,-1,-1,0
1523628166186,-917504,53,-56,-1,-1,0
1523628166186,-917504,53,-56,-1,-1,0
1523628166186,-1245184,53,-56,-1,-1,0
1523628166226,-1245184,53,-56,-1,-1,0
1523628166226,327680,53,-56,-1,-1,0
1523628166226,4456448,53,-56,-1,-1,0
1523628166226,10289152,53,-56,-1,-1,0
1523628166226,14024704,53,-56,-1,-1,0
1523628166266,11665408,53,-56,-1,-1,0
1523628166266,5373952,53,-56,-1,-1,0
1523628166266,1245184,53,-56,-1,-1,0
1523628166266,458752,53,-56,-1,-1,0
1523628166266,131072,53,-56,-1,-1,0
1523628166306,-196608,53,-56,-1,-1,0
1523628166306,-393216,53,-56,-1,-1,0
1523628166306,-458752,53,-56,-1,-1,0
1523628166306,-458752,53,-56,-1,-1,0
1523628166306,-393216,53,-56,-1,-1,0
1523628166366,-393216,53,-56,-1,-1,0
1523628166366,-393216,53,-56,-1,-1,0
1523628166366,-393216,53,-56,-1,-1,0
1523628166366,-327680,53,-56,-1,-1,0
1523628166366,-196608,53,-56,-1,-1,0
1523628166386,-131072,53,-56,-1,-1,0
1523628166386,-131072,53,-56,-1,-1,0
1523628166386,0,53,-56,-1,-1,0
1523628166386,0,53,-56,-1,-1,0
1523628166386,131072,53,-56,-1,-1,0
1523628166426,262144,53,-56,-1,-1,0
1523628166426,458752,53,-56,-1,-1,0
1523628166426,655360,53,-56,-1,-1,0
1523628166426,917504,53,-56,-1,-1,0
1523628166426,1114112,53,-56,-1,-1,0
1523628166466,1441792,53,-56,-1,-1,0
1523628166466,1769472,53,-56,-1,-1,0
1523628166466,2097152,53,-56,-1,-1,0
1523628166466,2424832,53,-56,-1,-1,0
1523628166466,2686976,53,-56,-1,-1,0
1523628166506,2883584,53,-56,-1,-1,0
1523628166506,3080192,53,-56,-1,-1,0
1523628166506,3145728,53,-56,-1,-1,0
1523628166506,3014656,53,-56,-1,-1,0
1523628166506,2752512,53,-56,-1,-1,0
1523628166546,2293760,53,-56,-1,-1,0
1523628166546,1703936,53,-56,-1,-1,0
1523628166546,1114112,53,-56,-1,-1,0
1523628166546,524288,53,-56,-1,-1,0
1523628166546,131072,53,-56,-1,-1,0
1523628166586,-65536,53,-56,-1,-1,0
1523628166586,-327680,53,-56,-1,-1,0
1523628166586,-458752,53,-56,-1,-1,0
1523628166586,-524288,53,-56,-1,-1,0
1523628166586,-589824,53,-56,-1,-1,0
1523628166626,-655360,52,-56,-1,-1,0
1523628166626,-655360,52,-56,-1,-1,0
1523628166626,-655360,52,-56,-1,-1,0
1523628166626,-589824,52,-56,-1,-1,0
1523628166626,-589824,52,-56,-1,-1,0
1523628166666,-589824,52,-56,-1,-1,0
1523628166666,-589824,52,-56,-1,-1,0
1523628166666,-589824,52,-56,-1,-1,0
1523628166666,-524288,52,-56,-1,-1,0
1523628166666,-458752,52,-56,-1,-1,0
1523628166706,-458752,52,-56,-1,-1,0
1523628166706,-458752,52,-56,-1,-1,0
1523628166706,-458752,52,-56,-1,-1,0
1523628166706,-458752,52,-56,-1,-1,0
1523628166706,-458752,52,-56,-1,-1,0
1523628166746,-393216,52,-56,-1,-1,0
1523628166746,-458752,52,-56,-1,-1,0
1523628166746,-524288,52,-56,-1,-1,0
1523628166746,-524288,52,-56,-1,-1,0
1523628166746,-524288,52,-56,-1,-1,0
1523628166786,-589824,52,-56,-1,-1,0
1523628166786,-589824,52,-56,-1,-1,0
1523628166786,-655360,52,-56,-1,-1,0
1523628166786,-655360,52,-56,-1,-1,0
1523628166786,-720896,52,-56,-1,-1,0
1523628166826,-720896,52,-56,-1,-1,0
1523628166826,-720896,52,-56,-1,-1,0
1523628166826,-720896,52,-56,-1,-1,0
1523628166826,-720896,52,-56,-1,-1,0
1523628166826,-720896,52,-56,-1,-1,0
1523628166866,-786432,52,-56,-1,-1,0
1523628166866,-786432,52,-56,-1,-1,0
1523628166866,-786432,52,-56,-1,-1,0
1523628166866,-786432,52,-56,-1,-1,0
1523628166866,-786432,52,-56,-1,-1,0
1523628166906,-851968,52,-56,-1,-1,0
1523628166906,-851968,52,-56,-1,-1,0
1523628166906,-851968,52,-56,-1,-1,0
1523628166906,-851968,52,-56,-1,-1,0
1523628166906,-851968,52,-56,-1,-1,0
1523628166946,-917504,52,-56,-1,-1,0
1523628166946,-917504,52,-56,-1,-1,0
1523628166946,-917504,52,-56,-1,-1,0
1523628166946,-917504,52,-56,-1,-1,0
1523628166946,-917504,52,-56,-1,-1,0
1523628167006,-917504,52,-56,-1,-1,0
1523628167006,-917504,52,-56,-1,-1,0
1523628167006,-917504,52,-56,-1,-1,0
1523628167006,-983040,52,-56,-1,-1,0
1523628167006,-917504,52,-56,-1,-1,0
1523628167026,-917504,52,-56,-1,-1,0
1523628167026,-917504,52,-56,-1,-1,0
1523628167026,-917504,52,-56,-1,-1,0
1523628167026,-917504,52,-56,-1,-1,0
1523628167026,-917504,52,-56,-1,-1,0
1523628167066,-917504,52,-56,-1,-1,0
1523628167066,-917504,52,-56,-1,-1,0
1523628167066,-917504,52,-56,-1,-1,0
1523628167066,-917504,52,-56,-1,-1,0
1523628167066,-917504,52,-56,-1,-1,0
1523628167106,-983040,52,-56,-1,-1,0
1523628167106,-917504,52,-56,-1,-1,0
1523628167106,-917504,52,-56,-1,-1,0
1523628167106,-917504,52,-56,-1,-1,0
1523628167106,-917504,52,-56,-1,-1,0
1523628167146,-917504,52,-56,-1,-1,0
1523628167146,-917504,52,-56,-1,-1,0
1523628167146,-983040,52,-56,-1,-1,0
1523628167146,-983040,52,-56,-1,-1,0
1523628167146,-917504,52,-56,-1,-1,0
1523628167186,-851968,52,-56,-1,-1,0
1523628167186,-786432,52,-56,-1,-1,0
1523628167186,-655360,52,-56,-1,-1,0
1523628167186,-589824,52,-56,-1,-1,0
1523628167186,-589824,52,-56,-1,-1,0
1523628167226,-655360,52,-56,-1,-1,0
1523628167226,-720896,52,-56,-1,-1,0
1523628167226,-786432,52,-56,-1,-1,0
1523628167226,-851968,52,-56,-1,-1,0
1523628167226,-917504,52,-56,-1,-1,0
1523628167266,-917504,52,-56,-1,-1,0
1523628167266,-917504,52,-56,-1,-1,0
1523628167266,-917504,52,-56,-1,-1,0
1523628167266,-917504,52,-56,-1,-1,0
1523628167266,-917504,52,-56,-1,-1,0
1523628167306,-1048576,52,-56,-1,-1,0
1523628167306,-1441792,52,-56,-1,-1,0
1523628167306,-917504,52,-56,-1,-1,0
1523628167306,1835008,52,-56,-1,-1,0
1523628167306,7274496,52,-56,-1,-1,0
1523628167346,13107200,52,-56,-1,-1,0
1523628167346,14221312,52,-56,-1,-1,0
1523628167346,8978432,52,-56,-1,-1,0
1523628167346,3014656,52,-56,-1,-1,0
1523628167346,589824,52,-56,-1,-1,0
1523628167386,196608,52,-56,-1,-1,0
1523628167386,-131072,52,-56,-1,-1,0
1523628167386,-458752,52,-56,-1,-1,0
1523628167386,-524288,52,-56,-1,-1,0
1523628167386,-589824,52,-56,-1,-1,0
1523628167426,-524288,52,-56,-1,-1,0
1523628167426,-524288,52,-56,-1,-1,0
1523628167426,-458752,52,-56,-1,-1,0
1523628167426,-458752,52,-56,-1,-1,0
1523628167426,-393216,52,-56,-1,-1,0
1523628167466,-327680,52,-56,-1,-1,0
1523628167466,-262144,52,-56,-1,-1,0
1523628167466,-196608,52,-56,-1,-1,0
1523628167466,-131072,52,-56,-1,-1,0
1523628167466,-65536,52,-56,-1,-1,0
1523628167506,0,52,-56,-1,-1,0
1523628167506,131072,52,-56,-1,-1,0
1523628167506,262144,52,-56,-1,-1,0
1523628167506,393216,52,-56,-1,-1,0
1523628167506,589824,52,-56,-1,-1,0
1523628167546,851968,52,-56,-1,-1,0
1523628167546,1179648,52,-56,-1,-1,0
1523628167546,1441792,52,-56,-1,-1,0
1523628167546,1769472,52,-56,-1,-1,0
1523628167546,2097152,52,-56,-1,-1,0
1523628167586,2424832,52,-56,-1,-1,0
1523628167586,2686976,52,-56,-1,-1,0
1523628167586,2818048,52,-56,-1,-1,0
1523628167586,2883584,52,-56,-1,-1,0
1523628167586,2883584,52,-56,-1,-1,0
1523628167646,2686976,52,-56,-1,-1,0
1523628167646,2293760,52,-56,-1,-1,0
1523628167646,1769472,52,-56,-1,-1,0
1523628167646,1179648,52,-56,-1,-1,0
1523628167646,655360,52,-56,-1,-1,0
1523628167666,196608,52,-56,-1,-1,0
1523628167666,-65536,52,-56,-1,-1,0
1523628167666,-262144,52,-56,-1,-1,0
1523628167666,-458752,52,-56,-1,-1,0
1523628167666,-589824,52,-56,-1,-1,0
1523628167706,-655360,52,-56,-1,-1,0
1523628167706,-720896,52,-56,-1,-1,0
1523628167706,-720896,52,-56,-1,-1,0
1523628167706,-655360,52,-56,-1,-1,0
1523628167706,-655360,52,-56,-1,-1,0
1523628167746,-655360,53,-56,-1,-1,0
1523628167746,-655360,53,-56,-1,-1,0
1523628167746,-589824,53,-56,-1,-1,0
1523628167746,-589824,53,-56,-1,-1,0
1523628167746,-589824,53,-56,-1,-1,0
1523628167786,-524288,53,-56,-1,-1,0
1523628167786,-524288,53,-56,-1,-1,0
1523628167786,-524288,53,-56,-1,-1,0
1523628167786,-524288,53,-56,-1,-1,0
1523628167786,-524288,53,-56,-1,-1,0
1523628167826,-458752,53,-56,-1,-1,0
1523628167826,-524288,53,-56,-1,-1,0
1523628167826,-524288,53,-56,-1,-1,0
1523628167826,-524288,53,-56,-1,-1,0
1523628167826,-524288,53,-56,-1,-1,0
1523628167866,-524288,53,-56,-1,-1,0
1523628167866,-589824,53,-56,-1,-1,0
1523628167866,-655360,53,-56,-1,-1,0
1523628167866,-655360,53,-56,-1,-1,0
1523628167866,-655360,53,-56,-1,-1,0
1523628167906,-655360,53,-56,-1,-1,0
1523628167906,-655360,53,-56,-1,-1,0
1523628167906,-720896,53,-56,-1,-1,0
1523628167906,-720896,53,-56,-1,-1,0
1523628167906,-720896,53,-56,-1,-1,0
1523628167946,-720896,53,-56,-1,-1,0
1523628167946,-720896,53,-56,-1,-1,0
1523628167946,-720896,53,-56,-1,-1,0
1523628167946,-720896,53,-56,-1,-1,0
1523628167946,-720896,53,-56,-1,-1,0
1523628167986,-720896,53,-56,-1,-1,0
1523628167986,-720896,53,-56,-1,-1,0
1523628167986,-720896,53,-56,-1,-1,0
1523628167986,-720896,53,-56,-1,-1,0
1523628167986,-720896,53,-56,-1,-1,0
1523628168026,-786432,53,-56,-1,-1,0
1523628168026,-786432,53,-56,-1,-1,0
1523628168026,-786432,53,-56,-1,-1,0
1523628168026,-786432,53,-56,-1,-1,0
1523628168026,-786432,53,-56,-1,-1,0
1523628168066,-786432,53,-56,-1,-1,0
1523628168066,-851968,53,-56,-1,-1,0
1523628168066,-851968,53,-56,-1,-1,0
1523628168066,-851968,53,-56,-1,-1,0
1523628168066,-786432,53,-56,-1,-1,0
1523628168106,-786432,53,-56,-1,-1,0
1523628168106,-786432,53,-56,-1,-1,0
1523628168106,-720896,53,-56,-1,-1,0
1523628168106,-720896,53,-56,-1,-1,0
1523628168106,-786432,53,-56,-1,-1,0
1523628168147,-786432,53,-56,-1,-1,0
1523628168147,-786432,53,-56,-1,-1,0
1523628168147,-786432,53,-56,-1,-1,0
1523628168147,-786432,53,-56,-1,-1,0
1523628168147,-786432,53,-56,-1,-1,0
1523628168186,-786432,53,-56,-1,-1,0
1523628168186,-786432,53,-56,-1,-1,0
1523628168186,-786432,53,-56,-1,-1,0
1523628168186,-786432,53,-56,-1,-1,0
1523628168186,-786432,53,-56,-1,-1,0
1523628168225,-786432,53,-56,-1,-1,0
1523628168225,-720896,53,-56,-1,-1,0
1523628168225,-720896,53,-56,-1,-1,0
1523628168225,-786432,53,-56,-1,-1,0
1523628168225,-786432,53,-56,-1,-1,0
1523628168285,-786432,53,-56,-1,-1,0
1523628168285,-786432,53,-56,-1,-1,0
1523628168285,-786432,53,-56,-1,-1,0
1523628168285,-786432,53,-56,-1,-1,0
1523628168285,-786432,53,-56,-1,-1,0
1523628168306,-786432,53,-56,-1,-1,0
1523628168306,-720896,53,-56,-1,-1,0
1523628168306,-655360,53,-56,-1,-1,0
1523628168306,-589824,53,-56,-1,-1,0
1523628168306,-524288,53,-56,-1,-1,0
1523628168345,-458752,53,-56,-1,-1,0
1523628168345,-524288,53,-56,-1,-1,0
1523628168345,-655360,53,-56,-1,-1,0
1523628168345,-786432,53,-56,-1,-1,0
1523628168345,-786432,53,-56,-1,-1,0
1523628168385,-851968,53,-56,-1,-1,0
1523628168385,-851968,53,-56,-1,-1,0
1523628168385,-851968,53,-56,-1,-1,0
1523628168385,-851968,53,-56,-1,-1,0
1523628168385,-851968,53,-56,-1,-1,0
1523628168425,-851968,53,-56,-1,-1,0
1523628168425,-983040,53,-56,-1,-1,0
1523628168425,-1376256,53,-56,-1,-1,0
1523628168425,-720896,53,-56,-1,-1,0
1523628168425,2162688,53,-56,-1,-1,0
1523628168465,7733248,53,-56,-1,-1,0
1523628168465,13434880,53,-56,-1,-1,0
1523628168465,14155776,53,-56,-1,-1,0
1523628168465,8716288,53,-56,-1,-1,0
1523628168465,2949120,53,-56,-1,-1,0
1523628168505,655360,53,-56,-1,-1,0
1523628168505,327680,53,-56,-1,-1,0
1523628168505,0,53,-56,-1,-1,0
1523628168505,-262144,53,-56,-1,-1,0
1523628168505,-393216,53,-56,-1,-1,0
1523628168545,-458752,53,-56,-1,-1,0
1523628168545,-458752,53,-56,-1,-1,0
1523628168545,-458752,53,-56,-1,-1,0
1523628168545,-393216,53,-56,-1,-1,0
1523628168545,-393216,53,-56,-1,-1,0
1523628168585,-393216,53,-56,-1,-1,0
1523628168585,-327680,53,-56,-1,-1,0
1523628168585,-327680,53,-56,-1,-1,0
1523628168585,-262144,53,-56,-1,-1,0
1523628168585,-196608,53,-56,-1,-1,0
1523628168625,-65536,53,-56,-1,-1,0
1523628168625,0,53,-56,-1,-1,0
1523628168625,0,53,-56,-1,-1,0
1523628168625,196608,53,-56,-1,-1,0
1523628168625,327680,53,-56,-1,-1,0
1523628168665,524288,53,-56,-1,-1,0
1523628168665,720896,53,-56,-1,-1,0
1523628168665,983040,53,-56,-1,-1,0
1523628168665,1245184,53,-56,-1,-1,0
1523628168665,1507328,53,-56,-1,-1,0
1523628168705,1835008,53,-56,-1,-1,0
1523628168705,2097152,53,-56,-1,-1,0
1523628168705,2359296,53,-56,-1,-1,0
1523628168705,2490368,53,-56,-1,-1,0
1523628168705,2621440,53,-56,-1,-1,0
1523628168745,2621440,53,-56,-1,-1,0
1523628168745,2490368,53,-56,-1,-1,0
1523628168745,2162688,53,-56,-1,-1,0
1523628168745,1638400,53,-56,-1,-1,0
1523628168745,1114112,53,-56,-1,-1,0
1523628168785,655360,53,-56,-1,-1,0
1523628168785,196608,53,-56,-1,-1,0
1523628168785,-65536,53,-56,-1,-1,0
1523628168785,-327680,53,-56,-1,-1,0
1523628168785,-458752,53,-56,-1,-1,0
1523628168825,-524288,53,-56,-1,-1,0
1523628168825,-589824,53,-56,-1,-1,0
1523628168825,-589824,53,-56,-1,-1,0
1523628168825,-655360,53,-56,-1,-1,0
1523628168825,-655360,53,-56,-1,-1,0
1523628168865,-655360,53,-56,-1,-1,0
1523628168865,-589824,53,-56,-1,-1,0
1523628168865,-589824,53,-56,-1,-1,0
1523628168865,-589824,53,-56,-1,-1,0
1523628168865,-589824,53,-56,-1,-1,0
1523628168925,-524288,53,-56,-1,-1,0
1523628168925,-524288,53,-56,-1,-1,0
1523628168925,-524288,53,-56,-1,-1,0
1523628168925,-524288,53,-56,-1,-1,0
1523628168925,-524288,53,-56,-1,-1,0
1523628168945,-524288,53,-56,-1,-1,0
1523628168945,-524288,53,-56,-1,-1,0
1523628168945,-524288,53,-56,-1,-1,0
1523628168945,-524288,53,-56,-1,-1,0
1523628168945,-589824,53,-56,-1,-1,0
1523628168985,-589824,53,-56,-1,-1,0
1523628168985,-589824,53,-56,-1,-1,0
1523628168985,-589824,53,-56,-1,-1,0
1523628168985,-655360,53,-56,-1,-1,0
1523628168985,-917504,53,-56,-1,-1,0
1523628169025,-1048576,53,-56,-1,-1,0
1523628169025,-1048576,53,-56,-1,-1,0
1523628169025,-917504,53,-56,-1,-1,0
1523628169025,-786432,53,-56,-1,-1,0
1523628169025,-655360,53,-56,-1,-1,0
1523628169065,-655360,53,-56,-1,-1,0
1523628169065,-655360,53,-56,-1,-1,0
1523628169065,-655360,53,-56,-1,-1,0
1523628169065,-655360,53,-56,-1,-1,0
1523628169065,-655360,53,-56,-1,-1,0
1523628169105,-655360,53,-56,-1,-1,0
1523628169105,-655360,53,-56,-1,-1,0
1523628169105,-720896,53,-56,-1,-1,0
1523628169105,-720896,53,-56,-1,-1,0
1523628169105,-720896,53,-56,-1,-1,0
1523628169145,-720896,53,-56,-1,-1,0
1523628169145,-655360,53,-56,-1,-1,0
1523628169145,-655360,53,-56,-1,-1,0
1523628169145,-720896,53,-56,-1,-1,0
1523628169145,-851968,53,-56,-1,-1,0
1523628169185,-851968,53,-56,-1,-1,0
1523628169185,-851968,53,-56,-1,-1,0
1523628169185,-851968,53,-56,-1,-1,0
1523628169185,-851968,53,-56,-1,-1,0
1523628169185,-917504,53,-56,-1,-1,0
1523628169227,-851968,53,-56,-1,-1,0
1523628169227,-917504,53,-56,-1,-1,0
1523628169227,-917504,53,-56,-1,-1,0
1523628169227,-917504,53,-56,-1,-1,0
1523628169227,-851968,53,-56,-1,-1,0
1523628169265,-851968,53,-56,-1,-1,0
1523628169265,-851968,53,-56,-1,-1,0
1523628169265,-851968,53,-56,-1,-1,0
1523628169265,-851968,53,-56,-1,-1,0
1523628169265,-917504,53,-56,-1,-1,0
1523628169305,-917504,53,-56,-1,-1,0
1523628169305,-917504,53,-56,-1,-1,0
1523628169305,-917504,53,-56,-1,-1,0
1523628169305,-851968,53,-56,-1,-1,0
1523628169305,-851968,53,-56,-1,-1,0
1523628169345,-851968,53,-56,-1,-1,0
1523628169345,-851968,53,-56,-1,-1,0
1523628169345,-851968,53,-56,-1,-1,0
1523628169345,-851968,53,-56,-1,-1,0
1523628169345,-851968,53,-56,-1,-1,0
1523628169385,-917504,53,-56,-1,-1,0
1523628169385,-917504,53,-56,-1,-1,0
1523628169385,-917504,53,-56,-1,-1,0
1523628169385,-917504,53,-56,-1,-1,0
1523628169385,-851968,53,-56,-1,-1,0
1523628169425,-851968,53,-56,-1,-1,0
1523628169425,-786432,53,-56,-1,-1,0
1523628169425,-720896,53,-56,-1,-1,0
1523628169425,-655360,53,-56,-1,-1,0
1523628169425,-655360,53,-56,-1,-1,0
1523628169465,-720896,53,-56,-1,-1,0
1523628169465,-851968,53,-56,-1,-1,0
1523628169465,-917504,53,-56,-1,-1,0
1523628169465,-983040,53,-56,-1,-1,0
1523628169465,-983040,53,-56,-1,-1,0
1523628169505,-983040,53,-56,-1,-1,0
1523628169505,-917504,53,-56,-1,-1,0
1523628169505,-917504,53,-56,-1,-1,0
1523628169505,-917504,53,-56,-1,-1,0
1523628169505,-917504,53,-56,-1,-1,0
1523628169566,-1179648,53,-56,-1,-1,0
1523628169566,-1376256,53,-56,-1,-1,0
1523628169566,-327680,53,-56,-1,-1,0
1523628169566,3211264,53,-56,-1,-1,0
1523628169566,9109504,53,-56,-1,-1,0
1523628169585,13959168,53,-56,-1,-1,0
1523628169585,12910592,53,-56,-1,-1,0
1523628169585,6881280,53,-56,-1,-1,0
1523628169585,1900544,53,-56,-1,-1,0
1523628169585,458752,53,-56,-1,-1,0
1523628169625,65536,53,-56,-1,-1,0
1523628169625,-196608,53,-56,-1,-1,0
1523628169625,-458752,53,-56,-1,-1,0
1523628169625,-524288,53,-56,-1,-1,0
1523628169625,-589824,53,-56,-1,-1,0
1523628169665,-524288,53,-56,-1,-1,0
1523628169665,-524288,53,-56,-1,-1,0
1523628169665,-524288,53,-56,-1,-1,0
1523628169665,-458752,53,-56,-1,-1,0
1523628169665,-458752,53,-56,-1,-1,0
1523628169705,-393216,53,-56,-1,-1,0
1523628169705,-393216,53,-56,-1,-1,0
1523628169705,-327680,53,-56,-1,-1,0
1523628169705,-196608,53,-56,-1,-1,0
1523628169705,-131072,53,-56,-1,-1,0
1523628169745,-65536,53,-56,-1,-1,0
1523628169745,0,53,-56,-1,-1,0
1523628169745,131072,53,-56,-1,-1,0
1523628169745,262144,53,-56,-1,-1,0
1523628169745,458752,53,-56,-1,-1,0
1523628169785,720896,53,-56,-1,-1,0
1523628169785,917504,53,-56,-1,-1,0
1523628169785,1245184,53,-56,-1,-1,0
1523628169785,1507328,53,-56,-1,-1,0
1523628169785,1835008,53,-56,-1,-1,0
1523628169826,2097152,53,-56,-1,-1,0
1523628169826,2293760,53,-56,-1,-1,0
1523628169826,2490368,53,-56,-1,-1,0
1523628169826,2555904,53,-56,-1,-1,0
1523628169826,2490368,53,-56,-1,-1,0
1523628169865,2293760,53,-56,-1,-1,0
1523628169865,1966080,53,-56,-1,-1,0
1523628169865,1507328,53,-56,-1,-1,0
1523628169865,983040,53,-56,-1,-1,0
1523628169865,524288,53,-56,-1,-1,0
1523628169905,65536,53,-56,-1,-1,0
1523628169905,-131072,53,-56,-1,-1,0
1523628169905,-393216,53,-56,-1,-1,0
1523628169905,-524288,53,-56,-1,-1,0
1523628169905,-589824,53,-56,-1,-1,0
1523628169945,-655360,53,-56,-1,-1,0
1523628169945,-655360,53,-56,-1,-1,0
1523628169945,-720896,53,-56,-1,-1,0
1523628169945,-655360,53,-56,-1,-1,0
1523628169945,-655360,53,-56,-1,-1,0
1523628169985,-655360,53,-56,-1,-1,0
1523628169985,-589824,53,-56,-1,-1,0
1523628169985,-589824,53,-56,-1,-1,0
1523628169985,-524288,53,-56,-1,-1,0
1523628169985,-524288,53,-56,-1,-1,0
1523628170026,-524288,53,-56,-1,-1,0
1523628170026,-524288,53,-56,-1,-1,0
1523628170026,-524288,53,-56,-1,-1,0
1523628170026,-458752,53,-56,-1,-1,0
1523628170026,-458752,53,-56,-1,-1,0
1523628170065,-524288,53,-56,-1,-1,0
1523628170065,-524288,53,-56,-1,-1,0
1523628170065,-524288,53,-56,-1,-1,0
1523628170065,-524288,53,-56,-1,-1,0
1523628170065,-589824,53,-56,-1,-1,0
1523628170105,-589824,53,-56,-1,-1,0
1523628170105,-655360,53,-56,-1,-1,0
1523628170105,-655360,53,-56,-1,-1,0
1523628170105,-720896,53,-56,-1,-1,0
1523628170105,-720896,53,-56,-1,-1,0
1523628170145,-720896,53,-56,-1,-1,0
1523628170145,-786432,53,-56,-1,-1,0
1523628170145,-786432,53,-56,-1,-1,0
1523628170145,-786432,53,-56,-1,-1,0
1523628170145,-786432,53,-56,-1,-1,0
1523628170205,-786432,53,-56,-1,-1,0
1523628170205,-786432,53,-56,-1,-1,0
1523628170205,-786432,53,-56,-1,-1,0
1523628170205,-851968,53,-56,-1,-1,0
1523628170205,-851968,53,-56,-1,-1,0
1523628170227,-851968,53,-56,-1,-1,0
1523628170227,-851968,53,-56,-1,-1,0
1523628170227,-851968,53,-56,-1,-1,0
1523628170227,-851968,53,-56,-1,-1,0
1523628170227,-917504,53,-56,-1,-1,0
1523628170265,-917504,53,-56,-1,-1,0
1523628170265,-917504,53,-56,-1,-1,0
1523628170265,-917504,53,-56,-1,-1,0
1523628170265,-917504,53,-56,-1,-1,0
1523628170265,-917504,53,-56,-1,-1,0
1523628170305,-917504,53,-56,-1,-1,0
1523628170305,-917504,53,-56,-1,-1,0
1523628170305,-917504,53,-56,-1,-1,0
1523628170305,-917504,53,-56,-1,-1,0
1523628170305,-983040,53,-56,-1,-1,0
1523628170345,-917504,53,-56,-1,-1,0
1523628170345,-917504,53,-56,-1,-1,0
1523628170345,-851968,53,-56,-1,-1,0
1523628170345,-851968,53,-56,-1,-1,0
1523628170345,-917504,53,-56,-1,-1,0
1523628170386,-917504,53,-56,-1,-1,0
1523628170386,-917504,53,-56,-1,-1,0
1523628170386,-917504,53,-56,-1,-1,0
1523628170386,-917504,53,-56,-1,-1,0
1523628170386,-917504,53,-56,-1,-1,0
1523628170425,-917504,53,-56,-1,-1,0
1523628170425,-917504,53,-56,-1,-1,0
1523628170425,-917504,53,-56,-1,-1,0
1523628170425,-917504,53,-56,-1,-1,0
1523628170425,-851968,53,-56,-1,-1,0
1523628170465,-786432,53,-56,-1,-1,0
1523628170465,-720896,53,-56,-1,-1,0
1523628170465,-655360,53,-56,-1,-1,0
1523628170465,-589824,53,-56,-1,-1,0
1523628170465,-655360,53,-56,-1,-1,0
1523628170505,-786432,53,-56,-1,-1,0
1523628170505,-851968,53,-56,-1,-1,0
1523628170505,-983040,53,-56,-1,-1,0
1523628170505,-983040,53,-56,-1,-1,0
1523628170505,-983040,53,-56,-1,-1,0
1523628170546,-983040,53,-56,-1,-1,0
1523628170546,-983040,53,-56,-1,-1,0
1523628170546,-983040,53,-56,-1,-1,0
1523628170546,-1048576,53,-56,-1,-1,0
1523628170546,-1376256,53,-56,-1,-1,0
1523628170585,-1310720,53,-56,-1,-1,0
1523628170585,327680,53,-56,-1,-1,0
1523628170585,4784128,53,-56,-1,-1,0
1523628170585,10682368,53,-56,-1,-1,0
1523628170585,13893632,53,-56,-1,-1,0
1523628170626,10878976,53,-56,-1,-1,0
1523628170626,4653056,53,-56,-1,-1,0
1523628170626,983040,53,-56,-1,-1,0
1523628170626,262144,53,-56,-1,-1,0
1523628170626,0,53,-56,-1,-1,0
1523628170665,-327680,53,-56,-1,-1,0
1523628170665,-524288,53,-56,-1,-1,0
1523628170665,-589824,53,-56,-1,-1,0
1523628170665,-589824,53,-56,-1,-1,0
1523628170665,-589824,53,-56,-1,-1,0
1523628170705,-524288,53,-56,-1,-1,0
1523628170705,-524288,53,-56,-1,-1,0
1523628170705,-458752,53,-56,-1,-1,0
1523628170705,-458752,53,-56,-1,-1,0
1523628170705,-393216,53,-56,-1,-1,0
1523628170745,-327680,53,-56,-1,-1,0
1523628170745,-262144,53,-56,-1,-1,0
1523628170745,-196608,53,-56,-1,-1,0
1523628170745,-65536,53,-56,-1,-1,0
1523628170745,0,53,-56,-1,-1,0
1523628170785,65536,53,-56,-1,-1,0
1523628170785,196608,53,-56,-1,-1,0
1523628170785,393216,53,-56,-1,-1,0
1523628170785,589824,53,-56,-1,-1,0
1523628170785,786432,53,-56,-1,-1,0
1523628170845,1114112,53,-56,-1,-1,0
1523628170845,1376256,53,-56,-1,-1,0
1523628170845,1703936,53,-56,-1,-1,0
1523628170845,1966080,53,-56,-1,-1,0
1523628170845,2228224,53,-56,-1,-1,0
1523628170865,2424832,53,-56,-1,-1,0
1523628170865,2555904,53,-56,-1,-1,0
1523628170865,2555904,53,-56,-1,-1,0
1523628170865,2424832,53,-56,-1,-1,0
1523628170865,2162688,53,-56,-1,-1,0
1523628170905,1703936,53,-56,-1,-1,0
1523628170905,1179648,53,-56,-1,-1,0
1523628170905,655360,53,-56,-1,-1,0
1523628170905,196608,53,-56,-1,-1,0
1523628170905,-65536,53,-56,-1,-1,0
1523628170945,-327680,53,-56,-1,-1,0
1523628170945,-524288,53,-56,-1,-1,0
1523628170945,-655360,53,-56,-1,-1,0
1523628170945,-655360,53,-56,-1,-1,0
1523628170945,-720896,53,-56,-1,-1,0
1523628170985,-720896,53,-56,-1,-1,0
1523628170985,-786432,53,-56,-1,-1,0
1523628170985,-786432,53,-56,-1,-1,0
1523628170985,-720896,53,-56,-1,-1,0
1523628170985,-720896,53,-56,-1,-1,0
1523628171025,-720896,53,-56,-1,-1,0
1523628171025,-655360,53,-56,-1,-1,0
1523628171025,-655360,53,-56,-1,-1,0
1523628171025,-655360,53,-56,-1,-1,0
1523628171025,-655360,53,-56,-1,-1,0
1523628171065,-589824,53,-56,-1,-1,0
1523628171065,-589824,53,-56,-1,-1,0
1523628171065,-589824,53,-56,-1,-1,0
1523628171065,-589824,53,-56,-1,-1,0
1523628171065,-524288,53,-56,-1,-1,0
1523628171105,-524288,53,-56,-1,-1,0
1523628171105,-589824,53,-56,-1,-1,0
1523628171105,-589824,53,-56,-1,-1,0
1523628171105,-655360,53,-56,-1,-1,0
1523628171105,-655360,53,-56,-1,-1,0
1523628171145,-655360,53,-56,-1,-1,0
1523628171145,-720896,53,-56,-1,-1,0
1523628171145,-720896,53,-56,-1,-1,0
1523628171145,-786432,53,-56,-1,-1,0
1523628171145,-786432,53,-56,-1,-1,0
1523628171185,-851968,53,-56,-1,-1,0
1523628171185,-851968,53,-56,-1,-1,0
1523628171185,-851968,53,-56,-1,-1,0
1523628171185,-851968,53,-56,-1,-1,0
1523628171185,-851968,53,-56,-1,-1,0
1523628171225,-851968,53,-56,-1,-1,0
1523628171225,-917504,53,-56,-1,-1,0
1523628171225,-917504,53,-56,-1,-1,0
1523628171225,-917504,53,-56,-1,-1,0
1523628171225,-917504,53,-56,-1,-1,0
1523628171265,-983040,53,-56,-1,-1,0
1523628171265,-983040,53,-56,-1,-1,0
1523628171265,-1048576,53,-56,-1,-1,0
1523628171265,-983040,53,-56,-1,-1,0
1523628171265,-983040,53,-56,-1,-1,0
1523628171307,-983040,53,-56,-1,-1,0
1523628171307,-983040,53,-56,-1,-1,0
1523628171307,-983040,53,-56,-1,-1,0
1523628171307,-1048576,53,-56,-1,-1,0
1523628171307,-1114112,53,-56,-1,-1,0
1523628171345,-1048576,53,-56,-1,-1,0
1523628171345,-1048576,53,-56,-1,-1,0
1523628171345,-1048576,53,-56,-1,-1,0
1523628171345,-1048576,53,-56,-1,-1,0
1523628171345,-1114112,53,-56,-1,-1,0
1523628171385,-1114112,53,-56,-1,-1,0
1523628171385,-1048576,53,-56,-1,-1,0
1523628171385,-983040,53,-56,-1,-1,0
1523628171385,-983040,53,-56,-1,-1,0
1523628171385,-983040,53,-56,-1,-1,0
1523628171425,-983040,53,-56,-1,-1,0
1523628171425,-851968,53,-56,-1,-1,0
1523628171425,-786432,53,-56,-1,-1,0
1523628171425,-720896,53,-56,-1,-1,0
1523628171425,-851968,53,-56,-1,-1,0
1523628171485,-983040,53,-56,-1,-1,0
1523628171485,-1048576,53,-56,-1,-1,0
1523628171485,-1114112,53,-56,-1,-1,0
1523628171485,-1114112,53,-56,-1,-1,0
1523628171485,-1114112,53,-56,-1,-1,0
1523628171505,-1114112,53,-56,-1,-1,0
1523628171505,-1114112,53,-56,-1,-1,0
1523628171505,-1114112,53,-56,-1,-1,0
1523628171505,-1245184,53,-56,-1,-1,0
1523628171505,-1507328,53,-56,-1,-1,0
1523628171545,-917504,53,-56,-1,-1,0
1523628171545,1703936,53,-56,-1,-1,0
1523628171545,6750208,53,-56,-1,-1,0
1523628171545,12058624,53,-56,-1,-1,0
1523628171545,13172736,53,-56,-1,-1,0
1523628171585,8388608,53,-56,-1,-1,0
1523628171585,2752512,53,-56,-1,-1,0
1523628171585,393216,53,-56,-1,-1,0
1523628171585,65536,53,-56,-1,-1,0
1523628171585,-131072,53,-56,-1,-1,0
1523628171625,-393216,53,-56,-1,-1,0
1523628171625,-524288,53,-56,-1,-1,0
1523628171625,-589824,53,-56,-1,-1,0
1523628171625,-524288,53,-56,-1,-1,0
1523628171625,-589824,53,-56,-1,-1,0
1523628171665,-524288,53,-56,-1,-1,0
1523628171665,-524288,53,-56,-1,-1,0
1523628171665,-458752,53,-56,-1,-1,0
1523628171665,-393216,53,-56,-1,-1,0
1523628171665,-327680,53,-56,-1,-1,0
1523628171705,-262144,53,-56,-1,-1,0
1523628171705,-131072,53,-56,-1,-1,0
1523628171705,0,53,-56,-1,-1,0
1523628171705,0,53,-56,-1,-1,0
1523628171705,131072,53,-56,-1,-1,0
1523628171745,262144,53,-56,-1,-1,0
1523628171745,458752,53,-56,-1,-1,0
1523628171745,655360,53,-56,-1,-1,0
1523628171745,917504,53,-56,-1,-1,0
1523628171745,1245184,53,-56,-1,-1,0
1523628171785,1572864,53,-56,-1,-1,0
1523628171785,1900544,53,-56,-1,-1,0
1523628171785,2228224,53,-56,-1,-1,0
1523628171785,2490368,53,-56,-1,-1,0
1523628171785,2752512,53,-56,-1,-1,0
1523628171825,2949120,53,-56,-1,-1,0
1523628171825,3014656,53,-56,-1,-1,0
1523628171825,2949120,53,-56,-1,-1,0
1523628171825,2752512,53,-56,-1,-1,0
1523628171825,2293760,53,-56,-1,-1,0
1523628171865,1703936,53,-56,-1,-1,0
1523628171865,1114112,53,-56,-1,-1,0
1523628171865,655360,53,-56,-1,-1,0
1523628171865,196608,53,-56,-1,-1,0
1523628171865,-65536,53,-56,-1,-1,0
1523628171905,-262144,53,-56,-1,-1,0
1523628171905,-458752,53,-56,-1,-1,0
1523628171905,-589824,53,-56,-1,-1,0
1523628171905,-589824,53,-56,-1,-1,0
1523628171905,-655360,53,-56,-1,-1,0
1523628171945,-655360,53,-56,-1,-1,0
1523628171945,-655360,53,-56,-1,-1,0
1523628171945,-655360,53,-56,-1,-1,0
1523628171945,-655360,53,-56,-1,-1,0
1523628171945,-655360,53,-56,-1,-1,0
1523628171985,-655360,53,-56,-1,-1,0
1523628171985,-589824,53,-56,-1,-1,0
1523628171985,-589824,53,-56,-1,-1,0
1523628171985,-589824,53,-56,-1,-1,0
1523628171985,-524288,53,-56,-1,-1,0
1523628172025,-524288,53,-56,-1,-1,0
1523628172025,-458752,53,-56,-1,-1,0
1523628172025,-458752,53,-56,-1,-1,0
1523628172025,-458752,53,-56,-1,-1,0
1523628172025,-458752,53,-56,-1,-1,0
1523628172065,-458752,53,-56,-1,-1,0
1523628172065,-524288,53,-56,-1,-1,0
1523628172065,-589824,53,-56,-1,-1,0
1523628172065,-589824,53,-56,-1,-1,0
1523628172065,-655360,53,-56,-1,-1,0
1523628172125,-655360,53,-56,-1,-1,0
1523628172125,-720896,53,-56,-1,-1,0
1523628172125,-720896,53,-56,-1,-1,0
1523628172125,-720896,53,-56,-1,-1,0
1523628172125,-786432,53,-56,-1,-1,0
1523628172145,-786432,53,-56,-1,-1,0
1523628172145,-786432,53,-56,-1,-1,0
1523628172145,-786432,53,-56,-1,-1,0
1523628172145,-786432,53,-56,-1,-1,0
1523628172145,-851968,53,-56,-1,-1,0
1523628172185,-851968,53,-56,-1,-1,0
1523628172185,-851968,53,-56,-1,-1,0
1523628172185,-851968,53,-56,-1,-1,0
1523628172185,-917504,53,-56,-1,-1,0
1523628172185,-917504,53,-56,-1,-1,0
1523628172225,-983040,53,-56,-1,-1,0
1523628172225,-917504,53,-56,-1,-1,0
1523628172225,-917504,53,-56,-1,-1,0
1523628172225,-917504,53,-56,-1,-1,0
1523628172225,-983040,53,-56,-1,-1,0
1523628172265,-983040,53,-56,-1,-1,0
1523628172265,-917504,53,-56,-1,-1,0
1523628172265,-917504,53,-56,-1,-1,0
1523628172265,-917504,53,-56,-1,-1,0
1523628172265,-917504,53,-56,-1,-1,0
1523628172305,-917504,53,-56,-1,-1,0
1523628172305,-983040,53,-56,-1,-1,0
1523628172305,-983040,53,-56,-1,-1,0
1523628172305,-983040,53,-56,-1,-1,0
1523628172305,-983040,53,-56,-1,-1,0
1523628172345,-983040,53,-56,-1,-1,0
1523628172345,-983040,53,-56,-1,-1,0
1523628172345,-983040,53,-56,-1,-1,0
1523628172345,-983040,53,-56,-1,-1,0
1523628172345,-983040,53,-56,-1,-1,0
1523628172385,-983040,53,-56,-1,-1,0
1523628172385,-983040,53,-56,-1,-1,0
1523628172385,-983040,53,-56,-1,-1,0
1523628172385,-983040,53,-56,-1,-1,0
1523628172385,-1048576,53,-56,-1,-1,0
1523628172425,-983040,53,-56,-1,-1,0
1523628172425,-983040,53,-56,-1,-1,0
1523628172425,-917504,53,-56,-1,-1,0
1523628172425,-851968,53,-56,-1,-1,0
1523628172425,-720896,53,-56,-1,-1,0
1523628172465,-655360,53,-56,-1,-1,0
1523628172465,-786432,53,-56,-1,-1,0
1523628172465,-917504,53,-56,-1,-1,0
1523628172465,-983040,53,-56,-1,-1,0
1523628172465,-1048576,53,-56,-1,-1,0
1523628172505,-1048576,53,-56,-1,-1,0
1523628172505,-1048576,53,-56,-1,-1,0
1523628172505,-1048576,53,-56,-1,-1,0
1523628172505,-1048576,53,-56,-1,-1,0
1523628172505,-1048576,53,-56,-1,-1,0
1523628172545,-1114112,53,-56,-1,-1,0
1523628172545,-1441792,53,-56,-1,-1,0
1523628172545,-1441792,53,-56,-1,-1,0
1523628172545,196608,53,-56,-1,-1,0
1523628172545,4718592,53,-56,-1,-1,0
1523628172585,10878976,53,-56,-1,-1,0
1523628172585,14417920,53,-56,-1,-1,0
1523628172585,11337728,53,-56,-1,-1,0
1523628172585,4915200,53,-56,-1,-1,0
1523628172585,983040,53,-56,-1,-1,0
1523628172625,262144,53,-56,-1,-1,0
1523628172625,0,53,-56,-1,-1,0
1523628172625,-393216,53,-56,-1,-1,0
1523628172625,-589824,53,-56,-1,-1,0
1523628172625,-589824,53,-56,-1,-1,0
1523628172665,-589824,53,-56,-1,-1,0
1523628172665,-589824,53,-56,-1,-1,0
1523628172665,-589824,53,-56,-1,-1,0
1523628172665,-589824,53,-56,-1,-1,0
1523628172665,-524288,53,-56,-1,-1,0
1523628172705,-458752,53,-56,-1,-1,0
1523628172705,-393216,53,-56,-1,-1,0
1523628172705,-393216,53,-56,-1,-1,0
1523628172705,-327680,53,-56,-1,-1,0
1523628172705,-262144,53,-56,-1,-1,0
1523628172766,-131072,53,-56,-1,-1,0
1523628172766,0,53,-56,-1,-1,0
1523628172766,65536,53,-56,-1,-1,0
1523628172766,196608,53,-56,-1,-1,0
1523628172766,393216,53,-56,-1,-1,0
1523628172785,589824,53,-56,-1,-1,0
1523628172785,851968,53,-56,-1,-1,0
1523628172785,1179648,53,-56,-1,-1,0
1523628172785,1441792,53,-56,-1,-1,0
1523628172785,1703936,53,-56,-1,-1,0
1523628172825,2031616,53,-56,-1,-1,0
1523628172825,2293760,53,-56,-1,-1,0
1523628172825,2490368,53,-56,-1,-1,0
1523628172825,2555904,53,-56,-1,-1,0
1523628172825,2555904,53,-56,-1,-1,0
1523628172865,2424832,53,-56,-1,-1,0
1523628172865,2162688,53,-56,-1,-1,0
1523628172865,1638400,53,-56,-1,-1,0
1523628172865,1114112,53,-56,-1,-1,0
1523628172865,589824,53,-56,-1,-1,0
1523628172905,196608,53,-56,-1,-1,0
1523628172905,-65536,53,-56,-1,-1,0
1523628172905,-262144,53,-56,-1,-1,0
1523628172905,-458752,53,-56,-1,-1,0
1523628172905,-589824,53,-56,-1,-1,0
1523628172945,-655360,53,-56,-1,-1,0
1523628172945,-655360,53,-56,-1,-1,0
1523628172945,-655360,53,-56,-1,-1,0
1523628172945,-655360,53,-56,-1,-1,0
1523628172945,-655360,53,-56,-1,-1,0
1523628172985,-655360,53,-56,-1,-1,0
1523628172985,-589824,53,-56,-1,-1,0
1523628172985,-589824,53,-56,-1,-1,0
1523628172985,-589824,53,-56,-1,-1,0
1523628172985,-589824,53,-56,-1,-1,0
1523628173025,-524288,53,-56,-1,-1,0
1523628173025,-524288,53,-56,-1,-1,0
1523628173025,-458752,53,-56,-1,-1,0
1523628173025,-458752,53,-56,-1,-1,0
1523628173025,-458752,53,-56,-1,-1,0
1523628173065,-458752,53,-56,-1,-1,0
1523628173065,-458752,53,-56,-1,-1,0
1523628173065,-458752,53,-56,-1,-1,0
1523628173065,-458752,53,-56,-1,-1,0
1523628173065,-458752,53,-56,-1,-1,0
1523628173105,-524288,53,-56,-1,-1,0
1523628173105,-524288,53,-56,-1,-1,0
1523628173105,-589824,53,-56,-1,-1,0
1523628173105,-589824,53,-56,-1,-1,0
1523628173105,-655360,53,-56,-1,-1,0
1523628173145,-655360,53,-56,-1,-1,0
1523628173145,-655360,53,-56,-1,-1,0
1523628173145,-655360,53,-56,-1,-1,0
1523628173145,-655360,53,-56,-1,-1,0
1523628173145,-655360,53,-56,-1,-1,0
1523628173185,-720896,53,-56,-1,-1,0
1523628173185,-720896,53,-56,-1,-1,0
1523628173185,-720896,53,-56,-1,-1,0
1523628173185,-720896,53,-56,-1,-1,0
1523628173185,-720896,53,-56,-1,-1,0
1523628173225,-720896,53,-56,-1,-1,0
1523628173225,-786432,53,-56,-1,-1,0
1523628173225,-720896,53,-56,-1,-1,0
1523628173225,-720896,53,-56,-1,-1,0
1523628173225,-720896,53,-56,-1,-1,0
1523628173265,-786432,53,-56,-1,-1,0
1523628173265,-786432,53,-56,-1,-1,0
1523628173265,-786432,53,-56,-1,-1,0
1523628173265,-786432,53,-56,-1,-1,0
1523628173265,-786432,53,-56,-1,-1,0
1523628173305,-786432,53,-56,-1,-1,0
1523628173305,-851968,53,-56,-1,-1,0
1523628173305,-851968,53,-56,-1,-1,0
1523628173305,-851968,53,-56,-1,-1,0
1523628173305,-851968,53,-56,-1,-1,0
1523628173345,-851968,53,-56,-1,-1,0
1523628173345,-851968,53,-56,-1,-1,0
1523628173345,-851968,53,-56,-1,-1,0
1523628173345,-851968,53,-56,-1,-1,0
1523628173345,-851968,53,-56,-1,-1,0
1523628173405,-851968,53,-56,-1,-1,0
1523628173405,-851968,53,-56,-1,-1,0
1523628173405,-851968,53,-56,-1,-1,0
1523628173405,-851968,53,-56,-1,-1,0
1523628173405,-786432,53,-56,-1,-1,0
1523628173425,-786432,53,-56,-1,-1,0
1523628173425,-786432,53,-56,-1,-1,0
1523628173425,-786432,53,-56,-1,-1,0
1523628173425,-851968,53,-56,-1,-1,0
1523628173425,-851968,53,-56,-1,-1,0
1523628173465,-851968,53,-56,-1,-1,0
1523628173465,-851968,53,-56,-1,-1,0
1523628173465,-917504,53,-56,-1,-1,0
1523628173465,-917504,53,-56,-1,-1,0
1523628173465,-917504,53,-56,-1,-1,0
1523628173505,-851968,53,-56,-1,-1,0
1523628173505,-851968,53,-56,-1,-1,0
1523628173505,-786432,53,-56,-1,-1,0
1523628173505,-655360,53,-56,-1,-1,0
1523628173505,-524288,53,-56,-1,-1,0
1523628173545,-589824,53,-56,-1,-1,0
1523628173545,-720896,53,-56,-1,-1,0
1523628173545,-786432,53,-56,-1,-1,0
1523628173545,-917504,53,-56,-1,-1,0
1523628173545,-983040,53,-56,-1,-1,0
1523628173585,-983040,53,-56,-1,-1,0
1523628173585,-983040,53,-56,-1,-1,0
1523628173585,-983040,53,-56,-1,-1,0
1523628173585,-917504,53,-56,-1,-1,0
1523628173585,-917504,53,-56,-1,-1,0
1523628173625,-1114112,53,-56,-1,-1,0
1523628173625,-1441792,53,-56,-1,-1,0
1523628173625,-917504,53,-56,-1,-1,0
1523628173625,1900544,53,-56,-1,-1,0
1523628173625,7405568,53,-56,-1,-1,0
1523628173665,13172736,53,-56,-1,-1,0
1523628173665,14155776,53,-56,-1,-1,0
1523628173665,8912896,53,-56,-1,-1,0
1523628173665,3014656,53,-56,-1,-1,0
1523628173665,589824,53,-56,-1,-1,0
1523628173705,196608,53,-56,-1,-1,0
1523628173705,-131072,53,-56,-1,-1,0
1523628173705,-393216,53,-56,-1,-1,0
1523628173705,-524288,53,-56,-1,-1,0
1523628173705,-589824,53,-56,-1,-1,0
1523628173745,-589824,53,-56,-1,-1,0
1523628173745,-589824,53,-56,-1,-1,0
1523628173745,-524288,53,-56,-1,-1,0
1523628173745,-524288,53,-56,-1,-1,0
1523628173745,-458752,53,-56,-1,-1,0
1523628173785,-393216,53,-56,-1,-1,0
