milliseconds, ECG, ECG HR, PPG, PPG HR, SpO2, PI
0,0,119,-56,-1,-1,0
33,-655360,119,-56,-1,-1,0
66,-1114112,119,-56,-1,-1,0
100,-1638400,119,-56,-1,-1,0
133,-1114112,119,-56,-1,-1,0
166,-786432,119,-56,-1,-1,0
200,-5701632,119,-56,-1,-1,0
233,-1310720,119,-56,-1,-1,0
266,-720896,119,-56,-1,-1,0
300,131072,119,-56,-1,-1,0
333,1900544,119,-56,-1,-1,0
366,3211264,119,-56,-1,-1,0
400,589824,119,-56,-1,-1,0
433,-393216,119,-56,-1,-1,0
466,-851968,119,-56,-1,-1,0
500,-1572864,119,-56,-1,-1,0
533,-655360,119,-56,-1,-1,0
566,-1310720,119,-56,-1,-1,0
600,8585216,119,-56,-1,-1,0
633,-1703936,119,-56,-1,-1,0
666,-983040,119,-56,-1,-1,0
700,-131072,119,-56,-1,-1,0
733,983040,119,-56,-1,-1,0
766,2818048,119,-56,-1,-1,0
800,1966080,119,-56,-1,-1,0
833,-65536,119,-56,-1,-1,0
866,-655360,119,-56,-1,-1,0
900,-1048576,119,-56,-1,-1,0
933,-1376256,119,-56,-1,-1,0
966,-917504,119,-56,-1,-1,0
1000,-589824,119,-56,-1,-1,0
1033,-3866624,119,-56,-1,-1,0
1066,-1114112,119,-56,-1,-1,0
1100,-786432,119,-56,-1,-1,0
1133,0,119,-56,-1,-1,0
1166,1966080,119,-56,-1,-1,0
1200,3145728,119,-56,-1,-1,0
1233,1179648,119,-56,-1,-1,0
1266,-458752,119,-56,-1,-1,0
1300,-983040,119,-56,-1,-1,0
1333,-1769472,119,-56,-1,-1,0
1366,-786432,119,-56,-1,-1,0
1400,-1245184,119,-56,-1,-1,0
1433,8454144,119,-56,-1,-1,0
1466,-3014656,119,-56,-1,-1,0
1500,-1572864,119,-56,-1,-1,0
1533,-917504,119,-56,-1,-1,0
1566,589824,119,-56,-1,-1,0
1600,3276800,119,-56,-1,-1,0
1633,3145728,119,-56,-1,-1,0
1666,131072,119,-56,-1,-1,0
1700,-851968,119,-56,-1,-1,0
1733,-1638400,119,-56,-1,-1,0
1766,-1769472,119,-56,-1,-1,0
1800,-1310720,119,-56,-1,-1,0
1833,-1048576,119,-56,-1,-1,0
1866,-5439488,119,-56,-1,-1,0
1900,-1441792,119,-56,-1,-1,0
1933,-851968,119,-56,-1,-1,0
1966,65536,119,-56,-1,-1,0
2000,2752512,119,-56,-1,-1,0
2033,4063232,119,-56,-1,-1,0
2066,983040,120,-56,-1,-1,0
2100,-262144,120,-56,-1,-1,0
2133,-917504,120,-56,-1,-1,0
2166,-1572864,120,-56,-1,-1,0
2200,-851968,120,-56,-1,-1,0
2233,-1245184,120,-56,-1,-1,0
2266,2162688,120,-56,-1,-1,0
2300,-1441792,120,-56,-1,-1,0
2333,-983040,120,-56,-1,-1,0
2366,-131072,120,-56,-1,-1,0
2400,1114112,120,-56,-1,-1,0
2433,2818048,120,-56,-1,-1,0
2466,1179648,120,-56,-1,-1,0
2500,-393216,120,-56,-1,-1,0
2533,-720896,120,-56,-1,-1,0
2566,-1638400,120,-56,-1,-1,0
2600,-589824,120,-56,-1,-1,0
2633,-1245184,120,-56,-1,-1,0
2666,9764864,120,-56,-1,-1,0
2700,-1507328,120,-56,-1,-1,0
2733,-1048576,120,-56,-1,-1,0
2766,-393216,120,-56,-1,-1,0
2800,983040,120,-56,-1,-1,0
2833,2424832,120,-56,-1,-1,0
2866,1703936,120,-56,-1,-1,0
2900,-262144,120,-56,-1,-1,0
2933,-524288,120,-56,-1,-1,0
2966,-1179648,120,-56,-1,-1,0
3000,-1179648,120,-56,-1,-1,0
3033,-1179648,120,-56,-1,-1,0
3066,1441792,120,-56,-1,-1,0
3100,-5505024,120,-56,-1,-1,0
3133,-1376256,120,-56,-1,-1,0
3166,-917504,120,-56,-1,-1,0
3200,65536,120,-56,-1,-1,0
3233,2097152,120,-56,-1,-1,0
3266,3080192,120,-56,-1,-1,0
3300,393216,120,-56,-1,-1,0
3333,-786432,120,-56,-1,-1,0
3366,-1048576,120,-56,-1,-1,0
3400,-1966080,120,-56,-1,-1,0
3433,-851968,120,-56,-1,-1,0
3466,-1572864,120,-56,-1,-1,0
3500,196608,120,-56,-1,-1,0
3533,-1638400,120,-56,-1,-1,0
3566,-1114112,120,-56,-1,-1,0
3600,-131072,120,-56,-1,-1,0
3633,1638400,120,-56,-1,-1,0
3666,3538944,120,-56,-1,-1,0
3699,1179648,120,-56,-1,-1,0
3733,-589824,120,-56,-1,-1,0
3766,-786432,120,-56,-1,-1,0
3800,-1507328,120,-56,-1,-1,0
3833,-720896,120,-56,-1,-1,0
3866,-1245184,120,-56,-1,-1,0
3900,7667712,120,-56,-1,-1,0
3933,-2818048,120,-56,-1,-1,0
3966,-1114112,120,-56,-1,-1,0
4000,-393216,120,-56,-1,-1,0
4033,851968,120,-56,-1,-1,0
4066,2883584,120,-56,-1,-1,0
4100,2031616,120,-56,-1,-1,0
4133,-262144,120,-56,-1,-1,0
4166,-589824,120,-56,-1,-1,0
4200,-1310720,120,-56,-1,-1,0
4233,-1310720,120,-56,-1,-1,0
4266,-1245184,120,-56,-1,-1,0
4300,1376256,120,-56,-1,-1,0
4333,-6291456,120,-56,-1,-1,0
4366,-1310720,120,-56,-1,-1,0
4400,-786432,120,-56,-1,-1,0
4433,131072,120,-56,-1,-1,0
4466,1638400,120,-56,-1,-1,0
4500,2359296,120,-56,-1,-1,0
4533,-131072,120,-56,-1,-1,0
4566,-589824,120,-56,-1,-1,0
4600,-851968,120,-56,-1,-1,0
4633,-1703936,120,-56,-1,-1,0
4666,-917504,120,-56,-1,-1,0
4700,-1572864,120,-56,-1,-1,0
4733,6094848,120,-56,-1,-1,0
4766,-1572864,120,-56,-1,-1,0
4800,-1048576,120,-56,-1,-1,0
4833,-131072,120,-56,-1,-1,0
4866,1179648,120,-56,-1,-1,0
4900,3080192,120,-56,-1,-1,0
4933,1966080,120,-56,-1,-1,0
4966,-327680,120,-56,-1,-1,0
5000,-393216,120,-56,-1,-1,0
5033,-917504,120,-56,-1,-1,0
5066,-2162688,120,-56,-1,-1,0
5100,-589824,120,-56,-1,-1,0
5133,-1441792,120,-56,-1,-1,0
5166,-917504,120,-56,-1,-1,0
5200,-1376256,120,-56,-1,-1,0
5233,-786432,120,-56,-1,-1,0
5266,393216,120,-56,-1,-1,0
5300,2097152,120,-56,-1,-1,0
5333,3997696,120,-56,-1,-1,0
5366,1703936,120,-56,-1,-1,0
5400,-65536,120,-56,-1,-1,0
5433,-393216,120,-56,-1,-1,0
5466,-720896,120,-56,-1,-1,0
5500,-1245184,120,-56,-1,-1,0
5533,-393216,120,-56,-1,-1,0
5566,-262144,120,-56,-1,-1,0
5600,-4980736,120,-56,-1,-1,0
5633,-786432,120,-56,-1,-1,0
5666,-131072,120,-56,-1,-1,0
5700,786432,120,-56,-1,-1,0
5733,3080192,120,-56,-1,-1,0
5766,4325376,120,-56,-1,-1,0
5800,1507328,120,-56,-1,-1,0
5833,327680,120,-56,-1,-1,0
5866,-393216,120,-56,-1,-1,0
5900,-786432,120,-56,-1,-1,0
5933,-917504,120,-56,-1,-1,0
5966,-1179648,120,-56,-1,-1,0
6000,2359296,120,-56,-1,-1,0
6033,-5898240,120,-56,-1,-1,0
6066,-1310720,120,-56,-1,-1,0
6100,-458752,120,-56,-1,-1,0
6133,327680,120,-56,-1,-1,0
6166,1835008,120,-56,-1,-1,0
6200,2097152,120,-56,-1,-1,0
6233,131072,120,-56,-1,-1,0
6266,-917504,120,-56,-1,-1,0
6300,-1310720,120,-56,-1,-1,0
6333,-1900544,120,-56,-1,-1,0
6366,-720896,120,-56,-1,-1,0
6400,-1441792,120,-56,-1,-1,0
6433,8847360,120,-56,-1,-1,0
6466,-2818048,120,-56,-1,-1,0
6500,-1179648,120,-56,-1,-1,0
6533,-589824,120,-56,-1,-1,0
6566,524288,120,-56,-1,-1,0
6600,2293760,120,-56,-1,-1,0
6633,2097152,120,-56,-1,-1,0
6666,-131072,120,-56,-1,-1,0
6700,-917504,120,-56,-1,-1,0
6733,-1048576,120,-56,-1,-1,0
6766,-1835008,120,-56,-1,-1,0
6800,-458752,120,-56,-1,-1,0
6833,-1245184,120,-56,-1,-1,0
6866,10027008,120,-56,-1,-1,0
6899,-2031616,120,-56,-1,-1,0
6933,-1179648,120,-56,-1,-1,0
6966,-589824,120,-56,-1,-1,0
7000,983040,120,-56,-1,-1,0
7033,3604480,120,-56,-1,-1,0
7066,2686976,120,-56,-1,-1,0
7100,-65536,120,-56,-1,-1,0
7133,-655360,120,-56,-1,-1,0
7166,-983040,120,-56,-1,-1,0
7200,-1441792,120,-56,-1,-1,0
7233,-589824,120,-56,-1,-1,0
7266,-1114112,120,-56,-1,-1,0
7300,7864320,120,-56,-1,-1,0
7333,-2555904,120,-56,-1,-1,0
7366,-983040,120,-56,-1,-1,0
7399,0,120,-56,-1,-1,0
7433,1572864,120,-56,-1,-1,0
7466,3604480,120,-56,-1,-1,0
7500,3145728,120,-56,-1,-1,0
7533,131072,120,-56,-1,-1,0
7566,-786432,120,-56,-1,-1,0
7600,-655360,120,-56,-1,-1,0
7633,-1638400,120,-56,-1,-1,0
7666,-393216,120,-56,-1,-1,0
7700,-1048576,120,-56,-1,-1,0
7733,5570560,120,-56,-1,-1,0
7766,-1245184,120,-56,-1,-1,0
7800,-720896,120,-56,-1,-1,0
7833,0,120,-56,-1,-1,0
7866,1572864,120,-56,-1,-1,0
7899,2818048,120,-56,-1,-1,0
7933,2031616,120,-56,-1,-1,0
7966,-65536,120,-56,-1,-1,0
8000,-524288,120,-56,-1,-1,0
8033,-589824,120,-56,-1,-1,0
8066,-2031616,120,-56,-1,-1,0
8100,-917504,120,-56,-1,-1,0
8133,-458752,120,-56,-1,-1,0
8166,-4784128,120,-56,-1,-1,0
8200,-786432,120,-56,-1,-1,0
8233,-131072,120,-56,-1,-1,0
8266,262144,120,-56,-1,-1,0
8300,2424832,120,-56,-1,-1,0
8333,3342336,120,-56,-1,-1,0
8366,1245184,120,-56,-1,-1,0
8400,-393216,119,-56,-1,-1,0
8433,-589824,119,-56,-1,-1,0
8466,-1376256,119,-56,-1,-1,0
8500,-983040,119,-56,-1,-1,0
8533,-1376256,119,-56,-1,-1,0
8566,851968,119,-56,-1,-1,0
8600,-5570560,119,-56,-1,-1,0
8633,-1703936,119,-56,-1,-1,0
8666,-720896,119,-56,-1,-1,0
8700,393216,119,-56,-1,-1,0
8733,2490368,119,-56,-1,-1,0
8766,3735552,119,-56,-1,-1,0
8800,262144,119,-56,-1,-1,0
8833,-655360,119,-56,-1,-1,0
8866,-1114112,119,-56,-1,-1,0
8900,-1638400,119,-56,-1,-1,0
8933,-1245184,119,-56,-1,-1,0
8966,-2097152,119,-56,-1,-1,0
9000,1376256,119,-56,-1,-1,0
9033,-6815744,119,-56,-1,-1,0
9066,-1310720,119,-56,-1,-1,0
9100,-851968,119,-56,-1,-1,0
9133,196608,119,-56,-1,-1,0
9166,3145728,119,-56,-1,-1,0
9200,3735552,119,-56,-1,-1,0
9233,786432,119,-56,-1,-1,0
9266,-393216,119,-56,-1,-1,0
9300,-1441792,119,-56,-1,-1,0
9333,-1507328,119,-56,-1,-1,0
9366,-1572864,119,-56,-1,-1,0
9400,-1638400,119,-56,-1,-1,0
9433,3997696,119,-56,-1,-1,0
9466,-5701632,119,-56,-1,-1,0
9500,-1572864,119,-56,-1,-1,0
9533,-65536,119,-56,-1,-1,0
9566,393216,119,-56,-1,-1,0
9600,3145728,119,-56,-1,-1,0
9633,2949120,119,-56,-1,-1,0
9666,327680,119,-56,-1,-1,0
9700,-983040,118,-56,-1,-1,0
9733,-917504,118,-56,-1,-1,0
9766,-1507328,118,-56,-1,-1,0
9800,-851968,118,-56,-1,-1,0
9833,-1310720,118,-56,-1,-1,0
9866,8192000,118,-56,-1,-1,0
9900,-3014656,118,-56,-1,-1,0
9933,-917504,118,-56,-1,-1,0
9966,-1114112,118,-56,-1,-1,0
10000,983040,118,-56,-1,-1,0
10033,2555904,118,-56,-1,-1,0
10066,2031616,118,-56,-1,-1,0
10100,-196608,118,-56,-1,-1,0
10133,-917504,118,-56,-1,-1,0
10166,-1507328,118,-56,-1,-1,0
10200,-1835008,118,-56,-1,-1,0
10233,-917504,118,-56,-1,-1,0
10266,-1572864,118,-56,-1,-1,0
10300,9109504,118,-56,-1,-1,0
10333,-2359296,118,-56,-1,-1,0
10366,-1179648,118,-56,-1,-1,0
10400,-1048576,118,-56,-1,-1,0
10433,983040,118,-56,-1,-1,0
10466,2031616,118,-56,-1,-1,0
10500,1376256,118,-56,-1,-1,0
10533,-720896,118,-56,-1,-1,0
10566,-983040,117,-56,-1,-1,0
10600,-1179648,117,-56,-1,-1,0
10633,-2031616,117,-56,-1,-1,0
10666,-655360,117,-56,-1,-1,0
10700,-1245184,117,-56,-1,-1,0
10733,9633792,117,-56,-1,-1,0
10766,-2621440,117,-56,-1,-1,0
10800,-1048576,117,-56,-1,-1,0
10833,-262144,117,-56,-1,-1,0
10866,1114112,117,-56,-1,-1,0
10900,3145728,117,-56,-1,-1,0
10933,2883584,117,-56,-1,-1,0
10966,262144,117,-56,-1,-1,0
11000,-327680,117,-56,-1,-1,0
11033,-655360,117,-56,-1,-1,0
11066,-1245184,117,-56,-1,-1,0
11100,-983040,117,-56,-1,-1,0
11133,-983040,117,-56,-1,-1,0
11166,3735552,117,-56,-1,-1,0
11200,-4849664,117,-56,-1,-1,0
11233,-1179648,117,-56,-1,-1,0
11266,-589824,117,-56,-1,-1,0
11300,655360,117,-56,-1,-1,0
11333,2752512,117,-56,-1,-1,0
11366,3276800,117,-56,-1,-1,0
11400,458752,117,-56,-1,-1,0
11433,-589824,117,-56,-1,-1,0
11466,-851968,117,-56,-1,-1,0
11500,-1572864,117,-56,-1,-1,0
11533,-720896,117,-56,-1,-1,0
11566,-1245184,117,-56,-1,-1,0
11600,7405568,117,-56,-1,-1,0
11633,-3866624,117,-56,-1,-1,0
11666,-1048576,117,-56,-1,-1,0
11700,-262144,117,-56,-1,-1,0
11733,1179648,117,-56,-1,-1,0
11766,3801088,117,-56,-1,-1,0
11800,3407872,117,-56,-1,-1,0
11833,393216,117,-56,-1,-1,0
11866,-262144,117,-56,-1,-1,0
11900,-589824,117,-56,-1,-1,0
11933,-1310720,117,-56,-1,-1,0
11966,-458752,117,-56,-1,-1,0
12000,-917504,117,-56,-1,-1,0
12033,3211264,117,-56,-1,-1,0
12066,-1441792,117,-56,-1,-1,0
12100,-786432,117,-56,-1,-1,0
12133,0,117,-56,-1,-1,0
12166,1769472,117,-56,-1,-1,0
12200,3276800,117,-56,-1,-1,0
12233,1310720,117,-56,-1,-1,0
12266,-196608,117,-56,-1,-1,0
12300,-524288,117,-56,-1,-1,0
12333,-1048576,117,-56,-1,-1,0
12366,-983040,117,-56,-1,-1,0
12400,-1245184,117,-56,-1,-1,0
12433,2424832,117,-56,-1,-1,0
12466,-5701632,117,-56,-1,-1,0
12500,-1114112,117,-56,-1,-1,0
12533,-524288,117,-56,-1,-1,0
12566,393216,117,-56,-1,-1,0
12600,1703936,117,-56,-1,-1,0
12633,2097152,117,-56,-1,-1,0
12666,0,117,-56,-1,-1,0
12700,-851968,117,-56,-1,-1,0
12733,-1114112,117,-56,-1,-1,0
12766,-1769472,117,-56,-1,-1,0
12800,-655360,117,-56,-1,-1,0
12833,-1245184,117,-56,-1,-1,0
12866,9306112,117,-56,-1,-1,0
12900,-2031616,117,-56,-1,-1,0
12933,-851968,117,-56,-1,-1,0
12966,-393216,117,-56,-1,-1,0
13000,917504,117,-56,-1,-1,0
13033,3080192,117,-56,-1,-1,0
13066,1900544,117,-56,-1,-1,0
13100,0,117,-56,-1,-1,0
13133,-589824,117,-56,-1,-1,0
13166,-589824,117,-56,-1,-1,0
13200,-1703936,117,-56,-1,-1,0
13233,-458752,117,-56,-1,-1,0
13266,-1310720,117,-56,-1,-1,0
13299,2686976,117,-56,-1,-1,0
13333,-1310720,117,-56,-1,-1,0
13366,-720896,117,-56,-1,-1,0
13400,65536,117,-56,-1,-1,0
13433,2162688,117,-56,-1,-1,0
13466,4259840,117,-56,-1,-1,0
13500,1703936,117,-56,-1,-1,0
13533,-65536,117,-56,-1,-1,0
13566,-524288,117,-56,-1,-1,0
13600,-983040,117,-56,-1,-1,0
13633,-1179648,117,-56,-1,-1,0
13666,-983040,117,-56,-1,-1,0
13700,0,117,-56,-1,-1,0
13733,-6881280,117,-56,-1,-1,0
13766,-1048576,117,-56,-1,-1,0
13799,-458752,117,-56,-1,-1,0
13833,720896,117,-56,-1,-1,0
13866,3014656,117,-56,-1,-1,0
13900,4128768,117,-56,-1,-1,0
13933,983040,117,-56,-1,-1,0
13966,0,117,-56,-1,-1,0
14000,-655360,117,-56,-1,-1,0
14033,-1245184,117,-56,-1,-1,0
14066,-393216,117,-56,-1,-1,0
14100,-1114112,117,-56,-1,-1,0
14133,7274496,117,-56,-1,-1,0
14166,-2818048,117,-56,-1,-1,0
14200,-1048576,117,-56,-1,-1,0
14233,-327680,117,-56,-1,-1,0
14266,983040,117,-56,-1,-1,0
14299,2818048,117,-56,-1,-1,0
14333,1900544,117,-56,-1,-1,0
14366,-196608,117,-56,-1,-1,0
14400,-720896,117,-56,-1,-1,0
14433,-1179648,117,-56,-1,-1,0
14466,-1835008,117,-56,-1,-1,0
14500,-1114112,117,-56,-1,-1,0
14533,-1441792,117,-56,-1,-1,0
14566,-1179648,117,-56,-1,-1,0
14600,-1441792,117,-56,-1,-1,0
14633,-851968,117,-56,-1,-1,0
14666,-131072,117,-56,-1,-1,0
14700,1245184,117,-56,-1,-1,0
14733,2555904,117,-56,-1,-1,0
14766,655360,117,-56,-1,-1,0
14799,-524288,117,-56,-1,-1,0
14833,-917504,117,-56,-1,-1,0
14866,-1310720,117,-56,-1,-1,0
14900,-1769472,117,-56,-1,-1,0
14933,-1310720,117,-56,-1,-1,0
14966,-851968,117,-56,-1,-1,0
15000,-4325376,117,-56,-1,-1,0
15033,-1441792,117,-56,-1,-1,0
15066,-983040,117,-56,-1,-1,0
15100,65536,117,-56,-1,-1,0
15133,2031616,117,-56,-1,-1,0
15166,3407872,117,-56,-1,-1,0
15200,720896,117,-56,-1,-1,0
15233,-393216,117,-56,-1,-1,0
15266,-786432,117,-56,-1,-1,0
15299,-1048576,117,-56,-1,-1,0
15333,-2031616,117,-56,-1,-1,0
15366,-655360,117,-56,-1,-1,0
15400,-1572864,117,-56,-1,-1,0
15433,6946816,117,-56,-1,-1,0
15466,-1966080,117,-56,-1,-1,0
15500,-1179648,117,-56,-1,-1,0
15533,-327680,117,-56,-1,-1,0
15566,1441792,117,-56,-1,-1,0
15600,4063232,117,-56,-1,-1,0
15633,2162688,117,-56,-1,-1,0
15666,-65536,117,-56,-1,-1,0
15700,-786432,117,-56,-1,-1,0
15733,-983040,117,-56,-1,-1,0
15766,-1572864,117,-56,-1,-1,0
15799,-720896,117,-56,-1,-1,0
15833,-1310720,117,-56,-1,-1,0
15866,7864320,117,-56,-1,-1,0
15900,-3211264,117,-56,-1,-1,0
15933,-1048576,117,-56,-1,-1,0
15966,-262144,117,-56,-1,-1,0
16000,1114112,117,-56,-1,-1,0
16033,3604480,117,-56,-1,-1,0
16066,2686976,117,-56,-1,-1,0
16100,0,117,-56,-1,-1,0
16133,-589824,117,-56,-1,-1,0
16166,-917504,117,-56,-1,-1,0
16200,-1638400,117,-56,-1,-1,0
16233,-720896,117,-56,-1,-1,0
16266,-1310720,117,-56,-1,-1,0
16300,6684672,117,-56,-1,-1,0
16333,-2031616,117,-56,-1,-1,0
16366,-851968,117,-56,-1,-1,0
16400,-131072,117,-56,-1,-1,0
16433,1310720,117,-56,-1,-1,0
16466,3080192,117,-56,-1,-1,0
16500,1703936,117,-56,-1,-1,0
16533,-196608,117,-56,-1,-1,0
16566,-458752,117,-56,-1,-1,0
16600,-851968,117,-56,-1,-1,0
16633,-1572864,117,-56,-1,-1,0
16666,-655360,117,-56,-1,-1,0
16700,-1048576,117,-56,-1,-1,0
16733,4259840,117,-56,-1,-1,0
16766,-1179648,117,-56,-1,-1,0
16800,-524288,117,-56,-1,-1,0
16833,65536,117,-56,-1,-1,0
16866,1310720,117,-56,-1,-1,0
16900,2359296,117,-56,-1,-1,0
16933,1048576,117,-56,-1,-1,0
16966,-393216,117,-56,-1,-1,0
17000,-786432,117,-56,-1,-1,0
17033,-1179648,117,-56,-1,-1,0
17066,-1835008,117,-56,-1,-1,0
17100,-786432,117,-56,-1,-1,0
17133,-1572864,117,-56,-1,-1,0
17166,10092544,117,-56,-1,-1,0
17200,-2162688,117,-56,-1,-1,0
17233,-1245184,117,-56,-1,-1,0
17266,-327680,117,-56,-1,-1,0
17300,1179648,117,-56,-1,-1,0
17333,3407872,117,-56,-1,-1,0
17366,2228224,117,-56,-1,-1,0
17400,65536,117,-56,-1,-1,0
17433,-655360,117,-56,-1,-1,0
17466,-851968,117,-56,-1,-1,0
17500,-983040,117,-56,-1,-1,0
17533,-1703936,117,-56,-1,-1,0
17566,-720896,117,-56,-1,-1,0
17600,-1048576,117,-56,-1,-1,0
17633,7208960,117,-56,-1,-1,0
17666,-2031616,117,-56,-1,-1,0
17700,-851968,117,-56,-1,-1,0
17733,-65536,117,-56,-1,-1,0
17766,1310720,117,-56,-1,-1,0
17800,3276800,117,-56,-1,-1,0
17833,2162688,117,-56,-1,-1,0
17866,-131072,117,-56,-1,-1,0
17900,-327680,117,-56,-1,-1,0
17933,-655360,116,-56,-1,-1,0
17966,-1114112,116,-56,-1,-1,0
18000,-1179648,116,-56,-1,-1,0
18033,-983040,116,-56,-1,-1,0
18066,0,116,-56,-1,-1,0
18100,-5439488,116,-56,-1,-1,0
18133,-1048576,116,-56,-1,-1,0
18166,-589824,116,-56,-1,-1,0
18200,131072,116,-56,-1,-1,0
18233,1900544,116,-56,-1,-1,0
18266,2883584,116,-56,-1,-1,0
18300,524288,116,-56,-1,-1,0
18333,-458752,116,-56,-1,-1,0
18366,-851968,116,-56,-1,-1,0
18400,-851968,116,-56,-1,-1,0
18433,-1310720,116,-56,-1,-1,0
18466,-1245184,116,-56,-1,-1,0
18500,-1114112,116,-56,-1,-1,0
18533,1245184,116,-56,-1,-1,0
18566,-5701632,116,-56,-1,-1,0
18600,-983040,116,-56,-1,-1,0
18633,-393216,116,-56,-1,-1,0
18666,458752,116,-56,-1,-1,0
18700,2424832,116,-56,-1,-1,0
18733,3538944,116,-56,-1,-1,0
18766,786432,116,-56,-1,-1,0
18800,-262144,116,-56,-1,-1,0
18833,-720896,116,-56,-1,-1,0
18866,-917504,116,-56,-1,-1,0
18900,-1179648,116,-56,-1,-1,0
18933,-1703936,116,-56,-1,-1,0
18966,-1048576,116,-56,-1,-1,0
19000,-786432,116,-56,-1,-1,0
19033,-3670016,116,-56,-1,-1,0
19066,-1245184,116,-56,-1,-1,0
19100,-851968,116,-56,-1,-1,0
19133,65536,116,-56,-1,-1,0
19166,2162688,116,-56,-1,-1,0
19200,3801088,116,-56,-1,-1,0
19233,1048576,116,-56,-1,-1,0
19266,-589824,116,-56,-1,-1,0
19300,-917504,116,-56,-1,-1,0
19333,-1114112,115,-56,-1,-1,0
19366,-1310720,115,-56,-1,-1,0
19400,-1966080,115,-56,-1,-1,0
19433,-983040,115,-56,-1,-1,0
19466,-1179648,115,-56,-1,-1,0
19500,-524288,115,-56,-1,-1,0
19533,-1441792,115,-56,-1,-1,0
19566,-851968,115,-56,-1,-1,0
19600,-131072,115,-56,-1,-1,0
19633,2097152,115,-56,-1,-1,0
19666,3997696,115,-56,-1,-1,0
19700,1572864,115,-56,-1,-1,0
19733,-196608,115,-56,-1,-1,0
19766,-589824,115,-56,-1,-1,0
19800,-720896,114,-56,-1,-1,0
19833,-1048576,114,-56,-1,-1,0
19866,-1638400,114,-56,-1,-1,0
19900,-458752,114,-56,-1,-1,0
19933,-917504,114,-56,-1,-1,0
19966,-196608,114,-56,-1,-1,0
20000,-1114112,114,-56,-1,-1,0
20033,-524288,114,-56,-1,-1,0
20066,327680,114,-56,-1,-1,0
20100,2883584,114,-56,-1,-1,0
20133,5177344,114,-56,-1,-1,0
20166,2162688,114,-56,-1,-1,0
20200,-131072,114,-56,-1,-1,0
20233,-655360,114,-56,-1,-1,0
20266,-983040,113,-56,-1,-1,0
20300,-1507328,113,-56,-1,-1,0
20333,-1310720,113,-56,-1,-1,0
20366,-1179648,113,-56,-1,-1,0
20400,1441792,113,-56,-1,-1,0
20433,-6684672,113,-56,-1,-1,0
20466,-1245184,113,-56,-1,-1,0
20500,-458752,113,-56,-1,-1,0
20533,458752,113,-56,-1,-1,0
20566,2949120,113,-56,-1,-1,0
20600,3801088,113,-56,-1,-1,0
20633,589824,113,-56,-1,-1,0
20666,-458752,113,-56,-1,-1,0
20700,-720896,112,-56,-1,-1,0
20733,-1048576,112,-56,-1,-1,0
20766,-1572864,112,-56,-1,-1,0
20800,-524288,112,-56,-1,-1,0
20833,-1048576,112,-56,-1,-1,0
20866,4194304,112,-56,-1,-1,0
20900,-1310720,112,-56,-1,-1,0
20933,-851968,112,-56,-1,-1,0
20966,-65536,112,-56,-1,-1,0
21000,1441792,112,-56,-1,-1,0
21033,3342336,112,-56,-1,-1,0
21066,1245184,112,-56,-1,-1,0
21100,-393216,112,-56,-1,-1,0
21133,-851968,112,-56,-1,-1,0
21166,-1179648,112,-56,-1,-1,0
21200,-1638400,112,-56,-1,-1,0
21233,-1114112,112,-56,-1,-1,0
21266,-1441792,112,-56,-1,-1,0
21300,5308416,112,-56,-1,-1,0
21333,-4456448,112,-56,-1,-1,0
21366,-1048576,112,-56,-1,-1,0
21400,-524288,112,-56,-1,-1,0
21433,589824,112,-56,-1,-1,0
21466,2686976,112,-56,-1,-1,0
21500,2818048,112,-56,-1,-1,0
21533,131072,112,-56,-1,-1,0
21566,-524288,112,-56,-1,-1,0
21600,-851968,112,-56,-1,-1,0
21633,-1048576,111,-56,-1,-1,0
21666,-1769472,111,-56,-1,-1,0
21700,-720896,111,-56,-1,-1,0
21733,-1310720,111,-56,-1,-1,0
21766,4128768,111,-56,-1,-1,0
21800,-1376256,111,-56,-1,-1,0
21833,-851968,111,-56,-1,-1,0
21866,0,111,-56,-1,-1,0
21900,1769472,111,-56,-1,-1,0
21933,3801088,111,-56,-1,-1,0
21966,1769472,111,-56,-1,-1,0
22000,-65536,111,-56,-1,-1,0
22033,-589824,111,-56,-1,-1,0
22066,-851968,111,-56,-1,-1,0
22100,-917504,111,-56,-1,-1,0
22133,-1769472,111,-56,-1,-1,0
22166,-524288,111,-56,-1,-1,0
22200,-1376256,111,-56,-1,-1,0
22233,7733248,111,-56,-1,-1,0
22266,-1769472,111,-56,-1,-1,0
22300,-983040,111,-56,-1,-1,0
22333,-131072,111,-56,-1,-1,0
22366,1310720,111,-56,-1,-1,0
22400,3801088,111,-56,-1,-1,0
22433,2162688,111,-56,-1,-1,0
22466,-65536,111,-56,-1,-1,0
22500,-720896,111,-56,-1,-1,0
22533,-1114112,111,-56,-1,-1,0
22566,-1245184,111,-56,-1,-1,0
22600,-1769472,110,-56,-1,-1,0
22633,-1376256,110,-56,-1,-1,0
22666,-1507328,110,-56,-1,-1,0
22700,2686976,110,-56,-1,-1,0
22733,-5963776,110,-56,-1,-1,0
22766,-1507328,110,-56,-1,-1,0
22800,-983040,110,-56,-1,-1,0
22833,196608,110,-56,-1,-1,0
22866,3014656,110,-56,-1,-1,0
22900,4325376,110,-56,-1,-1,0
22933,524288,110,-56,-1,-1,0
22966,-655360,110,-56,-1,-1,0
23000,-1048576,110,-56,-1,-1,0
23033,-1376256,110,-56,-1,-1,0
23066,-1441792,109,-56,-1,-1,0
23100,-1900544,109,-56,-1,-1,0
23133,-1048576,109,-56,-1,-1,0
23166,-1507328,109,-56,-1,-1,0
23200,7143424,109,-56,-1,-1,0
23233,-4718592,109,-56,-1,-1,0
23266,-1376256,109,-56,-1,-1,0
23300,-458752,109,-56,-1,-1,0
23333,983040,109,-56,-1,-1,0
23366,4063232,109,-56,-1,-1,0
23400,4194304,109,-56,-1,-1,0
23433,589824,109,-56,-1,-1,0
23466,-327680,109,-56,-1,-1,0
23500,-655360,109,-56,-1,-1,0
23533,-851968,109,-56,-1,-1,0
23566,-1507328,109,-56,-1,-1,0
23600,-589824,109,-56,-1,-1,0
23633,-1179648,109,-56,-1,-1,0
23666,8060928,109,-56,-1,-1,0
23700,-2293760,109,-56,-1,-1,0
23733,-786432,109,-56,-1,-1,0
23766,0,109,-56,-1,-1,0
23800,1310720,109,-56,-1,-1,0
23833,3211264,109,-56,-1,-1,0
23866,2097152,109,-56,-1,-1,0
23900,-196608,109,-56,-1,-1,0
23933,-393216,109,-56,-1,-1,0
23966,-786432,109,-56,-1,-1,0
24000,-1179648,108,-56,-1,-1,0
24033,-1769472,108,-56,-1,-1,0
24066,-983040,108,-56,-1,-1,0
24100,-1310720,108,-56,-1,-1,0
24133,1638400,108,-56,-1,-1,0
24166,-1441792,108,-56,-1,-1,0
24200,-786432,108,-56,-1,-1,0
24233,-65536,108,-56,-1,-1,0
24266,1507328,108,-56,-1,-1,0
24300,2752512,108,-56,-1,-1,0
24333,983040,108,-56,-1,-1,0
24366,-393216,108,-56,-1,-1,0
24400,-720896,108,-56,-1,-1,0
24433,-983040,108,-56,-1,-1,0
24466,-1114112,108,-56,-1,-1,0
24500,-1703936,108,-56,-1,-1,0
24533,-1048576,108,-56,-1,-1,0
24566,-1441792,108,-56,-1,-1,0
24600,5439488,108,-56,-1,-1,0
24633,-4456448,108,-56,-1,-1,0
24666,-1310720,108,-56,-1,-1,0
24700,-655360,108,-56,-1,-1,0
24733,458752,108,-56,-1,-1,0
24766,2555904,108,-56,-1,-1,0
24800,3014656,108,-56,-1,-1,0
24833,196608,108,-56,-1,-1,0
24866,-589824,108,-56,-1,-1,0
24900,-786432,108,-56,-1,-1,0
24933,-1048576,108,-56,-1,-1,0
24966,-1179648,108,-56,-1,-1,0
25000,-1376256,108,-56,-1,-1,0
25033,-1310720,108,-56,-1,-1,0
25066,-1835008,108,-56,-1,-1,0
25100,-917504,107,-56,-1,-1,0
25133,-131072,107,-56,-1,-1,0
25166,-5046272,107,-56,-1,-1,0
25200,-1572864,107,-56,-1,-1,0
25233,-983040,107,-56,-1,-1,0
25266,196608,107,-56,-1,-1,0
25300,2490368,107,-56,-1,-1,0
25333,4521984,107,-56,-1,-1,0
25366,1835008,107,-56,-1,-1,0
25400,0,107,-56,-1,-1,0
25433,-327680,107,-56,-1,-1,0
25466,-589824,107,-56,-1,-1,0
25500,-720896,107,-56,-1,-1,0
25533,-917504,107,-56,-1,-1,0
25566,-983040,107,-56,-1,-1,0
25600,-1245184,107,-56,-1,-1,0
25633,-1048576,107,-56,-1,-1,0
25666,-1114112,107,-56,-1,-1,0
25700,6553600,107,-56,-1,-1,0
25733,-4915200,107,-56,-1,-1,0
25766,-1048576,107,-56,-1,-1,0
25800,-393216,107,-56,-1,-1,0
25833,1114112,107,-56,-1,-1,0
25866,3538944,107,-56,-1,-1,0
25900,3932160,107,-56,-1,-1,0
25933,655360,107,-56,-1,-1,0
25966,-131072,107,-56,-1,-1,0
26000,-196608,107,-56,-1,-1,0
26033,-720896,107,-56,-1,-1,0
26066,-786432,107,-56,-1,-1,0
26099,-917504,107,-56,-1,-1,0
26133,-917504,107,-56,-1,-1,0
26166,-1441792,107,-56,-1,-1,0
26200,-655360,107,-56,-1,-1,0
26233,524288,107,-56,-1,-1,0
26266,-5636096,107,-56,-1,-1,0
26300,-917504,107,-56,-1,-1,0
26333,-327680,107,-56,-1,-1,0
26366,589824,107,-56,-1,-1,0
26400,2359296,107,-56,-1,-1,0
26433,3407872,107,-56,-1,-1,0
26466,1048576,107,-56,-1,-1,0
26500,-65536,107,-56,-1,-1,0
26533,-327680,107,-56,-1,-1,0
26566,-524288,107,-56,-1,-1,0
26599,-786432,107,-56,-1,-1,0
26633,-983040,107,-56,-1,-1,0
26666,-983040,107,-56,-1,-1,0
26700,-1310720,107,-56,-1,-1,0
26733,-720896,107,-56,-1,-1,0
26766,-1048576,106,-56,-1,-1,0
26800,9830400,106,-56,-1,-1,0
26833,-2818048,106,-56,-1,-1,0
26866,-983040,106,-56,-1,-1,0
26900,-262144,106,-56,-1,-1,0
26933,1310720,106,-56,-1,-1,0
26966,3801088,106,-56,-1,-1,0
27000,3735552,106,-56,-1,-1,0
27033,458752,106,-56,-1,-1,0
27066,-196608,106,-56,-1,-1,0
27099,-655360,106,-56,-1,-1,0
27133,-917504,106,-56,-1,-1,0
27166,-1048576,106,-56,-1,-1,0
27200,-1114112,106,-56,-1,-1,0
27233,-1114112,106,-56,-1,-1,0
27266,-1376256,106,-56,-1,-1,0
27300,-917504,104,-56,-1,-1,0
27333,-1179648,104,-56,-1,-1,0
27366,9240576,104,-56,-1,-1,0
27400,-2555904,104,-56,-1,-1,0
27433,-917504,104,-56,-1,-1,0
27466,-131072,104,-56,-1,-1,0
27500,1179648,104,-56,-1,-1,0
27533,3145728,104,-56,-1,-1,0
27566,3014656,104,-56,-1,-1,0
27599,458752,104,-56,-1,-1,0
27633,-131072,104,-56,-1,-1,0
27666,-262144,104,-56,-1,-1,0
27700,-589824,104,-56,-1,-1,0
27733,-720896,104,-56,-1,-1,0
27766,-851968,104,-56,-1,-1,0
27800,-1048576,104,-56,-1,-1,0
27833,-983040,102,-56,-1,-1,0
27866,-1114112,102,-56,-1,-1,0
27900,6750208,102,-56,-1,-1,0
27933,-3932160,102,-56,-1,-1,0
27966,-983040,102,-56,-1,-1,0
28000,-327680,102,-56,-1,-1,0
28033,720896,102,-56,-1,-1,0
28066,2555904,102,-56,-1,-1,0
28099,2883584,102,-56,-1,-1,0
28133,262144,102,-56,-1,-1,0
28166,-524288,102,-56,-1,-1,0
28200,-786432,102,-56,-1,-1,0
28233,-1048576,102,-56,-1,-1,0
28266,-1048576,102,-56,-1,-1,0
28300,-1179648,102,-56,-1,-1,0
28333,-1245184,102,-56,-1,-1,0
28366,-1703936,100,-56,-1,-1,0
28400,-851968,100,-56,-1,-1,0
28433,-327680,100,-56,-1,-1,0
28466,-4325376,100,-56,-1,-1,0
28500,-1179648,100,-56,-1,-1,0
28533,-524288,100,-56,-1,-1,0
28566,262144,100,-56,-1,-1,0
28599,2162688,100,-56,-1,-1,0
28633,3932160,100,-56,-1,-1,0
28666,1572864,100,-56,-1,-1,0
28700,0,100,-56,-1,-1,0
28733,-524288,100,-56,-1,-1,0
28766,-720896,100,-56,-1,-1,0
28800,-917504,100,-56,-1,-1,0
28833,-983040,100,-56,-1,-1,0
28866,-1114112,100,-56,-1,-1,0
28900,-1703936,98,-56,-1,-1,0
28933,-917504,98,-56,-1,-1,0
28966,327680,98,-56,-1,-1,0
29000,-5898240,98,-56,-1,-1,0
29033,-1245184,98,-56,-1,-1,0
29066,-655360,98,-56,-1,-1,0
29099,262144,98,-56,-1,-1,0
29133,2424832,98,-56,-1,-1,0
29166,4325376,98,-56,-1,-1,0
29200,1310720,98,-56,-1,-1,0
29233,-458752,98,-56,-1,-1,0
29266,-786432,98,-56,-1,-1,0
29300,-917504,98,-56,-1,-1,0
29333,-1048576,98,-56,-1,-1,0
29366,-1114112,98,-56,-1,-1,0
29400,-1507328,96,-56,-1,-1,0
29433,-1048576,96,-56,-1,-1,0
29466,-1245184,96,-56,-1,-1,0
29500,7143424,96,-56,-1,-1,0
29533,-3997696,96,-56,-1,-1,0
29566,-1114112,96,-56,-1,-1,0
29599,-393216,96,-56,-1,-1,0
29633,786432,96,-56,-1,-1,0
29666,3276800,96,-56,-1,-1,0
29700,3932160,96,-56,-1,-1,0
29733,589824,96,-56,-1,-1,0
29766,-327680,96,-56,-1,-1,0
29800,-655360,96,-56,-1,-1,0
29833,-851968,96,-56,-1,-1,0
29866,-917504,96,-56,-1,-1,0
29900,-1245184,96,-56,-1,-1,0
29933,-1114112,96,-56,-1,-1,0
29966,-1179648,96,-56,-1,-1,0
30000,3276800,96,-56,-1,-1,0
30033,-5439488,96,-56,-1,-1,0
30066,-983040,96,-56,-1,-1,0
30099,-458752,96,-56,-1,-1,0
30133,524288,96,-56,-1,-1,0
30166,3080192,96,-56,-1,-1,0
30200,4259840,96,-56,-1,-1,0
30233,720896,96,-56,-1,-1,0
30266,-589824,96,-56,-1,-1,0
30300,-851968,96,-56,-1,-1,0
30333,-1048576,96,-56,-1,-1,0
30366,-1310720,96,-56,-1,-1,0
30400,-1703936,96,-56,-1,-1,0
30433,-1114112,96,-56,-1,-1,0
30466,-1507328,96,-56,-1,-1,0
30500,6946816,96,-56,-1,-1,0
30533,-4259840,96,-56,-1,-1,0
30566,-1376256,96,-56,-1,-1,0
30599,-720896,96,-56,-1,-1,0
30633,458752,96,-56,-1,-1,0
30666,3211264,96,-56,-1,-1,0
30700,3735552,96,-56,-1,-1,0
30733,196608,96,-56,-1,-1,0
30766,-851968,96,-56,-1,-1,0
30800,-1048576,96,-56,-1,-1,0
30833,-1376256,96,-56,-1,-1,0
30866,-1441792,96,-56,-1,-1,0
30900,-2031616,96,-56,-1,-1,0
30933,-983040,96,-56,-1,-1,0
30966,-1245184,96,-56,-1,-1,0
31000,786432,96,-56,-1,-1,0
31033,-1310720,96,-56,-1,-1,0
31066,-786432,96,-56,-1,-1,0
31099,0,96,-56,-1,-1,0
31133,2293760,96,-56,-1,-1,0
31166,5111808,96,-56,-1,-1,0
31200,2293760,96,-56,-1,-1,0
31233,-393216,96,-56,-1,-1,0
31266,-917504,96,-56,-1,-1,0
31300,-1245184,96,-56,-1,-1,0
31333,-1376256,96,-56,-1,-1,0
31366,-1900544,96,-56,-1,-1,0
31400,-1179648,96,-56,-1,-1,0
31433,-1572864,96,-56,-1,-1,0
31466,8650752,96,-56,-1,-1,0
31500,-3145728,96,-56,-1,-1,0
31533,-1179648,96,-56,-1,-1,0
31566,-524288,96,-56,-1,-1,0
31599,720896,96,-56,-1,-1,0
31633,3211264,96,-56,-1,-1,0
31666,3014656,96,-56,-1,-1,0
31700,-65536,96,-56,-1,-1,0
31733,-720896,96,-56,-1,-1,0
31766,-917504,96,-56,-1,-1,0
31800,-1245184,96,-56,-1,-1,0
31833,-1769472,96,-56,-1,-1,0
31866,-917504,96,-56,-1,-1,0
31900,-1310720,96,-56,-1,-1,0
31933,9699328,96,-56,-1,-1,0
31966,-2424832,96,-56,-1,-1,0
32000,-1048576,96,-56,-1,-1,0
32033,-393216,96,-56,-1,-1,0
32066,851968,96,-56,-1,-1,0
32100,3211264,96,-56,-1,-1,0
32133,2686976,96,-56,-1,-1,0
32166,0,96,-56,-1,-1,0
32200,-720896,96,-56,-1,-1,0
32233,-917504,96,-56,-1,-1,0
32266,-1114112,96,-56,-1,-1,0
32299,-1572864,96,-56,-1,-1,0
32333,-1114112,96,-56,-1,-1,0
32366,-1310720,96,-56,-1,-1,0
32400,6619136,96,-56,-1,-1,0
32433,-4325376,96,-56,-1,-1,0
32466,-1114112,96,-56,-1,-1,0
32500,-655360,96,-56,-1,-1,0
32533,458752,96,-56,-1,-1,0
32566,3014656,96,-56,-1,-1,0
32600,3342336,96,-56,-1,-1,0
32633,131072,96,-56,-1,-1,0
32666,-655360,96,-56,-1,-1,0
32700,-1114112,96,-56,-1,-1,0
32733,-1507328,96,-56,-1,-1,0
32766,-1835008,96,-56,-1,-1,0
32800,-2686976,96,-56,-1,-1,0
32833,-1966080,96,-56,-1,-1,0
32866,-2621440,96,-56,-1,-1,0
32900,393216,96,-56,-1,-1,0
32933,-4063232,96,-56,-1,-1,0
32966,-3932160,96,-56,-1,-1,0
33000,-3866624,96,-56,-1,-1,0
33033,-2752512,96,-56,-1,-1,0
33066,-851968,96,-56,-1,-1,0
33100,-3735552,96,-56,-1,-1,0
33133,-6619136,96,-56,-1,-1,0
33166,-7864320,96,-56,-1,-1,0
33200,-8912896,96,-56,-1,-1,0
33233,-6881280,96,-56,-1,-1,0
33266,-5701632,97,-56,-1,-1,0
33300,-7405568,97,-56,-1,-1,0
33333,-8519680,97,-56,-1,-1,0
33366,-9109504,97,-56,-1,-1,0
33400,-12386304,97,-56,-1,-1,0
33433,-8192000,97,-56,-1,-1,0
33466,-4980736,97,-56,-1,-1,0
33500,-262144,97,-56,-1,-1,0
33533,8454144,97,-56,-1,-1,0
33566,16973824,97,-56,-1,-1,0
33600,19922944,97,-56,-1,-1,0
33633,21037056,97,-56,-1,-1,0
33666,23527424,97,-56,-1,-1,0
33700,24969216,97,-56,-1,-1,0
33733,23724032,97,-56,-1,-1,0
33766,21561344,98,-56,-1,-1,0
33800,17694720,98,-56,-1,-1,0
33833,12845056,98,-56,-1,-1,0
33866,6553600,98,-56,-1,-1,0
33900,-7012352,98,-56,-1,-1,0
33933,-5767168,98,-56,-1,-1,0
33966,-6029312,98,-56,-1,-1,0
34000,-5308416,98,-56,-1,-1,0
34033,-2883584,98,-56,-1,-1,0
34066,-1900544,98,-56,-1,-1,0
34100,-5046272,98,-56,-1,-1,0
34133,-6160384,98,-56,-1,-1,0
34166,-6160384,98,-56,-1,-1,0
34200,-5963776,98,-56,-1,-1,0
34233,-5832704,98,-56,-1,-1,0
34266,-5701632,98,-56,-1,-1,0
34300,-5832704,98,-56,-1,-1,0
34333,-4390912,99,-56,-1,-1,0
34366,-4587520,99,-56,-1,-1,0
34400,-5308416,99,-56,-1,-1,0
34433,-3604480,99,-56,-1,-1,0
34466,-2555904,99,-56,-1,-1,0
34500,-1245184,99,-56,-1,-1,0
34533,851968,99,-56,-1,-1,0
34566,2621440,99,-56,-1,-1,0
34600,786432,99,-56,-1,-1,0
34633,-786432,99,-56,-1,-1,0
34666,-589824,99,-56,-1,-1,0
34700,-917504,99,-56,-1,-1,0
34733,-1048576,99,-56,-1,-1,0
34766,-1245184,99,-56,-1,-1,0
34800,-1310720,99,-56,-1,-1,0
34833,-1441792,99,-56,-1,-1,0
34866,-917504,99,-56,-1,-1,0
34900,-1048576,99,-56,-1,-1,0
34933,10223616,99,-56,-1,-1,0
34966,-1966080,99,-56,-1,-1,0
35000,-589824,99,-56,-1,-1,0
35033,131072,99,-56,-1,-1,0
35066,1376256,99,-56,-1,-1,0
35100,3276800,99,-56,-1,-1,0
35133,2686976,99,-56,-1,-1,0
35166,262144,99,-56,-1,-1,0
35200,-131072,99,-56,-1,-1,0
35233,-327680,99,-56,-1,-1,0
35266,-589824,99,-56,-1,-1,0
35300,-720896,99,-56,-1,-1,0
35333,-786432,99,-56,-1,-1,0
35366,-786432,99,-56,-1,-1,0
35400,-851968,99,-56,-1,-1,0
35433,-786432,99,-56,-1,-1,0
35466,-917504,99,-56,-1,-1,0
35500,-851968,99,-56,-1,-1,0
35533,-786432,99,-56,-1,-1,0
35566,-786432,99,-56,-1,-1,0
35600,-917504,99,-56,-1,-1,0
35633,-983040,99,-56,-1,-1,0
35666,-262144,99,-56,-1,-1,0
35700,-851968,99,-56,-1,-1,0
35733,3670016,99,-56,-1,-1,0
35766,-1245184,99,-56,-1,-1,0
35800,-720896,99,-56,-1,-1,0
35833,196608,99,-56,-1,-1,0
35866,1441792,99,-56,-1,-1,0
35900,3080192,99,-56,-1,-1,0
35933,3080192,99,-56,-1,-1,0
35966,655360,99,-56,-1,-1,0
36000,131072,99,-56,-1,-1,0
36033,-131072,99,-56,-1,-1,0
36066,-393216,99,-56,-1,-1,0
36100,-655360,99,-56,-1,-1,0
36133,-851968,99,-56,-1,-1,0
36166,-851968,99,-56,-1,-1,0
36200,-917504,99,-56,-1,-1,0
36233,-917504,99,-56,-1,-1,0
36266,-983040,99,-56,-1,-1,0
36300,-1048576,99,-56,-1,-1,0
36333,-393216,99,-56,-1,-1,0
36366,-655360,99,-56,-1,-1,0
36400,983040,99,-56,-1,-1,0
36433,-4587520,99,-56,-1,-1,0
36466,-917504,99,-56,-1,-1,0
36500,-262144,99,-56,-1,-1,0
36533,786432,99,-56,-1,-1,0
36566,2490368,99,-56,-1,-1,0
36600,4063232,99,-56,-1,-1,0
36633,2359296,99,-56,-1,-1,0
36666,393216,99,-56,-1,-1,0
36700,131072,99,-56,-1,-1,0
36733,-131072,99,-56,-1,-1,0
36766,-393216,99,-56,-1,-1,0
36800,-589824,99,-56,-1,-1,0
36833,-720896,99,-56,-1,-1,0
36866,-720896,99,-56,-1,-1,0
36900,-720896,99,-56,-1,-1,0
36933,-851968,99,-56,-1,-1,0
36966,-917504,99,-56,-1,-1,0
37000,-1441792,99,-56,-1,-1,0
37033,-262144,99,-56,-1,-1,0
37066,-1114112,99,-56,-1,-1,0
37100,4784128,99,-56,-1,-1,0
37133,-5898240,99,-56,-1,-1,0
37166,-1048576,99,-56,-1,-1,0
37200,-393216,99,-56,-1,-1,0
37233,851968,99,-56,-1,-1,0
37266,3211264,99,-56,-1,-1,0
37300,4915200,99,-56,-1,-1,0
37333,1835008,99,-56,-1,-1,0
37366,-131072,99,-56,-1,-1,0
37400,-262144,99,-56,-1,-1,0
37433,-458752,99,-56,-1,-1,0
37466,-720896,99,-56,-1,-1,0
37500,-851968,99,-56,-1,-1,0
37533,-917504,99,-56,-1,-1,0
37566,-1048576,99,-56,-1,-1,0
37600,-1048576,99,-56,-1,-1,0
37633,-1114112,99,-56,-1,-1,0
37666,-1507328,99,-56,-1,-1,0
37700,-393216,99,-56,-1,-1,0
37733,-1245184,99,-56,-1,-1,0
37766,8519680,99,-56,-1,-1,0
37800,-2097152,99,-56,-1,-1,0
37833,-917504,99,-56,-1,-1,0
37866,-131072,99,-56,-1,-1,0
37900,1310720,99,-56,-1,-1,0
37933,3145728,99,-56,-1,-1,0
37966,3407872,99,-56,-1,-1,0
38000,524288,99,-56,-1,-1,0
38033,-262144,99,-56,-1,-1,0
38066,-393216,99,-56,-1,-1,0
38100,-720896,99,-56,-1,-1,0
38133,-1179648,99,-56,-1,-1,0
38166,-1048576,99,-56,-1,-1,0
38200,-1179648,99,-56,-1,-1,0
38233,-1179648,99,-56,-1,-1,0
38266,-1114112,99,-56,-1,-1,0
38300,-1572864,99,-56,-1,-1,0
38333,-589824,99,-56,-1,-1,0
38366,-1179648,99,-56,-1,-1,0
38400,7667712,94,-56,-1,-1,0
38433,-4259840,94,-56,-1,-1,0
38466,-1048576,94,-56,-1,-1,0
38500,-458752,94,-56,-1,-1,0
38533,524288,94,-56,-1,-1,0
38566,2752512,94,-56,-1,-1,0
38600,4063232,94,-56,-1,-1,0
38633,917504,94,-56,-1,-1,0
38666,-327680,94,-56,-1,-1,0
38700,-720896,94,-56,-1,-1,0
38733,-786432,94,-56,-1,-1,0
38766,-1048576,94,-56,-1,-1,0
38800,-1179648,94,-56,-1,-1,0
38833,-1310720,94,-56,-1,-1,0
38866,-1179648,94,-56,-1,-1,0
38900,-1245184,94,-56,-1,-1,0
38933,-1376256,94,-56,-1,-1,0
38966,-720896,94,-56,-1,-1,0
39000,-1114112,94,-56,-1,-1,0
39033,3014656,90,-56,-1,-1,0
39066,-1507328,90,-56,-1,-1,0
39100,-1048576,90,-56,-1,-1,0
39133,0,90,-56,-1,-1,0
39166,1310720,90,-56,-1,-1,0
39200,3866624,90,-56,-1,-1,0
39233,3276800,90,-56,-1,-1,0
39266,0,90,-56,-1,-1,0
39300,-524288,90,-56,-1,-1,0
39333,-786432,90,-56,-1,-1,0
39366,-1048576,90,-56,-1,-1,0
39400,-1114112,90,-56,-1,-1,0
39433,-1376256,90,-56,-1,-1,0
39466,-1310720,90,-56,-1,-1,0
39500,-1310720,90,-56,-1,-1,0
39533,-1835008,90,-56,-1,-1,0
39566,-327680,90,-56,-1,-1,0
39600,-1245184,88,-56,-1,-1,0
39633,9895936,88,-56,-1,-1,0
39666,-2162688,88,-56,-1,-1,0
39700,-983040,88,-56,-1,-1,0
39733,-262144,88,-56,-1,-1,0
39766,1376256,88,-56,-1,-1,0
39800,4521984,88,-56,-1,-1,0
39833,5111808,88,-56,-1,-1,0
39866,1048576,88,-56,-1,-1,0
39900,131072,88,-56,-1,-1,0
39933,-327680,88,-56,-1,-1,0
39966,-786432,88,-56,-1,-1,0
40000,-1048576,88,-56,-1,-1,0
40033,-1114112,88,-56,-1,-1,0
40066,-1245184,88,-56,-1,-1,0
40100,-1441792,86,-56,-1,-1,0
40133,-786432,86,-56,-1,-1,0
40166,-1310720,86,-56,-1,-1,0
40200,6291456,86,-56,-1,-1,0
40233,-4980736,86,-56,-1,-1,0
40266,-1310720,86,-56,-1,-1,0
40300,-589824,86,-56,-1,-1,0
40333,524288,86,-56,-1,-1,0
40366,2949120,86,-56,-1,-1,0
40400,4390912,86,-56,-1,-1,0
40433,917504,86,-56,-1,-1,0
40466,-327680,86,-56,-1,-1,0
40500,-655360,86,-56,-1,-1,0
40533,-786432,86,-56,-1,-1,0
40566,-1048576,86,-56,-1,-1,0
40600,-1310720,86,-56,-1,-1,0
40633,-1507328,83,-56,-1,-1,0
40666,-1114112,83,-56,-1,-1,0
40700,0,83,-56,-1,-1,0
40733,-5767168,83,-56,-1,-1,0
40766,-1310720,83,-56,-1,-1,0
40800,-720896,83,-56,-1,-1,0
40833,196608,83,-56,-1,-1,0
40866,2162688,83,-56,-1,-1,0
40900,4128768,83,-56,-1,-1,0
40933,1638400,83,-56,-1,-1,0
40966,-327680,83,-56,-1,-1,0
41000,-655360,83,-56,-1,-1,0
41033,-851968,83,-56,-1,-1,0
41066,-1048576,83,-56,-1,-1,0
41100,-1245184,83,-56,-1,-1,0
41133,-1310720,83,-56,-1,-1,0
41166,-1441792,83,-56,-1,-1,0
41200,-1376256,83,-56,-1,-1,0
41233,4587520,83,-56,-1,-1,0
41266,-5308416,83,-56,-1,-1,0
41300,-1245184,83,-56,-1,-1,0
41333,-524288,83,-56,-1,-1,0
41366,458752,83,-56,-1,-1,0
41400,3014656,83,-56,-1,-1,0
41433,4915200,83,-56,-1,-1,0
41466,1507328,83,-56,-1,-1,0
41500,-196608,83,-56,-1,-1,0
41533,-458752,83,-56,-1,-1,0
41566,-851968,83,-56,-1,-1,0
41600,-851968,83,-56,-1,-1,0
41633,-983040,83,-56,-1,-1,0
41666,-1638400,83,-56,-1,-1,0
41700,-655360,83,-56,-1,-1,0
41733,-1245184,83,-56,-1,-1,0
41766,1376256,83,-56,-1,-1,0
41800,-1835008,83,-56,-1,-1,0
41833,-851968,83,-56,-1,-1,0
41866,-65536,83,-56,-1,-1,0
41900,1703936,83,-56,-1,-1,0
41933,4849664,83,-56,-1,-1,0
41966,3342336,83,-56,-1,-1,0
42000,-65536,83,-56,-1,-1,0
42033,-458752,83,-56,-1,-1,0
42066,-524288,83,-56,-1,-1,0
42100,-851968,83,-56,-1,-1,0
42133,-983040,83,-56,-1,-1,0
42166,-1376256,83,-56,-1,-1,0
42200,-1310720,83,-56,-1,-1,0
42233,-1114112,83,-56,-1,-1,0
42266,1835008,83,-56,-1,-1,0
42300,-6422528,83,-56,-1,-1,0
42333,-1179648,83,-56,-1,-1,0
42366,-655360,83,-56,-1,-1,0
42400,393216,83,-56,-1,-1,0
42433,2228224,83,-56,-1,-1,0
42466,3604480,83,-56,-1,-1,0
42500,1114112,83,-56,-1,-1,0
42533,-131072,83,-56,-1,-1,0
42566,-393216,83,-56,-1,-1,0
42600,-589824,83,-56,-1,-1,0
42633,-851968,83,-56,-1,-1,0
42666,-1048576,83,-56,-1,-1,0
42700,-1245184,83,-56,-1,-1,0
42733,-1114112,83,-56,-1,-1,0
42766,-1179648,83,-56,-1,-1,0
42800,5898240,84,-56,-1,-1,0
42833,-4456448,84,-56,-1,-1,0
42866,-1114112,84,-56,-1,-1,0
42900,-458752,84,-56,-1,-1,0
42933,589824,84,-56,-1,-1,0
42966,2621440,84,-56,-1,-1,0
43000,3538944,84,-56,-1,-1,0
43033,786432,84,-56,-1,-1,0
43066,-196608,84,-56,-1,-1,0
43100,-393216,84,-56,-1,-1,0
43133,-720896,84,-56,-1,-1,0
43166,-917504,84,-56,-1,-1,0
43200,-1048576,84,-56,-1,-1,0
43233,-1114112,84,-56,-1,-1,0
43266,-1114112,84,-56,-1,-1,0
43300,-1245184,84,-56,-1,-1,0
43333,-1048576,84,-56,-1,-1,0
43366,-1048576,84,-56,-1,-1,0
43400,7536640,84,-56,-1,-1,0
43433,-3604480,84,-56,-1,-1,0
43466,-983040,84,-56,-1,-1,0
43500,-262144,84,-56,-1,-1,0
43533,655360,84,-56,-1,-1,0
43566,2883584,84,-56,-1,-1,0
43600,4128768,85,-56,-1,-1,0
43633,1507328,85,-56,-1,-1,0
43666,65536,85,-56,-1,-1,0
43700,-131072,85,-56,-1,-1,0
43733,-393216,85,-56,-1,-1,0
43766,-589824,85,-56,-1,-1,0
43800,-786432,85,-56,-1,-1,0
43833,-786432,85,-56,-1,-1,0
43866,-786432,85,-56,-1,-1,0
43900,-851968,85,-56,-1,-1,0
43933,-917504,85,-56,-1,-1,0
43966,-917504,85,-56,-1,-1,0
44000,-917504,85,-56,-1,-1,0
44033,-983040,85,-56,-1,-1,0
44066,-983040,85,-56,-1,-1,0
44100,-1310720,85,-56,-1,-1,0
44133,-262144,85,-56,-1,-1,0
44166,-851968,85,-56,-1,-1,0
44200,5963776,85,-56,-1,-1,0
44233,-4194304,85,-56,-1,-1,0
44266,-1114112,85,-56,-1,-1,0
44300,-524288,85,-56,-1,-1,0
44333,458752,85,-56,-1,-1,0
44366,2228224,85,-56,-1,-1,0
44400,3997696,85,-56,-1,-1,0
44433,2555904,85,-56,-1,-1,0
44466,262144,85,-56,-1,-1,0
44500,-131072,85,-56,-1,-1,0
44533,-393216,85,-56,-1,-1,0
44566,-720896,85,-56,-1,-1,0
44600,-917504,85,-56,-1,-1,0
44633,-1048576,85,-56,-1,-1,0
44666,-1048576,85,-56,-1,-1,0
44700,-1179648,85,-56,-1,-1,0
44733,-1245184,85,-56,-1,-1,0
44766,-1179648,85,-56,-1,-1,0
44800,-1507328,85,-56,-1,-1,0
44833,-393216,85,-56,-1,-1,0
44866,-983040,85,-56,-1,-1,0
44900,7143424,85,-56,-1,-1,0
44933,-1441792,85,-56,-1,-1,0
44966,-720896,85,-56,-1,-1,0
45000,0,85,-56,-1,-1,0
45033,1572864,85,-56,-1,-1,0
45066,4587520,85,-56,-1,-1,0
45100,4784128,85,-56,-1,-1,0
45133,851968,85,-56,-1,-1,0
45166,-393216,85,-56,-1,-1,0
45200,-524288,85,-56,-1,-1,0
45233,-851968,85,-56,-1,-1,0
45266,-1048576,85,-56,-1,-1,0
45300,-1048576,85,-56,-1,-1,0
45333,-1179648,85,-56,-1,-1,0
45366,-1245184,85,-56,-1,-1,0
45400,-1179648,85,-56,-1,-1,0
45433,-1441792,85,-56,-1,-1,0
45466,-720896,85,-56,-1,-1,0
45500,-1179648,85,-56,-1,-1,0
45533,2752512,85,-56,-1,-1,0
45566,-1769472,85,-56,-1,-1,0
45600,-917504,85,-56,-1,-1,0
45633,-131072,85,-56,-1,-1,0
45666,1245184,85,-56,-1,-1,0
45700,3997696,85,-56,-1,-1,0
45733,3932160,85,-56,-1,-1,0
45766,524288,85,-56,-1,-1,0
45800,-196608,85,-56,-1,-1,0
45833,-262144,85,-56,-1,-1,0
45866,-524288,85,-56,-1,-1,0
45900,-786432,85,-56,-1,-1,0
45933,-917504,85,-56,-1,-1,0
45966,-917504,85,-56,-1,-1,0
46000,-983040,85,-56,-1,-1,0
46033,-1507328,85,-56,-1,-1,0
46066,-196608,85,-56,-1,-1,0
46100,-1048576,85,-56,-1,-1,0
46133,9175040,85,-56,-1,-1,0
46166,-2883584,85,-56,-1,-1,0
46200,-1048576,85,-56,-1,-1,0
46233,-327680,85,-56,-1,-1,0
46266,851968,85,-56,-1,-1,0
46300,3145728,85,-56,-1,-1,0
46333,4063232,85,-56,-1,-1,0
46366,917504,85,-56,-1,-1,0
46400,-196608,85,-56,-1,-1,0
46433,-393216,85,-56,-1,-1,0
46466,-655360,85,-56,-1,-1,0
46500,-851968,85,-56,-1,-1,0
46533,-983040,85,-56,-1,-1,0
46566,-983040,85,-56,-1,-1,0
46600,-1048576,85,-56,-1,-1,0
46633,-1638400,85,-56,-1,-1,0
46666,0,85,-56,-1,-1,0
46700,-1048576,85,-56,-1,-1,0
46733,9764864,85,-56,-1,-1,0
46766,-2555904,85,-56,-1,-1,0
46800,-720896,85,-56,-1,-1,0
46833,-131072,85,-56,-1,-1,0
46866,1179648,85,-56,-1,-1,0
46900,3604480,85,-56,-1,-1,0
46933,4325376,85,-56,-1,-1,0
46966,1114112,85,-56,-1,-1,0
47000,0,85,-56,-1,-1,0
47033,-262144,85,-56,-1,-1,0
47066,-458752,85,-56,-1,-1,0
47100,-786432,85,-56,-1,-1,0
47133,-917504,85,-56,-1,-1,0
47166,-983040,85,-56,-1,-1,0
47200,-1703936,85,-56,-1,-1,0
47233,-524288,85,-56,-1,-1,0
47266,-1310720,85,-56,-1,-1,0
47300,4980736,86,-56,-1,-1,0
47333,-1703936,86,-56,-1,-1,0
47366,-1114112,86,-56,-1,-1,0
47400,-327680,86,-56,-1,-1,0
47433,1114112,86,-56,-1,-1,0
47466,3670016,86,-56,-1,-1,0
47500,3080192,86,-56,-1,-1,0
47533,-131072,86,-56,-1,-1,0
47566,-655360,86,-56,-1,-1,0
47600,-851968,86,-56,-1,-1,0
47633,-1179648,86,-56,-1,-1,0
47666,-1310720,86,-56,-1,-1,0
47700,-1441792,86,-56,-1,-1,0
47733,-1376256,86,-56,-1,-1,0
47766,-1376256,86,-56,-1,-1,0
47800,-1900544,86,-56,-1,-1,0
47833,-786432,86,-56,-1,-1,0
47866,-1376256,86,-56,-1,-1,0
47900,8650752,86,-56,-1,-1,0
47933,-2031616,86,-56,-1,-1,0
47966,-1179648,86,-56,-1,-1,0
48000,-458752,86,-56,-1,-1,0
48033,917504,86,-56,-1,-1,0
48066,3342336,86,-56,-1,-1,0
48100,3932160,86,-56,-1,-1,0
48133,655360,86,-56,-1,-1,0
48166,-262144,86,-56,-1,-1,0
48200,-393216,86,-56,-1,-1,0
48233,-655360,86,-56,-1,-1,0
48266,-786432,86,-56,-1,-1,0
48300,-983040,86,-56,-1,-1,0
48333,-983040,86,-56,-1,-1,0
48366,-1114112,86,-56,-1,-1,0
48400,-1048576,86,-56,-1,-1,0
48433,-1179648,86,-56,-1,-1,0
48466,-1376256,86,-56,-1,-1,0
48500,-1048576,86,-56,-1,-1,0
48533,3932160,86,-56,-1,-1,0
48566,-5111808,86,-56,-1,-1,0
48600,-1048576,86,-56,-1,-1,0
48633,-589824,84,-56,-1,-1,0
48666,524288,84,-56,-1,-1,0
48700,2424832,84,-56,-1,-1,0
48733,4456448,84,-56,-1,-1,0
48766,2359296,84,-56,-1,-1,0
48800,131072,84,-56,-1,-1,0
48833,-196608,84,-56,-1,-1,0
48866,-393216,84,-56,-1,-1,0
48900,-655360,84,-56,-1,-1,0
48933,-786432,84,-56,-1,-1,0
48966,-917504,84,-56,-1,-1,0
49000,-983040,84,-56,-1,-1,0
49033,-983040,84,-56,-1,-1,0
49066,-983040,84,-56,-1,-1,0
49100,-1114112,84,-56,-1,-1,0
49133,-1441792,84,-56,-1,-1,0
49166,-393216,84,-56,-1,-1,0
49200,-983040,84,-56,-1,-1,0
49233,9895936,84,-56,-1,-1,0
49266,-1703936,82,-56,-1,-1,0
49300,-851968,82,-56,-1,-1,0
49333,-262144,82,-56,-1,-1,0
49366,983040,82,-56,-1,-1,0
49400,3276800,82,-56,-1,-1,0
49433,4456448,82,-56,-1,-1,0
49466,1245184,82,-56,-1,-1,0
49500,0,82,-56,-1,-1,0
49533,-262144,82,-56,-1,-1,0
49566,-655360,82,-56,-1,-1,0
49600,-917504,82,-56,-1,-1,0
49633,-983040,82,-56,-1,-1,0
49666,-983040,82,-56,-1,-1,0
49700,-983040,82,-56,-1,-1,0
49733,-983040,82,-56,-1,-1,0
49766,-1048576,82,-56,-1,-1,0
49800,-1572864,82,-56,-1,-1,0
49833,-262144,82,-56,-1,-1,0
49866,-917504,81,-56,-1,-1,0
49900,4325376,81,-56,-1,-1,0
49933,-1507328,81,-56,-1,-1,0
49966,-917504,81,-56,-1,-1,0
50000,0,81,-56,-1,-1,0
